1560885907.00
64.000000
-0.00
-0.00
-0.00
-0.00
-0.00
-0.00
-0.00
-0.00
-0.00
-0.00
0.00
0.01
0.01
-0.00
-0.03
-0.05
-0.05
0.00
0.13
0.36
0.66
1.01
1.37
1.72
2.06
2.40
2.79
3.24
3.80
4.42
5.06
5.66
6.19
6.68
7.17
7.72
8.37
9.18
10.04
10.84
11.46
11.90
12.23
12.67
13.44
14.66
16.54
18.83
21.26
23.52
25.49
27.30
29.30
31.92
35.42
40.11
45.55
51.17
56.41
61.01
65.17
69.46
74.58
80.92
88.81
97.53
106.16
113.88
120.39
126.02
131.66
138.65
145.47
153.91
164.12
175.97
188.38
198.90
203.84
199.03
181.20
149.08
104.33
50.03
-9.90
-72.04
-134.18
-195.16
-254.36
-311.26
-365.31
-415.73
-462.48
-505.72
-545.58
-581.45
-611.23
-631.07
-635.78
-620.33
-581.46
-519.70
-439.53
-348.36
-254.36
-164.21
-81.85
-8.58
55.71
111.42
158.29
195.80
223.77
242.92
254.85
261.53
264.54
264.73
262.23
256.71
248.03
236.49
222.98
208.65
194.56
181.32
168.99
157.15
145.25
132.90
120.06
107.06
94.43
82.65
71.96
62.29
53.37
44.90
36.87
29.23
22.14
15.78
10.30
5.74
1.99
-1.11
-3.73
-5.97
-7.93
-9.65
-11.15
-12.47
-13.59
-14.46
-15.04
-15.26
-15.15
-14.79
-14.28
-13.74
-13.20
-12.66
-12.11
-11.55
-11.03
-10.62
-10.39
-10.34
-10.37
-10.36
-10.23
-10.02
-9.83
-9.83
-10.13
-10.72
-11.50
-12.32
-13.03
-13.55
-13.90
-14.14
-14.38
-14.71
-15.21
-15.94
-16.87
-17.87
-18.81
-19.57
-20.15
-20.57
-20.85
-20.94
-20.70
-20.22
-19.51
-18.61
-17.65
-16.74
-15.94
-15.24
-14.51
-13.60
-12.44
-11.01
-9.45
-7.96
-6.69
-5.74
-5.04
-4.44
-3.80
-3.04
-2.16
-1.25
-0.43
0.25
0.78
1.22
1.60
1.96
2.33
2.77
3.32
4.00
4.76
5.53
6.25
6.92
7.59
8.29
9.03
9.70
10.15
10.22
9.84
8.98
7.66
5.89
3.66
0.96
-2.14
-5.49
-8.76
-11.61
-13.73
-14.94
-15.27
-14.87
-13.96
-12.70
-11.22
-9.55
-7.68
-5.65
-3.53
-1.40
0.64
2.55
4.32
6.01
7.70
9.43
11.23
13.05
14.83
16.52
18.13
19.75
21.46
23.36
25.44
27.64
29.81
31.83
33.60
35.08
36.33
37.41
38.42
39.34
40.15
40.73
41.03
41.06
40.91
40.70
40.44
40.04
39.34
38.16
36.46
34.34
32.01
29.70
27.55
25.55
23.58
21.52
19.31
17.02
14.77
12.71
10.90
9.30
7.75
6.13
4.39
2.63
0.99
-0.35
-1.37
-2.13
-2.81
-3.53
-4.34
-5.13
-5.78
-6.19
-6.40
-6.55
-6.81
-7.26
-7.88
-8.51
-8.96
-9.12
-8.96
-8.56
-8.03
-7.46
-6.90
-6.36
-5.86
-5.43
-5.07
-4.74
-4.38
-3.95
-3.48
-3.05
-2.84
-2.94
-3.35
-3.94
-4.51
-4.89
-5.03
-5.00
-4.96
-5.09
-5.49
-6.11
-6.76
-7.20
-7.16
-6.44
-5.00
-2.95
-0.48
2.14
4.65
6.85
8.64
10.00
11.06
11.98
12.97
14.12
15.33
16.33
16.75
16.24
14.63
12.03
8.73
5.15
1.71
-1.30
-3.73
-5.54
-6.80
-7.64
-8.27
-8.89
-9.62
-10.46
-11.24
-11.74
-11.77
-11.29
-10.47
-9.56
-8.82
-8.35
-8.15
-8.09
-8.06
-7.97
-7.83
-7.66
-7.45
-7.18
-6.88
-6.61
-6.49
-6.69
-7.27
-8.12
-8.97
-9.47
-9.32
-8.43
-6.89
-4.99
-2.99
-1.10
0.64
2.25
3.71
4.97
5.91
6.47
6.67
6.63
6.46
6.24
5.92
5.45
4.77
3.93
3.03
2.17
1.45
0.87
0.43
0.13
-0.03
-0.06
-0.03
-0.05
-0.27
-0.79
-1.62
-2.71
-3.90
-5.03
-5.98
-6.68
-7.08
-7.19
-6.99
-6.52
-5.82
-4.98
-4.14
-3.43
-2.97
-2.77
-2.76
-2.80
-2.76
-2.57
-2.25
-1.89
-1.62
-1.52
-1.61
-1.84
-2.07
-2.22
-2.23
-2.14
-2.06
-2.06
-2.21
-2.50
-2.86
-3.23
-3.53
-3.71
-3.76
-3.71
-3.61
-3.58
-3.68
-3.98
-4.42
-4.92
-5.31
-5.48
-5.35
-4.98
-4.50
-4.07
-3.82
-3.78
-3.87
-3.96
-3.89
-3.58
-3.02
-2.32
-1.59
-0.94
-0.43
-0.08
0.12
0.17
0.08
-0.11
-0.34
-0.52
-0.60
-0.55
-0.42
-0.29
-0.21
-0.18
-0.15
-0.06
0.10
0.29
0.43
0.40
0.15
-0.29
-0.83
-1.37
-1.80
-2.06
-2.16
-2.11
-1.95
-1.73
-1.49
-1.23
-0.98
-0.77
-0.60
-0.47
-0.37
-0.25
-0.05
0.27
0.71
1.19
1.58
1.79
1.75
1.50
1.14
0.78
0.51
0.34
0.21
0.12
0.03
-0.03
-0.06
-0.09
-0.17
-0.34
-0.62
-0.92
-1.17
-1.35
-1.49
-1.69
-2.02
-2.46
-2.92
-3.24
-3.31
-3.12
-2.74
-2.27
-1.78
-1.31
-0.82
-0.30
0.25
0.80
1.27
1.60
1.76
1.79
1.74
1.69
1.70
1.77
1.89
2.00
2.07
2.09
2.07
2.05
2.02
1.94
1.80
1.61
1.41
1.25
1.17
1.12
1.01
0.76
0.32
-0.25
-0.88
-1.47
-1.94
-2.26
-2.42
-2.42
-2.25
-1.94
-1.54
-1.16
-0.88
-0.77
-0.79
-0.83
-0.76
-0.48
-0.02
0.49
0.86
0.95
0.75
0.36
-0.02
-0.27
-0.32
-0.23
-0.11
-0.04
-0.05
-0.13
-0.27
-0.43
-0.60
-0.75
-0.84
-0.83
-0.72
-0.58
-0.50
-0.56
-0.80
-1.22
-1.75
-2.31
-2.82
-3.17
-3.28
-3.09
-2.61
-1.96
-1.26
-0.69
-0.31
-0.12
-0.02
0.10
0.32
0.62
0.91
1.08
1.08
0.92
0.71
0.58
0.59
0.73
0.88
0.92
0.76
0.39
-0.09
-0.54
-0.88
-1.08
-1.20
-1.31
-1.42
-1.51
-1.55
-1.53
-1.55
-1.74
-2.21
-2.89
-3.60
-4.08
-4.17
-3.84
-3.25
-2.60
-2.08
-1.73
-1.45
-1.14
-0.70
-0.14
0.46
0.99
1.34
1.45
1.33
1.05
0.74
0.50
0.40
0.43
0.55
0.66
0.71
0.65
0.46
0.16
-0.19
-0.47
-0.54
-0.30
0.22
0.85
1.28
1.23
0.58
-0.56
-1.90
-3.05
-3.73
-3.79
-3.32
-2.51
-1.61
-0.83
-0.27
0.07
0.27
0.44
0.69
1.08
1.58
2.11
2.58
2.90
3.00
2.89
2.61
2.25
1.93
1.72
1.67
1.74
1.85
1.89
1.81
1.60
1.29
0.94
0.60
0.31
0.10
0.04
0.15
0.39
0.63
0.65
0.28
-0.53
-1.57
-2.51
-2.97
-2.76
-1.96
-0.90
0.06
0.66
0.90
0.96
1.05
1.30
1.70
2.08
2.28
2.23
1.97
1.64
1.39
1.29
1.32
1.44
1.56
1.60
1.51
1.24
0.81
0.27
-0.25
-0.64
-0.81
-0.78
-0.67
-0.65
-0.89
-1.44
-2.24
-3.13
-3.90
-4.40
-4.54
-4.31
-3.75
-2.95
-2.02
-1.11
-0.37
0.08
0.22
0.12
-0.05
-0.11
0.08
0.51
1.07
1.55
1.75
1.61
1.18
0.66
0.27
0.12
0.21
0.41
0.58
0.64
0.60
0.54
0.52
0.50
0.41
0.18
-0.21
-0.66
-1.07
-1.38
-1.63
-1.93
-2.32
-2.75
-3.07
-3.11
-2.83
-2.34
-1.82
-1.45
-1.27
-1.19
-1.07
-0.80
-0.37
0.11
0.50
0.72
0.77
0.72
0.69
0.76
0.97
1.30
1.66
1.93
2.02
1.87
1.52
1.05
0.60
0.29
0.17
0.22
0.36
0.49
0.51
0.36
0.06
-0.38
-0.90
-1.43
-1.84
-2.03
-1.94
-1.61
-1.15
-0.72
-0.43
-0.31
-0.28
-0.23
-0.06
0.27
0.68
1.05
1.24
1.18
0.90
0.50
0.16
0.03
0.17
0.56
1.09
1.62
2.05
2.35
2.53
2.66
2.78
2.93
3.07
3.14
3.07
2.83
2.42
1.90
1.32
0.73
0.11
-0.60
-1.40
-2.26
-3.05
-3.59
-3.73
-3.49
-3.02
-2.56
-2.35
-2.47
-2.82
-3.21
-3.47
-3.52
-3.40
-3.22
-3.10
-3.02
-2.95
-2.79
-2.49
-2.09
-1.65
-1.23
-0.84
-0.45
-0.01
0.49
1.03
1.53
1.90
2.05
1.94
1.63
1.20
0.76
0.36
-0.06
-0.68
-1.70
-3.24
-5.23
-7.32
-9.02
-9.82
-9.51
-8.21
-6.40
-4.69
-3.49
-2.88
-2.57
-2.06
-0.99
0.74
2.85
4.90
6.51
7.59
8.35
9.13
10.16
11.46
12.79
13.83
14.30
14.10
13.33
12.16
10.78
9.31
7.82
6.34
4.87
3.41
1.94
0.49
-0.92
-2.23
-3.38
-4.30
-4.90
-5.10
-4.77
-3.89
-2.55
-1.03
0.34
1.32
1.89
2.23
2.65
3.34
4.26
5.13
5.63
5.50
4.71
3.49
2.12
0.91
-0.01
-0.63
-1.05
-1.39
-1.73
-2.10
-2.42
-2.62
-2.61
-2.40
-2.07
-1.77
-1.65
-1.82
-2.29
-2.99
-3.82
-4.71
-5.56
-6.31
-6.82
-6.97
-6.64
-5.80
-4.57
-3.17
-1.80
-0.55
0.65
1.94
3.47
5.20
6.92
8.33
9.15
9.26
8.79
7.98
7.12
6.45
6.05
5.92
5.97
6.13
6.26
6.25
6.03
5.57
5.00
4.54
4.44
4.84
5.75
6.98
8.21
9.06
9.14
8.15
5.96
2.63
-1.48
-5.81
-9.72
-12.71
-14.63
-15.72
-16.46
-17.29
-18.40
-19.59
-20.40
-20.30
-18.96
-16.49
-13.30
-9.86
-6.51
-3.41
-0.57
2.08
4.61
7.10
9.42
11.47
13.34
15.33
17.84
21.22
25.63
31.02
37.17
43.44
49.26
54.49
59.44
64.48
69.42
73.08
73.32
67.74
54.22
32.37
4.18
-26.41
-54.78
-77.24
-92.04
-99.57
-99.03
-91.31
-79.66
-69.28
-65.39
-70.80
-84.66
-102.78
-119.03
-127.47
-124.89
-111.83
-92.33
-72.08
-56.00
-45.80
-39.25
-31.31
-16.80
6.61
37.50
72.21
105.83
133.74
152.60
160.59
157.31
143.60
121.34
93.58
64.21
37.20
15.52
0.59
-7.86
-11.29
-11.62
-10.83
-10.47
-11.42
-13.85
-17.22
-20.60
-23.06
-24.14
-23.89
-22.93
-21.95
-21.35
-20.98
-20.22
-18.28
-14.58
-9.01
-2.02
5.55
12.81
19.04
23.82
27.03
28.74
29.12
28.33
26.57
24.03
20.94
17.49
13.80
9.93
5.91
1.84
-2.09
-5.61
-8.50
-10.69
-12.29
-13.54
-14.70
-15.87
-16.99
-17.85
-18.22
-17.96
-17.04
-15.60
-13.83
-11.91
-10.00
-8.17
-6.48
-4.96
-3.63
-2.52
-1.63
-0.93
-0.37
0.13
0.61
1.06
1.43
1.66
1.72
1.62
1.36
1.01
0.58
0.11
-0.39
-0.84
-1.22
-1.49
-1.65
-1.74
-1.79
-1.82
-1.81
-1.75
-1.60
-1.32
-0.88
-0.26
0.51
1.34
2.07
2.60
2.87
2.95
2.94
2.96
3.03
3.10
3.07
2.85
2.47
2.05
1.70
1.45
1.24
0.96
0.49
-0.20
-1.08
-2.04
-2.97
-3.85
-4.72
-5.57
-6.40
-7.18
-7.90
-8.60
-9.23
-9.70
-9.96
-10.02
-9.81
-9.31
-8.58
-7.78
-7.25
-7.02
-6.95
-6.81
-6.39
-5.36
-3.46
-0.71
2.52
5.46
7.77
9.52
11.08
13.01
16.17
21.21
28.36
37.20
46.59
55.66
63.73
70.11
71.99
67.06
54.73
36.85
18.90
3.01
-10.25
-21.10
-30.19
-37.80
-43.74
-47.62
-49.18
-48.50
-46.33
-43.15
-39.21
-34.70
-29.81
-24.50
-18.78
-12.72
-6.68
-1.36
2.95
6.21
8.47
9.86
10.66
11.18
11.71
12.30
12.72
12.85
12.66
12.18
11.46
10.68
10.04
9.69
9.62
9.55
9.24
8.44
7.02
4.99
2.57
0.09
-2.11
-3.82
-5.03
-5.79
-6.24
-6.45
-6.47
-6.28
-5.89
-5.33
-4.69
-4.05
-3.49
-3.01
-2.54
-1.98
-1.23
-0.27
0.88
2.14
3.41
4.57
5.51
6.19
6.60
6.81
6.95
7.12
7.40
7.77
8.15
8.47
8.73
9.06
9.64
10.64
12.07
13.74
15.35
16.60
17.37
17.78
18.10
18.67
19.68
21.13
22.87
24.71
26.59
28.66
31.26
34.75
39.40
45.15
51.65
58.32
64.56
70.01
74.71
79.20
84.29
90.80
99.18
109.23
120.15
130.78
140.08
147.59
153.61
159.17
165.51
173.58
183.40
193.83
202.71
207.36
205.36
195.16
176.46
150.23
118.11
81.88
42.75
1.00
-44.02
-93.44
-147.74
-205.72
-263.74
-316.02
-356.32
-380.10
-386.44
-378.22
-360.62
-338.73
-315.57
-291.58
-265.67
-236.98
-206.23
-176.00
-149.86
-131.19
-122.17
-123.23
-132.95
-148.39
-165.76
-181.63
-194.11
-203.36
-211.09
-219.06
-227.54
-234.79
-237.55
-232.76
-218.62
-195.22
-164.25
-128.45
-91.18
-55.85
-25.27
-0.67
19.06
37.16
57.57
82.73
112.22
142.84
170.14
190.67
203.61
210.97
215.95
221.37
228.23
235.88
243.00
248.77
253.49
258.35
264.64
272.76
281.91
290.05
295.27
296.90
295.99
295.01
296.69
303.19
314.95
331.13
348.85
365.04
377.23
383.88
384.30
378.16
365.97
347.71
323.87
292.94
254.00
207.47
155.40
101.28
48.51
0.82
-41.34
-78.71
-116.50
-159.38
-209.48
-265.50
-323.10
-377.50
-423.25
-459.91
-488.74
-516.67
-549.88
-591.28
-639.69
-690.20
-737.53
-775.57
-804.62
-792.95
-718.82
-577.37
-387.05
-180.82
12.33
159.18
266.80
345.74
403.69
439.64
450.53
440.28
413.44
377.22
338.77
305.65
278.62
256.03
231.64
200.05
158.85
109.16
55.51
3.26
-41.72
-78.88
-109.84
-139.71
-173.65
-215.62
-267.18
-326.20
-387.78
-443.94
-488.21
-515.45
-524.16
-515.97
-495.20
-467.87
-439.89
-416.10
-398.72
-388.35
-382.97
-379.05
-372.51
-360.21
-341.07
-315.93
-286.97
-256.37
-225.99
-196.76
-169.23
-143.79
-120.83
-100.55
-82.62
-66.13
-49.80
-32.89
-15.23
2.73
20.12
36.18
50.56
63.37
75.03
86.04
96.78
107.48
118.28
129.30
140.70
152.54
164.66
176.65
188.03
198.42
207.97
217.32
227.54
239.72
254.52
271.97
291.43
311.76
331.54
349.31
363.70
373.56
378.06
376.57
368.44
352.48
326.69
288.62
236.46
170.52
94.42
15.21
-57.91
-115.87
-152.15
-164.68
-156.48
-134.81
-109.04
-87.65
-75.61
-72.96
-75.25
-75.85
-68.91
-51.57
-24.49
9.45
47.14
86.63
127.00
167.29
205.42
238.20
262.36
276.12
280.03
276.60
269.10
260.25
251.39
242.62
233.35
223.09
211.85
200.16
188.83
178.61
169.93
162.62
155.97
148.96
140.62
130.39
118.14
103.91
87.58
68.68
46.69
21.67
-5.45
-32.83
-58.36
-80.25
-97.41
-109.26
-115.34
-115.02
-107.64
-93.02
-72.07
-46.85
-20.20
5.06
26.73
43.57
55.27
62.38
66.06
67.88
69.42
71.78
75.23
79.23
82.71
84.45
83.37
78.33
68.26
52.37
30.84
5.48
-20.27
-42.67
-59.46
-71.33
-81.93
-95.95
-116.40
-142.57
-169.91
-192.09
-204.09
-204.51
-195.97
-183.35
-171.05
-161.04
-152.38
-142.42
-128.70
-110.36
-88.50
-65.47
-43.74
-24.82
-8.97
4.51
16.66
28.10
38.92
48.72
57.06
63.81
69.28
74.08
78.71
83.25
87.19
89.57
89.47
86.43
80.78
73.58
66.22
59.86
55.01
51.42
48.28
44.73
40.22
34.75
28.78
22.97
17.94
14.02
11.28
9.57
8.64
8.21
8.03
7.97
7.98
8.06
8.27
8.58
8.87
8.95
8.64
7.87
6.65
5.17
3.63
2.25
1.19
0.55
0.36
0.62
1.25
2.11
3.06
3.91
4.54
4.89
4.99
4.93
4.80
4.66
4.48
4.20
3.75
3.11
2.34
1.51
0.69
-0.13
-1.00
-2.01
-3.15
-4.32
-5.33
-6.05
-6.40
-6.46
-6.32
-6.12
-5.92
-5.73
-5.55
-5.36
-5.22
-5.18
-5.31
-5.62
-6.08
-6.61
-7.12
-7.54
-7.83
-7.98
-8.01
-7.95
-7.80
-7.53
-7.14
-6.66
-6.13
-5.63
-5.17
-4.76
-4.31
-3.79
-3.17
-2.48
-1.82
-1.29
-0.95
-0.81
-0.82
-0.93
-1.09
-1.27
-1.51
-1.86
-2.37
-3.05
-3.90
-4.86
-5.86
-6.84
-7.70
-8.38
-8.81
-8.98
-8.90
-8.63
-8.24
-7.76
-7.21
-6.60
-6.00
-5.47
-5.11
-4.96
-5.02
-5.20
-5.34
-5.32
-5.09
-4.67
-4.19
-3.78
-3.53
-3.46
-3.49
-3.50
-3.41
-3.21
-2.98
-2.81
-2.81
-2.99
-3.26
-3.51
-3.67
-3.72
-3.73
-3.80
-4.01
-4.34
-4.73
-5.08
-5.33
-5.46
-5.49
-5.43
-5.32
-5.13
-4.88
-4.60
-4.32
-4.07
-3.85
-3.62
-3.33
-2.99
-2.67
-2.44
-2.37
-2.43
-2.51
-2.48
-2.22
-1.75
-1.15
-0.60
-0.22
-0.07
-0.14
-0.35
-0.63
-0.92
-1.21
-1.53
-1.89
-2.27
-2.66
-2.98
-3.20
-3.29
-3.26
-3.18
-3.07
-2.98
-2.92
-2.87
-2.79
-2.69
-2.55
-2.36
-2.14
-1.91
-1.69
-1.53
-1.47
-1.52
-1.63
-1.72
-1.74
-1.65
-1.50
-1.32
-1.18
-1.11
-1.11
-1.20
-1.34
-1.51
-1.67
-1.79
-1.85
-1.86
-1.87
-1.93
-2.09
-2.37
-2.74
-3.14
-3.51
-3.80
-3.97
-4.02
-4.00
-3.98
-4.01
-4.12
-4.24
-4.29
-4.19
-3.93
-3.56
-3.19
-2.88
-2.66
-2.51
-2.37
-2.21
-2.03
-1.82
-1.59
-1.29
-0.87
-0.32
0.30
0.86
1.18
1.15
0.78
0.19
-0.40
-0.77
-0.83
-0.59
-0.21
0.12
0.26
0.14
-0.23
-0.76
-1.37
-1.98
-2.52
-2.94
-3.19
-3.28
-3.23
-3.12
-3.00
-2.93
-2.91
-2.91
-2.89
-2.83
-2.71
-2.56
-2.39
-2.22
-2.05
-1.89
-1.73
-1.57
-1.37
-1.13
-0.84
-0.49
-0.12
0.25
0.56
0.78
0.92
1.01
1.10
1.18
1.24
1.21
1.04
0.70
0.20
-0.42
-1.12
-1.86
-2.58
-3.19
-3.59
-3.72
-3.59
-3.30
-3.02
-2.91
-3.04
-3.35
-3.66
-3.80
-3.64
-3.21
-2.61
-2.02
-1.59
-1.37
-1.35
-1.42
-1.51
-1.58
-1.65
-1.72
-1.79
-1.80
-1.69
-1.44
-1.10
-0.80
-0.64
-0.68
-0.88
-1.12
-1.32
-1.43
-1.52
-1.70
-2.05
-2.60
-3.29
-4.01
-4.62
-5.05
-5.25
-5.25
-5.09
-4.81
-4.47
-4.10
-3.74
-3.41
-3.14
-2.94
-2.76
-2.60
-2.40
-2.15
-1.87
-1.57
-1.31
-1.12
-1.03
-1.05
-1.14
-1.24
-1.28
-1.20
-0.99
-0.65
-0.24
0.14
0.44
0.60
0.63
0.56
0.41
0.19
-0.11
-0.47
-0.89
-1.31
-1.69
-1.95
-2.08
-2.09
-2.02
-1.95
-1.91
-1.96
-2.05
-2.11
-2.02
-1.70
-1.10
-0.30
0.55
1.27
1.70
1.81
1.68
1.43
1.21
1.09
1.07
1.13
1.22
1.31
1.38
1.42
1.38
1.24
0.98
0.62
0.25
-0.05
-0.24
-0.31
-0.34
-0.40
-0.55
-0.81
-1.13
-1.46
-1.74
-1.98
-2.20
-2.45
-2.78
-3.19
-3.65
-4.08
-4.39
-4.51
-4.41
-4.11
-3.71
-3.31
-2.99
-2.79
-2.71
-2.69
-2.66
-2.58
-2.43
-2.27
-2.16
-2.15
-2.27
-2.50
-2.80
-3.09
-3.30
-3.38
-3.29
-3.03
-2.65
-2.24
-1.93
-1.81
-1.93
-2.25
-2.65
-3.02
-3.29
-3.44
-3.47
-3.36
-3.10
-2.71
-2.25
-1.85
-1.64
-1.66
-1.82
-1.97
-1.96
-1.73
-1.34
-0.92
-0.61
-0.44
-0.39
-0.36
-0.27
-0.03
0.40
1.02
1.77
2.55
3.24
3.75
4.07
4.26
4.41
4.59
4.80
5.00
5.09
5.02
4.74
4.30
3.77
3.22
2.71
2.22
1.71
1.08
0.28
-0.67
-1.66
-2.52
-3.15
-3.51
-3.67
-3.71
-3.68
-3.54
-3.19
-2.58
-1.75
-0.86
-0.10
0.39
0.60
0.62
0.55
0.44
0.23
-0.16
-0.78
-1.56
-2.37
-3.05
-3.50
-3.74
-3.86
-3.98
-4.11
-4.23
-4.26
-4.14
-3.89
-3.59
-3.30
-3.07
-2.87
-2.60
-2.12
-1.31
-0.13
1.40
3.15
4.92
6.54
7.87
8.86
9.53
9.92
10.08
10.06
9.88
9.56
9.14
8.64
8.07
7.42
6.69
5.89
5.04
4.18
3.34
2.54
1.80
1.17
0.64
0.20
-0.20
-0.64
-1.21
-1.94
-2.83
-3.84
-4.92
-6.05
-7.20
-8.35
-9.46
-10.51
-11.46
-12.29
-12.95
-13.40
-13.60
-13.54
-13.25
-12.80
-12.25
-11.64
-10.95
-10.17
-9.29
-8.32
-7.31
-6.28
-5.24
-4.19
-3.15
-2.13
-1.20
-0.38
0.30
0.89
1.44
1.98
2.52
3.03
3.45
3.71
3.81
3.74
3.54
3.26
2.92
2.56
2.16
1.72
1.24
0.70
0.12
-0.50
-1.15
-1.83
-2.56
-3.34
-4.11
-4.82
-5.35
-5.65
-5.76
-5.75
-5.72
-5.71
-5.69
-5.55
-5.20
-4.57
-3.74
-2.78
-1.82
-0.93
-0.15
0.52
1.07
1.50
1.81
2.06
2.31
2.61
2.97
3.36
3.73
4.02
4.20
4.23
4.08
3.74
3.24
2.61
1.95
1.34
0.81
0.32
-0.19
-0.82
-1.57
-2.36
-3.04
-3.48
-3.60
-3.44
-3.11
-2.75
-2.47
-2.29
-2.15
-1.97
-1.69
-1.27
-0.76
-0.22
0.26
0.62
0.90
1.14
1.41
1.70
1.94
2.01
1.84
1.44
0.94
0.57
0.48
0.71
1.15
1.62
1.93
2.00
1.83
1.47
0.93
0.21
-0.69
-1.69
-2.64
-3.35
-3.67
-3.59
-3.23
-2.77
-2.37
-2.06
-1.82
-1.55
-1.16
-0.63
-0.02
0.57
1.06
1.41
1.65
1.82
2.02
2.33
2.77
3.33
3.95
4.57
5.12
5.55
5.83
5.98
6.01
5.95
5.88
5.82
5.77
5.67
5.42
4.95
4.21
3.29
2.32
1.44
0.75
0.25
-0.12
-0.41
-0.61
-0.68
-0.56
-0.21
0.30
0.85
1.30
1.55
1.59
1.47
1.29
1.17
1.16
1.29
1.55
1.90
2.26
2.57
2.76
2.81
2.73
2.58
2.43
2.32
2.26
2.18
2.01
1.68
1.16
0.48
-0.30
-1.11
-1.93
-2.73
-3.51
-4.26
-4.90
-5.35
-5.55
-5.51
-5.30
-5.05
-4.84
-4.71
-4.58
-4.37
-4.01
-3.53
-3.02
-2.57
-2.23
-1.96
-1.69
-1.37
-0.98
-0.58
-0.23
-0.02
0.03
-0.08
-0.29
-0.54
-0.72
-0.81
-0.78
-0.70
-0.65
-0.71
-0.91
-1.25
-1.67
-2.14
-2.67
-3.26
-3.94
-4.61
-5.13
-5.31
-5.00
-4.19
-3.02
-1.73
-0.57
0.31
0.90
1.31
1.68
2.10
2.54
2.90
3.05
2.89
2.41
1.63
0.62
-0.52
-1.62
-2.50
-3.02
-3.11
-2.87
-2.54
-2.36
-2.48
-2.87
-3.37
-3.82
-4.13
-4.35
-4.62
-5.04
-5.59
-6.16
-6.57
-6.68
-6.45
-5.91
-5.17
-4.33
-3.41
-2.43
-1.35
-0.17
1.07
2.34
3.56
4.73
5.83
6.84
7.68
8.20
8.22
7.64
6.47
4.89
3.13
1.40
-0.14
-1.43
-2.47
-3.22
-3.67
-3.79
-3.63
-3.33
-3.07
-3.04
-3.33
-3.93
-4.71
-5.55
-6.27
-6.79
-7.05
-7.02
-6.73
-6.20
-5.46
-4.56
-3.55
-2.51
-1.50
-0.64
0.01
0.43
0.69
0.92
1.23
1.66
2.15
2.59
2.88
2.98
2.95
2.90
2.89
2.95
3.02
3.05
3.02
2.93
2.79
2.61
2.38
2.10
1.78
1.43
1.03
0.58
0.04
-0.64
-1.43
-2.26
-2.95
-3.35
-3.31
-2.86
-2.14
-1.38
-0.82
-0.56
-0.56
-0.63
-0.60
-0.40
-0.13
-0.00
-0.18
-0.71
-1.47
-2.22
-2.77
-3.02
-3.04
-3.00
-3.02
-3.14
-3.24
-3.18
-2.90
-2.43
-1.96
-1.71
-1.82
-2.30
-3.02
-3.84
-4.65
-5.44
-6.21
-6.85
-7.19
-7.01
-6.22
-4.94
-3.49
-2.24
-1.44
-1.11
-1.06
-1.00
-0.74
-0.24
0.38
0.98
1.44
1.77
2.05
2.32
2.59
2.79
2.86
2.74
2.44
2.00
1.53
1.10
0.79
0.61
0.54
0.48
0.30
-0.12
-0.85
-1.85
-2.98
-3.98
-4.61
-4.69
-4.20
-3.30
-2.25
-1.35
-0.75
-0.44
-0.24
0.04
0.50
1.07
1.55
1.76
1.66
1.37
1.08
0.97
1.07
1.34
1.67
1.96
2.19
2.34
2.38
2.30
2.07
1.74
1.37
1.05
0.84
0.68
0.47
0.07
-0.62
-1.62
-2.80
-3.92
-4.72
-4.99
-4.70
-3.97
-3.08
-2.28
-1.77
-1.53
-1.45
-1.38
-1.24
-1.08
-1.01
-1.15
-1.51
-1.97
-2.30
-2.34
-2.01
-1.41
-0.73
-0.12
0.36
0.83
1.45
2.35
3.47
4.63
5.61
6.21
6.41
6.29
5.97
5.51
4.94
4.25
3.44
2.59
1.79
1.15
0.74
0.55
0.56
0.70
0.90
1.13
1.34
1.54
1.76
1.99
2.17
2.18
1.84
1.01
-0.31
-1.97
-3.70
-5.24
-6.42
-7.26
-7.84
-8.28
-8.60
-8.71
-8.53
-8.06
-7.43
-6.86
-6.55
-6.56
-6.83
-7.21
-7.54
-7.72
-7.73
-7.58
-7.27
-6.79
-6.12
-5.28
-4.32
-3.35
-2.42
-1.58
-0.81
-0.08
0.62
1.30
1.91
2.46
2.93
3.35
3.73
4.03
4.19
4.13
3.82
3.34
2.87
2.60
2.68
3.12
3.76
4.36
4.69
4.61
4.10
3.28
2.32
1.39
0.62
0.04
-0.32
-0.50
-0.50
-0.33
-0.01
0.37
0.76
1.08
1.30
1.44
1.57
1.73
1.95
2.18
2.37
2.46
2.43
2.26
1.98
1.62
1.21
0.80
0.45
0.23
0.17
0.26
0.44
0.60
0.64
0.51
0.21
-0.21
-0.74
-1.33
-1.97
-2.60
-3.09
-3.29
-3.11
-2.56
-1.83
-1.18
-0.82
-0.85
-1.18
-1.63
-2.02
-2.23
-2.23
-2.03
-1.62
-1.02
-0.27
0.54
1.30
1.87
2.22
2.39
2.44
2.47
2.50
2.56
2.66
2.86
3.20
3.70
4.29
4.87
5.32
5.61
5.78
5.90
6.00
6.07
6.05
5.87
5.53
5.10
4.65
4.27
4.04
3.98
4.10
4.37
4.73
5.10
5.44
5.69
5.84
5.87
5.75
5.46
4.99
4.41
3.86
3.50
3.46
3.80
4.41
5.12
5.74
6.12
6.22
6.07
5.78
5.41
4.99
4.49
3.86
3.03
2.00
0.80
-0.51
-1.81
-3.04
-4.09
-4.91
-5.44
-5.67
-5.64
-5.41
-5.04
-4.61
-4.15
-3.65
-3.13
-2.55
-1.92
-1.26
-0.63
-0.07
0.33
0.51
0.46
0.17
-0.27
-0.75
-1.15
-1.39
-1.44
-1.35
-1.22
-1.15
-1.19
-1.35
-1.59
-1.88
-2.20
-2.57
-3.04
-3.62
-4.27
-4.90
-5.41
-5.72
-5.81
-5.69
-5.42
-5.06
-4.66
-4.26
-3.90
-3.59
-3.29
-2.93
-2.41
-1.72
-0.92
-0.18
0.36
0.59
0.55
0.39
0.27
0.26
0.30
0.26
0.05
-0.37
-0.89
-1.34
-1.57
-1.51
-1.21
-0.80
-0.44
-0.23
-0.24
-0.45
-0.78
-1.10
-1.32
-1.40
-1.34
-1.17
-0.93
-0.64
-0.31
0.05
0.40
0.71
0.92
1.04
1.08
1.10
1.16
1.26
1.35
1.35
1.21
0.88
0.41
-0.13
-0.64
-1.05
-1.31
-1.43
-1.40
-1.25
-1.04
-0.85
-0.75
-0.81
-1.03
-1.39
-1.82
-2.26
-2.64
-2.89
-2.95
-2.74
-2.27
-1.60
-0.84
-0.10
0.54
1.10
1.63
2.13
2.55
2.78
2.74
2.42
1.94
1.47
1.17
1.09
1.16
1.24
1.21
1.01
0.69
0.36
0.15
0.06
0.05
0.02
-0.13
-0.41
-0.76
-1.09
-1.35
-1.57
-1.86
-2.35
-3.11
-4.06
-4.95
-5.51
-5.51
-4.94
-4.00
-2.99
-2.18
-1.64
-1.28
-0.87
-0.26
0.55
1.45
2.26
2.84
3.17
3.31
3.38
3.45
3.53
3.59
3.57
3.43
3.16
2.84
2.55
2.38
2.37
2.50
2.65
2.67
2.48
2.04
1.42
0.77
0.20
-0.21
-0.45
-0.62
-0.82
-1.16
-1.67
-2.30
-2.89
-3.28
-3.33
-3.05
-2.54
-1.96
-1.45
-1.03
-0.68
-0.34
0.04
0.44
0.82
1.16
1.49
1.80
2.09
2.27
2.27
2.04
1.66
1.30
1.12
1.22
1.54
1.93
2.21
2.25
2.04
1.64
1.19
0.82
0.62
0.58
0.62
0.60
0.40
-0.04
-0.72
-1.57
-2.48
-3.35
-4.03
-4.38
-4.30
-3.79
-2.98
-2.13
-1.48
-1.15
-1.08
-1.04
-0.84
-0.38
0.24
0.83
1.25
1.45
1.48
1.46
1.47
1.54
1.67
1.85
2.09
2.35
2.57
2.66
2.59
2.35
2.02
1.66
1.34
1.04
0.70
0.29
-0.22
-0.82
-1.51
-2.27
-3.07
-3.84
-4.45
-4.75
-4.64
-4.12
-3.30
-2.39
-1.61
-1.10
-0.88
-0.85
-0.83
-0.65
-0.23
0.35
0.96
1.40
1.57
1.46
1.17
0.84
0.60
0.49
0.46
0.44
0.35
0.15
-0.13
-0.44
-0.74
-1.00
-1.23
-1.46
-1.73
-2.06
-2.45
-2.88
-3.31
-3.67
-3.87
-3.81
-3.46
-2.89
-2.21
-1.61
-1.24
-1.14
-1.26
-1.45
-1.59
-1.58
-1.40
-1.10
-0.73
-0.37
-0.03
0.26
0.49
0.64
0.70
0.65
0.48
0.23
-0.03
-0.23
-0.29
-0.21
-0.06
0.05
-0.01
-0.33
-0.91
-1.71
-2.64
-3.61
-4.45
-4.99
-5.04
-4.51
-3.51
-2.32
-1.32
-0.77
-0.72
-0.98
-1.22
-1.15
-0.68
0.07
0.85
1.40
1.57
1.36
0.86
0.26
-0.29
-0.69
-0.91
-0.94
-0.83
-0.58
-0.18
0.38
1.05
1.71
2.19
2.36
2.19
1.76
1.26
0.82
0.51
0.33
0.23
0.20
0.29
0.57
1.07
1.74
2.47
3.15
3.70
4.14
4.51
4.88
5.23
5.52
5.64
5.52
5.21
4.82
4.49
4.37
4.50
4.84
5.26
5.66
5.95
6.08
6.00
5.68
5.13
4.40
3.60
2.87
2.32
1.96
1.69
1.35
0.81
0.02
-1.02
-2.22
-3.47
-4.66
-5.65
-6.32
-6.56
-6.36
-5.80
-5.04
-4.26
-3.55
-2.94
-2.37
-1.77
-1.14
-0.51
0.04
0.45
0.74
0.93
1.04
1.10
1.08
0.99
0.88
0.84
0.93
1.14
1.33
1.33
1.03
0.46
-0.22
-0.77
-1.04
-1.01
-0.83
-0.74
-0.92
-1.47
-2.36
-3.47
-4.64
-5.72
-6.57
-7.06
-7.14
-6.80
-6.13
-5.27
-4.42
-3.70
-3.18
-2.82
-2.55
-2.26
-1.89
-1.45
-0.98
-0.54
-0.15
0.20
0.55
0.93
1.32
1.68
1.96
2.13
2.22
2.29
2.40
2.58
2.79
2.93
2.96
2.87
2.72
2.58
2.47
2.39
2.23
1.91
1.30
0.37
-0.85
-2.24
-3.59
-4.62
-5.09
-4.87
-4.00
-2.70
-1.34
-0.25
0.37
0.55
0.45
0.32
0.33
0.54
0.86
1.16
1.30
1.25
1.08
0.89
0.80
0.83
0.90
0.90
0.74
0.42
0.03
-0.28
-0.37
-0.16
0.32
0.97
1.68
2.35
2.87
3.16
3.13
2.69
1.84
0.67
-0.60
-1.70
-2.40
-2.58
-2.32
-1.81
-1.29
-0.93
-0.73
-0.60
-0.42
-0.11
0.28
0.63
0.86
0.93
0.89
0.83
0.84
0.93
1.04
1.11
1.08
0.96
0.82
0.72
0.69
0.74
0.83
0.91
0.92
0.82
0.56
0.10
-0.55
-1.36
-2.23
-3.00
-3.53
-3.71
-3.54
-3.11
-2.59
-2.15
-1.90
-1.80
-1.74
-1.51
-1.01
-0.22
0.71
1.58
2.22
2.57
2.68
2.65
2.58
2.47
2.28
1.92
1.37
0.70
0.02
-0.54
-0.89
-1.07
-1.16
-1.28
-1.51
-1.89
-2.43
-3.10
-3.85
-4.60
-5.21
-5.52
-5.39
-4.76
-3.72
-2.47
-1.29
-0.39
0.16
0.41
0.52
0.63
0.81
1.02
1.17
1.17
1.01
0.78
0.58
0.48
0.50
0.60
0.71
0.79
0.82
0.82
0.80
0.74
0.64
0.49
0.33
0.19
0.14
0.16
0.22
0.21
-0.01
-0.52
-1.34
-2.34
-3.28
-3.94
-4.15
-3.86
-3.21
-2.39
-1.60
-0.96
-0.49
-0.17
0.09
0.35
0.65
1.02
1.49
2.05
2.68
3.33
3.92
4.41
4.78
5.05
5.20
5.22
5.08
4.79
4.45
4.14
4.00
4.06
4.25
4.44
4.44
4.15
3.59
2.86
2.06
1.29
0.58
-0.04
-0.53
-0.80
-0.75
-0.36
0.27
0.95
1.46
1.71
1.72
1.65
1.69
1.94
2.37
2.84
3.15
3.20
2.98
2.57
2.14
1.79
1.60
1.54
1.50
1.38
1.10
0.68
0.22
-0.17
-0.40
-0.47
-0.44
-0.43
-0.54
-0.84
-1.35
-2.06
-2.98
-4.06
-5.20
-6.24
-6.95
-7.12
-6.69
-5.72
-4.44
-3.12
-1.97
-1.12
-0.56
-0.23
-0.04
0.07
0.14
0.18
0.25
0.37
0.57
0.80
0.98
1.02
0.84
0.49
0.06
-0.29
-0.46
-0.43
-0.30
-0.20
-0.28
-0.59
-1.15
-1.91
-2.80
-3.75
-4.66
-5.42
-5.89
-5.98
-5.66
-5.03
-4.26
-3.52
-2.95
-2.58
-2.33
-2.04
-1.60
-0.94
-0.12
0.73
1.43
1.86
2.02
2.01
1.96
1.96
2.02
2.05
1.99
1.82
1.62
1.52
1.60
1.80
1.99
1.99
1.70
1.14
0.44
-0.29
-0.97
-1.60
-2.14
-2.55
-2.72
-2.55
-2.02
-1.24
-0.37
0.38
0.90
1.17
1.26
1.27
1.28
1.35
1.48
1.70
2.00
2.39
2.85
3.31
3.66
3.83
3.73
3.39
2.90
2.42
2.07
1.92
1.93
2.01
2.03
1.92
1.68
1.36
1.04
0.73
0.42
0.02
-0.54
-1.31
-2.24
-3.18
-3.94
-4.33
-4.28
-3.83
-3.17
-2.47
-1.89
-1.49
-1.22
-0.99
-0.73
-0.37
0.04
0.45
0.83
1.14
1.41
1.70
2.03
2.39
2.73
2.98
3.08
3.06
2.97
2.89
2.91
3.03
3.22
3.40
3.48
3.38
3.09
2.61
1.99
1.28
0.52
-0.28
-1.11
-1.97
-2.82
-3.59
-4.15
-4.36
-4.13
-3.49
-2.60
-1.71
-1.07
-0.81
-0.88
-1.05
-1.07
-0.76
-0.13
0.67
1.37
1.79
1.84
1.63
1.33
1.15
1.19
1.44
1.81
2.17
2.39
2.41
2.24
1.92
1.52
1.12
0.79
0.51
0.26
-0.00
-0.34
-0.81
-1.43
-2.20
-3.13
-4.17
-5.27
-6.26
-6.94
-7.15
-6.83
-6.07
-5.11
-4.23
-3.62
-3.32
-3.20
-3.04
-2.72
-2.20
-1.57
-0.99
-0.58
-0.38
-0.33
-0.36
-0.40
-0.41
-0.42
-0.43
-0.44
-0.47
-0.49
-0.51
-0.54
-0.57
-0.57
-0.49
-0.29
0.00
0.33
0.58
0.64
0.46
0.09
-0.40
-0.91
-1.35
-1.66
-1.78
-1.61
-1.07
-0.15
1.06
2.33
3.39
4.05
4.29
4.23
4.08
4.02
4.14
4.38
4.58
4.56
4.26
3.68
2.99
2.38
2.06
2.13
2.53
3.12
3.70
4.12
4.31
4.29
4.11
3.82
3.43
2.97
2.49
2.02
1.53
0.95
0.14
-0.97
-2.40
-3.96
-5.36
-6.29
-6.53
-6.06
-5.10
-4.00
-3.11
-2.62
-2.52
-2.58
-2.51
-2.13
-1.41
-0.52
0.36
1.07
1.62
2.11
2.62
3.15
3.58
3.77
3.63
3.21
2.67
2.17
1.80
1.54
1.31
1.03
0.69
0.38
0.19
0.17
0.28
0.43
0.48
0.30
-0.18
-0.99
-2.10
-3.38
-4.62
-5.56
-5.99
-5.82
-5.10
-4.02
-2.81
-1.69
-0.75
0.00
0.59
1.06
1.43
1.70
1.86
1.96
2.02
2.09
2.19
2.31
2.42
2.50
2.59
2.71
2.90
3.15
3.36
3.42
3.19
2.68
2.00
1.36
0.90
0.66
0.55
0.42
0.14
-0.30
-0.87
-1.53
-2.28
-3.13
-4.06
-4.91
-5.46
-5.51
-5.03
-4.13
-3.10
-2.19
-1.56
-1.17
-0.92
-0.65
-0.29
0.15
0.66
1.20
1.71
2.17
2.54
2.80
2.95
3.03
3.10
3.18
3.29
3.43
3.57
3.72
3.87
3.98
3.98
3.79
3.39
2.84
2.25
1.71
1.23
0.74
0.13
-0.68
-1.71
-2.91
-4.21
-5.48
-6.55
-7.24
-7.35
-6.79
-5.66
-4.21
-2.76
-1.59
-0.80
-0.30
0.07
0.45
0.89
1.38
1.86
2.36
2.90
3.50
4.11
4.64
4.98
5.08
4.99
4.79
4.58
4.41
4.29
4.17
3.99
3.71
3.36
3.00
2.69
2.47
2.34
2.22
2.04
1.71
1.15
0.35
-0.69
-1.90
-3.14
-4.23
-4.95
-5.12
-4.70
-3.77
-2.56
-1.31
-0.23
0.57
1.08
1.37
1.55
1.69
1.83
1.92
1.90
1.69
1.26
0.67
0.01
-0.63
-1.21
-1.71
-2.17
-2.53
-2.73
-2.63
-2.20
-1.54
-0.88
-0.49
-0.51
-0.96
-1.68
-2.49
-3.27
-4.00
-4.75
-5.52
-6.23
-6.72
-6.82
-6.47
-5.74
-4.80
-3.83
-2.95
-2.17
-1.43
-0.64
0.22
1.14
2.01
2.71
3.20
3.46
3.58
3.65
3.73
3.81
3.81
3.64
3.26
2.71
2.10
1.55
1.14
0.88
0.71
0.55
0.33
0.03
-0.42
-1.04
-1.91
-3.02
-4.27
-5.44
-6.27
-6.52
-6.15
-5.26
-4.10
-2.92
-1.86
-0.94
-0.10
0.71
1.44
2.00
2.33
2.38
2.22
1.97
1.73
1.56
1.48
1.42
1.32
1.11
0.77
0.36
-0.04
-0.33
-0.46
-0.46
-0.44
-0.55
-0.92
-1.60
-2.50
-3.49
-4.44
-5.21
-5.72
-5.90
-5.71
-5.16
-4.33
-3.35
-2.39
-1.56
-0.88
-0.30
0.29
0.91
1.56
2.14
2.54
2.71
2.69
2.56
2.41
2.32
2.32
2.40
2.51
2.60
2.57
2.38
2.01
1.50
0.90
0.28
-0.34
-0.99
-1.73
-2.55
-3.42
-4.20
-4.77
-5.02
-4.93
-4.55
-4.00
-3.37
-2.74
-2.15
-1.62
-1.13
-0.67
-0.20
0.34
1.01
1.83
2.79
3.77
4.62
5.20
5.46
5.46
5.34
5.22
5.11
4.95
4.67
4.23
3.69
3.16
2.72
2.40
2.13
1.83
1.44
0.91
0.26
-0.54
-1.46
-2.46
-3.42
-4.21
-4.69
-4.83
-4.64
-4.17
-3.49
-2.63
-1.61
-0.52
0.53
1.45
2.21
2.84
3.41
3.98
4.50
4.84
4.88
4.55
3.94
3.24
2.70
2.51
2.68
3.07
3.44
3.58
3.40
2.98
2.48
2.09
1.90
1.83
1.78
1.62
1.36
1.06
0.80
0.53
0.14
-0.55
-1.60
-2.88
-4.07
-4.80
-4.81
-4.07
-2.80
-1.37
-0.17
0.56
0.79
0.65
0.41
0.31
0.50
1.01
1.74
2.53
3.23
3.77
4.13
4.34
4.42
4.36
4.16
3.81
3.38
2.94
2.54
2.22
1.97
1.76
1.55
1.32
1.05
0.68
0.17
-0.51
-1.38
-2.39
-3.43
-4.37
-5.06
-5.42
-5.40
-5.09
-4.65
-4.26
-4.06
-4.05
-4.09
-3.97
-3.52
-2.72
-1.74
-0.81
-0.20
0.00
-0.15
-0.45
-0.68
-0.71
-0.51
-0.21
0.04
0.11
-0.09
-0.54
-1.16
-1.83
-2.45
-2.93
-3.25
-3.43
-3.54
-3.71
-4.01
-4.48
-5.03
-5.50
-5.68
-5.46
-4.83
-3.93
-2.92
-1.96
-1.08
-0.28
0.50
1.30
2.11
2.93
3.72
4.52
5.27
5.92
6.36
6.46
6.17
5.47
4.44
3.18
1.84
0.51
-0.68
-1.65
-2.36
-2.80
-3.03
-3.12
-3.18
-3.30
-3.53
-3.87
-4.27
-4.61
-4.77
-4.59
-3.99
-3.01
-1.79
-0.53
0.54
1.33
1.87
2.31
2.83
3.55
4.49
5.51
6.46
7.20
7.63
7.74
7.55
7.06
6.28
5.25
4.05
2.84
1.85
1.22
1.01
1.08
1.20
1.09
0.60
-0.27
-1.37
-2.48
-3.42
-4.09
-4.45
-4.51
-4.24
-3.63
-2.72
-1.65
-0.61
0.21
0.69
0.89
0.96
1.14
1.56
2.21
2.94
3.50
3.72
3.54
3.05
2.41
1.80
1.27
0.77
0.21
-0.51
-1.36
-2.23
-2.92
-3.31
-3.39
-3.31
-3.31
-3.59
-4.24
-5.21
-6.37
-7.62
-8.81
-9.81
-10.43
-10.46
-9.74
-8.30
-6.42
-4.49
-2.86
-1.68
-0.86
-0.15
0.66
1.58
2.50
3.22
3.66
3.85
3.96
4.13
4.38
4.63
4.74
4.62
4.30
3.93
3.65
3.53
3.52
3.48
3.27
2.83
2.23
1.58
0.99
0.44
-0.14
-0.88
-1.81
-2.79
-3.58
-3.92
-3.68
-2.89
-1.73
-0.47
0.66
1.56
2.24
2.76
3.20
3.59
3.96
4.30
4.58
4.77
4.87
4.88
4.81
4.72
4.60
4.43
4.17
3.78
3.30
2.82
2.47
2.30
2.28
2.28
2.15
1.77
1.12
0.25
-0.76
-1.81
-2.82
-3.63
-4.09
-4.06
-3.49
-2.50
-1.34
-0.30
0.45
0.86
1.07
1.26
1.57
1.99
2.44
2.83
3.12
3.34
3.57
3.81
3.97
3.94
3.64
3.12
2.56
2.11
1.84
1.71
1.56
1.25
0.73
-0.02
-0.95
-2.01
-3.18
-4.37
-5.46
-6.23
-6.53
-6.26
-5.50
-4.42
-3.24
-2.15
-1.27
-0.66
-0.31
-0.20
-0.25
-0.38
-0.54
-0.67
-0.76
-0.78
-0.72
-0.55
-0.29
0.02
0.32
0.52
0.55
0.39
0.09
-0.31
-0.75
-1.24
-1.78
-2.48
-3.38
-4.46
-5.57
-6.44
-6.82
-6.55
-5.68
-4.42
-3.08
-1.90
-0.97
-0.22
0.48
1.26
2.13
3.01
3.76
4.30
4.61
4.73
4.72
4.65
4.55
4.43
4.28
4.07
3.77
3.41
3.07
2.83
2.74
2.74
2.66
2.30
1.46
0.08
-1.76
-3.81
-5.74
-7.16
-7.85
-7.71
-6.92
-5.78
-4.68
-3.85
-3.30
-2.85
-2.23
-1.23
0.13
1.62
2.91
3.74
4.02
3.86
3.50
3.19
3.11
3.32
3.77
4.30
4.76
5.05
5.14
5.08
4.95
4.82
4.70
4.54
4.29
3.87
3.21
2.29
1.09
-0.34
-1.89
-3.34
-4.40
-4.84
-4.55
-3.62
-2.34
-1.07
-0.10
0.43
0.63
0.69
0.79
1.00
1.25
1.37
1.23
0.81
0.24
-0.30
-0.64
-0.76
-0.74
-0.76
-0.89
-1.12
-1.35
-1.46
-1.44
-1.35
-1.34
-1.47
-1.77
-2.17
-2.62
-3.14
-3.81
-4.65
-5.57
-6.36
-6.72
-6.41
-5.37
-3.77
-1.92
-0.17
1.24
2.26
2.99
3.60
4.20
4.77
5.18
5.31
5.13
4.75
4.34
4.04
3.85
3.62
3.16
2.38
1.34
0.28
-0.55
-0.99
-1.09
-1.08
-1.22
-1.73
-2.68
-4.02
-5.60
-7.19
-8.54
-9.42
-9.66
-9.19
-8.10
-6.61
-5.00
-3.53
-2.34
-1.41
-0.63
0.19
1.11
2.10
3.04
3.76
4.13
4.17
4.03
3.87
3.84
3.92
3.96
3.76
3.23
2.41
1.53
0.84
0.48
0.41
0.43
0.28
-0.19
-1.04
-2.22
-3.64
-5.15
-6.58
-7.68
-8.20
-8.00
-7.07
-5.64
-4.03
-2.55
-1.36
-0.45
0.33
1.16
2.09
3.12
4.12
4.98
5.61
5.98
6.09
5.99
5.74
5.41
5.04
4.67
4.31
3.95
3.59
3.21
2.80
2.36
1.85
1.28
0.61
-0.14
-0.99
-1.92
-2.97
-4.13
-5.40
-6.74
-8.02
-9.09
-9.72
-9.73
-9.01
-7.63
-5.82
-3.91
-2.19
-0.83
0.16
0.96
1.73
2.59
3.53
4.44
5.17
5.64
5.86
5.85
5.71
5.49
5.20
4.88
4.55
4.24
3.99
3.84
3.79
3.79
3.75
3.58
3.22
2.71
2.13
1.61
1.23
0.99
0.76
0.41
-0.24
-1.25
-2.59
-4.14
-5.71
-7.07
-7.95
-8.17
-7.67
-6.62
-5.34
-4.25
-3.62
-3.50
-3.61
-3.54
-2.94
-1.73
-0.15
1.38
2.47
2.98
3.00
2.79
2.60
2.50
2.42
2.23
1.88
1.45
1.14
1.12
1.39
1.82
2.12
2.07
1.54
0.57
-0.64
-1.91
-3.03
-3.89
-4.39
-4.52
-4.30
-3.85
-3.36
-3.07
-3.17
-3.69
-4.49
-5.22
-5.57
-5.32
-4.50
-3.35
-2.19
-1.26
-0.63
-0.23
0.15
0.66
1.32
2.08
2.80
3.37
3.76
4.00
4.14
4.25
4.36
4.52
4.77
5.12
5.53
5.90
6.09
5.93
5.36
4.45
3.37
2.33
1.53
1.04
0.79
0.65
0.46
0.14
-0.38
-1.10
-2.01
-3.06
-4.13
-5.02
-5.48
-5.29
-4.39
-2.93
-1.20
0.43
1.74
2.70
3.46
4.25
5.18
6.26
7.32
8.16
8.67
8.85
8.81
8.67
8.56
8.48
8.45
8.46
8.58
8.84
9.27
9.84
10.44
10.97
11.35
11.52
11.40
10.89
9.84
8.13
5.76
2.86
-0.36
-3.68
-6.91
-9.93
-12.58
-14.64
-15.82
-15.93
-14.91
-12.99
-10.56
-8.08
-5.88
-4.13
-2.79
-1.73
-0.84
-0.10
0.42
0.61
0.41
-0.19
-1.11
-2.23
-3.39
-4.51
-5.51
-6.40
-7.18
-7.84
-8.37
-8.74
-8.93
-8.96
-8.87
-8.74
-8.66
-8.74
-9.06
-9.62
-10.38
-11.23
-12.03
-12.62
-12.92
-12.86
-12.42
-11.61
-10.44
-8.96
-7.24
-5.45
-3.78
-2.46
-1.62
-1.25
-1.21
-1.25
-1.14
-0.77
-0.09
0.84
1.92
3.10
4.33
5.56
6.71
7.67
8.34
8.64
8.55
8.14
7.49
6.72
5.95
5.28
4.74
4.32
3.91
3.39
2.63
1.58
0.28
-1.13
-2.44
-3.43
-3.95
-3.95
-3.50
-2.77
-1.96
-1.24
-0.72
-0.40
-0.25
-0.22
-0.25
-0.29
-0.30
-0.21
0.03
0.40
0.83
1.18
1.32
1.16
0.70
0.03
-0.73
-1.43
-1.99
-2.34
-2.42
-2.25
-1.85
-1.36
-0.94
-0.79
-1.05
-1.75
-2.76
-3.83
-4.62
-4.86
-4.37
-3.19
-1.56
0.16
1.62
2.66
3.30
3.71
4.12
4.63
5.21
5.72
6.04
6.11
6.02
5.88
5.79
5.76
5.72
5.54
5.16
4.59
3.93
3.33
2.89
2.65
2.56
2.47
2.26
1.82
1.17
0.37
-0.49
-1.30
-2.05
-2.69
-3.18
-3.41
-3.27
-2.67
-1.68
-0.42
0.85
1.92
2.67
3.09
3.31
3.49
3.75
4.09
4.44
4.69
4.75
4.63
4.43
4.30
4.33
4.55
4.84
5.07
5.08
4.84
4.40
3.87
3.36
2.89
2.40
1.79
0.99
-0.05
-1.32
-2.76
-4.33
-5.96
-7.55
-8.91
-9.80
-9.99
-9.34
-7.91
-6.00
-3.98
-2.23
-0.94
-0.09
0.51
1.10
1.83
2.69
3.56
4.28
4.69
4.76
4.56
4.25
3.98
3.88
3.98
4.23
4.52
4.77
4.97
5.17
5.46
5.89
6.40
6.80
6.89
6.48
5.52
4.12
2.48
0.80
-0.79
-2.27
-3.65
-4.90
-5.91
-6.49
-6.52
-5.97
-5.03
-3.99
-3.19
-2.80
-2.80
-3.00
-3.14
-3.04
-2.68
-2.18
-1.73
-1.43
-1.30
-1.23
-1.12
-0.93
-0.74
-0.67
-0.85
-1.31
-1.98
-2.71
-3.35
-3.80
-4.01
-4.00
-3.84
-3.60
-3.38
-3.26
-3.33
-3.62
-4.10
-4.62
-4.91
-4.73
-3.93
-2.52
-0.76
1.02
2.49
3.45
3.90
3.99
3.92
3.86
3.86
3.90
3.93
3.90
3.81
3.70
3.65
3.71
3.87
4.08
4.24
4.22
3.95
3.44
2.82
2.25
1.85
1.67
1.62
1.52
1.17
0.42
-0.76
-2.31
-4.03
-5.66
-6.88
-7.41
-7.07
-5.93
-4.24
-2.42
-0.84
0.26
0.93
1.32
1.68
2.08
2.51
2.83
2.96
2.92
2.85
2.89
3.12
3.49
3.85
4.03
3.93
3.55
2.99
2.43
1.98
1.70
1.55
1.44
1.24
0.86
0.23
-0.67
-1.82
-3.20
-4.73
-6.25
-7.52
-8.25
-8.17
-7.19
-5.46
-3.32
-1.23
0.45
1.56
2.16
2.47
2.68
2.90
3.07
3.15
3.10
2.99
2.95
3.09
3.44
3.89
4.27
4.41
4.21
3.69
2.95
2.18
1.51
0.99
0.61
0.26
-0.20
-0.92
-1.99
-3.39
-4.99
-6.59
-7.84
-8.45
-8.21
-7.14
-5.47
-3.59
-1.94
-0.80
-0.23
-0.05
0.03
0.30
0.84
1.58
2.29
2.77
2.91
2.78
2.55
2.39
2.37
2.41
2.39
2.20
1.81
1.35
0.99
0.86
0.99
1.29
1.56
1.59
1.27
0.53
-0.58
-1.96
-3.51
-5.08
-6.52
-7.62
-8.24
-8.39
-8.22
-8.04
-8.15
-8.66
-9.43
-10.04
-9.96
-8.82
-6.54
-3.39
0.12
3.44
6.15
8.07
9.25
9.90
10.22
10.37
10.38
10.22
9.84
9.24
8.49
7.68
6.86
5.97
4.92
3.55
1.78
-0.35
-2.63
-4.76
-6.41
-7.32
-7.41
-6.76
-5.61
-4.23
-2.88
-1.73
-0.83
-0.15
0.44
1.06
1.83
2.81
3.91
4.98
5.79
6.17
6.03
5.45
4.65
3.84
3.22
2.87
2.77
2.86
3.06
3.32
3.57
3.73
3.69
3.32
2.57
1.44
0.02
-1.60
-3.33
-5.07
-6.69
-7.99
-8.68
-8.57
-7.58
-5.93
-3.98
-2.15
-0.70
0.33
1.09
1.78
2.52
3.24
3.79
4.04
3.98
3.73
3.49
3.38
3.44
3.58
3.66
3.59
3.35
3.00
2.66
2.41
2.26
2.15
1.95
1.51
0.73
-0.44
-1.92
-3.55
-5.15
-6.53
-7.52
-8.03
-8.00
-7.50
-6.63
-5.56
-4.45
-3.42
-2.55
-1.83
-1.25
-0.79
-0.42
-0.15
0.02
0.10
0.12
0.13
0.18
0.27
0.35
0.34
0.14
-0.23
-0.66
-1.02
-1.14
-1.04
-0.84
-0.74
-0.96
-1.58
-2.57
-3.78
-5.01
-6.02
-6.58
-6.52
-5.78
-4.52
-3.02
-1.64
-0.62
-0.01
0.42
0.94
1.77
2.89
4.10
5.12
5.77
6.02
6.00
5.91
5.88
5.95
6.05
6.08
6.00
5.79
5.48
5.12
4.73
4.29
3.74
3.04
2.18
1.18
0.05
-1.16
-2.40
-3.59
-4.57
-5.18
-5.26
-4.83
-4.06
-3.25
-2.67
-2.45
-2.48
-2.50
-2.23
-1.56
-0.62
0.32
0.97
1.20
1.08
0.85
0.72
0.79
1.01
1.21
1.26
1.14
0.94
0.84
0.91
1.13
1.38
1.49
1.36
0.98
0.40
-0.31
-1.10
-1.97
-2.91
-3.87
-4.74
-5.35
-5.61
-5.50
-5.09
-4.53
-3.95
-3.40
-2.86
-2.29
-1.63
-0.91
-0.22
0.33
0.64
0.67
0.51
0.29
0.18
0.33
0.78
1.44
2.07
2.46
2.44
2.06
1.49
0.99
0.75
0.80
1.02
1.19
1.12
0.70
-0.10
-1.22
-2.54
-3.91
-5.07
-5.75
-5.72
-4.91
-3.45
-1.67
0.08
1.52
2.54
3.25
3.84
4.50
5.31
6.22
7.08
7.72
8.01
7.95
7.63
7.20
6.84
6.64
6.60
6.62
6.59
6.41
6.06
5.61
5.16
4.80
4.55
4.34
4.05
3.53
2.70
1.55
0.13
-1.36
-2.68
-3.57
-3.82
-3.38
-2.36
-1.04
0.29
1.35
2.03
2.35
2.44
2.45
2.48
2.53
2.52
2.37
1.99
1.40
0.65
-0.12
-0.82
-1.36
-1.76
-2.07
-2.34
-2.61
-2.88
-3.11
-3.30
-3.44
-3.56
-3.66
-3.76
-3.87
-3.97
-4.09
-4.24
-4.44
-4.65
-4.79
-4.72
-4.32
-3.57
-2.56
-1.46
-0.52
0.09
0.34
0.31
0.18
0.15
0.31
0.65
1.06
1.39
1.54
1.52
1.39
1.28
1.27
1.35
1.41
1.33
1.02
0.50
-0.14
-0.76
-1.22
-1.48
-1.56
-1.57
-1.58
-1.66
-1.84
-2.08
-2.34
-2.56
-2.71
-2.75
-2.65
-2.40
-2.02
-1.53
-1.02
-0.57
-0.25
-0.11
-0.09
-0.13
-0.12
0.00
0.25
0.55
0.82
1.01
1.13
1.27
1.51
1.85
2.20
2.38
2.26
1.84
1.31
0.91
0.85
1.18
1.73
2.28
2.59
2.60
2.36
2.07
1.90
1.94
2.17
2.53
2.97
3.44
3.93
4.40
4.77
4.92
4.71
4.06
2.90
1.18
-1.16
-4.18
-7.88
-12.18
-16.84
-21.48
-25.62
-28.75
-30.46
-30.55
-29.08
-26.32
-22.68
-18.58
-14.29
-9.97
-5.72
-1.65
2.03
5.11
7.45
9.07
10.14
10.85
11.31
11.49
11.26
10.54
9.42
8.12
6.92
6.04
5.51
5.21
5.00
4.77
4.50
4.23
3.99
3.73
3.36
2.82
2.14
1.38
0.67
0.06
-0.44
-0.89
-1.32
-1.77
-2.24
-2.76
-3.36
-4.06
-4.85
-5.64
-6.34
-6.89
-7.34
-7.81
-8.49
-9.47
-10.74
-12.16
-13.48
-14.52
-15.22
-15.70
-16.21
-16.93
-17.89
-18.87
-19.48
-19.30
-18.15
-16.13
-13.64
-11.18
-9.23
-8.06
-7.81
-8.44
-9.74
-11.24
-12.22
-11.82
-9.34
-4.60
1.87
8.97
15.42
20.25
23.12
24.35
24.59
24.47
24.25
23.87
23.14
21.91
20.31
18.60
17.09
15.94
15.10
14.37
13.55
12.51
11.32
10.17
9.22
8.54
8.07
7.64
7.09
6.33
5.43
4.53
3.76
3.22
2.91
2.75
2.66
2.57
2.45
2.30
2.12
1.91
1.66
1.38
1.06
0.71
0.37
0.06
-0.19
-0.35
-0.42
-0.46
-0.55
-0.73
-1.02
-1.32
-1.50
-1.45
-1.18
-0.79
-0.44
-0.27
-0.28
-0.43
-0.59
-0.69
-0.72
-0.71
-0.68
-0.64
-0.61
-0.61
-0.72
-1.02
-1.56
-2.36
-3.32
-4.36
-5.38
-6.28
-7.05
-7.67
-8.17
-8.56
-8.90
-9.20
-9.50
-9.82
-10.18
-10.57
-11.01
-11.45
-11.85
-12.12
-12.18
-11.93
-11.35
-10.44
-9.25
-7.87
-6.39
-4.87
-3.37
-1.92
-0.56
0.67
1.71
2.52
3.09
3.43
3.57
3.50
3.21
2.66
1.92
1.08
0.27
-0.44
-1.02
-1.51
-1.92
-2.26
-2.47
-2.53
-2.54
-2.67
-3.08
-3.80
-4.66
-5.29
-5.27
-4.28
-2.21
0.84
4.61
8.74
12.83
16.49
19.43
21.45
22.60
23.06
23.10
22.97
22.79
22.50
22.01
21.20
19.99
18.42
16.53
14.37
12.00
9.45
6.81
4.24
1.96
0.20
-0.90
-1.33
-1.30
-1.15
-1.23
-1.80
-2.93
-4.51
-6.31
-8.11
-9.70
-10.93
-11.70
-11.94
-11.69
-11.04
-10.17
-9.25
-8.39
-7.59
-6.76
-5.79
-4.59
-3.14
-1.49
0.28
2.03
3.64
4.97
5.91
6.43
6.56
6.41
6.14
5.85
5.65
5.54
5.48
5.41
5.26
4.95
4.44
3.71
2.78
1.67
0.47
-0.75
-1.87
-2.72
-3.17
-3.12
-2.61
-1.77
-0.84
-0.05
0.49
0.80
1.03
1.32
1.72
2.16
2.47
2.52
2.29
1.89
1.51
1.32
1.36
1.55
1.75
1.81
1.69
1.46
1.23
1.09
1.06
1.06
0.99
0.75
0.33
-0.25
-0.94
-1.68
-2.40
-3.04
-3.53
-3.78
-3.74
-3.41
-2.84
-2.15
-1.39
-0.59
0.32
1.35
2.48
3.56
4.39
4.83
4.83
4.53
4.16
3.92
3.94
4.18
4.49
4.71
4.74
4.57
4.32
4.10
4.04
4.17
4.44
4.72
4.89
4.83
4.50
3.92
3.16
2.29
1.40
0.58
-0.07
-0.43
-0.46
-0.16
0.35
0.89
1.31
1.54
1.66
1.82
2.15
2.66
3.24
3.69
3.84
3.61
3.04
2.25
1.40
0.57
-0.16
-0.77
-1.26
-1.64
-1.94
-2.22
-2.52
-2.87
-3.28
-3.74
-4.25
-4.85
-5.55
-6.29
-6.95
-7.31
-7.17
-6.44
-5.19
-3.68
-2.23
-1.09
-0.38
-0.02
0.17
0.35
0.56
0.74
0.80
0.70
0.53
0.42
0.47
0.68
0.89
0.91
0.55
-0.17
-1.09
-1.91
-2.37
-2.39
-2.05
-1.60
-1.33
-1.39
-1.80
-2.42
-3.07
-3.60
-3.92
-4.03
-3.93
-3.66
-3.28
-2.86
-2.48
-2.18
-1.98
-1.80
-1.56
-1.20
-0.73
-0.21
0.25
0.57
0.72
0.70
0.59
0.49
0.45
0.51
0.65
0.79
0.83
0.74
0.51
0.20
-0.13
-0.45
-0.80
-1.24
-1.85
-2.65
-3.58
-4.49
-5.21
-5.53
-5.33
-4.61
-3.54
-2.41
-1.50
-1.01
-0.90
-0.94
-0.86
-0.45
0.29
1.16
1.91
2.36
2.49
2.41
2.31
2.26
2.25
2.17
1.94
1.54
1.07
0.68
0.49
0.54
0.78
1.10
1.34
1.41
1.24
0.85
0.27
-0.42
-1.12
-1.78
-2.33
-2.70
-2.84
-2.68
-2.22
-1.52
-0.73
-0.02
0.44
0.58
0.48
0.27
0.17
0.29
0.67
1.24
1.81
2.23
2.35
2.19
1.82
1.41
1.11
0.96
0.93
0.91
0.81
0.60
0.33
0.07
-0.11
-0.23
-0.35
-0.56
-0.90
-1.33
-1.82
-2.32
-2.84
-3.40
-3.97
-4.46
-4.74
-4.70
-4.32
-3.68
-2.93
-2.19
-1.53
-0.92
-0.31
0.34
1.01
1.62
2.08
2.35
2.42
2.36
2.23
2.07
1.92
1.78
1.64
1.48
1.27
1.00
0.72
0.50
0.41
0.49
0.66
0.79
0.70
0.28
-0.50
-1.55
-2.67
-3.66
-4.36
-4.68
-4.60
-4.16
-3.48
-2.69
-1.93
-1.32
-0.86
-0.51
-0.18
0.22
0.70
1.26
1.81
2.29
2.63
2.80
2.80
2.63
2.34
1.97
1.56
1.14
0.76
0.43
0.23
0.21
0.41
0.78
1.17
1.37
1.22
0.66
-0.19
-1.15
-2.01
-2.70
-3.22
-3.62
-3.90
-3.97
-3.72
-3.10
-2.22
-1.30
-0.57
-0.17
-0.04
-0.01
0.12
0.41
0.83
1.26
1.62
1.88
2.08
2.29
2.49
2.66
2.75
2.73
2.60
2.40
2.14
1.82
1.44
1.05
0.76
0.65
0.77
1.08
1.43
1.65
1.63
1.29
0.64
-0.25
-1.27
-2.29
-3.17
-3.78
-3.99
-3.76
-3.17
-2.36
-1.51
-0.78
-0.26
0.08
0.34
0.64
1.03
1.52
2.04
2.48
2.73
2.74
2.51
2.10
1.62
1.19
0.90
0.81
0.89
1.05
1.22
1.31
1.27
1.09
0.80
0.44
0.03
-0.40
-0.88
-1.40
-1.97
-2.58
-3.21
-3.84
-4.43
-4.94
-5.27
-5.33
-5.04
-4.40
-3.47
-2.42
-1.45
-0.73
-0.33
-0.16
-0.12
-0.04
0.14
0.41
0.72
0.99
1.20
1.35
1.47
1.53
1.48
1.21
0.72
0.05
-0.67
-1.29
-1.69
-1.85
-1.83
-1.72
-1.59
-1.52
-1.58
-1.81
-2.25
-2.90
-3.72
-4.60
-5.39
-5.95
-6.12
-5.84
-5.10
-4.03
-2.80
-1.58
-0.50
0.41
1.20
1.94
2.66
3.34
3.93
4.40
4.74
4.94
5.01
4.91
4.65
4.26
3.82
3.42
3.10
2.88
2.69
2.46
2.17
1.82
1.44
1.06
0.72
0.43
0.19
-0.02
-0.28
-0.67
-1.29
-2.15
-3.11
-3.96
-4.45
-4.44
-3.95
-3.17
-2.33
-1.65
-1.23
-1.03
-0.96
-0.90
-0.81
-0.70
-0.60
-0.51
-0.41
-0.21
0.10
0.52
0.99
1.44
1.82
2.11
2.35
2.56
2.74
2.90
3.07
3.29
3.59
3.97
4.30
4.37
4.02
3.18
1.96
0.63
-0.58
-1.50
-2.11
-2.47
-2.68
-2.80
-2.81
-2.75
-2.66
-2.64
-2.76
-2.99
-3.24
-3.31
-3.12
-2.63
-1.97
-1.29
-0.70
-0.29
-0.06
0.01
-0.06
-0.25
-0.51
-0.72
-0.76
-0.59
-0.24
0.15
0.41
0.43
0.25
-0.01
-0.21
-0.25
-0.18
-0.15
-0.32
-0.79
-1.49
-2.21
-2.65
-2.62
-2.10
-1.27
-0.39
0.33
0.84
1.26
1.78
2.50
3.35
4.14
4.70
4.94
4.95
4.89
4.84
4.78
4.56
4.07
3.31
2.44
1.72
1.40
1.57
2.13
2.84
3.40
3.61
3.40
2.90
2.33
1.90
1.72
1.77
1.93
2.02
1.89
1.49
0.84
0.03
-0.78
-1.40
-1.65
-1.44
-0.80
0.08
0.93
1.50
1.66
1.45
1.01
0.54
0.16
-0.07
-0.18
-0.23
-0.23
-0.18
-0.05
0.15
0.36
0.49
0.46
0.23
-0.14
-0.54
-0.81
-0.86
-0.65
-0.28
0.13
0.39
0.41
0.11
-0.45
-1.19
-2.00
-2.76
-3.38
-3.80
-3.95
-3.83
-3.46
-2.92
-2.33
-1.80
-1.38
-1.06
-0.76
-0.40
0.01
0.41
0.70
0.83
0.85
0.84
0.88
1.01
1.17
1.29
1.29
1.17
0.93
0.65
0.34
0.02
-0.29
-0.60
-0.91
-1.22
-1.57
-1.96
-2.39
-2.85
-3.34
-3.87
-4.44
-4.96
-5.32
-5.31
-4.83
-3.89
-2.69
-1.50
-0.57
0.00
0.29
0.46
0.67
0.95
1.28
1.59
1.86
2.13
2.48
2.91
3.34
3.63
3.67
3.39
2.86
2.20
1.56
1.05
0.74
0.64
0.71
0.90
1.11
1.20
1.07
0.66
-0.04
-0.95
-1.94
-2.88
-3.62
-4.03
-4.04
-3.60
-2.79
-1.78
-0.79
0.00
0.49
0.73
0.88
1.13
1.56
2.12
2.64
2.92
2.88
2.59
2.26
2.09
2.16
2.39
2.56
2.46
1.99
1.28
0.56
0.06
-0.14
-0.10
0.00
-0.02
-0.22
-0.56
-0.93
-1.26
-1.57
-1.97
-2.54
-3.28
-4.01
-4.45
-4.36
-3.65
-2.49
-1.22
-0.21
0.37
0.61
0.76
1.14
1.83
2.72
3.49
3.87
3.75
3.24
2.65
2.24
2.16
2.39
2.75
3.07
3.23
3.20
3.04
2.81
2.53
2.18
1.71
1.08
0.36
-0.36
-0.93
-1.29
-1.45
-1.57
-1.83
-2.39
-3.23
-4.16
-4.87
-5.06
-4.62
-3.69
-2.57
-1.61
-0.99
-0.70
-0.51
-0.20
0.32
0.96
1.49
1.73
1.64
1.35
1.07
0.96
0.99
1.02
0.84
0.38
-0.27
-0.90
-1.30
-1.34
-1.06
-0.62
-0.21
0.03
0.05
-0.15
-0.54
-1.12
-1.91
-2.88
-3.92
-4.80
-5.26
-5.11
-4.35
-3.15
-1.84
-0.73
-0.00
0.39
0.65
0.96
1.45
2.05
2.61
3.01
3.18
3.19
3.10
2.98
2.82
2.62
2.38
2.14
1.94
1.78
1.65
1.49
1.22
0.85
0.38
-0.09
-0.53
-0.93
-1.31
-1.78
-2.40
-3.15
-3.91
-4.49
-4.71
-4.50
-3.92
-3.15
-2.38
-1.75
-1.28
-0.88
-0.45
0.08
0.72
1.44
2.15
2.73
3.10
3.21
3.10
2.87
2.65
2.53
2.52
2.57
2.57
2.46
2.24
1.92
1.54
1.16
0.81
0.51
0.31
0.19
0.09
-0.12
-0.53
-1.21
-2.09
-3.03
-3.85
-4.40
-4.63
-4.54
-4.19
-3.67
-3.02
-2.32
-1.60
-0.92
-0.35
0.10
0.46
0.86
1.38
2.09
2.92
3.72
4.32
4.62
4.65
4.55
4.44
4.40
4.39
4.34
4.16
3.86
3.49
3.11
2.75
2.39
1.99
1.59
1.23
0.93
0.65
0.26
-0.39
-1.36
-2.60
-3.90
-4.98
-5.59
-5.62
-5.08
-4.16
-3.04
-1.94
-1.02
-0.34
0.11
0.40
0.63
0.89
1.22
1.60
1.98
2.24
2.35
2.28
2.10
1.93
1.85
1.91
2.01
2.04
1.85
1.38
0.67
-0.11
-0.77
-1.17
-1.29
-1.23
-1.17
-1.27
-1.64
-2.28
-3.17
-4.22
-5.31
-6.23
-6.76
-6.72
-6.03
-4.80
-3.31
-1.93
-0.93
-0.37
-0.11
0.13
0.57
1.28
2.10
2.80
3.18
3.18
2.91
2.56
2.28
2.14
2.07
2.00
1.86
1.66
1.46
1.32
1.22
1.12
0.95
0.66
0.27
-0.16
-0.60
-1.07
-1.63
-2.33
-3.17
-4.03
-4.73
-5.08
-4.97
-4.42
-3.57
-2.60
-1.68
-0.93
-0.36
0.09
0.50
0.95
1.46
1.97
2.38
2.63
2.69
2.59
2.45
2.34
2.31
2.33
2.31
2.20
1.99
1.75
1.58
1.55
1.63
1.70
1.58
1.17
0.48
-0.37
-1.21
-1.92
-2.48
-2.93
-3.33
-3.67
-3.86
-3.77
-3.38
-2.79
-2.16
-1.64
-1.27
-0.93
-0.43
0.32
1.30
2.33
3.21
3.77
3.96
3.84
3.52
3.14
2.79
2.55
2.46
2.52
2.68
2.85
2.98
3.00
2.93
2.79
2.61
2.41
2.16
1.83
1.40
0.87
0.23
-0.51
-1.34
-2.21
-3.05
-3.70
-4.01
-3.89
-3.35
-2.56
-1.78
-1.23
-1.05
-1.16
-1.33
-1.32
-0.97
-0.27
0.60
1.42
2.00
2.28
2.28
2.10
1.82
1.50
1.15
0.81
0.51
0.31
0.23
0.24
0.24
0.12
-0.19
-0.66
-1.22
-1.74
-2.19
-2.58
-3.02
-3.62
-4.37
-5.16
-5.75
-5.91
-5.50
-4.57
-3.35
-2.12
-1.17
-0.61
-0.37
-0.27
-0.09
0.28
0.80
1.35
1.76
1.96
1.97
1.88
1.79
1.76
1.80
1.86
1.91
1.91
1.86
1.79
1.71
1.62
1.51
1.32
1.03
0.62
0.13
-0.38
-0.90
-1.39
-1.90
-2.39
-2.83
-3.10
-3.11
-2.84
-2.39
-1.94
-1.57
-1.28
-0.92
-0.35
0.48
1.46
2.35
2.92
3.06
2.87
2.54
2.31
2.28
2.41
2.57
2.63
2.54
2.33
2.08
1.84
1.64
1.41
1.12
0.74
0.28
-0.18
-0.60
-0.96
-1.30
-1.68
-2.14
-2.72
-3.40
-4.12
-4.82
-5.38
-5.69
-5.64
-5.20
-4.41
-3.41
-2.39
-1.49
-0.77
-0.14
0.49
1.25
2.12
3.03
3.79
4.28
4.45
4.39
4.26
4.23
4.37
4.64
4.90
5.00
4.81
4.30
3.53
2.65
1.85
1.26
0.97
0.96
1.14
1.35
1.42
1.23
0.68
-0.21
-1.35
-2.62
-3.88
-4.97
-5.78
-6.19
-6.14
-5.58
-4.58
-3.30
-1.99
-0.91
-0.23
0.02
-0.00
-0.06
0.04
0.34
0.74
1.05
1.12
0.97
0.75
0.65
0.81
1.21
1.73
2.19
2.42
2.36
2.01
1.44
0.75
0.02
-0.63
-1.10
-1.34
-1.38
-1.33
-1.40
-1.80
-2.64
-3.85
-5.22
-6.44
-7.22
-7.42
-7.07
-6.37
-5.54
-4.75
-4.07
-3.43
-2.74
-1.96
-1.09
-0.20
0.60
1.23
1.67
1.93
2.10
2.28
2.57
2.99
3.46
3.81
3.90
3.64
3.05
2.30
1.58
1.01
0.63
0.37
0.16
-0.06
-0.28
-0.48
-0.67
-0.89
-1.19
-1.54
-1.84
-1.92
-1.64
-0.94
0.05
1.11
1.97
2.52
2.79
2.95
3.22
3.74
4.46
5.26
5.97
6.48
6.73
6.75
6.56
6.19
5.71
5.21
4.77
4.49
4.37
4.34
4.25
3.96
3.42
2.69
1.93
1.32
0.97
0.86
0.86
0.81
0.56
0.09
-0.54
-1.23
-1.85
-2.30
-2.52
-2.44
-2.04
-1.38
-0.59
0.12
0.56
0.68
0.60
0.53
0.72
1.25
2.06
2.91
3.57
3.88
3.84
3.57
3.20
2.82
2.45
2.09
1.72
1.41
1.20
1.11
1.09
1.05
0.86
0.44
-0.21
-1.00
-1.83
-2.60
-3.26
-3.84
-4.37
-4.90
-5.51
-6.25
-7.16
-8.21
-9.29
-10.14
-10.51
-10.18
-9.10
-7.42
-5.48
-3.68
-2.34
-1.62
-1.38
-1.36
-1.25
-0.84
-0.14
0.69
1.39
1.77
1.83
1.70
1.58
1.58
1.68
1.73
1.58
1.19
0.63
0.09
-0.27
-0.42
-0.47
-0.61
-1.00
-1.67
-2.57
-3.51
-4.34
-4.98
-5.43
-5.75
-5.98
-6.11
-6.03
-5.69
-5.05
-4.21
-3.36
-2.65
-2.17
-1.85
-1.53
-1.02
-0.23
0.83
1.99
3.05
3.85
4.27
4.31
4.09
3.76
3.49
3.40
3.45
3.48
3.33
2.83
2.01
0.98
-0.02
-0.83
-1.33
-1.55
-1.61
-1.61
-1.67
-1.83
-2.12
-2.52
-3.01
-3.47
-3.79
-3.80
-3.43
-2.70
-1.73
-0.72
0.19
0.92
1.54
2.17
2.89
3.68
4.36
4.78
4.82
4.57
4.23
4.02
4.05
4.22
4.36
4.28
3.99
3.62
3.36
3.35
3.54
3.74
3.79
3.62
3.29
2.93
2.63
2.34
1.91
1.20
0.15
-1.19
-2.63
-3.99
-5.11
-5.88
-6.27
-6.28
-5.95
-5.34
-4.54
-3.69
-2.88
-2.20
-1.66
-1.23
-0.87
-0.55
-0.30
-0.18
-0.24
-0.47
-0.74
-0.90
-0.80
-0.42
0.12
0.63
0.91
0.88
0.61
0.25
-0.02
-0.11
-0.03
0.16
0.35
0.50
0.60
0.65
0.60
0.36
-0.16
-0.97
-1.99
-2.98
-3.67
-3.88
-3.56
-2.89
-2.11
-1.45
-0.98
-0.62
-0.21
0.39
1.15
1.94
2.58
2.93
3.01
2.94
2.86
2.88
3.00
3.13
3.18
3.09
2.86
2.58
2.34
2.21
2.20
2.26
2.32
2.30
2.22
2.08
1.93
1.76
1.53
1.12
0.43
-0.53
-1.66
-2.72
-3.49
-3.83
-3.74
-3.38
-2.96
-2.64
-2.45
-2.32
-2.12
-1.80
-1.37
-0.94
-0.63
-0.49
-0.50
-0.60
-0.73
-0.85
-0.92
-0.85
-0.57
-0.04
0.65
1.34
1.81
1.92
1.68
1.20
0.68
0.22
-0.14
-0.44
-0.78
-1.17
-1.61
-2.05
-2.48
-2.91
-3.33
-3.68
-3.87
-3.76
-3.30
-2.56
-1.68
-0.89
-0.34
-0.05
0.14
0.47
1.14
2.16
3.35
4.39
5.00
5.05
4.66
4.06
3.52
3.17
2.99
2.92
2.86
2.85
2.94
3.13
3.37
3.47
3.28
2.75
1.99
1.18
0.54
0.17
-0.01
-0.18
-0.54
-1.23
-2.24
-3.43
-4.61
-5.54
-6.08
-6.18
-5.90
-5.39
-4.83
-4.36
-4.05
-3.86
-3.72
-3.48
-3.07
-2.47
-1.78
-1.13
-0.61
-0.27
-0.09
0.03
0.17
0.36
0.59
0.82
1.02
1.24
1.52
1.84
2.10
2.18
1.96
1.45
0.76
0.05
-0.57
-1.08
-1.56
-2.15
-2.93
-3.88
-4.84
-5.61
-5.95
-5.75
-5.01
-3.90
-2.69
-1.65
-0.91
-0.44
-0.05
0.50
1.36
2.50
3.72
4.80
5.59
6.10
6.44
6.76
7.15
7.55
7.84
7.86
7.52
6.82
5.84
4.69
3.48
2.25
1.02
-0.20
-1.40
-2.53
-3.52
-4.33
-4.99
-5.57
-6.15
-6.79
-7.41
-7.85
-7.92
-7.57
-6.87
-6.08
-5.48
-5.27
-5.48
-5.93
-6.30
-6.30
-5.74
-4.66
-3.28
-1.93
-0.94
-0.51
-0.59
-0.94
-1.20
-1.00
-0.08
1.64
4.09
7.10
10.39
13.66
16.56
18.74
19.90
19.96
19.05
17.54
15.86
14.31
12.98
11.73
10.33
8.65
6.81
5.09
3.82
3.16
3.05
3.23
3.41
3.41
3.26
3.09
3.06
3.19
3.40
3.51
3.35
2.88
2.19
1.44
0.75
0.16
-0.40
-1.04
-1.81
-2.69
-3.61
-4.47
-5.22
-5.87
-6.43
-6.88
-7.15
-7.15
-6.84
-6.31
-5.75
-5.34
-5.21
-5.34
-5.62
-5.89
-6.08
-6.13
-6.08
-5.91
-5.60
-5.15
-4.58
-3.97
-3.46
-3.11
-2.94
-2.85
-2.74
-2.53
-2.23
-1.92
-1.64
-1.46
-1.34
-1.27
-1.18
-1.04
-0.84
-0.56
-0.20
0.24
0.75
1.28
1.80
2.24
2.56
2.71
2.70
2.52
2.25
1.95
1.67
1.43
1.23
1.01
0.75
0.44
0.11
-0.18
-0.37
-0.39
-0.20
0.21
0.80
1.49
2.18
2.74
3.10
3.22
3.11
2.84
2.48
2.10
1.81
1.65
1.62
1.69
1.71
1.57
1.19
0.57
-0.18
-0.97
-1.69
-2.31
-2.83
-3.26
-3.59
-3.80
-3.91
-3.95
-4.00
-4.11
-4.35
-4.69
-5.05
-5.33
-5.45
-5.38
-5.16
-4.90
-4.72
-4.70
-4.84
-5.02
-5.12
-4.98
-4.54
-3.81
-2.90
-1.91
-0.95
-0.05
0.82
1.72
2.72
3.83
5.02
6.13
6.99
7.45
7.40
6.86
5.92
4.75
3.51
2.34
1.34
0.57
-0.00
-0.42
-0.76
-1.15
-1.67
-2.34
-3.10
-3.81
-4.32
-4.50
-4.33
-3.82
-3.10
-2.25
-1.36
-0.50
0.30
1.03
1.68
2.25
2.75
3.20
3.58
3.91
4.15
4.32
4.43
4.53
4.65
4.79
4.96
5.15
5.35
5.55
5.73
5.83
5.78
5.54
5.06
4.36
3.49
2.48
1.32
0.03
-1.38
-2.85
-4.25
-5.44
-6.25
-6.60
-6.47
-5.99
-5.37
-4.83
-4.54
-4.54
-4.73
-4.92
-4.93
-4.67
-4.19
-3.63
-3.18
-2.91
-2.85
-2.93
-3.08
-3.29
-3.57
-3.92
-4.30
-4.62
-4.77
-4.71
-4.49
-4.20
-3.95
-3.77
-3.59
-3.32
-2.90
-2.35
-1.80
-1.37
-1.13
-1.04
-0.98
-0.82
-0.46
0.11
0.78
1.44
1.93
2.18
2.18
2.03
1.81
1.62
1.50
1.43
1.42
1.49
1.70
2.14
2.79
3.53
4.15
4.44
4.29
3.79
3.12
2.49
2.03
1.75
1.55
1.31
0.97
0.55
0.09
-0.35
-0.76
-1.12
-1.41
-1.57
-1.56
-1.34
-0.94
-0.37
0.31
1.06
1.83
2.53
3.05
3.30
3.27
3.03
2.73
2.53
2.51
2.64
2.84
2.99
3.04
3.05
3.11
3.31
3.67
4.11
4.49
4.67
4.57
4.20
3.61
2.90
2.17
1.47
0.84
0.25
-0.33
-0.91
-1.50
-2.07
-2.57
-2.94
-3.13
-3.10
-2.85
-2.41
-1.83
-1.19
-0.54
0.08
0.62
1.08
1.47
1.80
2.13
2.46
2.75
2.91
2.80
2.35
1.63
0.82
0.17
-0.11
0.01
0.43
1.01
1.63
2.29
3.02
3.81
4.57
5.15
5.40
5.27
4.81
4.10
3.19
2.07
0.71
-0.86
-2.49
-3.90
-4.83
-5.13
-4.81
-4.06
-3.14
-2.30
-1.66
-1.26
-1.02
-0.85
-0.72
-0.62
-0.57
-0.59
-0.62
-0.58
-0.38
-0.00
0.50
1.00
1.37
1.51
1.36
0.93
0.27
-0.59
-1.59
-2.67
-3.74
-4.73
-5.57
-6.28
-6.95
-7.67
-8.54
-9.52
-10.51
-11.31
-11.78
-11.87
-11.64
-11.26
-10.88
-10.57
-10.26
-9.81
-9.09
-8.06
-6.74
-5.28
-3.80
-2.41
-1.17
-0.13
0.69
1.30
1.73
2.11
2.55
3.15
3.95
4.86
5.77
6.52
7.02
7.24
7.26
7.14
6.92
6.58
6.06
5.29
4.30
3.22
2.22
1.48
1.09
1.03
1.19
1.44
1.66
1.79
1.81
1.71
1.53
1.31
1.12
1.00
0.93
0.84
0.64
0.29
-0.17
-0.62
-0.91
-0.99
-0.93
-0.88
-0.96
-1.19
-1.43
-1.53
-1.40
-1.16
-1.00
-1.15
-1.64
-2.35
-3.02
-3.43
-3.49
-3.26
-2.90
-2.52
-2.14
-1.69
-1.13
-0.42
0.35
1.09
1.71
2.21
2.62
2.98
3.26
3.43
3.44
3.26
2.97
2.66
2.42
2.30
2.26
2.22
2.09
1.85
1.52
1.20
0.99
0.94
1.03
1.15
1.17
1.01
0.66
0.20
-0.26
-0.61
-0.79
-0.77
-0.58
-0.22
0.25
0.79
1.30
1.69
1.89
1.92
1.86
1.81
1.83
1.91
1.98
2.00
1.94
1.82
1.65
1.44
1.17
0.82
0.44
0.10
-0.14
-0.29
-0.44
-0.75
-1.30
-2.06
-2.82
-3.33
-3.43
-3.10
-2.54
-1.97
-1.55
-1.28
-1.01
-0.61
-0.05
0.58
1.07
1.30
1.24
1.04
0.85
0.79
0.85
0.90
0.76
0.35
-0.33
-1.20
-2.11
-2.98
-3.81
-4.66
-5.60
-6.62
-7.64
-8.49
-9.01
-9.19
-9.10
-8.93
-8.83
-8.83
-8.87
-8.81
-8.54
-8.06
-7.42
-6.73
-6.02
-5.29
-4.46
-3.47
-2.30
-0.99
0.39
1.73
3.00
4.19
5.36
6.56
7.78
8.94
9.88
10.43
10.49
10.13
9.51
8.88
8.42
8.19
8.12
8.06
7.90
7.59
7.21
6.84
6.57
6.42
6.34
6.23
6.00
5.59
5.00
4.25
3.43
2.65
2.06
1.75
1.74
1.98
2.36
2.72
2.96
3.02
2.94
2.80
2.72
2.76
2.90
3.10
3.23
3.19
2.94
2.49
1.94
1.37
0.86
0.38
-0.12
-0.71
-1.39
-2.07
-2.65
-3.07
-3.38
-3.70
-4.19
-4.88
-5.69
-6.44
-6.95
-7.17
-7.15
-7.01
-6.81
-6.49
-5.97
-5.18
-4.19
-3.15
-2.23
-1.53
-1.01
-0.54
-0.01
0.65
1.39
2.15
2.86
3.47
3.97
4.35
4.58
4.65
4.54
4.31
4.02
3.75
3.51
3.30
3.05
2.72
2.26
1.68
1.01
0.30
-0.38
-0.94
-1.26
-1.24
-0.87
-0.25
0.42
0.92
1.09
0.91
0.49
0.03
-0.32
-0.51
-0.57
-0.57
-0.56
-0.55
-0.48
-0.31
-0.05
0.26
0.57
0.85
1.11
1.44
1.86
2.34
2.74
2.93
2.79
2.35
1.74
1.12
0.61
0.19
-0.27
-0.91
-1.78
-2.76
-3.65
-4.23
-4.41
-4.21
-3.78
-3.29
-2.83
-2.41
-1.97
-1.46
-0.90
-0.33
0.16
0.50
0.71
0.83
0.96
1.14
1.40
1.70
1.97
2.15
2.21
2.19
2.16
2.19
2.29
2.44
2.51
2.41
2.05
1.38
0.45
-0.68
-1.91
-3.11
-4.19
-5.03
-5.56
-5.77
-5.74
-5.62
-5.55
-5.61
-5.78
-5.91
-5.85
-5.51
-4.91
-4.15
-3.34
-2.54
-1.72
-0.85
0.07
0.97
1.71
2.24
2.56
2.82
3.14
3.60
4.16
4.69
5.06
5.20
5.14
4.94
4.61
4.15
3.50
2.69
1.82
1.06
0.57
0.41
0.47
0.59
0.58
0.41
0.18
0.06
0.15
0.47
0.87
1.18
1.28
1.15
0.85
0.50
0.17
-0.11
-0.38
-0.70
-1.08
-1.50
-1.90
-2.22
-2.43
-2.51
-2.45
-2.28
-1.98
-1.59
-1.15
-0.73
-0.44
-0.34
-0.44
-0.67
-0.95
-1.20
-1.40
-1.58
-1.77
-1.97
-2.10
-2.09
-1.88
-1.50
-1.06
-0.67
-0.44
-0.38
-0.43
-0.49
-0.44
-0.22
0.19
0.71
1.19
1.48
1.47
1.15
0.59
-0.08
-0.70
-1.16
-1.43
-1.48
-1.37
-1.14
-0.88
-0.69
-0.64
-0.75
-0.97
-1.20
-1.32
-1.28
-1.06
-0.72
-0.32
0.04
0.30
0.37
0.22
-0.16
-0.69
-1.24
-1.64
-1.79
-1.66
-1.32
-0.87
-0.42
-0.04
0.23
0.34
0.27
0.00
-0.41
-0.86
-1.23
-1.43
-1.44
-1.34
-1.23
-1.18
-1.20
-1.24
-1.24
-1.19
-1.10
-1.01
-0.97
-0.96
-0.98
-0.99
-0.95
-0.84
-0.67
-0.43
-0.15
0.17
0.51
0.85
1.15
1.34
1.37
1.21
0.90
0.53
0.19
-0.03
-0.10
-0.05
0.08
0.25
0.45
0.63
0.77
0.80
0.66
0.34
-0.09
-0.55
-0.93
-1.15
-1.20
-1.11
-0.97
-0.80
-0.64
-0.46
-0.24
0.01
0.24
0.39
0.41
0.33
0.24
0.25
0.39
0.66
0.96
1.22
1.41
1.52
1.57
1.56
1.46
1.26
0.98
0.71
0.55
0.55
0.67
0.80
0.80
0.60
0.24
-0.19
-0.61
-0.95
-1.22
-1.41
-1.51
-1.48
-1.30
-0.99
-0.62
-0.29
-0.09
-0.02
0.01
0.09
0.30
0.63
0.98
1.26
1.40
1.39
1.31
1.28
1.35
1.53
1.72
1.83
1.79
1.59
1.35
1.19
1.25
1.52
1.93
2.34
2.60
2.61
2.37
1.94
1.38
0.76
0.11
-0.52
-1.03
-1.31
-1.30
-1.04
-0.64
-0.28
-0.07
-0.03
-0.07
-0.09
0.01
0.22
0.48
0.70
0.84
0.90
0.95
1.06
1.22
1.40
1.49
1.40
1.08
0.58
0.02
-0.46
-0.74
-0.78
-0.62
-0.38
-0.16
-0.03
-0.04
-0.18
-0.45
-0.81
-1.23
-1.64
-1.97
-2.15
-2.16
-1.99
-1.68
-1.30
-0.94
-0.69
-0.65
-0.82
-1.17
-1.58
-1.91
-2.07
-1.99
-1.68
-1.19
-0.61
-0.02
0.43
0.64
0.57
0.28
-0.09
-0.36
-0.39
-0.23
-0.01
0.06
-0.12
-0.53
-1.05
-1.57
-2.02
-2.41
-2.76
-3.05
-3.17
-3.01
-2.53
-1.82
-1.03
-0.33
0.21
0.58
0.86
1.11
1.33
1.47
1.46
1.28
0.97
0.62
0.29
0.03
-0.18
-0.34
-0.45
-0.47
-0.39
-0.18
0.13
0.48
0.80
1.01
1.08
0.98
0.74
0.38
-0.03
-0.39
-0.60
-0.58
-0.33
0.06
0.48
0.84
1.08
1.21
1.25
1.26
1.29
1.40
1.60
1.88
2.19
2.39
2.40
2.18
1.79
1.38
1.08
0.99
1.08
1.23
1.30
1.21
0.94
0.51
0.01
-0.43
-0.77
-0.95
-1.00
-1.00
-1.03
-1.14
-1.31
-1.49
-1.58
-1.55
-1.40
-1.18
-0.95
-0.73
-0.50
-0.25
0.04
0.38
0.70
0.95
1.06
1.03
0.90
0.74
0.67
0.72
0.88
1.07
1.22
1.28
1.29
1.30
1.40
1.57
1.76
1.87
1.86
1.75
1.59
1.46
1.37
1.31
1.24
1.13
0.99
0.83
0.65
0.40
0.05
-0.41
-0.95
-1.45
-1.77
-1.84
-1.67
-1.37
-1.08
-0.92
-0.93
-1.04
-1.13
-1.11
-0.93
-0.63
-0.26
0.07
0.29
0.39
0.37
0.29
0.18
0.07
0.00
-0.03
-0.05
-0.03
0.01
0.10
0.26
0.47
0.66
0.69
0.47
-0.04
-0.78
-1.61
-2.38
-2.97
-3.30
-3.36
-3.18
-2.81
-2.30
-1.72
-1.18
-0.80
-0.61
-0.59
-0.64
-0.61
-0.40
0.01
0.54
1.07
1.47
1.68
1.72
1.64
1.50
1.31
1.07
0.77
0.43
0.10
-0.17
-0.33
-0.38
-0.34
-0.28
-0.21
-0.17
-0.20
-0.32
-0.54
-0.85
-1.19
-1.46
-1.60
-1.62
-1.55
-1.47
-1.42
-1.39
-1.32
-1.12
-0.77
-0.28
0.27
0.77
1.14
1.35
1.44
1.49
1.59
1.81
2.13
2.44
2.61
2.55
2.28
1.93
1.68
1.58
1.60
1.58
1.39
1.00
0.49
0.03
-0.26
-0.38
-0.41
-0.48
-0.67
-0.94
-1.15
-1.16
-0.88
-0.34
0.30
0.88
1.24
1.35
1.26
1.09
0.96
0.95
1.03
1.11
1.10
0.96
0.74
0.51
0.37
0.36
0.50
0.71
0.93
1.08
1.14
1.10
1.00
0.86
0.70
0.50
0.28
0.02
-0.27
-0.53
-0.77
-0.97
-1.15
-1.36
-1.61
-1.90
-2.16
-2.30
-2.26
-2.01
-1.63
-1.23
-0.89
-0.64
-0.42
-0.17
0.14
0.45
0.62
0.55
0.22
-0.21
-0.54
-0.58
-0.27
0.26
0.81
1.14
1.17
0.92
0.55
0.26
0.16
0.26
0.48
0.69
0.80
0.78
0.66
0.45
0.16
-0.24
-0.72
-1.25
-1.73
-2.04
-2.13
-2.01
-1.75
-1.46
-1.18
-0.90
-0.58
-0.19
0.25
0.65
0.91
0.97
0.83
0.54
0.18
-0.19
-0.48
-0.64
-0.62
-0.42
-0.09
0.26
0.49
0.51
0.27
-0.15
-0.61
-0.97
-1.10
-0.98
-0.67
-0.28
0.04
0.18
0.08
-0.26
-0.76
-1.30
-1.75
-2.00
-1.98
-1.72
-1.31
-0.90
-0.59
-0.42
-0.36
-0.31
-0.17
0.12
0.55
1.04
1.52
1.89
2.06
2.02
1.81
1.50
1.23
1.12
1.24
1.58
2.02
2.42
2.65
2.62
2.37
1.98
1.59
1.30
1.16
1.12
1.10
1.01
0.82
0.51
0.11
-0.34
-0.78
-1.18
-1.48
-1.66
-1.70
-1.61
-1.41
-1.10
-0.71
-0.28
0.15
0.52
0.80
0.96
1.04
1.05
1.01
0.89
0.66
0.37
0.05
-0.21
-0.33
-0.28
-0.08
0.21
0.50
0.73
0.82
0.74
0.48
0.08
-0.41
-0.94
-1.45
-1.91
-2.32
-2.65
-2.87
-2.94
-2.85
-2.64
-2.34
-2.04
-1.77
-1.53
-1.28
-0.99
-0.62
-0.18
0.30
0.73
1.05
1.17
1.08
0.79
0.42
0.09
-0.06
0.01
0.25
0.50
0.56
0.37
-0.03
-0.47
-0.79
-0.91
-0.88
-0.82
-0.84
-1.00
-1.23
-1.47
-1.67
-1.84
-2.01
-2.18
-2.30
-2.28
-2.06
-1.66
-1.17
-0.72
-0.40
-0.22
-0.16
-0.13
-0.05
0.13
0.43
0.81
1.19
1.50
1.70
1.77
1.76
1.72
1.65
1.52
1.30
0.95
0.52
0.11
-0.15
-0.16
0.07
0.47
0.90
1.20
1.26
1.04
0.55
-0.10
-0.79
-1.38
-1.76
-1.84
-1.65
-1.23
-0.72
-0.22
0.17
0.46
0.70
1.00
1.40
1.90
2.43
2.89
3.18
3.25
3.09
2.75
2.28
1.73
1.14
0.59
0.11
-0.25
-0.46
-0.51
-0.44
-0.29
-0.12
0.02
0.07
0.01
-0.18
-0.47
-0.85
-1.32
-1.84
-2.38
-2.83
-3.11
-3.12
-2.86
-2.41
-1.88
-1.37
-0.94
-0.60
-0.33
-0.11
0.01
0.02
-0.08
-0.25
-0.38
-0.39
-0.25
0.00
0.29
0.52
0.65
0.65
0.53
0.35
0.17
0.08
0.12
0.30
0.57
0.81
0.90
0.77
0.41
-0.11
-0.69
-1.24
-1.71
-2.09
-2.36
-2.56
-2.65
-2.62
-2.46
-2.17
-1.83
-1.50
-1.23
-1.03
-0.82
-0.51
-0.04
0.57
1.22
1.77
2.12
2.24
2.18
2.05
1.95
1.97
2.07
2.19
2.20
2.05
1.74
1.40
1.19
1.23
1.56
2.05
2.53
2.81
2.78
2.42
1.77
0.93
-0.01
-0.91
-1.66
-2.12
-2.25
-2.06
-1.67
-1.25
-0.98
-0.96
-1.20
-1.59
-1.96
-2.14
-2.01
-1.62
-1.10
-0.63
-0.34
-0.22
-0.17
-0.05
0.21
0.55
0.84
0.98
0.96
0.89
0.90
1.08
1.38
1.68
1.83
1.75
1.50
1.19
0.90
0.66
0.41
0.06
-0.45
-1.08
-1.75
-2.33
-2.72
-2.84
-2.69
-2.30
-1.75
-1.13
-0.53
-0.04
0.29
0.46
0.52
0.57
0.72
1.00
1.40
1.83
2.19
2.40
2.47
2.44
2.41
2.44
2.54
2.66
2.74
2.71
2.62
2.51
2.44
2.42
2.40
2.33
2.16
1.95
1.76
1.65
1.56
1.39
0.97
0.25
-0.72
-1.74
-2.58
-3.02
-3.01
-2.62
-2.02
-1.44
-1.05
-0.91
-0.97
-1.09
-1.11
-0.93
-0.55
-0.06
0.44
0.89
1.26
1.54
1.69
1.68
1.47
1.09
0.64
0.22
-0.07
-0.23
-0.30
-0.36
-0.46
-0.58
-0.69
-0.79
-0.90
-1.10
-1.45
-1.95
-2.55
-3.15
-3.66
-4.02
-4.22
-4.27
-4.17
-3.91
-3.52
-3.01
-2.48
-2.00
-1.67
-1.49
-1.40
-1.28
-1.04
-0.65
-0.18
0.27
0.59
0.74
0.76
0.73
0.76
0.87
1.04
1.22
1.34
1.37
1.31
1.18
1.00
0.76
0.48
0.16
-0.18
-0.55
-0.95
-1.41
-1.94
-2.51
-3.08
-3.57
-3.91
-4.05
-3.97
-3.70
-3.30
-2.83
-2.36
-1.90
-1.43
-0.91
-0.28
0.49
1.33
2.14
2.75
3.02
2.96
2.69
2.43
2.40
2.66
3.12
3.56
3.75
3.63
3.31
2.96
2.72
2.60
2.49
2.22
1.76
1.18
0.60
0.10
-0.33
-0.83
-1.48
-2.24
-2.90
-3.20
-2.97
-2.24
-1.26
-0.36
0.22
0.47
0.55
0.70
1.11
1.78
2.57
3.24
3.63
3.72
3.57
3.35
3.16
3.07
3.08
3.16
3.29
3.41
3.51
3.54
3.48
3.33
3.10
2.85
2.62
2.39
2.14
1.82
1.41
0.93
0.41
-0.10
-0.59
-1.08
-1.56
-1.99
-2.29
-2.36
-2.15
-1.70
-1.16
-0.67
-0.36
-0.27
-0.31
-0.39
-0.41
-0.31
-0.08
0.20
0.46
0.59
0.55
0.36
0.12
-0.04
-0.02
0.19
0.49
0.73
0.77
0.58
0.24
-0.11
-0.32
-0.35
-0.25
-0.15
-0.18
-0.45
-0.98
-1.74
-2.63
-3.50
-4.23
-4.72
-4.92
-4.85
-4.57
-4.13
-3.59
-2.96
-2.28
-1.57
-0.87
-0.24
0.31
0.78
1.19
1.57
1.88
2.10
2.18
2.13
2.02
1.87
1.70
1.52
1.31
1.09
0.91
0.79
0.72
0.63
0.46
0.15
-0.32
-0.92
-1.60
-2.33
-3.07
-3.75
-4.26
-4.49
-4.33
-3.78
-2.93
-2.00
-1.18
-0.60
-0.26
-0.04
0.22
0.66
1.30
2.05
2.75
3.28
3.56
3.61
3.49
3.30
3.09
2.88
2.69
2.49
2.29
2.09
1.85
1.58
1.25
0.87
0.45
0.04
-0.35
-0.69
-1.02
-1.35
-1.70
-2.08
-2.45
-2.80
-3.09
-3.32
-3.46
-3.48
-3.35
-3.03
-2.56
-1.98
-1.37
-0.77
-0.15
0.53
1.29
2.08
2.78
3.23
3.33
3.11
2.69
2.23
1.90
1.78
1.87
2.10
2.39
2.62
2.76
2.75
2.57
2.23
1.75
1.19
0.68
0.34
0.20
0.23
0.26
0.10
-0.38
-1.21
-2.23
-3.20
-3.89
-4.16
-4.00
-3.53
-2.88
-2.21
-1.58
-1.02
-0.54
-0.12
0.21
0.46
0.59
0.62
0.62
0.65
0.79
1.03
1.33
1.61
1.80
1.89
1.94
2.00
2.13
2.32
2.54
2.73
2.86
2.90
2.84
2.69
2.47
2.20
1.91
1.62
1.30
0.93
0.47
-0.10
-0.75
-1.43
-2.08
-2.64
-3.04
-3.24
-3.16
-2.77
-2.12
-1.34
-0.62
-0.07
0.29
0.54
0.81
1.18
1.62
2.02
2.25
2.28
2.14
1.94
1.78
1.68
1.63
1.55
1.37
1.12
0.86
0.68
0.63
0.72
0.84
0.90
0.78
0.43
-0.11
-0.73
-1.37
-1.96
-2.53
-3.08
-3.58
-3.95
-4.07
-3.92
-3.53
-3.05
-2.62
-2.32
-2.15
-1.98
-1.66
-1.10
-0.33
0.53
1.29
1.81
2.02
1.96
1.73
1.46
1.28
1.23
1.32
1.51
1.72
1.89
1.97
1.94
1.77
1.52
1.23
0.94
0.64
0.31
-0.09
-0.55
-1.04
-1.51
-1.95
-2.37
-2.77
-3.11
-3.32
-3.29
-2.97
-2.40
-1.72
-1.11
-0.73
-0.60
-0.66
-0.75
-0.69
-0.44
0.02
0.55
1.03
1.36
1.48
1.42
1.22
0.94
0.62
0.28
-0.05
-0.34
-0.53
-0.59
-0.58
-0.57
-0.66
-0.91
-1.29
-1.72
-2.16
-2.59
-3.05
-3.55
-4.02
-4.35
-4.40
-4.13
-3.60
-2.96
-2.34
-1.76
-1.17
-0.47
0.39
1.30
2.09
2.57
2.64
2.39
2.01
1.73
1.71
2.00
2.45
2.87
3.05
2.87
2.36
1.68
1.01
0.49
0.16
-0.03
-0.18
-0.34
-0.52
-0.74
-1.02
-1.42
-1.97
-2.64
-3.32
-3.81
-3.95
-3.69
-3.10
-2.36
-1.65
-1.08
-0.65
-0.26
0.17
0.67
1.18
1.63
1.95
2.14
2.27
2.43
2.68
2.99
3.28
3.41
3.31
2.97
2.51
2.07
1.80
1.74
1.85
2.00
2.04
1.90
1.61
1.25
0.88
0.49
0.00
-0.64
-1.40
-2.13
-2.64
-2.82
-2.73
-2.53
-2.41
-2.45
-2.57
-2.59
-2.37
-1.92
-1.38
-0.94
-0.72
-0.69
-0.74
-0.71
-0.58
-0.38
-0.22
-0.17
-0.22
-0.30
-0.31
-0.18
0.06
0.34
0.58
0.70
0.68
0.52
0.22
-0.19
-0.68
-1.22
-1.79
-2.34
-2.80
-3.07
-3.08
-2.80
-2.26
-1.56
-0.81
-0.14
0.39
0.76
1.00
1.15
1.24
1.30
1.36
1.43
1.56
1.72
1.89
2.00
2.01
1.93
1.79
1.66
1.61
1.67
1.82
1.97
2.02
1.91
1.64
1.29
0.95
0.69
0.51
0.36
0.18
-0.07
-0.40
-0.78
-1.16
-1.46
-1.64
-1.70
-1.67
-1.59
-1.50
-1.40
-1.29
-1.15
-0.98
-0.76
-0.50
-0.18
0.18
0.55
0.88
1.13
1.26
1.26
1.17
1.06
0.99
0.99
1.07
1.22
1.37
1.44
1.36
1.09
0.66
0.20
-0.14
-0.26
-0.20
-0.12
-0.18
-0.51
-1.07
-1.73
-2.33
-2.74
-2.87
-2.70
-2.26
-1.59
-0.83
-0.13
0.35
0.59
0.67
0.77
1.03
1.47
2.00
2.44
2.70
2.80
2.83
2.94
3.15
3.42
3.63
3.71
3.66
3.57
3.53
3.61
3.79
3.95
3.96
3.72
3.22
2.55
1.84
1.21
0.71
0.33
0.01
-0.32
-0.71
-1.19
-1.76
-2.35
-2.87
-3.17
-3.13
-2.73
-2.06
-1.32
-0.71
-0.36
-0.26
-0.32
-0.40
-0.39
-0.28
-0.07
0.16
0.38
0.54
0.64
0.70
0.72
0.70
0.62
0.45
0.16
-0.20
-0.58
-0.87
-1.01
-1.01
-0.98
-1.05
-1.31
-1.74
-2.26
-2.72
-3.05
-3.22
-3.30
-3.37
-3.46
-3.56
-3.55
-3.34
-2.86
-2.14
-1.32
-0.56
-0.00
0.33
0.52
0.69
0.91
1.17
1.35
1.36
1.16
0.87
0.65
0.61
0.75
0.96
1.05
0.94
0.66
0.38
0.25
0.32
0.55
0.76
0.80
0.55
0.04
-0.67
-1.44
-2.14
-2.64
-2.86
-2.74
-2.33
-1.76
-1.23
-0.91
-0.89
-1.08
-1.34
-1.44
-1.24
-0.72
0.06
0.95
1.79
2.42
2.74
2.70
2.38
1.96
1.63
1.57
1.79
2.15
2.45
2.52
2.32
1.95
1.56
1.26
1.06
0.87
0.62
0.30
-0.06
-0.39
-0.68
-1.02
-1.47
-2.05
-2.67
-3.15
-3.32
-3.08
-2.51
-1.78
-1.12
-0.69
-0.50
-0.47
-0.43
-0.23
0.21
0.84
1.55
2.20
2.69
3.01
3.19
3.24
3.17
2.96
2.64
2.25
1.93
1.76
1.81
2.04
2.30
2.45
2.37
2.09
1.70
1.35
1.14
1.10
1.10
0.99
0.62
-0.02
-0.82
-1.60
-2.23
-2.66
-2.97
-3.23
-3.43
-3.48
-3.27
-2.76
-2.06
-1.37
-0.87
-0.63
-0.57
-0.51
-0.31
0.06
0.48
0.80
0.91
0.82
0.61
0.43
0.38
0.46
0.59
0.67
0.61
0.42
0.20
0.04
0.06
0.23
0.46
0.59
0.50
0.14
-0.43
-1.08
-1.64
-2.04
-2.31
-2.57
-2.94
-3.45
-4.02
-4.47
-4.60
-4.33
-3.70
-2.91
-2.16
-1.61
-1.27
-1.03
-0.73
-0.29
0.30
0.92
1.43
1.71
1.73
1.55
1.30
1.09
0.99
0.97
0.96
0.87
0.70
0.51
0.43
0.55
0.86
1.22
1.43
1.34
0.91
0.24
-0.52
-1.24
-1.87
-2.44
-2.98
-3.49
-3.88
-4.06
-3.97
-3.63
-3.12
-2.53
-1.96
-1.47
-1.06
-0.68
-0.27
0.24
0.87
1.55
2.16
2.58
2.72
2.60
2.33
2.06
1.87
1.78
1.75
1.74
1.75
1.81
1.93
2.05
2.11
2.02
1.77
1.43
1.10
0.87
0.73
0.60
0.37
-0.08
-0.77
-1.62
-2.48
-3.18
-3.59
-3.65
-3.40
-2.95
-2.41
-1.86
-1.35
-0.85
-0.31
0.29
0.90
1.45
1.85
2.07
2.10
2.04
1.94
1.85
1.80
1.78
1.81
1.90
2.06
2.27
2.48
2.61
2.61
2.49
2.29
2.04
1.78
1.47
1.09
0.63
0.12
-0.43
-0.98
-1.56
-2.18
-2.81
-3.37
-3.77
-3.91
-3.74
-3.30
-2.68
-2.01
-1.40
-0.91
-0.57
-0.32
-0.13
0.07
0.32
0.65
1.02
1.40
1.72
1.92
1.95
1.84
1.64
1.42
1.27
1.23
1.33
1.55
1.87
2.23
2.55
2.73
2.69
2.43
1.98
1.46
1.00
0.64
0.38
0.16
-0.13
-0.52
-1.03
-1.60
-2.16
-2.63
-2.92
-2.95
-2.73
-2.31
-1.83
-1.44
-1.22
-1.15
-1.09
-0.89
-0.47
0.14
0.81
1.38
1.79
2.05
2.24
2.40
2.53
2.59
2.53
2.35
2.10
1.83
1.61
1.42
1.26
1.14
1.05
1.01
1.00
0.97
0.87
0.67
0.39
0.08
-0.23
-0.54
-0.92
-1.44
-2.11
-2.84
-3.47
-3.85
-3.88
-3.59
-3.10
-2.54
-2.02
-1.58
-1.19
-0.80
-0.39
0.00
0.35
0.58
0.70
0.71
0.69
0.71
0.80
0.96
1.11
1.18
1.14
1.00
0.83
0.68
0.58
0.48
0.33
0.11
-0.15
-0.35
-0.44
-0.39
-0.26
-0.20
-0.32
-0.69
-1.30
-2.03
-2.71
-3.19
-3.32
-3.07
-2.44
-1.54
-0.51
0.49
1.34
1.96
2.37
2.66
2.94
3.31
3.80
4.39
5.02
5.58
5.96
6.11
5.98
5.62
5.11
4.57
4.11
3.80
3.62
3.49
3.31
2.99
2.48
1.78
0.96
0.08
-0.81
-1.65
-2.43
-3.14
-3.76
-4.27
-4.62
-4.77
-4.73
-4.53
-4.29
-4.07
-3.86
-3.57
-3.07
-2.25
-1.14
0.11
1.28
2.16
2.66
2.85
2.88
2.91
3.08
3.40
3.83
4.29
4.71
5.03
5.23
5.29
5.25
5.17
5.12
5.21
5.47
5.85
6.24
6.47
6.42
6.07
5.46
4.70
3.90
3.15
2.48
1.90
1.39
0.90
0.39
-0.18
-0.78
-1.34
-1.79
-2.07
-2.20
-2.26
-2.35
-2.53
-2.77
-3.03
-3.23
-3.37
-3.50
-3.68
-3.92
-4.17
-4.33
-4.33
-4.15
-3.85
-3.55
-3.33
-3.24
-3.26
-3.34
-3.44
-3.53
-3.62
-3.71
-3.78
-3.85
-3.88
-3.89
-3.86
-3.82
-3.77
-3.73
-3.71
-3.73
-3.78
-3.80
-3.76
-3.58
-3.24
-2.81
-2.38
-2.08
-1.98
-2.05
-2.21
-2.33
-2.37
-2.36
-2.38
-2.49
-2.68
-2.87
-2.98
-3.00
-2.97
-2.98
-3.11
-3.31
-3.47
-3.50
-3.34
-3.09
-2.87
-2.78
-2.82
-2.85
-2.72
-2.34
-1.76
-1.09
-0.48
-0.02
0.30
0.50
0.64
0.76
0.90
1.12
1.48
1.98
2.53
2.97
3.15
3.00
2.55
1.98
1.46
1.12
0.99
1.05
1.19
1.34
1.44
1.45
1.35
1.12
0.78
0.35
-0.12
-0.56
-0.94
-1.27
-1.54
-1.74
-1.84
-1.81
-1.64
-1.36
-1.07
-0.85
-0.75
-0.77
-0.85
-0.89
-0.82
-0.63
-0.37
-0.11
0.06
0.11
0.05
-0.07
-0.20
-0.26
-0.24
-0.12
0.06
0.25
0.45
0.60
0.70
0.73
0.67
0.52
0.25
-0.11
-0.52
-0.96
-1.37
-1.71
-1.96
-2.08
-2.05
-1.86
-1.55
-1.17
-0.82
-0.55
-0.41
-0.35
-0.33
-0.27
-0.18
-0.08
0.00
0.10
0.25
0.54
0.98
1.50
1.98
2.34
2.52
2.56
2.53
2.49
2.46
2.45
2.43
2.40
2.37
2.31
2.19
1.96
1.63
1.24
0.86
0.55
0.33
0.19
0.09
0.02
-0.01
0.04
0.14
0.25
0.27
0.16
-0.07
-0.30
-0.42
-0.31
-0.04
0.29
0.49
0.49
0.35
0.21
0.24
0.51
0.97
1.44
1.74
1.78
1.55
1.19
0.81
0.53
0.38
0.36
0.43
0.55
0.64
0.65
0.49
0.08
-0.59
-1.48
-2.43
-3.23
-3.70
-3.78
-3.50
-3.00
-2.47
-2.03
-1.72
-1.55
-1.45
-1.39
-1.32
-1.23
-1.09
-0.92
-0.70
-0.46
-0.20
0.07
0.33
0.57
0.80
1.04
1.33
1.68
2.07
2.45
2.76
2.95
2.98
2.89
2.70
2.47
2.24
2.02
1.79
1.50
1.09
0.55
-0.11
-0.79
-1.39
-1.84
-2.10
-2.19
-2.13
-1.94
-1.60
-1.09
-0.46
0.15
0.60
0.77
0.66
0.39
0.15
0.08
0.22
0.48
0.69
0.74
0.59
0.33
0.11
0.06
0.23
0.56
0.94
1.27
1.48
1.52
1.43
1.22
0.95
0.65
0.36
0.10
-0.08
-0.16
-0.11
0.07
0.32
0.50
0.47
0.15
-0.38
-0.93
-1.24
-1.13
-0.60
0.16
0.87
1.32
1.44
1.35
1.21
1.15
1.20
1.28
1.30
1.18
0.96
0.69
0.48
0.38
0.39
0.50
0.63
0.74
0.80
0.81
0.75
0.58
0.25
-0.27
-0.99
-1.88
-2.83
-3.74
-4.49
-5.04
-5.39
-5.58
-5.66
-5.66
-5.59
-5.43
-5.14
-4.69
-4.08
-3.30
-2.40
-1.50
-0.74
-0.26
-0.10
-0.22
-0.45
-0.62
-0.63
-0.45
-0.18
0.10
0.37
0.67
1.09
1.67
2.31
2.87
3.18
3.15
2.84
2.38
1.94
1.60
1.38
1.25
1.17
1.14
1.16
1.21
1.24
1.22
1.10
0.92
0.75
0.68
0.74
0.94
1.18
1.41
1.58
1.74
1.92
2.14
2.36
2.48
2.40
2.10
1.59
0.99
0.41
0.00
-0.17
-0.08
0.19
0.49
0.68
0.67
0.43
0.04
-0.40
-0.80
-1.15
-1.49
-1.86
-2.24
-2.55
-2.67
-2.55
-2.18
-1.64
-1.03
-0.42
0.14
0.64
1.07
1.47
1.86
2.29
2.80
3.37
3.95
4.46
4.87
5.16
5.34
5.43
5.43
5.31
5.05
4.64
4.13
3.59
3.10
2.67
2.31
1.92
1.42
0.71
-0.24
-1.35
-2.50
-3.54
-4.38
-5.01
-5.52
-5.99
-6.45
-6.85
-7.11
-7.13
-6.90
-6.48
-5.97
-5.47
-5.03
-4.67
-4.36
-4.08
-3.83
-3.57
-3.28
-2.92
-2.45
-1.86
-1.16
-0.41
0.30
0.87
1.20
1.25
1.06
0.76
0.48
0.37
0.46
0.69
0.91
0.98
0.80
0.36
-0.27
-0.99
-1.71
-2.35
-2.82
-3.05
-3.00
-2.71
-2.29
-1.83
-1.39
-0.94
-0.41
0.25
0.98
1.68
2.20
2.51
2.62
2.64
2.68
2.78
2.94
3.13
3.29
3.41
3.45
3.37
3.16
2.85
2.50
2.19
1.95
1.75
1.54
1.29
1.02
0.75
0.52
0.29
0.01
-0.39
-0.91
-1.49
-2.02
-2.38
-2.47
-2.27
-1.82
-1.19
-0.52
0.09
0.59
1.00
1.39
1.83
2.32
2.83
3.25
3.47
3.47
3.33
3.14
3.02
3.00
3.06
3.14
3.20
3.19
3.10
2.91
2.59
2.16
1.65
1.12
0.64
0.21
-0.21
-0.69
-1.34
-2.13
-2.99
-3.75
-4.22
-4.28
-3.94
-3.26
-2.40
-1.51
-0.71
-0.05
0.45
0.78
0.98
1.05
1.05
1.03
1.04
1.14
1.36
1.67
2.02
2.31
2.47
2.43
2.18
1.72
1.12
0.45
-0.18
-0.72
-1.11
-1.41
-1.70
-2.10
-2.65
-3.32
-3.99
-4.50
-4.77
-4.79
-4.63
-4.42
-4.19
-3.94
-3.65
-3.26
-2.76
-2.14
-1.42
-0.60
0.29
1.20
2.04
2.72
3.17
3.39
3.42
3.36
3.27
3.21
3.16
3.12
3.04
2.87
2.56
2.11
1.56
1.01
0.57
0.32
0.23
0.20
0.06
-0.29
-0.84
-1.46
-1.97
-2.22
-2.23
-2.13
-2.09
-2.17
-2.32
-2.39
-2.23
-1.80
-1.21
-0.59
-0.07
0.35
0.75
1.20
1.68
2.09
2.26
2.12
1.71
1.24
0.92
0.92
1.24
1.74
2.22
2.51
2.56
2.41
2.18
1.94
1.76
1.62
1.49
1.32
1.09
0.79
0.45
0.09
-0.29
-0.71
-1.16
-1.63
-2.01
-2.20
-2.08
-1.63
-0.94
-0.17
0.50
0.95
1.18
1.32
1.49
1.79
2.17
2.51
2.65
2.53
2.20
1.79
1.49
1.42
1.58
1.89
2.22
2.43
2.46
2.30
1.98
1.56
1.13
0.71
0.34
-0.02
-0.38
-0.75
-1.10
-1.40
-1.64
-1.88
-2.19
-2.64
-3.22
-3.81
-4.24
-4.39
-4.24
-3.85
-3.34
-2.78
-2.18
-1.54
-0.83
-0.12
0.47
0.88
1.09
1.17
1.20
1.24
1.28
1.30
1.29
1.27
1.27
1.28
1.21
0.98
0.57
0.08
-0.29
-0.37
-0.12
0.30
0.65
0.69
0.33
-0.37
-1.24
-2.14
-2.99
-3.72
-4.30
-4.64
-4.66
-4.33
-3.74
-3.03
-2.35
-1.80
-1.35
-0.94
-0.48
0.07
0.67
1.26
1.77
2.17
2.48
2.76
3.07
3.44
3.82
4.15
4.33
4.31
4.09
3.73
3.30
2.87
2.51
2.23
2.04
1.90
1.76
1.60
1.35
1.02
0.59
0.11
-0.40
-0.94
-1.48
-2.04
-2.56
-2.96
-3.17
-3.13
-2.85
-2.41
-1.94
-1.54
-1.30
-1.22
-1.20
-1.12
-0.85
-0.32
0.42
1.27
2.09
2.77
3.21
3.41
3.39
3.20
2.91
2.60
2.35
2.21
2.15
2.12
2.05
1.87
1.61
1.33
1.07
0.87
0.67
0.38
-0.08
-0.72
-1.47
-2.21
-2.84
-3.27
-3.50
-3.56
-3.49
-3.31
-3.04
-2.73
-2.44
-2.24
-2.14
-2.05
-1.85
-1.41
-0.74
0.05
0.71
1.06
1.04
0.77
0.49
0.42
0.66
1.13
1.61
1.89
1.80
1.35
0.63
-0.17
-0.87
-1.33
-1.50
-1.47
-1.37
-1.32
-1.42
-1.67
-2.02
-2.41
-2.81
-3.23
-3.64
-4.01
-4.20
-4.10
-3.66
-2.97
-2.23
-1.64
-1.32
-1.20
-1.10
-0.80
-0.20
0.64
1.53
2.28
2.75
2.90
2.84
2.68
2.52
2.44
2.44
2.50
2.60
2.66
2.64
2.51
2.30
2.07
1.90
1.81
1.74
1.60
1.29
0.79
0.15
-0.52
-1.16
-1.75
-2.29
-2.76
-3.07
-3.11
-2.77
-2.07
-1.19
-0.38
0.16
0.33
0.26
0.13
0.17
0.43
0.82
1.16
1.29
1.17
0.90
0.65
0.56
0.64
0.83
1.02
1.16
1.24
1.29
1.28
1.15
0.81
0.27
-0.33
-0.80
-0.97
-0.86
-0.60
-0.48
-0.73
-1.42
-2.48
-3.66
-4.70
-5.40
-5.66
-5.48
-4.95
-4.22
-3.44
-2.76
-2.24
-1.87
-1.54
-1.14
-0.59
0.06
0.75
1.38
1.93
2.45
2.93
3.38
3.69
3.75
3.50
3.00
2.37
1.79
1.37
1.14
1.02
0.91
0.73
0.45
0.09
-0.28
-0.64
-0.93
-1.18
-1.40
-1.62
-1.83
-1.98
-2.05
-2.01
-1.86
-1.59
-1.22
-0.75
-0.24
0.24
0.59
0.79
0.86
0.93
1.11
1.46
1.96
2.49
2.93
3.18
3.22
3.10
2.88
2.62
2.38
2.21
2.13
2.15
2.22
2.26
2.23
2.10
1.90
1.66
1.40
1.10
0.74
0.30
-0.20
-0.73
-1.27
-1.78
-2.26
-2.68
-2.98
-3.10
-2.95
-2.54
-1.91
-1.18
-0.49
0.04
0.37
0.54
0.66
0.85
1.18
1.63
2.11
2.45
2.58
2.47
2.21
1.95
1.78
1.73
1.75
1.75
1.74
1.73
1.81
2.00
2.21
2.29
2.08
1.54
0.72
-0.19
-0.99
-1.59
-2.03
-2.41
-2.85
-3.34
-3.76
-3.97
-3.88
-3.55
-3.15
-2.84
-2.67
-2.54
-2.30
-1.78
-0.99
-0.05
0.77
1.27
1.37
1.12
0.74
0.43
0.33
0.44
0.65
0.85
0.93
0.87
0.75
0.64
0.58
0.55
0.51
0.41
0.23
0.01
-0.29
-0.72
-1.37
-2.28
-3.38
-4.47
-5.31
-5.67
-5.47
-4.82
-3.97
-3.16
-2.56
-2.20
-1.99
-1.77
-1.43
-0.90
-0.19
0.63
1.43
2.10
2.53
2.70
2.62
2.40
2.15
1.97
1.90
1.92
1.98
2.05
2.08
2.08
2.04
1.93
1.73
1.44
1.09
0.73
0.38
0.04
-0.32
-0.77
-1.35
-2.07
-2.85
-3.55
-4.00
-4.08
-3.77
-3.14
-2.35
-1.57
-0.94
-0.48
-0.12
0.23
0.64
1.12
1.62
2.07
2.40
2.61
2.74
2.82
2.88
2.89
2.84
2.73
2.60
2.53
2.60
2.80
3.08
3.29
3.31
3.03
2.45
1.70
0.93
0.31
-0.09
-0.29
-0.40
-0.58
-0.90
-1.37
-1.87
-2.28
-2.49
-2.49
-2.34
-2.13
-1.92
-1.71
-1.44
-1.05
-0.52
0.13
0.84
1.52
2.10
2.52
2.73
2.73
2.53
2.18
1.78
1.45
1.27
1.25
1.34
1.43
1.41
1.24
0.94
0.59
0.28
0.02
-0.25
-0.61
-1.14
-1.82
-2.53
-3.15
-3.59
-3.83
-3.91
-3.90
-3.80
-3.62
-3.38
-3.11
-2.87
-2.69
-2.53
-2.31
-1.89
-1.25
-0.44
0.39
1.12
1.68
2.09
2.38
2.54
2.57
2.45
2.21
1.94
1.74
1.63
1.60
1.55
1.41
1.18
0.87
0.52
0.14
-0.28
-0.80
-1.39
-2.01
-2.60
-3.14
-3.64
-4.12
-4.52
-4.72
-4.64
-4.23
-3.60
-2.93
-2.37
-1.97
-1.66
-1.31
-0.83
-0.22
0.42
0.96
1.32
1.52
1.60
1.60
1.55
1.46
1.39
1.40
1.52
1.70
1.83
1.77
1.47
1.01
0.56
0.30
0.28
0.39
0.44
0.30
-0.08
-0.60
-1.14
-1.60
-1.98
-2.34
-2.70
-3.03
-3.17
-3.02
-2.55
-1.85
-1.12
-0.52
-0.13
0.12
0.36
0.70
1.17
1.69
2.13
2.41
2.55
2.62
2.72
2.88
3.07
3.20
3.23
3.17
3.07
3.01
3.02
3.04
3.00
2.85
2.64
2.46
2.37
2.35
2.29
2.02
1.47
0.68
-0.20
-1.04
-1.73
-2.25
-2.61
-2.79
-2.69
-2.28
-1.59
-0.79
-0.10
0.33
0.51
0.58
0.73
1.03
1.42
1.76
1.89
1.80
1.56
1.33
1.17
1.09
1.03
0.94
0.83
0.74
0.75
0.89
1.11
1.32
1.39
1.23
0.84
0.31
-0.24
-0.71
-1.05
-1.30
-1.52
-1.76
-2.00
-2.23
-2.41
-2.54
-2.67
-2.81
-2.93
-2.93
-2.76
-2.39
-1.88
-1.36
-0.93
-0.64
-0.46
-0.31
-0.11
0.15
0.42
0.64
0.73
0.72
0.67
0.65
0.72
0.83
0.90
0.86
0.64
0.29
-0.06
-0.32
-0.40
-0.34
-0.23
-0.22
-0.42
-0.92
-1.69
-2.64
-3.64
-4.52
-5.13
-5.39
-5.29
-4.90
-4.32
-3.66
-3.00
-2.43
-1.97
-1.60
-1.26
-0.87
-0.33
0.38
1.19
2.01
2.68
3.11
3.29
3.25
3.07
2.81
2.48
2.08
1.61
1.13
0.75
0.56
0.63
0.90
1.27
1.60
1.75
1.69
1.45
1.11
0.72
0.32
-0.12
-0.60
-1.10
-1.48
-1.60
-1.34
-0.70
0.20
1.13
1.88
2.34
2.54
2.64
2.80
3.08
3.42
3.64
3.60
3.25
2.66
2.02
1.48
1.14
1.04
1.13
1.35
1.66
1.96
2.18
2.25
2.15
1.92
1.59
1.21
0.79
0.31
-0.22
-0.75
-1.19
-1.52
-1.77
-2.08
-2.59
-3.33
-4.22
-5.04
-5.53
-5.53
-5.03
-4.13
-3.04
-1.98
-1.11
-0.51
-0.15
0.04
0.18
0.38
0.71
1.18
1.71
2.22
2.65
2.95
3.15
3.26
3.31
3.26
3.09
2.81
2.46
2.12
1.85
1.70
1.67
1.71
1.74
1.70
1.57
1.37
1.14
0.89
0.61
0.21
-0.40
-1.27
-2.32
-3.41
-4.31
-4.81
-4.82
-4.37
-3.62
-2.76
-1.96
-1.32
-0.85
-0.50
-0.18
0.17
0.56
0.93
1.20
1.30
1.24
1.10
0.96
0.87
0.82
0.73
0.51
0.13
-0.37
-0.92
-1.42
-1.78
-2.00
-2.11
-2.22
-2.43
-2.80
-3.34
-3.99
-4.64
-5.22
-5.68
-6.00
-6.14
-6.07
-5.72
-5.09
-4.23
-3.28
-2.40
-1.69
-1.15
-0.70
-0.24
0.33
1.03
1.80
2.53
3.09
3.40
3.48
3.40
3.26
3.13
3.01
2.81
2.50
2.06
1.58
1.17
0.90
0.78
0.74
0.67
0.50
0.19
-0.22
-0.67
-1.05
-1.32
-1.44
-1.44
-1.43
-1.50
-1.68
-1.94
-2.13
-2.08
-1.70
-0.96
0.02
1.06
2.02
2.79
3.37
3.78
4.08
4.28
4.36
4.27
4.01
3.62
3.20
2.87
2.70
2.71
2.84
2.99
3.05
2.99
2.83
2.66
2.53
2.45
2.33
2.04
1.49
0.65
-0.37
-1.42
-2.31
-2.95
-3.31
-3.44
-3.34
-3.03
-2.49
-1.78
-1.00
-0.32
0.14
0.33
0.34
0.33
0.42
0.70
1.10
1.48
1.71
1.69
1.47
1.14
0.87
0.71
0.70
0.75
0.81
0.82
0.84
0.87
0.90
0.88
0.70
0.32
-0.18
-0.68
-1.04
-1.21
-1.27
-1.39
-1.72
-2.36
-3.21
-4.09
-4.79
-5.14
-5.10
-4.72
-4.11
-3.43
-2.75
-2.13
-1.57
-1.04
-0.50
0.04
0.55
0.97
1.23
1.29
1.18
0.97
0.81
0.78
0.94
1.26
1.63
1.96
2.14
2.12
1.91
1.53
1.06
0.56
0.07
-0.37
-0.77
-1.16
-1.55
-1.99
-2.49
-3.07
-3.67
-4.20
-4.55
-4.57
-4.24
-3.62
-2.87
-2.15
-1.54
-1.00
-0.40
0.38
1.34
2.35
3.19
3.70
3.86
3.80
3.75
3.84
4.08
4.35
4.47
4.32
3.93
3.42
2.93
2.57
2.34
2.18
2.04
1.88
1.69
1.51
1.33
1.16
0.95
0.66
0.25
-0.29
-0.90
-1.45
-1.83
-1.94
-1.76
-1.37
-0.87
-0.35
0.16
0.64
1.13
1.64
2.19
2.73
3.23
3.64
3.94
4.09
4.13
4.10
4.08
4.13
4.26
4.43
4.54
4.52
4.31
3.94
3.46
2.95
2.47
2.03
1.60
1.08
0.44
-0.35
-1.23
-2.13
-2.96
-3.66
-4.16
-4.41
-4.38
-4.09
-3.62
-3.14
-2.81
-2.72
-2.84
-3.04
-3.16
-3.07
-2.77
-2.35
-1.96
-1.69
-1.58
-1.55
-1.50
-1.33
-1.06
-0.76
-0.52
-0.44
-0.52
-0.73
-1.00
-1.27
-1.55
-1.88
-2.35
-2.98
-3.75
-4.53
-5.18
-5.57
-5.64
-5.45
-5.13
-4.78
-4.45
-4.10
-3.62
-2.90
-1.93
-0.81
0.32
1.31
2.09
2.67
3.10
3.42
3.67
3.83
3.89
3.84
3.75
3.65
3.60
3.56
3.48
3.29
2.95
2.51
2.01
1.54
1.11
0.68
0.19
-0.41
-1.10
-1.81
-2.48
-3.04
-3.48
-3.83
-4.12
-4.36
-4.55
-4.71
-4.83
-4.91
-4.91
-4.73
-4.29
-3.57
-2.65
-1.69
-0.86
-0.29
0.04
0.24
0.44
0.71
1.04
1.37
1.65
1.89
2.13
2.43
2.77
3.10
3.32
3.37
3.26
3.06
2.90
2.90
3.09
3.43
3.77
3.96
3.88
3.53
2.97
2.35
1.79
1.30
0.84
0.27
-0.46
-1.36
-2.26
-2.99
-3.36
-3.32
-2.95
-2.43
-1.93
-1.58
-1.40
-1.30
-1.22
-1.11
-0.98
-0.85
-0.73
-0.60
-0.42
-0.17
0.11
0.36
0.55
0.71
0.91
1.20
1.54
1.82
1.86
1.56
0.94
0.15
-0.60
-1.13
-1.36
-1.36
-1.26
-1.18
-1.19
-1.28
-1.44
-1.68
-2.06
-2.61
-3.35
-4.13
-4.75
-5.05
-4.95
-4.54
-4.00
-3.52
-3.16
-2.85
-2.45
-1.81
-0.92
0.14
1.17
2.03
2.60
2.90
2.97
2.89
2.74
2.59
2.50
2.50
2.59
2.73
2.90
3.03
3.08
2.98
2.68
2.21
1.63
1.11
0.75
0.60
0.56
0.46
0.12
-0.53
-1.42
-2.36
-3.19
-3.79
-4.15
-4.30
-4.24
-3.96
-3.47
-2.80
-2.11
-1.50
-1.04
-0.67
-0.24
0.37
1.18
2.09
2.87
3.35
3.44
3.22
2.86
2.52
2.32
2.28
2.33
2.40
2.42
2.34
2.16
1.85
1.42
0.88
0.26
-0.38
-0.95
-1.37
-1.53
-1.39
-0.94
-0.23
0.62
1.46
2.13
2.58
2.80
2.86
2.83
2.72
2.51
2.16
1.66
1.11
0.67
0.51
0.67
1.08
1.56
1.91
2.04
1.96
1.74
1.48
1.23
0.95
0.62
0.21
-0.25
-0.71
-1.14
-1.55
-1.98
-2.49
-3.13
-3.87
-4.66
-5.37
-5.87
-6.05
-5.88
-5.40
-4.73
-3.99
-3.26
-2.53
-1.74
-0.84
0.19
1.26
2.20
2.86
3.14
3.03
2.62
2.08
1.56
1.19
1.04
1.10
1.31
1.56
1.75
1.82
1.75
1.57
1.37
1.17
0.96
0.69
0.31
-0.19
-0.76
-1.30
-1.75
-2.05
-2.18
-2.14
-1.90
-1.47
-0.90
-0.30
0.19
0.48
0.54
0.48
0.45
0.61
1.06
1.78
2.68
3.59
4.35
4.85
5.05
4.99
4.74
4.39
3.98
3.54
3.09
2.64
2.23
1.89
1.63
1.44
1.26
1.03
0.74
0.37
-0.02
-0.37
-0.64
-0.80
-0.89
-0.99
-1.21
-1.63
-2.26
-3.04
-3.88
-4.66
-5.26
-5.65
-5.79
-5.68
-5.33
-4.74
-3.94
-2.98
-1.98
-1.04
-0.25
0.37
0.86
1.27
1.62
1.93
2.21
2.47
2.78
3.15
3.57
3.91
3.99
3.70
3.07
2.28
1.60
1.26
1.33
1.69
2.08
2.24
2.06
1.57
0.95
0.37
-0.06
-0.38
-0.68
-1.08
-1.61
-2.21
-2.77
-3.23
-3.60
-3.91
-4.22
-4.50
-4.65
-4.56
-4.13
-3.44
-2.63
-1.91
-1.39
-1.08
-0.84
-0.53
-0.07
0.51
1.06
1.40
1.47
1.30
1.04
0.85
0.79
0.87
1.01
1.13
1.14
1.01
0.71
0.26
-0.33
-0.98
-1.60
-2.09
-2.36
-2.36
-2.09
-1.59
-0.93
-0.19
0.52
1.11
1.54
1.85
2.14
2.49
2.95
3.46
3.91
4.17
4.20
4.02
3.74
3.47
3.24
3.04
2.81
2.54
2.28
2.14
2.21
2.50
2.90
3.20
3.20
2.83
2.19
1.48
0.92
0.65
0.62
0.68
0.66
0.49
0.22
-0.04
-0.19
-0.28
-0.42
-0.78
-1.43
-2.32
-3.33
-4.31
-5.18
-5.92
-6.49
-6.85
-6.88
-6.52
-5.77
-4.76
-3.68
-2.71
-1.96
-1.40
-0.94
-0.49
0.04
0.66
1.34
1.96
2.39
2.52
2.30
1.85
1.34
1.03
1.06
1.41
1.93
2.39
2.62
2.58
2.35
2.06
1.85
1.74
1.72
1.71
1.65
1.47
1.19
0.84
0.46
0.10
-0.25
-0.65
-1.17
-1.86
-2.69
-3.53
-4.22
-4.62
-4.70
-4.49
-4.09
-3.59
-3.00
-2.36
-1.68
-1.05
-0.54
-0.21
-0.05
0.02
0.08
0.17
0.28
0.35
0.34
0.24
0.12
0.10
0.22
0.49
0.80
1.05
1.14
1.08
0.90
0.65
0.36
0.05
-0.27
-0.57
-0.77
-0.82
-0.75
-0.69
-0.80
-1.21
-1.90
-2.76
-3.56
-4.09
-4.24
-4.00
-3.47
-2.79
-2.08
-1.40
-0.78
-0.20
0.35
0.87
1.31
1.64
1.82
1.88
1.92
2.04
2.33
2.77
3.27
3.64
3.75
3.53
3.04
2.45
1.92
1.60
1.53
1.64
1.81
1.92
1.87
1.64
1.27
0.82
0.38
-0.02
-0.36
-0.70
-1.13
-1.74
-2.58
-3.59
-4.61
-5.43
-5.85
-5.79
-5.28
-4.50
-3.64
-2.87
-2.25
-1.72
-1.20
-0.62
0.01
0.60
1.05
1.28
1.32
1.26
1.24
1.35
1.58
1.81
1.90
1.75
1.41
1.00
0.70
0.62
0.78
1.04
1.26
1.30
1.13
0.78
0.36
-0.02
-0.32
-0.55
-0.76
-1.02
-1.39
-1.89
-2.49
-3.13
-3.70
-4.10
-4.23
-4.03
-3.51
-2.76
-1.92
-1.15
-0.57
-0.18
0.07
0.31
0.63
1.03
1.44
1.76
1.90
1.90
1.85
1.86
1.99
2.21
2.46
2.65
2.79
2.92
3.05
3.18
3.18
2.94
2.39
1.59
0.70
-0.08
-0.58
-0.78
-0.76
-0.67
-0.65
-0.81
-1.18
-1.73
-2.38
-3.00
-3.47
-3.68
-3.58
-3.23
-2.71
-2.14
-1.61
-1.16
-0.80
-0.44
-0.03
0.46
1.01
1.57
2.06
2.41
2.59
2.62
2.58
2.57
2.63
2.76
2.92
3.03
3.06
3.02
2.93
2.82
2.68
2.46
2.11
1.64
1.14
0.76
0.62
0.76
1.11
1.46
1.58
1.29
0.53
-0.60
-1.88
-3.02
-3.78
-4.00
-3.70
-3.03
-2.26
-1.61
-1.22
-1.05
-0.96
-0.82
-0.56
-0.21
0.14
0.41
0.61
0.79
0.99
1.24
1.46
1.61
1.65
1.59
1.47
1.34
1.18
1.01
0.83
0.67
0.57
0.54
0.54
0.51
0.42
0.25
0.03
-0.23
-0.53
-0.89
-1.31
-1.78
-2.28
-2.76
-3.20
-3.59
-3.87
-3.95
-3.78
-3.32
-2.66
-1.92
-1.23
-0.68
-0.25
0.12
0.45
0.76
0.98
1.10
1.11
1.09
1.11
1.23
1.45
1.68
1.86
1.90
1.81
1.64
1.48
1.39
1.40
1.49
1.60
1.67
1.68
1.60
1.45
1.20
0.80
0.20
-0.64
-1.70
-2.86
-3.92
-4.66
-4.90
-4.55
-3.72
-2.69
-1.76
-1.16
-0.94
-0.93
-0.90
-0.65
-0.13
0.53
1.17
1.62
1.86
1.94
1.95
1.97
2.02
2.10
2.21
2.32
2.41
2.48
2.49
2.42
2.29
2.13
2.00
1.93
1.92
1.93
1.86
1.65
1.28
0.81
0.32
-0.13
-0.57
-1.05
-1.65
-2.34
-3.02
-3.51
-3.69
-3.54
-3.14
-2.65
-2.16
-1.70
-1.25
-0.78
-0.30
0.15
0.54
0.88
1.21
1.56
1.90
2.19
2.37
2.43
2.43
2.45
2.52
2.62
2.66
2.62
2.48
2.33
2.24
2.26
2.35
2.41
2.35
2.10
1.70
1.19
0.61
-0.02
-0.70
-1.41
-2.08
-2.62
-2.96
-3.09
-3.05
-2.97
-2.91
-2.90
-2.88
-2.81
-2.62
-2.31
-1.89
-1.40
-0.86
-0.29
0.27
0.74
1.05
1.16
1.07
0.83
0.51
0.19
-0.10
-0.30
-0.38
-0.31
-0.11
0.17
0.42
0.53
0.44
0.16
-0.24
-0.69
-1.10
-1.44
-1.72
-1.99
-2.31
-2.72
-3.22
-3.71
-4.08
-4.19
-3.98
-3.48
-2.80
-2.12
-1.54
-1.13
-0.86
-0.64
-0.37
0.00
0.51
1.08
1.64
2.06
2.27
2.26
2.08
1.86
1.69
1.63
1.64
1.68
1.69
1.67
1.65
1.63
1.64
1.63
1.58
1.43
1.19
0.88
0.50
0.06
-0.45
-1.03
-1.67
-2.30
-2.84
-3.19
-3.27
-3.04
-2.54
-1.87
-1.18
-0.63
-0.31
-0.20
-0.20
-0.16
0.04
0.43
0.97
1.53
2.03
2.41
2.68
2.86
2.98
3.02
2.96
2.81
2.59
2.35
2.14
2.00
1.93
1.93
1.97
2.04
2.12
2.14
2.01
1.68
1.11
0.37
-0.40
-1.05
-1.49
-1.70
-1.74
-1.71
-1.69
-1.68
-1.67
-1.63
-1.52
-1.33
-1.07
-0.75
-0.39
0.02
0.46
0.89
1.25
1.46
1.49
1.36
1.15
1.00
0.99
1.10
1.18
1.09
0.70
0.04
-0.73
-1.39
-1.76
-1.81
-1.64
-1.42
-1.34
-1.47
-1.82
-2.28
-2.74
-3.12
-3.39
-3.55
-3.61
-3.56
-3.43
-3.20
-2.90
-2.55
-2.20
-1.83
-1.45
-1.05
-0.66
-0.30
0.01
0.23
0.39
0.47
0.50
0.49
0.46
0.45
0.48
0.57
0.66
0.70
0.60
0.33
-0.09
-0.58
-1.06
-1.49
-1.87
-2.23
-2.63
-3.03
-3.41
-3.67
-3.74
-3.59
-3.25
-2.78
-2.29
-1.80
-1.35
-0.88
-0.36
0.24
0.91
1.61
2.32
2.98
3.55
3.99
4.23
4.24
4.04
3.71
3.36
3.14
3.08
3.18
3.34
3.47
3.50
3.44
3.30
3.07
2.73
2.21
1.50
0.66
-0.18
-0.88
-1.31
-1.46
-1.43
-1.34
-1.29
-1.28
-1.25
-1.12
-0.84
-0.45
-0.01
0.46
0.93
1.41
1.89
2.33
2.63
2.72
2.56
2.24
1.88
1.61
1.52
1.60
1.76
1.90
1.95
1.89
1.74
1.54
1.30
1.02
0.62
0.08
-0.59
-1.31
-1.98
-2.50
-2.86
-3.07
-3.18
-3.22
-3.13
-2.83
-2.25
-1.43
-0.49
0.37
1.04
1.48
1.78
2.07
2.41
2.74
2.94
2.92
2.66
2.29
1.96
1.82
1.90
2.06
2.10
1.89
1.40
0.73
0.02
-0.63
-1.21
-1.80
-2.48
-3.25
-4.03
-4.67
-5.05
-5.16
-5.08
-4.96
-4.86
-4.78
-4.62
-4.33
-3.91
-3.42
-2.97
-2.58
-2.23
-1.81
-1.25
-0.59
0.09
0.66
1.01
1.15
1.17
1.22
1.38
1.67
2.03
2.32
2.44
2.36
2.11
1.83
1.62
1.52
1.49
1.41
1.20
0.83
0.32
-0.27
-0.91
-1.55
-2.14
-2.58
-2.74
-2.56
-2.07
-1.43
-0.80
-0.31
0.07
0.47
1.02
1.79
2.72
3.64
4.39
4.89
5.12
5.11
4.93
4.66
4.38
4.17
4.09
4.11
4.16
4.16
4.03
3.79
3.51
3.27
3.10
2.96
2.78
2.50
2.09
1.55
0.90
0.17
-0.60
-1.40
-2.16
-2.82
-3.31
-3.55
-3.49
-3.14
-2.62
-2.07
-1.64
-1.43
-1.39
-1.37
-1.20
-0.80
-0.25
0.26
0.55
0.55
0.32
0.02
-0.20
-0.28
-0.23
-0.10
0.04
0.17
0.25
0.25
0.11
-0.17
-0.57
-0.97
-1.31
-1.58
-1.82
-2.12
-2.57
-3.16
-3.85
-4.54
-5.10
-5.44
-5.51
-5.30
-4.87
-4.30
-3.67
-3.05
-2.42
-1.74
-0.97
-0.09
0.83
1.68
2.34
2.73
2.88
2.86
2.78
2.75
2.78
2.86
2.91
2.87
2.69
2.39
2.04
1.72
1.49
1.34
1.26
1.18
1.03
0.72
0.21
-0.53
-1.49
-2.62
-3.79
-4.84
-5.62
-5.99
-5.91
-5.43
-4.67
-3.81
-2.96
-2.17
-1.37
-0.48
0.60
1.84
3.14
4.31
5.25
5.90
6.29
6.51
6.62
6.63
6.47
6.15
5.69
5.20
4.78
4.46
4.21
3.92
3.54
3.04
2.44
1.79
1.10
0.32
-0.56
-1.53
-2.50
-3.39
-4.08
-4.53
-4.70
-4.62
-4.31
-3.82
-3.22
-2.62
-2.08
-1.61
-1.18
-0.72
-0.22
0.31
0.77
1.06
1.17
1.14
1.08
1.09
1.19
1.34
1.44
1.41
1.20
0.87
0.48
0.13
-0.12
-0.23
-0.23
-0.16
-0.10
-0.14
-0.38
-0.86
-1.53
-2.32
-3.12
-3.79
-4.26
-4.47
-4.36
-3.97
-3.33
-2.55
-1.75
-1.00
-0.37
0.15
0.59
0.97
1.28
1.53
1.74
1.93
2.14
2.36
2.56
2.65
2.58
2.37
2.06
1.75
1.49
1.28
1.08
0.86
0.58
0.26
-0.06
-0.34
-0.56
-0.72
-0.84
-0.97
-1.19
-1.55
-2.11
-2.84
-3.59
-4.14
-4.27
-3.87
-3.01
-1.93
-0.92
-0.21
0.12
0.17
0.11
0.10
0.24
0.53
0.93
1.41
1.93
2.47
2.98
3.37
3.58
3.55
3.33
2.99
2.62
2.28
2.01
1.80
1.64
1.53
1.42
1.27
1.02
0.65
0.16
-0.37
-0.89
-1.36
-1.76
-2.10
-2.32
-2.35
-2.07
-1.46
-0.63
0.25
0.94
1.35
1.52
1.59
1.73
1.98
2.29
2.50
2.48
2.20
1.72
1.19
0.76
0.52
0.47
0.56
0.69
0.77
0.74
0.60
0.41
0.21
0.02
-0.18
-0.45
-0.83
-1.34
-1.93
-2.53
-3.11
-3.65
-4.20
-4.81
-5.43
-5.95
-6.16
-5.93
-5.25
-4.30
-3.32
-2.53
-1.97
-1.53
-1.04
-0.33
0.56
1.49
2.26
2.73
2.88
2.82
2.65
2.48
2.32
2.14
1.94
1.71
1.47
1.24
1.03
0.82
0.59
0.33
0.08
-0.17
-0.39
-0.58
-0.76
-0.96
-1.24
-1.66
-2.27
-3.01
-3.77
-4.30
-4.39
-3.95
-3.06
-2.00
-1.08
-0.51
-0.29
-0.23
-0.08
0.33
0.99
1.78
2.50
3.03
3.36
3.52
3.55
3.46
3.26
2.95
2.60
2.32
2.18
2.21
2.36
2.56
2.70
2.72
2.58
2.24
1.71
1.03
0.29
-0.40
-0.98
-1.44
-1.83
-2.23
-2.65
-3.00
-3.15
-3.00
-2.54
-1.88
-1.19
-0.59
-0.14
0.19
0.48
0.77
1.05
1.30
1.46
1.51
1.41
1.17
0.84
0.49
0.22
0.11
0.18
0.36
0.53
0.60
0.52
0.30
0.01
-0.32
-0.66
-1.04
-1.46
-1.89
-2.27
-2.58
-2.83
-3.11
-3.52
-4.08
-4.73
-5.30
-5.56
-5.35
-4.62
-3.45
-2.08
-0.76
0.28
0.92
1.18
1.17
1.03
0.90
0.86
0.93
1.10
1.36
1.70
2.10
2.49
2.77
2.81
2.51
1.91
1.14
0.38
-0.18
-0.48
-0.55
-0.49
-0.43
-0.46
-0.63
-0.96
-1.47
-2.18
-3.03
-3.87
-4.46
-4.57
-4.12
-3.17
-2.01
-0.93
-0.17
0.23
0.39
0.53
0.83
1.33
1.94
2.50
2.87
3.00
2.95
2.86
2.83
2.94
3.18
3.46
3.68
3.77
3.69
3.45
3.05
2.50
1.86
1.22
0.71
0.40
0.32
0.34
0.32
0.08
-0.47
-1.27
-2.16
-2.93
-3.39
-3.44
-3.13
-2.59
-1.99
-1.48
-1.14
-0.92
-0.75
-0.54
-0.23
0.18
0.66
1.16
1.65
2.06
2.35
2.45
2.35
2.08
1.74
1.43
1.25
1.21
1.28
1.36
1.38
1.23
0.88
0.32
-0.38
-1.09
-1.70
-2.10
-2.33
-2.49
-2.73
-3.11
-3.57
-3.92
-3.99
-3.68
-3.06
-2.31
-1.64
-1.16
-0.85
-0.61
-0.30
0.14
0.69
1.27
1.77
2.13
2.34
2.41
2.35
2.19
1.93
1.64
1.37
1.22
1.26
1.53
1.92
2.29
2.44
2.25
1.68
0.84
-0.07
-0.88
-1.47
-1.85
-2.09
-2.32
-2.58
-2.91
-3.26
-3.60
-3.87
-4.01
-3.97
-3.71
-3.22
-2.58
-1.88
-1.19
-0.53
0.15
0.93
1.79
2.65
3.39
3.88
4.07
4.05
3.91
3.76
3.63
3.52
3.42
3.35
3.40
3.59
3.91
4.27
4.55
4.64
4.52
4.21
3.78
3.26
2.69
2.05
1.36
0.61
-0.23
-1.14
-2.07
-2.88
-3.38
-3.44
-3.05
-2.34
-1.55
-0.89
-0.47
-0.22
-0.01
0.28
0.70
1.17
1.59
1.89
2.04
2.08
2.03
1.93
1.78
1.60
1.40
1.18
0.97
0.78
0.66
0.63
0.70
0.80
0.86
0.79
0.53
0.13
-0.37
-0.87
-1.34
-1.76
-2.14
-2.48
-2.79
-3.06
-3.27
-3.42
-3.52
-3.58
-3.58
-3.56
-3.49
-3.37
-3.17
-2.88
-2.48
-2.03
-1.59
-1.23
-1.00
-0.87
-0.77
-0.61
-0.36
-0.07
0.17
0.27
0.15
-0.21
-0.74
-1.35
-1.93
-2.40
-2.71
-2.85
-2.82
-2.67
-2.50
-2.41
-2.54
-2.97
-3.66
-4.46
-5.11
-5.39
-5.18
-4.54
-3.67
-2.85
-2.26
-1.95
-1.81
-1.64
-1.26
-0.60
0.28
1.23
2.07
2.69
3.05
3.19
3.19
3.12
3.02
2.91
2.78
2.61
2.43
2.28
2.17
2.12
2.12
2.13
2.08
1.93
1.66
1.27
0.76
0.14
-0.53
-1.23
-1.88
-2.39
-2.68
-2.71
-2.47
-2.04
-1.50
-0.94
-0.42
0.03
0.43
0.80
1.15
1.45
1.69
1.84
1.91
1.91
1.86
1.82
1.82
1.92
2.12
2.41
2.71
2.89
2.89
2.70
2.41
2.19
2.16
2.33
2.63
2.88
2.93
2.70
2.22
1.55
0.80
0.06
-0.56
-0.97
-1.09
-0.86
-0.32
0.44
1.30
2.11
2.78
3.27
3.58
3.72
3.69
3.50
3.14
2.63
2.03
1.37
0.72
0.06
-0.66
-1.53
-2.61
-3.86
-5.13
-6.20
-6.90
-7.15
-7.04
-6.74
-6.42
-6.18
-6.02
-5.89
-5.71
-5.47
-5.18
-4.90
-4.65
-4.43
-4.23
-4.02
-3.77
-3.46
-3.06
-2.57
-1.95
-1.25
-0.52
0.15
0.70
1.12
1.48
1.86
2.34
2.89
3.43
3.84
4.00
3.90
3.61
3.28
3.08
3.06
3.17
3.27
3.16
2.73
2.00
1.10
0.21
-0.54
-1.12
-1.59
-2.02
-2.39
-2.64
-2.64
-2.33
-1.74
-0.99
-0.24
0.43
1.00
1.54
2.13
2.77
3.39
3.84
4.00
3.85
3.45
2.99
2.62
2.47
2.53
2.73
2.94
3.08
3.13
3.12
3.09
3.06
2.99
2.83
2.52
2.08
1.54
0.97
0.38
-0.23
-0.87
-1.54
-2.15
-2.59
-2.75
-2.57
-2.10
-1.42
-0.65
0.07
0.68
1.12
1.38
1.49
1.53
1.55
1.59
1.62
1.58
1.42
1.14
0.78
0.45
0.20
0.06
-0.02
-0.09
-0.20
-0.34
-0.50
-0.64
-0.76
-0.89
-1.06
-1.31
-1.65
-2.06
-2.51
-2.98
-3.46
-3.91
-4.29
-4.52
-4.53
-4.28
-3.80
-3.15
-2.42
-1.68
-0.94
-0.22
0.50
1.18
1.78
2.25
2.54
2.68
2.71
2.70
2.70
2.72
2.70
2.58
2.31
1.86
1.29
0.66
0.10
-0.31
-0.51
-0.56
-0.53
-0.60
-0.87
-1.41
-2.17
-3.02
-3.80
-4.35
-4.55
-4.38
-3.86
-3.08
-2.20
-1.34
-0.64
-0.15
0.17
0.40
0.63
0.92
1.26
1.62
1.95
2.23
2.47
2.67
2.84
2.98
3.06
3.07
2.99
2.77
2.40
1.89
1.31
0.77
0.36
0.11
-0.01
-0.10
-0.22
-0.42
-0.70
-1.04
-1.44
-1.92
-2.45
-2.97
-3.31
-3.31
-2.87
-2.00
-0.86
0.28
1.22
1.86
2.27
2.61
3.02
3.51
3.99
4.31
4.38
4.21
3.94
3.69
3.53
3.42
3.25
2.98
2.61
2.24
1.98
1.86
1.83
1.78
1.65
1.41
1.14
0.88
0.69
0.52
0.31
-0.02
-0.54
-1.25
-2.08
-2.96
-3.73
-4.28
-4.50
-4.34
-3.86
-3.20
-2.53
-1.99
-1.66
-1.49
-1.35
-1.11
-0.72
-0.21
0.31
0.69
0.84
0.75
0.50
0.19
-0.09
-0.29
-0.41
-0.46
-0.47
-0.40
-0.26
-0.07
0.14
0.27
0.27
0.12
-0.16
-0.52
-0.91
-1.36
-1.91
-2.63
-3.54
-4.56
-5.54
-6.21
-6.38
-5.95
-4.99
-3.74
-2.45
-1.36
-0.56
0.02
0.48
0.98
1.55
2.18
2.76
3.20
3.42
3.38
3.11
2.70
2.25
1.88
1.66
1.59
1.64
1.73
1.78
1.78
1.71
1.61
1.50
1.37
1.19
0.95
0.59
0.11
-0.50
-1.21
-2.00
-2.77
-3.44
-3.90
-4.06
-3.85
-3.29
-2.47
-1.57
-0.79
-0.24
0.05
0.19
0.35
0.67
1.19
1.85
2.47
2.92
3.11
3.09
2.97
2.87
2.84
2.89
2.96
3.01
3.02
3.00
2.97
2.95
2.92
2.84
2.68
2.44
2.14
1.82
1.51
1.19
0.77
0.18
-0.63
-1.60
-2.62
-3.51
-4.10
-4.30
-4.13
-3.65
-2.98
-2.23
-1.50
-0.83
-0.23
0.30
0.80
1.27
1.69
2.01
2.17
2.13
1.91
1.59
1.25
0.99
0.84
0.81
0.86
0.92
0.92
0.82
0.58
0.23
-0.19
-0.61
-0.98
-1.27
-1.49
-1.69
-1.93
-2.23
-2.60
-3.04
-3.50
-3.95
-4.33
-4.57
-4.59
-4.35
-3.88
-3.28
-2.68
-2.17
-1.77
-1.40
-0.96
-0.36
0.38
1.13
1.75
2.12
2.21
2.12
1.92
1.73
1.61
1.56
1.55
1.53
1.48
1.37
1.18
0.92
0.61
0.27
-0.04
-0.29
-0.46
-0.58
-0.71
-0.92
-1.29
-1.88
-2.65
-3.53
-4.34
-4.86
-4.93
-4.52
-3.73
-2.76
-1.84
-1.12
-0.64
-0.28
0.09
0.56
1.17
1.83
2.45
2.95
3.28
3.43
3.43
3.32
3.17
3.07
3.05
3.10
3.14
3.06
2.83
2.44
1.99
1.56
1.23
1.01
0.89
0.83
0.78
0.67
0.48
0.13
-0.37
-0.99
-1.62
-2.13
-2.42
-2.44
-2.19
-1.74
-1.16
-0.56
-0.04
0.29
0.42
0.36
0.23
0.17
0.26
0.49
0.79
1.06
1.24
1.34
1.39
1.39
1.33
1.19
0.96
0.69
0.45
0.29
0.24
0.25
0.26
0.17
-0.06
-0.41
-0.86
-1.35
-1.87
-2.39
-2.94
-3.50
-4.08
-4.61
-4.95
-4.97
-4.63
-3.96
-3.09
-2.22
-1.46
-0.86
-0.37
0.06
0.45
0.76
0.94
0.99
0.97
0.99
1.14
1.41
1.69
1.82
1.69
1.31
0.83
0.42
0.20
0.20
0.33
0.44
0.43
0.26
-0.02
-0.38
-0.80
-1.33
-2.01
-2.78
-3.49
-3.93
-3.92
-3.45
-2.65
-1.80
-1.14
-0.83
-0.82
-0.90
-0.83
-0.46
0.23
1.11
1.98
2.65
2.99
3.00
2.74
2.34
1.94
1.67
1.60
1.73
2.01
2.33
2.59
2.72
2.71
2.60
2.43
2.24
1.98
1.61
1.05
0.28
-0.64
-1.63
-2.52
-3.17
-3.45
-3.32
-2.83
-2.11
-1.35
-0.69
-0.22
0.07
0.26
0.47
0.79
1.26
1.83
2.36
2.72
2.78
2.54
2.11
1.69
1.42
1.36
1.42
1.41
1.17
0.68
0.05
-0.49
-0.77
-0.75
-0.57
-0.40
-0.41
-0.61
-0.96
-1.37
-1.78
-2.20
-2.62
-2.99
-3.21
-3.21
-2.95
-2.54
-2.10
-1.75
-1.47
-1.18
-0.73
-0.10
0.65
1.37
1.88
2.10
2.06
1.90
1.76
1.73
1.82
1.95
2.02
1.96
1.76
1.44
1.10
0.79
0.54
0.32
0.07
-0.26
-0.73
-1.32
-1.97
-2.63
-3.23
-3.72
-4.01
-4.04
-3.74
-3.15
-2.36
-1.56
-0.90
-0.46
-0.19
0.05
0.37
0.82
1.35
1.87
2.32
2.70
3.06
3.45
3.82
4.10
4.19
4.04
3.70
3.25
2.79
2.36
1.96
1.58
1.20
0.86
0.60
0.41
0.28
0.13
-0.12
-0.50
-0.98
-1.49
-1.91
-2.12
-2.04
-1.70
-1.16
-0.54
0.04
0.51
0.82
1.00
1.08
1.07
1.00
0.85
0.64
0.41
0.23
0.15
0.20
0.35
0.55
0.75
0.88
0.92
0.84
0.62
0.28
-0.11
-0.46
-0.67
-0.68
-0.54
-0.41
-0.44
-0.75
-1.34
-2.09
-2.84
-3.40
-3.70
-3.72
-3.48
-3.05
-2.49
-1.85
-1.18
-0.52
0.10
0.64
1.06
1.32
1.42
1.37
1.21
1.01
0.87
0.86
0.99
1.17
1.26
1.11
0.68
0.05
-0.58
-0.98
-1.03
-0.79
-0.44
-0.22
-0.31
-0.70
-1.27
-1.86
-2.34
-2.71
-3.02
-3.30
-3.55
-3.68
-3.62
-3.34
-2.94
-2.51
-2.15
-1.82
-1.43
-0.89
-0.17
0.61
1.27
1.68
1.82
1.81
1.85
2.06
2.44
2.81
2.99
2.85
2.43
1.86
1.35
1.03
0.91
0.92
0.91
0.77
0.48
0.06
-0.41
-0.89
-1.33
-1.67
-1.89
-1.97
-1.90
-1.74
-1.52
-1.33
-1.16
-1.02
-0.80
-0.44
0.11
0.85
1.68
2.51
3.21
3.72
4.04
4.16
4.09
3.80
3.31
2.70
2.11
1.69
1.54
1.65
1.88
2.04
2.02
1.78
1.39
0.98
0.60
0.26
-0.06
-0.36
-0.64
-0.87
-1.09
-1.37
-1.77
-2.27
-2.75
-3.02
-2.95
-2.49
-1.77
-0.97
-0.24
0.33
0.76
1.07
1.27
1.39
1.42
1.42
1.43
1.46
1.49
1.46
1.33
1.12
0.88
0.70
0.62
0.61
0.64
0.67
0.70
0.77
0.84
0.86
0.72
0.32
-0.35
-1.21
-2.12
-2.94
-3.58
-4.00
-4.24
-4.33
-4.28
-4.10
-3.80
-3.37
-2.84
-2.22
-1.51
-0.75
0.02
0.77
1.41
1.87
2.10
2.08
1.86
1.55
1.27
1.12
1.13
1.25
1.38
1.45
1.44
1.38
1.34
1.37
1.45
1.53
1.52
1.36
1.00
0.44
-0.33
-1.25
-2.25
-3.23
-4.09
-4.73
-5.11
-5.19
-5.00
-4.61
-4.05
-3.39
-2.63
-1.78
-0.84
0.13
1.03
1.73
2.12
2.24
2.17
2.06
2.04
2.14
2.32
2.50
2.60
2.60
2.51
2.37
2.22
2.08
2.00
2.01
2.08
2.15
2.07
1.72
1.05
0.11
-0.93
-1.90
-2.66
-3.14
-3.36
-3.34
-3.12
-2.73
-2.22
-1.69
-1.24
-0.96
-0.84
-0.77
-0.58
-0.12
0.62
1.53
2.41
3.04
3.30
3.21
2.94
2.66
2.51
2.50
2.56
2.59
2.55
2.45
2.39
2.44
2.59
2.76
2.82
2.69
2.32
1.76
1.06
0.30
-0.48
-1.28
-2.07
-2.82
-3.42
-3.78
-3.79
-3.40
-2.67
-1.78
-0.95
-0.38
-0.11
-0.05
0.01
0.24
0.72
1.36
1.98
2.42
2.57
2.47
2.23
1.97
1.77
1.66
1.62
1.65
1.69
1.71
1.64
1.42
1.02
0.50
-0.09
-0.63
-1.07
-1.38
-1.64
-1.94
-2.38
-2.98
-3.67
-4.33
-4.80
-4.97
-4.83
-4.43
-3.90
-3.32
-2.76
-2.19
-1.60
-0.95
-0.26
0.40
0.98
1.43
1.76
2.00
2.19
2.34
2.45
2.48
2.37
2.13
1.82
1.52
1.29
1.13
0.96
0.72
0.37
-0.01
-0.34
-0.53
-0.63
-0.76
-1.04
-1.54
-2.15
-2.70
-3.01
-2.98
-2.64
-2.10
-1.47
-0.80
-0.11
0.62
1.37
2.10
2.77
3.37
3.92
4.43
4.93
5.38
5.71
5.87
5.87
5.75
5.59
5.44
5.28
5.03
4.56
3.85
2.94
1.98
1.14
0.55
0.17
-0.11
-0.45
-0.99
-1.72
-2.56
-3.32
-3.87
-4.16
-4.25
-4.24
-4.24
-4.29
-4.33
-4.29
-4.09
-3.72
-3.25
-2.81
-2.46
-2.23
-2.03
-1.76
-1.37
-0.87
-0.39
-0.07
0.00
-0.13
-0.32
-0.42
-0.33
-0.11
0.07
0.07
-0.18
-0.59
-1.01
-1.29
-1.35
-1.26
-1.12
-1.04
-1.06
-1.14
-1.25
-1.36
-1.49
-1.68
-1.97
-2.32
-2.65
-2.88
-2.93
-2.82
-2.59
-2.32
-2.06
-1.79
-1.45
-0.96
-0.34
0.34
0.97
1.44
1.70
1.77
1.74
1.68
1.61
1.53
1.42
1.25
1.04
0.82
0.64
0.52
0.49
0.51
0.54
0.48
0.26
-0.19
-0.85
-1.69
-2.61
-3.49
-4.24
-4.75
-4.93
-4.77
-4.34
-3.73
-3.10
-2.53
-2.07
-1.68
-1.30
-0.87
-0.38
0.15
0.68
1.15
1.52
1.80
2.02
2.25
2.52
2.85
3.17
3.40
3.46
3.30
2.98
2.59
2.21
1.92
1.73
1.60
1.50
1.39
1.27
1.14
0.98
0.73
0.35
-0.17
-0.79
-1.42
-1.94
-2.24
-2.35
-2.35
-2.36
-2.48
-2.71
-2.95
-3.09
-3.01
-2.71
-2.28
-1.87
-1.60
-1.48
-1.45
-1.34
-1.05
-0.52
0.19
0.94
1.60
2.05
2.26
2.27
2.16
2.00
1.83
1.65
1.47
1.29
1.13
1.00
0.86
0.65
0.30
-0.25
-0.97
-1.78
-2.53
-3.11
-3.38
-3.35
-3.07
-2.65
-2.17
-1.73
-1.36
-1.02
-0.67
-0.22
0.36
1.07
1.83
2.58
3.25
3.83
4.33
4.75
5.05
5.18
5.08
4.79
4.42
4.14
4.10
4.32
4.71
5.06
5.18
4.98
4.51
3.93
3.39
2.94
2.54
2.07
1.43
0.59
-0.35
-1.24
-1.92
-2.28
-2.34
-2.19
-1.95
-1.74
-1.60
-1.54
-1.51
-1.46
-1.33
-1.11
-0.82
-0.50
-0.24
-0.09
-0.08
-0.19
-0.33
-0.42
-0.36
-0.17
0.07
0.19
0.05
-0.38
-0.98
-1.54
-1.86
-1.86
-1.63
-1.35
-1.19
-1.21
-1.38
-1.65
-2.00
-2.49
-3.18
-4.03
-4.84
-5.34
-5.34
-4.82
-3.98
-3.11
-2.45
-2.04
-1.77
-1.45
-0.97
-0.33
0.34
0.89
1.23
1.39
1.44
1.49
1.59
1.71
1.83
1.88
1.85
1.77
1.68
1.61
1.55
1.47
1.38
1.26
1.14
1.01
0.83
0.54
0.06
-0.66
-1.57
-2.53
-3.33
-3.78
-3.77
-3.32
-2.62
-1.92
-1.44
-1.22
-1.12
-0.91
-0.39
0.46
1.44
2.28
2.77
2.87
2.74
2.60
2.61
2.80
3.08
3.32
3.45
3.44
3.32
3.15
2.98
2.84
2.79
2.86
3.03
3.23
3.30
3.12
2.59
1.72
0.62
-0.56
-1.67
-2.59
-3.26
-3.67
-3.83
-3.75
-3.46
-2.97
-2.33
-1.63
-0.97
-0.45
-0.09
0.16
0.39
0.67
1.03
1.43
1.77
2.03
2.19
2.33
2.51
2.76
3.02
3.23
3.32
3.27
3.09
2.85
2.57
2.26
1.96
1.66
1.37
1.09
0.78
0.35
-0.26
-1.06
-1.96
-2.77
-3.34
-3.56
-3.45
-3.11
-2.64
-2.14
-1.65
-1.18
-0.78
-0.49
-0.36
-0.37
-0.43
-0.46
-0.39
-0.23
-0.05
0.12
0.21
0.25
0.22
0.11
-0.09
-0.38
-0.70
-0.99
-1.17
-1.23
-1.18
-1.07
-0.95
-0.88
-0.92
-1.13
-1.53
-2.10
-2.75
-3.34
-3.74
-3.90
-3.85
-3.65
-3.41
-3.17
-2.96
-2.74
-2.47
-2.11
-1.63
-1.05
-0.41
0.21
0.77
1.25
1.67
2.10
2.52
2.89
3.11
3.09
2.82
2.35
1.85
1.43
1.19
1.14
1.20
1.31
1.39
1.38
1.23
0.91
0.39
-0.32
-1.16
-2.01
-2.72
-3.20
-3.38
-3.29
-3.02
-2.65
-2.22
-1.73
-1.16
-0.51
0.17
0.76
1.17
1.37
1.44
1.55
1.84
2.38
3.09
3.83
4.43
4.78
4.86
4.72
4.40
3.95
3.44
2.92
2.49
2.20
2.05
2.00
1.93
1.72
1.34
0.80
0.15
-0.50
-1.08
-1.55
-1.89
-2.10
-2.22
-2.27
-2.24
-2.10
-1.84
-1.46
-1.01
-0.57
-0.18
0.16
0.50
0.87
1.23
1.54
1.70
1.71
1.61
1.48
1.36
1.26
1.12
0.94
0.74
0.57
0.45
0.36
0.22
-0.05
-0.44
-0.86
-1.19
-1.32
-1.29
-1.21
-1.27
-1.63
-2.33
-3.29
-4.31
-5.16
-5.62
-5.58
-5.05
-4.17
-3.16
-2.18
-1.36
-0.70
-0.15
0.36
0.82
1.18
1.37
1.35
1.17
0.99
0.93
1.07
1.36
1.68
1.85
1.76
1.42
0.93
0.44
0.09
-0.08
-0.10
-0.08
-0.11
-0.27
-0.58
-1.02
-1.58
-2.23
-2.96
-3.69
-4.34
-4.80
-4.96
-4.80
-4.36
-3.72
-3.00
-2.23
-1.40
-0.49
0.50
1.49
2.37
3.01
3.37
3.52
3.57
3.66
3.88
4.21
4.53
4.71
4.64
4.29
3.72
3.09
2.54
2.18
2.03
2.00
1.98
1.86
1.59
1.18
0.65
0.01
-0.72
-1.50
-2.25
-2.82
-3.11
-3.09
-2.82
-2.42
-2.00
-1.59
-1.13
-0.56
0.14
0.91
1.59
2.05
2.23
2.19
2.07
2.02
2.12
2.32
2.51
2.58
2.48
2.25
1.98
1.73
1.49
1.21
0.84
0.39
-0.06
-0.42
-0.67
-0.86
-1.13
-1.59
-2.27
-3.09
-3.90
-4.53
-4.90
-4.98
-4.82
-4.47
-3.99
-3.41
-2.80
-2.22
-1.76
-1.44
-1.22
-1.00
-0.68
-0.21
0.36
0.95
1.44
1.75
1.89
1.92
1.89
1.80
1.60
1.29
0.90
0.53
0.31
0.28
0.41
0.54
0.52
0.23
-0.34
-1.09
-1.93
-2.74
-3.44
-3.94
-4.16
-4.03
-3.56
-2.83
-2.01
-1.23
-0.53
0.14
0.90
1.82
2.89
3.97
4.92
5.65
6.16
6.52
6.82
7.08
7.27
7.34
7.25
7.00
6.64
6.17
5.60
4.91
4.09
3.19
2.28
1.46
0.81
0.34
0.02
-0.25
-0.58
-1.05
-1.64
-2.29
-2.85
-3.23
-3.38
-3.30
-3.07
-2.75
-2.40
-2.04
-1.72
-1.42
-1.13
-0.79
-0.35
0.22
0.89
1.53
2.01
2.23
2.15
1.84
1.46
1.13
0.93
0.89
0.97
1.08
1.14
1.10
0.95
0.70
0.36
-0.07
-0.57
-1.14
-1.76
-2.38
-2.96
-3.43
-3.80
-4.05
-4.19
-4.19
-4.03
-3.70
-3.23
-2.69
-2.20
-1.84
-1.60
-1.42
-1.20
-0.89
-0.49
-0.10
0.19
0.36
0.43
0.49
0.59
0.73
0.82
0.78
0.59
0.30
0.04
-0.06
0.03
0.25
0.46
0.48
0.18
-0.46
-1.33
-2.23
-2.95
-3.29
-3.18
-2.67
-1.90
-1.07
-0.36
0.12
0.34
0.36
0.32
0.35
0.56
0.99
1.56
2.14
2.59
2.82
2.85
2.74
2.59
2.45
2.37
2.33
2.34
2.43
2.61
2.86
3.11
3.28
3.25
2.96
2.37
1.50
0.47
-0.62
-1.65
-2.54
-3.27
-3.84
-4.29
-4.62
-4.89
-5.14
-5.40
-5.69
-5.99
-6.18
-6.16
-5.82
-5.17
-4.32
-3.45
-2.70
-2.19
-1.90
-1.78
-1.73
-1.68
-1.60
-1.49
-1.38
-1.29
-1.22
-1.16
-1.09
-1.01
-0.93
-0.87
-0.86
-0.90
-1.00
-1.11
-1.26
-1.45
-1.73
-2.10
-2.44
-2.61
-2.42
-1.78
-0.74
0.51
1.76
2.84
3.71
4.42
5.05
5.62
6.12
6.44
6.55
6.42
6.15
5.84
5.60
5.47
5.45
5.44
5.33
5.01
4.49
3.84
3.20
2.68
2.32
2.04
1.70
1.23
0.63
0.02
-0.48
-0.86
-1.22
-1.76
-2.64
-3.86
-5.23
-6.39
-6.98
-6.79
-5.86
-4.47
-3.01
-1.86
-1.17
-0.89
-0.76
-0.51
0.02
0.80
1.66
2.39
2.83
2.99
2.96
2.87
2.79
2.73
2.68
2.59
2.43
2.22
1.93
1.60
1.21
0.77
0.27
-0.33
-1.03
-1.79
-2.56
-3.26
-3.88
-4.44
-5.00
-5.57
-6.06
-6.28
-6.08
-5.40
-4.35
-3.22
-2.25
-1.60
-1.23
-0.97
-0.61
-0.04
0.74
1.61
2.40
3.01
3.38
3.55
3.57
3.54
3.50
3.51
3.54
3.56
3.47
3.18
2.70
2.10
1.55
1.19
1.07
1.10
1.07
0.81
0.24
-0.58
-1.50
-2.38
-3.14
-3.73
-4.13
-4.30
-4.14
-3.58
-2.66
-1.48
-0.24
0.85
1.69
2.26
2.62
2.93
3.23
3.57
3.85
3.96
3.86
3.59
3.31
3.18
3.29
3.56
3.84
3.91
3.68
3.16
2.47
1.78
1.18
0.71
0.35
0.06
-0.22
-0.57
-1.04
-1.67
-2.48
-3.41
-4.38
-5.28
-5.98
-6.38
-6.41
-6.05
-5.33
-4.37
-3.33
-2.42
-1.75
-1.31
-0.98
-0.58
-0.01
0.71
1.41
1.87
1.95
1.67
1.21
0.77
0.55
0.59
0.80
1.00
1.05
0.88
0.52
0.07
-0.39
-0.76
-1.02
-1.20
-1.34
-1.50
-1.73
-2.05
-2.47
-3.00
-3.61
-4.26
-4.84
-5.24
-5.34
-5.07
-4.46
-3.63
-2.76
-1.95
-1.26
-0.63
0.01
0.72
1.48
2.24
2.93
3.55
4.10
4.60
5.01
5.30
5.40
5.31
5.06
4.73
4.38
4.04
3.71
3.39
3.10
2.84
2.61
2.36
2.02
1.50
0.76
-0.17
-1.24
-2.34
-3.35
-4.17
-4.73
-4.98
-4.93
-4.62
-4.12
-3.51
-2.87
-2.25
-1.66
-1.06
-0.41
0.29
1.01
1.64
2.11
2.34
2.34
2.20
2.01
1.86
1.79
1.79
1.84
1.87
1.87
1.86
1.87
1.94
2.07
2.22
2.29
2.20
1.89
1.39
0.78
0.17
-0.37
-0.86
-1.35
-1.88
-2.39
-2.74
-2.77
-2.43
-1.80
-1.09
-0.51
-0.17
-0.02
0.10
0.34
0.74
1.16
1.45
1.46
1.18
0.77
0.41
0.24
0.28
0.42
0.50
0.39
0.05
-0.42
-0.89
-1.29
-1.60
-1.91
-2.33
-2.92
-3.64
-4.39
-5.06
-5.60
-6.05
-6.50
-7.02
-7.61
-8.21
-8.70
-9.04
-9.19
-9.24
-9.25
-9.29
-9.37
-9.47
-9.60
-9.79
-10.13
-10.71
-11.60
-12.75
-14.06
-15.36
-16.50
-17.38
-18.04
-18.71
-19.73
-21.47
-24.17
-27.83
-32.12
-36.46
-40.09
-42.28
-42.51
-40.51
-36.29
-30.09
-22.29
-13.45
-4.21
4.71
12.65
19.10
23.84
26.92
28.62
29.34
29.49
29.48
29.59
30.04
30.83
31.81
32.58
32.72
31.96
30.33
28.30
26.56
25.72
25.96
26.80
27.35
26.67
24.31
20.65
16.80
14.18
13.79
15.71
18.92
21.70
22.35
19.84
14.41
7.46
1.13
-2.44
-1.83
2.99
10.30
16.76
17.87
9.24
-11.83
-44.75
-84.82
-123.86
-152.38
-162.70
-151.63
-121.69
-80.01
-35.66
3.57
33.24
52.65
63.51
68.17
68.35
64.90
58.47
50.23
42.00
35.78
32.71
32.55
33.74
34.22
32.42
28.06
22.14
16.36
12.32
10.82
11.58
13.53
15.37
16.13
15.53
13.98
12.27
11.16
11.03
11.69
12.59
13.03
12.53
11.04
8.98
6.97
5.59
5.07
5.24
5.58
5.52
4.69
3.06
0.94
-1.23
-3.03
-4.23
-4.83
-5.01
-5.00
-5.02
-5.18
-5.48
-5.87
-6.27
-6.59
-6.80
-6.93
-7.03
-7.15
-7.35
-7.62
-7.95
-8.28
-8.54
-8.65
-8.52
-8.10
-7.39
-6.43
-5.34
-4.25
-3.27
-2.45
-1.74
-1.08
-0.38
0.34
1.00
1.47
1.62
1.43
0.99
0.48
0.10
-0.04
0.10
0.43
0.86
1.28
1.67
2.02
2.38
2.74
3.11
3.48
3.84
4.21
4.56
4.86
5.05
5.08
4.93
4.61
4.19
3.73
3.28
2.89
2.60
2.42
2.36
2.37
2.32
2.09
1.55
0.70
-0.32
-1.34
-2.17
-2.74
-3.10
-3.34
-3.52
-3.64
-3.64
-3.45
-3.06
-2.58
-2.15
-1.90
-1.87
-2.02
-2.23
-2.38
-2.37
-2.21
-1.96
-1.70
-1.47
-1.29
-1.12
-0.92
-0.66
-0.34
-0.02
0.23
0.39
0.46
0.46
0.48
0.54
0.67
0.84
0.98
1.03
0.91
0.60
0.11
-0.47
-1.07
-1.61
-2.02
-2.28
-2.35
-2.27
-2.08
-1.88
-1.78
-1.83
-2.00
-2.18
-2.24
-2.11
-1.83
-1.56
-1.43
-1.54
-1.87
-2.32
-2.76
-3.14
-3.39
-3.53
-3.51
-3.32
-2.92
-2.34
-1.63
-0.87
-0.12
0.60
1.25
1.83
2.28
2.54
2.58
2.38
2.02
1.62
1.32
1.20
1.26
1.41
1.55
1.60
1.57
1.52
1.55
1.69
1.92
2.14
2.30
2.42
2.55
2.73
2.91
2.97
2.74
2.16
1.33
0.49
-0.08
-0.22
-0.01
0.37
0.64
0.64
0.38
-0.00
-0.31
-0.45
-0.40
-0.28
-0.18
-0.14
-0.13
-0.05
0.18
0.55
0.95
1.23
1.26
0.98
0.46
-0.15
-0.69
-1.04
-1.16
-1.12
-1.02
-0.95
-0.99
-1.13
-1.35
-1.62
-1.93
-2.20
-2.35
-2.26
-1.83
-1.07
-0.08
0.93
1.77
2.34
2.67
2.90
3.18
3.56
3.92
4.06
3.84
3.25
2.48
1.77
1.27
0.99
0.82
0.59
0.25
-0.12
-0.37
-0.40
-0.24
-0.06
-0.06
-0.36
-0.91
-1.55
-2.14
-2.64
-3.06
-3.50
-3.96
-4.38
-4.64
-4.65
-4.39
-3.95
-3.45
-2.95
-2.49
-2.04
-1.60
-1.20
-0.87
-0.67
-0.61
-0.64
-0.68
-0.64
-0.47
-0.18
0.20
0.58
0.90
1.13
1.28
1.38
1.46
1.49
1.44
1.24
0.85
0.28
-0.43
-1.20
-1.97
-2.64
-3.13
-3.34
-3.24
-2.85
-2.28
-1.70
-1.25
-0.97
-0.80
-0.62
-0.29
0.23
0.89
1.58
2.21
2.77
3.27
3.75
4.18
4.46
4.50
4.29
3.89
3.49
3.22
3.14
3.15
3.11
2.88
2.39
1.68
0.79
-0.20
-1.21
-2.17
-2.94
-3.38
-3.45
-3.23
-2.90
-2.69
-2.73
-2.99
-3.31
-3.50
-3.43
-3.10
-2.60
-2.03
-1.47
-0.93
-0.42
0.06
0.44
0.70
0.83
0.88
0.91
0.97
1.06
1.15
1.17
1.08
0.88
0.66
0.51
0.53
0.76
1.13
1.47
1.57
1.28
0.58
-0.41
-1.42
-2.22
-2.65
-2.72
-2.55
-2.26
-1.92
-1.55
-1.13
-0.66
-0.24
0.03
0.08
-0.07
-0.27
-0.36
-0.25
0.08
0.50
0.90
1.19
1.39
1.59
1.88
2.28
2.74
3.11
3.29
3.22
2.96
2.65
2.39
2.26
2.21
2.18
2.08
1.85
1.44
0.83
0.03
-0.92
-1.89
-2.73
-3.31
-3.58
-3.57
-3.43
-3.25
-3.07
-2.84
-2.50
-2.06
-1.58
-1.16
-0.84
-0.61
-0.34
0.06
0.63
1.30
1.93
2.40
2.65
2.67
2.53
2.32
2.09
1.89
1.70
1.45
1.07
0.51
-0.18
-0.88
-1.46
-1.83
-2.00
-2.09
-2.21
-2.42
-2.71
-2.96
-3.11
-3.11
-3.03
-2.89
-2.69
-2.37
-1.83
-1.10
-0.26
0.50
0.99
1.12
0.91
0.50
0.11
-0.09
0.03
0.45
1.05
1.66
2.09
2.25
2.14
1.85
1.49
1.11
0.74
0.39
0.08
-0.14
-0.21
-0.16
-0.10
-0.17
-0.50
-1.09
-1.85
-2.58
-3.12
-3.37
-3.34
-3.14
-2.91
-2.74
-2.64
-2.58
-2.44
-2.14
-1.67
-1.11
-0.57
-0.18
0.00
0.03
0.03
0.12
0.39
0.80
1.25
1.62
1.85
1.97
2.03
2.12
2.25
2.36
2.36
2.23
2.00
1.74
1.54
1.39
1.23
0.94
0.44
-0.28
-1.12
-1.91
-2.51
-2.80
-2.75
-2.47
-2.04
-1.57
-1.10
-0.63
-0.12
0.42
0.95
1.41
1.75
1.98
2.15
2.35
2.63
3.01
3.42
3.79
4.04
4.08
3.89
3.48
2.93
2.34
1.84
1.45
1.17
0.92
0.62
0.25
-0.12
-0.41
-0.58
-0.67
-0.80
-1.08
-1.54
-2.12
-2.67
-3.06
-3.21
-3.17
-3.02
-2.84
-2.64
-2.35
-1.96
-1.46
-0.97
-0.61
-0.46
-0.51
-0.67
-0.83
-0.89
-0.83
-0.68
-0.48
-0.28
-0.09
0.09
0.25
0.34
0.32
0.16
-0.13
-0.50
-0.86
-1.13
-1.28
-1.34
-1.39
-1.48
-1.68
-1.96
-2.25
-2.48
-2.57
-2.52
-2.36
-2.18
-2.04
-2.00
-2.02
-2.02
-1.89
-1.57
-1.06
-0.43
0.21
0.76
1.15
1.35
1.42
1.42
1.41
1.45
1.55
1.71
1.86
1.97
1.99
1.90
1.73
1.51
1.29
1.10
0.94
0.79
0.59
0.27
-0.20
-0.75
-1.28
-1.64
-1.78
-1.73
-1.60
-1.54
-1.61
-1.79
-1.98
-2.05
-1.94
-1.63
-1.17
-0.64
-0.09
0.45
0.97
1.44
1.87
2.22
2.54
2.85
3.18
3.52
3.84
4.07
4.17
4.13
3.97
3.72
3.39
2.97
2.42
1.80
1.15
0.58
0.14
-0.19
-0.47
-0.80
-1.23
-1.70
-2.11
-2.38
-2.45
-2.35
-2.13
-1.86
-1.58
-1.30
-1.01
-0.71
-0.42
-0.17
-0.01
0.05
0.02
-0.04
-0.09
-0.08
-0.04
-0.04
-0.12
-0.30
-0.55
-0.78
-0.92
-0.97
-0.98
-1.02
-1.18
-1.48
-1.90
-2.40
-2.95
-3.48
-3.93
-4.24
-4.34
-4.19
-3.82
-3.30
-2.71
-2.13
-1.59
-1.12
-0.77
-0.55
-0.48
-0.47
-0.44
-0.28
0.06
0.52
0.99
1.36
1.58
1.67
1.67
1.58
1.41
1.18
0.95
0.83
0.90
1.17
1.54
1.80
1.77
1.38
0.66
-0.22
-1.09
-1.79
-2.24
-2.45
-2.49
-2.44
-2.39
-2.39
-2.44
-2.48
-2.47
-2.35
-2.10
-1.69
-1.14
-0.48
0.25
0.95
1.52
1.86
1.93
1.77
1.52
1.37
1.46
1.86
2.45
3.07
3.50
3.62
3.44
3.07
2.64
2.26
1.93
1.57
1.09
0.44
-0.35
-1.17
-1.88
-2.39
-2.66
-2.74
-2.70
-2.59
-2.43
-2.21
-1.92
-1.56
-1.19
-0.86
-0.57
-0.29
0.03
0.41
0.82
1.21
1.53
1.77
2.01
2.36
2.87
3.50
4.12
4.57
4.74
4.62
4.33
3.99
3.68
3.40
3.09
2.69
2.17
1.59
0.98
0.36
-0.32
-1.07
-1.88
-2.64
-3.20
-3.41
-3.27
-2.88
-2.43
-2.09
-1.91
-1.82
-1.67
-1.39
-0.97
-0.51
-0.16
0.00
-0.01
-0.09
-0.13
-0.05
0.13
0.35
0.53
0.62
0.60
0.51
0.35
0.17
-0.03
-0.22
-0.41
-0.61
-0.83
-1.07
-1.31
-1.55
-1.79
-2.05
-2.32
-2.61
-2.85
-2.96
-2.91
-2.73
-2.50
-2.31
-2.21
-2.14
-1.98
-1.65
-1.11
-0.45
0.20
0.73
1.09
1.33
1.55
1.85
2.27
2.78
3.26
3.59
3.70
3.59
3.33
3.00
2.66
2.30
1.87
1.33
0.72
0.14
-0.26
-0.37
-0.21
0.09
0.35
0.36
0.04
-0.59
-1.40
-2.19
-2.79
-3.10
-3.10
-2.88
-2.54
-2.17
-1.80
-1.43
-1.04
-0.67
-0.37
-0.18
-0.05
0.13
0.46
0.98
1.60
2.16
2.52
2.67
2.72
2.80
3.00
3.24
3.39
3.33
3.08
2.72
2.38
2.09
1.77
1.31
0.64
-0.18
-0.98
-1.58
-1.84
-1.76
-1.46
-1.10
-0.84
-0.77
-0.90
-1.15
-1.37
-1.43
-1.30
-0.98
-0.60
-0.28
-0.09
-0.04
-0.05
-0.05
0.04
0.22
0.46
0.69
0.85
0.91
0.82
0.61
0.32
-0.00
-0.32
-0.63
-0.93
-1.25
-1.59
-1.90
-2.12
-2.26
-2.35
-2.46
-2.64
-2.87
-3.08
-3.17
-3.10
-2.91
-2.69
-2.47
-2.24
-1.94
-1.49
-0.93
-0.37
0.05
0.27
0.32
0.33
0.44
0.71
1.07
1.44
1.70
1.81
1.81
1.75
1.68
1.64
1.61
1.57
1.47
1.25
0.90
0.47
0.01
-0.40
-0.73
-1.01
-1.34
-1.76
-2.26
-2.76
-3.12
-3.25
-3.14
-2.87
-2.55
-2.26
-1.98
-1.65
-1.20
-0.62
-0.01
0.50
0.81
0.91
0.88
0.90
1.09
1.51
2.09
2.67
3.07
3.18
2.99
2.61
2.20
1.90
1.77
1.76
1.76
1.62
1.30
0.80
0.21
-0.37
-0.86
-1.24
-1.52
-1.72
-1.86
-1.95
-2.02
-2.09
-2.16
-2.19
-2.12
-1.89
-1.47
-0.88
-0.20
0.48
1.10
1.59
1.95
2.19
2.36
2.52
2.72
2.99
3.36
3.75
4.10
4.33
4.42
4.36
4.21
3.98
3.67
3.27
2.79
2.27
1.79
1.41
1.13
0.87
0.51
-0.03
-0.75
-1.55
-2.27
-2.77
-2.96
-2.82
-2.41
-1.85
-1.30
-0.91
-0.76
-0.84
-1.04
-1.21
-1.21
-1.01
-0.67
-0.28
0.08
0.36
0.57
0.68
0.67
0.55
0.35
0.14
-0.02
-0.11
-0.21
-0.39
-0.69
-1.10
-1.54
-1.94
-2.27
-2.53
-2.77
-2.96
-3.07
-3.10
-3.08
-3.11
-3.25
-3.49
-3.70
-3.71
-3.44
-2.90
-2.24
-1.57
-1.00
-0.49
-0.02
0.45
0.84
1.06
1.05
0.85
0.60
0.44
0.47
0.64
0.84
0.96
0.95
0.85
0.72
0.61
0.51
0.38
0.20
0.03
-0.05
0.03
0.24
0.44
0.46
0.21
-0.31
-0.96
-1.53
-1.89
-1.96
-1.79
-1.50
-1.20
-0.99
-0.94
-1.02
-1.17
-1.28
-1.23
-0.94
-0.44
0.16
0.73
1.17
1.46
1.66
1.86
2.13
2.50
2.95
3.42
3.88
4.29
4.59
4.76
4.74
4.54
4.18
3.75
3.35
3.04
2.81
2.57
2.21
1.66
0.93
0.11
-0.65
-1.25
-1.66
-1.92
-2.08
-2.21
-2.30
-2.35
-2.30
-2.13
-1.85
-1.46
-1.00
-0.47
0.10
0.70
1.26
1.72
1.98
2.00
1.79
1.44
1.10
0.92
0.99
1.28
1.70
2.06
2.22
2.10
1.73
1.21
0.64
0.08
-0.45
-1.01
-1.64
-2.36
-3.06
-3.61
-3.89
-3.86
-3.61
-3.27
-2.97
-2.75
-2.53
-2.19
-1.66
-1.00
-0.35
0.11
0.28
0.19
-0.02
-0.20
-0.24
-0.17
-0.07
-0.01
-0.01
-0.04
0.01
0.20
0.52
0.85
1.04
0.98
0.63
0.09
-0.50
-1.01
-1.41
-1.72
-2.02
-2.36
-2.68
-2.93
-3.02
-2.96
-2.83
-2.73
-2.72
-2.75
-2.70
-2.46
-1.98
-1.30
-0.55
0.13
0.66
1.00
1.20
1.35
1.51
1.72
1.96
2.16
2.26
2.22
2.06
1.86
1.75
1.81
2.04
2.35
2.57
2.54
2.17
1.48
0.57
-0.39
-1.25
-1.91
-2.34
-2.55
-2.60
-2.51
-2.33
-2.11
-1.94
-1.85
-1.86
-1.90
-1.87
-1.70
-1.34
-0.83
-0.26
0.29
0.75
1.13
1.44
1.72
2.03
2.39
2.84
3.36
3.88
4.29
4.47
4.38
4.02
3.49
2.90
2.37
1.93
1.60
1.33
1.08
0.80
0.45
0.05
-0.40
-0.85
-1.26
-1.58
-1.75
-1.80
-1.74
-1.65
-1.57
-1.53
-1.48
-1.38
-1.18
-0.85
-0.42
0.05
0.51
0.92
1.25
1.52
1.70
1.80
1.82
1.75
1.64
1.50
1.38
1.27
1.20
1.13
1.06
0.94
0.73
0.38
-0.13
-0.81
-1.60
-2.39
-3.05
-3.48
-3.64
-3.57
-3.36
-3.08
-2.82
-2.61
-2.46
-2.38
-2.33
-2.25
-2.07
-1.74
-1.27
-0.72
-0.22
0.14
0.35
0.46
0.58
0.79
1.15
1.60
2.07
2.45
2.68
2.76
2.70
2.55
2.32
2.01
1.64
1.26
0.93
0.70
0.54
0.34
-0.05
-0.73
-1.67
-2.68
-3.51
-3.94
-3.94
-3.59
-3.11
-2.66
-2.33
-2.07
-1.78
-1.42
-1.01
-0.62
-0.35
-0.22
-0.13
0.04
0.41
0.97
1.64
2.26
2.70
2.92
2.95
2.86
2.69
2.45
2.11
1.67
1.18
0.70
0.33
0.10
-0.01
-0.08
-0.20
-0.44
-0.85
-1.36
-1.91
-2.36
-2.65
-2.75
-2.72
-2.63
-2.50
-2.30
-1.96
-1.42
-0.71
0.09
0.87
1.51
2.00
2.36
2.64
2.85
2.98
3.00
2.93
2.81
2.76
2.83
3.03
3.31
3.58
3.73
3.73
3.57
3.30
2.96
2.58
2.16
1.66
1.06
0.37
-0.39
-1.18
-1.93
-2.55
-2.98
-3.17
-3.12
-2.88
-2.53
-2.16
-1.82
-1.54
-1.30
-1.07
-0.83
-0.55
-0.29
-0.09
-0.01
-0.05
-0.15
-0.24
-0.21
-0.03
0.25
0.51
0.64
0.61
0.50
0.41
0.45
0.62
0.83
0.95
0.92
0.74
0.45
0.08
-0.37
-0.97
-1.74
-2.64
-3.53
-4.26
-4.67
-4.72
-4.46
-3.97
-3.36
-2.71
-2.09
-1.53
-1.07
-0.71
-0.46
-0.28
-0.13
0.07
0.39
0.87
1.47
2.10
2.61
2.85
2.75
2.37
1.86
1.41
1.19
1.24
1.50
1.83
2.09
2.17
1.99
1.57
0.97
0.27
-0.40
-0.97
-1.41
-1.75
-2.04
-2.32
-2.56
-2.72
-2.74
-2.63
-2.43
-2.24
-2.10
-1.99
-1.85
-1.62
-1.27
-0.86
-0.44
-0.08
0.24
0.57
0.99
1.51
2.06
2.52
2.82
2.92
2.88
2.80
2.74
2.69
2.57
2.29
1.85
1.33
0.86
0.54
0.40
0.31
0.10
-0.35
-1.06
-1.90
-2.68
-3.22
-3.44
-3.36
-3.07
-2.69
-2.28
-1.85
-1.39
-0.90
-0.41
0.01
0.36
0.62
0.83
0.99
1.13
1.21
1.26
1.32
1.46
1.76
2.21
2.74
3.22
3.53
3.61
3.46
3.13
2.71
2.28
1.88
1.56
1.34
1.22
1.14
1.01
0.72
0.23
-0.46
-1.25
-1.99
-2.55
-2.87
-2.95
-2.86
-2.70
-2.55
-2.42
-2.26
-1.99
-1.58
-1.03
-0.42
0.16
0.63
0.98
1.24
1.49
1.79
2.18
2.63
3.06
3.37
3.49
3.40
3.15
2.86
2.63
2.53
2.58
2.68
2.72
2.61
2.31
1.86
1.30
0.71
0.11
-0.52
-1.17
-1.83
-2.45
-2.94
-3.24
-3.30
-3.18
-2.97
-2.76
-2.63
-2.52
-2.36
-2.02
-1.49
-0.83
-0.19
0.28
0.49
0.48
0.37
0.27
0.24
0.26
0.29
0.25
0.16
0.05
-0.04
-0.05
-0.01
0.03
-0.00
-0.15
-0.40
-0.69
-0.94
-1.12
-1.25
-1.42
-1.71
-2.20
-2.83
-3.50
-4.05
-4.34
-4.29
-3.92
-3.31
-2.58
-1.85
-1.22
-0.74
-0.38
-0.06
0.29
0.74
1.28
1.87
2.47
3.04
3.52
3.85
3.93
3.71
3.17
2.42
1.62
0.99
0.66
0.66
0.93
1.31
1.66
1.84
1.75
1.37
0.70
-0.18
-1.16
-2.08
-2.84
-3.31
-3.47
-3.30
-2.90
-2.42
-1.99
-1.74
-1.66
-1.66
-1.63
-1.47
-1.17
-0.78
-0.39
-0.04
0.26
0.57
0.92
1.30
1.65
1.90
2.01
1.99
1.88
1.73
1.59
1.44
1.32
1.22
1.18
1.20
1.24
1.23
1.10
0.77
0.27
-0.31
-0.82
-1.14
-1.21
-1.07
-0.82
-0.55
-0.29
-0.03
0.24
0.49
0.69
0.80
0.85
0.93
1.13
1.51
2.05
2.64
3.14
3.45
3.55
3.48
3.35
3.23
3.19
3.21
3.23
3.17
2.95
2.57
2.06
1.50
0.93
0.36
-0.28
-1.02
-1.86
-2.71
-3.43
-3.87
-3.97
-3.77
-3.35
-2.83
-2.31
-1.88
-1.56
-1.37
-1.26
-1.18
-1.07
-0.88
-0.64
-0.37
-0.15
-0.03
-0.03
-0.15
-0.37
-0.68
-1.04
-1.41
-1.74
-1.98
-2.10
-2.13
-2.10
-2.07
-2.04
-1.98
-1.87
-1.72
-1.60
-1.63
-1.89
-2.37
-2.96
-3.46
-3.70
-3.65
-3.35
-2.94
-2.53
-2.17
-1.83
-1.46
-1.06
-0.69
-0.43
-0.27
-0.16
0.05
0.43
0.98
1.60
2.10
2.37
2.41
2.34
2.29
2.35
2.49
2.63
2.62
2.43
2.07
1.61
1.10
0.58
0.03
-0.60
-1.29
-1.96
-2.51
-2.86
-2.99
-2.91
-2.73
-2.52
-2.36
-2.24
-2.10
-1.85
-1.43
-0.80
-0.02
0.82
1.61
2.24
2.68
2.93
3.02
3.00
2.90
2.76
2.62
2.50
2.47
2.53
2.68
2.87
3.04
3.09
2.96
2.59
2.00
1.19
0.19
-0.89
-1.95
-2.82
-3.36
-3.52
-3.33
-2.92
-2.46
-2.09
-1.86
-1.73
-1.59
-1.31
-0.80
-0.04
0.89
1.84
2.64
3.16
3.36
3.28
3.06
2.84
2.75
2.87
3.21
3.69
4.20
4.59
4.78
4.69
4.36
3.86
3.32
2.83
2.43
2.12
1.86
1.57
1.20
0.70
0.03
-0.79
-1.72
-2.64
-3.40
-3.88
-3.99
-3.77
-3.32
-2.80
-2.34
-2.01
-1.81
-1.68
-1.57
-1.42
-1.24
-1.00
-0.72
-0.39
-0.06
0.22
0.39
0.44
0.36
0.22
0.08
0.02
0.06
0.19
0.36
0.50
0.53
0.43
0.19
-0.14
-0.47
-0.77
-1.04
-1.32
-1.68
-2.15
-2.71
-3.26
-3.69
-3.92
-3.93
-3.74
-3.41
-3.01
-2.54
-2.02
-1.47
-0.95
-0.56
-0.34
-0.26
-0.25
-0.18
0.02
0.33
0.69
1.00
1.21
1.33
1.43
1.55
1.72
1.92
2.13
2.32
2.48
2.57
2.56
2.40
2.09
1.65
1.11
0.52
-0.10
-0.72
-1.33
-1.92
-2.48
-2.98
-3.39
-3.66
-3.73
-3.59
-3.26
-2.84
-2.41
-2.01
-1.66
-1.34
-1.00
-0.66
-0.34
-0.04
0.26
0.56
0.91
1.29
1.68
2.04
2.35
2.61
2.80
2.92
2.94
2.85
2.72
2.60
2.56
2.60
2.65
2.61
2.43
2.08
1.61
1.09
0.53
-0.05
-0.66
-1.26
-1.77
-2.08
-2.14
-1.98
-1.69
-1.41
-1.22
-1.13
-1.08
-0.98
-0.77
-0.44
-0.02
0.42
0.80
1.12
1.38
1.60
1.83
2.10
2.43
2.80
3.15
3.41
3.49
3.31
2.89
2.31
1.72
1.23
0.94
0.85
0.91
1.00
1.00
0.83
0.43
-0.17
-0.92
-1.72
-2.47
-3.13
-3.61
-3.88
-3.90
-3.67
-3.22
-2.64
-2.06
-1.57
-1.19
-0.88
-0.55
-0.14
0.30
0.66
0.80
0.69
0.40
0.08
-0.09
-0.05
0.17
0.46
0.71
0.90
1.05
1.21
1.36
1.41
1.25
0.83
0.19
-0.52
-1.13
-1.53
-1.74
-1.83
-1.92
-2.12
-2.44
-2.86
-3.27
-3.61
-3.81
-3.82
-3.65
-3.33
-2.89
-2.38
-1.85
-1.34
-0.93
-0.63
-0.46
-0.37
-0.29
-0.13
0.19
0.66
1.24
1.83
2.33
2.70
2.94
3.09
3.19
3.22
3.18
3.06
2.89
2.73
2.61
2.55
2.46
2.23
1.79
1.10
0.26
-0.62
-1.41
-2.03
-2.44
-2.68
-2.79
-2.80
-2.71
-2.53
-2.26
-1.89
-1.46
-1.01
-0.59
-0.25
0.04
0.29
0.58
0.94
1.37
1.83
2.27
2.62
2.85
2.96
2.95
2.86
2.71
2.59
2.56
2.64
2.82
3.00
3.07
2.94
2.62
2.18
1.73
1.35
0.99
0.60
0.07
-0.63
-1.43
-2.16
-2.66
-2.82
-2.65
-2.29
-1.88
-1.54
-1.30
-1.10
-0.88
-0.58
-0.24
0.07
0.29
0.39
0.40
0.34
0.28
0.22
0.15
0.09
0.06
0.09
0.21
0.38
0.55
0.67
0.74
0.76
0.75
0.68
0.49
0.10
-0.52
-1.28
-2.03
-2.62
-2.95
-3.03
-2.99
-2.95
-2.94
-2.98
-2.99
-2.92
-2.75
-2.47
-2.11
-1.69
-1.21
-0.74
-0.34
-0.10
-0.05
-0.15
-0.29
-0.33
-0.18
0.18
0.64
1.08
1.40
1.54
1.52
1.40
1.24
1.08
0.95
0.88
0.88
0.96
1.07
1.13
1.02
0.66
0.01
-0.87
-1.83
-2.71
-3.33
-3.59
-3.50
-3.12
-2.60
-2.10
-1.75
-1.56
-1.47
-1.37
-1.16
-0.82
-0.40
-0.02
0.23
0.37
0.49
0.73
1.17
1.80
2.48
3.01
3.25
3.17
2.88
2.56
2.35
2.31
2.42
2.56
2.60
2.40
1.93
1.24
0.46
-0.26
-0.79
-1.11
-1.29
-1.45
-1.68
-1.95
-2.17
-2.21
-2.02
-1.68
-1.32
-1.06
-0.91
-0.80
-0.63
-0.36
0.01
0.41
0.80
1.18
1.61
2.09
2.58
2.95
3.15
3.19
3.16
3.22
3.41
3.68
3.88
3.87
3.59
3.11
2.52
1.91
1.29
0.62
-0.11
-0.90
-1.68
-2.36
-2.87
-3.18
-3.29
-3.24
-3.04
-2.69
-2.20
-1.60
-0.98
-0.50
-0.26
-0.30
-0.55
-0.83
-0.95
-0.80
-0.41
0.05
0.44
0.65
0.67
0.56
0.36
0.09
-0.25
-0.60
-0.85
-0.88
-0.66
-0.28
0.05
0.11
-0.19
-0.81
-1.55
-2.25
-2.80
-3.22
-3.57
-3.87
-4.11
-4.20
-4.08
-3.76
-3.34
-2.92
-2.57
-2.28
-1.94
-1.46
-0.78
0.04
0.88
1.60
2.12
2.45
2.63
2.73
2.79
2.81
2.79
2.72
2.64
2.60
2.67
2.85
3.09
3.31
3.36
3.13
2.53
1.58
0.39
-0.84
-1.88
-2.57
-2.88
-2.92
-2.84
-2.77
-2.75
-2.72
-2.59
-2.32
-1.97
-1.61
-1.32
-1.11
-0.90
-0.61
-0.19
0.36
0.94
1.50
1.97
2.37
2.74
3.09
3.44
3.73
3.91
3.96
3.90
3.79
3.72
3.69
3.65
3.53
3.25
2.79
2.18
1.48
0.75
0.03
-0.71
-1.43
-2.06
-2.54
-2.78
-2.74
-2.48
-2.09
-1.69
-1.36
-1.12
-0.92
-0.71
-0.43
-0.11
0.21
0.45
0.57
0.58
0.55
0.55
0.62
0.76
0.90
0.97
0.95
0.84
0.71
0.58
0.43
0.18
-0.22
-0.78
-1.39
-1.91
-2.23
-2.37
-2.42
-2.56
-2.91
-3.42
-3.95
-4.29
-4.32
-4.05
-3.60
-3.13
-2.70
-2.28
-1.78
-1.18
-0.56
-0.08
0.13
0.09
-0.07
-0.14
0.03
0.47
1.03
1.53
1.81
1.84
1.65
1.39
1.19
1.14
1.28
1.54
1.83
1.98
1.91
1.60
1.10
0.54
-0.00
-0.47
-0.88
-1.26
-1.62
-1.95
-2.22
-2.44
-2.60
-2.76
-2.90
-3.00
-2.97
-2.75
-2.31
-1.68
-0.93
-0.17
0.51
1.07
1.52
1.90
2.23
2.53
2.79
3.01
3.21
3.41
3.61
3.82
4.01
4.13
4.12
3.95
3.62
3.12
2.50
1.78
1.06
0.41
-0.11
-0.47
-0.69
-0.82
-0.92
-1.00
-1.09
-1.16
-1.19
-1.18
-1.13
-1.02
-0.84
-0.60
-0.29
0.08
0.46
0.82
1.16
1.48
1.83
2.21
2.62
3.03
3.39
3.63
3.70
3.57
3.25
2.75
2.14
1.50
0.90
0.39
-0.04
-0.40
-0.72
-0.98
-1.21
-1.47
-1.82
-2.32
-2.97
-3.63
-4.12
-4.27
-4.00
-3.41
-2.70
-2.08
-1.67
-1.46
-1.33
-1.16
-0.90
-0.55
-0.17
0.18
0.47
0.68
0.83
0.91
0.91
0.83
0.67
0.47
0.30
0.23
0.32
0.59
0.96
1.32
1.50
1.39
0.92
0.14
-0.82
-1.82
-2.71
-3.42
-3.90
-4.12
-4.06
-3.73
-3.19
-2.55
-1.96
-1.55
-1.36
-1.33
-1.34
-1.28
-1.10
-0.83
-0.54
-0.28
-0.07
0.11
0.31
0.53
0.77
1.01
1.27
1.55
1.84
2.12
2.34
2.45
2.39
2.20
1.94
1.73
1.63
1.64
1.66
1.52
1.07
0.28
-0.77
-1.89
-2.86
-3.54
-3.84
-3.80
-3.50
-3.06
-2.57
-2.10
-1.70
-1.35
-1.04
-0.71
-0.33
0.16
0.74
1.38
1.99
2.52
2.90
3.14
3.28
3.39
3.51
3.65
3.78
3.85
3.84
3.72
3.51
3.19
2.77
2.26
1.72
1.24
0.88
0.66
0.53
0.40
0.22
0.01
-0.15
-0.18
-0.10
-0.03
-0.14
-0.51
-1.09
-1.66
-1.95
-1.80
-1.21
-0.40
0.38
0.91
1.13
1.11
0.98
0.85
0.75
0.68
0.60
0.52
0.46
0.46
0.52
0.61
0.68
0.69
0.63
0.49
0.24
-0.14
-0.67
-1.29
-1.93
-2.51
-2.98
-3.32
-3.58
-3.75
-3.84
-3.82
-3.61
-3.21
-2.63
-1.93
-1.23
-0.61
-0.14
0.15
0.32
0.46
0.64
0.89
1.18
1.41
1.49
1.41
1.20
0.92
0.64
0.38
0.16
0.02
-0.00
0.14
0.42
0.72
0.90
0.87
0.60
0.15
-0.38
-0.93
-1.47
-2.00
-2.50
-2.89
-3.09
-3.06
-2.85
-2.55
-2.30
-2.17
-2.15
-2.14
-2.03
-1.77
-1.37
-0.90
-0.46
-0.12
0.10
0.25
0.40
0.62
0.93
1.29
1.61
1.82
1.90
1.92
1.94
2.04
2.22
2.45
2.62
2.65
2.49
2.14
1.60
0.91
0.09
-0.78
-1.60
-2.25
-2.67
-2.85
-2.83
-2.68
-2.44
-2.12
-1.70
-1.19
-0.60
-0.01
0.51
0.87
1.03
1.02
0.95
0.92
1.05
1.38
1.91
2.56
3.26
3.90
4.38
4.62
4.58
4.29
3.89
3.51
3.29
3.22
3.20
3.05
2.62
1.91
1.01
0.05
-0.84
-1.63
-2.31
-2.83
-3.10
-3.04
-2.66
-2.08
-1.51
-1.13
-1.00
-1.02
-1.04
-0.92
-0.63
-0.30
-0.04
0.05
0.00
-0.08
-0.08
0.09
0.39
0.75
1.07
1.27
1.31
1.18
0.89
0.49
0.04
-0.40
-0.75
-1.00
-1.18
-1.34
-1.56
-1.88
-2.26
-2.65
-2.99
-3.22
-3.32
-3.33
-3.25
-3.10
-2.86
-2.53
-2.15
-1.78
-1.50
-1.34
-1.26
-1.15
-0.88
-0.39
0.28
0.98
1.53
1.81
1.86
1.85
1.98
2.36
2.96
3.54
3.84
3.70
3.15
2.41
1.71
1.19
0.87
0.58
0.18
-0.39
-1.05
-1.68
-2.15
-2.42
-2.53
-2.55
-2.55
-2.55
-2.55
-2.54
-2.53
-2.51
-2.44
-2.26
-1.94
-1.51
-1.05
-0.64
-0.34
-0.09
0.18
0.56
1.09
1.72
2.35
2.90
3.31
3.60
3.80
3.96
4.06
4.07
3.96
3.70
3.31
2.82
2.32
1.83
1.38
0.95
0.48
-0.06
-0.65
-1.20
-1.64
-1.90
-2.01
-2.04
-2.04
-2.02
-1.94
-1.74
-1.41
-1.00
-0.61
-0.31
-0.11
0.02
0.20
0.47
0.84
1.28
1.68
1.96
2.07
1.99
1.75
1.40
0.98
0.56
0.20
-0.08
-0.28
-0.39
-0.45
-0.48
-0.51
-0.58
-0.73
-1.03
-1.49
-2.08
-2.72
-3.28
-3.64
-3.74
-3.57
-3.22
-2.78
-2.30
-1.80
-1.25
-0.70
-0.19
0.20
0.45
0.61
0.75
0.94
1.18
1.40
1.56
1.63
1.66
1.73
1.88
2.09
2.26
2.32
2.24
2.07
1.85
1.63
1.40
1.13
0.79
0.43
0.10
-0.16
-0.39
-0.66
-1.11
-1.81
-2.69
-3.61
-4.36
-4.75
-4.72
-4.33
-3.73
-3.11
-2.58
-2.14
-1.73
-1.24
-0.63
0.04
0.65
1.12
1.42
1.63
1.88
2.24
2.71
3.21
3.62
3.86
3.93
3.87
3.74
3.57
3.36
3.09
2.76
2.36
1.92
1.41
0.82
0.17
-0.52
-1.17
-1.69
-2.03
-2.19
-2.19
-2.11
-2.01
-1.92
-1.81
-1.61
-1.26
-0.74
-0.12
0.49
0.98
1.29
1.44
1.55
1.72
2.03
2.49
3.03
3.51
3.82
3.86
3.61
3.12
2.50
1.87
1.34
0.98
0.78
0.69
0.63
0.53
0.29
-0.16
-0.87
-1.86
-3.00
-4.08
-4.86
-5.09
-4.72
-3.85
-2.74
-1.71
-0.98
-0.67
-0.69
-0.88
-1.05
-1.06
-0.88
-0.61
-0.36
-0.23
-0.22
-0.25
-0.20
-0.00
0.31
0.62
0.81
0.82
0.67
0.48
0.38
0.42
0.55
0.68
0.71
0.57
0.27
-0.17
-0.71
-1.34
-2.01
-2.69
-3.30
-3.75
-3.98
-3.94
-3.68
-3.26
-2.78
-2.32
-1.91
-1.53
-1.17
-0.78
-0.35
0.09
0.52
0.92
1.31
1.68
2.06
2.43
2.74
2.97
3.12
3.22
3.31
3.39
3.39
3.26
2.95
2.48
1.93
1.36
0.80
0.23
-0.37
-1.01
-1.62
-2.14
-2.50
-2.67
-2.67
-2.57
-2.42
-2.25
-2.08
-1.90
-1.69
-1.43
-1.10
-0.74
-0.40
-0.12
0.08
0.26
0.51
0.90
1.41
1.95
2.39
2.66
2.76
2.75
2.72
2.74
2.78
2.79
2.73
2.60
2.46
2.37
2.37
2.41
2.39
2.20
1.76
1.10
0.30
-0.47
-1.09
-1.48
-1.66
-1.72
-1.75
-1.83
-1.95
-2.07
-2.10
-1.96
-1.65
-1.21
-0.73
-0.33
-0.07
0.01
-0.01
-0.04
-0.00
0.16
0.39
0.63
0.82
0.93
0.99
1.01
0.99
0.87
0.60
0.15
-0.38
-0.87
-1.17
-1.26
-1.24
-1.31
-1.67
-2.36
-3.26
-4.10
-4.59
-4.56
-4.06
-3.26
-2.40
-1.68
-1.15
-0.80
-0.56
-0.37
-0.20
-0.04
0.14
0.36
0.66
1.08
1.59
2.12
2.56
2.82
2.85
2.68
2.44
2.25
2.18
2.23
2.31
2.32
2.20
1.97
1.69
1.45
1.26
1.04
0.70
0.17
-0.54
-1.34
-2.07
-2.63
-2.96
-3.12
-3.23
-3.39
-3.63
-3.89
-4.08
-4.06
-3.74
-3.14
-2.36
-1.55
-0.81
-0.19
0.36
0.89
1.45
1.99
2.42
2.65
2.63
2.44
2.21
2.08
2.13
2.33
2.59
2.77
2.82
2.71
2.49
2.19
1.86
1.51
1.17
0.83
0.47
0.10
-0.28
-0.64
-0.93
-1.10
-1.15
-1.09
-0.96
-0.82
-0.68
-0.55
-0.38
-0.18
0.08
0.34
0.61
0.87
1.16
1.50
1.88
2.21
2.37
2.25
1.86
1.28
0.72
0.33
0.22
0.32
0.49
0.56
0.45
0.16
-0.21
-0.61
-1.02
-1.48
-2.05
-2.70
-3.30
-3.71
-3.80
-3.55
-3.06
-2.50
-2.00
-1.65
-1.42
-1.24
-1.07
-0.86
-0.63
-0.42
-0.23
-0.03
0.19
0.45
0.69
0.85
0.86
0.70
0.45
0.21
0.10
0.19
0.48
0.87
1.25
1.48
1.47
1.19
0.70
0.08
-0.58
-1.20
-1.75
-2.24
-2.67
-3.06
-3.38
-3.56
-3.57
-3.36
-2.95
-2.40
-1.81
-1.31
-1.02
-0.93
-0.97
-0.98
-0.80
-0.39
0.22
0.90
1.52
1.98
2.28
2.48
2.66
2.87
3.12
3.39
3.64
3.82
3.91
3.89
3.77
3.53
3.17
2.68
2.04
1.29
0.46
-0.35
-1.05
-1.54
-1.77
-1.75
-1.55
-1.26
-0.98
-0.78
-0.64
-0.50
-0.29
0.04
0.46
0.90
1.28
1.55
1.72
1.83
1.93
2.10
2.32
2.57
2.77
2.86
2.80
2.63
2.38
2.13
1.86
1.53
1.05
0.41
-0.38
-1.21
-1.97
-2.60
-3.08
-3.44
-3.71
-3.86
-3.84
-3.63
-3.28
-2.88
-2.54
-2.28
-2.07
-1.83
-1.54
-1.19
-0.83
-0.52
-0.25
0.02
0.32
0.65
0.96
1.14
1.14
0.96
0.68
0.43
0.29
0.29
0.41
0.56
0.66
0.63
0.43
0.05
-0.48
-1.09
-1.74
-2.36
-2.92
-3.39
-3.75
-3.96
-3.97
-3.76
-3.36
-2.85
-2.35
-1.92
-1.57
-1.27
-0.94
-0.55
-0.08
0.44
0.96
1.46
1.90
2.25
2.47
2.57
2.58
2.59
2.68
2.88
3.13
3.31
3.30
3.03
2.51
1.82
1.06
0.33
-0.28
-0.76
-1.13
-1.43
-1.72
-2.01
-2.24
-2.31
-2.16
-1.77
-1.24
-0.70
-0.26
0.07
0.32
0.61
0.98
1.43
1.87
2.23
2.47
2.61
2.72
2.88
3.12
3.41
3.67
3.83
3.84
3.71
3.55
3.42
3.35
3.27
3.09
2.71
2.14
1.47
0.84
0.31
-0.14
-0.57
-1.02
-1.44
-1.68
-1.61
-1.25
-0.76
-0.41
-0.41
-0.78
-1.38
-1.97
-2.38
-2.60
-2.69
-2.78
-2.84
-2.80
-2.54
-2.05
-1.47
-0.96
-0.70
-0.68
-0.83
-0.99
-1.07
-1.06
-1.00
-0.95
-0.92
-0.91
-0.93
-1.02
-1.22
-1.55
-1.95
-2.32
-2.56
-2.61
-2.53
-2.39
-2.29
-2.27
-2.32
-2.37
-2.34
-2.17
-1.82
-1.34
-0.78
-0.26
0.13
0.35
0.45
0.53
0.69
1.01
1.46
1.95
2.42
2.81
3.15
3.43
3.61
3.62
3.36
2.81
2.05
1.23
0.45
-0.20
-0.76
-1.30
-1.81
-2.26
-2.56
-2.69
-2.67
-2.60
-2.52
-2.42
-2.19
-1.72
-0.96
-0.01
0.95
1.76
2.35
2.76
3.11
3.49
3.87
4.16
4.25
4.12
3.85
3.61
3.53
3.66
3.93
4.19
4.29
4.17
3.81
3.29
2.65
1.97
1.27
0.59
-0.04
-0.60
-1.05
-1.36
-1.52
-1.56
-1.52
