1505998718.00
64.000000
-0.00
-0.00
-0.00
-0.00
-0.00
-0.00
-0.00
-0.00
-0.00
-0.00
0.00
0.01
0.01
-0.00
-0.03
-0.05
-0.05
0.00
0.13
0.36
0.66
1.01
1.37
1.72
2.06
2.40
2.79
3.24
3.80
4.42
5.06
5.66
6.20
6.68
7.15
7.68
8.31
9.14
10.09
11.04
11.88
12.56
13.14
13.76
14.65
15.96
17.91
20.32
22.90
25.38
27.58
29.57
31.68
34.32
37.81
42.54
48.15
54.10
59.83
64.97
69.58
74.14
79.34
85.71
93.76
103.00
112.62
121.73
129.77
136.75
143.30
150.75
157.77
166.64
177.95
191.79
206.97
220.57
228.25
225.36
208.53
176.87
132.76
80.05
23.07
-34.94
-92.44
-149.16
-205.23
-260.37
-313.74
-363.87
-409.83
-450.91
-486.50
-515.74
-537.23
-549.22
-549.96
-538.37
-514.21
-478.67
-433.88
-382.45
-327.02
-269.84
-212.63
-156.66
-102.95
-52.37
-5.90
35.58
71.43
101.35
125.50
144.38
158.69
169.15
176.37
180.75
182.57
182.07
179.51
175.23
169.65
163.18
156.15
148.81
141.30
133.69
126.02
118.33
110.69
103.16
95.80
88.68
81.83
75.25
68.95
62.95
57.25
51.86
46.78
42.03
37.59
33.45
29.61
26.07
22.81
19.83
17.11
14.67
12.48
10.54
8.83
7.35
6.07
4.97
4.05
3.27
2.62
2.09
1.65
1.30
1.01
0.79
0.61
0.47
0.37
0.29
0.23
0.19
0.16
0.15
0.14
0.15
0.17
0.19
0.22
0.26
0.30
0.34
0.38
0.43
0.48
0.53
0.57
0.63
0.68
0.74
0.79
0.86
0.93
1.01
1.09
1.19
1.29
1.41
1.55
1.70
1.86
2.05
2.27
2.51
2.77
3.06
3.39
3.75
4.14
4.57
5.04
5.54
6.09
6.67
7.29
7.95
8.66
9.40
10.20
11.03
11.91
12.82
13.79
14.81
15.90
17.03
18.25
19.50
20.79
22.05
23.23
24.24
24.94
25.23
24.95
24.00
22.30
19.83
16.59
12.66
8.20
3.39
-1.52
-6.29
-10.69
-14.48
-17.52
-19.67
-20.88
-21.18
-20.63
-19.41
-17.68
-15.60
-13.33
-10.96
-8.51
-5.99
-3.36
-0.66
2.06
4.72
7.24
9.52
11.53
13.25
14.70
15.93
16.84
17.35
17.39
16.99
16.23
15.32
14.55
14.30
14.91
16.30
18.28
20.60
22.99
25.31
27.63
30.23
33.55
37.98
43.20
48.72
53.94
58.30
61.47
63.62
65.28
67.23
70.15
73.63
76.88
78.81
78.28
74.49
67.07
55.92
40.50
24.35
8.37
-7.44
-23.64
-41.07
-60.75
-83.56
-109.89
-138.95
-168.04
-193.35
-210.06
-214.28
-204.75
-183.64
-155.71
-126.44
-99.90
-77.71
-59.96
-45.72
-34.42
-26.29
-21.83
-21.17
-23.53
-27.41
-31.18
-33.91
-34.94
-33.90
-30.65
-25.24
-18.04
-9.83
-1.57
5.76
11.31
14.61
15.59
14.51
12.06
9.34
7.75
8.61
12.59
19.23
26.98
33.63
37.03
35.81
29.77
19.71
7.00
-6.98
-21.05
-34.36
-46.10
-55.30
-60.94
-62.23
-59.07
-52.15
-42.96
-33.28
-24.72
-18.31
-14.37
-12.69
-12.87
-14.58
-17.66
-22.09
-27.63
-33.63
-38.95
-42.45
-43.36
-41.74
-38.51
-34.95
-32.00
-29.56
-26.35
-20.54
-10.86
2.39
17.01
29.59
36.78
36.67
29.62
18.00
5.29
-5.22
-11.22
-11.55
-5.86
5.86
23.26
45.29
69.76
93.40
112.78
125.38
130.61
129.96
126.13
121.72
118.14
115.30
112.20
107.95
102.34
96.00
89.79
84.12
78.65
72.50
64.90
55.72
45.74
36.20
28.25
22.46
18.68
16.36
14.92
13.95
13.09
11.68
8.74
3.23
-5.28
-16.19
-27.80
-37.92
-44.80
-47.83
-47.78
-46.31
-45.19
-45.56
-47.55
-50.30
-52.36
-52.15
-48.60
-41.41
-31.32
-19.98
-9.43
-1.56
2.43
2.26
-1.57
-8.09
-16.22
-24.95
-33.45
-40.90
-46.51
-49.70
-50.43
-49.36
-47.83
-47.22
-48.10
-49.72
-50.15
-47.20
-39.63
-28.03
-14.76
-3.01
4.50
6.56
3.69
-2.38
-9.47
-15.66
-19.59
-20.48
-18.13
-12.88
-5.71
1.95
8.57
12.87
14.22
12.73
9.05
4.21
-0.64
-4.42
-6.37
-6.33
-4.86
-3.14
-2.54
-4.10
-7.90
-13.06
-17.91
-20.77
-20.68
-17.76
-13.26
-9.03
-6.79
-7.64
-11.62
-17.96
-25.23
-31.65
-35.25
-34.04
-26.57
-13.03
3.70
18.15
24.12
17.76
-0.06
-23.58
-44.73
-57.10
-59.00
-53.60
-46.32
-41.15
-38.30
-34.78
-27.16
-14.54
0.43
12.96
19.06
17.89
12.30
7.23
7.24
14.49
28.01
44.36
59.57
70.92
78.10
82.97
88.30
96.22
107.12
119.64
131.59
141.21
148.02
152.57
155.52
156.69
154.82
148.32
136.40
119.91
101.11
82.62
65.97
51.07
36.63
21.34
4.95
-11.53
-26.53
-38.95
-48.71
-56.48
-62.94
-68.20
-71.79
-73.37
-73.29
-72.72
-73.05
-75.02
-78.31
-81.36
-82.11
-78.81
-70.80
-58.69
-44.12
-29.14
-15.60
-4.84
2.47
5.95
5.36
0.49
-8.41
-20.30
-33.17
-44.48
-52.00
-54.57
-52.59
-47.70
-42.04
-37.31
-34.34
-33.18
-33.50
-34.95
-37.25
-40.12
-43.04
-45.32
-46.35
-46.04
-44.85
-43.60
-42.96
-42.90
-42.60
-40.73
-36.05
-28.07
-17.25
-4.87
7.47
18.41
27.14
33.45
37.45
39.32
38.99
36.32
31.26
24.16
15.79
7.13
-1.09
-8.63
-15.65
-22.32
-28.32
-32.68
-34.09
-31.65
-25.54
-17.19
-8.76
-2.24
1.32
2.08
1.02
-0.57
-1.61
-1.31
0.91
5.55
12.84
22.48
33.56
44.67
54.44
62.05
67.43
71.11
73.63
75.16
75.24
73.15
68.44
61.42
53.34
45.98
41.14
40.03
42.93
49.20
57.66
67.02
76.23
84.58
91.58
96.62
98.81
97.00
90.10
77.65
60.16
39.28
17.57
-2.03
-16.96
-25.61
-27.70
-24.38
-17.87
-10.96
-6.30
-5.63
-9.34
-16.44
-25.01
-33.05
-39.09
-42.55
-43.63
-43.01
-41.39
-39.20
-36.48
-32.92
-28.01
-21.41
-13.34
-4.72
2.83
7.47
7.89
3.80
-3.83
-13.28
-22.75
-31.02
-37.52
-42.07
-44.47
-44.35
-41.29
-35.39
-27.42
-18.79
-11.07
-5.39
-2.12
-1.00
-1.36
-2.60
-4.33
-6.42
-8.80
-11.43
-14.27
-17.32
-20.57
-24.00
-27.51
-30.89
-33.91
-36.48
-38.56
-40.14
-41.16
-41.47
-41.04
-40.22
-39.88
-41.10
-44.73
-50.73
-57.87
-63.86
-66.13
-62.85
-53.55
-39.42
-22.72
-5.99
8.77
20.51
28.97
34.41
37.19
37.62
35.96
32.56
27.78
22.13
16.09
10.11
4.62
-0.04
-3.68
-6.24
-7.89
-9.02
-10.19
-12.11
-15.41
-20.55
-27.73
-36.77
-47.03
-57.49
-66.87
-73.91
-77.69
-77.81
-74.48
-68.48
-60.95
-53.00
-45.20
-37.45
-29.18
-20.06
-10.46
-1.45
5.97
11.68
16.89
23.45
32.66
44.08
55.36
63.35
65.80
62.70
56.36
50.13
46.75
47.10
49.96
52.86
53.29
49.52
41.02
28.49
13.64
-1.15
-13.28
-20.51
-21.55
-16.46
-6.62
5.66
17.95
28.49
36.78
43.68
50.75
59.29
69.73
81.54
93.94
106.67
120.20
135.05
150.72
165.14
175.08
177.46
170.87
156.36
136.76
115.14
93.32
71.40
48.54
24.25
-0.60
-23.91
-43.32
-57.44
-66.35
-71.26
-73.58
-74.06
-72.55
-68.44
-61.55
-52.57
-43.15
-35.33
-30.78
-30.22
-33.26
-38.70
-44.94
-50.48
-54.25
-55.84
-55.56
-54.27
-53.08
-52.72
-53.33
-54.39
-55.05
-54.68
-53.15
-50.98
-49.17
-49.12
-52.66
-61.77
-77.63
-99.29
-122.86
-142.06
-150.27
-143.35
-121.65
-90.01
-55.69
-25.22
-2.12
13.59
24.18
32.08
38.45
42.98
44.79
43.44
39.50
34.34
29.49
26.19
25.08
26.21
29.41
34.49
41.45
50.21
60.22
70.25
78.53
83.33
83.71
80.16
74.56
69.58
67.79
70.80
78.73
90.14
102.41
112.48
117.63
116.17
107.87
93.86
76.29
57.49
39.35
22.87
8.25
-4.80
-16.50
-26.78
-35.17
-41.19
-44.66
-45.99
-46.15
-46.38
-47.71
-50.54
-54.55
-58.97
-62.99
-65.97
-67.50
-67.12
-64.17
-57.96
-48.22
-35.64
-21.87
-9.21
0.34
5.82
7.65
7.25
6.27
5.84
6.26
7.15
7.94
8.30
8.30
8.23
8.25
8.21
7.53
5.38
1.12
-5.45
-13.91
-23.51
-33.45
-43.25
-52.66
-61.33
-68.49
-72.85
-72.97
-67.97
-58.10
-44.88
-30.67
-17.86
-8.16
-2.33
-0.17
-0.95
-3.75
-7.79
-12.41
-17.02
-21.13
-24.25
-26.12
-26.70
-26.22
-25.12
-23.85
-22.72
-21.82
-21.01
-20.06
-18.88
-17.67
-16.84
-16.83
-17.77
-19.21
-20.07
-19.04
-14.98
-7.50
2.77
14.24
24.93
33.06
37.66
38.66
36.68
32.55
26.94
20.17
12.34
3.57
-5.83
-15.25
-23.97
-31.28
-36.75
-40.32
-42.36
-43.58
-44.79
-46.76
-49.90
-54.18
-59.06
-63.49
-66.06
-65.11
-59.11
-46.92
-28.36
-4.39
22.90
50.66
76.09
97.08
112.63
122.75
128.05
129.29
127.18
122.50
116.16
109.28
102.89
97.58
93.25
89.27
84.91
79.87
74.58
70.06
67.37
67.09
68.84
71.46
73.35
72.98
69.43
62.51
52.74
41.20
29.33
18.69
10.74
6.47
6.20
9.38
14.83
20.90
26.00
28.88
28.86
25.85
20.19
12.60
3.90
-5.05
-13.47
-20.64
-25.91
-28.88
-29.47
-28.18
-25.94
-23.98
-23.35
-24.44
-26.79
-29.28
-30.61
-29.86
-26.78
-21.68
-15.03
-7.15
1.85
11.59
21.16
29.04
33.61
33.86
29.95
23.21
15.56
8.67
3.33
-0.52
-3.54
-6.32
-9.29
-12.68
-16.81
-22.16
-29.04
-37.26
-45.80
-53.14
-57.76
-58.88
-56.86
-53.14
-49.65
-48.11
-49.41
-53.52
-59.71
-66.86
-73.81
-79.49
-82.91
-83.26
-80.33
-74.70
-67.87
-61.72
-57.64
-56.01
-55.97
-55.97
-54.71
-51.80
-47.92
-44.31
-42.06
-41.36
-41.44
-40.89
-38.42
-33.53
-26.79
-19.66
-13.79
-10.43
-9.84
-11.23
-13.27
-14.77
-15.20
-14.72
-13.71
-12.26
-9.95
-6.05
-0.11
7.65
16.26
24.65
32.15
38.95
45.97
54.17
63.95
74.87
85.95
96.51
106.38
115.62
123.82
129.64
131.07
126.57
116.26
102.26
87.97
76.29
68.22
62.43
56.32
47.82
36.62
24.29
13.13
4.51
-1.90
-7.83
-15.10
-24.21
-33.94
-41.77
-45.36
-43.84
-38.45
-32.02
-27.67
-27.39
-31.26
-37.63
-44.03
-48.22
-49.04
-46.49
-41.45
-35.13
-28.69
-23.15
-19.19
-17.19
-16.96
-17.75
-18.39
-17.65
-14.77
-9.68
-3.08
3.92
10.19
14.99
18.06
19.67
20.47
21.44
23.62
27.91
34.54
42.69
50.43
55.00
53.73
45.11
29.57
9.58
-11.20
-29.29
-42.80
-51.94
-58.56
-64.90
-72.35
-80.88
-89.40
-96.48
-101.23
-103.36
-102.79
-99.30
-92.55
-82.56
-70.34
-58.06
-48.36
-43.29
-43.18
-46.39
-49.87
-50.47
-46.10
-36.47
-23.02
-8.10
5.87
17.28
25.76
31.94
36.76
40.61
42.97
42.85
39.69
34.01
27.36
21.58
17.73
15.62
14.12
12.09
9.32
6.73
5.75
7.33
11.44
16.98
22.58
27.21
30.60
33.00
34.89
36.77
39.28
43.23
49.26
57.60
67.76
78.52
88.14
94.87
97.41
95.08
87.89
76.41
61.72
45.23
28.52
13.06
-0.06
-10.34
-17.84
-22.94
-26.09
-27.47
-27.09
-24.96
-21.25
-16.52
-11.70
-7.88
-6.00
-6.55
-9.29
-13.32
-17.43
-20.49
-21.84
-21.37
-19.34
-16.05
-11.56
-5.72
1.66
10.37
19.69
28.38
35.08
38.77
39.14
36.56
31.76
25.53
18.37
10.47
1.93
-7.02
-15.81
-23.67
-29.90
-34.21
-37.04
-39.43
-42.68
-47.80
-55.12
-64.01
-73.01
-80.22
-83.89
-82.92
-77.23
-67.69
-55.75
-42.88
-30.27
-18.60
-8.26
0.53
7.54
12.53
15.51
16.75
16.74
16.06
15.18
14.26
13.32
12.32
11.32
10.47
9.89
9.57
9.26
8.54
6.96
4.18
0.16
-4.78
-9.85
-13.99
-16.00
-14.98
-10.62
-3.42
5.39
14.17
21.39
26.07
27.99
27.64
25.90
23.63
21.44
19.50
17.70
15.84
13.85
11.93
10.38
9.51
9.34
9.60
9.82
9.46
8.24
6.05
2.98
-0.91
-5.69
-11.42
-17.93
-24.58
-30.19
-33.35
-32.93
-28.60
-21.04
-11.68
-2.28
5.69
11.45
14.86
16.22
15.89
14.15
11.17
7.22
2.68
-1.89
-6.00
-9.31
-11.83
-13.85
-15.74
-17.75
-19.86
-21.78
-23.07
-23.49
-23.20
-22.85
-23.34
-25.33
-28.80
-32.79
-35.64
-35.56
-31.33
-22.75
-10.66
3.31
17.35
29.76
39.33
45.49
48.34
48.63
47.58
46.43
46.16
47.05
48.74
50.44
51.44
51.29
49.97
47.86
45.43
43.00
40.62
37.82
33.62
26.93
16.79
2.92
-13.89
-31.62
-47.44
-58.44
-62.58
-59.25
-49.42
-35.20
-19.11
-3.51
9.84
19.96
26.37
29.02
28.14
24.22
17.94
10.09
1.36
-7.79
-17.12
-26.44
-35.52
-44.17
-52.28
-60.13
-68.03
-76.33
-85.18
-94.29
-102.94
-110.14
-114.86
-116.35
-114.38
-109.19
-101.48
-92.17
-82.05
-71.54
-60.46
-48.14
-33.82
-17.12
1.64
21.32
40.35
57.28
71.14
81.61
88.92
93.50
95.68
95.65
93.49
89.38
83.78
77.40
71.05
65.37
60.59
56.42
52.07
46.47
38.56
27.84
14.66
0.38
-12.80
-22.49
-26.79
-24.92
-17.43
-5.95
7.44
20.94
33.54
44.98
55.52
65.38
74.43
82.16
88.01
91.55
92.67
91.49
88.22
83.05
76.22
68.27
60.16
53.28
49.08
48.44
51.23
56.16
61.04
63.55
61.94
55.58
45.17
32.40
19.48
8.52
1.07
-2.20
-1.62
1.58
5.62
8.62
9.25
7.09
2.61
-3.41
-10.45
-18.71
-28.79
-40.96
-54.31
-66.63
-75.07
-77.59
-74.04
-66.48
-58.18
-52.05
-49.26
-48.91
-48.94
-47.50
-44.16
-40.16
-37.61
-38.20
-42.20
-48.19
-53.74
-56.46
-55.01
-49.48
-41.17
-31.83
-22.85
-14.90
-7.94
-1.72
3.92
8.75
12.34
14.34
14.68
13.61
11.53
8.75
5.38
1.35
-3.36
-8.69
-14.36
-20.13
-25.99
-32.24
-39.32
-47.53
-56.62
-65.72
-73.57
-78.92
-81.12
-80.33
-77.35
-73.23
-68.77
-64.27
-59.64
-54.56
-48.79
-42.12
-34.33
-25.03
-13.82
-0.49
14.68
30.75
46.22
59.43
69.02
74.33
75.52
73.58
70.07
66.76
65.23
66.55
70.98
77.93
86.18
94.19
100.46
104.00
104.45
102.31
98.70
95.06
92.58
91.76
92.16
92.58
91.51
87.68
80.54
70.43
58.41
45.87
34.12
23.90
15.27
7.70
0.36
-7.45
-16.03
-25.11
-34.08
-42.21
-48.96
-54.11
-57.74
-60.18
-61.91
-63.64
-66.13
-70.02
-75.46
-81.80
-87.57
-90.87
-90.09
-84.41
-74.19
-60.75
-45.95
-31.59
-19.06
-9.22
-2.43
1.29
2.28
1.18
-1.13
-3.80
-6.20
-8.15
-9.84
-11.62
-13.70
-16.00
-18.14
-19.71
-20.46
-20.49
-20.20
-20.14
-20.82
-22.60
-25.53
-29.46
-33.85
-37.93
-40.70
-41.21
-38.85
-33.59
-26.13
-17.59
-9.17
-1.76
4.20
8.65
11.68
13.32
13.65
12.76
10.94
8.56
5.87
3.08
0.24
-2.56
-5.12
-7.15
-8.42
-8.99
-9.17
-9.48
-10.38
-12.14
-14.80
-18.26
-22.23
-26.24
-29.57
-31.33
-30.63
-26.87
-19.99
-10.50
0.46
11.51
21.22
28.58
33.13
35.02
34.90
33.55
31.59
29.23
26.37
22.83
18.63
14.19
10.17
7.23
5.64
5.18
5.19
4.94
3.87
1.75
-1.34
-5.28
-9.99
-15.42
-21.34
-27.15
-31.84
-34.31
-33.75
-29.94
-23.40
-15.06
-5.90
3.35
12.27
20.49
27.41
32.13
33.72
31.67
26.33
19.05
11.84
6.72
5.11
7.37
12.82
20.15
27.83
34.62
39.72
42.71
43.50
42.28
39.48
35.71
31.53
27.29
22.84
17.50
10.73
2.53
-6.20
-13.73
-18.13
-18.09
-13.49
-5.60
3.53
11.86
18.02
21.54
22.74
22.33
21.10
19.58
18.04
16.50
14.86
12.89
10.32
6.84
2.23
-3.49
-10.02
-16.73
-22.88
-27.87
-31.69
-34.76
-37.91
-42.09
-47.94
-55.52
-64.23
-73.01
-80.62
-85.90
-88.02
-86.76
-82.69
-77.03
-71.40
-67.29
-65.60
-66.34
-68.56
-70.62
-70.72
-67.35
-59.73
-48.02
-33.20
-16.82
-0.57
14.23
26.90
37.41
46.35
54.64
63.19
72.54
82.42
91.71
98.56
101.12
98.24
90.11
78.23
65.04
53.09
44.33
39.73
39.25
42.15
47.36
53.85
60.74
67.45
73.61
78.81
82.59
84.29
83.20
78.97
71.91
63.05
53.93
46.16
40.85
38.54
38.97
41.12
43.25
43.34
39.75
32.09
21.53
10.40
1.01
-5.61
-10.24
-14.78
-20.92
-28.75
-36.56
-41.56
-41.31
-34.61
-21.57
-3.20
19.03
43.01
65.69
83.31
92.30
90.74
79.50
61.97
42.63
25.08
10.66
-1.39
-12.76
-24.63
-36.93
-48.71
-59.02
-67.72
-75.48
-83.21
-91.28
-99.16
-105.72
-109.81
-110.85
-108.84
-104.25
-97.50
-88.90
-78.74
-67.44
-55.69
-44.31
-34.03
-25.40
-18.63
-13.72
-10.55
-8.93
-8.64
-9.42
-10.99
-13.09
-15.59
-18.41
-21.51
-24.87
-28.44
-32.17
-35.89
-39.41
-42.45
-44.82
-46.29
-46.80
-46.48
-45.79
-45.48
-46.23
-48.22
-50.71
-52.09
-50.48
-44.51
-34.00
-20.06
-4.56
10.70
24.58
36.83
47.80
57.82
66.77
73.94
78.36
79.16
76.13
69.78
61.10
51.23
41.01
30.87
20.93
11.32
2.36
-5.51
-11.97
-17.20
-21.98
-27.48
-34.76
-44.35
-55.94
-68.38
-79.94
-88.77
-93.27
-92.45
-86.17
-75.08
-60.48
-44.08
-27.55
-12.28
0.81
11.47
20.09
27.46
34.53
42.00
50.11
58.63
66.98
74.56
80.96
85.98
89.64
92.13
93.79
95.09
96.50
98.33
100.39
101.96
101.84
98.87
92.55
83.42
73.10
63.71
57.01
53.82
53.67
55.11
56.37
56.11
53.77
49.69
44.69
39.63
35.09
31.29
28.24
26.01
24.73
24.45
24.86
25.22
24.48
21.79
17.01
10.73
3.97
-2.45
-8.37
-14.43
-21.69
-31.02
-42.46
-55.04
-66.96
-76.16
-81.15
-81.43
-77.47
-70.22
-60.45
-48.35
-33.73
-16.69
1.72
19.24
33.08
41.03
42.61
39.16
33.12
26.71
21.05
16.03
10.99
5.38
-0.88
-7.56
-14.59
-22.23
-30.85
-40.51
-50.62
-60.06
-67.69
-73.07
-76.70
-79.69
-83.09
-87.15
-91.13
-93.55
-92.88
-88.20
-79.44
-67.48
-53.70
-39.59
-26.45
-15.24
-6.54
-0.64
2.45
3.08
1.85
-0.47
-3.19
-5.74
-7.89
-9.44
-10.26
-10.17
-8.91
-6.30
-2.29
2.88
8.53
13.52
16.53
16.34
12.27
4.50
-5.97
-17.42
-27.82
-35.25
-38.30
-36.43
-30.07
-20.51
-9.64
0.69
9.05
14.84
18.18
19.58
19.49
18.05
15.24
11.14
6.13
0.94
-3.56
-6.73
-8.29
-8.52
-7.99
-7.39
-7.19
-7.62
-8.58
-9.91
-11.53
-13.57
-16.25
-19.71
-23.75
-27.55
-29.91
-29.53
-25.50
-17.64
-6.60
6.47
20.12
33.02
44.21
53.12
59.69
64.22
67.37
69.96
72.84
76.67
81.72
87.73
93.92
99.18
102.43
102.99
100.81
96.36
90.40
83.52
76.01
67.78
58.74
49.13
39.62
31.18
24.64
20.38
18.20
17.64
18.17
19.40
20.93
22.24
22.69
21.62
18.83
14.71
10.17
6.16
3.10
0.51
-2.77
-7.91
-15.38
-24.57
-34.01
-42.05
-47.50
-50.06
-50.19
-48.72
-46.39
-43.74
-41.10
-38.88
-37.59
-37.73
-39.58
-42.98
-47.45
-52.55
-58.27
-65.18
-73.99
-84.69
-95.94
-105.07
-108.99
-105.53
-94.52
-77.87
-58.50
-39.03
-20.77
-3.82
12.08
26.52
38.13
45.12
46.35
42.18
34.48
25.78
18.19
12.73
9.33
7.16
5.33
3.22
0.44
-3.32
-8.39
-15.01
-23.06
-31.95
-40.72
-48.27
-53.66
-56.31
-55.98
-52.73
-46.99
-39.51
-31.43
-24.17
-19.07
-17.22
-19.30
-25.44
-35.25
-47.77
-61.48
-74.39
-84.21
-88.87
-86.99
-78.28
-63.61
-44.95
-24.99
-6.58
7.80
16.79
20.61
21.38
22.59
27.98
39.87
58.06
79.72
100.38
115.97
124.61
127.39
127.63
128.92
133.14
139.48
145.10
146.86
143.14
134.67
124.06
114.28
107.21
103.19
101.39
100.78
100.90
101.95
104.08
106.83
109.04
109.53
107.99
105.23
102.63
100.88
99.20
95.39
87.06
73.13
54.73
34.70
16.21
1.15
-10.56
-20.39
-30.06
-40.41
-51.23
-61.69
-71.04
-78.91
-85.12
-89.27
-90.68
-88.65
-83.03
-74.64
-65.15
-56.52
-50.24
-46.80
-45.56
-45.15
-44.19
-41.95
-38.67
-35.37
-33.30
-33.18
-34.77
-36.86
-37.71
-35.75
-30.14
-21.03
-9.55
2.59
13.27
20.30
21.69
15.98
2.71
-17.21
-41.42
-66.37
-87.96
-102.53
-107.77
-103.54
-91.98
-77.08
-63.39
-54.68
-52.54
-56.10
-62.69
-69.21
-73.61
-75.49
-75.72
-75.36
-75.07
-75.00
-75.03
-75.15
-75.37
-75.67
-75.70
-75.02
-73.46
-71.53
-70.30
-70.82
-73.54
-78.07
-83.48
-88.82
-93.38
-96.55
-97.51
-95.01
-87.92
-75.81
-59.54
-41.01
-22.52
-5.92
7.73
18.31
26.33
32.45
37.30
41.51
45.78
50.75
56.75
63.64
70.73
77.15
82.34
86.42
90.11
94.33
99.57
105.56
111.30
115.43
116.67
114.21
107.82
98.02
86.02
73.60
62.86
55.68
53.15
55.17
60.43
66.95
72.74
76.59
78.26
78.27
77.28
75.63
73.12
69.25
63.71
56.70
48.86
40.93
33.43
26.52
20.20
14.47
9.50
5.45
2.19
-0.81
-4.37
-9.28
-16.06
-24.79
-35.09
-46.31
-57.48
-67.36
-74.59
-77.93
-76.74
-71.25
-62.59
-52.42
-42.39
-33.68
-26.80
-21.73
-18.27
-16.23
-15.58
-16.37
-18.51
-21.63
-25.19
-28.57
-31.33
-33.30
-34.57
-35.36
-35.87
-36.24
-36.64
-37.25
-38.33
-40.14
-42.83
-46.32
-50.26
-54.03
-56.74
-57.43
-55.35
-50.25
-42.56
-33.39
-24.02
-15.34
-7.44
0.48
9.67
21.12
35.05
50.74
66.80
81.61
93.74
102.21
106.54
106.69
103.02
96.20
87.07
76.60
65.68
54.94
44.58
34.39
23.91
12.77
0.79
-11.98
-25.33
-38.93
-52.17
-64.05
-73.18
-78.06
-77.78
-72.29
-62.64
-50.51
-37.60
-25.18
-14.02
-4.68
2.13
5.45
4.56
-0.57
-9.06
-19.46
-30.38
-40.94
-50.70
-59.27
-66.05
-70.30
-71.62
-70.42
-67.96
-65.70
-64.60
-64.63
-64.98
-64.73
-63.55
-61.89
-60.49
-59.54
-58.25
-55.03
-48.32
-37.38
-22.62
-5.32
12.84
30.26
45.63
58.04
67.01
72.63
75.70
77.65
80.11
84.24
90.28
97.49
104.45
109.70
112.40
112.43
110.25
106.46
101.44
95.31
88.02
79.66
70.54
61.13
51.81
42.84
34.42
26.88
20.91
17.36
16.89
19.50
24.41
30.17
35.09
37.82
37.65
34.60
29.27
22.46
14.91
7.09
-0.85
-9.06
-17.86
-27.54
-38.02
-48.70
-58.46
-65.99
-70.23
-70.82
-68.22
-63.57
-58.37
-53.94
-51.31
-50.90
-52.59
-55.65
-58.80
-60.38
-58.75
-52.79
-42.51
-29.09
-14.61
-1.40
8.95
15.95
20.31
23.26
25.79
28.16
29.84
29.93
27.79
23.41
17.34
10.45
3.40
-3.46
-10.05
-16.32
-22.10
-27.14
-31.32
-34.84
-38.37
-42.73
-48.67
-56.42
-65.46
-74.54
-81.81
-85.31
-83.44
-75.48
-61.78
-44.11
-25.26
-8.41
3.87
10.50
12.09
10.52
7.83
5.12
2.22
-1.87
-7.84
-15.28
-22.60
-27.82
-29.65
-28.13
-24.34
-19.62
-14.69
-9.46
-3.51
3.36
10.65
17.64
23.86
29.61
36.01
44.34
55.44
69.28
85.13
101.91
118.51
133.84
146.75
156.14
161.23
161.94
158.94
153.25
145.60
135.87
123.34
107.30
87.94
66.65
45.65
26.80
10.86
-2.91
-16.08
-29.89
-44.50
-59.01
-72.17
-83.26
-92.59
-101.00
-109.09
-116.22
-120.13
-117.70
-106.38
-85.72
-58.14
-28.42
-2.03
16.93
27.18
30.35
29.70
28.32
27.55
26.81
24.51
19.52
12.10
3.89
-3.11
-7.69
-9.93
-10.82
-11.51
-12.53
-13.61
-14.30
-14.46
-14.80
-16.55
-20.82
-27.82
-36.54
-45.04
-51.14
-53.30
-51.16
-45.60
-38.33
-31.25
-25.83
-22.68
-21.58
-21.74
-22.32
-22.74
-22.89
-23.05
-23.67
-25.08
-27.36
-30.22
-33.01
-34.84
-35.00
-33.30
-30.33
-27.31
-25.73
-26.68
-30.48
-36.60
-43.91
-51.13
-57.01
-60.29
-59.69
-54.01
-42.64
-26.05
-5.88
15.63
36.57
56.10
74.53
92.42
109.66
124.92
136.10
141.52
140.88
135.73
128.78
122.72
119.00
117.57
117.19
116.33
114.04
110.22
105.46
100.52
95.77
91.02
85.67
78.92
70.31
59.86
48.11
35.98
24.50
14.66
7.29
3.07
2.33
4.93
10.01
16.07
21.19
23.55
21.92
16.00
6.42
-5.54
-18.27
-30.25
-40.22
-47.29
-51.01
-51.39
-48.84
-44.28
-38.88
-33.85
-30.41
-29.43
-31.34
-35.98
-42.54
-49.73
-56.08
-60.36
-61.88
-60.70
-57.42
-52.86
-47.81
-42.84
-38.39
-34.92
-33.06
-33.40
-36.28
-41.47
-48.02
-54.40
-58.85
-59.84
-56.46
-48.80
-37.90
-25.51
-13.51
-3.51
3.50
7.11
7.17
3.69
-3.20
-12.91
-24.06
-34.48
-41.76
-44.00
-40.61
-32.50
-21.70
-10.53
-0.74
6.84
12.29
16.13
18.86
20.71
21.55
21.08
19.00
15.38
10.65
5.65
1.38
-1.41
-2.62
-3.05
-4.06
-7.18
-13.52
-23.40
-36.41
-51.55
-67.46
-82.46
-94.61
-101.90
-102.77
-96.69
-84.52
-68.31
-50.88
-34.97
-22.70
-15.18
-12.61
-14.48
-19.67
-26.40
-32.35
-34.84
-31.47
-20.72
-2.68
20.99
47.33
72.88
94.56
110.29
119.28
121.98
119.56
113.48
105.17
95.99
87.29
80.55
77.15
78.17
83.94
93.77
106.08
118.85
130.23
139.10
145.12
148.46
149.24
147.07
140.99
129.98
113.62
92.56
68.56
43.98
21.00
1.07
-15.40
-28.69
-39.29
-47.53
-53.44
-56.95
-58.31
-58.29
-58.13
-59.05
-61.91
-66.76
-72.76
-78.44
-82.14
-82.47
-78.71
-71.13
-60.82
-49.45
-38.73
-29.90
-23.48
-19.29
-16.84
-15.69
-15.77
-17.25
-20.12
-23.96
-27.82
-30.69
-31.90
-31.45
-29.97
-28.25
-26.75
-25.38
-23.73
-21.52
-18.99
-16.84
-15.89
-16.50
-18.13
-19.50
-19.03
-15.71
-9.74
-2.47
4.21
8.72
10.51
10.09
8.52
6.77
5.16
3.44
1.15
-1.96
-5.79
-10.05
-14.50
-19.11
-23.87
-28.53
-32.43
-34.60
-34.05
-30.29
-23.63
-15.38
-7.63
-2.70
-2.37
-7.26
-16.64
-28.91
-42.30
-55.37
-67.28
-77.39
-84.97
-89.16
-89.29
-85.41
-78.51
-70.29
-62.43
-55.99
-51.11
-47.05
-42.81
-37.50
-30.57
-21.87
-11.54
0.18
12.94
26.41
40.36
54.61
68.94
82.95
95.98
107.16
115.78
121.60
124.94
126.53
127.00
126.39
124.13
119.39
111.86
102.31
92.67
85.37
82.32
83.92
88.81
94.17
96.69
93.61
83.48
66.52
44.40
19.78
-4.47
-25.89
-42.84
-54.69
-61.74
-64.80
-64.91
-63.13
-60.38
-57.44
-54.90
-53.08
-52.08
-51.77
-51.95
-52.48
-53.32
-54.39
-55.34
-55.52
-54.01
-49.87
-42.55
-32.04
-18.95
-4.39
10.37
24.14
35.85
44.53
49.37
49.76
45.54
37.33
26.60
15.23
5.02
-2.88
-8.40
-12.18
-15.09
-17.64
-19.84
-21.42
-22.34
-23.07
-24.45
-27.28
-31.86
-37.79
-44.06
-49.39
-52.52
-52.47
-48.75
-41.40
-31.18
-19.42
-7.82
2.16
9.57
14.23
16.47
16.84
15.74
13.38
10.03
5.91
1.38
-3.20
-7.60
-11.70
-15.43
-18.68
-21.30
-23.14
-24.28
-24.93
-25.54
-26.62
-28.52
-31.42
-35.18
-39.29
-42.83
-44.62
-43.47
-38.69
-30.41
-19.65
-8.09
2.58
11.19
17.49
21.86
25.00
27.35
28.86
29.20
28.05
25.50
22.09
18.55
15.50
13.14
11.20
9.13
6.44
2.98
-1.00
-5.03
-8.77
-12.26
-16.00
-20.59
-26.36
-33.02
-39.51
-44.30
-45.92
-43.54
-37.29
-28.18
-17.68
-7.32
1.74
8.68
13.01
14.56
13.44
10.14
5.40
-0.02
-5.74
-11.87
-18.97
-27.59
-37.85
-49.11
-60.09
-69.18
-74.86
-76.16
-72.84
-65.57
-55.88
-45.81
-37.44
-32.19
-30.15
-29.95
-29.22
-25.40
-16.79
-3.15
14.25
33.19
51.30
66.78
78.77
87.31
92.95
96.37
98.03
98.11
96.54
93.40
88.96
83.75
78.37
73.25
68.48
63.87
59.26
54.90
51.59
50.44
52.21
56.63
62.20
66.57
67.64
64.55
58.23
51.13
46.28
46.32
52.51
64.47
80.18
96.49
109.87
117.28
117.08
109.42
96.15
80.02
63.64
48.65
35.55
24.05
13.66
4.08
-4.88
-13.39
-21.77
-30.27
-38.73
-46.51
-52.70
-56.74
-58.81
-60.07
-62.14
-66.36
-73.15
-81.79
-90.63
-97.73
-101.44
-100.79
-95.71
-86.85
-75.50
-63.32
-52.12
-43.51
-38.42
-36.81
-37.53
-38.75
-38.67
-36.45
-32.60
-28.87
-27.36
-29.49
-35.20
-42.88
-50.16
-54.96
-56.44
-55.30
-53.38
-52.87
-55.46
-61.70
-70.90
-81.45
-91.28
-98.47
-101.74
-100.53
-95.03
-85.86
-73.76
-59.22
-42.62
-24.35
-5.11
13.78
30.61
43.71
52.01
55.45
54.83
51.44
46.51
41.08
36.00
32.18
30.62
31.99
36.31
42.72
49.94
56.87
63.05
68.54
73.41
77.24
79.05
77.97
73.95
68.28
63.17
60.97
63.27
70.51
81.93
95.90
110.04
121.41
126.96
124.21
112.28
92.55
68.47
44.48
24.56
10.87
3.40
0.39
-0.53
-1.42
-3.42
-6.78
-11.18
-15.99
-20.57
-24.37
-27.05
-28.56
-29.24
-29.77
-30.94
-33.33
-37.01
-41.36
-45.31
-47.68
-47.67
-45.20
-40.87
-35.70
-30.60
-26.00
-21.98
-18.55
-15.97
-14.97
-16.37
-20.59
-27.18
-34.70
-41.08
-44.42
-43.71
-39.13
-32.03
-24.35
-17.98
-14.17
-13.43
-15.66
-20.37
-26.87
-34.07
-40.47
-44.23
-43.74
-38.30
-28.66
-16.78
-5.18
4.06
10.07
13.16
14.46
15.14
15.87
16.68
17.17
16.86
15.44
12.87
9.32
5.29
1.44
-1.56
-3.19
-3.41
-2.72
-2.07
-2.57
-5.30
-10.90
-19.38
-29.99
-41.24
-51.09
-57.50
-58.98
-55.09
-46.67
-35.54
-23.85
-13.42
-5.23
0.56
4.41
6.93
8.61
9.73
10.43
10.75
10.79
10.65
10.42
10.24
10.18
10.31
10.58
10.85
10.80
9.99
7.99
4.40
-0.98
-7.99
-16.03
-23.99
-30.46
-34.07
-34.00
-30.29
-23.82
-15.98
-8.24
-1.71
2.90
5.23
5.06
2.18
-3.56
-12.01
-22.60
-34.33
-45.92
-56.11
-63.79
-68.17
-68.80
-65.44
-58.13
-47.15
-33.19
-17.33
-1.04
14.12
26.96
37.10
45.21
52.80
61.55
72.70
86.64
102.83
120.14
137.28
153.07
166.45
176.39
181.86
182.08
176.73
166.11
151.14
132.98
112.66
90.88
68.03
44.54
21.24
-0.69
-19.94
-35.43
-46.82
-54.64
-60.06
-64.52
-69.06
-73.93
-78.47
-81.45
-81.52
-77.80
-70.11
-59.02
-45.64
-31.36
-17.60
-5.57
3.86
10.34
13.96
15.22
14.71
12.89
10.00
6.10
1.34
-3.77
-8.55
-12.36
-14.92
-16.46
-17.58
-18.83
-20.55
-22.86
-25.72
-29.13
-33.07
-37.25
-41.01
-43.32
-43.03
-39.38
-32.42
-23.00
-12.58
-2.81
5.00
10.13
12.42
12.16
9.83
5.95
1.00
-4.59
-10.31
-15.57
-19.78
-22.41
-23.25
-22.43
-20.45
-17.90
-15.35
-13.20
-11.77
-11.39
-12.46
-15.34
-19.94
-25.48
-30.51
-33.29
-32.42
-27.40
-18.77
-7.88
3.66
14.44
23.55
30.49
35.03
37.10
36.75
34.29
30.22
25.16
19.72
14.39
9.59
5.69
2.97
1.49
1.05
1.16
1.16
0.49
-1.21
-4.00
-7.73
-12.18
-17.07
-21.96
-26.18
-28.84
-29.00
-25.87
-19.19
-9.29
2.96
16.29
29.35
40.98
50.26
56.54
59.36
58.38
53.54
45.23
34.48
23.07
13.09
6.33
3.58
4.21
6.49
8.31
8.10
5.33
0.45
-5.75
-12.78
-20.78
-30.13
-40.92
-52.41
-63.05
-70.99
-74.82
-74.32
-70.56
-65.48
-61.15
-59.10
-59.83
-62.86
-67.08
-71.13
-73.78
-73.87
-70.35
-62.28
-49.10
-30.97
-9.10
14.46
37.20
56.90
72.13
82.42
88.11
89.97
88.97
86.01
81.89
77.24
72.59
68.40
65.30
64.20
66.24
72.26
82.24
94.92
108.12
119.44
127.22
131.06
131.59
129.75
126.05
120.33
112.22
101.73
89.63
77.19
65.42
54.39
43.25
30.93
17.05
2.51
-10.81
-20.94
-26.83
-28.95
-29.13
-29.75
-32.66
-38.42
-46.15
-53.89
-59.45
-61.14
-58.33
-51.37
-41.29
-29.26
-16.48
-4.04
6.94
15.38
20.46
21.78
19.62
14.66
7.63
-0.94
-10.67
-21.03
-31.13
-39.81
-46.03
-49.47
-50.70
-51.06
-51.98
-54.46
-58.74
-64.43
-70.73
-76.64
-81.03
-82.70
-80.59
-74.21
-64.04
-51.46
-38.40
-26.54
-16.70
-8.72
-1.99
3.89
8.64
11.30
11.00
7.54
1.77
-4.83
-10.89
-15.74
-19.40
-22.24
-24.45
-25.78
-25.83
-24.43
-22.08
-19.78
-18.74
-19.83
-23.25
-28.38
-33.93
-38.33
-40.00
-37.74
-31.17
-20.89
-8.41
4.04
14.14
20.19
21.41
18.26
12.18
5.09
-1.18
-5.51
-7.78
-8.68
-9.35
-10.64
-12.72
-15.09
-17.10
-18.39
-19.12
-19.72
-20.41
-20.97
-20.90
-19.81
-18.04
-16.56
-16.47
-18.27
-21.33
-23.99
-24.33
-21.18
-14.73
-6.47
1.41
7.22
10.27
11.02
10.54
9.67
8.50
6.29
2.12
-4.45
-12.74
-21.24
-28.19
-32.37
-33.73
-33.20
-32.12
-31.57
-32.00
-33.20
-34.76
-36.58
-39.07
-42.86
-48.26
-54.63
-60.12
-62.12
-58.07
-46.54
-27.95
-4.50
20.37
43.08
60.99
72.89
79.01
80.37
78.23
73.56
67.15
59.77
52.44
46.31
42.24
40.38
39.88
39.32
37.39
33.69
29.04
25.13
23.69
25.52
30.01
35.28
38.95
39.01
34.79
27.24
18.82
12.81
12.13
18.57
32.09
50.86
71.83
91.56
107.03
116.31
118.89
115.57
108.22
99.00
89.85
81.92
75.44
69.92
64.61
59.19
53.94
49.69
47.30
46.98
48.01
48.72
47.17
41.92
32.73
20.60
7.36
-5.19
-16.13
-25.56
-34.23
-42.87
-51.55
-59.61
-66.08
-70.18
-71.67
-70.89
-68.41
-64.87
-60.80
-56.74
-53.40
-51.54
-51.77
-54.18
-58.26
-62.98
-67.26
-70.24
-71.54
-71.09
-68.92
-65.22
-60.51
-55.76
-52.18
-50.94
-52.50
-56.41
-61.55
-66.56
-70.33
-72.26
-72.11
-69.74
-65.08
-58.17
-49.54
-40.30
-31.80
-25.14
-20.72
-18.15
-16.61
-15.44
-14.40
-13.61
-13.26
-13.23
-13.02
-11.79
-8.71
-3.14
5.16
16.05
28.99
43.09
57.27
70.39
81.39
89.52
94.35
95.72
93.85
89.25
82.77
75.55
68.78
63.54
60.55
59.97
61.46
64.31
67.48
69.76
70.11
67.89
63.14
56.62
49.32
42.15
35.45
29.01
22.46
15.60
8.71
2.34
-2.98
-7.06
-10.02
-12.18
-13.85
-15.24
-16.41
-17.53
-18.98
-21.25
-24.76
-29.45
-34.60
-38.96
-41.14
-40.12
-35.69
-28.45
-19.49
-10.03
-0.84
7.68
15.34
21.87
26.71
29.27
29.25
27.06
23.65
20.24
17.64
15.94
14.54
12.63
9.72
6.01
2.19
-1.01
-3.47
-5.78
-8.97
-13.72
-19.90
-26.62
-32.56
-36.63
-38.44
-37.95
-35.04
-29.56
-21.78
-13.10
-5.73
-1.83
-2.50
-7.21
-14.17
-21.53
-28.35
-34.90
-41.98
-49.81
-57.55
-63.76
-67.38
-68.55
-68.56
-69.04
-70.92
-74.01
-77.41
-80.30
-82.50
-84.44
-86.66
-89.67
-93.50
-97.45
-100.42
-101.06
-98.24
-91.26
-80.06
-65.31
-48.13
-29.67
-10.72
8.30
27.23
45.78
63.30
78.70
90.80
98.63
101.82
100.58
95.47
87.36
77.22
66.18
55.47
46.24
39.29
34.84
32.52
31.52
30.83
29.56
27.11
23.34
18.60
13.84
10.51
10.21
14.09
22.24
33.49
45.65
56.32
63.72
67.21
67.29
65.04
61.48
57.18
52.32
47.07
41.92
37.73
35.44
35.58
37.99
41.68
45.27
47.36
46.96
43.80
38.15
30.60
21.77
12.20
2.38
-6.98
-14.89
-20.19
-21.92
-19.75
-14.20
-6.56
1.48
8.29
12.65
13.87
11.77
6.66
-0.67
-9.05
-17.13
-23.79
-28.54
-31.50
-33.33
-34.76
-36.24
-37.85
-39.37
-40.59
-41.54
-42.43
-43.52
-45.04
-47.08
-49.59
-52.32
-54.82
-56.39
-56.20
-53.60
-48.47
-41.23
-32.79
-24.16
-16.20
-9.52
-4.55
-1.61
-0.65
-1.11
-1.79
-1.17
1.89
7.53
14.66
21.42
25.96
27.24
25.33
21.11
15.68
9.82
3.85
-2.17
-8.27
-14.32
-20.12
-25.46
-30.08
-33.61
-35.38
-34.49
-30.02
-21.49
-9.19
5.69
21.18
35.10
45.74
52.32
55.03
54.61
51.79
46.78
39.31
29.01
15.97
1.09
-14.16
-28.27
-40.43
-50.70
-59.88
-68.89
-78.20
-87.58
-96.24
-103.52
-109.07
-112.91
-115.15
-115.34
-112.32
-104.48
-90.64
-70.76
-46.06
-18.56
9.64
36.76
61.24
81.43
95.61
102.35
101.45
94.41
84.30
74.76
68.51
66.35
67.24
69.10
70.16
69.72
68.26
66.77
66.01
66.12
66.83
67.63
68.11
68.08
67.36
65.63
62.47
57.70
51.74
45.63
40.90
38.93
40.40
45.10
51.96
59.53
66.31
70.96
72.44
69.93
63.13
52.31
38.43
22.88
7.17
-7.41
-20.09
-30.60
-39.01
-45.47
-50.06
-52.85
-54.00
-53.87
-53.01
-52.02
-51.43
-51.56
-52.53
-54.17
-55.90
-56.81
-55.73
-51.68
-44.18
-33.53
-20.80
-7.44
5.18
15.99
24.37
29.96
32.53
32.01
28.73
23.48
17.45
11.88
7.58
4.70
2.71
0.78
-1.84
-5.43
-9.74
-14.17
-18.14
-21.45
-24.40
-27.67
-32.00
-37.87
-45.22
-53.47
-61.67
-68.72
-73.56
-75.48
-74.14
-69.65
-62.70
-54.36
-45.80
-38.09
-31.86
-27.27
-24.10
-22.01
-20.75
-20.18
-20.16
-20.45
-20.81
-20.99
-20.80
-20.13
-18.78
-16.52
-13.19
-8.86
-3.93
0.99
5.26
8.36
9.86
9.34
6.40
0.88
-6.65
-14.89
-21.95
-25.88
-25.61
-21.35
-14.44
-6.72
0.26
5.70
9.48
11.99
13.74
15.15
16.61
18.38
20.49
22.63
24.17
24.41
22.99
20.14
16.40
12.19
7.28
0.98
-7.33
-17.52
-28.59
-39.21
-48.70
-57.70
-67.74
-80.07
-94.23
-107.51
-115.73
-114.93
-103.29
-81.93
-54.51
-25.78
-0.13
19.57
32.23
38.28
39.34
37.51
35.05
33.86
35.12
39.15
45.41
52.86
60.38
67.18
73.04
78.24
83.28
88.55
94.05
99.27
103.26
104.94
103.35
97.91
88.67
76.40
62.64
49.55
39.64
35.41
38.73
50.21
68.64
91.07
113.26
130.67
139.50
137.55
124.71
102.75
74.69
44.13
14.54
-11.26
-31.49
-45.55
-54.04
-58.39
-60.28
-61.12
-61.69
-62.33
-63.30
-64.95
-67.72
-71.84
-77.08
-82.73
-87.78
-91.28
-92.57
-91.18
-86.75
-78.92
-67.55
-53.07
-36.64
-19.94
-4.66
8.01
17.63
24.42
28.76
31.04
31.44
30.30
28.16
25.84
24.19
23.73
24.43
25.73
26.77
26.72
25.04
21.54
16.28
9.50
1.45
-7.45
-16.80
-26.12
-35.00
-43.22
-50.70
-57.38
-63.07
-67.33
-69.55
-69.11
-65.70
-59.57
-51.45
-42.38
-33.27
-24.75
-17.06
-10.20
-4.23
0.52
3.58
4.48
3.20
0.24
-3.46
-6.85
-9.22
-10.36
-10.59
-10.42
-10.34
-10.53
-10.85
-10.94
-10.36
-8.76
-6.05
-2.58
0.88
3.25
3.46
0.97
-3.95
-10.02
-15.42
-18.25
-17.28
-12.38
-4.47
4.89
14.03
21.72
27.30
30.63
31.87
31.15
28.64
24.50
19.08
13.10
7.42
2.86
-0.17
-1.82
-2.81
-3.99
-6.03
-9.10
-12.72
-16.17
-18.75
-20.20
-20.74
-20.92
-21.34
-22.44
-24.43
-27.33
-31.02
-35.27
-39.56
-43.05
-44.66
-43.23
-37.98
-28.84
-16.50
-2.38
11.85
24.62
34.75
41.56
44.88
44.89
42.04
37.02
30.76
24.38
19.09
15.78
14.76
15.61
17.36
18.99
19.86
19.93
19.62
19.51
19.87
20.63
21.44
21.84
21.36
19.51
15.72
9.75
1.89
-6.71
-14.25
-18.92
-19.63
-16.49
-10.62
-3.59
3.22
8.97
13.32
16.15
17.32
16.75
14.54
11.17
7.24
3.41
-0.03
-3.10
-6.11
-9.42
-13.28
-17.68
-22.45
-27.30
-31.88
-35.91
-39.26
-41.94
-44.20
-46.41
-48.90
-51.80
-54.98
-57.85
-59.52
-58.91
-54.98
-47.08
-35.06
-19.34
-0.83
19.22
39.36
58.11
74.20
86.82
95.80
101.66
105.49
108.46
111.52
115.06
118.83
122.26
124.80
126.11
126.12
124.81
122.08
117.71
111.46
103.20
93.08
81.46
68.84
55.68
42.34
29.01
15.92
3.34
-8.14
-17.74
-24.58
-28.08
-28.23
-25.65
-21.45
-16.81
-12.59
-9.05
-6.03
-3.33
-1.06
0.19
-0.33
-3.14
-8.20
-14.82
-22.03
-29.02
-35.43
-41.35
-47.08
-52.68
-57.89
-62.17
-65.02
-66.23
-66.14
-65.48
-65.09
-65.70
-67.74
-71.22
-75.72
-80.45
-84.34
-86.22
-85.04
-80.11
-71.40
-59.45
-45.47
-31.05
-17.81
-7.05
0.60
5.21
7.33
7.62
6.58
4.44
1.49
-1.78
-4.69
-6.57
-7.26
-7.28
-7.69
-9.39
-12.53
-16.22
-18.82
-18.87
-16.14
-11.99
-8.77
-8.78
-12.95
-20.40
-28.86
-35.63
-38.73
-37.22
-31.11
-20.83
-6.96
9.54
27.11
43.69
57.37
67.30
74.13
79.51
84.97
90.69
95.12
95.75
90.66
79.77
65.10
49.84
36.79
27.21
20.49
14.94
8.99
2.06
-5.28
-11.95
-17.14
-20.99
-24.52
-29.12
-35.83
-44.78
-55.12
-65.46
-74.34
-80.73
-84.26
-84.96
-82.96
-78.38
-71.57
-63.38
-55.12
-48.10
-42.94
-39.04
-34.84
-28.60
-19.46
-8.12
3.46
13.06
19.23
21.83
21.73
20.13
17.88
15.50
13.39
12.12
12.32
14.24
17.44
20.83
23.07
23.06
20.47
16.01
11.27
8.38
9.63
16.77
30.50
50.07
73.40
97.59
119.80
138.04
151.43
160.00
164.19
164.43
160.95
153.98
143.82
130.94
115.81
98.86
80.47
61.12
41.48
22.48
5.02
-10.19
-22.81
-33.02
-41.33
-48.26
-53.88
-57.69
-58.84
-56.82
-52.05
-46.12
-41.10
-38.63
-38.98
-40.92
-42.38
-41.54
-37.79
-31.81
-25.03
-18.74
-13.65
-10.03
-8.04
-8.05
-10.41
-14.98
-20.92
-26.94
-31.98
-35.74
-38.81
-42.20
-46.74
-52.52
-58.94
-64.83
-68.96
-70.32
-68.45
-63.58
-56.74
-49.67
-44.41
-42.55
-44.59
-49.53
-55.13
-58.69
-58.15
-52.64
-42.74
-30.01
-16.30
-3.22
8.20
17.32
23.72
27.02
26.96
23.71
18.17
11.83
6.35
2.84
1.36
1.03
0.56
-0.95
-3.53
-6.28
-7.96
-7.59
-4.93
-0.59
4.36
8.72
11.57
12.42
11.35
9.02
6.45
4.93
5.59
9.18
15.79
24.95
35.80
47.39
58.91
69.67
79.15
86.86
92.43
95.58
96.28
94.74
91.29
86.37
80.34
73.45
65.81
57.53
48.66
39.39
30.03
21.03
12.85
5.86
0.08
-4.80
-9.37
-14.28
-20.00
-26.60
-33.63
-40.17
-45.07
-47.22
-46.03
-41.65
-34.88
-26.91
-18.87
-11.52
-5.18
0.12
4.40
7.55
9.23
9.13
7.10
3.30
-1.77
-7.33
-12.54
-16.75
-19.63
-21.29
-22.19
-22.79
-23.43
-24.13
-24.71
-25.09
-25.40
-26.01
-27.36
-29.66
-32.90
-36.94
-41.63
-46.90
-52.53
-57.98
-62.17
-63.73
-61.42
-54.70
-44.02
-30.75
-16.74
-3.74
7.05
15.15
20.59
23.74
24.99
24.69
23.17
20.81
18.08
15.48
13.40
11.97
11.01
10.11
8.85
7.04
4.83
2.65
0.88
-0.35
-1.30
-2.50
-4.40
-7.14
-10.38
-13.52
-15.98
-17.52
-18.44
-19.50
-21.72
-25.95
-32.53
-40.90
-49.62
-56.56
-59.58
-57.17
-49.01
-36.15
-20.70
-5.15
8.40
18.79
25.80
29.99
32.14
32.85
32.39
30.79
28.07
24.39
20.20
16.12
12.86
10.97
10.82
12.48
15.64
19.56
23.13
25.05
24.25
20.25
13.42
4.95
-3.61
-10.90
-16.14
-19.37
-21.04
-21.72
-21.72
-21.00
-19.36
-16.50
-12.27
-6.60
0.47
8.80
17.98
27.26
35.65
42.24
46.66
49.42
51.72
54.86
59.42
64.86
69.58
71.70
70.01
64.48
56.02
45.67
33.80
19.96
3.63
-14.68
-32.69
-46.80
-53.64
-51.87
-43.30
-32.34
-24.15
-22.34
-27.35
-36.54
-45.68
-51.01
-50.92
-46.25
-39.56
-33.76
-31.14
-32.70
-38.28
-46.79
-56.59
-65.64
-71.78
-73.21
-68.97
-59.30
-45.49
-29.46
-13.17
1.93
14.94
25.42
33.17
38.15
40.59
41.02
40.24
39.08
38.11
37.53
37.18
36.76
36.19
35.67
35.67
36.70
38.99
42.37
46.31
50.14
53.40
55.99
58.13
60.29
62.90
66.10
69.63
72.73
74.37
73.58
69.87
63.57
55.85
48.38
42.81
40.05
39.88
40.98
41.51
39.85
35.26
28.04
19.11
9.51
-0.09
-9.52
-18.85
-27.89
-36.11
-42.64
-46.91
-49.09
-50.20
-51.68
-54.73
-59.72
-65.97
-72.09
-76.68
-78.88
-78.78
-77.31
-75.79
-75.38
-76.52
-78.74
-80.79
-81.16
-78.55
-72.32
-62.61
-50.16
-36.17
-22.01
-8.99
1.89
10.08
15.61
18.96
20.77
21.52
21.30
19.84
16.80
12.08
5.98
-0.75
-7.21
-12.47
-15.91
-17.42
-17.49
-17.22
-17.80
-19.93
-23.35
-26.93
-29.27
-29.60
-28.39
-27.35
-28.54
-33.27
-41.13
-49.98
-56.81
-58.98
-55.29
-46.36
-34.06
-20.48
-7.09
5.63
17.91
29.89
41.05
50.10
55.65
57.01
54.93
51.44
49.06
49.66
53.73
60.37
67.86
74.69
80.10
84.17
87.36
89.93
91.74
92.20
90.64
86.61
80.04
71.16
60.41
48.44
36.23
25.16
16.80
12.52
12.91
17.48
24.65
32.32
38.58
42.24
43.03
41.30
37.60
32.24
25.35
16.99
7.54
-2.24
-11.39
-19.07
-24.89
-28.99
-31.91
-34.33
-36.77
-39.49
-42.38
-45.08
-47.18
-48.42
-48.89
-49.07
-49.77
-51.81
-55.65
-61.07
-67.21
-72.65
-75.98
-76.17
-72.88
-66.46
-57.71
-47.64
-37.20
-27.19
-18.21
-10.79
-5.33
-2.12
-1.27
-2.56
-5.48
-9.27
-13.11
-16.39
-18.84
-20.61
-22.16
-23.99
-26.42
-29.47
-32.84
-36.01
-38.53
-40.21
-41.24
-42.07
-43.12
-44.57
-46.07
-46.86
-46.01
-42.86
-37.23
-29.52
-20.41
-10.53
-0.22
10.42
21.29
31.98
41.68
49.33
54.00
55.19
53.09
48.56
42.88
37.35
32.95
30.17
29.04
29.22
30.17
31.31
32.07
32.06
31.07
29.02
25.96
21.78
16.32
9.27
0.39
-10.42
-22.97
-36.78
-50.99
-64.40
-75.50
-82.60
-84.29
-79.95
-70.18
-56.80
-42.36
-29.45
-19.89
-14.40
-12.68
-13.76
-16.45
-19.61
-22.30
-23.82
-23.79
-22.19
-19.33
-15.71
-11.75
-7.59
-3.01
2.40
8.96
16.57
24.66
32.32
38.62
43.02
45.43
46.15
45.64
44.40
42.99
42.20
43.03
46.44
52.86
61.79
71.78
80.97
87.83
91.83
93.57
94.28
95.06
96.27
97.48
97.77
96.43
93.18
88.36
82.62
76.66
70.95
65.68
60.83
56.24
51.67
46.81
41.27
34.61
26.51
16.83
5.64
-6.82
-20.16
-33.88
-47.25
-59.31
-68.94
-75.01
-76.81
-74.21
-67.80
-58.72
-48.31
-37.82
-28.22
-20.12
-13.88
-9.71
-7.65
-7.62
-9.33
-12.36
-16.17
-20.17
-23.86
-26.85
-29.06
-30.69
-32.09
-33.58
-35.23
-36.76
-37.67
-37.51
-36.18
-34.09
-32.11
-31.38
-32.91
-37.25
-44.18
-52.62
-60.89
-66.99
-69.16
-66.40
-58.82
-47.49
-34.14
-20.60
-8.28
1.99
10.02
15.99
20.19
22.87
24.13
24.01
22.55
20.01
16.79
13.47
10.61
8.64
7.69
7.61
8.02
8.48
8.62
8.19
7.15
5.50
3.23
0.33
-3.29
-7.66
-12.74
-18.51
-24.87
-31.66
-38.67
-45.38
-50.88
-53.98
-53.30
-47.78
-37.15
-22.09
-4.21
14.34
31.48
45.66
56.08
62.65
65.67
65.67
63.14
58.55
52.42
45.37
38.16
31.61
26.42
23.02
21.48
21.54
22.67
24.23
25.53
25.96
25.06
22.70
19.07
14.76
10.52
7.02
4.53
2.74
0.78
-2.49
-7.98
-15.86
-25.28
-34.39
-40.85
-42.58
-38.51
-28.89
-15.12
0.82
17.11
32.42
46.00
57.61
67.47
76.09
84.17
92.45
101.37
110.82
120.27
129.27
138.25
148.67
162.50
180.69
201.86
221.85
234.82
235.17
219.85
189.71
149.35
105.62
65.36
33.09
9.76
-7.09
-21.89
-38.83
-60.11
-85.20
-111.47
-135.44
-154.27
-166.47
-171.78
-170.78
-164.74
-155.71
-146.50
-140.11
-138.57
-141.95
-148.20
-154.18
-157.10
-155.72
-150.53
-142.86
-133.79
-123.75
-112.87
-101.59
-91.03
-82.55
-76.86
-73.49
-70.73
-66.52
-59.55
-49.91
-38.98
-28.74
-20.89
-16.17
-14.33
-14.57
-16.07
-18.30
-20.96
-23.56
-25.30
-24.99
-21.45
-13.95
-2.39
12.70
30.27
49.09
67.92
85.46
100.46
111.75
118.51
120.53
118.40
113.45
107.48
102.21
98.90
97.91
98.58
99.36
98.22
93.32
83.52
68.83
50.36
30.02
9.93
-8.09
-22.80
-33.71
-40.93
-45.07
-47.11
-48.28
-49.88
-52.88
-57.64
-63.64
-69.50
-73.47
-74.04
-70.60
-63.67
-54.66
-45.37
-37.35
-31.49
-27.86
-26.08
-25.78
-26.96
-29.96
-35.21
-42.74
-51.99
-61.78
-70.53
-76.66
-78.85
-76.40
-69.13
-57.55
-42.90
-27.30
-13.29
-3.04
2.37
3.27
0.88
-3.08
-7.15
-10.46
-13.08
-15.31
-17.14
-18.03
-17.26
-14.79
-10.80
-5.35
1.82
10.23
18.78
25.79
29.32
27.68
19.29
4.37
-14.79
-34.06
-50.12
-60.93
-66.11
-66.80
-65.44
-65.95
-71.25
-81.93
-95.50
-109.04
-119.66
-125.27
-124.97
-113.28
-90.00
-59.94
-34.15
-13.91
2.48
17.90
33.74
51.16
71.40
95.13
123.69
158.36
199.44
243.04
282.14
308.86
317.72
307.67
281.79
246.79
210.35
178.84
154.37
136.01
121.65
109.72
99.39
89.47
78.59
65.22
48.65
28.66
6.18
-17.03
-39.01
-58.68
-76.40
-93.25
-110.07
-126.40
-140.80
-150.91
-154.42
-150.05
-138.40
-121.99
-104.41
-89.00
-77.75
-70.98
-67.61
-65.78
-63.69
-60.14
-54.76
-47.97
-40.72
-34.01
-28.44
-23.83
-19.23
-13.57
-6.68
0.19
4.72
4.85
0.43
-6.00
-9.94
-6.81
5.63
25.79
48.59
67.34
76.40
73.22
59.07
38.18
15.93
-2.94
-15.66
-21.59
-21.86
-18.39
-13.11
-7.34
-1.88
2.76
6.16
7.95
7.93
6.14
2.97
-1.09
-5.48
-9.75
-13.58
-16.75
-19.10
-20.53
-21.03
-20.57
-19.27
-17.29
-14.86
-12.43
-10.63
-10.45
-12.95
-19.02
-28.90
-42.00
-56.83
-71.31
-83.38
-91.48
-95.00
-94.12
-89.57
-82.17
-72.52
-61.08
-48.45
-35.62
-23.83
-14.34
-7.74
-3.72
-1.02
2.06
6.91
14.10
23.12
32.78
41.67
48.87
54.19
58.07
61.28
64.48
68.00
71.83
75.76
79.46
82.48
84.18
83.73
80.42
73.91
64.66
53.99
43.80
35.91
31.54
30.86
33.06
36.73
40.39
42.91
43.76
42.89
40.54
36.95
32.21
26.37
19.58
12.26
5.07
-1.27
-6.22
-9.57
-11.39
-12.00
-11.79
-11.29
-11.12
-11.99
-14.55
-19.18
-25.83
-33.99
-42.82
-51.23
-58.03
-62.05
-62.31
-58.37
-50.53
-39.95
-28.41
-17.68
-8.98
-2.54
2.40
6.95
11.91
17.34
22.52
26.39
28.27
28.04
26.05
22.66
17.86
11.51
3.84
-4.18
-10.95
-14.89
-15.45
-13.49
-10.88
-9.56
-10.51
-13.44
-17.29
-21.07
-24.33
-27.01
-28.81
-28.72
-25.15
-16.60
-2.59
15.89
36.54
56.42
72.68
83.37
87.79
86.45
80.86
73.01
64.72
57.24
50.94
45.52
40.41
35.20
29.84
24.61
19.91
15.98
12.82
10.22
7.90
5.47
2.44
-1.77
-7.52
-14.54
-21.60
-26.68
-27.60
-23.07
-13.32
-0.25
13.41
25.08
33.28
37.77
39.02
37.45
33.00
25.49
15.18
3.25
-8.31
-17.57
-23.50
-26.49
-28.05
-29.99
-33.49
-38.64
-44.62
-50.28
-54.87
-58.33
-61.18
-64.12
-67.65
-71.86
-76.40
-80.70
-83.95
-85.29
-83.83
-78.83
-69.92
-57.36
-42.05
-25.40
-9.00
5.67
17.54
25.97
30.75
32.03
30.29
26.30
21.03
15.52
10.60
6.77
4.13
2.52
1.68
1.46
1.76
2.48
3.45
4.36
4.85
4.56
3.31
1.09
-1.86
-4.98
-7.38
-7.99
-5.76
-0.16
8.59
19.55
31.30
42.51
52.32
60.34
66.55
70.96
73.39
73.59
71.49
67.40
61.95
55.95
50.00
44.33
38.88
33.52
28.28
23.49
19.65
17.16
16.08
16.01
16.09
15.26
12.53
7.35
-0.25
-9.59
-19.38
-27.99
-33.86
-35.75
-33.20
-26.61
-17.21
-6.70
3.25
11.49
17.44
21.13
22.76
22.46
20.28
16.30
10.97
4.98
-0.79
-5.70
-9.58
-12.66
-15.32
-17.80
-20.12
-22.11
-23.66
-24.82
-25.81
-26.82
-28.10
-29.93
-32.65
-36.50
-41.32
-46.33
-50.11
-51.05
-47.91
-40.39
-29.31
-16.27
-3.08
8.87
18.88
26.85
32.95
37.21
39.43
39.30
36.66
31.81
25.49
18.79
12.67
7.67
3.69
0.20
-3.33
-7.07
-10.70
-13.56
-15.07
-15.08
-14.04
-12.80
-12.30
-13.26
-15.98
-20.36
-25.95
-31.99
-37.48
-41.24
-42.10
-39.28
-32.57
-22.52
-10.24
2.85
15.36
26.15
34.39
39.55
41.32
39.71
35.15
28.49
21.08
14.37
9.61
7.41
7.56
9.17
11.00
12.06
11.88
10.66
8.95
7.23
5.64
3.87
1.40
-2.29
-7.42
-13.89
-21.28
-28.88
-35.75
-40.82
-43.04
-41.63
-36.36
-27.67
-16.55
-4.29
7.68
18.11
26.06
30.96
32.85
32.39
30.66
28.91
27.95
27.97
28.48
28.72
28.08
26.43
23.90
20.68
16.77
12.02
6.38
-0.01
-6.80
-13.80
-21.28
-29.87
-40.20
-52.27
-65.05
-76.74
-85.33
-89.47
-88.86
-84.17
-76.54
-66.97
-56.07
-44.24
-31.95
-19.89
-8.80
0.96
9.68
18.22
27.43
37.42
47.15
54.54
57.44
54.58
46.47
35.37
24.50
16.57
12.39
10.56
8.13
2.31
-8.32
-23.22
-40.39
-57.68
-73.51
-86.72
-95.67
-98.01
-91.40
-75.17
-51.66
-26.04
-4.43
8.87
13.24
11.74
8.94
8.46
11.22
15.74
19.67
21.43
21.13
20.16
20.14
21.88
25.14
28.99
32.47
35.18
37.38
39.96
43.74
48.94
55.00
60.65
64.39
65.01
62.06
56.12
48.57
41.25
35.95
34.04
36.15
42.11
51.10
62.04
73.80
85.50
96.48
106.18
114.10
119.66
122.34
121.80
117.96
111.12
101.99
91.58
81.05
71.46
63.50
57.21
51.99
46.78
40.56
32.68
23.08
12.10
0.20
-12.32
-25.29
-38.44
-51.22
-62.76
-72.10
-78.54
-81.90
-82.50
-80.96
-78.08
-74.65
-71.58
-69.78
-70.07
-72.81
-77.66
-83.58
-89.25
-93.52
-95.75
-95.78
-93.63
-89.26
-82.64
-74.09
-64.68
-55.95
-49.43
-45.77
-44.25
-43.17
-40.84
-36.58
-31.10
-26.21
-23.89
-25.50
-31.09
-39.53
-48.83
-56.69
-61.02
-60.46
-54.64
-44.17
-30.42
-14.91
1.00
16.32
30.13
41.35
48.71
51.19
48.57
41.89
33.33
25.36
19.83
17.49
17.86
19.70
21.80
23.57
25.28
27.69
31.58
37.33
44.61
52.54
60.00
65.97
69.78
71.23
70.56
68.33
65.26
62.03
59.13
56.75
54.76
52.65
49.76
45.33
38.88
30.51
21.04
11.87
4.46
-0.17
-2.00
-2.04
-1.91
-3.12
-6.49
-11.96
-18.77
-25.99
-32.96
-39.37
-45.17
-50.27
-54.42
-57.23
-58.56
-58.79
-59.06
-60.97
-66.10
-75.13
-87.27
-99.98
-109.53
-112.01
-104.56
-86.36
-59.04
-26.29
7.11
36.54
58.59
71.84
76.88
75.81
71.44
66.23
61.68
58.02
54.47
49.74
42.67
32.73
20.21
6.19
-7.83
-20.33
-30.31
-37.72
-43.55
-49.43
-56.84
-66.49
-77.90
-89.67
-99.90
-106.96
-109.69
-107.59
-100.65
-89.21
-74.11
-56.66
-38.68
-22.15
-8.70
0.81
6.44
8.92
9.12
7.73
5.09
1.49
-2.71
-6.87
-10.15
-11.85
-11.61
-9.56
-6.16
-1.95
2.59
7.09
11.25
14.79
17.43
18.92
19.14
18.08
16.07
13.73
11.97
11.87
14.35
19.91
28.42
39.11
50.83
62.40
72.84
81.58
88.32
92.95
95.36
95.50
93.22
88.52
81.56
72.75
62.69
51.99
41.11
30.22
19.46
9.05
-0.48
-8.40
-14.08
-17.44
-19.13
-20.41
-22.70
-27.05
-33.78
-42.36
-51.63
-59.98
-65.70
-67.37
-64.14
-56.11
-44.42
-30.95
-17.79
-6.50
2.28
8.79
13.65
17.36
19.93
21.02
20.36
18.10
14.87
11.55
8.78
6.71
5.00
3.14
0.76
-2.11
-5.07
-7.61
-9.39
-10.37
-10.85
-11.30
-12.34
-14.50
-18.20
-23.66
-30.65
-38.32
-45.18
-49.38
-49.26
-43.95
-33.71
-19.94
-4.70
9.98
22.52
32.09
38.55
42.13
43.12
41.83
38.52
33.51
27.33
20.69
14.37
9.05
5.14
2.69
1.41
0.86
0.62
0.41
0.03
-0.63
-1.74
-3.43
-5.77
-8.61
-11.67
-14.61
-17.15
-19.17
-20.65
-21.51
-21.46
-20.05
-16.79
-11.34
-3.79
5.28
14.89
23.88
31.19
36.07
38.22
37.88
35.67
32.39
28.66
24.66
20.01
14.05
6.25
-3.36
-13.98
-24.27
-32.82
-38.69
-41.65
-42.14
-40.92
-38.70
-35.99
-33.13
-30.39
-28.06
-26.55
-26.21
-27.23
-29.61
-33.10
-37.25
-41.40
-44.53
-45.33
-42.40
-34.79
-22.37
-6.26
11.66
29.24
44.70
57.18
66.51
72.62
75.09
73.20
66.68
56.38
44.31
32.84
23.69
17.17
12.28
7.55
1.96
-4.54
-11.26
-17.39
-22.53
-26.77
-30.44
-33.70
-36.42
-38.38
-39.50
-40.14
-41.05
-43.12
-46.91
-52.35
-58.14
-61.74
-60.04
-50.44
-32.03
-6.16
23.92
54.16
81.11
102.78
118.78
129.70
136.44
139.84
140.59
139.40
137.00
133.96
130.51
126.44
121.27
114.54
106.17
96.51
86.17
75.86
66.04
56.89
48.29
40.02
31.85
23.72
15.63
7.63
-0.31
-8.33
-16.58
-25.03
-33.17
-39.97
-44.08
-44.31
-40.22
-32.46
-22.58
-12.53
-3.97
2.25
6.00
7.63
7.41
5.37
1.42
-4.40
-11.55
-19.08
-25.94
-31.45
-35.53
-38.65
-41.43
-44.30
-47.31
-50.08
-52.17
-53.31
-53.63
-53.57
-53.86
-55.20
-58.07
-62.61
-68.44
-74.71
-80.08
-83.06
-82.32
-77.19
-67.80
-55.09
-40.56
-25.87
-12.49
-1.47
6.59
11.44
13.18
12.03
8.57
3.62
-1.78
-6.57
-9.96
-11.73
-12.32
-12.65
-13.66
-15.85
-19.01
-22.31
-24.76
-25.71
-25.26
-24.19
-23.64
-24.63
-27.72
-32.87
-39.43
-46.31
-52.12
-55.35
-54.65
-49.22
-39.11
-25.34
-9.74
5.61
18.93
29.06
35.60
38.67
38.66
36.05
31.47
25.67
19.54
13.96
9.51
6.30
4.00
2.11
0.15
-2.07
-4.42
-6.61
-8.38
-9.62
-10.49
-11.41
-12.98
-15.88
-20.61
-27.19
-35.07
-42.96
-49.07
-51.63
-49.39
-42.07
-30.45
-16.13
-1.05
13.08
25.16
34.76
42.00
47.16
50.47
51.94
51.48
49.08
45.01
39.87
34.46
29.44
25.15
21.44
17.81
13.80
9.27
4.56
0.42
-2.47
-3.88
-4.16
-4.18
-5.01
-7.58
-12.37
-19.36
-27.96
-37.04
-45.08
-50.39
-51.46
-47.44
-38.38
-25.23
-9.65
6.45
21.40
34.01
43.63
50.10
53.62
54.54
53.38
50.60
46.62
41.77
36.36
30.82
25.71
21.54
18.63
16.93
16.00
15.23
14.01
12.04
9.38
6.33
3.19
0.13
-2.98
-6.36
-10.20
-14.64
-19.77
-25.70
-32.52
-40.06
-47.63
-53.97
-57.44
-56.53
-50.51
-39.79
-25.88
-10.91
3.05
14.51
22.83
28.04
30.50
30.59
28.61
24.77
19.43
13.13
6.71
1.06
-3.01
-5.01
-4.97
-3.33
-0.91
1.38
2.86
3.31
3.01
2.61
2.96
4.58
7.49
11.10
14.30
15.83
14.64
10.18
2.66
-6.88
-16.60
-24.16
-27.20
-24.09
-14.63
-0.19
16.63
32.83
46.04
55.08
59.98
61.46
60.25
56.78
51.09
43.28
33.72
23.21
12.74
3.19
-4.91
-11.57
-17.07
-21.90
-26.54
-31.28
-36.26
-41.38
-46.38
-50.85
-54.47
-57.08
-58.95
-60.71
-63.12
-66.72
-71.45
-76.40
-79.98
-80.49
-76.68
-68.34
-56.35
-42.33
-27.95
-14.46
-2.38
8.25
17.66
25.95
33.03
38.69
42.75
45.27
46.52
47.11
47.92
49.89
53.83
60.08
68.27
77.38
86.02
92.81
96.77
97.53
95.14
89.94
82.29
72.55
61.16
48.70
36.00
24.04
13.82
6.24
1.90
0.99
3.24
7.88
13.80
19.75
24.54
27.34
27.75
25.83
22.02
16.94
11.24
5.37
-0.37
-5.70
-10.39
-14.13
-16.56
-17.53
-17.15
-15.85
-14.13
-12.29
-10.21
-7.39
-3.26
2.34
8.94
15.43
20.44
22.80
21.90
17.86
11.53
4.34
-1.94
-5.54
-5.15
-0.32
8.34
19.29
30.66
40.86
49.03
54.96
58.74
60.38
59.66
56.33
50.52
42.89
34.54
26.57
19.60
13.62
8.08
2.35
-3.84
-10.31
-16.57
-22.14
-26.82
-30.78
-34.34
-37.87
-41.63
-45.91
-51.06
-57.35
-64.73
-72.47
-79.19
-83.22
-83.17
-78.49
-69.63
-57.85
-44.66
-31.43
-19.10
-8.35
0.30
6.38
9.47
9.45
6.66
1.88
-3.83
-9.37
-13.91
-17.06
-18.92
-19.98
-20.76
-21.65
-22.66
-23.58
-24.12
-24.18
-24.01
-24.08
-24.99
-27.21
-30.95
-36.13
-42.29
-48.59
-53.84
-56.66
-55.76
-50.43
-40.83
-28.14
-14.15
-0.78
10.51
19.05
24.83
28.25
29.65
29.23
27.00
23.11
17.99
12.42
7.30
3.36
0.87
-0.45
-1.21
-2.04
-3.26
-4.80
-6.23
-7.18
-7.51
-7.54
-7.92
-9.31
-12.23
-16.83
-22.88
-29.85
-36.98
-43.30
-47.68
-49.05
-46.64
-40.34
-30.86
-19.48
-7.70
3.20
12.56
20.18
26.22
30.77
33.79
35.06
34.50
32.29
28.93
25.15
21.67
18.97
17.28
16.45
16.15
15.93
15.44
14.51
13.18
11.61
10.00
8.44
6.84
4.85
1.98
-2.36
-8.57
-16.58
-25.72
-34.60
-41.40
-44.32
-42.15
-34.61
-22.54
-7.53
8.52
23.85
37.11
47.45
54.40
57.80
57.74
54.67
49.39
42.96
36.60
31.34
27.78
26.00
25.49
25.39
24.74
22.86
19.46
14.80
9.56
4.57
0.45
-2.63
-5.15
-8.06
-12.35
-18.57
-26.64
-35.76
-44.71
-52.25
-57.29
-59.12
-57.34
-51.89
-43.11
-31.85
-19.44
-7.49
2.46
9.27
12.33
11.59
7.36
0.19
-9.04
-19.11
-28.52
-35.87
-40.33
-42.00
-41.92
-41.60
-42.35
-44.61
-47.67
-49.91
-49.58
-45.48
-37.59
-27.10
-15.95
-6.17
0.88
4.99
7.02
8.66
11.71
17.52
26.59
38.62
52.66
67.52
82.05
95.34
106.84
116.31
123.73
129.06
132.12
132.58
130.06
124.41
115.84
105.05
92.98
80.44
67.85
55.12
41.93
28.10
14.04
0.69
-10.69
-19.15
-24.45
-27.21
-28.69
-30.29
-33.05
-37.32
-42.71
-48.29
-52.85
-55.36
-55.27
-52.62
-48.05
-42.53
-37.08
-32.34
-28.42
-24.89
-21.04
-16.23
-10.31
-3.74
2.33
6.43
7.18
3.83
-3.40
-13.42
-24.63
-35.48
-44.95
-52.63
-58.56
-62.91
-65.88
-67.56
-68.21
-68.26
-68.35
-69.10
-70.90
-73.73
-77.17
-80.38
-82.29
-81.75
-77.88
-70.19
-58.87
-44.67
-28.60
-11.67
5.37
22.11
38.22
53.34
67.02
78.73
88.10
95.02
99.72
102.66
104.29
104.88
104.41
102.59
98.99
93.32
85.65
76.55
66.85
57.44
48.76
40.67
32.51
23.46
12.91
0.69
-12.81
-26.71
-39.75
-50.48
-57.47
-59.76
-57.16
-50.34
-40.83
-30.45
-20.73
-12.62
-6.38
-1.94
0.77
1.61
0.30
-3.25
-8.66
-15.00
-21.02
-25.62
-28.25
-29.17
-29.20
-29.36
-30.39
-32.39
-34.94
-37.53
-39.97
-42.47
-45.39
-48.88
-52.75
-56.66
-60.36
-63.75
-66.65
-68.29
-67.24
-61.78
-50.81
-34.80
-16.09
1.79
15.46
23.13
25.26
24.12
22.56
22.56
24.50
27.32
29.32
29.29
27.12
23.85
20.79
18.80
17.73
16.61
14.34
10.42
5.18
-0.37
-5.25
-9.00
-11.94
-14.85
-18.51
-23.17
-28.47
-33.53
-37.31
-38.96
-37.93
-34.04
-27.23
-17.44
-4.57
11.38
30.02
50.34
70.66
88.95
103.31
112.57
116.56
116.05
112.44
107.21
101.55
96.21
91.46
87.28
83.46
79.69
75.62
70.97
65.45
58.94
51.39
42.78
33.04
22.09
9.90
-3.34
-16.92
-29.61
-39.78
-45.86
-46.84
-42.74
-34.61
-24.25
-13.56
-4.03
3.56
8.98
12.22
13.19
11.74
7.86
1.97
-4.95
-11.68
-17.17
-20.96
-23.27
-24.74
-26.02
-27.41
-28.88
-30.20
-31.20
-31.94
-32.60
-33.39
-34.49
-36.03
-38.12
-40.84
-44.11
-47.42
-49.85
-50.17
-47.28
-40.68
-30.75
-18.79
-6.66
3.75
11.11
14.87
15.27
12.99
8.80
3.25
-3.36
-10.65
-18.14
-25.15
-30.95
-35.22
-38.29
-40.97
-44.08
-47.71
-51.12
-53.15
-53.06
-51.13
-48.86
-48.24
-50.82
-56.99
-65.75
-75.20
-83.25
-88.13
-88.55
-83.68
-73.15
-57.33
-37.59
-16.09
4.68
22.69
36.94
47.28
53.93
57.22
57.14
53.59
46.84
37.73
27.74
18.68
11.96
8.27
7.48
8.74
11.03
13.65
16.23
18.80
21.42
23.98
26.21
27.90
29.09
30.01
30.86
31.46
31.12
29.01
24.64
18.37
11.47
5.54
1.88
1.02
2.63
5.92
10.09
14.54
18.84
22.44
24.65
24.77
22.51
18.30
13.26
8.85
6.29
6.13
8.04
11.06
14.03
15.99
16.44
15.32
12.91
9.56
5.55
1.06
-3.87
-9.25
-15.03
-20.96
-26.54
-31.11
-34.03
-34.98
-34.12
-32.11
-29.80
-27.70
-25.68
-22.80
-17.61
-8.86
3.95
20.16
38.07
55.45
70.24
81.08
87.55
90.15
89.92
88.20
86.27
85.23
85.74
87.96
91.45
95.27
98.32
99.62
98.71
95.77
91.46
86.61
81.88
77.54
73.38
68.94
63.65
57.15
49.31
40.29
30.46
20.28
10.19
0.61
-8.06
-15.41
-20.89
-23.97
-24.27
-21.84
-17.32
-11.88
-6.77
-2.99
-0.85
-0.17
-0.63
-2.34
-5.89
-12.09
-21.19
-32.44
-44.02
-53.64
-59.51
-61.02
-58.92
-54.80
-50.36
-46.66
-43.96
-41.96
-40.31
-38.91
-38.10
-38.34
-39.95
-42.83
-46.37
-49.64
-51.80
-52.43
-51.81
-50.83
-50.59
-51.85
-54.71
-58.35
-61.40
-62.32
-60.00
-54.15
-45.28
-34.47
-23.04
-12.11
-2.35
5.91
12.63
17.80
21.33
23.03
22.78
20.68
17.07
12.46
7.35
2.10
-3.13
-8.22
-12.89
-16.63
-18.82
-19.08
-17.47
-14.59
-11.35
-8.69
-7.37
-7.91
-10.62
-15.74
-23.30
-33.13
-44.62
-56.78
-68.42
-78.35
-85.78
-90.40
-92.35
-92.03
-89.90
-86.30
-81.40
-75.20
-67.60
-58.51
-47.97
-36.34
-24.41
-13.28
-4.17
1.98
4.85
4.83
2.86
0.02
-2.82
-5.24
-7.09
-8.38
-8.99
-8.76
-7.60
-5.59
-2.94
0.31
4.36
9.66
16.62
25.39
35.71
47.06
58.94
70.95
82.81
94.21
104.71
113.70
120.64
125.26
127.68
128.31
127.53
125.44
121.80
116.18
108.29
98.35
87.15
75.81
65.45
56.74
49.73
43.93
38.64
33.37
27.91
22.34
16.80
11.45
6.39
1.75
-2.33
-5.90
-9.26
-12.96
-17.54
-23.03
-28.67
-33.09
-34.74
-32.62
-26.66
-17.76
-7.45
2.62
11.15
17.35
20.81
21.40
19.11
14.04
6.55
-2.73
-12.90
-22.99
-32.27
-40.46
-47.74
-54.50
-60.99
-66.99
-71.82
-74.64
-75.00
-73.18
-70.12
-67.19
-65.62
-66.30
-69.43
-74.64
-80.95
-86.90
-90.80
-90.96
-86.19
-76.18
-61.69
-44.41
-26.47
-9.81
4.35
15.77
24.93
32.56
39.04
44.08
46.73
45.93
41.26
33.43
24.11
15.45
9.33
6.83
8.22
13.25
21.29
30.95
39.69
44.02
40.70
28.26
8.23
-15.07
-36.10
-50.43
-56.43
-55.52
-51.05
-46.73
-45.23
-47.43
-52.34
-57.65
-60.32
-57.56
-47.69
-31.09
-10.17
11.32
29.76
42.89
50.15
52.33
50.69
46.23
39.57
31.17
21.81
12.80
5.70
1.71
1.34
4.10
8.62
13.29
16.92
19.25
20.69
21.92
23.35
24.97
26.59
28.25
30.61
34.70
41.31
50.54
61.64
73.36
84.34
93.56
100.45
104.72
106.16
104.55
99.80
92.06
81.88
70.13
57.87
46.15
35.71
26.77
18.95
11.48
3.57
-5.19
-14.61
-23.95
-32.34
-39.26
-44.79
-49.69
-54.91
-61.06
-67.99
-74.68
-79.63
-81.38
-79.08
-72.67
-62.85
-50.72
-37.53
-24.68
-13.69
-6.12
-3.08
-4.70
-9.81
-16.20
-21.42
-23.75
-22.77
-19.31
-14.87
-10.77
-7.67
-5.46
-3.67
-1.73
0.66
3.55
6.84
10.29
13.48
15.69
15.96
13.39
7.51
-1.32
-11.75
-21.75
-29.18
-32.48
-31.16
-25.88
-18.07
-9.44
-1.53
4.46
7.76
8.04
5.49
0.96
-4.25
-8.77
-11.60
-12.57
-12.27
-11.66
-11.58
-12.35
-13.75
-15.29
-16.47
-17.05
-17.02
-16.56
-16.04
-16.22
-18.08
-22.56
-30.06
-39.87
-50.24
-59.10
-65.29
-69.23
-72.69
-77.57
-84.59
-92.63
-99.06
-101.18
-97.54
-88.52
-75.82
-61.36
-46.27
-30.80
-14.84
1.31
16.61
29.60
39.17
45.16
48.44
50.33
51.93
53.61
55.05
55.45
54.18
51.22
47.07
42.56
38.57
35.84
35.10
37.01
42.11
50.57
61.82
74.46
86.54
96.09
101.74
103.02
100.41
94.94
87.78
79.93
72.06
64.53
57.49
50.95
44.88
39.23
33.95
29.06
24.54
20.32
16.22
11.93
6.99
0.82
-7.09
-17.05
-29.00
-42.44
-56.51
-70.11
-82.01
-91.03
-96.30
-97.34
-94.17
-87.22
-77.22
-64.99
-51.37
-37.28
-23.66
-11.42
-1.28
6.47
12.02
16.01
19.12
21.75
23.70
24.24
22.39
17.43
9.19
-1.70
-13.98
-26.18
-37.15
-46.26
-53.38
-58.48
-61.07
-60.17
-54.70
-44.04
-28.77
-10.72
7.65
24.02
36.93
45.92
51.28
53.50
52.99
50.08
45.16
38.91
32.10
25.56
19.92
15.41
12.02
9.60
7.86
6.28
4.07
0.37
-5.27
-12.53
-20.33
-27.28
-32.28
-35.11
-36.46
-37.35
-38.45
-39.53
-39.44
-36.70
-30.35
-20.51
-8.36
4.56
17.13
29.01
40.42
51.55
61.98
70.52
75.64
76.33
72.94
67.35
62.35
60.51
63.18
70.06
79.55
89.64
98.64
105.61
110.12
111.95
110.92
106.85
99.75
90.09
78.79
66.85
55.13
44.11
33.95
24.70
16.51
9.79
5.05
2.75
3.03
5.59
9.68
14.18
17.87
19.69
19.05
15.97
11.07
5.24
-0.64
-6.06
-10.95
-15.59
-20.30
-25.17
-29.98
-34.31
-37.85
-40.68
-43.21
-46.12
-50.00
-55.11
-61.23
-67.68
-73.46
-77.53
-79.03
-77.49
-72.99
-66.14
-57.84
-49.09
-40.75
-33.43
-27.52
-23.30
-20.99
-20.73
-22.48
-25.90
-30.32
-34.88
-38.69
-41.19
-42.16
-41.79
-40.52
-38.78
-36.87
-34.88
-32.73
-30.37
-27.82
-25.28
-23.09
-21.64
-21.30
-22.37
-25.02
-29.08
-33.92
-38.41
-41.09
-40.61
-36.29
-28.41
-18.16
-7.17
3.01
11.38
17.59
21.73
24.02
24.64
23.71
21.44
18.23
14.67
11.40
8.95
7.59
7.30
7.79
8.62
9.25
9.27
8.41
6.65
4.19
1.36
-1.50
-4.16
-6.53
-8.75
-11.14
-14.22
-18.48
-24.24
-31.19
-38.35
-44.16
-46.94
-45.58
-39.90
-30.82
-19.91
-8.86
1.12
9.42
15.89
20.56
23.34
24.09
22.77
19.61
15.24
10.45
6.00
2.30
-0.51
-2.51
-3.67
-3.79
-2.53
0.41
5.13
11.50
19.16
27.49
35.57
42.13
45.55
44.21
37.18
24.81
9.05
-7.05
-20.18
-28.19
-30.65
-28.79
-24.73
-20.35
-16.57
-13.40
-10.68
-8.84
-8.73
-10.82
-14.63
-18.77
-21.71
-22.77
-22.59
-22.74
-24.51
-28.05
-32.07
-34.71
-34.56
-31.34
-25.88
-19.25
-12.03
-4.15
4.78
14.77
25.08
34.34
41.13
44.31
43.53
39.57
34.31
30.08
28.86
31.64
38.30
47.84
58.96
70.70
82.47
93.75
103.62
110.77
113.72
111.46
103.86
91.86
77.21
62.00
48.05
36.59
27.95
21.56
16.22
10.41
2.94
-6.65
-17.90
-29.67
-40.54
-49.43
-55.94
-60.44
-63.84
-67.24
-71.41
-76.47
-81.71
-85.81
-87.27
-84.97
-78.59
-68.71
-56.48
-43.27
-30.29
-18.44
-8.37
-0.50
4.84
7.52
7.65
5.57
1.76
-3.20
-8.83
-14.81
-20.92
-27.05
-33.06
-38.77
-43.85
-47.86
-50.30
-50.78
-49.19
-45.87
-41.61
-37.54
-34.86
-34.54
-36.95
-41.70
-47.55
-52.71
-55.31
-53.88
-47.86
-37.68
-24.60
-10.33
3.48
15.58
25.32
32.56
37.41
40.04
40.59
39.18
36.05
31.63
26.58
21.70
17.70
14.99
13.49
12.77
12.21
11.35
9.99
8.29
6.52
4.86
3.30
1.66
-0.36
-2.98
-6.34
-10.33
-14.64
-18.65
-21.43
-22.02
-19.62
-14.02
-5.59
4.85
16.42
28.52
40.83
53.09
64.74
74.85
82.37
86.64
87.77
86.67
84.64
82.77
81.46
80.40
78.87
76.25
72.32
67.33
61.84
56.47
51.76
48.00
45.20
43.06
40.98
38.15
33.81
27.48
19.24
9.92
0.88
-6.29
-10.28
-10.51
-7.27
-1.55
5.38
12.30
18.41
23.20
26.30
27.36
26.07
22.26
16.17
8.52
0.35
-7.22
-13.31
-17.61
-20.41
-22.52
-24.81
-27.80
-31.28
-34.38
-35.99
-35.46
-33.09
-30.27
-28.97
-30.72
-35.99
-43.75
-51.85
-57.89
-60.17
-58.28
-53.22
-46.88
-41.00
-36.35
-32.20
-26.53
-16.81
-1.44
19.29
42.89
65.21
81.99
90.56
90.73
84.63
75.75
67.95
64.67
68.37
79.64
96.35
113.28
123.44
121.10
105.27
81.51
60.11
51.27
59.46
80.47
102.83
113.22
102.68
70.51
24.10
-24.83
-65.25
-90.59
-100.05
-97.68
-89.93
-82.79
-79.98
-82.29
-88.26
-95.78
-103.50
-111.37
-119.95
-129.10
-137.23
-141.83
-140.88
-134.33
-124.57
-115.37
-110.12
-110.04
-113.55
-116.97
-116.14
-108.21
-92.77
-71.96
-49.65
-30.07
-16.47
-10.16
-10.36
-14.77
-20.47
-24.91
-26.51
-24.77
-19.92
-12.53
-3.26
7.24
18.17
28.59
37.44
43.82
47.13
47.30
44.73
40.26
34.95
29.89
25.90
23.42
22.33
22.11
21.98
21.31
19.83
17.82
15.92
14.89
15.17
16.62
18.53
19.86
19.73
17.88
14.86
12.01
11.05
13.62
20.77
32.63
48.44
66.68
85.36
102.48
116.30
125.64
129.97
129.52
125.07
117.84
109.07
99.70
90.19
80.32
69.50
56.98
42.30
25.50
7.21
-11.54
-29.50
-45.58
-59.01
-69.49
-77.27
-83.07
-87.86
-92.55
-97.72
-103.26
-108.36
-111.76
-112.04
-108.25
-100.18
-88.52
-74.66
-60.24
-46.68
-34.85
-25.15
-17.57
-12.03
-8.50
-6.95
-7.13
-8.47
-10.22
-11.81
-13.20
-15.04
-18.16
-23.04
-29.20
-35.25
-39.48
-40.65
-38.69
-34.64
-30.09
-26.42
-24.30
-23.82
-24.81
-27.20
-31.00
-35.85
-40.68
-43.78
-43.27
-38.01
-27.97
-14.40
0.67
15.20
27.76
37.68
44.83
49.25
50.89
49.68
45.78
39.70
32.51
25.45
19.65
15.70
13.57
12.74
12.47
12.05
10.89
8.63
5.25
1.04
-3.51
-7.97
-12.18
-16.30
-20.99
-27.07
-34.88
-43.59
-51.18
-55.08
-53.31
-45.33
-31.86
-15.11
1.97
16.90
28.53
37.16
43.75
49.02
53.18
56.85
60.42
63.97
67.40
70.64
73.61
76.25
78.82
82.67
91.28
107.71
132.46
162.50
192.08
214.82
226.18
225.03
208.29
179.59
147.84
122.23
106.84
99.82
96.57
93.12
87.50
79.05
69.61
61.28
54.87
49.55
43.06
32.24
15.93
-6.90
-36.60
-72.26
-112.94
-157.41
-202.61
-242.51
-269.48
-277.81
-268.03
-247.75
-228.39
-220.15
-226.71
-243.17
-258.86
-263.42
-252.53
-230.11
-205.09
-185.59
-175.02
-171.31
-169.33
-164.59
-155.44
-142.99
-129.56
-116.26
-102.01
-84.27
-61.02
-32.36
-1.02
28.49
51.80
66.30
72.26
72.53
71.25
72.15
77.19
86.18
97.16
107.59
115.40
119.94
122.05
123.63
126.62
132.03
139.35
146.74
151.67
152.00
146.77
136.44
122.57
107.20
92.30
79.31
69.20
62.50
59.38
59.60
62.45
66.80
71.18
74.14
74.44
71.25
64.31
53.95
41.11
27.14
13.45
1.19
-9.00
-16.93
-22.67
-26.31
-27.91
-27.60
-25.72
-22.97
-20.24
-18.35
-17.81
-18.81
-21.36
-25.56
-31.65
-39.87
-49.99
-60.98
-71.00
-77.71
-79.11
-74.19
-63.29
-48.00
-30.47
-12.88
3.12
16.41
26.25
32.00
33.27
30.02
22.76
12.63
1.11
-10.43
-21.03
-30.20
-37.91
-44.29
-49.45
-53.51
-56.62
-59.12
-61.38
-63.80
-66.57
-69.69
-72.99
-76.28
-79.44
-82.32
-84.41
-84.77
-81.98
-74.69
-62.29
-45.51
-26.28
-7.10
10.02
24.31
36.29
46.83
55.96
62.64
65.37
63.63
58.70
53.37
50.38
50.92
53.96
57.17
58.74
58.64
58.50
60.27
64.40
68.86
69.65
62.85
46.81
23.23
-3.51
-28.36
-47.52
-59.52
-65.09
-66.00
-63.66
-58.40
-49.78
-37.54
-22.49
-6.67
7.34
17.46
23.00
24.73
24.32
23.34
22.70
22.48
22.13
20.85
18.28
14.91
11.73
9.84
9.68
10.80
12.11
12.46
11.41
9.33
7.15
5.52
4.24
2.16
-2.07
-9.18
-18.40
-27.52
-33.65
-34.47
-29.31
-19.40
-7.30
4.20
13.23
19.25
22.89
25.14
26.71
27.84
28.51
28.87
29.46
31.02
34.09
38.73
44.44
50.51
56.24
61.25
65.51
69.15
72.27
74.85
76.64
77.32
76.63
74.40
70.65
65.62
59.82
54.05
49.35
46.81
47.22
50.79
57.03
64.96
73.46
81.46
88.06
92.45
93.77
91.37
85.02
75.25
63.46
51.41
40.67
32.11
25.69
20.62
15.74
9.94
2.44
-6.97
-17.91
-29.54
-40.81
-50.83
-59.22
-66.05
-71.56
-75.70
-77.89
-77.10
-72.32
-63.20
-50.36
-35.38
-20.33
-7.10
2.93
9.19
11.70
10.87
7.14
1.04
-6.80
-15.55
-24.26
-32.02
-38.30
-43.17
-47.13
-50.99
-55.28
-60.04
-64.66
-68.11
-69.55
-68.79
-66.72
-65.04
-65.72
-69.94
-77.35
-85.74
-91.60
-91.31
-82.29
-63.86
-37.21
-4.88
30.09
64.77
96.76
124.43
146.87
164.19
177.47
188.45
198.79
209.23
218.95
225.71
226.98
221.49
210.19
195.99
182.35
171.48
163.24
155.30
144.52
128.56
106.62
79.24
47.31
11.28
-28.61
-71.44
-114.59
-153.59
-183.34
-200.17
-203.47
-196.33
-184.43
-173.86
-169.03
-171.33
-179.01
-188.24
-194.77
-195.24
-188.07
-173.59
-153.65
-131.16
-109.34
-91.15
-78.64
-72.54
-72.15
-75.71
-81.11
-86.55
-91.04
-94.44
-97.14
-99.50
-101.38
-101.88
-99.52
-92.83
-81.03
-64.68
-45.47
-25.84
-8.09
6.24
16.71
23.74
28.17
30.75
31.81
31.24
28.62
23.44
15.26
4.14
-9.13
-22.96
-35.22
-44.05
-48.53
-48.99
-46.81
-43.67
-40.91
-39.19
-38.73
-39.72
-42.44
-46.80
-51.73
-54.82
-52.82
-42.96
-24.49
0.60
28.35
54.21
75.25
90.73
101.65
109.39
114.38
116.11
114.16
109.19
103.06
97.84
94.36
91.77
88.32
82.86
75.98
69.65
65.76
64.46
63.84
61.01
54.05
43.13
30.07
16.92
4.33
-8.71
-23.90
-41.77
-60.84
-77.82
-88.97
-92.27
-88.19
-79.81
-71.54
-67.24
-68.79
-75.64
-85.21
-94.13
-99.68
-100.60
-97.29
-91.29
-84.51
-78.46
-73.91
-70.90
-68.94
-67.45
-65.90
-63.99
-61.66
-58.90
-55.88
-52.81
-50.11
-48.25
-47.60
-48.03
-48.67
-47.95
-43.95
-35.11
-20.87
-2.02
19.44
40.93
60.02
75.17
85.98
93.05
97.61
100.91
103.72
106.21
107.99
108.43
107.03
103.74
99.09
94.01
89.59
86.56
85.06
84.46
83.55
80.82
74.99
65.37
52.22
36.79
21.07
7.37
-2.24
-6.42
-4.92
1.44
10.85
21.01
29.70
35.36
37.37
36.10
32.53
27.69
22.24
16.25
9.46
1.67
-6.94
-15.83
-24.28
-31.71
-37.84
-42.59
-45.94
-47.90
-48.56
-48.33
-47.99
-48.53
-50.80
-55.06
-60.72
-66.44
-70.47
-71.12
-67.29
-58.63
-45.80
-30.20
-13.71
1.75
14.63
24.08
29.95
32.58
32.55
30.45
26.80
22.08
16.87
11.73
7.19
3.48
0.49
-2.16
-4.84
-7.66
-10.45
-12.90
-14.83
-16.42
-18.20
-20.90
-25.21
-31.53
-39.63
-48.56
-56.58
-61.48
-61.20
-54.53
-41.68
-24.35
-5.18
13.12
28.63
40.60
49.23
55.12
58.73
60.02
58.76
54.87
48.84
41.76
35.06
29.87
26.62
24.89
23.69
22.01
19.33
15.84
12.09
8.69
5.85
3.33
0.60
-2.90
-7.49
-13.31
-20.39
-28.76
-38.12
-47.69
-55.99
-61.03
-60.92
-54.51
-42.07
-25.20
-6.41
11.77
27.56
40.18
49.69
56.45
60.72
62.46
61.59
58.35
53.43
47.90
42.85
39.02
36.65
35.56
35.38
35.79
36.49
37.27
37.85
37.93
37.24
35.63
33.11
29.80
25.81
21.20
16.00
10.27
4.12
-2.15
-8.25
-13.93
-19.10
-23.82
-28.30
-32.83
-37.60
-42.82
-48.67
-55.41
-63.21
-71.80
-80.15
-86.47
-88.52
-84.41
-73.41
-56.34
-35.43
-13.45
7.22
25.14
39.89
51.56
60.32
66.12
68.81
68.57
66.02
62.28
58.48
55.53
53.71
52.82
52.33
51.80
51.03
50.15
49.45
49.09
48.98
48.72
47.76
45.64
42.21
37.61
32.14
25.99
19.02
10.90
1.23
-10.10
-22.78
-36.08
-49.13
-61.05
-71.17
-79.11
-84.88
-88.98
-92.42
-96.55
-102.59
-111.07
-121.43
-131.83
-139.63
-142.12
-137.39
-124.87
-105.45
-81.20
-54.77
-28.85
-5.62
13.39
27.44
36.49
41.04
42.13
41.08
39.36
38.31
38.73
40.69
43.62
46.55
48.58
49.29
48.82
47.77
46.85
46.61
47.10
47.92
48.26
47.19
44.03
38.56
31.17
22.78
14.38
6.71
-0.05
-6.17
-12.15
-18.25
-24.33
-29.95
-34.60
-38.30
-41.57
-45.32
-50.31
-56.50
-62.73
-66.97
-66.96
-61.09
-49.19
-32.68
-14.17
3.32
17.24
26.02
29.28
27.66
22.66
16.30
10.80
8.02
9.02
13.65
20.55
27.58
32.63
34.38
32.88
29.49
26.26
25.18
27.45
33.17
41.42
50.63
59.14
65.59
69.25
70.03
68.30
64.71
59.85
54.20
48.12
41.93
36.02
30.86
26.80
23.81
21.52
19.30
16.72
14.00
12.15
12.79
17.76
28.42
45.27
67.64
93.70
120.75
145.51
164.81
176.35
179.50
175.76
168.48
161.72
158.53
159.61
162.90
164.47
160.22
147.50
125.92
97.16
64.03
29.63
-3.02
-31.06
-52.01
-64.33
-68.35
-66.74
-64.19
-65.65
-74.27
-90.15
-110.64
-132.00
-151.42
-167.77
-180.98
-190.59
-194.94
-191.76
-179.78
-160.29
-137.19
-115.36
-98.30
-86.58
-78.18
-70.26
-61.43
-52.64
-46.57
-45.70
-50.60
-59.38
-68.51
-74.50
-75.37
-71.33
-64.48
-57.58
-52.84
-51.02
-51.39
-52.47
-53.11
-53.20
-53.83
-56.48
-62.25
-71.00
-81.46
-91.80
-100.38
-106.15
-108.67
-107.71
-102.99
-94.13
-80.95
-63.86
-44.04
-23.20
-3.09
14.84
29.71
41.25
49.53
54.85
57.61
58.20
57.03
54.40
50.59
45.91
40.83
35.92
31.87
29.27
28.55
29.95
33.42
38.75
45.45
52.89
60.17
66.29
70.19
71.03
68.33
62.24
53.77
44.70
37.32
33.79
35.52
42.64
54.04
67.66
81.17
92.55
100.40
104.03
103.47
99.22
92.24
83.67
74.68
66.14
58.44
51.38
44.31
36.47
27.33
16.88
5.71
-5.14
-14.53
-21.58
-26.13
-28.75
-30.68
-33.44
-38.31
-45.98
-56.28
-68.08
-79.49
-88.23
-92.23
-90.29
-82.46
-70.00
-54.98
-39.64
-25.83
-14.72
-6.91
-2.71
-2.30
-5.82
-13.09
-23.41
-35.47
-47.61
-58.21
-66.10
-70.84
-72.50
-71.42
-67.94
-62.39
-55.24
-47.28
-39.56
-33.15
-28.73
-26.41
-25.79
-26.39
-28.04
-31.05
-35.99
-42.98
-50.93
-57.21
-58.15
-50.43
-32.61
-6.07
25.29
56.40
82.88
102.44
115.07
122.23
125.51
125.81
123.38
118.50
112.09
105.78
101.33
99.73
100.74
103.04
104.87
104.79
102.12
96.91
89.71
81.02
71.08
59.84
47.03
32.50
16.48
-0.27
-16.36
-30.00
-39.40
-43.17
-40.71
-32.43
-19.63
-4.22
11.67
26.11
37.63
45.23
48.38
46.98
41.29
32.09
20.60
8.30
-3.21
-12.67
-19.40
-23.51
-25.69
-26.91
-28.03
-29.53
-31.46
-33.66
-36.06
-38.85
-42.57
-47.98
-55.84
-66.41
-79.27
-93.02
-105.43
-113.97
-116.48
-111.96
-100.94
-85.49
-68.56
-53.13
-41.30
-33.85
-30.25
-29.18
-29.15
-29.02
-28.06
-25.97
-22.62
-18.03
-12.35
-5.93
0.77
7.23
13.04
17.88
21.47
23.48
23.70
22.05
18.83
14.61
10.00
5.40
0.86
-3.73
-8.23
-12.01
-13.96
-12.95
-8.39
-0.68
8.81
18.23
25.95
31.05
33.42
33.44
31.54
27.89
22.45
15.25
6.66
-2.44
-10.95
-17.82
-22.46
-24.81
-25.21
-24.12
-21.98
-19.19
-16.34
-14.41
-14.61
-18.00
-24.86
-34.14
-43.34
-49.07
-48.18
-39.00
-22.15
-0.45
22.04
41.55
55.87
64.87
70.07
73.66
77.40
82.04
87.42
92.88
97.69
101.31
103.29
103.26
101.06
96.94
91.66
86.24
81.43
77.18
72.53
66.06
56.70
44.49
30.71
17.59
7.56
2.55
3.49
10.19
21.54
35.84
51.18
65.85
78.57
88.63
95.69
99.59
100.15
96.96
89.64
78.04
62.49
43.97
23.88
3.81
-14.75
-30.75
-43.76
-54.03
-62.52
-70.60
-79.65
-90.61
-103.48
-117.23
-130.17
-140.58
-147.34
-150.26
-149.94
-147.18
-142.44
-135.82
-127.28
-117.50
-108.31
-102.16
-100.70
-103.21
-106.09
-104.11
-92.99
-71.91
-44.36
-16.78
4.38
15.49
16.90
12.04
5.12
-0.91
-5.17
-8.32
-11.27
-14.33
-17.28
-19.87
-22.50
-26.29
-32.65
-42.46
-55.40
-69.50
-81.47
-87.72
-85.60
-74.50
-56.19
-34.17
-12.33
6.38
20.74
31.06
38.35
43.50
46.84
48.26
47.75
45.88
43.69
42.23
41.88
42.19
41.99
40.19
36.38
31.16
25.86
21.80
19.59
18.74
17.95
15.84
11.64
5.67
-0.78
-5.92
-8.13
-6.45
-0.78
8.24
19.53
31.92
44.50
56.73
68.43
79.57
89.95
98.89
105.26
107.87
106.12
100.57
93.02
86.02
81.85
81.60
84.61
88.77
91.51
90.82
86.12
78.16
68.49
58.48
48.74
39.04
28.78
17.84
6.99
-2.00
-7.12
-6.94
-1.31
8.56
20.54
32.28
41.73
47.40
48.37
44.13
34.76
20.91
3.95
-14.27
-31.85
-47.17
-59.20
-67.47
-71.94
-72.88
-70.93
-67.21
-63.23
-60.55
-60.16
-62.22
-65.89
-69.87
-73.17
-75.49
-77.26
-79.05
-80.99
-82.28
-81.39
-76.82
-67.99
-55.67
-41.67
-28.08
-16.35
-6.90
0.63
6.70
11.42
14.33
14.94
13.10
9.33
4.58
-0.28
-4.81
-9.07
-13.19
-17.04
-20.08
-21.55
-21.16
-19.24
-16.73
-14.89
-14.80
-17.00
-21.49
-27.68
-34.46
-40.27
-43.31
-41.88
-34.91
-22.43
-5.71
12.97
31.05
46.30
57.39
63.94
66.33
65.25
61.51
55.92
49.29
42.39
35.90
30.15
25.09
20.35
15.48
10.27
4.96
0.06
-3.90
-6.77
-8.92
-11.20
-14.63
-20.04
-27.68
-36.93
-46.37
-54.05
-57.99
-56.93
-50.69
-40.39
-28.03
-15.83
-5.48
2.23
7.35
10.30
11.43
10.76
8.12
3.51
-2.60
-9.28
-15.44
-20.21
-23.33
-25.23
-26.68
-28.37
-30.51
-32.85
-34.95
-36.64
-38.24
-40.44
-43.85
-48.46
-53.56
-57.87
-60.00
-58.85
-53.78
-44.71
-32.04
-16.72
-0.28
15.38
28.49
37.88
43.46
46.08
47.09
47.60
47.99
47.83
46.21
42.20
35.46
26.40
16.12
6.16
-2.00
-7.36
-9.66
-9.36
-7.43
-4.97
-2.98
-2.22
-3.18
-6.11
-10.92
-17.19
-24.23
-31.23
-37.41
-42.03
-44.37
-43.61
-39.04
-30.33
-17.85
-2.74
13.45
29.29
44.00
57.44
69.78
80.99
90.60
97.86
102.21
103.74
103.18
101.54
99.55
97.32
94.37
90.04
83.97
76.43
68.21
60.36
53.79
48.97
45.89
44.11
42.96
41.77
40.12
37.93
35.61
33.86
33.49
35.02
38.27
42.40
46.06
47.95
47.28
43.98
38.57
31.84
24.42
16.70
8.79
0.79
-7.06
-14.42
-20.88
-26.22
-30.45
-33.85
-36.83
-39.82
-43.11
-46.76
-50.55
-53.95
-56.38
-57.39
-56.94
-55.61
-54.47
-54.83
-57.72
-63.37
-70.85
-78.27
-83.19
-83.55
-78.35
-68.00
-54.16
-39.04
-24.64
-12.19
-2.19
5.41
10.76
13.81
14.38
12.35
8.04
2.19
-4.07
-9.67
-13.88
-16.56
-18.18
-19.46
-21.01
-22.94
-24.93
-26.34
-26.69
-25.91
-24.50
-23.36
-23.47
-25.61
-30.12
-36.76
-44.67
-52.46
-58.30
-60.38
-57.32
-48.71
-35.31
-18.92
-1.80
13.97
27.05
36.90
43.61
47.46
48.64
47.16
43.04
36.67
28.94
21.12
14.48
9.80
7.09
5.62
4.36
2.51
-0.08
-2.96
-5.41
-6.94
-7.65
-8.26
-9.71
-12.75
-17.66
-24.20
-31.78
-39.59
-46.64
-51.71
-53.51
-50.96
-43.60
-31.96
-17.39
-1.78
13.11
26.02
36.24
43.43
47.33
47.71
44.54
38.24
29.82
20.75
12.57
6.37
2.46
0.27
-1.27
-3.24
-6.09
-9.42
-12.19
-13.23
-11.94
-8.72
-4.94
-2.43
-2.84
-7.03
-14.71
-24.62
-34.77
-43.06
-47.75
-47.80
-43.13
-34.53
-23.58
-12.25
-2.44
4.49
7.93
8.32
6.92
5.21
4.53
5.57
8.08
11.23
14.01
15.53
15.15
12.50
7.72
1.63
-4.41
-8.87
-10.68
-9.85
-7.55
-5.83
-6.72
-11.44
-19.90
-30.71
-41.70
-50.49
-55.19
-54.81
-49.42
-40.07
-28.41
-16.15
-4.63
5.45
13.97
20.72
25.36
27.52
27.01
24.16
19.80
15.02
10.65
6.97
3.72
0.52
-2.60
-4.98
-5.51
-3.20
2.22
9.86
17.88
23.99
26.21
23.59
16.38
6.08
-4.97
-14.16
-19.19
-18.53
-11.84
0.02
15.01
30.32
42.99
50.54
51.72
46.83
37.57
26.47
16.05
8.11
3.51
2.30
4.15
8.72
15.65
24.46
34.37
44.49
54.03
62.64
70.42
77.62
84.25
89.66
92.59
91.63
85.82
75.28
61.45
46.77
33.98
25.31
21.82
23.27
28.33
35.25
42.35
48.46
52.85
55.13
54.99
52.20
46.70
38.73
28.92
18.15
7.30
-2.96
-12.25
-20.48
-27.60
-33.53
-38.13
-41.23
-42.84
-43.23
-43.07
-43.39
-45.36
-49.85
-56.92
-65.48
-73.38
-78.06
-77.32
-70.15
-57.07
-39.86
-20.91
-2.49
13.64
26.30
34.65
38.13
36.60
30.44
20.76
9.04
-3.11
-14.35
-23.80
-31.10
-36.31
-39.84
-42.33
-44.52
-47.08
-50.56
-55.23
-61.14
-68.22
-76.45
-85.72
-95.61
-105.16
-112.76
-116.55
-114.90
-107.10
-93.54
-75.74
-55.84
-35.98
-17.83
-2.34
10.13
19.58
26.07
29.71
30.66
29.33
26.38
22.59
18.62
14.82
11.24
7.86
4.87
2.92
3.03
6.25
13.26
24.04
37.70
52.62
66.80
78.38
86.16
89.96
90.67
89.90
89.41
90.51
93.66
98.52
104.23
109.80
114.45
117.75
119.52
119.61
117.83
113.85
107.27
97.89
85.89
71.92
57.06
42.55
29.43
18.28
9.14
1.62
-5.00
-11.53
-18.82
-27.48
-37.68
-48.96
-60.22
-70.06
-77.21
-80.92
-81.06
-77.97
-72.12
-63.94
-53.88
-42.59
-31.11
-20.75
-12.74
-7.84
-6.13
-7.04
-9.65
-13.09
-16.79
-20.58
-24.53
-28.74
-33.05
-36.98
-39.85
-41.02
-40.27
-37.96
-35.04
-32.66
-31.91
-33.43
-37.35
-43.26
-50.17
-56.64
-60.85
-61.00
-55.82
-45.09
-29.89
-12.43
4.62
18.98
29.30
35.37
37.74
37.20
34.36
29.60
23.21
15.68
7.78
0.36
-5.89
-10.65
-14.02
-16.33
-17.90
-18.97
-19.68
-20.16
-20.75
-21.96
-24.39
-28.46
-34.11
-40.51
-45.99
-48.55
-46.32
-38.49
-25.59
-9.54
7.02
21.57
32.44
39.09
41.91
41.67
39.10
34.72
28.89
22.04
14.73
7.64
1.36
-3.70
-7.43
-9.92
-11.39
-11.99
-11.86
-11.15
-10.29
-10.00
-11.22
-14.69
-20.55
-27.95
-35.15
-39.90
-40.15
-34.70
-23.63
-8.29
9.09
26.02
40.38
50.82
56.91
58.99
57.81
54.20
48.76
41.90
33.91
25.20
16.42
8.38
1.80
-2.97
-6.06
-7.92
-9.09
-9.95
-10.69
-11.49
-12.74
-15.17
-19.57
-26.39
-35.09
-43.98
-50.58
-52.39
-47.86
-37.00
-21.40
-3.61
13.79
28.94
40.93
49.56
54.85
56.72
55.00
49.79
41.79
32.33
23.06
15.29
9.58
5.57
2.35
-0.96
-4.78
-8.91
-12.81
-16.01
-18.42
-20.36
-22.40
-25.12
-28.95
-34.13
-40.50
-47.45
-53.81
-57.99
-58.33
-53.64
-43.68
-29.35
-12.40
5.06
21.16
34.69
45.04
52.04
55.72
56.17
53.59
48.53
41.84
34.61
27.80
21.94
17.05
12.72
8.50
4.21
0.01
-3.66
-6.40
-8.15
-9.20
-10.20
-11.89
-14.96
-19.78
-26.25
-33.51
-40.04
-43.86
-43.18
-36.98
-25.54
-10.37
6.33
22.37
36.20
47.01
54.55
58.73
59.38
56.37
49.87
40.70
30.16
19.78
10.76
3.64
-1.74
-5.96
-9.68
-13.19
-16.27
-18.35
-18.73
-17.03
-13.48
-8.97
-5.01
-3.26
-5.01
-10.69
-19.63
-30.10
-39.81
-46.59
-49.04
-46.89
-40.93
-32.55
-23.22
-14.06
-5.70
1.53
7.33
11.21
12.49
10.65
5.76
-1.29
-8.83
-14.86
-17.79
-17.17
-13.65
-8.84
-4.52
-1.79
-0.96
-1.77
-3.88
-7.19
-11.65
-16.92
-22.26
-26.92
-30.68
-34.21
-38.62
-44.73
-52.14
-59.00
-62.72
-61.07
-53.29
-40.44
-24.81
-8.90
5.35
16.93
25.42
30.64
32.43
30.83
26.34
19.97
13.22
7.68
4.41
3.77
5.36
8.40
12.21
16.44
21.01
25.89
30.88
35.78
40.60
45.58
51.04
56.95
62.71
67.27
69.79
70.28
69.88
70.50
73.90
80.86
90.77
101.91
112.22
120.06
124.61
125.79
123.89
119.24
111.87
101.76
88.90
73.69
56.99
40.10
24.32
10.60
-0.84
-10.48
-19.09
-27.27
-35.11
-42.23
-48.04
-52.23
-54.93
-56.73
-58.43
-60.83
-64.62
-70.29
-77.88
-86.72
-95.31
-101.52
-103.20
-98.95
-88.64
-73.34
-54.90
-35.24
-15.90
2.03
17.72
30.37
39.27
43.92
44.33
41.07
35.18
27.79
19.87
12.01
4.46
-2.80
-9.87
-16.66
-22.87
-27.96
-31.51
-33.40
-33.99
-34.13
-34.83
-36.99
-41.18
-47.50
-55.50
-64.23
-72.20
-77.68
-79.09
-75.45
-66.80
-54.19
-39.32
-23.99
-9.50
3.50
14.77
24.11
31.04
34.83
34.88
31.09
24.06
15.03
5.47
-3.34
-10.61
-16.03
-19.62
-21.49
-21.65
-20.16
-17.34
-14.03
-11.54
-11.36
-14.70
-22.00
-32.66
-45.08
-56.96
-65.87
-69.87
-68.08
-60.95
-50.08
-37.74
-26.13
-16.70
-9.91
-5.36
-2.30
-0.16
1.25
1.88
1.80
1.50
1.81
3.54
7.18
12.56
18.99
25.59
31.73
37.24
42.52
48.15
54.60
61.90
69.55
76.71
82.58
86.67
88.79
89.07
87.75
85.04
81.27
76.93
72.70
69.35
67.42
67.00
67.67
68.66
69.21
68.86
67.41
64.88
61.22
56.25
49.79
41.87
32.89
23.65
15.13
8.23
3.43
0.67
-0.54
-0.96
-1.49
-3.07
-6.55
-12.57
-21.18
-31.66
-42.40
-51.27
-56.26
-56.09
-50.79
-41.62
-30.65
-19.99
-11.24
-5.20
-1.97
-1.25
-2.56
-5.57
-9.87
-15.11
-20.82
-26.58
-32.13
-37.42
-42.61
-47.92
-53.50
-59.19
-64.50
-68.82
-71.58
-72.78
-73.01
-73.50
-75.56
-79.98
-86.47
-93.66
-99.35
-101.30
-97.96
-88.93
-74.89
-57.41
-38.53
-20.38
-5.05
5.91
11.81
13.00
10.88
7.29
3.93
1.62
0.31
-0.54
-1.42
-2.39
-3.21
-3.93
-5.17
-7.90
-12.63
-18.83
-25.02
-29.65
-32.23
-33.67
-35.74
-39.73
-45.29
-50.34
-52.00
-48.24
-38.85
-25.55
-10.93
2.69
14.07
22.94
29.53
34.08
36.63
37.26
36.23
33.99
31.10
28.09
25.41
23.37
22.29
22.48
24.28
28.06
34.03
42.06
51.54
61.32
69.91
75.85
78.14
76.59
72.08
66.40
61.90
60.73
64.23
72.43
84.09
97.13
109.24
118.60
124.24
126.06
124.53
120.34
114.14
106.43
97.66
88.19
78.43
68.84
60.12
53.31
49.57
49.84
54.22
61.64
69.93
76.39
78.65
75.35
66.36
52.52
35.11
15.52
-4.79
-24.16
-40.63
-52.38
-58.28
-58.43
-54.30
-48.07
-41.92
-37.18
-34.22
-32.66
-32.02
-32.11
-33.12
-35.42
-39.15
-44.04
-49.49
-54.73
-59.05
-62.02
-63.51
-63.73
-63.11
-62.19
-61.53
-61.58
-62.70
-65.02
-68.46
-72.51
-76.28
-78.37
-77.29
-71.87
-61.75
-47.72
-31.51
-15.30
-1.08
9.94
17.35
21.43
22.77
21.98
19.51
15.64
10.61
4.75
-1.44
-7.30
-12.04
-15.05
-16.09
-15.50
-14.13
-13.08
-13.24
-15.10
-18.72
-23.94
-30.56
-38.21
-46.12
-52.85
-56.45
-55.10
-47.87
-35.34
-19.52
-3.17
11.16
21.93
28.77
32.13
32.81
31.51
28.78
25.05
20.78
16.44
12.38
8.70
5.31
2.01
-1.28
-4.42
-7.23
-9.58
-11.65
-13.87
-16.86
-21.18
-27.05
-34.19
-41.69
-48.10
-51.71
-50.97
-45.06
-34.19
-19.62
-3.43
12.14
25.25
34.88
40.83
43.48
43.41
41.16
37.17
31.84
25.62
19.03
12.66
6.96
2.19
-1.67
-4.77
-7.31
-9.45
-11.22
-12.69
-14.13
-16.11
-19.38
-24.56
-31.71
-40.02
-47.90
-53.23
-54.08
-49.32
-39.02
-24.43
-7.56
9.31
24.22
35.84
43.58
47.44
47.80
45.24
40.50
34.42
27.87
21.70
16.51
12.51
9.53
7.11
4.78
2.24
-0.55
-3.44
-6.28
-9.11
-12.25
-16.22
-21.50
-28.30
-36.43
-45.12
-53.14
-59.06
-61.47
-59.46
-52.82
-42.13
-28.52
-13.39
2.05
16.93
30.72
42.97
53.22
60.96
65.93
68.40
69.17
69.30
69.79
71.20
73.58
76.77
80.50
84.50
88.43
91.74
93.53
92.69
88.29
79.94
67.90
52.90
35.94
18.31
1.47
-12.98
-23.76
-30.36
-33.39
-34.49
-35.61
-38.09
-42.09
-46.67
-50.45
-52.49
-52.88
-52.56
-52.63
-53.65
-55.31
-56.82
-57.71
-58.10
-58.77
-60.71
-64.41
-69.45
-74.58
-78.29
-79.60
-78.58
-76.12
-73.54
-71.90
-71.50
-72.07
-73.04
-73.84
-73.94
-72.58
-68.52
-60.26
-46.62
-27.45
-4.02
21.12
45.06
65.35
80.81
91.60
98.86
104.10
108.65
113.34
118.32
123.09
126.64
127.79
125.46
119.10
108.83
95.48
80.50
65.50
51.99
40.83
31.85
23.77
14.68
2.87
-12.21
-29.37
-46.02
-59.12
-66.42
-67.17
-62.21
-53.21
-41.88
-29.51
-17.02
-5.23
4.84
12.14
16.03
16.59
14.60
11.22
7.37
3.51
-0.50
-5.11
-10.77
-17.67
-25.54
-33.65
-41.15
-47.26
-51.62
-54.39
-56.21
-58.08
-61.04
-65.77
-72.29
-79.78
-86.62
-90.85
-90.79
-85.61
-75.61
-62.02
-46.46
-30.43
-15.00
-0.97
10.92
19.85
25.19
26.77
25.29
22.10
18.70
16.29
15.39
15.91
17.39
19.33
21.33
23.14
24.53
25.48
26.21
27.25
29.27
32.83
38.04
44.28
50.39
55.08
57.59
58.25
58.55
60.77
67.02
78.31
93.88
111.27
127.19
138.59
143.66
142.11
134.98
123.83
110.21
95.22
79.54
63.69
48.07
33.07
18.91
5.72
-6.40
-17.23
-26.31
-33.14
-37.39
-39.25
-39.43
-39.05
-39.31
-41.26
-45.46
-51.79
-59.45
-66.97
-72.56
-74.52
-71.74
-64.14
-52.68
-39.03
-25.15
-12.75
-3.04
3.32
6.16
5.61
2.19
-3.35
-10.06
-17.05
-23.78
-30.13
-36.29
-42.39
-48.21
-53.06
-56.05
-56.51
-54.47
-50.85
-47.21
-45.30
-46.45
-51.13
-58.82
-68.27
-77.66
-84.95
-88.18
-85.87
-77.44
-63.68
-46.86
-30.46
-17.96
-11.29
-9.60
-9.68
-7.58
-0.82
10.18
22.53
32.59
38.20
39.70
39.27
39.15
40.00
40.67
39.26
34.73
27.82
20.64
15.20
12.11
10.14
7.03
0.79
-9.32
-22.24
-35.50
-46.13
-51.61
-50.72
-43.70
-32.06
-18.10
-4.17
7.82
16.73
22.21
24.53
24.35
22.50
19.68
16.40
13.00
9.77
7.06
5.22
4.52
4.96
6.28
8.03
9.83
11.56
13.43
15.76
18.72
22.06
25.09
26.93
26.93
24.98
21.65
17.94
14.95
13.42
13.53
15.05
17.63
21.06
25.38
30.71
36.89
43.28
48.67
51.72
51.43
47.54
40.68
32.08
23.13
14.89
7.87
2.09
-2.71
-6.90
-10.64
-13.93
-16.58
-18.41
-19.31
-19.42
-19.05
-18.71
-19.07
-20.75
-24.17
-29.33
-35.66
-41.93
-46.49
-47.63
-44.18
-35.94
-23.85
-9.74
4.17
15.95
24.47
29.48
31.42
31.03
28.99
25.86
22.05
17.95
13.88
10.12
6.79
3.87
1.36
-0.72
-2.27
-3.23
-3.71
-4.02
-4.64
-6.11
-8.82
-12.97
-18.53
-25.17
-32.13
-38.15
-41.68
-41.29
-36.26
-26.93
-14.73
-1.66
10.29
19.75
26.04
28.98
28.53
24.64
17.37
7.26
-4.34
-15.48
-24.11
-28.95
-29.99
-28.55
-26.64
-25.91
-26.96
-29.19
-31.36
-32.48
-32.59
-32.74
-34.29
-38.13
-43.97
-50.33
-55.32
-57.60
-56.80
-53.21
-46.93
-37.60
-24.80
-8.90
8.32
23.92
35.04
40.22
40.07
36.94
33.42
31.07
29.82
28.51
25.90
21.69
16.54
11.53
7.42
4.28
1.70
-0.63
-2.86
-4.94
-6.75
-8.43
-10.64
-14.22
-19.84
-27.43
-35.73
-42.54
-45.32
-42.09
-32.34
-17.31
0.34
17.39
31.10
39.95
43.79
43.57
40.77
36.88
33.10
30.25
28.79
28.89
30.40
32.97
36.11
39.47
42.88
46.50
50.82
56.63
64.78
75.88
89.89
105.85
121.97
136.02
146.07
151.10
151.29
147.83
142.32
136.12
129.96
123.87
117.49
110.44
102.65
94.33
85.76
76.99
67.70
57.27
45.22
31.48
16.66
1.95
-11.37
-22.34
-30.69
-36.77
-41.46
-45.76
-50.70
-57.00
-64.89
-73.94
-83.11
-91.17
-97.26
-101.39
-104.58
-108.22
-113.28
-119.48
-124.97
-127.00
-122.92
-111.49
-93.52
-71.67
-49.72
-31.45
-19.71
-15.92
-19.99
-30.47
-45.07
-61.09
-75.89
-87.41
-94.46
-96.79
-95.00
-90.14
-83.21
-75.00
-66.00
-56.53
-46.95
-37.81
-29.76
-23.48
-19.53
-18.10
-18.87
-20.90
-22.89
-23.57
-21.99
-17.84
-11.35
-3.14
6.01
15.32
23.93
30.95
35.42
36.74
34.93
30.88
26.26
22.90
22.32
25.09
30.88
38.59
46.97
55.04
62.37
69.11
75.67
82.34
88.99
94.93
99.12
100.58
98.81
94.17
87.86
81.58
77.02
75.29
76.62
80.44
85.72
91.48
97.02
102.06
106.58
110.58
113.78
115.39
114.15
108.47
97.05
79.59
57.37
33.26
11.01
-5.96
-15.82
-18.90
-17.47
-14.77
-13.82
-16.33
-22.45
-31.09
-40.62
-49.80
-58.18
-66.11
-74.33
-83.20
-92.38
-100.74
-106.79
-109.24
-107.79
-103.15
-96.71
-89.96
-84.10
-79.95
-78.11
-78.96
-82.61
-88.83
-96.94
-105.91
-114.43
-120.95
-124.01
-122.57
-116.39
-106.39
-94.46
-82.81
-73.16
-66.23
-61.66
-58.65
-56.66
-55.85
-56.84
-59.87
-64.15
-67.87
-68.86
-65.46
-57.20
-44.96
-30.42
-15.46
-1.63
10.11
19.32
25.95
30.14
32.13
32.32
31.15
29.16
26.84
24.55
22.51
20.83
19.66
19.13
19.29
20.00
20.90
21.47
21.25
19.91
17.35
13.71
9.33
4.83
1.18
-0.43
1.17
6.72
16.20
28.78
43.02
57.39
70.64
82.02
91.25
98.28
103.21
106.23
107.64
107.80
107.01
105.40
102.84
99.13
94.05
87.59
79.92
71.39
62.40
53.41
44.86
37.11
30.30
24.17
18.05
11.03
2.38
-8.00
-19.31
-30.01
-38.29
-42.68
-42.54
-38.13
-30.51
-21.08
-11.28
-2.31
4.92
9.76
11.85
11.10
7.76
2.43
-3.99
-10.53
-16.28
-20.70
-23.67
-25.52
-26.78
-27.98
-29.43
-31.13
-32.86
-34.32
-35.31
-35.82
-36.08
-36.56
-37.81
-40.38
-44.51
-49.92
-55.68
-60.33
-62.19
-59.98
-53.20
-42.35
-28.74
-14.16
-0.32
11.47
20.46
26.46
29.58
30.14
28.54
25.26
20.88
16.13
11.73
8.25
6.03
5.07
5.06
5.53
6.04
6.25
6.09
5.63
5.01
4.28
3.34
1.87
-0.51
-4.14
-9.20
-15.59
-22.85
-30.14
-36.34
-40.18
-40.62
-37.11
-29.87
-19.79
-8.25
3.42
14.20
23.44
30.79
35.91
38.48
38.27
35.41
30.53
24.69
19.04
14.48
11.45
9.86
9.25
9.02
8.68
7.94
6.74
5.22
3.58
1.97
0.36
-1.46
-3.75
-6.78
-10.67
-15.36
-20.60
-25.92
-30.63
-33.88
-34.76
-32.55
-27.00
-18.52
-8.06
3.14
13.94
23.44
31.04
36.27
38.76
38.35
35.22
30.09
24.00
18.02
12.86
8.72
5.39
2.53
-0.01
-2.18
-3.75
-4.64
-4.98
-5.18
-5.67
-6.81
-8.76
-11.59
-15.37
-20.18
-26.00
-32.51
-38.95
-44.15
-46.72
-45.48
-39.75
-29.66
-15.98
-0.09
16.36
31.59
43.83
51.66
54.25
51.83
45.65
37.85
30.76
26.22
25.00
26.62
29.60
31.95
31.84
28.06
20.38
9.63
-2.35
-13.18
-20.73
-24.00
-23.71
-22.37
-23.44
-29.88
-42.90
-61.30
-81.95
-101.01
-115.13
-122.09
-120.81
-110.98
-93.21
-69.41
-43.15
-19.15
-1.85
6.51
6.96
3.31
0.15
0.44
4.33
9.49
12.88
12.70
9.20
4.17
-0.39
-3.32
-4.67
-5.18
-5.48
-5.71
-5.67
-5.24
-4.89
-5.72
-9.03
-15.74
-25.64
-37.21
-47.79
-54.44
-54.94
-48.64
-36.75
-21.79
-6.61
6.69
17.44
26.22
34.25
42.49
51.07
59.27
65.96
70.21
71.73
71.04
69.20
67.56
67.47
70.23
76.95
88.42
104.67
124.76
146.63
167.62
185.16
197.45
203.73
204.15
199.30
189.94
177.06
162.02
146.51
132.31
120.63
111.69
104.58
97.73
89.58
79.25
66.76
52.86
38.70
25.26
13.02
1.70
-9.80
-22.89
-38.58
-56.77
-75.94
-93.52
-107.01
-115.03
-118.01
-117.87
-116.95
-116.78
-117.33
-117.14
-114.35
-108.23
-100.05
-92.93
-90.46
-94.81
-105.42
-119.05
-131.17
-137.84
-137.26
-129.98
-117.99
-103.42
-87.72
-71.75
-56.49
-43.52
-34.72
-31.37
-33.14
-38.03
-43.22
-46.29
-46.31
-43.82
-40.22
-36.81
-34.24
-32.43
-31.02
-29.90
-29.19
-29.19
-30.00
-31.48
-33.46
-36.03
-39.63
-44.81
-51.83
-60.16
-68.44
-74.65
-76.84
-73.82
-65.56
-53.22
-38.64
-23.60
-9.29
4.07
16.85
29.62
42.53
54.98
65.79
73.60
77.58
77.86
75.75
73.35
72.87
75.82
82.49
91.91
102.23
111.39
117.73
120.29
118.83
113.68
105.48
94.90
82.58
69.08
54.95
41.00
28.40
18.68
13.39
13.46
18.65
27.52
37.74
46.92
53.35
56.34
56.09
53.26
48.45
42.00
34.07
24.84
14.68
4.15
-6.12
-15.61
-24.05
-31.33
-37.56
-42.91
-47.64
-52.09
-56.66
-61.87
-68.18
-75.76
-84.32
-93.00
-100.34
-104.60
-104.23
-98.43
-87.46
-72.61
-55.80
-39.04
-23.87
-11.23
-1.48
5.29
9.09
9.96
8.08
3.86
-2.13
-9.31
-17.18
-25.41
-33.77
-41.94
-49.40
-55.53
-59.69
-61.38
-60.35
-56.72
-51.04
-44.27
-37.61
-32.30
-29.16
-28.22
-28.56
-28.59
-26.49
-20.89
-11.27
2.00
17.75
34.54
50.91
65.57
77.53
86.08
90.82
91.69
88.97
83.18
75.00
65.11
54.25
43.14
32.51
22.96
14.85
8.31
3.21
-0.63
-3.39
-5.25
-6.51
-7.70
-9.61
-13.08
-18.76
-26.63
-35.86
-44.82
-51.55
-54.23
-51.91
-44.69
-33.69
-20.64
-7.31
4.89
15.08
22.78
27.82
30.19
30.14
28.13
24.89
21.13
17.42
14.00
10.79
7.56
4.09
0.36
-3.48
-7.10
-10.23
-12.74
-14.64
-16.17
-17.75
-19.88
-23.12
-27.90
-34.20
-41.38
-48.13
-52.68
-53.40
-49.29
-40.47
-28.09
-13.99
-0.06
12.22
21.98
28.94
33.09
34.53
33.48
30.34
25.77
20.64
15.78
11.82
8.96
7.01
5.51
4.03
2.31
0.42
-1.36
-2.68
-3.49
-4.06
-5.05
-7.22
-11.21
-17.22
-24.82
-32.99
-40.32
-45.25
-46.44
-43.03
-34.85
-22.56
-7.54
8.43
23.54
36.37
46.08
52.39
55.43
55.52
53.05
48.63
43.09
37.44
32.62
29.22
27.23
26.17
25.32
24.14
22.45
20.45
18.47
16.75
15.21
13.48
10.97
7.08
1.33
-6.45
-15.85
-25.71
-34.24
-39.33
-39.35
-33.72
-23.13
-9.31
5.64
19.98
32.63
43.15
51.32
56.85
59.28
58.24
53.74
46.47
37.67
28.86
21.39
16.06
12.95
11.51
10.75
9.73
7.84
5.10
2.03
-0.67
-2.55
-3.69
-4.73
-6.68
-10.50
-16.72
-25.19
-34.86
-44.02
-50.58
-52.71
-49.34
-40.57
-27.66
-12.61
2.49
16.05
27.21
35.75
41.63
44.69
44.61
41.30
35.19
27.44
19.58
13.09
8.79
6.63
5.89
5.47
4.48
2.53
-0.19
-3.14
-5.69
-7.52
-8.76
-10.03
-12.23
-16.22
-22.40
-30.45
-39.29
-47.20
-52.28
-52.97
-48.46
-38.89
-25.37
-9.63
6.44
21.15
33.35
42.33
47.79
49.65
48.07
43.51
36.79
29.04
21.41
14.73
9.23
4.56
0.00
-5.05
-10.75
-16.60
-21.74
-25.27
-26.78
-26.62
-25.84
-25.87
-28.10
-33.31
-41.25
-50.54
-58.87
-63.66
-62.89
-55.77
-43.10
-26.99
-10.03
5.66
19.06
30.34
40.41
49.95
58.83
65.70
68.39
64.77
53.88
36.65
15.85
-4.59
-21.03
-31.36
-35.60
-35.69
-34.25
-33.44
-34.31
-36.68
-39.88
-43.28
-46.56
-49.70
-52.84
-56.01
-59.15
-61.87
-63.56
-63.31
-60.11
-53.12
-42.19
-28.14
-12.55
2.72
16.32
27.76
37.27
45.29
52.01
57.25
60.86
63.10
64.89
67.57
72.35
79.74
89.29
99.75
109.66
118.00
124.38
128.96
132.03
133.65
133.45
130.82
125.10
115.90
103.28
87.82
70.69
53.60
38.55
27.40
21.35
20.45
23.47
28.30
32.64
34.82
34.24
31.24
26.63
20.93
14.08
5.58
-5.01
-17.45
-30.70
-43.20
-53.56
-61.13
-66.19
-69.68
-72.64
-75.67
-78.78
-81.59
-83.77
-85.35
-86.77
-88.60
-91.20
-94.49
-98.04
-101.28
-103.69
-104.83
-104.11
-100.75
-93.88
-83.03
-68.50
-51.46
-33.65
-16.66
-1.44
11.73
22.86
31.58
36.97
37.76
33.09
23.11
9.24
-6.26
-20.90
-32.71
-40.55
-44.17
-44.01
-40.87
-35.65
-29.18
-22.31
-15.91
-10.99
-8.44
-8.79
-11.92
-17.02
-22.97
-28.75
-33.83
-38.07
-41.38
-43.37
-43.21
-40.08
-33.65
-24.52
-14.01
-3.65
5.46
12.96
19.06
24.07
28.01
30.62
31.58
31.01
29.55
28.28
28.24
29.97
33.40
38.12
43.72
50.11
57.42
65.69
74.51
82.86
89.50
93.44
94.45
93.04
90.20
86.85
83.38
79.57
74.98
69.46
63.61
58.72
56.34
57.67
62.98
71.54
81.79
91.99
100.62
106.71
109.69
109.18
104.87
96.50
84.16
68.57
51.21
34.03
19.04
7.69
0.54
-2.93
-4.03
-4.33
-5.12
-7.11
-10.42
-14.73
-19.62
-24.65
-29.39
-33.45
-36.39
-37.92
-37.97
-36.78
-34.84
-32.79
-31.22
-30.56
-30.86
-31.82
-32.83
-33.21
-32.46
-30.58
-28.09
-25.86
-24.79
-25.58
-28.49
-33.38
-39.79
-47.07
-54.50
-61.42
-67.20
-71.46
-74.04
-75.11
-75.12
-74.68
-74.37
-74.53
-75.34
-76.76
-78.82
-81.58
-85.24
-89.92
-95.50
-101.39
-106.51
-109.39
-108.57
-103.06
-92.61
-77.98
-60.88
-43.55
-28.06
-16.08
-8.39
-4.99
-5.55
-9.50
-15.87
-22.90
-27.98
-28.52
-23.11
-12.60
0.05
10.92
17.15
18.21
16.07
13.87
13.99
16.70
20.10
21.35
18.19
10.09
-1.74
-15.12
-27.90
-38.59
-46.31
-50.47
-50.74
-46.96
-39.23
-28.34
-15.64
-2.77
8.82
18.17
24.96
29.33
31.72
32.74
32.99
32.99
33.12
33.45
33.70
33.31
31.69
28.32
23.07
16.14
8.05
-0.40
-8.32
-14.91
-19.77
-23.04
-25.50
-28.18
-32.01
-37.36
-43.79
-50.04
-54.31
-54.71
-49.68
-38.45
-21.30
0.41
24.58
48.79
70.85
89.24
103.18
112.61
117.98
119.93
119.21
116.62
112.98
109.17
106.01
104.20
104.09
105.57
108.02
110.35
111.33
109.96
105.89
99.48
91.56
82.95
73.86
63.82
51.90
37.42
20.56
2.77
-13.56
-25.86
-32.27
-32.49
-27.75
-20.40
-13.00
-7.53
-4.96
-5.41
-8.48
-13.65
-20.52
-28.60
-37.21
-45.32
-51.92
-56.37
-58.85
-60.32
-62.13
-65.34
-70.16
-75.85
-81.10
-84.80
-86.62
-87.11
-87.48
-88.96
-92.20
-97.22
-103.46
-110.06
-116.00
-120.13
-121.16
-117.88
-109.49
-95.97
-78.34
-58.42
-38.35
-19.98
-4.48
7.67
16.43
21.90
24.21
23.57
20.48
15.72
10.28
5.12
0.86
-2.28
-4.40
-5.78
-6.70
-7.35
-7.80
-8.11
-8.22
-8.19
-8.18
-8.57
-9.99
-13.00
-17.88
-24.20
-30.79
-35.89
-37.76
-35.17
-27.95
-16.96
-3.85
9.54
21.78
32.09
40.40
46.93
51.83
54.88
55.56
53.33
48.07
40.25
30.93
21.42
12.87
6.02
1.14
-1.85
-3.14
-2.91
-1.34
1.26
4.34
7.14
8.87
8.95
7.21
4.04
0.23
-3.17
-5.16
-4.95
-2.15
3.18
10.50
18.97
27.61
35.56
42.26
47.43
51.08
53.21
53.89
53.28
51.68
49.64
47.83
46.84
46.95
48.23
50.53
53.84
58.31
64.18
71.47
79.74
88.01
94.93
99.19
99.82
96.63
90.26
82.09
74.06
68.09
65.62
67.06
71.72
77.95
83.79
87.60
88.56
86.75
82.77
77.33
70.96
63.86
56.04
47.42
37.93
27.52
16.18
4.13
-8.13
-19.81
-30.08
-38.30
-44.23
-48.15
-50.66
-52.61
-54.93
-58.53
-64.12
-71.92
-81.38
-91.02
-98.70
-102.26
-100.26
-92.60
-80.49
-66.06
-51.56
-38.78
-28.74
-21.84
-18.04
-17.05
-18.44
-21.65
-25.97
-30.74
-35.46
-39.86
-43.85
-47.45
-50.64
-53.35
-55.56
-57.33
-58.82
-60.24
-61.79
-63.74
-66.42
-70.21
-75.48
-82.22
-89.87
-97.15
-102.19
-103.01
-98.09
-87.05
-70.76
-51.28
-31.09
-12.43
3.24
15.34
23.88
29.08
31.05
29.95
26.09
20.33
13.91
8.14
3.86
1.20
-0.35
-1.45
-2.43
-3.03
-2.60
-0.53
3.17
7.75
11.86
14.10
13.49
9.81
3.64
-3.82
-10.97
-16.11
-17.60
-14.24
-5.58
7.85
24.55
42.33
59.03
72.98
83.40
90.25
93.95
94.95
93.58
90.13
84.99
78.89
72.74
67.35
63.05
59.63
56.41
52.69
48.08
42.64
36.78
30.79
24.54
17.39
8.45
-2.99
-17.02
-32.93
-49.39
-64.72
-77.36
-86.20
-90.68
-90.85
-87.28
-80.86
-72.58
-63.31
-53.63
-43.68
-33.41
-22.77
-11.95
-1.57
7.31
13.41
15.61
13.67
8.53
2.22
-2.93
-5.26
-4.50
-1.76
1.24
3.19
3.97
4.55
6.30
10.06
15.56
21.60
26.93
30.92
33.99
37.23
41.70
47.94
55.93
65.47
76.54
89.65
105.29
123.39
142.75
160.95
175.09
182.85
183.29
176.97
165.48
150.52
133.36
114.86
95.81
77.33
60.74
47.10
36.63
28.49
21.19
13.33
4.21
-5.89
-16.05
-25.30
-33.23
-40.09
-46.64
-53.62
-61.41
-69.84
-78.41
-86.60
-94.21
-101.25
-107.73
-113.20
-116.73
-117.03
-113.07
-104.63
-92.57
-78.60
-64.65
-52.15
-41.78
-33.55
-27.11
-22.22
-18.79
-16.81
-16.07
-16.16
-16.62
-17.20
-17.91
-19.00
-20.67
-22.93
-25.66
-28.70
-31.93
-35.23
-38.32
-40.76
-42.00
-41.68
-39.94
-37.43
-35.13
-33.98
-34.56
-36.91
-40.54
-44.55
-47.76
-48.91
-46.94
-41.32
-32.25
-20.64
-7.87
4.65
15.68
24.39
30.32
33.31
33.45
31.10
26.80
21.30
15.34
9.54
4.40
0.28
-2.59
-4.17
-4.67
-4.55
-4.42
-4.76
-5.74
-7.19
-8.83
-10.45
-12.07
-13.95
-16.31
-19.30
-22.98
-27.43
-32.85
-39.32
-46.48
-53.15
-57.53
-57.64
-52.21
-41.33
-26.45
-9.84
6.21
20.15
31.36
39.81
45.69
49.08
50.02
48.76
45.89
42.26
38.74
35.83
33.58
31.66
29.62
27.24
24.60
22.08
20.10
18.87
18.22
17.56
16.12
13.28
8.84
3.21
-2.93
-8.85
-14.17
-18.97
-23.65
-28.76
-34.69
-41.50
-48.82
-55.79
-61.18
-63.54
-61.62
-54.72
-43.08
-27.94
-11.24
4.95
18.96
29.91
37.69
42.69
45.45
46.34
45.56
43.26
39.67
35.27
30.66
26.35
22.67
19.61
17.04
14.83
12.99
11.71
11.16
11.40
12.25
13.23
13.73
13.11
10.93
7.11
1.89
-4.17
-10.51
-16.66
-22.40
-27.73
-32.79
-37.83
-43.23
-49.38
-56.49
-64.22
-71.41
-76.23
-76.67
-71.34
-60.12
-44.26
-25.94
-7.45
9.52
24.07
35.92
45.00
51.13
54.09
53.83
50.73
45.69
39.94
34.62
30.51
27.80
26.17
25.00
23.78
22.31
20.77
19.62
19.18
19.43
19.89
19.76
18.27
15.11
10.44
4.87
-0.89
-6.26
-10.96
-14.96
-18.50
-22.06
-26.27
-31.86
-39.39
-48.93
-59.77
-70.36
-78.63
-82.53
-80.63
-72.67
-59.57
-43.25
-26.03
-10.11
2.95
12.40
18.23
20.95
21.32
20.17
18.39
16.83
16.19
16.79
18.50
20.66
22.46
23.35
23.36
23.02
23.12
24.22
26.38
29.11
31.67
33.48
34.34
34.46
34.21
33.90
33.52
32.73
31.04
27.89
22.73
15.08
4.74
-7.95
-21.89
-35.18
-45.47
-50.76
-50.10
-44.08
-34.68
-24.46
-15.63
-9.25
-5.22
-2.69
-0.75
0.93
2.05
1.94
0.03
-3.70
-8.64
-13.71
-17.76
-19.99
-20.23
-18.87
-16.69
-14.49
-12.87
-12.12
-12.30
-13.34
-15.19
-17.79
-21.12
-25.14
-29.83
-35.31
-41.78
-49.32
-57.58
-65.59
-71.72
-74.14
-71.36
-62.82
-49.12
-31.80
-12.83
5.95
23.08
37.59
48.76
56.00
58.91
57.41
51.98
43.71
34.14
24.86
17.19
11.77
8.53
6.72
5.30
3.30
0.23
-3.85
-8.33
-12.54
-16.04
-18.96
-21.93
-25.79
-31.09
-37.88
-45.45
-52.47
-57.20
-57.93
-53.49
-43.66
-29.33
-12.13
6.07
23.78
40.06
54.37
66.26
75.02
79.90
80.51
77.28
71.61
65.49
60.76
58.44
58.56
60.33
62.64
64.55
65.55
65.66
65.44
65.89
68.15
73.12
80.94
90.58
99.73
105.35
104.57
95.96
80.29
60.49
40.86
25.50
17.06
16.19
21.68
31.40
43.20
55.47
67.26
77.91
86.83
93.17
95.90
94.10
87.35
76.02
61.44
45.67
30.92
18.77
9.61
2.62
-3.76
-10.97
-19.69
-29.66
-40.01
-49.71
-57.96
-64.42
-69.17
-72.66
-75.73
-79.42
-84.61
-91.55
-99.48
-106.65
-110.95
-110.60
-104.90
-94.42
-80.71
-65.64
-50.95
-37.96
-27.43
-19.76
-14.83
-12.06
-10.59
-9.47
-8.08
-6.32
-4.55
-3.37
-3.36
-4.87
-8.02
-12.67
-18.46
-24.92
-31.55
-38.02
-44.31
-50.53
-56.76
-62.68
-67.46
-69.99
-69.29
-64.86
-56.73
-45.25
-30.83
-13.87
5.06
24.90
44.02
60.57
72.88
80.09
82.32
80.46
75.64
68.74
60.28
50.48
39.68
28.58
18.18
9.52
3.24
-0.69
-2.94
-4.39
-5.73
-7.17
-8.48
-9.29
-9.43
-9.13
-9.08
-10.14
-13.12
-18.39
-25.62
-33.73
-40.94
-45.25
-45.08
-39.73
-29.65
-16.24
-1.36
13.23
26.17
36.58
43.93
47.84
48.04
44.54
37.72
28.44
17.94
7.52
-1.74
-9.32
-15.32
-20.34
-25.18
-30.47
-36.33
-42.31
-47.67
-51.76
-54.48
-56.39
-58.52
-61.97
-67.35
-74.31
-81.44
-86.61
-87.47
-82.32
-70.73
-53.77
-33.74
-13.47
4.54
18.83
28.93
35.27
38.66
39.86
39.48
38.15
36.33
34.12
31.20
27.07
21.66
15.68
10.38
6.89
5.58
5.77
6.22
6.06
5.49
5.62
7.70
12.08
17.82
23.14
26.51
27.67
27.98
29.83
35.44
45.86
60.49
77.45
94.14
108.18
118.23
124.13
126.51
126.24
123.83
119.23
112.21
102.73
91.50
79.85
69.28
60.88
54.94
51.06
48.46
46.47
44.82
43.57
42.82
42.36
41.49
39.24
34.73
27.60
18.31
8.07
-1.49
-8.97
-13.66
-15.90
-16.80
-17.68
-19.48
-22.36
-25.87
-29.26
-31.96
-33.83
-35.07
-36.01
-36.88
-37.74
-38.51
-39.10
-39.47
-39.60
-39.53
-39.32
-39.03
-38.65
-38.17
-37.56
-36.94
-36.67
-37.40
-39.87
-44.57
-51.39
-59.37
-66.85
-71.87
-72.78
-68.83
-60.34
-48.59
-35.34
-22.35
-10.91
-1.78
4.71
8.46
9.45
7.79
3.84
-1.69
-7.86
-13.76
-18.72
-22.51
-25.29
-27.36
-29.03
-30.45
-31.64
-32.59
-33.37
-34.19
-35.34
-37.23
-40.26
-44.67
-50.42
-56.88
-62.88
-66.75
-66.91
-62.30
-52.90
-39.79
-24.85
-10.10
2.78
12.80
19.65
23.33
24.03
22.02
17.88
12.71
7.98
5.14
4.97
7.29
10.99
14.71
17.48
19.19
20.57
22.72
26.34
31.23
36.41
40.15
40.56
36.08
25.74
9.34
-12.33
-37.38
-63.00
-85.97
-103.41
-113.41
-115.39
-109.99
-98.72
-83.39
-65.86
-47.77
-30.69
-16.04
-4.96
1.96
4.85
4.57
2.48
-0.00
-1.82
-2.49
-2.11
-1.01
0.41
1.89
3.47
5.23
7.13
8.88
9.96
9.68
7.49
3.19
-2.86
-9.71
-16.03
-20.46
-22.06
-20.60
-16.58
-10.91
-4.48
2.28
9.37
16.95
24.88
32.43
38.56
42.25
43.01
41.04
36.95
31.42
25.01
18.24
11.77
6.48
3.21
2.35
3.52
5.73
7.80
8.97
9.15
8.77
8.31
8.01
7.88
8.09
9.29
12.67
19.51
30.48
45.15
62.10
79.30
94.87
107.69
117.43
124.51
129.61
133.27
135.72
136.88
136.63
134.93
131.85
127.46
121.76
114.80
106.78
98.27
90.04
82.87
77.19
72.79
68.93
64.45
58.02
48.54
35.32
18.23
-2.05
-24.12
-45.96
-65.33
-80.25
-89.38
-92.25
-89.13
-80.96
-69.17
-55.57
-42.10
-30.51
-21.95
-16.77
-14.51
-14.29
-15.13
-16.37
-17.76
-19.26
-20.85
-22.39
-23.61
-24.26
-24.28
-23.92
-23.56
-23.63
-24.38
-25.92
-28.34
-31.81
-36.68
-43.25
-51.42
-60.33
-68.38
-73.59
-74.30
-69.81
-60.61
-48.19
-34.44
-21.08
-9.30
0.20
7.03
10.84
11.49
9.15
4.48
-1.41
-7.32
-12.36
-16.19
-19.06
-21.47
-23.84
-26.24
-28.41
-29.95
-30.54
-30.22
-29.41
-28.81
-29.20
-31.27
-35.38
-41.38
-48.57
-55.61
-60.85
-62.61
-59.75
-52.03
-40.23
-25.95
-11.11
2.60
14.05
22.78
28.75
32.11
33.01
31.67
28.37
23.64
18.23
12.90
8.31
4.83
2.46
0.87
-0.42
-1.86
-3.60
-5.50
-7.22
-8.53
-9.58
-10.95
-13.55
-18.20
-25.20
-33.97
-43.12
-50.74
-54.87
-54.13
-48.05
-37.18
-22.93
-7.10
8.52
22.58
34.22
43.01
48.78
51.45
51.10
48.02
42.82
36.42
29.83
23.89
19.16
15.74
13.40
11.70
10.20
8.63
6.88
4.99
3.04
1.09
-0.93
-3.15
-5.75
-9.02
-13.30
-18.95
-26.10
-34.45
-43.00
-50.06
-53.65
-52.07
-44.58
-31.72
-15.27
2.36
18.91
32.81
43.43
50.85
55.35
57.16
56.31
52.93
47.43
40.63
33.61
27.36
22.40
18.71
15.81
13.15
10.41
7.58
4.98
2.97
1.74
1.09
0.52
-0.66
-3.06
-6.98
-12.39
-19.04
-26.69
-35.13
-44.05
-52.71
-59.85
-63.79
-62.95
-56.36
-44.20
-27.84
-9.45
8.57
24.22
36.27
44.36
48.76
50.12
49.19
46.60
42.80
38.11
32.81
27.23
21.80
16.92
12.86
9.71
7.28
5.28
3.40
1.42
-0.77
-3.29
-6.33
-10.11
-14.77
-20.24
-26.18
-32.19
-38.13
-44.18
-50.86
-58.54
-66.85
-74.42
-79.04
-78.39
-70.95
-56.61
-36.83
-14.07
8.99
30.16
48.07
62.17
72.29
78.40
80.33
78.05
71.88
62.66
51.57
39.88
28.36
17.17
6.07
-5.13
-16.15
-26.12
-33.96
-38.84
-40.68
-40.08
-38.00
-35.22
-32.17
-29.03
-26.10
-24.13
-24.28
-27.52
-34.09
-42.95
-51.98
-58.60
-60.74
-57.42
-49.02
-36.78
-22.35
-7.35
6.91
19.39
29.22
35.87
39.20
39.60
37.93
35.52
33.86
34.45
38.51
46.67
58.56
72.82
87.22
99.38
107.53
111.01
110.42
107.17
102.89
98.79
95.34
92.31
88.97
84.55
78.42
70.31
60.38
49.26
37.97
27.91
20.55
17.10
18.03
22.79
29.89
37.39
43.53
47.29
48.51
47.60
44.98
40.92
35.42
28.61
21.06
13.82
8.09
4.65
3.38
3.15
2.21
-1.08
-7.53
-16.74
-27.26
-37.15
-44.77
-49.33
-51.21
-51.80
-52.94
-56.16
-62.09
-70.13
-78.67
-85.62
-89.21
-88.47
-83.52
-75.31
-65.29
-54.91
-45.41
-37.69
-32.35
-29.74
-29.86
-32.44
-36.94
-42.72
-49.11
-55.45
-61.14
-65.75
-69.07
-71.22
-72.58
-73.56
-74.29
-74.34
-72.82
-68.71
-61.48
-51.58
-40.58
-30.66
-23.94
-21.58
-23.46
-28.24
-33.81
-38.04
-39.31
-36.82
-30.55
-20.94
-8.71
5.22
19.68
33.13
43.71
49.54
49.27
42.72
31.17
17.22
4.21
-4.79
-7.93
-5.15
1.93
10.68
18.48
23.50
25.20
24.28
22.08
19.83
18.10
16.56
14.39
10.82
5.70
-0.36
-6.28
-10.94
-13.52
-13.58
-10.97
-5.66
2.29
12.56
24.52
37.16
49.35
60.21
69.23
76.22
81.00
83.24
82.38
77.96
69.97
58.96
45.94
32.00
18.04
4.67
-7.59
-18.20
-26.56
-32.18
-35.07
-35.88
-35.80
-36.15
-37.90
-41.45
-46.64
-53.00
-59.92
-66.76
-72.61
-76.30
-76.50
-72.19
-63.14
-50.10
-34.63
-18.67
-3.87
8.75
18.69
25.79
29.85
30.60
27.98
22.42
15.01
7.25
0.70
-3.55
-5.19
-4.72
-3.13
-1.48
-0.40
0.03
0.16
0.49
1.25
2.22
2.84
2.31
-0.03
-4.53
-11.02
-18.76
-26.43
-32.29
-34.52
-31.81
-23.82
-11.45
3.32
18.01
30.42
39.22
44.10
45.46
44.05
40.50
35.30
28.78
21.30
13.33
5.37
-2.19
-9.12
-15.42
-21.12
-26.08
-29.86
-31.98
-32.02
-30.09
-26.82
-23.33
-20.88
-20.65
-23.49
-29.74
-39.08
-50.48
-62.04
-71.27
-75.51
-72.77
-62.49
-45.76
-25.05
-3.36
16.67
33.35
46.06
54.85
60.09
62.15
61.47
58.64
54.65
50.66
47.69
46.42
46.97
49.05
52.20
55.98
60.23
65.01
70.51
76.86
83.84
90.72
96.28
99.08
97.98
92.52
83.41
72.43
62.03
54.53
51.29
52.23
55.96
60.46
63.81
64.87
63.45
59.95
54.86
48.43
40.68
31.72
22.02
12.44
3.89
-3.11
-8.75
-13.84
-19.45
-26.34
-34.68
-43.92
-53.06
-61.03
-66.98
-70.67
-72.49
-73.39
-74.64
-77.35
-81.94
-87.83
-93.46
-96.79
-96.13
-90.80
-81.34
-69.18
-55.98
-42.95
-30.78
-19.59
-9.41
-0.54
6.45
10.82
11.96
9.66
4.43
-2.65
-10.09
-16.53
-21.16
-23.98
-25.69
-27.29
-29.44
-32.23
-35.25
-37.93
-40.02
-41.64
-43.04
-44.35
-45.46
-46.14
-46.25
-45.71
-44.28
-41.34
-35.99
-27.30
-15.00
0.29
17.18
33.90
48.99
61.60
71.47
78.64
83.24
85.43
85.47
83.88
81.39
78.82
76.96
76.52
78.07
81.98
88.24
96.47
105.84
115.30
123.70
129.93
133.00
132.10
126.71
116.84
103.35
88.05
73.29
61.37
53.73
50.38
49.96
50.18
48.75
44.02
35.54
23.88
10.33
-3.61
-16.72
-28.14
-37.46
-44.55
-49.43
-52.22
-53.20
-52.83
-51.83
-51.01
-51.05
-52.38
-55.12
-59.14
-64.16
-69.90
-76.08
-82.50
-89.03
-95.67
-102.48
-109.38
-115.71
-120.01
-120.29
-114.80
-102.88
-85.70
-65.96
-47.01
-31.56
-20.84
-14.53
-11.40
-10.11
-9.86
-10.43
-11.92
-14.22
-16.82
-19.08
-20.55
-21.28
-21.72
-22.45
-23.69
-25.10
-25.84
-25.03
-22.24
-17.77
-12.74
-8.62
-6.73
-7.81
-11.73
-17.46
-23.46
-28.01
-29.58
-27.17
-20.49
-10.03
3.01
17.04
30.40
41.70
50.08
55.35
57.90
58.56
58.16
57.32
56.30
54.98
53.22
50.92
48.18
45.16
42.00
38.70
35.11
30.97
26.02
20.08
13.18
5.55
-2.44
-10.49
-18.50
-26.58
-34.72
-42.53
-48.92
-52.31
-51.24
-45.15
-34.90
-22.58
-10.74
-1.29
5.03
8.73
10.79
11.95
12.24
11.11
8.06
3.15
-2.80
-8.58
-13.04
-15.62
-16.51
-16.34
-15.83
-15.40
-15.05
-14.50
-13.55
-12.30
-11.26
-11.24
-12.96
-16.71
-22.07
-27.93
-32.75
-34.99
-33.46
-27.78
-18.31
-6.16
7.18
20.08
31.18
39.59
45.02
47.67
48.10
46.93
44.73
41.84
38.38
34.48
30.20
25.67
21.18
17.08
13.75
11.60
10.90
11.79
14.30
18.42
24.23
31.81
41.03
51.28
61.33
69.48
74.10
74.10
69.38
60.89
50.30
39.47
29.79
21.82
15.06
7.98
-1.45
-15.11
-34.01
-57.83
-84.79
-111.97
-135.98
-153.74
-163.31
-164.26
-157.77
-146.06
-131.81
-117.31
-103.96
-92.25
-82.04
-73.16
-65.77
-60.51
-58.04
-58.44
-60.95
-63.98
-65.59
-64.22
-59.11
-50.47
-39.25
-26.73
-14.07
-2.18
8.30
16.91
23.25
26.99
28.03
26.63
23.41
19.36
15.54
12.88
11.82
12.33
13.87
15.71
17.22
17.98
17.91
17.22
16.30
15.46
14.81
14.09
12.71
9.97
5.61
0.18
-4.87
-7.52
-5.93
0.76
12.12
26.54
41.90
56.29
68.45
77.72
83.76
86.27
84.93
79.69
70.98
59.83
47.59
35.45
24.01
13.18
2.49
-8.40
-19.38
-29.83
-38.98
-46.24
-51.35
-54.31
-55.21
-54.19
-51.61
-48.18
-44.92
-42.77
-42.02
-41.94
-40.99
-37.41
-30.22
-19.71
-7.39
4.67
14.75
22.09
26.79
29.47
30.69
30.67
29.48
27.32
24.88
23.23
23.37
25.66
29.60
34.13
38.17
41.26
43.88
47.06
51.88
58.75
67.25
76.17
83.95
89.21
91.08
89.49
85.26
80.03
75.97
75.37
79.89
90.04
104.87
122.20
139.23
153.24
162.21
165.06
161.63
152.48
138.64
121.42
102.17
82.07
61.95
42.22
22.97
4.17
-14.11
-31.55
-47.53
-61.27
-72.04
-79.42
-83.54
-85.05
-84.98
-84.48
-84.52
-85.66
-87.93
-90.73
-93.02
-93.43
-90.67
-83.93
-73.23
-59.51
-44.52
-30.22
-18.29
-9.70
-4.71
-3.03
-4.17
-7.54
-12.42
-18.00
-23.44
-28.13
-31.81
-34.71
-37.28
-39.97
-42.96
-46.04
-48.84
-50.97
-52.25
-52.73
-52.65
-52.26
-51.84
-51.76
-52.34
-53.79
-55.88
-57.65
-57.64
-54.25
-46.46
-34.36
-19.34
-3.49
11.02
22.63
30.62
34.80
35.27
32.16
25.75
16.79
6.68
-2.88
-10.29
-14.64
-15.85
-14.50
-11.37
-7.08
-1.96
3.84
10.07
16.13
21.22
24.43
25.15
23.15
18.61
12.07
4.40
-3.24
-9.50
-13.16
-13.43
-10.23
-4.25
3.24
10.83
17.28
21.72
23.62
22.77
19.26
13.57
6.62
-0.39
-6.24
-10.17
-12.03
-12.24
-11.47
-10.27
-8.91
-7.35
-5.39
-2.88
0.05
2.93
5.01
5.37
3.27
-1.61
-8.82
-17.27
-25.33
-31.25
-33.55
-31.39
-24.71
-14.21
-1.16
12.87
26.27
37.78
46.48
51.91
53.98
52.87
49.06
43.26
36.41
29.46
23.27
18.27
14.40
11.15
7.88
4.11
-0.14
-4.40
-7.97
-10.32
-11.40
-11.73
-12.19
-13.77
-17.25
-22.95
-30.59
-39.25
-47.39
-53.14
-54.78
-51.19
-42.40
-29.52
-14.42
0.83
14.57
25.76
33.94
38.89
40.48
38.63
33.52
25.76
16.45
6.96
-1.45
-8.04
-12.69
-15.94
-18.60
-21.40
-24.68
-28.35
-32.03
-35.36
-38.24
-40.86
-43.64
-46.95
-51.03
-55.88
-61.29
-66.82
-71.67
-74.65
-74.28
-69.25
-58.87
-43.60
-24.97
-5.22
13.56
30.04
43.78
54.89
63.55
69.49
72.15
70.97
65.95
57.95
48.25
38.04
27.96
18.09
8.53
-0.20
-6.81
-9.62
-7.16
1.11
14.57
31.49
49.66
66.77
80.96
91.07
96.72
98.22
96.57
93.25
89.89
87.84
87.89
90.13
94.10
98.96
103.65
107.09
108.34
106.70
101.90
94.08
83.73
71.64
58.75
46.01
34.23
24.00
15.53
8.70
3.20
-1.43
-5.56
-9.39
-13.04
-16.59
-20.15
-23.84
-27.77
-31.97
-36.50
-41.51
-47.32
-54.32
-62.65
-71.89
-80.87
-87.90
-91.25
-89.77
-83.43
-73.29
-61.19
-49.01
-38.12
-29.13
-22.11
-16.98
-13.87
-13.16
-15.20
-19.91
-26.53
-33.85
-40.56
-45.71
-49.03
-50.77
-51.49
-51.60
-51.19
-50.01
-47.67
-44.00
-39.19
-34.00
-29.52
-26.93
-27.12
-30.31
-35.97
-42.87
-49.33
-53.62
-54.49
-51.49
-45.19
-36.85
-28.12
-20.37
-14.23
-9.45
-5.14
-0.35
5.44
12.01
18.67
24.53
29.02
32.05
33.97
35.32
36.48
37.45
37.64
36.28
32.59
26.22
17.49
7.24
-3.58
-14.27
-24.61
-34.86
-45.36
-56.08
-66.34
-74.89
-80.29
-81.38
-77.42
-68.21
-54.03
-35.73
-14.96
5.84
23.77
36.19
41.64
40.42
34.42
26.33
18.62
12.68
8.75
6.26
4.31
2.31
-0.05
-3.02
-6.82
-11.68
-17.59
-24.12
-30.40
-35.51
-38.89
-40.68
-41.76
-43.30
-46.08
-50.13
-54.44
-57.47
-57.62
-53.96
-46.37
-35.55
-22.64
-8.72
5.31
18.82
31.33
42.36
51.46
58.27
62.62
64.77
65.37
65.35
65.76
67.41
70.63
75.23
80.56
85.85
90.55
94.46
97.66
100.30
102.35
103.38
102.72
99.66
93.71
84.87
73.74
61.41
49.29
38.88
31.36
27.38
26.98
29.53
34.04
39.58
45.52
51.55
57.50
62.88
66.79
67.99
65.42
58.73
48.56
36.42
24.14
13.27
4.62
-1.77
-6.48
-10.25
-13.76
-17.48
-21.61
-26.31
-31.75
-38.21
-45.93
-54.94
-64.83
-74.75
-83.52
-90.00
-93.35
-93.29
-90.13
-84.62
-77.76
-70.64
-64.33
-59.73
-57.50
-57.89
-60.72
-65.35
-70.91
-76.46
-81.16
-84.36
-85.74
-85.15
-82.65
-78.32
-72.29
-64.80
-56.37
-47.78
-40.02
-34.02
-30.33
-28.95
-29.45
-31.17
-33.54
-36.16
-38.66
-40.53
-40.97
-39.10
-34.27
-26.42
-16.21
-4.84
6.35
16.30
24.25
29.88
33.16
34.29
33.78
32.53
31.51
31.58
33.06
35.72
39.00
42.50
46.27
50.91
57.23
65.70
76.12
87.54
98.58
107.87
114.39
117.62
117.54
114.58
109.64
104.02
99.21
96.55
96.84
100.08
105.59
112.31
119.10
125.08
129.55
131.92
131.61
128.12
121.35
111.67
99.92
87.00
73.55
59.76
45.51
30.77
15.84
1.31
-12.15
-24.10
-34.42
-43.18
-50.57
-56.79
-62.18
-67.25
-72.56
-78.37
-84.21
-88.86
-90.73
-88.51
-81.86
-71.59
-59.40
-47.20
-36.45
-27.91
-21.64
-17.47
-15.34
-15.50
-18.24
-23.57
-30.83
-38.70
-45.58
-50.08
-51.59
-50.49
-47.93
-45.33
-43.80
-43.90
-45.58
-48.52
-52.32
-56.68
-61.40
-66.25
-70.80
-74.28
-75.67
-73.90
-68.23
-58.59
-45.79
-31.39
-17.28
-5.23
3.65
8.95
10.97
10.40
8.06
4.64
0.63
-3.70
-8.19
-12.74
-17.16
-21.20
-24.66
-27.39
-29.42
-30.81
-31.70
-32.18
-32.38
-32.61
-33.44
-35.66
-39.87
-46.00
-52.93
-58.69
-60.98
-58.19
-49.96
-37.43
-22.87
-8.77
2.92
11.27
16.40
19.06
20.09
20.06
19.21
17.56
15.11
12.00
8.57
5.25
2.44
0.37
-0.92
-1.57
-1.76
-1.64
-1.41
-1.34
-1.85
-3.45
-6.63
-11.60
-18.13
-25.44
-32.30
-37.22
-38.81
-36.09
-28.79
-17.54
-3.67
11.05
24.82
36.27
44.68
49.91
52.28
52.33
50.57
47.46
43.35
38.46
33.01
27.27
21.64
16.68
12.87
10.50
9.36
8.87
8.19
6.67
4.00
0.14
-4.88
-11.14
-18.77
-27.59
-36.69
-44.54
-49.23
-49.22
-43.99
-34.24
-21.64
-8.22
4.28
14.71
22.51
27.47
29.53
28.70
25.28
19.81
13.19
6.37
0.21
-4.77
-8.37
-10.66
-11.77
-11.78
-10.71
-8.60
-5.68
-2.50
0.15
1.49
0.95
-1.61
-5.71
-10.48
-14.65
-16.87
-15.97
-11.42
-3.53
6.54
17.16
26.80
34.47
40.11
44.34
48.02
51.72
55.28
57.97
58.87
57.51
54.14
49.56
44.61
39.66
34.34
27.79
19.44
9.50
-0.75
-9.45
-14.96
-16.65
-15.04
-11.33
-6.70
-1.77
3.39
8.87
14.65
20.55
26.45
32.70
40.21
50.09
63.04
78.84
96.20
113.09
127.40
137.55
142.72
142.79
138.08
129.03
116.14
100.03
81.68
62.37
43.57
26.59
12.24
0.75
-8.13
-14.97
-20.40
-24.92
-28.81
-32.15
-34.76
-36.52
-37.53
-38.42
-40.39
-44.88
-53.03
-65.04
-79.89
-95.47
-109.29
-119.26
-124.36
-124.66
-121.03
-114.63
-106.53
-97.73
-89.18
-81.92
-76.73
-73.89
-72.91
-72.48
-70.89
-66.49
-58.28
-46.26
-31.40
-15.36
-0.01
13.02
22.69
28.56
30.79
29.76
26.02
20.18
12.91
4.95
-2.82
-9.64
-14.85
-17.92
-18.46
-16.10
-10.70
-2.41
8.09
19.71
31.09
40.96
48.41
52.97
54.53
53.17
49.05
42.55
34.46
25.93
18.27
12.54
9.02
7.09
5.42
2.70
-1.81
-7.99
-15.05
-22.12
-28.73
-35.03
-41.49
-48.52
-56.14
-64.01
-71.48
-77.74
-81.88
-82.73
-79.11
-70.13
-55.62
-36.51
-14.72
7.30
27.30
43.77
56.20
64.81
70.17
72.82
73.11
71.26
67.61
62.67
57.16
51.68
46.52
41.44
35.88
29.28
21.66
13.69
6.49
0.98
-2.62
-5.13
-8.11
-13.15
-21.26
-32.23
-44.61
-56.13
-64.26
-67.00
-63.43
-53.94
-40.08
-24.05
-7.99
6.52
18.68
28.33
35.52
40.22
42.25
41.47
38.09
32.86
26.99
21.72
17.88
15.57
14.15
12.70
10.43
7.11
2.92
-1.76
-6.87
-12.67
-19.64
-28.07
-37.87
-48.72
-60.24
-72.22
-84.35
-95.84
-105.01
-109.71
-107.99
-99.08
-83.92
-64.92
-45.14
-27.32
-13.11
-2.93
3.61
7.26
8.62
8.20
6.53
4.46
3.27
4.30
8.49
15.76
24.91
34.04
41.36
45.94
48.06
48.91
49.76
51.28
53.27
54.90
55.34
54.10
51.19
46.92
41.79
36.47
32.01
29.79
31.25
37.33
47.96
62.08
77.89
93.58
107.79
119.87
129.58
136.78
141.25
142.65
140.85
135.98
128.47
118.84
107.48
94.63
80.53
65.63
50.65
36.55
24.16
13.95
5.89
-0.59
-6.27
-11.94
-18.18
-25.32
-33.52
-42.78
-52.89
-63.31
-73.01
-80.57
-84.60
-84.22
-79.48
-71.37
-61.43
-51.29
-42.15
-34.68
-29.12
-25.62
-24.36
-25.41
-28.60
-33.33
-38.59
-43.29
-46.50
-47.83
-47.40
-45.76
-43.67
-41.87
-40.99
-41.53
-43.86
-48.13
-54.11
-61.18
-68.31
-74.54
-79.37
-82.78
-85.15
-86.68
-86.89
-84.80
-79.61
-71.56
-62.12
-53.14
-45.50
-38.44
-30.06
-18.90
-5.40
7.78
16.96
19.58
15.74
8.17
0.55
-4.51
-6.75
-7.96
-10.45
-15.42
-22.28
-29.11
-33.97
-36.03
-35.77
-34.66
-34.34
-35.78
-39.01
-43.43
-48.32
-53.27
-58.06
-62.26
-64.96
-64.82
-60.52
-51.52
-38.40
-22.67
-6.13
9.81
24.35
37.04
47.40
54.77
58.55
58.60
55.58
50.76
45.65
41.36
38.37
36.63
35.80
35.54
35.63
35.97
36.48
37.20
38.34
40.22
43.10
46.84
50.80
53.95
55.44
55.17
54.26
54.79
59.07
68.58
83.14
100.91
118.99
134.64
146.21
153.45
157.11
158.15
157.11
154.04
148.89
141.93
133.96
125.87
118.21
110.79
102.76
93.20
81.53
67.93
53.17
38.32
24.36
11.96
1.36
-7.62
-15.46
-22.93
-30.88
-39.96
-50.42
-61.88
-73.26
-83.03
-89.52
-91.57
-88.93
-82.45
-73.86
-65.16
-57.92
-52.86
-49.80
-48.10
-47.22
-47.16
-48.37
-51.42
-56.41
-62.68
-69.12
-74.54
-78.16
-79.81
-79.78
-78.55
-76.56
-74.10
-71.32
-68.23
-64.83
-61.18
-57.54
-54.50
-52.99
-53.93
-57.77
-63.90
-70.46
-74.73
-74.02
-66.74
-53.12
-35.11
-15.69
2.31
17.05
28.07
36.00
41.72
45.74
47.96
47.79
44.72
38.74
30.48
20.96
11.36
2.53
-5.07
-11.39
-16.59
-20.85
-24.27
-26.75
-28.20
-28.67
-28.46
-28.12
-28.26
-29.38
-31.64
-34.88
-38.59
-42.04
-44.36
-44.62
-42.10
-36.35
-27.51
-16.30
-3.97
8.14
18.79
27.20
32.94
35.93
36.19
33.88
29.28
23.02
16.09
9.71
4.93
2.29
1.63
2.16
3.02
3.63
4.04
4.70
6.13
8.43
11.15
13.47
14.53
13.75
10.96
6.40
0.64
-5.37
-10.43
-13.32
-13.13
-9.59
-3.25
4.75
13.06
20.72
27.28
32.78
37.31
40.79
42.96
43.52
42.59
40.80
39.17
38.64
39.80
42.51
46.20
50.10
53.67
56.71
59.25
61.29
62.62
62.95
62.12
60.26
57.72
54.93
52.22
49.71
47.36
45.16
43.29
42.07
41.89
43.01
45.47
49.00
53.07
57.07
60.45
62.71
63.49
62.55
59.67
54.70
47.62
38.74
28.79
18.97
10.49
4.27
0.62
-0.74
-0.47
0.76
2.46
4.34
6.08
7.22
7.08
4.89
0.01
-7.79
-18.16
-30.12
-42.05
-52.06
-58.38
-59.93
-56.66
-49.59
-40.36
-30.61
-21.56
-13.89
-7.96
-4.14
-2.91
-4.64
-9.37
-16.57
-25.23
-34.28
-42.85
-50.48
-56.98
-62.34
-66.48
-69.39
-71.13
-71.88
-71.84
-71.15
-69.89
-68.22
-66.59
-65.76
-66.63
-69.84
-75.35
-82.28
-88.91
-93.33
-94.00
-90.29
-82.62
-72.23
-60.56
-48.82
-37.69
-27.33
-17.74
-9.02
-1.67
3.61
6.13
5.67
2.71
-1.63
-6.04
-9.47
-11.51
-12.40
-12.72
-12.89
-12.95
-12.54
-11.13
-8.49
-4.87
-0.92
2.61
5.02
6.02
5.65
4.44
3.32
3.54
6.36
12.64
22.43
34.84
48.35
61.43
73.17
83.47
92.95
102.21
111.37
119.84
126.54
130.47
131.19
128.91
124.26
118.01
110.77
102.89
94.67
86.39
78.39
71.01
64.45
58.76
53.83
49.49
45.38
41.03
35.75
28.79
19.67
8.48
-3.90
-15.86
-25.40
-30.77
-30.94
-26.05
-17.32
-6.78
3.35
11.23
15.78
16.81
14.86
10.77
5.37
-0.77
-7.31
-14.10
-20.89
-27.27
-32.76
-36.96
-39.71
-41.21
-41.96
-42.47
-43.18
-44.33
-45.96
-47.91
-49.93
-51.78
-53.31
-54.62
-56.00
-57.91
-60.72
-64.60
-69.35
-74.40
-78.88
-81.76
-82.02
-78.83
-71.79
-61.08
-47.54
-32.48
-17.46
-3.87
7.28
15.48
20.64
22.98
22.98
21.28
18.57
15.55
12.65
10.10
7.90
5.94
4.18
2.65
1.46
0.69
0.34
0.28
0.30
0.08
-0.65
-2.08
-4.36
-7.49
-11.42
-16.04
-21.32
-27.22
-33.60
-40.00
-45.54
-48.99
-49.07
-44.92
-36.51
-24.75
-11.25
2.17
13.92
23.06
29.24
32.61
33.51
32.31
29.40
25.18
20.14
14.74
9.37
4.28
-0.42
-4.70
-8.46
-11.41
-13.18
-13.51
-12.45
-10.63
-9.03
-8.60
-9.63
-11.57
-13.12
-13.02
-10.90
-7.71
-5.51
-6.58
-12.35
-22.51
-35.14
-47.26
-56.04
-59.61
-57.60
-51.00
-41.68
-31.87
-23.59
-18.19
-15.94
-15.96
-16.58
-16.04
-13.25
-8.38
-2.70
2.18
5.15
6.22
6.30
6.57
7.58
8.90
9.49
8.42
5.66
2.06
-1.08
-2.89
-3.45
-3.70
-4.90
-7.81
-12.39
-17.87
-23.30
-28.09
-32.30
-36.25
-40.05
-43.16
-44.35
-42.24
-35.88
-25.31
-11.49
4.05
19.90
35.06
48.98
61.42
72.16
81.06
88.17
93.84
98.69
103.27
107.89
112.34
116.20
119.02
120.66
121.30
121.46
121.78
122.91
125.33
129.23
134.29
139.53
143.53
144.69
141.76
134.12
121.88
105.72
86.58
65.58
43.99
23.22
4.71
-10.35
-21.22
-27.84
-30.65
-30.54
-28.48
-25.47
-22.38
-20.01
-19.07
-20.14
-23.60
-29.43
-37.17
-45.84
-54.12
-60.60
-64.27
-64.84
-62.94
-59.92
-57.36
-56.42
-57.36
-59.65
-62.23
-64.18
-65.18
-65.61
-66.38
-68.45
-72.48
-78.47
-85.67
-92.73
-97.97
-99.80
-97.21
-90.04
-79.08
-65.77
-51.79
-38.51
-26.82
-17.11
-9.53
-4.21
-1.21
-0.43
-1.42
-3.41
-5.46
-6.85
-7.31
-7.10
-6.91
-7.60
-9.77
-13.68
-19.15
-25.62
-32.40
-38.84
-44.54
-49.48
-53.89
-58.13
-62.47
-66.98
-71.46
-75.54
-78.62
-80.02
-79.00
-74.86
-67.18
-56.05
-42.14
-26.66
-11.15
3.06
15.01
24.25
30.69
34.35
35.30
33.75
30.15
25.14
19.61
14.25
9.46
5.13
0.77
-4.13
-9.68
-15.30
-19.76
-21.64
-20.01
-14.94
-7.71
-0.39
4.91
6.68
4.50
-0.88
-7.87
-14.47
-18.67
-18.81
-13.96
-4.05
10.03
26.59
43.66
59.36
72.42
82.34
89.26
93.74
96.37
97.57
97.59
96.54
94.55
91.85
88.81
85.77
83.02
80.64
78.64
76.99
75.70
74.79
74.17
73.59
72.63
70.80
67.72
63.26
57.64
51.45
45.51
40.80
38.18
38.21
40.96
45.92
52.13
58.41
63.58
66.78
67.47
65.44
60.69
53.38
43.75
32.28
19.73
7.06
-4.75
-15.03
-23.55
-30.52
-36.41
-41.61
-46.31
-50.47
-54.04
-57.05
-59.73
-62.49
-65.80
-70.10
-75.72
-82.63
-90.30
-97.51
-102.51
-103.52
-99.35
-89.89
-76.34
-60.72
-45.19
-31.39
-20.12
-11.39
-4.88
-0.28
2.53
3.52
2.75
0.52
-2.65
-6.16
-9.45
-12.27
-14.63
-16.69
-18.64
-20.51
-22.19
-23.50
-24.39
-24.93
-25.40
-26.19
-27.70
-30.29
-34.24
-39.66
-46.39
-53.81
-60.77
-65.73
-67.08
-63.67
-55.23
-42.51
-27.12
-11.09
3.66
15.73
24.58
30.38
33.77
35.40
35.61
34.36
31.49
27.07
21.61
16.03
11.22
7.77
5.61
4.22
2.93
1.31
-0.70
-2.86
-4.94
-6.92
-9.10
-11.88
-15.58
-20.20
-25.45
-30.94
-36.47
-42.02
-47.66
-53.05
-57.25
-58.74
-55.93
-47.92
-35.02
-18.81
-1.56
14.55
28.15
38.87
47.00
53.01
57.07
59.14
59.12
57.17
53.84
49.88
46.03
42.81
40.31
38.41
36.82
35.32
33.82
32.38
31.05
29.85
28.69
27.34
25.50
22.88
19.32
14.97
10.31
5.92
2.19
-0.96
-4.26
-8.76
-15.31
-23.97
-33.72
-42.62
-48.50
-49.65
-45.41
-36.19
-23.22
-8.16
7.33
21.80
34.00
43.02
48.38
50.07
48.60
44.86
39.83
34.36
29.06
24.36
20.52
17.71
15.94
15.00
14.47
13.90
13.01
11.78
10.48
9.51
9.08
9.12
9.23
8.84
7.48
4.98
1.48
-2.59
-6.75
-10.70
-14.33
-17.83
-21.52
-25.81
-31.00
-37.29
-44.60
-52.44
-59.84
-65.38
-67.50
-65.00
-57.59
-46.06
-32.08
-17.59
-4.13
7.52
17.41
25.90
33.25
39.32
43.67
45.84
45.68
43.50
39.94
35.75
31.48
27.44
23.77
20.54
17.96
16.38
16.05
16.92
18.46
19.77
19.91
18.31
14.94
10.26
4.98
-0.34
-5.39
-10.22
-15.00
-20.04
-25.64
-32.14
-39.72
-48.21
-56.73
-63.81
-67.64
-66.71
-60.36
-49.09
-34.28
-17.74
-1.06
14.61
28.63
40.52
49.78
55.94
58.72
58.34
55.53
51.26
46.39
41.37
36.21
30.75
24.99
19.24
14.04
9.86
6.83
4.68
2.76
0.39
-2.87
-7.10
-11.83
-16.41
-20.16
-22.75
-24.33
-25.54
-27.27
-30.36
-35.34
-42.31
-50.83
-59.89
-68.09
-73.76
-75.32
-71.76
-62.95
-49.76
-33.75
-16.84
-0.80
12.91
23.24
29.44
31.14
28.37
21.78
12.66
2.80
-5.87
-11.87
-14.53
-14.17
-11.93
-9.26
-7.29
-6.49
-6.65
-7.17
-7.61
-7.90
-8.42
-9.58
-11.47
-13.73
-15.78
-17.22
-18.20
-19.46
-21.97
-26.47
-33.13
-41.46
-50.45
-58.73
-64.81
-67.24
-64.78
-56.72
-43.20
-25.25
-4.60
16.54
36.17
52.82
65.71
74.83
80.63
83.81
85.07
85.00
84.10
82.89
82.00
82.20
84.19
88.27
94.15
101.01
107.80
113.74
118.56
122.51
126.04
129.45
132.69
135.32
136.74
136.28
133.33
127.22
117.35
103.31
85.33
64.44
42.56
22.13
5.35
-6.37
-12.72
-14.52
-13.26
-10.73
-8.30
-6.64
-5.33
-3.15
1.59
10.18
22.79
37.94
52.72
63.59
67.65
63.76
52.84
37.50
20.87
5.40
-7.92
-19.56
-30.74
-42.62
-55.53
-68.90
-81.64
-92.79
-102.02
-109.69
-116.55
-123.34
-130.55
-138.20
-145.92
-152.96
-158.24
-160.64
-159.13
-153.19
-142.97
-129.26
-113.29
-96.45
-80.04
-65.26
-53.20
-44.64
-39.99
-38.93
-40.35
-42.55
-43.77
-42.76
-39.26
-34.01
-28.42
-24.01
-21.77
-21.84
-23.52
-25.64
-27.06
-27.09
-25.67
-23.14
-20.05
-17.01
-14.60
-13.48
-14.20
-16.96
-21.36
-26.21
-29.93
-31.04
-28.76
-23.34
-15.86
-7.79
-0.40
5.47
9.54
11.78
12.17
10.67
7.27
2.20
-3.91
-10.07
-15.11
-18.16
-18.88
-17.58
-14.94
-11.74
-8.46
-5.21
-1.98
1.09
3.48
4.50
3.57
0.60
-4.07
-9.78
-15.87
-21.90
-27.44
-31.96
-34.64
-34.48
-30.75
-23.42
-13.23
-1.52
10.23
20.93
30.06
37.62
43.79
48.81
52.79
55.91
58.43
60.74
63.23
66.17
69.66
73.72
78.41
83.84
90.07
96.96
104.10
110.77
116.12
119.25
119.34
115.79
108.30
96.90
82.15
65.26
48.06
32.79
21.64
16.16
16.88
23.02
32.84
44.01
54.29
61.92
65.86
65.72
61.55
53.81
43.28
31.06
18.37
6.37
-4.23
-13.26
-21.05
-28.09
-34.77
-41.15
-47.00
-51.98
-55.90
-58.85
-61.07
-62.88
-64.48
-66.16
-68.36
-71.69
-76.70
-83.45
-91.10
-97.95
-101.80
-100.68
-93.61
-80.97
-64.21
-45.38
-26.43
-9.00
5.72
16.78
23.49
25.65
23.68
18.67
12.09
5.32
-0.67
-5.47
-9.09
-11.79
-13.98
-16.09
-18.47
-21.24
-24.12
-26.57
-28.08
-28.56
-28.57
-29.24
-31.63
-36.39
-43.35
-51.54
-59.52
-65.71
-68.79
-67.89
-62.74
-53.87
-42.51
-30.40
-19.28
-10.48
-4.66
-1.86
-1.72
-3.72
-7.24
-11.62
-16.05
-19.63
-21.63
-21.66
-19.85
-16.88
-13.59
-10.66
-8.34
-6.44
-4.64
-2.82
-1.21
-0.39
-1.01
-3.53
-8.01
-13.94
-20.29
-25.65
-28.57
-27.91
-23.19
-14.73
-3.53
9.11
22.01
34.30
45.52
55.40
63.66
69.99
74.07
75.82
75.53
73.87
71.77
70.16
69.61
70.23
71.62
73.17
74.33
74.83
74.74
74.36
74.04
74.04
74.43
74.96
75.15
74.37
72.02
67.95
62.55
56.79
51.96
49.22
49.28
52.31
57.99
65.70
74.59
83.66
91.80
97.88
100.99
100.63
96.78
89.99
81.22
71.75
62.86
55.52
50.17
46.42
43.20
39.21
33.45
25.71
16.61
7.29
-1.31
-8.89
-15.99
-23.66
-32.78
-43.54
-55.10
-65.89
-74.17
-78.66
-79.03
-75.75
-69.81
-62.27
-53.96
-45.48
-37.37
-30.21
-24.74
-21.59
-21.12
-23.23
-27.32
-32.61
-38.15
-43.19
-47.24
-50.17
-52.11
-53.33
-54.13
-54.61
-54.77
-54.51
-53.89
-53.17
-52.81
-53.32
-55.17
-58.57
-63.30
-68.75
-73.96
-77.63
-78.42
-75.37
-68.16
-57.36
-44.29
-30.61
-17.86
-7.06
1.42
7.56
11.44
13.01
12.06
8.47
2.50
-5.08
-13.13
-20.39
-25.90
-29.25
-30.59
-30.40
-29.18
-27.21
-24.56
-21.16
-17.13
-12.98
-9.52
-7.74
-8.53
-12.29
-18.80
-27.14
-35.79
-42.93
-46.70
-45.60
-38.79
-26.55
-10.24
7.65
24.10
36.42
42.95
43.48
39.00
30.97
20.79
9.72
-0.86
-9.37
-14.41
-15.58
-14.08
-12.62
-14.22
-20.61
-31.08
-42.73
-51.88
-56.00
-54.84
-50.28
-45.09
-41.47
-40.41
-41.67
-44.40
-47.56
-50.02
-50.58
-47.94
-41.03
-29.44
-13.78
4.33
22.65
39.14
52.48
62.31
68.98
73.14
75.35
75.91
74.98
72.81
69.85
66.67
63.72
61.14
58.85
56.81
55.26
54.93
56.69
61.14
68.13
76.72
85.38
92.57
97.11
98.31
95.92
89.99
81.03
70.18
59.39
51.02
47.24
48.94
55.37
64.24
72.65
78.17
79.61
77.16
71.82
64.80
57.02
49.05
41.24
33.83
27.05
20.99
15.50
10.34
5.31
0.46
-3.94
-7.53
-10.14
-11.93
-13.43
-15.31
-18.14
-22.19
-27.41
-33.54
-40.42
-47.98
-56.10
-64.39
-71.88
-77.18
-78.92
-76.46
-70.16
-61.46
-52.24
-44.11
-37.86
-33.40
-30.19
-27.85
-26.47
-26.55
-28.58
-32.54
-37.67
-42.70
-46.29
-47.66
-46.79
-44.29
-41.08
-37.88
-35.04
-32.51
-30.10
-27.68
-25.43
-23.75
-23.18
-24.29
-27.44
-32.59
-39.09
-45.75
-50.93
-53.05
-51.00
-44.55
-34.46
-22.13
-9.18
3.01
13.62
22.30
28.89
33.29
35.31
34.75
31.70
26.56
20.09
13.27
7.00
1.97
-1.52
-3.48
-4.25
-4.31
-4.26
-4.68
-5.97
-8.26
-11.33
-14.70
-17.94
-20.95
-24.19
-28.38
-34.13
-41.25
-48.60
-54.25
-56.14
-52.96
-44.60
-32.15
-17.43
-2.34
11.67
23.78
33.64
41.11
46.09
48.52
48.39
45.95
41.79
36.80
31.97
28.05
25.36
23.66
22.40
21.02
19.30
17.31
15.33
13.58
12.03
10.43
8.43
5.79
2.43
-1.62
-6.44
-12.26
-19.30
-27.55
-36.40
-44.70
-50.83
-53.16
-50.52
-42.59
-29.99
-14.18
2.93
19.29
33.23
43.74
50.49
53.85
54.50
53.20
50.49
46.68
42.05
36.93
31.83
27.28
23.64
20.95
19.00
17.48
16.13
14.83
13.48
11.97
10.06
7.50
4.16
0.13
-4.33
-8.92
-13.39
-17.77
-22.37
-27.74
-34.33
-42.12
-50.39
-57.63
-61.90
-61.49
-55.52
-44.35
-29.55
-13.39
1.87
14.59
24.06
30.44
34.42
36.74
37.87
37.91
36.76
34.28
30.58
26.08
21.37
17.01
13.40
10.69
8.87
7.81
7.31
7.08
6.68
5.55
3.12
-1.00
-6.86
-14.06
-21.72
-28.73
-34.11
-37.53
-39.58
-41.67
-45.32
-51.50
-59.84
-68.63
-75.42
-77.99
-75.23
-67.53
-56.44
-43.88
-31.46
-20.08
-9.97
-1.09
6.52
12.64
16.92
19.29
20.11
20.24
20.71
22.17
24.58
27.16
28.86
28.89
27.26
24.75
22.50
21.48
22.03
23.88
26.43
29.05
31.34
33.13
34.30
34.70
34.22
32.72
30.22
26.97
23.57
20.92
20.22
22.54
28.38
37.29
47.94
58.57
67.66
74.49
79.24
82.57
84.98
86.46
86.37
83.93
78.68
70.86
61.39
51.61
42.73
35.58
30.38
26.83
24.38
22.50
20.71
18.76
16.35
13.07
8.46
2.14
-5.99
-15.65
-26.24
-37.18
-48.02
-58.71
-69.30
-79.74
-89.42
-97.30
-101.99
-102.37
-98.02
-89.51
-78.25
-66.09
-54.89
-46.09
-40.63
-39.07
-41.63
-48.07
-57.46
-68.10
-77.64
-83.64
-84.43
-79.67
-70.47
-58.96
-47.46
-37.65
-30.19
-24.90
-21.26
-18.85
-17.59
-17.48
-18.36
-19.77
-21.11
-22.08
-22.87
-24.15
-26.48
-29.75
-32.86
-33.89
-31.00
-23.21
-11.12
3.31
17.39
28.79
36.28
39.85
40.36
38.93
36.29
32.68
28.03
22.45
16.53
11.29
7.70
6.17
6.39
7.58
8.97
10.36
12.15
15.06
19.62
25.71
32.54
38.88
43.49
45.59
45.06
42.56
39.29
36.79
36.52
39.49
45.88
55.05
65.78
76.69
86.74
95.33
102.35
107.91
112.20
115.26
117.14
117.89
117.66
116.64
114.89
112.37
108.90
104.32
98.58
91.80
84.10
75.46
65.72
54.69
42.33
28.79
14.36
-0.55
-15.38
-29.51
-42.32
-53.34
-62.27
-68.96
-73.26
-74.91
-73.56
-69.05
-61.78
-52.87
-43.98
-36.74
-32.13
-30.10
-29.85
-30.29
-30.71
-31.00
-31.41
-32.28
-33.80
-35.87
-38.23
-40.60
-42.84
-44.94
-46.97
-48.94
-50.87
-52.70
-54.39
-55.93
-57.46
-59.39
-62.37
-67.17
-74.24
