1553630097.00
64.000000
-0.00
-0.00
-0.00
-0.00
-0.00
-0.00
-0.00
-0.00
-0.00
-0.01
-0.00
0.00
0.01
0.01
-0.00
-0.03
-0.05
-0.05
-0.00
0.13
0.36
0.66
1.01
1.37
1.72
2.06
2.40
2.77
3.24
3.80
4.42
5.06
5.66
6.20
6.68
7.15
7.64
8.31
9.14
10.09
11.04
11.88
12.56
13.14
13.76
14.58
15.96
17.91
20.32
22.90
25.38
27.58
29.57
31.68
34.20
37.81
42.54
48.15
54.10
59.83
64.97
69.58
74.14
79.19
85.71
93.76
103.00
112.62
121.73
129.77
136.75
144.29
150.58
157.77
166.64
177.95
191.79
206.97
220.57
228.25
225.36
208.37
176.87
132.76
80.05
23.07
-34.94
-92.44
-149.16
-205.23
-260.49
-313.74
-363.87
-409.83
-450.91
-486.51
-515.74
-537.23
-549.20
-550.00
-538.33
-514.18
-478.70
-433.99
-382.66
-327.32
-270.20
-213.02
-157.07
-103.31
-52.73
-6.30
35.10
70.84
100.68
124.77
143.64
157.97
168.45
175.63
179.88
181.50
180.75
177.99
173.61
168.06
161.69
154.73
147.30
139.46
131.29
122.95
114.67
106.68
99.11
91.92
84.94
77.92
70.68
63.27
55.92
49.01
42.88
37.63
33.11
28.89
24.51
19.65
14.38
9.03
4.18
0.24
-2.66
-4.72
-6.43
-8.23
-10.47
-13.35
-17.03
-21.47
-26.19
-30.02
-31.21
-28.05
-19.75
-7.11
7.51
21.02
30.78
35.69
36.30
34.27
31.37
28.72
26.57
24.73
23.12
22.10
22.30
24.10
27.13
30.24
31.93
31.02
27.30
21.69
15.78
11.01
8.09
6.73
6.04
5.21
3.97
2.68
1.96
2.21
3.31
4.71
5.78
6.12
5.66
4.65
3.45
2.36
1.53
1.00
0.72
0.56
0.40
0.20
-0.02
-0.15
-0.10
0.17
0.60
1.02
1.25
1.20
0.94
0.63
0.44
0.48
0.76
1.24
1.91
2.75
3.74
4.84
5.99
7.12
8.14
8.98
9.59
9.91
9.88
9.45
8.60
7.36
5.85
4.27
2.69
1.19
-0.23
-1.61
-3.02
-4.55
-6.21
-7.96
-9.71
-11.33
-12.64
-13.50
-13.82
-13.55
-12.79
-11.69
-10.49
-9.40
-8.61
-8.18
-8.07
-8.12
-8.14
-7.95
-7.42
-6.58
-5.56
-4.61
-3.95
-3.70
-3.83
-4.16
-4.45
-4.51
-4.27
-3.83
-3.38
-3.08
-3.01
-3.12
-3.33
-3.52
-3.64
-3.64
-3.44
-2.95
-2.04
-0.70
0.96
2.68
4.15
5.14
5.53
5.40
4.91
4.28
3.69
3.22
2.88
2.64
2.45
2.29
2.22
2.27
2.51
2.91
3.35
3.62
3.47
2.80
1.75
0.64
-0.14
-0.31
0.10
0.77
1.24
1.15
0.41
-0.76
-1.99
-2.96
-3.57
-3.97
-4.39
-5.00
-5.84
-6.82
-7.91
-9.15
-10.60
-12.22
-13.73
-14.64
-14.41
-12.71
-9.61
-5.61
-1.43
2.22
4.88
6.37
6.82
6.46
5.56
4.40
3.17
2.10
1.39
1.19
1.58
2.50
3.74
4.95
5.78
5.99
5.53
4.61
3.57
2.79
2.50
2.72
3.21
3.58
3.48
2.74
1.44
-0.12
-1.55
-2.57
-3.09
-3.28
-3.43
-3.85
-4.75
-6.15
-7.89
-9.65
-11.03
-11.64
-11.22
-9.77
-7.49
-4.83
-2.24
-0.11
1.38
2.23
2.58
2.65
2.67
2.88
3.42
4.32
5.41
6.40
6.98
6.98
6.49
5.81
5.33
5.31
5.73
6.33
6.76
6.71
6.12
5.12
3.96
2.88
1.98
1.23
0.48
-0.39
-1.40
-2.54
-3.78
-5.14
-6.74
-8.70
-11.02
-13.49
-15.69
-17.09
-17.23
-15.92
-13.29
-9.78
-5.96
-2.33
0.78
3.29
5.26
6.76
7.87
8.60
8.96
9.01
8.86
8.65
8.49
8.38
8.21
7.89
7.35
6.65
5.98
5.51
5.37
5.53
5.80
5.86
5.45
4.44
2.91
1.13
-0.58
-2.01
-3.13
-4.12
-5.25
-6.72
-8.56
-10.57
-12.40
-13.65
-14.00
-13.30
-11.59
-9.07
-6.06
-2.92
0.01
2.47
4.29
5.49
6.17
6.51
6.67
6.73
6.70
6.51
6.12
5.55
4.87
4.20
3.70
3.50
3.64
4.05
4.54
4.87
4.81
4.25
3.22
1.87
0.42
-0.96
-2.15
-3.12
-3.87
-4.48
-5.11
-6.00
-7.42
-9.47
-12.01
-14.56
-16.49
-17.17
-16.30
-13.93
-10.49
-6.57
-2.76
0.50
2.98
4.67
5.69
6.25
6.56
6.75
6.84
6.78
6.56
6.26
6.04
6.06
6.35
6.75
7.02
6.99
6.65
6.15
5.73
5.47
5.29
4.96
4.22
2.98
1.33
-0.48
-2.16
-3.46
-4.31
-4.78
-5.12
-5.66
-6.74
-8.50
-10.81
-13.20
-15.00
-15.56
-14.46
-11.75
-7.90
-3.63
0.34
3.48
5.64
6.97
7.77
8.39
9.03
9.70
10.27
10.57
10.51
10.14
9.63
9.20
8.95
8.84
8.69
8.31
7.67
6.88
6.20
5.80
5.69
5.73
5.65
5.24
4.41
3.24
1.88
0.52
-0.68
-1.63
-2.39
-3.12
-4.07
-5.46
-7.37
-9.66
-11.94
-13.68
-14.42
-13.84
-11.95
-8.99
-5.43
-1.80
1.43
3.96
5.76
6.96
7.77
8.36
8.76
8.88
8.65
8.13
7.52
7.11
7.11
7.52
8.13
8.57
8.53
7.91
6.87
5.75
4.89
4.46
4.42
4.51
4.42
3.96
3.09
1.90
0.57
-0.78
-2.04
-3.20
-4.24
-5.19
-6.12
-7.15
-8.43
-10.06
-11.95
-13.81
-15.16
-15.51
-14.55
-12.29
-9.03
-5.30
-1.63
1.59
4.15
6.07
7.39
8.22
8.61
8.66
8.47
8.19
7.93
7.77
7.69
7.64
7.56
7.43
7.28
7.12
6.90
6.54
5.89
4.87
3.55
2.09
0.75
-0.29
-0.95
-1.36
-1.72
-2.25
-3.08
-4.23
-5.64
-7.24
-8.98
-10.84
-12.79
-14.77
-16.70
-18.47
-19.92
-20.91
-21.25
-20.76
-19.37
-17.15
-14.36
-11.42
-8.78
-6.84
-5.80
-5.63
-6.12
-6.91
-7.66
-8.09
-8.10
-7.66
-6.80
-5.52
-3.83
-1.78
0.43
2.50
4.09
4.96
5.09
4.67
4.05
3.52
3.16
2.81
2.14
0.86
-1.18
-3.89
-7.00
-10.17
-13.19
-15.94
-18.44
-20.74
-22.77
-24.36
-25.32
-25.48
-24.86
-23.65
-22.06
-20.28
-18.41
-16.46
-14.48
-12.65
-11.26
-10.66
-11.04
-12.35
-14.23
-16.11
-17.33
-17.26
-15.39
-11.34
-4.92
3.78
14.28
25.70
36.81
46.30
53.06
56.47
56.54
53.89
49.51
44.50
39.82
36.02
33.30
31.50
30.30
29.37
28.37
27.05
25.16
22.50
19.11
15.24
11.47
8.49
6.91
6.97
8.50
10.91
13.41
15.31
16.14
15.78
14.42
12.43
10.24
8.19
6.51
5.27
4.38
3.75
3.30
3.00
2.85
2.83
2.86
2.84
2.68
2.35
1.89
1.35
0.78
0.15
-0.60
-1.56
-2.70
-3.98
-5.27
-6.52
-7.73
-8.99
-10.42
-12.10
-14.07
-16.26
-18.52
-20.55
-22.00
-22.47
-21.64
-19.43
-16.03
-11.92
-7.68
-3.88
-0.85
1.36
2.87
3.89
4.62
5.19
5.70
6.28
7.04
7.96
8.87
9.41
9.21
8.09
6.19
3.93
1.84
0.26
-0.82
-1.65
-2.54
-3.64
-4.92
-6.22
-7.49
-8.86
-10.57
-12.77
-15.32
-17.80
-19.63
-20.39
-19.93
-18.48
-16.40
-14.06
-11.65
-9.21
-6.70
-4.15
-1.67
0.58
2.43
3.83
4.80
5.43
5.83
6.12
6.39
6.73
7.17
7.65
8.06
8.23
8.06
7.56
6.87
6.21
5.77
5.60
5.59
5.55
5.27
4.69
3.89
3.03
2.27
1.63
1.00
0.17
-1.00
-2.52
-4.23
-5.86
-7.27
-8.47
-9.64
-11.01
-12.68
-14.53
-16.29
-17.64
-18.39
-18.48
-17.95
-16.78
-14.92
-12.27
-8.83
-4.84
-0.68
3.17
6.40
8.85
10.54
11.57
12.02
11.93
11.39
10.58
9.74
9.11
8.81
8.79
8.92
9.00
8.92
8.67
8.28
7.79
7.21
6.52
5.68
4.72
3.72
2.74
1.86
1.09
0.40
-0.29
-1.07
-2.05
-3.28
-4.81
-6.65
-8.76
-11.03
-13.27
-15.23
-16.61
-17.12
-16.56
-14.84
-12.04
-8.44
-4.42
-0.39
3.24
6.23
8.50
10.09
11.13
11.78
12.13
12.21
12.03
11.60
11.02
10.40
9.94
9.73
9.78
10.00
10.20
10.20
9.89
9.26
8.40
7.41
6.37
5.25
4.01
2.59
0.99
-0.68
-2.28
-3.67
-4.82
-5.80
-6.77
-7.92
-9.34
-11.07
-12.99
-14.95
-16.67
-17.85
-18.18
-17.42
-15.44
-12.34
-8.42
-4.14
-0.01
3.51
6.19
8.01
9.15
9.87
10.38
10.77
11.05
11.13
10.96
10.57
10.04
9.48
8.96
8.51
8.11
7.71
7.28
6.81
6.31
5.78
5.20
4.50
3.59
2.39
0.90
-0.74
-2.30
-3.59
-4.54
-5.26
-6.02
-7.04
-8.48
-10.29
-12.32
-14.38
-16.31
-17.90
-18.91
-18.97
-17.77
-15.17
-11.33
-6.77
-2.15
1.93
5.13
7.42
8.92
9.83
10.22
10.16
9.67
8.87
7.98
7.23
6.80
6.74
6.96
7.24
7.31
7.00
6.21
5.06
3.78
2.65
1.82
1.25
0.70
-0.13
-1.47
-3.31
-5.49
-7.75
-9.87
-11.74
-13.40
-14.91
-16.36
-17.78
-19.20
-20.68
-22.28
-23.99
-25.70
-27.08
-27.69
-27.12
-25.18
-22.04
-18.17
-14.21
-10.69
-7.86
-5.71
-4.04
-2.67
-1.53
-0.62
0.10
0.79
1.73
3.18
5.26
7.82
10.54
13.03
15.04
16.49
17.51
18.26
18.82
19.10
18.92
18.08
16.52
14.38
11.98
9.67
7.72
6.14
4.79
3.38
1.68
-0.40
-2.79
-5.26
-7.51
-9.20
-10.05
-9.86
-8.59
-6.38
-3.50
-0.26
3.05
6.27
9.26
11.89
13.96
15.30
15.77
15.43
14.49
13.25
12.01
10.93
10.05
9.28
8.55
7.80
7.02
6.23
5.45
4.73
4.08
3.51
2.96
2.30
1.41
0.20
-1.31
-3.00
-4.71
-6.34
-7.91
-9.55
-11.38
-13.42
-15.49
-17.25
-18.26
-18.18
-16.84
-14.32
-10.92
-7.06
-3.15
0.51
3.74
6.48
8.74
10.55
11.92
12.82
13.20
13.06
12.43
11.42
10.19
8.94
7.85
7.07
6.62
6.45
6.38
6.23
5.85
5.10
4.00
2.60
1.02
-0.57
-2.08
-3.42
-4.64
-5.81
-7.03
-8.39
-9.96
-11.77
-13.72
-15.63
-17.16
-17.90
-17.46
-15.65
-12.55
-8.57
-4.26
-0.18
3.29
6.06
8.20
9.88
11.23
12.27
12.97
13.27
13.16
12.70
11.97
11.06
10.06
9.05
8.09
7.27
6.63
6.21
5.95
5.79
5.59
5.22
4.59
3.62
2.31
0.74
-0.99
-2.70
-4.24
-5.53
-6.60
-7.56
-8.64
-10.01
-11.79
-13.89
-16.02
-17.74
-18.56
-18.11
-16.23
-13.10
-9.12
-4.84
-0.76
2.82
5.81
8.25
10.22
11.73
12.71
13.10
12.90
12.29
11.53
10.88
10.50
10.34
10.23
9.98
9.49
8.80
8.03
7.28
6.60
5.94
5.25
4.48
3.59
2.56
1.32
-0.18
-1.91
-3.70
-5.33
-6.59
-7.43
-8.03
-8.66
-9.61
-11.02
-12.83
-14.87
-16.84
-18.44
-19.33
-19.20
-17.81
-15.12
-11.33
-6.88
-2.34
1.80
5.21
7.80
9.67
10.95
11.79
12.22
12.27
11.96
11.38
10.64
9.90
9.32
8.98
8.89
8.98
9.11
9.16
9.02
8.64
8.03
7.23
6.33
5.40
4.49
3.54
2.46
1.11
-0.60
-2.60
-4.64
-6.39
-7.58
-8.14
-8.30
-8.46
-9.05
-10.33
-12.26
-14.55
-16.72
-18.24
-18.71
-17.93
-15.89
-12.84
-9.16
-5.25
-1.48
1.97
5.06
7.93
10.69
13.40
15.89
17.75
18.41
17.33
14.27
9.44
3.64
-2.02
-6.46
-9.03
-9.71
-9.06
-7.82
-6.59
-5.56
-4.54
-3.22
-1.49
0.41
2.04
2.92
2.83
1.87
0.41
-1.12
-2.41
-3.33
-3.98
-4.57
-5.28
-6.23
-7.41
-8.70
-9.97
-11.07
-11.86
-12.24
-12.05
-11.09
-9.14
-6.11
-2.12
2.42
6.89
10.66
13.29
14.60
14.73
13.95
12.61
11.01
9.44
8.18
7.42
7.26
7.63
8.28
8.94
9.32
9.29
8.81
7.99
6.98
5.96
5.10
4.48
4.05
3.61
2.92
1.78
0.20
-1.64
-3.45
-5.04
-6.33
-7.40
-8.37
-9.28
-10.14
-10.95
-11.83
-12.93
-14.40
-16.20
-17.98
-19.21
-19.31
-17.96
-15.19
-11.38
-7.05
-2.75
1.17
4.51
7.20
9.20
10.50
11.10
11.11
10.74
10.25
9.88
9.74
9.75
9.75
9.53
8.97
8.12
7.15
6.29
5.72
5.46
5.38
5.25
4.82
3.95
2.60
0.88
-1.07
-3.04
-4.84
-6.31
-7.35
-7.98
-8.33
-8.67
-9.30
-10.45
-12.18
-14.35
-16.61
-18.52
-19.61
-19.55
-18.16
-15.51
-11.91
-7.82
-3.78
-0.18
2.73
4.90
6.43
7.49
8.21
8.69
8.97
9.08
8.99
8.72
8.30
7.83
7.43
7.20
7.18
7.30
7.40
7.30
6.90
6.20
5.33
4.41
3.56
2.76
1.90
0.86
-0.38
-1.74
-3.06
-4.19
-5.09
-5.91
-6.91
-8.33
-10.28
-12.69
-15.29
-17.75
-19.72
-20.88
-20.95
-19.77
-17.34
-13.85
-9.67
-5.33
-1.31
2.01
4.51
6.28
7.50
8.38
9.06
9.52
9.69
9.55
9.14
8.63
8.26
8.15
8.30
8.56
8.72
8.63
8.28
7.78
7.24
6.74
6.23
5.59
4.69
3.42
1.77
-0.19
-2.33
-4.46
-6.38
-7.92
-9.01
-9.72
-10.28
-10.96
-12.02
-13.59
-15.62
-17.83
-19.77
-20.92
-20.83
-19.27
-16.28
-12.16
-7.39
-2.48
2.11
6.01
8.99
10.93
11.91
12.10
11.80
11.32
10.89
10.62
10.49
10.42
10.36
10.27
10.15
10.02
9.88
9.72
9.52
9.26
8.89
8.32
7.43
6.17
4.52
2.60
0.62
-1.21
-2.71
-3.84
-4.70
-5.55
-6.66
-8.28
-10.52
-13.29
-16.29
-19.07
-21.12
-21.98
-21.42
-19.43
-16.24
-12.26
-7.93
-3.63
0.33
3.77
6.59
8.72
10.13
10.85
11.00
10.73
10.19
9.54
8.92
8.45
8.20
8.23
8.50
8.83
9.04
8.96
8.57
7.99
7.42
7.00
6.67
6.25
5.53
4.41
3.01
1.57
0.32
-0.64
-1.39
-2.15
-3.13
-4.45
-6.12
-8.11
-10.32
-12.63
-14.82
-16.51
-17.27
-16.70
-14.61
-11.15
-6.71
-1.91
2.67
6.59
9.59
11.62
12.75
13.13
12.95
12.36
11.56
10.69
9.85
9.13
8.55
8.10
7.69
7.28
6.79
6.21
5.58
4.98
4.48
4.04
3.57
2.86
1.74
0.16
-1.79
-3.88
-5.86
-7.55
-8.97
-10.24
-11.58
-13.16
-15.06
-17.18
-19.27
-21.00
-22.01
-21.95
-20.55
-17.75
-13.72
-8.91
-3.95
0.49
3.89
6.05
7.08
7.29
7.07
6.66
6.15
5.45
4.48
3.28
2.03
0.99
0.38
0.28
0.55
0.97
1.28
1.38
1.25
0.96
0.53
-0.06
-0.87
-1.94
-3.23
-4.63
-5.99
-7.24
-8.38
-9.53
-10.82
-12.38
-14.18
-16.01
-17.45
-18.04
-17.37
-15.26
-11.88
-7.66
-3.17
1.09
4.79
7.79
10.11
11.79
12.82
13.13
12.67
11.46
9.66
7.56
5.52
3.80
2.53
1.68
1.08
0.54
-0.08
-0.85
-1.82
-3.04
-4.61
-6.58
-8.92
-11.46
-13.97
-16.22
-18.10
-19.67
-21.11
-22.54
-23.96
-25.10
-25.49
-24.54
-21.76
-16.93
-10.23
-2.28
6.06
13.87
20.39
25.28
28.54
30.41
31.22
31.23
30.58
29.37
27.71
25.78
23.82
22.01
20.42
19.02
17.72
16.42
15.05
13.60
12.05
10.42
8.71
6.95
5.22
3.58
2.10
0.78
-0.42
-1.60
-2.89
-4.38
-6.15
-8.19
-10.41
-12.58
-14.38
-15.42
-15.34
-13.88
-11.04
-7.04
-2.30
2.70
7.48
11.67
15.06
17.55
19.16
19.99
20.22
20.02
19.54
18.90
18.14
17.27
16.26
15.10
13.83
12.49
11.18
10.01
9.05
8.33
7.77
7.22
6.47
5.37
3.86
1.99
-0.10
-2.25
-4.30
-6.17
-7.80
-9.29
-10.77
-12.46
-14.55
-17.10
-19.95
-22.73
-24.91
-25.96
-25.51
-23.44
-19.88
-15.15
-9.66
-3.88
1.75
6.81
10.92
13.85
15.53
16.15
16.02
15.52
14.92
14.36
13.83
13.28
12.68
12.05
11.43
10.82
10.15
9.37
8.46
7.49
6.57
5.81
5.18
4.52
3.61
2.30
0.55
-1.51
-3.69
-5.79
-7.68
-9.36
-10.94
-12.57
-14.37
-16.40
-18.68
-21.10
-23.48
-25.51
-26.76
-26.73
-25.00
-21.39
-16.09
-9.69
-3.02
3.08
7.99
11.53
13.84
15.27
16.18
16.77
17.10
17.15
16.95
16.54
16.02
15.48
14.94
14.37
13.73
12.99
12.19
11.37
10.54
9.69
8.78
7.73
6.51
5.05
3.34
1.43
-0.58
-2.55
-4.34
-5.89
-7.23
-8.47
-9.72
-11.07
-12.53
-14.14
-15.90
-17.87
-20.08
-22.45
-24.69
-26.31
-26.69
-25.33
-22.02
-16.96
-10.81
-4.40
1.43
6.14
9.56
11.88
13.45
14.57
15.44
16.02
16.18
15.85
15.06
14.02
13.05
12.42
12.24
12.40
12.64
12.65
12.22
11.36
10.20
8.91
7.55
6.11
4.54
2.83
1.12
-0.42
-1.69
-2.75
-3.81
-5.11
-6.80
-8.80
-10.90
-12.85
-14.52
-15.96
-17.37
-19.01
-21.04
-23.40
-25.79
-27.73
-28.58
-27.82
-25.10
-20.44
-14.25
-7.31
-0.55
5.23
9.56
12.49
14.46
16.12
17.94
20.03
21.99
23.10
22.64
20.23
16.01
10.62
4.94
-0.23
-4.39
-7.41
-9.38
-10.51
-11.00
-11.05
-10.99
-11.27
-12.46
-15.05
-19.26
-24.89
-31.27
-37.29
-41.60
-42.92
-40.49
-34.39
-25.67
-16.16
-7.92
-2.58
-0.90
-2.61
-6.75
-12.03
-17.29
-21.61
-24.32
-24.99
-23.43
-19.76
-14.45
-8.21
-1.86
3.90
8.60
12.00
14.14
15.20
15.54
15.52
15.47
15.54
15.76
16.02
16.13
16.02
15.66
15.17
14.70
14.41
14.35
14.50
14.71
14.82
14.74
14.45
14.01
13.52
13.00
12.40
11.61
10.52
9.11
7.47
5.78
4.24
2.99
2.08
1.45
1.01
0.56
-0.11
-1.20
-2.91
-5.29
-8.21
-11.32
-14.14
-16.17
-17.05
-16.63
-14.98
-12.33
-8.91
-4.99
-0.79
3.42
7.36
10.78
13.48
15.43
16.67
17.31
17.50
17.40
17.19
16.98
16.81
16.64
16.42
16.09
15.74
15.47
15.41
15.53
15.70
15.69
15.30
14.46
13.22
11.70
10.03
8.29
6.50
4.67
2.84
1.07
-0.59
-2.08
-3.37
-4.49
-5.47
-6.40
-7.36
-8.45
-9.75
-11.31
-13.09
-14.93
-16.52
-17.41
-17.17
-15.51
-12.46
-8.35
-3.79
0.58
4.22
6.90
8.69
9.87
10.76
11.56
12.30
12.87
13.11
12.95
12.43
11.74
11.07
10.55
10.15
9.77
9.31
8.71
7.97
7.17
6.34
5.51
4.62
3.66
2.59
1.39
0.06
-1.39
-2.90
-4.41
-5.83
-7.12
-8.26
-9.33
-10.44
-11.69
-13.13
-14.78
-16.55
-18.25
-19.62
-20.32
-20.03
-18.54
-15.84
-12.14
-7.84
-3.46
0.56
3.90
6.48
8.38
9.77
10.80
11.53
11.91
11.88
11.42
10.63
9.75
9.00
8.52
8.25
8.08
7.87
7.60
7.33
7.10
6.86
6.39
5.50
4.07
2.21
0.21
-1.59
-2.97
-3.94
-4.70
-5.51
-6.56
-7.97
-9.72
-11.73
-13.84
-15.77
-17.15
-17.60
-16.79
-14.65
-11.34
-7.33
-3.16
0.69
3.95
6.58
8.69
10.40
11.81
12.89
13.54
13.67
13.26
12.38
11.24
10.05
9.01
8.22
7.67
7.29
7.01
6.74
6.46
6.09
5.55
4.70
3.46
1.83
-0.01
-1.80
-3.33
-4.52
-5.49
-6.54
-7.94
-9.87
-12.25
-14.76
-16.93
-18.28
-18.42
-17.19
-14.65
-11.04
-6.77
-2.29
1.94
5.54
8.30
10.17
11.29
11.90
12.23
12.45
12.63
12.71
12.61
12.29
11.72
10.93
9.96
8.86
7.69
6.56
5.55
4.70
3.97
3.23
2.27
0.96
-0.74
-2.73
-4.76
-6.58
-8.05
-9.14
-10.04
-10.97
-12.16
-13.71
-15.55
-17.46
-19.05
-19.89
-19.56
-17.78
-14.58
-10.34
-5.66
-1.22
2.50
5.36
7.48
9.15
10.59
11.81
12.73
13.21
13.26
13.00
12.58
12.11
11.55
10.81
9.82
8.62
7.35
6.20
5.30
4.67
4.22
3.74
3.02
1.92
0.38
-1.49
-3.50
-5.41
-7.06
-8.39
-9.54
-10.73
-12.22
-14.11
-16.35
-18.67
-20.69
-22.00
-22.24
-21.20
-18.92
-15.63
-11.69
-7.55
-3.61
-0.13
2.76
5.04
6.84
8.27
9.46
10.42
11.11
11.44
11.33
10.77
9.86
8.74
7.54
6.36
5.26
4.29
3.50
2.93
2.57
2.29
1.86
1.06
-0.25
-1.98
-3.85
-5.50
-6.66
-7.27
-7.54
-7.82
-8.48
-9.74
-11.57
-13.68
-15.63
-16.93
-17.15
-16.06
-13.63
-10.12
-5.96
-1.69
2.24
5.57
8.26
10.43
12.22
13.73
14.92
15.70
15.99
15.78
15.18
14.33
13.39
12.44
11.47
10.48
9.46
8.46
7.55
6.78
6.11
5.40
4.50
3.31
1.81
0.14
-1.50
-2.98
-4.27
-5.46
-6.74
-8.29
-10.19
-12.38
-14.66
-16.73
-18.20
-18.75
-18.14
-16.33
-13.51
-10.01
-6.23
-2.52
0.93
4.03
6.77
9.12
11.01
12.36
13.14
13.41
13.27
12.86
12.24
11.40
10.36
9.13
7.82
6.53
5.37
4.39
3.56
2.83
2.12
1.37
0.52
-0.48
-1.68
-3.09
-4.64
-6.24
-7.80
-9.28
-10.77
-12.40
-14.29
-16.42
-18.60
-20.42
-21.42
-21.19
-19.52
-16.48
-12.42
-7.83
-3.22
1.03
4.68
7.67
10.01
11.75
12.90
13.49
13.60
13.32
12.82
12.21
11.57
10.89
10.16
9.34
8.49
7.64
6.81
6.01
5.20
4.32
3.38
2.33
1.18
-0.12
-1.56
-3.14
-4.77
-6.37
-7.86
-9.26
-10.66
-12.22
-14.02
-16.00
-17.89
-19.26
-19.62
-18.62
-16.19
-12.53
-8.14
-3.54
0.82
4.72
8.13
11.12
13.72
15.92
17.71
19.12
20.24
21.17
21.95
22.45
22.44
21.64
19.84
16.95
12.98
8.13
2.71
-2.77
-7.70
-11.53
-14.02
-15.29
-15.86
-16.34
-17.21
-18.58
-20.22
-21.81
-23.05
-23.88
-24.42
-24.88
-25.48
-26.35
-27.56
-29.06
-30.61
-31.65
-31.46
-29.33
-24.89
-18.38
-10.61
-2.66
4.53
10.50
15.37
19.62
23.76
28.00
32.20
35.97
38.92
40.91
42.07
42.74
43.28
43.93
44.76
45.61
46.11
45.82
44.33
41.57
37.91
34.17
31.32
30.06
30.35
31.31
31.47
29.39
24.29
16.39
6.75
-3.20
-12.34
-20.21
-27.03
-33.36
-39.82
-46.75
-54.05
-61.11
-66.69
-68.96
-65.91
-56.04
-39.21
-17.22
6.46
27.68
43.06
51.13
52.54
49.43
44.24
38.72
33.68
29.35
25.96
24.17
24.91
28.94
36.39
46.52
57.88
68.52
76.37
79.60
76.90
67.72
52.31
31.62
7.07
-19.52
-45.94
-69.68
-88.33
-100.34
-105.67
-106.04
-104.26
-102.98
-103.50
-105.21
-106.11
-103.97
-97.60
-87.39
-74.94
-62.21
-50.67
-40.91
-32.89
-26.40
-21.41
-18.13
-16.79
-17.24
-18.83
-20.33
-20.31
-17.59
-11.69
-3.11
6.84
16.41
23.90
28.20
29.02
26.84
22.62
17.43
12.18
7.44
3.51
0.50
-1.65
-3.18
-4.49
-6.13
-8.50
-11.64
-15.18
-18.39
-20.54
-21.15
-20.13
-17.74
-14.39
-10.47
-6.19
-1.63
3.19
8.22
13.32
18.28
22.81
26.67
29.69
31.83
33.24
34.17
34.83
35.36
35.66
35.40
34.04
31.05
26.10
19.45
12.05
5.53
1.70
1.94
6.49
14.22
22.93
30.08
33.77
33.23
28.94
22.10
14.03
5.63
-2.78
-11.15
-19.48
-27.49
-34.74
-40.72
-45.15
-48.04
-49.63
-50.17
-49.71
-48.04
-44.78
-39.67
-32.80
-24.75
-16.41
-8.69
-2.12
3.25
7.83
12.17
16.64
21.23
25.58
29.24
31.88
33.51
34.42
34.97
35.36
35.53
35.21
34.13
32.17
29.52
26.57
23.73
21.20
18.91
16.57
13.82
10.39
6.22
1.40
-3.84
-9.18
-14.18
-18.30
-20.95
-21.62
-20.09
-16.56
-11.61
-6.05
-0.68
3.93
7.50
10.03
11.65
12.52
12.77
12.58
12.16
11.81
11.79
12.25
13.10
14.05
14.75
14.91
14.55
13.90
13.27
12.78
12.31
11.42
9.66
6.79
2.98
-1.31
-5.51
-9.21
-12.36
-15.16
-17.90
-20.86
-24.11
-27.55
-30.98
-34.09
-36.54
-37.92
-37.84
-36.06
-32.60
-27.84
-22.39
-17.00
-12.16
-8.01
-4.28
-0.53
3.55
7.88
11.95
14.98
16.29
15.57
13.01
9.22
4.97
0.89
-2.61
-5.39
-7.49
-9.05
-10.29
-11.40
-12.56
-13.88
-15.35
-16.86
-18.21
-19.21
-19.70
-19.57
-18.79
-17.40
-15.57
-13.61
-11.92
-10.91
-10.81
-11.55
-12.67
-13.48
-13.26
-11.53
-8.19
-3.53
1.97
7.81
13.68
19.46
25.09
30.44
35.18
38.88
41.12
41.70
40.74
38.64
35.89
32.92
30.04
27.35
24.93
22.80
21.04
19.72
18.89
18.50
18.33
18.05
17.26
15.63
13.03
9.65
5.94
2.48
-0.28
-2.16
-3.37
-4.34
-5.53
-7.26
-9.56
-12.21
-14.80
-16.86
-17.90
-17.56
-15.62
-12.13
-7.40
-1.97
3.55
8.63
12.98
16.50
19.25
21.31
22.69
23.32
23.19
22.35
21.00
19.46
18.05
16.95
16.16
15.54
14.87
14.03
13.00
11.84
10.65
9.43
8.07
6.44
4.43
2.12
-0.26
-2.44
-4.21
-5.58
-6.80
-8.18
-10.02
-12.43
-15.31
-18.40
-21.30
-23.58
-24.79
-24.54
-22.61
-18.99
-14.00
-8.23
-2.35
3.01
7.47
10.95
13.56
15.49
16.87
17.77
18.16
18.01
17.33
16.18
14.70
13.10
11.58
10.31
9.39
8.80
8.43
8.05
7.44
6.42
4.97
3.18
1.30
-0.44
-1.87
-2.97
-3.82
-4.62
-5.54
-6.80
-8.60
-11.15
-14.49
-18.40
-22.26
-25.15
-26.11
-24.55
-20.53
-14.88
-8.94
-4.05
-1.10
-0.22
-0.88
-2.27
-3.62
-4.59
-5.24
-5.85
-6.69
-7.88
-9.34
-10.85
-12.17
-13.02
-13.11
-12.08
-9.72
-6.02
-1.36
3.53
7.78
10.67
11.84
11.36
9.63
7.14
4.28
1.25
-1.89
-5.12
-8.39
-11.52
-14.30
-16.43
-17.60
-17.47
-15.75
-12.29
-7.27
-1.18
5.15
10.86
15.27
18.08
19.43
19.76
19.57
19.21
18.83
18.44
17.98
17.45
16.89
16.34
15.79
15.13
14.27
13.13
11.71
10.12
8.53
7.08
5.85
4.81
3.81
2.64
1.08
-0.98
-3.52
-6.33
-9.13
-11.65
-13.77
-15.55
-17.19
-19.03
-21.31
-24.13
-27.35
-30.51
-32.95
-33.96
-32.96
-29.76
-24.62
-18.26
-11.57
-5.37
-0.18
3.86
6.89
9.17
10.89
12.18
13.04
13.48
13.52
13.25
12.77
12.18
11.59
11.04
10.52
10.00
9.45
8.84
8.19
7.53
6.88
6.18
5.26
3.94
2.07
-0.34
-3.10
-5.90
-8.42
-10.48
-12.10
-13.52
-15.11
-17.21
-19.93
-23.08
-26.10
-28.22
-28.69
-27.02
-23.21
-17.71
-11.30
-4.87
0.88
5.53
8.98
11.38
12.96
13.97
14.54
14.75
14.61
14.18
13.55
12.88
12.30
11.86
11.51
11.12
10.54
9.78
8.95
8.21
7.65
7.15
6.44
5.18
3.19
0.50
-2.61
-5.74
-8.52
-10.77
-12.50
-13.91
-15.29
-16.91
-19.01
-21.65
-24.74
-27.97
-30.84
-32.74
-33.14
-31.67
-28.32
-23.45
-17.67
-11.67
-6.05
-1.14
2.99
6.44
9.33
11.74
13.67
15.15
16.29
17.35
18.59
20.23
22.25
24.43
26.38
27.71
28.22
27.92
27.06
25.99
25.01
24.28
23.80
23.45
23.01
22.28
21.07
19.24
16.73
13.56
9.85
5.79
1.60
-2.56
-6.63
-10.65
-14.66
-18.66
-22.48
-25.77
-28.08
-28.97
-28.15
-25.58
-21.56
-16.62
-11.40
-6.50
-2.32
0.98
3.43
5.19
6.39
7.09
7.33
7.08
6.41
5.42
4.26
3.11
2.09
1.27
0.69
0.35
0.24
0.34
0.58
0.84
0.99
0.88
0.38
-0.58
-1.96
-3.62
-5.29
-6.65
-7.44
-7.58
-7.21
-6.67
-6.36
-6.61
-7.62
-9.34
-11.59
-14.02
-16.20
-17.68
-18.04
-17.05
-14.74
-11.41
-7.59
-3.88
-0.75
1.59
3.21
4.34
5.27
6.17
7.07
7.85
8.41
8.70
8.81
8.88
9.07
9.39
9.74
9.90
9.71
9.06
8.05
6.82
5.58
4.42
3.38
2.38
1.29
0.00
-1.57
-3.38
-5.28
-7.06
-8.51
-9.53
-10.24
-10.91
-11.85
-13.32
-15.36
-17.77
-20.19
-22.16
-23.29
-23.29
-21.99
-19.36
-15.49
-10.67
-5.35
-0.15
4.25
7.34
8.86
8.94
8.05
6.87
6.05
6.03
6.84
8.16
9.45
10.15
9.93
8.80
7.17
5.61
4.71
4.74
5.63
6.93
8.05
8.49
8.21
7.68
7.82
9.87
14.96
23.70
35.72
49.34
61.68
69.20
68.73
58.64
39.53
14.31
-12.69
-37.04
-55.59
-67.12
-72.38
-73.26
-71.70
-68.95
-65.15
-59.62
-51.52
-40.43
-26.77
-11.78
2.93
15.81
25.78
32.16
34.60
32.91
27.28
18.61
8.58
-0.66
-7.32
-10.73
-11.61
-11.54
-11.95
-13.24
-14.56
-14.37
-11.43
-5.46
2.71
11.70
20.28
27.80
34.13
39.27
42.95
44.68
43.86
40.08
33.28
23.75
12.08
-0.81
-13.65
-24.75
-32.32
-34.99
-32.30
-25.03
-14.89
-3.90
6.39
15.27
22.77
29.07
34.05
37.10
37.37
34.15
27.12
16.29
1.85
-15.82
-35.87
-56.66
-75.80
-90.55
-98.66
-99.05
-92.26
-80.21
-65.63
-51.21
-38.92
-29.66
-23.21
-18.60
-14.70
-10.72
-6.43
-2.06
1.98
5.47
8.29
10.29
11.07
10.13
7.17
2.65
-2.18
-5.66
-6.48
-4.34
-0.17
4.37
7.63
8.76
7.97
6.38
5.26
5.49
7.09
9.30
11.04
11.50
10.55
8.83
7.32
6.90
7.93
10.17
13.01
15.75
17.87
19.17
19.73
19.83
19.90
20.36
21.48
23.17
24.92
25.86
25.12
22.17
17.15
10.93
4.99
0.92
-0.05
2.48
7.95
15.06
22.20
27.99
31.70
33.32
33.39
32.63
31.64
30.72
29.86
28.85
27.39
25.23
22.30
18.77
15.11
11.97
9.97
9.49
10.50
12.54
14.85
16.55
16.89
15.47
12.32
7.87
2.81
-2.20
-6.70
-10.51
-13.76
-16.65
-19.34
-21.84
-24.07
-25.92
-27.34
-28.46
-29.45
-30.55
-31.96
-33.79
-35.97
-38.16
-39.69
-39.58
-36.81
-30.69
-21.24
-9.33
3.41
15.11
24.26
30.21
33.21
34.15
34.06
33.62
32.96
31.84
29.97
27.36
24.40
21.67
19.47
17.50
14.83
10.25
2.85
-7.48
-19.84
-32.66
-44.19
-53.00
-58.19
-59.31
-56.19
-48.82
-37.55
-23.27
-7.57
7.53
20.03
28.50
32.40
32.13
28.71
23.46
17.66
12.38
8.39
6.12
5.68
6.85
9.23
12.35
15.74
19.06
22.03
24.41
25.98
26.52
25.91
24.14
21.35
17.77
13.75
9.60
5.59
1.89
-1.45
-4.45
-7.13
-9.50
-11.51
-13.07
-14.08
-14.51
-14.42
-13.95
-13.28
-12.65
-12.27
-12.36
-13.08
-14.49
-16.48
-18.78
-21.06
-22.99
-24.43
-25.31
-25.61
-25.27
-24.10
-21.97
-18.85
-14.97
-10.74
-6.65
-3.03
0.05
2.75
5.33
8.00
10.76
13.44
15.77
17.51
18.55
18.91
18.69
18.03
17.07
15.94
14.79
13.76
13.02
12.60
12.43
12.31
11.95
11.15
9.82
8.07
6.09
4.08
2.10
0.15
-1.90
-4.15
-6.62
-9.27
-11.95
-14.42
-16.38
-17.48
-17.44
-16.12
-13.59
-10.16
-6.26
-2.34
1.29
4.50
7.26
9.59
11.48
12.87
13.70
13.99
13.80
13.27
12.50
11.62
10.70
9.85
9.14
8.64
8.32
8.07
7.75
7.21
6.40
5.40
4.33
3.33
2.47
1.75
1.13
0.57
0.07
-0.45
-1.07
-1.96
-3.29
-5.17
-7.56
-10.18
-12.56
-14.17
-14.55
-13.47
-10.98
-7.45
-3.40
0.63
4.20
7.05
9.15
10.62
11.63
12.36
12.92
13.37
13.70
13.88
13.83
13.50
12.85
11.92
10.83
9.73
8.80
8.18
7.88
7.84
7.87
7.76
7.32
6.42
5.08
3.44
1.73
0.21
-0.93
-1.65
-2.06
-2.37
-2.83
-3.60
-4.75
-6.23
-7.93
-9.64
-11.10
-11.98
-11.97
-10.81
-8.44
-4.96
-0.75
3.74
7.98
11.57
14.31
16.19
17.38
18.18
18.85
19.57
20.46
21.53
22.77
24.10
25.35
26.29
26.71
26.51
25.83
25.00
24.38
24.16
24.22
24.14
23.51
22.17
20.44
19.01
18.50
18.98
19.71
19.26
15.98
8.94
-1.46
-13.20
-23.11
-28.04
-26.18
-17.77
-5.30
7.37
16.47
19.57
16.03
6.74
-6.65
-22.55
-39.33
-55.40
-69.02
-78.48
-82.78
-82.42
-79.52
-77.03
-77.83
-83.12
-92.30
-103.46
-114.16
-122.56
-127.87
-130.13
-129.42
-125.70
-117.88
-104.66
-85.64
-62.10
-37.76
-17.79
-6.78
-3.01
-2.29
2.85
18.53
44.40
73.63
