1484670227.00
64.000000
-0.00
-0.00
-0.00
-0.00
-0.00
-0.00
-0.00
-0.00
-0.00
-0.00
0.00
0.01
0.01
-0.00
-0.03
-0.05
-0.05
0.00
0.13
0.36
0.66
1.01
1.37
1.72
2.06
2.40
2.79
3.24
3.80
4.42
5.06
5.66
6.20
6.68
7.15
7.68
8.31
9.14
10.09
11.04
11.88
12.56
13.14
13.76
14.65
15.96
17.91
20.32
22.90
25.38
27.58
29.57
31.68
34.32
37.81
42.54
48.15
54.10
59.83
64.97
69.58
74.14
79.34
85.71
93.76
103.00
112.62
121.73
129.77
136.75
143.30
150.75
157.77
166.64
177.95
191.79
206.97
220.57
228.25
225.36
208.53
176.87
132.76
80.05
23.07
-34.94
-92.44
-149.16
-205.23
-260.37
-313.74
-363.87
-409.83
-450.91
-486.50
-515.74
-537.23
-549.22
-549.96
-538.37
-514.21
-478.67
-433.88
-382.45
-327.02
-269.84
-212.63
-156.66
-102.95
-52.37
-5.90
35.58
71.43
101.35
125.50
144.38
158.69
169.15
176.37
180.75
182.57
182.07
179.51
175.23
169.65
163.18
156.15
148.81
141.30
133.69
126.02
118.33
110.69
103.16
95.80
88.68
81.83
75.25
68.95
62.95
57.25
51.86
46.78
42.03
37.59
33.45
29.61
26.07
22.81
19.83
17.11
14.67
12.48
10.54
8.83
7.35
6.07
4.97
4.05
3.27
2.62
2.09
1.65
1.30
1.01
0.79
0.61
0.48
0.37
0.29
0.24
0.20
0.17
0.16
0.17
0.18
0.20
0.22
0.25
0.29
0.33
0.38
0.42
0.46
0.51
0.56
0.61
0.67
0.73
0.79
0.85
0.93
1.01
1.09
1.19
1.30
1.42
1.56
1.72
1.89
2.08
2.29
2.53
2.79
3.08
3.39
3.74
4.12
4.54
4.99
5.48
6.00
6.57
7.18
7.83
8.52
9.26
10.05
10.88
11.76
12.69
13.65
14.69
15.78
16.93
18.15
19.42
20.71
21.98
23.16
24.16
24.87
25.16
24.90
24.00
22.39
20.04
16.99
13.29
9.10
4.60
-0.01
-4.50
-8.65
-12.28
-15.25
-17.49
-18.99
-19.80
-20.01
-19.74
-19.06
-18.07
-16.82
-15.37
-13.77
-12.07
-10.31
-8.56
-6.86
-5.22
-3.61
-1.96
-0.26
1.55
3.47
5.52
7.55
9.51
11.38
13.24
15.20
17.32
19.64
22.12
24.72
27.09
29.06
30.68
32.11
33.61
35.35
37.42
39.75
42.25
44.29
45.62
46.24
46.45
46.65
47.13
48.04
49.20
50.36
50.48
48.91
45.31
39.57
31.77
21.79
9.13
-7.62
-25.74
-45.20
-66.79
-91.73
-120.82
-153.32
-186.40
-215.26
-234.60
-240.50
-232.87
-214.98
-192.42
-171.13
-155.38
-146.89
-144.81
-146.45
-147.94
-145.42
-134.96
-113.70
-81.14
-39.97
4.21
44.64
75.76
95.20
103.97
105.97
105.84
106.99
110.43
114.69
116.76
113.57
103.32
86.27
65.08
44.02
27.53
18.67
18.02
23.59
31.60
37.96
39.47
34.66
23.77
8.28
-9.83
-28.63
-46.62
-62.94
-77.53
-90.90
-103.78
-116.28
-127.11
-133.34
-131.03
-116.63
-88.83
-49.66
-4.41
39.90
76.74
102.11
115.25
118.21
114.46
107.41
99.66
92.69
87.27
83.65
81.78
81.31
81.60
81.91
81.59
80.33
78.23
75.71
73.28
71.37
70.12
69.21
67.94
65.32
60.44
52.68
41.86
28.14
11.86
-6.49
-26.04
-45.12
-61.19
-71.08
-72.16
-63.44
-46.36
-24.55
-2.61
15.47
27.57
33.67
35.22
34.05
31.45
27.93
23.49
18.27
12.89
8.44
5.95
5.81
7.40
9.22
9.49
6.99
1.69
-5.22
-11.86
-16.63
-18.99
-19.78
-20.75
-23.82
-30.30
-40.38
-53.09
-66.29
-77.01
-82.04
-78.70
-65.94
-44.98
-19.30
6.41
27.81
42.42
50.19
52.98
53.27
52.90
52.50
51.69
49.96
47.29
44.37
42.14
41.23
41.42
41.62
40.35
36.38
29.38
20.15
10.28
1.49
-5.17
-9.74
-13.44
-18.16
-25.83
-37.73
-54.13
-73.97
-94.76
-112.83
-123.94
-124.54
-113.02
-90.71
-61.80
-32.11
-7.23
9.31
16.81
17.09
13.23
8.10
3.50
0.06
-2.27
-3.64
-3.91
-2.66
0.54
5.80
12.68
20.11
26.64
30.85
31.88
29.78
25.54
20.57
16.15
12.82
10.22
7.34
3.16
-3.10
-11.75
-22.72
-35.48
-48.80
-60.44
-67.30
-66.27
-55.55
-35.76
-10.14
16.41
39.16
55.20
64.14
67.72
68.51
68.61
69.01
69.63
69.84
69.07
67.13
64.19
60.72
57.28
54.38
52.27
50.79
49.36
47.12
43.30
37.50
29.90
21.09
11.73
2.26
-7.31
-17.24
-27.90
-39.64
-52.66
-67.04
-82.31
-97.17
-109.27
-115.65
-113.83
-103.06
-85.10
-63.89
-44.24
-30.06
-23.18
-23.10
-27.87
-35.30
-43.74
-52.24
-60.09
-66.28
-69.43
-68.14
-61.70
-50.46
-35.92
-20.20
-5.38
7.25
17.34
25.35
31.92
37.33
41.19
42.56
40.43
34.19
23.89
10.36
-4.73
-18.88
-29.01
-32.05
-25.94
-10.72
11.05
34.85
55.69
69.81
75.90
75.11
70.01
63.26
56.59
50.56
45.11
40.14
35.91
32.87
31.26
30.74
30.37
28.92
25.48
19.93
13.13
6.45
1.30
-1.75
-3.31
-4.96
-8.65
-15.97
-27.45
-42.27
-58.20
-71.95
-79.97
-79.41
-69.21
-50.75
-27.53
-4.08
15.64
29.46
37.49
41.37
43.13
44.25
45.22
45.97
46.38
46.76
47.60
49.19
51.20
52.72
52.56
49.81
44.34
36.93
28.95
21.90
16.81
13.65
11.37
8.15
2.02
-8.41
-23.27
-41.03
-58.51
-71.52
-76.04
-69.64
-52.57
-27.97
-0.91
23.35
41.14
51.44
55.66
56.42
56.05
55.58
54.80
52.94
49.66
45.47
41.49
38.74
37.46
36.90
35.63
32.38
26.71
19.41
12.08
6.36
3.07
1.59
-0.01
-4.22
-13.14
-27.77
-47.59
-70.43
-92.63
-109.65
-116.99
-111.57
-92.93
-63.83
-29.65
3.24
29.50
46.36
53.92
54.38
50.57
44.78
38.36
32.02
26.31
21.90
19.33
18.55
18.57
17.73
14.33
7.51
-2.20
-12.95
-22.38
-28.70
-31.60
-32.53
-34.14
-39.34
-50.32
-67.79
-90.37
-114.50
-134.81
-145.37
-141.56
-121.96
-89.36
-50.09
-11.92
18.71
38.59
48.16
50.25
48.17
44.20
39.32
33.81
28.21
23.75
21.80
23.07
26.89
31.30
33.85
32.74
27.73
20.21
12.45
6.50
3.17
1.59
-0.42
-5.58
-16.15
-33.00
-54.90
-78.19
-97.25
-106.00
-99.96
-78.30
-44.59
-5.83
30.04
56.99
72.77
78.77
78.49
75.30
71.04
65.93
59.58
52.18
44.99
39.89
38.24
39.96
43.35
45.75
44.78
39.45
30.65
20.62
11.80
5.66
1.90
-1.34
-6.75
-16.66
-32.32
-53.40
-77.79
-101.59
-119.63
-126.49
-118.22
-94.03
-57.14
-14.14
27.09
59.91
80.87
90.05
90.01
84.02
74.69
63.64
51.89
40.53
30.84
23.95
20.12
18.51
17.45
15.15
10.61
4.00
-3.45
-10.18
-15.17
-18.52
-21.60
-26.64
-36.07
-51.52
-72.92
-97.68
-120.59
-134.78
-133.84
-114.39
-77.98
-31.19
16.45
55.76
80.96
91.08
89.10
79.68
66.94
53.32
39.80
26.94
15.59
6.84
1.39
-1.19
-2.42
-4.34
-8.49
-15.12
-23.15
-30.76
-36.51
-40.12
-42.86
-47.11
-55.54
-69.98
-90.45
-114.48
-137.02
-151.40
-151.26
-132.87
-97.14
-49.83
-0.05
42.93
72.75
87.78
90.70
86.38
79.35
72.21
65.65
59.40
53.46
48.38
44.81
42.69
40.80
37.24
30.40
19.94
7.11
-5.78
-16.43
-23.65
-28.02
-31.69
-37.70
-48.93
-66.82
-90.46
-115.97
-137.01
-146.35
-138.35
-111.49
-69.50
-20.54
25.60
60.96
81.98
89.89
89.14
84.61
79.51
74.70
69.51
63.30
56.48
50.44
46.60
45.15
44.66
42.58
36.55
25.76
11.56
-3.10
-15.05
-22.52
-26.02
-28.18
-32.69
-42.80
-60.19
-84.11
-111.36
-136.55
-153.13
-154.95
-138.35
-103.86
-56.68
-5.46
40.58
74.67
94.56
102.42
102.92
100.54
97.67
94.37
89.53
82.55
74.30
66.80
62.11
60.93
62.09
62.88
60.48
53.24
41.55
27.56
14.08
3.22
-4.64
-10.91
-18.07
-28.49
-43.49
-62.79
-84.54
-105.58
-121.78
-128.68
-122.60
-101.91
-68.19
-26.22
17.09
54.90
82.47
98.28
103.59
101.09
93.42
82.41
69.32
55.47
42.64
32.77
27.03
25.01
24.70
23.26
18.31
9.12
-3.10
-15.82
-26.52
-33.92
-38.58
-42.57
-48.59
-58.76
-73.89
-92.94
-113.02
-129.65
-137.57
-132.13
-110.97
-75.46
-30.88
14.92
54.07
81.21
95.00
97.70
93.37
85.74
76.95
67.56
57.55
47.36
38.04
30.74
25.72
21.94
17.41
10.35
0.17
-12.08
-24.23
-34.22
-41.27
-46.36
-51.95
-60.91
-75.25
-95.04
-117.84
-138.89
-152.02
-151.49
-134.05
-100.49
-55.95
-8.44
33.77
64.92
83.37
91.24
92.66
91.47
89.68
87.46
84.01
78.95
72.90
67.17
62.81
59.75
56.60
51.43
42.80
30.67
16.66
3.30
-7.19
-13.95
-18.00
-21.88
-28.62
-40.66
-58.98
-82.41
-107.50
-128.80
-140.02
-135.86
-114.16
-77.29
-31.91
13.00
49.43
73.00
84.08
86.70
85.91
85.26
85.52
85.22
82.37
76.16
67.61
59.11
52.93
50.02
49.40
48.65
45.05
36.89
24.33
9.28
-5.44
-17.38
-25.52
-30.65
-34.86
-40.61
-49.76
-63.05
-80.24
-100.07
-120.29
-137.44
-147.00
-144.31
-126.33
-93.37
-49.82
-3.24
38.14
68.30
85.33
91.30
90.63
87.63
84.76
82.36
79.47
75.26
69.88
64.44
60.34
58.40
58.30
58.72
57.91
54.52
48.21
39.66
30.24
21.28
13.55
6.98
0.82
-6.00
-14.40
-24.87
-37.44
-51.79
-67.22
-82.36
-94.89
-101.45
-98.47
-83.52
-56.81
-21.84
15.36
48.16
71.66
84.14
86.98
83.23
75.77
66.26
55.22
42.98
30.59
19.94
12.86
10.06
10.32
10.85
8.51
1.21
-11.03
-26.08
-40.73
-52.13
-58.98
-62.03
-63.59
-66.41
-72.64
-83.12
-97.23
-113.06
-127.58
-137.05
-137.59
-126.19
-101.99
-67.10
-26.41
13.74
47.60
71.82
86.00
92.04
92.52
89.44
83.66
75.47
65.46
55.05
46.15
40.25
37.42
36.09
33.67
27.84
17.78
4.67
-8.96
-20.43
-28.35
-33.27
-37.45
-43.80
-54.72
-71.08
-91.74
-113.52
-131.57
-140.41
-135.49
-115.00
-80.98
-39.26
2.40
37.00
60.69
73.66
79.07
80.91
81.84
82.33
81.30
77.60
71.33
64.09
58.21
55.47
55.98
57.95
58.37
54.36
44.56
29.83
12.94
-2.68
-14.48
-21.98
-26.90
-32.31
-41.25
-55.43
-74.55
-96.29
-116.63
-130.59
-133.33
-121.45
-94.46
-55.43
-10.63
32.25
66.56
88.77
99.23
101.20
98.85
95.33
91.82
87.96
82.95
76.72
70.07
64.33
60.43
58.35
57.02
54.82
50.34
43.03
33.46
22.91
12.89
4.36
-2.54
-8.54
-14.79
-22.34
-31.79
-43.08
-55.64
-68.57
-80.58
-89.82
-93.84
-90.02
-76.42
-52.94
-21.91
12.16
43.89
68.76
84.35
90.84
90.21
84.98
77.11
67.61
57.05
46.07
35.85
27.79
22.81
20.75
20.23
19.21
15.94
9.81
1.53
-7.21
-14.77
-20.34
-24.20
-27.49
-31.54
-37.30
-44.99
-54.18
-63.87
-72.59
-78.52
-79.78
-74.93
-63.52
-46.52
-26.19
-5.57
12.48
25.92
33.93
36.72
35.12
30.18
22.98
14.57
6.02
-1.67
-7.82
-12.29
-15.59
-18.71
-22.70
-28.23
-35.19
-42.73
-49.63
-54.85
-58.12
-60.14
-62.44
-66.68
-74.07
-84.68
-97.13
-108.65
-115.62
-114.49
-102.88
-80.61
-50.03
-15.57
17.42
44.38
62.65
71.97
73.94
71.00
65.35
58.48
51.25
44.23
38.02
33.11
29.57
26.69
23.16
17.51
8.86
-2.61
-15.69
-28.69
-40.30
-50.18
-59.17
-68.83
-80.71
-95.45
-112.16
-128.28
-139.93
-142.85
-133.71
-111.32
-77.43
-36.48
5.54
42.79
71.25
89.57
98.88
101.71
100.80
98.19
95.06
92.04
89.50
87.57
85.99
83.74
79.17
70.62
57.28
39.77
20.24
1.56
-13.74
-24.55
-31.62
-37.24
-44.34
-55.49
-71.93
-92.92
-115.46
-134.58
-144.31
-139.46
-117.65
-80.70
-34.59
12.30
52.12
80.26
96.49
104.14
107.80
110.91
114.51
117.59
118.57
116.88
113.52
110.44
109.24
110.07
111.35
110.64
105.85
96.39
83.43
69.27
56.24
45.53
36.73
28.10
17.49
3.26
-15.14
-37.03
-60.80
-84.01
-103.50
-115.51
-116.32
-103.36
-76.64
-39.48
2.00
40.59
70.35
88.38
95.29
93.89
87.56
78.59
67.92
55.74
42.53
29.62
18.76
11.28
7.16
4.88
2.06
-3.40
-12.29
-23.75
-35.63
-45.55
-51.96
-54.72
-55.13
-55.35
-57.59
-63.35
-73.01
-85.56
-98.64
-108.78
-112.03
-105.01
-86.12
-56.45
-19.76
18.48
52.79
79.19
96.07
103.91
104.38
99.26
90.00
77.83
64.24
51.05
40.10
32.52
28.05
25.00
20.97
13.83
2.81
-11.22
-26.14
-39.60
-50.09
-57.65
-63.83
-71.11
-81.89
-97.52
-117.64
-139.80
-159.68
-171.77
-170.88
-153.90
-121.28
-77.57
-30.19
12.91
46.04
67.47
79.37
86.01
91.34
97.22
103.12
107.27
108.25
106.07
102.13
98.20
95.19
92.54
88.53
81.29
69.94
55.16
38.99
23.79
11.06
0.75
-8.72
-19.70
-34.27
-53.42
-76.73
-102.36
-127.15
-146.81
-156.60
-152.48
-132.67
-98.94
-56.72
-13.62
23.06
48.82
63.20
69.19
71.16
72.70
75.23
78.11
79.78
79.11
76.09
71.77
67.46
64.11
61.91
60.25
58.11
54.42
48.46
39.99
29.38
17.42
5.04
-7.08
-18.62
-29.79
-40.99
-52.72
-65.38
-79.45
-95.48
-113.74
-133.42
-151.74
-163.92
-164.35
-148.84
-116.94
-72.84
-24.43
19.51
52.34
71.66
79.26
79.54
77.08
74.95
74.15
74.19
74.28
73.94
73.25
72.51
71.79
70.74
68.75
65.33
60.30
53.90
46.48
38.28
29.27
19.30
8.29
-3.57
-15.74
-27.62
-38.70
-48.89
-58.63
-68.91
-81.10
-96.32
-114.43
-133.08
-147.50
-151.66
-140.63
-113.01
-72.38
-26.51
15.42
46.26
63.32
68.70
67.35
64.24
62.15
61.05
59.22
55.00
48.16
40.11
33.16
29.29
29.26
32.34
36.68
40.07
40.82
38.19
32.52
24.93
16.78
9.11
2.29
-4.07
-10.88
-19.23
-30.04
-43.89
-60.71
-79.43
-97.53
-111.03
-115.22
-106.30
-83.27
-49.04
-9.96
26.33
53.72
69.62
75.33
74.49
70.89
66.73
62.32
56.92
50.14
42.70
36.29
32.54
32.01
33.62
34.97
33.32
26.72
14.91
-0.59
-17.16
-32.32
-44.83
-55.18
-65.28
-77.29
-92.63
-111.42
-132.35
-153.08
-170.49
-181.13
-181.73
-170.17
-146.54
-113.66
-76.76
-41.95
-14.16
4.41
14.63
19.38
21.75
23.52
24.75
24.35
21.37
15.88
9.09
2.79
-1.69
-4.09
-5.33
-6.91
-10.01
-14.79
-20.30
-25.01
-27.74
-28.44
-28.39
-29.59
-33.95
-42.44
-54.80
-69.56
-84.32
-96.14
-101.93
-99.10
-86.36
-64.42
-36.16
-5.97
21.59
43.33
58.30
67.70
73.77
78.47
82.61
85.86
87.57
87.65
87.06
87.59
90.98
97.95
107.67
117.98
126.35
131.10
132.39
132.35
134.23
140.87
153.17
169.37
185.58
197.21
200.78
195.26
182.60
167.27
155.25
152.43
162.99
187.85
223.87
264.32
300.71
325.54
334.49
327.43
307.55
279.16
245.67
208.69
168.31
124.31
77.24
29.10
-16.49
-54.78
-80.73
-90.71
-84.17
-64.84
-40.18
-19.28
-9.64
-14.67
-33.26
-61.43
-95.12
-132.16
-172.33
-215.49
-259.26
-297.92
-323.66
-329.62
-313.18
-277.64
-231.38
-184.87
-146.76
-121.14
-106.94
-99.59
-94.00
-87.01
-78.41
-70.11
-64.33
-61.83
-61.30
-60.11
-55.77
-47.29
-35.75
-23.79
-14.29
-8.93
-7.48
-7.99
-7.88
-5.25
0.06
6.50
11.23
11.19
4.09
-10.74
-31.67
-54.65
-73.84
-83.13
-78.26
-58.64
-28.01
6.74
38.03
60.34
71.94
74.85
73.16
70.89
70.33
71.67
73.68
74.93
74.57
72.74
70.22
67.95
66.53
65.86
65.27
63.80
60.64
55.58
49.13
42.27
35.87
30.21
24.68
18.11
9.23
-2.82
-18.28
-36.87
-57.84
-79.61
-99.34
-112.84
-115.42
-103.58
-76.94
-39.08
3.18
42.07
71.78
90.27
99.35
103.14
105.77
109.65
114.88
119.84
122.40
120.98
115.05
105.16
92.60
78.95
65.58
53.32
42.29
31.95
21.45
10.02
-2.40
-15.08
-26.65
-35.71
-41.63
-45.08
-48.02
-53.07
-62.71
-78.30
-99.49
-124.02
-147.68
-164.99
-170.55
-160.71
-135.35
-98.53
-57.50
-20.32
7.01
22.51
28.19
28.17
26.21
23.83
20.17
13.48
2.97
-10.10
-22.80
-32.06
-36.36
-36.46
-34.96
-34.58
-36.54
-39.78
-41.61
-39.39
-32.30
-22.14
-12.73
-8.60
-13.46
-29.36
-56.52
-93.29
-135.85
-177.98
-211.52
-228.13
-222.36
-194.39
-151.08
-104.10
-65.57
-43.49
-38.89
-46.42
-57.83
-66.40
-69.84
-70.47
-72.69
-79.66
-91.08
-103.32
-111.71
-113.35
-108.72
-101.34
-95.47
-93.57
-94.77
-95.19
-89.88
-75.13
-50.29
-18.23
15.53
44.33
62.06
64.89
52.35
27.92
-1.32
-26.48
-39.36
-35.23
-14.50
17.52
52.68
83.03
103.46
113.03
114.17
110.96
107.06
104.46
103.50
103.71
104.70
106.62
109.96
114.75
120.01
123.63
123.03
116.26
103.07
85.18
65.95
49.03
36.95
30.21
27.13
24.71
19.89
10.61
-3.87
-23.20
-46.28
-71.25
-95.16
-113.86
-122.62
-117.76
-98.38
-67.42
-31.07
3.22
29.39
44.47
48.86
45.17
36.56
25.55
13.66
1.79
-9.13
-17.99
-23.55
-24.66
-20.45
-10.37
5.73
27.46
53.78
82.95
112.73
140.75
164.94
183.74
196.13
201.52
199.67
190.64
174.80
152.85
125.54
93.37
56.42
14.90
-29.92
-74.68
-113.86
-141.01
-151.09
-142.80
-119.55
-88.47
-57.67
-33.47
-18.52
-11.85
-10.46
-11.24
-12.35
-13.31
-14.34
-15.47
-16.08
-15.12
-11.68
-5.50
2.74
11.50
18.86
23.09
23.31
19.83
14.00
7.73
2.67
-0.49
-2.37
-4.61
-9.23
-17.95
-31.59
-49.66
-70.02
-88.83
-100.91
-100.89
-85.11
-53.41
-10.09
37.04
79.11
109.33
125.18
128.56
124.13
116.64
109.05
102.14
95.58
89.37
84.51
82.38
83.48
86.29
87.14
81.04
63.38
31.67
-13.35
-67.23
-122.63
-170.90
-204.23
-217.81
-211.21
-189.00
-159.77
-134.18
-121.72
-127.46
-149.77
-180.25
-206.22
-215.35
-200.61
-163.33
-113.11
-63.86
-28.24
-12.63
-15.08
-27.06
-37.76
-38.94
-27.85
-7.57
15.40
34.55
46.25
50.77
51.16
50.94
51.86
53.23
52.70
48.14
39.22
27.71
16.65
8.73
4.93
4.10
3.49
-0.16
-9.51
-25.54
-46.78
-69.10
-86.65
-93.71
-87.04
-67.67
-41.02
-15.07
2.89
9.19
5.13
-3.93
-11.12
-10.84
-0.56
18.98
44.64
72.14
97.08
115.73
125.44
125.11
115.37
98.33
77.11
55.17
35.68
21.18
13.37
12.93
19.29
30.51
43.50
54.77
61.32
61.50
55.18
43.56
28.83
14.08
3.23
0.68
10.23
33.62
69.40
112.83
157.29
196.45
226.30
245.92
256.80
261.32
261.22
256.92
248.01
234.13
215.80
194.59
172.69
152.10
133.97
118.17
103.43
87.92
70.11
49.53
27.18
5.28
-13.62
-27.69
-36.64
-41.80
-45.62
-50.61
-58.48
-69.87
-84.40
-100.87
-117.40
-131.24
-139.11
-137.94
-126.20
-105.09
-78.66
-52.66
-32.50
-21.35
-19.26
-23.93
-32.27
-42.02
-52.33
-63.31
-74.91
-86.12
-94.92
-99.15
-97.65
-91.01
-81.74
-73.47
-69.67
-72.31
-81.18
-94.08
-107.85
-119.85
-128.99
-136.22
-143.80
-154.42
-169.91
-190.34
-213.56
-235.40
-250.45
-253.51
-241.26
-213.51
-173.53
-127.03
-80.33
-38.42
-3.87
23.12
43.79
59.63
71.60
80.25
86.09
90.12
93.67
97.98
103.49
109.38
113.84
114.62
110.21
100.53
87.19
72.83
60.14
50.63
44.06
38.62
31.51
20.03
2.48
-20.91
-47.46
-72.11
-88.41
-90.56
-75.66
-45.33
-5.45
35.78
70.91
95.75
110.27
117.49
121.37
124.81
128.73
132.38
134.33
133.47
129.54
123.18
115.43
107.25
98.98
90.24
80.37
69.01
56.75
45.12
35.88
29.78
25.59
20.13
9.18
-10.84
-41.08
-79.30
-119.72
-154.14
-173.87
-172.48
-148.06
-104.50
-50.62
2.59
45.57
73.22
85.79
87.55
84.02
79.33
75.03
70.37
63.88
54.67
43.29
31.34
20.64
12.30
6.26
1.29
-4.37
-12.13
-22.41
-34.32
-46.16
-56.30
-63.98
-69.67
-74.84
-81.24
-90.15
-102.13
-117.07
-134.26
-152.34
-168.76
-179.80
-181.25
-169.98
-145.63
-111.61
-74.43
-41.59
-18.99
-8.84
-9.31
-15.81
-23.07
-27.14
-26.43
-21.52
-14.23
-6.55
0.15
5.42
9.56
13.17
16.67
19.95
22.41
23.25
21.70
17.47
10.70
1.91
-8.27
-19.26
-30.67
-42.18
-53.54
-64.70
-75.89
-87.78
-101.02
-115.35
-128.77
-137.27
-135.73
-120.08
-89.50
-47.61
-1.78
39.38
69.10
84.57
87.35
81.93
73.45
65.82
60.80
58.31
57.19
56.18
54.37
51.45
47.57
43.06
38.08
32.53
25.95
17.80
7.82
-3.81
-16.38
-28.93
-40.56
-50.63
-58.92
-65.56
-70.93
-75.63
-80.49
-86.54
-94.66
-104.94
-115.97
-124.45
-125.87
-116.05
-93.01
-58.42
-17.52
22.58
55.32
77.15
88.37
92.54
94.35
97.46
102.95
109.52
114.62
116.01
113.09
106.88
99.43
92.70
87.73
84.59
82.78
81.81
81.56
82.23
84.02
86.93
90.56
94.14
96.64
96.83
93.46
85.59
72.96
55.80
34.67
10.17
-16.82
-44.43
-69.23
-86.31
-90.70
-79.33
-53.02
-16.79
21.55
54.05
75.41
84.35
83.30
76.57
68.19
60.45
53.69
47.23
40.62
34.49
30.58
30.88
36.44
46.51
58.45
68.76
74.32
73.77
67.89
59.15
50.42
43.82
39.91
37.75
35.72
32.24
26.20
16.97
4.19
-11.96
-30.13
-47.18
-58.43
-58.92
-45.69
-19.34
15.53
51.89
82.77
103.48
112.70
111.90
103.82
91.07
75.50
58.47
41.48
26.51
15.84
11.19
13.02
20.03
29.47
37.96
42.84
42.91
38.68
31.80
24.09
16.77
10.05
3.33
-4.33
-13.67
-25.04
-38.15
-52.05
-64.94
-74.40
-77.89
-73.63
-61.45
-43.18
-22.27
-2.67
12.47
21.64
25.14
24.31
20.51
14.25
5.18
-7.57
-24.32
-44.07
-64.33
-81.57
-92.39
-94.87
-89.31
-78.42
-66.33
-57.11
-53.28
-55.12
-60.95
-68.18
-74.71
-79.74
-83.82
-88.36
-94.87
-104.34
-116.83
-131.19
-144.58
-152.56
-149.75
-131.46
-95.88
-45.77
11.60
66.43
109.87
137.22
149.17
150.78
148.54
147.42
149.14
152.57
155.36
155.83
153.97
151.02
148.49
147.10
146.35
144.98
141.72
135.95
127.87
118.36
108.33
98.30
88.02
76.36
61.57
41.81
15.71
-17.12
-55.73
-97.81
-139.82
-177.32
-205.84
-221.97
-224.57
-215.54
-199.47
-182.42
-170.01
-165.73
-170.21
-181.56
-196.76
-212.91
-228.09
-241.38
-252.28
-260.41
-265.20
-266.27
-263.70
-258.35
-251.62
-245.10
-239.81
-235.74
-231.74
-225.89
-216.42
-202.61
-185.16
-165.96
-147.32
-130.83
-116.78
-104.23
-91.77
-78.58
-65.04
-52.74
-43.79
-40.01
-42.17
-49.58
-60.12
-70.61
-77.46
-77.54
-69.24
-53.01
-31.28
-7.51
15.28
35.82
54.95
75.05
98.99
128.68
163.84
201.43
235.32
257.65
260.93
241.01
199.34
143.62
85.65
37.10
4.95
-11.04
-17.38
-22.96
-34.45
-53.40
-76.52
-98.52
-115.40
-126.49
-133.91
-140.66
-148.48
-157.03
-164.62
-169.86
-172.90
-175.24
-178.62
-183.51
-188.42
-190.55
-187.13
-176.67
-159.78
-138.99
-117.57
-98.35
-82.80
-70.68
-60.54
-50.44
-38.80
-25.00
-9.36
7.32
24.18
40.90
57.70
75.22
94.07
114.54
136.33
158.79
181.20
203.13
224.61
246.19
268.80
293.41
320.56
349.88
379.77
407.63
430.44
445.65
451.89
449.28
439.20
423.58
404.19
382.19
358.12
332.19
304.73
276.40
248.19
221.16
196.08
173.24
152.36
132.91
114.33
96.49
79.71
64.53
51.35
40.03
29.85
19.65
8.26
-5.02
-20.02
-35.43
-48.92
-57.61
-59.05
-52.17
-37.95
-19.27
-0.01
16.21
27.21
32.69
33.87
32.65
30.59
28.47
26.24
23.54
20.22
16.60
13.36
11.22
10.53
11.01
11.84
12.04
10.93
8.46
5.31
2.54
1.15
1.64
3.87
7.25
11.01
14.55
17.46
19.45
20.13
19.04
15.89
11.16
6.45
4.31
7.40
17.25
33.41
53.26
72.98
88.83
98.35
100.88
97.19
88.77
77.29
64.33
51.50
40.40
32.26
27.49
25.31
23.90
21.15
15.52
6.72
-4.22
-15.47
-25.15
-32.17
-36.60
-39.51
-42.44
-46.74
-53.08
-61.42
-71.17
-81.47
-91.18
-98.62
-101.46
-97.17
-84.00
-62.11
-34.20
-4.87
20.90
39.65
50.55
55.24
56.46
56.35
55.52
53.14
48.01
39.70
29.03
17.82
7.88
0.24
-5.16
-9.18
-12.77
-16.41
-19.88
-22.54
-23.96
-24.25
-24.27
-25.22
-28.26
-33.99
-42.23
-52.07
-62.14
-70.91
-77.12
-80.06
-79.85
-77.40
-74.10
-71.35
-70.06
-70.31
-71.45
-72.50
-72.60
-71.41
-69.08
-66.07
-62.79
-59.44
-56.05
-52.66
-49.53
-47.12
-45.97
-46.41
-48.39
-51.42
-54.73
-57.48
-59.01
-59.02
-57.59
-55.24
-52.71
-50.91
-50.60
-52.22
-55.65
-60.19
-64.69
-67.86
-68.62
-66.45
-61.60
-55.01
-48.06
-42.12
-38.21
-36.67
-37.22
-39.19
-41.88
-44.89
-48.21
-52.17
-57.01
-62.76
-68.99
-75.03
-80.30
-84.61
-88.30
-92.02
-96.44
-101.86
-107.99
-114.16
-119.62
-123.89
-127.00
-129.47
-132.07
-135.74
-141.36
-149.54
-160.31
-172.52
-183.47
-189.06
-184.73
-167.18
-136.01
-94.46
-48.75
-6.09
27.84
50.65
63.57
70.25
74.89
80.56
88.63
99.21
112.14
127.82
147.34
172.25
203.98
243.67
291.87
347.87
408.85
468.98
519.84
552.21
559.10
538.44
494.17
434.74
369.83
306.88
248.98
194.96
141.20
84.09
22.14
-42.80
-105.46
-158.07
-192.06
-200.42
-180.18
-134.16
-70.82
-2.45
57.98
100.26
119.26
115.67
95.00
65.51
35.87
13.09
1.26
1.09
10.29
24.55
38.80
48.42
50.47
44.48
32.33
17.65
4.29
-4.88
-8.99
-9.04
-7.16
-5.70
-6.23
-8.69
-10.73
-7.77
5.49
32.60
72.76
119.69
163.01
191.99
199.79
186.07
156.41
119.05
80.80
44.47
9.08
-27.76
-66.90
-106.41
-142.26
-170.52
-189.29
-199.25
-203.24
-204.48
-205.30
-206.20
-206.35
-204.60
-200.37
-194.20
-187.36
-180.99
-175.37
-169.69
-162.60
-153.06
-141.11
-127.99
-115.68
-105.94
-99.59
-96.20
-94.42
-92.72
-90.03
-86.07
-81.07
-75.41
-69.21
-62.31
-54.57
-46.16
-37.80
-30.52
-25.27
-22.45
-21.73
-22.22
-22.89
-22.94
-22.11
-20.58
-18.83
-17.34
-16.48
-16.45
-17.16
-18.15
-18.52
-17.13
-12.97
-5.67
4.18
15.10
25.19
32.83
37.17
38.26
36.88
34.02
30.52
26.89
23.33
19.87
16.57
13.61
11.22
9.67
9.02
9.09
9.40
9.40
8.60
6.83
4.19
0.94
-2.71
-6.71
-11.18
-16.17
-21.46
-26.31
-29.60
-30.16
-27.26
-21.06
-12.66
-3.84
3.67
8.75
11.32
12.07
12.05
12.02
12.14
12.03
11.17
9.34
6.86
4.41
2.71
2.18
2.73
3.79
4.64
4.70
3.76
2.03
-0.02
-1.85
-3.17
-4.06
-4.99
-6.56
-9.32
-13.34
-18.14
-22.65
-25.55
-25.76
-22.88
-17.43
-10.72
-4.34
0.44
3.14
4.10
4.17
4.24
4.80
5.88
7.14
8.19
8.79
8.94
8.78
8.43
7.90
7.14
6.09
4.83
3.62
2.74
2.38
2.42
2.44
1.83
0.08
-3.03
-7.33
-12.35
-17.51
-22.24
-26.00
-28.33
-28.78
-27.06
-23.17
-17.62
-11.28
-5.11
0.16
4.34
7.73
10.87
14.14
17.47
20.40
22.29
22.64
21.39
18.99
16.27
14.11
13.09
13.29
14.24
15.19
15.48
14.87
13.73
12.77
12.75
14.04
16.39
19.05
20.95
21.04
18.55
13.15
5.11
-4.60
-14.54
-23.04
-28.94
-31.88
-32.53
-32.17
-32.12
-33.18
-35.45
-38.56
-42.02
-45.59
-49.33
-53.41
-57.82
-62.28
-66.24
-69.22
-70.84
-71.07
-70.02
-67.98
-65.24
-62.09
-58.91
-56.07
-53.98
-52.89
-52.85
-53.64
-54.90
-56.24
-57.47
-58.72
-60.27
-62.29
-64.49
-66.04
-65.74
-62.51
-55.81
-45.93
-33.86
-20.87
-8.05
3.83
14.28
22.84
28.97
32.13
32.06
28.98
23.60
16.87
9.69
2.62
-3.99
-9.76
-14.13
-16.23
-15.21
-10.65
-2.93
6.57
15.74
22.39
24.97
23.15
18.01
11.69
6.66
5.06
8.20
16.38
29.05
45.05
62.85
80.81
97.36
111.24
121.69
128.41
131.35
130.46
125.42
115.77
101.41
83.22
63.46
45.57
33.25
29.20
33.94
45.54
60.16
73.42
81.81
83.79
79.88
72.07
62.65
53.05
43.16
31.26
14.86
-7.96
-37.20
-70.19
-102.10
-127.62
-143.18
-148.73
-147.88
-146.43
-149.81
-160.56
-177.14
-194.55
-206.19
-206.11
-190.78
-159.76
-115.48
-62.44
-6.33
46.91
91.94
124.75
143.39
148.29
142.09
129.09
114.21
101.70
93.92
90.65
89.31
86.16
78.16
64.58
47.68
31.85
21.67
19.74
25.70
36.53
48.30
57.94
64.25
67.72
69.38
69.74
68.49
65.02
59.38
52.66
46.71
43.01
41.69
41.20
39.04
33.22
23.33
11.04
-0.83
-9.55
-13.83
-14.26
-12.78
-11.65
-12.35
-15.14
-19.31
-23.91
-28.41
-32.93
-37.90
-43.41
-48.69
-52.13
-52.01
-47.37
-38.79
-28.20
-18.20
-10.88
-6.94
-5.57
-5.02
-3.67
-0.70
3.61
8.28
12.29
15.08
16.77
17.81
18.64
19.28
19.20
17.70
14.29
9.11
3.01
-2.76
-7.11
-9.54
-10.46
-10.90
-12.20
-15.42
-21.05
-28.75
-37.26
-44.60
-48.52
-47.25
-40.20
-28.40
-14.22
-0.58
10.12
16.85
19.97
20.83
20.82
20.75
20.76
20.52
19.78
18.62
17.38
16.38
15.58
14.60
12.86
9.96
6.02
1.62
-2.35
-5.13
-6.44
-6.55
-6.17
-6.14
-7.17
-9.64
-13.69
-19.22
-25.82
-32.74
-38.71
-42.11
-41.50
-36.20
-26.68
-14.67
-2.50
7.68
14.67
18.44
19.82
19.97
19.71
19.37
18.89
18.15
17.17
16.20
15.53
15.28
15.43
15.76
16.06
16.18
16.16
16.06
16.03
16.15
16.37
16.52
16.27
15.23
13.08
9.62
4.93
-0.73
-6.99
-13.41
-19.41
-24.20
-26.81
-26.33
-22.31
-15.19
-6.30
2.55
9.70
14.28
16.46
17.14
17.37
17.75
18.26
18.43
17.78
16.17
13.95
11.74
10.15
9.56
9.92
10.85
11.84
12.38
12.18
11.18
9.55
7.55
5.42
3.31
1.18
-1.12
-3.89
-7.48
-12.20
-18.06
-24.61
-30.74
-34.89
-35.54
-31.81
-23.96
-13.45
-2.41
7.08
13.79
17.58
19.19
19.68
19.85
20.00
19.96
19.40
18.14
16.28
14.22
12.46
11.44
11.40
12.22
13.47
14.60
15.04
14.47
12.93
10.65
8.05
5.39
2.77
0.12
-2.75
-6.08
-10.12
-15.04
-20.79
-26.88
-32.23
-35.47
-35.25
-30.98
-23.05
-12.88
-2.32
6.93
13.96
18.66
21.50
23.09
23.84
23.94
23.45
22.49
21.27
20.00
18.79
17.66
16.56
15.45
14.27
13.03
11.76
10.48
9.25
8.19
7.38
6.83
6.39
5.81
4.78
3.07
0.55
-2.83
-7.11
-12.22
-17.78
-22.97
-26.55
-27.25
-24.28
-17.85
-9.20
-0.17
7.47
12.70
15.49
16.55
16.87
17.17
17.68
18.28
18.67
18.64
18.19
17.52
16.89
16.53
16.53
16.80
17.15
17.30
17.00
16.18
14.88
13.27
11.52
9.70
7.73
5.47
2.76
-0.47
-4.24
-8.48
-13.02
-17.47
-21.17
-23.26
-22.96
-19.85
-14.16
-6.85
0.75
7.34
12.10
14.92
16.25
16.76
17.01
17.26
17.43
17.30
16.66
15.42
13.71
11.80
10.04
8.73
7.98
7.71
7.61
7.29
6.43
4.94
2.93
0.69
-1.48
-3.42
-5.16
-6.89
-8.92
-11.54
-15.01
-19.38
-24.45
-29.56
-33.62
-35.36
-33.76
-28.53
-20.37
-10.76
-1.49
5.99
11.01
13.73
14.82
15.09
15.07
14.99
14.87
14.64
14.24
13.63
12.78
11.67
10.37
9.05
7.93
7.23
6.99
7.02
7.01
6.58
5.49
3.71
1.45
-0.97
-3.23
-5.13
-6.68
-8.05
-9.64
-11.88
-15.20
-19.73
-25.05
-30.18
-33.68
-34.16
-30.80
-23.84
-14.49
-4.62
3.99
10.18
13.67
14.93
14.79
14.06
13.30
12.85
12.80
13.10
13.59
13.98
13.96
13.38
12.24
10.77
9.33
8.19
7.50
7.18
6.97
6.57
5.70
4.21
2.12
-0.38
-3.03
-5.52
-7.65
-9.42
-11.05
-12.95
-15.54
-18.94
-22.81
-26.21
-27.85
-26.57
-21.87
-14.19
-4.90
4.29
11.89
17.17
20.23
21.77
22.64
23.41
24.28
25.15
25.77
25.99
25.73
25.05
24.05
22.88
21.63
20.35
18.98
17.28
14.89
11.38
6.43
0.01
-7.61
-15.82
-23.97
-31.49
-38.15
-44.04
-49.53
-55.07
-61.13
-68.10
-76.27
-85.64
-95.77
-105.63
-113.77
-118.79
-119.85
-117.24
-112.38
-107.40
-104.51
-105.30
-110.42
-119.58
-131.90
-146.23
-161.58
-177.26
-192.93
-208.47
-223.86
-239.05
-253.84
-267.94
-280.85
-291.84
-299.73
-302.90
-299.53
-288.16
-268.38
-241.13
-208.54
-173.09
-136.71
-100.22
-63.34
-25.47
13.64
53.47
92.89
130.84
166.98
201.98
237.39
275.29
317.71
365.84
419.17
474.62
526.63
568.11
592.59
596.55
580.71
549.86
510.73
469.41
429.39
391.17
353.38
314.37
273.33
230.45
186.42
142.05
98.26
56.42
18.40
-13.88
-39.22
-57.57
-70.10
-78.53
-84.47
-88.99
-92.74
-96.21
-99.89
-104.06
-108.37
-111.67
-112.29
-108.70
-100.21
-87.23
-71.09
-53.47
-35.80
-19.03
-3.66
9.98
21.48
30.48
36.79
40.59
42.47
43.19
43.43
43.56
43.58
43.42
43.01
42.30
41.00
38.50
34.06
27.20
18.09
7.62
-3.12
-13.43
-23.45
-33.89
-45.46
-58.14
-71.15
-83.42
-94.32
-104.04
-113.23
-122.21
-130.27
-135.83
-137.28
-133.99
-126.90
-118.21
-110.36
-105.00
-102.42
-101.71
-101.49
-100.57
-98.30
-94.61
-89.72
-83.99
-77.72
-71.12
-64.20
-56.72
-48.07
-37.45
-24.05
-7.53
11.63
31.74
50.12
63.64
69.76
67.52
58.07
44.29
29.86
17.92
10.31
7.46
9.08
14.89
25.16
40.76
63.10
93.75
134.04
184.10
241.83
302.34
358.11
400.88
424.14
425.04
404.88
368.26
321.62
272.06
226.50
190.95
169.40
162.33
165.97
173.03
175.14
165.94
143.28
109.50
69.70
29.40
-7.36
-38.62
-64.24
-85.33
-103.88
-122.76
-145.29
-174.25
-210.40
-251.44
-291.99
-324.66
-342.76
-342.81
-326.21
-299.00
-269.50
-244.80
-227.63
-214.96
-199.03
-170.40
-121.93
-52.10
33.59
123.82
204.88
264.93
297.60
303.31
287.89
259.45
225.13
189.17
153.03
116.65
79.95
43.37
7.53
-27.26
-61.07
-93.70
-123.92
-149.35
-167.19
-175.52
-174.15
-164.94
-151.04
-135.93
-122.42
-112.20
-105.75
-102.61
-101.59
-101.13
-99.78
-96.60
-91.47
-85.07
-78.56
-73.11
-69.46
-67.62
-66.98
-66.54
-65.32
-62.69
-58.55
-53.35
-47.89
-42.95
-39.03
-36.13
-33.90
-31.79
-29.40
-26.66
-23.85
-21.48
-20.03
-19.69
-20.35
-21.60
-22.96
-24.03
-24.64
-24.78
-24.66
-24.49
-24.34
-24.14
-23.60
-22.38
-20.25
-17.27
-13.80
-10.47
-7.86
-6.38
-6.03
-6.56
-7.56
-8.65
-9.61
-10.34
-10.84
-11.14
-11.32
-11.54
-12.02
-12.96
-14.34
-16.02
-17.58
-18.57
-18.65
-17.79
-16.32
-14.80
-13.77
-13.50
-13.81
-14.17
-14.04
-13.25
-12.17
-11.62
-12.42
-14.86
-18.45
-22.08
-24.42
-24.50
-22.10
-17.74
-12.44
-7.40
-3.60
-1.68
-1.72
-3.26
-5.33
-6.74
-6.46
-4.16
-0.49
3.07
4.73
3.13
-1.96
-9.48
-17.38
-23.34
-25.52
-23.13
-16.63
-7.50
2.23
10.56
15.92
17.56
15.56
10.77
4.50
-1.76
-6.75
-9.62
-10.04
-8.29
-5.03
-1.14
2.48
5.14
6.48
6.53
5.62
4.26
2.99
2.24
2.27
3.05
4.30
5.51
6.19
5.96
4.78
2.96
1.01
-0.53
-1.40
-1.60
-1.46
-1.34
-1.48
-1.86
-2.33
-2.71
-3.03
-3.58
-4.74
-6.76
-9.56
-12.68
-15.38
-16.99
-17.21
-16.22
-14.52
-12.69
-11.12
-9.82
-8.64
-7.37
-6.04
-4.88
-4.17
-4.04
-4.36
-4.82
-5.09
-4.98
-4.54
-3.96
-3.48
-3.31
-3.48
-3.87
-4.26
-4.32
-3.77
-2.53
-0.87
0.70
1.49
1.02
-0.85
-3.75
-7.03
-9.92
-11.79
-12.23
-11.10
-8.43
-4.56
-0.02
4.39
7.81
9.51
9.22
7.24
4.31
1.45
-0.47
-0.99
-0.19
1.43
3.21
4.58
5.30
5.44
5.23
4.87
4.38
3.66
2.69
1.61
0.75
0.44
0.81
1.60
2.27
2.29
1.38
-0.34
-2.45
-4.50
-6.18
-7.42
-8.24
-8.62
-8.47
-7.59
-5.83
-3.26
-0.14
3.06
5.87
7.86
8.84
8.80
7.99
6.79
5.61
4.74
4.23
3.98
3.79
3.52
3.17
2.79
2.47
2.16
1.76
1.15
0.37
-0.37
-0.80
-0.73
-0.23
0.35
0.48
-0.22
-1.91
-4.37
-7.14
-9.63
-11.35
-12.00
-11.48
-9.91
-7.58
-4.95
-2.52
-0.75
0.10
0.11
-0.31
-0.53
0.01
1.57
3.87
6.20
7.65
7.44
5.30
1.67
-2.47
-5.90
-7.62
-7.23
-5.05
-1.93
1.05
3.13
4.02
3.91
3.25
2.47
1.74
1.04
0.30
-0.47
-1.13
-1.57
-1.83
-2.15
-2.87
-4.21
-5.99
-7.65
-8.42
-7.63
-5.03
-0.94
3.88
8.44
11.89
13.70
13.87
12.79
11.16
9.67
8.76
8.48
8.53
8.51
8.06
7.18
6.13
5.34
5.10
5.44
6.11
6.70
6.87
6.42
5.38
3.92
2.31
0.79
-0.43
-1.22
-1.55
-1.50
-1.24
-1.05
-1.27
-2.14
-3.69
-5.59
-7.23
-7.86
-6.97
-4.50
-0.95
2.83
5.92
7.74
8.18
7.57
6.39
5.10
3.95
2.99
2.19
1.51
1.00
0.72
0.67
0.71
0.55
-0.16
-1.60
-3.66
-5.91
-7.75
-8.68
-8.59
-7.78
-6.84
-6.35
-6.56
-7.36
-8.30
-8.90
-8.89
-8.35
-7.60
-7.03
-6.85
-6.99
-7.12
-6.79
-5.69
-3.76
-1.26
1.47
4.08
6.41
8.40
10.04
11.22
11.71
11.25
9.78
7.51
4.93
2.63
1.09
0.49
0.59
0.96
1.11
0.77
-0.02
-0.94
-1.61
-1.85
-1.75
-1.65
-1.90
-2.59
-3.44
-3.98
-3.88
-3.17
-2.27
-1.83
-2.27
-3.59
-5.24
-6.50
-6.73
-5.73
-3.73
-1.23
1.21
3.26
4.79
5.78
6.28
6.34
6.02
5.46
4.96
4.83
5.30
6.34
7.61
8.53
8.59
7.49
5.46
3.01
0.87
-0.36
-0.44
0.45
1.84
3.05
3.47
2.83
1.17
-1.04
-3.19
-4.76
-5.58
-5.78
-5.66
-5.44
-4.98
-3.88
-1.75
1.41
5.07
8.27
10.05
9.93
8.17
5.66
3.47
2.41
2.61
3.63
4.71
5.22
4.94
4.09
3.09
2.29
1.82
1.56
1.37
1.23
1.29
1.78
2.77
3.99
4.87
4.71
3.02
-0.14
-4.07
-7.62
-9.63
-9.36
-6.85
-2.82
1.61
5.39
7.89
9.02
9.01
8.29
7.22
6.13
5.31
4.96
5.15
5.75
6.39
6.63
6.20
5.07
3.56
2.00
0.61
-0.65
-2.04
-3.76
-5.82
-7.91
-9.48
-9.96
-9.05
-6.91
-4.20
-1.97
-1.30
-2.90
-6.65
-11.46
-15.41
-16.25
-12.42
-3.90
7.48
18.33
24.89
24.38
16.17
2.12
-14.03
-27.86
-35.60
-35.16
-26.54
-11.83
5.43
21.10
31.61
34.98
31.36
22.88
12.64
3.51
-2.84
-6.25
-7.51
-7.59
-7.01
-5.79
-3.85
-1.52
0.36
0.74
-0.96
-4.50
-8.62
-11.64
-12.06
-9.30
-3.91
2.64
8.57
12.47
13.80
12.92
10.79
8.37
6.25
4.55
3.06
1.61
0.25
-0.67
-0.80
-0.02
1.40
2.82
3.62
3.42
2.35
0.95
-0.11
-0.34
0.39
1.76
3.27
4.38
4.73
4.19
2.83
0.74
-1.95
-5.09
-8.32
-11.12
-12.78
-12.72
-10.67
-6.87
-2.11
2.59
6.32
8.54
9.32
9.11
8.59
8.33
8.65
9.47
10.56
11.53
12.01
11.81
10.88
9.41
7.73
6.20
5.02
4.23
3.70
3.20
2.59
1.84
1.03
0.18
-0.77
-1.97
-3.55
-5.38
-7.22
-8.73
-9.78
-10.51
-11.18
-11.95
-12.59
-12.56
-11.25
-8.40
-4.31
0.19
4.15
6.92
8.37
8.87
8.92
8.84
8.61
7.92
6.51
4.35
1.77
-0.64
-2.29
-2.79
-2.16
-0.87
0.36
0.80
0.07
-1.74
-4.02
-6.04
-7.19
-7.31
-6.70
-5.92
-5.56
-5.92
-6.97
-8.43
-9.90
-10.93
-11.15
-10.31
-8.41
-5.74
-2.90
-0.60
0.67
0.78
0.08
-0.82
-1.35
-1.14
-0.15
1.43
3.26
4.93
6.05
6.36
5.83
4.72
3.52
2.68
2.30
2.05
1.31
-0.45
-3.26
-6.54
-9.32
-10.71
-10.35
-8.61
-6.30
-4.38
-3.45
-3.66
-4.81
-6.50
-8.30
-9.84
-10.67
-10.26
-8.16
-4.18
1.42
7.87
14.09
19.03
21.92
22.52
21.09
18.28
14.86
11.61
9.11
7.68
7.33
7.87
8.96
10.25
11.43
12.24
12.43
11.79
10.30
8.12
5.68
3.54
2.29
2.29
3.66
6.21
9.48
12.87
15.65
17.09
16.59
13.80
8.75
2.01
-5.33
-11.86
-16.14
-17.14
-14.61
-9.24
-2.51
3.80
8.22
10.00
9.24
6.65
3.13
-0.57
-4.05
-7.19
-10.01
-12.46
-14.47
-15.89
-16.56
-16.36
-15.21
-13.19
-10.48
-7.45
-4.50
-2.01
-0.13
1.07
1.53
1.05
-0.61
-3.51
-7.27
-10.99
-13.58
-14.18
-12.62
-9.57
-6.23
-3.85
-3.23
-4.71
-8.27
-13.97
-22.06
-32.90
-46.52
-62.40
-79.59
-97.23
-115.18
-134.34
-156.15
-181.23
-208.41
-234.30
-253.93
-262.58
-257.25
-237.35
-204.17
-160.33
-109.60
-57.33
-10.45
23.74
39.75
36.41
17.71
-8.45
-33.24
-50.06
-56.14
-52.05
-39.95
-21.84
1.04
27.89
57.73
89.32
121.22
151.99
180.06
203.41
219.61
226.84
224.76
214.78
199.78
182.92
166.54
151.69
138.54
127.06
117.38
109.65
103.32
96.85
87.92
74.37
55.42
32.26
7.82
-14.27
-31.00
-41.08
-45.23
-45.77
-45.71
-47.53
-52.37
-59.48
-66.63
-71.01
-70.54
-64.71
-54.80
-43.14
-31.98
-22.40
-13.91
-5.04
5.64
18.59
32.94
47.02
59.14
68.30
74.46
78.39
81.20
84.22
88.60
95.21
104.26
115.11
126.24
135.75
142.12
144.79
144.31
141.69
137.30
130.26
118.55
100.18
74.62
43.59
10.85
-19.15
-42.88
-58.55
-66.15
-66.52
-60.75
-50.06
-36.30
-22.27
-11.30
-6.04
-7.07
-12.49
-18.75
-22.43
-21.90
-17.64
-11.49
-5.12
0.96
7.32
14.66
22.84
30.54
35.98
37.98
36.64
33.27
29.53
26.46
24.06
21.44
17.62
12.15
5.33
-1.89
-8.48
-13.60
-16.82
-18.03
-17.36
-15.00
-11.24
-6.44
-1.08
4.20
8.60
11.26
11.48
8.94
3.95
-2.61
-9.48
-15.51
-20.03
-22.97
-24.73
-25.94
-27.15
-28.79
-31.11
-34.19
-37.68
-40.77
-42.33
-41.39
-37.66
-31.81
-25.22
-19.41
-15.48
-13.80
-14.14
-15.90
-18.33
-20.53
-21.52
-20.39
-16.73
-10.97
-4.39
1.31
4.81
5.73
4.68
2.86
1.43
1.13
2.11
4.26
7.28
10.82
14.41
17.37
18.99
18.74
16.53
12.81
8.42
4.31
1.14
-0.80
-1.72
-2.09
-2.47
-3.27
-4.74
-6.94
-9.78
-12.91
-15.70
-17.27
-16.71
-13.55
-8.09
-1.44
4.83
9.34
11.52
11.80
11.17
10.59
10.37
10.04
8.74
5.75
0.98
-5.04
-11.39
-17.23
-22.04
-25.70
-28.41
-30.55
-32.61
-35.15
-38.66
-43.36
-48.95
-54.62
-59.32
-62.28
-63.43
-63.73
-64.75
-68.10
-74.35
-82.48
-89.86
-93.13
-89.55
-78.26
-60.85
-40.62
-21.17
-4.73
8.65
20.80
33.99
49.52
66.88
83.92
97.96
106.84
109.48
106.04
97.61
86.19
74.67
66.77
66.15
74.95
92.11
112.86
129.75
135.50
126.09
102.49
70.02
35.60
4.71
-20.46
-40.51
-56.79
-69.65
-78.17
-81.47
-80.40
-77.92
-77.85
-82.62
-91.50
-100.55
-104.22
-97.71
-78.80
-48.46
-10.50
29.61
65.76
92.30
104.94
101.52
82.60
51.70
14.94
-20.01
-45.64
-56.74
-52.15
-35.36
-13.19
7.02
20.47
26.62
28.60
30.75
35.75
43.04
49.73
53.04
52.70
51.80
55.34
67.47
89.24
117.96
148.54
175.85
196.81
210.91
219.20
222.59
220.50
210.70
190.52
158.39
115.18
64.55
12.17
-35.65
-73.58
-98.54
-110.75
-113.48
-112.49
-114.37
-124.68
-146.47
-179.84
-222.63
-271.80
-324.38
-377.51
-427.81
-471.01
-502.58
-519.52
-522.06
-514.17
-502.04
-491.27
-484.28
-479.59
-473.17
-461.05
-441.59
-415.99
-387.18
-357.90
-329.47
-301.68
-273.83
-245.61
-217.60
-191.07
-167.11
-146.13
-127.72
-110.99
-95.14
-79.88
-65.55
-52.78
-42.23
-34.15
-28.30
-23.94
-20.19
-16.20
-11.49
-5.91
0.40
7.11
13.94
20.71
27.41
34.16
41.16
48.62
56.74
65.55
74.98
84.77
94.62
104.25
113.58
122.86
132.59
143.40
155.78
169.91
185.47
201.86
218.35
234.45
249.98
265.19
280.59
296.98
315.42
336.98
362.19
390.22
418.42
442.51
457.74
460.53
449.85
427.52
397.40
363.90
330.62
299.84
272.60
249.30
230.04
214.57
202.06
191.07
179.94
167.35
152.93
137.30
121.72
107.62
96.00
87.13
80.51
75.11
69.74
63.48
56.04
47.80
39.57
32.22
26.27
21.74
18.22
15.15
12.07
8.79
5.35
1.89
-1.52
-4.87
-8.17
-11.44
-14.73
-18.07
-21.42
-24.52
-26.76
-27.22
-25.04
-19.83
-12.09
-3.15
5.26
11.65
15.30
16.37
15.54
13.58
10.88
7.48
3.31
-1.49
-6.45
-10.94
-14.44
-16.73
-17.97
-18.52
-18.78
-19.06
-19.54
-20.38
-21.67
-23.48
-25.69
-28.01
-30.05
-31.46
-32.19
-32.41
-32.57
-33.12
-34.40
-36.45
-38.97
-41.32
-42.55
-41.66
-37.95
-31.41
-22.83
-13.67
-5.55
0.35
3.63
4.72
4.41
3.45
2.22
0.77
-0.95
-2.80
-4.42
-5.39
-5.42
-4.58
-3.30
-2.24
-2.05
-3.10
-5.32
-8.21
-10.99
-12.97
-13.79
-13.63
-13.09
-12.96
-13.97
-16.51
-20.59
-25.67
-30.72
-34.33
-35.07
-32.07
-25.47
-16.56
-7.35
0.18
4.88
6.75
6.74
6.08
5.69
5.87
6.37
6.80
6.91
6.65
6.10
5.19
3.69
1.22
-2.49
-7.37
-12.89
-18.15
-22.23
-24.50
-24.98
-24.35
-23.71
-24.17
-26.53
-31.01
-37.15
-43.88
-49.58
-52.48
-51.21
-45.32
-35.63
-24.01
-12.81
-3.96
1.56
3.88
3.76
2.11
-0.48
-3.77
-7.58
-11.61
-15.37
-18.37
-20.37
-21.53
-22.32
-23.28
-24.82
-27.04
-29.70
-32.33
-34.43
-35.69
-36.12
-36.05
-36.04
-36.64
-38.26
-41.03
-44.74
-48.71
-51.77
-52.36
-49.07
-41.19
-29.35
-15.52
-2.43
7.46
12.87
14.19
12.97
11.13
10.02
10.09
11.10
12.70
14.78
17.50
21.03
25.11
29.10
32.15
33.67
33.60
32.52
31.42
31.33
33.00
36.70
42.21
48.97
56.30
63.60
70.43
76.59
82.14
87.30
92.36
97.54
102.73
107.46
110.97
112.32
110.67
105.27
95.28
79.64
57.16
27.03
-10.40
-53.10
-97.37
-138.85
-173.64
-199.24
-214.72
-220.24
-216.51
-204.51
-185.40
-160.34
-130.07
-94.48
-52.80
-4.59
48.68
102.65
150.51
185.03
201.22
198.21
179.36
150.58
118.02
86.31
58.14
34.92
17.55
6.80
2.94
5.31
12.07
20.47
27.79
32.01
32.35
29.31
24.17
18.41
13.16
8.89
5.46
2.41
-0.67
-3.90
-7.03
-9.55
-10.97
-11.04
-9.94
-8.36
-7.29
-7.82
-10.67
-15.96
-23.09
-30.89
-37.98
-43.20
-45.98
-46.40
-45.06
-42.73
-39.88
-36.53
-32.29
-26.67
-19.49
-11.25
-3.08
3.43
6.88
6.52
2.75
-3.07
-9.04
-13.54
-15.97
-17.00
-18.35
-22.10
-29.73
-41.54
-56.44
-72.29
-86.54
-97.07
-102.76
-103.93
-102.34
-100.78
-102.21
-108.59
-119.80
-133.19
-144.08
-147.15
-138.12
-115.00
-78.34
-30.68
24.53
83.66
143.27
200.11
251.24
294.28
327.60
350.18
360.91
358.13
339.98
305.96
258.81
205.36
155.14
117.16
96.19
90.97
95.07
100.29
100.23
92.20
76.76
55.34
28.39
-4.74
-44.15
-87.27
-128.31
-159.91
-176.29
-175.93
-162.12
-141.15
-119.15
-99.49
-82.21
-65.34
-47.33
-28.59
-11.46
1.21
8.02
9.95
9.93
11.14
15.14
20.94
25.39
24.84
17.10
2.84
-14.41
-29.81
-39.46
-42.65
-42.51
-44.85
-55.63
-78.26
-111.98
-151.85
-190.22
-218.72
-229.96
-218.89
-183.85
-127.56
-57.42
15.16
77.01
116.67
127.82
111.11
73.66
26.21
-20.52
-58.74
-84.72
-98.30
-101.53
-97.45
-89.33
-80.41
-73.65
-71.22
-73.88
-80.71
-89.39
-96.89
-100.64
-99.54
-94.41
-87.85
-83.32
-83.93
-91.19
-104.30
-120.31
-135.08
-144.79
-147.35
-143.04
-134.30
-124.56
-117.00
-113.58
-114.83
-120.11
-128.14
-137.19
-145.09
-149.12
-146.32
-134.39
-112.69
-82.98
-49.31
-16.82
9.94
28.52
39.20
44.39
47.33
50.81
56.32
64.02
73.30
83.36
93.54
103.34
112.21
119.50
124.60
127.14
127.22
125.35
122.27
118.62
114.72
110.48
105.52
99.41
91.88
83.08
73.54
64.11
55.68
48.91
43.99
40.59
38.03
35.52
32.57
29.14
25.61
22.44
19.94
17.99
16.10
13.61
9.98
4.94
-1.33
-8.24
-14.77
-19.51
-20.92
-17.74
-9.44
3.41
19.09
35.21
49.40
60.02
66.44
68.97
68.34
65.32
60.42
54.05
46.67
38.91
31.51
25.01
19.59
14.95
10.58
6.03
1.23
-3.48
-7.55
-10.53
-12.37
-13.54
-14.89
-17.37
-21.79
-28.43
-36.88
-45.97
-53.85
-58.36
-57.60
-50.63
-37.84
-21.00
-2.68
14.50
28.72
39.32
46.75
52.10
56.39
60.20
63.39
65.39
65.56
63.64
59.94
55.23
50.46
46.36
43.13
40.42
37.67
34.41
30.54
26.30
22.01
17.93
14.03
10.07
5.85
1.32
-3.34
-7.91
-12.25
-16.48
-20.77
-25.07
-28.87
-31.12
-30.59
-26.39
-18.47
-7.83
3.79
14.52
23.06
28.98
32.65
34.83
36.16
36.93
37.11
36.64
35.70
34.76
34.35
34.83
36.07
37.55
38.58
38.68
37.82
36.43
35.16
34.50
34.58
35.13
35.60
35.50
34.60
33.15
31.85
31.74
33.92
39.11
47.19
57.11
66.96
74.61
78.35
77.47
72.56
65.21
57.51
51.33
47.81
47.12
48.66
51.53
55.20
60.07
67.64
80.18
99.54
125.70
155.82
184.26
203.93
208.54
194.92
164.48
122.90
78.17
37.79
6.16
-16.41
-32.95
-47.58
-63.25
-80.27
-96.33
-107.81
-111.38
-105.28
-89.85
-67.27
-40.96
-15.05
6.13
18.57
19.37
7.81
-13.80
-40.29
-64.81
-80.97
-85.14
-77.74
-62.95
-46.93
-35.46
-31.97
-36.85
-48.05
-62.66
-78.30
-93.86
-109.37
-125.61
-143.55
-164.28
-188.95
-218.61
-253.71
-293.16
-333.54
-369.04
-392.45
-397.15
-379.13
-338.57
-279.90
-210.71
-139.75
-74.79
-21.29
18.21
43.84
57.70
63.00
63.17
61.04
58.39
55.94
53.87
52.60
53.22
57.11
65.18
77.04
90.93
104.49
115.87
124.34
129.91
132.11
128.86
116.62
91.93
53.68
4.74
-48.21
-96.81
-133.85
-155.62
-162.37
-157.12
-143.61
-124.63
-101.58
-75.10
-46.17
-16.73
10.37
32.22
46.90
54.23
55.81
54.38
52.92
53.70
57.82
65.09
74.42
84.31
93.39
100.58
105.11
106.29
103.40
95.85
83.60
67.46
49.33
31.68
16.81
6.11
-0.39
-3.73
-5.36
-6.35
-6.97
-6.84
-5.33
-2.27
1.80
5.55
7.36
5.93
0.93
-6.68
-14.89
-21.24
-23.82
-21.97
-16.55
-9.59
-3.39
0.43
1.44
0.35
-1.58
-3.28
-4.38
-5.23
-6.47
-8.48
-11.09
-13.61
-15.21
-15.46
-14.56
-13.38
-12.99
-14.18
-17.03
-20.87
-24.60
-27.25
-28.58
-29.24
-30.56
-34.01
-40.41
-49.57
-60.31
-70.87
-79.51
-84.97
-86.44
-83.19
-74.51
-59.98
-40.14
-17.04
6.06
25.93
40.92
52.10
62.59
75.55
91.90
109.18
122.58
127.35
121.18
104.76
80.31
49.20
10.73
-36.65
-92.55
-152.02
-205.51
-241.80
-252.19
-233.80
-189.90
-127.77
-55.87
18.01
86.78
143.42
180.88
193.25
177.53
134.91
70.78
-6.22
-85.67
-156.81
-209.82
-237.55
-237.26
-211.63
-168.07
-116.12
-63.90
-15.52
29.65
75.35
125.71
182.66
244.29
304.95
356.60
391.27
403.49
392.01
360.16
314.32
260.88
203.74
143.45
78.73
9.46
-60.78
-124.17
-170.90
-192.95
-187.13
-156.23
-107.70
-51.01
4.51
50.87
81.50
91.45
78.67
45.58
-0.37
-48.27
-87.20
-109.77
-113.91
-102.15
-79.15
-49.67
-17.67
13.22
39.12
56.50
63.65
62.06
56.24
51.66
52.15
58.01
66.23
72.30
72.54
65.17
50.53
30.23
6.37
-18.76
-42.86
-63.67
-79.35
-88.98
-92.81
-92.11
-88.64
-84.08
-79.62
-75.82
-72.83
-70.52
-68.60
-66.70
-64.33
-61.03
-56.57
-51.11
-45.22
-39.59
-34.76
-30.86
-27.65
-24.67
-21.57
-18.26
-14.98
-12.01
-9.59
-7.72
-6.22
-4.92
-3.73
-2.71
-1.84
-1.02
0.01
1.42
3.08
4.56
5.28
4.87
3.49
1.78
0.51
0.17
0.58
1.00
0.61
-1.02
-3.62
-6.35
-8.24
-8.79
-8.12
-6.91
-5.95
-5.71
-6.12
-6.56
-6.30
-4.88
-2.36
0.70
3.56
5.61
6.67
6.92
6.78
6.59
6.38
5.89
4.72
2.57
-0.63
-4.62
-8.85
-12.57
-14.92
-15.13
-12.70
-7.72
-0.95
6.36
12.78
17.23
19.34
19.48
18.44
17.03
15.64
14.28
12.70
10.80
8.73
6.91
5.71
5.18
4.96
4.47
3.21
1.06
-1.56
-3.98
-5.67
-6.54
-7.06
-7.94
-9.78
-12.66
-16.18
-19.68
-22.64
-24.84
-26.36
-27.30
-27.50
-26.50
-23.75
-19.07
-13.01
-6.89
-2.47
-1.32
-4.22
-10.71
-19.13
-27.15
-32.63
-34.46
-33.10
-30.53
-29.56
-32.60
-40.61
-52.42
-65.01
-74.53
-77.65
-72.68
-60.42
-44.21
-29.67
-23.49
-31.38
-55.47
-92.32
-132.79
-164.27
-175.26
-160.26
-122.60
-73.72
-28.36
1.70
12.69
10.04
5.44
11.44
36.20
80.60
138.29
198.30
248.68
279.79
286.51
269.13
232.70
185.52
136.90
94.64
62.78
40.53
23.07
4.34
-19.65
-48.31
-76.09
-94.55
-95.83
-76.04
-36.79
15.43
71.87
124.35
167.45
198.99
219.20
229.08
229.11
218.77
196.88
162.62
116.86
63.08
7.36
-42.85
-80.87
-102.79
-108.44
-101.02
-85.47
-66.76
-48.60
-33.23
-22.05
-16.36
-17.57
-26.70
-43.47
-65.54
-88.50
-106.86
-115.49
-111.09
-93.12
-64.10
-29.08
5.16
31.47
43.85
39.00
17.48
-16.03
-53.66
-86.15
-105.26
-105.79
-86.97
-52.51
-9.57
33.04
67.17
87.10
90.77
79.77
58.45
32.45
7.22
-13.05
-26.01
-31.11
-29.40
-23.17
-15.40
-9.08
-6.47
-8.45
-14.30
-22.05
-29.15
-33.44
-33.83
-30.61
-25.25
-19.85
-16.32
-15.73
-17.92
-21.55
-24.55
-24.94
-21.57
-14.48
-4.91
5.26
14.25
20.97
25.30
27.90
29.63
31.09
32.32
32.81
31.89
29.13
24.62
19.06
13.55
9.16
6.55
5.65
5.77
5.95
5.45
4.11
2.31
0.64
-0.58
-1.58
-3.02
-5.61
-9.65
-14.82
-20.30
-25.08
-28.25
-29.23
-27.79
-24.05
-18.54
-12.08
-5.75
-0.53
2.96
4.69
5.13
4.89
4.43
3.88
3.11
1.98
0.60
-0.71
-1.51
-1.58
-1.02
-0.21
0.34
0.34
-0.16
-0.84
-1.33
-1.43
-1.28
-1.28
-1.85
-3.31
-5.74
-9.06
-12.92
-16.69
-19.39
-19.89
-17.26
-11.29
-2.81
6.47
14.58
20.09
22.60
22.75
21.76
20.72
20.17
20.00
19.79
19.12
17.87
16.14
14.14
12.06
9.94
7.81
5.66
3.62
1.89
0.64
-0.08
-0.48
-0.99
-2.19
-4.50
-8.02
-12.52
-17.49
-22.25
-26.04
-28.04
-27.51
-24.00
-17.75
-9.73
-1.50
5.37
9.99
12.48
13.80
15.00
16.57
18.14
18.77
17.71
14.90
11.08
7.40
4.74
3.33
2.79
2.46
1.86
0.93
-0.05
-0.72
-0.83
-0.45
0.15
0.59
0.60
0.02
-1.21
-3.14
-5.80
-9.21
-13.11
-16.88
-19.52
-19.98
-17.58
-12.44
-5.49
1.84
8.21
12.84
15.70
17.29
18.20
18.77
19.02
18.73
17.73
16.04
13.98
12.06
10.79
10.49
11.00
11.60
11.22
8.84
4.04
-2.74
-10.25
-16.92
-21.53
-23.78
-24.26
-24.13
-24.57
-26.24
-29.10
-32.39
-34.74
-34.39
-29.59
-19.14
-3.21
16.32
35.92
51.38
59.24
58.07
49.13
35.89
22.73
13.47
10.22
13.00
20.12
29.02
37.06
42.22
43.48
40.85
35.21
27.93
20.45
13.94
9.09
6.08
4.60
4.08
3.78
2.98
1.13
-1.98
-6.23
-11.22
-16.42
-21.32
-25.48
-28.54
-30.16
-30.01
-27.94
-24.03
-18.71
-12.72
-6.87
-1.81
2.09
4.76
6.32
6.83
6.30
4.62
1.81
-1.90
-6.02
-9.89
-12.96
-15.01
-16.22
-17.09
-18.27
-20.17
-22.87
-26.12
-29.42
-32.36
-34.80
-37.00
-39.58
-43.32
-48.92
-56.65
-66.08
-76.02
-84.71
-90.31
-91.48
-87.88
-80.20
-69.92
-58.81
-48.51
-40.27
-34.95
-33.11
-34.96
-40.29
-48.27
-57.52
-66.33
-73.06
-76.66
-76.82
-73.83
-67.99
-59.07
-46.12
-27.66
-2.49
29.52
66.88
106.55
144.34
175.68
196.15
202.11
191.26
163.20
120.29
67.78
13.05
-36.14
-74.17
-99.82
-117.12
-133.89
-158.25
-194.44
-240.14
-286.59
-322.07
-336.75
-326.82
-295.66
-251.50
-203.42
-157.48
-115.18
-74.74
-33.45
10.56
57.92
108.73
162.86
218.96
272.70
315.95
338.62
332.82
297.35
240.29
177.17
125.85
100.37
107.09
144.41
205.44
281.10
361.93
438.38
500.67
539.92
550.52
532.63
492.66
441.14
388.80
342.56
303.90
269.90
236.08
199.15
158.53
116.03
74.46
35.97
1.09
-31.69
-65.44
-103.69
-148.67
-199.85
-253.16
-301.78
-338.14
-356.88
-356.84
-341.58
-317.86
-293.17
-273.38
-261.40
-257.20
-257.87
-258.34
-252.34
-234.36
-202.44
-160.50
-118.59
-89.75
-84.71
-106.40
-147.82
-194.35
-229.32
-240.11
-221.65
-176.42
-112.15
-39.11
31.81
90.23
127.51
138.73
124.61
92.18
53.16
20.31
3.31
5.80
24.92
53.15
81.44
101.90
109.74
103.84
86.35
61.65
34.88
10.55
-8.50
-21.17
-27.91
-29.95
-28.71
-25.52
-21.52
-17.70
-14.74
-12.80
-11.41
-9.75
-7.08
-3.30
0.85
4.14
5.43
4.52
2.33
0.54
0.83
3.98
9.51
15.80
20.92
23.59
24.00
23.93
26.01
32.48
43.96
58.90
74.14
86.24
92.99
94.33
92.29
90.29
92.03
100.49
117.15
141.34
169.93
197.69
218.33
226.48
219.55
198.66
168.12
133.28
98.26
64.23
29.73
-7.60
-48.56
-90.80
-129.02
-156.92
-169.85
-166.81
-150.84
-127.76
-103.95
-84.39
-71.80
-66.87
-69.15
-77.68
-91.14
-107.52
-124.01
-137.44
-145.21
-146.14
-140.89
-131.48
-120.37
-109.64
-100.32
-92.34
-84.87
-76.81
-67.32
-56.19
-43.94
-31.71
-20.94
-12.89
-8.28
-7.14
-8.88
-12.52
-16.94
-21.07
-24.09
-25.59
-25.75
-25.31
-25.39
-27.02
-30.73
-36.15
-42.20
-47.38
-50.36
-50.34
-47.21
-41.53
-34.23
-26.35
-18.55
-10.83
-2.36
8.14
21.74
38.59
57.36
75.57
90.21
98.89
100.45
95.11
83.99
68.53
50.09
30.01
9.83
-8.61
-23.53
-33.93
-40.18
-44.13
-48.45
-55.50
-66.07
-78.77
-90.32
-96.68
-94.68
-83.27
-64.08
-40.79
-17.82
1.28
14.97
24.02
30.79
38.19
48.57
63.00
81.07
101.14
120.79
137.43
149.11
155.13
156.27
154.26
150.55
145.02
135.04
116.05
83.38
35.02
-26.09
-91.64
-149.60
-187.91
-198.56
-180.44
-139.66
-87.35
-35.76
5.77
33.15
47.74
54.54
59.63
67.86
81.79
101.49
124.94
148.37
166.47
173.29
163.79
136.09
93.30
43.68
-1.47
-31.72
-41.32
-31.32
-8.71
16.71
36.15
44.62
41.66
30.22
14.85
0.08
-10.52
-14.62
-11.40
-1.75
11.64
24.66
32.69
31.85
20.30
-1.19
-29.24
-58.78
-84.44
-101.90
-108.95
-105.78
-94.69
-79.17
-62.90
-48.81
-38.52
-32.23
-29.00
-27.33
-25.84
-23.76
-21.05
-18.27
-16.10
-15.03
-15.16
-16.30
-18.15
-20.48
-23.16
-26.02
-28.81
-31.02
-32.09
-31.60
-29.51
-26.26
-22.66
-19.49
-17.16
-15.40
-13.50
-10.80
-7.23
-3.59
-1.17
-1.13
-3.86
-8.77
-14.67
-20.19
-24.32
-26.34
-25.84
-22.61
-17.02
-10.24
-4.33
-1.59
-3.74
-11.11
-22.45
-35.49
-47.87
-57.88
-64.66
-68.05
-68.15
-65.08
-59.03
-50.43
-40.04
-28.85
-17.85
-7.83
0.68
7.46
12.54
16.12
18.47
19.84
20.30
19.68
17.75
14.42
10.07
5.66
2.58
2.25
5.52
12.37
21.79
32.15
41.66
48.90
53.21
54.59
53.63
51.08
47.69
44.00
40.36
37.05
34.36
32.64
32.22
33.15
35.07
37.17
38.40
37.95
35.61
31.97
28.17
25.43
24.46
25.19
26.81
28.27
28.66
27.47
24.63
20.32
14.98
9.34
4.48
1.64
1.90
5.61
12.20
20.32
28.44
35.51
41.27
46.05
50.14
53.36
54.90
53.76
49.33
41.85
32.32
22.17
12.66
4.63
-1.65
-6.25
-9.37
-11.26
-12.19
-12.56
-12.81
-13.40
-14.68
-16.86
-20.01
-24.00
-28.49
-32.90
-36.45
-38.35
-38.06
-35.49
-30.94
-24.99
-18.14
-10.68
-2.78
5.19
12.31
17.12
18.14
14.58
7.03
-2.46
-11.02
-16.08
-16.39
-12.46
-6.21
-0.01
4.40
6.43
6.65
6.19
6.14
7.12
9.29
12.48
16.46
20.89
25.35
29.44
32.97
36.19
40.02
45.69
54.26
65.99
80.02
94.59
107.74
118.19
125.87
132.00
138.67
148.10
161.76
179.63
199.64
217.80
229.05
228.79
214.59
187.46
151.89
114.45
81.45
56.76
40.68
30.55
22.38
12.82
0.22
-15.31
-32.84
-51.66
-71.82
-94.15
-119.82
-149.86
-184.65
-223.76
-265.60
-307.38
-345.31
-375.33
-394.13
-400.03
-393.62
-377.37
-354.77
-329.11
-302.42
-274.86
-245.26
-212.15
-175.07
-135.55
-97.01
-63.81
-39.67
-26.31
-22.93
-26.48
-32.74
-37.37
-36.82
-28.97
-13.48
8.21
33.13
57.50
77.82
91.85
98.98
100.05
96.75
90.96
84.48
79.07
76.38
77.83
83.93
93.90
105.51
115.73
121.72
121.81
116.21
106.73
96.00
86.31
78.71
72.62
66.17
56.94
43.02
23.94
1.00
-22.90
-44.24
-60.09
-69.11
-72.00
-70.95
-68.67
-67.17
-67.06
-67.76
-68.20
-67.70
-66.42
-65.24
-65.19
-66.71
-69.27
-71.57
-71.99
-69.40
-63.63
-55.57
-46.79
-38.82
-32.51
-27.55
-22.78
-16.63
-7.97
3.50
17.08
31.38
44.94
56.68
66.07
73.10
78.01
81.00
82.18
81.44
78.65
73.90
67.59
60.58
53.90
48.42
44.38
41.21
37.59
31.92
22.88
10.00
-6.27
-24.59
-43.05
-59.52
-71.82
-78.13
-77.33
-69.47
-56.10
-40.12
-25.06
-14.04
-8.70
-8.74
-12.13
-16.07
-18.05
-16.66
-11.76
-4.17
4.89
14.34
23.41
31.68
38.82
44.47
48.36
50.32
50.56
49.62
48.19
46.89
46.06
45.65
45.44
45.19
44.82
44.34
43.87
43.61
44.02
45.88
50.06
56.99
66.04
75.17
81.43
82.03
75.56
62.75
46.28
29.71
16.17
7.38
3.45
3.25
5.21
7.89
10.35
12.12
13.08
13.26
12.70
11.35
9.07
5.66
1.04
-4.70
-11.21
-17.98
-24.45
-30.25
-35.22
-39.45
-43.13
-46.33
-48.97
-50.73
-51.29
-50.51
-48.76
-46.80
-45.61
-45.97
-48.04
-51.28
-54.71
-57.36
-58.77
-59.29
-59.93
-61.92
-66.26
-73.32
-82.76
-93.72
-105.18
-116.34
-126.87
-136.95
-147.12
-157.84
-169.24
-181.01
-192.66
-203.90
-214.88
-225.94
-237.07
-247.30
-254.49
-255.87
-249.10
-233.21
-209.12
-179.28
-146.64
-113.62
-81.40
-49.69
-17.06
18.41
58.43
103.63
152.96
203.13
248.84
283.77
302.36
301.72
282.89
250.77
212.66
176.07
146.91
128.36
120.83
122.55
130.29
140.12
148.23
151.85
150.04
144.03
136.61
130.84
128.38
128.76
129.70
128.55
123.81
115.93
106.87
98.87
93.20
89.67
87.00
83.67
78.72
72.05
64.15
55.60
46.72
37.52
28.05
18.61
9.90
2.74
-2.21
-4.79
-5.39
-4.77
-3.78
-2.95
-2.26
-1.03
1.85
7.44
16.25
27.99
41.49
55.00
66.55
74.43
77.58
75.86
70.17
62.21
53.83
46.37
39.97
33.50
25.20
13.88
-0.02
-14.02
-24.30
-27.07
-20.00
-3.01
21.87
51.20
81.01
107.39
126.62
135.28
130.61
111.54
79.67
39.67
-1.44
-36.45
-60.37
-72.20
-74.93
-74.03
-74.95
-81.23
-93.76
-111.23
-131.24
-150.90
-167.03
-176.26
-175.49
-162.81
-138.55
-105.74
-69.42
-35.21
-7.98
8.95
14.03
7.10
-10.77
-37.47
-69.84
-103.91
-135.41
-160.18
-174.63
-176.05
-162.86
-135.18
-95.26
-47.32
3.09
50.39
90.37
120.71
140.48
149.19
146.31
131.71
106.63
74.30
39.48
6.87
-20.77
-43.45
-63.38
-83.02
-103.09
-121.64
-134.71
-138.16
-129.59
-109.37
-80.42
-47.03
-13.65
15.95
38.95
53.53
59.01
55.91
45.83
31.43
15.63
0.77
-11.97
-22.89
-33.35
-44.82
-57.98
-72.14
-85.16
-94.10
-96.11
-89.30
-73.46
-50.25
-22.96
4.26
27.44
43.92
52.99
56.09
56.22
56.90
61.04
69.91
83.00
98.30
113.30
126.02
135.73
142.94
149.03
155.46
163.18
172.45
183.06
194.50
205.97
216.06
222.50
222.30
212.73
192.52
162.92
127.45
90.54
55.71
24.30
-4.48
-32.23
-59.92
-86.95
-111.52
-131.69
-146.36
-155.62
-160.42
-161.83
-160.63
-157.16
-151.42
-143.04
-131.38
-115.70
-95.60
-71.62
-45.40
-19.43
3.79
22.47
35.65
43.00
44.27
39.29
28.43
13.33
-2.96
-16.57
-24.20
-24.46
-18.51
-9.57
-1.44
2.99
2.86
-0.70
-5.31
-8.59
-9.02
-6.39
-1.53
4.21
9.49
13.37
15.22
14.60
11.08
4.29
-5.67
-17.95
-30.89
-42.53
-51.20
-56.23
-58.11
-58.10
-57.54
-56.97
-55.99
-53.43
-48.10
-39.46
-28.03
-15.27
-3.05
6.93
13.63
16.79
16.74
14.00
9.03
2.10
-6.43
-15.86
-25.10
-32.84
-38.03
-40.26
-40.02
-38.30
-36.27
-34.67
-33.78
-33.46
-33.45
-33.64
-33.96
-34.36
-34.50
-33.94
-32.15
-28.84
-24.03
-18.15
-11.84
-5.90
-1.04
2.24
3.74
3.65
2.45
0.73
-1.02
-2.65
-4.32
-6.39
-9.04
-12.02
-14.59
-15.72
-14.56
-10.92
-5.46
0.46
5.32
8.00
8.05
5.83
2.11
-2.38
-7.19
-12.07
-16.94
-21.63
-25.89
-29.51
-32.49
-34.95
-37.10
-38.97
-40.41
-41.10
-40.79
-39.45
-37.29
-34.73
-32.15
-29.85
-27.98
-26.60
-25.83
-25.71
-26.15
-26.72
-26.67
-25.19
-21.75
-16.46
-10.18
-4.15
0.53
3.40
4.83
5.84
7.68
11.26
17.00
24.79
34.16
44.56
55.33
65.88
75.62
84.07
90.99
96.46
100.74
104.14
106.73
108.29
108.38
106.47
102.12
94.93
84.58
70.78
53.52
33.33
11.49
-10.14
-29.43
-44.67
-54.98
-60.50
-62.19
-61.48
-59.85
-58.52
-58.24
-59.10
-60.40
-60.78
-58.42
-51.49
-38.67
-19.62
4.83
32.80
61.80
89.28
113.16
132.18
146.06
155.27
160.93
164.48
167.39
170.74
174.89
179.28
182.64
183.51
180.90
174.68
165.55
154.40
141.75
127.30
110.02
88.55
61.85
29.65
-7.17
-46.61
-85.71
-120.89
-148.43
-165.08
-168.67
-158.68
-136.59
-105.74
-70.93
-37.40
-9.71
9.28
19.06
21.27
18.86
14.82
11.06
7.88
4.36
-0.96
-9.24
-20.86
-35.43
-52.02
-69.37
-86.04
-100.39
-110.72
-115.64
-114.56
-107.97
-97.44
-85.11
-73.07
-62.86
-55.43
-51.15
-50.25
-52.87
-59.09
-68.68
-81.14
-95.60
-111.08
-126.61
-141.58
-155.77
-169.37
-182.74
-196.21
-209.94
-223.84
-237.80
-251.87
-266.17
-280.57
-294.25
-305.52
-312.22
-312.52
-305.80
-293.06
-276.64
-259.32
-243.33
-229.79
-218.78
-209.87
-202.63
-196.85
-192.42
-188.97
-185.76
-181.87
-176.64
-169.99
-162.49
-154.90
-147.64
-140.29
-131.42
-118.93
-100.78
-75.62
-43.29
-4.77
38.21
83.89
131.11
179.60
230.10
284.10
343.14
407.64
475.79
543.01
602.58
647.26
671.55
673.27
654.06
618.40
571.77
518.97
463.16
405.63
346.15
283.75
217.67
148.70
80.22
18.40
-28.81
-53.86
-51.93
-22.70
29.39
96.07
166.76
230.43
277.25
299.85
294.47
261.70
206.72
138.68
69.27
10.40
-28.23
-41.46
-29.89
-0.01
37.62
71.12
90.37
89.31
66.94
26.68
-24.97
-79.97
-130.07
-167.73
-186.94
-184.19
-159.40
-116.60
-63.87
-12.13
27.25
45.49
38.98
10.34
-32.67
-79.83
-121.55
-150.86
-163.77
-158.34
-134.13
-92.44
-37.40
23.07
78.11
116.29
128.95
112.72
70.37
9.60
-59.06
-124.60
-177.12
-208.90
-215.20
-194.94
-151.22
-91.39
-25.86
33.79
77.29
97.93
93.41
65.19
17.16
-46.06
-119.51
-197.20
-271.20
-331.58
-368.31
-374.48
-349.68
-301.31
-242.95
-190.44
-157.37
-152.11
-176.82
-228.36
-299.52
-380.16
-458.37
-522.05
-561.29
-570.83
-551.48
-509.40
-453.77
-393.61
-335.11
-280.76
-230.20
-181.88
-134.53
-87.80
-41.84
3.14
47.19
90.60
133.44
175.48
216.30
255.58
293.11
328.50
360.54
387.08
405.63
414.54
414.09
406.58
395.47
383.70
372.54
361.38
348.75
333.50
315.43
295.01
272.44
247.02
217.41
182.70
143.82
104.21
69.33
45.20
36.69
46.19
73.37
115.76
169.27
228.43
286.44
335.65
369.03
382.59
377.35
359.65
338.81
323.12
316.22
316.02
317.01
314.30
307.14
299.21
295.99
300.91
312.90
326.78
336.10
336.38
326.70
309.19
286.97
262.04
234.62
203.78
168.81
130.28
90.09
50.55
13.31
-21.57
-55.69
-91.56
-131.26
-175.06
-220.70
-263.61
-298.36
-320.60
-328.86
-325.10
-313.99
-301.03
-290.47
-284.12
-281.20
-279.51
-276.79
-271.80
-264.53
-255.79
-246.45
-237.04
-227.68
-218.42
-209.58
-201.67
-194.88
-188.54
-180.83
-169.27
-151.81
-128.20
-100.48
-72.66
-49.37
-34.19
-28.59
-31.82
-41.59
-55.15
-70.10
-84.61
-97.41
-107.51
-114.31
-117.72
-118.35
-117.32
-115.86
-114.83
-114.49
-114.58
-114.66
-114.53
-114.35
-114.61
-115.79
-118.09
-121.16
-124.35
-126.95
-128.73
-129.96
-131.39
-133.94
-138.21
-144.47
-152.65
-162.58
-174.02
-186.44
-198.53
-208.02
-211.82
-206.97
-191.66
-166.15
-132.86
-95.69
-58.75
-25.16
3.66
27.88
48.77
68.08
87.68
109.26
133.96
161.74
190.90
218.02
238.71
248.98
246.64
232.16
208.44
179.76
150.17
122.35
97.26
74.53
53.41
33.52
15.27
-0.17
-11.19
-16.25
-14.16
-4.27
13.56
39.14
71.61
109.15
148.54
185.14
213.76
229.89
231.07
217.69
192.71
160.58
125.88
92.42
63.02
39.92
24.92
19.03
21.82
30.90
42.33
51.70
55.59
52.52
42.96
28.63
11.48
-7.06
-26.10
-45.10
-63.34
-79.81
-93.22
-102.32
-106.28
-104.94
-99.03
-90.10
-80.29
-71.81
-66.32
-64.48
-65.87
-69.26
-73.24
-76.70
-79.14
-80.57
-81.20
-81.14
-80.12
-77.69
-73.36
-66.94
-58.66
-49.05
-38.79
-28.46
-18.42
-8.90
-0.01
8.16
15.63
22.60
29.47
36.71
44.73
53.74
63.69
74.43
85.86
98.05
111.09
124.89
138.95
152.37
163.98
172.66
177.63
178.55
175.48
168.73
158.61
145.43
129.59
111.69
92.61
73.46
55.43
39.57
26.63
16.89
10.07
5.32
1.39
-3.04
-8.92
-16.46
-25.05
-33.48
-40.40
-44.85
-46.72
-46.57
-45.40
-44.17
-43.47
-43.45
-43.90
-44.41
-44.50
-43.67
-41.50
-37.66
-31.96
-24.45
-15.41
-5.38
4.85
14.30
21.98
26.94
28.46
26.18
20.32
11.94
3.18
-2.95
-3.47
2.97
14.68
26.53
31.37
22.91
-1.30
-38.36
-81.04
-120.83
-151.49
-171.18
-182.30
-189.51
-197.22
-208.08
-222.55
-239.42
-256.17
-269.37
-274.86
-268.68
-248.48
-214.68
-170.77
-122.19
-74.44
-31.42
5.13
34.89
57.70
72.89
79.61
78.05
70.45
61.00
54.57
54.70
62.26
75.29
90.29
104.06
115.03
123.33
129.76
134.53
136.67
134.42
126.54
113.33
96.86
80.11
65.63
54.68
47.27
42.91
41.54
43.83
50.72
62.64
78.95
97.99
117.54
135.42
149.73
158.87
161.63
157.32
146.14
129.26
108.67
86.72
65.64
47.32
33.30
24.63
21.55
23.09
26.95
30.18
30.37
26.81
21.04
16.22
15.50
20.55
30.84
44.30
58.83
73.76
90.34
110.99
137.71
170.59
207.23
243.33
274.13
295.91
306.96
307.55
299.20
283.72
262.41
235.98
204.83
169.78
132.51
95.51
61.43
32.19
8.19
-11.87
-30.53
-50.62
-74.50
-103.55
-137.73
-175.23
-212.21
-243.11
-261.85
-264.06
-249.07
-220.99
-187.65
-157.78
-137.86
-129.90
-131.57
-138.17
-145.25
-150.50
-153.81
-156.17
-158.13
-159.11
-157.74
-152.89
-144.57
-134.16
-123.82
-115.38
-109.46
-105.17
-100.65
-94.00
-84.12
-71.19
-56.48
-41.78
-28.86
-18.97
-12.68
-10.01
-10.58
-13.75
-18.84
-25.16
-32.10
-39.20
-46.02
-52.14
-57.16
-60.73
-62.73
-63.24
-62.53
-60.87
-58.45
-55.37
-51.72
-47.72
-43.70
-40.00
-36.91
-34.54
-32.91
-32.06
-32.07
-33.11
-35.24
-38.24
-41.59
-44.63
-46.75
-47.67
-47.45
-46.30
-44.40
-41.75
-38.24
-33.78
-28.37
-22.17
-15.37
-8.06
-0.33
7.69
15.44
21.95
25.94
26.35
22.79
15.91
7.34
-0.82
-6.60
-8.91
-7.72
-4.07
0.49
4.53
7.33
9.07
10.60
12.95
16.74
21.94
27.87
33.55
38.09
41.02
42.29
42.11
40.74
38.37
35.13
31.22
27.04
23.13
20.03
17.94
16.57
15.16
12.70
8.36
1.84
-6.33
-14.77
-21.68
-25.36
-24.86
-20.41
-13.31
-5.54
0.93
4.85
5.97
4.87
2.67
0.42
-1.20
-2.05
-2.37
-2.54
-2.94
-3.82
-5.28
-7.29
-9.61
-11.91
-13.75
-14.73
-14.64
-13.51
-11.65
-9.50
-7.53
-5.96
-4.86
-4.16
-3.83
-3.96
-4.68
-5.90
-7.19
-7.81
-7.02
-4.43
-0.36
4.35
8.57
11.44
12.72
12.73
12.15
11.54
11.09
10.65
9.93
8.80
7.42
6.19
5.45
5.35
5.66
5.94
5.77
4.92
3.48
1.78
0.21
-0.93
-1.58
-1.91
-2.27
-3.05
-4.53
-6.82
-9.77
-13.00
-15.92
-17.82
-18.13
-16.55
-13.26
-8.91
-4.43
-0.69
1.74
2.84
2.96
2.60
2.19
1.91
1.77
1.68
1.61
1.56
1.52
1.47
1.30
0.91
0.31
-0.45
-1.23
-1.85
-2.16
-2.00
-1.36
-0.33
0.83
1.76
2.12
1.70
0.54
-1.16
-3.01
-4.61
-5.51
-5.33
-3.89
-1.26
2.19
5.92
9.32
11.93
13.53
14.09
13.65
12.32
10.29
7.91
5.74
4.33
4.01
4.61
5.48
5.67
4.45
1.64
-2.22
-6.07
-8.77
-9.70
-8.94
-7.35
-6.14
-6.43
-8.85
-13.46
-19.74
-26.66
-32.78
-36.17
-34.63
-26.19
-9.81
14.07
43.39
75.00
105.72
133.24
156.50
175.27
189.33
198.15
201.03
197.88
189.72
178.51
166.15
153.33
138.92
120.37
95.07
62.07
23.12
-17.39
-53.76
-80.99
-96.44
-100.61
-96.79
-89.61
-83.41
-80.91
-82.68
-87.69
-94.24
-100.99
-107.34
-113.36
-119.13
-124.31
-128.05
-129.26
-127.11
-121.46
-112.95
-102.83
-92.39
-82.47
-73.25
-64.33
-55.25
-46.01
-37.35
-30.56
-26.94
-27.12
-30.67
-36.16
-41.68
-45.47
-46.44
-44.38
-39.66
-32.87
-24.57
-15.09
-4.80
5.81
16.03
24.96
31.67
35.47
36.00
33.31
27.81
20.26
11.73
3.51
-3.10
-7.13
-8.18
-6.68
-3.83
-1.19
-0.02
-0.88
-3.25
-5.80
-6.96
-5.58
-1.41
4.77
11.50
17.02
19.77
18.81
14.08
6.39
-2.81
-11.78
-19.02
-23.64
-25.45
-24.95
-22.97
-20.36
-17.85
-15.95
-15.06
-15.39
-16.95
-19.49
-22.46
-25.00
-26.24
-25.76
-23.78
-21.38
-20.08
-21.25
-25.44
-32.06
-39.75
-47.05
-53.09
-57.87
-61.88
-65.58
-68.80
-70.80
-70.80
-68.61
-65.10
-62.01
-61.50
-65.47
-75.23
-91.29
-113.45
-140.83
-171.88
-204.21
-234.63
-259.67
-276.26
-282.66
-278.94
-266.98
-249.69
-230.07
-210.32
-191.54
-174.00
-157.53
-142.00
-127.23
-112.71
-97.48
-80.15
-59.40
-34.62
-6.26
24.41
55.65
86.05
115.07
143.06
171.18
200.99
234.18
271.95
314.27
359.03
401.88
436.99
458.90
464.64
455.14
434.92
410.35
387.04
368.06
353.49
341.53
330.11
318.08
305.31
291.95
277.73
261.93
243.89
223.59
201.76
179.26
156.49
133.00
107.86
80.50
51.45
22.29
-5.16
-29.76
-51.77
-72.51
-93.60
-116.00
-139.58
-163.35
-185.91
-205.92
-222.12
-233.13
-237.49
-233.95
-222.20
-203.34
-179.90
-155.18
-132.24
-113.04
-98.22
-87.45
-79.91
-74.80
-71.43
-69.06
-66.87
-63.98
-59.75
-54.03
-47.19
-39.89
-32.87
-26.63
-21.37
-17.05
-13.39
-9.98
-6.42
-2.57
1.32
4.62
6.68
7.16
6.45
5.46
5.30
6.79
10.06
14.61
19.59
24.14
27.71
30.12
31.48
32.00
31.82
30.91
29.01
25.79
20.97
14.41
6.27
-3.09
-12.95
-22.21
-29.40
-32.88
-31.37
-24.46
-13.06
0.83
14.63
26.08
33.95
38.25
39.97
40.43
40.60
40.86
40.99
40.53
39.11
36.70
33.67
30.67
28.38
27.17
26.97
27.18
27.03
25.85
23.38
19.87
15.89
11.93
8.24
4.71
0.94
-3.41
-8.57
-14.60
-21.43
-28.71
-35.63
-40.78
-42.39
-38.97
-30.04
-16.64
-1.17
13.42
24.77
31.80
34.82
35.06
33.83
32.07
30.25
28.49
26.88
25.47
24.18
22.72
20.75
18.12
15.05
12.10
9.93
8.91
8.89
9.20
9.02
7.65
4.85
0.88
-3.69
-8.22
-12.25
-15.57
-18.35
-20.92
-23.79
-27.56
-32.67
-39.12
-46.02
-51.56
-53.31
-49.15
-38.27
-21.80
-2.65
15.48
29.52
38.03
41.52
41.81
41.01
40.63
41.18
42.35
43.44
43.82
43.19
41.69
39.73
37.94
36.95
37.13
38.47
40.61
42.94
44.93
46.39
47.51
48.67
50.20
52.09
53.99
55.31
55.59
54.73
53.03
51.05
49.44
48.94
50.41
54.95
63.49
76.23
91.98
107.85
119.84
123.97
117.65
100.46
73.86
40.06
0.70
-43.54
-92.39
-144.54
-196.48
-242.37
-275.27
-289.40
-282.08
-254.81
-212.75
-163.03
-112.53
-66.27
-26.68
6.03
32.92
55.14
73.05
85.83
91.57
87.93
73.01
46.17
8.57
-36.87
-85.66
-132.50
-172.04
-199.85
-213.27
-211.86
-197.22
-171.85
-138.09
-97.35
-50.46
1.08
53.94
102.66
140.87
163.29
167.65
155.22
129.90
96.32
58.23
18.04
-22.52
-61.13
-94.16
-116.89
-124.76
-114.90
-87.62
-47.00
-0.18
43.94
76.83
92.13
87.20
64.17
30.19
-3.53
-24.26
-21.96
6.57
55.51
111.13
156.27
176.45
165.04
125.25
68.61
10.66
-33.98
-55.64
-51.50
-25.45
14.08
57.02
94.81
122.15
137.34
140.72
132.90
113.66
82.49
40.35
-9.05
-59.53
-104.23
-138.25
-160.11
-171.54
-175.82
-175.40
-171.01
-162.12
-148.69
-132.99
-120.14
-116.93
-129.34
-159.84
-205.76
-259.41
-310.17
-347.54
-364.21
-358.03
-332.12
-293.33
-249.68
-207.64
-170.43
-137.91
-107.61
-76.56
-42.78
-6.09
31.95
68.84
102.09
130.07
152.54
170.77
187.04
203.62
221.51
239.53
254.39
261.80
258.47
243.76
220.12
192.07
163.99
138.03
113.51
87.95
59.25
27.85
-2.51
-25.66
-35.10
-25.92
4.02
53.87
119.87
195.72
273.01
342.20
394.41
423.57
427.82
409.62
374.27
327.48
273.64
215.40
154.69
94.14
37.30
-12.29
-52.76
-84.81
-111.06
-134.13
-154.86
-171.81
-182.29
-184.27
-178.09
-166.80
-154.95
-146.75
-144.23
-146.34
-149.26
-147.66
-136.02
-110.09
-68.11
-12.05
51.44
111.66
156.01
173.83
160.71
121.39
69.40
22.84
-2.32
1.49
30.48
71.46
107.59
125.29
118.97
91.86
53.27
14.19
-16.61
-34.51
-39.09
-33.00
-20.36
-5.92
5.59
9.99
4.48
-11.36
-34.95
-60.90
-82.43
-93.55
-91.29
-76.75
-54.54
-30.69
-10.19
4.56
14.04
20.35
25.31
29.16
30.55
27.36
18.29
3.68
-14.40
-33.13
-50.02
-63.78
-74.37
-82.39
-88.32
-91.98
-92.67
-89.83
-83.89
-76.69
-71.22
-70.77
-77.66
-92.32
-113.00
-136.29
-158.10
-174.79
-183.88
-184.30
-176.05
-159.72
-136.11
-106.20
-71.27
-33.26
5.32
41.56
72.71
96.81
113.17
122.53
126.66
127.73
127.56
127.13
126.51
125.06
121.55
114.24
100.80
78.56
45.49
1.41
-51.03
-106.43
-158.12
-200.62
-231.39
-251.28
-263.07
-269.35
-271.04
-267.46
-257.71
-242.28
-223.53
-204.66
-187.92
-173.11
-157.66
-138.09
-112.08
-79.90
-44.57
-10.72
17.02
35.35
42.87
39.87
27.93
9.46
-12.35
-33.73
-50.44
-58.44
-54.85
-38.62
-10.86
25.79
68.28
114.27
162.69
213.29
265.57
317.56
365.65
405.36
432.97
447.01
448.95
442.69
433.07
424.13
417.57
412.44
405.65
393.44
372.84
342.71
303.91
258.62
209.47
158.81
108.53
60.44
16.67
-20.50
-49.29
-69.45
-82.80
-92.59
-102.17
-113.52
-126.50
-139.37
-150.06
-157.39
-161.77
-164.73
-168.00
-172.60
-178.51
-184.94
-190.82
-195.21
-197.38
-196.69
-192.57
-184.79
-173.77
-160.80
-147.81
-136.70
-128.68
-123.77
-120.83
-118.14
-114.09
-107.75
-99.13
-88.99
-78.46
-68.65
-60.33
-53.86
-49.18
-45.94
-43.75
-42.39
-41.88
-42.57
-44.79
-48.60
-53.54
-58.65
-62.70
-64.65
-64.04
-61.14
-56.80
-52.20
-48.60
-47.14
-48.66
-53.44
-60.98
-69.85
-78.06
-83.58
-85.09
-82.41
-76.32
-67.95
-58.08
-46.73
-33.53
-18.21
-1.36
15.51
30.35
41.38
47.82
50.04
49.26
46.91
44.00
40.94
37.61
33.89
29.97
26.50
24.37
24.33
26.59
30.73
35.78
40.59
44.10
45.59
44.73
41.76
37.51
33.31
30.75
31.13
34.91
41.44
49.15
56.19
61.20
63.71
64.19
63.55
62.49
61.22
59.48
56.91
53.50
49.68
46.15
43.48
41.84
40.88
39.89
38.18
35.34
31.43
26.87
22.14
17.56
13.16
8.70
3.87
-1.57
-7.69
-14.51
-22.01
-30.07
-38.20
-45.38
-50.12
-50.92
-46.98
-38.63
-27.40
-15.48
-4.95
2.93
7.94
10.64
11.97
12.75
13.50
14.37
15.25
15.87
15.93
15.23
13.79
11.92
10.15
9.26
10.29
14.58
23.60
38.55
59.67
85.72
114.00
140.90
163.05
178.36
186.51
188.66
186.64
182.15
176.55
171.20
167.92
169.23
177.56
194.10
217.53
243.68
266.36
279.28
278.10
261.66
231.94
192.95
149.18
104.46
61.71
23.03
-9.96
-36.21
-55.51
-68.86
-78.28
-86.31
-95.16
-106.07
-119.13
-133.51
-147.96
-161.27
-172.61
-181.67
-188.60
-193.81
-197.81
-200.89
-202.94
-203.32
-200.84
-194.13
-182.14
-164.78
-143.25
-119.96
-97.83
-79.37
-65.83
-57.01
-51.56
-47.93
-45.05
-42.77
-41.69
-42.61
-45.98
-51.61
-58.59
-65.61
-71.23
-74.35
-74.43
-71.75
-67.39
-62.97
-60.20
-60.45
-64.32
-71.30
-79.81
-87.29
-90.68
-87.22
-75.44
-55.86
-31.16
-5.55
16.53
31.62
38.21
36.67
28.78
16.85
3.06
-10.74
-23.08
-32.77
-39.14
-42.48
-44.30
-47.17
-54.08
-67.35
-87.68
-113.71
-142.35
-169.61
-191.80
-206.41
-212.58
-211.06
-203.69
-192.79
-180.33
-167.39
-153.92
-138.95
-121.26
-100.03
-75.22
-47.51
-17.79
13.18
45.00
77.95
112.97
151.38
194.09
240.12
285.47
322.88
343.61
340.87
313.33
266.53
211.25
159.25
118.78
92.24
77.12
69.25
66.02
67.54
75.30
89.68
108.32
126.38
138.65
141.90
136.06
123.79
108.59
93.06
78.06
63.19
47.94
33.00
20.65
14.15
16.13
27.01
43.94
61.17
71.76
70.00
53.64
24.69
-11.44
-48.08
-79.59
-102.89
-117.46
-124.49
-125.58
-121.99
-114.54
-103.91
-91.01
-76.94
-62.66
-48.81
-35.72
-23.78
-13.87
-7.31
-5.29
-8.15
-14.81
-23.01
-29.93
-32.84
-29.64
-19.10
-1.17
22.67
49.15
73.53
90.72
96.86
90.70
73.93
50.22
23.51
-3.52
-29.84
-55.41
-80.09
-102.99
-122.52
-137.29
-146.63
-150.91
-151.17
-148.66
-144.46
-139.33
-133.91
-128.78
-124.63
-122.06
-121.46
-123.06
-126.88
-132.70
-139.98
-147.69
-154.28
-157.97
-157.32
-151.78
-141.60
-127.59
-110.23
-89.12
-62.92
-29.91
11.45
62.04
121.62
188.41
258.35
324.92
379.73
414.45
423.43
405.92
366.66
314.21
257.80
204.42
157.25
116.25
80.08
47.88
20.09
-2.10
-17.96
-28.09
-34.42
-39.28
-44.42
-50.38
-56.31
-60.81
-62.76
-61.84
-58.57
-53.84
-48.30
-42.01
-34.36
-24.49
-11.78
3.80
21.44
39.64
56.50
70.22
79.58
84.16
84.41
81.47
76.95
72.74
70.74
72.54
78.74
88.44
98.95
106.22
105.90
94.78
72.04
39.69
2.01
-35.66
-68.37
-92.56
-106.49
-110.11
-104.65
-92.20
-75.33
-56.75
-39.04
-24.22
-13.52
-7.20
-4.68
-4.80
-6.24
-7.89
-9.20
-10.17
-11.30
-13.27
-16.59
-21.32
-26.98
-32.69
-37.43
-40.40
-41.18
-39.77
-36.47
-31.70
-25.91
-19.73
-14.05
-10.16
-9.46
-13.06
-21.23
-33.02
-46.27
-58.09
-65.67
-66.97
-61.25
-48.98
-31.35
-9.85
14.13
39.31
64.55
88.78
111.30
131.80
150.57
168.34
185.69
202.46
217.44
228.57
233.72
231.66
222.73
208.88
192.88
177.32
163.67
152.15
142.27
133.73
126.91
122.76
121.84
123.58
126.19
127.44
125.99
122.28
118.54
117.80
122.34
132.37
145.72
158.48
166.47
166.60
157.77
140.97
118.66
93.80
68.90
45.41
23.65
3.13
-16.98
-37.41
-58.66
-81.04
-104.80
-130.08
-156.89
-184.98
-213.99
-243.65
-274.11
-306.07
-340.69
-378.88
-420.59
-464.05
-505.50
-539.69
-561.17
-565.68
-551.52
-519.95
-474.64
-420.35
-361.47
-301.08
-240.92
-181.97
-125.27
-72.28
-24.60
16.69
51.58
81.15
106.91
129.93
150.27
167.15
179.60
187.26
190.80
191.61
191.30
190.95
190.79
190.25
188.26
183.48
174.44
159.70
138.00
108.86
72.98
32.66
-8.54
-46.73
-78.76
-103.18
-120.45
-132.46
-141.51
-149.48
-157.28
-164.89
-171.72
-176.88
-179.50
-178.79
-174.20
-165.69
-153.97
-140.56
-127.31
-115.81
-106.74
-99.50
-92.44
-83.56
-71.36
-55.55
-37.18
-18.29
-1.04
13.15
24.03
32.49
39.96
47.75
56.41
65.77
75.10
83.66
90.92
96.74
101.10
104.05
105.54
105.50
103.94
100.99
96.86
91.74
85.81
79.19
72.03
64.50
56.79
49.05
41.36
33.72
26.05
18.27
10.30
2.09
-6.37
-14.99
-23.44
-31.02
-36.68
-39.14
-37.35
-30.86
-20.08
-6.27
8.87
23.73
37.16
48.72
58.53
67.06
74.85
82.31
89.67
96.93
103.94
110.50
116.44
121.77
126.80
132.01
137.91
144.83
152.72
161.22
169.83
178.15
186.10
193.88
201.78
209.84
217.61
224.26
228.94
231.23
231.28
229.52
225.98
219.80
209.25
192.38
167.85
135.68
97.15
54.09
8.24
-39.14
-86.73
-132.52
-173.59
-206.77
-229.97
-243.44
-250.12
-254.69
-261.71
-273.70
-290.08
-307.38
-320.65
-325.37
-319.15
-302.46
-278.22
-250.57
-223.16
-198.12
-175.57
-154.36
-132.94
-110.12
-85.22
-57.75
-27.29
6.31
42.36
78.73
112.08
138.76
156.18
163.82
163.42
158.27
151.95
147.15
145.10
145.65
147.71
150.01
151.59
152.14
152.12
152.63
155.11
161.03
171.43
186.46
204.90
224.05
240.11
249.14
248.32
236.89
216.21
189.05
158.21
125.48
91.30
55.23
17.00
-22.64
-61.60
-97.05
-126.46
-148.83
-165.28
-178.94
-193.78
-212.85
-236.55
-261.92
-283.38
-294.81
-292.18
-275.51
-249.18
-220.56
-197.43
-185.42
-186.40
-198.35
-216.40
-234.67
-247.87
-252.48
-247.24
-233.07
-212.52
-189.11
-166.43
-147.52
-134.41
-128.08
-128.56
-134.94
-145.24
-156.49
-165.02
-167.40
-161.51
-147.32
-126.71
-102.23
-75.45
-45.76
-10.78
31.70
81.38
134.11
182.45
218.26
235.88
234.35
217.65
192.97
167.91
147.98
135.39
129.14
126.40
123.94
119.49
112.34
103.35
94.50
88.17
86.35
90.03
98.82
111.09
124.06
134.42
139.04
135.78
124.21
105.91
84.17
63.17
46.68
36.85
33.65
34.92
37.37
37.84
34.49
27.28
17.73
8.07
0.12
-5.39
-8.91
-11.52
-14.11
-16.87
-19.28
-20.65
-20.67
-19.70
-18.60
-18.09
-18.26
-18.31
-16.96
-12.92
-5.64
4.48
16.12
27.58
37.41
44.97
50.78
56.40
63.88
74.98
90.22
108.44
126.86
141.97
150.58
150.95
143.08
128.47
109.48
88.62
68.17
49.71
34.11
21.30
10.48
0.53
-9.39
-19.36
-28.72
-36.64
-42.96
-48.46
-54.56
-62.38
-71.87
-81.62
-89.54
-94.03
-94.81
-93.08
-90.95
-90.57
-93.31
-99.51
-108.52
-118.92
-128.88
-136.51
-140.34
-139.85
-135.83
-130.31
-125.84
-124.68
-127.86
-134.98
-144.51
-154.53
-163.22
-169.05
-170.59
-166.26
-154.43
-134.05
-105.40
-70.61
-33.48
1.59
30.87
52.32
65.82
72.72
74.96
74.48
72.97
72.09
73.51
78.75
88.68
103.00
120.18
137.84
153.60
165.82
174.06
178.90
181.47
182.73
183.07
182.17
179.21
173.26
163.78
150.77
134.84
116.93
98.09
79.06
60.45
42.68
26.22
11.57
-0.85
-10.91
-18.91
-25.52
-31.54
-37.62
-44.05
-50.63
-56.92
-62.45
-66.93
-70.53
-73.77
-77.36
-81.92
-87.57
-93.82
-99.72
-104.24
-106.89
-108.07
-109.13
-111.94
-118.34
-129.34
-144.86
-163.39
-182.56
-199.34
-210.92
-215.34
-211.87
-201.19
-185.04
-165.83
-145.99
-127.78
-112.92
-102.80
-98.47
-100.84
-110.89
-129.73
-158.70
-198.61
-248.73
-305.44
-361.95
-409.45
-439.64
-447.62
-433.70
-403.12
-363.71
-323.02
-286.00
-254.57
-228.60
-207.52
-191.38
-180.64
-175.49
-175.01
-177.23
-179.71
-180.63
-179.36
-176.38
-172.71
-169.10
-165.43
-160.69
-153.41
-142.30
-126.90
-107.69
-85.83
-62.72
-39.38
-16.23
6.91
30.35
54.23
78.21
101.53
123.32
142.96
160.29
175.68
189.75
203.04
215.82
228.08
239.66
250.58
261.13
271.94
283.90
298.01
315.26
336.22
360.67
387.16
412.97
434.63
448.95
454.16
450.55
440.32
426.64
412.49
399.78
389.19
380.57
373.48
367.42
361.79
355.52
347.12
334.98
317.96
295.92
269.72
241.02
211.75
183.62
157.77
134.61
113.81
94.42
75.12
54.59
32.00
7.32
-18.61
-44.32
-68.12
-88.50
-104.34
-114.99
-120.09
-119.55
-113.60
-102.93
-88.76
-72.78
-56.81
-42.43
-30.60
-21.58
-15.06
-10.49
-7.45
-5.85
-5.98
-8.29
-13.08
-20.13
-28.60
-37.19
-44.69
-50.51
-54.94
-58.88
-63.05
-67.24
-69.87
-68.51
-61.06
-46.94
-27.81
-7.12
10.96
22.96
27.02
23.10
12.64
-1.86
-17.38
-30.75
-39.12
-40.76
-35.47
-24.67
-10.77
3.84
17.79
31.08
44.77
60.07
77.29
95.25
111.43
122.52
125.52
118.55
101.46
75.86
44.68
11.41
-20.70
-49.18
-72.62
-90.50
-102.90
-110.26
-113.17
-112.34
-108.61
-102.91
-96.29
-89.73
-83.99
-79.41
-75.79
-72.49
-68.80
-64.47
-60.02
-56.72
-56.02
-58.79
-64.72
-72.28
-79.31
-83.92
-85.18
-83.20
-78.90
-73.43
-67.88
-63.05
-59.23
-55.72
-50.49
-40.45
-22.58
4.38
38.51
74.72
106.31
127.62
136.17
133.36
123.23
110.31
97.63
86.09
75.11
63.91
52.39
41.22
31.14
22.17
13.44
3.51
-8.83
-23.97
-41.25
-59.25
-76.47
-91.87
-105.12
-116.35
-125.67
-132.67
-136.23
-134.75
-126.77
-111.56
-89.45
-61.96
-31.39
-0.34
28.73
53.98
74.25
89.14
98.86
104.06
105.53
104.05
100.29
94.82
88.25
81.29
74.68
68.94
64.11
59.68
54.89
49.07
42.10
34.56
27.56
22.29
19.56
19.44
21.21
23.69
25.55
25.78
23.89
20.01
14.80
9.41
5.15
3.17
4.14
7.97
13.87
20.68
27.29
33.05
37.87
41.98
45.60
48.71
51.07
52.46
52.93
52.82
52.56
52.42
52.27
51.71
50.31
47.89
44.65
41.08
37.66
34.65
31.86
28.79
24.73
19.11
11.68
2.64
-7.43
-17.62
-26.86
-33.99
-37.96
-37.98
-33.78
-25.75
-14.97
-2.94
8.81
19.16
27.60
34.23
39.50
43.98
48.13
52.30
56.82
61.91
67.78
74.56
82.29
91.04
100.90
111.86
123.82
136.46
149.39
162.41
175.63
189.42
203.84
218.09
230.07
236.73
235.00
222.96
200.82
170.82
136.53
101.51
68.24
37.68
9.51
-17.28
-43.78
-71.20
-101.07
-135.20
-174.96
-220.01
-267.22
-310.54
-342.46
-356.26
-348.35
-319.29
-273.12
-215.42
-151.35
-84.75
-18.35
45.13
102.34
149.47
183.19
201.89
206.21
198.78
183.15
162.65
139.68
115.35
89.93
63.16
34.82
4.89
-26.28
-57.89
-88.69
-117.09
-141.38
-160.10
-172.53
-178.89
-180.36
-178.58
-174.97
-170.18
-163.87
-155.05
-142.70
-126.46
-107.04
-86.18
-66.21
-49.43
-37.58
-31.46
-30.94
-35.03
-42.14
-50.32
-57.46
-61.68
-61.40
-55.55
-43.73
-26.27
-4.36
19.99
44.10
65.12
80.63
89.21
90.69
85.96
76.55
64.20
50.56
37.21
25.67
17.13
12.13
10.13
9.38
7.27
1.13
-10.83
-28.76
-50.95
-74.14
-94.47
-108.72
-115.57
-116.16
-113.96
-113.48
-118.33
-129.74
-145.91
-162.65
-175.13
-179.89
-176.52
-168.27
-160.96
-160.91
-172.35
-195.72
-227.67
-262.64
-295.14
-321.52
-340.35
-351.60
-355.34
-351.24
-338.96
-319.39
-295.24
-270.60
-249.35
-233.49
-222.32
-213.06
-202.47
-188.21
-169.79
-148.32
-125.65
-103.39
-82.22
-61.73
-40.79
-18.26
6.42
32.97
60.41
87.59
113.70
138.62
162.90
187.50
213.53
241.96
273.31
307.22
342.13
375.19
402.76
421.39
428.99
425.57
413.19
395.09
374.48
353.65
333.74
315.15
298.14
283.05
270.21
259.54
250.31
241.26
231.16
219.35
205.96
191.84
178.11
165.58
154.46
144.34
134.51
124.34
113.62
102.64
92.04
82.49
74.35
67.56
61.71
56.35
51.29
46.80
43.56
42.33
43.60
47.24
52.35
57.43
60.88
61.48
58.89
53.87
48.09
43.59
41.90
43.46
47.34
51.61
54.21
53.96
51.14
47.34
44.65
44.53
46.83
49.71
50.35
46.09
35.52
18.85
-2.44
-26.49
-51.91
-78.09
-104.95
-132.55
-160.91
-190.04
-220.08
-251.21
-283.21
-314.93
-344.27
-368.73
-386.43
-396.88
-401.02
-400.46
-396.45
-389.31
-378.62
-364.14
-346.49
-327.27
-308.16
-289.84
-271.14
-249.50
-222.23
-188.18
-148.76
-107.92
-70.95
-42.53
-24.99
-17.52
-16.50
-16.82
-13.36
-2.31
18.11
47.73
84.72
126.16
168.69
209.01
244.37
272.94
294.07
308.33
317.28
323.08
327.89
333.23
339.58
346.11
350.95
351.81
346.90
335.79
319.73
301.08
282.33
264.95
248.69
231.79
211.90
187.18
157.09
122.47
84.78
45.37
4.81
-36.92
-79.95
-123.80
-167.29
-208.84
-247.02
-280.95
-310.04
-333.64
-350.52
-359.00
-357.62
-346.05
-325.74
-299.86
-272.30
-246.50
-224.47
-206.53
-191.86
-179.45
-168.84
-160.46
-155.39
-154.61
-158.32
-165.61
-174.53
-182.57
-187.40
-187.36
-181.76
-170.84
-155.34
-136.12
-113.77
-88.46
-60.08
-28.64
5.38
40.70
75.22
106.35
131.49
148.74
157.39
158.14
153.02
144.94
137.01
131.86
131.01
134.66
141.72
150.09
156.98
159.21
153.79
138.57
113.20
79.75
42.52
6.92
-22.15
-41.93
-52.39
-55.61
-54.55
-51.73
-48.63
-45.85
-43.48
-41.32
-38.69
-34.13
-25.66
-11.73
7.79
31.23
55.79
78.76
98.51
114.56
126.94
135.39
139.18
137.83
132.04
123.99
116.68
112.55
112.35
114.91
118.07
119.94
120.04
119.30
119.29
121.36
125.96
132.62
140.26
147.73
154.20
159.31
163.09
165.61
166.63
165.36
160.57
151.08
136.34
117.05
95.27
74.05
56.57
45.23
40.96
42.76
47.93
52.64
53.07
46.52
32.39
12.60
-8.89
-27.22
-38.26
-40.04
-33.70
-23.39
-15.18
-15.21
-27.70
-53.41
-89.26
-129.10
-165.52
-192.14
-205.42
-205.46
-195.60
-180.95
-166.63
-156.31
-151.40
-151.23
-153.71
-156.36
-157.30
-155.81
-152.39
-148.46
-145.53
-144.49
-145.01
-145.39
-143.00
-134.93
-118.79
-93.57
-60.42
-23.07
12.44
39.20
51.97
49.89
37.74
24.78
20.84
31.79
56.49
87.13
112.86
124.58
118.27
95.02
58.67
13.13
-38.56
-92.87
-143.92
-183.30
-202.40
-196.50
-167.90
-125.84
-82.93
-49.71
-30.40
-21.97
-16.75
-6.91
11.54
37.57
66.47
92.81
113.00
126.15
133.36
136.19
135.44
131.03
122.84
111.57
99.19
88.30
81.10
78.37
79.12
81.12
81.85
79.51
73.56
64.77
54.71
45.01
36.73
30.06
24.36
18.56
11.69
3.21
-6.83
-17.80
-28.80
-38.72
-46.45
-51.06
-52.00
-49.25
-43.48
-35.84
-27.59
-19.79
-13.09
-7.76
-3.95
-1.93
-2.08
-4.66
-9.48
-15.78
-22.33
-27.87
-31.63
-33.57
-34.31
-34.70
-35.33
-36.22
-36.91
-36.81
-35.72
-34.09
-32.88
-33.24
-36.06
-41.59
-49.32
-57.91
-65.35
-69.25
-67.42
-58.56
-42.84
-22.00
1.03
23.07
41.65
55.54
64.70
69.74
71.37
69.97
65.83
59.36
51.34
42.90
35.10
28.59
23.36
18.92
14.61
9.99
5.11
0.40
-3.61
-6.65
-9.05
-11.66
-15.73
-22.39
-32.23
-44.82
-58.49
-70.43
-77.28
-76.12
-65.59
-46.47
-21.62
4.94
29.42
49.30
63.88
73.76
80.09
83.70
84.87
83.56
79.89
74.52
68.49
62.91
58.43
55.00
51.94
48.36
43.62
37.74
31.40
25.72
21.72
19.87
19.73
20.05
19.10
15.32
8.13
-1.49
-10.79
-15.88
-12.91
0.60
24.63
56.42
91.19
123.47
148.57
163.69
168.35
163.97
153.21
139.14
124.53
111.46
101.15
93.89
89.13
85.73
82.23
77.15
69.35
58.16
43.39
25.29
4.33
-18.86
-43.46
-68.42
-92.55
-114.74
-134.21
-150.69
-164.33
-175.40
-184.09
-190.35
-194.11
-195.53
-195.21
-194.10
-193.20
-193.23
-194.31
-195.91
-197.13
-197.02
-194.97
-190.88
-185.15
-178.57
-172.04
-166.41
-162.24
-159.70
-158.34
-157.07
-154.37
-148.84
-139.80
-127.79
-114.50
-102.28
-93.34
-89.12
-90.04
-95.40
-103.59
-112.13
-117.89
-117.50
-108.25
-89.09
-61.53
-29.67
0.74
24.04
36.61
38.12
31.57
21.96
14.25
11.56
14.41
21.23
29.89
39.19
49.51
62.25
78.52
98.09
119.07
138.63
154.27
164.71
170.19
171.98
171.45
169.49
166.36
162.12
157.35
153.45
152.40
155.57
162.65
171.12
176.95
176.10
166.20
147.24
121.17
90.70
58.27
26.02
-3.63
-27.33
-41.28
-42.74
-31.73
-11.73
11.21
30.75
42.45
44.96
39.57
29.11
16.74
5.28
-3.02
-6.54
-4.66
1.93
11.25
20.61
27.63
31.04
30.77
27.60
22.32
15.44
7.22
-1.90
-11.02
-18.80
-23.89
-25.40
-23.10
-17.47
-9.29
0.59
11.54
23.21
35.41
47.90
60.16
71.23
79.79
84.40
83.95
78.08
67.52
54.05
40.15
28.38
20.60
17.35
17.56
18.90
18.40
13.55
3.15
-12.10
-29.76
-46.43
-58.93
-65.62
-67.19
-66.48
-67.50
-73.69
-86.29
-103.26
-119.41
-127.93
-122.64
-100.48
-62.95
-16.18
30.91
69.29
92.55
98.60
89.55
70.33
46.51
22.65
1.56
-15.33
-27.27
-33.54
-33.62
-27.64
-16.89
-3.84
8.52
17.62
22.25
22.86
21.16
19.23
18.53
19.44
21.27
22.86
23.22
21.94
19.26
15.88
12.64
10.30
9.33
9.83
11.47
13.54
15.22
15.91
15.48
14.35
13.17
12.49
12.36
12.37
11.82
10.07
6.78
2.01
-3.90
-10.44
-17.07
-23.24
-28.48
-32.42
-34.93
-36.05
-36.12
-35.56
-34.83
-34.26
-34.03
-34.19
-34.72
-35.56
-36.53
-37.23
-37.07
-35.36
-31.56
-25.61
-18.04
-9.84
-2.14
4.23
8.91
12.09
14.21
15.79
17.23
18.75
20.52
22.64
25.12
27.75
30.03
31.30
30.90
28.61
24.89
20.97
18.51
18.95
22.75
28.96
35.32
39.10
38.20
32.13
22.21
10.98
0.85
-7.07
-13.57
-20.95
-31.99
-48.76
-71.83
-100.17
-131.35
-161.96
-187.99
-205.39
-210.87
-202.91
-182.66
-154.19
-123.76
-98.20
-82.96
-80.71
-91.05
-111.44
-138.87
-171.16
-207.17
-245.87
-284.85
-319.56
-343.92
-352.31
-341.93
-314.15
-274.06
-228.35
-182.72
-140.13
-100.68
-62.89
-25.23
12.97
51.54
90.06
128.25
165.88
202.12
235.25
262.79
282.22
291.96
291.97
283.79
270.01
253.50
236.65
221.00
207.14
194.90
183.71
172.92
162.02
150.89
139.79
129.23
119.82
112.08
106.18
102.00
98.98
96.46
93.73
90.35
86.18
81.34
76.09
70.58
64.79
58.50
51.39
43.16
33.64
22.88
11.17
-0.95
-12.83
-23.77
-33.19
-40.66
-45.96
-49.06
-50.04
-49.14
-46.72
-43.21
-39.08
-34.71
-30.34
-26.02
-21.65
-17.11
-12.32
-7.30
-2.20
2.77
7.39
11.43
14.64
16.79
17.66
17.18
15.51
13.10
10.64
8.79
7.95
8.14
8.94
9.72
9.89
9.12
7.36
4.75
1.47
-2.36
-6.63
-11.21
-15.84
-20.17
-23.87
-26.73
-28.79
-30.22
-31.29
-32.21
-33.01
-33.63
-33.90
-33.67
-32.81
-31.31
-29.23
-26.74
-24.12
-21.70
-19.78
-18.55
-17.89
-17.48
-16.84
-15.59
-13.55
-10.87
-7.88
-4.96
-2.38
-0.21
1.55
2.92
3.96
4.65
5.06
5.31
5.50
5.71
5.89
5.93
5.71
5.19
4.49
3.77
3.23
2.99
3.08
3.40
3.76
3.90
3.59
2.68
1.13
-0.96
-3.48
-6.26
-9.12
-11.87
-14.28
-16.17
-17.50
-18.44
-19.28
-20.28
-21.38
-22.21
-22.15
-20.62
-17.42
-12.85
-7.59
-2.43
2.01
5.40
7.67
8.90
9.18
8.61
7.34
5.57
3.51
1.37
-0.66
-2.51
-4.09
-5.42
-6.56
-7.58
-8.55
-9.44
-10.19
-10.67
-10.91
-11.12
-11.67
-12.96
-15.18
-18.15
-21.33
-23.97
-25.32
-24.90
-22.56
-18.49
-13.10
-6.93
-0.47
5.82
11.64
16.80
21.28
25.08
28.20
30.58
32.09
32.69
32.48
31.85
31.29
31.28
32.06
33.52
35.13
36.26
36.27
34.85
32.10
28.43
24.41
20.57
17.17
14.27
11.69
9.16
6.40
3.25
-0.20
-3.50
-5.78
-5.84
-2.47
5.11
16.90
32.01
48.81
65.48
80.51
92.99
102.65
109.67
114.33
116.95
117.85
117.49
116.53
115.64
115.35
115.73
116.39
116.58
115.55
112.85
108.46
102.74
96.18
89.16
81.80
73.95
65.29
55.53
44.49
32.30
19.41
6.59
-5.15
-14.82
-21.73
-25.77
-27.42
-27.66
-27.58
-28.04
-29.49
-31.95
-35.21
-39.08
-43.47
-48.38
-53.82
-59.64
-65.53
-71.08
-75.96
-79.96
-83.10
-85.57
-87.57
-89.26
-90.66
-91.70
-92.25
-92.22
-91.64
-90.61
-89.28
-87.80
-86.32
-84.95
-83.80
-82.91
-82.20
-81.39
-80.00
-77.43
-73.14
-66.98
-59.17
-50.43
-41.63
-33.56
-26.62
-20.83
-15.90
-11.51
-7.52
-4.03
-1.25
0.64
1.66
2.11
2.42
3.04
4.29
6.23
8.69
11.28
13.49
14.83
14.95
13.78
11.45
8.35
4.95
1.77
-0.77
-2.35
-2.95
-2.82
-2.48
-2.55
-3.44
-5.04
-6.59
-6.92
-4.93
-0.13
6.97
14.96
22.00
26.45
27.36
24.71
19.22
12.01
4.24
-3.10
-9.26
-13.76
-16.40
-17.26
-16.68
-15.21
-13.45
-11.94
-10.99
-10.68
-10.89
-11.37
-11.81
-11.96
-11.69
-11.02
-10.12
-9.24
-8.63
-8.43
-8.58
-8.95
-9.39
-9.80
-10.19
-10.53
-10.69
-10.41
-9.39
-7.54
-5.01
-2.27
0.12
1.77
2.63
2.92
3.00
3.11
3.25
3.25
2.88
2.06
0.84
-0.59
-2.00
-3.23
-4.16
-4.78
-5.11
-5.22
-5.20
-5.18
-5.27
-5.59
-6.21
-7.10
-8.18
-9.30
-10.35
-11.31
-12.26
-13.35
-14.60
-15.88
-16.81
-16.97
-16.04
-13.99
-11.14
-7.98
-5.04
-2.68
-1.02
0.05
0.73
1.17
1.45
1.52
1.30
0.76
-0.00
-0.82
-1.50
-1.93
-2.13
-2.28
-2.60
-3.25
-4.31
-5.65
-7.11
-8.47
-9.62
-10.53
-11.29
-12.00
-12.78
-13.69
-14.76
-15.99
-17.38
-18.87
-20.27
-21.28
-21.51
-20.68
-18.76
-16.10
-13.30
-11.03
-9.73
-9.49
-10.12
-11.32
-12.86
-14.64
-16.68
-18.91
-21.14
-23.11
-24.50
-25.17
-25.08
-24.39
-23.36
-22.29
-21.49
-21.25
-21.74
-23.03
-25.00
-27.41
-29.90
-32.13
-33.81
-34.85
-35.33
-35.50
-35.69
-36.17
-36.96
-37.80
-38.14
-37.31
-34.62
-29.61
-22.14
-12.38
-0.90
11.53
24.01
35.68
45.89
54.28
60.85
65.85
69.64
72.56
74.71
75.98
76.18
75.15
73.01
70.13
67.04
64.20
61.84
59.90
58.06
55.92
53.17
49.66
45.53
41.03
36.52
32.30
28.54
25.26
22.30
19.40
16.19
12.34
7.67
2.34
-2.91
-6.84
-7.92
-4.90
2.56
13.61
26.31
38.28
47.50
52.96
54.75
53.71
50.86
46.87
42.02
36.28
29.70
22.60
15.54
9.18
4.01
0.17
-2.59
-4.71
-6.70
-8.86
-11.22
-13.55
-15.57
-17.10
-18.27
-19.41
-20.91
-23.06
-25.98
-29.55
-33.68
-38.14
-42.55
-46.25
-48.24
-47.43
-43.05
-35.04
-24.27
-12.28
-0.79
8.90
16.16
21.12
24.27
26.09
26.83
26.51
25.08
22.60
19.40
16.00
12.93
10.63
9.22
8.56
8.28
7.91
7.10
5.69
3.69
1.32
-1.23
-3.82
-6.45
-9.23
-12.37
-16.11
-20.64
-25.99
-31.82
-37.27
-40.97
-41.39
-37.40
-28.85
-16.84
-3.41
9.07
18.72
24.67
27.14
27.03
25.42
23.14
20.62
17.97
15.20
12.35
9.52
6.90
4.71
3.06
1.92
1.07
0.15
-1.23
-3.19
-5.55
-7.89
-9.72
-10.76
-11.13
-11.23
-11.62
-12.82
-15.17
-18.83
-23.76
-29.55
-35.29
-39.46
-40.20
-35.94
-26.08
-11.43
5.84
22.95
37.43
47.88
54.20
57.30
58.40
58.43
57.83
56.62
54.67
51.98
48.69
45.10
41.57
38.54
36.37
35.27
35.03
34.95
34.01
31.17
25.87
18.27
9.19
-0.26
-9.19
-17.25
-24.67
-31.93
-39.52
-47.68
-56.33
-65.06
-73.13
-79.50
-82.89
-82.23
-77.09
-68.12
-57.06
-46.28
-38.01
-33.58
-33.14
-35.82
-40.27
-45.34
-50.42
-55.39
-60.39
-65.36
-69.88
-73.17
-74.32
-72.61
-67.83
-60.35
-50.98
-40.70
-30.18
-19.64
-8.73
3.20
16.69
31.93
48.47
65.29
80.95
93.88
102.74
106.76
106.10
101.87
95.97
90.58
87.47
87.48
90.31
94.73
99.09
101.92
102.32
100.15
95.89
90.41
84.66
79.42
75.18
72.00
69.60
67.39
64.67
60.79
55.36
48.42
40.59
32.98
27.03
24.12
25.12
30.15
38.44
48.60
58.94
68.04
75.18
80.53
85.08
90.01
96.02
102.62
107.95
109.34
104.33
91.83
72.80
49.97
26.75
5.97
-11.11
-24.86
-36.66
-48.08
-60.23
-73.62
-88.31
-104.27
-121.40
-139.39
-157.54
-174.74
-189.67
-201.17
-208.48
-211.48
-210.63
-206.86
-201.44
-195.72
-190.84
-187.45
-185.52
-184.42
-183.08
-180.26
-174.73
-165.32
-150.98
-130.95
-104.99
-73.70
-38.62
-2.06
33.44
65.61
92.95
114.78
131.09
142.34
149.20
152.58
153.57
153.43
153.49
155.04
159.20
166.83
178.51
194.39
213.94
235.66
257.00
274.62
285.06
285.66
275.42
255.32
227.88
196.35
163.62
131.52
100.62
70.50
40.26
9.06
-23.51
-57.17
-91.00
-123.50
-152.97
-177.94
-197.54
-211.68
-220.91
-226.02
-227.69
-226.30
-222.01
-215.14
-206.31
-196.43
-186.43
-176.86
-167.74
-158.72
-149.39
-139.57
-129.32
-118.88
-108.17
-96.74
-83.83
-68.96
-52.57
-36.44
-23.40
-16.48
-17.54
-26.26
-39.94
-54.34
-65.07
-69.14
-65.57
-55.17
-39.56
-20.36
1.27
24.33
47.62
69.50
88.28
102.97
113.67
121.58
128.37
135.40
143.13
151.01
157.86
162.36
163.59
161.06
154.54
143.74
127.90
105.84
76.27
38.54
-6.76
-57.46
-110.06
-160.37
-204.41
-239.03
-262.16
-272.89
-271.47
-259.45
-239.65
-215.93
-192.39
-172.39
-157.66
-147.78
-140.57
-132.89
-121.89
-106.08
-86.01
-64.16
-43.90
-27.78
-15.87
-5.34
8.44
29.68
59.87
97.03
136.74
174.28
206.54
232.37
251.53
263.43
267.12
262.47
251.67
239.33
230.48
227.64
228.62
226.94
214.72
186.52
142.00
86.08
26.69
-28.46
-74.25
-108.98
-133.51
-149.83
-159.75
-164.57
-165.16
-162.54
-158.06
-153.44
-150.28
-149.34
-150.07
-150.58
-148.28
-140.93
-127.77
-110.08
-90.91
-74.10
-62.76
-58.12
-59.18
-63.42
-68.13
-71.85
-74.93
-79.18
-86.58
-97.99
-112.34
-126.95
-138.51
-144.43
-143.68
-136.81
-125.24
-110.24
-92.29
-70.94
-45.40
-15.15
19.87
59.53
104.02
153.70
208.09
264.62
317.81
360.00
383.65
384.19
362.06
322.86
275.40
228.72
189.50
160.82
142.54
132.61
128.42
127.68
128.71
130.37
132.00
133.35
134.58
136.01
137.88
140.04
141.48
140.37
134.36
121.38
100.60
73.02
41.51
9.95
-17.93
-39.70
-54.71
-63.87
-68.83
-71.24
-72.37
-72.96
-73.56
-74.57
-76.21
-78.39
-80.57
-81.96
-81.78
-79.67
-75.94
-71.46
-67.38
-64.66
-63.73
-64.31
-65.55
-66.24
-65.38
-62.39
-57.35
-50.83
-43.74
-36.95
-31.11
-26.56
-23.47
-21.99
-22.44
-25.21
-30.47
-37.84
-46.20
-53.88
-59.09
-60.64
-58.47
-53.71
-48.38
-44.59
-44.01
-47.53
-55.43
-67.50
-83.11
-100.81
-118.05
-131.36
-137.02
-132.25
-116.10
-89.71
-55.46
-15.86
27.57
74.31
123.94
174.66
222.54
262.10
288.17
298.25
293.96
280.64
265.26
253.33
246.72
243.25
238.37
227.83
209.91
186.02
159.52
133.62
109.84
87.50
64.78
40.16
13.60
-13.35
-38.46
-60.02
-77.85
-93.35
-108.76
-126.14
-146.56
-170.09
-196.33
-224.93
-255.65
-287.63
-318.75
-345.46
-363.61
-369.91
-363.22
-344.74
-316.93
-282.17
-241.72
-196.11
-146.29
-94.70
-45.17
-1.67
33.48
60.65
82.42
102.07
121.80
141.90
161.02
177.24
189.18
196.51
199.76
199.63
196.57
190.61
181.59
169.46
154.59
137.86
120.46
103.56
87.94
73.73
60.48
47.48
34.22
20.66
7.26
-5.23
-16.17
-25.27
-32.56
-38.34
-42.97
-46.83
-50.28
-53.80
-57.90
-63.15
-69.93
-78.32
-87.93
-97.95
-107.23
-114.73
-119.88
-122.85
-124.48
-125.87
-127.72
-129.94
-131.65
-131.70
-129.29
-124.46
-117.98
-110.92
-103.90
-96.86
-89.13
-80.05
-69.46
-58.03
-46.90
-37.19
-29.44
-23.38
-18.21
-13.10
-7.75
-2.58
1.41
3.15
2.19
-1.02
-5.15
-8.53
-9.86
-8.71
-5.69
-2.01
1.00
2.48
2.16
0.28
-2.78
-6.70
-11.37
-16.73
-22.64
-28.82
-34.72
-39.62
-42.71
-43.28
-40.98
-35.90
-28.66
-20.21
-11.54
-3.41
3.72
9.69
14.44
17.94
20.10
20.95
20.64
19.51
17.98
16.45
15.22
14.37
13.85
13.48
13.01
12.26
11.24
10.25
9.73
10.08
11.33
12.99
14.20
14.01
11.76
7.47
1.85
-3.91
-8.45
-10.74
-10.33
-7.48
-3.10
1.49
5.01
6.53
5.85
3.44
0.27
-2.65
-4.60
-5.38
-5.23
-4.63
-4.08
-4.00
-4.75
-6.73
-10.29
-15.72
-23.03
-31.79
-41.17
-50.14
-57.69
-63.11
-66.08
-66.67
-65.28
-62.46
-58.81
-54.75
-50.37
-45.32
-38.92
-30.52
-19.81
-7.15
6.40
19.41
30.47
38.64
43.60
45.55
45.05
42.75
39.33
35.48
31.90
29.21
27.81
27.75
28.61
29.65
30.05
29.17
26.84
23.35
19.37
15.57
12.33
9.61
7.01
4.07
0.56
-3.41
-7.43
-10.97
-13.42
-14.08
-12.14
-6.71
2.74
16.15
32.80
51.67
72.17
94.46
119.26
147.07
177.26
207.62
234.61
254.20
262.80
257.99
238.96
206.65
163.64
113.74
61.25
9.99
-37.40
-79.56
-116.03
-146.53
-170.63
-188.05
-199.30
-206.01
-210.64
-215.37
-220.98
-226.29
-228.59
-224.81
-212.82
-192.17
-164.06
-130.67
-94.39
-57.19
-20.58
14.29
46.27
74.31
97.63
116.06
130.24
141.43
150.95
159.55
167.05
172.28
173.42
168.55
156.12
135.33
106.50
71.15
31.96
-7.54
-43.70
-73.62
-95.89
-110.93
-120.63
-127.52
-133.63
-139.67
-144.78
-146.97
-144.02
-134.59
-118.69
-97.83
-74.30
-50.48
-28.12
-8.22
8.55
21.40
29.02
29.75
22.23
6.33
-16.12
-41.40
-64.56
-80.78
-86.65
-80.98
-64.62
-39.53
-7.94
27.78
64.59
98.15
123.07
134.49
130.47
113.96
92.67
76.79
75.12
91.86
125.60
171.05
222.31
275.57
329.67
384.48
438.32
486.66
522.81
540.66
537.55
515.60
480.97
440.98
401.04
362.82
324.74
283.75
237.83
187.45
135.61
86.32
42.82
6.15
-25.09
-53.98
-83.91
-117.46
-156.07
-199.94
-247.89
-296.94
-341.93
-376.10
-392.98
-389.09
-366.07
-330.75
-292.80
-260.90
-239.57
-228.20
-222.71
-218.54
-213.18
-206.85
-201.41
-198.48
-198.25
-199.51
-200.78
-201.39
-202.11
-204.94
-211.97
-224.31
-241.31
-260.59
-278.72
-292.44
-299.68
-300.15
-295.09
-286.48
-276.05
-264.40
-250.83
-233.76
-211.65
-183.88
-151.28
-115.96
-80.42
-46.62
-15.11
14.99
45.31
77.23
111.20
146.68
182.65
218.19
252.69
285.53
315.61
341.22
360.22
370.69
371.44
362.31
344.19
318.93
289.16
258.13
229.06
204.36
184.76
169.18
155.40
141.45
126.99
113.95
106.06
107.55
121.48
148.12
184.24
223.27
256.63
275.99
275.75
255.04
218.19
173.16
128.48
89.89
57.96
28.14
-6.69
-52.24
-109.14
-171.24
-227.09
-263.88
-272.57
-251.85
-209.34
-159.18
-117.20
-95.39
-98.16
-121.73
-156.57
-191.64
-218.22
-231.96
-232.64
-222.55
-204.78
-182.71
-160.28
-142.39
-134.04
-138.38
-154.34
-175.69
-192.40
-194.16
-174.19
-131.61
-71.37
-2.05
67.03
128.21
176.61
210.38
230.43
239.96
243.67
246.58
252.48
262.81
276.48
290.76
302.84
311.15
315.93
318.62
320.56
321.71
320.10
312.41
295.34
267.17
228.66
182.82
133.56
84.02
35.62
-12.11
-60.61
-111.27
-164.61
-220.06
-276.01
-329.92
-378.49
-418.04
-445.32
-458.42
-457.51
-444.62
-422.73
-394.46
-361.05
-322.59
-278.95
-231.18
-182.17
-136.07
-96.78
-66.27
-43.78
-26.52
-11.42
3.20
16.86
27.81
34.87
38.91
42.86
50.15
62.46
78.20
92.94
101.55
101.14
92.83
81.52
73.58
73.84
83.52
99.99
118.50
134.65
146.21
153.62
158.90
164.07
169.91
175.75
180.15
181.85
180.28
175.47
167.42
155.65
139.24
117.34
89.96
58.54
25.91
-4.33
-28.60
-43.97
-48.38
-40.71
-20.97
9.08
45.43
81.91
111.24
127.00
125.60
107.51
76.97
40.54
5.05
-24.17
-44.24
-54.82
-57.62
-55.65
-52.25
-50.15
-50.57
-52.70
-53.92
-50.66
-39.72
-19.74
7.83
38.54
65.61
81.69
81.23
62.55
28.64
-13.88
-57.16
-94.85
-123.69
-143.78
-157.41
-167.54
-176.67
-186.10
-195.87
-204.60
-209.70
-207.88
-196.20
-173.44
-141.03
-102.97
-64.54
-30.52
-3.60
15.99
29.76
39.75
47.61
54.19
59.75
64.40
68.39
72.07
75.53
78.46
80.07
79.46
75.93
69.35
60.17
49.27
37.57
25.81
14.40
3.39
-7.18
-17.10
-25.77
-32.29
-35.76
-35.66
-32.24
-26.47
-19.84
-13.79
-9.27
-6.51
-5.20
-4.79
-4.88
-5.41
-6.56
-8.54
-11.39
-14.84
-18.48
-21.91
-24.97
-27.77
-30.64
-33.92
-37.84
-42.51
-48.00
-54.42
-61.96
-70.73
-80.24
-89.00
-94.33
-92.73
-81.04
-57.97
-24.92
13.94
52.79
86.15
110.45
124.49
128.70
123.96
111.30
92.40
70.41
49.82
35.04
28.34
28.48
31.41
32.53
29.34
22.68
15.80
12.06
12.81
16.71
20.77
22.09
19.18
12.21
2.57
-7.78
-16.62
-21.69
-21.47
-15.54
-4.95
7.94
20.36
30.04
35.72
37.09
34.43
28.30
19.55
9.44
-0.30
-7.89
-11.92
-11.79
-7.81
-1.03
7.19
15.41
22.34
26.93
28.61
27.39
23.88
19.01
13.82
9.04
5.08
2.03
-0.24
-2.05
-3.85
-6.22
-9.73
-14.65
-20.77
-27.25
-32.89
-36.42
-37.00
-34.53
-29.78
-24.31
-19.98
-18.37
-20.13
-24.69
-30.28
-34.49
-35.08
-30.71
-21.43
-8.64
5.51
18.82
29.76
37.80
43.20
46.63
48.60
49.24
48.51
46.55
44.05
42.07
41.44
41.92
41.77
37.93
27.10
7.31
-20.90
-54.03
-86.39
-111.77
-125.21
-124.46
-110.39
-86.50
-57.91
-30.03
-7.49
6.62
11.23
7.48
-1.47
-11.20
-17.24
-16.78
-9.93
-0.00
7.55
7.37
-3.36
-23.36
-47.46
-68.58
-80.71
-81.36
-72.51
-59.74
-50.01
-49.30
-60.81
-84.14
-115.39
-148.05
-174.26
-186.44
-179.16
-150.89
-104.95
-49.16
6.26
51.74
81.38
94.58
95.49
90.58
85.73
84.05
85.37
87.46
87.86
85.28
79.92
72.71
64.29
54.58
42.99
29.09
13.14
-3.76
-19.85
-33.22
-42.22
-45.85
-44.10
-38.08
-29.78
-21.61
-15.59
-12.79
-13.04
-15.20
-17.64
-18.77
-17.47
-13.19
-5.99
3.39
13.59
22.61
28.01
27.54
20.18
7.24
-7.35
-18.00
-19.60
-9.92
9.11
32.11
52.60
65.80
70.32
68.10
62.70
57.63
55.19
56.53
62.04
71.53
83.74
95.83
103.62
102.81
90.83
68.20
38.79
8.64
-15.89
-30.18
-32.51
-24.40
-9.83
5.98
18.00
22.71
18.85
7.67
-7.46
-21.88
-30.87
-30.76
-19.90
0.99
29.02
59.94
89.10
112.38
126.88
131.33
126.19
113.58
96.82
79.58
64.91
54.44
48.21
45.08
43.73
43.46
44.38
46.95
51.12
55.72
58.54
57.09
49.73
36.74
20.53
5.02
-5.67
-8.68
-3.48
7.99
22.02
34.39
41.63
41.82
34.62
20.85
1.94
-20.48
-44.62
-68.53
-90.13
-107.51
-119.38
-125.36
-126.02
-122.59
-116.60
-109.46
-102.16
-95.33
-89.30
-84.28
-80.44
-77.89
-76.64
-76.48
-77.03
-77.86
-78.61
-79.10
-79.35
-79.48
-79.62
-79.89
-80.33
-80.93
-81.57
-82.05
-82.12
-81.45
-79.77
-76.84
-72.51
-66.69
-59.23
-49.91
-38.30
-23.96
-6.72
12.94
33.69
53.33
69.39
79.81
83.87
82.55
78.39
74.74
74.56
79.50
89.34
102.14
114.92
124.52
128.56
125.99
117.30
104.19
89.13
74.69
63.00
55.50
52.93
55.37
62.39
73.10
86.14
99.86
112.64
123.57
132.97
142.22
152.99
165.94
179.63
190.49
194.01
186.72
167.83
139.79
107.19
74.87
45.93
20.91
-1.79
-24.66
-50.00
-79.47
-114.34
-155.63
-203.55
-256.29
-309.04
-354.23
-383.31
-389.69
-371.27
-331.29
-276.93
-216.39
-155.81
-97.79
-41.84
13.70
69.63
124.97
177.49
224.71
264.75
296.26
318.02
328.58
326.62
311.89
286.03
252.58
216.11
180.51
147.77
117.44
87.34
54.68
17.46
-24.71
-70.19
-115.55
-156.32
-188.38
-209.36
-219.62
-222.16
-221.49
-221.74
-225.15
-231.48
-238.66
-244.21
-246.49
-245.36
-241.81
-237.17
-232.35
-227.60
-222.79
-217.84
-213.04
-208.83
-205.17
-200.78
-192.95
-178.05
-152.75
-115.51
-67.53
-12.81
42.76
93.01
133.27
161.51
178.64
187.91
193.49
199.02
206.66
216.73
228.05
238.59
245.99
247.94
242.23
227.07
201.54
166.15
123.32
77.11
32.44
-6.23
-36.04
-56.58
-69.85
-79.67
-90.51
-106.08
-128.23
-156.23
-187.12
-216.60
-240.45
-255.83
-261.80
-259.23
-249.95
-235.82
-218.14
-197.76
-175.38
-152.07
-129.35
-108.83
-91.58
-77.65
-66.05
-55.35
-44.40
-32.95
-21.70
-11.82
-4.24
0.98
4.69
8.32
13.14
19.80
28.13
37.33
46.52
55.10
62.96
70.24
77.13
83.50
88.90
92.68
94.37
93.87
91.46
87.71
83.14
78.13
72.80
67.23
61.66
56.61
53.02
51.98
54.43
60.66
70.00
80.77
90.61
97.11
98.62
94.79
86.67
76.21
65.39
55.43
46.44
37.73
28.47
18.25
7.34
-3.62
-13.98
-23.28
-31.02
-36.35
-37.98
-34.60
-25.68
-12.15
3.50
17.95
28.23
32.71
31.53
26.26
19.03
11.72
5.43
0.38
-3.82
-7.85
-12.30
-17.54
-23.67
-30.55
-37.86
-45.19
-52.05
-57.81
-61.66
-62.74
-60.25
-53.88
-44.05
-32.08
-19.87
-9.36
-1.86
2.38
4.16
4.97
6.36
9.38
14.35
20.90
28.19
35.21
41.07
45.20
47.51
48.40
48.56
48.70
49.26
50.30
51.54
52.64
53.39
53.87
54.29
54.74
55.02
54.62
52.95
49.59
44.56
38.30
31.61
25.43
20.61
17.72
17.03
18.32
20.99
24.11
26.75
28.20
28.27
27.21
25.50
23.49
21.22
18.41
14.77
10.28
5.30
0.57
-3.25
-5.80
-7.22
-7.97
-8.66
-9.79
-11.63
-14.21
-17.41
-21.01
-24.75
-28.34
-31.47
-33.95
-35.68
-36.69
-37.03
-36.67
-35.49
-33.32
-30.12
-26.05
-21.56
-17.23
-13.60
-11.01
-9.60
-9.38
-10.43
-12.81
-16.32
-20.13
-22.77
-22.53
-18.29
-10.28
-0.22
9.37
16.37
20.17
21.84
23.48
26.86
32.43
39.18
45.32
49.40
50.89
50.27
48.32
45.61
42.38
38.77
35.24
32.64
31.84
33.21
36.17
39.36
41.09
39.97
35.34
27.31
16.59
4.23
-8.68
-21.07
-32.11
-41.23
-48.11
-52.48
-53.94
-51.82
-45.32
-33.96
-17.84
2.01
23.87
45.59
65.10
80.61
90.71
94.33
90.94
80.95
66.15
49.75
35.69
27.42
26.39
31.27
38.19
42.29
39.75
29.44
13.37
-4.26
-18.92
-27.55
-29.50
-26.29
-20.63
-15.18
-11.73
-10.96
-12.68
-16.31
-21.21
-26.88
-32.90
-38.82
-44.10
-48.08
-50.26
-50.49
-49.14
-47.05
-45.28
-44.65
-45.47
-47.40
-49.72
-51.65
-52.71
-52.88
-52.49
-51.94
-51.48
-51.05
-50.41
-49.28
-47.45
-44.99
-42.17
-39.45
-37.36
-36.40
-36.86
-38.77
-41.80
-45.38
-48.83
-51.67
-53.72
-55.13
-56.27
-57.44
-58.72
-59.91
-60.75
-61.07
-60.95
-60.84
-61.20
-62.38
-64.27
-66.29
-67.58
-67.37
-65.31
-61.76
-57.67
-54.30
-52.72
-53.48
-56.45
-61.02
-66.41
-71.90
-76.98
-81.24
-84.27
-85.70
-85.29
-83.27
-80.32
-77.40
-75.14
-73.37
-70.94
-66.21
-57.97
-46.42
-33.39
-21.70
-13.79
-10.39
-9.98
-9.45
-5.69
2.84
15.26
28.73
39.82
46.13
47.28
44.84
41.49
39.70
40.85
44.93
51.02
57.95
64.89
71.62
78.34
85.29
92.45
99.33
105.16
109.16
110.99
110.91
109.75
108.48
107.82
107.79
107.63
106.01
101.61
93.73
82.75
70.17
58.12
48.67
43.15
41.75
43.69
47.69
52.54
57.53
62.56
67.85
73.54
79.40
84.82
88.98
91.29
91.49
89.73
86.36
81.72
76.13
69.99
63.92
58.68
54.99
53.17
52.95
53.52
53.89
53.36
51.74
49.34
46.60
43.79
40.82
37.41
33.39
28.93
24.41
20.27
16.61
13.20
9.64
5.82
2.20
-0.21
-0.25
2.72
8.33
15.33
22.06
27.14
29.79
29.82
27.27
22.21
14.81
5.60
-4.38
-13.90
-22.20
-29.59
-37.60
-48.31
-63.28
-82.57
-104.55
-126.39
-145.17
-158.64
-165.47
-164.90
-156.27
-138.93
-112.59
-77.98
-37.33
5.59
46.32
80.86
106.88
124.41
135.65
144.02
152.70
163.26
174.91
184.67
188.42
182.47
165.00
136.73
100.86
62.19
25.86
-3.76
-23.80
-33.23
-32.82
-24.84
-12.45
0.85
11.99
18.82
20.43
17.18
10.30
1.39
-8.05
-17.12
-25.55
-33.65
-41.91
-50.70
-59.96
-69.35
-78.46
-87.02
-95.04
-102.62
-109.66
-115.65
-119.72
-121.13
-119.73
-116.36
-112.73
-110.78
-111.94
-116.40
-122.91
-129.05
-131.93
-129.04
-118.90
-101.46
-78.08
-51.24
-23.99
0.66
20.33
33.60
40.14
40.48
35.77
27.48
17.32
7.11
-1.39
-6.83
-8.67
-7.29
-3.89
-0.01
3.12
5.05
6.16
7.43
9.82
13.79
19.09
24.87
30.07
33.85
35.91
36.62
36.88
37.75
40.02
43.87
48.56
52.52
53.71
50.26
41.08
26.42
7.73
-12.82
-33.16
-52.07
-69.33
-85.35
-100.45
-114.26
-125.62
-133.08
-135.65
-133.36
-127.45
-119.85
-112.56
-106.90
-103.36
-101.62
-101.08
-101.13
-101.34
-101.37
-100.76
-99.00
-95.57
-90.12
-82.22
-71.17
-55.86
-35.13
-8.87
20.88
49.44
70.73
79.71
75.24
61.47
46.78
40.77
50.72
79.38
124.79
181.68
243.05
301.31
348.96
379.56
389.37
379.02
353.96
322.88
294.40
273.71
260.89
252.05
242.18
228.03
209.29
187.69
164.91
140.96
114.10
82.25
44.86
4.03
-35.63
-68.49
-90.01
-98.28
-94.72
-83.32
-69.12
-56.49
-47.84
-43.33
-41.52
-40.46
-38.65
-35.47
-31.04
-25.77
-19.98
-13.90
-7.86
-2.59
0.77
1.06
-2.38
-9.32
-18.69
-28.98
-38.83
-47.38
-54.56
-60.79
-66.72
-72.83
-79.22
-85.57
-91.29
-95.83
-98.91
-100.76
-101.91
-103.01
-104.42
-105.98
-106.99
-106.55
-104.13
-99.94
-95.07
-91.08
-89.23
-89.87
-92.07
-93.85
-92.79
-86.75
-74.33
-55.21
-30.21
-1.43
27.92
54.14
73.92
85.40
88.67
85.42
78.00
68.40
57.63
46.08
34.17
22.83
13.42
7.01
3.74
2.50
1.53
-0.79
-5.12
-11.04
-17.47
-23.43
-28.58
-33.37
-38.80
-45.81
-54.77
-65.28
-76.19
-86.17
-94.19
-99.88
-103.60
-106.16
-108.36
-110.74
-113.37
-115.97
-118.05
-119.01
-118.17
-114.94
-108.83
-99.71
-87.82
-73.78
-58.36
-42.38
-26.55
-11.59
1.69
12.37
19.54
22.54
21.34
16.70
10.17
3.62
-1.23
-3.44
-3.07
-1.13
0.88
1.54
0.01
-3.70
-8.90
-14.54
-19.58
-23.18
-24.75
-23.86
-20.30
-14.19
-5.98
3.46
13.10
21.96
29.39
35.14
39.33
42.24
44.15
45.34
46.04
46.59
47.30
48.40
49.98
51.91
54.05
56.42
59.36
63.44
69.29
77.22
87.15
98.40
109.76
119.54
125.80
126.66
120.94
108.67
91.34
71.49
51.94
34.74
20.60
8.89
-1.56
-11.62
-21.35
-30.11
-37.16
-42.23
-45.77
-48.65
-51.68
-55.30
-59.38
-63.51
-67.26
-70.45
-73.19
-75.88
-79.09
-83.39
-89.09
-95.92
-102.75
-107.66
-108.30
-102.63
-89.57
-69.61
-44.83
-18.60
5.10
22.62
31.44
30.77
21.78
7.22
-9.29
-24.36
-35.75
-42.79
-46.04
-46.50
-44.78
-40.89
-34.58
-26.11
-16.79
-8.75
-4.19
-4.40
-9.26
-17.45
-27.11
-36.58
-44.52
-49.67
-50.50
-45.32
-33.06
-14.19
8.73
31.55
49.66
59.52
59.68
51.07
36.60
20.30
6.45
-1.30
-0.72
8.33
23.76
41.66
57.56
67.87
71.16
68.57
63.12
58.44
57.33
60.91
68.49
78.20
87.82
95.63
100.86
103.78
105.43
107.12
110.04
114.94
122.14
131.66
143.30
156.62
170.72
184.11
194.70
200.14
198.37
188.16
169.48
143.51
112.42
78.95
46.09
16.70
-6.89
-23.13
-31.56
-32.86
-28.53
-20.50
-10.70
-0.84
7.57
13.02
14.08
9.62
-0.61
-15.73
-33.70
-51.85
-67.70
-79.65
-87.38
-91.59
-93.60
-94.74
-96.09
-98.29
-101.67
-106.32
-112.14
-118.82
-125.85
-132.56
-138.24
-142.28
-144.32
-144.44
-143.07
-140.89
-138.54
-136.23
-133.72
-130.34
-125.45
-118.86
-111.13
-103.51
-97.55
-94.60
-95.39
-99.92
-107.43
-116.65
-125.96
-133.70
-138.39
-139.14
-135.76
-128.68
-118.72
-106.71
-93.23
-78.73
-63.76
-49.18
-36.24
-26.32
-20.52
-19.44
-22.84
-29.79
-38.56
-46.68
-51.06
-48.50
-36.52
-14.42
16.15
51.37
86.37
116.80
140.10
155.93
165.55
170.72
172.73
172.07
168.81
163.29
156.44
149.65
144.06
140.03
136.92
133.44
128.37
121.21
112.57
103.98
97.35
94.27
95.43
100.41
107.91
116.13
123.45
128.68
131.28
131.27
129.13
125.71
122.06
119.34
118.48
119.92
123.30
127.52
131.03
132.38
130.69
125.92
118.82
110.55
102.27
94.62
87.66
80.96
73.98
66.50
58.76
51.41
45.16
40.41
37.12
34.87
33.02
30.77
27.02
20.34
9.04
-8.15
-31.44
-59.37
-88.96
-116.54
-138.94
-154.51
-163.39
-167.08
-167.55
-166.42
-164.64
-162.67
-160.76
-159.19
-158.06
-157.08
-155.53
-152.45
-147.24
-140.10
-132.19
-125.19
-120.59
-118.95
-119.57
-120.74
-120.35
-116.77
-109.30
-98.40
-85.36
-71.87
-59.45
-49.12
-41.25
-35.54
-31.26
-27.47
-23.39
-18.59
-13.13
-7.42
-2.00
2.73
6.63
9.77
12.22
13.86
14.33
13.22
10.31
5.80
0.24
-5.62
-11.21
-16.20
-20.47
-23.92
-26.33
-27.34
-26.67
-24.38
-20.90
-17.02
-13.61
-11.30
-10.33
-10.50
-11.28
-12.04
-12.22
-11.44
-9.60
-6.79
-3.23
0.82
5.11
9.46
13.69
17.60
20.93
23.45
25.02
25.67
25.58
25.00
24.15
23.12
21.89
20.37
18.49
16.28
13.97
12.01
11.00
11.47
13.71
17.48
22.11
26.61
30.10
32.03
32.41
31.64
30.25
28.66
27.05
25.41
23.64
21.70
19.65
17.57
15.60
13.82
12.25
10.81
9.33
7.63
5.63
3.45
1.31
-0.47
-1.67
-2.25
-2.40
-2.48
-2.91
-4.12
-6.43
-10.03
-14.80
-20.20
-25.26
-28.82
-29.96
-28.44
-24.88
-20.61
-17.08
-15.31
-15.57
-17.44
-20.23
-23.41
-26.88
-30.87
-35.68
-41.40
-47.87
-54.69
-61.52
-68.05
-74.10
-79.57
-84.42
-88.81
-92.99
-97.21
-101.38
-104.78
-106.08
-103.66
-96.22
-83.39
-66.10
-46.46
-27.21
-11.01
0.27
6.08
7.53
7.32
9.42
18.09
36.80
66.91
107.10
153.58
201.20
244.97
281.35
308.81
327.53
338.72
343.85
344.22
340.81
334.35
325.33
314.08
300.77
285.50
268.28
248.91
226.77
200.76
169.51
132.06
88.59
40.85
-8.09
-54.66
-95.97
-130.60
-158.77
-181.84
-201.33
-218.25
-232.80
-244.61
-253.08
-257.71
-258.19
-254.45
-246.60
-235.01
-220.39
-203.75
-186.12
-168.28
-150.51
-132.63
-114.31
-95.42
-76.33
-57.87
-41.08
-26.80
-15.39
-6.66
0.04
5.48
10.30
14.83
19.14
23.09
26.61
29.64
32.22
34.40
36.20
37.61
38.70
39.57
40.32
41.00
41.50
41.75
41.82
42.06
42.94
44.87
47.84
51.37
54.75
57.30
58.73
59.21
59.16
58.91
58.45
57.39
55.14
51.26
45.69
38.90
31.72
25.09
19.73
15.91
13.47
11.89
10.65
9.49
8.47
7.96
8.27
9.40
10.99
12.35
12.78
11.85
9.53
6.36
3.42
2.21
4.34
11.01
22.52
37.84
54.61
69.65
79.80
82.84
78.06
66.32
49.57
30.19
10.37
-8.28
-24.79
-38.79
-50.30
-59.65
-67.30
-73.67
-79.12
-83.91
-88.21
-92.15
-95.87
-99.55
-103.35
-107.37
-111.65
-116.14
-120.73
-125.31
-129.82
-134.40
-139.36
-145.16
-151.99
-159.49
-166.38
-170.63
-169.85
-161.99
-145.89
-121.54
-90.11
-53.69
-14.97
23.08
57.61
86.31
107.74
121.53
128.18
128.80
124.78
117.61
108.91
100.34
93.47
89.50
88.92
91.46
96.31
102.48
109.17
115.88
122.34
128.38
133.78
138.35
142.01
144.79
146.81
148.08
148.44
147.56
145.18
141.47
137.32
134.45
134.95
140.65
152.31
169.24
189.47
210.47
230.00
246.71
260.21
270.62
278.01
282.14
282.52
278.82
271.14
260.00
245.95
229.22
209.57
186.54
159.98
130.42
99.12
67.73
37.71
9.82
-16.07
-40.86
-65.99
-93.03
-123.31
-157.40
-194.57
-232.60
-268.04
-297.04
-316.42
-324.60
-321.97
-310.49
-292.93
-272.03
-249.99
-228.27
-207.78
-188.96
-171.97
-156.76
-143.29
-131.68
-122.21
-115.23
-110.76
-108.30
-106.93
-105.55
-103.26
-99.60
-94.44
-87.79
-79.68
-70.28
-60.15
-50.42
-42.59
-37.90
-36.77
-38.42
-41.14
-43.05
-42.83
-40.22
-35.80
-30.48
-24.92
-19.30
-13.51
-7.49
-1.58
3.51
7.07
8.69
8.52
7.15
5.41
3.97
3.18
3.05
3.43
4.24
5.46
7.16
9.25
11.38
13.02
13.62
12.91
11.00
8.30
5.24
1.98
-1.80
-6.65
-13.04
-20.95
-29.69
-37.99
-44.49
-48.24
-48.99
-47.31
-44.29
-41.12
-38.71
-37.48
-37.32
-37.76
-38.11
-37.69
-36.04
-33.01
-28.87
-24.17
-19.60
-15.75
-12.99
-11.44
-11.02
-11.55
-12.71
-14.11
-15.26
-15.81
-15.60
-14.83
-13.83
-12.78
-11.43
-9.04
-4.62
2.54
12.46
24.28
36.51
47.44
55.77
60.91
63.10
63.23
62.42
61.67
61.52
62.02
62.75
63.07
62.27
59.73
54.96
47.57
37.40
24.76
10.66
-3.17
-14.60
-21.88
-24.29
-22.60
-18.77
-15.21
-13.81
-15.28
-19.13
-24.04
-28.46
-31.12
-31.29
-28.85
-24.39
-19.07
-14.40
-11.76
-11.92
-14.67
-18.95
-23.29
-26.48
-27.95
-27.79
-26.40
-24.02
-20.65
-16.04
-10.16
-3.50
2.88
7.50
9.06
7.03
1.90
-4.84
-11.28
-15.82
-17.86
-18.07
-18.06
-19.53
-23.45
-29.51
-36.33
-42.14
-45.70
-46.91
-46.74
-46.74
-48.17
-51.43
-56.02
-60.81
-64.61
-66.49
-65.92
-62.67
-56.78
-48.61
-38.84
-28.46
-18.39
-9.11
-0.21
9.56
21.82
37.78
57.42
79.18
100.35
118.17
130.96
138.81
143.37
146.93
151.10
156.04
160.42
162.18
159.50
151.65
139.03
122.92
104.95
86.82
70.13
56.26
46.19
40.25
37.95
38.16
39.52
40.86
41.37
40.50
37.84
33.10
26.36
18.33
10.38
4.12
0.73
0.35
2.00
3.98
4.75
3.52
0.49
-3.58
-8.04
-12.87
-18.73
-26.44
-36.33
-47.78
-59.23
-68.77
-74.89
-77.00
-75.64
-72.10
-67.88
-64.13
-61.43
-59.88
-59.20
-58.99
-58.71
-57.69
-55.25
-50.90
-44.56
-36.72
-28.33
-20.58
-14.56
-10.94
-9.87
-11.01
-13.65
-17.01
-20.40
-23.37
-25.71
-27.41
-28.51
-29.10
-29.27
-29.29
-29.54
-30.45
-32.37
-35.34
-39.07
-42.99
-46.48
-49.00
-50.28
-50.19
-48.74
-45.96
-42.00
-37.13
-31.79
-26.50
-21.62
-17.39
-13.71
-10.40
-7.30
-4.37
-1.65
0.84
3.25
5.95
9.36
13.74
18.97
24.49
29.44
33.03
34.76
34.62
33.06
30.71
28.22
25.98
24.02
22.15
20.08
17.66
14.94
12.19
9.73
7.78
6.38
5.37
4.56
3.79
3.03
2.37
1.93
1.80
2.03
2.54
3.16
3.64
3.68
3.04
1.60
-0.51
-2.98
-5.30
-6.88
-7.22
-6.01
-3.30
0.46
4.40
7.45
8.68
7.67
4.74
0.78
-3.12
-6.13
-7.98
-8.83
-8.95
-8.41
-7.01
-4.51
-0.99
3.01
6.57
8.87
9.56
8.94
7.81
7.05
7.22
8.37
10.12
11.84
12.90
12.83
11.46
8.93
5.72
2.52
0.11
-0.77
0.28
3.22
7.44
11.92
15.51
17.35
17.14
15.28
12.57
9.83
7.50
5.53
3.46
0.96
-1.98
-4.89
-7.11
-8.26
-8.47
-8.34
-8.61
-9.74
-11.66
-13.90
-15.87
-17.16
-17.62
-17.32
-16.34
-14.71
-12.55
-10.19
-8.25
-7.40
-8.07
-10.13
-12.89
-15.38
-16.79
-16.73
-15.29
-12.87
-9.86
-6.44
-2.49
2.31
8.44
16.43
26.81
39.79
54.94
70.83
85.07
94.72
97.24
91.48
78.18
59.82
39.81
21.38
6.58
-3.96
-10.89
-15.46
-18.96
-22.33
-26.14
-30.65
-35.91
-41.72
-47.60
-52.79
-56.39
-57.70
-56.40
-52.76
-47.50
-41.61
-35.94
-30.97
-26.71
-22.72
-18.40
-13.28
-7.27
-0.74
5.59
10.89
14.56
16.41
16.71
16.05
15.02
14.06
13.30
12.68
12.04
11.30
10.46
9.59
8.77
8.03
7.42
6.98
6.75
6.74
6.86
6.95
6.78
6.15
5.03
3.56
2.08
0.88
0.14
-0.23
-0.54
-1.25
-2.73
-5.18
-8.47
-12.17
-15.60
-18.03
-18.89
-17.91
-15.21
-11.21
-6.53
-1.79
2.49
5.91
8.23
9.36
9.47
8.92
8.28
8.04
8.40
9.19
9.88
9.86
8.70
6.29
2.88
-1.08
-4.98
-8.21
-10.25
-10.75
-9.75
-7.59
-4.91
-2.39
-0.51
0.60
1.13
1.30
1.22
0.76
-0.33
-2.34
-5.31
-8.94
-12.66
-15.67
-17.16
-16.53
-13.65
-8.88
-3.07
2.70
7.45
10.63
12.18
12.50
12.26
12.07
12.36
13.26
14.70
16.42
18.15
19.56
20.37
20.38
19.56
18.08
16.28
14.61
13.44
12.95
13.09
13.63
14.30
14.83
15.11
15.09
14.88
14.60
14.41
14.44
14.68
14.93
14.77
13.80
11.81
9.07
6.29
4.44
4.31
6.12
9.49
13.56
17.45
20.56
22.68
23.81
23.87
22.66
19.89
15.51
9.92
3.96
-1.27
-4.87
-6.38
-5.98
-4.30
-2.27
-0.73
-0.26
-1.01
-2.65
-4.53
-5.78
-5.56
-3.29
1.15
7.26
14.05
20.23
24.61
26.40
25.42
22.10
17.27
11.95
7.11
3.44
1.28
0.59
0.95
1.81
2.57
2.84
2.42
1.48
0.35
-0.46
-0.53
0.40
2.23
4.49
6.40
7.12
6.00
2.78
-2.34
-8.84
-16.13
-23.77
-31.51
-39.32
-47.14
-54.73
-61.54
-66.72
-69.33
-68.71
-64.80
-58.21
-50.11
-41.89
-34.70
-29.33
-26.01
-24.62
-24.69
-25.52
-26.28
-26.11
-24.39
-20.87
-15.87
-10.12
-4.47
0.35
4.02
6.60
8.42
9.74
10.77
11.53
11.99
12.12
11.97
11.71
11.55
11.76
12.58
14.18
16.55
19.45
22.45
25.04
26.83
27.70
27.73
27.09
25.89
24.07
21.51
18.14
14.10
9.65
5.14
0.82
-3.13
-6.58
-9.33
-11.11
-11.64
-10.75
-8.57
-5.55
-2.38
0.20
1.61
1.70
0.81
-0.32
-0.82
-0.05
2.12
5.22
8.51
11.20
12.84
13.41
13.23
12.72
12.16
11.65
11.08
10.29
9.21
7.95
6.70
5.69
5.04
4.63
4.12
3.13
1.33
-1.40
-4.92
-8.98
-13.18
-17.16
-20.49
-22.81
-23.81
-23.44
-21.96
-19.87
-17.85
-16.45
-16.04
-16.66
-18.13
-20.12
-22.29
-24.34
-26.04
-27.23
-27.78
-27.65
-26.77
-25.20
-23.01
-20.44
-17.75
-15.21
-12.96
-10.95
-9.04
-7.08
-5.07
-3.22
-1.92
-1.61
-2.59
-4.91
-8.37
-12.54
-16.87
-20.86
-24.04
-26.06
-26.72
-26.07
-24.44
-22.44
-20.85
-20.38
-21.53
-24.45
-29.02
-34.84
-41.42
-48.11
-54.24
-59.19
-62.52
-64.18
-64.43
-63.76
-62.73
-61.76
-60.99
-60.47
-60.19
-60.32
-61.29
-63.85
-68.88
-77.18
-89.25
-104.97
-123.57
-143.68
-163.62
-181.68
-196.58
-207.77
-215.57
-221.08
-225.51
-229.42
-232.08
-231.42
-224.67
-209.64
-185.81
-154.62
-119.06
-82.34
-46.61
-12.41
21.22
55.96
93.30
133.87
177.07
220.96
262.56
298.36
325.24
341.36
346.81
343.67
335.45
326.09
318.71
314.72
313.44
312.45
308.34
297.84
278.78
250.64
214.57
173.11
129.73
88.49
53.70
29.55
19.23
23.89
41.74
67.95
95.64
117.63
128.43
125.56
109.91
84.88
55.06
24.72
-3.27
-27.71
-48.80
-67.40
-84.06
-98.49
-109.41
-114.90
-113.24
-103.61
-86.62
-64.12
-38.80
-13.33
10.23
30.69
47.67
61.24
71.58
78.65
82.35
82.79
80.79
78.22
77.90
82.69
94.37
112.18
132.45
149.42
157.10
151.23
130.61
97.22
55.53
11.33
-29.57
-62.46
-84.74
-96.39
-99.78
-98.77
-97.25
-97.85
-101.37
-107.30
-114.77
-123.43
-133.44
-144.68
-156.03
-165.20
-169.69
-168.02
-160.81
-150.73
-141.48
-136.38
-136.68
-141.13
-146.22
-147.41
-140.50
-122.91
-94.33
-57.02
-15.50
24.38
56.77
77.67
86.22
84.99
78.76
72.27
67.85
64.29
57.54
42.99
18.14
-15.85
-54.42
-91.57
-122.32
-144.48
-158.76
-167.60
-173.42
-177.41
-179.43
-178.93
-175.92
-171.39
-166.61
-162.16
-157.40
-150.94
-141.74
-130.02
-117.28
-105.12
-94.09
-83.02
-69.69
-52.30
-30.73
-6.76
17.00
38.48
56.96
73.00
87.48
100.84
113.04
124.02
134.30
144.94
156.78
169.61
181.59
189.84
191.68
185.94
173.67
157.69
141.51
128.13
119.21
114.93
114.24
115.29
115.84
113.73
107.54
97.15
84.16
71.45
62.21
58.58
60.71
66.65
73.26
77.53
77.76
73.89
67.07
58.83
50.34
42.18
34.47
27.24
20.63
14.93
10.39
7.08
4.90
3.62
2.94
2.53
2.07
1.35
0.25
-1.14
-2.69
-4.25
-5.79
-7.39
-9.14
-11.05
-13.07
-15.18
-17.44
-19.88
-22.24
-23.84
-23.51
-20.07
-12.90
-2.47
9.67
21.34
30.57
36.27
38.52
38.27
36.79
35.10
33.73
32.67
31.60
30.10
27.86
24.75
20.88
16.67
12.68
9.48
7.41
6.44
6.17
6.01
5.44
4.19
2.30
0.08
-2.04
-3.61
-4.28
-3.91
-2.67
-1.16
-0.30
-0.99
-3.69
-7.96
-12.44
-15.34
-15.26
-11.89
-6.23
-0.15
4.45
6.43
5.82
3.53
0.69
-1.94
-4.16
-6.13
-7.98
-9.56
-10.44
-10.22
-8.78
-6.41
-3.71
-1.41
-0.06
0.07
-0.94
-2.68
-4.58
-6.07
-6.78
-6.70
-6.24
-6.06
-6.76
-8.72
-11.87
-15.78
-19.70
-22.72
-23.86
-22.35
-17.82
-10.57
-1.56
7.76
15.89
21.81
25.17
26.32
25.98
24.86
23.40
21.73
19.77
17.48
14.96
12.49
10.43
9.07
8.49
8.49
8.64
8.55
7.96
6.87
5.49
4.05
2.58
0.84
-1.60
-5.10
-9.81
-15.49
-21.51
-26.92
-30.67
-31.81
-29.84
-24.96
-18.11
-10.73
-4.33
0.02
2.05
2.17
1.25
0.02
-1.13
-2.23
-3.48
-5.04
-6.89
-8.84
-10.66
-12.17
-13.24
-13.81
-13.87
-13.48
-12.79
-12.00
-11.28
-10.76
-10.44
-10.30
-10.36
-10.69
-11.40
-12.59
-14.31
-16.52
-19.05
-21.49
-23.13
-23.07
-20.53
-15.17
-7.46
1.43
9.89
16.41
20.14
21.03
19.75
17.27
14.50
12.02
10.06
8.58
7.48
6.66
6.04
5.56
5.14
4.71
4.19
3.52
2.71
1.78
0.78
-0.35
-1.68
-3.30
-5.26
-7.49
-9.80
-11.98
-13.86
-15.44
-16.80
-18.13
-19.60
-21.38
-23.59
-26.15
-28.72
-30.57
-30.78
-28.55
-23.67
-16.78
-9.28
-2.78
1.57
3.50
3.70
3.31
3.33
4.17
5.56
6.90
7.71
7.84
7.52
7.08
6.74
6.42
5.88
4.87
3.32
1.47
-0.30
-1.68
-2.51
-3.02
-3.62
-4.75
-6.60
-9.07
-11.75
-14.15
-15.92
-17.00
-17.61
-18.17
-19.16
-20.89
-23.28
-25.84
-27.71
-27.94
-25.88
-21.48
-15.32
-8.38
-1.67
4.21
9.11
13.24
16.81
19.85
22.16
23.51
23.81
23.21
22.01
20.46
18.69
16.71
14.60
12.52
10.75
9.50
8.81
8.48
8.12
7.38
6.06
4.17
1.96
-0.27
-2.21
-3.64
-4.46
-4.75
-4.77
-4.93
-5.69
-7.26
-9.42
-11.48
-12.47
-11.57
-8.53
-3.85
1.34
5.77
8.56
9.55
9.25
8.48
7.97
8.08
8.73
9.59
10.31
10.62
10.42
9.74
8.72
7.51
6.25
5.02
3.79
2.53
1.28
0.14
-0.70
-1.23
-1.61
-2.23
-3.42
-5.24
-7.34
-9.18
-10.42
-11.15
-11.85
-12.99
-14.49
-15.56
-15.04
-12.02
-6.59
0.08
6.20
10.21
11.48
10.52
8.51
6.62
5.45
4.92
4.51
3.76
2.52
0.97
-0.60
-1.99
-3.20
-4.33
-5.47
-6.56
-7.40
-7.82
-7.81
-7.54
-7.39
-7.79
-9.04
-11.23
-14.14
-17.42
-20.73
-23.92
-27.04
-30.28
-33.69
-37.00
-39.61
-40.80
-40.16
-37.90
-34.89
-32.38
-31.59
-33.19
-37.11
-42.59
-48.51
-53.79
-57.84
-60.76
-63.37
-66.93
-72.63
-80.98
-91.38
-102.03
-110.44
-114.21
-111.90
-103.51
-90.51
-75.39
-61.05
-50.18
-44.73
-45.64
-52.47
-63.50
-76.04
-87.32
-95.36
-99.55
-100.48
-99.11
-95.70
-89.12
-77.10
-57.27
-28.38
8.82
51.56
95.92
137.91
174.61
204.70
228.46
247.17
262.16
273.99
281.94
284.38
279.62
267.08
248.03
225.40
202.94
183.97
170.49
162.95
160.69
162.61
167.75
175.34
184.57
194.28
202.98
209.07
211.43
209.95
205.50
199.60
193.51
187.30
179.49
167.50
148.94
123.12
92.01
59.99
32.43
13.71
5.50
6.28
12.09
18.10
20.20
15.96
4.80
-12.44
-34.09
-58.08
-82.14
-104.14
-122.36
-135.94
-145.11
-150.99
-155.16
-158.99
-163.29
-168.15
-173.24
-178.05
-182.15
-185.16
-186.70
-186.45
-184.18
-180.03
-174.53
-168.48
-162.60
-157.27
-152.35
-147.32
-141.59
-134.86
-127.25
-119.26
-111.52
-104.49
-98.33
-92.91
-87.99
-83.43
-79.27
-75.67
-72.81
-70.62
-68.75
-66.60
-63.47
-58.85
-52.52
-44.71
-35.96
-26.97
-18.40
-10.81
-4.50
0.47
4.24
7.13
9.54
11.88
14.45
17.41
20.70
24.06
27.12
29.44
30.72
30.83
29.89
28.21
26.20
24.23
22.51
21.11
19.96
18.91
17.85
16.72
15.52
14.25
12.96
11.64
10.30
8.94
7.62
6.41
5.34
4.40
3.53
2.63
1.65
0.59
-0.53
-1.60
-2.47
-2.87
-2.50
-1.12
1.33
4.58
8.10
11.27
13.66
15.23
16.25
17.14
18.19
19.38
20.41
20.86
20.42
18.96
16.62
13.63
10.23
6.59
2.79
-1.10
-4.98
-8.63
-11.74
-13.95
-15.03
-15.00
-14.18
-13.13
-12.47
-12.65
-13.84
-15.87
-18.27
-20.41
-21.57
-21.11
-18.69
-14.45
-8.99
-3.30
1.60
5.00
6.74
7.18
6.94
6.59
6.41
6.35
6.27
6.04
5.72
5.42
5.25
5.20
5.15
4.97
4.59
4.05
3.46
2.86
2.21
1.35
0.08
-1.73
-4.14
-7.10
-10.51
-14.22
-18.03
-21.74
-25.13
-28.01
-30.21
-31.60
-31.99
-31.26
-29.36
-26.43
-22.82
-19.02
-15.49
-12.51
-10.13
-8.17
-6.41
-4.75
-3.24
-2.12
-1.64
-1.95
-2.96
-4.31
-5.45
-5.82
-5.02
-3.02
-0.18
2.79
5.12
6.23
5.97
4.73
3.21
2.19
2.25
3.56
5.84
8.52
10.90
12.33
12.38
11.10
9.22
8.10
9.38
14.25
22.82
33.80
44.89
53.70
58.65
59.56
57.41
53.57
49.17
44.60
39.83
34.74
29.59
24.88
21.00
17.93
15.06
11.57
6.85
0.98
-5.33
-10.87
-14.56
-15.78
-14.56
-11.50
-7.45
-3.21
0.56
3.46
5.24
5.90
5.65
5.11
5.03
6.10
8.54
11.91
15.23
17.43
17.81
16.47
14.18
11.96
10.56
9.97
9.49
8.11
5.07
0.20
-5.98
-12.53
-18.54
-23.51
-27.43
-30.66
-33.72
-37.08
-41.09
-46.03
-52.13
-59.61
-68.54
-78.81
-90.09
-101.88
-113.68
-125.15
-136.27
-147.24
-158.34
-169.71
-181.07
-191.64
-200.05
-204.55
-203.46
-195.78
-181.82
-163.39
-143.42
-125.29
-111.63
-103.29
-98.85
-94.98
-87.63
-73.72
-52.83
-28.00
-5.26
8.11
6.14
-13.60
-48.91
-93.49
-139.08
-178.03
-205.52
-220.16
-223.25
-217.21
-204.05
-184.89
-160.21
-130.77
-98.32
-65.39
-34.43
-6.67
18.66
44.22
73.37
108.40
148.96
191.64
230.80
260.45
276.20
276.54
262.97
239.21
209.98
180.13
154.09
135.62
127.47
130.70
144.23
164.83
187.82
208.38
222.60
228.20
224.41
211.79
192.08
168.25
144.40
125.28
115.20
116.86
130.30
152.79
179.51
204.92
224.32
234.99
236.61
230.79
220.01
206.27
190.22
171.28
148.46
121.67
92.67
64.79
41.83
26.51
19.54
19.54
23.80
29.07
32.11
29.92
20.17
1.90
-23.59
-52.49
-79.32
-98.90
-108.58
-109.42
-105.79
-103.34
-106.32
-116.00
-130.48
-146.10
-159.27
-167.72
-170.57
-167.46
-157.69
-139.88
-112.87
-77.09
-35.48
6.81
44.00
71.86
89.20
97.84
101.37
103.06
104.47
105.07
102.97
96.09
83.17
64.27
40.37
13.18
-15.38
-43.46
-69.29
-91.24
-107.93
-118.57
-123.44
-124.15
-123.11
-122.34
-122.03
-119.59
-110.31
-89.08
-52.55
-0.45
64.50
137.64
213.49
286.26
349.91
398.40
426.65
432.04
415.63
381.84
336.81
285.95
232.42
177.50
122.19
69.11
22.86
-11.50
-31.21
-37.90
-37.87
-40.04
-52.56
-79.75
-120.57
-169.16
-217.00
-255.49
-277.97
-280.84
-263.72
-229.17
-182.20
-129.53
-78.51
-35.65
-5.43
10.69
14.08
8.12
-3.14
-16.27
-28.95
-40.03
-49.03
-55.71
-60.01
-62.16
-62.87
-63.32
-64.64
-67.35
-70.86
-73.75
-74.31
-71.42
-65.07
-56.53
-47.77
-40.73
-36.62
-35.54
-36.66
-38.63
-40.12
-40.29
-38.90
-36.24
-32.85
-29.30
-25.96
-22.99
-20.37
-17.96
-15.53
-13.06
-10.67
-8.55
-6.86
-5.50
-4.22
-2.87
-1.65
-1.14
-1.81
-3.48
-4.99
-4.66
-1.09
5.83
14.69
23.07
28.58
29.92
27.02
20.59
11.26
-0.79
-15.48
-32.09
-48.67
-62.23
-69.70
-69.19
-61.07
-48.14
-34.61
-24.72
-21.06
-23.72
-30.49
-37.96
-42.92
-43.30
-38.40
-28.52
-14.52
2.43
20.66
37.87
51.46
59.11
59.53
52.77
39.99
22.73
2.45
-19.69
-42.45
-64.30
-83.38
-97.94
-106.85
-109.84
-107.64
-101.61
-93.48
-85.15
-78.46
-75.02
-76.06
-82.16
-93.26
-108.76
-127.65
-148.75
-170.81
-192.64
-213.06
-230.86
-244.58
-252.55
-253.01
-244.61
-227.05
-201.54
-170.76
-138.09
-106.66
-78.25
-52.81
-28.60
-2.78
27.73
65.19
110.01
159.86
209.60
252.17
280.69
290.77
282.30
259.61
229.99
201.09
178.52
164.41
157.57
154.69
151.96
146.55
137.40
125.40
112.92
102.86
97.59
98.09
103.74
112.81
123.18
133.06
141.26
146.96
149.45
148.13
142.61
133.22
121.16
108.45
97.62
91.27
91.66
100.50
118.51
144.94
177.18
210.80
240.25
260.16
266.85
259.30
239.33
210.89
178.63
146.73
117.92
93.25
72.42
54.09
36.28
16.48
-7.83
-38.40
-74.89
-114.07
-150.00
-175.76
-186.06
-179.68
-160.35
-135.38
-112.69
-97.69
-91.48
-91.27
-92.50
-91.40
-86.61
-79.26
-71.73
-66.29
-64.05
-64.98
-68.38
-73.56
-80.23
-88.34
-97.82
-108.15
-118.36
-127.22
-133.73
-137.41
-138.38
-137.15
-134.05
-129.05
-121.71
-111.63
-98.92
-84.57
-70.42
-58.62
-50.92
-48.16
-49.93
-54.84
-60.93
-66.22
-69.12
-68.74
-64.94
-58.36
-50.19
-41.86
-34.57
-28.98
-25.03
-22.10
-19.39
-16.34
-12.98
-9.77
-7.46
-6.56
-7.09
-8.46
-9.68
-9.59
-7.36
-2.64
4.37
12.97
22.09
30.57
37.35
41.74
43.53
43.05
40.95
37.99
34.76
31.53
28.29
24.85
21.08
16.95
12.59
8.27
4.29
0.99
-1.28
-2.22
-1.71
0.20
3.24
6.96
10.87
14.44
17.19
18.71
18.69
17.03
13.87
9.57
4.66
-0.28
-4.70
-8.03
-9.74
-9.41
-6.95
-2.73
2.38
7.23
10.84
12.65
12.76
11.68
10.04
8.31
6.69
5.14
3.63
2.18
0.87
-0.18
-1.01
-1.74
-2.57
-3.68
-5.13
-6.82
-8.56
-10.10
-11.26
-11.97
-12.30
-12.41
-12.41
-12.35
-12.13
-11.52
-10.28
-8.18
-5.11
-1.12
3.57
8.59
13.45
17.70
21.02
23.30
24.67
25.37
25.68
25.83
25.94
26.03
26.17
26.45
27.03
28.07
29.64
31.60
33.66
35.42
36.51
36.70
35.96
34.42
32.34
29.98
27.53
25.01
22.32
19.22
15.45
10.96
6.01
1.27
-2.41
-4.29
-4.21
-2.69
-0.77
0.49
0.52
-0.48
-1.77
-2.55
-2.49
-1.90
-1.57
-2.30
-4.38
-7.55
-11.07
-14.17
-16.40
-17.77
-18.63
-19.45
-20.57
-22.06
-23.74
-25.34
-26.60
-27.43
-27.90
-28.21
-28.58
-29.19
-30.04
-31.04
-31.99
-32.61
-32.52
-31.29
-28.59
-24.34
-18.87
-12.92
-7.42
-3.19
-0.61
0.48
0.59
0.37
0.22
0.23
0.24
0.01
-0.65
-1.73
-3.12
-4.67
-6.22
-7.69
-9.04
-10.35
-11.74
-13.36
-15.33
-17.62
-20.11
-22.58
-24.91
-27.15
-29.53
-32.40
-36.06
-40.63
-45.95
-51.66
-57.26
-62.24
-66.19
-68.87
-70.31
-70.79
-70.84
-71.14
-72.39
-75.11
-79.56
-85.65
-92.96
-100.86
-108.60
-115.42
-120.68
-123.95
-125.11
-124.44
-122.66
-120.82
-120.21
-122.08
-127.42
-136.80
-150.26
