1559137815.00
64.000000
-0.00
-0.00
-0.00
-0.00
-0.00
-0.00
-0.00
-0.00
-0.00
-0.00
0.00
0.01
0.01
-0.00
-0.03
-0.05
-0.05
0.00
0.13
0.36
0.66
1.01
1.37
1.72
2.06
2.40
2.79
3.24
3.79
4.41
5.06
5.69
6.25
6.74
7.17
7.59
8.04
8.63
9.31
10.02
10.66
11.20
11.66
12.17
12.91
14.01
15.72
17.88
20.29
22.66
24.83
26.81
28.82
31.23
34.32
38.52
43.57
49.09
54.56
59.59
64.11
68.36
72.86
78.04
84.55
92.17
100.41
108.59
116.10
122.67
128.46
134.40
139.02
144.81
152.86
163.91
177.13
189.60
196.50
192.42
173.33
138.09
89.38
31.78
-29.51
-90.67
-150.06
-207.79
-264.70
-321.31
-377.62
-432.83
-486.13
-535.87
-579.02
-610.98
-626.29
-620.39
-591.30
-540.77
-473.61
-396.47
-315.61
-235.62
-159.23
-87.91
-22.69
35.48
85.79
128.06
162.69
190.54
212.49
229.04
240.34
246.32
247.13
243.34
236.05
226.58
216.17
205.63
195.17
184.55
173.34
161.28
148.51
135.51
122.94
111.31
100.80
91.19
82.04
72.95
63.69
54.35
45.24
36.75
29.22
22.93
17.80
13.57
9.95
6.68
3.60
0.67
-2.11
-4.68
-6.99
-9.01
-10.68
-11.96
-12.82
-13.28
-13.40
-13.30
-13.05
-12.73
-12.38
-11.97
-11.50
-10.97
-10.41
-9.86
-9.38
-8.99
-8.71
-8.54
-8.46
-8.43
-8.47
-8.56
-8.71
-8.95
-9.27
-9.65
-10.06
-10.43
-10.74
-10.96
-11.12
-11.25
-11.45
-11.77
-12.23
-12.81
-13.44
-14.04
-14.59
-15.11
-15.65
-16.25
-16.88
-17.43
-17.80
-17.85
-17.52
-17.02
-16.45
-15.82
-15.08
-14.11
-12.88
-11.48
-10.09
-8.94
-8.14
-7.65
-7.29
-6.83
-6.15
-5.25
-4.30
-3.48
-2.95
-2.71
-2.63
-2.50
-2.17
-1.58
-0.74
0.23
1.22
2.14
2.93
3.58
4.11
4.56
4.99
5.46
6.01
6.62
7.25
7.84
8.34
8.68
8.75
8.43
7.60
6.23
4.39
2.25
-0.00
-2.22
-4.31
-6.26
-8.03
-9.52
-10.57
-10.99
-10.71
-9.79
-8.39
-6.75
-5.06
-3.42
-1.85
-0.34
1.13
2.56
3.91
5.21
6.48
7.81
9.20
10.63
12.02
13.30
14.43
15.49
16.61
17.92
19.50
21.34
23.34
25.37
27.30
29.00
30.39
31.45
32.25
32.90
33.50
34.12
34.70
35.13
35.28
35.08
34.56
33.76
32.78
31.64
30.33
28.82
27.10
25.21
23.24
21.25
19.28
17.34
15.41
13.48
11.56
9.68
7.90
6.23
4.70
3.33
2.11
1.06
0.18
-0.58
-1.27
-1.93
-2.59
-3.22
-3.78
-4.24
-4.59
-4.87
-5.10
-5.29
-5.43
-5.51
-5.57
-5.70
-5.99
-6.49
-7.16
-7.87
-8.47
-8.84
-8.95
-8.86
-8.67
-8.47
-8.31
-8.18
-8.05
-7.88
-7.63
-7.32
-6.99
-6.73
-6.62
-6.72
-6.98
-7.28
-7.44
-7.32
-6.86
-6.17
-5.39
-4.68
-4.08
-3.57
-3.04
-2.44
-1.79
-1.20
-0.77
-0.50
-0.32
-0.10
0.24
0.68
1.11
1.39
1.44
1.26
0.90
0.45
-0.07
-0.64
-1.21
-1.73
-2.12
-2.34
-2.39
-2.34
-2.27
-2.24
-2.24
-2.21
-2.12
-1.94
-1.71
-1.50
-1.38
-1.35
-1.37
-1.39
-1.36
-1.24
-1.08
-0.93
-0.83
-0.79
-0.80
-0.82
-0.85
-0.93
-1.10
-1.38
-1.70
-1.95
-2.03
-1.93
-1.72
-1.53
-1.48
-1.59
-1.82
-2.07
-2.26
-2.34
-2.33
-2.25
-2.12
-1.96
-1.81
-1.68
-1.58
-1.49
-1.36
-1.14
-0.84
-0.48
-0.14
0.13
0.31
0.37
0.31
0.15
-0.07
-0.26
-0.36
-0.32
-0.18
-0.02
0.06
0.01
-0.17
-0.44
-0.72
-0.94
-1.04
-0.97
-0.74
-0.38
-0.00
0.26
0.30
0.11
-0.21
-0.52
-0.71
-0.79
-0.82
-0.88
-0.99
-1.02
-0.85
-0.43
0.16
0.68
0.91
0.70
0.11
-0.65
-1.32
-1.69
-1.72
-1.44
-1.00
-0.54
-0.15
0.10
0.18
0.11
-0.07
-0.31
-0.53
-0.71
-0.82
-0.89
-0.95
-0.99
-1.02
-1.00
-0.91
-0.74
-0.54
-0.36
-0.27
-0.31
-0.48
-0.71
-0.93
-1.04
-1.01
-0.83
-0.57
-0.34
-0.26
-0.36
-0.63
-0.97
-1.26
-1.41
-1.41
-1.29
-1.12
-0.94
-0.74
-0.53
-0.27
0.03
0.37
0.71
0.99
1.15
1.16
1.02
0.78
0.55
0.39
0.36
0.44
0.54
0.59
0.53
0.33
-0.01
-0.42
-0.80
-1.02
-1.01
-0.77
-0.43
-0.15
-0.09
-0.27
-0.60
-0.93
-1.10
-1.08
-0.94
-0.77
-0.67
-0.64
-0.64
-0.61
-0.55
-0.49
-0.45
-0.47
-0.49
-0.46
-0.33
-0.09
0.19
0.42
0.55
0.55
0.46
0.29
0.07
-0.18
-0.45
-0.67
-0.78
-0.73
-0.53
-0.26
-0.01
0.15
0.22
0.23
0.22
0.20
0.13
-0.01
-0.20
-0.39
-0.48
-0.43
-0.26
-0.05
0.08
0.07
-0.07
-0.28
-0.46
-0.54
-0.52
-0.45
-0.37
-0.30
-0.20
-0.06
0.11
0.21
0.16
-0.10
-0.49
-0.89
-1.14
-1.17
-0.98
-0.68
-0.36
-0.11
0.05
0.13
0.11
-0.01
-0.23
-0.51
-0.76
-0.91
-0.92
-0.85
-0.75
-0.69
-0.66
-0.63
-0.57
-0.46
-0.34
-0.23
-0.14
-0.01
0.17
0.38
0.54
0.53
0.31
-0.07
-0.48
-0.74
-0.76
-0.58
-0.31
-0.09
0.01
0.01
-0.02
-0.04
-0.02
-0.01
-0.02
-0.06
-0.08
-0.06
-0.01
0.03
-0.02
-0.18
-0.43
-0.68
-0.85
-0.91
-0.86
-0.74
-0.58
-0.41
-0.23
-0.07
0.08
0.19
0.24
0.23
0.17
0.06
-0.09
-0.24
-0.36
-0.40
-0.35
-0.22
-0.06
0.06
0.09
0.02
-0.13
-0.31
-0.48
-0.60
-0.63
-0.55
-0.34
-0.01
0.41
0.83
1.19
1.41
1.49
1.45
1.33
1.15
0.92
0.62
0.29
-0.02
-0.23
-0.30
-0.19
0.04
0.32
0.55
0.66
0.64
0.49
0.27
0.02
-0.21
-0.39
-0.51
-0.58
-0.59
-0.56
-0.53
-0.53
-0.59
-0.71
-0.86
-1.00
-1.07
-1.08
-1.06
-1.04
-1.06
-1.09
-1.09
-1.04
-0.92
-0.77
-0.64
-0.55
-0.52
-0.53
-0.54
-0.52
-0.45
-0.32
-0.13
0.08
0.28
0.46
0.59
0.67
0.70
0.66
0.52
0.29
0.02
-0.22
-0.35
-0.31
-0.13
0.14
0.40
0.57
0.58
0.43
0.14
-0.18
-0.42
-0.47
-0.28
0.08
0.52
0.92
1.20
1.36
1.45
1.48
1.45
1.33
1.08
0.74
0.39
0.13
0.03
0.09
0.24
0.40
0.47
0.43
0.25
-0.07
-0.51
-1.02
-1.49
-1.77
-1.78
-1.55
-1.24
-1.07
-1.18
-1.56
-2.06
-2.44
-2.56
-2.40
-2.05
-1.64
-1.26
-0.91
-0.57
-0.24
0.02
0.18
0.20
0.15
0.10
0.14
0.28
0.45
0.54
0.47
0.19
-0.24
-0.71
-1.09
-1.30
-1.30
-1.11
-0.82
-0.53
-0.32
-0.23
-0.22
-0.28
-0.33
-0.38
-0.43
-0.50
-0.59
-0.68
-0.71
-0.63
-0.43
-0.16
0.17
0.50
0.83
1.13
1.38
1.52
1.48
1.24
0.85
0.40
0.02
-0.21
-0.25
-0.11
0.18
0.53
0.84
1.02
1.02
0.85
0.58
0.34
0.20
0.18
0.22
0.25
0.20
0.09
-0.06
-0.21
-0.35
-0.53
-0.71
-0.85
-0.87
-0.73
-0.43
-0.05
0.33
0.68
0.99
1.29
1.58
1.83
1.98
2.02
1.94
1.78
1.58
1.36
1.13
0.88
0.63
0.38
0.14
-0.13
-0.46
-0.85
-1.25
-1.60
-1.80
-1.82
-1.70
-1.52
-1.36
-1.24
-1.15
-1.01
-0.82
-0.60
-0.43
-0.36
-0.42
-0.56
-0.67
-0.67
-0.53
-0.27
0.03
0.33
0.56
0.72
0.80
0.78
0.65
0.43
0.14
-0.17
-0.44
-0.64
-0.79
-0.89
-0.97
-1.01
-0.98
-0.85
-0.62
-0.31
0.01
0.28
0.44
0.49
0.44
0.31
0.16
0.05
0.01
0.08
0.26
0.51
0.76
0.93
0.98
0.87
0.63
0.34
0.04
-0.22
-0.44
-0.67
-0.90
-1.11
-1.25
-1.23
-1.02
-0.68
-0.30
0.00
0.15
0.15
0.07
0.02
0.07
0.21
0.42
0.60
0.68
0.63
0.46
0.21
-0.06
-0.29
-0.43
-0.51
-0.54
-0.59
-0.69
-0.86
-1.05
-1.18
-1.21
-1.13
-0.98
-0.83
-0.74
-0.67
-0.54
-0.29
0.07
0.45
0.69
0.67
0.39
-0.02
-0.39
-0.54
-0.40
-0.01
0.51
1.01
1.37
1.53
1.48
1.26
0.93
0.56
0.20
-0.09
-0.24
-0.24
-0.07
0.22
0.54
0.82
0.98
1.03
0.99
0.92
0.87
0.82
0.72
0.51
0.19
-0.19
-0.50
-0.65
-0.60
-0.44
-0.28
-0.25
-0.42
-0.74
-1.07
-1.28
-1.30
-1.13
-0.87
-0.58
-0.33
-0.12
0.07
0.25
0.41
0.53
0.58
0.59
0.57
0.57
0.62
0.71
0.79
0.82
0.76
0.60
0.41
0.24
0.16
0.19
0.29
0.40
0.44
0.39
0.30
0.26
0.33
0.54
0.85
1.16
1.39
1.50
1.51
1.49
1.53
1.65
1.82
1.95
1.99
1.93
1.82
1.74
1.72
1.74
1.73
1.62
1.41
1.15
0.88
0.65
0.47
0.34
0.25
0.25
0.33
0.45
0.49
0.33
-0.12
-0.81
-1.59
-2.30
-2.76
-2.94
-2.87
-2.68
-2.50
-2.39
-2.36
-2.31
-2.17
-1.92
-1.61
-1.37
-1.27
-1.32
-1.40
-1.37
-1.10
-0.62
-0.03
0.46
0.74
0.74
0.53
0.24
-0.01
-0.14
-0.12
0.03
0.25
0.47
0.64
0.72
0.73
0.70
0.67
0.66
0.69
0.75
0.81
0.87
0.93
0.97
0.96
0.88
0.71
0.43
0.09
-0.27
-0.60
-0.86
-1.08
-1.29
-1.59
-2.00
-2.49
-2.96
-3.25
-3.26
-3.01
-2.59
-2.19
-1.94
-1.88
-1.96
-2.07
-2.10
-2.03
-1.86
-1.62
-1.31
-0.94
-0.54
-0.15
0.16
0.35
0.45
0.54
0.70
1.01
1.47
2.03
2.59
3.07
3.37
3.47
3.36
3.11
2.86
2.69
2.66
2.74
2.81
2.75
2.46
1.93
1.16
0.21
-0.84
-1.90
-2.83
-3.53
-3.89
-3.93
-3.74
-3.45
-3.20
-3.08
-3.07
-3.11
-3.15
-3.15
-3.08
-2.95
-2.72
-2.39
-1.94
-1.40
-0.81
-0.27
0.15
0.37
0.33
0.08
-0.29
-0.61
-0.72
-0.52
-0.02
0.63
1.25
1.61
1.63
1.37
1.00
0.70
0.61
0.73
0.97
1.19
1.29
1.26
1.14
0.98
0.78
0.55
0.29
0.02
-0.19
-0.31
-0.36
-0.38
-0.43
-0.50
-0.55
-0.52
-0.38
-0.18
0.02
0.17
0.29
0.42
0.59
0.72
0.75
0.60
0.32
0.01
-0.20
-0.22
-0.07
0.15
0.36
0.48
0.52
0.48
0.38
0.21
-0.02
-0.23
-0.38
-0.39
-0.29
-0.15
-0.08
-0.15
-0.36
-0.65
-0.92
-1.09
-1.12
-1.02
-0.85
-0.65
-0.43
-0.21
0.03
0.28
0.49
0.58
0.51
0.30
0.03
-0.18
-0.22
-0.09
0.13
0.31
0.33
0.19
-0.03
-0.22
-0.28
-0.20
-0.03
0.15
0.30
0.37
0.40
0.39
0.36
0.31
0.21
0.08
-0.09
-0.26
-0.43
-0.57
-0.67
-0.70
-0.64
-0.48
-0.24
0.07
0.41
0.76
1.09
1.34
1.47
1.43
1.21
0.84
0.40
-0.02
-0.32
-0.45
-0.43
-0.28
-0.05
0.17
0.32
0.33
0.17
-0.11
-0.41
-0.62
-0.67
-0.57
-0.39
-0.23
-0.14
-0.07
0.02
0.17
0.36
0.52
0.57
0.51
0.41
0.35
0.37
0.42
0.43
0.37
0.29
0.29
0.46
0.77
1.08
1.24
1.12
0.70
0.09
-0.54
-1.06
-1.38
-1.52
-1.52
-1.49
-1.52
-1.64
-1.86
-2.13
-2.38
-2.55
-2.64
-2.70
-2.81
-2.95
-3.03
-2.93
-2.57
-1.99
-1.40
-1.02
-1.01
-1.34
-1.82
-2.20
-2.30
-2.09
-1.70
-1.32
-1.04
-0.87
-0.70
-0.45
-0.09
0.28
0.54
0.62
0.59
0.57
0.71
1.02
1.44
1.81
1.99
1.96
1.77
1.52
1.29
1.12
0.99
0.91
0.86
0.84
0.80
0.71
0.55
0.36
0.19
0.12
0.21
0.44
0.78
1.18
1.55
1.85
1.99
1.90
1.57
1.07
0.55
0.18
0.08
0.26
0.63
1.03
1.33
1.47
1.44
1.33
1.22
1.19
1.35
1.70
2.21
2.77
3.22
3.38
3.20
2.72
2.07
1.44
0.96
0.67
0.53
0.41
0.22
-0.14
-0.67
-1.33
-2.04
-2.67
-3.15
-3.42
-3.50
-3.49
-3.49
-3.60
-3.84
-4.12
-4.31
-4.29
-4.01
-3.52
-2.89
-2.21
-1.52
-0.84
-0.21
0.29
0.57
0.59
0.43
0.24
0.21
0.47
0.98
1.58
2.06
2.27
2.16
1.81
1.37
0.97
0.70
0.59
0.61
0.70
0.79
0.81
0.76
0.64
0.50
0.36
0.25
0.17
0.11
0.09
0.10
0.12
0.14
0.09
-0.04
-0.23
-0.39
-0.44
-0.34
-0.11
0.20
0.50
0.72
0.85
0.88
0.81
0.68
0.50
0.31
0.17
0.07
0.02
-0.04
-0.09
-0.14
-0.18
-0.20
-0.19
-0.14
-0.01
0.24
0.61
0.99
1.27
1.33
1.16
0.87
0.64
0.58
0.71
0.91
1.04
1.02
0.87
0.70
0.56
0.45
0.30
0.06
-0.23
-0.49
-0.59
-0.49
-0.27
-0.07
-0.04
-0.23
-0.61
-1.03
-1.36
-1.55
-1.60
-1.58
-1.54
-1.50
-1.40
-1.21
-0.90
-0.52
-0.14
0.18
0.39
0.51
0.57
0.60
0.60
0.55
0.47
0.37
0.33
0.40
0.63
0.96
1.30
1.51
1.51
1.28
0.92
0.57
0.36
0.34
0.44
0.53
0.49
0.27
-0.07
-0.42
-0.65
-0.69
-0.57
-0.38
-0.22
-0.20
-0.31
-0.49
-0.65
-0.68
-0.56
-0.30
-0.01
0.21
0.22
0.00
-0.43
-0.96
-1.48
-1.89
-2.12
-2.17
-2.05
-1.80
-1.44
-1.01
-0.56
-0.11
0.32
0.72
1.07
1.33
1.48
1.52
1.48
1.40
1.32
1.22
1.03
0.66
0.06
-0.74
-1.65
-2.53
-3.28
-3.89
-4.38
-4.78
-5.11
-5.31
-5.28
-4.97
-4.34
-3.42
-2.31
-1.09
0.14
1.33
2.45
3.52
4.54
5.53
6.51
7.48
8.42
9.25
9.90
10.28
10.37
10.18
9.74
9.11
8.26
7.22
5.97
4.50
2.85
1.06
-0.82
-2.71
-4.53
-6.20
-7.61
-8.75
-9.62
-10.28
-10.78
-11.12
-11.23
-11.01
-10.37
-9.32
-7.95
-6.42
-4.91
-3.54
-2.36
-1.37
-0.53
0.20
0.86
1.45
1.95
2.35
2.60
2.70
2.65
2.50
2.32
2.21
2.23
2.39
2.65
2.89
3.07
3.13
3.10
3.05
3.01
3.04
3.11
3.19
3.23
3.22
3.16
3.06
2.90
2.70
2.46
2.21
1.98
1.82
1.73
1.70
1.67
1.57
1.37
1.05
0.67
0.31
0.06
-0.04
-0.03
0.02
0.02
-0.08
-0.32
-0.68
-1.11
-1.55
-1.92
-2.16
-2.22
-2.06
-1.71
-1.21
-0.64
-0.13
0.20
0.26
0.06
-0.33
-0.74
-1.02
-1.08
-0.95
-0.75
-0.58
-0.50
-0.45
-0.38
-0.24
-0.07
0.04
0.02
-0.14
-0.39
-0.63
-0.76
-0.76
-0.62
-0.41
-0.15
0.10
0.32
0.51
0.61
0.60
0.49
0.30
0.08
-0.10
-0.19
-0.20
-0.13
-0.05
-0.03
-0.10
-0.22
-0.35
-0.41
-0.36
-0.25
-0.15
-0.16
-0.29
-0.50
-0.63
-0.58
-0.31
0.07
0.35
0.37
0.07
-0.43
-0.95
-1.30
-1.42
-1.34
-1.14
-0.89
-0.56
-0.14
0.36
0.83
1.15
1.21
1.07
0.84
0.69
0.70
0.80
0.85
0.71
0.34
-0.15
-0.59
-0.82
-0.80
-0.55
-0.19
0.16
0.42
0.55
0.54
0.40
0.19
-0.05
-0.24
-0.33
-0.29
-0.15
0.03
0.19
0.27
0.28
0.22
0.15
0.10
0.07
0.08
0.09
0.12
0.15
0.21
0.32
0.47
0.63
0.76
0.84
0.88
0.90
0.90
0.86
0.70
0.39
-0.07
-0.60
-1.03
-1.27
-1.27
-1.10
-0.88
-0.72
-0.66
-0.68
-0.72
-0.70
-0.58
-0.39
-0.12
0.18
0.50
0.79
1.00
1.09
1.02
0.81
0.48
0.13
-0.15
-0.30
-0.28
-0.15
0.01
0.13
0.14
0.03
-0.17
-0.43
-0.69
-0.90
-1.03
-1.05
-0.98
-0.83
-0.68
-0.58
-0.58
-0.68
-0.81
-0.90
-0.89
-0.72
-0.43
-0.07
0.26
0.50
0.57
0.45
0.15
-0.25
-0.65
-0.91
-0.92
-0.65
-0.16
0.40
0.85
1.05
1.00
0.77
0.54
0.41
0.42
0.50
0.56
0.51
0.38
0.21
0.06
-0.04
-0.14
-0.28
-0.48
-0.72
-0.89
-0.90
-0.71
-0.35
0.11
0.55
0.87
1.03
1.01
0.85
0.61
0.33
0.10
-0.01
0.01
0.16
0.37
0.55
0.61
0.53
0.34
0.13
0.01
0.02
0.11
0.19
0.14
-0.08
-0.42
-0.76
-0.99
-1.07
-1.01
-0.89
-0.74
-0.59
-0.42
-0.27
-0.20
-0.28
-0.54
-0.89
-1.20
-1.31
-1.17
-0.82
-0.42
-0.10
0.01
-0.07
-0.28
-0.51
-0.65
-0.64
-0.45
-0.13
0.24
0.61
0.91
1.14
1.30
1.41
1.44
1.36
1.14
0.82
0.52
0.33
0.32
0.44
0.57
0.57
0.41
0.17
-0.01
-0.06
-0.01
0.01
-0.10
-0.36
-0.65
-0.78
-0.66
-0.35
-0.02
0.12
-0.02
-0.35
-0.70
-0.88
-0.81
-0.54
-0.20
0.10
0.30
0.41
0.46
0.47
0.45
0.35
0.20
0.05
-0.02
0.01
0.14
0.27
0.31
0.22
0.02
-0.19
-0.31
-0.30
-0.22
-0.12
-0.08
-0.07
-0.05
0.03
0.15
0.25
0.27
0.16
-0.03
-0.22
-0.32
-0.27
-0.07
0.22
0.50
0.67
0.69
0.53
0.28
0.05
-0.06
-0.02
0.11
0.21
0.17
-0.03
-0.33
-0.63
-0.88
-1.06
-1.23
-1.41
-1.55
-1.55
-1.33
-0.86
-0.27
0.23
0.47
0.36
-0.01
-0.44
-0.75
-0.82
-0.66
-0.35
-0.01
0.29
0.54
0.74
0.87
0.88
0.73
0.45
0.09
-0.19
-0.32
-0.26
-0.06
0.19
0.39
0.49
0.50
0.43
0.29
0.08
-0.16
-0.39
-0.57
-0.64
-0.59
-0.41
-0.13
0.23
0.59
0.92
1.14
1.21
1.13
0.91
0.59
0.23
-0.12
-0.37
-0.48
-0.42
-0.22
0.04
0.28
0.42
0.44
0.40
0.34
0.29
0.25
0.17
0.03
-0.17
-0.36
-0.50
-0.56
-0.57
-0.55
-0.56
-0.54
-0.45
-0.23
0.09
0.42
0.59
0.53
0.22
-0.19
-0.55
-0.71
-0.66
-0.47
-0.27
-0.14
-0.11
-0.11
-0.10
-0.08
-0.09
-0.19
-0.40
-0.62
-0.74
-0.66
-0.39
-0.05
0.21
0.26
0.12
-0.10
-0.28
-0.31
-0.23
-0.11
-0.04
-0.02
0.01
0.11
0.31
0.56
0.74
0.80
0.69
0.46
0.16
-0.14
-0.40
-0.56
-0.58
-0.44
-0.14
0.22
0.53
0.67
0.59
0.31
-0.08
-0.47
-0.79
-0.96
-0.96
-0.81
-0.52
-0.16
0.20
0.48
0.61
0.55
0.29
-0.12
-0.59
-0.95
-1.08
-0.88
-0.38
0.27
0.86
1.21
1.25
1.03
0.72
0.47
0.36
0.34
0.31
0.18
-0.06
-0.32
-0.50
-0.50
-0.33
-0.05
0.19
0.31
0.28
0.18
0.09
0.08
0.16
0.26
0.26
0.12
-0.19
-0.57
-0.89
-1.03
-0.93
-0.59
-0.12
0.38
0.77
0.98
0.98
0.79
0.47
0.12
-0.17
-0.38
-0.49
-0.57
-0.66
-0.78
-0.90
-0.93
-0.85
-0.65
-0.43
-0.30
-0.31
-0.45
-0.62
-0.68
-0.60
-0.37
-0.10
0.10
0.19
0.17
0.10
0.03
-0.01
-0.02
-0.05
-0.11
-0.19
-0.28
-0.35
-0.38
-0.33
-0.21
-0.00
0.25
0.48
0.63
0.66
0.58
0.45
0.35
0.35
0.46
0.63
0.77
0.81
0.70
0.51
0.31
0.23
0.27
0.41
0.53
0.53
0.38
0.14
-0.09
-0.22
-0.23
-0.17
-0.08
0.03
0.18
0.37
0.54
0.61
0.46
0.13
-0.29
-0.63
-0.78
-0.76
-0.68
-0.69
-0.86
-1.12
-1.36
-1.45
-1.36
-1.16
-0.95
-0.82
-0.79
-0.79
-0.72
-0.50
-0.12
0.37
0.82
1.10
1.12
0.88
0.49
0.07
-0.26
-0.48
-0.58
-0.59
-0.50
-0.25
0.19
0.78
1.39
1.86
2.08
2.06
1.90
1.72
1.63
1.63
1.63
1.53
1.30
0.98
0.68
0.49
0.44
0.51
0.63
0.76
0.85
0.88
0.88
0.85
0.80
0.74
0.68
0.61
0.55
0.51
0.46
0.38
0.24
0.01
-0.30
-0.65
-0.98
-1.22
-1.30
-1.22
-1.03
-0.81
-0.64
-0.57
-0.56
-0.57
-0.58
-0.59
-0.63
-0.72
-0.85
-0.98
-1.03
-0.96
-0.79
-0.57
-0.36
-0.18
-0.03
0.13
0.31
0.47
0.55
0.45
0.18
-0.22
-0.59
-0.80
-0.78
-0.57
-0.33
-0.18
-0.19
-0.29
-0.34
-0.24
0.02
0.32
0.50
0.46
0.23
-0.07
-0.30
-0.37
-0.33
-0.27
-0.25
-0.29
-0.34
-0.32
-0.21
-0.03
0.11
0.17
0.12
0.01
-0.11
-0.19
-0.24
-0.27
-0.29
-0.27
-0.18
-0.03
0.16
0.33
0.41
0.38
0.26
0.13
0.03
-0.01
0.02
0.09
0.20
0.34
0.53
0.74
0.92
0.99
0.90
0.64
0.28
-0.07
-0.27
-0.30
-0.19
-0.05
-0.00
-0.09
-0.30
-0.51
-0.63
-0.59
-0.40
-0.12
0.18
0.47
0.72
0.92
1.04
1.08
1.02
0.90
0.78
0.73
0.77
0.91
1.08
1.23
1.32
1.32
1.21
1.02
0.78
0.53
0.29
0.09
-0.07
-0.20
-0.34
-0.49
-0.63
-0.74
-0.81
-0.88
-1.00
-1.22
-1.55
-1.91
-2.17
-2.21
-1.96
-1.47
-0.89
-0.39
-0.11
-0.08
-0.21
-0.36
-0.39
-0.28
-0.10
0.05
0.08
0.03
-0.02
0.01
0.16
0.32
0.38
0.28
0.06
-0.14
-0.19
-0.04
0.24
0.50
0.65
0.66
0.57
0.45
0.32
0.15
-0.08
-0.35
-0.60
-0.74
-0.70
-0.52
-0.28
-0.10
-0.04
-0.11
-0.25
-0.39
-0.49
-0.57
-0.61
-0.62
-0.59
-0.50
-0.35
-0.19
-0.08
-0.06
-0.14
-0.28
-0.38
-0.39
-0.28
-0.09
0.10
0.21
0.18
0.01
-0.24
-0.46
-0.58
-0.54
-0.34
-0.00
0.40
0.80
1.13
1.35
1.40
1.29
1.06
0.77
0.50
0.32
0.21
0.15
0.12
0.09
0.05
0.02
0.01
-0.01
-0.07
-0.19
-0.37
-0.57
-0.72
-0.77
-0.70
-0.54
-0.31
-0.07
0.13
0.27
0.32
0.30
0.25
0.22
0.24
0.34
0.49
0.63
0.66
0.55
0.31
0.03
-0.16
-0.18
-0.01
0.28
0.55
0.67
0.58
0.34
0.06
-0.17
-0.27
-0.28
-0.26
-0.28
-0.33
-0.34
-0.22
0.08
0.54
1.06
1.46
1.64
1.51
1.12
0.60
0.09
-0.32
-0.60
-0.79
-0.93
-1.04
-1.12
-1.13
-1.05
-0.86
-0.59
-0.28
0.02
0.25
0.36
0.31
0.12
-0.16
-0.44
-0.63
-0.69
-0.66
-0.62
-0.70
-0.96
-1.43
-2.03
-2.59
-2.92
-2.90
-2.57
-2.13
-1.85
-1.98
-2.53
-3.22
-3.46
-2.49
0.36
5.35
12.13
19.73
26.66
31.24
32.21
29.20
22.95
14.95
6.84
-0.17
-5.58
-9.50
-12.45
-14.89
-16.81
-17.71
-16.89
-13.89
-8.84
-2.52
3.84
8.73
10.89
9.84
6.06
0.65
-5.14
-10.21
-13.75
-14.61
-12.41
-8.56
-6.23
-8.49
-16.23
-27.68
-39.23
-47.04
-48.69
-44.19
-35.56
-25.48
-15.91
-7.50
0.04
7.12
13.61
18.74
21.44
21.14
18.32
14.43
11.14
9.53
9.58
10.52
11.42
11.72
11.43
11.00
10.97
11.59
12.68
13.77
14.39
14.30
13.53
12.31
11.00
9.94
9.33
9.14
9.21
9.34
9.40
9.31
8.98
8.27
6.98
4.97
2.21
-1.12
-4.59
-7.79
-10.27
-11.78
-12.30
-12.00
-11.16
-10.03
-8.79
-7.49
-6.12
-4.66
-3.18
-1.82
-0.74
-0.02
0.36
0.49
0.47
0.33
0.07
-0.35
-0.93
-1.63
-2.29
-2.77
-2.93
-2.69
-2.10
-1.29
-0.44
0.21
0.51
0.43
0.11
-0.27
-0.48
-0.44
-0.15
0.24
0.56
0.65
0.47
0.10
-0.37
-0.91
-1.63
-2.71
-4.39
-6.73
-9.62
-12.72
-15.60
-17.65
-18.41
-17.72
-15.67
-12.62
-8.96
-5.05
-1.16
2.58
6.02
9.03
11.61
13.85
15.85
17.68
19.35
20.85
22.18
23.18
23.73
23.86
23.82
23.86
24.15
24.78
25.74
26.97
28.02
28.46
28.10
27.01
25.26
22.76
19.36
14.97
9.67
3.27
-4.26
-12.59
-21.18
-29.56
-37.51
-44.93
-51.79
-55.50
-54.34
-48.84
-41.12
-33.01
-25.19
-17.85
-11.31
-6.27
-3.43
-3.42
-6.05
-10.06
-13.68
-15.44
-14.79
-11.99
-7.80
-3.05
1.27
4.41
6.01
6.10
4.86
2.65
0.09
-2.09
-3.30
-3.44
-2.82
-1.89
-0.97
-0.31
-0.10
-0.29
-0.83
-1.67
-2.84
-4.46
-6.51
-8.97
-11.72
-14.73
-17.79
-20.70
-23.33
-25.52
-27.02
-27.42
-26.19
-22.89
-17.33
-9.47
0.25
10.93
21.45
30.75
38.13
43.42
47.15
48.63
48.24
46.57
44.17
41.36
38.22
34.76
30.99
26.97
22.83
18.85
15.17
11.72
8.45
5.36
2.57
0.28
-1.37
-2.38
-2.78
-2.79
-2.73
-2.85
-3.22
-3.72
-4.15
-4.35
-4.31
-4.09
-3.88
-3.88
-4.13
-4.52
-4.87
-5.06
-5.07
-5.02
-4.98
-4.98
-4.98
-4.91
-4.72
-4.42
-4.09
-3.77
-3.46
-3.11
-2.68
-2.18
-1.72
-1.40
-1.27
-1.30
-1.37
-1.35
-1.21
-1.01
-0.89
-0.99
-1.39
-2.02
-2.68
-3.18
-3.37
-3.26
-2.97
-2.67
-2.49
-2.48
-2.58
-2.74
-2.89
-3.03
-3.12
-3.15
-3.06
-2.83
-2.45
-1.99
-1.51
-1.05
-0.63
-0.19
0.29
0.80
1.25
1.52
1.53
1.27
0.83
0.36
-0.00
-0.17
-0.16
-0.03
0.11
0.20
0.24
0.26
0.27
0.28
0.28
0.27
0.21
0.13
0.04
-0.06
-0.17
-0.27
-0.33
-0.32
-0.21
-0.01
0.21
0.39
0.47
0.44
0.29
0.08
-0.18
-0.43
-0.67
-0.84
-0.91
-0.84
-0.63
-0.34
-0.08
0.06
0.00
-0.24
-0.56
-0.83
-0.96
-0.91
-0.73
-0.50
-0.31
-0.23
-0.30
-0.51
-0.87
-1.32
-1.76
-2.09
-2.20
-2.06
-1.69
-1.19
-0.67
-0.22
0.08
0.21
0.17
-0.02
-0.27
-0.48
-0.54
-0.39
-0.05
0.39
0.78
1.00
0.99
0.79
0.49
0.20
-0.00
-0.10
-0.12
-0.11
-0.13
-0.18
-0.25
-0.30
-0.30
-0.24
-0.13
-0.00
0.13
0.25
0.37
0.48
0.57
0.61
0.59
0.53
0.48
0.50
0.59
0.71
0.79
0.78
0.66
0.51
0.43
0.50
0.75
1.09
1.39
1.55
1.54
1.43
1.29
1.20
1.15
1.09
0.97
0.77
0.54
0.34
0.23
0.20
0.23
0.30
0.38
0.47
0.58
0.69
0.75
0.76
0.73
0.70
0.69
0.71
0.69
0.59
0.40
0.18
0.03
0.03
0.19
0.42
0.58
0.55
0.33
-0.01
-0.34
-0.56
-0.62
-0.56
-0.48
-0.44
-0.46
-0.50
-0.51
-0.47
-0.40
-0.40
-0.52
-0.81
-1.18
-1.54
-1.75
-1.73
-1.48
-1.08
-0.65
-0.27
0.04
0.28
0.52
0.78
1.04
1.25
1.33
1.25
1.02
0.77
0.60
0.60
0.75
0.92
0.98
0.82
0.46
0.02
-0.34
-0.50
-0.43
-0.21
0.09
0.37
0.60
0.76
0.81
0.73
0.47
0.08
-0.40
-0.86
-1.25
-1.53
-1.71
-1.81
-1.84
-1.80
-1.70
-1.56
-1.40
-1.24
-1.05
-0.78
-0.43
-0.06
0.24
0.38
0.34
0.16
-0.00
-0.03
0.12
0.41
0.73
0.96
1.05
1.02
0.92
0.85
0.83
0.86
0.87
0.80
0.62
0.36
0.07
-0.15
-0.24
-0.15
0.09
0.40
0.64
0.71
0.58
0.28
-0.09
-0.40
-0.56
-0.56
-0.41
-0.17
0.11
0.35
0.51
0.52
0.35
0.04
-0.34
-0.63
-0.73
-0.61
-0.33
-0.04
0.16
0.19
0.11
0.01
0.01
0.12
0.31
0.47
0.49
0.36
0.12
-0.11
-0.23
-0.18
0.01
0.24
0.46
0.64
0.79
0.97
1.16
1.34
1.46
1.51
1.54
1.64
1.88
2.28
2.77
3.21
3.50
3.56
3.41
3.09
2.68
2.21
1.68
1.11
0.54
0.06
-0.27
-0.46
-0.60
-0.86
-1.37
-2.11
-2.95
-3.63
-3.96
-3.86
-3.44
-2.92
-2.54
-2.44
-2.60
-2.87
-3.04
-2.94
-2.54
-1.95
-1.37
-0.99
-0.90
-1.09
-1.41
-1.69
-1.82
-1.79
-1.68
-1.53
-1.38
-1.19
-0.93
-0.59
-0.23
0.06
0.25
0.33
0.35
0.35
0.35
0.36
0.37
0.41
0.51
0.67
0.83
0.91
0.83
0.57
0.20
-0.16
-0.45
-0.67
-0.88
-1.14
-1.43
-1.63
-1.59
-1.24
-0.66
-0.00
0.50
0.70
0.60
0.30
-0.07
-0.41
-0.69
-0.94
-1.18
-1.38
-1.49
-1.44
-1.23
-0.91
-0.52
-0.14
0.22
0.60
1.00
1.35
1.58
1.61
1.44
1.15
0.90
0.76
0.76
0.79
0.73
0.52
0.18
-0.14
-0.31
-0.23
0.10
0.60
1.10
1.49
1.69
1.68
1.53
1.30
1.05
0.80
0.56
0.34
0.20
0.18
0.34
0.61
0.85
0.93
0.79
0.51
0.27
0.23
0.43
0.76
1.04
1.15
1.08
0.89
0.69
0.51
0.34
0.18
0.05
0.02
0.15
0.40
0.65
0.74
0.61
0.30
-0.10
-0.47
-0.74
-0.93
-1.04
-1.08
-1.04
-0.93
-0.78
-0.68
-0.66
-0.71
-0.80
-0.84
-0.82
-0.78
-0.76
-0.79
-0.85
-0.88
-0.84
-0.74
-0.62
-0.54
-0.53
-0.54
-0.50
-0.33
-0.01
0.42
0.82
1.04
0.98
0.61
0.06
-0.49
-0.87
-0.97
-0.82
-0.57
-0.35
-0.24
-0.23
-0.24
-0.20
-0.14
-0.11
-0.19
-0.35
-0.47
-0.38
0.01
0.64
1.33
1.82
1.92
1.62
1.06
0.46
0.03
-0.13
-0.06
0.17
0.44
0.68
0.83
0.86
0.73
0.47
0.08
-0.37
-0.81
-1.16
-1.38
-1.47
-1.43
-1.29
-1.10
-0.89
-0.66
-0.44
-0.25
-0.09
0.06
0.19
0.31
0.42
0.53
0.61
0.64
0.60
0.48
0.32
0.17
0.10
0.16
0.32
0.55
0.75
0.87
0.92
0.93
0.95
0.97
0.97
0.90
0.76
0.57
0.38
0.24
0.13
0.03
-0.09
-0.22
-0.32
-0.31
-0.20
-0.03
0.12
0.16
0.04
-0.17
-0.37
-0.45
-0.35
-0.10
0.21
0.43
0.47
0.30
-0.03
-0.45
-0.88
-1.21
-1.40
-1.40
-1.20
-0.83
-0.38
0.03
0.30
0.39
0.31
0.14
-0.03
-0.16
-0.24
-0.26
-0.23
-0.18
-0.10
-0.01
0.06
0.08
0.05
0.00
-0.07
-0.13
-0.19
-0.24
-0.28
-0.31
-0.32
-0.33
-0.35
-0.39
-0.46
-0.55
-0.61
-0.63
-0.56
-0.43
-0.22
0.04
0.35
0.66
0.94
1.13
1.14
0.95
0.60
0.16
-0.26
-0.59
-0.81
-0.96
-1.06
-1.11
-1.04
-0.80
-0.37
0.17
0.67
0.98
1.03
0.84
0.51
0.17
-0.09
-0.24
-0.28
-0.22
-0.08
0.17
0.50
0.85
1.10
1.14
0.90
0.45
-0.07
-0.46
-0.59
-0.46
-0.18
0.08
0.19
0.13
-0.04
-0.20
-0.29
-0.30
-0.28
-0.26
-0.24
-0.14
0.06
0.36
0.68
0.93
1.05
1.07
1.00
0.89
0.73
0.49
0.16
-0.18
-0.45
-0.52
-0.37
-0.08
0.21
0.38
0.38
0.25
0.07
-0.10
-0.27
-0.48
-0.76
-1.06
-1.26
-1.24
-0.94
-0.41
0.18
0.66
0.89
0.85
0.61
0.28
-0.02
-0.23
-0.34
-0.39
-0.39
-0.40
-0.43
-0.48
-0.56
-0.62
-0.60
-0.47
-0.24
0.02
0.23
0.32
0.30
0.25
0.23
0.29
0.41
0.52
0.56
0.53
0.46
0.41
0.43
0.51
0.60
0.69
0.73
0.71
0.61
0.41
0.13
-0.20
-0.49
-0.69
-0.80
-0.85
-0.86
-0.89
-0.94
-0.97
-0.97
-0.94
-0.88
-0.83
-0.80
-0.80
-0.80
-0.81
-0.78
-0.66
-0.42
-0.05
0.43
0.92
1.34
1.62
1.75
1.74
1.66
1.54
1.44
1.39
1.41
1.52
1.69
1.88
2.02
2.06
1.98
1.81
1.64
1.57
1.68
2.03
2.58
3.23
3.82
4.20
4.25
4.00
3.53
2.97
2.43
1.95
1.52
1.09
0.63
0.19
-0.14
-0.29
-0.18
0.20
0.84
1.72
2.75
3.84
4.88
5.77
6.48
7.01
7.43
7.90
8.50
9.19
9.79
10.10
9.99
9.51
8.87
8.46
8.68
9.70
11.18
12.51
13.04
12.43
10.87
8.88
7.28
6.87
7.91
9.94
12.13
13.67
14.33
14.65
15.51
18.09
23.53
32.37
44.36
58.57
73.35
86.58
95.76
97.25
88.08
68.63
43.53
19.38
1.62
-7.70
-9.24
-5.14
1.71
9.26
16.83
24.45
32.23
40.06
47.08
50.88
52.15
51.48
49.64
47.59
46.22
46.12
47.67
50.10
52.61
54.37
53.98
50.06
41.52
27.35
6.14
-17.89
-43.14
-68.53
-93.41
-118.33
-144.83
-175.09
-211.17
-253.27
-298.04
-339.01
-366.66
-371.31
-346.84
-293.09
-216.26
-127.13
-37.82
41.42
103.20
143.94
163.03
161.80
143.57
113.52
77.88
42.42
10.79
-16.52
-40.83
-63.84
-86.29
-107.22
-124.48
-135.62
-138.79
-133.30
-119.93
-100.53
-77.89
-55.24
-35.66
-21.72
-15.25
-17.31
-28.26
-47.70
-73.88
-103.76
-133.63
-160.60
-184.09
-205.75
-227.96
-251.56
-274.44
-292.04
-299.49
-294.01
-276.28
-249.66
-218.12
-184.42
-149.21
-111.59
-70.69
-27.21
16.07
54.71
84.26
101.81
106.91
101.52
89.02
72.85
55.41
37.64
19.39
0.21
-19.93
-40.31
-59.53
-75.93
-88.00
-94.58
-95.02
-89.13
-77.12
-59.61
-37.49
-11.81
16.25
45.55
75.21
104.74
134.31
164.98
198.60
237.20
281.86
331.40
381.60
425.71
456.13
467.14
456.95
428.41
387.88
342.91
299.83
262.48
232.21
208.77
191.32
178.88
170.21
163.52
156.48
146.76
132.84
114.60
93.20
70.79
49.63
31.49
17.34
7.32
0.89
-2.86
-4.80
-5.65
-5.89
-5.78
-5.34
-4.52
-3.35
-1.99
-0.70
0.57
2.07
4.16
7.25
11.61
17.42
24.77
33.73
44.10
55.70
67.73
78.76
87.24
92.35
94.50
95.03
95.48
96.63
99.37
103.34
106.89
107.47
102.47
90.03
69.56
41.85
8.74
-24.55
-53.06
-74.07
-87.95
-97.15
-104.57
-112.42
-121.92
-133.90
-144.48
-150.14
-149.26
-142.37
-130.64
-114.30
-92.47
-64.09
-29.74
14.19
69.26
133.60
202.23
269.74
332.88
391.13
445.60
468.24
441.78
365.07
255.29
136.01
24.58
-70.95
-148.55
-203.65
-243.11
-267.37
-276.25
-271.49
-257.60
-239.92
-222.34
-207.79
-197.23
-191.71
-186.99
-179.35
-167.27
-151.91
-135.77
-120.98
-108.79
-99.65
-94.44
-90.55
-85.60
-78.54
-69.92
-61.08
-53.14
-46.69
-41.83
-38.98
-36.80
-34.15
-30.59
-26.50
-22.55
-19.26
-16.81
-15.08
-14.19
-13.55
-12.74
-11.61
-10.35
-9.21
-8.37
-7.81
-7.42
-7.15
-6.91
-6.67
-6.48
-6.40
-6.48
-6.72
-7.13
-7.67
-8.28
-8.89
-9.38
-9.63
-9.58
-9.24
-8.70
-8.09
-7.53
-7.07
-6.71
-6.37
-6.00
-5.54
-5.02
-4.44
-3.80
-3.08
-2.26
-1.35
-0.45
0.34
0.93
1.27
1.44
1.56
1.74
2.01
2.31
2.49
2.45
2.16
1.71
1.25
0.90
0.74
0.70
0.70
0.63
0.44
0.19
-0.07
-0.26
-0.39
-0.50
-0.65
-0.84
-1.05
-1.16
-1.08
-0.75
-0.20
0.45
1.09
1.59
1.89
2.01
1.97
1.81
1.57
1.26
0.93
0.58
0.24
-0.03
-0.18
-0.20
-0.10
0.03
0.10
0.07
-0.07
-0.24
-0.36
-0.36
-0.29
-0.22
-0.27
-0.49
-0.85
-1.27
-1.64
-1.87
-1.94
-1.81
-1.45
-0.87
-0.16
0.54
1.05
1.23
1.04
0.57
0.04
-0.33
-0.40
-0.15
0.30
0.76
1.05
1.07
0.84
0.45
0.02
-0.34
-0.59
-0.72
-0.78
-0.79
-0.75
-0.66
-0.53
-0.38
-0.27
-0.24
-0.29
-0.37
-0.43
-0.43
-0.41
-0.40
-0.44
-0.54
-0.62
-0.65
-0.58
-0.42
-0.22
0.00
0.21
0.41
0.57
0.65
0.59
0.38
0.06
-0.29
-0.54
-0.64
-0.60
-0.53
-0.53
-0.69
-1.01
-1.41
-1.79
-2.09
-2.29
-2.40
-2.45
-2.42
-2.30
-2.09
-1.81
-1.55
-1.34
-1.21
-1.10
-0.94
-0.68
-0.32
0.04
0.30
0.39
0.33
0.18
0.07
0.04
0.12
0.26
0.38
0.44
0.41
0.34
0.32
0.41
0.62
0.89
1.10
1.15
1.01
0.70
0.35
0.05
-0.15
-0.27
-0.38
-0.50
-0.61
-0.64
-0.53
-0.29
-0.02
0.14
0.10
-0.16
-0.49
-0.75
-0.83
-0.74
-0.54
-0.32
-0.16
-0.05
0.05
0.15
0.25
0.29
0.25
0.15
0.02
-0.07
-0.11
-0.10
-0.12
-0.20
-0.39
-0.65
-0.94
-1.15
-1.20
-1.05
-0.76
-0.42
-0.20
-0.21
-0.48
-0.94
-1.43
-1.83
-2.07
-2.17
-2.19
-2.21
-2.24
-2.31
-2.41
-2.64
-3.08
-3.85
-4.94
-6.27
-7.68
-9.00
-10.09
-10.92
-11.47
-11.71
-11.60
-11.09
-10.17
-8.94
-7.50
-5.92
-4.19
-2.23
0.04
2.61
5.31
7.84
9.89
11.26
11.90
11.93
11.55
11.04
10.64
10.46
10.50
10.60
10.61
10.37
9.81
9.00
8.20
7.68
7.55
7.68
7.75
7.44
6.57
5.17
3.45
1.80
0.52
-0.37
-1.20
-2.40
-4.25
-6.69
-9.43
-12.00
-13.74
-14.09
-12.95
-10.66
-7.83
-5.02
-2.53
-0.41
1.51
3.98
7.91
13.97
22.21
32.07
42.49
52.17
59.68
61.68
55.82
42.33
24.45
6.64
-7.76
-17.45
-22.76
-24.80
-24.76
-23.29
-20.73
-17.50
-14.32
-11.99
-11.04
-11.48
-13.05
-15.14
-16.89
-17.64
-17.11
-15.53
-13.42
-11.25
-9.30
-7.75
-6.60
-5.64
-4.59
-3.28
-1.75
-0.24
1.01
1.94
2.61
3.23
4.16
5.68
7.82
10.30
12.62
14.30
15.09
15.03
14.42
13.69
13.18
12.95
12.83
12.44
11.46
9.68
7.17
4.14
0.94
-2.11
-4.84
-7.21
-9.33
-11.30
-13.20
-14.96
-16.43
-17.40
-17.69
-17.23
-16.08
-14.43
-12.53
-10.60
-8.85
-7.39
-6.24
-5.39
-4.77
-4.27
-3.76
-3.06
-2.09
-0.82
0.61
1.99
3.03
3.52
3.35
2.50
1.09
-0.76
-2.85
-4.97
-6.86
-8.26
-9.01
-9.12
-8.76
-8.19
-7.66
-7.24
-6.86
-6.32
-5.47
-4.30
-2.98
-1.77
-0.92
-0.52
-0.52
-0.77
-1.13
-1.50
-1.83
-2.07
-2.14
-1.95
-1.52
-1.00
-0.67
-0.84
-1.71
-3.30
-5.51
-8.23
-11.44
-15.26
-19.75
-24.81
-30.04
-34.81
-38.46
-40.44
-40.49
-38.56
-34.81
-29.50
-23.01
-15.87
-8.70
-2.15
3.28
7.41
10.39
12.61
14.48
16.27
18.03
19.64
20.97
22.00
22.90
23.93
25.39
27.47
30.23
33.54
37.16
40.74
43.85
45.95
46.54
45.24
41.94
36.85
30.51
23.62
16.81
10.50
4.82
-0.36
-5.26
-10.08
-14.94
-19.81
-24.59
-29.11
-33.13
-36.40
-38.62
-39.50
-38.78
-36.37
-32.37
-27.17
-21.36
-15.58
-10.41
-6.13
-2.73
0.01
2.36
4.48
6.37
7.91
9.04
9.77
10.25
10.65
11.11
11.69
12.41
13.28
14.34
15.61
17.10
18.70
20.26
21.64
22.75
23.61
24.33
25.03
25.76
26.47
26.96
27.02
26.49
25.38
23.90
22.33
20.88
19.60
18.37
16.99
15.32
13.36
11.23
9.10
7.13
5.42
4.03
2.99
2.25
1.64
0.91
-0.20
-1.83
-3.89
-6.09
-8.07
-9.57
-10.57
-11.27
-12.05
-13.23
-14.98
-17.22
-19.58
-21.59
-22.79
-22.99
-22.29
-21.10
-19.97
-19.33
-19.32
-19.72
-20.12
-20.08
-19.39
-18.07
-16.36
-14.54
-12.85
-11.42
-10.28
-9.43
-8.87
-8.54
-8.38
-8.27
-8.13
-7.87
-7.45
-6.91
-6.28
-5.62
-4.95
-4.25
-3.48
-2.59
-1.53
-0.32
0.99
2.26
3.33
4.13
4.62
4.90
5.09
5.31
5.61
5.96
6.28
6.49
6.55
6.45
6.21
5.89
5.50
5.07
4.57
3.97
3.26
2.49
1.77
1.25
1.02
1.10
1.38
1.73
2.02
2.15
2.14
2.04
1.90
1.76
1.66
1.60
1.58
1.59
1.61
1.61
1.60
1.61
1.66
1.76
1.87
1.94
1.95
1.87
1.74
1.59
1.46
1.34
1.19
0.98
0.71
0.43
0.26
0.28
0.52
0.93
1.40
1.78
1.99
2.03
1.94
1.80
1.66
1.57
1.49
1.40
1.27
1.09
0.89
0.69
0.52
0.39
0.26
0.10
-0.16
-0.53
-0.96
-1.36
-1.60
-1.66
-1.55
-1.41
-1.37
-1.49
-1.73
-1.99
-2.15
-2.17
-2.10
-2.01
-1.97
-1.92
-1.81
-1.54
-1.14
-0.67
-0.28
-0.06
-0.03
-0.08
-0.11
-0.01
0.24
0.58
0.89
1.05
1.03
0.86
0.62
0.42
0.31
0.28
0.26
0.19
0.08
-0.03
-0.10
-0.12
-0.16
-0.27
-0.46
-0.66
-0.77
-0.70
-0.46
-0.14
0.10
0.21
0.20
0.15
0.14
0.19
0.27
0.32
0.30
0.26
0.25
0.32
0.45
0.60
0.70
0.70
0.61
0.46
0.33
0.25
0.25
0.29
0.31
0.25
0.08
-0.16
-0.41
-0.61
-0.73
-0.83
-0.97
-1.15
-1.30
-1.32
-1.13
-0.72
-0.24
0.17
0.40
0.43
0.37
0.34
0.43
0.63
0.84
0.95
0.90
0.74
0.57
0.48
0.51
0.62
0.70
0.65
0.42
0.06
-0.34
-0.68
-0.88
-0.90
-0.78
-0.54
-0.27
-0.05
0.03
-0.05
-0.24
-0.40
-0.41
-0.20
0.19
0.61
0.92
1.02
0.93
0.72
0.47
0.23
0.02
-0.17
-0.29
-0.31
-0.22
0.00
0.33
0.72
1.14
1.52
1.78
1.83
1.64
1.20
0.60
-0.01
-0.49
-0.75
-0.80
-0.72
-0.60
-0.50
-0.44
-0.35
-0.22
-0.01
0.24
0.42
0.46
0.31
-0.03
-0.47
-0.91
-1.28
-1.51
-1.57
-1.50
-1.29
-1.01
-0.71
-0.45
-0.28
-0.20
-0.19
-0.20
-0.19
-0.17
-0.16
-0.21
-0.35
-0.54
-0.72
-0.82
-0.79
-0.61
-0.34
-0.03
0.27
0.56
0.89
1.30
1.72
2.05
2.09
1.75
1.06
0.26
-0.36
-0.60
-0.45
-0.11
0.17
0.17
-0.09
-0.45
-0.70
-0.70
-0.46
-0.11
0.20
0.41
0.50
0.54
0.54
0.50
0.39
0.20
-0.04
-0.26
-0.38
-0.37
-0.24
-0.04
0.17
0.32
0.42
0.45
0.41
0.31
0.15
-0.06
-0.25
-0.36
-0.34
-0.17
0.09
0.33
0.43
0.35
0.08
-0.28
-0.62
-0.85
-0.96
-0.93
-0.83
-0.67
-0.49
-0.33
-0.20
-0.15
-0.16
-0.22
-0.27
-0.26
-0.11
0.18
0.60
1.04
1.40
1.55
1.46
1.16
0.73
0.30
-0.05
-0.29
-0.46
-0.61
-0.77
-0.90
-0.96
-0.92
-0.76
-0.54
-0.34
-0.23
-0.21
-0.26
-0.31
-0.29
-0.17
0.03
0.22
0.32
0.30
0.14
-0.11
-0.36
-0.55
-0.63
-0.60
-0.48
-0.32
-0.16
-0.02
0.08
0.14
0.14
0.08
-0.05
-0.21
-0.37
-0.44
-0.40
-0.24
-0.04
0.12
0.16
0.08
-0.07
-0.21
-0.25
-0.17
-0.01
0.19
0.39
0.59
0.80
1.03
1.24
1.37
1.40
1.33
1.18
1.00
0.81
0.60
0.36
0.12
-0.06
-0.08
0.07
0.34
0.62
0.82
0.90
0.94
1.02
1.21
1.50
1.81
2.09
2.30
2.47
2.62
2.77
2.90
3.02
3.18
3.46
3.93
4.60
5.36
6.01
6.40
6.44
6.19
5.86
5.65
5.70
5.97
6.28
6.38
6.10
5.44
4.54
3.67
3.06
2.81
2.81
2.75
2.21
0.79
-1.84
-5.82
-11.10
-17.27
-23.63
-29.18
-32.95
-34.32
-33.32
-30.63
-27.41
-24.72
-23.10
-22.41
-22.07
-21.45
-20.29
-18.74
-17.17
-15.82
-14.57
-13.05
-10.86
-7.87
-4.19
-0.17
3.89
7.80
11.54
15.02
18.05
20.34
21.55
21.53
20.36
18.32
15.86
13.40
11.23
9.51
8.24
7.32
6.66
6.14
5.65
5.11
4.47
3.73
2.97
2.34
1.99
1.99
2.25
2.60
2.86
2.92
2.85
2.76
2.78
2.94
3.16
3.33
3.34
3.19
2.92
2.56
2.15
1.71
1.28
0.91
0.67
0.58
0.67
0.88
1.11
1.27
1.29
1.11
0.73
0.20
-0.39
-0.95
-1.41
-1.78
-2.10
-2.43
-2.78
-3.12
-3.35
-3.39
-3.23
-2.88
-2.45
-1.96
-1.43
-0.80
-0.02
0.92
1.94
2.92
3.81
4.59
5.36
6.23
7.22
8.25
9.17
9.80
10.06
9.95
9.56
8.96
8.21
7.33
6.32
5.22
4.08
2.95
1.87
0.83
-0.17
-1.07
-1.81
-2.33
-2.59
-2.66
-2.63
-2.63
-2.71
-2.82
-2.88
-2.81
-2.62
-2.38
-2.20
-2.17
-2.29
-2.49
-2.69
-2.81
-2.83
-2.79
-2.72
-2.64
-2.53
-2.37
-2.16
-1.91
-1.66
-1.46
-1.34
-1.30
-1.34
-1.42
-1.47
-1.46
-1.34
-1.14
-0.86
-0.57
-0.31
-0.14
-0.07
-0.10
-0.16
-0.16
-0.02
0.31
0.77
1.26
1.65
1.85
1.88
1.78
1.68
1.61
1.60
1.59
1.54
1.42
1.23
1.01
0.80
0.63
0.52
0.45
0.40
0.33
0.21
0.02
-0.20
-0.42
-0.55
-0.58
-0.52
-0.44
-0.40
-0.46
-0.58
-0.69
-0.73
-0.67
-0.54
-0.42
-0.36
-0.39
-0.45
-0.48
-0.42
-0.31
-0.25
-0.31
-0.55
-0.92
-1.28
-1.52
-1.57
-1.45
-1.26
-1.09
-0.98
-0.89
-0.72
-0.45
-0.09
0.26
0.51
0.60
0.59
0.56
0.56
0.57
0.53
0.39
0.17
-0.07
-0.24
-0.26
-0.15
0.01
0.18
0.32
0.43
0.53
0.63
0.72
0.83
0.95
1.08
1.19
1.20
1.07
0.78
0.40
0.09
-0.05
0.05
0.29
0.51
0.58
0.45
0.16
-0.17
-0.48
-0.75
-1.04
-1.37
-1.68
-1.87
-1.82
-1.51
-1.02
-0.51
-0.12
0.06
0.04
-0.09
-0.25
-0.39
-0.48
-0.50
-0.44
-0.31
-0.13
0.03
0.11
0.07
-0.06
-0.24
-0.40
-0.48
-0.47
-0.39
-0.31
-0.26
-0.28
-0.35
-0.39
-0.34
-0.15
0.12
0.37
0.50
0.45
0.26
0.07
-0.00
0.11
0.39
0.73
1.03
1.21
1.30
1.35
1.39
1.42
1.41
1.28
1.04
0.70
0.33
-0.04
-0.37
-0.69
-0.99
-1.28
-1.53
-1.73
-1.88
-1.98
-2.07
-2.12
-2.14
-2.07
-1.91
-1.70
-1.47
-1.29
-1.18
-1.13
-1.11
-1.09
-1.07
-1.08
-1.11
-1.15
-1.16
-1.07
-0.81
-0.39
0.14
0.64
1.01
1.18
1.16
1.05
0.96
0.96
1.04
1.15
1.24
1.26
1.23
1.15
1.06
1.00
1.02
1.15
1.37
1.59
1.70
1.59
1.29
0.86
0.45
0.12
-0.08
-0.22
-0.33
-0.45
-0.56
-0.68
-0.81
-1.01
-1.29
-1.62
-1.96
-2.24
-2.42
-2.48
-2.42
-2.24
-1.96
-1.60
-1.23
-0.91
-0.64
-0.40
-0.13
0.22
0.65
1.11
1.53
1.86
2.05
2.07
1.91
1.61
1.22
0.84
0.58
0.51
0.61
0.78
0.90
0.85
0.60
0.21
-0.21
-0.53
-0.65
-0.55
-0.29
0.05
0.35
0.53
0.59
0.59
0.61
0.73
0.93
1.12
1.19
1.08
0.83
0.54
0.31
0.21
0.18
0.14
-0.01
-0.30
-0.70
-1.10
-1.43
-1.62
-1.66
-1.54
-1.33
-1.08
-0.87
-0.71
-0.55
-0.25
0.31
1.15
2.22
3.32
4.22
4.80
5.05
5.11
5.14
5.23
5.35
5.38
5.20
4.78
4.21
3.63
3.12
2.66
2.12
1.38
0.43
-0.62
-1.51
-2.04
-2.16
-1.97
-1.72
-1.61
-1.75
-2.12
-2.58
-2.99
-3.23
-3.29
-3.17
-2.99
-2.83
-2.75
-2.81
-2.95
-3.12
-3.24
-3.26
-3.19
-3.07
-2.94
-2.83
-2.74
-2.61
-2.40
-2.06
-1.59
-1.02
-0.43
0.08
0.42
0.51
0.38
0.09
-0.22
-0.41
-0.39
-0.18
0.11
0.32
0.33
0.10
-0.30
-0.70
-0.95
-0.96
-0.71
-0.31
0.13
0.51
0.81
1.05
1.26
1.45
1.61
1.65
1.55
1.31
0.96
0.56
0.16
-0.24
-0.66
-1.10
-1.50
-1.78
-1.86
-1.71
-1.40
-1.08
-0.88
-0.89
-1.06
-1.26
-1.32
-1.13
-0.70
-0.14
0.37
0.67
0.67
0.41
0.02
-0.35
-0.55
-0.55
-0.37
-0.09
0.21
0.49
0.79
1.10
1.46
1.84
2.19
2.47
2.66
2.76
2.74
2.61
2.36
2.04
1.71
1.44
1.28
1.24
1.31
1.45
1.65
1.88
2.09
2.17
2.01
1.53
0.77
-0.15
-0.99
-1.58
-1.82
-1.77
-1.58
-1.42
-1.43
-1.65
-2.03
-2.47
-2.87
-3.19
-3.44
-3.67
-3.91
-4.20
-4.53
-4.88
-5.18
-5.38
-5.37
-5.09
-4.56
-3.85
-3.11
-2.46
-1.99
-1.70
-1.52
-1.40
-1.30
-1.18
-1.01
-0.72
-0.27
0.32
0.92
1.39
1.60
1.55
1.38
1.26
1.33
1.59
1.91
2.11
2.06
1.79
1.43
1.15
1.11
1.30
1.63
1.94
2.07
1.99
1.74
1.45
1.24
1.18
1.27
1.45
1.67
1.85
1.99
2.09
2.17
2.25
2.30
2.27
2.11
1.83
1.44
1.00
0.59
0.23
-0.06
-0.30
-0.47
-0.56
-0.53
-0.40
-0.24
-0.15
-0.22
-0.48
-0.85
-1.19
-1.36
-1.30
-1.04
-0.66
-0.31
-0.10
-0.06
-0.15
-0.30
-0.45
-0.53
-0.54
-0.49
-0.40
-0.30
-0.20
-0.15
-0.16
-0.20
-0.27
-0.32
-0.31
-0.23
-0.11
0.01
0.09
0.10
0.05
-0.02
-0.09
-0.15
-0.22
-0.29
-0.36
-0.39
-0.32
-0.14
0.13
0.44
0.75
1.02
1.21
1.32
1.32
1.17
0.89
0.48
0.02
-0.39
-0.65
-0.69
-0.53
-0.20
0.19
0.55
0.81
0.92
0.88
0.73
0.51
0.31
0.17
0.13
0.15
0.16
0.09
-0.10
-0.37
-0.64
-0.80
-0.77
-0.56
-0.23
0.12
0.40
0.57
0.61
0.53
0.37
0.19
0.02
-0.08
-0.14
-0.18
-0.24
-0.34
-0.45
-0.52
-0.51
-0.42
-0.25
-0.03
0.22
0.47
0.69
0.86
0.95
0.94
0.83
0.66
0.46
0.26
0.05
-0.13
-0.30
-0.45
-0.54
-0.55
-0.47
-0.27
0.01
0.31
0.51
0.54
0.35
-0.01
-0.41
-0.71
-0.86
-0.83
-0.72
-0.64
-0.67
-0.83
-1.05
-1.24
-1.29
-1.13
-0.76
-0.25
0.27
0.64
0.76
0.62
0.33
0.05
-0.06
0.07
0.37
0.73
1.00
1.12
1.08
0.92
0.69
0.45
0.19
-0.05
-0.25
-0.37
-0.35
-0.20
0.02
0.23
0.34
0.31
0.14
-0.08
-0.28
-0.35
-0.25
-0.02
0.24
0.42
0.43
0.28
0.04
-0.18
-0.30
-0.30
-0.23
-0.14
-0.08
-0.05
-0.00
0.12
0.32
0.56
0.77
0.87
0.83
0.68
0.48
0.29
0.14
0.03
-0.08
-0.19
-0.29
-0.35
-0.33
-0.23
-0.09
0.04
0.16
0.25
0.35
0.49
0.64
0.76
0.77
0.64
0.39
0.12
-0.07
-0.13
-0.06
0.10
0.22
0.23
0.09
-0.19
-0.53
-0.85
-1.07
-1.13
-1.05
-0.90
-0.79
-0.80
-0.96
-1.20
-1.40
-1.45
-1.31
-1.06
-0.82
-0.67
-0.63
-0.61
-0.53
-0.37
-0.18
-0.06
-0.08
-0.20
-0.34
-0.39
-0.31
-0.14
0.03
0.14
0.17
0.14
0.13
0.16
0.19
0.18
0.04
-0.27
-0.71
-1.16
-1.48
-1.53
-1.29
-0.82
-0.31
0.06
0.17
0.04
-0.16
-0.24
-0.08
0.34
0.91
1.44
1.80
1.92
1.85
1.71
1.61
1.59
1.64
1.68
1.65
1.55
1.43
1.35
1.34
1.38
1.39
1.28
1.00
0.59
0.14
-0.20
-0.35
-0.34
-0.31
-0.42
-0.77
-1.32
-1.91
-2.31
-2.34
-1.98
-1.39
-0.78
-0.32
-0.06
0.07
0.22
0.47
0.85
1.27
1.66
1.96
2.14
2.27
2.37
2.46
2.54
2.58
2.58
2.57
2.60
2.70
2.91
3.17
3.43
3.61
3.69
3.67
3.64
3.69
3.86
4.13
4.43
4.67
4.81
4.87
4.94
5.08
5.32
5.64
6.01
6.42
6.89
7.43
7.96
8.29
8.24
7.65
6.52
4.99
3.33
1.78
0.52
-0.44
-1.23
-2.07
-3.17
-4.71
-6.77
-9.33
-12.28
-15.40
-18.43
-21.07
-23.10
-24.43
-25.11
-25.31
-25.19
-24.85
-24.26
-23.30
-21.84
-19.90
-17.56
-15.00
-12.33
-9.62
-6.88
-4.22
-1.82
0.06
1.24
1.70
1.67
1.50
1.56
2.06
3.05
4.39
5.91
7.43
8.86
10.09
11.11
11.91
12.55
13.10
13.60
14.08
14.47
14.72
14.75
14.55
14.11
13.44
12.53
11.34
9.86
8.06
5.96
3.59
0.97
-1.83
-4.75
-7.71
-10.58
-13.22
-15.52
-17.37
-18.71
-19.53
-19.84
-19.65
-19.00
-17.91
-16.41
-14.47
-12.08
-9.26
-6.12
-2.82
0.38
3.25
5.63
7.52
9.05
10.38
11.61
12.75
13.69
14.35
14.72
14.83
14.75
14.47
13.96
13.16
12.08
10.82
9.52
8.32
7.28
6.40
5.59
4.74
3.77
2.63
1.31
-0.09
-1.46
-2.68
-3.67
-4.44
-5.04
-5.51
-5.85
-5.99
-5.90
-5.57
-5.06
-4.45
-3.81
-3.14
-2.42
-1.62
-0.81
-0.06
0.54
0.97
1.28
1.55
1.83
2.08
2.24
2.22
2.04
1.78
1.59
1.58
1.79
2.14
2.49
2.65
2.48
2.00
1.35
0.73
0.35
0.27
0.41
0.60
0.66
0.51
0.22
-0.04
-0.17
-0.14
-0.07
-0.13
-0.35
-0.68
-0.93
-0.94
-0.67
-0.23
0.22
0.54
0.68
0.65
0.52
0.33
0.15
-0.00
-0.08
-0.06
0.03
0.12
0.12
-0.03
-0.28
-0.53
-0.66
-0.62
-0.47
-0.27
-0.11
0.00
0.08
0.13
0.14
0.04
-0.15
-0.39
-0.55
-0.55
-0.36
-0.06
0.21
0.37
0.39
0.36
0.37
0.48
0.67
0.79
0.72
0.40
-0.08
-0.55
-0.83
-0.82
-0.54
-0.11
0.32
0.66
0.86
0.98
1.07
1.17
1.25
1.24
1.10
0.83
0.49
0.16
-0.08
-0.18
-0.18
-0.13
-0.12
-0.15
-0.21
-0.21
-0.10
0.13
0.37
0.50
0.44
0.18
-0.16
-0.44
-0.56
-0.51
-0.35
-0.19
-0.08
-0.00
0.11
0.31
0.53
0.66
0.60
0.30
-0.13
-0.51
-0.66
-0.53
-0.21
0.14
0.38
0.44
0.38
0.27
0.19
0.13
0.05
-0.10
-0.27
-0.42
-0.47
-0.42
-0.28
-0.17
-0.14
-0.22
-0.37
-0.50
-0.53
-0.44
-0.27
-0.07
0.06
0.09
0.01
-0.12
-0.24
-0.31
-0.32
-0.31
-0.31
-0.36
-0.45
-0.55
-0.65
-0.71
-0.74
-0.75
-0.73
-0.68
-0.61
-0.54
-0.49
-0.45
-0.40
-0.28
-0.04
0.31
0.71
1.07
1.29
1.31
1.12
0.78
0.34
-0.11
-0.51
-0.82
-1.04
-1.15
-1.16
-1.04
-0.78
-0.39
0.04
0.41
0.61
0.62
0.52
0.42
0.44
0.60
0.80
0.92
0.90
0.75
0.57
0.47
0.45
0.44
0.33
0.07
-0.27
-0.54
-0.64
-0.52
-0.30
-0.14
-0.20
-0.49
-0.91
-1.26
-1.38
-1.23
-0.90
-0.59
-0.45
-0.57
-0.90
-1.30
-1.65
-1.89
-2.04
-2.16
-2.31
-2.48
-2.60
-2.58
-2.35
-1.93
-1.39
-0.83
-0.34
0.05
0.37
0.67
0.98
1.30
1.59
1.81
1.96
2.06
2.12
2.14
2.06
1.87
1.57
1.23
0.95
0.78
0.72
0.68
0.59
0.38
0.10
-0.18
-0.36
-0.43
-0.44
-0.47
-0.59
-0.76
-0.90
-0.94
-0.84
-0.64
-0.41
-0.24
-0.15
-0.13
-0.13
-0.11
-0.05
0.04
0.14
0.24
0.33
0.42
0.50
0.58
0.63
0.64
0.57
0.39
0.10
-0.22
-0.49
-0.60
-0.50
-0.23
0.12
0.43
0.64
0.71
0.66
0.53
0.34
0.12
-0.09
-0.27
-0.35
-0.31
-0.12
0.18
0.56
0.93
1.19
1.28
1.15
0.86
0.53
0.28
0.20
0.28
0.43
0.51
0.41
0.15
-0.21
-0.53
-0.71
-0.72
-0.59
-0.42
-0.27
-0.19
-0.15
-0.12
-0.05
0.04
0.10
0.04
-0.17
-0.50
-0.84
-1.04
-0.98
-0.65
-0.13
0.44
0.90
1.15
1.17
0.99
0.71
0.41
0.19
0.11
0.16
0.31
0.47
0.60
0.64
0.59
0.47
0.31
0.12
-0.08
-0.24
-0.31
-0.25
-0.06
0.22
0.53
0.77
0.88
0.82
0.55
0.13
-0.34
-0.75
-0.94
-0.88
-0.59
-0.22
0.07
0.19
0.13
-0.05
-0.23
-0.37
-0.47
-0.56
-0.65
-0.70
-0.65
-0.49
-0.25
-0.02
0.11
0.08
-0.11
-0.37
-0.62
-0.75
-0.77
-0.69
-0.60
-0.57
-0.60
-0.70
-0.86
-1.06
-1.34
-1.71
-2.16
-2.62
-2.96
-3.11
-3.02
-2.76
-2.45
-2.18
-1.97
-1.80
-1.60
-1.33
-0.99
-0.62
-0.22
0.21
0.71
1.26
1.84
2.38
2.83
3.16
3.40
3.56
3.69
3.79
3.89
3.98
4.02
3.93
3.61
2.98
2.04
0.86
-0.38
-1.52
-2.45
-3.19
-3.78
-4.26
-4.61
-4.80
-4.81
-4.66
-4.47
-4.37
-4.46
-4.73
-5.10
-5.42
-5.59
-5.55
-5.25
-4.75
-4.21
-3.78
-3.58
-3.60
-3.72
-3.78
-3.62
-3.06
-2.11
-1.03
-0.13
0.38
0.51
0.51
0.70
1.34
2.78
5.04
7.84
10.71
13.21
15.13
16.48
17.46
18.47
20.30
23.54
28.31
34.05
39.58
43.36
43.95
40.46
31.64
18.31
3.21
-10.14
-19.38
-24.02
-24.82
-22.90
-19.34
-15.79
-12.88
-11.28
-11.48
-13.40
-16.22
-18.73
-20.05
-20.15
-19.24
-18.18
-17.99
-19.18
-21.47
-24.03
-25.94
-26.81
-26.81
-26.44
-26.05
-25.77
-25.58
-25.52
-25.89
-26.97
-28.78
-30.53
-30.88
-28.39
-22.25
-12.78
-1.53
9.14
16.91
20.33
19.58
15.86
10.76
5.60
1.36
-1.34
-2.26
-1.44
0.69
3.86
7.42
10.42
12.02
12.19
11.79
11.97
13.87
18.01
25.10
35.36
48.21
62.36
76.14
87.87
95.93
99.51
94.22
79.00
57.16
34.59
15.74
1.81
-7.19
-13.26
-17.42
-20.11
-21.26
-21.52
-22.56
-26.25
-33.40
-43.08
-53.12
-60.88
-64.56
-63.26
-57.54
-49.13
-40.12
-32.05
-25.52
-20.52
-16.54
-13.09
-9.50
-5.28
-0.35
5.16
11.10
17.48
24.21
31.08
37.54
42.99
46.92
49.00
49.19
47.75
45.07
41.46
37.24
32.70
28.22
24.09
20.36
16.83
13.20
9.32
5.30
1.57
-1.43
-3.39
-4.33
-4.50
-4.19
-3.60
-2.76
-1.61
-0.20
1.28
2.53
3.29
3.39
2.83
1.65
-0.09
-2.29
-4.85
-7.65
-10.66
-14.04
-18.14
-23.32
-29.69
-36.90
-44.19
-50.65
-55.63
-58.90
-60.62
-61.05
-60.23
-57.91
-53.76
-47.65
-39.92
-31.28
-22.62
-14.71
-8.00
-2.60
1.58
4.73
7.01
8.57
9.52
9.94
9.86
9.27
8.11
6.37
4.16
1.71
-0.64
-2.50
-3.54
-3.50
-2.23
0.24
3.74
7.87
12.15
16.03
19.11
21.20
22.30
22.58
22.22
21.36
20.09
18.48
16.61
14.63
12.77
11.25
10.25
9.81
9.87
10.26
10.82
11.40
11.90
12.27
12.41
12.22
11.58
10.46
9.00
7.51
6.28
5.53
5.31
5.56
6.12
6.88
7.76
8.74
9.81
10.69
11.09
10.89
10.20
9.36
8.79
8.80
9.51
10.80
11.95
12.25
11.33
9.25
6.34
2.89
-0.95
-5.14
-9.53
-14.47
-20.03
-25.74
-30.74
-34.26
-36.05
-36.36
-35.70
-34.53
-34.02
-35.09
-38.11
-42.93
-49.24
-56.77
-65.33
-74.63
-79.84
-77.79
-68.30
-54.41
-39.78
-26.67
-15.74
-6.81
-0.17
5.61
10.89
15.71
20.16
24.36
28.34
32.14
35.60
38.69
41.79
44.60
46.83
48.26
48.75
48.27
47.11
45.96
45.71
47.34
50.95
56.00
61.58
66.73
69.07
67.36
62.14
55.22
48.63
43.28
39.19
35.96
33.05
29.76
24.93
17.48
6.38
-8.33
-25.21
-41.83
-55.81
-65.98
-72.44
-76.53
-78.72
-79.13
-77.31
-72.90
-66.65
-60.58
-57.26
-58.33
-65.66
-77.14
-90.27
-101.85
-108.08
-105.24
-90.56
-63.41
-25.76
16.78
58.68
94.69
122.41
142.87
159.20
174.17
184.76
191.85
186.11
164.37
127.38
80.91
33.99
-4.77
-30.58
-43.73
-48.01
-49.09
-49.57
-49.84
-48.47
-44.19
-37.33
-30.05
-25.00
-23.37
-25.23
-28.13
-29.65
-28.19
-23.84
-18.03
-12.83
-9.86
-9.24
-10.38
-11.41
-10.97
-8.66
-5.29
-2.21
-0.79
-1.60
-4.04
-7.07
-9.38
-10.56
-11.23
-13.19
-17.44
-24.39
-33.23
-41.99
-48.75
-52.11
-52.13
-49.60
-47.12
-46.65
-49.42
-55.72
-64.50
-73.24
-78.16
-75.13
-61.28
-36.83
-5.24
27.41
54.85
73.32
82.92
87.07
90.55
97.19
107.91
119.82
128.68
129.34
118.76
97.24
68.53
38.23
12.62
-5.02
-15.19
-20.99
-26.20
-32.95
-40.61
-47.00
-50.67
-51.48
-51.64
-53.99
-60.17
-70.00
-81.77
-93.50
-103.18
-110.12
-112.93
-109.75
-98.66
-78.93
-52.38
-23.18
3.37
23.19
34.56
38.73
38.35
35.93
32.78
28.95
24.28
19.21
14.95
12.69
13.03
15.35
18.20
20.24
20.62
19.66
18.47
18.48
20.40
24.30
29.33
34.18
37.58
38.74
37.61
34.76
31.05
27.22
23.74
20.68
17.86
15.06
12.13
9.17
6.38
4.01
2.21
1.13
0.83
1.34
2.65
4.63
7.06
9.57
11.74
13.25
14.08
14.52
15.08
16.27
18.36
21.20
24.27
26.95
28.72
29.49
29.60
29.65
30.31
32.17
35.67
40.87
47.26
53.40
57.15
56.16
48.80
35.04
16.77
-2.78
-20.19
-33.04
-40.61
-43.55
-43.23
-40.83
-36.94
-31.74
-25.47
-18.75
-12.56
-8.15
-6.20
-6.64
-8.58
-10.61
-11.29
-9.66
-5.49
0.69
7.76
14.57
20.21
24.30
27.00
28.78
30.14
31.29
32.13
32.30
31.45
29.38
26.19
22.16
17.62
12.81
7.77
2.43
-3.28
-9.28
-15.21
-20.54
-24.60
-26.85
-26.95
-24.91
-21.15
-16.50
-12.08
-9.17
-8.99
-12.27
-18.98
-28.03
-37.45
-44.90
-48.45
-47.33
-42.31
-35.40
-29.10
-25.43
-25.26
-28.09
-32.55
-37.07
-40.46
-42.23
-42.29
-40.59
-36.83
-30.45
-21.04
-8.86
4.80
17.72
27.33
31.53
29.55
22.36
12.45
3.13
-2.65
-3.33
0.66
7.02
12.39
13.67
9.30
-0.21
-12.30
-23.52
-30.87
-32.93
-30.38
-25.96
-24.00
-29.31
-45.44
-72.76
-106.91
-138.91
-157.50
-153.43
-123.86
-74.51
-18.03
30.97
61.94
72.33
67.36
56.40
47.84
45.79
49.67
56.33
62.71
67.47
70.73
72.78
73.11
70.11
62.38
50.04
35.17
21.20
11.65
8.62
11.80
18.73
25.78
29.83
29.55
25.57
19.92
15.21
13.58
15.52
20.18
25.16
28.04
27.39
22.94
15.44
7.05
0.86
-0.69
4.39
15.72
31.82
50.76
69.87
85.98
97.17
103.30
104.82
103.91
101.65
99.06
97.00
94.85
90.10
80.58
65.30
42.72
13.02
-24.97
-71.26
-117.26
-150.23
-162.16
-154.25
-133.54
-117.76
-108.52
-105.35
-107.06
-113.34
-119.76
-127.04
-136.59
-139.24
-130.48
-109.83
-83.05
-55.45
-29.81
-7.36
10.25
22.44
30.01
33.24
34.30
34.24
34.84
37.14
40.76
43.55
43.76
40.94
34.78
26.81
16.82
7.15
-1.06
-8.04
-15.36
-24.21
-34.71
-46.53
-55.09
-60.61
-62.76
-62.01
-59.61
-57.36
-56.69
-58.55
-63.72
-72.10
-82.72
-91.86
-94.67
-86.60
-65.70
-34.10
2.25
35.63
59.81
72.04
74.33
70.96
65.98
61.50
57.44
52.79
47.15
41.23
36.24
33.38
32.70
33.11
33.13
31.52
28.07
23.63
19.60
17.17
17.03
18.97
22.01
24.88
26.86
27.27
26.27
24.57
22.96
22.10
22.23
23.15
24.38
25.33
25.54
24.89
23.61
22.16
21.16
21.12
22.28
24.50
27.27
29.84
31.69
32.57
32.66
32.46
32.59
33.59
35.88
39.76
45.20
51.63
57.53
60.53
58.11
48.74
32.80
12.82
-7.38
-24.09
-35.11
-40.32
-41.20
-39.76
-37.52
-35.12
-32.57
-29.80
-27.10
-24.97
-23.78
-23.46
-23.45
-23.05
-21.70
-19.35
-16.47
-13.83
-12.12
-11.67
-12.27
-13.28
-13.93
-13.63
-12.24
-10.10
-7.92
-6.44
-6.08
-6.77
-7.93
-8.68
-8.25
-6.34
-3.23
0.36
3.57
5.85
7.13
7.81
8.47
9.55
11.10
12.81
14.17
14.73
14.23
12.68
10.24
7.23
4.03
1.12
-0.99
-1.95
-1.71
-0.61
0.66
1.40
1.19
0.06
-1.48
-2.78
-3.34
-3.05
-2.17
-1.16
-0.47
-0.31
-0.65
-1.24
-1.68
-1.61
-0.79
0.81
2.88
4.80
5.73
4.83
1.55
-4.11
-11.53
-19.61
-27.08
-32.91
-36.53
-37.87
-37.30
-35.31
-32.40
-28.91
-25.11
-21.23
-17.43
-13.76
-10.08
-6.16
-1.87
2.60
6.65
9.47
10.32
8.91
5.51
0.81
-4.32
-9.17
-13.24
-16.27
-18.01
-18.20
-16.69
-13.47
-8.82
-3.22
2.72
8.32
12.92
16.03
17.46
17.42
16.52
15.46
14.72
14.27
13.56
11.80
8.44
3.61
-1.80
-6.40
-8.84
-8.37
-5.17
-0.17
5.29
10.08
13.59
15.83
17.17
17.95
18.37
18.39
18.03
17.44
16.91
16.62
16.43
15.81
14.13
10.98
6.45
1.19
-3.87
-7.92
-10.50
-11.67
-11.77
-11.28
-10.55
-9.78
-9.03
-8.31
-7.64
-7.04
-6.55
-6.16
-5.82
-5.45
-5.03
-4.57
-4.08
-3.60
-3.13
-2.65
-2.15
-1.61
-1.01
-0.37
0.24
0.72
0.95
0.84
0.42
-0.12
-0.53
-0.60
-0.26
0.37
1.04
1.47
1.56
1.36
1.07
0.88
0.85
0.92
0.97
0.97
0.95
1.07
1.45
2.06
2.79
3.41
3.76
3.81
3.61
3.25
2.77
2.17
1.47
0.71
0.04
-0.44
-0.72
-0.87
-1.07
-1.49
-2.20
-3.21
-4.42
-5.74
-7.04
-8.25
-9.28
-10.05
-10.47
-10.54
-10.26
-9.69
-8.84
-7.68
-6.16
-4.27
-2.04
0.39
2.80
4.95
6.62
7.64
8.00
7.79
7.20
6.49
5.85
5.41
5.12
4.87
4.49
3.90
3.13
2.32
1.64
1.19
0.95
0.81
0.67
0.49
0.38
0.50
1.03
2.01
3.26
4.47
5.30
5.51
5.11
4.35
3.54
2.93
2.60
2.48
2.37
2.14
1.75
1.26
0.77
0.34
-0.04
-0.46
-0.98
-1.63
-2.36
-3.08
-3.70
-4.19
-4.57
-4.90
-5.22
-5.52
-5.76
-5.86
-5.80
-5.65
-5.56
-5.63
-5.92
-6.35
-6.74
-6.94
-6.90
-6.71
-6.57
-6.66
-7.09
-7.82
-8.66
-9.32
-9.50
-8.97
-7.67
-5.70
-3.34
-0.90
1.33
3.27
4.96
6.48
7.89
9.07
9.83
9.98
9.49
8.57
7.51
6.62
6.01
5.66
5.42
5.18
4.93
4.72
4.64
4.71
4.90
5.14
5.42
5.75
6.17
6.71
7.30
7.81
8.12
8.14
7.91
7.54
7.18
6.95
6.86
6.80
6.61
6.18
5.43
4.41
3.18
1.81
0.35
-1.17
-2.73
-4.27
-5.71
-6.97
-8.00
-8.83
-9.52
-10.17
-10.82
-11.48
-12.07
-12.51
-12.75
-12.77
-12.62
-12.34
-11.92
-11.28
-10.43
-9.41
-8.39
-7.57
-7.10
-6.99
-7.11
-7.31
-7.44
-7.45
-7.38
-7.30
-7.19
-7.00
-6.67
-6.18
-5.59
-5.03
-4.62
-4.42
-4.37
-4.35
-4.24
-3.95
-3.42
-2.59
-1.41
0.21
2.24
4.51
6.71
8.50
9.65
10.13
10.15
10.00
9.99
10.28
10.91
11.82
12.89
14.00
14.98
15.71
16.06
15.96
15.38
14.35
12.92
11.15
9.13
7.02
5.06
3.50
2.53
2.21
2.42
2.98
3.67
4.43
5.32
6.50
8.08
10.06
12.26
14.38
16.11
17.22
17.64
17.37
16.51
15.12
13.28
11.08
8.61
6.02
3.48
1.13
-0.87
-2.44
-3.53
-4.18
-4.45
-4.54
-4.69
-5.12
-5.97
-7.17
-8.46
-9.54
-10.16
-10.25
-9.95
-9.52
-9.14
-8.91
-8.74
-8.50
-8.10
-7.54
-6.89
-6.25
-5.69
-5.23
-4.91
-4.76
-4.87
-5.28
-5.95
-6.78
-7.59
-8.23
-8.66
-8.95
-9.25
-9.67
-10.23
-10.85
-11.38
-11.72
-11.78
-11.51
-10.80
-9.46
-7.33
-4.34
-0.62
3.43
7.25
10.25
11.99
12.29
11.29
9.34
6.99
4.81
3.32
2.92
3.85
6.14
9.63
13.89
18.33
22.22
24.89
25.78
24.62
21.44
16.59
10.57
3.98
-2.54
-8.43
-13.25
-16.75
-18.92
-19.99
-20.30
-20.15
-19.61
-18.50
-16.49
-13.26
-8.80
-3.38
2.48
8.23
13.44
17.96
21.77
25.01
27.80
30.16
32.01
33.08
33.01
31.42
28.09
23.08
16.76
9.78
2.82
-3.53
-8.88
-13.07
-16.11
-18.23
-19.77
-21.18
-22.79
-24.74
-26.84
-28.67
-29.75
-29.82
-28.96
-27.56
-26.18
-25.30
-25.09
-25.38
-25.79
-25.83
-25.08
-23.37
-20.73
-17.31
-13.32
-8.89
-4.02
1.36
7.37
14.09
21.52
29.52
37.61
44.98
50.41
52.71
51.14
45.81
37.77
28.72
20.33
13.57
8.35
3.70
-1.58
-8.10
-15.42
-22.15
-26.53
-27.27
-24.08
-17.65
-9.26
-0.25
8.32
15.66
21.16
24.24
24.54
22.16
17.86
12.81
8.14
4.44
1.52
-1.19
-4.27
-7.82
-11.43
-14.53
-16.81
-18.48
-20.13
-22.42
-25.76
-30.05
-34.76
-39.04
-41.97
-42.73
-40.76
-35.90
-28.51
-19.43
-9.87
-1.11
5.84
10.36
12.37
12.17
10.31
7.42
4.15
1.10
-1.19
-2.27
-1.94
-0.30
2.22
5.04
7.59
9.62
11.22
12.71
14.47
16.62
18.93
20.87
21.90
21.61
19.99
17.37
14.34
11.53
9.43
8.26
7.95
8.18
8.56
8.77
8.66
8.25
7.63
6.87
5.96
4.84
3.48
1.93
0.36
-1.06
-2.23
-3.16
-3.91
-4.53
-4.90
-4.70
-3.62
-1.43
1.79
5.69
9.76
13.53
16.74
19.35
21.47
23.26
24.81
26.09
27.07
27.73
28.14
28.38
28.54
28.58
28.37
27.66
26.27
24.18
21.53
18.56
15.39
11.92
7.91
3.22
-1.98
-7.18
-11.72
-15.12
-17.27
-18.44
-19.04
-19.36
-19.50
-19.54
-19.75
-20.70
-23.04
-27.07
-32.39
-37.79
-41.65
-42.56
-39.89
-34.08
-26.50
-18.86
-12.57
-8.29
-5.76
-4.12
-2.33
0.33
4.00
8.28
12.44
15.68
17.38
17.19
14.97
10.73
4.64
-2.96
-11.48
-20.07
-27.75
-33.59
-36.99
-37.91
-36.78
-34.39
-31.55
-28.89
-26.69
-24.97
-23.65
-22.69
-22.18
-22.26
-22.98
-24.12
-25.22
-25.63
-24.74
-22.21
-18.10
-12.80
-6.89
-0.95
4.65
9.69
14.14
18.09
21.68
25.05
28.24
31.15
33.48
34.90
35.20
34.37
32.62
30.18
27.13
23.36
18.68
13.09
7.02
1.24
-3.37
-6.23
-7.29
-7.08
-6.48
-6.33
-7.17
-9.03
-11.52
-13.97
-15.66
-16.01
-14.76
-11.95
-7.91
-3.12
1.90
6.75
11.13
14.83
17.77
19.91
21.30
22.09
22.47
22.66
22.82
23.03
23.26
23.40
23.36
23.07
22.56
21.85
21.01
20.05
18.89
17.42
15.47
12.90
9.71
6.03
2.13
-1.64
-5.01
-7.84
-10.14
-12.05
-13.76
-15.40
-16.97
-18.39
-19.44
-19.90
-19.59
-18.42
-16.54
-14.28
-12.12
-10.51
-9.70
-9.57
-9.73
-9.62
-8.75
-6.98
-4.63
-2.36
-0.97
-0.99
-2.45
-4.81
-7.23
-8.92
-9.54
-9.29
-8.71
-8.28
-8.12
-7.81
-6.70
-4.22
-0.13
5.38
11.93
18.91
25.42
29.99
30.67
25.58
13.95
-3.02
-22.08
-38.88
-49.67
-52.70
-48.86
-40.86
-31.80
-23.81
-17.48
-12.34
-7.71
-3.41
0.18
2.54
3.60
3.88
4.21
5.34
7.52
10.56
13.92
16.97
19.17
20.17
19.92
18.65
16.82
14.90
13.11
11.32
9.19
6.44
3.13
-0.30
-3.25
-5.33
-6.63
-7.59
-8.68
-10.05
-11.38
-12.06
-11.55
-9.62
-6.52
-2.83
0.77
3.74
5.82
7.03
7.60
7.80
7.81
7.64
7.15
6.18
4.67
2.73
0.63
-1.28
-2.74
-3.62
-3.95
-3.89
-3.60
-3.25
-2.87
-2.45
-1.88
-1.11
-0.13
0.95
1.97
2.76
3.25
3.50
3.66
3.88
4.19
4.52
4.65
4.41
3.80
3.03
2.44
2.39
3.01
4.12
5.24
5.76
5.33
4.04
2.45
1.39
1.60
3.31
6.10
9.00
10.90
11.14
9.79
7.74
6.27
6.55
9.00
13.08
17.30
19.87
19.61
16.65
12.43
9.25
9.24
13.25
20.44
28.18
33.23
33.46
29.06
22.38
17.12
16.98
24.13
38.76
58.39
78.32
92.90
96.58
85.05
57.15
16.23
-30.06
-71.20
-97.87
-105.33
-94.95
-73.74
-51.61
-36.71
-30.47
-29.58
-25.51
-10.45
15.47
42.71
60.93
63.31
49.09
22.97
-8.50
-38.10
-61.40
-77.84
-89.22
-98.34
-107.16
-115.96
-123.63
-128.85
-130.76
-130.00
-128.01
-121.01
-106.38
-84.25
-57.38
-29.24
-2.36
21.48
40.44
52.73
57.78
56.10
49.75
42.60
37.32
35.36
36.39
38.68
40.17
39.73
37.03
32.96
29.19
27.36
28.58
32.20
37.01
41.62
45.01
46.45
45.86
43.68
40.44
36.75
32.96
29.35
26.08
23.30
20.88
18.67
16.54
14.40
12.20
9.93
7.70
5.61
3.79
2.24
0.89
-0.37
-1.69
-3.18
-4.84
-6.54
-8.07
-9.23
-9.90
-10.07
-9.89
-9.56
-9.28
-9.15
-9.18
-9.27
-9.33
-9.28
-9.09
-8.77
-8.35
-7.89
-7.46
-7.15
-7.05
-7.16
-7.42
-7.68
-7.79
-7.61
-7.11
-6.29
-5.24
-4.00
-2.67
-1.33
-0.09
0.93
1.68
2.18
2.48
2.68
2.76
2.68
2.35
1.75
0.97
0.21
-0.30
-0.39
0.00
0.78
1.73
2.62
3.25
3.52
3.41
3.00
2.42
1.76
1.07
0.39
-0.29
-0.89
-1.33
-1.51
-1.38
-1.03
-0.66
-0.51
-0.74
-1.32
-2.05
-2.66
-2.92
-2.76
-2.25
-1.55
-0.74
0.17
1.31
2.73
4.40
6.09
7.50
8.37
8.54
7.91
6.40
3.88
0.35
-3.96
-8.52
-12.66
-15.90
-18.18
-19.94
-21.82
-24.29
-27.29
-30.30
-32.57
-33.53
-32.99
-31.15
-28.32
-24.74
-20.50
-15.63
-10.29
-4.78
0.51
5.23
9.21
12.39
14.86
16.68
17.92
18.61
18.80
18.61
18.18
17.65
17.13
16.67
16.27
15.87
15.41
14.85
14.16
13.36
12.52
11.70
11.00
10.48
10.16
10.03
10.03
10.03
9.93
9.66
9.22
8.69
8.21
7.84
7.59
7.40
7.17
6.83
6.40
5.89
5.33
4.67
3.88
2.96
2.01
1.23
0.76
0.65
0.80
1.01
1.12
1.07
0.93
0.83
0.84
0.97
1.14
1.27
1.31
1.26
1.13
0.89
0.49
-0.12
-0.94
-1.93
-2.96
-3.90
-4.67
-5.21
-5.53
-5.63
-5.55
-5.29
-4.87
-4.32
-3.74
-3.21
-2.82
-2.60
-2.50
-2.42
-2.22
-1.80
-1.13
-0.28
0.65
1.52
2.19
2.60
2.77
2.78
2.74
2.75
2.85
3.00
3.11
3.11
2.97
2.75
2.54
2.39
2.26
2.04
1.61
0.95
0.13
-0.66
-1.22
-1.44
-1.36
-1.10
-0.85
-0.78
-0.95
-1.35
-1.90
-2.45
-2.84
-2.94
-2.67
-2.03
-1.14
-0.16
0.71
1.32
1.64
1.71
1.62
1.42
1.13
0.73
0.22
-0.33
-0.83
-1.20
-1.44
-1.59
-1.74
-1.97
-2.29
-2.61
-2.85
-2.88
-2.68
-2.26
-1.72
-1.17
-0.75
-0.59
-0.77
-1.30
-2.12
-3.04
-3.89
-4.46
-4.67
-4.51
-4.05
-3.43
-2.71
-1.93
-1.06
-0.07
1.00
2.05
2.91
3.43
3.53
3.23
2.59
1.68
0.54
-0.81
-2.35
-3.96
-5.46
-6.63
-7.27
-7.28
-6.73
-5.76
-4.59
-3.38
-2.25
-1.20
-0.23
0.68
1.48
2.08
2.38
2.28
1.78
0.99
0.10
-0.66
-1.18
-1.46
-1.65
-1.89
-2.24
-2.62
-2.83
-2.68
-2.07
-1.10
0.04
1.12
2.00
2.66
3.13
3.44
3.59
3.57
3.38
3.12
2.94
2.96
3.24
3.71
4.22
4.60
4.74
4.68
4.50
4.30
4.15
3.99
3.73
3.26
2.58
1.77
0.98
0.28
-0.30
-0.86
-1.48
-2.16
-2.82
-3.29
-3.45
-3.26
-2.84
-2.37
-1.99
-1.78
-1.67
-1.56
-1.36
-1.08
-0.76
-0.46
-0.16
0.21
0.72
1.34
1.98
2.46
2.68
2.63
2.40
2.16
2.02
2.01
2.10
2.25
2.46
2.78
3.21
3.70
4.10
4.31
4.23
3.91
3.47
3.05
2.76
2.62
2.57
2.53
2.40
2.09
1.60
0.98
0.36
-0.08
-0.24
-0.09
0.24
0.57
0.71
0.59
0.24
-0.20
-0.62
-0.98
-1.27
-1.51
-1.72
-1.88
-1.97
-1.98
-1.96
-1.95
-1.98
-2.08
-2.19
-2.30
-2.36
-2.36
-2.30
-2.18
-2.01
-1.76
-1.44
-1.03
-0.55
-0.03
0.50
0.97
1.32
1.52
1.55
1.44
1.25
1.07
0.97
0.96
0.99
0.95
0.76
0.38
-0.13
-0.66
-1.08
-1.32
-1.41
-1.40
-1.40
-1.47
-1.65
-1.91
-2.23
-2.60
-3.02
-3.47
-3.94
-4.36
-4.65
-4.72
-4.55
-4.16
-3.65
-3.16
-2.79
-2.59
-2.52
-2.48
-2.35
-2.05
-1.57
-0.91
-0.17
0.59
1.28
1.85
2.29
2.63
2.91
3.19
3.49
3.77
3.98
4.03
3.93
3.72
3.48
3.27
3.09
2.87
2.53
2.03
1.42
0.88
0.54
0.49
0.70
1.01
1.24
1.28
1.14
0.92
0.74
0.68
0.71
0.75
0.69
0.53
0.30
0.10
-0.01
-0.04
-0.04
-0.07
-0.21
-0.47
-0.82
-1.16
-1.37
-1.35
-1.10
-0.69
-0.27
-0.00
-0.00
-0.26
-0.65
-1.02
-1.23
-1.23
-1.08
-0.85
-0.63
-0.44
-0.27
-0.12
-0.01
0.04
0.02
-0.02
-0.01
0.13
0.41
0.77
1.07
1.18
1.05
0.74
0.37
0.06
-0.13
-0.24
-0.35
-0.52
-0.76
-1.00
-1.14
-1.12
-0.94
-0.65
-0.35
-0.07
0.17
0.43
0.77
1.20
1.70
2.21
2.62
2.84
2.82
2.59
2.25
1.92
1.68
1.53
1.38
1.12
0.65
-0.05
-0.94
-1.89
-2.81
-3.64
-4.39
-5.06
-5.64
-6.13
-6.46
-6.61
-6.53
-6.22
-5.68
-4.93
-4.04
-3.10
-2.21
-1.44
-0.83
-0.38
-0.07
0.11
0.21
0.25
0.30
0.44
0.73
1.18
1.69
2.12
2.37
2.41
2.29
2.15
2.11
2.23
2.43
2.58
2.57
2.36
1.99
1.60
1.29
1.09
0.96
0.85
0.71
0.56
0.43
0.39
0.39
0.37
0.24
-0.06
-0.49
-0.98
-1.44
-1.76
-1.90
-1.82
-1.54
-1.14
-0.70
-0.36
-0.18
-0.14
-0.12
0.04
0.45
1.09
1.81
2.37
2.56
2.31
1.75
1.08
0.56
0.30
0.29
0.36
0.35
0.14
-0.23
-0.61
-0.85
-0.83
-0.58
-0.19
0.18
0.45
0.55
0.48
0.29
0.05
-0.17
-0.31
-0.33
-0.28
-0.25
-0.34
-0.59
-0.97
-1.33
-1.53
-1.44
-1.10
-0.62
-0.16
0.15
0.28
0.31
0.35
0.50
0.76
1.07
1.29
1.32
1.15
0.83
0.45
0.09
-0.23
-0.55
-0.91
-1.31
-1.66
-1.81
-1.67
-1.23
-0.65
-0.15
0.12
0.11
-0.07
-0.26
-0.37
-0.40
-0.45
-0.60
-0.83
-1.02
-1.00
-0.71
-0.21
0.29
0.62
0.72
0.65
0.59
0.64
0.81
0.98
1.01
0.85
0.53
0.17
-0.09
-0.19
-0.14
-0.08
-0.11
-0.30
-0.65
-1.10
-1.55
-1.94
-2.23
-2.46
-2.66
-2.82
-2.85
-2.71
-2.40
-2.02
-1.77
-1.79
-2.14
-2.74
-3.24
-3.28
-2.74
-1.79
-0.85
-0.36
-0.54
-1.37
-2.59
-3.60
-3.88
-3.27
-2.13
-1.13
-0.84
-1.57
-3.19
-5.27
-6.85
-6.98
-5.33
-2.41
0.71
3.03
4.00
3.72
2.96
3.41
6.92
14.68
26.66
41.66
57.53
71.44
80.42
79.26
64.76
38.18
5.66
-24.98
-48.00
-61.19
-65.25
-62.53
-55.92
-47.58
-38.93
-30.79
-23.53
-16.98
-10.60
-3.90
3.05
9.52
14.82
18.86
21.41
22.15
20.80
17.40
12.39
6.54
0.69
-4.03
-6.74
-7.18
-5.81
-3.50
-1.16
0.61
1.65
2.19
2.82
4.08
6.17
8.74
11.15
12.75
13.09
12.11
10.16
7.99
6.57
6.78
9.24
14.15
21.32
30.09
39.41
48.05
54.71
58.31
58.24
54.66
48.46
40.96
33.24
25.97
19.40
13.40
7.73
2.12
-3.65
-9.70
-16.28
-23.98
-32.98
-42.77
-52.29
-60.37
-66.27
-69.70
-70.62
-69.14
-65.96
-61.53
-56.02
-49.57
-42.68
-36.17
-30.87
-27.30
-25.87
-27.64
-33.21
-42.27
-53.55
-65.28
-75.83
-84.20
-90.03
-88.59
-77.99
-59.98
-38.75
-17.96
0.66
16.60
28.78
38.19
45.48
50.46
53.23
54.42
54.98
55.30
55.57
55.87
56.49
57.40
57.80
56.84
53.92
48.85
41.74
32.91
22.90
12.60
2.80
-5.98
-13.23
-18.51
-21.64
-22.92
-23.00
-22.65
-22.47
-22.82
-23.72
-24.85
-25.82
-26.32
-26.18
-25.37
-23.93
-21.93
-19.58
-16.75
-13.25
-8.98
-3.95
1.79
8.19
15.07
22.07
28.52
34.31
39.52
44.44
49.44
54.97
61.31
68.32
75.38
78.33
74.03
61.55
42.70
20.72
-1.06
-19.67
-32.76
-39.12
-39.31
-34.86
-28.33
-22.53
-19.66
-20.74
-25.39
-32.00
-38.02
-40.54
-36.69
-25.57
-9.38
7.20
19.14
23.65
21.38
16.05
10.67
7.12
5.14
3.17
0.02
-3.86
-6.51
-5.91
-1.51
5.10
11.26
14.53
13.81
9.72
4.01
-1.33
-4.88
-6.11
-5.51
-4.09
-2.95
-2.83
-3.78
-5.05
-5.54
-4.60
-2.14
1.13
4.04
5.56
5.31
3.78
2.10
1.40
2.26
4.43
6.98
8.76
8.94
7.33
4.49
1.43
-0.85
-1.76
-1.32
-0.18
0.85
1.23
0.93
0.57
1.12
3.57
8.53
15.93
24.94
33.89
40.44
42.11
37.03
24.77
6.87
-13.32
-31.62
-44.44
-49.95
-48.53
-42.36
-34.33
-27.09
-22.34
-20.70
-22.03
-25.76
-31.11
-37.24
-43.15
-47.85
-50.46
-50.46
-47.81
-43.05
-37.21
-31.52
-27.04
-24.22
-22.86
-22.17
-21.21
-19.30
-16.28
-12.46
-8.29
-4.20
-0.41
3.03
6.22
9.46
13.28
18.27
24.83
32.75
41.10
48.51
53.60
55.66
54.80
51.74
47.25
41.80
35.51
28.40
20.78
13.32
6.91
2.22
-0.48
-1.38
-0.86
0.62
2.71
5.10
7.51
9.61
11.15
12.05
12.49
12.74
13.00
13.22
13.21
12.75
11.80
10.44
8.96
7.69
6.90
6.76
7.33
8.60
10.49
12.87
15.52
18.22
20.75
22.95
24.76
26.18
27.29
28.16
28.77
28.97
28.47
26.90
23.99
19.76
14.52
8.82
3.24
-1.83
-6.25
-10.04
-13.26
-15.88
-17.80
-18.90
-19.21
-18.93
-18.41
-18.00
-17.86
-17.99
-18.21
-18.33
-18.18
-17.75
-17.19
-16.81
-16.82
-17.26
-17.97
-18.73
-19.31
-19.57
-19.47
-19.04
-18.36
-17.48
-16.27
-14.57
-12.23
-9.16
-5.34
-0.86
4.07
9.04
13.60
17.49
20.56
22.71
23.31
21.91
18.75
14.78
10.83
7.28
4.30
1.93
0.13
-1.17
-1.90
-2.49
-2.71
-2.54
-2.26
-2.03
-1.93
-1.97
-2.12
-2.35
-2.77
-3.69
-4.61
-5.60
-6.68
-7.84
-9.14
-10.66
-12.41
-14.22
-15.66
-16.23
-15.69
-14.03
-11.59
-8.94
-6.58
-4.71
-3.25
-2.03
-1.04
-0.65
-1.19
-2.80
-5.18
-7.74
-9.78
-10.83
-10.82
-10.04
-8.90
-7.72
-6.54
-5.33
-4.06
-2.80
-1.72
-0.92
-0.38
0.03
0.58
1.54
3.02
5.02
7.34
9.72
11.92
13.76
15.19
16.22
16.97
17.52
17.90
18.14
18.24
18.31
18.47
18.85
19.51
20.37
21.24
21.88
22.12
21.86
21.12
19.95
18.38
16.39
13.95
11.11
8.02
4.94
2.13
-0.17
-1.91
-3.18
-4.20
-5.18
-6.24
-7.38
-8.57
-9.75
-10.95
-12.28
-13.86
-15.79
-18.10
-20.74
-23.65
-26.82
-30.24
-33.96
-37.99
-42.27
-46.61
-50.61
-53.81
-55.73
-56.14
-55.07
-52.88
-50.04
-47.03
-44.08
-41.18
-38.13
-34.69
-30.72
-26.22
-21.32
-16.22
-11.10
-6.07
-1.18
3.61
8.33
13.00
17.53
21.74
25.37
28.23
30.22
31.42
32.01
32.22
32.20
32.05
31.79
31.41
30.96
30.47
29.99
29.52
28.97
28.22
27.16
25.71
23.90
21.85
19.74
17.75
15.99
14.48
13.15
11.89
10.59
9.18
7.67
6.10
4.56
3.15
1.91
0.88
0.05
-0.62
-1.14
-1.51
-1.70
-1.63
-1.20
-0.34
0.99
2.74
4.78
6.89
8.87
10.51
11.71
12.49
12.94
13.17
13.27
13.24
13.02
12.56
11.86
11.05
10.31
9.83
9.70
9.86
10.09
10.10
9.66
8.64
7.06
5.06
2.79
0.36
-2.13
-4.63
-7.10
-9.47
-11.71
-13.86
-16.04
-18.38
-20.95
-23.66
-26.24
-28.33
-29.60
-29.85
-29.10
-27.50
-25.27
-22.61
-19.70
-16.72
-13.87
-11.36
-9.32
-7.69
-6.22
-4.56
-2.47
0.06
2.79
5.30
7.24
8.49
9.18
9.58
9.94
10.39
10.86
11.20
11.27
11.02
10.51
9.86
9.25
8.85
8.77
9.06
9.69
10.56
11.58
12.72
13.95
15.27
16.62
17.81
18.59
18.75
18.20
17.04
15.46
13.73
12.02
10.39
8.82
7.25
5.65
4.06
2.50
0.98
-0.51
-2.04
-3.74
-5.72
-8.13
-11.10
-14.71
-18.94
-23.66
-28.63
-33.54
-38.13
-42.13
-45.31
-47.45
-48.32
-47.69
-45.39
-41.36
-35.68
-28.56
-20.33
-11.40
-2.21
6.81
15.31
22.96
29.53
34.84
38.79
41.35
42.57
42.56
41.49
39.59
37.05
34.04
30.72
27.20
23.62
20.09
16.72
13.60
10.75
8.17
5.82
3.64
1.61
-0.28
-2.00
-3.56
-4.99
-6.38
-7.81
-9.33
-10.88
-12.31
-13.42
-14.04
-14.08
-13.56
-12.63
-11.46
-10.24
-9.09
-8.12
-7.33
-6.72
-6.25
-5.87
-5.53
-5.20
-4.84
-4.50
-4.25
-4.22
-4.51
-5.15
-6.07
-7.10
-8.10
-8.98
-9.82
-10.78
-12.08
-13.85
-16.07
-18.55
-21.03
-23.19
-24.86
-25.96
-26.60
-26.92
-27.10
-27.23
-27.34
-27.38
-27.24
-26.84
-26.06
-24.80
-22.98
-20.61
-17.84
-14.95
-12.37
-10.43
-9.30
-8.83
-8.67
-8.39
-7.66
-6.44
-4.88
-3.26
-1.82
-0.70
0.08
0.54
0.67
0.51
0.13
-0.30
-0.56
-0.39
0.33
1.60
3.29
5.19
7.08
8.83
10.38
11.77
13.09
14.41
15.79
17.17
18.48
19.60
20.45
20.99
21.22
21.19
20.91
20.44
19.84
19.21
18.66
18.28
18.06
17.95
17.87
17.74
17.54
17.28
16.95
16.57
16.14
15.67
15.16
14.63
14.06
13.47
12.90
12.41
12.10
12.09
12.40
13.02
13.83
14.66
15.33
15.62
15.34
14.38
12.73
10.53
8.01
5.42
2.94
0.64
-1.50
-3.54
-5.46
-7.18
-8.59
-9.61
-10.30
-10.82
-11.32
-11.84
-12.31
-12.56
-12.44
-11.91
-11.10
-10.29
-9.77
-9.73
-10.22
-11.11
-12.20
-13.31
-14.39
-15.51
-16.77
-18.25
-19.89
-21.53
-22.94
-23.90
-24.20
-23.66
-22.13
-19.55
-16.01
-11.86
-7.68
-4.10
-1.62
-0.38
-0.12
-0.28
-0.31
0.13
1.10
2.42
3.88
5.32
6.75
8.26
9.95
11.80
13.78
15.79
17.83
19.94
22.17
24.52
26.82
28.83
30.29
31.00
30.81
29.69
27.59
24.50
20.49
15.76
10.63
5.53
0.86
-3.16
-6.51
-9.37
-11.95
-14.31
-16.30
-17.64
-18.07
-17.50
-16.05
-14.05
-11.83
-9.60
-7.41
-5.20
-2.93
-0.67
1.44
3.26
4.73
5.87
6.79
7.55
8.18
8.67
9.00
9.18
9.29
9.44
9.68
10.00
10.31
10.54
10.57
10.22
9.33
7.76
5.50
2.71
-0.39
-3.46
-6.10
-8.00
-9.04
-9.19
-8.48
-6.88
-4.35
-1.03
3.04
7.95
13.75
20.22
26.79
32.76
37.36
39.96
39.87
37.09
32.42
26.96
21.38
15.75
9.77
3.03
-4.58
-13.26
-22.23
-29.70
-33.90
-34.21
-31.31
-26.76
-22.37
-19.81
-21.08
-27.08
-37.01
-48.93
-60.54
-69.32
-72.70
-68.68
-52.40
-25.38
3.66
25.36
36.04
37.30
32.94
26.53
20.31
15.05
9.91
4.37
-0.87
-4.66
-6.51
-6.69
-5.94
-5.07
-4.69
-5.59
-7.67
-9.78
-10.56
-9.40
-6.60
-3.10
0.08
2.02
1.95
-0.08
-3.11
-5.94
-7.93
-8.94
-9.24
-9.19
-8.91
-8.34
-6.90
-3.86
1.07
7.34
14.04
20.13
24.94
28.39
30.91
33.50
37.19
42.44
47.68
51.66
53.34
52.12
47.80
40.62
31.64
22.13
12.99
4.69
-2.14
-6.88
-8.89
-7.79
-3.50
4.28
15.65
30.02
46.26
63.22
79.16
91.58
97.17
89.89
66.97
32.49
-4.36
-34.83
-54.54
-64.00
-66.29
-64.77
-61.60
-56.88
-50.02
-41.74
-33.59
-27.16
-23.56
-22.61
-23.12
-23.48
-22.04
-18.15
-13.34
-10.54
-10.28
-12.65
-16.74
-21.14
-24.60
-26.48
-27.24
-29.32
-34.45
-43.20
-55.03
-68.25
-81.04
-92.05
-101.10
-103.20
-101.13
-98.09
-96.46
-97.87
-102.71
-109.72
-115.48
-114.91
-102.99
-78.15
-42.27
-1.11
37.32
66.24
82.76
88.40
87.38
84.01
79.95
75.44
69.92
63.29
56.55
51.40
49.06
49.38
50.91
51.28
48.96
43.91
37.39
31.25
27.24
26.10
27.31
29.43
30.54
29.56
26.58
22.74
19.57
18.46
19.87
23.21
27.20
30.44
32.13
32.36
32.38
32.94
34.89
38.68
44.28
51.07
57.77
62.36
62.52
56.41
43.54
25.50
5.54
-12.53
-25.78
-33.16
-35.57
-34.98
-33.23
-31.37
-29.43
-27.14
-24.50
-21.99
-20.30
-19.85
-20.44
-21.33
-21.61
-20.54
-18.06
-14.72
-11.44
-9.11
-8.24
-8.68
-9.67
-10.17
-9.34
-7.01
-3.75
-0.58
1.51
1.86
0.71
-0.87
-1.49
-0.13
3.19
7.52
11.41
13.57
13.18
10.53
7.13
4.88
5.13
7.93
12.06
15.66
17.10
15.12
9.89
3.20
-2.43
-5.06
-4.24
-0.83
3.45
6.50
5.31
-2.81
-19.12
-42.66
-70.12
-96.16
-114.51
-120.00
-106.63
-75.62
-36.53
-2.19
19.17
27.35
27.50
25.40
24.21
23.95
22.31
17.79
11.33
5.66
3.29
4.85
8.96
13.25
15.71
15.04
11.53
7.07
3.97
3.76
6.43
10.72
14.95
17.72
18.19
16.52
13.93
12.01
11.76
13.01
14.48
14.47
11.67
5.63
-2.85
-12.05
-20.01
-25.47
-28.08
-28.39
-27.47
-26.24
-25.24
-24.45
-23.49
-21.92
-19.52
-16.34
-12.62
-8.62
-4.65
-1.09
1.54
2.72
2.24
0.41
-1.85
-3.42
-3.49
-2.00
0.15
1.55
0.91
-2.24
-7.21
-12.48
-16.32
-17.60
-16.16
-12.78
-8.76
-5.35
-3.38
-2.94
-3.57
-4.42
-4.62
-3.53
-0.98
2.63
6.47
9.63
11.42
11.70
10.88
9.78
9.33
10.26
13.00
17.55
23.47
29.93
35.78
39.87
41.41
40.34
37.34
33.62
30.32
28.08
26.81
25.92
24.73
22.91
20.53
17.98
15.61
13.58
11.79
10.08
8.39
6.81
5.53
4.70
4.28
4.04
3.66
2.80
1.32
-0.73
-3.13
-5.59
-7.84
-9.67
-10.99
-11.77
-12.06
-12.00
-11.84
-11.86
-12.27
-13.16
-14.39
-15.64
-16.54
-16.65
-15.63
-13.22
-9.40
-4.42
1.17
6.55
10.91
13.64
14.53
13.88
12.22
10.18
8.16
6.28
4.45
2.52
0.46
-1.57
-3.32
-4.56
-5.28
-5.61
-5.87
-6.25
-6.78
-7.23
-7.29
-6.77
-5.70
-4.32
-2.93
-1.77
-0.84
0.02
1.03
2.29
3.72
5.10
6.25
7.16
7.93
8.72
9.50
10.07
10.04
8.99
6.78
3.69
0.28
-2.84
-5.24
-6.85
-7.81
-8.35
-8.84
-9.38
-9.84
-10.06
-9.94
-9.54
-8.98
-8.27
-7.43
-6.81
-6.58
-6.62
-6.77
-6.86
-6.75
-6.38
-5.61
-4.40
-3.35
-2.77
-2.45
-2.03
-1.08
0.79
3.84
8.61
15.37
23.41
31.92
40.17
47.17
52.00
54.17
51.53
43.60
35.10
28.29
22.56
17.36
12.06
6.31
0.29
-5.41
-9.77
-12.08
-12.81
-12.49
-11.28
-9.22
-6.24
-2.33
2.19
6.89
10.92
12.81
11.55
7.02
-0.35
-9.73
-20.15
-30.74
-40.68
-49.30
-56.43
-61.82
-65.09
-65.96
-64.38
-60.50
-54.66
-47.25
-38.73
-29.82
-21.14
-13.17
-6.31
-0.80
3.27
5.97
7.44
7.84
7.23
5.70
3.44
0.84
-1.63
-3.46
-4.25
-3.81
-2.16
0.63
4.52
9.50
15.43
21.93
28.29
33.67
37.44
39.35
39.58
38.41
35.95
32.00
26.30
18.95
10.67
2.65
-3.89
-8.29
-10.71
-11.91
-12.79
-13.92
-15.32
-16.71
-17.82
-18.70
-19.67
-21.06
-22.90
-24.84
-26.30
-26.66
-25.54
-22.81
-18.68
-13.45
-7.53
-1.38
4.56
9.85
14.17
17.33
19.30
20.18
20.10
19.21
17.66
15.60
13.20
10.65
8.09
5.62
3.27
0.99
-1.21
-3.30
-5.14
-6.60
-7.60
-8.21
-8.69
-9.37
-10.52
-12.17
-14.09
-15.75
-16.62
-16.28
-14.62
-11.89
-8.61
-5.34
-2.58
-0.58
0.60
1.08
1.05
0.66
0.08
-0.54
-1.04
-1.34
-1.47
-1.58
-1.86
-2.46
-3.36
-4.38
-5.22
-5.59
-5.29
-4.19
-2.22
0.65
4.36
8.67
13.21
17.54
21.33
24.37
26.54
27.68
27.45
25.52
21.75
16.52
10.77
5.67
2.22
0.75
0.86
1.67
2.29
2.25
1.65
0.96
0.62
0.82
1.37
1.93
2.22
2.24
2.15
2.14
2.27
2.36
2.13
1.43
0.30
-1.00
-2.09
-2.69
-2.75
-2.42
-1.96
-1.63
-1.56
-1.75
-2.07
-2.29
-2.11
-1.26
0.37
2.70
5.33
7.72
9.31
9.81
9.31
8.21
7.09
6.43
6.40
6.86
7.47
7.82
7.60
6.69
5.11
3.03
0.68
-1.64
-3.65
-5.15
-6.03
-6.32
-6.11
-5.57
-4.87
-4.23
-3.85
-3.87
-4.29
-4.93
-5.47
-5.56
-5.03
-3.93
-2.55
-1.24
-0.29
0.26
0.56
0.83
1.22
1.72
2.17
2.38
2.23
1.76
1.09
0.39
-0.25
-0.86
-1.53
-2.32
-3.18
-3.98
-4.48
-4.55
-4.17
-3.44
-2.57
-1.71
-0.94
-0.22
0.53
1.39
2.36
3.35
4.22
4.85
5.17
5.26
5.24
5.29
5.54
5.99
6.56
7.13
7.59
7.89
8.07
8.19
8.29
8.36
8.39
8.38
8.41
8.55
8.84
9.16
9.31
9.07
8.28
6.95
5.21
3.22
1.06
-1.30
-3.97
-6.92
-9.96
-12.74
-14.81
-15.92
-16.08
-15.57
-14.84
-14.24
-13.93
-13.79
-13.53
-12.89
-11.74
-10.18
-8.45
-6.80
-5.35
-4.13
-3.03
-1.99
-1.02
-0.24
0.22
0.28
0.01
-0.39
-0.69
-0.69
-0.35
0.23
0.83
1.27
1.43
1.39
1.32
1.45
1.89
2.65
3.57
4.43
5.07
5.38
5.35
5.03
4.50
3.82
3.07
2.36
1.76
1.32
1.00
0.71
0.38
0.01
-0.29
-0.35
-0.04
0.62
1.47
2.23
2.63
2.53
1.95
1.04
0.02
-0.94
-1.71
-2.24
-2.49
-2.45
-2.13
-1.62
-1.04
-0.54
-0.21
-0.07
-0.04
0.02
0.23
0.61
1.05
1.42
1.57
1.49
1.24
0.99
0.86
0.93
1.13
1.34
1.42
1.31
1.01
0.56
0.05
-0.47
-0.98
-1.48
-1.96
-2.43
-2.84
-3.12
-3.22
-3.10
-2.79
-2.40
-2.07
-2.03
-2.53
-3.76
-5.82
-8.57
-11.60
-14.38
-16.35
-17.23
-17.08
-16.30
-15.47
-15.08
-15.37
-16.29
-17.52
-18.65
-19.28
-18.95
-17.19
-13.66
-8.48
-2.35
3.43
7.48
8.98
8.16
6.27
4.98
5.57
8.27
12.21
15.95
18.29
18.76
17.71
15.91
13.97
12.14
10.35
8.48
6.63
5.11
4.30
4.44
5.44
6.91
8.33
9.23
9.38
8.85
7.94
7.06
6.50
6.37
6.52
6.68
6.59
6.11
5.30
4.32
3.37
2.56
1.90
1.30
0.68
-0.01
-0.74
-1.48
-2.17
-2.76
-3.23
-3.53
-3.64
-3.55
-3.30
-2.94
-2.54
-2.11
-1.61
-0.95
-0.03
1.20
2.72
4.38
5.95
7.12
7.63
7.31
6.16
4.36
2.23
0.13
-1.65
-2.96
-3.82
-4.34
-4.67
-4.91
-5.09
-5.22
-5.25
-5.16
-4.89
-4.44
-3.79
-2.94
-1.97
-0.99
-0.16
0.41
0.68
0.71
0.68
0.76
1.03
1.45
1.87
2.15
2.16
1.90
1.40
0.73
-0.00
-0.69
-1.19
-1.37
-1.19
-0.68
-0.01
0.63
1.09
1.34
1.40
1.30
1.05
0.60
-0.09
-0.93
-1.74
-2.28
-2.38
-2.00
-1.31
-0.60
-0.15
-0.14
-0.59
-1.34
-2.18
-2.90
-3.35
-3.48
-3.31
-2.88
-2.26
-1.56
-0.91
-0.42
-0.22
-0.34
-0.72
-1.24
-1.75
-2.13
-2.37
-2.50
-2.60
-2.72
-2.87
-3.04
-3.18
-3.27
-3.30
-3.24
-3.04
-2.70
-2.23
-1.70
-1.22
-0.86
-0.61
-0.41
-0.20
0.04
0.23
0.23
-0.01
-0.47
-1.00
-1.42
-1.59
-1.44
-1.05
-0.55
-0.12
0.10
0.04
-0.28
-0.78
-1.32
-1.75
-1.94
-1.80
-1.29
-0.40
0.77
2.07
3.27
4.12
4.44
4.19
3.51
2.66
1.89
1.42
1.28
1.44
1.73
2.03
2.22
2.23
2.07
1.79
1.49
1.29
1.28
1.49
1.89
2.38
2.81
3.07
3.10
2.94
2.67
2.38
2.12
1.91
1.71
1.51
1.29
1.05
0.79
0.48
0.11
-0.36
-0.88
-1.34
-1.65
-1.73
-1.62
-1.38
-1.13
-0.95
-0.90
-1.00
-1.22
-1.52
-1.81
-2.00
-1.98
-1.71
-1.23
-0.64
-0.07
0.36
0.62
0.70
0.63
0.43
0.13
-0.23
-0.56
-0.76
-0.75
-0.52
-0.11
0.39
0.87
1.27
1.54
1.69
1.73
1.64
1.44
1.14
0.76
0.39
0.12
-0.01
0.02
0.18
0.39
0.62
0.80
0.89
0.90
0.83
0.76
0.73
0.78
0.91
1.03
1.05
0.90
0.55
0.06
-0.43
-0.79
-0.95
-0.91
-0.74
-0.56
-0.45
-0.46
-0.57
-0.76
-1.01
-1.31
-1.65
-1.99
-2.26
-2.41
-2.41
-2.28
-2.09
-1.91
-1.75
-1.60
-1.45
-1.32
-1.26
-1.34
-1.55
-1.82
-2.04
-2.13
-2.07
-1.89
-1.65
-1.35
-0.95
-0.41
0.24
0.87
1.35
1.58
1.61
1.59
1.72
2.10
2.71
3.37
3.88
4.12
4.05
3.74
3.30
2.86
2.48
2.20
2.03
1.99
2.05
2.16
2.22
2.13
1.82
1.31
0.70
0.12
-0.32
-0.64
-0.90
-1.20
-1.57
-1.97
-2.30
-2.48
-2.51
-2.49
-2.52
-2.67
-2.95
-3.28
-3.57
-3.76
-3.78
-3.62
-3.27
-2.76
-2.17
-1.65
-1.30
-1.15
-1.12
-1.09
-0.92
-0.61
-0.23
0.07
0.19
0.14
0.05
0.08
0.33
0.83
1.48
2.14
2.71
3.11
3.32
3.32
3.10
2.68
2.07
1.35
0.61
-0.04
-0.53
-0.85
-0.99
-1.03
-1.06
-1.17
-1.43
-1.85
-2.38
-2.91
-3.28
-3.33
-2.98
-2.24
-1.25
-0.24
0.53
0.87
0.71
0.13
-0.68
-1.46
-2.05
-2.35
-2.42
-2.37
-2.37
-2.51
-2.79
-3.08
-3.24
-3.10
-2.63
-1.88
-0.97
-0.05
0.75
1.36
1.78
2.01
2.10
2.08
1.99
1.88
1.77
1.70
1.66
1.63
1.54
1.35
1.06
0.74
0.52
0.57
0.95
1.62
2.42
3.14
3.58
3.72
3.63
3.41
3.18
2.95
2.74
2.54
2.40
2.39
2.50
2.70
2.85
2.81
2.53
2.03
1.40
0.74
0.11
-0.46
-0.95
-1.33
-1.52
-1.48
-1.22
-0.81
-0.37
-0.02
0.19
0.27
0.26
0.23
0.21
0.21
0.18
0.11
0.01
-0.08
-0.09
-0.01
0.13
0.27
0.35
0.34
0.30
0.28
0.34
0.47
0.64
0.79
0.88
0.92
0.91
0.85
0.68
0.39
-0.00
-0.43
-0.80
-1.05
-1.18
-1.21
-1.19
-1.11
-0.98
-0.80
-0.62
-0.50
-0.53
-0.73
-1.03
-1.31
-1.44
-1.37
-1.13
-0.80
-0.54
-0.43
-0.55
-0.84
-1.23
-1.57
-1.79
-1.87
-1.82
-1.74
-1.64
-1.53
-1.37
-1.13
-0.84
-0.61
-0.54
-0.71
-1.08
-1.58
-2.09
-2.56
-2.96
-3.33
-3.71
-4.11
-4.52
-4.93
-5.34
-5.72
-6.04
-6.22
-6.19
-5.95
-5.55
-5.14
-4.85
-4.73
-4.70
-4.58
-4.17
-3.32
-2.03
-0.44
1.24
2.85
4.28
5.53
6.62
7.55
8.33
8.92
9.36
9.66
9.87
9.98
9.84
9.27
8.11
6.35
4.14
1.77
-0.52
-2.56
-4.27
-5.68
-6.79
-7.55
-7.90
-7.82
-7.37
-6.71
-6.03
-5.47
-5.13
-5.07
-5.25
-5.56
-5.83
-5.89
-5.59
-4.77
-3.35
-1.40
0.88
3.27
5.62
7.85
9.92
11.84
13.82
16.11
18.65
21.01
22.61
23.12
22.60
21.57
20.81
21.13
22.63
24.21
23.89
19.93
11.79
0.43
-12.12
-23.44
-31.06
-33.04
-28.58
-18.24
-3.69
12.42
26.74
35.75
35.13
22.67
1.18
-22.36
-41.18
-51.62
-53.10
-47.15
-36.36
-23.73
-11.63
-1.43
6.17
11.02
13.35
13.70
12.32
9.40
5.42
1.42
-1.32
-2.09
-0.99
1.31
4.11
6.85
9.14
10.73
11.58
11.89
11.83
11.62
11.58
12.03
12.97
13.95
14.27
13.42
11.49
9.21
7.66
7.81
9.87
13.09
15.85
16.38
13.69
8.11
1.40
-4.04
-6.08
-3.84
2.37
11.26
20.81
28.23
29.95
22.29
3.06
-26.30
-59.87
-88.00
-100.85
-93.11
-67.11
-32.42
-1.81
14.35
12.25
-4.69
-27.88
-47.95
-58.82
-59.37
-52.26
-41.57
-30.84
-22.21
-16.81
-14.53
-14.59
-16.10
-18.17
-19.49
-18.03
-11.61
3.08
24.28
46.11
62.57
70.34
68.98
60.29
47.85
35.88
27.64
23.85
23.18
23.36
22.28
18.95
13.85
8.55
4.30
1.76
0.52
0.08
0.39
1.59
3.58
5.73
7.14
6.98
4.92
1.00
-4.05
-9.14
-13.48
-16.13
-16.90
-16.15
-14.56
-12.69
-10.90
-9.16
-7.21
-4.89
-2.25
0.27
2.49
4.22
5.38
5.94
5.95
5.53
4.78
3.70
2.17
0.06
-2.62
-5.60
-8.44
-10.58
-11.55
-11.07
-9.20
-6.35
-3.05
0.12
2.75
4.59
5.57
5.70
5.10
3.91
2.33
0.62
-0.93
-2.07
-2.61
-2.50
-1.84
-0.78
0.54
2.02
3.63
5.35
7.10
8.71
9.94
10.50
10.20
9.01
7.07
4.74
2.41
0.51
-0.64
-0.92
-0.41
0.62
1.76
2.62
2.94
2.61
1.71
0.41
-1.08
-2.60
-4.04
-5.31
-6.34
-7.01
-7.24
-6.97
-6.21
-5.05
-3.64
-2.10
-0.60
0.76
1.89
2.76
3.34
3.64
3.68
3.48
3.07
2.55
2.04
1.71
1.60
1.64
1.62
1.29
0.49
-0.73
-2.13
-3.38
-4.20
-4.43
-4.01
-2.95
-1.24
1.12
4.03
7.24
10.28
12.62
13.77
13.47
11.78
9.04
5.75
2.47
-0.37
-2.45
-3.61
-3.80
-3.07
-1.52
0.60
2.91
4.89
6.03
5.90
4.34
1.50
-2.20
-6.17
-9.84
-12.68
-14.34
-14.64
-13.55
-11.23
-7.97
-4.16
-0.25
3.33
6.21
8.11
8.89
8.57
7.31
5.42
3.27
1.24
-0.41
-1.58
-2.33
-2.78
-3.09
-3.35
-3.58
-3.81
-4.03
-4.26
-4.51
-4.79
-5.02
-5.11
-5.00
-4.67
-4.15
-3.56
-2.98
-2.48
-2.04
-1.61
-1.16
-0.70
-0.32
-0.11
-0.13
-0.37
-0.80
-1.30
-1.81
-2.26
-2.59
-2.73
-2.63
-2.23
-1.51
-0.50
0.74
2.13
3.50
4.70
5.56
5.96
5.88
5.40
4.65
3.77
2.86
2.01
1.31
0.84
0.67
0.79
1.03
1.16
0.97
0.39
-0.51
-1.48
-2.28
-2.75
-2.85
-2.67
-2.36
-2.05
-1.82
-1.68
-1.58
-1.45
-1.21
-0.79
-0.19
0.56
1.37
2.12
2.70
3.00
2.94
2.49
1.68
0.66
-0.38
-1.21
-1.70
-1.85
-1.79
-1.73
-1.80
-2.01
-2.27
-2.42
-2.37
-2.10
-1.72
-1.33
-1.01
-0.76
-0.58
-0.43
-0.32
-0.27
-0.27
-0.30
-0.28
-0.15
0.12
0.50
0.92
1.28
1.49
1.50
1.33
1.08
0.88
0.87
1.09
1.45
1.72
1.67
1.17
0.24
-0.87
-1.89
-2.59
-2.94
-3.09
-3.25
-3.59
-4.11
-4.71
-5.24
-5.61
-5.82
-5.94
-5.97
-5.88
-5.56
-4.89
-3.87
-2.63
-1.33
-0.16
0.83
1.73
2.68
3.78
5.06
6.41
7.64
8.55
9.00
8.95
8.48
7.76
6.97
6.24
5.66
5.21
4.84
4.46
4.01
3.46
2.83
2.18
1.57
1.08
0.82
0.88
1.27
1.94
2.72
3.42
3.87
3.94
3.61
2.93
1.96
0.78
-0.52
-1.82
-3.01
-3.98
-4.68
-5.11
-5.31
-5.33
-5.19
-4.88
-4.37
-3.69
-2.91
-2.20
-1.70
-1.50
-1.52
-1.60
-1.53
-1.15
-0.49
0.35
1.14
1.73
2.01
2.01
1.83
1.53
1.16
0.72
0.21
-0.34
-0.88
-1.33
-1.61
-1.68
-1.57
-1.34
-1.05
-0.72
-0.35
0.11
0.65
1.21
1.71
2.06
2.22
2.22
2.13
1.98
1.78
1.52
1.24
0.99
0.81
0.76
0.75
0.69
0.47
0.04
-0.54
-1.14
-1.60
-1.86
-1.91
-1.81
-1.65
-1.47
-1.28
-1.05
-0.75
-0.38
-0.00
0.28
0.38
0.29
0.08
-0.09
-0.10
0.10
0.46
0.81
1.01
0.96
0.67
0.26
-0.11
-0.30
-0.27
-0.06
0.23
0.46
0.56
0.51
0.40
0.32
0.35
0.49
0.64
0.67
0.49
0.11
-0.37
-0.73
-0.81
-0.54
0.03
0.71
1.32
1.74
1.93
1.93
1.81
1.58
1.23
0.79
0.32
-0.09
-0.35
-0.48
-0.54
-0.63
-0.82
-1.06
-1.25
-1.24
-0.96
-0.45
0.16
0.73
1.16
1.41
1.51
1.49
1.40
1.24
1.03
0.81
0.64
0.56
0.55
0.53
0.40
0.07
-0.46
-1.09
-1.68
-2.13
-2.41
-2.55
-2.59
-2.53
-2.31
-1.85
-1.17
-0.37
0.35
0.79
0.89
0.71
0.45
0.31
0.38
0.61
0.83
0.90
0.79
0.57
0.37
0.26
0.23
0.16
-0.04
-0.39
-0.79
-1.06
-1.08
-0.83
-0.36
0.19
0.70
1.09
1.33
1.44
1.43
1.33
1.19
1.07
1.01
0.99
0.96
0.85
0.65
0.38
0.14
0.00
-0.01
0.06
0.08
-0.02
-0.30
-0.73
-1.23
-1.70
-2.02
-2.15
-2.09
-1.90
-1.71
-1.59
-1.62
-1.83
-2.19
-2.63
-3.07
-3.45
-3.68
-3.74
-3.63
-3.39
-3.06
-2.65
-2.14
-1.52
-0.83
-0.14
0.44
0.81
0.98
0.98
0.87
0.67
0.42
0.11
-0.22
-0.52
-0.70
-0.76
-0.73
-0.70
-0.74
-0.87
-1.09
-1.36
-1.58
-1.62
-1.44
-1.18
-1.12
-1.57
-2.70
-4.44
-6.50
-8.27
-9.14
-8.80
-7.51
-6.00
-5.10
-5.39
-7.01
-9.62
-12.29
-13.91
-13.75
-11.87
-9.01
-6.10
-3.76
-2.15
-0.97
0.55
3.27
7.79
14.29
22.61
32.40
42.92
52.78
58.27
55.72
44.08
26.67
9.40
-2.90
-8.55
-8.98
-7.14
-5.84
-6.36
-8.27
-10.15
-10.58
-8.75
-4.63
0.99
6.64
10.64
11.98
10.79
8.19
5.54
3.63
2.45
1.24
-1.00
-4.75
-9.67
-14.69
-18.47
-20.02
-19.02
-15.58
-10.83
-6.39
-3.66
-3.25
-4.73
-6.97
-8.81
-9.71
-9.82
-9.78
-10.03
-10.47
-10.51
-9.45
-7.07
-3.63
-0.05
2.68
3.84
3.31
1.58
-0.57
-2.36
-3.35
-3.49
-3.06
-2.46
-2.04
-1.96
-2.19
-2.51
-2.70
-2.64
-2.36
-2.03
-1.81
-1.84
-2.16
-2.81
-3.58
-4.22
-4.55
-4.51
-4.17
-3.68
-3.12
-2.59
-2.02
-0.95
1.16
4.73
9.84
16.25
23.49
31.07
38.51
43.95
45.80
43.45
37.68
30.14
22.46
15.75
10.59
7.02
4.65
3.16
2.15
1.36
0.61
-0.21
-1.31
-2.78
-4.57
-6.56
-8.34
-9.55
-9.96
-9.54
-8.51
-7.20
-5.95
-5.28
-5.45
-5.11
-3.38
0.24
5.96
13.54
22.35
31.59
40.26
47.90
55.16
62.67
70.75
79.50
88.61
97.62
106.21
113.83
120.77
128.91
139.15
151.30
164.82
179.05
193.50
207.86
219.86
227.96
233.95
237.54
237.02
231.77
222.09
208.64
191.86
167.82
134.61
98.49
62.50
26.37
-9.80
-46.20
-83.52
-122.53
-169.39
-226.05
-281.73
-331.61
-377.24
-420.32
-462.91
-507.38
-556.15
-618.19
-696.35
-775.86
-846.01
-900.28
-930.77
-931.88
-903.14
-796.05
-603.15
-421.58
-282.15
-167.96
-72.32
10.21
83.15
148.00
205.21
250.44
283.64
316.53
352.92
390.21
426.47
460.31
491.20
507.32
497.06
480.05
475.97
480.70
486.07
485.29
473.84
450.19
402.64
330.19
243.98
162.28
95.72
45.93
10.07
-15.80
-34.82
-49.01
-57.97
-61.42
-60.38
-57.53
-55.00
-53.50
-52.77
-52.26
-51.73
-49.62
-45.40
-40.58
-37.29
-36.38
-37.52
-39.30
-40.22
-39.37
-35.23
-27.70
-18.82
-10.80
-5.47
-3.82
-5.84
-10.72
-17.16
-23.09
-26.82
-27.67
-25.65
-21.31
-15.68
-10.02
-5.53
-2.79
-1.62
-1.64
-2.38
-3.50
-4.81
-6.12
-7.21
-7.83
-7.79
-7.02
-5.63
-3.86
-2.06
-0.62
0.30
0.79
1.17
1.79
2.87
4.33
5.89
7.14
7.74
7.62
6.94
6.01
5.18
4.71
4.70
5.10
5.72
6.34
6.76
6.89
6.77
6.50
6.19
5.80
5.25
4.40
3.21
1.73
0.13
-1.40
-2.66
-3.60
-4.32
-5.06
-6.06
-7.37
-8.88
-10.32
-11.37
-11.72
-11.22
-10.05
-8.66
-7.46
-6.71
-6.38
-6.34
-6.40
-6.33
-6.00
-5.52
-5.16
-5.10
-5.34
-5.71
-6.03
-6.10
-5.47
-3.54
0.14
5.73
12.97
21.18
29.25
35.96
38.95
36.70
29.87
20.89
12.01
4.28
-2.07
-6.99
-10.33
-11.75
-11.03
-8.57
-5.45
-3.02
-2.03
-2.66
-4.45
-6.57
-8.33
-9.17
-8.94
-7.84
-6.38
-5.06
-4.22
-3.91
-4.06
-4.52
-5.08
-5.63
-6.20
-6.91
-7.73
-8.44
-8.72
-8.36
-7.36
-5.90
-4.23
-2.61
-1.14
0.17
1.40
2.60
3.72
4.63
5.24
5.56
5.70
5.84
6.11
6.52
6.99
7.34
7.41
7.10
6.43
5.48
4.42
3.39
2.57
2.09
2.06
2.50
3.34
4.40
5.45
6.25
6.58
6.33
5.47
4.08
2.34
0.50
-1.17
-2.44
-3.17
-3.36
-3.12
-2.67
-2.25
-2.04
-2.11
-2.45
-2.97
-3.59
-4.30
-5.16
-6.27
-7.69
-9.45
-11.41
-13.32
-14.82
-15.59
-15.45
-14.44
-12.88
-11.28
-10.14
-9.80
-10.33
-11.53
-13.03
-14.44
-15.41
-15.74
-15.35
-14.30
-12.68
-10.55
-7.94
-4.89
-1.48
2.10
5.65
9.02
12.21
15.33
18.48
21.59
24.43
26.63
27.85
27.94
26.90
24.89
22.20
19.20
16.37
14.31
13.50
14.15
15.95
18.16
19.86
20.30
19.20
16.78
13.55
10.07
6.73
3.70
1.05
-1.14
-2.76
-3.67
-3.85
-3.45
-2.73
-2.00
-1.45
-1.12
-0.89
-0.60
-0.11
0.58
1.27
1.64
1.32
0.15
-1.76
-3.94
-5.77
-6.67
-6.40
-5.10
-3.24
-1.35
0.24
1.51
2.62
3.64
4.48
4.90
4.64
3.68
2.35
1.24
0.89
1.53
2.82
4.09
4.63
3.99
2.15
-0.47
-3.16
-5.30
-6.56
-7.19
-7.62
-8.29
-9.35
-10.52
-11.17
-10.53
-8.25
-4.60
-0.96
1.39
1.47
-0.77
-4.39
-7.79
-9.22
-7.41
-1.81
6.46
16.18
25.37
31.68
32.54
25.61
11.17
-8.38
-27.75
-42.81
-51.60
-55.56
-57.30
-58.70
-60.10
-60.51
-58.67
-54.20
-51.98
-53.35
-59.69
-71.68
-89.00
-110.52
-134.09
-156.50
-165.44
-155.98
-126.81
-81.81
-29.22
20.96
60.31
84.97
96.36
99.41
98.15
95.77
92.93
88.89
83.39
77.41
72.78
71.13
72.90
76.14
79.10
81.36
82.22
82.70
84.25
87.46
91.15
92.67
88.47
76.83
58.39
35.93
13.44
-5.59
-19.25
-27.32
-30.59
-30.48
-27.96
-23.85
-19.02
-14.31
-10.51
-8.15
-7.17
-6.97
-6.70
-5.32
-1.91
3.92
12.02
21.50
30.91
38.77
44.00
46.34
46.41
45.39
44.66
45.45
48.52
53.90
60.85
68.08
74.22
78.46
81.10
83.58
87.90
95.69
107.34
121.89
137.52
152.50
165.84
177.33
187.30
196.38
205.47
215.87
228.91
245.12
263.27
279.90
290.09
289.13
274.41
246.43
208.44
165.01
120.22
76.65
35.18
-4.50
-43.16
-81.59
-120.48
-160.24
-200.92
-242.31
-283.74
-324.50
-364.17
-402.73
-440.87
-480.07
-522.63
-571.02
-626.56
-687.62
-748.59
-800.36
-832.83
-838.45
-815.15
-767.15
-703.11
-632.71
-563.37
-498.66
-438.83
-382.57
-328.72
-276.93
-227.31
-179.79
-133.79
-88.45
-43.27
1.57
45.36
87.11
126.24
163.05
198.81
235.33
274.06
314.87
355.40
391.29
417.54
430.52
429.64
417.71
399.76
380.91
364.39
350.74
338.39
325.21
309.93
292.62
274.28
255.95
237.99
220.10
201.81
183.02
164.31
146.74
131.31
118.53
108.14
99.30
90.94
82.17
72.70
62.83
53.29
44.87
38.00
32.56
27.93
23.27
17.90
11.63
4.82
-1.69
-7.03
-10.69
-12.64
-13.19
-12.81
-11.93
-10.78
-9.33
-7.24
-4.23
-0.27
4.27
8.84
12.87
15.98
18.19
19.81
21.52
23.73
26.32
28.69
30.23
30.63
29.96
28.61
27.05
26.35
26.93
28.26
29.30
29.34
28.32
26.59
24.73
23.17
23.57
26.60
31.33
35.95
39.29
41.24
42.25
43.08
44.12
47.74
54.78
63.73
71.78
77.23
80.17
81.57
82.96
85.36
92.35
105.47
122.88
140.53
155.01
164.61
168.63
167.63
142.69
88.75
18.70
-46.55
-94.73
-125.16
-141.08
-150.06
-155.68
-159.27
-157.96
-150.34
-137.60
-123.19
-110.00
-99.18
-90.91
-84.31
-78.81
-71.97
-63.14
-54.38
-49.17
-49.53
-54.82
-62.60
-69.31
-72.20
-68.64
-58.56
-44.70
-31.21
-21.27
-16.05
-15.18
-17.16
-20.57
-23.70
-25.77
-27.10
-28.55
-30.64
-33.24
-35.90
-38.08
-39.53
-39.96
-39.19
-37.13
-33.68
-28.69
-22.20
-14.73
-7.25
-0.95
3.15
4.53
3.32
0.12
-4.17
-8.64
-12.44
-15.00
-15.99
-15.42
-13.63
-11.21
-8.84
-7.08
-6.18
-6.01
-6.17
-6.15
-5.55
-4.25
-2.42
-0.40
1.42
2.78
3.55
3.80
3.72
3.58
3.63
4.06
4.99
6.43
8.33
10.66
13.45
16.78
20.67
25.00
29.41
33.26
35.77
36.26
34.38
30.37
24.93
19.06
13.80
9.93
7.77
7.14
7.53
8.38
9.30
10.05
10.51
10.61
10.28
9.41
7.77
5.31
2.32
-0.60
-2.95
-4.45
-5.11
-5.16
-4.92
-5.04
-5.96
-7.62
-9.67
-11.88
-14.36
-17.40
-21.21
-25.69
-30.89
-36.32
-40.77
-42.86
-41.83
-37.90
-32.08
-25.77
-20.34
-17.71
-19.04
-24.18
-31.89
-40.68
-49.31
-56.82
-62.55
-60.97
-49.61
-30.92
-10.37
7.76
21.74
31.44
37.30
39.95
40.17
38.30
34.49
29.57
24.80
21.11
18.82
17.76
17.59
17.94
17.87
16.76
14.77
12.67
11.22
10.78
11.31
12.49
13.82
14.34
13.22
10.11
5.07
-1.69
-9.87
-18.82
-27.50
-34.67
-39.41
-41.22
-40.12
-36.58
-31.43
-25.58
-19.73
-14.28
-9.47
-5.61
-3.12
-2.39
-3.56
-6.28
-9.65
-12.28
-12.74
-10.08
-4.25
3.82
12.55
20.34
26.08
29.48
30.92
31.12
30.72
30.11
29.50
29.06
29.02
29.69
31.27
33.72
36.72
39.66
41.91
42.97
42.64
41.05
38.64
35.94
33.48
31.59
30.42
29.94
30.00
30.34
30.53
29.93
27.77
23.34
16.31
6.96
-3.87
-14.90
-24.81
-32.57
-37.58
-39.73
-39.29
-36.81
-33.01
-28.68
-24.53
-21.06
-18.48
-16.71
-15.49
-14.48
-13.37
-12.02
-10.38
-8.60
-6.84
-5.33
-4.19
-3.48
-3.15
-3.07
-3.05
-2.81
-2.04
-0.50
1.88
4.96
8.40
11.84
15.06
17.98
20.61
22.90
24.62
25.39
24.93
23.22
20.60
17.60
14.74
12.26
10.08
7.91
5.48
2.73
-0.09
-2.57
-4.31
-5.14
-5.23
-4.97
-4.79
-5.05
-5.81
-6.91
-8.09
-9.14
-9.96
-10.54
-10.88
-10.94
-10.76
-10.35
-9.77
-9.17
-8.77
-8.80
-9.35
-10.31
-11.39
-12.42
-13.16
-13.42
-13.15
-12.62
-12.28
-12.56
-13.61
-15.28
-17.39
-19.45
-20.81
-20.99
-20.05
-18.60
-17.52
-17.52
-18.88
-21.61
-24.95
-27.63
-28.58
-27.56
-25.12
-22.24
-19.87
-16.49
-12.28
-9.08
-8.79
-11.51
-15.46
-18.20
-17.96
-14.34
-8.34
-1.98
3.36
7.74
12.34
18.51
26.79
36.52
46.02
53.74
57.69
56.82
51.43
42.87
32.93
23.25
14.87
8.20
3.13
-0.86
-3.96
-5.99
-6.73
-6.30
-5.27
-4.44
-4.43
-5.33
-6.96
-8.70
-9.90
-10.13
-9.39
-8.00
-6.35
-4.71
-3.13
-1.63
-0.12
1.50
3.31
5.35
7.59
9.97
12.38
14.73
16.96
19.13
21.33
23.48
25.22
25.94
25.00
22.08
17.40
11.77
6.31
1.99
-0.73
-2.00
-2.43
-2.67
-3.19
-4.10
-5.27
-6.48
-7.53
-8.25
-8.58
-8.48
-8.04
-7.47
-7.08
-7.15
-7.86
-9.19
-10.93
-12.73
-14.27
-15.30
-15.72
-15.55
-14.92
-14.05
-13.20
-12.62
-12.43
-12.51
-12.58
-12.29
-11.50
-10.30
-9.03
-8.06
-7.60
-7.60
-7.78
-7.77
-7.29
-6.22
-4.64
-2.62
-0.26
2.39
5.28
8.30
11.24
13.87
15.99
17.49
18.42
18.98
19.41
19.93
20.58
21.18
21.46
21.22
20.40
19.18
17.93
17.01
16.63
16.73
16.95
16.75
15.66
13.40
10.06
5.99
1.70
-2.34
-5.82
-8.66
-10.89
-12.68
-14.17
-15.53
-16.85
-18.21
-19.64
-21.11
-22.62
-24.10
-25.44
-26.45
-26.91
-26.64
-25.60
-23.94
-21.93
-19.87
-17.93
-16.16
-14.46
-12.75
-11.03
-9.37
-7.90
-6.70
-5.79
-5.10
-4.52
-3.94
-3.23
-2.36
-1.31
-0.17
0.97
2.02
2.94
3.81
4.74
5.80
7.05
8.45
9.89
11.26
12.46
13.41
14.06
14.42
14.56
14.56
14.51
14.45
14.39
14.32
14.25
14.21
14.22
14.25
14.16
13.79
13.04
11.94
10.65
9.38
8.35
7.63
7.25
7.12
7.11
7.07
6.83
6.25
5.32
4.14
2.89
1.72
0.66
-0.42
-1.69
-3.27
-5.13
-7.12
-9.03
-10.70
-11.95
-12.49
-11.96
-10.06
-6.77
-2.51
1.98
5.87
8.63
10.19
10.83
10.97
10.87
10.54
9.92
9.01
8.00
7.17
6.72
6.62
6.58
6.26
5.43
4.08
2.41
0.68
-0.84
-2.00
-2.78
-3.24
-3.47
-3.58
-3.63
-3.66
-3.65
-3.58
-3.39
-3.06
-2.57
-1.93
-1.16
-0.28
0.72
1.82
3.00
4.25
5.57
6.98
8.49
10.02
11.36
12.18
12.12
10.98
8.76
5.63
1.77
-2.79
-8.17
-14.29
-20.65
-26.34
-30.57
-33.26
-35.19
-37.71
-41.84
-47.61
-53.94
-59.23
-62.11
-61.99
-58.90
-52.99
-44.19
-32.38
-17.87
-1.88
13.61
26.48
35.36
40.11
41.58
41.00
39.35
37.17
34.64
31.81
28.85
25.96
23.25
20.69
18.17
15.75
13.67
12.31
12.01
12.91
14.87
17.49
20.28
22.76
24.59
25.58
25.74
25.26
24.44
23.63
23.07
22.83
22.79
22.71
22.38
21.65
20.53
19.07
17.29
15.07
12.28
8.81
4.73
0.30
-4.05
-7.91
-11.04
-13.46
-15.40
-17.20
-19.06
-20.99
-22.82
-24.34
-25.46
-26.23
-26.73
-26.97
-26.80
-25.95
-24.21
-21.63
-18.52
-15.35
-12.55
-10.31
-8.57
-7.05
-5.54
-3.92
-2.34
-1.05
-0.35
-0.43
-1.32
-2.90
-4.92
-7.09
-9.11
-10.77
-11.93
-12.54
-12.65
-12.36
-11.85
-11.28
-10.80
-10.49
-10.36
-10.35
-10.38
-10.32
-10.05
-9.45
-8.48
-7.18
-5.71
-4.29
-3.18
-2.58
-2.57
-3.05
-3.83
-4.67
-5.31
-5.52
-5.14
-4.07
-2.34
-0.08
2.46
4.99
7.31
9.31
11.07
12.67
14.20
15.59
16.64
17.09
16.76
15.65
13.97
12.09
10.38
9.08
8.23
7.67
7.16
6.47
5.54
4.47
3.44
2.68
2.31
2.37
2.78
3.40
4.11
4.77
5.28
5.55
5.54
5.24
4.69
3.97
3.18
2.38
1.65
0.97
0.32
-0.39
-1.24
-2.30
-3.60
-5.16
-6.95
-8.96
-11.22
-13.77
-16.52
-19.26
-21.48
-22.59
-22.02
-19.54
-15.38
-10.24
-5.05
-0.65
2.47
4.27
5.06
5.25
5.24
5.24
5.34
5.50
5.62
5.66
5.63
5.60
5.73
6.25
7.37
9.26
11.83
14.69
17.24
18.83
18.94
17.36
14.31
10.43
6.58
3.51
1.52
0.50
-0.10
-1.03
-3.01
-6.39
-10.91
-15.84
-20.24
-23.35
-24.62
-23.80
-20.85
-15.95
-9.42
-1.74
6.41
14.17
20.06
22.57
21.22
17.21
12.61
9.15
7.63
7.89
9.21
10.65
11.51
11.44
10.48
8.82
6.68
4.28
1.90
-0.57
-3.19
-5.81
-8.10
-9.75
-10.63
-10.82
-10.53
-9.93
-9.17
-8.31
-7.34
-6.24
-5.08
-3.98
-3.05
-2.38
-1.93
-1.57
-1.17
-0.65
-0.00
0.73
1.50
2.27
2.98
3.54
3.77
3.51
2.66
1.26
-0.51
-2.42
-4.22
-5.72
-6.80
-7.42
-7.64
-7.62
-7.54
-7.53
-7.67
-7.87
-7.98
-7.85
-7.41
-6.68
-5.75
-4.73
-3.67
-2.61
-1.56
-0.59
0.24
0.88
1.35
1.77
2.26
2.86
3.53
4.10
4.37
4.21
3.64
2.83
2.03
1.47
1.29
1.44
1.73
1.95
1.94
1.66
1.23
0.81
0.53
0.42
0.38
0.30
0.11
-0.16
-0.41
-0.56
-0.56
-0.46
-0.33
-0.27
-0.32
-0.47
-0.71
-0.96
-1.14
-1.15
-0.86
-0.16
0.99
2.47
4.02
5.31
6.10
6.35
6.29
6.21
6.42
6.99
7.80
8.64
9.31
9.77
10.12
10.46
10.79
11.03
11.03
10.70
10.04
9.12
8.04
6.89
5.75
4.68
3.79
3.18
2.90
2.94
3.24
3.70
4.22
4.74
5.23
5.65
5.92
5.96
5.65
4.93
3.81
2.38
0.77
-0.92
-2.59
-4.21
-5.74
-7.16
-8.38
-9.34
-9.96
-10.18
-10.03
-9.59
-8.93
-8.16
-7.35
-6.56
-5.90
-5.46
-5.32
-5.48
-5.83
-6.17
-6.29
-6.08
-5.53
-4.78
-3.99
-3.24
-2.52
-1.72
-0.80
0.24
1.27
2.09
2.54
2.51
2.01
1.15
0.12
-0.91
-1.81
-2.57
-3.27
-4.00
-4.79
-5.56
-6.18
-6.51
-6.55
-6.40
-6.22
-6.12
-6.10
-6.01
-5.73
-5.21
-4.54
-3.87
-3.36
-3.05
-2.88
-2.78
-2.68
-2.54
-2.39
-2.26
-2.15
-2.03
-1.88
-1.70
-1.48
-1.23
-0.95
-0.65
-0.31
0.08
0.52
1.02
1.60
2.26
3.00
3.78
4.53
5.16
5.58
5.72
5.58
5.20
4.68
4.14
3.70
3.41
3.32
3.45
3.82
4.41
5.17
5.99
6.74
7.35
7.82
8.24
8.75
9.47
10.39
11.42
12.35
12.98
13.18
12.92
12.30
11.51
10.78
10.23
9.86
9.51
8.90
7.82
6.16
3.98
1.50
-1.01
-3.36
-5.42
-7.18
-8.71
-10.08
-11.43
-12.97
-14.98
-17.64
-20.85
-24.01
-26.18
-26.32
-23.81
-18.81
-12.30
-5.69
-0.29
3.18
4.74
4.92
4.38
3.56
2.62
1.58
0.50
-0.45
-1.01
-1.05
-0.67
-0.20
-0.01
-0.30
-0.99
-1.74
-2.12
-1.80
-0.74
0.84
2.50
3.80
4.45
4.42
3.87
3.11
2.44
2.03
1.86
1.81
1.66
1.27
0.61
-0.22
-1.02
-1.61
-1.89
-1.85
-1.51
-0.92
-0.09
0.98
2.23
3.53
4.67
5.47
5.83
5.85
5.75
5.77
6.10
6.74
7.56
8.35
8.91
9.12
8.91
8.19
6.87
4.89
2.28
-0.73
-3.82
-6.58
-8.74
-10.16
-10.89
-11.07
-10.85
-10.32
-9.54
-8.52
-7.37
-6.23
-5.31
-4.75
-4.55
-4.62
-4.83
-5.03
-5.18
-5.31
-5.45
-5.57
-5.55
-5.24
-4.57
-3.61
-2.56
-1.64
-1.02
-0.74
-0.73
-0.88
-1.12
-1.43
-1.78
-2.08
-2.25
-2.19
-1.86
-1.34
-0.78
-0.33
-0.05
0.09
0.21
0.42
0.72
1.06
1.31
1.39
1.29
1.09
0.87
0.71
0.60
0.51
0.39
0.22
0.05
-0.04
0.04
0.34
0.86
1.52
2.23
2.94
3.62
4.22
4.70
4.94
4.83
4.29
3.33
2.05
0.60
-0.87
-2.24
-3.40
-4.29
-4.84
-5.06
-5.03
-4.86
-4.64
-4.42
-4.16
-3.84
-3.46
-3.08
-2.82
-2.73
-2.81
-3.00
-3.18
-3.23
-3.11
-2.78
-2.25
-1.47
-0.36
1.15
3.07
5.34
7.73
9.99
11.90
13.30
14.17
14.52
14.40
13.79
12.67
11.05
9.06
6.93
4.92
3.23
1.97
1.13
0.69
0.59
0.79
1.23
1.78
2.26
2.53
2.49
2.17
1.66
1.11
0.62
0.26
0.03
-0.07
-0.05
0.08
0.29
0.53
0.76
0.95
1.09
1.19
1.26
1.25
1.08
0.71
0.12
-0.64
-1.46
-2.22
-2.84
-3.34
-3.77
-4.20
-4.62
-4.96
-5.10
-4.97
-4.59
-4.08
-3.63
-3.39
-3.43
-3.68
-3.99
-4.21
-4.23
-4.08
-3.82
-3.54
-3.27
-3.02
-2.79
-2.58
-2.44
-2.41
-2.51
-2.69
-2.87
-2.98
-2.95
-2.81
-2.59
-2.38
-2.20
-2.08
-2.02
-1.97
-1.89
-1.71
-1.34
-0.72
0.14
1.21
2.40
3.60
4.72
5.73
6.61
7.37
7.99
8.43
8.62
8.46
7.95
7.11
6.07
4.94
3.87
2.95
2.24
1.81
1.70
1.93
2.45
3.13
3.76
4.14
4.14
3.75
3.09
2.32
1.62
1.06
0.64
0.31
-0.01
-0.33
-0.64
-0.92
-1.16
-1.37
-1.59
-1.84
-2.16
-2.51
-2.85
-3.11
-3.19
-3.06
-2.73
-2.30
-1.93
-1.76
-1.90
-2.35
-2.99
-3.66
-4.21
-4.58
-4.79
-4.94
-5.11
-5.30
-5.43
-5.40
-5.14
-4.70
-4.22
-3.86
-3.70
-3.64
-3.45
-2.87
-1.72
0.02
2.19
4.53
6.79
8.76
10.28
11.21
11.46
11.04
10.07
8.82
7.58
6.57
5.85
5.37
5.01
4.71
4.47
4.34
4.37
4.54
4.81
5.11
5.39
5.57
5.52
5.07
4.06
2.41
0.26
-2.08
-4.20
-5.71
-6.43
-6.33
-5.58
-4.44
-3.14
-1.86
-0.71
0.22
0.87
1.24
1.40
1.56
2.02
3.01
4.62
6.69
8.81
10.57
11.62
11.85
11.35
10.33
9.02
7.63
6.29
5.10
4.11
3.34
2.70
2.05
1.25
0.20
-1.07
-2.45
-3.80
-4.94
-5.73
-6.14
-6.20
-6.05
-5.87
-5.84
-6.04
-6.45
-6.97
-7.50
-7.98
-8.39
-8.73
-8.94
-8.97
-8.77
-8.37
-7.89
-7.43
-7.03
-6.63
-6.09
-5.33
-4.35
-3.30
-2.31
-1.48
-0.77
-0.06
0.81
1.93
3.32
4.86
6.38
7.66
8.45
8.56
7.89
6.54
4.72
2.76
0.91
-0.67
-1.96
-3.01
-3.85
-4.50
-4.92
-5.13
-5.25
-5.47
-5.97
-6.84
-7.98
-9.20
-10.23
-10.93
-11.26
-11.31
-11.17
-10.92
-10.57
-10.11
-9.59
-9.14
-8.86
-8.83
-9.00
-9.22
-9.36
-9.31
-9.13
-8.91
-8.79
-8.80
-8.93
-9.07
-9.16
-9.23
-9.38
-9.76
-10.50
-11.62
-13.00
-14.40
-15.42
-15.70
-14.98
-13.24
-10.76
-7.96
-5.32
-3.17
-1.61
-0.47
0.51
1.55
2.70
3.83
4.72
5.15
5.06
4.51
3.71
2.95
2.60
3.05
4.62
7.44
11.27
15.44
18.99
20.90
20.54
17.94
13.80
9.23
5.36
2.92
2.07
2.49
3.60
4.86
5.88
6.54
6.86
6.94
6.91
6.83
6.67
6.38
5.88
5.14
4.27
3.41
2.70
2.21
1.85
1.47
0.92
0.13
-0.82
-1.78
-2.62
-3.31
-3.90
-4.44
-4.92
-5.22
-5.19
-4.72
-3.80
-2.58
-1.28
-0.13
0.74
1.29
1.60
1.77
1.92
2.14
2.49
2.98
3.62
4.34
5.09
5.74
6.24
6.52
6.57
6.41
6.10
5.70
5.24
4.74
4.19
3.58
2.92
2.31
1.87
1.71
1.87
2.23
2.58
2.67
2.41
1.82
1.14
0.59
0.35
0.41
0.64
0.88
1.05
1.14
1.26
1.48
1.82
2.20
2.48
2.54
2.36
1.99
1.53
1.08
0.71
0.45
0.29
0.24
0.28
0.41
0.59
0.74
0.81
0.80
0.71
0.62
0.54
0.49
0.42
0.29
0.08
-0.18
-0.42
-0.57
-0.60
-0.50
-0.33
-0.14
-0.01
0.01
-0.08
-0.26
-0.47
-0.65
-0.73
-0.71
-0.60
-0.45
-0.33
-0.26
-0.23
-0.20
-0.15
-0.08
-0.03
-0.02
-0.05
-0.07
-0.04
0.05
0.21
0.38
0.54
0.66
0.72
0.73
0.68
0.57
0.42
0.31
0.28
0.36
0.54
0.73
0.87
0.91
0.87
0.79
0.71
0.64
0.57
0.49
0.41
0.36
0.36
0.44
0.54
0.61
0.64
0.63
0.60
0.59
0.58
0.58
0.58
0.58
0.58
0.57
0.50
0.33
0.04
-0.29
-0.56
-0.65
-0.50
-0.18
0.19
0.48
0.62
0.63
0.57
0.50
0.44
0.38
0.35
0.35
0.39
0.48
0.58
0.62
0.57
0.44
0.25
0.04
-0.18
-0.40
-0.63
-0.82
-0.87
-0.75
-0.48
-0.16
0.06
0.10
-0.02
-0.22
-0.39
-0.47
-0.51
-0.54
-0.61
-0.68
-0.69
-0.58
-0.36
-0.06
0.26
0.56
0.85
1.09
1.28
1.34
1.26
1.04
0.75
0.49
0.30
0.23
0.29
0.47
0.74
1.04
1.30
1.40
1.28
0.93
0.42
-0.11
-0.52
-0.73
-0.73
-0.60
-0.46
-0.41
-0.47
-0.62
-0.80
-0.92
-0.95
-0.87
-0.76
-0.69
-0.73
-0.91
-1.18
-1.45
-1.62
-1.62
-1.43
-1.14
-0.82
-0.58
-0.46
-0.47
-0.57
-0.70
-0.81
-0.89
-0.93
-0.95
-0.91
-0.83
-0.69
-0.50
-0.28
-0.08
0.08
0.22
0.35
0.49
0.64
0.74
0.77
0.70
0.54
0.37
0.23
0.18
0.18
0.17
0.10
-0.05
-0.20
-0.26
-0.14
0.17
0.59
0.96
1.14
1.05
0.71
0.22
-0.25
-0.58
-0.71
-0.68
-0.56
-0.41
-0.30
-0.23
-0.20
-0.21
-0.27
-0.35
-0.47
-0.59
-0.69
-0.77
-0.81
-0.81
-0.80
-0.75
-0.66
-0.53
-0.36
-0.22
-0.16
-0.21
-0.32
-0.45
-0.50
-0.45
-0.29
-0.03
0.29
0.64
1.00
1.34
1.64
1.86
2.00
2.07
2.11
2.14
2.16
2.11
1.94
1.64
1.26
0.90
0.63
0.48
0.40
0.30
0.10
-0.21
-0.53
-0.74
-0.72
-0.45
0.00
0.49
0.89
1.14
1.22
1.20
1.09
0.93
0.73
0.62
0.76
1.39
2.63
4.39
6.38
8.16
9.36
9.81
9.57
8.90
8.08
7.28
6.55
5.82
5.05
4.28
3.64
3.27
3.24
3.44
3.66
3.66
3.28
2.60
1.86
1.38
1.43
2.07
3.21
4.58
5.90
7.01
7.85
8.42
8.78
8.91
8.78
8.34
7.55
6.45
5.13
3.75
2.48
1.44
0.69
0.22
-0.00
-0.03
0.13
0.49
1.05
1.79
2.64
3.50
4.32
5.10
5.86
6.63
7.34
7.88
8.05
7.67
6.64
4.92
2.62
-0.09
-2.98
-5.78
-8.26
-10.26
-11.72
-12.65
-13.13
-13.22
-13.01
-12.56
-11.96
-11.31
-10.67
-10.02
-9.30
-8.43
-7.40
-6.33
-5.38
-4.65
-4.11
-3.64
-3.09
-2.45
-1.82
-1.39
-1.30
-1.49
-1.71
-1.62
-0.98
0.24
1.75
3.06
3.63
3.06
1.29
-1.34
-4.20
-6.61
-8.17
-8.99
-9.76
-11.40
-14.69
-19.71
-25.70
-31.36
-35.41
-37.28
-37.43
-37.19
-38.02
-40.86
-45.64
-51.43
-56.82
-60.42
-60.97
-57.31
-48.62
-35.13
-18.86
-3.73
5.58
5.63
-3.68
-18.48
-32.25
-38.60
-34.11
-19.67
0.31
20.23
35.78
45.45
50.24
52.39
53.75
55.06
55.96
55.69
53.86
50.78
47.27
44.05
41.32
38.57
35.00
29.92
23.39
16.30
10.02
5.76
3.95
4.00
4.66
4.57
2.95
-0.05
-3.39
-5.65
-5.72
-3.28
1.03
5.87
9.81
11.92
12.11
11.02
9.57
8.53
8.10
7.97
7.51
6.23
4.01
1.16
-1.80
-4.43
-6.51
-8.09
-9.26
-10.11
-10.62
-10.76
-10.60
-10.30
-10.10
-10.18
-10.55
-11.06
-11.44
-11.41
-10.88
-9.91
-8.80
-7.86
-7.29
-7.07
-6.96
-6.74
-6.28
-5.55
-4.52
-3.12
-1.25
1.13
3.84
6.46
8.25
8.57
7.17
4.41
1.04
-2.24
-5.07
-7.60
-10.14
-12.87
-15.26
-16.35
-15.29
-12.10
-7.94
-4.50
-2.96
-2.16
-0.54
2.69
6.45
8.34
6.45
0.75
-6.80
-13.37
-16.71
-16.27
-12.77
-7.40
-0.94
6.34
14.28
22.18
28.75
32.76
33.18
29.95
24.14
17.61
12.34
9.68
10.02
12.54
15.77
18.08
18.40
16.50
12.87
8.24
3.15
-1.93
-6.67
-10.84
-14.38
-17.28
-19.44
-20.57
-20.37
-18.69
-15.77
-12.30
-9.25
-7.38
-6.88
-7.24
-7.57
-7.11
-5.60
-3.33
-0.89
1.35
3.46
5.83
8.87
12.61
16.59
20.14
22.81
24.55
25.71
26.76
27.96
29.13
29.83
29.56
28.27
26.55
25.39
25.74
27.92
31.30
34.47
35.81
34.05
28.71
20.17
9.49
-1.77
-11.92
-19.48
-23.49
-23.70
-20.68
-15.71
-10.36
-6.22
-4.43
-5.44
-8.96
-14.03
-19.26
-23.19
-24.65
-23.18
-19.27
-14.05
-9.03
-5.50
-4.12
-4.89
-7.22
-10.15
-12.53
-13.39
-12.25
-9.36
-5.78
-3.00
-2.42
-4.72
-9.52
-15.55
-21.43
-26.15
-29.45
-31.58
-32.87
-33.42
-32.95
-31.07
-27.57
-23.04
-18.55
-15.11
-13.07
-11.98
-10.95
-9.14
-6.24
-2.64
0.17
0.48
-2.80
-9.46
-17.92
-26.03
-31.76
-33.66
-31.22
-25.45
-18.32
-11.94
-7.98
-7.55
-11.62
-20.70
-34.58
-48.08
-54.71
-49.64
-33.34
-10.67
12.28
30.54
41.66
46.19
46.90
46.52
46.51
46.58
45.65
43.12
38.91
33.85
29.15
25.60
22.98
20.44
17.31
13.83
10.98
9.61
9.95
11.54
13.48
14.50
13.68
10.96
7.26
4.01
2.53
3.68
7.55
13.30
19.09
22.52
21.60
15.72
6.16
-4.32
-12.57
-16.35
-15.25
-10.75
-5.25
-0.85
1.50
2.11
1.86
1.54
1.38
1.16
0.58
-0.41
-1.45
-2.05
-1.85
-0.84
0.60
1.88
2.45
2.10
0.97
-0.43
-1.56
-2.02
-1.77
-1.03
-0.19
0.43
0.69
0.64
0.47
0.36
0.43
0.63
0.87
1.02
0.98
0.76
0.43
0.08
-0.24
-0.52
-0.80
-1.03
-1.08
-0.75
0.07
1.33
2.70
3.76
4.09
3.59
2.46
1.21
0.38
0.39
1.30
2.86
4.56
5.84
6.26
5.61
4.00
1.81
-0.47
-2.33
-3.43
-3.66
-3.09
-1.98
-0.67
0.44
1.04
0.91
0.03
-1.42
-3.10
-4.65
-5.72
-6.13
-5.84
-4.98
-3.80
-2.56
-1.49
-0.75
-0.35
-0.24
-0.34
-0.56
-0.85
-1.14
-1.33
-1.31
-1.05
-0.61
-0.17
0.08
0.04
-0.20
-0.45
-0.46
-0.10
0.55
1.31
1.94
2.31
2.42
2.35
2.18
1.95
1.64
1.29
0.96
0.78
0.81
1.04
1.33
1.51
1.47
1.26
1.02
0.91
0.96
1.10
1.14
0.93
0.44
-0.24
-0.91
-1.42
-1.67
-1.67
-1.45
-1.12
-0.78
-0.55
-0.54
-0.81
-1.36
-2.09
-2.80
-3.25
-3.29
-2.91
-2.26
-1.59
-1.14
-1.02
-1.21
-1.58
-2.03
-2.44
-2.78
-3.00
-3.02
-2.75
-2.14
-1.29
-0.38
0.32
0.62
0.50
0.08
-0.40
-0.72
-0.78
-0.60
-0.31
-0.02
0.24
0.58
1.15
2.06
3.24
4.44
5.27
5.40
4.69
3.29
1.55
-0.11
-1.39
-2.18
-2.51
-2.50
-2.27
-1.87
-1.36
-0.81
-0.36
-0.11
-0.13
-0.36
-0.65
-0.84
-0.80
-0.46
0.14
0.92
1.75
2.47
2.91
2.99
2.69
2.19
1.73
1.60
1.96
2.77
3.83
4.77
5.25
5.05
4.14
2.69
0.98
-0.67
-2.05
-3.03
-3.62
-3.91
-4.02
-4.06
-4.07
-4.10
-4.15
-4.20
-4.22
-4.15
-3.97
-3.65
-3.18
-2.59
-1.92
-1.24
-0.64
-0.20
0.01
-0.01
-0.22
-0.51
-0.79
-0.99
-1.06
-0.98
-0.78
-0.51
-0.30
-0.30
-0.60
-1.23
-2.04
-2.80
-3.23
-3.16
-2.59
-1.68
-0.71
0.05
0.42
0.37
0.02
-0.38
-0.63
-0.58
-0.26
0.20
0.59
0.76
0.65
0.31
-0.12
-0.44
-0.53
-0.30
0.17
0.74
1.24
1.55
1.61
1.52
1.40
1.34
1.34
1.28
1.06
0.63
0.08
-0.40
-0.66
-0.68
-0.57
-0.48
-0.54
-0.72
-0.88
-0.89
-0.66
-0.26
0.15
0.43
0.51
0.42
0.27
0.17
0.19
0.34
0.57
0.82
1.04
1.18
1.22
1.16
1.05
0.92
0.84
0.85
0.94
1.10
1.25
1.33
1.29
1.15
1.01
0.97
1.10
1.37
1.65
1.78
1.66
1.29
0.76
0.24
-0.17
-0.44
-0.59
-0.66
-0.70
-0.67
-0.56
-0.37
-0.15
-0.01
-0.00
-0.16
-0.43
-0.70
-0.85
-0.82
-0.61
-0.31
0.01
0.25
0.38
0.37
0.24
-0.00
-0.31
-0.59
-0.73
-0.66
-0.37
0.03
0.36
0.47
0.26
-0.18
-0.64
-0.91
-0.85
-0.49
-0.02
0.35
0.49
0.42
0.26
0.17
0.24
0.47
0.79
1.12
1.39
1.57
1.62
1.49
1.20
0.82
0.47
0.30
0.35
0.57
0.84
1.08
1.26
1.40
1.54
1.68
1.85
2.04
2.31
2.68
3.13
3.57
3.84
3.79
3.38
2.69
1.86
1.06
0.40
-0.10
-0.47
-0.79
-1.16
-1.63
-2.20
-2.75
-3.13
-3.15
-2.73
-1.92
-0.94
-0.09
0.35
0.24
-0.38
-1.27
-2.11
-2.51
-2.20
-1.12
0.51
2.15
3.15
2.94
1.34
-1.34
-4.39
-6.98
-8.44
-8.54
-7.41
-5.50
-3.36
-1.51
-0.40
-0.31
-1.26
-2.98
-4.91
-6.43
-7.05
-6.60
-5.31
-3.63
-2.04
-0.84
-0.11
0.23
0.34
0.38
0.46
0.66
1.05
1.58
2.21
2.82
3.32
3.72
4.12
4.67
5.47
6.47
7.46
8.16
8.29
7.75
6.65
5.22
3.74
2.40
1.27
0.31
-0.52
-1.21
-1.72
-2.02
-2.15
-2.22
-2.34
-2.54
-2.74
-2.78
-2.54
-2.06
-1.50
-1.07
-0.91
-0.97
-1.07
-1.01
-0.71
-0.21
0.30
0.66
0.81
0.78
0.66
0.54
0.42
0.29
0.13
-0.06
-0.27
-0.56
-1.02
-1.73
-2.74
-4.00
-5.29
-6.38
-7.00
-7.00
-6.37
-5.22
-3.76
-2.22
-0.87
0.11
0.60
0.66
0.46
0.31
0.44
0.95
1.79
2.77
3.65
4.32
4.75
5.02
5.17
5.19
5.00
4.54
3.82
2.92
2.02
1.29
0.83
0.64
0.63
0.62
0.46
0.07
-0.52
-1.17
-1.71
-1.99
-1.97
-1.70
-1.30
-0.87
-0.48
-0.14
0.17
0.45
0.69
0.88
0.99
1.00
0.92
0.75
0.55
0.37
0.30
0.36
0.50
0.62
0.62
0.45
0.20
-0.02
-0.11
-0.08
-0.06
-0.18
-0.50
-0.95
-1.32
-1.45
-1.27
-0.88
-0.46
-0.19
-0.12
-0.20
-0.29
-0.30
-0.20
-0.06
0.05
0.07
0.03
-0.05
-0.12
-0.15
-0.16
-0.16
-0.13
-0.06
0.09
0.29
0.50
0.61
0.57
0.38
0.09
-0.19
-0.33
-0.28
-0.09
0.13
0.26
0.22
0.07
-0.08
-0.08
0.15
0.58
1.05
1.40
1.54
1.45
1.23
0.98
0.75
0.52
0.23
-0.14
-0.53
-0.81
-0.85
-0.60
-0.10
0.48
0.96
1.19
1.15
0.93
0.64
0.41
0.32
0.35
0.45
0.58
0.69
0.80
0.96
1.22
1.58
2.01
2.37
2.52
2.30
1.66
0.70
-0.36
-1.23
-1.69
-1.66
-1.22
-0.55
0.16
0.82
1.43
2.02
2.56
2.90
2.82
2.16
0.97
-0.49
-1.79
-2.57
-2.69
-2.30
-1.72
-1.26
-1.04
-1.01
-0.95
-0.71
-0.24
0.33
0.79
1.00
0.91
0.59
0.18
-0.18
-0.40
-0.45
-0.36
-0.20
-0.04
0.06
0.05
-0.08
-0.32
-0.60
-0.85
-1.03
-1.09
-1.08
-1.03
-0.95
-0.83
-0.66
-0.44
-0.22
-0.13
-0.27
-0.66
-1.20
-1.69
-1.95
-1.86
-1.50
-1.05
-0.75
-0.72
-0.95
-1.28
-1.50
-1.48
-1.15
-0.55
0.25
1.15
2.06
2.80
3.17
3.02
2.33
1.26
0.16
-0.65
-0.95
-0.76
-0.31
0.13
0.35
0.29
0.05
-0.27
-0.58
-0.87
-1.16
-1.46
-1.69
-1.73
-1.48
-0.91
-0.10
0.76
1.47
1.89
2.04
2.00
1.91
1.84
1.82
1.78
1.67
1.50
1.31
1.20
1.21
1.37
1.58
1.74
1.74
1.52
1.13
0.68
0.29
0.02
-0.12
-0.20
-0.29
-0.43
-0.62
-0.81
-0.97
-1.05
-1.04
-0.94
-0.75
-0.48
-0.14
0.21
0.52
0.72
0.78
0.70
0.51
0.25
-0.03
-0.29
-0.49
-0.60
-0.57
-0.38
-0.08
0.23
0.45
0.50
0.41
0.28
0.23
0.35
0.57
0.78
0.85
0.77
0.62
0.53
0.55
0.64
0.64
0.48
0.15
-0.20
-0.40
-0.35
-0.09
0.25
0.50
0.55
0.40
0.10
-0.25
-0.56
-0.75
-0.76
-0.58
-0.24
0.16
0.52
0.75
0.82
0.76
0.63
0.46
0.26
-0.00
-0.31
-0.62
-0.89
-1.07
-1.18
-1.23
-1.28
-1.31
-1.25
-1.07
-0.73
-0.30
0.10
0.34
0.36
0.21
-0.03
-0.24
-0.38
-0.45
-0.50
-0.56
-0.64
-0.69
-0.71
-0.71
-0.73
-0.81
-0.93
-1.03
-0.99
-0.78
-0.44
-0.10
0.08
0.02
-0.29
-0.70
-1.04
-1.15
-0.98
-0.62
-0.20
0.13
0.29
0.28
0.14
-0.07
-0.32
-0.60
-0.92
-1.23
-1.49
-1.63
-1.61
-1.41
-1.02
-0.50
0.10
0.65
1.05
1.22
1.14
0.89
0.62
0.45
0.46
0.60
0.80
0.95
1.00
0.94
0.76
0.47
0.05
-0.50
-1.12
-1.66
-1.97
-1.98
-1.71
-1.26
-0.80
-0.43
-0.18
-0.01
0.11
0.19
0.19
0.03
-0.27
-0.67
-1.04
-1.26
-1.26
-1.04
-0.69
-0.28
0.08
0.38
0.62
0.82
0.98
1.12
1.21
1.25
1.24
1.19
1.10
0.95
0.73
0.44
0.12
-0.16
-0.36
-0.42
-0.36
-0.19
0.06
0.37
0.71
1.02
1.23
1.28
1.18
0.98
0.79
0.68
0.68
0.80
1.04
1.44
2.03
2.83
3.71
4.44
4.75
4.44
3.52
2.19
0.76
-0.44
-1.24
-1.64
-1.79
-1.86
-1.99
-2.22
-2.52
-2.82
-3.06
-3.23
-3.33
-3.40
-3.48
-3.60
-3.73
-3.81
-3.78
-3.60
-3.29
-2.96
-2.76
-2.79
-3.03
-3.41
-3.80
-4.13
-4.38
-4.59
-4.82
-5.05
-5.24
-5.31
-5.19
-4.82
-4.20
-3.31
-2.19
-0.98
0.12
0.92
1.34
1.44
1.43
1.55
1.89
2.37
2.84
3.12
3.20
3.22
3.36
3.75
4.34
4.97
5.43
5.56
5.33
4.83
4.18
3.52
2.97
2.62
2.52
2.63
2.84
2.99
2.94
2.64
2.15
1.66
1.31
1.19
1.24
1.34
1.35
1.23
1.01
0.79
0.65
0.60
0.59
0.54
0.38
0.15
-0.12
-0.37
-0.60
-0.87
-1.21
-1.64
-2.07
-2.38
-2.41
-2.11
-1.57
-0.98
-0.58
-0.50
-0.74
-1.18
-1.61
-1.86
-1.85
-1.63
-1.30
-1.01
-0.89
-0.96
-1.17
-1.42
-1.57
-1.56
-1.40
-1.15
-0.86
-0.59
-0.33
-0.06
0.23
0.51
0.72
0.76
0.59
0.20
-0.35
-0.92
-1.38
-1.64
-1.69
-1.60
-1.53
-1.60
-1.87
-2.35
-2.97
-3.63
-4.25
-4.69
-4.81
-4.56
-3.99
-3.30
-2.78
-2.63
-2.88
-3.32
-3.62
-3.47
-2.69
-1.31
0.51
2.51
4.36
5.65
6.05
5.37
3.76
1.66
-0.29
-1.57
-1.93
-1.45
-0.40
0.94
2.34
3.64
4.66
5.23
5.25
4.76
4.00
3.30
2.90
2.86
3.08
3.37
3.60
3.73
3.80
3.90
4.07
4.38
4.86
5.52
6.36
7.27
8.15
8.93
9.60
10.20
10.75
11.20
11.41
11.21
10.54
9.56
8.57
7.92
7.81
8.23
8.90
9.43
9.46
8.80
7.49
5.77
3.95
2.31
1.06
0.26
-0.19
-0.57
-1.26
-2.57
-4.68
-7.42
-10.32
-12.78
-14.34
-14.91
-14.81
-14.53
-14.43
-14.51
-14.44
-13.80
-12.40
-10.38
-8.26
-6.58
-5.57
-5.02
-4.35
-3.01
-0.82
1.87
4.62
6.74
7.66
7.10
5.22
2.66
0.24
-1.43
-2.07
-1.69
-0.55
0.97
2.22
2.28
0.16
-4.72
-11.92
-19.60
-25.09
-26.28
-22.73
-16.28
-9.84
-5.59
-3.46
-1.25
3.71
12.26
22.15
28.69
27.07
15.19
-4.64
-26.32
-42.32
-47.06
-39.23
-22.13
-1.71
16.06
27.37
31.25
28.88
22.51
14.11
5.63
-0.67
-2.45
1.72
11.20
22.77
31.47
33.32
27.59
17.25
7.20
1.47
1.26
4.82
8.99
11.21
10.66
8.14
5.02
2.19
-0.19
-2.35
-4.26
-5.51
-5.57
-4.24
-1.84
0.95
3.39
4.97
5.57
5.36
4.91
4.85
5.66
7.26
8.69
8.10
3.64
-5.13
-16.07
-24.73
-26.32
-18.33
-2.41
15.86
29.48
33.44
27.00
13.75
-0.64
-11.51
-17.22
-19.02
-19.34
-19.84
-20.53
-20.31
-18.19
-14.26
-9.75
-6.34
-5.17
-6.41
-9.09
-11.48
-12.23
-10.82
-7.71
-4.14
-1.46
-0.50
-1.27
-2.98
-4.53
-5.04
-4.17
-2.25
-0.04
1.66
2.36
2.06
1.22
0.48
0.30
0.88
2.04
3.38
4.49
5.15
5.35
5.31
5.34
5.66
6.34
7.27
8.28
9.16
9.78
10.17
10.47
10.89
11.59
12.63
13.83
14.92
15.57
15.50
14.65
13.20
11.44
9.66
7.94
5.92
3.23
-0.61
-5.82
-12.12
-18.80
-24.89
-29.55
-32.13
-33.30
-33.97
-35.20
-37.66
-41.35
-45.48
-48.90
-50.91
-51.08
-49.99
-48.64
-48.12
-49.20
-52.37
-57.87
-65.42
-73.63
-79.65
-79.73
-70.49
-50.89
-23.37
6.70
32.96
50.78
58.93
59.54
56.32
52.51
49.44
46.72
43.42
39.28
35.06
32.01
30.91
31.44
32.44
32.56
30.84
27.34
22.96
18.96
16.36
15.49
15.91
16.70
16.86
15.79
13.55
10.73
8.13
6.39
5.74
5.90
6.34
6.47
5.98
4.90
3.53
2.30
1.52
1.26
1.38
1.62
1.72
1.55
1.15
0.65
0.22
-0.02
-0.09
-0.03
0.05
0.09
0.09
0.08
0.14
0.30
0.54
0.78
0.96
1.00
0.93
0.83
0.84
1.07
1.56
2.23
2.91
3.40
3.57
3.44
3.22
3.20
3.65
4.66
6.06
7.49
8.56
9.01
8.87
8.50
8.43
9.10
10.66
12.88
15.20
17.04
18.03
18.17
17.83
17.60
17.96
19.30
21.85
25.60
30.06
34.12
36.04
33.97
26.81
14.92
0.35
-13.83
-24.72
-30.73
-32.10
-30.39
-27.53
-24.84
-22.64
-20.55
-18.11
-15.33
-12.76
-11.10
-10.63
-11.02
-11.51
-11.36
-10.33
-8.80
-7.52
-7.21
-8.09
-9.84
-11.70
-12.92
-12.94
-11.64
-9.22
-6.11
-2.80
0.12
1.99
2.33
1.01
-1.52
-4.34
-6.30
-6.59
-4.99
-1.93
1.76
5.28
8.06
9.66
9.68
7.74
3.74
-1.93
-8.34
-14.33
-18.84
-21.38
-21.95
-20.83
-18.27
-14.44
-9.64
-4.45
0.31
3.90
6.00
6.85
7.06
7.21
7.57
8.01
8.36
8.30
7.95
7.55
7.32
7.34
7.50
7.58
7.46
7.13
6.67
6.20
5.74
5.26
4.65
3.85
2.82
1.59
0.19
-1.37
-3.04
-4.71
-6.26
-7.47
-8.17
-8.24
-7.68
-6.62
-5.30
-3.91
-2.66
-1.67
-1.01
-0.69
-0.68
-0.83
-0.98
-0.98
-0.72
-0.21
0.47
1.19
1.91
2.62
3.38
4.17
4.89
5.36
5.44
5.13
4.64
4.35
4.61
5.59
7.10
8.67
9.71
9.80
8.94
7.59
6.47
6.24
7.15
8.89
10.70
11.75
11.54
10.13
8.16
6.54
6.13
7.43
10.66
15.80
22.50
29.79
35.81
38.10
34.36
23.74
7.65
-10.45
-26.28
-36.45
-39.86
-37.80
-32.95
-27.89
-23.98
-21.21
-18.88
-16.47
-14.11
-12.41
-11.86
-12.43
-13.46
-14.03
-13.42
-11.47
-8.65
-5.80
-3.74
-2.94
-3.30
-4.26
-5.08
-5.17
-4.36
-2.92
-1.44
-0.45
-0.23
-0.63
-1.25
-1.58
-1.37
-0.65
0.22
0.81
0.79
0.14
-0.90
-1.96
-2.70
-2.97
-2.82
-2.45
-2.06
-1.77
-1.60
-1.47
-1.26
-0.89
-0.36
0.27
0.89
1.36
1.60
1.58
1.35
1.02
0.72
0.52
0.44
0.43
0.45
0.46
0.45
0.45
0.45
0.42
0.30
0.05
-0.33
-0.76
-1.12
-1.29
-1.21
-0.89
-0.39
0.17
0.71
1.12
1.37
1.41
1.27
1.00
0.70
0.50
0.49
0.73
1.15
1.62
1.96
2.04
1.85
1.45
0.99
0.58
0.26
0.03
-0.15
-0.30
-0.45
-0.62
-0.89
-1.34
-2.05
-2.98
-4.02
-4.96
-5.63
-5.99
-6.06
-5.98
-5.82
-5.64
-5.40
-5.07
-4.66
-4.22
-3.82
-3.54
-3.35
-3.14
-2.69
-1.83
-0.50
1.17
2.81
3.89
3.94
2.71
0.30
-2.79
-5.85
-8.23
-9.64
-10.18
-10.36
-10.72
-11.58
-12.75
-13.60
-13.20
-10.78
-6.05
0.62
8.29
15.65
21.25
23.71
22.04
15.93
6.06
-5.88
-17.58
-26.82
-32.35
-34.47
-34.90
-35.79
-38.42
-42.27
-45.11
-44.09
-37.31
-24.95
-9.26
6.52
19.68
28.99
34.85
38.43
40.70
41.78
41.20
38.53
34.00
28.67
23.90
20.71
19.28
18.96
18.73
17.65
15.30
11.76
7.51
3.14
-0.76
-3.61
-4.94
-4.41
-1.96
2.00
6.60
10.69
13.16
13.35
11.37
8.00
4.45
1.85
0.87
1.52
3.17
4.83
5.45
4.15
0.40
-5.95
-14.61
-24.78
-35.20
-44.28
-50.48
-52.83
-51.45
-47.63
-43.13
-38.96
-34.47
-27.41
-15.53
1.28
19.88
34.93
41.59
38.47
28.67
18.21
12.74
14.86
23.39
34.84
45.54
52.88
55.35
51.83
41.54
24.81
3.99
-16.69
-32.71
-41.47
-43.49
-41.82
-40.02
-40.08
-41.81
-43.70
-44.47
-44.14
-43.96
-45.49
-49.69
-56.43
-64.73
-72.96
-79.35
-82.33
-80.83
-74.52
-63.90
-50.23
-35.25
-20.88
-8.91
-0.76
2.74
1.54
-3.48
-10.61
-17.78
-23.05
-25.30
-24.52
-21.70
-18.48
-16.52
-17.19
-21.06
-27.76
-35.80
-42.83
-46.20
-43.76
-34.71
-19.89
-1.47
17.81
35.49
50.00
60.76
67.90
71.78
72.72
70.98
66.91
61.18
54.79
48.87
44.45
42.10
41.87
43.22
45.32
47.34
48.72
49.38
49.61
49.88
50.49
51.45
52.39
52.80
52.29
50.79
48.54
45.97
43.42
41.03
38.70
36.25
33.51
30.44
27.12
23.68
20.24
16.90
13.77
10.93
8.46
6.34
4.47
2.75
1.11
-0.38
-1.51
-2.09
-1.89
-0.94
0.50
1.98
3.12
3.73
3.82
3.48
2.67
1.25
-1.09
-4.64
-9.35
-14.73
-19.96
-24.27
-27.25
-28.86
-28.89
-26.79
-21.60
-12.36
1.32
18.72
37.89
56.19
71.10
81.59
87.31
88.21
84.28
75.92
64.38
51.70
40.24
31.89
28.60
30.49
35.75
41.63
46.13
48.97
51.34
54.99
61.15
71.55
85.47
99.30
108.11
108.46
100.52
87.91
75.87
69.01
72.15
86.44
108.90
133.95
156.06
171.58
178.76
177.30
152.62
100.38
29.29
-43.10
-102.21
-142.90
-167.21
-179.54
-183.86
-183.05
-176.88
-165.86
-152.26
-139.27
-129.12
-121.98
-116.69
-112.02
-107.48
-101.58
-93.94
-85.58
-78.30
-73.26
-70.30
-68.44
-66.77
-64.89
-61.81
-57.30
-51.94
-46.75
-42.39
-38.75
-35.29
-31.61
-27.77
-23.62
-19.45
-15.90
-13.72
-13.36
-14.54
-16.38
-17.78
-17.93
-16.33
-13.17
-9.26
-5.66
-3.32
-2.58
-3.11
-4.16
-4.96
-4.98
-4.08
-2.42
-0.40
1.46
2.88
3.98
5.13
6.68
8.68
10.22
10.10
8.32
5.08
0.65
-3.80
-6.92
-7.68
-5.85
-2.08
2.53
6.92
10.28
12.40
13.57
14.15
14.27
13.89
12.93
11.54
10.13
9.08
8.69
9.13
10.25
11.69
13.03
13.93
14.20
13.91
13.23
12.44
11.91
11.87
12.34
13.11
13.88
14.40
14.59
14.54
14.50
14.72
15.26
15.87
16.03
15.18
12.95
9.42
5.04
0.39
-4.20
-8.89
-14.26
-20.76
-28.19
-35.43
-40.70
-42.33
-39.60
-33.14
-24.79
-16.72
-10.52
-6.77
-4.97
-4.09
-3.08
-1.14
2.34
7.68
14.73
22.25
27.88
28.61
22.18
8.47
-9.84
-28.06
-41.26
-46.48
-43.81
-36.07
-27.22
-20.62
-17.83
-18.55
-21.22
-23.96
-25.34
-24.68
-22.29
-19.14
-16.46
-15.21
-15.62
-16.89
-17.54
-16.08
-11.89
-5.70
0.96
6.63
10.62
13.27
15.55
18.41
22.22
26.60
30.57
33.54
35.75
38.07
41.37
45.95
51.43
57.01
61.92
65.10
66.63
67.64
69.32
72.06
75.29
78.07
79.79
80.59
79.79
78.25
77.95
80.34
84.71
88.44
88.52
83.26
73.31
58.86
42.71
28.85
19.44
12.55
2.98
-15.26
-46.61
-92.67
-154.75
-228.37
-303.05
-365.64
-404.95
-414.66
-394.35
-349.29
-268.96
-162.42
-53.90
33.24
90.93
124.51
143.18
153.80
160.12
163.57
161.83
154.94
145.81
137.69
131.25
124.87
115.99
102.42
83.21
56.74
24.95
-6.73
-32.13
-47.72
-53.65
-52.73
-48.52
-43.71
-40.65
-38.91
-36.00
-29.60
-19.59
-8.04
2.18
8.96
11.71
10.64
7.39
4.18
2.62
2.86
3.70
3.60
1.70
-1.78
-5.86
-8.95
-9.63
-7.29
-2.42
3.90
10.46
16.49
21.58
25.60
28.38
29.70
29.41
27.62
24.87
22.11
20.49
21.06
24.36
30.23
37.93
46.31
54.29
61.17
66.84
71.59
75.81
79.66
82.87
84.92
85.30
83.95
81.47
78.92
77.47
77.85
80.08
83.46
86.85
89.15
89.65
88.11
84.68
79.73
73.77
67.44
61.53
56.87
54.04
52.97
52.75
51.74
48.19
40.92
29.84
15.90
0.56
-14.94
-29.98
-44.39
-57.93
-70.16
-80.82
-90.75
-102.40
-119.12
-143.37
-174.95
-210.49
-244.82
-273.51
-294.76
-309.58
-320.04
-327.14
-329.99
-326.98
-317.79
-304.57
-291.11
-280.34
-272.20
-263.38
-249.39
-227.41
-198.32
-166.25
-136.17
-111.16
-90.86
-71.96
-49.99
-21.63
13.67
53.03
90.96
120.94
137.73
139.51
128.88
112.19
97.35
90.96
96.10
111.90
134.69
160.24
185.48
209.18
231.32
251.88
270.09
284.32
292.65
293.61
286.76
273.00
254.39
233.66
213.40
195.11
178.59
161.98
142.75
119.17
91.57
62.48
35.57
13.87
-1.78
-12.93
-22.49
-32.90
-44.83
-56.99
-67.12
-73.48
-75.88
-75.50
-74.02
-72.39
-70.29
-66.50
-59.89
-50.53
-40.05
-31.16
-26.52
-27.49
-33.52
-42.31
-50.86
-56.71
-58.84
-57.88
-55.47
-53.24
-51.94
-51.21
-50.08
-47.67
-43.85
-39.29
-35.08
-32.11
-30.63
-30.31
-30.58
-31.12
-32.06
-33.84
-36.92
-41.35
-46.72
-52.19
-56.83
-59.86
-60.96
-60.21
-58.13
-55.20
-51.59
-46.92
-40.33
-30.93
-18.25
-2.66
14.62
31.86
47.24
59.17
66.35
67.76
62.84
51.93
36.65
19.89
5.20
-4.38
-7.36
-4.42
1.92
8.21
11.18
8.72
0.34
-12.91
-28.77
-44.66
-58.40
-69.15
-78.09
-88.37
-104.46
-131.17
-172.48
-230.35
-303.61
-387.17
-472.17
-547.35
-601.77
-628.06
-624.67
-596.22
-551.41
-499.75
-448.49
-401.16
-358.16
-318.37
-280.76
-245.03
-211.27
-179.31
-148.44
-117.69
-86.39
-54.49
-22.41
9.12
39.67
69.28
98.22
126.97
156.04
185.79
216.31
247.46
279.01
311.07
344.19
379.24
417.02
457.50
499.16
538.68
571.76
594.53
605.10
604.39
595.25
581.62
567.22
554.61
544.90
538.22
534.45
533.72
536.14
540.17
543.18
542.21
534.61
518.37
492.55
457.76
416.22
371.08
323.13
272.57
220.25
168.15
118.56
73.21
33.10
-1.48
-30.94
-59.98
-93.18
-132.18
-175.05
-218.46
-259.76
-297.76
-332.23
-363.47
-396.55
-435.86
-481.75
-530.17
-575.84
-615.04
-646.60
-670.83
-660.03
-597.17
-487.87
-358.46
-235.87
-133.67
-53.19
9.49
59.50
101.00
132.58
152.19
161.16
164.40
165.70
169.15
176.07
186.34
198.60
208.34
211.63
208.36
201.70
195.21
190.96
188.78
187.19
181.37
170.98
154.99
135.07
114.36
95.31
78.97
65.02
52.82
37.46
14.98
-15.41
-50.56
-86.41
-120.40
-151.24
-178.29
-200.78
-224.90
-254.59
-288.98
-322.97
-351.95
-374.70
-392.15
-405.94
-417.38
-436.73
-470.43
-517.65
-571.64
-625.56
-676.62
-725.00
-772.65
-763.39
-672.80
-519.60
-347.83
-188.64
-48.81
75.28
186.23
281.87
357.94
403.13
414.29
399.97
375.73
356.61
348.27
350.94
363.09
383.44
403.53
416.22
417.88
401.70
367.37
317.46
259.10
202.61
158.00
126.52
105.25
90.16
78.66
70.43
65.16
63.05
64.06
67.39
69.30
67.00
59.91
50.22
41.31
35.02
31.53
29.37
27.25
23.08
15.79
5.31
-6.49
-16.86
-24.05
-27.52
-27.75
-25.80
-23.01
-20.42
-19.42
-20.04
-21.64
-23.91
-26.94
-31.17
-37.16
-45.46
-50.87
-54.28
-56.40
-57.31
-57.01
-55.51
-52.95
-49.60
-45.76
-41.78
-38.68
-36.47
-34.74
-33.32
-32.04
-30.74
-29.34
-27.80
-26.31
-25.59
-25.62
-25.98
-26.44
-26.61
-26.04
-24.29
-21.07
-16.60
-11.34
-6.69
-1.48
4.71
12.18
21.12
31.39
42.45
52.89
61.40
67.16
70.06
70.32
68.72
66.21
63.40
60.18
55.12
46.95
34.83
18.79
-0.38
-21.08
-41.61
-60.72
-74.45
-84.22
-91.77
-98.60
-105.73
-114.07
-124.00
-134.74
-143.84
-147.13
-140.63
-121.49
-90.53
-52.69
-15.53
13.84
31.54
37.97
36.69
31.57
25.54
19.52
12.97
5.37
-2.81
-10.24
-15.70
-18.88
-20.93
-23.23
-26.88
-32.19
-38.20
-43.17
-45.23
-43.15
-36.74
-26.94
-14.92
-1.78
11.49
24.38
36.86
48.94
60.39
70.56
78.66
84.00
86.53
86.40
84.31
81.33
78.50
76.58
75.81
76.19
75.68
74.80
73.67
72.23
70.46
68.36
65.93
62.98
59.50
55.48
51.08
46.10
40.38
33.83
26.40
19.15
11.30
2.81
-6.13
-15.02
-23.62
-31.68
-38.93
-45.21
-50.47
-54.78
-58.07
-60.48
-62.09
-63.23
-64.22
-65.33
-66.81
-68.90
-71.59
-74.70
-78.11
-81.69
-85.43
-89.37
-93.57
-98.18
-103.43
-109.11
-115.07
-121.21
-127.49
-133.88
-140.39
-147.02
-153.86
-161.10
-168.26
-175.02
-181.12
-186.28
-190.11
-192.03
-191.07
-185.66
-178.61
-170.63
-162.12
-153.30
-144.30
-135.19
-126.02
-116.91
-108.07
-99.87
-92.04
-84.55
-77.46
-70.80
-64.59
-58.78
-53.30
-48.12
-43.35
-38.66
-33.93
-29.21
-24.52
-19.86
-15.15
-10.34
-5.44
-0.64
4.06
8.47
12.39
15.79
18.91
22.17
26.12
31.08
37.09
43.98
51.32
58.66
65.81
72.92
80.49
89.11
99.09
110.35
122.41
134.60
146.45
157.82
169.04
180.56
192.73
205.74
219.94
236.01
254.85
276.58
299.52
319.79
332.41
333.31
321.20
298.25
268.78
237.27
206.53
177.47
150.12
124.82
102.68
84.79
71.10
59.87
48.54
35.24
20.10
5.45
-5.41
-9.77
-6.62
3.00
16.51
30.61
42.04
48.38
48.50
42.67
32.16
18.33
1.83
-17.79
-41.35
-68.96
-99.06
-128.23
-152.23
-167.62
-173.16
-170.27
-162.17
-152.45
-143.63
-136.59
-130.70
-124.65
-116.97
-106.21
-90.93
-69.44
-40.18
-2.36
43.16
93.35
143.30
187.40
220.94
241.43
249.11
246.38
236.72
223.39
208.79
194.45
181.29
169.96
160.68
153.09
146.27
138.93
130.03
119.16
106.57
92.96
78.96
64.91
50.83
36.60
22.16
7.61
-6.83
-20.76
-33.64
-44.81
-53.72
-60.18
-64.67
-68.30
-72.51
-78.46
-86.53
-96.16
-106.16
-115.13
-121.91
-125.74
-126.22
-123.25
-116.98
-107.90
-96.78
-84.57
-72.08
-59.72
-47.46
-35.01
-22.14
-8.96
4.06
16.27
27.07
36.13
43.33
48.74
52.54
54.96
56.38
57.17
57.71
58.24
58.84
59.31
59.37
58.66
56.91
54.02
50.04
45.18
39.77
34.16
28.72
23.71
19.29
15.57
12.54
10.21
8.54
7.52
7.14
7.34
8.03
8.98
9.86
10.36
10.24
9.52
8.47
7.56
7.28
7.87
9.19
10.78
12.02
12.42
11.76
10.22
8.18
6.04
4.07
2.29
0.58
-1.23
-3.19
-5.25
-7.23
-8.97
-10.32
-11.14
-11.39
-11.05
-10.16
-8.90
-7.50
-6.20
-5.16
-4.38
-3.73
-3.05
-2.25
-1.36
-0.46
0.37
1.15
1.90
2.65
3.36
3.94
4.29
4.46
4.61
4.96
5.70
6.90
8.55
10.67
13.31
16.54
20.30
24.27
27.90
30.59
32.02
32.33
32.18
32.52
34.16
37.46
42.14
47.38
52.10
55.25
56.12
54.38
50.19
44.04
36.63
28.64
20.64
12.93
5.62
-1.33
-7.93
-14.08
-19.63
-24.44
-28.53
-32.13
-35.62
-39.35
-43.55
-48.20
-53.07
-57.85
-62.20
-65.84
-68.53
-70.10
-70.55
-70.20
-69.64
-69.59
-70.62
-72.76
-75.26
-76.80
-75.87
-71.45
-63.57
-53.48
-43.36
-35.55
-31.61
-31.70
-34.54
-38.05
-40.22
-39.92
-37.14
-32.72
-27.67
-22.65
-17.78
-12.95
-8.11
-3.54
0.22
2.78
4.17
4.91
5.71
7.12
9.21
11.60
13.72
15.19
16.08
16.78
17.75
19.11
20.52
21.22
20.47
17.91
13.79
8.82
3.90
-0.26
-3.30
-5.18
-6.06
-6.05
-5.25
-3.71
-1.63
0.66
2.74
4.31
5.25
5.66
5.81
5.99
6.38
7.01
7.74
8.39
8.84
9.09
9.26
9.56
10.17
11.23
12.75
14.61
16.59
18.48
20.07
21.28
22.17
22.80
23.22
23.34
22.89
21.53
19.01
15.32
10.67
5.44
-0.07
-5.70
-11.42
-17.18
-22.71
-27.55
-31.24
-33.49
-34.43
-34.54
-34.43
-34.56
-35.02
-35.60
-35.93
-35.75
-35.00
-33.79
-32.33
-30.67
-28.70
-26.17
-22.79
-18.42
-13.17
-7.39
-1.66
3.40
7.26
9.56
10.23
9.46
7.67
5.38
3.11
1.21
-0.18
-1.10
-1.70
-2.15
-2.60
-3.12
-3.69
-4.18
-4.32
-3.87
-2.62
-0.58
2.01
4.77
7.32
9.36
10.82
11.75
12.30
12.73
13.45
14.96
17.73
21.92
27.16
32.43
36.37
37.71
35.76
30.73
23.81
16.84
11.86
10.51
13.33
19.29
25.64
28.45
23.71
8.87
-15.84
-47.06
-79.06
-105.49
-121.38
-124.52
-115.69
-97.88
-74.85
-49.99
-25.73
-3.68
15.10
29.84
40.19
46.48
49.77
51.61
53.47
56.20
59.69
63.02
65.07
65.09
63.18
60.32
57.95
57.43
59.48
63.91
69.75
75.57
79.94
81.85
80.95
77.53
72.48
66.89
61.91
58.23
55.98
54.57
53.09
50.65
46.93
42.36
37.83
34.22
31.78
29.79
26.66
20.19
8.00
-12.07
-41.55
-80.60
-127.41
-177.89
-226.17
-265.92
-292.08
-302.33
-297.60
-281.41
-258.59
-233.72
-210.21
-189.95
-173.51
-160.53
-150.11
-141.17
-132.70
-124.06
-115.13
-106.38
-98.68
-92.98
-89.83
-88.73
-87.60
-82.90
-70.43
-47.09
-12.54
29.97
74.28
113.35
141.77
157.48
161.96
158.92
152.31
144.82
137.48
130.26
123.00
116.03
110.04
105.57
102.53
100.18
97.51
93.81
89.05
83.93
79.45
76.47
75.27
75.48
76.27
76.69
76.09
74.27
71.53
68.44
65.60
63.36
61.68
60.20
58.47
56.14
53.18
49.86
46.64
43.87
41.60
39.52
37.07
33.67
29.00
23.15
16.50
9.62
2.95
-3.29
-9.15
-14.80
-20.41
-26.07
-31.67
-37.01
-41.84
-45.95
-49.31
-52.21
-55.26
-59.20
-64.51
-70.96
-77.53
-82.73
-85.36
-85.21
-83.35
-81.78
-82.53
-86.92
-94.94
-105.35
-116.04
-124.28
-127.15
-122.09
-107.94
-85.80
-59.37
-34.02
-14.87
-4.62
-2.37
-4.23
-5.33
-2.29
5.38
15.51
24.97
31.51
34.84
36.29
37.64
39.88
42.54
44.33
44.05
41.60
38.17
35.47
34.58
35.31
36.24
35.21
30.11
19.49
3.03
-18.40
-42.67
-66.88
-87.85
-102.83
-110.22
-110.20
-104.80
-97.47
-92.11
-91.96
-98.95
-113.17
-132.59
-152.96
-168.53
-173.46
-163.79
-139.00
-102.07
-58.62
-15.12
23.15
53.59
76.21
92.52
104.23
112.44
118.57
123.76
128.94
134.72
141.16
147.71
153.12
155.81
154.55
150.81
146.74
144.11
143.59
144.91
147.31
149.77
151.19
150.70
150.77
153.54
159.81
168.51
177.81
186.26
193.16
198.13
201.05
205.50
214.16
227.50
243.63
259.94
274.85
288.25
300.86
290.71
246.47
170.93
80.08
-8.48
-84.52
-145.63
-193.48
-230.87
-260.49
-280.06
-290.14
-292.38
-289.73
-285.05
-279.75
-273.88
-267.01
-259.03
-247.63
-230.50
-208.08
-183.08
-158.64
-136.94
-118.82
-104.27
-92.94
-82.58
-71.55
-59.40
-46.95
-35.53
-26.12
-19.13
-14.59
-12.33
-11.19
-10.18
-8.84
-7.23
-5.64
-4.27
-3.24
-2.68
-2.74
-3.19
-3.73
-4.09
-4.09
-3.62
-2.68
-1.35
0.16
1.65
2.94
3.91
4.51
4.70
4.49
3.90
3.03
2.05
1.17
0.53
0.23
0.23
0.45
0.77
1.14
1.62
2.28
3.22
4.41
5.71
6.91
7.79
8.23
8.25
7.97
7.52
7.00
6.41
5.77
5.12
4.56
4.18
4.02
3.98
3.88
3.52
2.76
1.63
0.23
-1.23
-2.54
-3.54
-4.14
-4.34
-4.23
-3.92
-3.55
-3.22
-3.01
-2.89
-2.81
-2.63
-2.28
-1.70
-0.96
-0.18
0.50
0.99
1.30
1.56
1.95
2.68
3.85
5.39
7.08
8.53
9.28
8.89
7.10
3.91
-0.31
-4.85
-8.85
-11.59
-12.73
-12.52
-11.68
-11.06
-11.21
-12.15
-13.41
-14.35
-14.51
-13.89
-12.85
-11.89
-11.30
-11.09
-11.03
-10.85
-10.42
-9.80
-9.16
-8.68
-8.46
-8.52
-8.74
-8.88
-8.50
-7.10
-4.30
-0.03
5.28
10.81
15.54
18.65
19.73
18.89
16.59
13.37
9.69
5.84
2.03
-1.61
-4.89
-7.58
-9.52
-10.62
-10.86
-10.28
-8.90
-6.68
-3.59
0.34
4.83
9.50
13.96
17.95
21.35
24.13
26.26
27.77
28.73
29.07
28.86
28.37
28.01
28.26
29.39
31.43
34.19
37.36
40.35
42.79
44.79
46.94
50.11
54.96
61.77
70.38
80.25
89.75
97.39
102.68
106.40
110.02
114.80
121.21
128.72
136.07
139.72
136.59
125.76
109.13
90.45
73.60
61.65
56.60
59.14
65.32
69.79
67.87
57.07
36.80
7.49
-29.58
-72.09
-117.15
-166.18
-221.16
-282.46
-347.42
-411.80
-472.17
-526.96
-576.18
-595.08
-566.10
-488.37
-380.95
-269.17
-170.00
-89.02
-24.92
25.95
67.16
97.32
114.65
119.63
116.21
109.93
105.14
103.89
106.42
111.95
116.30
115.71
108.88
97.72
85.80
76.02
69.81
67.33
68.12
69.47
68.90
65.35
59.67
53.68
48.78
45.53
43.93
43.70
43.59
42.54
40.11
36.72
33.10
29.76
26.81
24.33
22.43
20.98
19.90
19.12
18.65
18.32
17.84
16.89
15.49
14.04
13.11
13.14
13.87
14.74
14.55
12.01
6.33
-2.37
-13.06
-24.15
-33.96
-41.84
-47.83
-52.65
-57.16
-62.08
-67.95
-75.15
-83.64
-92.26
-98.36
-98.10
-88.03
-67.00
-37.44
-5.06
23.67
43.68
53.42
54.82
51.79
47.79
44.44
41.49
38.06
33.84
29.53
26.40
25.26
25.88
27.05
27.38
25.78
22.24
17.67
13.35
10.40
9.21
9.37
9.96
9.92
8.61
6.06
2.85
-0.20
-2.43
-3.66
-4.21
-4.68
-5.71
-7.61
-10.30
-13.32
-16.03
-17.88
-18.43
-17.69
-15.80
-12.97
-9.40
-5.22
-0.54
4.45
9.44
14.04
17.83
20.50
21.97
22.39
22.10
21.51
20.92
20.47
20.11
19.68
19.09
18.36
17.73
17.52
18.00
19.20
20.87
22.53
23.67
23.99
23.58
22.93
22.74
23.59
25.69
28.70
31.93
34.62
36.23
36.73
36.58
36.42
36.97
38.82
42.43
47.86
54.43
60.39
63.11
59.83
48.85
30.51
7.45
-16.26
-36.61
-51.07
-59.34
-62.73
-63.17
-62.10
-60.15
-57.35
-53.81
-50.09
-46.68
-44.27
-43.10
-42.82
-42.71
-41.96
-40.12
-37.20
-33.59
-29.76
-26.00
-22.11
-17.49
-11.42
-3.46
6.23
16.78
26.87
35.14
40.61
43.00
42.71
40.52
37.24
33.43
29.41
25.30
21.18
17.11
13.18
9.45
5.97
2.76
-0.12
-2.61
-4.64
-6.18
-7.28
-8.08
-8.71
-9.27
-9.81
-10.34
-10.89
-11.43
-11.91
-12.27
-12.40
-12.22
-11.71
-10.97
-10.13
-9.39
-8.87
-8.59
-8.49
-8.41
-8.26
-7.99
-7.64
-7.34
-7.19
-7.26
-7.56
-8.02
-8.57
-9.17
-9.76
-10.33
-10.82
-11.14
-11.20
-10.94
-10.38
-9.65
-8.94
-8.47
-8.35
-8.57
-9.03
-9.55
-10.00
-10.37
-10.68
-10.98
-11.15
-11.02
-10.33
-8.93
-6.82
-4.23
-1.46
1.18
3.49
5.37
6.80
7.82
8.52
9.04
9.50
9.96
10.32
10.35
9.74
8.30
5.99
2.93
-0.66
-4.59
-8.75
-13.07
-17.44
-21.69
-25.65
-29.28
-32.72
-36.27
-40.14
-44.28
-48.25
-51.29
-52.51
-51.24
-47.17
-40.43
-31.46
-20.85
-9.20
2.96
15.13
26.87
37.75
47.37
55.35
61.29
64.80
65.51
63.22
58.02
50.47
41.50
32.29
23.92
17.07
11.84
7.81
4.31
0.77
-3.05
-6.99
-10.63
-13.51
-15.30
-15.87
-15.27
-13.62
-11.08
-7.82
-4.06
-0.10
3.71
6.97
9.39
10.83
11.36
11.29
11.12
11.37
12.40
14.33
16.98
19.92
22.69
24.89
26.33
27.01
27.09
26.77
26.08
24.89
