1508861274.00
64.000000
-0.00
-0.00
-0.00
-0.00
-0.00
-0.00
-0.00
-0.00
-0.00
-0.00
0.00
0.01
0.01
-0.00
-0.03
-0.05
-0.05
0.00
0.13
0.36
0.66
1.01
1.37
1.72
2.06
2.40
2.79
3.24
3.80
4.42
5.06
5.66
6.20
6.68
7.15
7.68
8.31
9.14
10.09
11.05
11.89
12.57
13.13
13.75
14.64
15.97
17.94
20.37
22.97
25.41
27.51
29.35
31.26
33.70
37.03
41.65
47.21
53.15
58.85
63.92
68.41
72.81
77.85
84.10
92.13
101.40
111.07
120.15
128.02
134.67
140.79
147.80
154.53
163.30
174.65
188.55
203.59
216.68
223.43
219.33
201.29
168.72
124.19
71.45
14.54
-43.75
-102.24
-160.78
-219.24
-276.81
-332.06
-383.16
-429.26
-470.16
-506.02
-536.61
-560.74
-576.30
-580.77
-572.22
-549.84
-514.79
-469.65
-417.81
-362.82
-307.77
-254.96
-205.61
-159.57
-115.21
-70.07
-21.72
30.96
86.82
142.49
193.39
235.37
266.07
285.36
294.75
296.38
292.06
282.99
270.04
254.23
236.87
219.37
202.77
187.51
173.48
160.22
147.34
134.72
122.48
110.93
100.32
90.69
81.86
73.54
65.36
57.10
48.74
40.49
32.73
25.94
20.57
16.68
14.09
12.35
10.92
9.29
7.17
4.49
1.50
-1.39
-3.79
-5.46
-6.35
-6.61
-6.46
-6.02
-5.29
-4.20
-2.71
-0.94
0.82
2.19
2.79
2.52
1.51
0.13
-1.13
-1.94
-2.21
-2.12
-1.96
-1.96
-2.15
-2.38
-2.48
-2.42
-2.36
-2.67
-3.65
-5.41
-7.75
-10.22
-12.31
-13.68
-14.23
-14.09
-13.45
-12.40
-10.92
-8.91
-6.36
-3.49
-0.71
1.48
2.71
2.85
2.09
0.76
-0.78
-2.22
-3.37
-4.10
-4.31
-3.97
-3.09
-1.81
-0.33
1.13
2.40
3.40
4.13
4.63
4.95
5.17
5.38
5.61
5.88
6.05
5.90
5.15
3.68
1.60
-0.64
-2.45
-3.37
-3.13
-1.80
0.49
3.68
7.86
13.05
18.87
24.44
28.33
29.20
26.36
20.15
11.83
3.16
-4.23
-9.30
-11.72
-11.86
-10.46
-8.42
-6.63
-5.82
-6.39
-8.32
-11.18
-14.28
-16.98
-18.90
-20.01
-20.55
-20.67
-20.32
-19.19
-17.03
-13.93
-10.47
-7.49
-5.69
-5.26
-5.71
-6.21
-6.07
-5.16
-3.93
-3.09
-3.11
-3.93
-5.01
-5.74
-5.80
-5.30
-4.65
-4.30
-4.44
-4.93
-5.49
-5.89
-6.07
-6.12
-6.22
-6.48
-6.96
-7.63
-8.34
-8.91
-9.15
-8.89
-8.09
-6.85
-5.39
-3.84
-2.37
-0.87
0.96
3.39
6.38
9.50
12.02
13.25
12.86
11.03
8.42
5.87
4.03
3.19
3.29
4.02
5.04
6.06
6.93
7.54
7.81
7.65
7.00
5.84
4.27
2.43
0.44
-1.62
-3.73
-5.86
-7.89
-9.58
-10.59
-10.62
-9.58
-7.63
-5.23
-2.90
-1.09
0.00
0.42
0.40
0.19
0.02
-0.03
0.03
0.14
0.25
0.34
0.41
0.49
0.61
0.81
1.16
1.73
2.53
3.49
4.38
4.83
4.39
2.67
-0.45
-4.74
-9.63
-14.27
-17.82
-19.68
-19.60
-17.84
-15.03
-11.95
-9.26
-7.24
-5.67
-3.94
-1.39
2.43
7.55
13.54
19.71
25.26
29.56
32.20
33.07
32.31
30.30
27.56
24.61
21.86
19.50
17.50
15.63
13.67
11.48
9.07
6.58
4.28
2.46
1.42
1.34
2.23
3.94
6.13
8.39
10.33
11.65
12.28
12.32
12.04
11.78
11.75
12.03
12.49
12.88
12.96
12.66
11.97
10.98
9.63
7.76
5.12
1.63
-2.49
-6.69
-10.24
-12.58
-13.50
-13.28
-12.44
-11.46
-10.45
-9.15
-7.06
-3.85
0.42
5.31
10.21
14.66
18.52
21.89
24.89
27.40
29.05
29.38
28.11
25.34
21.58
17.53
13.78
10.59
7.77
4.81
1.12
-3.72
-9.73
-16.50
-23.32
-29.38
-34.09
-37.20
-38.79
-39.17
-38.69
-37.69
-36.48
-35.32
-34.39
-33.75
-33.30
-32.80
-31.98
-30.65
-28.75
-26.34
-23.53
-20.40
-17.04
-13.59
-10.25
-7.27
-4.88
-3.18
-2.15
-1.66
-1.52
-1.48
-1.24
-0.49
1.02
3.30
6.12
9.09
11.84
14.24
16.44
18.70
21.15
23.51
25.09
25.02
22.62
17.80
11.20
4.02
-2.35
-6.84
-8.96
-8.93
-7.40
-5.18
-2.89
-0.87
0.79
2.08
2.96
3.38
3.33
2.94
2.46
2.18
2.32
2.97
4.05
5.38
6.68
7.61
7.92
7.44
6.20
4.39
2.29
0.12
-2.03
-4.20
-6.47
-8.90
-11.39
-13.71
-15.54
-16.58
-16.70
-15.96
-14.67
-13.17
-11.64
-9.94
-7.63
-4.20
0.61
6.50
12.71
18.22
22.16
24.16
24.37
23.35
21.68
19.85
18.05
16.31
14.50
12.46
10.05
7.20
4.00
0.74
-2.16
-4.25
-5.32
-5.42
-4.86
-4.06
-3.39
-3.06
-3.11
-3.55
-4.39
-5.66
-7.32
-9.19
-10.89
-12.03
-12.29
-11.63
-10.30
-8.71
-7.23
-6.07
-5.22
-4.52
-3.83
-3.12
-2.51
-2.17
-2.23
-2.72
-3.56
-4.58
-5.66
-6.68
-7.56
-8.20
-8.46
-8.24
-7.53
-6.46
-5.29
-4.31
-3.73
-3.62
-3.96
-4.64
-5.61
-6.86
-8.32
-9.77
-10.81
-10.99
-9.99
-7.85
-4.96
-1.92
0.67
2.51
3.59
4.16
4.53
4.92
5.39
5.91
6.42
6.84
7.07
6.98
6.42
5.30
3.67
1.73
-0.20
-1.82
-2.93
-3.51
-3.64
-3.44
-2.98
-2.32
-1.55
-0.91
-0.75
-1.47
-3.23
-5.87
-8.77
-11.13
-12.13
-11.36
-8.99
-5.66
-2.25
0.47
2.14
2.79
2.67
2.00
0.95
-0.20
-0.77
0.25
3.81
10.10
18.17
26.04
31.59
33.54
32.18
29.17
26.55
25.61
26.20
27.06
26.74
24.59
21.10
17.44
14.48
12.11
9.24
4.56
-2.60
-11.71
-21.15
-29.02
-33.96
-35.57
-34.23
-30.74
-25.86
-20.22
-14.48
-9.37
-5.61
-3.62
-3.30
-4.08
-5.15
-5.95
-6.33
-6.50
-6.75
-7.20
-7.68
-7.90
-7.67
-7.03
-6.26
-5.68
-5.51
-5.77
-6.32
-6.99
-7.65
-8.25
-8.79
-9.20
-9.32
-8.92
-7.81
-5.93
-3.42
-0.57
2.25
4.71
6.59
7.86
8.57
8.87
8.94
8.92
8.92
8.95
8.97
8.88
8.60
8.06
7.28
6.31
5.23
4.12
3.05
2.06
1.19
0.54
0.19
0.23
0.66
1.44
2.47
3.66
4.94
6.23
7.50
8.64
9.57
10.24
10.70
11.07
11.50
12.09
12.82
13.56
14.17
14.53
14.62
14.47
14.15
13.69
13.13
12.45
11.64
10.64
9.42
7.97
6.33
4.59
2.89
1.32
-0.13
-1.60
-3.35
-5.54
-8.21
-11.12
-13.83
-15.84
-16.74
-16.30
-14.53
-11.69
-8.21
-4.63
-1.47
0.88
2.32
3.03
3.38
3.78
4.44
5.36
6.34
7.18
7.77
8.12
8.28
8.25
7.92
7.17
5.97
4.44
2.85
1.39
0.15
-1.04
-2.42
-4.19
-6.30
-8.43
-10.09
-10.80
-10.34
-8.83
-6.66
-4.29
-2.13
-0.35
1.05
2.19
3.16
3.97
4.57
4.91
4.98
4.85
4.65
4.53
4.60
4.90
5.37
5.89
6.26
6.32
5.95
5.17
4.09
2.85
1.61
0.41
-0.72
-1.80
-2.83
-3.80
-4.70
-5.48
-6.07
-6.32
-5.99
-4.86
-2.85
-0.10
2.97
5.83
8.01
9.29
9.75
9.69
9.44
9.22
9.05
8.85
8.49
7.96
7.34
6.75
6.28
5.88
5.39
4.64
3.56
2.24
0.93
-0.13
-0.78
-1.10
-1.31
-1.71
-2.51
-3.70
-5.08
-6.38
-7.36
-7.97
-8.32
-8.62
-9.08
-9.88
-11.07
-12.60
-14.29
-15.85
-16.91
-17.09
-16.20
-14.26
-11.60
-8.75
-6.27
-4.53
-3.59
-3.21
-3.00
-2.62
-1.91
-0.98
-0.07
0.60
0.93
1.04
1.14
1.42
1.88
2.37
2.68
2.69
2.39
2.00
1.76
1.86
2.37
3.16
4.01
4.65
4.87
4.59
3.83
2.73
1.54
0.57
0.12
0.38
1.39
2.98
4.79
6.35
7.21
7.15
6.28
5.04
4.08
3.93
4.82
6.51
8.48
10.12
11.03
11.12
10.56
9.65
8.60
7.47
6.22
4.84
3.41
2.11
1.14
0.54
0.22
-0.05
-0.53
-1.38
-2.65
-4.29
-6.21
-8.34
-10.60
-12.80
-14.67
-15.85
-16.04
-15.16
-13.45
-11.35
-9.40
-7.95
-7.12
-6.78
-6.73
-6.72
-6.61
-6.30
-5.73
-4.91
-3.83
-2.56
-1.20
0.13
1.35
2.40
3.25
3.86
4.16
4.11
3.66
2.82
1.65
0.26
-1.25
-2.76
-4.22
-5.65
-7.07
-8.55
-10.03
-11.35
-12.22
-12.40
-11.76
-10.38
-8.53
-6.51
-4.60
-2.86
-1.25
0.32
1.91
3.52
5.04
6.37
7.49
8.39
9.15
9.80
10.38
10.83
11.05
10.94
10.42
9.54
8.50
7.58
7.08
7.11
7.51
7.88
7.72
6.60
4.44
1.47
-1.79
-4.75
-6.92
-8.02
-8.04
-7.13
-5.57
-3.57
-1.34
1.02
3.44
5.84
8.11
10.11
11.66
12.63
12.89
12.36
11.05
9.20
7.35
6.26
6.54
8.19
10.30
11.24
9.31
3.54
-5.73
-16.99
-28.20
-37.69
-44.66
-49.20
-51.73
-52.52
-51.51
-48.50
-43.67
-37.72
-31.70
-26.48
-22.39
-19.00
-15.52
-11.23
-5.97
-0.22
5.22
9.61
12.67
14.62
16.04
17.46
19.16
21.07
22.94
24.47
25.52
26.06
26.15
25.82
25.06
23.88
22.35
20.68
19.16
18.03
17.31
16.76
15.99
14.60
12.46
9.78
6.99
4.53
2.63
1.18
-0.17
-1.79
-3.89
-6.42
-9.14
-11.72
-13.83
-15.22
-15.66
-15.02
-13.29
-10.68
-7.58
-4.51
-1.87
0.10
1.47
2.46
3.32
4.19
5.01
5.62
5.86
5.74
5.44
5.22
5.27
5.59
5.91
5.90
5.25
3.94
2.16
0.28
-1.36
-2.59
-3.39
-3.87
-4.17
-4.45
-4.94
-5.86
-7.42
-9.70
-12.54
-15.60
-18.49
-20.93
-22.91
-24.61
-26.26
-27.95
-29.53
-30.65
-30.89
-29.94
-27.73
-24.47
-20.60
-16.66
-13.15
-10.33
-8.21
-6.49
-4.73
-2.55
0.28
3.76
7.70
11.85
15.93
19.64
22.67
24.72
25.61
25.40
24.41
23.17
22.18
21.80
22.12
23.05
24.43
26.13
28.15
30.53
33.27
36.29
39.41
42.35
44.83
46.53
47.23
46.78
45.22
42.74
39.64
36.22
32.77
29.44
26.25
23.14
19.97
16.58
12.85
8.75
4.41
0.09
-3.82
-6.96
-9.17
-10.52
-11.37
-12.15
-13.23
-14.75
-16.62
-18.61
-20.53
-22.34
-24.13
-26.05
-28.22
-30.59
-33.02
-35.36
-37.49
-39.37
-40.95
-42.16
-42.83
-42.78
-41.90
-40.29
-38.19
-35.94
-33.77
-31.75
-29.73
-27.56
-25.22
-22.87
-20.78
-19.13
-17.85
-16.58
-14.89
-12.54
-9.67
-6.79
-4.48
-3.13
-2.68
-2.68
-2.49
-1.63
-0.01
2.08
4.05
5.37
5.73
5.10
3.69
1.83
-0.13
-1.83
-2.88
-2.93
-1.77
0.60
3.87
7.52
11.06
14.14
16.71
18.89
20.87
22.68
24.17
25.11
25.30
24.65
23.25
21.25
18.81
16.01
12.95
9.75
6.64
3.89
1.66
-0.10
-1.72
-3.72
-6.52
-10.18
-14.42
-18.62
-22.25
-25.09
-27.32
-29.26
-30.99
-32.34
-33.03
-33.03
-32.69
-32.40
-32.13
-31.15
-28.19
-22.18
-12.99
-1.72
9.63
19.12
25.63
29.19
30.68
31.15
31.33
31.45
31.41
31.15
30.78
30.59
30.95
32.16
34.28
37.08
40.02
42.43
43.73
43.68
42.51
40.73
38.88
37.25
35.70
33.86
31.31
27.85
23.57
18.78
13.83
9.02
4.56
0.60
-2.68
-5.14
-6.71
-7.44
-7.57
-7.39
-7.22
-7.24
-7.53
-8.05
-8.68
-9.35
-10.02
-10.66
-11.23
-11.65
-11.83
-11.68
-11.17
-10.40
-9.57
-8.90
-8.57
-8.68
-9.20
-10.00
-10.89
-11.66
-12.15
-12.28
-12.13
-11.84
-11.62
-11.61
-11.81
-12.00
-11.88
-11.07
-9.28
-6.36
-2.38
2.38
7.47
12.40
16.72
20.24
23.00
25.28
27.38
29.43
31.30
32.61
32.90
31.83
29.30
25.45
20.59
15.07
9.22
3.31
-2.37
-7.55
-11.96
-15.48
-18.13
-20.11
-21.74
-23.32
-25.03
-26.88
-28.77
-30.51
-31.88
-32.74
-32.95
-32.41
-31.11
-29.07
-26.39
-23.21
-19.67
-15.87
-11.85
-7.68
-3.47
0.59
4.27
7.35
9.73
11.43
12.54
13.21
13.58
13.79
13.98
14.26
14.71
15.26
15.75
15.92
15.52
14.43
12.71
10.59
8.38
6.33
4.64
3.35
2.39
1.61
0.79
-0.27
-1.75
-3.64
-5.76
-7.73
-9.17
-9.81
-9.67
-9.08
-8.54
-8.56
-9.41
-11.05
-13.16
-15.29
-17.01
-18.05
-18.31
-17.82
-16.69
-15.12
-13.32
-11.53
-9.96
-8.80
-8.07
-7.77
-7.77
-7.96
-8.24
-8.54
-8.84
-9.15
-9.51
-9.97
-10.68
-11.79
-13.49
-15.96
-19.23
-23.14
-27.29
-31.02
-33.64
-34.59
-33.70
-31.25
-27.85
-24.22
-20.88
-18.02
-15.57
-13.32
-11.20
-9.28
-7.77
-6.82
-6.46
-6.59
-7.01
-7.48
-7.76
-7.59
-6.78
-5.29
-3.30
-1.17
0.66
1.89
2.50
2.71
2.83
3.03
3.31
3.51
3.46
3.09
2.44
1.54
0.33
-1.26
-3.23
-5.30
-6.92
-7.40
-6.13
-2.85
2.17
8.29
14.65
20.55
25.59
29.75
33.24
36.36
39.30
42.07
44.54
46.53
47.89
48.52
48.40
47.55
46.03
43.92
41.32
38.36
35.16
31.83
28.38
24.74
20.81
16.49
11.84
7.04
2.49
-1.35
-4.07
-5.46
-5.58
-4.80
-3.70
-2.95
-3.07
-4.30
-6.39
-8.74
-10.50
-10.90
-9.59
-6.71
-2.94
0.86
3.90
5.79
6.56
6.57
6.28
5.98
5.74
5.47
5.05
4.46
3.80
3.20
2.68
2.12
1.24
-0.19
-2.27
-4.79
-7.38
-9.59
-11.11
-11.87
-12.08
-12.14
-12.41
-13.16
-14.49
-16.28
-18.27
-20.08
-21.33
-21.66
-20.88
-19.02
-16.30
-13.10
-9.86
-6.93
-4.53
-2.72
-1.44
-0.56
0.02
0.39
0.56
0.57
0.47
0.35
0.30
0.39
0.59
0.76
0.71
0.27
-0.56
-1.65
-2.78
-3.76
-4.53
-5.21
-6.00
-7.11
-8.56
-10.23
-11.87
-13.21
-14.08
-14.39
-14.13
-13.32
-11.93
-9.95
-7.47
-4.66
-1.82
0.73
2.75
4.12
4.87
5.12
5.03
4.78
4.55
4.49
4.74
5.30
6.11
6.97
7.72
8.19
8.31
8.06
7.49
6.68
5.75
4.93
4.41
4.39
4.88
5.77
6.82
7.81
8.61
9.25
9.85
10.53
11.38
12.41
13.57
14.74
15.80
16.64
17.22
17.61
17.92
18.32
18.85
19.44
19.85
19.83
19.21
18.01
16.43
14.75
13.21
11.93
10.86
9.88
8.87
7.78
6.62
5.45
4.26
2.96
1.40
-0.59
-3.09
-6.02
-9.14
-12.16
-14.77
-16.77
-18.07
-18.68
-18.65
-18.09
-17.13
-15.96
-14.82
-13.89
-13.28
-12.94
-12.71
-12.38
-11.83
-11.07
-10.23
-9.49
-8.97
-8.68
-8.56
-8.51
-8.48
-8.48
-8.55
-8.72
-8.97
-9.18
-9.25
-9.09
-8.67
-8.04
-7.31
-6.58
-5.98
-5.58
-5.37
-5.31
-5.30
-5.25
-5.14
-5.01
-5.00
-5.27
-5.93
-7.03
-8.51
-10.22
-11.92
-13.30
-14.01
-13.75
-12.38
-9.99
-6.92
-3.66
-0.69
1.68
3.38
4.52
5.31
5.91
6.37
6.69
6.83
6.80
6.60
6.29
5.92
5.52
5.09
4.64
4.11
3.46
2.63
1.60
0.42
-0.84
-2.11
-3.32
-4.46
-5.59
-6.75
-8.02
-9.44
-11.02
-12.78
-14.72
-16.81
-18.99
-21.08
-22.83
-23.91
-24.06
-23.13
-21.19
-18.50
-15.43
-12.34
-9.48
-6.96
-4.84
-3.24
-2.31
-2.24
-3.09
-4.69
-6.67
-8.51
-9.79
-10.26
-9.96
-9.10
-7.97
-6.79
-5.70
-4.74
-3.95
-3.36
-3.01
-2.92
-3.11
-3.53
-4.08
-4.58
-4.82
-4.68
-4.19
-3.57
-3.18
-3.27
-3.81
-4.40
-4.38
-3.20
-0.61
3.08
7.21
10.98
13.86
15.66
16.59
17.01
17.21
17.33
17.36
17.22
16.88
16.39
15.88
15.45
15.15
14.95
14.75
14.53
14.31
14.18
14.24
14.45
14.61
14.42
13.59
11.95
9.52
6.46
3.03
-0.46
-3.59
-5.91
-6.93
-6.36
-4.20
-0.86
2.96
6.54
9.39
11.36
12.60
13.38
13.93
14.34
14.62
14.78
14.91
15.16
15.63
16.34
17.21
18.04
18.65
18.89
18.70
18.10
17.18
16.05
14.82
13.60
12.40
11.21
9.90
8.34
6.42
4.08
1.38
-1.57
-4.60
-7.43
-9.72
-11.05
-11.03
-9.48
-6.49
-2.52
1.80
5.86
9.27
11.98
14.18
16.13
18.02
19.84
21.47
22.72
23.45
23.61
23.19
22.25
20.82
18.89
16.43
13.38
9.76
5.71
1.46
-2.75
-6.75
-10.52
-14.18
-17.92
-21.82
-25.81
-29.65
-33.09
-35.96
-38.25
-40.01
-41.26
-41.89
-41.71
-40.56
-38.47
-35.66
-32.45
-29.06
-25.46
-21.40
-16.57
-10.87
-4.59
1.68
7.22
11.52
14.40
16.08
16.99
17.57
18.04
18.37
18.36
17.80
16.56
14.72
12.52
10.25
8.14
6.34
4.85
3.63
2.58
1.63
0.71
-0.23
-1.18
-2.04
-2.61
-2.58
-1.66
0.29
3.24
6.88
10.79
14.46
17.53
19.85
21.52
22.80
23.99
25.28
26.66
27.94
28.89
29.39
29.51
29.47
29.49
29.68
29.89
29.84
29.26
28.03
26.22
24.02
21.60
19.02
16.20
12.98
9.28
5.09
0.55
-4.16
-8.90
-13.54
-18.00
-22.14
-25.71
-28.42
-30.00
-30.33
-29.55
-28.00
-26.05
-23.95
-21.75
-19.34
-16.58
-13.50
-10.32
-7.34
-4.82
-2.83
-1.31
-0.12
0.76
1.21
1.05
0.11
-1.58
-3.86
-6.48
-9.18
-11.84
-14.40
-16.88
-19.32
-21.77
-24.32
-27.05
-29.92
-32.73
-35.01
-36.20
-35.81
-33.65
-29.95
-25.28
-20.35
-15.73
-11.70
-8.30
-5.40
-2.89
-0.73
1.07
2.56
3.85
5.09
6.34
7.57
8.58
9.19
9.28
8.86
8.10
7.18
6.20
5.22
4.18
2.99
1.54
-0.29
-2.54
-5.17
-8.00
-10.69
-12.79
-13.88
-13.74
-12.39
-10.11
-7.36
-4.61
-2.21
-0.33
1.06
2.08
2.91
3.70
4.54
5.47
6.45
7.43
8.35
9.16
9.80
10.23
10.40
10.27
9.83
9.15
8.38
7.68
7.17
6.81
6.41
5.70
4.46
2.64
0.49
-1.55
-2.95
-3.34
-2.59
-0.86
1.48
4.06
6.55
8.84
10.93
12.87
14.70
16.38
17.81
18.91
19.65
20.07
20.18
19.98
19.46
18.59
17.41
16.04
14.63
13.27
12.01
10.81
9.57
8.24
6.80
5.25
3.54
1.61
-0.63
-3.23
-6.11
-9.01
-11.53
-13.19
-13.60
-12.58
-10.23
-6.89
-3.01
0.94
4.64
7.96
10.84
13.29
15.28
16.73
17.59
17.94
17.94
17.81
17.74
17.76
17.82
17.77
17.51
17.05
16.50
15.94
15.42
14.86
14.12
13.13
11.95
10.80
9.94
9.56
9.68
10.10
10.53
10.63
10.15
8.94
6.95
4.26
1.11
-2.16
-5.06
-7.10
-7.99
-7.68
-6.46
-4.79
-3.16
-1.91
-1.20
-0.98
-1.14
-1.55
-2.09
-2.64
-3.06
-3.21
-3.05
-2.67
-2.31
-2.19
-2.49
-3.20
-4.17
-5.20
-6.12
-6.91
-7.65
-8.45
-9.42
-10.57
-11.83
-13.18
-14.62
-16.19
-17.86
-19.47
-20.76
-21.48
-21.56
-21.17
-20.70
-20.64
-21.32
-22.81
-24.91
-27.29
-29.64
-31.78
-33.68
-35.33
-36.70
-37.70
-38.13
-37.81
-36.58
-34.42
-31.41
-27.75
-23.72
-19.63
-15.74
-12.24
-9.26
-6.87
-5.04
-3.70
-2.65
-1.72
-0.76
0.20
0.97
1.28
0.91
-0.12
-1.47
-2.58
-2.82
-1.72
0.81
4.48
8.74
12.92
16.50
19.22
21.10
22.34
23.13
23.53
23.48
22.87
21.66
19.98
18.14
16.47
15.21
14.43
13.96
13.52
12.82
11.67
10.04
8.02
5.76
3.38
0.97
-1.41
-3.71
-5.86
-7.81
-9.61
-11.41
-13.44
-15.90
-18.74
-21.61
-23.90
-24.99
-24.48
-22.37
-19.02
-14.95
-10.62
-6.27
-2.03
2.02
5.67
8.63
10.64
11.71
12.06
12.08
12.12
12.27
12.42
12.29
11.66
10.45
8.72
6.69
4.58
2.58
0.79
-0.76
-2.15
-3.55
-5.11
-6.97
-9.14
-11.50
-13.83
-15.90
-17.48
-18.38
-18.47
-17.63
-15.84
-13.20
-9.95
-6.44
-2.99
0.20
3.04
5.58
7.86
9.84
11.40
12.44
12.94
13.04
12.98
12.94
12.99
13.00
12.77
12.11
10.98
9.54
8.05
6.78
5.85
5.18
4.52
3.64
2.33
0.56
-1.62
-4.11
-6.76
-9.39
-11.67
-13.20
-13.52
-12.40
-9.86
-6.34
-2.42
1.28
4.39
6.81
8.65
10.16
11.51
12.82
14.09
15.31
16.43
17.40
18.15
18.57
18.58
18.17
17.41
16.47
15.56
14.80
14.18
13.56
12.71
11.51
9.97
8.23
6.55
5.10
3.93
2.99
2.19
1.42
0.63
-0.29
-1.43
-2.83
-4.36
-5.67
-6.27
-5.76
-4.04
-1.38
1.62
4.28
6.11
6.98
7.02
6.53
5.76
4.88
3.95
2.99
2.01
1.05
0.11
-0.83
-1.82
-2.85
-3.90
-4.94
-5.94
-6.92
-7.93
-9.02
-10.21
-11.45
-12.67
-13.79
-14.76
-15.60
-16.35
-17.06
-17.73
-18.35
-18.93
-19.51
-20.20
-21.05
-21.92
-22.45
-22.11
-20.43
-17.26
-12.84
-7.80
-2.77
1.82
6.00
10.11
14.59
19.64
25.04
30.28
34.73
37.99
40.00
41.02
41.43
41.50
41.32
40.79
39.68
37.75
34.79
30.68
25.49
19.49
13.19
7.19
2.01
-2.12
-5.39
-8.26
-11.23
-14.57
-18.17
-21.64
-24.46
-26.21
-26.67
-25.86
-23.92
-21.11
-17.81
-14.39
-11.26
-8.74
-7.01
-6.08
-5.83
-6.08
-6.64
-7.40
-8.25
-9.12
-9.96
-10.71
-11.37
-11.94
-12.44
-12.89
-13.33
-13.77
-14.23
-14.66
-15.00
-15.22
-15.37
-15.60
-16.13
-17.16
-18.71
-20.67
-22.78
-24.75
-26.30
-27.16
-27.03
-25.60
-22.68
-18.32
-12.94
-7.20
-1.79
2.83
6.58
9.68
12.44
15.06
17.53
19.68
21.34
22.49
23.23
23.75
24.22
24.72
25.23
25.71
26.13
26.54
26.98
27.49
28.07
28.67
29.23
29.72
30.14
30.54
30.93
31.25
31.28
30.75
29.38
27.06
23.94
20.41
17.01
14.22
12.29
11.18
10.65
10.34
9.96
9.34
8.44
7.28
5.91
4.35
2.65
0.88
-0.86
-2.42
-3.71
-4.73
-5.54
-6.28
-7.10
-8.12
-9.31
-10.56
-11.70
-12.56
-13.11
-13.43
-13.70
-14.15
-14.94
-16.11
-17.54
-18.99
-20.20
-20.94
-21.09
-20.65
-19.72
-18.49
-17.17
-15.98
-15.04
-14.34
-13.67
-12.66
-10.93
-8.28
-4.84
-1.13
2.17
4.41
5.28
4.88
3.70
2.32
1.22
0.58
0.30
0.08
-0.43
-1.49
-3.17
-5.42
-8.04
-10.88
-13.83
-16.87
-20.01
-23.22
-26.36
-29.26
-31.74
-33.69
-35.02
-35.59
-35.18
-33.51
-30.40
-25.95
-20.67
-15.29
-10.54
-6.88
-4.33
-2.60
-1.29
-0.13
0.95
1.86
2.49
2.80
2.86
2.81
2.76
2.76
2.73
2.56
2.14
1.37
0.27
-1.08
-2.56
-4.06
-5.53
-6.95
-8.33
-9.62
-10.72
-11.61
-12.35
-13.15
-14.26
-15.72
-17.24
-18.22
-17.86
-15.60
-11.29
-5.34
1.52
8.48
14.97
20.74
25.83
30.33
34.27
37.55
40.06
41.75
42.72
43.22
43.53
43.80
44.01
43.91
43.11
41.23
38.07
33.74
28.71
23.65
19.23
15.83
13.48
11.84
10.31
8.24
5.10
0.62
-5.09
-11.58
-18.00
-23.31
-26.52
-27.11
-25.30
-21.91
-17.98
-14.30
-11.04
-7.85
-4.17
0.29
5.20
9.66
12.73
13.90
13.38
11.90
10.33
9.35
9.20
9.42
9.15
7.73
5.24
2.52
0.65
0.52
2.50
6.31
10.55
13.29
13.10
10.16
6.23
3.70
4.51
9.52
18.26
28.21
35.91
38.79
36.98
33.47
32.59
38.01
51.25
70.62
89.83
99.82
92.16
62.67
12.46
-53.70
-129.11
-206.42
-269.84
-300.41
-285.08
-226.09
-139.43
-46.04
36.14
96.21
131.72
147.62
151.36
148.47
140.22
125.23
101.44
69.03
31.86
-3.28
-29.41
-43.63
-48.43
-49.84
-52.67
-58.53
-65.50
-69.99
-69.18
-62.48
-52.11
-42.08
-37.26
-37.66
-40.97
-43.97
-43.85
-39.36
-30.72
-19.77
-7.75
2.56
10.11
15.03
18.22
20.68
22.94
25.41
28.01
30.36
31.81
32.16
30.99
27.86
22.48
14.33
4.36
-6.22
-16.42
-25.75
-34.14
-42.22
-50.80
-59.42
-69.15
-80.60
-93.87
-107.79
-119.39
-123.97
-116.86
-95.71
-62.31
-22.78
14.95
43.92
60.91
66.98
66.15
62.70
59.18
55.93
52.05
47.13
41.84
37.60
35.54
35.73
37.07
37.99
37.06
33.84
29.07
24.15
20.43
18.71
18.86
20.05
21.24
21.45
20.29
18.08
15.56
13.53
12.55
12.75
13.87
15.42
16.87
17.88
18.30
18.26
18.01
17.93
18.37
19.59
21.65
24.37
27.37
30.20
32.57
34.40
35.90
37.43
39.31
41.75
44.92
49.12
54.67
61.54
68.62
73.70
73.97
67.34
53.75
35.54
16.54
0.29
-11.61
-19.82
-26.21
-32.33
-38.43
-43.61
-46.92
-48.14
-47.78
-46.10
-42.37
-34.90
-22.24
-4.55
15.90
35.26
49.59
56.25
54.55
45.71
32.31
17.68
5.13
-2.85
-5.44
-3.82
-0.87
0.19
-2.84
-10.15
-20.00
-29.61
-36.28
-38.15
-34.37
-25.12
-11.66
3.54
16.89
24.45
23.16
12.17
-6.71
-29.57
-51.89
-70.31
-83.70
-93.21
-101.36
-110.60
-122.24
-136.00
-150.22
-162.70
-171.11
-173.48
-168.40
-155.20
-134.35
-107.73
-78.69
-51.29
-29.12
-13.88
-4.76
1.12
7.16
15.61
26.55
38.06
47.44
52.76
53.77
51.80
48.96
47.06
46.96
48.57
51.22
54.22
57.02
59.24
60.49
60.35
58.44
54.69
49.48
43.62
38.09
33.74
30.94
29.48
28.63
27.48
25.37
22.21
18.60
15.53
13.93
14.13
15.68
17.49
18.31
17.37
14.68
11.01
7.47
4.93
3.61
3.15
2.85
2.24
1.27
0.38
0.10
0.75
2.19
3.84
5.00
5.23
4.50
3.25
2.03
1.25
0.95
0.78
0.32
-0.62
-1.80
-2.65
-2.59
-1.42
0.47
2.25
3.13
2.76
1.46
0.09
-0.51
-0.03
1.16
2.22
2.36
1.37
-0.26
-1.62
-1.94
-1.05
0.49
1.74
1.92
0.84
-0.93
-2.44
-2.86
-2.03
-0.48
0.86
1.26
0.62
-0.48
-1.21
-0.92
0.36
2.00
3.12
3.13
2.06
0.46
-0.92
-1.55
-1.37
-0.75
-0.19
-0.03
-0.30
-0.72
-0.97
-0.82
-0.34
0.17
0.28
-0.22
-1.28
-2.47
-3.21
-3.07
-2.00
-0.35
1.20
2.05
1.99
1.27
0.46
0.09
0.41
1.24
2.11
2.59
2.52
2.07
1.61
1.42
1.51
1.56
1.17
0.14
-1.32
-2.69
-3.34
-2.91
-1.54
0.18
1.46
1.72
0.92
-0.46
-1.70
-2.27
-2.09
-1.56
-1.23
-1.40
-1.92
-2.24
-1.80
-0.50
1.23
2.60
2.92
2.05
0.47
-0.94
-1.46
-0.90
0.37
1.64
2.28
2.13
1.44
0.75
0.46
0.65
1.00
1.01
0.29
-1.13
-2.74
-3.83
-3.81
-2.60
-0.65
1.20
2.24
2.19
1.32
0.31
-0.21
0.02
0.74
1.40
1.46
0.79
-0.31
-1.24
-1.49
-0.90
0.23
1.30
1.77
1.47
0.63
-0.25
-0.71
-0.63
-0.20
0.25
0.45
0.37
0.17
0.02
0.06
0.27
0.53
0.74
0.81
0.70
0.48
0.22
0.02
-0.04
0.03
0.13
0.14
0.05
-0.07
-0.06
0.15
0.51
0.81
0.85
0.53
-0.01
-0.48
-0.62
-0.44
-0.14
-0.05
-0.37
-1.01
-1.67
-1.99
-1.75
-1.01
-0.09
0.58
0.68
0.15
-0.76
-1.56
-1.79
-1.20
0.02
1.36
2.19
2.14
1.28
0.10
-0.75
-0.88
-0.39
0.21
0.38
-0.07
-0.85
-1.32
-0.99
0.14
1.50
2.24
1.76
0.06
-2.20
-4.04
-4.66
-3.81
-1.90
0.26
1.90
2.60
2.46
1.87
1.32
1.11
1.26
1.59
1.89
1.99
1.90
1.73
1.59
1.55
1.55
1.45
1.11
0.53
-0.14
-0.64
-0.79
-0.59
-0.26
-0.16
-0.56
-1.47
-2.57
-3.34
-3.37
-2.53
-1.12
0.27
1.07
1.02
0.31
-0.58
-1.10
-1.03
-0.57
-0.19
-0.30
-0.96
-1.82
-2.28
-1.89
-0.64
1.01
2.35
2.79
2.18
0.91
-0.41
-1.20
-1.30
-0.92
-0.42
-0.13
-0.08
-0.06
0.16
0.67
1.36
1.91
2.03
1.61
0.79
-0.09
-0.71
-0.86
-0.65
-0.33
-0.23
-0.54
-1.21
-1.96
-2.38
-2.19
-1.40
-0.33
0.58
0.99
0.87
0.47
0.20
0.37
1.01
1.85
2.45
2.43
1.75
0.72
-0.14
-0.41
0.00
0.74
1.26
1.10
0.22
-0.99
-1.95
-2.21
-1.75
-0.91
-0.21
-0.03
-0.39
-0.99
-1.37
-1.17
-0.35
0.84
1.90
2.34
1.94
0.85
-0.38
-1.14
-1.07
-0.25
0.74
1.22
0.85
-0.18
-1.18
-1.46
-0.70
0.73
2.01
2.34
1.42
-0.38
-2.21
-3.26
-3.16
-2.18
-0.99
-0.22
-0.12
-0.45
-0.72
-0.54
0.14
1.04
1.70
1.77
1.21
0.30
-0.51
-0.82
-0.52
0.22
0.98
1.31
1.00
0.15
-0.90
-1.74
-2.18
-2.34
-2.56
-3.16
-4.19
-5.38
-6.24
-6.44
-5.93
-5.10
-4.50
-4.66
-5.76
-7.58
-9.65
-11.43
-12.62
-13.25
-13.60
-14.07
-14.90
-16.11
-17.54
-18.96
-20.34
-21.83
-23.66
-26.00
-28.77
-31.69
-34.58
-37.47
-40.69
-44.65
-49.51
-54.95
-60.15
-64.19
-66.49
-67.25
-67.40
-68.39
-71.55
-77.53
-85.73
-94.15
-99.66
-98.83
-89.20
-70.41
-44.74
-16.42
9.81
30.70
45.53
56.32
66.55
79.51
96.96
118.69
143.05
168.01
191.84
213.34
231.61
245.62
254.10
255.87
250.25
237.49
218.77
196.01
171.47
147.12
124.30
103.50
84.54
66.83
49.58
32.47
15.71
-0.01
-13.89
-25.69
-36.26
-47.37
-60.61
-76.11
-92.42
-106.96
-117.31
-122.60
-123.60
-121.66
-117.27
-109.50
-96.90
-79.09
-57.97
-37.41
-21.53
-12.59
-10.08
-11.31
-13.19
-14.15
-14.63
-16.07
-19.38
-23.74
-26.85
-25.52
-17.18
-1.59
18.47
37.64
49.98
51.23
40.68
21.67
0.25
-17.59
-28.31
-31.79
-30.43
-26.95
-22.30
-15.83
-6.34
6.14
19.45
30.31
35.95
35.95
32.67
30.21
32.33
40.55
53.36
66.91
76.70
79.80
75.63
65.72
52.41
37.16
20.26
1.10
-20.47
-42.82
-62.47
-75.44
-79.30
-74.79
-66.04
-58.51
-56.66
-62.21
-73.58
-87.47
-100.66
-111.35
-119.44
-125.84
-131.35
-136.06
-139.46
-141.04
-140.63
-138.47
-134.60
-127.34
-114.82
-95.21
-67.73
-33.18
5.90
45.90
82.99
114.39
138.81
156.13
166.93
171.71
170.63
163.27
148.76
125.95
94.04
53.29
5.63
-44.73
-91.66
-128.52
-150.43
-154.62
-143.03
-121.19
-96.02
-72.44
-53.52
-39.99
-31.05
-25.56
-22.57
-21.23
-19.85
-15.40
-4.81
15.47
47.51
90.36
139.33
186.78
224.20
245.21
247.86
234.73
212.00
186.75
164.40
147.16
134.19
123.21
112.36
101.40
90.99
81.85
73.68
65.23
54.89
41.25
23.86
3.44
-18.03
-38.80
-57.60
-74.21
-88.77
-101.70
-113.36
-123.65
-131.84
-136.25
-135.51
-128.85
-116.70
-100.06
-78.43
-52.16
-22.19
6.30
29.09
41.41
39.73
20.38
-17.15
-68.86
-126.04
-177.04
-210.69
-219.11
-200.83
-160.20
-105.43
-45.17
12.19
58.49
85.70
87.46
62.01
13.18
-48.97
-111.32
-161.32
-192.01
-200.97
-192.42
-173.84
-151.86
-130.89
-112.88
-101.93
-100.14
-108.85
-127.91
-154.73
-184.58
-210.29
-227.01
-233.58
-232.55
-227.81
-222.64
-217.29
-209.51
-195.72
-173.38
-143.04
-108.01
-73.19
-42.53
-18.30
-1.17
9.63
15.80
19.64
23.54
29.53
38.23
49.16
60.55
71.03
80.73
91.86
107.72
130.63
160.07
192.13
220.54
238.49
241.71
229.96
206.95
179.07
153.08
133.99
123.53
120.35
120.35
119.10
113.68
103.22
89.37
75.84
67.05
67.16
79.33
103.62
138.06
178.81
220.54
258.12
287.66
307.21
317.59
322.48
326.34
334.05
348.98
371.72
395.95
413.34
415.13
394.53
356.16
304.29
243.77
180.27
117.30
60.90
17.22
-10.55
-23.70
-29.47
-37.35
-54.72
-84.23
-123.89
-168.16
-211.28
-249.31
-280.25
-302.96
-317.01
-321.59
-315.94
-300.82
-277.12
-246.25
-210.31
-171.95
-134.20
-100.37
-72.61
-51.26
-35.06
-22.03
-11.36
-4.08
-2.44
-7.95
-20.03
-35.38
-49.38
-58.46
-61.60
-61.07
-61.14
-66.01
-78.31
-98.31
-124.07
-151.94
-177.67
-197.45
-209.30
-213.47
-211.72
-206.18
-197.99
-186.75
-170.87
-148.93
-120.44
-86.57
-49.67
-12.97
20.23
47.05
65.57
74.90
75.27
67.86
54.50
37.52
19.89
4.97
-3.91
-4.77
1.98
13.45
25.10
32.80
34.43
30.78
25.13
21.74
24.42
34.94
52.78
74.98
96.78
112.77
118.31
110.93
91.54
64.44
36.66
16.23
10.02
21.61
50.22
90.60
134.38
172.69
198.87
210.12
207.59
194.86
175.92
153.71
129.93
105.98
83.87
66.31
55.75
52.89
55.79
60.04
60.73
54.42
40.63
22.01
2.90
-12.70
-22.71
-27.41
-28.50
-27.54
-25.78
-22.90
-17.73
-9.27
2.29
15.17
26.43
32.73
31.11
20.83
1.26
-26.52
-58.91
-89.88
-112.62
-121.78
-115.69
-97.12
-72.00
-48.12
-32.06
-27.68
-35.08
-51.66
-74.04
-99.62
-126.90
-154.77
-181.75
-205.56
-223.91
-235.43
-240.53
-241.12
-239.85
-238.56
-237.62
-235.81
-230.93
-221.77
-207.13
-187.26
-164.01
-139.90
-117.03
-96.09
-76.31
-55.69
-32.28
-5.02
25.67
57.76
88.72
116.57
140.75
162.62
185.14
212.12
245.57
286.53
333.75
383.11
427.85
459.79
471.50
459.23
424.37
373.87
318.26
268.14
230.67
207.59
195.53
186.12
171.67
147.17
111.54
67.08
17.45
-34.10
-85.62
-136.23
-185.08
-230.40
-269.62
-299.97
-319.75
-328.84
-329.00
-323.16
-313.99
-303.17
-290.46
-274.59
-252.74
-221.76
-178.98
-122.87
-53.81
25.31
108.33
186.44
248.78
286.60
296.48
281.96
252.05
217.22
185.34
159.22
136.91
114.76
90.52
64.02
36.57
9.94
-15.52
-39.46
-60.48
-76.42
-86.13
-91.20
-96.01
-105.63
-122.35
-143.39
-161.38
-168.21
-159.72
-138.27
-111.58
-88.24
-73.03
-64.85
-58.58
-49.15
-35.14
-19.58
-7.56
-2.85
-5.30
-10.61
-13.17
-9.20
1.22
14.41
25.59
32.12
34.74
37.22
43.92
57.48
77.30
99.77
119.90
133.25
137.27
131.56
117.51
97.64
74.96
52.59
33.46
19.54
11.62
8.95
9.12
8.74
4.05
-8.07
-29.08
-57.72
-89.36
-116.28
-129.57
-122.70
-94.75
-51.45
-3.10
39.44
69.38
85.77
92.12
92.75
89.42
80.72
64.23
40.11
13.12
-8.49
-17.05
-9.73
9.36
30.49
42.89
39.30
18.26
-16.92
-61.14
-109.99
-160.72
-210.73
-255.81
-289.89
-306.44
-301.40
-275.39
-233.60
-184.02
-134.17
-88.71
-48.75
-12.69
21.39
54.03
83.44
106.42
119.95
122.80
116.29
103.86
89.82
77.45
67.94
60.60
53.77
46.35
38.84
33.79
34.67
43.69
59.97
78.77
93.15
97.17
89.00
71.79
52.47
37.77
30.96
30.76
33.04
33.97
32.58
30.92
31.44
34.42
36.45
32.23
18.20
-4.58
-29.85
-48.82
-54.57
-45.82
-27.76
-9.35
1.20
0.67
-8.17
-18.65
-24.27
-22.41
-15.28
-8.15
-6.12
-11.44
-22.56
-35.73
-46.89
-53.62
-55.65
-54.06
-50.34
-45.20
-38.52
-29.48
-17.55
-3.15
12.29
26.74
38.57
46.80
51.53
53.62
54.25
54.43
54.81
55.72
57.17
58.91
60.45
61.13
60.38
57.95
54.15
49.83
46.35
44.70
45.24
47.22
49.04
48.93
45.45
37.57
24.50
6.26
-16.41
-41.00
-63.09
-77.21
-79.09
-67.74
-45.94
-20.85
-0.27
10.94
12.85
9.65
6.50
5.94
6.02
1.46
-13.30
-40.27
-76.33
-114.64
-147.97
-171.84
-185.68
-191.71
-191.96
-185.90
-170.30
-141.23
-97.28
-41.34
19.82
78.17
127.76
166.78
197.28
223.48
248.36
271.74
289.76
296.63
287.34
260.12
216.96
162.41
102.06
40.81
-17.16
-66.97
-102.54
-117.07
-105.43
-67.96
-12.95
44.07
84.12
91.56
60.40
-2.99
-81.76
-154.53
-204.01
-222.65
-211.24
-177.97
-133.15
-85.27
-40.69
-6.99
9.12
2.11
-28.59
-75.28
-121.99
-150.36
-147.48
-112.67
-57.97
-2.43
35.94
47.86
35.20
7.14
-26.30
-58.94
-89.11
-116.16
-136.32
-142.42
-126.67
-85.90
-25.65
40.28
95.26
126.64
130.32
110.59
75.49
32.63
-12.90
-57.67
-97.86
-128.42
-144.72
-145.33
-132.16
-112.43
-94.91
-85.92
-86.49
-92.76
-98.01
-95.67
-82.37
-56.95
-21.75
17.90
54.69
81.49
93.87
92.04
79.96
64.73
53.73
51.28
57.72
70.30
85.34
100.01
112.86
123.17
130.29
133.27
131.03
123.43
111.72
98.16
85.36
75.04
67.52
61.94
56.89
51.04
43.86
35.77
27.89
21.35
16.73
13.82
11.89
10.10
7.87
5.17
2.42
0.15
-1.32
-2.11
-2.69
-3.52
-4.76
-6.12
-6.98
-6.77
-5.31
-3.07
-0.93
0.16
-0.23
-1.76
-3.40
-3.97
-2.61
0.72
5.16
9.43
12.22
12.31
8.77
1.13
-10.04
-22.42
-32.09
-34.83
-27.74
-11.05
11.30
32.95
47.71
51.77
45.67
33.10
18.71
5.85
-4.31
-12.25
-18.76
-23.91
-26.98
-27.15
-24.51
-20.12
-15.59
-12.56
-11.75
-12.81
-14.56
-15.65
-15.08
-12.73
-9.36
-6.08
-3.91
-3.30
-3.97
-5.15
-5.98
-5.82
-4.59
-2.71
-0.84
0.46
0.91
0.64
0.05
-0.41
-0.39
0.16
1.06
2.01
2.71
2.97
2.79
2.31
1.71
1.13
0.66
0.27
-0.09
-0.55
-1.23
-2.20
-3.50
-5.11
-6.95
-8.93
-11.01
-13.17
-15.54
-18.26
-21.51
-25.34
-29.68
-34.31
-38.98
-43.54
-48.00
-52.64
-57.88
-64.11
-71.52
-79.92
-88.81
-97.52
-105.48
-112.36
-118.23
-123.38
-128.02
-131.93
-134.21
-133.44
-127.95
-116.64
-99.09
-75.96
-48.83
-19.77
9.38
37.39
63.92
89.39
114.64
140.43
166.78
192.33
214.03
227.62
228.94
215.85
189.55
154.94
119.39
90.30
72.81
68.25
74.12
85.33
95.99
101.11
97.69
85.20
65.34
41.29
16.65
-5.62
-23.82
-37.49
-46.89
-52.27
-53.59
-50.93
-45.00
-37.44
-30.49
-26.30
-25.96
-29.19
-34.68
-40.88
-46.77
-51.99
-56.67
-60.70
-63.24
-62.90
-58.27
-48.89
-35.95
-22.26
-11.43
-6.61
-9.11
-17.80
-29.49
-39.70
-44.45
-41.43
-30.43
-13.59
5.36
21.85
31.65
32.14
23.68
10.27
-1.13
-3.21
8.15
31.13
57.18
74.00
70.85
43.85
-1.27
-50.85
-88.48
-101.52
-85.77
-46.81
2.80
48.82
80.52
93.68
90.76
78.12
61.79
45.16
28.29
9.65
-10.98
-31.21
-46.19
-50.94
-43.36
-25.98
-5.12
11.67
18.76
14.03
-0.98
-22.12
-44.24
-62.24
-71.66
-68.98
-52.16
-22.11
16.79
56.95
89.76
108.39
110.36
98.14
77.78
55.87
36.59
21.10
8.60
-1.81
-9.51
-12.44
-9.18
-0.67
9.33
16.34
17.43
13.22
7.41
4.46
7.08
13.86
20.10
19.88
9.85
-8.55
-29.54
-46.21
-53.59
-51.99
-46.33
-43.61
-48.63
-61.27
-76.22
-86.19
-86.20
-75.82
-59.57
-43.58
-32.00
-25.03
-19.59
-12.16
-1.59
9.86
17.62
17.93
10.29
-1.38
-10.84
-12.38
-4.21
10.44
24.65
31.55
28.20
17.34
6.17
1.71
7.04
18.64
28.94
30.35
20.45
3.15
-12.93
-19.66
-13.78
1.61
19.07
30.95
33.21
27.06
17.29
9.09
5.52
5.93
7.47
6.98
3.11
-2.54
-6.75
-6.54
-0.90
8.63
18.42
24.92
26.32
23.06
17.24
10.86
5.01
-1.21
-8.91
-18.79
-29.13
-36.85
-38.28
-31.96
-19.52
-5.85
3.54
4.82
-2.15
-13.87
-25.32
-32.68
-34.68
-33.22
-30.86
-29.22
-27.43
-22.96
-13.17
1.94
19.85
35.72
45.11
46.13
39.98
30.71
22.44
17.58
15.98
15.42
14.00
10.92
7.55
5.83
7.12
10.98
15.28
17.40
15.67
10.42
3.65
-2.17
-5.13
-5.16
-3.22
-1.11
0.03
-0.03
-0.59
-0.60
1.00
4.04
7.96
11.16
12.01
9.94
5.46
0.61
-2.25
-1.49
3.11
9.85
16.17
19.27
17.46
10.21
-1.76
-16.50
-31.62
-44.44
-52.67
-54.79
-50.43
-40.33
-26.06
-10.04
5.10
16.45
21.55
19.30
10.42
-2.30
-14.82
-23.83
-27.60
-26.57
-22.57
-17.56
-12.69
-8.19
-3.74
0.47
3.97
5.97
6.15
4.87
3.26
2.47
3.28
5.68
8.99
12.28
15.08
17.40
19.72
22.47
25.59
28.38
29.72
28.50
24.21
17.23
8.79
0.59
-5.72
-9.15
-9.54
-7.55
-4.31
-0.97
1.60
2.98
2.99
1.71
-0.73
-4.03
-7.66
-10.93
-13.07
-13.41
-11.65
-7.81
-2.25
4.55
12.05
19.94
27.96
35.98
43.73
50.75
56.12
58.89
58.17
53.45
44.99
33.61
20.87
8.61
-0.97
-5.61
-3.48
6.23
22.54
42.63
62.20
77.15
84.76
84.98
80.09
73.47
67.85
64.18
61.47
57.94
52.33
45.20
38.54
35.09
36.48
42.27
49.69
54.73
53.50
44.27
28.54
10.87
-2.57
-6.67
0.52
16.61
35.46
50.02
54.71
47.18
28.40
1.46
-29.91
-62.05
-91.71
-115.58
-130.61
-134.62
-127.45
-111.80
-93.06
-77.79
-71.90
-77.78
-93.29
-112.24
-127.18
-132.80
-128.19
-117.24
-106.28
-101.12
-104.02
-112.93
-122.88
-128.99
-129.19
-124.56
-118.60
-114.32
-113.30
-115.12
-118.22
-120.99
-121.79
-120.22
-116.53
-112.37
-108.01
-102.78
-95.30
-85.39
-73.75
-61.29
-48.52
-34.66
-17.76
4.73
34.08
69.41
107.12
141.66
166.59
176.21
167.46
141.19
102.73
60.60
24.27
1.25
-5.24
3.06
20.96
43.01
66.35
91.56
120.52
153.31
186.01
211.43
222.32
215.41
192.97
161.12
125.83
89.30
49.72
3.95
-48.10
-101.14
-145.70
-172.26
-175.51
-156.17
-119.98
-74.84
-28.20
13.93
47.06
67.89
74.68
68.20
52.02
31.50
12.05
-2.93
-12.89
-19.48
-24.92
-30.90
-37.84
-45.60
-54.17
-63.89
-75.24
-88.73
-105.05
-125.08
-149.34
-176.81
-203.85
-224.22
-230.70
-218.11
-185.70
-137.88
-82.26
-26.47
24.43
68.52
105.39
134.10
152.19
156.93
147.71
127.93
104.54
85.16
74.35
71.66
72.53
71.29
64.89
54.75
45.61
42.25
46.41
55.96
66.86
76.41
85.01
95.50
110.35
128.95
147.01
158.77
160.59
152.55
139.27
127.09
120.70
120.97
125.16
129.07
129.46
125.32
117.44
107.19
95.37
82.02
66.75
49.57
31.39
13.91
-1.01
-12.24
-19.62
-24.12
-27.27
-30.35
-33.80
-37.00
-38.70
-37.77
-34.08
-28.55
-22.90
-18.90
-17.61
-18.93
-21.82
-25.17
-28.44
-32.22
-38.14
-47.95
-62.86
-83.32
-109.33
-140.43
-175.36
-210.17
-239.46
-256.67
-256.27
-236.37
-199.75
-153.46
-105.74
-63.16
-28.75
-2.52
17.21
31.00
37.72
35.93
26.10
12.03
-0.05
-4.19
1.97
15.94
31.39
41.21
41.17
31.63
17.42
5.08
-0.48
1.88
9.81
19.34
27.22
32.30
35.14
37.16
39.36
41.59
43.01
42.51
39.68
34.99
29.48
24.43
20.77
18.72
17.86
17.45
16.76
15.38
13.24
10.49
7.46
4.54
2.09
0.43
-0.24
0.02
0.88
1.74
1.84
0.67
-1.72
-4.68
-7.09
-7.98
-6.92
-4.24
-0.79
2.27
3.91
3.31
-0.21
-6.88
-15.70
-23.88
-27.13
-21.19
-4.26
21.63
50.71
75.50
89.87
91.41
81.94
65.42
47.14
30.29
15.67
2.83
-8.59
-17.99
-24.23
-26.57
-25.39
-22.11
-18.73
-16.91
-17.19
-18.90
-20.72
-21.33
-20.08
-17.19
-13.53
-10.36
-8.59
-8.43
-9.35
-10.45
-10.87
-10.17
-8.46
-6.25
-4.27
-3.06
-2.75
-3.07
-3.55
-3.73
-3.37
-2.48
-1.31
-0.21
0.55
0.85
0.81
0.60
0.45
0.47
0.70
1.06
1.40
1.58
1.49
1.11
0.48
-0.30
-1.10
-1.83
-2.47
-3.12
-3.96
-5.17
-6.84
-8.94
-11.25
-13.50
-15.48
-17.20
-18.88
-20.93
-23.74
-27.52
-32.10
-36.98
-41.55
-45.35
-48.38
-51.12
-54.37
-58.89
-64.84
-71.69
-78.16
-82.61
-83.77
-81.07
-74.97
-66.57
-57.16
-47.46
-37.22
-25.59
-11.40
6.25
27.66
52.32
79.12
105.73
128.82
144.61
150.11
145.07
132.28
117.15
104.94
98.46
96.66
95.43
90.24
78.69
61.62
42.34
24.98
12.65
6.81
7.41
13.39
22.88
33.14
41.12
44.15
40.65
30.90
16.55
0.14
-15.42
-27.32
-33.31
-31.85
-22.97
-8.47
8.12
22.54
31.06
31.14
22.09
4.99
-16.67
-36.86
-47.87
-42.51
-17.29
24.95
74.83
119.46
147.21
152.26
136.25
106.91
74.11
45.67
25.20
12.51
5.26
0.90
-2.33
-5.51
-9.59
-15.56
-24.24
-35.83
-49.53
-63.88
-77.49
-89.57
-100.40
-111.45
-124.67
-141.94
-163.77
-188.18
-210.57
-224.41
-223.30
-203.90
-168.19
-123.21
-78.62
-42.43
-17.51
-1.06
12.70
28.44
46.43
62.45
70.78
67.75
54.20
35.32
18.62
10.15
12.33
23.51
38.18
51.06
58.32
58.03
50.75
38.07
22.21
5.31
-11.11
-25.93
-37.86
-45.20
-45.70
-37.41
-20.25
2.61
24.92
39.20
40.01
26.97
5.02
-17.93
-35.29
-45.54
-52.82
-63.85
-83.15
-109.51
-135.72
-152.29
-152.33
-134.78
-104.25
-67.64
-30.10
6.64
42.91
78.03
107.76
125.01
123.92
104.38
74.18
46.52
33.85
41.06
62.26
83.17
88.04
67.93
25.88
-24.36
-64.40
-80.00
-66.96
-31.90
11.61
49.51
73.01
80.78
77.67
70.81
65.07
60.85
55.10
44.60
29.52
14.36
5.50
6.69
15.59
23.37
19.28
-2.78
-39.87
-80.43
-109.82
-117.79
-103.84
-76.63
-49.02
-32.37
-31.29
-42.79
-58.28
-68.61
-68.31
-58.46
-44.94
-35.79
-37.31
-51.28
-74.10
-97.71
-113.45
-115.14
-101.25
-74.58
-40.23
-2.91
34.74
71.84
107.86
141.01
168.27
186.58
194.56
193.30
186.09
177.24
170.26
166.72
165.71
164.97
162.11
155.77
146.16
134.67
122.96
111.96
101.85
90.78
76.32
56.61
31.19
1.12
-31.32
-63.57
-93.58
-120.14
-143.07
-162.42
-178.06
-189.38
-195.63
-196.63
-193.16
-186.62
-178.06
-167.43
-153.45
-134.82
-111.55
-85.27
-58.12
-31.18
-3.84
25.05
55.04
82.01
99.14
100.51
85.26
59.63
34.77
21.56
24.96
41.72
62.79
78.52
83.17
76.85
63.84
49.72
38.79
33.34
33.99
40.00
49.09
56.82
56.87
43.10
12.91
-30.28
-76.52
-112.20
-124.61
-106.41
-58.44
10.20
84.37
147.15
184.97
192.01
171.72
135.38
97.66
70.99
61.35
67.73
84.05
102.96
118.80
128.14
128.06
114.68
83.18
30.62
-41.16
-124.88
-210.11
-285.79
-345.15
-386.53
-411.64
-423.04
-421.76
-407.66
-380.67
-342.24
-296.37
-249.16
-206.81
-173.96
-152.84
-141.76
-138.13
-140.84
-147.87
-156.25
-163.33
-166.38
-162.81
-150.74
-129.29
-99.38
-63.34
-23.93
16.25
55.30
92.50
128.21
163.63
200.97
242.33
288.87
339.87
391.85
438.85
474.36
493.85
493.39
474.10
440.74
399.63
356.13
312.96
270.44
228.07
185.97
145.34
108.22
75.76
47.77
23.07
0.35
-20.97
-40.39
-56.81
-69.21
-77.03
-80.81
-81.89
-81.92
-82.21
-83.25
-84.70
-85.78
-85.68
-83.90
-80.57
-76.35
-72.08
-68.44
-65.66
-63.48
-61.42
-59.01
-55.92
-52.23
-48.20
-44.26
-40.72
-37.70
-35.12
-32.75
-30.41
-27.97
-25.44
-22.90
-20.47
-18.26
-16.31
-14.58
-13.03
-11.59
-10.23
-8.97
-7.77
-6.62
-5.50
-4.40
-3.33
-2.30
-1.35
-0.39
0.56
1.54
2.61
3.77
5.03
6.32
7.60
8.80
9.94
11.08
12.33
13.76
15.35
17.09
18.90
20.64
22.20
23.61
24.98
26.55
28.53
30.96
33.81
36.90
39.76
41.96
43.25
43.56
42.97
41.47
38.65
33.88
26.43
15.51
0.80
-17.17
-37.05
-56.93
-74.49
-88.63
-99.54
-107.12
-111.72
-113.54
-111.99
-105.80
-93.74
-75.41
-52.02
-26.02
-0.73
20.73
36.15
44.67
46.35
41.32
29.82
13.23
-5.02
-20.02
-26.98
-25.44
-19.19
-14.31
-15.47
-22.73
-31.30
-34.54
-28.33
-13.81
3.16
15.94
20.89
19.06
14.72
12.05
12.63
14.99
16.43
15.12
11.14
6.35
2.76
1.66
2.84
4.87
6.20
5.65
3.19
-0.33
-3.68
-5.99
-7.10
-7.61
-8.39
-9.95
-12.16
-14.35
-15.67
-15.56
-14.16
-12.21
-10.69
-10.24
-10.67
-11.22
-10.92
-9.30
-6.81
-4.91
-5.27
-9.23
-16.98
-27.14
-37.33
-44.77
-46.80
-41.46
-28.43
-9.24
12.16
30.15
39.49
37.69
26.64
12.20
2.08
1.81
12.25
29.33
46.64
59.19
65.80
68.81
71.66
76.45
82.17
85.34
82.32
70.53
49.79
21.70
-10.91
-44.50
-74.23
-94.20
-98.75
-85.33
-56.92
-22.14
7.50
22.61
20.40
6.16
-9.82
-17.36
-11.75
4.59
24.93
42.54
53.79
58.14
56.54
48.80
34.21
13.23
-10.84
-31.89
-43.62
-42.51
-30.65
-14.71
-2.74
-0.36
-8.68
-24.48
-42.37
-57.61
-67.80
-73.18
-75.55
-76.73
-77.82
-79.10
-80.39
-80.84
-79.27
-74.30
-63.92
-46.53
-22.12
6.68
34.54
54.96
63.09
57.64
42.79
25.93
14.15
11.22
16.43
25.86
35.08
41.55
44.96
46.48
47.18
47.15
45.66
42.14
36.87
31.06
26.25
23.57
23.23
24.42
25.69
25.70
23.82
20.30
16.15
12.62
10.61
10.36
11.36
12.67
13.33
12.83
11.24
9.12
7.19
6.00
5.70
5.92
6.12
5.70
4.22
1.59
-1.95
-6.01
-10.09
-13.76
-16.74
-18.81
-19.89
-19.95
-19.01
-17.13
-14.42
-11.03
-7.12
-2.90
1.45
5.60
9.22
12.04
13.84
14.69
14.91
15.02
15.52
16.76
18.66
20.84
22.77
23.87
23.97
23.44
23.02
23.52
25.46
28.72
32.56
35.98
38.07
38.39
37.32
35.71
34.29
33.38
32.40
30.03
24.87
15.76
2.08
-16.25
-38.70
-63.65
-87.61
-106.25
-114.99
-110.90
-94.47
-69.94
-43.79
-22.22
-8.89
-3.53
-3.52
-5.49
-7.24
-8.29
-9.36
-10.98
-12.85
-13.87
-12.93
-9.93
-5.77
-1.92
0.20
-0.02
-2.21
-5.27
-8.04
-9.71
-10.36
-10.65
-11.57
-13.85
-17.70
-22.60
-27.67
-32.00
-35.02
-36.85
-38.02
-39.35
-41.47
-44.66
-48.71
-53.13
-57.36
-60.79
-63.19
-64.50
-64.72
-63.64
-60.92
-55.66
-46.97
-34.08
-16.81
4.11
27.23
50.45
71.64
89.05
101.61
108.99
111.56
109.93
104.66
95.87
83.45
67.65
49.43
30.62
13.70
1.19
-5.29
-5.47
-0.67
6.75
14.52
21.37
27.29
33.21
40.36
49.24
59.54
70.44
80.90
89.57
94.27
91.65
78.54
54.15
21.71
-11.37
-36.19
-46.34
-41.05
-25.63
-9.25
-0.38
-2.71
-14.31
-29.94
-44.86
-56.99
-66.91
-75.71
-83.53
-88.57
-88.24
-81.06
-66.61
-46.58
-23.90
-1.39
19.34
37.66
53.90
68.54
81.47
91.78
97.74
97.68
89.28
73.69
53.33
31.23
10.20
-7.82
-21.99
-32.61
-40.55
-46.78
-51.71
-55.62
-58.52
-60.36
-61.18
-61.22
-60.98
-60.92
-61.40
-62.32
-63.70
-65.36
-67.10
-68.70
-69.93
-70.57
-70.31
-68.70
-65.17
-59.52
-51.24
-40.05
-25.87
-8.97
10.04
30.31
50.76
70.27
87.56
101.48
111.01
115.52
114.76
108.92
98.63
84.94
69.31
53.34
38.64
26.60
18.37
14.56
15.21
19.77
27.25
36.33
45.56
53.53
58.22
58.65
54.51
46.10
34.24
20.13
5.13
-9.42
-22.52
-33.59
-42.41
-49.19
-54.35
-58.28
-61.17
-63.04
-63.85
-63.61
-62.67
-61.59
-61.11
-61.77
-63.64
-66.20
-68.41
-69.08
-67.36
-63.05
-56.52
-48.67
-39.89
-29.99
-18.10
-3.06
15.75
37.88
61.77
85.15
105.75
121.66
131.43
134.08
129.23
117.47
100.70
82.01
64.78
51.38
41.92
34.23
25.08
12.19
-4.04
-20.46
-32.64
-37.49
-35.06
-28.63
-22.83
-21.25
-24.73
-31.45
-38.41
-43.58
-47.12
-50.51
-55.28
-61.32
-66.34
-67.03
-61.03
-48.94
-34.11
-21.21
-14.65
-16.11
-23.45
-31.47
-34.06
-27.22
-10.95
10.58
30.62
42.93
44.47
36.34
22.60
8.51
-1.38
-4.17
1.41
14.59
32.43
49.65
59.62
56.74
40.12
15.64
-5.49
-11.65
2.73
33.03
65.36
82.81
73.79
38.58
-10.00
-52.29
-70.62
-57.44
-17.97
32.60
76.23
99.27
96.18
70.09
29.53
-16.37
-61.50
-103.58
-142.23
-175.07
-197.27
-202.92
-187.82
-152.31
-102.23
-47.48
1.62
38.24
61.01
73.64
82.52
93.32
108.32
125.68
140.66
147.60
143.40
127.38
101.27
67.86
30.12
-8.93
-45.74
-76.23
-97.26
-108.04
-111.37
-112.97
-119.00
-132.95
-153.75
-176.32
-191.24
-191.71
-175.68
-146.28
-109.50
-70.90
-33.61
1.59
34.58
64.42
88.75
105.10
111.99
110.08
102.24
92.38
84.24
80.05
80.10
82.44
84.23
82.99
77.70
69.23
59.82
52.23
48.33
48.63
51.83
55.57
57.54
56.10
50.36
39.89
25.15
7.09
-11.70
-27.05
-34.35
-30.56
-16.12
4.88
25.04
37.57
39.09
30.84
17.24
3.24
-7.92
-15.68
-21.18
-25.84
-30.01
-33.02
-33.83
-32.06
-28.28
-23.75
-20.05
-18.26
-18.64
-20.63
-23.18
-25.05
-25.37
-23.91
-21.11
-17.96
-15.65
-15.08
-16.39
-19.09
-22.12
-24.45
-25.55
-25.31
-23.65
-20.10
-13.53
-3.27
9.51
21.59
28.19
25.25
11.91
-8.24
-28.19
-39.93
-38.38
-23.40
1.05
28.95
55.05
76.24
91.14
98.64
97.25
85.48
63.84
36.44
10.61
-5.51
-6.40
8.13
31.84
55.10
69.15
70.10
60.12
45.55
33.16
26.82
26.24
28.09
28.72
26.33
21.90
18.09
17.68
21.96
30.13
39.90
48.64
54.36
55.90
52.72
44.84
33.45
21.55
13.29
12.21
18.37
26.78
28.35
13.62
-22.33
-76.64
-138.98
-195.34
-233.55
-247.65
-239.05
-214.50
-182.51
-150.15
-121.50
-98.12
-80.13
-67.01
-58.41
-53.85
-52.90
-55.89
-64.15
-79.74
-103.89
-135.10
-167.53
-192.47
-201.87
-191.82
-164.72
-127.63
-88.57
-52.52
-19.67
13.59
51.58
96.25
145.77
194.69
235.68
261.76
268.18
253.82
221.72
178.16
130.68
85.57
46.27
13.93
-11.08
-27.37
-32.45
-24.64
-5.24
20.72
46.06
63.88
70.46
66.16
55.13
43.07
35.20
34.16
39.40
47.51
53.56
53.01
43.38
25.20
1.96
-21.04
-38.71
-48.00
-48.60
-42.73
-33.59
-24.26
-16.67
-11.53
-8.69
-7.46
-7.31
-7.80
-8.76
-9.88
-10.65
-10.52
-9.03
-6.17
-2.49
0.95
3.30
4.09
3.49
2.17
0.80
-0.12
-0.69
-1.34
-2.63
-4.68
-7.30
-9.81
-11.66
-12.61
-12.84
-12.80
-12.67
-12.43
-11.73
-10.31
-8.38
-6.65
-6.00
-6.78
-8.66
-10.42
-10.71
-8.79
-5.08
-0.97
1.83
2.30
0.54
-2.16
-4.28
-4.68
-3.42
-1.36
0.19
0.45
-0.48
-1.55
-1.71
-0.23
2.49
5.45
7.19
6.95
4.86
2.13
0.20
0.25
2.28
5.35
7.88
8.68
7.58
5.46
3.84
3.75
5.28
7.30
8.23
6.89
3.31
-1.21
-4.74
-5.82
-4.15
-0.81
2.36
3.79
2.98
0.68
-1.54
-2.27
-1.11
1.22
3.16
3.37
1.47
-1.59
-4.17
-4.86
-3.45
-1.12
0.40
-0.21
-2.80
-5.85
-7.23
-5.67
-1.49
3.40
6.64
6.74
3.99
0.21
-2.25
-2.04
0.61
3.93
5.83
5.07
2.07
-1.58
-3.90
-3.83
-1.68
1.08
2.81
2.60
0.86
-1.07
-1.60
0.08
3.67
7.67
10.49
10.96
9.14
6.15
3.50
2.22
2.33
2.91
2.76
1.27
-1.13
-3.25
-3.83
-2.48
0.05
2.29
2.94
1.62
-0.92
-3.05
-3.41
-1.55
1.66
4.56
5.60
4.16
1.03
-2.11
-3.61
-2.87
-0.75
1.04
0.89
-1.59
-5.42
-8.63
-9.53
-7.55
-3.67
0.22
2.27
1.72
-0.79
-3.74
-5.51
-5.27
-3.37
-0.93
0.80
1.23
0.65
0.05
0.45
2.29
5.07
7.62
8.81
8.07
5.87
3.39
1.98
2.41
4.41
6.81
8.16
7.52
5.03
1.82
-0.66
-1.44
-0.71
0.43
0.50
-1.21
-4.33
-7.44
-8.95
-7.94
-4.93
-1.38
0.82
0.55
-1.98
-5.34
-7.56
-7.29
-4.43
-0.34
3.07
4.26
3.01
0.40
-1.76
-2.07
-0.37
2.22
3.94
3.57
1.29
-1.56
-3.04
-2.08
1.06
4.72
6.94
6.62
4.14
1.18
-0.52
-0.03
1.95
3.83
3.92
1.78
-1.78
-4.79
-5.72
-4.08
-0.96
1.76
2.39
0.48
-2.84
-5.65
-6.24
-4.14
-0.43
2.97
4.28
3.04
0.15
-2.62
-3.70
-2.59
-0.12
2.14
2.86
1.63
-0.91
-3.32
-4.39
-3.73
-2.03
-0.63
-0.72
-2.64
-5.60
-7.96
-8.20
-5.73
-1.27
3.51
6.81
7.62
6.31
4.23
3.08
3.68
5.85
8.19
9.13
7.88
4.72
1.10
-1.41
-1.83
-0.53
1.21
1.74
0.22
-3.00
-6.53
-8.75
-8.68
-6.61
-3.81
-1.65
-0.99
-1.51
-2.20
-1.87
-0.10
2.62
5.09
6.21
5.64
3.96
2.39
2.03
3.17
5.14
6.69
6.68
4.76
1.61
-1.44
-3.17
-3.08
-1.73
-0.37
-0.17
-1.60
-4.08
-6.33
-7.08
-5.71
-2.74
0.66
3.04
3.62
2.56
0.89
-0.16
0.13
1.48
2.77
2.71
0.77
-2.43
-5.35
-6.42
-4.95
-1.77
1.39
2.80
1.85
-0.57
-2.61
-2.73
-0.58
2.78
5.49
6.17
4.63
2.03
-0.03
-0.40
0.92
2.70
3.48
2.08
-1.26
-5.25
-7.98
-8.13
-5.38
-0.97
3.22
5.35
4.68
1.95
-1.11
-2.70
-2.01
0.38
2.77
3.38
1.48
-2.22
-5.93
-7.81
-7.09
-4.43
-1.44
0.35
0.37
-0.72
-1.56
-1.00
1.05
3.71
5.55
5.40
3.14
-0.30
-3.30
-4.52
-3.45
-0.80
2.01
3.56
3.19
1.38
-0.58
-1.43
-0.71
1.04
2.56
2.71
1.26
-1.02
-2.78
-2.90
-1.26
1.36
3.46
3.88
2.30
-0.47
-2.97
-3.77
-2.40
0.45
3.17
4.13
2.63
-0.71
-4.21
-5.95
-4.88
-1.35
3.02
6.36
7.36
6.06
3.56
1.26
0.13
0.06
0.30
-0.05
-1.20
-2.69
-3.44
-2.73
-0.52
2.19
3.92
3.52
0.84
-2.97
-6.23
-7.26
-5.51
-1.84
1.94
3.94
3.30
0.64
-2.35
-3.88
-3.18
-0.93
1.23
1.68
-0.02
-2.93
-5.20
-5.39
-3.26
0.04
2.45
2.62
0.34
-2.98
-5.40
-5.48
-3.13
0.27
2.89
3.30
1.57
-0.96
-2.50
-1.81
0.97
4.36
6.46
6.08
3.23
-0.51
-3.14
-3.04
0.01
4.67
8.78
10.39
8.95
5.30
1.47
-0.68
-0.49
1.28
2.75
2.43
-0.11
-3.67
-6.37
-6.74
-4.67
-1.61
0.59
0.59
-1.51
-4.30
-5.96
-5.33
-2.59
0.90
3.32
3.67
1.95
-0.51
-2.22
-2.28
-0.88
0.93
1.77
0.91
-1.25
-3.46
-4.26
-2.85
0.38
4.05
6.35
6.11
3.43
-0.39
-3.37
-3.94
-1.79
1.84
4.81
5.34
2.90
-1.23
-4.89
-6.12
-4.42
-0.91
2.24
3.34
1.87
-1.06
-3.58
-4.15
-2.38
0.76
3.63
4.87
4.22
2.72
1.88
2.96
5.98
9.70
12.13
11.68
7.94
2.18
-3.59
-7.23
-7.89
-6.07
-3.40
-1.48
-1.13
-1.98
-2.92
-2.85
-1.50
0.57
2.12
2.32
0.93
-1.25
-3.11
-3.78
-3.19
-2.11
-1.61
-2.46
-4.44
-6.50
-7.17
-5.52
-1.76
2.70
5.79
6.08
3.46
-0.58
-3.87
-4.63
-2.63
0.78
3.52
3.91
1.76
-1.85
-5.10
-6.50
-5.77
-3.57
-1.22
0.33
0.71
0.39
0.17
0.61
1.81
3.08
3.60
2.76
0.69
-1.71
-3.13
-2.54
0.08
3.72
6.79
7.92
6.82
4.27
1.79
0.56
0.84
1.62
1.52
-0.55
-4.31
-8.36
-10.75
-10.05
-6.37
-1.16
3.28
5.23
4.33
1.79
-0.31
-0.52
1.49
4.43
6.52
6.54
4.69
2.38
1.36
2.42
4.93
7.11
7.24
4.74
0.61
-3.05
-4.39
-2.78
0.76
4.17
5.56
4.08
0.44
-3.56
-6.08
-6.04
-3.78
-0.62
1.62
1.77
-0.30
-3.47
-6.18
-7.13
-6.05
-3.72
-1.44
-0.29
-0.35
-0.92
-0.68
1.10
4.26
7.46
9.04
7.92
4.14
-0.66
-4.53
-5.73
-4.03
-0.58
2.61
3.90
2.83
0.43
-1.68
-2.10
-0.88
0.89
1.52
0.17
-2.86
-5.88
-7.24
-5.92
-2.59
1.12
3.27
2.88
0.44
-2.52
-4.25
-3.91
-1.87
0.46
1.50
0.55
-1.99
-4.64
-5.95
-5.05
-2.45
0.50
2.19
1.82
-0.30
-2.81
-4.22
-3.62
-1.32
1.46
3.19
3.05
1.23
-0.87
-1.87
-0.85
1.74
4.57
5.98
5.13
2.41
-0.73
-2.61
-2.31
-0.34
1.84
2.58
1.15
-1.73
-4.51
-5.63
-4.40
-1.57
1.37
2.91
2.57
0.97
-0.42
-0.42
1.31
3.93
5.96
6.22
4.43
1.46
-1.15
-2.04
-0.81
1.72
3.97
4.40
2.54
-0.87
-4.07
-5.51
-4.46
-1.67
1.32
2.85
2.23
0.07
-2.15
-2.95
-1.67
0.98
3.46
4.15
2.47
-0.96
-4.33
-5.99
-5.01
-2.10
1.01
2.43
1.26
-1.81
-4.95
-6.25
-4.82
-1.36
2.41
4.70
4.95
3.77
2.75
3.08
4.96
7.30
8.53
7.45
4.23
0.16
-2.91
-3.80
-2.51
-0.38
0.89
0.15
-2.45
-5.55
-7.35
-6.78
-3.94
-0.28
2.34
2.68
0.72
-2.36
-4.85
-5.44
-3.84
-0.88
2.06
3.63
3.31
1.51
-0.71
-2.11
-2.12
-0.99
0.28
0.71
-0.14
-1.75
-2.94
-2.72
-0.86
1.79
3.64
3.51
1.11
-2.50
-5.57
-6.49
-4.74
-1.09
2.65
4.79
4.52
2.32
-0.27
-1.61
-0.69
2.04
5.30
7.44
7.51
5.82
3.51
1.92
1.75
2.67
3.43
2.90
0.62
-2.75
-5.78
-7.10
-6.06
-3.22
-0.09
1.81
1.56
-0.40
-2.75
-3.92
-3.17
-0.94
1.34
2.33
1.51
-0.30
-1.53
-0.96
1.65
5.01
7.37
7.37
4.92
1.26
-1.83
-3.04
-2.28
-0.52
0.82
0.79
-0.66
-2.54
-3.66
-3.25
-1.40
0.83
2.18
1.82
-0.15
-2.68
-4.42
-4.35
-2.57
-0.03
1.59
1.29
-1.09
-4.27
-6.46
-6.22
-3.41
0.59
3.74
4.33
2.19
-1.30
-4.06
-4.37
-2.12
1.41
4.15
4.67
2.89
0.17
-1.66
-1.29
1.18
4.37
6.39
6.00
3.30
-0.29
-2.86
-3.04
-0.81
2.58
5.09
5.43
3.37
0.25
-2.10
-2.24
-0.16
2.89
4.97
4.86
2.53
-0.59
-2.75
-2.70
-0.61
2.12
3.73
3.14
0.59
-2.44
-4.22
-3.71
-1.21
1.87
3.73
3.34
0.72
-2.76
-5.47
-6.11
-4.67
-2.17
-0.31
-0.22
-2.01
-4.55
-6.35
-6.19
-4.19
-1.29
0.86
1.31
0.03
-1.87
-2.99
-2.38
-0.27
2.20
3.57
3.14
1.05
-1.37
-2.77
-2.28
-0.25
2.16
3.47
2.97
0.98
-1.19
-2.02
-0.75
2.17
5.24
6.73
5.72
2.57
-1.03
-3.25
-2.77
0.04
3.62
5.78
5.21
2.06
-2.09
-5.13
-5.61
-3.56
-0.27
2.30
2.86
1.11
-1.84
-4.46
-5.39
-4.38
-2.19
-0.23
0.44
-0.38
-1.77
-2.48
-1.70
0.33
2.33
2.76
1.02
-2.30
-5.35
-6.38
-4.57
-0.77
3.21
5.38
4.95
2.55
-0.24
-1.81
-1.41
0.53
2.68
3.74
3.08
1.15
-0.94
-1.81
-0.82
1.78
4.84
6.88
7.01
5.00
1.83
-1.20
-2.94
-3.10
-2.19
-1.37
-1.45
-2.59
-4.00
-4.60
-3.61
-1.25
1.52
3.34
3.43
2.00
0.20
-0.72
-0.00
1.93
3.80
4.21
2.44
-0.97
-4.70
-7.07
-7.30
-5.42
-2.64
-0.28
0.71
0.31
-0.70
-1.28
-0.82
0.48
1.78
2.06
0.97
-1.15
-3.11
-3.70
-2.30
0.51
3.41
4.82
3.98
1.30
-1.71
-3.37
-2.69
-0.08
3.08
5.23
5.55
4.54
3.43
3.54
5.02
7.09
8.08
6.89
3.30
-1.43
-5.46
-7.16
-6.07
-3.10
-0.05
1.31
0.34
-2.41
-5.26
-6.62
-5.61
-2.83
0.23
1.88
1.30
-0.97
-3.45
-4.56
-3.56
-0.96
1.79
3.20
2.60
0.54
-1.55
-2.18
-0.83
1.92
4.37
5.06
3.33
0.10
-2.91
-3.96
-2.53
0.46
3.14
3.88
2.33
-0.50
-2.66
-2.77
-0.60
2.58
4.95
5.13
2.93
-0.52
-3.55
-4.85
-4.11
-2.19
-0.47
-0.16
-1.55
-3.88
-5.73
-5.84
-3.88
-0.56
2.55
4.14
3.68
1.94
0.28
0.11
1.77
4.61
7.01
7.67
6.09
2.98
-0.10
-1.80
-1.57
-0.13
1.07
0.65
-1.78
-5.32
-8.22
-8.84
-6.69
-2.73
1.07
2.90
2.15
-0.18
-2.21
-2.23
0.07
3.53
6.07
6.16
3.61
-0.09
-2.86
-2.99
-0.44
3.42
6.30
6.60
4.01
-0.15
-3.86
-5.42
-4.42
-1.75
1.00
2.57
2.58
1.70
0.94
1.10
2.07
3.06
3.01
1.34
-1.71
-5.03
-7.37
-7.78
-6.34
-3.89
-1.82
-1.09
-1.90
-3.46
-4.61
-4.34
-2.66
-0.34
1.24
1.16
-0.58
-2.81
-4.01
-2.93
0.39
4.69
7.97
8.69
6.49
2.64
-0.84
-2.08
-0.63
2.54
5.36
6.21
4.60
1.59
-1.01
-1.64
-0.16
2.50
4.66
5.11
3.81
1.76
0.32
0.39
1.67
3.08
3.31
1.71
-1.21
-4.03
-5.22
-4.03
-0.94
2.40
4.10
3.06
-0.50
-5.01
-8.58
-9.82
-8.64
-6.09
-3.86
-3.05
-3.83
-5.25
-5.98
-4.96
-2.30
1.09
3.75
4.64
3.77
2.03
0.84
1.18
3.04
5.27
6.38
5.22
1.96
-2.01
-4.75
-4.89
-2.28
1.75
5.14
6.33
4.92
2.06
-0.43
-0.98
0.66
3.40
5.31
4.91
1.94
-2.37
-6.04
-7.38
-6.14
-3.32
-0.67
0.36
-0.38
-2.01
-3.01
-2.33
0.10
3.17
5.53
6.06
4.74
2.47
0.58
-0.06
0.63
1.79
2.15
0.95
-1.75
-4.94
-7.20
-7.53
-6.01
-3.77
-2.33
-2.74
-4.83
-7.30
-8.42
-7.06
-3.43
1.03
4.49
5.73
4.82
3.05
1.96
2.44
4.22
5.97
6.39
4.77
1.73
-1.32
-2.91
-2.22
0.36
3.64
6.04
6.49
5.02
2.46
0.20
-0.70
-0.03
1.36
2.28
1.64
-0.55
-3.39
-5.32
-5.21
-2.95
0.36
3.03
3.82
2.52
0.27
-1.39
-1.31
0.37
2.47
3.41
2.34
-0.36
-3.28
-4.81
-4.19
-1.95
0.44
1.53
0.60
-1.70
-3.99
-4.87
-3.76
-1.14
1.64
3.25
3.02
1.33
-0.70
-1.77
-1.27
0.45
2.22
2.68
1.24
-1.56
-4.18
-5.13
-3.71
-0.66
2.41
3.77
2.81
0.25
-2.24
-3.09
-1.85
0.63
2.56
2.62
0.51
-2.53
-4.58
-4.15
-1.07
3.33
6.97
8.04
6.21
2.53
-0.93
-2.42
-1.40
1.26
3.79
4.61
3.28
0.62
-1.68
-2.25
-0.74
1.89
3.99
4.22
2.44
-0.29
-2.23
-2.23
-0.38
1.96
2.95
1.58
-1.91
-5.89
-8.39
-8.20
-5.44
-1.62
1.45
2.53
1.71
0.04
-0.99
-0.47
1.39
3.54
4.58
3.77
1.28
-1.66
-3.59
-3.45
-1.41
1.36
3.12
2.69
0.03
-3.70
-6.64
-7.39
-5.67
-2.58
0.04
0.73
-0.91
-3.82
-6.24
-6.65
-4.63
-1.09
2.30
4.06
3.91
2.68
1.95
2.92
5.63
8.76
10.41
9.28
5.39
0.31
-3.87
-5.39
-4.07
-1.16
1.32
1.80
0.11
-2.60
-4.41
-3.96
-1.15
2.69
5.51
5.83
3.36
-0.50
-3.68
-4.43
-2.45
1.07
4.07
4.79
2.93
-0.42
-3.21
-3.85
-1.89
1.53
4.58
5.76
4.72
2.47
0.50
-0.01
0.92
2.30
2.74
1.38
-1.49
-4.64
-6.51
-6.23
-4.11
-1.51
-0.14
-0.88
-3.42
-6.22
-7.51
-6.16
-2.59
1.67
4.65
5.06
3.07
0.03
-2.17
-2.30
-0.26
2.75
5.15
5.75
4.42
2.08
0.09
-0.39
0.77
2.84
4.52
4.87
3.65
1.64
0.01
-0.31
0.65
2.13
2.80
1.78
-1.03
-4.79
-8.18
-10.10
-10.25
-9.13
-7.81
-7.15
-7.31
-7.67
-7.26
-5.39
-2.25
1.18
3.44
3.66
1.92
-0.54
-2.13
-1.73
0.63
3.73
5.85
5.82
3.67
0.64
-1.51
-1.44
0.76
3.93
6.28
6.61
5.01
2.75
1.42
1.99
3.99
6.03
6.52
4.88
1.82
-0.94
-1.90
-0.67
1.78
3.67
3.33
0.50
-3.80
-7.63
-9.31
-8.31
-5.45
-2.53
-1.15
-2.01
-4.40
-6.83
-7.75
-6.52
-3.68
-0.60
1.43
1.83
1.11
0.47
0.92
2.79
5.31
7.23
7.31
5.44
2.41
-0.08
-0.67
1.05
4.24
7.22
8.37
7.04
3.95
0.73
-0.93
-0.33
1.90
4.14
4.87
3.46
0.75
-1.58
-2.01
-0.12
2.99
5.46
5.60
2.98
-1.34
-5.38
-7.44
-7.01
-5.04
-3.17
-2.91
-4.46
-6.95
-8.74
-8.66
-6.55
-3.51
-1.10
-0.55
-1.98
-4.43
-6.35
-6.40
-4.33
-0.98
2.13
3.64
3.15
1.34
-0.27
-0.44
1.30
3.92
5.96
5.90
3.58
0.00
-2.84
-3.34
-1.04
2.90
6.52
7.99
6.72
3.58
0.33
-1.38
-0.88
1.10
3.04
3.47
1.90
-0.96
-3.63
-4.67
-3.67
-1.41
0.63
1.14
-0.21
-2.66
-4.76
-5.35
-4.14
-1.98
-0.21
0.02
-1.40
-3.56
-5.05
-4.80
-2.63
0.43
2.87
3.37
1.66
-1.27
-3.64
-3.91
-1.62
2.29
5.90
7.52
6.48
3.70
0.93
-0.08
1.10
3.56
5.36
4.98
2.06
-2.12
-5.37
-5.90
-3.44
0.63
4.07
4.99
3.00
-0.51
-3.37
-3.89
-1.84
1.32
3.58
3.47
1.15
-1.90
-3.71
-3.15
-0.47
2.85
5.01
5.04
3.16
0.73
-0.79
-0.51
1.25
3.28
4.12
3.04
0.33
-2.72
-4.61
-4.42
-2.37
0.19
1.71
1.19
-1.04
-3.62
-4.97
-4.29
-2.02
0.39
1.55
0.79
-1.14
-2.88
-2.99
-1.07
2.14
5.05
6.23
5.07
2.08
-1.34
-3.80
-4.42
-3.33
-1.43
0.05
0.37
-0.50
-1.86
-2.81
-2.83
-2.02
-1.17
-1.09
-2.15
-3.91
-5.36
-5.45
-3.77
-0.91
1.81
3.08
2.31
0.22
-1.63
-1.58
0.96
5.30
9.45
11.42
10.19
6.46
2.18
-0.44
-0.25
2.34
5.53
7.23
6.28
3.01
-0.94
-3.68
-4.04
-2.35
0.04
1.51
1.31
-0.06
-1.24
-0.94
1.10
3.86
5.48
4.58
0.97
-3.98
-8.09
-9.51
-7.77
-3.98
-0.16
1.80
1.20
-1.36
-4.31
-6.15
-6.23
-4.89
-3.32
-2.51
-2.90
-3.86
-4.44
-3.75
-1.61
1.14
3.41
4.13
3.08
0.93
-1.17
-2.04
-1.29
0.64
2.47
3.13
2.05
-0.10
-2.02
-2.30
-0.41
2.85
5.81
6.74
5.03
1.48
-1.97
-3.44
-2.25
0.82
3.71
4.71
3.02
-0.36
-3.68
-5.10
-3.95
-0.99
2.15
3.80
3.33
1.39
-0.57
-1.17
-0.10
1.89
3.16
2.63
0.19
-2.73
-4.39
-3.39
0.00
4.21
7.03
7.02
4.26
0.31
-2.63
-3.13
-1.14
2.03
4.66
5.57
4.69
3.01
1.66
1.38
1.95
2.55
2.13
0.27
-2.62
-5.46
-7.03
-6.59
-4.50
-1.83
-0.12
-0.35
-2.50
-5.48
-7.72
-7.99
-6.12
-3.14
-0.63
0.16
-0.95
-3.00
-4.39
-4.03
-1.84
1.02
2.98
3.05
1.33
-0.79
-1.74
-0.49
2.58
6.04
8.02
7.46
4.63
1.01
-1.56
-2.01
-0.57
1.41
2.39
1.52
-0.76
-3.02
-3.76
-2.35
0.64
3.59
4.91
4.02
1.51
-0.98
-2.05
-1.05
1.21
3.34
3.89
2.41
-0.44
-3.22
-4.57
-3.95
-1.89
0.33
1.39
0.66
-1.48
-3.90
-5.30
-4.96
-2.97
-0.39
1.61
2.23
1.53
0.44
0.06
1.02
3.08
5.16
6.07
5.26
3.10
0.82
-0.30
0.35
2.34
4.37
5.14
3.97
1.38
-1.38
-2.93
-2.65
-1.05
0.60
0.99
-0.53
-3.39
-6.30
-7.84
-7.51
-5.72
-3.85
-3.16
-4.16
-6.26
-8.06
-8.28
-6.40
-3.00
0.50
2.72
2.98
1.76
0.23
-0.21
0.97
3.33
5.57
6.40
5.24
2.71
0.29
-0.67
0.54
3.21
5.96
7.19
6.22
3.55
0.67
-0.87
-0.37
1.71
3.92
4.76
3.53
0.76
-2.10
-3.58
-2.82
-0.31
2.68
4.47
4.22
2.05
-0.89
-3.20
-3.96
-3.20
-1.90
-1.17
-1.79
-3.41
-4.97
-5.18
-3.38
-0.09
3.28
5.13
4.68
2.29
-0.49
-2.17
-1.88
-0.01
2.34
3.85
3.86
2.67
1.11
0.19
0.28
1.09
1.84
1.70
0.48
-1.35
-2.77
-2.93
-1.51
0.88
2.94
3.47
1.95
-1.05
-4.20
-6.00
-5.83
-4.05
-1.99
-1.00
-1.75
-3.80
-5.80
-6.35
-4.78
-1.65
1.64
3.55
3.34
1.57
-0.43
-1.05
0.28
2.93
5.29
5.78
3.82
0.22
-3.14
-4.55
-3.36
-0.40
2.45
3.42
1.84
-1.46
-4.63
-5.90
-4.72
-1.85
0.87
1.89
0.72
-1.67
-3.69
-3.97
-2.32
0.25
2.11
2.09
0.26
-2.15
-3.43
-2.32
1.06
5.23
8.24
8.49
6.02
2.13
-1.06
-2.01
-0.52
2.19
4.13
4.02
1.75
-1.07
-2.47
-1.06
2.86
7.48
10.44
10.10
6.63
1.73
-2.15
-3.45
-2.10
0.32
1.78
0.84
-2.41
-6.40
-9.16
-9.33
-7.00
-3.64
-1.05
-0.49
-1.83
-3.85
-4.85
-3.96
-1.51
1.12
2.23
1.12
-1.70
-4.55
-5.72
-4.40
-1.17
2.25
4.22
3.86
1.77
-0.60
-1.55
-0.32
2.68
5.87
7.71
7.19
4.59
1.24
-1.30
-1.89
-0.52
1.78
3.59
3.86
2.57
0.53
-0.98
-1.26
-0.42
0.64
0.81
-0.35
-2.38
-4.14
-4.46
-2.98
-0.42
1.74
2.22
0.48
-2.68
-5.78
-7.20
-6.22
-3.31
0.08
2.34
2.44
0.63
-1.86
-3.49
-3.19
-1.14
1.49
3.18
2.97
1.08
-1.22
-2.38
-1.57
0.91
3.66
5.16
4.65
2.57
0.24
-0.87
-0.11
1.95
3.91
4.31
2.60
-0.68
-4.09
-6.06
-5.69
-3.27
0.04
2.65
3.61
2.98
1.74
1.15
1.92
3.58
4.83
4.21
1.14
-3.49
-7.70
-9.46
-7.78
-3.33
1.77
5.20
5.67
3.57
0.60
-1.13
-0.49
2.13
5.11
6.57
5.48
2.28
-1.49
-4.03
-4.39
-2.91
-0.88
0.21
-0.24
-1.75
-3.00
-2.91
-1.28
0.80
1.79
0.65
-2.44
-5.87
-7.68
-6.53
-2.69
2.11
5.55
6.05
3.64
-0.15
-3.20
-4.00
-2.43
0.29
2.40
2.71
1.17
-0.98
-2.26
-1.60
0.77
3.58
5.18
4.58
2.06
-1.02
-2.85
-2.43
0.10
3.23
5.20
4.82
2.26
-1.09
-3.41
-3.51
-1.53
1.27
3.20
3.22
1.50
-0.73
-1.96
-1.39
0.53
2.40
2.70
0.75
-2.84
-6.37
-8.15
-7.21
-4.13
-0.33
2.37
3.13
2.15
0.69
0.10
1.02
3.02
4.85
5.28
3.78
0.96
-1.94
-3.45
-3.00
-0.93
1.45
2.67
1.99
-0.43
-3.25
-5.04
-4.77
-2.70
-0.00
1.72
1.52
-0.41
-2.80
-4.15
-3.44
-1.06
1.78
3.46
3.24
1.43
-0.55
-1.26
0.00
2.61
4.95
5.46
3.33
-0.63
-4.71
-6.88
-6.23
-3.16
0.62
3.22
3.51
1.69
-0.86
-2.67
-2.77
-1.50
0.07
0.67
-0.26
-2.10
-3.65
-3.68
-1.84
1.17
3.86
4.83
3.62
0.82
-1.98
-3.29
-2.41
0.10
2.77
4.06
3.24
0.81
-1.74
-2.86
-1.89
0.61
3.02
3.87
2.46
-0.41
-3.21
-4.34
-3.28
-0.73
1.73
2.64
1.52
-0.87
-2.98
-3.39
-1.69
1.44
4.38
5.75
5.03
2.91
0.92
0.39
1.82
4.34
6.42
6.66
4.85
1.87
-0.53
-1.12
0.29
2.54
3.85
2.98
-0.09
-3.96
-6.71
-6.89
-4.54
-1.07
1.56
1.74
-0.58
-4.15
-6.97
-7.59
-5.84
-2.93
-0.63
-0.18
-1.57
-3.51
-4.33
-3.02
0.19
3.88
6.25
6.12
3.75
0.41
-2.01
-2.37
-0.60
2.07
4.08
4.24
2.64
0.28
-1.32
-1.26
0.30
2.06
2.57
0.83
-2.84
-7.02
-9.83
-10.05
-7.60
-3.77
-0.26
1.56
1.46
0.40
-0.14
0.72
2.92
5.28
6.40
5.44
2.84
-0.07
-1.79
-1.53
0.28
2.38
3.42
2.75
0.92
-0.85
-1.20
0.41
3.44
6.34
7.66
6.51
3.40
-0.20
-2.47
-2.48
-0.47
2.02
3.32
2.41
-0.28
-3.27
-4.76
-3.99
-1.37
1.47
3.01
2.30
-0.12
-2.91
-4.52
-4.12
-2.09
0.36
1.75
1.27
-0.83
-3.41
-5.08
-5.08
-3.62
-1.86
-1.10
-2.04
-4.13
-6.05
-6.19
-3.99
-0.15
3.36
4.68
2.89
-1.17
-5.39
-7.44
-6.19
-2.20
2.45
5.55
5.85
3.95
1.62
0.81
2.29
5.34
8.14
9.03
7.52
4.64
2.21
1.81
3.71
6.63
8.68
8.26
5.21
0.82
-2.97
-4.60
-3.82
-1.66
0.13
0.34
-1.33
-3.92
-6.09
-6.76
-5.87
-4.24
-3.02
-3.09
-4.45
-6.16
-7.02
-6.12
-3.46
0.01
2.89
4.01
3.08
0.97
-0.93
-1.25
0.42
3.31
5.89
6.78
5.49
2.74
0.13
-0.96
-0.02
2.13
3.86
3.74
1.37
-2.36
-5.77
-7.37
-6.74
-4.82
-3.06
-2.78
-4.17
-6.18
-7.28
-6.34
-3.38
0.42
3.26
3.87
2.04
-0.96
-3.42
-3.91
-2.15
0.91
3.63
4.67
3.79
1.81
0.24
0.16
1.74
4.06
5.79
5.82
4.15
1.67
-0.26
-0.71
0.40
2.14
3.32
3.10
1.57
-0.41
-1.57
-1.26
0.37
2.28
3.24
2.57
0.50
-1.75
-2.80
-1.88
0.69
3.57
5.15
4.36
1.48
-2.10
-4.48
-4.47
-2.11
1.11
3.32
3.21
0.82
-2.31
-4.35
-4.00
-1.54
1.52
3.18
2.27
-0.96
-4.96
-7.73
-8.10
-6.22
-3.49
-1.63
-1.64
-3.28
-5.20
-5.96
-4.80
-2.14
0.73
2.43
2.31
0.78
-0.93
-1.59
-0.68
1.43
3.56
4.65
4.29
2.85
1.41
0.87
1.72
3.44
5.13
5.70
4.80
2.86
1.01
0.45
1.73
4.31
6.85
7.86
6.58
3.45
-0.02
-2.13
-1.96
0.09
2.57
3.75
2.88
0.38
-2.13
-3.14
-1.98
0.65
3.09
3.79
2.27
-0.65
-3.21
-3.97
-2.47
0.19
2.22
1.96
-0.84
-5.02
-8.56
-9.59
-7.57
-3.59
0.20
1.81
0.46
-2.90
-6.32
-7.74
-6.42
-3.02
0.66
2.91
3.07
1.76
0.61
0.88
2.85
5.50
7.16
6.54
3.67
-0.20
-3.12
-3.79
-2.14
0.55
2.49
2.35
0.17
-2.84
-4.97
-4.95
-2.74
0.44
2.85
3.14
1.09
-2.13
-4.89
-5.61
-4.04
-1.05
1.53
2.29
0.79
-1.94
-4.06
-4.02
-1.47
2.39
5.58
6.43
4.69
1.51
-1.12
-1.72
-0.05
2.65
4.49
4.10
1.36
-2.42
-5.33
-6.00
-4.17
-1.06
1.61
2.44
1.15
-1.22
-3.06
-3.02
-1.03
1.90
3.92
3.83
1.50
-1.69
-3.81
-3.51
-0.83
2.69
5.00
4.66
1.94
-1.52
-3.50
-2.71
0.45
4.11
5.94
4.76
1.00
-3.28
-5.87
-5.54
-2.83
0.36
1.84
0.46
-3.34
-7.64
-10.27
-9.83
-6.49
-1.73
2.24
3.90
2.90
0.27
-2.25
-3.29
-2.43
-0.52
1.10
1.31
0.16
-1.41
-1.98
-0.69
2.02
4.82
6.10
5.08
2.27
-0.60
-1.75
-0.24
3.23
6.70
8.07
6.31
2.17
-2.18
-4.29
-3.05
0.95
5.48
8.15
7.71
4.78
1.31
-0.60
0.09
2.69
5.34
6.11
4.31
0.76
-2.69
-4.24
-3.23
-0.40
2.46
3.76
2.76
0.21
-2.22
-2.94
-1.32
1.84
4.85
6.04
4.79
1.82
-1.19
-2.60
-1.88
0.43
2.61
3.18
1.35
-2.16
-5.85
-8.10
-8.17
-6.56
-4.63
-3.87
-4.88
-7.08
-9.12
-9.56
-7.97
-4.92
-1.97
-0.42
-0.76
-2.26
-3.54
-3.29
-1.26
1.66
3.92
4.23
2.39
-0.51
-2.62
-2.33
0.68
5.34
9.45
11.08
9.48
5.64
1.67
-0.21
0.79
3.87
6.88
7.88
5.96
2.13
-1.72
-3.59
-2.88
-0.34
2.16
3.09
1.99
-0.25
-2.04
-2.07
-0.27
2.24
3.72
2.99
-0.03
-3.87
-6.77
-7.24
-5.26
-1.98
0.59
1.01
-0.97
-4.15
-6.69
-7.09
-5.07
-1.69
1.30
2.52
1.71
-0.18
-1.67
-1.56
0.19
2.60
4.11
3.67
1.31
-1.81
-4.17
-4.60
-3.12
-0.84
0.73
0.60
-1.19
-3.40
-4.52
-3.47
-0.59
2.88
5.05
4.92
2.58
-0.63
-2.87
-3.06
-1.21
1.35
3.07
2.80
0.74
-1.97
-3.78
-3.82
-2.13
0.08
1.48
1.21
-0.48
-2.39
-3.06
-1.60
1.68
5.43
7.81
7.72
5.21
1.62
-1.22
-1.99
-0.71
1.48
2.83
2.31
0.11
-2.32
-3.10
-1.24
2.91
7.49
10.33
10.05
6.81
2.40
-1.07
-2.17
-1.11
0.54
0.78
-1.45
-5.62
-9.73
-11.66
-10.16
-5.91
-0.87
2.59
3.18
1.18
-1.66
-3.29
-2.48
0.43
3.91
6.04
5.77
3.47
0.70
-0.77
-0.08
2.22
4.41
4.69
2.36
-1.87
-5.94
-7.91
-6.81
-3.47
0.26
2.34
1.88
-0.40
-2.70
-3.17
-1.10
2.71
6.23
7.56
5.88
1.98
-2.11
-4.44
-4.03
-1.55
1.40
3.05
2.66
0.71
-1.37
-2.24
-1.39
0.54
2.30
2.69
1.41
-0.99
-3.24
-4.31
-3.72
-2.03
-0.33
0.24
-0.85
-3.17
-5.60
-6.76
-6.02
-3.55
-0.61
1.52
2.00
1.03
-0.25
-0.56
0.73
3.11
5.18
5.60
3.90
0.96
-1.49
-1.85
0.27
3.72
6.45
6.74
4.14
-0.05
-3.61
-4.68
-2.82
0.74
3.79
4.62
2.84
-0.35
-3.03
-3.69
-2.29
-0.08
1.14
0.23
-2.58
-5.89
-7.91
-7.65
-5.53
-2.93
-1.47
-1.91
-3.79
-5.59
-5.79
-3.63
0.38
4.77
7.80
8.42
6.73
3.94
1.67
1.13
2.44
4.68
6.23
6.02
3.85
0.80
-1.55
-1.96
-0.35
2.16
3.87
3.52
1.02
-2.49
-5.34
-6.18
-4.82
-2.23
0.01
0.64
-0.55
-2.61
-3.97
-3.48
-1.03
2.20
4.53
4.62
2.56
-0.39
-2.32
-1.99
0.60
4.00
6.30
6.33
4.13
1.13
-0.90
-0.84
1.08
3.55
4.84
4.00
1.23
-2.10
-4.37
-4.48
-2.67
-0.17
1.32
0.67
-1.99
-5.38
-7.69
-7.68
-5.23
-1.50
1.92
3.66
3.49
2.22
1.12
1.10
2.13
3.25
3.26
1.62
-1.30
-4.12
-5.44
-4.61
-2.20
0.38
1.47
0.45
-2.20
-4.93
-6.26
-5.35
-2.78
0.04
1.62
1.16
-0.87
-3.23
-4.47
-3.98
-2.07
-0.01
1.07
0.70
-0.52
-1.29
-0.46
2.28
6.03
9.22
10.45
9.29
6.59
3.80
2.27
2.32
3.18
3.51
2.25
-0.54
-3.83
-5.93
-5.75
-3.25
0.31
3.10
3.70
1.84
-1.36
-4.16
-4.98
-3.49
-0.48
2.31
3.51
2.58
0.25
-2.03
-3.00
-2.20
-0.25
1.65
2.35
1.47
-0.47
-2.39
-3.22
-2.65
-1.07
0.41
0.76
-0.38
-2.49
-4.37
-4.88
-3.61
-1.13
1.27
2.41
1.88
0.41
-0.73
-0.38
1.58
4.28
6.24
6.40
4.72
2.20
0.35
0.05
1.24
2.71
3.14
1.62
-1.41
-4.70
-6.63
-6.28
-3.94
-0.85
1.42
1.94
0.76
-1.00
-1.98
-1.18
1.40
4.88
7.85
9.17
8.42
6.14
3.47
1.43
0.50
0.26
-0.05
-1.09
-2.78
-4.36
-4.79
-3.59
-1.05
1.60
3.05
2.40
-0.13
-3.53
-6.30
-7.39
-6.49
-4.27
-1.92
-0.54
-0.64
-1.81
-3.08
-3.44
-2.47
-0.76
0.62
0.50
-1.31
-4.11
-6.36
-6.81
-5.04
-1.81
1.45
3.50
3.95
3.42
3.02
3.61
5.18
6.84
7.41
6.08
3.11
-0.39
-2.98
-3.83
-3.03
-1.75
-1.27
-2.37
-4.63
-6.75
-7.30
-5.62
-2.18
1.51
3.88
4.15
2.75
1.03
0.41
1.53
3.81
5.93
6.38
4.61
1.15
-2.51
-4.94
-5.34
-4.13
-2.40
-1.37
-1.55
-2.57
-3.36
-3.05
-1.42
0.92
2.75
3.18
2.00
-0.08
-1.79
-2.06
-0.57
2.01
4.34
5.16
3.93
1.07
-2.10
-4.23
-4.35
-2.71
-0.22
1.80
2.59
2.12
1.28
0.95
1.66
3.01
4.07
3.86
2.15
-0.40
-2.49
-3.03
-1.68
0.70
2.78
3.37
2.23
0.14
-1.68
-2.26
-1.59
-0.39
0.11
-0.78
-2.99
-5.54
-7.15
-6.95
-4.94
-2.06
0.41
1.37
0.70
-0.88
-2.07
-1.88
-0.09
2.49
4.50
4.92
3.61
1.60
0.38
1.01
3.60
6.90
9.35
9.68
7.93
5.18
3.10
2.73
4.01
5.69
6.13
4.40
0.66
-3.69
-6.91
-7.75
-6.25
-3.57
-1.37
-0.92
-2.33
-4.58
-6.09
-5.65
-3.11
0.59
3.82
5.37
4.82
3.05
1.40
1.00
2.02
3.58
4.41
3.52
1.10
-1.78
-3.57
-3.45
-1.55
0.74
1.95
1.22
-1.05
-3.32
-4.10
-2.54
0.60
3.63
4.68
2.95
-0.91
-4.99
-7.33
-6.80
-3.84
-0.00
2.75
3.21
1.38
-1.44
-3.63
-3.92
-2.32
0.16
1.95
2.02
0.38
-1.81
-3.06
-2.48
-0.27
2.16
3.24
2.15
-0.59
-3.45
-4.65
-3.36
-0.04
3.68
5.96
5.76
3.25
-0.21
-2.97
-3.87
-2.86
-0.86
0.83
1.12
-0.12
-2.08
-3.64
-3.83
-2.62
-0.72
0.75
1.16
0.58
-0.03
0.27
1.94
4.31
6.12
5.99
3.48
-0.62
-4.63
-6.76
-6.25
-3.67
-0.68
0.95
0.48
-1.58
-3.62
-4.10
-2.51
0.38
2.84
3.50
1.91
-0.89
-3.23
-3.70
-2.12
0.50
2.47
2.56
0.71
-1.99
-3.83
-3.70
-1.54
1.48
3.61
3.55
1.13
-2.40
-5.18
-5.65
-3.47
0.27
3.64
4.99
3.85
1.15
-1.34
-2.19
-0.98
1.33
3.18
3.34
1.64
-0.80
-2.44
-2.00
0.50
3.99
6.61
7.01
4.89
1.30
-1.91
-3.12
-1.77
1.26
4.18
5.35
4.11
1.28
-1.59
-3.02
-2.71
-1.52
-0.91
-1.88
-4.29
-6.89
-8.04
-6.89
-3.68
-0.01
2.44
2.56
0.62
-2.10
-3.86
-3.58
-1.36
1.59
3.62
3.62
1.63
-1.03
-2.58
-1.83
1.14
4.85
7.31
7.11
4.30
0.35
-2.69
-3.30
-1.43
1.64
4.04
4.50
3.00
0.70
-0.79
-0.55
1.20
3.12
3.67
2.02
-1.33
-4.79
-6.62
-5.84
-2.95
0.42
2.25
1.48
-1.55
-5.06
-6.98
-6.15
-2.84
1.24
4.04
4.30
2.27
-0.55
-2.35
-1.99
0.30
3.28
5.31
5.51
3.98
1.83
0.40
0.51
1.98
3.79
4.69
3.85
1.55
-1.10
-2.59
-1.96
0.60
3.78
5.75
5.35
2.64
-0.91
-3.32
-3.27
-0.92
2.16
3.98
3.30
0.47
-2.92
-4.77
-4.14
-1.49
1.36
2.57
1.31
-1.66
-4.52
-5.56
-4.16
-1.24
1.34
1.87
-0.27
-4.01
-7.45
-8.64
-6.97
-3.26
0.42
2.20
1.24
-1.59
-4.38
-5.28
-3.62
-0.41
2.43
3.11
1.23
-2.06
-4.77
-5.13
-2.87
0.95
4.34
5.74
4.65
2.07
-0.36
-1.27
-0.27
1.85
3.72
4.18
2.96
0.93
-0.59
-0.48
1.30
3.85
5.49
5.17
2.78
-0.47
-2.92
-3.27
-1.37
1.62
4.08
4.63
3.10
0.41
-1.88
-2.44
-0.97
1.75
4.25
5.20
4.10
1.54
-1.15
-2.65
-2.39
-0.83
0.80
1.33
0.30
-1.60
-3.11
-3.13
-1.57
0.72
2.19
1.79
-0.47
-3.56
-5.84
-6.18
-4.39
-1.59
0.68
1.09
-0.59
-3.33
-5.60
-6.02
-4.39
-1.65
0.65
1.28
0.19
-1.68
-2.72
-2.06
0.23
2.83
4.14
3.29
0.59
-2.54
-4.44
-4.14
-1.96
0.84
2.70
2.67
1.03
-1.10
-2.24
-1.58
0.67
3.32
4.98
4.79
2.94
0.71
-0.50
0.09
2.23
4.59
5.69
4.63
1.89
-1.15
-2.68
-1.80
1.16
4.61
6.68
6.20
3.36
-0.43
-3.43
-4.47
-3.58
-1.88
-0.79
-1.09
-2.48
-3.71
-3.53
-1.47
1.69
4.32
4.89
2.94
-0.70
-4.15
-5.63
-4.40
-1.10
2.58
4.90
5.02
3.40
1.41
0.50
1.28
3.25
5.07
5.41
3.80
0.89
-1.79
-2.88
-1.96
0.12
1.78
1.62
-0.60
-3.79
-6.16
-6.21
-3.73
0.12
3.47
4.80
3.83
1.57
-0.25
-0.33
1.56
4.37
6.50
6.60
4.53
1.22
-1.68
-2.94
-2.43
-1.07
-0.29
-1.06
-3.23
-5.62
-6.74
-5.61
-2.50
1.29
4.00
4.36
2.28
-1.24
-4.56
-6.36
-6.21
-4.70
-3.09
-2.34
-2.76
-3.60
-3.78
-2.52
-0.08
2.39
3.41
2.10
-1.16
-4.89
-7.27
-7.13
-4.61
-1.08
1.70
2.51
1.25
-0.94
-2.50
-2.28
-0.20
2.75
5.01
5.32
3.48
0.27
-2.71
-4.20
-3.62
-1.65
0.52
1.71
1.57
0.67
0.13
0.81
2.73
4.96
6.19
5.53
3.06
-0.05
-2.41
-2.92
-1.61
0.57
2.22
2.25
0.60
-1.96
-4.08
-4.76
-3.76
-1.79
0.11
1.06
1.06
0.72
0.95
2.17
4.08
5.64
5.93
4.49
1.90
-0.76
-2.30
-2.46
-1.58
-0.81
-0.96
-2.31
-4.28
-5.79
-5.97
-4.46
-1.83
0.93
2.79
3.13
2.09
0.35
-1.11
-1.61
-0.94
0.41
1.75
2.44
2.33
1.83
1.52
1.89
2.81
3.74
3.90
2.89
0.90
-1.24
-2.53
-2.40
-0.95
0.99
2.44
2.69
1.67
0.06
-1.36
-1.85
-1.40
-0.51
0.02
-0.39
-1.66
-3.19
-4.07
-3.84
-2.53
-0.97
0.02
-0.09
-0.95
-1.62
-1.14
0.94
4.01
6.93
8.35
7.83
5.65
2.94
0.73
-0.36
-0.64
-0.77
-1.40
-2.74
-4.40
-5.65
-5.93
-4.96
-3.18
-1.24
0.12
0.65
0.53
0.42
0.96
2.37
4.32
5.88
6.27
5.07
2.78
0.45
-0.87
-0.73
0.36
1.42
1.33
-0.10
-2.18
-3.65
-3.46
-1.47
1.40
3.57
3.89
2.10
-0.81
-3.38
-4.50
-3.91
-2.54
-1.55
-1.78
-2.95
-4.07
-3.87
-1.84
1.51
4.78
6.50
5.96
3.41
0.01
-2.89
-4.44
-4.54
-3.85
-3.12
-2.89
-3.22
-3.65
-3.64
-2.74
-1.06
0.97
2.49
2.86
1.87
-0.01
-1.90
-2.99
-2.98
-2.21
-1.46
-1.30
-1.82
-2.54
-2.83
-2.30
-1.16
0.03
0.62
0.48
-0.02
-0.19
0.52
2.08
3.93
5.21
5.23
3.99
2.05
0.44
-0.02
0.91
2.69
4.36
5.00
4.24
2.51
0.78
0.02
0.78
2.80
5.28
7.13
7.68
6.86
5.27
3.69
2.74
2.36
2.05
1.08
-0.92
-3.70
-6.35
-7.86
-7.66
-6.10
-4.19
-3.25
-3.85
-5.71
-7.66
-8.27
-6.87
-3.84
-0.44
1.85
2.24
1.09
-0.42
-0.90
0.20
2.46
4.62
5.44
4.36
1.79
-0.99
-2.82
-2.97
-1.74
-0.08
1.01
0.95
0.03
-0.88
-0.93
0.28
2.24
4.07
4.74
4.00
2.30
0.70
0.16
1.01
2.57
3.86
3.89
2.61
0.74
-0.62
-0.57
0.77
2.52
3.28
2.23
-0.58
-4.07
-6.73
-7.59
-6.52
-4.47
-2.67
-2.07
-2.76
-4.04
-4.82
-4.34
-2.53
-0.03
2.12
3.08
2.58
1.08
-0.54
-1.39
-1.03
0.25
1.74
2.61
2.49
1.50
0.32
-0.29
-0.04
0.90
1.81
2.00
1.09
-0.54
-1.95
-2.26
-0.93
1.62
4.42
6.19
6.31
5.02
3.37
2.51
3.00
4.47
5.78
5.90
4.44
1.96
-0.49
-1.97
-2.34
-2.09
-2.15
-2.95
-4.22
-5.17
-5.05
-3.69
-1.84
-0.61
-0.93
-2.83
-5.44
-7.37
-7.43
-5.35
-1.96
1.28
2.97
2.46
0.21
-2.47
-4.16
-3.88
-1.62
1.69
4.77
6.47
6.48
5.27
3.91
3.25
3.48
4.08
4.02
2.70
0.21
-2.54
-4.30
-4.28
-2.54
-0.16
1.45
1.26
-0.66
-3.32
-5.22
-5.29
-3.47
-0.73
1.50
2.14
0.94
-1.21
-3.14
-3.78
-2.90
-1.27
0.02
0.08
-1.10
-2.80
-3.84
-3.45
-1.59
0.99
3.10
3.99
3.42
2.02
0.57
-0.30
-0.44
-0.19
0.07
-0.01
-0.31
-0.49
-0.15
0.80
2.12
3.25
3.65
3.14
2.09
1.33
1.59
3.13
5.40
7.24
7.51
5.69
2.12
-1.93
-5.17
-6.75
-6.71
-5.82
-4.99
-4.72
-4.93
-4.94
-4.12
-2.15
0.49
2.86
3.94
3.23
1.01
-1.53
-3.15
-2.92
-0.96
1.81
4.14
5.19
5.05
4.36
4.01
4.34
5.01
5.18
4.29
2.35
-0.05
-1.90
-2.54
-1.84
-0.38
1.06
1.57
0.82
-1.13
-3.66
-6.04
-7.47
-7.65
-6.81
-5.53
-4.53
-4.15
-4.18
-4.10
-3.30
-1.70
0.24
1.67
2.01
1.29
0.11
-0.61
-0.36
0.87
2.29
3.16
2.96
2.01
0.99
0.76
1.61
3.15
4.49
4.75
3.66
1.59
-0.34
-1.27
-0.78
0.60
1.80
1.88
0.35
-2.20
-4.67
-5.89
-5.35
-3.40
-0.98
0.78
1.42
1.19
0.94
1.59
3.35
5.78
7.68
8.07
6.42
3.32
-0.12
-2.51
-3.29
-2.59
-1.38
-0.68
-1.01
-2.25
-3.51
-3.99
-3.19
-1.57
-0.01
0.56
-0.21
-1.86
-3.35
-3.73
-2.73
-0.94
0.56
0.77
-0.43
-2.28
-3.56
-3.27
-1.34
1.33
3.48
4.16
3.33
1.77
0.65
0.86
2.35
4.35
5.64
5.41
3.61
1.06
-1.08
-1.89
-1.18
0.45
2.01
2.61
1.93
0.31
-1.46
-2.62
-2.81
-2.28
-1.59
-1.41
-1.98
-3.03
-3.90
-3.95
-2.83
-0.97
0.93
1.98
1.90
0.90
-0.13
-0.49
0.11
1.28
2.13
2.04
0.88
-0.61
-1.55
-1.13
0.49
2.64
4.18
4.47
3.50
2.05
0.96
0.81
1.33
1.80
1.39
-0.14
-2.37
-4.25
-4.82
-3.74
-1.46
0.85
2.09
1.65
-0.20
-2.57
-4.25
-4.54
-3.38
-1.46
0.11
0.53
-0.47
-2.25
-3.99
-4.78
-4.49
-3.41
-2.34
-1.77
-1.78
-1.83
-1.31
0.22
2.40
4.51
5.46
4.77
2.50
-0.33
-2.51
-2.99
-1.59
1.07
3.72
5.25
5.25
4.19
3.08
2.78
3.41
4.38
4.70
3.87
2.08
0.34
-0.53
-0.09
1.00
1.78
1.18
-0.92
-3.91
-6.51
-7.69
-6.97
-4.90
-2.39
-0.55
0.22
0.04
-0.37
-0.30
0.61
2.06
3.43
3.99
3.45
2.03
0.51
-0.44
-0.32
0.67
1.99
2.83
2.78
1.90
0.77
0.13
0.45
1.58
2.78
3.04
1.69
-1.16
-4.50
-7.02
-7.60
-6.20
-3.67
-1.43
-0.45
-0.93
-2.11
-2.81
-2.25
-0.45
1.73
3.18
3.24
2.00
0.36
-0.80
-1.01
-0.52
0.00
-0.07
-0.86
-1.95
-2.59
-2.17
-0.66
1.34
2.92
3.32
2.35
0.49
-1.30
-2.18
-1.67
-0.06
1.85
3.11
3.10
1.89
0.22
-1.00
-1.06
-0.04
1.41
2.32
2.17
1.07
-0.32
-1.08
-0.84
0.19
1.20
1.41
0.58
-0.82
-1.86
-1.70
-0.06
2.47
4.87
6.06
5.68
4.02
2.06
0.69
0.36
0.70
0.86
0.07
-1.75
-4.00
-5.59
-5.70
-4.30
-2.10
-0.28
0.28
-0.59
-2.12
-3.27
-3.09
-1.53
0.73
2.44
2.73
1.39
-0.79
-2.61
-3.01
-1.73
0.63
2.81
3.69
2.80
0.58
-1.80
-3.27
-3.24
-1.99
-0.30
0.85
1.05
0.44
-0.35
-0.58
-0.01
1.10
1.89
1.69
0.27
-1.80
-3.63
-4.31
-3.64
-2.05
-0.50
0.22
-0.12
-1.02
-1.68
-1.27
0.27
2.48
4.32
5.06
4.39
2.74
0.98
-0.16
-0.43
-0.19
-0.12
-0.79
-2.20
-3.60
-4.06
-2.87
-0.18
3.05
5.42
5.96
4.57
2.16
0.06
-0.74
-0.15
1.04
1.63
0.83
-1.26
-3.59
-4.89
-4.19
-1.66
1.68
4.26
5.02
3.81
1.52
-0.49
-1.09
-0.05
1.90
3.44
3.53
1.80
-0.96
-3.48
-4.59
-3.95
-2.17
-0.44
0.26
-0.27
-1.24
-1.59
-0.61
1.45
3.50
4.35
3.31
0.85
-1.89
-3.67
-3.91
-2.98
-1.77
-1.23
-1.67
-2.70
-3.52
-3.31
-1.88
0.34
2.42
3.41
2.87
1.02
-1.11
-2.46
-2.15
-0.24
2.52
4.81
5.58
4.52
2.24
-0.02
-1.19
-0.87
0.30
1.14
0.55
-1.70
-4.78
-7.17
-7.58
-5.72
-2.54
0.22
1.16
-0.12
-2.59
-4.60
-4.77
-2.79
0.39
3.22
4.43
3.78
2.12
0.63
0.34
1.22
2.59
3.34
2.89
1.43
-0.22
-1.09
-0.77
0.35
1.36
1.34
-0.01
-2.22
-4.18
-4.85
-3.81
-1.50
1.01
2.61
2.67
1.31
-0.57
-1.87
-1.91
-0.75
0.88
1.91
1.72
0.42
-1.04
-1.68
-0.91
0.82
2.50
2.93
1.67
-0.69
-2.86
-3.58
-2.37
0.15
2.62
3.88
3.45
1.91
0.36
-0.18
0.62
2.28
3.84
4.54
4.21
3.25
2.53
2.66
3.79
5.47
6.93
7.36
6.49
4.47
1.99
-0.22
-1.51
-1.81
-1.47
-1.13
-1.30
-2.02
-2.74
-2.84
-1.94
-0.37
0.90
0.89
-0.74
-3.34
-5.54
-6.14
-4.72
-2.02
0.54
1.62
0.84
-1.18
-3.13
-4.02
-3.58
-2.46
-1.63
-1.88
-3.20
-4.87
-5.79
-5.21
-3.04
-0.06
2.59
3.78
3.26
1.40
-0.60
-1.78
-1.62
-0.53
0.65
0.95
0.13
-1.44
-2.77
-3.05
-2.02
-0.27
1.20
1.50
0.50
-1.10
-2.05
-1.48
0.73
3.58
5.71
5.94
4.18
1.25
-1.32
-2.40
-1.62
0.19
1.91
2.41
1.58
0.07
-1.02
-0.90
0.45
2.23
3.33
2.97
1.19
-1.23
-3.03
-3.35
-2.12
-0.18
1.34
1.52
0.33
-1.57
-2.95
-3.09
-1.87
-0.06
1.34
1.61
0.87
-0.17
-0.54
0.27
2.06
3.91
4.82
4.20
2.30
0.08
-1.38
-1.30
0.17
2.20
3.52
3.42
1.92
-0.13
-1.54
-1.62
-0.46
0.97
1.63
0.82
-1.13
-3.30
-4.57
-4.41
-3.06
-1.43
-0.48
-0.70
-1.85
-3.08
-3.45
-2.44
-0.28
2.13
3.62
3.41
1.44
-1.35
-3.71
-4.57
-3.74
-1.80
-0.01
0.72
0.14
-1.15
-2.10
-2.02
-0.86
0.54
1.26
0.65
-0.92
-2.44
-2.73
-1.24
1.55
4.37
5.93
5.62
3.81
1.75
0.57
0.84
2.11
3.41
3.85
3.08
1.51
-0.10
-1.02
-1.03
-0.37
0.38
0.68
0.26
-0.78
-1.89
-2.48
-2.13
-0.84
0.77
1.97
1.93
0.59
-1.51
-3.28
-3.80
-2.76
-0.82
0.88
1.37
0.38
-1.34
-2.69
-2.72
-1.49
0.17
1.04
0.44
-1.37
-3.28
-4.04
-3.05
-0.77
1.57
2.68
2.07
0.21
-1.62
-2.23
-1.10
1.29
3.66
4.90
4.45
2.75
0.79
-0.40
-0.50
0.20
0.79
0.58
-0.56
-1.96
-2.62
-1.85
0.36
3.07
5.13
5.53
4.20
1.81
-0.51
-1.83
-1.84
-0.96
0.03
0.43
0.03
-0.85
-1.58
-1.66
-0.94
0.16
0.92
0.73
-0.50
-2.28
-3.67
-3.80
-2.52
-0.38
1.42
1.91
0.82
-1.14
-2.73
-2.85
-1.23
1.39
3.78
4.88
4.41
2.95
1.52
1.04
1.72
3.13
4.33
4.60
3.66
1.94
0.27
-0.61
-0.48
0.29
0.89
0.59
-0.67
-2.39
-3.61
-3.64
-2.39
-0.61
0.65
0.58
-0.88
-2.98
-4.57
-4.80
-3.56
-1.56
0.03
0.41
-0.49
-1.88
-2.67
-2.09
-0.32
1.70
2.75
2.07
-0.06
-2.68
-4.40
-4.47
-2.85
-0.42
1.72
2.68
2.30
1.12
-0.04
-0.51
-0.06
0.91
1.70
1.74
0.87
-0.47
-1.61
-1.90
-1.26
-0.04
0.95
1.21
0.62
-0.23
-0.60
0.07
1.60
3.18
3.76
2.68
0.26
-2.46
-4.08
-3.83
-1.77
0.99
3.11
3.70
2.71
1.10
-0.04
-0.02
1.07
2.42
3.16
2.80
1.69
0.62
0.44
1.44
3.15
4.63
4.98
3.82
1.61
-0.69
-2.06
-1.97
-0.71
0.94
2.07
2.07
1.09
-0.35
-1.42
-1.80
-1.49
-1.19
-1.45
-2.53
-4.14
-5.47
-5.79
-4.87
-3.15
-1.65
-1.26
-2.32
-4.25
-5.92
-6.23
-4.76
-2.01
0.83
2.67
2.90
1.96
0.71
0.06
0.33
1.25
2.15
2.56
2.40
2.12
2.19
3.00
4.31
5.56
5.91
4.86
2.43
-0.63
-3.26
-4.51
-4.10
-2.57
-1.04
-0.55
-1.52
-3.49
-5.35
-6.05
-5.22
-3.35
-1.53
-0.67
-1.13
-2.44
-3.63
-3.87
-2.84
-0.96
0.94
1.99
1.90
1.00
0.07
-0.08
0.78
2.30
3.62
4.13
3.58
2.51
1.66
1.76
2.81
4.35
5.45
5.56
4.66
3.30
2.15
1.80
2.10
2.55
2.44
1.40
-0.31
-2.12
-3.20
-3.19
-2.19
-0.79
0.23
0.33
-0.56
-1.96
-3.15
-3.40
-2.54
-0.90
0.75
1.66
1.56
0.71
-0.21
-0.53
-0.05
0.87
1.50
1.22
0.01
-1.55
-2.55
-2.32
-0.90
0.89
1.96
1.45
-0.62
-3.39
-5.51
-6.00
-4.68
-2.32
-0.19
0.72
0.16
-1.18
-2.24
-2.27
-1.18
0.28
1.23
1.12
0.21
-0.64
-0.49
0.95
3.11
4.77
4.77
2.69
-0.72
-3.98
-5.54
-4.77
-2.18
0.73
2.39
1.99
-0.16
-2.82
-4.61
-4.74
-3.35
-1.33
0.34
1.21
1.45
1.78
2.81
4.64
6.79
8.38
8.75
7.71
5.73
3.75
2.61
2.66
3.53
4.37
4.28
2.97
0.89
-0.86
-1.19
0.25
2.89
5.38
6.35
5.05
1.71
-2.60
-6.51
-8.99
-9.72
-9.09
-7.79
-6.53
-5.60
-4.95
-4.25
-3.28
-2.06
-1.03
-0.54
-0.85
-1.65
-2.36
-2.21
-0.98
1.06
2.99
3.93
3.34
1.52
-0.69
-2.14
-2.18
-0.79
1.28
3.07
3.79
3.37
2.23
1.24
0.92
1.41
2.10
2.40
1.79
0.44
-1.07
-1.92
-1.79
-0.84
0.07
0.04
-1.47
-4.21
-7.20
-9.22
-9.37
-7.58
-4.68
-1.89
-0.30
0.01
-0.29
-0.04
1.43
3.98
6.54
7.91
7.40
5.34
2.88
1.31
1.25
2.44
3.80
4.31
3.44
1.57
-0.43
-1.65
-1.74
-1.04
-0.33
-0.42
-1.48
-3.03
-4.09
-3.85
-2.09
0.52
2.76
3.58
2.50
0.24
-1.94
-2.64
-1.40
1.25
3.83
4.79
3.51
0.39
-3.00
-5.15
-5.20
-3.43
-1.10
0.46
0.43
-0.83
-2.33
-2.98
-2.25
-0.51
1.26
2.05
1.49
-0.03
-1.43
-1.66
-0.29
2.19
4.60
5.76
5.04
2.89
0.44
-1.07
-1.14
-0.09
1.08
1.51
0.99
-0.05
-0.73
-0.56
0.37
1.36
1.63
0.76
-0.93
-2.64
-3.49
-3.12
-1.69
0.07
1.38
1.71
1.20
0.22
-0.52
-0.65
-0.17
0.45
0.61
-0.10
-1.59
-3.21
-4.15
-3.80
-2.25
-0.04
1.87
2.84
2.73
2.04
1.58
1.84
2.84
3.96
4.42
3.65
1.88
-0.10
-1.22
-0.83
0.96
3.19
4.64
4.35
2.41
-0.36
-2.63
-3.49
-2.92
-1.68
-0.84
-1.15
-2.49
-4.10
-5.05
-4.76
-3.37
-1.59
-0.27
0.10
-0.31
-0.84
-0.72
0.38
2.08
3.48
3.54
1.74
-1.60
-5.29
-8.03
-8.72
-7.40
-4.77
-2.10
-0.30
0.44
0.68
1.19
2.40
4.02
5.23
5.22
3.76
1.39
-0.79
-1.83
-1.35
0.14
1.68
2.32
1.71
0.20
-1.37
-2.25
-2.05
-1.02
0.18
0.93
0.98
0.67
0.67
1.50
3.20
5.17
6.49
6.54
5.23
3.17
1.32
0.43
0.67
1.56
2.27
2.08
0.75
-1.31
-3.34
-4.63
-4.93
-4.55
-4.11
-4.16
-4.82
-5.62
-5.86
-5.09
-3.39
-1.43
-0.10
0.16
-0.50
-1.33
-1.56
-0.75
0.69
2.09
2.57
1.90
0.37
-1.15
-1.85
-1.38
-0.06
1.36
1.98
1.42
-0.06
-1.69
-2.62
-2.42
-1.37
-0.14
0.50
0.25
-0.62
-1.35
-1.28
-0.15
1.66
3.44
4.45
4.38
3.44
2.20
1.24
0.94
1.27
1.86
2.34
2.52
2.57
2.81
3.61
4.82
5.99
6.34
5.35
2.95
-0.13
-2.91
-4.33
-4.00
-2.26
-0.12
1.36
1.47
0.26
-1.52
-2.91
-3.19
-2.24
-0.65
0.75
1.23
0.71
-0.34
-1.10
-1.02
0.05
1.54
2.69
2.85
1.94
0.42
-0.91
-1.37
-0.81
0.37
1.39
1.56
0.69
-0.80
-2.21
-2.89
-2.75
-2.32
-2.43
-3.62
-5.72
-7.70
-8.32
-6.74
-3.26
0.84
3.78
4.33
2.41
-0.80
-3.57
-4.52
-3.36
-0.94
1.31
2.24
1.53
-0.18
-1.85
-2.60
-2.30
-1.45
-0.97
-1.38
-2.64
-3.93
-4.41
-3.54
-1.61
0.47
1.71
1.55
0.34
-0.96
-1.22
0.18
2.93
6.01
8.08
8.37
6.82
4.35
2.12
1.07
1.37
2.39
3.22
3.16
2.18
0.90
0.04
0.04
0.74
1.53
1.72
1.02
-0.31
-1.61
-2.24
-1.96
-1.00
-0.11
0.08
-0.74
-2.23
-3.62
-4.06
-3.26
-1.54
0.12
0.82
0.13
-1.48
-3.01
-3.44
-2.43
-0.44
1.46
2.35
1.96
0.78
-0.14
0.06
1.62
3.92
5.90
6.59
5.73
3.81
1.88
0.86
0.97
1.75
2.20
1.53
-0.44
-3.04
-5.15
-5.90
-5.13
-3.50
-2.16
-1.82
-2.52
-3.40
-3.44
-2.02
0.54
3.17
4.67
4.32
2.43
0.05
-1.47
-1.31
0.45
2.84
4.65
4.98
3.75
1.72
-0.02
-0.56
0.27
1.85
3.13
3.28
2.14
0.34
-1.08
-1.38
-0.54
0.79
1.50
0.92
-1.00
-3.41
-5.13
-5.18
-3.34
-0.44
2.34
3.78
3.54
2.10
0.56
-0.03
0.64
2.13
3.37
3.58
2.60
1.15
0.28
0.76
2.41
4.27
5.07
4.05
1.28
-2.17
-5.01
-6.25
-5.91
-4.68
-3.72
-3.63
-4.46
-5.38
-5.51
-4.35
-2.18
0.02
1.24
0.95
-0.38
-1.72
-1.90
-0.58
1.66
3.49
3.72
1.92
-1.10
-3.97
-5.35
-4.78
-2.83
-0.74
0.35
0.10
-1.06
-2.04
-2.07
-0.86
0.95
2.53
3.02
2.33
0.92
-0.44
-1.07
-0.83
-0.11
0.42
0.30
-0.55
-1.69
-2.42
-2.28
-1.21
0.27
1.35
1.40
0.30
-1.46
-3.03
-3.54
-2.74
-1.00
0.88
2.08
2.35
1.87
1.30
1.17
1.76
2.70
3.46
3.33
2.16
0.17
-1.84
-3.07
-3.01
-1.76
-0.08
1.15
1.27
0.30
-1.04
-1.75
-1.22
0.36
2.15
3.03
2.50
0.86
-0.90
-1.83
-1.55
-0.55
0.29
0.17
-0.87
-2.17
-2.80
-2.12
-0.34
1.71
3.04
3.16
2.29
1.20
0.72
1.15
2.22
3.11
3.03
1.68
-0.63
-2.90
-4.16
-3.67
-1.57
1.38
3.88
4.83
3.72
0.92
-2.53
-5.46
-7.00
-7.04
-6.03
-4.68
-3.47
-2.37
-1.11
0.71
3.01
5.46
7.35
8.33
8.27
7.64
6.97
6.70
6.87
7.07
6.84
5.80
3.99
1.84
-0.07
-1.25
-1.79
-2.08
-2.89
-4.51
-6.82
-8.98
-10.13
-9.63
-7.83
-5.58
-3.99
-3.65
-4.38
-5.33
-5.57
-4.73
-3.26
-1.96
-1.63
-2.32
-3.43
-3.93
-3.15
-0.92
2.04
4.80
6.53
6.98
6.59
6.10
6.16
6.88
7.82
8.26
7.41
5.11
1.72
-1.77
-4.28
-5.05
-4.16
-2.45
-0.97
-0.54
-1.10
-1.94
-1.96
-0.64
1.64
3.82
4.64
3.60
1.12
-1.50
-3.15
-3.23
-2.27
-1.17
-0.86
-1.54
-2.80
-3.88
-4.09
-3.36
-2.07
-0.82
-0.15
-0.14
-0.46
-0.47
0.34
2.09
4.33
6.23
6.99
6.27
4.51
2.56
1.44
1.55
2.55
3.58
3.82
3.07
1.77
0.85
0.82
1.65
2.56
2.79
1.81
-0.00
-1.94
-3.16
-3.33
-2.76
-2.21
-2.41
-3.64
-5.53
-7.24
-7.86
-6.99
-4.79
-2.20
-0.20
0.40
-0.35
-1.69
-2.49
-1.92
0.10
2.72
4.70
5.08
3.69
1.30
-0.90
-2.03
-1.83
-1.01
-0.36
-0.61
-1.47
-2.22
-1.77
0.30
3.59
6.87
8.71
8.38
6.01
2.83
0.28
-0.56
0.31
2.00
3.25
3.18
1.82
0.09
-0.96
-0.74
0.58
2.05
2.68
1.97
0.23
-1.70
-2.91
-3.11
-2.59
-2.28
-2.78
-4.37
-6.42
-8.03
-8.35
-7.21
-5.12
-3.14
-2.23
-2.70
-4.10
-5.41
-5.61
-4.27
-1.75
0.94
2.76
2.94
1.54
-0.65
-2.53
-3.16
-2.30
-0.47
1.35
2.31
2.21
1.52
1.07
1.45
2.62
3.95
4.75
4.66
3.97
3.29
3.14
3.51
3.85
3.45
2.02
-0.14
-2.09
-2.97
-2.24
-0.25
2.14
3.72
3.88
2.47
0.20
-1.94
-3.10
-2.93
-1.75
-0.25
0.83
1.13
0.72
0.05
-0.45
-0.61
-0.65
-1.00
-1.89
-3.10
-3.92
-3.60
-1.68
1.46
4.82
7.18
7.73
6.50
4.39
2.58
1.88
2.38
3.33
3.64
2.57
0.17
-2.73
-4.80
-5.15
-3.63
-1.12
1.10
1.95
1.19
-0.44
-1.64
-1.41
0.44
3.04
4.98
4.98
2.85
-0.59
-3.88
-5.80
-6.01
-5.22
-4.55
-4.88
-6.16
-7.57
-7.96
-6.68
-3.95
-0.82
1.46
2.05
1.04
-0.81
-2.22
-2.34
-0.90
1.47
3.79
5.11
5.10
4.09
3.08
2.83
3.74
5.30
6.62
6.67
5.16
2.56
-0.14
-1.92
-2.35
-1.78
-1.10
-1.03
-1.88
-3.11
-3.86
-3.47
-1.92
0.00
1.19
0.90
-0.80
-3.08
-4.82
-5.35
-4.74
-3.78
-3.36
-3.90
-5.03
-5.85
-5.47
-3.60
-0.77
2.01
3.75
4.06
3.27
2.24
1.75
2.19
3.30
4.58
5.33
5.39
4.83
4.21
3.99
4.40
5.21
5.92
6.05
5.35
4.02
2.62
1.73
1.69
2.23
2.72
2.42
1.05
-1.08
-3.06
-4.02
-3.56
-2.07
-0.42
0.42
0.14
-0.95
-2.02
-2.32
-1.63
-0.44
0.50
0.52
-0.40
-1.74
-2.78
-2.98
-2.40
-1.53
-1.17
-1.71
-3.21
-5.06
-6.46
-6.85
-6.02
-4.38
-2.57
-1.15
-0.22
0.39
1.18
2.48
4.16
5.68
6.32
5.55
3.53
1.10
-0.48
-0.31
1.66
4.42
6.37
6.09
3.29
-1.03
-5.02
-6.91
-6.09
-3.34
-0.37
1.30
1.07
-0.42
-1.82
-2.23
-1.51
-0.48
-0.18
-1.13
-2.87
-4.37
-4.54
-3.12
-0.69
1.41
2.13
1.10
-1.03
-2.98
-3.56
-2.31
0.24
3.03
4.94
5.38
4.62
3.43
2.69
2.85
3.80
4.82
5.14
4.20
2.03
-0.79
-3.32
-4.86
-5.15
-4.56
-3.81
-3.41
-3.43
-3.39
-2.67
-0.98
1.36
3.47
4.36
3.56
1.33
-1.37
-3.49
-4.19
-3.59
-2.28
-1.25
-1.14
-2.02
-3.21
-3.77
-2.98
-0.83
1.82
3.82
4.22
2.95
0.80
-0.95
-1.48
-0.67
0.79
1.80
1.69
0.57
-0.64
-0.89
0.43
2.92
5.49
6.82
6.21
3.91
1.01
-1.23
-1.98
-1.40
-0.41
-0.11
-1.17
-3.33
-5.60
-6.87
-6.56
-4.91
-2.81
-1.19
-0.51
-0.39
-0.13
0.95
2.75
4.52
5.31
4.57
2.69
0.75
-0.04
0.88
3.07
5.30
6.27
5.43
3.08
0.36
-1.59
-2.13
-1.52
-0.65
-0.51
-1.68
-3.90
-6.32
-7.73
-7.33
-5.16
-2.12
0.45
1.53
0.82
-0.80
-2.06
-1.81
0.07
2.77
4.97
5.74
4.95
3.36
2.09
1.82
2.49
3.34
3.46
2.48
0.66
-1.09
-1.89
-1.28
0.40
2.24
3.33
3.11
1.81
0.05
-1.21
-1.47
-0.71
0.47
1.31
1.34
0.47
-0.73
-1.63
-1.68
-0.93
0.14
0.76
0.44
-0.79
-2.36
-3.37
-3.22
-1.89
-0.06
1.35
1.68
0.88
-0.41
-1.37
-1.41
-0.59
0.52
1.17
0.83
-0.35
-1.77
-2.65
-2.55
-1.51
-0.23
0.53
0.21
-1.10
-2.74
-3.72
-3.45
-1.99
-0.16
1.01
0.77
-0.72
-2.57
-3.59
-3.05
-1.10
1.30
3.06
3.45
2.67
1.51
0.89
1.18
2.08
2.78
2.60
1.35
-0.44
-1.87
-2.20
-1.31
0.22
1.34
1.17
-0.39
-2.68
-4.56
-5.06
-3.89
-1.70
0.41
1.50
1.31
0.39
-0.28
0.05
1.46
3.16
4.05
3.43
1.44
-0.90
-2.26
-1.75
0.42
3.17
5.02
5.01
3.18
0.50
-1.66
-2.33
-1.36
0.48
2.18
2.91
2.56
1.63
0.93
0.94
1.65
2.44
2.54
1.61
-0.13
-1.80
-2.59
-1.97
-0.33
1.47
2.31
1.67
-0.24
-2.47
-4.04
-4.20
-3.04
-1.27
0.16
0.51
-0.28
-1.72
-2.91
-3.20
-2.45
-1.28
-0.63
-1.21
-2.99
-5.14
-6.52
-6.28
-4.44
-1.84
0.28
1.10
0.63
-0.30
-0.68
0.10
1.76
3.53
4.39
3.99
2.56
0.93
-0.05
-0.01
0.76
1.55
1.54
0.48
-1.20
-2.65
-2.96
-1.86
0.12
1.95
2.72
2.06
0.50
-0.89
-1.16
-0.03
1.90
3.54
3.92
2.88
0.99
-0.69
-1.34
-0.91
-0.01
0.47
-0.05
-1.41
-2.91
-3.79
-3.61
-2.67
-1.58
-1.04
-1.27
-2.03
-2.61
-2.40
-1.02
1.35
4.11
6.32
7.27
6.62
4.78
2.55
0.95
0.42
0.89
1.69
1.99
1.41
0.16
-1.11
-1.72
-1.46
-0.59
0.10
0.07
-0.87
-2.23
-3.23
-3.01
-1.39
1.30
3.98
5.68
5.78
4.46
2.52
1.00
0.45
0.83
1.35
1.24
0.10
-1.70
-3.34
-3.91
-3.18
-1.58
-0.08
0.38
-0.59
-2.51
-4.29
-4.91
-3.88
-1.60
0.84
2.33
2.33
1.18
-0.17
-0.74
-0.13
1.28
2.58
2.90
2.09
0.66
-0.42
-0.49
0.43
1.65
2.21
1.47
-0.47
-2.80
-4.45
-4.65
-3.34
-1.33
0.31
0.71
-0.20
-1.80
-2.99
-3.11
-2.10
-0.70
0.11
-0.38
-2.04
-4.09
-5.38
-5.17
-3.42
-0.94
1.20
2.07
1.51
0.01
-1.40
-1.93
-1.18
0.58
2.57
4.00
4.51
4.32
4.14
4.51
5.67
7.02
7.80
7.24
5.37
2.84
0.73
-0.19
0.13
1.02
1.48
0.88
-0.82
-2.81
-4.18
-4.22
-3.06
-1.39
-0.27
-0.37
-1.72
-3.59
-4.82
-4.59
-2.92
-0.64
0.94
0.82
-0.97
-3.45
-5.09
-4.93
-2.94
-0.32
1.48
1.40
-0.50
-3.11
-4.96
-5.01
-3.21
-0.51
1.71
2.55
1.87
0.60
-0.07
0.74
2.93
5.58
7.32
7.25
5.42
2.82
0.84
0.50
1.71
3.51
4.56
4.03
2.04
-0.34
-1.91
-1.99
-0.83
0.56
1.08
0.28
-1.49
-3.21
-3.95
-3.36
-1.94
-0.53
0.10
-0.12
-0.64
-0.58
0.55
2.67
4.82
5.96
5.24
2.80
-0.48
-3.22
-4.30
-3.42
-1.26
0.86
1.67
0.57
-2.00
-4.87
-6.75
-6.97
-5.84
-4.36
-3.59
-3.92
-4.87
-5.46
-4.83
-2.85
-0.21
1.94
2.79
2.29
1.21
0.53
0.94
2.39
4.16
5.29
5.12
3.64
1.56
-0.19
-0.73
0.19
2.02
3.73
4.38
3.58
1.86
0.25
-0.16
0.92
2.91
4.52
4.67
3.07
0.48
-1.80
-2.72
-2.07
-0.62
0.47
0.31
-1.10
-2.89
-3.91
-3.35
-1.32
1.24
2.92
2.81
0.79
-2.02
-4.14
-4.37
-2.51
0.36
2.67
3.12
1.59
-0.82
-2.49
-2.14
0.20
3.48
5.98
6.65
5.38
3.26
1.65
1.47
2.59
3.96
4.32
2.92
0.01
-3.30
-5.61
-6.12
-5.03
-3.31
-2.28
-2.56
-3.97
-5.38
-5.74
-4.41
-1.83
1.02
3.03
3.67
3.21
2.41
2.05
2.44
3.27
3.85
3.56
2.20
0.11
-1.96
-3.35
-3.67
-3.14
-2.37
-2.07
-2.56
-3.67
-4.72
-4.86
-3.68
-1.39
1.21
3.12
3.74
3.06
1.74
0.57
0.08
0.22
0.51
0.34
-0.63
-2.08
-3.41
-3.88
-3.20
-1.52
0.41
1.81
2.06
1.11
-0.52
-2.04
-2.74
-2.32
-1.14
0.12
0.85
0.92
0.71
0.91
1.94
3.74
5.68
7.02
7.32
6.76
5.95
5.54
5.73
6.08
5.93
4.71
2.39
-0.37
-2.63
-3.58
-3.12
-1.65
-0.18
0.44
-0.16
-1.73
-3.44
-4.50
-4.51
-3.66
-2.59
-1.93
-2.03
-2.62
-3.18
-3.19
-2.50
-1.44
-0.56
-0.39
-1.01
-2.12
-2.90
-2.78
-1.38
0.79
2.94
4.04
3.65
1.93
-0.19
-1.64
-1.91
-1.24
-0.55
-0.84
-2.37
-4.61
-6.35
-6.60
-5.04
-2.53
-0.31
0.57
-0.15
-1.73
-2.99
-2.94
-1.44
0.94
2.97
3.69
2.77
0.70
-1.44
-2.59
-2.30
-0.99
0.31
0.56
-0.50
-2.22
-3.27
-2.58
0.07
3.72
6.89
8.34
7.83
6.11
4.37
3.41
3.25
3.28
2.75
1.41
-0.37
-1.79
-2.13
-1.25
0.36
1.84
2.43
1.80
0.36
-1.03
-1.48
-0.51
1.63
4.05
5.64
5.74
4.35
2.18
0.29
-0.60
-0.38
0.36
0.80
0.36
-0.91
-2.37
-3.13
-2.60
-0.98
0.95
2.03
1.48
-0.74
-3.74
-6.25
-7.15
-6.13
-3.74
-1.16
0.52
0.86
0.29
-0.25
0.05
1.42
3.25
4.50
4.35
2.75
0.42
-1.52
-2.20
-1.58
-0.31
0.56
0.39
-0.65
-1.72
-1.83
-0.44
1.96
4.29
5.22
4.25
1.71
-1.09
-2.91
-3.00
-1.76
-0.25
0.30
-0.66
-2.86
-5.34
-7.07
-7.46
-6.72
-5.46
-4.45
-4.03
-4.05
-3.99
-3.44
-2.24
-0.88
0.12
0.24
-0.43
-1.47
-2.04
-1.66
-0.19
1.69
3.16
3.38
2.28
0.44
-1.05
-1.31
-0.02
2.27
4.49
5.51
4.93
3.13
1.14
0.06
0.54
2.28
4.39
5.72
5.61
4.13
2.09
0.48
-0.06
0.46
1.33
1.73
1.13
-0.41
-2.15
-3.19
-2.82
-1.12
1.21
3.16
3.91
3.33
2.15
1.29
1.56
2.92
4.72
5.79
5.38
3.48
0.92
-1.21
-2.07
-1.65
-0.68
-0.09
-0.53
-1.83
-3.36
-4.21
-4.10
-3.25
-2.49
-2.65
-3.89
-5.77
-7.34
-7.80
-7.02
-5.57
-4.48
-4.38
-5.31
-6.54
-7.09
-6.30
-4.23
-1.72
0.31
1.20
1.01
0.28
-0.14
0.24
1.45
3.07
4.41
5.03
4.76
3.88
2.87
2.20
1.99
2.09
2.12
1.77
1.12
0.61
0.82
2.09
4.09
6.06
6.97
6.39
4.53
2.41
0.95
0.74
1.42
2.12
1.93
0.54
-1.52
-3.27
-3.72
-2.49
-0.02
2.63
4.28
4.28
2.78
0.65
-0.97
-1.19
0.03
1.99
3.50
3.70
2.38
0.23
-1.69
-2.52
-2.17
-1.26
-0.80
-1.44
-3.10
-4.94
-5.98
-5.62
-4.12
-2.36
-1.46
-1.94
-3.49
-5.02
-5.40
-3.99
-1.14
2.06
4.33
4.90
3.95
2.44
1.40
1.47
2.46
3.49
3.59
2.27
-0.29
-3.24
-5.55
-6.57
-6.25
-5.16
-4.11
-3.71
-3.97
-4.41
-4.19
-2.90
-0.57
2.07
4.15
4.85
4.10
2.39
0.74
-0.12
0.23
1.42
2.80
3.49
3.08
1.68
-0.12
-1.57
-2.01
-1.42
-0.15
1.15
2.06
2.49
2.81
3.29
3.90
4.20
3.67
2.06
-0.18
-2.13
-2.68
-1.47
1.13
3.78
5.16
4.41
1.88
-1.32
-3.60
-4.10
-2.77
-0.69
0.95
1.15
-0.04
-1.95
-3.44
-3.82
-3.04
-1.81
-0.93
-1.07
-2.08
-3.43
-4.30
-4.12
-2.90
-1.18
0.19
0.59
-0.08
-1.32
-2.28
-2.36
-1.46
-0.17
0.82
1.00
0.58
0.17
0.47
1.72
3.47
4.80
4.89
3.59
1.50
-0.25
-0.66
0.60
3.00
5.40
6.77
6.54
5.05
3.10
1.62
1.00
1.02
0.96
0.30
-0.93
-2.09
-2.21
-0.85
1.67
4.14
5.18
3.93
0.52
-3.81
-7.52
-9.41
-9.08
-7.16
-4.72
-2.88
-2.12
-2.41
-3.02
-3.28
-2.72
-1.41
0.12
1.31
1.76
1.75
1.78
2.58
4.38
6.90
9.16
10.23
9.60
7.46
4.77
2.57
1.59
1.69
2.18
2.16
1.13
-0.49
-1.99
-2.59
-2.24
-1.61
-1.77
-3.36
-6.15
-9.07
-10.70
-10.26
-7.88
-4.67
-2.11
-1.20
-2.01
-3.59
-4.65
-4.13
-1.89
1.37
4.42
6.24
6.59
5.96
5.36
5.57
6.75
8.21
9.10
8.67
6.89
4.49
2.41
1.38
1.30
1.62
1.37
0.12
-1.89
-3.79
-4.53
-3.67
-1.54
0.69
1.96
1.65
0.12
-1.76
-2.99
-3.22
-2.73
-2.35
-2.85
-4.46
-6.72
-8.70
-9.51
-8.75
-6.74
-4.38
-2.55
-1.86
-2.20
-2.92
-3.16
-2.52
-1.19
0.16
0.73
0.11
-1.44
-3.15
-4.16
-4.03
-2.83
-1.37
-0.50
-0.80
-2.07
-3.61
-4.24
-3.34
-0.90
2.24
4.85
6.01
5.48
4.00
2.60
2.26
3.10
4.52
5.64
5.80
5.03
3.88
3.23
3.40
4.31
5.12
5.15
3.95
1.79
-0.71
-2.66
-3.58
-3.48
-2.82
-2.28
-2.37
-3.09
-3.94
-4.11
-3.05
-0.77
1.95
4.09
4.80
4.08
2.77
2.01
2.60
4.40
6.37
7.33
6.54
4.33
1.77
0.09
-0.12
0.83
1.95
2.29
1.50
0.05
-1.16
-1.32
-0.28
1.27
2.37
2.12
0.31
-2.45
-5.05
-6.49
-6.37
-5.09
-3.66
-2.97
-3.52
-4.99
-6.58
-7.44
-7.09
-5.63
-3.70
-2.05
-1.26
-1.40
-1.93
-2.30
-1.93
-0.80
0.82
2.29
3.30
3.84
4.29
5.12
6.57
8.17
9.28
9.14
7.59
5.14
2.85
1.63
1.76
2.72
3.32
2.64
0.43
-2.56
-5.02
-5.72
-4.22
-1.20
2.04
4.03
3.99
2.13
-0.45
-2.56
-3.30
-2.75
-1.52
-0.53
-0.37
-0.88
-1.55
-1.65
-0.95
0.15
0.86
0.42
-1.20
-3.42
-5.00
-4.96
-3.10
0.01
3.01
4.67
4.31
2.33
-0.19
-2.03
-2.41
-1.54
-0.25
0.45
0.05
-1.17
-2.23
-2.36
-1.23
0.60
2.16
2.55
1.47
-0.55
-2.71
-4.15
-4.60
-4.23
-3.52
-2.95
-2.61
-2.37
-1.92
-1.08
0.03
1.01
1.40
0.86
-0.52
-2.25
-3.52
-3.80
-2.99
-1.76
-1.08
-1.68
-3.63
-6.08
-7.75
-7.61
-5.46
-2.01
1.52
4.06
5.19
5.31
5.12
5.33
5.99
6.92
7.64
7.87
7.64
7.31
7.27
7.68
8.49
9.19
9.37
8.61
7.12
5.28
3.84
3.33
3.80
4.79
5.34
4.72
2.43
-1.10
-4.99
-8.04
-9.50
-9.30
-8.04
-6.66
-5.67
-5.12
-4.55
-3.50
-2.11
-0.99
-1.01
-2.47
-4.98
-7.35
-8.33
-7.47
-5.02
-2.05
0.43
1.80
2.15
1.95
1.59
1.27
0.83
0.12
-1.07
-2.61
-4.21
-5.48
-5.85
-5.11
-3.28
-0.97
1.16
2.35
2.43
1.72
0.98
0.85
1.42
2.23
2.37
1.31
-0.91
-3.28
-4.45
-3.36
0.09
4.86
9.31
11.91
12.02
10.22
7.80
6.10
5.68
6.26
6.86
6.66
5.35
3.32
1.34
-0.07
-0.74
-1.10
-1.54
-2.42
-3.46
-4.17
-3.85
-2.35
-0.07
2.08
3.04
2.24
-0.13
-3.13
-5.63
-6.72
-6.41
-5.40
-4.66
-4.90
-6.01
-7.30
-7.75
-6.81
-4.59
-1.95
0.16
1.18
1.22
0.94
1.14
2.09
3.47
4.39
4.10
2.35
-0.27
-2.66
-3.67
-2.85
-0.55
2.04
3.65
3.32
1.19
-1.85
-4.53
-5.73
-5.19
-3.46
-1.59
-0.40
-0.16
-0.51
-0.82
-0.81
-0.62
-0.80
-1.75
-3.37
-4.89
-5.40
-4.26
-1.69
1.48
4.01
5.11
4.58
2.98
1.24
0.10
-0.14
0.35
0.99
1.35
1.00
0.06
-1.22
-2.35
-2.99
-2.99
-2.53
-1.93
-1.47
-1.15
-0.79
-0.07
1.16
2.58
3.77
4.14
3.65
2.54
1.47
0.98
1.27
2.08
2.75
2.73
1.70
-0.06
-1.92
-3.13
-3.30
-2.53
-1.42
-0.67
-0.84
-1.80
-3.03
-3.67
-3.20
-1.57
0.51
2.18
2.70
2.08
0.98
0.27
0.54
1.72
3.19
4.00
3.75
2.56
1.23
0.57
0.95
2.08
3.10
3.29
2.34
0.65
-1.00
-1.85
-1.66
-0.72
0.33
0.89
0.69
-0.08
-0.96
-1.54
-1.69
-1.46
-1.18
-0.99
-0.89
-0.71
-0.26
0.50
1.40
1.99
1.99
1.13
-0.30
-1.84
-2.84
-2.81
-1.77
-0.16
1.23
1.82
1.44
0.46
-0.43
-0.70
-0.29
0.41
0.75
0.41
-0.48
-1.40
-1.62
-0.85
0.73
2.47
3.61
3.67
2.64
1.07
-0.33
-0.85
-0.23
1.29
3.10
4.43
4.83
4.29
3.27
2.34
1.98
2.08
2.18
1.66
0.33
-1.52
-3.13
-3.79
-3.25
-1.87
-0.48
0.26
0.12
-0.53
-1.10
-1.16
-0.83
-0.62
-0.95
-1.94
-3.15
-3.95
-3.87
-2.92
-1.68
-0.85
-0.97
-2.06
-3.71
-5.13
-5.72
-5.24
-3.95
-2.37
-1.06
-0.35
-0.09
0.12
0.73
1.85
3.22
4.24
4.33
3.36
1.75
0.34
-0.17
0.52
1.97
3.29
3.66
2.77
1.03
-0.77
-1.74
-1.53
-0.35
1.07
2.09
2.32
1.82
1.03
0.35
0.08
0.21
0.60
0.95
1.11
1.07
1.01
1.13
1.65
2.49
3.37
3.85
3.50
2.24
0.43
-1.29
-2.19
-1.96
-0.82
0.52
1.37
1.36
0.72
0.09
0.12
1.00
2.37
3.54
3.91
3.36
2.26
1.16
0.52
0.26
0.11
-0.42
-1.53
-2.97
-4.22
-4.80
-4.47
-3.44
-2.24
-1.40
-1.22
-1.61
-2.18
-2.59
-2.62
-2.38
-2.19
-2.44
-3.13
-3.95
-4.32
-3.82
-2.33
-0.44
1.08
1.39
0.41
-1.33
-2.64
-2.57
-0.64
2.45
5.49
7.10
6.64
4.39
1.47
-0.90
-2.03
-1.91
-1.23
-0.67
-0.61
-0.87
-0.97
-0.53
0.50
1.64
2.37
2.15
1.07
-0.51
-1.85
-2.38
-2.01
-1.06
-0.18
0.02
-0.69
-1.99
-3.17
-3.56
-2.81
-1.23
0.50
1.56
1.62
0.78
-0.20
-0.67
-0.19
1.02
2.24
2.70
2.02
0.63
-0.55
-0.55
0.91
3.26
5.32
5.99
4.96
2.78
0.61
-0.56
-0.51
0.21
0.59
0.04
-1.59
-3.58
-5.22
-5.82
-5.41
-4.33
-3.20
-2.49
-2.39
-2.65
-2.79
-2.44
-1.42
-0.04
1.12
1.63
1.20
0.29
-0.44
-0.21
1.13
3.28
5.22
6.19
5.83
4.58
3.27
2.69
2.99
3.76
4.16
3.62
2.10
0.22
-1.23
-1.76
-1.47
-1.08
-1.32
-2.58
-4.61
-6.55
-7.50
-7.02
-5.37
-3.30
-1.76
-1.16
-1.35
-1.68
-1.53
-0.74
0.15
0.47
-0.35
-2.06
-3.88
-4.70
-3.81
-1.28
2.16
5.48
7.77
8.61
8.05
6.53
4.61
2.83
1.58
0.99
0.97
1.33
1.73
1.99
2.12
2.10
1.96
1.57
0.80
-0.41
-1.82
-3.01
-3.53
-3.13
-2.04
-0.72
0.29
0.65
0.33
-0.41
-1.08
-1.35
-0.96
0.02
1.31
2.51
3.26
3.44
3.16
2.71
2.27
1.85
1.21
0.17
-1.21
-2.63
-3.54
-3.68
-3.13
-2.54
-2.43
-3.17
-4.38
-5.40
-5.53
-4.60
-2.93
-1.19
0.10
0.67
0.78
0.86
1.33
2.20
3.34
4.23
4.54
3.99
2.82
1.38
0.21
-0.33
-0.32
-0.15
-0.41
-1.35
-2.75
-3.88
-4.06
-2.92
-0.87
1.25
2.60
2.74
2.00
1.06
0.70
1.12
2.11
2.98
3.29
2.88
2.02
1.23
0.95
1.20
1.66
1.82
1.41
0.41
-0.63
-1.07
-0.52
0.94
2.64
3.72
3.49
1.88
-0.56
-2.85
-4.21
-4.29
-3.52
-2.60
-2.30
-2.85
-3.98
-5.05
-5.50
-5.14
-4.26
-3.43
-3.15
-3.48
-4.03
-4.11
-3.25
-1.48
0.62
2.16
2.55
1.62
-0.08
-1.78
-2.67
-2.52
-1.43
-0.07
1.02
1.46
1.33
0.99
0.86
1.12
1.65
2.12
2.11
1.62
0.94
0.69
1.32
2.92
4.89
6.25
6.21
4.50
1.72
-0.92
-2.33
-2.02
-0.40
1.43
2.42
2.07
0.74
-0.69
-1.35
-1.10
-0.31
0.09
-0.41
-1.87
-3.61
-4.80
-4.80
-3.62
-1.81
-0.10
0.87
0.99
0.49
-0.07
-0.30
-0.05
0.55
1.10
1.26
0.79
-0.18
-1.31
-2.07
-2.16
-1.58
-0.75
-0.22
-0.36
-1.11
-1.99
-2.43
-2.05
-0.94
0.32
1.19
1.31
0.86
0.40
0.45
1.36
2.88
4.58
5.94
6.74
6.98
6.98
6.89
6.83
6.53
5.69
4.21
2.34
0.66
-0.25
-0.07
0.84
1.91
2.31
1.80
0.56
-0.76
-1.52
-1.56
-1.11
-0.80
-1.06
-2.02
-3.23
-4.24
-4.66
-4.50
-4.08
-3.81
-3.91
-4.39
-4.94
-5.13
-4.58
-3.24
-1.21
1.04
2.97
4.07
4.10
3.13
1.55
-0.01
-1.07
-1.29
-0.81
0.05
0.75
1.03
0.83
0.42
0.09
0.00
0.01
-0.21
-0.79
-1.58
-2.12
-1.93
-0.96
0.35
1.25
1.06
-0.29
-2.11
-3.44
-3.34
-1.56
1.36
4.39
6.51
7.13
6.37
4.92
3.56
2.82
2.70
2.79
2.62
1.92
0.91
0.02
-0.37
-0.37
-0.38
-1.06
-2.69
-4.94
-7.04
-8.14
-7.68
-5.96
-3.69
-1.78
-0.73
-0.64
-0.99
-1.31
-1.25
-0.90
-0.63
-0.81
-1.57
-2.73
-3.81
-4.25
-3.79
-2.52
-0.98
0.23
0.73
0.56
0.23
0.36
1.18
2.47
3.61
3.95
3.23
1.83
0.44
-0.29
-0.16
0.55
1.20
1.36
0.92
0.22
-0.32
-0.34
0.12
0.81
1.31
1.33
0.84
0.11
-0.51
-0.65
-0.19
0.70
1.54
1.87
1.44
0.30
-1.07
-2.17
-2.68
-2.55
-2.16
-1.84
-1.88
-2.12
-2.43
-2.49
-2.32
-2.00
-1.82
-1.73
-1.62
-1.12
-0.07
1.50
3.19
4.42
4.71
3.86
2.03
-0.27
-2.32
-3.47
-3.41
-2.25
-0.56
0.89
1.53
1.19
0.27
-0.57
-0.68
0.15
1.56
2.90
3.56
3.39
2.71
2.03
1.79
1.97
2.27
2.32
2.05
1.62
1.51
2.03
3.19
4.52
5.36
5.12
3.77
1.71
-0.23
-1.38
-1.40
-0.70
0.12
0.23
-0.56
-2.04
-3.45
-4.22
-4.02
-3.20
-2.30
-1.89
-2.07
-2.63
-2.95
-2.69
-1.65
-0.31
0.84
1.16
0.54
-0.73
-1.92
-2.25
-1.50
0.17
1.89
2.85
2.64
1.59
0.50
0.26
1.20
2.84
4.21
4.37
3.13
1.08
-0.71
-1.32
-0.48
1.26
2.92
3.66
3.22
1.95
0.62
-0.25
-0.45
-0.45
-0.71
-1.60
-2.86
-3.88
-4.05
-3.13
-1.56
-0.14
0.33
-0.51
-2.31
-4.24
-5.57
-5.90
-5.46
-4.78
-4.43
-4.54
-4.89
-4.88
-4.18
-2.77
-1.09
0.40
1.27
1.61
1.71
1.93
2.42
2.94
3.19
2.87
2.13
1.26
0.78
0.93
1.89
3.33
4.84
5.83
5.91
4.88
2.93
0.63
-1.35
-2.47
-2.64
-2.15
-1.47
-0.93
-0.64
-0.38
-0.01
0.43
0.72
0.54
-0.18
-1.24
-2.14
-2.32
-1.40
0.61
3.21
5.57
6.86
6.59
4.84
2.24
-0.20
-1.58
-1.59
-0.54
0.83
1.85
2.14
1.93
1.55
1.38
1.39
1.34
0.85
-0.23
-1.75
-3.14
-3.83
-3.47
-2.15
-0.52
0.66
0.83
-0.06
-1.58
-3.01
-3.65
-3.33
-2.22
-1.06
-0.43
-0.70
-1.70
-2.92
-3.80
-4.10
-3.97
-3.76
-3.78
-3.99
-4.04
-3.56
-2.46
-1.11
-0.13
-0.02
-0.78
-1.94
-2.63
-2.24
-0.69
1.53
3.63
4.86
4.97
4.21
3.31
2.99
3.71
5.24
6.94
7.91
7.56
5.96
3.76
1.96
1.12
1.35
2.00
2.42
2.07
1.15
0.18
-0.19
0.21
1.13
1.78
1.65
0.52
-1.16
-2.73
-3.59
-3.59
-3.00
-2.34
-2.11
-2.35
-2.90
-3.30
-3.25
-2.57
-1.45
-0.25
0.64
0.93
0.65
0.05
-0.36
-0.35
0.11
0.48
0.36
-0.69
-2.42
-4.20
-5.20
-4.96
-3.54
-1.72
-0.27
0.19
-0.16
-0.69
-0.70
0.18
1.64
2.98
3.42
2.67
1.09
-0.47
-1.18
-0.60
0.83
2.23
2.66
1.77
0.01
-1.57
-2.06
-1.11
0.73
2.32
2.78
1.85
0.16
-1.16
-1.25
0.04
2.10
3.90
4.56
3.79
1.92
-0.23
-1.85
-2.43
-2.10
-1.37
-0.92
-1.18
-2.04
-2.96
-3.27
-2.55
-1.06
0.46
1.19
0.82
-0.31
-1.21
-0.96
0.75
3.39
5.78
6.83
6.06
3.95
1.63
0.27
0.35
1.48
2.64
2.78
1.50
-0.68
-2.78
-3.81
-3.43
-2.07
-0.76
-0.30
-0.98
-2.28
-3.28
-3.25
-2.07
-0.41
0.76
0.65
-0.70
-2.55
-3.84
-3.74
-2.24
0.04
2.04
3.13
3.06
2.34
1.58
1.46
2.05
3.19
4.24
4.77
4.48
3.53
2.26
1.11
0.08
-0.95
-2.44
-4.48
-6.84
-8.67
-9.14
-7.76
-4.90
-1.61
0.84
1.66
0.83
-0.80
-2.14
-2.45
-1.72
-0.52
0.29
0.20
-0.71
-1.79
-2.27
-1.66
-0.13
1.64
2.74
2.61
1.34
-0.38
-1.62
-1.61
-0.38
1.56
3.13
3.67
2.90
1.54
0.52
0.81
2.47
4.87
6.75
7.05
5.47
2.58
-0.37
-2.38
-2.98
-2.62
-2.19
-2.55
-3.86
-5.62
-6.87
-6.95
-5.72
-3.87
-2.30
-1.71
-2.10
-2.75
-2.66
-1.18
1.46
4.27
5.97
5.86
4.11
1.75
0.05
-0.29
0.50
1.51
1.76
0.77
-1.08
-2.94
-3.88
-3.55
-2.17
-0.55
0.60
0.86
0.45
-0.05
0.07
1.10
2.88
4.65
5.64
5.32
3.87
1.90
0.33
-0.32
-0.03
0.52
0.52
-0.48
-2.30
-4.19
-5.21
-4.85
-3.27
-1.16
0.54
1.37
1.37
1.19
1.41
2.44
3.93
5.22
5.57
4.66
2.75
0.65
-0.71
-0.78
0.43
2.19
3.69
4.16
3.64
2.59
1.98
2.35
3.74
5.33
6.05
5.11
2.49
-0.86
-3.66
-4.80
-4.13
-2.27
-0.53
0.19
-0.45
-1.74
-2.73
-2.54
-1.20
0.54
1.52
1.02
-1.01
-3.69
-5.87
-6.72
-6.22
-5.10
-4.35
-4.74
-6.18
-7.99
-9.12
-8.87
-7.24
-4.88
-2.74
-1.50
-1.18
-1.23
-0.81
0.70
3.23
6.07
8.21
8.92
8.08
6.40
4.82
4.20
4.58
5.42
5.73
4.93
3.06
0.96
-0.36
-0.28
1.03
2.70
3.63
3.04
1.02
-1.69
-3.98
-5.03
-4.69
-3.49
-2.30
-1.82
-2.14
-2.82
-3.10
-2.51
-1.10
0.44
1.44
1.46
0.77
0.11
0.25
1.36
2.98
4.21
4.20
2.77
0.50
-1.57
-2.49
-1.82
-0.05
1.85
2.95
2.67
1.34
-0.39
-1.69
-2.35
-2.42
-2.53
-3.07
-4.00
-4.82
-4.85
-3.72
-1.58
0.98
3.12
4.29
4.33
3.57
2.49
1.61
1.13
0.99
0.80
0.20
-1.11
-3.00
-5.04
-6.66
-7.27
-6.78
-5.49
-4.07
-3.23
-3.17
-3.57
-3.53
-2.52
-0.34
2.20
3.99
4.07
2.36
-0.31
-2.57
-3.42
-2.65
-0.96
0.56
1.20
0.97
0.62
0.90
2.13
3.85
5.30
5.76
5.16
4.00
3.16
3.24
4.20
5.41
5.94
5.15
2.93
0.03
-2.64
-4.04
-3.91
-2.64
-1.24
-0.68
-1.48
-3.35
-5.44
-6.77
-6.84
-5.74
-4.21
-2.95
-2.39
-2.36
-2.34
-1.72
-0.36
1.33
2.66
2.94
2.12
0.65
-0.51
-0.59
0.60
2.44
4.08
4.73
4.34
3.57
3.29
4.05
5.65
7.32
8.10
7.53
5.83
3.70
1.91
0.81
0.32
0.00
-0.55
-1.43
-2.53
-3.43
-3.93
-3.93
-3.72
-3.60
-3.91
-4.54
-5.16
-5.21
-4.39
-2.77
-0.91
0.30
0.32
-1.05
-3.19
-5.28
-6.30
-5.94
-4.30
-2.09
-0.26
0.60
0.23
-0.89
-2.07
-2.47
-1.69
0.17
2.45
4.37
5.44
5.68
5.67
6.01
7.03
8.33
9.09
8.55
6.52
3.72
1.30
0.24
0.70
1.94
2.79
2.38
0.84
-1.01
-1.99
-1.65
-0.22
1.19
1.48
0.14
-2.50
-5.30
-7.10
-7.09
-5.37
-2.70
-0.15
1.27
1.21
-0.11
-1.82
-3.18
-3.67
-3.49
-3.22
-3.49
-4.46
-5.74
-6.59
-6.40
-5.17
-3.37
-1.83
-1.23
-1.65
-2.55
-3.04
-2.43
-0.54
2.04
4.41
5.67
5.56
4.45
3.19
2.56
2.90
3.87
4.76
5.00
4.43
3.51
2.92
3.05
3.67
4.15
3.63
1.83
-0.89
-3.60
-5.28
-5.26
-3.66
-1.27
0.83
1.70
1.03
-0.76
-2.66
-3.54
-2.84
-0.65
2.15
4.52
5.73
5.80
5.38
5.21
5.65
6.35
6.48
5.41
3.20
0.76
-0.66
-0.20
2.00
4.78
6.50
6.01
3.27
-0.64
-3.99
-5.55
-5.01
-3.33
-1.83
-1.55
-2.52
-3.85
-4.38
-3.30
-0.87
2.06
4.26
5.13
4.75
3.85
3.27
3.39
3.99
4.34
3.72
1.79
-1.00
-3.72
-5.31
-5.18
-3.63
-1.73
-0.80
-1.54
-3.71
-6.11
-7.34
-6.61
-4.25
-1.61
-0.22
-0.88
-3.27
-6.04
-7.72
-7.45
-5.59
-3.22
-1.67
-1.46
-2.28
-3.05
-2.77
-1.08
1.41
3.53
4.07
2.65
-0.17
-3.09
-4.77
-4.59
-2.92
-0.88
0.31
0.12
-1.12
-2.27
-2.30
-0.76
1.75
4.12
5.14
4.49
2.73
1.03
0.47
1.33
2.98
4.23
4.10
2.38
-0.25
-2.53
-3.51
-2.84
-1.23
0.19
0.42
-0.81
-2.84
-4.56
-4.88
-3.54
-1.13
0.99
1.81
0.94
-0.91
-2.47
-2.61
-1.06
1.38
3.40
3.84
2.52
0.29
-1.45
-1.50
0.27
3.04
5.35
6.25
5.55
4.21
3.47
4.17
6.22
8.56
9.85
9.17
6.64
3.30
0.51
-0.79
-0.50
0.61
1.38
0.98
-0.66
-2.84
-4.57
-5.02
-4.10
-2.45
-1.15
-1.01
-2.25
-4.17
-5.65
-5.67
-4.03
-1.39
0.84
1.60
0.48
-1.79
-3.85
-4.55
-3.52
-1.56
0.11
0.34
-0.92
-2.87
-4.07
-3.57
-1.33
1.60
3.80
4.25
2.93
0.84
-0.59
-0.45
1.19
3.25
4.29
3.36
0.62
-2.78
-5.33
-5.90
-4.61
-2.43
-0.99
-1.28
-3.48
-6.47
-8.68
-8.85
-6.68
-3.12
0.29
2.09
1.85
0.16
-1.54
-1.99
-0.69
1.86
4.28
5.42
4.71
2.76
0.90
0.31
1.41
3.41
4.98
4.81
2.77
-0.28
-2.69
-3.23
-1.75
0.77
2.75
3.17
1.94
0.22
-0.65
0.19
2.42
4.93
6.22
5.50
3.02
-0.17
-2.63
-3.41
-2.52
-0.67
0.95
1.59
1.13
0.27
-0.08
0.64
2.24
3.76
4.27
3.15
0.88
-1.52
-2.74
-2.24
-0.31
1.81
2.88
2.26
0.19
-2.14
-3.38
-2.74
-0.44
2.57
4.96
5.82
5.16
3.69
2.49
2.24
2.97
4.01
4.54
4.01
2.51
0.68
-0.61
-0.91
-0.22
0.84
1.54
1.29
0.03
-1.79
-3.53
-4.59
-4.87
-4.62
-4.42
-4.62
-5.17
-5.60
-5.33
-4.12
-2.35
-0.86
-0.39
-1.26
-2.93
-4.42
-4.76
-3.61
-1.44
0.69
1.79
1.44
0.04
-1.45
-1.98
-1.17
0.64
2.57
3.70
3.60
2.53
1.20
0.35
0.32
0.84
1.40
1.45
0.86
-0.11
-0.84
-0.88
-0.04
1.37
2.73
3.40
3.10
2.08
0.95
0.46
0.86
1.81
2.49
2.00
-0.02
-3.19
-6.46
-8.70
-9.24
-8.18
-6.25
-4.32
-3.01
-2.17
-1.32
0.23
2.57
5.35
7.57
8.42
7.58
5.56
3.48
2.38
2.76
4.19
5.69
6.18
5.25
3.27
1.21
0.03
0.05
0.83
1.47
1.17
-0.28
-2.36
-4.20
-5.04
-4.68
-3.58
-2.63
-2.58
-3.76
-5.70
-7.50
-8.13
-7.17
-4.89
-2.35
-0.69
-0.64
-1.98
-3.74
-4.71
-4.18
-2.48
-0.63
0.09
-0.76
-2.76
-4.62
-5.21
-4.06
-1.84
0.28
1.20
0.66
-0.58
-1.30
-0.50
1.91
5.06
7.59
8.45
7.51
5.64
4.13
4.05
5.56
7.91
9.80
10.12
8.72
6.30
4.20
3.41
4.22
5.73
6.70
5.95
3.38
-0.13
-3.02
-4.15
-3.16
-0.97
1.04
1.69
0.83
-0.83
-2.06
-2.11
-1.09
0.06
0.21
-1.27
-3.99
-6.75
-8.22
-7.72
-5.75
-3.56
-2.58
-3.47
-5.65
-7.78
-8.36
-6.82
-3.64
-0.27
1.85
1.91
0.23
-1.97
-3.29
-2.94
-1.05
1.34
3.02
3.10
1.59
-0.74
-2.73
-3.48
-2.73
-1.05
0.59
1.27
0.70
-0.66
-1.84
-1.92
-0.58
1.72
3.88
4.72
3.81
1.55
-0.73
-1.74
-0.79
1.63
4.25
5.65
5.11
3.11
0.84
-0.34
0.10
1.75
3.46
4.20
3.64
2.44
1.63
1.93
3.17
4.24
3.92
1.41
-2.80
-7.37
-10.52
-11.18
-9.31
-5.98
-2.63
-0.41
0.53
0.79
1.38
2.85
5.04
7.09
8.01
7.34
5.38
3.25
1.98
2.22
3.52
4.83
4.91
3.21
0.14
-3.08
-5.11
-5.20
-3.65
-1.57
-0.13
-0.17
-1.49
-3.34
-4.59
-4.65
-3.46
-1.70
-0.23
0.27
-0.35
-1.61
-2.75
-3.04
-2.32
-0.89
0.47
1.18
0.96
0.30
-0.17
0.19
1.27
2.39
2.60
1.45
-0.75
-2.94
-3.98
-3.27
-1.23
0.96
2.13
1.65
-0.12
-2.11
-3.05
-2.40
-0.43
1.84
3.27
3.26
2.13
0.88
0.64
1.89
4.07
5.81
5.78
3.48
-0.33
-3.94
-5.59
-4.46
-1.06
2.98
5.94
6.75
5.57
3.38
1.48
0.54
0.44
0.37
-0.47
-2.35
-4.77
-6.74
-7.33
-6.28
-4.30
-2.59
-2.31
-3.68
-5.98
-7.86
-8.13
-6.55
-3.92
-1.69
-0.96
-1.88
-3.53
-4.49
-3.76
-1.29
1.92
4.47
5.38
4.73
3.47
2.83
3.63
5.65
7.93
9.19
8.77
6.79
4.24
2.31
1.78
2.71
4.23
5.34
5.12
3.55
1.23
-0.71
-1.43
-0.70
0.98
2.55
3.09
2.21
0.22
-2.09
-3.91
-4.82
-5.04
-5.07
-5.45
-6.28
-7.18
-7.56
-7.02
-5.59
-3.76
-2.33
-1.75
-2.06
-2.70
-2.87
-2.07
-0.20
1.99
3.65
3.91
2.72
0.63
-1.25
-1.95
-1.18
0.62
2.30
2.96
2.17
0.48
-1.07
-1.56
-0.81
0.50
1.24
0.54
-1.64
-4.47
-6.63
-7.23
-6.12
-4.09
-2.27
-1.63
-2.28
-3.63
-4.51
-4.14
-2.26
0.52
3.24
5.05
5.69
5.48
5.09
5.19
5.92
7.01
7.71
7.43
5.91
3.55
1.14
-0.49
-0.94
-0.41
0.46
0.98
0.78
0.18
-0.22
0.14
1.32
2.76
3.66
3.41
2.12
0.47
-0.61
-0.59
0.26
1.16
1.14
-0.15
-2.31
-4.20
-4.79
-3.55
-1.08
1.43
2.62
2.01
-0.06
-2.28
-3.41
-2.80
-0.90
1.22
2.30
1.83
0.06
-1.86
-2.87
-2.38
-0.76
1.16
2.38
2.49
1.79
1.08
1.00
1.81
3.00
3.80
3.53
2.18
0.30
-1.13
-1.37
-0.26
1.59
3.22
3.65
2.62
0.45
-1.76
-3.11
-3.03
-1.90
-0.51
0.14
-0.28
-1.49
-2.61
-2.85
-1.90
-0.32
0.93
1.05
-0.15
-1.97
-3.33
-3.37
-1.91
0.38
2.41
3.35
3.07
2.10
1.29
1.23
1.88
2.61
2.65
1.48
-0.69
-3.25
-5.14
-5.82
-5.13
-3.64
-2.09
-1.26
-1.32
-2.04
-2.81
-3.06
-2.50
-1.31
0.17
1.53
2.59
3.37
4.03
4.57
4.88
4.58
3.44
1.34
-1.32
-3.99
-5.89
-6.60
-5.97
-4.49
-2.85
-1.72
-1.23
-1.19
-0.97
-0.24
0.97
2.05
2.40
1.56
-0.17
-2.14
-3.42
-3.57
-2.64
-1.30
-0.22
0.13
-0.10
-0.39
-0.12
1.07
3.13
5.57
7.73
9.04
9.34
8.76
7.79
6.89
6.37
6.13
5.83
5.03
3.66
2.00
0.75
0.40
1.10
2.21
2.88
2.21
0.18
-2.58
-4.91
-5.91
-5.40
-4.05
-2.98
-3.00
-4.27
-6.14
-7.57
-7.73
-6.34
-3.81
-0.97
1.22
2.29
2.28
1.71
1.25
1.23
1.52
1.51
0.67
-1.23
-3.77
-6.05
-7.40
-7.51
-6.80
-5.88
-5.41
-5.35
-5.37
-4.92
-3.73
-2.05
-0.39
0.54
0.48
-0.42
-1.42
-1.69
-0.60
1.88
5.15
8.25
10.17
10.50
9.38
7.51
5.71
4.50
3.86
3.39
2.71
1.74
0.79
0.35
0.62
1.35
1.91
1.59
0.13
-1.98
-3.90
-4.63
-3.82
-1.92
0.13
1.26
1.02
-0.31
-1.76
-2.39
-1.66
0.10
2.13
3.40
3.35
2.00
0.05
-1.73
-2.72
-2.84
-2.50
-2.28
-2.57
-3.33
-4.06
-4.17
-3.22
-1.42
0.69
2.22
2.63
1.95
0.86
0.38
1.21
3.42
6.19
8.41
8.98
7.58
4.68
1.30
-1.59
-3.51
-4.58
-5.39
-6.43
-7.82
-9.18
-9.90
-9.54
-8.11
-6.12
-4.33
-3.32
-3.18
-3.48
-3.44
-2.38
-0.20
2.60
5.13
6.53
6.53
5.44
4.08
3.18
3.16
3.65
4.14
3.92
2.86
1.26
-0.14
-0.78
-0.51
0.25
0.81
0.55
-0.52
-1.80
-2.39
-1.68
0.34
2.92
5.00
5.69
4.95
3.27
1.61
0.55
0.25
0.18
-0.22
-1.39
-3.07
-4.67
-5.43
-5.07
-3.81
-2.45
-1.64
-1.78
-2.53
-3.20
-3.04
-1.81
0.12
1.98
3.01
2.98
2.17
1.37
1.28
2.16
3.64
5.05
5.71
5.40
4.47
3.60
3.38
3.81
4.32
4.00
2.29
-0.75
-4.16
-6.82
-7.73
-6.87
-4.87
-2.96
-1.96
-2.10
-2.81
-3.25
-2.78
-1.47
0.11
1.20
1.39
0.88
0.27
0.25
1.01
2.15
2.79
2.35
0.75
-1.16
-2.28
-1.71
0.48
3.40
5.56
5.86
3.97
0.66
-2.71
-4.80
-4.99
-3.62
-1.65
-0.29
-0.20
-1.31
-2.86
-3.98
-4.02
-3.10
-1.81
-0.95
-0.88
-1.41
-1.87
-1.55
-0.18
1.83
3.68
4.51
4.03
2.57
0.94
0.06
0.35
1.61
3.09
3.97
3.69
2.42
0.64
-0.67
-0.96
-0.07
1.49
2.99
3.67
3.28
2.15
0.83
-0.02
-0.32
-0.34
-0.74
-1.90
-3.82
-5.87
-7.17
-7.04
-5.50
-3.16
-1.10
-0.19
-0.62
-1.91
-3.00
-2.95
-1.35
1.39
4.30
6.32
6.93
6.30
5.18
4.33
4.15
4.35
4.35
3.63
2.09
0.21
-1.41
-2.32
-2.49
-2.37
-2.64
-3.79
-5.86
-8.46
-10.81
-12.18
-12.12
-10.76
-8.53
-6.22
-4.20
-2.61
-1.16
0.50
2.48
4.48
6.12
7.04
7.36
7.55
8.09
9.20
10.47
11.10
10.34
7.99
4.54
1.02
-1.49
-2.49
-2.12
-1.08
-0.14
0.21
0.15
0.20
1.02
2.82
5.18
7.20
7.94
6.84
4.16
0.84
-1.98
-3.38
-3.28
-2.39
-1.76
-2.17
-3.62
-5.43
-6.64
-6.64
-5.51
-4.05
-3.17
-3.35
-4.38
-5.51
-5.87
-5.03
-3.24
-1.26
0.09
0.38
-0.19
-0.94
-1.24
-0.73
0.30
1.28
1.66
1.21
0.29
-0.49
-0.53
0.25
1.41
2.19
1.82
0.21
-2.12
-4.14
-4.91
-4.21
-2.38
-0.44
0.69
0.66
-0.08
-0.71
-0.40
0.99
2.85
4.25
4.35
3.05
0.80
-1.39
-2.71
-2.72
-1.69
-0.32
0.73
0.97
0.59
0.16
0.40
1.66
3.68
5.81
7.16
7.40
6.61
5.60
4.97
4.97
5.19
4.84
3.31
0.50
-2.86
-5.74
-7.22
-6.88
-5.11
-2.74
-0.76
0.33
0.53
0.32
0.38
1.09
2.39
3.83
4.80
4.80
3.89
2.45
1.07
0.13
-0.34
-0.73
-1.50
-2.89
-4.63
-6.05
-6.44
-5.47
-3.48
-1.22
0.38
0.91
0.63
0.37
0.76
1.97
3.43
4.19
3.61
1.77
-0.47
-2.06
-2.17
-0.86
1.13
2.76
3.31
2.57
1.07
-0.55
-1.71
-2.23
-2.25
-2.18
-2.26
-2.59
-3.06
-3.45
-3.54
-3.38
-3.18
-3.17
-3.49
-4.01
-4.34
-4.03
-2.83
-1.05
0.77
1.82
1.66
0.37
-1.37
-2.56
-2.43
-0.81
1.78
4.34
5.81
5.54
3.64
0.88
-1.69
-3.21
-3.43
-2.81
-2.14
-2.03
-2.61
-3.35
-3.47
-2.49
-0.51
1.72
3.36
3.87
3.37
2.51
1.98
2.02
2.34
2.33
1.54
0.10
-1.28
-1.69
-0.59
1.86
4.73
6.81
7.20
5.70
3.03
0.34
-1.24
-1.27
-0.10
1.35
2.02
1.44
-0.24
-2.23
-3.69
-4.01
-3.38
-2.32
-1.56
-1.32
-1.35
-0.90
0.63
3.22
6.13
8.12
8.18
6.03
2.47
-1.15
-3.56
-4.22
-3.38
-2.04
-1.08
-0.96
-1.45
-1.98
-1.91
-1.17
-0.07
0.75
0.77
-0.12
-1.54
-2.65
-2.82
-1.66
0.42
2.67
4.07
4.09
2.87
1.13
-0.15
-0.51
0.01
0.67
0.77
-0.17
-1.78
-3.20
-3.53
-2.38
-0.11
2.29
3.74
3.72
2.41
0.64
-0.57
-0.79
-0.16
0.52
0.53
-0.56
-2.35
-3.96
-4.54
-3.73
-1.96
-0.06
1.00
0.84
-0.30
-1.63
-2.30
-1.95
-0.80
0.38
0.89
0.23
-1.22
-2.65
-3.12
-2.17
-0.04
2.43
4.16
4.63
3.97
2.98
2.54
2.93
3.70
3.93
2.96
0.59
-2.43
-5.00
-6.23
-5.78
-4.13
-2.01
-0.21
0.94
1.46
1.79
2.26
3.04
3.91
4.38
4.04
2.81
1.03
-0.50
-1.01
-0.31
1.21
2.55
2.80
1.54
-0.72
-2.94
-3.97
-3.37
-1.49
0.55
1.73
1.43
-0.06
-1.77
-2.78
-2.59
-1.59
-0.66
-0.74
-2.12
-4.33
-6.29
-7.08
-6.21
-4.19
-1.95
-0.61
-0.51
-1.39
-2.25
-2.05
-0.37
2.47
5.40
7.33
7.51
6.18
4.06
2.24
1.28
1.15
1.03
0.14
-1.91
-4.80
-7.57
-9.38
-9.75
-9.10
-8.16
-7.75
-8.03
-8.58
-8.50
-7.12
-4.45
-1.24
1.37
2.50
2.02
0.66
-0.41
-0.24
1.39
3.87
6.14
7.35
7.23
6.37
5.69
5.97
7.16
8.72
9.59
9.13
7.27
4.67
2.34
1.07
1.11
2.06
3.12
3.54
3.17
2.25
1.50
1.62
2.77
4.56
6.04
6.35
5.04
2.47
-0.31
-2.16
-2.36
-1.16
0.48
1.30
0.64
-1.36
-3.64
-5.00
-4.80
-3.22
-1.31
-0.19
-0.49
-1.87
-3.44
-4.17
-3.68
-2.28
-0.93
-0.57
-1.48
-3.25
-4.97
-5.76
-5.23
-3.94
-2.84
-2.95
-4.63
-7.30
-9.62
-10.23
-8.27
-4.22
0.68
4.69
6.76
6.73
5.63
4.69
4.86
6.13
7.71
8.45
7.63
5.29
2.32
-0.28
-1.71
-1.97
-1.59
-1.39
-1.76
-2.69
-3.69
-4.21
-3.90
-2.96
-1.85
-1.13
-1.11
-1.55
-1.75
-1.10
0.82
3.56
6.20
7.62
7.37
5.65
3.60
2.43
2.71
4.12
5.44
5.42
3.43
-0.08
-3.78
-6.28
-6.71
-5.32
-3.04
-1.08
-0.11
-0.13
-0.47
-0.35
0.66
2.36
4.00
4.86
4.48
3.14
1.61
0.83
1.30
2.84
4.59
5.29
4.20
1.27
-2.53
-5.89
-7.76
-7.95
-7.24
-6.68
-7.03
-8.17
-9.23
-9.18
-7.52
-4.59
-1.50
0.63
1.16
0.44
-0.56
-0.64
0.74
3.35
6.08
7.75
7.53
5.68
3.07
0.96
0.13
0.47
1.23
1.36
0.40
-1.56
-3.52
-4.54
-3.94
-1.96
0.59
2.56
3.23
2.49
1.02
-0.10
-0.10
1.15
2.96
4.25
4.20
2.80
0.88
-0.42
-0.32
1.09
2.90
3.85
3.12
0.85
-2.04
-4.23
-4.85
-3.90
-2.20
-0.95
-0.98
-2.43
-4.55
-6.21
-6.49
-5.29
-3.32
-1.81
-1.76
-3.37
-5.90
-8.13
-8.99
-8.26
-6.63
-5.29
-5.10
-6.17
-7.56
-8.03
-6.67
-3.53
0.44
3.82
5.65
5.91
5.51
5.66
7.16
9.84
12.60
14.17
13.73
11.51
8.55
6.18
5.18
5.41
5.96
5.74
4.08
1.22
-1.99
-4.47
-5.47
-4.98
-3.78
-2.80
-2.80
-3.85
-5.28
-5.96
-5.11
-2.51
1.05
4.28
5.90
5.44
3.46
1.25
0.14
0.73
2.62
4.69
5.87
5.64
4.48
3.34
3.10
3.99
5.37
6.26
5.78
3.96
1.53
-0.41
-1.01
-0.23
1.15
2.03
1.59
-0.22
-2.58
-4.31
-4.51
-3.06
-0.80
1.01
1.38
0.06
-2.19
-4.20
-5.02
-4.51
-3.25
-2.36
-2.47
-3.67
-5.23
-6.28
-6.27
-5.33
-4.24
-3.79
-4.42
-5.92
-7.43
-8.13
-7.41
-5.43
-2.90
-0.86
-0.06
-0.71
-2.12
-3.19
-2.88
-0.83
2.43
5.78
8.06
8.78
8.13
6.97
6.11
5.77
5.61
4.84
3.02
0.19
-2.78
-4.87
-5.31
-4.23
-2.40
-0.96
-0.61
-1.39
-2.47
-2.90
-2.05
-0.16
1.87
2.85
2.16
-0.09
-3.08
-5.63
-6.98
-6.97
-6.18
-5.39
-5.20
-5.53
-5.79
-5.04
-2.65
1.33
5.96
9.85
11.83
11.48
9.42
6.95
5.38
5.34
6.38
7.45
7.45
5.93
3.46
1.19
0.25
0.94
2.73
4.28
4.49
2.99
0.30
-2.28
-3.63
-3.24
-1.59
0.24
1.19
0.71
-0.84
-2.63
-3.70
-3.70
-2.92
-2.20
-2.22
-3.24
-4.73
-5.79
-5.64
-4.11
-1.83
0.24
1.17
0.71
-0.63
-1.81
-1.86
-0.49
1.80
3.93
4.84
4.10
1.99
-0.51
-2.41
-3.06
-2.62
-1.67
-0.97
-0.82
-1.04
-1.06
-0.35
1.05
2.64
3.47
3.03
1.33
-0.83
-2.28
-2.08
-0.22
2.43
4.50
4.84
3.19
0.31
-2.35
-3.51
-2.70
-0.44
2.13
3.94
4.49
4.13
3.60
3.63
4.38
5.43
6.02
5.58
4.13
2.21
0.67
0.15
0.74
1.88
2.59
2.05
-0.09
-3.40
-6.95
-9.61
-10.70
-10.25
-8.85
-7.36
-6.34
-6.00
-5.89
-5.53
-4.59
-3.22
-2.04
-1.55
-2.05
-3.06
-3.87
-3.60
-2.04
0.51
3.10
4.85
5.29
4.70
3.93
3.84
5.01
7.22
9.65
11.25
11.15
9.25
6.07
2.81
0.45
-0.48
-0.30
0.15
0.15
-0.71
-2.00
-3.13
-3.43
-2.90
-1.96
-1.28
-1.29
-1.80
-2.28
-2.04
-0.87
0.95
2.55
3.13
2.22
-0.00
-2.61
-4.51
-4.88
-3.75
-1.70
0.14
0.91
0.43
-0.83
-2.05
-2.68
-2.68
-2.55
-2.97
-4.10
-5.69
-6.94
-7.27
-6.41
-4.82
-3.13
-1.95
-1.49
-1.44
-1.34
-0.70
0.59
2.29
3.85
4.68
4.62
3.84
3.05
2.92
3.87
5.56
7.21
7.78
6.76
4.33
1.45
-0.69
-1.30
-0.35
1.44
3.07
3.88
3.82
3.38
3.11
3.33
3.88
4.26
4.00
2.87
1.18
-0.57
-1.75
-2.07
-1.56
-0.71
-0.07
-0.01
-0.58
-1.33
-1.72
-1.39
-0.43
0.64
1.07
0.39
-1.16
-2.87
-3.89
-3.75
-2.67
-1.49
-1.00
-1.67
-3.24
-5.08
-6.43
-7.01
-6.82
-6.35
-6.03
-6.16
-6.62
-7.07
-7.00
-5.94
-3.72
-0.56
2.86
5.76
7.51
7.95
7.52
6.81
6.38
6.18
5.79
4.74
2.84
0.58
-1.34
-2.14
-1.77
-0.72
0.07
-0.06
-1.15
-2.59
-3.38
-2.98
-1.40
0.60
2.13
2.53
1.94
1.01
0.60
1.20
2.65
4.23
4.98
4.31
2.25
-0.48
-2.92
-4.31
-4.48
-3.90
-3.45
-3.75
-4.83
-5.91
-6.04
-4.42
-1.19
2.67
5.62
6.51
5.12
2.39
-0.07
-0.94
0.24
2.67
4.94
5.72
4.59
2.20
-0.17
-1.41
-1.17
0.05
1.19
1.38
0.36
-1.35
-2.88
-3.53
-3.21
-2.46
-2.18
-2.96
-4.79
-6.91
-8.32
-8.20
-6.44
-3.77
-1.28
0.07
0.03
-0.87
-1.72
-1.75
-0.79
0.67
1.72
1.80
0.81
-0.54
-1.33
-0.76
1.18
3.92
6.37
7.78
7.88
7.19
6.44
6.19
6.55
7.15
7.47
7.23
6.61
6.12
6.14
6.74
7.56
8.01
7.49
5.81
3.20
0.26
-2.40
-4.24
-5.14
-5.35
-5.38
-5.68
-6.42
-7.44
-8.24
-8.33
-7.39
-5.56
-3.26
-1.10
0.46
1.24
1.39
1.24
1.00
0.82
0.54
-0.09
-1.22
-2.72
-4.19
-5.13
-5.12
-4.23
-2.90
-1.87
-1.55
-1.98
-2.55
-2.55
-1.35
0.94
3.56
5.52
6.06
5.07
3.16
1.28
0.20
0.13
0.59
0.79
0.13
-1.45
-3.40
-4.88
-5.33
-4.70
-3.56
-2.72
-2.71
-3.53
-4.69
-5.47
-5.30
-4.22
-2.74
-1.70
-1.63
-2.60
-3.92
-4.75
-4.27
-2.51
-0.24
1.38
1.55
0.39
-1.07
-1.48
-0.05
2.95
6.18
8.14
7.96
6.01
3.54
2.06
2.27
3.96
6.03
7.41
7.54
6.77
5.78
5.25
5.27
5.48
5.25
4.23
2.44
0.43
-1.22
-2.08
-2.09
-1.54
-0.94
-0.74
-1.17
-2.12
-3.08
-3.58
-3.18
-2.06
-0.68
0.24
0.42
-0.02
-0.39
0.00
1.31
3.07
4.13
3.61
1.15
-2.44
-5.86
-7.59
-7.03
-4.53
-1.43
0.91
1.64
0.96
-0.12
-0.44
0.60
2.67
4.71
5.58
4.77
2.71
0.52
-0.70
-0.41
1.00
2.49
3.00
2.16
0.33
-1.45
-2.24
-1.60
0.10
2.04
3.31
3.51
2.75
1.62
0.77
0.45
0.61
0.68
0.19
-1.04
-2.75
-4.24
-4.88
-4.26
-2.72
-0.86
0.43
0.74
0.17
-0.62
-0.83
-0.05
1.68
3.56
4.76
4.55
2.88
0.28
-2.36
-4.13
-4.76
-4.37
-3.88
-3.94
-5.09
-7.00
-8.95
-10.09
-9.99
-8.88
-7.44
-6.44
-6.13
-6.22
-6.01
-4.89
-2.76
-0.09
2.32
3.84
4.30
4.09
3.93
4.35
5.58
7.14
8.35
8.47
7.28
5.23
3.22
2.08
2.14
3.04
3.95
4.16
3.50
2.48
1.91
2.33
3.57
4.78
4.92
3.38
0.48
-2.73
-4.94
-5.21
-3.60
-1.01
1.24
2.15
1.53
0.04
-1.22
-1.51
-0.69
0.58
1.42
1.26
0.14
-1.25
-2.00
-1.61
-0.19
1.45
2.39
1.85
-0.12
-2.87
-5.18
-6.11
-5.28
-3.26
-1.14
0.02
-0.24
-1.50
-2.95
-3.64
-3.33
-2.21
-1.09
-0.52
-0.83
-1.72
-2.57
-2.77
-1.99
-0.35
1.68
3.47
4.56
4.73
4.30
3.71
3.45
3.68
4.25
4.75
4.87
4.50
3.85
3.15
2.64
2.21
1.57
0.39
-1.36
-3.21
-4.54
-4.64
-3.39
-1.23
0.75
1.64
0.86
-1.12
-3.33
-4.59
-4.31
-2.83
-1.12
-0.40
-1.20
-3.27
-5.52
-6.81
-6.53
-4.89
-2.80
-1.30
-0.95
-1.51
-2.17
-2.01
-0.55
1.93
4.69
6.79
7.70
7.50
6.70
5.95
5.62
5.67
5.69
5.36
4.45
3.29
2.24
1.77
1.94
2.51
2.92
2.65
1.49
-0.38
-2.34
-3.77
-4.24
-3.82
-3.10
-2.84
-3.63
-5.40
-7.62
-9.30
-9.70
-8.61
-6.49
-4.19
-2.44
-1.51
-1.08
-0.55
0.52
2.11
3.73
4.74
4.59
3.38
1.46
-0.37
-1.64
-2.08
-2.00
-1.84
-1.92
-2.22
-2.22
-1.47
0.37
3.04
5.75
7.74
8.48
8.05
6.89
5.69
4.82
4.31
3.83
2.97
1.52
-0.43
-2.34
-3.69
-3.95
-3.15
-1.67
-0.37
0.05
-0.72
-2.34
-3.97
-4.83
-4.57
-3.64
-2.88
-3.16
-4.70
-6.90
-8.66
-8.96
-7.57
-5.17
-3.11
-2.43
-3.36
-5.05
-5.97
-4.96
-1.77
2.54
6.37
8.40
8.39
7.26
6.45
6.98
8.89
11.20
12.57
12.10
9.83
6.65
3.72
1.82
1.08
0.93
0.63
-0.26
-1.68
-3.10
-3.86
-3.47
-2.15
-0.45
0.62
0.42
-1.16
-3.44
-5.24
-5.64
-4.24
-1.64
1.03
2.53
2.39
0.86
-0.97
-2.16
-2.09
-1.12
0.07
0.56
0.06
-1.20
-2.42
-2.95
-2.44
-1.23
-0.06
0.37
-0.25
-1.50
-2.61
-2.70
-1.45
0.75
2.95
4.00
3.36
1.20
-1.25
-2.71
-2.20
0.04
2.97
4.97
5.05
3.13
0.24
-2.26
-3.33
-2.99
-1.96
-1.35
-1.71
-2.80
-3.66
-3.33
-1.35
1.82
5.13
7.29
7.57
6.01
3.41
0.94
-0.39
-0.31
0.85
2.22
3.06
3.08
2.66
2.47
3.06
4.32
5.62
5.96
4.70
2.00
-1.25
-3.84
-4.97
-4.64
-3.68
-3.08
-3.49
-4.57
-5.47
-5.16
-3.28
-0.29
2.70
4.54
4.69
3.38
1.42
-0.24
-1.09
-1.20
-1.17
-1.53
-2.62
-4.08
-5.22
-5.17
-3.65
-0.83
2.37
4.98
6.19
5.90
4.61
3.11
2.07
1.64
1.49
1.01
-0.21
-2.18
-4.44
-6.34
-7.39
-7.58
-7.36
-7.37
-8.12
-9.54
-11.08
-11.91
-11.46
-9.72
-7.29
-5.06
-3.64
-3.15
-3.05
-2.65
-1.44
0.60
2.94
4.95
6.08
6.32
5.93
5.39
5.13
5.23
5.59
5.78
5.62
4.85
3.66
2.33
1.33
0.83
0.89
1.14
1.21
0.94
0.52
0.42
1.17
2.87
5.12
7.00
7.72
7.00
5.32
3.58
2.71
2.81
3.33
3.22
1.75
-1.06
-4.34
-6.93
-8.00
-7.52
-6.18
-5.02
-4.59
-4.86
-5.18
-4.75
-3.11
-0.61
2.03
3.85
4.38
3.72
2.60
1.82
1.92
2.74
3.62
3.69
2.45
0.09
-2.56
-4.54
-5.06
-4.15
-2.34
-0.68
0.09
-0.34
-1.63
-3.02
-3.72
-3.43
-2.30
-1.05
-0.40
-0.62
-1.49
-2.31
-2.29
-1.19
0.60
2.13
2.60
1.60
-0.37
-2.41
-3.44
-3.04
-1.34
0.85
2.74
3.73
3.94
3.82
4.19
5.36
7.29
9.22
10.27
9.90
8.14
5.77
3.84
3.10
3.63
4.77
5.40
4.83
2.95
0.46
-1.63
-2.59
-2.37
-1.56
-1.02
-1.28
-2.35
-3.60
-4.21
-3.70
-2.13
-0.22
1.08
1.09
-0.19
-2.21
-3.99
-4.92
-4.86
-4.45
-4.44
-5.28
-6.63
-7.55
-7.07
-4.87
-1.58
1.52
3.15
2.92
1.35
-0.31
-0.89
0.07
2.00
3.87
4.65
4.14
2.71
1.30
0.56
0.66
1.15
1.50
1.23
0.41
-0.60
-1.25
-1.33
-0.98
-0.59
-0.66
-1.43
-2.79
-4.28
-5.30
-5.32
-4.11
-1.91
0.69
2.86
4.07
4.17
3.60
3.03
3.14
4.03
5.36
6.33
6.40
5.34
3.62
1.85
0.65
0.06
-0.21
-0.78
-1.96
-3.68
-5.39
-6.45
-6.47
-5.57
-4.25
-3.15
-2.61
-2.64
-2.70
-2.35
-1.22
0.44
2.12
3.02
2.68
0.98
-1.53
-4.11
-5.91
-6.67
-6.56
-6.29
-6.37
-7.05
-7.82
-7.98
-6.88
-4.63
-1.82
0.53
1.80
1.94
1.56
1.55
2.43
4.17
6.05
7.30
7.37
6.38
4.96
3.97
3.97
4.90
6.13
6.66
5.78
3.48
0.51
-2.04
-3.31
-3.12
-2.05
-0.96
-0.44
-0.42
-0.29
0.59
2.44
4.79
6.78
7.67
7.34
6.35
5.55
5.66
6.75
8.38
9.72
10.17
9.44
7.82
5.74
3.84
2.40
1.53
0.98
0.39
-0.71
-2.46
-4.76
-7.08
-8.87
-9.77
-9.81
-9.37
-8.95
-8.83
-8.82
-8.51
-7.52
-5.80
-3.75
-1.96
-0.90
-0.62
-0.80
-0.92
-0.68
-0.10
0.50
0.62
0.00
-1.28
-2.83
-4.02
-4.42
-3.99
-3.15
-2.46
-2.58
-3.59
-5.19
-6.72
-7.53
-7.36
-6.39
-5.14
-4.08
-3.49
-3.21
-2.85
-2.06
-0.66
1.09
2.69
3.59
3.58
2.86
2.04
1.82
2.54
4.04
5.60
6.48
6.18
4.92
3.31
2.24
2.12
2.92
4.17
5.23
5.69
5.58
5.20
4.92
4.95
5.14
5.12
4.48
3.04
0.95
-1.22
-2.87
-3.48
-3.08
-2.06
-1.25
-1.13
-1.84
-2.90
-3.61
-3.42
-2.36
-0.87
0.29
0.62
0.11
-0.76
-1.26
-0.94
0.24
1.68
2.75
2.84
2.07
0.97
0.33
0.66
1.79
3.07
3.55
2.74
0.69
-1.78
-3.76
-4.53
-4.01
-2.62
-1.15
-0.10
0.36
0.46
0.62
1.12
1.89
2.69
3.07
2.75
1.82
0.81
0.32
0.92
2.54
4.50
5.76
5.40
3.16
-0.30
-3.78
-6.09
-6.69
-5.93
-4.89
-4.51
-5.17
-6.33
-6.99
-6.35
-4.35
-1.81
0.19
0.81
0.20
-0.89
-1.34
-0.54
1.30
3.27
4.35
3.99
2.50
0.89
0.19
0.97
2.83
4.80
5.68
4.91
2.70
-0.01
-2.18
-3.18
-3.12
-2.56
-2.24
-2.41
-2.92
-3.25
-3.04
-2.25
-1.28
-0.66
-0.69
-1.35
-2.10
-2.40
-1.77
-0.12
2.25
4.74
6.63
7.43
6.89
5.29
3.22
1.49
0.65
0.87
1.82
2.78
3.16
2.62
1.40
-0.00
-1.01
-1.36
-1.30
-1.19
-1.41
-1.91
-2.37
-2.30
-1.48
-0.16
1.11
1.64
1.22
0.03
-1.23
-1.92
-1.64
-0.61
0.52
0.98
0.32
-1.36
-3.46
-5.11
-5.72
-5.27
-4.23
-3.42
-3.30
-3.88
-4.37
-4.04
-2.37
0.30
3.03
4.68
4.58
2.85
0.46
-1.49
-2.13
-1.41
0.05
1.29
1.58
0.75
-0.66
-1.84
-2.01
-0.99
0.89
2.86
4.23
4.77
4.73
4.63
4.85
5.39
5.88
5.77
4.82
3.08
1.12
-0.52
-1.44
-1.75
-1.82
-2.09
-2.71
-3.52
-4.10
-4.05
-3.22
-1.87
-0.52
0.33
0.35
-0.34
-1.32
-1.99
-1.89
-1.07
0.11
1.10
1.46
1.14
0.52
0.14
0.40
1.17
1.94
2.04
1.21
-0.26
-1.43
-1.45
0.10
2.77
5.43
6.83
6.30
4.05
1.05
-1.59
-3.07
-3.46
-3.41
-3.78
-4.94
-6.73
-8.32
-8.96
-8.10
-6.05
-3.52
-1.50
-0.60
-0.85
-1.68
-2.31
-2.06
-0.88
0.78
2.11
2.59
2.10
1.24
0.80
1.46
3.12
5.21
6.67
6.87
5.63
3.64
1.85
1.11
1.55
2.75
3.70
3.76
2.61
0.85
-0.66
-1.00
0.01
1.88
3.45
3.75
2.40
0.03
-2.24
-3.20
-2.44
-0.49
1.41
2.14
1.34
-0.36
-1.85
-2.07
-0.81
1.21
2.77
2.98
1.64
-0.51
-2.44
-3.27
-2.96
-2.08
-1.70
-2.42
-4.21
-6.25
-7.38
-6.77
-4.41
-1.09
1.98
3.81
4.10
3.48
2.89
3.21
4.59
6.54
8.05
8.35
7.26
5.31
3.46
2.44
2.48
2.97
3.12
2.24
0.19
-2.42
-4.75
-6.02
-6.10
-5.32
-4.57
-4.43
-5.23
-6.63
-7.99
-8.62
-8.21
-6.94
-5.38
-4.25
-4.02
-4.59
-5.41
-5.61
-4.71
-2.70
-0.41
1.31
1.69
0.76
-0.86
-2.16
-2.40
-1.48
0.06
1.36
1.82
1.39
0.67
0.42
1.11
2.52
3.85
4.28
3.37
1.71
0.29
0.26
1.91
4.60
6.93
7.61
6.15
3.15
0.05
-1.77
-1.61
0.24
2.62
4.48
5.16
4.97
4.59
4.82
5.75
7.08
7.99
7.91
6.68
4.83
3.18
2.42
2.80
3.85
4.78
4.65
3.03
0.16
-3.22
-6.09
-7.71
-8.02
-7.55
-7.25
-7.77
-9.24
-10.90
-11.88
-11.34
-9.28
-6.38
-3.75
-2.20
-1.90
-2.26
-2.35
-1.58
0.13
1.95
3.06
2.86
1.63
0.19
-0.45
0.24
2.10
4.27
5.68
5.61
4.08
1.85
-0.11
-0.97
-0.64
0.43
1.40
1.73
1.32
0.74
0.66
1.59
3.31
5.23
6.45
6.38
5.05
3.01
1.10
-0.11
-0.41
-0.16
0.08
-0.20
-1.05
-2.11
-2.77
-2.44
-1.01
1.07
2.93
3.71
3.03
1.17
-1.13
-2.97
-3.90
-4.02
-4.00
-4.31
-5.27
-6.49
-7.34
-7.23
-6.12
-4.52
-3.20
-2.86
-3.47
-4.48
-4.95
-4.25
-2.34
0.17
2.26
3.21
2.88
1.91
1.11
1.16
2.09
3.34
4.09
3.77
2.49
0.86
-0.22
-0.20
0.90
2.47
3.58
3.78
2.92
1.57
0.39
-0.01
0.49
1.47
2.29
2.26
1.16
-0.73
-2.65
-3.76
-3.58
-2.22
-0.39
0.98
1.26
0.54
-0.40
-0.62
0.41
2.35
4.23
5.02
4.28
2.43
0.45
-0.70
-0.73
-0.10
0.18
-0.63
-2.62
-5.06
-6.81
-7.01
-5.48
-2.84
-0.22
1.38
1.51
0.53
-0.73
-1.36
-0.98
0.20
1.49
2.20
2.17
1.68
1.37
1.66
2.53
3.34
3.39
2.31
0.31
-1.76
-3.12
-3.21
-2.24
-0.76
0.43
0.86
0.44
-0.56
-1.55
-2.13
-2.09
-1.62
-1.12
-1.08
-1.64
-2.49
-3.09
-2.80
-1.42
0.70
2.70
3.74
3.42
2.04
0.54
-0.13
0.65
2.56
4.84
6.37
6.53
5.32
3.42
1.73
0.91
0.98
1.44
1.57
0.91
-0.54
-2.16
-3.31
-3.39
-2.41
-0.68
1.04
2.27
2.67
2.47
1.97
1.68
1.70
1.99
2.14
1.95
1.26
0.42
-0.20
-0.27
0.10
0.53
0.33
-0.83
-2.93
-5.23
-6.88
-7.05
-5.67
-3.33
-1.04
0.34
0.54
-0.01
-0.52
-0.33
0.63
1.91
2.76
2.72
1.85
0.83
0.50
1.35
3.25
5.47
7.10
7.54
6.80
5.47
4.43
4.20
4.73
5.42
5.40
4.20
2.00
-0.35
-1.82
-1.77
-0.34
1.51
2.60
1.94
-0.55
-4.19
-7.67
-9.91
-10.45
-9.76
-8.79
-8.48
-9.06
-10.06
-10.41
-9.43
-7.06
-4.35
-2.50
-2.34
-3.49
-4.76
-4.64
-2.49
1.06
4.43
6.02
5.19
2.61
-0.22
-1.84
-1.68
-0.12
1.68
2.76
2.70
1.90
1.05
0.81
1.32
2.27
3.04
3.18
2.68
1.90
1.63
2.43
4.33
6.81
8.85
9.53
8.46
6.11
3.40
1.31
0.27
0.02
-0.19
-1.09
-2.87
-5.03
-6.60
-6.82
-5.53
-3.20
-0.80
0.81
1.19
0.62
-0.28
-0.82
-0.64
0.07
0.70
0.56
-0.61
-2.65
-4.84
-6.37
-6.74
-6.05
-4.89
-3.98
-3.75
-4.00
-4.08
-3.25
-1.25
1.47
3.98
5.23
4.64
2.41
-0.46
-2.66
-3.23
-1.87
0.67
3.27
4.75
4.76
3.65
2.45
2.06
2.80
4.19
5.29
5.28
4.00
2.05
0.33
-0.44
-0.23
0.45
0.84
0.48
-0.49
-1.57
-2.11
-1.82
-0.89
0.08
0.53
0.12
-0.89
-1.97
-2.44
-2.02
-0.80
0.50
1.15
0.59
-1.05
-3.19
-4.87
-5.50
-4.89
-3.62
-2.49
-2.21
-3.00
-4.41
-5.75
-6.21
-5.55
-3.96
-2.23
-1.01
-0.56
-0.61
-0.34
0.84
3.14
5.96
8.43
9.58
9.19
7.56
5.62
4.15
3.63
3.82
4.20
4.07
3.22
1.77
0.37
-0.44
-0.32
0.43
1.20
1.29
0.43
-0.88
-1.88
-1.67
-0.18
2.01
3.60
3.61
1.79
-1.09
-3.64
-4.67
-3.78
-1.66
0.52
1.50
0.85
-1.10
-3.37
-5.09
-5.72
-5.50
-4.87
-4.40
-4.07
-3.60
-2.41
-0.27
2.62
5.37
7.05
6.96
5.17
2.50
0.08
-1.08
-0.81
0.37
1.33
1.27
-0.12
-2.18
-3.94
-4.39
-3.19
-0.82
1.74
3.45
3.73
2.73
1.27
0.21
0.14
1.02
2.26
3.14
3.16
2.41
1.42
0.82
0.99
1.71
2.39
2.34
1.32
-0.35
-1.88
-2.48
-1.79
-0.05
1.90
3.23
3.28
2.19
0.41
-1.29
-2.48
-3.13
-3.62
-4.37
-5.51
-6.80
-7.60
-7.37
-5.93
-3.65
-1.25
0.48
1.10
0.68
-0.33
-1.24
-1.57
-1.13
-0.23
0.67
1.07
0.82
0.10
-0.64
-1.07
-1.10
-0.94
-0.90
-1.15
-1.48
-1.45
-0.61
1.02
2.97
4.46
4.84
3.99
2.36
0.78
0.00
0.38
1.60
3.01
3.81
3.57
2.40
0.88
-0.30
-0.70
-0.46
-0.15
-0.43
-1.55
-3.14
-4.34
-4.33
-2.82
-0.49
1.51
1.97
0.64
-1.86
-4.12
-4.92
-3.76
-1.23
1.50
3.26
3.62
2.89
2.02
1.84
2.74
4.39
6.06
7.00
6.79
5.56
3.89
2.37
1.48
1.18
1.17
0.77
-0.38
-2.36
-4.58
-6.38
-7.04
-6.44
-4.91
-3.21
-1.95
-1.34
-1.05
-0.52
0.68
2.36
3.85
4.26
3.13
0.75
-1.82
-3.45
-3.44
-2.08
-0.37
0.51
-0.02
-1.70
-3.48
-4.30
-3.66
-2.01
-0.27
0.46
-0.12
-1.64
-3.02
-3.43
-2.44
-0.45
1.64
2.98
3.12
2.34
1.37
1.01
1.63
2.96
4.22
4.58
3.72
1.97
0.21
-0.63
-0.26
0.91
1.94
1.87
0.39
-1.96
-4.09
-4.93
-4.08
-2.15
-0.26
0.51
-0.28
-2.21
-4.20
-5.31
-5.01
-3.58
-1.73
-0.15
0.88
1.62
2.60
4.17
6.17
7.98
8.81
8.08
5.94
3.19
0.88
-0.17
0.26
1.62
2.99
3.64
3.25
2.15
0.90
0.00
-0.45
-0.76
-1.45
-2.79
-4.67
-6.64
-8.04
-8.39
-7.56
-5.92
-4.08
-2.78
-2.30
-2.44
-2.50
-1.67
0.33
3.16
5.83
7.30
7.04
5.47
3.59
2.52
2.86
4.34
5.99
6.80
6.19
4.38
2.23
0.77
0.56
1.47
2.73
3.30
2.55
0.48
-2.24
-4.54
-5.71
-5.55
-4.61
-3.71
-3.43
-3.81
-4.36
-4.45
-3.73
-2.31
-0.77
0.38
0.88
1.07
1.48
2.58
4.37
6.31
7.45
7.08
5.08
1.99
-1.02
-2.83
-2.92
-1.56
0.30
1.45
1.20
-0.38
-2.50
-4.13
-4.63
-4.09
-3.24
-3.04
-4.04
-6.04
-8.15
-9.38
-9.16
-7.67
-5.78
-4.53
-4.45
-5.34
-6.19
-6.09
-4.48
-1.75
1.14
3.05
