1499788054.00
64.000000
-0.00
-0.00
-0.00
-0.00
-0.00
-0.00
-0.00
-0.00
-0.00
-0.00
0.00
0.01
0.01
-0.00
-0.03
-0.05
-0.05
0.00
0.13
0.36
0.66
1.01
1.37
1.72
2.06
2.40
2.79
3.24
3.80
4.42
5.06
5.66
6.20
6.68
7.15
7.68
8.31
9.14
10.09
11.04
11.88
12.56
13.14
13.76
14.65
15.96
17.91
20.32
22.90
25.38
27.58
29.57
31.68
34.32
37.81
42.54
48.15
54.10
59.83
64.97
69.58
74.14
79.34
85.71
93.76
103.00
112.62
121.73
129.77
136.75
143.30
150.75
157.77
166.64
177.95
191.79
206.97
220.57
228.25
225.36
208.53
176.87
132.76
80.05
23.07
-34.94
-92.44
-149.16
-205.23
-260.37
-313.74
-363.87
-409.83
-450.91
-486.50
-515.74
-537.23
-549.22
-549.96
-538.37
-514.21
-478.68
-433.87
-382.43
-326.98
-269.81
-212.64
-156.74
-103.12
-52.65
-6.26
35.18
71.03
100.98
125.15
144.02
158.27
168.62
175.72
180.00
181.78
181.31
178.81
174.59
168.97
162.34
155.06
147.45
139.74
132.06
124.47
116.93
109.35
101.67
93.88
86.09
78.49
71.34
64.81
58.93
53.54
48.33
43.00
37.38
31.56
25.89
20.82
16.71
13.61
11.23
8.99
6.31
2.86
-1.24
-5.43
-9.00
-11.40
-12.47
-12.55
-12.34
-12.60
-13.97
-16.82
-21.11
-26.18
-30.67
-32.68
-30.36
-22.67
-10.13
5.12
20.01
31.59
38.10
39.50
37.23
33.51
30.39
29.04
29.44
30.68
31.50
30.87
28.51
24.86
20.82
17.23
14.39
12.11
9.96
7.75
5.74
4.38
3.96
4.26
4.61
4.27
2.91
0.81
-1.33
-2.66
-2.62
-1.21
1.09
3.48
5.17
5.68
4.93
3.31
1.47
0.06
-0.48
-0.12
0.83
1.82
2.37
2.25
1.54
0.59
-0.22
-0.58
-0.41
0.21
1.14
2.27
3.61
5.18
6.98
8.86
10.61
11.98
12.85
13.22
13.21
13.03
12.81
12.61
12.40
12.11
11.59
10.77
9.41
7.38
4.69
1.42
-2.15
-5.70
-8.93
-11.62
-13.68
-15.14
-16.06
-16.51
-16.53
-16.11
-15.34
-14.29
-13.13
-12.04
-11.16
-10.53
-10.10
-9.73
-9.28
-8.70
-8.02
-7.38
-6.91
-6.68
-6.70
-6.80
-6.82
-6.61
-6.10
-5.27
-4.17
-2.84
-1.33
0.34
2.08
3.71
5.02
5.75
5.78
5.14
4.06
2.86
1.82
1.05
0.52
0.06
-0.43
-0.98
-1.47
-1.74
-1.69
-1.39
-1.01
-0.80
-0.88
-1.27
-1.87
-2.52
-3.20
-3.92
-4.82
-6.06
-7.71
-9.77
-12.08
-14.43
-16.62
-18.43
-19.68
-20.17
-19.71
-18.20
-15.70
-12.42
-8.79
-5.28
-2.30
-0.13
1.16
1.65
1.56
1.18
0.81
0.68
0.91
1.51
2.42
3.58
4.96
6.56
8.47
10.88
14.07
18.37
23.91
30.40
36.94
42.21
44.82
43.88
39.34
32.03
23.25
14.25
5.87
-1.53
-7.88
-13.05
-16.79
-18.79
-18.87
-17.24
-14.47
-11.34
-8.62
-6.78
-5.88
-5.67
-5.67
-5.45
-4.74
-3.47
-1.72
0.39
2.80
5.52
8.57
11.89
15.32
18.64
21.60
23.99
25.64
26.48
26.52
25.85
24.55
22.59
19.86
16.11
11.18
5.10
-1.78
-8.80
-15.19
-20.20
-23.34
-24.41
-23.51
-21.04
-17.57
-13.84
-10.57
-8.31
-7.33
-7.55
-8.65
-10.20
-11.81
-13.20
-14.18
-14.68
-14.71
-14.36
-13.88
-13.52
-13.48
-13.74
-14.12
-14.33
-14.15
-13.63
-13.06
-12.83
-13.26
-14.35
-15.80
-17.16
-18.05
-18.44
-18.66
-19.28
-20.78
-23.25
-26.28
-28.94
-30.03
-28.40
-23.31
-14.66
-3.07
10.15
23.35
34.84
43.32
48.15
49.38
47.65
43.86
39.00
33.89
29.20
25.38
22.69
21.13
20.44
20.15
19.66
18.45
16.21
12.95
8.96
4.72
0.68
-2.85
-5.79
-8.25
-10.40
-12.41
-14.34
-16.19
-17.89
-19.44
-20.85
-22.08
-23.02
-23.44
-23.08
-21.76
-19.50
-16.51
-13.09
-9.53
-6.02
-2.68
0.38
2.95
4.79
5.75
5.79
5.10
4.01
2.89
2.07
1.75
1.97
2.58
3.32
3.85
3.88
3.31
2.27
1.00
-0.23
-1.33
-2.38
-3.56
-5.03
-6.75
-8.58
-10.33
-11.92
-13.44
-15.12
-17.16
-19.58
-22.15
-24.41
-25.78
-25.76
-24.01
-20.51
-15.50
-9.45
-2.98
3.24
8.64
12.87
15.77
17.46
18.19
18.31
18.10
17.76
17.40
17.10
16.88
16.73
16.60
16.38
15.93
15.16
14.05
12.69
11.20
9.75
8.40
7.11
5.79
4.33
2.68
0.92
-0.78
-2.29
-3.59
-4.85
-6.37
-8.42
-11.11
-14.24
-17.31
-19.70
-20.83
-20.32
-18.13
-14.50
-9.90
-4.88
0.02
4.38
7.94
10.60
12.43
13.56
14.16
14.38
14.32
14.05
13.59
12.95
12.16
11.29
10.41
9.63
9.01
8.56
8.19
7.82
7.32
6.55
5.40
3.82
1.82
-0.48
-2.85
-5.07
-6.95
-8.41
-9.59
-10.70
-11.96
-13.53
-15.35
-17.19
-18.66
-19.35
-18.90
-17.12
-14.05
-9.92
-5.16
-0.29
4.17
7.81
10.37
11.81
12.22
11.90
11.20
10.61
10.61
11.70
14.18
18.10
23.16
28.72
33.98
38.28
41.21
42.71
42.90
41.92
39.78
36.35
31.48
25.14
17.50
8.89
-0.26
-9.56
-18.65
-27.21
-34.97
-41.67
-47.06
-50.97
-53.22
-53.65
-52.06
-48.29
-42.36
-34.51
-25.27
-15.34
-5.43
3.86
12.11
19.04
24.46
28.24
30.31
30.79
29.95
28.19
25.95
23.56
21.20
18.97
16.87
14.87
13.00
11.24
9.57
7.94
6.29
4.63
3.01
1.52
0.19
-0.98
-2.07
-3.15
-4.28
-5.43
-6.56
-7.69
-8.86
-10.11
-11.40
-12.55
-13.25
-13.16
-12.06
-9.93
-7.02
-3.75
-0.64
1.85
3.43
3.98
3.60
2.54
1.07
-0.51
-2.03
-3.38
-4.51
-5.41
-6.04
-6.34
-6.29
-5.96
-5.46
-4.99
-4.72
-4.74
-5.07
-5.61
-6.24
-6.89
-7.56
-8.25
-9.02
-9.91
-10.94
-12.21
-13.80
-15.76
-17.98
-20.16
-21.82
-22.47
-21.73
-19.48
-15.89
-11.32
-6.24
-1.15
3.55
7.56
10.69
12.87
14.17
14.73
14.70
14.23
13.46
12.51
11.52
10.66
10.04
9.73
9.62
9.57
9.43
9.12
8.64
8.07
7.45
6.73
5.80
4.49
2.80
0.81
-1.25
-3.14
-4.80
-6.34
-8.03
-10.13
-12.72
-15.64
-18.42
-20.46
-21.21
-20.29
-17.65
-13.55
-8.50
-3.10
2.08
6.61
10.23
12.83
14.42
15.04
14.84
14.01
12.84
11.65
10.73
10.27
10.28
10.66
11.23
11.79
12.19
12.34
12.18
11.76
11.13
10.35
9.47
8.49
7.41
6.16
4.73
3.13
1.42
-0.32
-2.06
-3.85
-5.77
-7.90
-10.23
-12.58
-14.60
-15.88
-16.01
-14.80
-12.29
-8.77
-4.68
-0.53
3.26
6.40
8.75
10.31
11.15
11.40
11.21
10.72
10.12
9.56
9.09
8.73
8.40
8.05
7.69
7.37
7.15
6.99
6.70
6.05
4.90
3.25
1.31
-0.67
-2.51
-4.20
-5.86
-7.70
-9.83
-12.31
-15.05
-17.90
-20.55
-22.66
-23.78
-23.57
-21.84
-18.69
-14.48
-9.73
-4.98
-0.70
2.72
5.00
5.99
5.68
4.29
2.21
-0.04
-1.97
-3.28
-3.89
-3.91
-3.51
-2.85
-2.00
-1.02
-0.00
0.93
1.61
1.91
1.75
1.15
0.17
-1.09
-2.57
-4.19
-5.94
-7.80
-9.81
-12.03
-14.52
-17.28
-20.18
-22.88
-24.93
-25.79
-25.04
-22.47
-18.22
-12.78
-6.81
-1.04
4.01
8.02
10.98
13.03
14.36
15.14
15.49
15.44
15.04
14.42
13.72
13.11
12.71
12.53
12.44
12.28
11.90
11.25
10.35
9.24
7.98
6.53
4.82
2.82
0.51
-2.01
-4.62
-7.19
-9.64
-11.90
-14.03
-16.08
-18.15
-20.22
-22.15
-23.58
-24.02
-22.99
-20.21
-15.71
-9.90
-3.44
2.90
8.49
12.96
16.18
18.27
19.43
19.88
19.79
19.30
18.52
17.58
16.64
15.83
15.22
14.80
14.46
14.09
13.56
12.83
11.88
10.78
9.55
8.27
6.95
5.59
4.16
2.65
1.06
-0.59
-2.28
-4.01
-5.84
-7.86
-10.16
-12.75
-15.57
-18.48
-21.19
-23.37
-24.63
-24.58
-22.93
-19.60
-14.80
-9.01
-2.92
2.79
7.58
11.21
13.67
15.14
15.84
15.91
15.48
14.66
13.67
12.78
12.26
12.27
12.78
13.53
14.17
14.39
14.07
13.28
12.19
10.97
9.68
8.25
6.63
4.77
2.77
0.76
-1.09
-2.72
-4.16
-5.54
-6.96
-8.53
-10.30
-12.24
-14.20
-15.91
-17.01
-17.10
-15.85
-13.17
-9.15
-4.13
1.42
6.97
12.03
16.20
19.26
21.15
21.95
21.89
21.23
20.24
19.10
17.99
16.99
16.15
15.51
15.06
14.76
14.53
14.23
13.67
12.73
11.33
9.51
7.42
5.26
3.22
1.42
-0.16
-1.59
-3.02
-4.57
-6.37
-8.50
-10.96
-13.59
-16.04
-17.76
-18.17
-16.90
-13.93
-9.68
-4.87
-0.30
3.43
6.03
7.53
8.17
8.21
7.88
7.34
6.71
6.10
5.62
5.35
5.31
5.44
5.69
5.93
6.08
6.08
5.87
5.38
4.55
3.35
1.82
0.04
-1.89
-3.94
-6.09
-8.38
-10.81
-13.36
-15.94
-18.45
-20.75
-22.63
-23.84
-24.03
-22.96
-20.51
-16.86
-12.46
-7.89
-3.70
-0.25
2.32
4.07
5.14
5.68
5.82
5.60
5.07
4.30
3.40
2.52
1.81
1.34
1.00
0.53
-0.36
-1.88
-3.99
-6.45
-8.90
-11.07
-12.85
-14.39
-15.91
-17.65
-19.61
-21.60
-23.21
-24.00
-23.56
-21.72
-18.52
-14.23
-9.27
-4.09
0.86
5.21
8.70
11.11
12.36
12.50
11.74
10.36
8.72
7.12
5.76
4.73
4.01
3.50
3.08
2.62
2.04
1.29
0.40
-0.57
-1.58
-2.65
-3.86
-5.35
-7.27
-9.75
-12.90
-16.72
-21.07
-25.66
-30.01
-33.51
-35.55
-35.67
-33.64
-29.52
-23.61
-16.33
-8.10
0.69
9.71
18.60
26.87
33.96
39.26
42.29
42.85
41.05
37.28
32.13
26.19
20.00
13.97
8.39
3.43
-0.84
-4.42
-7.30
-9.54
-11.18
-12.28
-12.93
-13.27
-13.45
-13.72
-14.35
-15.58
-17.53
-20.10
-22.85
-25.07
-25.98
-24.97
-21.83
-16.93
-11.07
-5.23
-0.25
3.37
5.56
6.56
6.67
6.09
4.88
3.04
0.67
-1.94
-4.38
-6.22
-7.27
-7.58
-7.44
-7.15
-6.89
-6.62
-6.19
-5.43
-4.26
-2.70
-0.81
1.32
3.50
5.41
6.53
6.25
4.05
-0.28
-6.43
-13.64
-20.71
-26.35
-29.41
-29.21
-25.69
-19.42
-11.41
-2.78
5.59
13.26
20.20
26.56
32.40
37.57
41.73
44.58
46.00
46.16
45.44
44.37
43.48
43.27
44.11
46.17
49.30
53.13
57.11
60.79
63.97
66.69
69.00
70.77
71.62
71.02
68.57
64.26
58.50
51.99
45.47
39.59
34.85
31.62
30.06
29.95
30.61
31.08
30.45
28.37
25.24
22.06
19.93
19.41
20.20
21.32
21.63
20.30
17.16
12.60
7.17
1.27
-5.05
-12.04
-19.90
-28.64
-37.85
-46.75
-54.40
-60.04
-63.45
-65.13
-66.12
-67.56
-70.08
-73.49
-76.87
-79.24
-80.29
-80.76
-82.04
-85.20
-90.06
-94.88
-97.07
-94.52
-86.83
-75.67
-64.13
-55.34
-51.22
-51.87
-55.90
-61.38
-66.70
-71.03
-74.36
-77.04
-79.37
-81.43
-83.17
-84.56
-85.73
-86.68
-86.92
-84.94
-78.34
-64.54
-42.08
-11.62
23.84
59.84
92.04
117.71
136.35
149.08
157.42
162.11
162.86
158.89
149.90
136.77
121.38
105.87
91.75
79.32
67.83
56.11
43.26
29.02
13.84
-1.55
-16.59
-31.06
-44.90
-57.63
-68.01
-74.15
-74.10
-66.83
-52.98
-34.90
-15.85
1.14
14.36
23.77
30.72
37.00
43.97
51.93
59.98
66.30
68.71
65.52
56.25
42.13
25.90
10.97
0.19
-5.15
-5.62
-3.12
0.08
2.25
2.56
0.89
-2.58
-7.52
-13.28
-18.64
-21.76
-20.65
-13.92
-1.45
15.36
34.02
51.73
66.32
76.63
82.58
84.69
83.70
80.26
74.93
68.19
60.48
52.11
43.21
33.70
23.51
12.71
1.66
-9.08
-18.96
-27.63
-35.01
-41.19
-46.26
-50.14
-52.54
-53.11
-51.58
-47.99
-42.81
-36.88
-31.20
-26.59
-23.42
-21.45
-19.97
-18.20
-15.65
-12.40
-8.98
-6.10
-4.33
-3.84
-4.40
-5.54
-6.74
-7.64
-8.06
-8.03
-7.68
-7.16
-6.58
-5.97
-5.27
-4.40
-3.32
-2.11
-0.92
-0.07
0.07
-0.97
-3.68
-8.59
-16.06
-25.98
-37.64
-49.72
-60.59
-68.79
-73.38
-74.20
-71.61
-66.19
-58.49
-48.94
-38.06
-26.73
-16.21
-7.83
-2.61
-0.78
-1.72
-4.21
-7.00
-9.29
-10.96
-12.32
-13.82
-15.52
-17.04
-17.58
-16.34
-12.82
-7.04
0.44
8.66
16.46
22.66
26.28
26.71
23.91
18.46
11.47
4.29
-1.87
-6.21
-8.47
-8.89
-7.91
-5.98
-3.43
-0.41
2.90
6.26
9.21
11.27
12.07
11.53
9.88
7.54
4.92
2.26
-0.37
-2.93
-5.24
-6.92
-7.52
-6.76
-4.68
-1.69
1.59
4.68
7.32
9.59
11.68
13.72
15.57
16.91
17.41
16.85
15.29
12.99
10.26
7.37
4.46
1.57
-1.23
-3.73
-5.60
-6.45
-6.01
-4.23
-1.31
2.29
5.97
9.10
11.09
11.50
10.09
6.92
2.41
-2.67
-7.31
-10.41
-11.14
-9.19
-4.91
0.77
6.66
11.78
15.72
18.74
21.59
25.13
29.85
35.64
41.74
47.03
50.51
51.68
50.80
48.86
47.15
46.81
48.36
51.54
55.46
59.01
61.37
62.19
61.60
60.07
58.07
55.86
53.08
48.60
40.64
27.55
8.82
-13.67
-35.65
-51.69
-57.41
-51.65
-37.39
-20.62
-7.66
-2.59
-5.75
-13.88
-21.55
-23.27
-15.31
2.82
28.03
54.25
74.24
81.97
74.69
53.96
24.95
-5.53
-31.37
-48.84
-57.13
-57.80
-53.85
-48.46
-44.04
-41.47
-40.04
-37.98
-33.75
-27.40
-20.95
-17.29
-18.66
-25.14
-34.46
-43.16
-48.34
-48.93
-45.63
-39.86
-32.43
-22.91
-10.01
7.28
28.54
51.42
72.10
86.53
92.02
88.47
78.62
67.10
58.58
55.81
58.54
63.70
66.70
63.12
49.88
25.35
-11.06
-58.87
-115.64
-175.98
-231.79
-274.32
-297.51
-300.52
-287.86
-266.64
-242.42
-216.09
-183.58
-138.51
-76.16
3.11
92.91
182.44
259.61
314.59
342.24
342.87
321.48
285.78
243.58
200.49
158.88
118.03
75.35
27.86
-26.18
-85.88
-147.02
-202.31
-242.78
-260.10
-249.33
-210.81
-150.73
-79.73
-10.23
46.86
84.88
102.88
105.32
100.00
95.03
95.73
102.74
112.17
117.56
112.73
94.21
62.15
19.62
-28.88
-78.88
-126.59
-168.81
-202.61
-225.34
-235.13
-231.88
-217.76
-196.87
-173.99
-152.75
-134.42
-117.67
-99.60
-77.62
-50.93
-21.23
7.86
32.17
48.46
55.52
54.36
47.72
38.85
30.35
23.26
17.02
10.10
1.12
-10.21
-22.76
-34.46
-43.27
-48.02
-48.73
-46.32
-42.00
-36.86
-31.80
-27.66
-25.36
-25.68
-28.95
-34.65
-41.54
-47.99
-52.64
-54.83
-54.64
-52.72
-49.81
-46.47
-42.85
-38.62
-33.02
-24.94
-13.39
1.83
19.40
36.27
48.52
52.90
48.70
38.56
27.83
22.45
26.41
40.04
60.09
81.28
98.57
108.89
111.60
107.91
99.69
88.72
76.43
64.15
53.29
45.27
41.14
41.18
44.59
49.69
54.43
57.07
56.80
54.00
50.02
46.56
44.96
45.54
47.48
49.22
49.08
45.94
39.59
30.69
20.44
10.11
0.70
-7.20
-13.27
-17.41
-19.61
-20.02
-19.07
-17.50
-16.28
-16.38
-18.49
-22.77
-28.83
-35.78
-42.50
-47.82
-50.82
-50.95
-48.20
-43.08
-36.55
-29.75
-23.77
-19.32
-16.61
-15.40
-15.23
-15.67
-16.53
-17.93
-20.21
-23.71
-28.47
-34.18
-40.20
-45.85
-50.73
-55.01
-59.38
-64.69
-71.56
-79.97
-89.23
-98.28
-106.08
-112.10
-116.49
-120.04
-123.80
-128.60
-134.63
-141.00
-145.68
-145.80
-138.36
-121.01
-92.90
-55.14
-10.88
35.11
77.17
109.86
129.33
134.56
127.97
114.88
101.78
94.03
93.91
100.23
109.57
118.60
125.89
132.24
139.49
148.60
158.64
167.20
172.01
172.55
170.38
168.05
167.15
167.02
164.89
157.35
142.30
120.12
93.61
66.70
42.93
24.34
11.27
2.80
-2.61
-6.41
-9.62
-12.73
-15.77
-18.47
-20.50
-21.71
-22.16
-22.16
-22.05
-22.10
-22.37
-22.79
-23.24
-23.72
-24.35
-25.30
-26.63
-28.19
-29.59
-30.36
-30.10
-28.67
-26.36
-23.74
-21.49
-20.12
-19.81
-20.33
-21.31
-22.41
-23.51
-24.71
-26.18
-28.04
-30.24
-32.55
-34.68
-36.29
-37.07
-36.71
-34.94
-31.62
-26.76
-20.62
-13.68
-6.53
0.21
6.08
10.81
14.38
17.01
19.03
20.72
22.25
23.58
24.54
25.02
24.96
24.41
23.38
21.86
19.74
16.92
13.48
9.63
5.74
2.10
-1.12
-3.97
-6.62
-9.17
-11.62
-13.75
-15.19
-15.51
-14.38
-11.77
-8.03
-3.80
0.15
3.24
5.25
6.34
6.87
7.14
7.24
7.07
6.45
5.34
3.93
2.60
1.71
1.49
1.94
2.86
3.89
4.63
4.76
4.03
2.40
-0.00
-2.90
-5.93
-8.79
-11.24
-13.24
-14.85
-16.24
-17.64
-19.36
-21.72
-24.98
-29.13
-33.80
-38.19
-41.38
-42.62
-41.73
-39.21
-36.09
-33.44
-32.01
-31.97
-32.98
-34.56
-36.24
-37.78
-39.03
-39.79
-39.68
-38.26
-35.18
-30.40
-24.25
-17.36
-10.49
-4.31
0.76
4.63
7.46
9.60
11.46
13.48
16.04
19.50
24.01
29.53
35.70
41.87
47.17
50.71
51.75
49.89
45.25
38.53
30.92
23.90
18.88
16.82
17.91
21.48
26.19
30.42
32.78
32.52
29.69
25.11
19.99
15.55
12.62
11.46
11.71
12.52
12.86
11.79
8.71
3.58
-3.11
-10.41
-17.20
-22.48
-25.63
-26.53
-25.52
-23.16
-20.05
-16.58
-12.94
-9.17
-5.32
-1.62
1.53
3.73
4.75
4.71
4.09
3.51
3.45
4.09
5.27
6.70
8.17
9.72
11.50
13.58
15.79
17.59
18.35
17.61
15.34
12.02
8.46
5.47
3.61
3.02
3.39
4.19
4.84
4.87
4.02
2.30
-0.09
-2.87
-5.71
-8.39
-10.77
-12.81
-14.56
-16.09
-17.50
-18.82
-20.04
-20.98
-21.38
-20.91
-19.32
-16.54
-12.78
-8.44
-4.05
-0.11
3.05
5.32
6.80
7.65
8.01
7.94
7.41
6.41
5.00
3.42
1.96
0.88
0.33
0.24
0.36
0.43
0.24
-0.32
-1.30
-2.73
-4.72
-7.38
-10.74
-14.70
-19.02
-23.36
-27.45
-31.11
-34.34
-37.21
-39.85
-42.28
-44.37
-45.76
-45.89
-44.14
-40.01
-33.39
-24.56
-14.23
-3.31
7.29
16.89
25.08
31.66
36.54
39.65
40.94
40.50
38.58
35.68
32.44
29.64
27.86
27.33
27.83
28.80
29.62
29.77
28.97
27.15
24.59
21.66
18.70
15.92
13.31
10.72
7.82
4.35
0.19
-4.25
-8.36
-11.69
-14.24
-16.47
-19.01
-22.31
-26.33
-30.47
-33.00
-32.29
-27.66
-19.96
-11.30
-4.27
-1.05
-2.76
-9.14
-17.16
-23.20
-24.70
-21.46
-15.50
-9.88
-7.70
-11.21
-21.27
-34.63
-46.41
-51.54
-46.16
-27.86
4.04
47.48
97.04
144.78
185.74
217.76
241.83
260.90
279.09
300.35
327.04
359.18
375.56
359.18
304.81
223.95
136.07
56.82
-6.70
-54.33
-89.58
-117.31
-138.76
-153.55
-160.19
-160.04
-155.75
-150.49
-147.35
-148.28
-153.47
-158.64
-158.22
-148.03
-127.66
-100.01
-68.80
-38.92
-14.46
2.37
13.31
22.24
33.52
50.08
72.84
100.63
130.29
157.53
177.65
187.22
183.95
166.79
136.18
94.74
47.86
2.88
-32.76
-54.15
-60.77
-57.07
-50.54
-48.34
-53.87
-65.56
-77.83
-84.02
-79.91
-65.76
-46.41
-29.65
-23.44
-32.80
-57.37
-90.91
-122.90
-142.25
-141.58
-120.34
-85.42
-48.55
-21.83
-13.02
-22.60
-43.74
-64.85
-73.91
-62.86
-30.43
17.36
69.35
113.13
138.98
142.46
124.78
91.14
47.93
0.80
-45.95
-89.11
-125.97
-154.05
-171.44
-177.27
-171.92
-156.84
-134.00
-105.54
-73.67
-40.79
-9.44
17.74
38.32
50.49
53.36
47.29
33.95
16.10
-2.94
-20.02
-32.95
-41.06
-45.15
-47.04
-48.69
-51.40
-55.42
-59.91
-63.50
-64.88
-63.37
-59.20
-53.35
-47.15
-41.74
-37.72
-34.97
-32.79
-30.27
-26.66
-21.63
-15.32
-8.25
-1.04
5.67
11.43
16.00
19.29
21.35
22.19
21.67
19.58
15.74
10.28
3.94
-2.02
-6.09
-7.11
-4.70
0.51
7.08
13.31
17.78
19.75
19.13
16.29
11.80
6.19
0.03
-6.00
-11.08
-14.40
-15.36
-13.78
-9.94
-4.46
1.99
8.87
15.86
22.72
29.07
34.39
38.00
39.37
38.45
35.75
32.24
29.02
26.91
26.16
26.47
27.11
27.27
26.35
24.07
20.52
16.09
11.34
6.84
3.08
0.29
-1.50
-2.48
-2.99
-3.44
-4.28
-6.03
-9.16
-13.98
-20.41
-27.78
-34.91
-40.38
-42.98
-42.15
-38.09
-31.66
-24.01
-16.22
-9.05
-2.91
2.02
5.68
8.02
9.07
9.00
8.12
6.82
5.49
4.35
3.44
2.66
1.93
1.26
0.82
0.86
1.49
2.56
3.64
4.11
3.39
1.13
-2.75
-8.06
-14.38
-21.17
-27.66
-32.98
-36.27
-36.94
-34.91
-30.60
-24.81
-18.45
-12.21
-6.43
-1.15
3.82
8.79
14.04
19.65
25.36
30.46
33.93
34.82
32.76
28.26
22.69
17.78
14.96
14.93
17.61
22.50
29.15
37.31
46.72
56.69
65.75
71.74
72.32
65.87
52.06
32.12
8.59
-15.28
-36.17
-51.28
-58.63
-57.33
-47.65
-31.01
-9.84
12.80
33.77
50.40
60.89
64.57
61.84
53.89
42.44
29.41
16.64
5.62
-2.58
-7.50
-9.21
-8.26
-5.51
-1.94
1.54
4.27
5.89
6.38
5.93
4.80
3.21
1.30
-0.86
-3.15
-5.40
-7.38
-8.82
-9.59
-9.66
-9.14
-8.27
-7.30
-6.37
-5.52
-4.60
-3.43
-1.84
0.13
2.18
3.79
4.50
4.02
2.47
0.35
-1.69
-3.08
-3.62
-3.57
-3.55
-4.28
-6.18
-9.13
-12.44
-15.02
-15.83
-14.23
-10.36
-5.05
0.28
4.04
4.88
2.06
-4.29
-13.09
-22.51
-30.31
-34.43
-33.55
-27.45
-17.09
-4.28
8.73
19.83
27.47
30.82
29.86
25.30
18.39
10.68
3.70
-1.40
-4.04
-4.32
-2.88
-0.62
1.60
3.14
3.69
3.26
2.04
0.33
-1.63
-3.70
-5.94
-8.48
-11.51
-15.07
-18.94
-22.64
-25.49
-26.82
-26.25
-23.79
-19.82
-14.95
-9.76
-4.71
-0.07
3.99
7.31
9.67
10.89
10.97
10.12
8.82
7.63
6.99
7.12
7.94
9.13
10.27
10.95
10.88
9.97
8.32
6.17
3.84
1.61
-0.42
-2.24
-3.99
-5.84
-7.85
-10.06
-12.38
-14.73
-16.93
-18.78
-19.96
-20.14
-19.01
-16.37
-12.21
-6.77
-0.45
6.15
12.41
17.71
21.61
23.85
24.49
23.86
22.43
20.72
19.13
17.85
16.92
16.30
15.86
15.48
15.07
14.48
13.58
12.30
10.57
8.45
6.05
3.52
0.98
-1.54
-4.09
-6.77
-9.60
-12.55
-15.45
-18.07
-20.12
-21.33
-21.42
-20.18
-17.47
-13.33
-7.98
-1.90
4.30
9.97
14.56
17.79
19.63
20.30
20.12
19.42
18.49
17.51
16.62
15.89
15.38
15.09
14.92
14.70
14.22
13.33
11.96
10.17
8.10
5.89
3.64
1.39
-0.86
-3.13
-5.41
-7.73
-10.13
-12.63
-15.21
-17.79
-20.14
-22.00
-23.02
-22.88
-21.32
-18.19
-13.56
-7.74
-1.27
5.17
10.86
15.29
18.16
19.50
19.57
18.77
17.56
16.37
15.52
15.19
15.31
15.68
16.01
16.04
15.69
14.99
14.04
12.92
11.61
10.03
8.15
6.01
3.74
1.46
-0.79
-3.07
-5.51
-8.22
-11.23
-14.47
-17.77
-20.92
-23.65
-25.64
-26.56
-26.15
-24.24
-20.86
-16.18
-10.53
-4.33
1.91
7.63
12.29
15.46
17.01
17.15
16.34
15.13
13.98
13.14
12.66
12.48
12.55
12.81
13.18
13.52
13.61
13.18
12.10
10.39
8.23
5.91
3.66
1.60
-0.28
-2.05
-3.84
-5.75
-7.86
-10.27
-13.04
-16.16
-19.43
-22.43
-24.60
-25.34
-24.31
-21.44
-16.97
-11.39
-5.23
0.99
6.82
11.83
15.69
18.18
19.23
19.05
18.01
16.61
15.27
14.30
13.78
13.64
13.73
13.88
13.95
13.83
13.40
12.58
11.31
9.62
7.63
5.48
3.29
1.07
-1.19
-3.56
-6.05
-8.61
-11.21
-13.87
-16.62
-19.50
-22.38
-24.92
-26.59
-26.83
-25.20
-21.58
-16.28
-9.92
-3.35
2.61
7.37
10.63
12.40
12.96
12.67
11.90
10.96
10.11
9.52
9.28
9.37
9.70
10.10
10.42
10.53
10.35
9.85
9.02
7.87
6.45
4.84
3.12
1.40
-0.26
-1.87
-3.52
-5.34
-7.45
-9.95
-12.82
-15.93
-19.04
-21.74
-23.57
-24.09
-22.94
-19.96
-15.25
-9.22
-2.51
4.09
9.77
13.96
16.38
17.15
16.66
15.48
14.13
12.98
12.16
11.65
11.33
11.06
10.80
10.51
10.19
9.77
9.15
8.21
6.85
5.08
3.01
0.78
-1.43
-3.53
-5.55
-7.54
-9.64
-11.94
-14.55
-17.49
-20.70
-24.00
-27.07
-29.56
-31.10
-31.40
-30.24
-27.58
-23.51
-18.33
-12.56
-6.83
-1.81
1.98
4.24
4.92
4.21
2.48
0.20
-2.06
-3.72
-4.23
-3.26
-0.76
3.01
7.57
12.32
16.66
20.03
21.95
22.14
20.52
17.28
12.86
7.79
2.50
-2.73
-7.93
-13.24
-18.82
-24.72
-30.77
-36.57
-41.61
-45.42
-47.71
-48.53
-48.29
-47.58
-46.80
-45.89
-44.09
-40.09
-32.47
-20.18
-3.12
17.76
40.51
62.66
81.72
95.76
103.73
105.62
102.39
95.63
87.23
78.88
71.79
66.50
62.94
60.57
58.72
56.78
54.45
51.72
48.85
46.12
43.66
41.25
38.30
34.02
27.70
19.02
8.26
-3.67
-15.41
-25.49
-32.73
-36.51
-36.90
-34.58
-30.58
-26.07
-22.04
-19.15
-17.68
-17.50
-18.23
-19.26
-19.92
-19.56
-17.69
-14.19
-9.32
-3.76
1.46
5.26
6.80
5.74
2.47
-2.07
-6.69
-10.54
-13.55
-16.49
-20.72
-27.46
-37.06
-48.68
-60.35
-69.58
-74.03
-72.16
-63.63
-49.41
-31.68
-13.49
1.94
12.02
15.54
12.96
6.06
-2.87
-11.98
-20.37
-28.11
-35.64
-43.20
-50.51
-56.82
-61.31
-63.50
-63.44
-61.60
-58.61
-55.05
-51.25
-47.27
-43.04
-38.39
-33.19
-27.30
-20.65
-13.24
-5.28
2.66
9.62
14.48
16.26
14.64
10.17
4.13
-1.79
-6.04
-7.50
-5.62
-0.38
7.71
17.73
28.33
37.94
45.14
49.01
49.44
47.11
43.22
38.97
35.21
32.33
30.29
28.97
28.26
28.17
28.74
29.94
31.58
33.31
34.67
35.16
34.38
31.97
27.84
22.09
15.13
7.58
0.07
-6.88
-12.97
-18.03
-21.84
-24.08
-24.35
-22.47
-18.55
-13.16
-7.05
-0.90
4.79
9.77
13.83
16.73
18.23
18.29
17.22
15.60
14.15
13.39
13.48
14.30
15.60
17.20
18.98
20.85
22.56
23.64
23.51
21.71
18.28
13.90
9.83
7.56
8.23
12.13
18.39
25.18
30.32
32.22
30.57
26.59
22.71
21.64
25.29
34.00
46.36
59.67
70.96
77.98
79.94
77.59
72.83
67.90
64.63
63.86
65.33
67.89
69.88
69.67
65.89
57.61
44.33
25.98
2.89
-24.12
-53.81
-84.64
-115.06
-143.71
-169.68
-192.36
-211.40
-226.53
-237.61
-244.64
-247.87
-247.71
-244.68
-239.20
-231.45
-221.45
-209.07
-194.21
-176.90
-157.31
-135.72
-112.54
-88.24
-63.42
-38.90
-15.65
5.36
23.48
38.78
52.09
64.71
77.71
91.29
104.68
116.54
125.66
131.53
134.34
134.59
132.67
128.64
122.61
115.25
107.89
102.18
99.29
99.30
101.15
103.17
103.88
102.51
99.04
93.85
87.32
79.73
71.24
62.02
52.35
42.46
32.44
22.21
11.65
0.95
-9.19
-17.55
-22.64
-23.28
-19.10
-10.91
-0.61
9.36
16.84
20.60
20.67
18.12
14.46
10.99
8.41
6.78
5.77
4.96
4.03
2.81
1.30
-0.44
-2.26
-4.03
-5.60
-6.98
-8.28
-9.69
-11.38
-13.43
-15.79
-18.34
-20.94
-23.43
-25.66
-27.54
-29.06
-30.36
-31.71
-33.39
-35.56
-38.09
-40.61
-42.55
-43.30
-42.33
-39.27
-33.97
-26.52
-17.38
-7.34
2.58
11.41
18.45
23.54
27.02
29.57
31.87
34.42
37.36
40.56
43.73
46.60
49.01
51.01
52.81
54.70
56.96
59.69
62.82
66.09
69.05
71.15
71.86
70.83
68.06
63.99
59.43
55.46
53.07
52.93
55.17
59.37
64.62
69.89
74.25
77.20
78.65
78.91
78.39
77.37
75.80
73.29
69.14
62.50
52.59
38.94
21.58
1.21
-20.85
-42.91
-63.31
-80.82
-94.80
-105.15
-112.10
-115.96
-117.04
-115.73
-112.59
-108.29
-103.54
-98.92
-94.72
-90.93
-87.36
-83.70
-79.68
-75.11
-70.06
-64.75
-59.56
-54.84
-50.72
-46.99
-43.10
-38.38
-32.23
-24.49
-15.49
-5.99
3.16
11.33
18.29
24.12
28.90
32.45
34.26
33.61
30.07
23.77
15.59
6.87
-0.95
-6.83
-10.32
-11.60
-11.17
-9.63
-7.52
-5.39
-3.94
-4.19
-7.44
-14.86
-26.95
-42.90
-60.45
-76.31
-87.14
-90.60
-86.00
-74.30
-57.43
-37.49
-16.21
5.09
25.21
42.76
56.19
64.09
65.77
61.54
52.65
40.84
27.82
14.92
3.08
-7.10
-15.14
-20.68
-23.62
-24.21
-23.09
-21.17
-19.30
-18.03
-17.54
-17.62
-17.94
-18.17
-18.13
-17.78
-17.20
-16.60
-16.22
-16.29
-16.86
-17.73
-18.45
-18.42
-17.14
-14.33
-10.14
-5.04
0.24
5.00
8.73
11.28
12.84
13.88
14.81
15.81
16.69
16.91
15.87
13.14
8.72
3.04
-3.21
-9.23
-14.40
-18.31
-20.74
-21.70
-21.32
-19.93
-17.99
-16.08
-14.78
-14.48
-15.29
-16.99
-19.04
-20.74
-21.44
-20.67
-18.28
-14.45
-9.62
-4.33
0.87
5.60
9.58
12.60
14.52
15.20
14.57
12.69
9.78
6.17
2.33
-1.21
-3.93
-5.33
-5.10
-3.16
0.21
4.40
8.58
11.91
13.76
13.88
12.42
9.87
6.90
4.15
2.12
1.10
1.18
2.26
4.14
6.55
9.16
11.64
13.69
15.07
15.68
15.57
14.92
14.04
13.27
12.86
12.96
13.54
14.49
15.62
16.78
17.89
18.98
20.10
21.34
22.74
24.31
26.04
27.87
29.76
31.63
33.45
35.19
36.88
38.62
40.57
42.89
45.70
49.08
53.02
57.48
62.42
67.83
73.71
80.10
87.01
94.37
101.89
108.92
114.39
116.87
114.90
107.37
93.94
75.21
52.51
27.50
1.77
-23.35
-46.70
-67.26
-84.05
-96.43
-104.46
-109.13
-112.26
-116.03
-122.21
-131.59
-143.75
-157.28
-170.26
-180.81
-187.38
-188.95
-185.03
-175.65
-161.46
-143.73
-124.23
-105.01
-87.93
-74.20
-64.12
-57.13
-52.11
-47.85
-43.47
-38.66
-33.55
-28.59
-24.17
-20.54
-17.76
-15.84
-14.75
-14.41
-14.54
-14.64
-14.07
-12.23
-8.79
-3.76
2.59
9.92
17.90
26.29
34.79
42.99
50.42
56.63
61.36
64.60
66.56
67.53
67.82
67.66
67.23
66.58
65.66
64.25
62.10
59.01
55.02
50.36
45.46
40.72
36.42
32.63
29.24
26.01
22.65
19.00
15.03
10.96
7.16
4.08
2.02
1.07
1.05
1.64
2.47
3.31
4.02
4.58
4.98
5.20
5.18
4.86
4.20
3.21
1.93
0.45
-1.10
-2.59
-3.84
-4.70
-5.11
-5.11
-4.86
-4.58
-4.49
-4.76
-5.51
-6.77
-8.49
-10.55
-12.70
-14.58
-15.79
-15.97
-14.93
-12.73
-9.64
-6.05
-2.36
1.12
4.18
6.66
8.46
9.56
9.95
9.77
9.18
8.40
7.60
6.89
6.34
5.95
5.68
5.43
5.11
4.64
3.95
3.06
1.99
0.80
-0.47
-1.83
-3.21
-4.55
-5.66
-6.33
-6.35
-5.58
-4.02
-1.79
0.88
3.69
6.33
8.51
9.99
10.65
10.49
9.66
8.38
6.93
5.57
4.45
3.63
3.09
2.76
2.58
2.44
2.26
1.93
1.33
0.42
-0.78
-2.14
-3.51
-4.75
-5.81
-6.63
-7.19
-7.40
-7.08
-6.06
-4.21
-1.54
1.72
5.22
8.49
11.13
12.88
13.66
13.59
12.93
11.92
10.72
9.44
8.12
6.87
5.82
5.11
4.80
4.77
4.77
4.51
3.85
2.81
1.56
0.34
-0.74
-1.76
-2.91
-4.35
-6.06
-7.76
-9.03
-9.41
-8.62
-6.63
-3.68
-0.21
3.30
6.43
8.91
10.59
11.48
11.59
11.02
9.84
8.19
6.29
4.36
2.66
1.37
0.52
-0.00
-0.43
-1.04
-2.01
-3.40
-5.07
-6.80
-8.35
-9.61
-10.61
-11.50
-12.42
-13.41
-14.31
-14.81
-14.54
-13.24
-10.80
-7.34
-3.14
1.44
6.00
10.19
13.62
16.01
17.17
17.06
15.84
13.79
11.29
8.70
6.26
4.17
2.50
1.28
0.49
0.01
-0.29
-0.57
-0.91
-1.28
-1.60
-1.77
-1.81
-1.88
-2.19
-2.93
-4.10
-5.50
-6.73
-7.35
-7.01
-5.55
-3.10
0.04
3.43
6.64
9.34
11.34
12.59
13.13
13.03
12.38
11.27
9.82
8.22
6.66
5.35
4.42
3.93
3.81
3.88
3.90
3.66
3.05
2.09
0.88
-0.44
-1.80
-3.23
-4.80
-6.57
-8.50
-10.36
-11.84
-12.52
-12.07
-10.31
-7.29
-3.30
1.18
5.60
9.46
12.40
14.21
14.84
14.35
12.93
10.89
8.63
6.60
5.13
4.37
4.22
4.42
4.62
4.57
4.08
3.13
1.71
-0.10
-2.21
-4.51
-6.79
-8.91
-10.74
-12.25
-13.48
-14.44
-15.07
-15.18
-14.52
-12.88
-10.20
-6.63
-2.54
1.62
5.48
8.72
11.15
12.63
13.09
12.54
11.16
9.24
7.18
5.41
4.29
3.97
4.33
5.03
5.62
5.75
5.21
4.06
2.62
1.34
0.51
0.10
-0.23
-0.99
-2.61
-5.22
-8.55
-11.80
-13.93
-14.16
-12.39
-9.17
-5.31
-1.49
1.85
4.67
7.52
11.05
15.41
19.94
23.46
25.05
24.40
21.49
16.33
9.44
1.52
-6.62
-14.10
-19.97
-22.87
-21.89
-17.57
-12.05
-7.34
-4.12
-1.16
4.22
14.88
32.57
56.39
82.10
98.74
95.73
70.00
29.04
-15.14
-54.25
-85.30
-107.75
-120.28
-119.73
-102.40
-68.02
-23.16
22.65
58.17
75.86
74.88
60.37
40.11
21.26
7.70
-0.36
-4.82
-7.65
-9.73
-10.11
-8.05
-4.17
0.05
2.82
2.66
-1.58
-11.47
-28.84
-55.25
-91.09
-134.11
-178.51
-216.07
-238.61
-240.82
-222.16
-186.18
-138.09
-82.41
-21.59
43.13
109.48
172.15
223.01
253.89
260.72
246.34
219.97
193.29
175.33
168.86
170.18
172.36
169.61
160.24
146.65
132.76
120.94
110.46
98.40
81.97
60.78
37.50
16.77
2.83
-2.52
-0.68
4.47
8.33
7.56
1.20
-9.17
-20.47
-29.62
-34.81
-36.12
-35.18
-34.24
-34.95
-37.71
-41.56
-44.93
-46.63
-46.81
-47.13
-50.06
-57.64
-70.27
-86.36
-102.90
-116.86
-126.52
-132.09
-135.28
-138.22
-142.35
-147.73
-153.25
-157.30
-158.63
-156.87
-152.50
-146.47
-139.46
-131.32
-120.81
-105.87
-84.44
-55.57
-20.30
18.29
55.98
88.92
115.05
134.78
150.39
164.75
179.82
195.75
210.96
222.93
229.28
228.62
220.93
207.75
192.10
178.17
170.63
173.28
187.56
211.52
240.08
266.86
286.92
299.03
306.09
313.27
324.79
341.16
358.54
370.66
372.04
360.78
339.13
311.88
283.65
256.75
230.91
204.67
177.36
150.13
125.54
105.95
91.93
81.54
71.09
56.76
36.36
10.19
-19.29
-48.74
-75.66
-99.57
-122.20
-146.64
-175.76
-210.88
-251.02
-293.54
-335.09
-373.23
-407.29
-438.44
-469.24
-502.79
-542.18
-589.57
-645.09
-705.80
-765.37
-815.08
-846.23
-853.21
-835.54
-798.22
-749.24
-696.28
-644.05
-593.55
-543.55
-492.75
-441.39
-391.20
-344.36
-301.61
-261.51
-220.96
-176.85
-127.62
-73.97
-18.61
35.12
83.86
126.20
163.31
198.66
236.83
282.04
336.80
400.63
469.44
533.92
582.97
606.99
601.21
567.01
511.04
442.83
371.48
303.20
237.33
170.34
98.70
21.79
-57.47
-133.40
-198.60
-245.37
-266.78
-262.29
-235.26
-192.53
-142.99
-96.54
-62.37
-46.50
-50.43
-52.68
-37.97
-2.31
43.67
84.72
111.34
122.37
122.85
117.45
114.57
114.80
115.03
111.15
100.56
82.45
57.04
27.01
-5.84
-38.58
-70.72
-101.29
-128.97
-152.52
-171.89
-188.53
-204.03
-218.54
-229.04
-232.38
-225.17
-205.59
-174.30
-134.31
-89.60
-42.98
4.69
54.51
106.39
158.78
208.76
253.57
292.24
326.62
360.88
399.49
445.00
495.58
545.28
585.85
609.53
611.68
592.02
554.23
504.26
448.35
391.06
334.52
278.63
221.69
161.29
95.10
22.10
-56.16
-134.58
-204.49
-255.33
-277.71
-267.01
-225.90
-164.66
-98.57
-43.33
-10.22
-3.13
-18.37
-47.17
-79.54
-107.45
-126.57
-135.91
-136.60
-130.46
-119.39
-105.38
-90.81
-78.50
-70.89
-69.16
-72.45
-78.11
-82.61
-82.83
-77.32
-66.67
-53.09
-39.48
-28.29
-20.78
-16.78
-15.05
-14.02
-12.57
-10.51
-8.49
-7.59
-8.58
-11.47
-15.43
-19.11
-21.27
-21.25
-19.11
-15.52
-11.33
-7.20
-3.46
-0.16
2.75
5.20
6.97
7.69
6.99
4.64
0.67
-4.68
-10.87
-17.21
-22.87
-26.97
-28.79
-27.81
-23.98
-17.69
-9.77
-1.37
6.24
11.87
14.56
13.81
9.69
3.02
-4.75
-11.82
-16.47
-17.56
-14.94
-9.44
-2.51
4.19
9.30
12.04
12.27
10.27
6.62
1.95
-3.23
-8.58
-13.90
-19.16
-24.36
-29.34
-33.76
-37.11
-38.92
-38.96
-37.11
-33.36
-27.78
-20.63
-12.44
-4.08
3.36
8.84
11.83
12.66
12.58
13.09
15.19
18.88
23.12
26.29
26.90
24.22
19.09
13.76
10.63
11.09
14.83
20.11
24.50
25.64
22.12
14.79
6.65
1.06
0.11
3.88
10.97
19.20
26.03
29.14
28.33
25.84
25.04
29.40
41.63
63.38
93.45
125.68
149.03
152.32
129.40
81.54
17.99
-46.73
-97.29
-120.45
-107.96
-67.91
-20.21
18.56
42.19
54.58
58.72
54.57
41.21
18.27
-13.46
-50.87
-87.48
-118.37
-141.96
-158.89
-168.97
-170.22
-160.22
-138.50
-106.72
-68.63
-30.33
1.54
21.77
28.80
24.54
12.83
-2.42
-17.43
-28.90
-35.10
-36.08
-33.43
-29.61
-27.63
-30.59
-40.80
-58.28
-80.41
-102.96
-121.52
-132.55
-133.68
-123.43
-101.10
-66.92
-22.51
28.48
80.46
127.14
163.57
187.76
200.88
205.84
205.31
200.23
189.76
172.62
148.73
120.30
91.46
66.76
49.40
40.02
36.75
36.29
35.32
31.63
24.54
14.67
3.18
-8.75
-20.30
-30.89
-39.98
-46.96
-51.21
-52.39
-50.74
-47.12
-42.85
-39.32
-37.57
-38.06
-40.56
-44.31
-48.24
-51.24
-52.38
-51.11
-47.31
-41.29
-33.66
-25.12
-16.34
-7.79
0.23
7.52
13.85
18.93
22.44
24.14
24.04
22.47
20.01
17.38
15.17
13.76
13.22
13.46
14.27
15.50
16.98
18.55
19.95
20.86
20.95
19.98
17.96
15.03
11.50
7.74
4.18
1.28
-0.54
-0.90
0.30
2.91
6.56
10.76
15.20
19.81
24.82
30.65
37.68
46.05
55.47
65.17
73.98
80.65
84.12
83.80
79.58
71.67
60.40
46.10
29.18
10.38
-9.22
-28.36
-46.01
-61.77
-75.88
-88.95
-101.30
-112.67
-122.06
-128.16
-129.78
-126.27
-117.62
-104.39
-87.54
-68.30
-48.16
-28.72
-11.57
1.98
11.10
15.57
15.68
12.15
5.82
-2.42
-11.71
-21.19
-29.90
-36.72
-40.54
-40.49
-36.17
-28.00
-17.23
-5.81
4.00
10.14
11.15
6.59
-3.01
-16.22
-31.00
-45.12
-56.43
-63.26
-64.66
-60.55
-51.67
-39.41
-25.43
-11.40
1.31
11.77
19.41
24.09
25.87
25.12
22.39
18.49
14.32
10.86
8.98
9.26
11.92
16.68
22.81
29.21
34.66
38.04
38.63
36.21
31.09
23.93
15.60
6.90
-1.50
-9.15
-15.75
-21.15
-25.34
-28.43
-30.58
-31.97
-32.62
-32.32
-30.67
-27.23
-21.72
-14.20
-5.14
4.71
14.47
23.34
30.75
36.34
39.94
41.46
40.90
38.36
34.18
28.98
23.61
18.98
15.80
14.35
14.36
15.11
15.65
15.05
12.74
8.63
3.20
-2.58
-7.43
-10.14
-9.82
-6.27
-0.11
7.33
14.28
19.09
20.72
19.14
15.39
11.17
8.33
8.06
10.57
15.04
20.05
24.14
26.30
26.19
24.02
20.32
15.74
10.88
6.29
2.37
-0.63
-2.69
-4.07
-5.09
-6.04
-7.00
-7.83
-8.29
-8.21
-7.57
-6.52
-5.29
-4.08
-2.98
-1.96
-0.95
0.14
1.36
2.78
4.46
6.53
9.12
12.28
15.83
19.35
22.19
23.62
23.08
20.46
16.19
11.15
6.33
2.53
0.14
-0.90
-0.87
-0.01
1.57
3.79
6.50
9.22
11.24
11.82
10.50
7.34
2.84
-2.23
-7.10
-11.15
-13.98
-15.34
-15.11
-13.30
-10.08
-5.82
-1.01
3.80
8.13
11.64
14.12
15.50
15.80
15.17
13.86
12.18
10.39
8.66
7.04
5.48
3.96
2.51
1.23
0.28
-0.25
-0.38
-0.23
0.00
0.10
-0.06
-0.55
-1.39
-2.60
-4.24
-6.38
-9.05
-12.20
-15.56
-18.72
-21.21
-22.56
-22.43
-20.63
-17.20
-12.38
-6.58
-0.37
5.64
10.92
15.17
18.25
20.24
21.26
21.47
20.96
19.82
18.21
16.34
14.50
12.93
11.78
11.03
10.55
10.08
9.35
8.14
6.33
3.93
1.07
-2.03
-5.15
-8.14
-10.98
-13.71
-16.39
-19.00
-21.40
-23.37
-24.62
-24.84
-23.80
-21.39
-17.66
-12.84
-7.37
-1.75
3.48
7.91
11.27
13.46
14.49
14.44
13.50
11.91
10.03
8.22
6.79
5.94
5.72
6.00
6.57
7.12
7.32
6.92
5.76
3.90
1.57
-0.93
-3.31
-5.41
-7.21
-8.82
-10.41
-12.18
-14.21
-16.43
-18.58
-20.19
-20.71
-19.68
-16.85
-12.35
-6.63
-0.33
5.80
11.12
15.14
17.56
18.36
17.73
16.09
13.95
11.85
10.20
9.19
8.77
8.76
8.85
8.79
8.37
7.47
6.07
4.22
2.04
-0.31
-2.65
-4.85
-6.85
-8.64
-10.26
-11.75
-13.16
-14.50
-15.70
-16.64
-17.09
-16.79
-15.44
-12.86
-9.07
-4.39
0.64
5.43
9.48
12.55
14.60
15.75
16.15
15.89
15.03
13.67
12.01
10.37
9.07
8.32
8.15
8.35
8.59
8.51
7.84
6.42
4.30
1.66
-1.18
-3.86
-6.11
-7.79
-8.95
-9.80
-10.65
-11.78
-13.34
-15.33
-17.47
-19.26
-20.08
-19.38
-16.87
-12.78
-7.77
-2.74
1.59
4.89
7.35
9.36
11.30
13.21
14.85
15.84
15.90
15.00
13.37
11.40
9.50
7.96
6.95
6.44
6.26
6.13
5.75
4.95
3.69
2.02
0.04
-2.19
-4.63
-7.24
-9.95
-12.61
-15.11
-17.36
-19.30
-20.84
-21.81
-21.90
-20.81
-18.32
-14.44
-9.48
-3.98
1.44
6.23
10.03
12.73
14.45
15.43
15.88
15.93
15.65
15.07
14.28
13.44
12.71
12.23
11.98
11.82
11.56
11.04
10.21
9.11
7.84
6.44
4.98
3.54
2.24
1.29
0.87
1.15
2.12
3.63
5.43
7.33
9.34
11.75
14.98
19.52
25.71
33.51
42.32
51.17
59.02
65.15
69.36
72.04
74.03
76.30
79.33
82.72
85.38
86.10
84.07
79.29
72.37
64.31
56.14
48.29
40.66
33.06
25.67
18.79
12.38
5.14
-4.80
-18.86
-37.11
-57.75
-77.39
-92.46
-101.36
-103.66
-102.44
-102.66
-107.04
-114.43
-121.42
-124.88
-124.01
-120.50
-117.54
-117.58
-120.21
-122.10
-119.47
-110.70
-97.67
-84.92
-77.28
-76.82
-82.15
-88.80
-91.67
-88.02
-79.08
-69.34
-64.17
-67.62
-82.39
-109.41
-147.97
-195.67
-248.16
-299.10
-341.09
-368.16
-371.61
-349.35
-305.69
-249.01
-188.22
-129.75
-76.24
-27.31
18.64
62.96
105.35
145.38
183.48
220.92
258.81
296.98
333.71
366.39
392.47
409.55
416.28
412.18
397.44
373.17
341.80
307.11
273.57
245.01
223.02
207.02
194.92
184.25
173.21
161.15
148.25
135.07
122.13
109.80
98.74
89.81
83.59
80.03
78.31
77.31
76.08
73.87
70.61
66.94
63.74
61.36
59.41
56.94
52.86
46.28
35.69
20.06
-0.15
-22.70
-44.33
-61.67
-72.16
-74.95
-71.37
-66.09
-64.53
-69.99
-82.50
-99.48
-116.87
-130.54
-137.61
-137.19
-132.37
-127.52
-125.57
-127.33
-132.80
-141.81
-154.38
-170.53
-178.51
-168.55
-140.08
-101.46
-61.45
-24.90
6.80
33.40
54.84
71.30
81.61
83.80
80.43
75.48
71.54
69.62
68.81
67.21
62.87
53.20
36.63
13.06
-10.63
-31.08
-47.53
-61.53
-75.67
-92.05
-112.63
-138.07
-167.73
-200.48
-235.85
-271.95
-304.68
-327.97
-335.79
-325.59
-299.31
-261.94
-218.52
-172.09
-122.42
-68.56
-12.15
40.91
82.06
104.86
109.25
102.20
93.76
91.82
97.85
106.59
109.95
102.08
82.87
57.70
34.28
18.61
12.57
14.17
19.59
25.61
31.08
36.90
44.71
55.21
67.35
78.70
86.74
90.21
89.72
87.40
85.72
86.19
88.65
91.56
92.84
91.02
85.96
78.76
71.11
64.46
59.52
56.24
54.25
53.25
53.33
54.80
57.87
62.28
67.10
71.00
72.74
71.96
69.59
67.92
69.87
77.69
91.56
108.69
123.62
129.70
121.11
94.51
49.70
-10.50
-80.92
-154.73
-224.02
-280.81
-318.41
-332.92
-324.25
-295.86
-252.98
-200.38
-141.18
-77.45
-12.29
48.26
95.24
119.41
115.22
84.09
34.92
-18.65
-63.03
-89.11
-94.68
-83.71
-63.45
-41.07
-21.50
-6.93
2.12
5.54
2.96
-5.85
-20.09
-37.29
-53.31
-63.75
-65.58
-58.27
-44.05
-26.85
-10.62
2.05
10.66
16.38
21.06
26.22
32.28
38.61
43.93
46.98
47.06
44.35
39.80
34.72
30.32
27.32
25.74
25.09
24.57
23.44
21.20
17.74
13.27
8.23
3.16
-1.48
-5.37
-8.49
-11.04
-13.33
-15.66
-18.21
-20.98
-23.98
-27.30
-31.12
-35.60
-40.60
-45.56
-49.57
-51.56
-50.57
-46.04
-37.94
-26.78
-13.70
-0.21
11.95
21.29
26.95
28.92
28.08
25.78
23.41
21.88
21.46
21.78
22.15
21.78
20.09
16.86
12.24
6.71
0.92
-4.50
-9.09
-12.64
-15.15
-16.80
-17.92
-18.96
-20.47
-22.98
-26.85
-32.13
-38.47
-45.17
-51.39
-56.37
-59.64
-61.04
-60.82
-59.45
-57.57
-55.86
-54.90
-55.08
-56.54
-59.24
-63.02
-67.74
-73.37
-79.94
-87.41
-95.56
-103.94
-111.87
-118.73
-123.90
-126.95
-127.60
-125.87
-122.18
-117.42
-112.82
-109.31
-106.84
-103.89
-97.57
-84.62
-62.65
-31.15
8.35
53.08
100.48
149.31
200.05
254.33
313.90
379.37
449.17
519.06
582.46
631.75
660.28
664.52
645.27
607.37
557.81
503.14
447.53
392.24
336.77
280.56
224.22
169.59
118.71
72.51
30.12
-10.99
-54.20
-102.91
-159.65
-224.70
-295.14
-364.52
-424.01
-464.89
-481.76
-474.64
-449.15
-414.38
-379.65
-351.64
-332.86
-321.77
-314.00
-303.88
-286.11
-257.44
-218.13
-172.58
-128.51
-94.51
-76.87
-76.89
-90.40
-109.33
-124.58
-128.96
-119.09
-95.65
-62.47
-25.12
10.64
40.22
61.06
73.05
78.17
79.47
79.85
81.08
83.57
86.71
89.69
91.92
93.23
93.57
92.75
90.45
86.63
81.79
76.97
73.27
71.23
70.43
69.66
67.59
63.45
57.46
50.69
44.46
39.71
36.67
34.89
33.48
31.44
27.97
22.60
15.44
7.08
-1.48
-9.26
-15.62
-20.39
-23.86
-26.29
-27.69
-27.64
-25.60
-21.34
-15.32
-8.59
-2.42
2.29
5.28
6.89
7.68
8.12
8.37
8.39
8.03
7.24
6.11
4.78
3.40
2.06
0.76
-0.63
-2.30
-4.47
-7.33
-10.83
-14.67
-18.24
-20.69
-21.14
-19.02
-14.24
-7.38
0.49
8.08
14.37
18.86
21.59
22.91
23.10
22.34
20.70
18.45
16.17
14.63
14.46
15.83
18.28
21.02
23.25
24.47
24.61
23.94
22.93
22.03
21.61
21.86
22.87
24.52
26.53
28.50
30.10
31.03
31.17
30.48
29.02
26.92
24.37
21.63
18.89
16.23
13.54
10.60
7.15
3.08
-1.55
-6.51
-11.52
-16.36
-20.93
-25.24
-29.33
-33.10
-36.29
-38.40
-38.85
-37.14
-33.11
-27.05
-19.73
-12.14
-5.16
0.64
5.22
8.84
11.86
14.39
16.31
17.32
17.28
16.38
15.14
14.20
14.01
14.60
15.64
16.56
16.93
16.58
15.68
14.50
13.20
11.74
9.90
7.46
4.42
1.01
-2.43
-5.67
-8.79
-12.17
-16.29
-21.40
-27.32
-33.30
-38.29
-41.19
-41.24
-38.23
-32.57
-25.12
-16.93
-8.99
-2.01
3.65
7.96
11.11
13.37
15.06
16.41
17.55
18.49
19.13
19.30
18.89
17.94
16.64
15.30
14.20
13.49
13.08
12.69
11.99
10.69
8.68
6.04
3.01
-0.19
-3.44
-6.86
-10.73
-15.38
-21.10
-27.92
-35.56
-43.42
-50.69
-56.41
-59.70
-59.92
-56.87
-50.85
-42.65
-33.34
-24.00
-15.45
-8.10
-1.92
3.39
8.19
12.68
16.76
20.13
22.41
23.46
23.51
23.09
22.80
23.00
23.63
24.22
24.14
22.92
20.37
16.62
11.94
6.63
0.97
-4.81
-10.50
-15.98
-21.25
-26.45
-31.72
-37.05
-42.16
-46.49
-49.34
-50.05
-48.16
-43.53
-36.36
-27.27
-17.26
-7.61
0.46
6.08
9.00
9.65
8.86
7.59
6.49
5.79
5.36
4.90
4.29
3.60
3.08
2.94
3.20
3.81
4.90
7.07
11.26
18.31
28.44
40.85
53.84
65.41
73.87
78.21
78.08
73.50
64.62
51.77
35.66
17.66
-0.31
-16.14
-28.03
-35.01
-37.06
-35.00
-30.19
-24.19
-18.25
-13.10
-8.73
-4.61
-0.07
5.23
11.00
16.35
20.27
22.05
21.69
19.81
17.32
14.90
12.74
10.55
7.87
4.52
0.74
-2.92
-5.95
-8.22
-10.12
-12.38
-15.73
-20.53
-26.64
-33.52
-40.45
-46.72
-51.75
-55.08
-56.31
-55.12
-51.35
-45.13
-36.95
-27.67
-18.28
-9.71
-2.62
2.68
6.20
8.11
8.60
7.85
6.07
3.63
1.13
-0.66
-0.93
0.83
4.56
9.48
14.20
17.06
16.74
12.80
6.02
-1.74
-7.95
-10.21
-6.87
2.47
16.87
34.17
51.44
65.42
73.28
73.22
65.05
50.36
32.25
14.53
0.82
-6.41
-6.50
-0.66
8.32
16.88
21.78
21.10
14.92
5.16
-5.24
-13.53
-18.44
-20.52
-21.70
-24.03
-28.40
-34.07
-39.05
-41.38
-40.40
-37.30
-34.62
-34.98
-39.84
-48.88
-60.50
-72.75
-84.22
-94.31
-102.86
-109.58
-113.85
-115.04
-113.09
-108.82
-103.54
-98.33
-93.32
-87.49
-79.26
-67.33
-51.44
-32.45
-11.82
8.99
28.95
47.47
64.08
78.18
89.02
96.03
99.09
98.71
95.83
91.59
86.93
82.59
79.00
76.33
74.42
72.69
70.27
66.24
60.14
52.20
43.41
35.02
28.02
22.74
18.87
15.79
12.96
10.16
7.39
4.68
1.91
-0.97
-3.67
-5.26
-4.36
0.41
9.67
22.89
38.45
54.10
67.88
78.74
86.84
93.22
99.12
105.24
111.27
116.02
117.97
116.13
110.70
103.23
96.16
91.82
91.47
94.61
99.08
101.77
99.73
91.10
75.77
55.38
32.81
11.21
-7.03
-21.01
-31.60
-41.09
-52.34
-67.58
-87.46
-110.71
-134.40
-154.97
-169.35
-175.72
-173.51
-162.79
-143.70
-116.32
-80.92
-38.33
9.90
61.77
115.42
169.37
222.42
273.25
320.25
361.72
396.57
424.65
446.49
462.50
472.13
473.82
465.75
447.09
418.65
382.58
341.24
296.14
247.75
196.04
141.50
85.62
30.76
-21.03
-69.07
-114.46
-159.70
-207.90
-261.92
-323.36
-391.46
-462.18
-528.01
-579.18
-606.57
-605.16
-576.39
-528.00
-471.16
-416.24
-369.43
-331.95
-301.66
-275.94
-253.62
-235.07
-220.74
-209.54
-198.52
-184.04
-163.73
-137.82
-109.18
-82.10
-60.35
-45.69
-37.46
-33.26
-30.23
-26.35
-21.12
-15.48
-11.06
-9.24
-10.46
-13.94
-18.03
-20.79
-20.73
-17.23
-10.68
-2.20
6.84
15.27
22.46
28.40
33.52
38.39
43.44
48.73
53.98
58.62
62.06
63.75
63.41
61.01
56.88
51.65
46.18
41.40
38.09
36.58
36.70
37.80
39.00
39.54
38.93
37.09
34.17
30.46
26.23
21.68
16.97
12.14
7.18
2.01
-3.48
-9.31
-15.24
-20.71
-24.89
-26.86
-25.93
-21.90
-15.17
-6.63
2.64
11.65
19.76
26.68
32.38
36.84
39.96
41.60
41.71
40.54
38.59
36.53
34.92
33.99
33.59
33.32
32.78
31.76
30.32
28.64
26.85
24.87
22.43
19.22
15.14
10.44
5.63
1.31
-2.13
-4.65
-6.72
-9.01
-12.24
-16.84
-22.73
-29.31
-35.58
-40.45
-43.04
-42.88
-39.97
-34.67
-27.55
-19.19
-10.15
-0.90
8.12
16.48
23.80
29.79
34.22
37.04
38.29
38.18
37.07
35.40
33.65
32.17
31.11
30.43
30.00
29.71
29.50
29.38
29.27
29.00
28.20
26.52
23.72
19.85
15.25
10.52
6.30
3.03
0.81
-0.62
-1.80
-3.35
-5.79
-9.42
-14.23
-19.94
-25.99
-31.65
-36.12
-38.65
-38.74
-36.30
-31.64
-25.40
-18.36
-11.15
-4.17
2.41
8.54
14.16
19.12
23.19
26.15
27.85
28.29
27.66
26.28
24.55
22.87
21.51
20.60
20.14
20.03
20.13
20.30
20.40
20.23
19.60
18.33
16.33
13.67
10.58
7.37
4.29
1.52
-0.90
-3.03
-4.98
-6.92
-9.06
-11.65
-14.93
-19.00
-23.78
-28.90
-33.74
-37.56
-39.65
-39.57
-37.19
-32.80
-26.96
-20.39
-13.74
-7.51
-1.95
2.91
7.11
10.71
13.65
15.81
17.04
17.30
16.70
15.55
14.27
13.21
12.58
12.37
12.45
12.67
12.92
13.16
13.36
13.45
13.24
12.54
11.23
9.31
6.95
4.44
2.02
-0.15
-2.05
-3.82
-5.70
-7.93
-10.72
-14.11
-17.96
-21.97
-25.64
-28.46
-29.96
-29.85
-28.07
-24.81
-20.42
-15.29
-9.75
-4.03
1.70
7.21
12.21
16.29
19.06
20.34
20.19
18.97
17.23
15.57
14.45
14.09
14.42
15.12
15.80
16.14
15.99
15.44
14.68
13.88
13.08
12.16
10.91
9.20
7.02
4.57
2.08
-0.20
-2.16
-3.79
-5.16
-6.39
-7.62
-9.04
-10.83
-13.12
-15.91
-18.99
-21.99
-24.52
-26.23
-26.93
-26.58
-25.16
-22.68
-19.17
-14.72
-9.58
-4.12
1.25
6.14
10.32
13.65
16.05
17.44
17.75
17.04
15.55
13.72
12.12
11.18
11.11
11.78
12.86
13.89
14.54
14.69
14.36
13.65
12.63
11.30
9.60
7.54
5.24
2.91
0.78
-1.04
-2.56
-3.95
-5.42
-7.13
-9.14
-11.41
-13.85
-16.31
-18.69
-20.91
-22.91
-24.62
-25.91
-26.57
-26.30
-24.81
-21.93
-17.70
-12.42
-6.54
-0.61
4.88
9.52
13.05
15.35
16.44
16.46
15.64
14.34
12.93
11.77
11.08
10.93
11.19
11.64
12.04
12.21
12.08
11.64
10.93
9.96
8.75
7.35
5.85
4.35
2.92
1.58
0.25
-1.12
-2.59
-4.17
-5.86
-7.68
-9.55
-11.37
-12.93
-13.97
-14.31
-13.87
-12.67
-10.73
-8.03
-4.51
-0.20
4.69
9.79
14.68
19.01
22.61
25.40
27.36
28.43
28.55
27.77
26.25
24.19
21.76
18.95
15.69
11.94
7.85
3.80
0.21
-2.71
-5.04
-7.18
-9.50
-12.10
-14.60
-16.34
-16.65
-15.33
-12.76
-9.88
-7.78
-7.31
-8.80
-11.96
-16.09
-20.32
-23.85
-26.15
-26.95
-26.27
-24.24
-21.03
-16.69
-11.15
-4.26
4.00
13.37
23.26
32.84
41.34
48.28
53.62
57.74
61.28
64.87
68.95
73.62
78.61
83.34
87.15
89.42
89.83
88.35
85.25
81.07
76.59
72.73
70.47
70.61
73.47
78.66
84.86
89.92
91.23
86.44
74.12
54.33
28.71
-0.30
-30.27
-59.97
-89.85
-121.73
-158.00
-200.72
-251.20
-309.68
-375.05
-444.28
-511.99
-570.78
-612.79
-632.00
-626.29
-598.15
-553.57
-499.74
-442.76
-386.48
-332.58
-281.61
-233.68
-188.57
-145.39
-102.31
-56.68
-5.86
51.46
113.99
177.21
233.75
275.71
297.90
300.66
290.54
277.99
272.85
280.08
297.67
318.04
332.26
334.65
325.51
310.81
299.20
298.05
310.58
335.18
366.83
399.54
428.38
450.43
464.06
467.86
459.69
436.82
397.11
340.38
268.94
186.87
98.96
10.08
-74.34
-147.45
-200.90
-226.62
-220.01
-182.98
-124.90
-60.36
-4.39
32.36
46.57
41.95
26.25
7.41
-8.89
-19.72
-23.87
-20.59
-9.16
10.40
36.22
64.03
87.77
101.63
102.35
90.66
71.04
50.05
33.69
25.20
24.29
28.01
32.66
35.61
36.26
35.55
34.67
33.80
31.55
25.64
14.18
-3.25
-25.18
-48.79
-70.90
-88.88
-101.26
-107.54
-107.98
-103.15
-93.85
-81.05
-65.88
-49.54
-33.21
-18.04
-5.53
2.30
2.79
-6.80
-28.35
-61.89
-105.16
-153.94
-203.01
-247.38
-283.11
-307.70
-319.91
-319.60
-307.57
-285.74
-257.22
-226.17
-197.22
-174.47
-160.62
-156.33
-160.27
-169.69
-181.37
-192.43
-200.88
-205.77
-206.85
-204.34
-198.66
-190.49
-180.88
-171.14
-162.56
-155.83
-150.68
-145.80
-139.33
-129.73
-116.54
-100.60
-83.68
-67.61
-53.42
-40.94
-29.06
-16.42
-2.15
13.76
30.66
47.61
63.83
78.63
91.24
100.63
105.86
106.78
104.60
101.78
101.18
104.77
112.64
123.01
133.36
141.94
148.84
155.80
165.00
177.58
192.82
208.50
222.13
232.30
239.09
243.63
247.19
250.34
252.93
254.66
255.75
257.05
259.46
263.09
266.95
269.35
268.87
265.27
259.87
255.00
253.16
255.85
262.96
272.75
282.42
289.07
290.71
286.89
278.84
268.90
259.36
251.14
243.12
232.43
215.87
191.78
161.24
127.93
96.81
71.82
54.14
41.68
29.78
12.81
-14.11
-53.78
-105.83
-165.99
-226.10
-275.50
-304.12
-306.63
-285.31
-250.22
-215.94
-196.11
-198.83
-225.24
-271.49
-332.27
-403.14
-480.09
-557.31
-625.72
-674.06
-692.82
-678.53
-635.76
-575.29
-509.65
-448.09
-393.96
-345.35
-297.89
-247.96
-194.29
-137.81
-80.40
-23.86
30.26
80.23
123.84
158.75
183.02
196.12
199.21
194.75
185.75
174.97
164.48
155.53
148.64
143.73
140.17
136.94
132.91
127.13
119.18
109.15
97.56
85.15
72.80
61.41
51.77
44.33
38.98
35.02
31.41
27.27
22.21
16.51
10.80
5.78
1.81
-1.14
-3.33
-4.95
-6.02
-6.46
-6.24
-5.57
-4.77
-4.12
-3.69
-3.27
-2.46
-0.85
1.80
5.52
10.07
14.94
19.43
22.68
23.89
22.54
18.61
12.68
5.83
-0.65
-5.66
-8.57
-9.38
-8.65
-7.24
-5.99
-5.44
-5.74
-6.70
-8.05
-9.62
-11.45
-13.60
-15.97
-18.09
-19.23
-18.73
-16.28
-12.14
-7.06
-1.92
2.62
6.35
9.46
12.30
15.15
17.99
20.54
22.40
23.16
22.59
20.72
17.85
14.56
11.58
9.64
9.23
10.56
13.44
17.30
21.34
24.61
26.29
25.89
23.39
19.24
14.22
9.13
4.52
0.57
-2.77
-5.68
-8.25
-10.50
-12.44
-14.17
-15.76
-17.15
-18.05
-18.00
-16.56
-13.53
-9.09
-3.65
2.33
8.66
15.46
23.05
31.60
40.81
49.78
57.21
61.93
63.39
61.94
58.63
54.59
50.42
45.96
40.64
34.23
27.36
21.44
17.94
17.40
18.94
20.55
20.07
16.28
9.39
0.74
-8.09
-16.09
-23.13
-29.58
-35.77
-41.46
-45.88
-48.09
-47.44
-43.89
-37.99
-30.54
-22.29
-13.78
-5.28
3.06
11.03
18.33
24.54
29.20
31.90
32.37
30.60
26.91
21.92
16.45
11.38
7.39
4.83
3.67
3.57
4.05
4.70
5.26
5.66
5.87
5.89
5.59
4.84
3.53
1.66
-0.63
-3.13
-5.60
-7.88
-9.88
-11.58
-13.02
-14.12
-14.74
-14.63
-13.49
-11.14
-7.58
-3.08
1.86
6.59
10.43
12.90
13.81
13.33
11.98
10.42
9.21
8.62
8.58
8.75
8.83
8.70
8.48
8.45
8.86
9.75
10.98
12.31
13.49
14.32
14.65
14.37
13.34
11.54
9.05
6.11
3.08
0.27
-2.13
-4.17
-6.05
-7.99
-10.10
-12.23
-14.05
-15.11
-15.02
-13.62
-11.02
-7.59
-3.92
-0.68
1.52
2.29
1.54
-0.45
-3.20
-6.18
-8.96
-11.33
-13.26
-14.84
-16.21
-17.46
-18.67
-19.85
-20.95
-21.81
-22.20
-21.88
-20.68
-18.52
-15.44
-11.63
-7.35
-2.99
0.99
4.17
6.25
7.19
7.23
6.84
6.59
7.02
8.52
11.23
15.04
19.57
24.19
28.18
30.92
31.99
31.41
29.55
27.00
24.40
22.17
20.48
19.29
18.51
18.03
17.79
17.79
17.98
18.26
18.49
18.50
18.10
17.13
15.43
12.87
9.44
5.26
0.67
-3.94
-8.16
-11.76
-14.71
-17.13
-19.17
-20.92
-22.34
-23.22
-23.32
-22.42
-20.44
-17.45
-13.66
-9.35
-4.83
-0.41
3.70
7.29
10.07
11.79
12.32
11.74
10.38
8.63
6.86
5.38
4.35
3.70
3.29
2.96
2.57
2.06
1.36
0.44
-0.57
-1.61
-2.78
-4.35
-6.53
-9.28
-12.23
-14.90
-16.92
-17.67
-17.09
-15.80
-14.83
-14.87
-15.72
-16.38
-15.67
-12.83
-6.84
2.14
12.39
21.23
26.40
27.28
24.89
21.18
18.08
18.53
23.86
32.73
41.55
46.66
46.50
42.21
36.99
34.95
42.00
62.03
94.83
136.02
179.12
217.83
247.00
263.10
250.72
203.73
131.21
54.47
-7.23
-47.41
-71.30
-88.73
-107.42
-129.50
-149.74
-161.57
-162.05
-153.71
-142.56
-133.99
-130.52
-131.81
-136.23
-140.54
-142.59
-142.47
-140.08
-134.68
-124.39
-107.32
-83.45
-55.26
-25.81
0.88
21.10
33.39
38.33
37.84
34.10
29.03
24.21
21.57
22.70
29.09
39.96
53.61
67.79
79.87
87.13
87.38
79.83
65.55
47.33
28.80
13.19
2.24
-4.23
-7.71
-9.91
-11.80
-13.21
-13.36
-11.75
-8.72
-5.49
-3.51
-3.48
-5.32
-8.22
-11.01
-12.81
-13.33
-12.88
-12.11
-11.65
-11.82
-12.57
-13.57
-14.39
-14.73
-14.63
-14.40
-14.54
-15.47
-17.33
-19.80
-22.27
-24.05
-24.70
-24.27
-23.17
-21.95
-20.99
-20.24
-19.31
-17.56
-14.55
-10.25
-5.05
0.35
5.26
9.21
12.02
13.72
14.40
14.17
13.17
11.71
10.23
9.21
9.00
9.60
10.68
11.70
12.12
11.66
10.31
8.33
6.05
3.82
1.88
0.33
-0.90
-2.03
-3.32
-5.01
-7.15
-9.65
-12.31
-14.89
-17.25
-19.34
-21.14
-22.58
-23.51
-23.64
-22.66
-20.29
-16.33
-10.78
-3.82
4.20
12.84
21.58
29.93
37.40
43.53
47.90
50.22
50.40
48.55
44.96
40.00
34.17
28.13
22.71
18.74
16.81
16.94
18.51
20.42
21.50
21.05
19.09
16.30
13.64
11.77
10.71
9.80
8.04
4.68
-0.37
-6.42
-12.29
-16.85
-19.48
-20.26
-19.76
-18.59
-17.01
-14.83
-11.65
-7.19
-1.62
4.55
10.60
15.91
19.99
22.44
22.93
21.29
17.78
13.20
8.84
5.96
5.26
6.42
8.33
9.61
9.36
7.50
4.69
1.69
-1.05
-3.64
-6.36
-9.35
-12.35
-15.00
-17.19
-19.27
-21.92
-25.52
-29.80
-33.80
-36.33
-36.63
-34.75
-31.45
-27.70
-24.15
-20.94
-17.84
-14.68
-11.51
-8.72
-6.65
-5.43
-4.86
-4.53
-4.15
-3.68
-3.36
-3.54
-4.47
-6.11
-8.12
-10.05
-11.48
-12.24
-12.41
-12.16
-11.60
-10.73
-9.52
-8.15
-7.13
-7.13
-8.70
-11.83
-15.87
-19.80
-22.72
-24.37
-25.19
-25.89
-26.82
-27.58
-27.15
-24.50
-19.33
-12.34
-5.00
1.33
5.99
9.34
12.23
15.30
18.44
20.84
21.59
20.39
17.84
15.15
13.44
13.12
13.74
14.39
14.36
13.52
12.29
11.14
10.18
9.03
7.14
4.24
0.59
-3.13
-6.27
-8.60
-10.46
-12.46
-15.06
-18.25
-21.54
-24.21
-25.71
-25.86
-24.90
-23.18
-21.03
-18.53
-15.64
-12.30
-8.61
-4.87
-1.49
1.22
3.13
4.32
4.96
5.22
5.06
4.48
3.70
3.16
3.37
4.60
6.81
9.53
12.12
13.99
14.95
15.25
15.38
15.60
15.70
15.09
13.09
9.34
3.69
-3.40
-11.05
-18.18
-23.90
-27.48
-28.37
-26.23
-21.10
-14.38
-7.83
-2.92
-0.42
-0.40
-2.18
-4.42
-5.48
-4.07
-1.36
1.00
1.91
1.14
-1.18
-4.68
-8.75
-12.63
-15.76
-20.64
-29.20
-41.30
-54.71
-66.81
-75.94
-82.01
-86.40
-91.37
-102.18
-121.21
-146.00
-170.59
-189.58
-201.17
-207.72
-214.10
-203.83
-169.43
-115.71
-56.04
-1.14
44.74
80.86
107.49
125.67
137.57
142.69
141.56
136.24
129.73
124.00
119.58
116.23
113.84
112.68
110.50
105.87
99.04
91.65
85.04
79.65
75.16
71.25
67.70
62.88
55.84
46.60
36.96
28.39
21.56
16.17
11.55
6.96
1.13
-6.49
-15.23
-23.52
-29.87
-33.60
-35.35
-36.31
-37.87
-41.25
-46.61
-53.05
-58.92
-62.78
-63.74
-62.21
-59.00
-55.34
-52.70
-52.22
-54.33
-58.06
-61.07
-56.49
-39.50
-7.32
39.02
94.08
149.32
195.76
227.12
241.52
241.46
231.33
215.44
195.92
172.49
143.72
109.01
70.12
31.22
-2.22
-25.54
-35.92
-33.22
-19.77
0.40
22.40
41.33
53.07
54.95
46.39
29.47
8.39
-11.83
-26.96
-34.79
-35.40
-30.47
-22.30
-13.10
-4.69
1.39
3.56
0.41
-8.81
-23.54
-41.81
-60.68
-77.34
-90.12
-99.02
-105.58
-111.94
-119.74
-129.30
-139.67
-149.16
-156.40
-161.11
-164.34
-168.15
-174.74
-185.67
-201.29
-220.79
-242.55
-264.78
-286.04
-305.48
-322.77
-337.69
-349.71
-357.61
-359.46
-352.96
-335.97
-307.30
-266.96
-216.14
-156.71
-90.92
-21.42
48.38
114.06
170.77
214.53
243.75
260.03
267.74
272.25
277.95
286.91
298.81
311.81
323.61
332.07
335.20
331.17
318.62
297.49
269.65
239.06
210.74
189.17
176.63
172.22
171.86
169.48
158.96
136.23
100.76
55.92
7.95
-36.08
-70.68
-93.58
-106.13
-112.13
-115.92
-120.48
-126.57
-133.16
-138.61
-142.08
-144.11
-146.13
-149.35
-153.55
-157.03
-157.51
-153.73
-146.67
-139.57
-136.57
-140.70
-152.13
-167.72
-181.96
-189.00
-184.62
-167.46
-138.90
-101.98
-60.55
-19.01
17.67
44.00
55.36
50.40
32.98
11.81
-3.05
-5.45
2.99
13.07
12.86
-5.35
-40.23
-81.61
-115.68
-131.85
-127.33
-106.84
-78.60
-49.53
-22.77
1.90
25.61
48.39
69.08
86.60
101.53
116.54
135.45
161.74
196.89
239.57
285.85
330.34
367.68
394.20
408.83
413.16
410.47
404.18
396.42
387.55
377.02
365.03
354.11
349.36
356.87
380.71
419.98
467.81
512.89
543.37
551.02
533.91
496.11
444.96
387.54
328.30
268.86
209.46
150.77
94.60
43.11
-2.47
-43.01
-81.23
-120.65
-164.07
-212.27
-263.61
-314.28
-359.13
-392.93
-411.42
-412.23
-395.17
-362.02
-315.90
-260.62
-200.43
-140.10
-85.19
-41.88
-15.93
-11.09
-27.36
-60.12
-100.66
-137.91
-160.89
-161.09
-134.46
-82.52
-12.35
64.75
135.86
189.80
220.11
226.40
213.57
189.09
159.78
129.76
100.01
69.65
37.65
3.75
-31.94
-69.88
-111.63
-158.91
-211.75
-266.74
-316.95
-353.74
-369.69
-361.20
-329.35
-279.07
-217.49
-152.54
-92.32
-45.12
-18.84
-19.43
-48.43
-101.00
-165.95
-228.13
-272.85
-290.20
-277.49
-239.11
-184.18
-123.14
-64.85
-15.53
21.49
44.97
55.35
54.67
46.12
33.02
17.02
-3.07
-30.55
-68.19
-115.01
-164.86
-207.72
-233.57
-236.53
-216.76
-179.17
-130.13
-74.64
-15.73
43.77
99.10
142.89
167.15
166.65
141.66
98.33
46.52
-3.59
-44.38
-71.83
-85.10
-84.92
-72.55
-49.46
-17.77
19.19
56.85
89.97
113.81
125.21
123.48
110.47
90.09
67.35
47.11
32.94
26.09
25.16
26.43
25.08
16.99
0.62
-21.90
-44.78
-60.10
-60.10
-39.96
0.23
54.71
113.02
162.45
191.23
191.65
162.06
107.29
37.17
-36.04
-100.80
-148.85
-176.47
-184.29
-175.99
-156.57
-130.89
-103.03
-76.13
-52.54
-33.77
-20.11
-10.27
-1.53
9.31
24.38
43.37
63.15
78.73
85.19
79.84
63.55
40.76
18.03
1.85
-3.53
2.58
17.33
35.48
51.21
59.70
58.15
46.12
25.54
0.36
-24.06
-42.28
-50.58
-48.46
-39.11
-28.06
-20.48
-18.49
-20.05
-20.21
-14.06
0.30
20.53
41.32
57.09
64.60
64.00
57.99
49.91
42.01
34.90
28.08
20.99
13.96
8.20
5.16
5.71
9.54
15.28
21.19
25.98
29.31
31.74
33.99
36.19
37.41
35.86
29.66
17.85
0.93
-19.18
-39.83
-58.64
-74.27
-86.62
-96.46
-104.58
-111.14
-115.19
-114.90
-108.25
-93.95
-72.24
-45.27
-16.74
8.98
28.07
38.19
38.99
31.94
19.60
4.82
-10.02
-23.25
-33.87
-41.20
-44.65
-43.64
-37.89
-27.75
-14.56
-0.52
11.82
20.46
24.68
25.36
24.53
24.42
26.25
29.63
32.64
32.81
28.44
19.65
8.58
-1.49
-7.31
-7.03
-0.69
10.28
23.51
36.30
45.64
48.35
42.01
26.86
7.25
-8.71
-12.17
1.76
30.41
63.55
87.71
92.70
76.80
47.34
16.71
-4.15
-10.67
-5.61
3.95
11.17
12.73
9.33
3.87
-0.91
-3.83
-5.34
-6.28
-6.94
-6.77
-4.66
0.03
6.82
14.15
20.02
22.96
22.82
20.73
18.37
16.92
16.28
15.07
11.36
3.78
-7.62
-21.25
-34.49
-44.68
-49.95
-49.85
-45.34
-38.40
-31.50
-26.90
-26.06
-29.31
-35.86
-44.14
-52.30
-58.74
-62.35
-62.58
-59.29
-52.63
-43.02
-31.22
-18.35
-5.78
5.01
12.72
16.38
15.40
9.63
-0.46
-13.62
-27.73
-40.22
-48.38
-49.87
-42.90
-26.55
-1.09
31.30
66.05
96.46
114.95
115.23
94.35
53.76
-1.09
-62.43
-122.19
-173.59
-211.93
-234.59
-240.87
-231.51
-208.34
-173.63
-129.77
-79.30
-25.46
27.30
73.38
107.14
124.91
126.82
117.51
104.90
97.43
100.87
116.26
139.86
164.93
184.42
193.18
188.86
171.31
141.79
102.54
57.16
10.94
-29.90
-60.33
-79.14
-90.20
-100.75
-117.46
-142.18
-169.89
-190.47
-193.36
-172.77
-130.44
-74.60
-16.04
36.29
77.83
108.02
128.09
138.89
140.20
131.55
113.73
89.48
62.86
37.77
16.57
-0.18
-13.23
-23.47
-31.53
-37.83
-42.85
-47.19
-50.78
-52.50
-50.59
-43.91
-33.25
-21.68
-13.44
-11.73
-17.34
-28.53
-42.38
-56.45
-69.31
-79.55
-84.39
-79.36
-60.26
-26.47
16.37
56.52
79.75
74.85
38.37
-23.68
-98.09
-169.25
-224.29
-256.14
-264.00
-251.45
-223.90
-186.67
-144.13
-99.86
-56.84
-17.48
16.99
46.91
74.49
103.24
136.51
175.79
219.47
262.73
299.00
322.27
329.34
320.87
300.88
274.97
248.25
223.87
202.64
183.62
165.16
145.64
123.99
99.69
72.71
43.51
13.08
-17.06
-44.95
-68.44
-85.64
-95.43
-97.62
-93.04
-83.11
-69.45
-53.39
-36.00
-18.31
-1.76
11.52
18.90
17.96
7.35
-12.34
-38.28
-65.64
-88.37
-100.29
-96.39
-74.05
-34.28
17.78
73.32
121.74
153.62
163.82
153.15
127.86
96.89
68.18
45.84
29.48
15.74
1.00
-16.37
-35.35
-53.25
-67.48
-76.82
-81.63
-83.08
-82.03
-78.41
-71.39
-60.14
-44.67
-26.29
-7.36
9.61
22.80
31.81
37.65
42.01
46.36
51.01
54.82
55.62
51.14
40.00
22.38
0.11
-23.73
-45.41
-61.20
-67.90
-63.48
-47.77
-22.87
6.85
35.48
57.07
67.29
64.67
50.85
29.76
6.02
-16.59
-36.04
-52.06
-65.34
-76.54
-85.48
-91.03
-91.53
-85.67
-73.32
-56.00
-36.74
-19.42
-7.68
-3.84
-8.18
-18.56
-30.88
-39.94
-40.75
-30.05
-7.53
23.52
56.81
84.78
101.01
102.47
90.44
69.80
46.97
27.51
14.42
7.84
5.91
6.11
6.38
5.53
3.14
-0.65
-5.35
-10.04
-13.54
-14.58
-12.27
-6.47
2.06
11.87
21.24
28.75
33.76
36.49
37.74
38.26
38.09
36.22
30.83
20.03
2.92
-19.58
-44.52
-67.33
-82.93
-87.15
-78.01
-56.59
-27.07
4.22
30.40
45.95
48.15
37.56
17.40
-7.84
-33.80
-57.26
-76.40
-90.40
-99.03
-102.32
-100.66
-94.97
-86.82
-78.21
-71.00
-66.31
-63.94
-62.17
-58.15
-48.77
-31.81
-6.83
24.39
58.36
90.80
117.91
137.20
147.74
149.97
145.13
134.77
120.48
103.73
85.89
68.07
51.03
35.10
20.24
6.15
-7.62
-21.52
-35.88
-50.67
-65.10
-77.45
-85.13
-85.26
-75.49
-55.08
-25.50
9.64
45.30
76.23
98.16
108.75
107.81
96.98
79.13
57.63
35.75
16.16
0.61
-10.24
-16.94
-21.05
-24.71
-29.94
-37.85
-48.19
-59.21
-68.11
-71.78
-67.71
-54.74
-33.56
-6.79
21.46
46.36
63.53
70.15
65.66
51.75
31.64
8.87
-13.72
-34.57
-53.25
-69.73
-83.71
-94.13
-99.35
-97.65
-88.09
-71.10
-48.74
-24.50
-2.56
13.14
19.88
16.94
5.78
-10.17
-26.35
-38.09
-41.80
-35.90
-21.25
-1.02
20.24
37.71
47.74
48.67
41.18
27.83
12.09
-2.65
-13.99
-20.95
-23.93
-24.22
-23.28
-21.99
-20.24
-16.94
-10.62
-0.22
14.22
31.31
48.61
63.32
73.07
76.56
73.78
66.00
55.35
44.20
34.49
27.24
22.45
19.52
17.90
17.50
18.63
21.35
24.90
27.45
26.71
20.87
9.54
-5.92
-22.94
-38.60
-50.56
-57.53
-59.21
-56.04
-48.97
-39.24
-28.35
-17.78
-8.76
-2.03
2.15
3.77
2.81
-0.90
-7.62
-17.40
-29.92
-44.23
-58.90
-72.22
-82.46
-88.21
-88.74
-84.36
-76.68
-68.51
-63.48
-65.03
-75.33
-94.34
-119.52
-146.45
-170.06
-186.04
-192.07
-188.36
-177.60
-164.22
-153.09
-148.00
-150.30
-158.42
-168.46
-175.88
-177.56
-172.94
-163.72
-152.16
-139.16
-123.24
-101.30
-70.63
-30.83
15.75
65.36
114.98
163.89
213.47
265.40
319.24
371.08
414.12
441.11
447.26
432.20
400.03
357.73
313.06
272.70
241.26
220.84
210.75
207.30
204.27
194.57
172.98
138.85
97.13
56.93
27.87
16.04
21.48
38.19
56.52
66.54
61.01
37.12
-3.09
-53.50
-105.49
-150.25
-181.08
-194.96
-193.02
-179.53
-160.15
-140.24
-123.79
-113.11
-108.77
-109.58
-112.64
-113.97
-109.89
-98.63
-81.39
-62.06
-45.56
-35.48
-32.53
-34.26
-36.40
-34.94
-27.79
-15.60
-1.23
11.52
19.36
20.56
15.39
5.89
-4.81
-13.52
-17.82
-16.68
-10.52
-0.85
10.24
20.43
27.33
28.43
21.47
4.97
-20.80
-53.03
-86.40
-113.92
-128.86
-126.75
-106.79
-71.95
-27.66
19.87
65.30
104.89
136.54
159.19
172.41
176.20
171.05
158.21
139.66
117.89
95.32
73.50
52.54
31.18
7.53
-19.55
-49.14
-77.72
-100.03
-111.13
-108.64
-93.91
-71.37
-46.53
-23.67
-4.44
11.81
26.72
41.42
55.66
68.12
77.16
81.71
81.81
78.54
73.63
68.99
66.43
67.36
72.49
81.26
91.51
99.51
100.85
91.90
71.49
41.83
8.22
-22.68
-45.08
-55.94
-55.61
-46.94
-33.64
-18.68
-3.56
11.30
25.80
39.34
50.72
58.66
62.48
62.50
59.77
55.36
49.45
41.07
28.46
10.08
-14.34
-43.35
-74.27
-104.27
-131.56
-155.81
-177.61
-197.40
-214.38
-226.40
-230.82
-225.91
-211.96
-191.36
-167.62
-143.91
-122.07
-102.66
-85.70
-71.59
-61.42
-56.33
-56.44
-60.13
-64.15
-64.61
-58.36
-43.90
-21.57
6.88
39.12
72.71
105.45
135.39
160.81
180.24
192.66
197.83
196.54
190.66
182.59
174.44
167.06
159.59
149.78
135.06
114.00
87.28
57.95
30.49
9.41
-2.24
-3.73
3.26
15.37
28.55
39.30
45.46
46.66
44.05
39.51
34.75
30.67
27.16
23.49
18.75
12.24
3.61
-7.18
-19.94
-34.07
-48.41
-61.12
-69.97
-73.03
-69.38
-59.65
-46.00
-31.50
-19.20
-11.23
-8.35
-10.08
-15.15
-22.13
-29.93
-37.96
-45.88
-53.34
-59.65
-63.72
-64.24
-60.09
-50.95
-37.84
-23.32
-11.19
-5.54
-9.44
-23.79
-46.83
-74.66
-102.41
-125.81
-142.26
-151.12
-153.26
-150.15
-143.10
-133.01
-120.50
-106.35
-91.76
-78.18
-66.85
-58.17
-51.36
-44.53
-35.34
-21.91
-3.62
18.52
42.17
64.51
83.17
96.86
105.52
110.00
111.57
111.66
111.92
114.19
120.11
130.20
142.84
153.91
157.64
148.64
124.31
86.22
39.89
-7.14
-47.97
-78.26
-96.81
-104.58
-103.21
-93.86
-77.20
-54.13
-26.62
2.04
27.84
47.27
58.46
61.72
59.24
54.12
49.17
46.09
45.16
45.70
46.70
47.52
48.00
48.37
48.74
48.81
47.84
44.96
39.63
32.01
22.97
13.85
5.84
-0.37
-4.87
-8.44
-12.06
-16.42
-21.54
-26.61
-30.31
-31.30
-28.75
-22.67
-13.83
-3.46
7.31
17.62
26.95
34.94
41.25
45.53
47.62
47.68
46.21
43.88
41.31
38.75
35.98
32.36
27.03
19.18
8.37
-5.27
-20.96
-37.34
-52.79
-65.76
-75.13
-80.42
-81.84
-80.12
-76.32
-71.51
-66.50
-61.60
-56.49
-50.52
-43.09
-34.17
-24.65
-16.19
-10.64
-9.37
-12.60
-19.22
-26.87
-32.47
-33.04
-26.83
-14.18
2.22
18.04
28.96
32.42
28.69
20.58
11.79
4.97
0.48
-3.43
-9.05
-17.29
-26.71
-34.10
-36.19
-31.62
-21.80
-10.30
-1.01
3.74
4.15
2.57
2.00
4.41
9.85
16.72
22.84
26.70
28.12
28.02
27.62
27.63
27.79
27.15
24.62
19.69
12.76
5.15
-1.38
-5.14
-5.05
-0.96
6.30
15.13
23.51
29.49
31.58
29.09
22.09
11.32
-2.03
-16.45
-30.14
-41.16
-47.73
-48.78
-44.42
-35.99
-25.47
-14.53
-3.74
7.57
20.46
35.22
50.50
63.37
70.49
69.65
60.76
45.87
28.14
10.53
-5.12
-18.19
-28.80
-37.21
-43.51
-47.82
-50.54
-52.42
-54.23
-56.20
-57.62
-56.87
-51.97
-41.49
-25.38
-5.48
14.78
31.24
40.41
40.72
33.10
20.62
7.06
-4.66
-13.64
-21.07
-29.15
-39.45
-51.86
-64.41
-74.23
-78.93
-77.56
-70.87
-60.77
-49.39
-38.46
-28.98
-21.41
-15.91
-12.48
-10.99
-11.12
-12.29
-13.79
-14.93
-15.24
-14.56
-13.09
-11.29
-9.67
-8.67
-8.44
-8.76
-9.10
-8.76
-7.17
-4.13
-0.06
4.10
7.01
7.47
4.85
-0.64
-7.95
-15.58
-21.87
-25.27
-24.47
-18.34
-6.15
12.13
35.57
62.16
89.16
113.52
132.42
143.52
145.33
137.39
120.61
97.35
71.10
45.63
23.86
6.93
-5.92
-16.67
-27.40
-39.18
-51.68
-63.44
-72.67
-77.92
-78.52
-74.54
-66.60
-55.62
-42.67
-28.85
-15.31
-3.16
6.68
13.56
17.16
17.49
14.80
9.44
1.77
-7.91
-19.37
-32.43
-46.87
-62.37
-78.33
-93.88
-107.99
-119.60
-127.91
-132.57
-133.64
-131.46
-126.48
-119.03
-109.31
-97.42
-83.50
-67.85
-51.13
-34.51
-19.60
-8.14
-1.38
0.69
-0.28
-1.24
1.43
10.77
28.35
53.73
84.62
117.40
147.88
172.12
187.16
191.53
185.43
170.61
149.90
126.60
103.91
84.51
70.20
61.71
58.54
58.96
60.47
60.36
56.61
48.39
36.22
21.59
6.49
-7.17
-17.97
-25.19
-28.76
-29.16
-27.12
-23.30
-18.15
-11.82
-4.40
3.85
12.30
19.97
25.77
28.90
29.06
26.54
22.15
16.91
11.80
7.62
4.92
4.02
5.03
7.92
12.57
18.69
25.80
33.07
39.33
43.21
43.48
39.38
30.92
18.87
4.54
-10.41
-24.16
-34.73
-40.11
-38.56
-29.20
-12.63
8.67
30.68
48.70
58.70
58.37
47.70
28.80
5.20
-19.04
-40.12
-55.01
-61.83
-60.10
-50.88
-36.62
-20.75
-6.83
2.38
5.64
3.45
-2.28
-9.17
-15.18
-19.37
-21.95
-23.99
-26.76
-31.20
-37.58
-45.40
-53.67
-61.03
-66.07
-67.57
-64.81
-58.02
-48.48
-38.26
-29.51
-23.60
-20.51
-18.92
-16.84
-12.59
-5.51
3.88
14.26
24.18
32.60
39.08
43.67
46.59
48.16
48.61
48.23
47.32
46.16
44.87
43.31
41.10
37.68
32.59
25.68
17.34
8.39
-0.07
-7.02
-11.80
-14.21
-14.49
-13.19
-10.96
-8.46
-6.18
-4.44
-3.33
-2.72
-2.37
-2.11
-1.86
-1.73
-1.95
-2.71
-4.12
-6.17
-8.73
-11.66
-14.88
-18.30
-21.80
-25.12
-27.76
-29.11
-28.65
-26.13
-21.84
-16.49
-11.07
-6.54
-3.53
-2.19
-2.36
-3.64
-5.65
-8.05
-10.47
-12.50
-13.62
-13.40
-11.62
-8.44
-4.32
0.13
4.42
8.28
11.64
14.51
16.78
18.23
18.67
18.06
16.67
14.95
13.37
12.24
11.58
11.19
10.78
10.14
9.22
8.13
7.09
6.35
6.03
6.09
6.33
6.45
6.18
5.40
4.22
2.90
1.81
1.18
1.11
1.47
2.04
2.61
3.06
3.46
4.05
5.09
6.74
8.99
11.61
14.20
16.30
17.43
17.28
15.70
12.77
8.84
4.45
0.28
-3.07
-5.16
-5.86
-5.40
-4.26
-3.06
-2.30
-2.21
-2.72
-3.46
-3.99
-4.04
-3.55
-2.74
-1.92
-1.38
-1.20
-1.35
-1.68
-2.06
-2.38
-2.56
-2.52
-2.22
-1.68
-0.99
-0.26
0.49
1.34
2.44
3.87
5.60
7.42
8.99
9.95
10.02
9.07
7.13
4.43
1.43
-1.28
-3.08
-3.48
-2.28
0.35
3.86
7.51
10.51
12.25
12.39
10.93
8.14
4.47
0.49
-3.25
-6.29
-8.29
-9.13
-8.82
-7.49
-5.33
-2.59
0.46
3.47
6.05
7.76
8.23
7.26
4.92
1.53
-2.39
-6.29
-9.67
-12.17
-13.59
-13.81
-12.80
-10.61
-7.36
-3.35
1.01
5.15
8.45
10.37
10.53
8.76
5.17
0.10
-5.88
-12.16
-18.15
-23.46
-27.90
-31.45
-34.09
-35.73
-36.21
-35.35
-33.19
-30.01
-26.27
-22.49
-19.04
-16.04
-13.37
-10.88
-8.46
-6.09
-3.77
-1.52
0.73
3.01
5.32
7.58
9.75
11.93
14.45
17.85
22.63
28.95
36.51
44.49
51.86
57.70
61.46
63.02
62.53
60.20
56.15
50.37
42.91
33.96
23.97
13.54
3.31
-6.30
-15.24
-23.90
-33.02
-43.42
-55.65
-69.57
-84.28
-98.20
-109.57
-116.94
-119.56
-117.46
-111.14
-101.30
-88.57
-73.50
-56.88
-39.84
-23.93
-10.77
-1.59
3.18
4.04
2.25
-0.53
-2.66
-2.71
0.30
6.99
17.50
31.46
47.96
65.52
82.22
96.04
105.13
108.18
104.68
94.99
80.28
62.37
43.38
25.41
10.24
-0.85
-7.19
-8.77
-6.17
-0.49
6.85
14.41
20.90
25.40
27.41
26.82
23.84
19.08
13.45
8.17
4.59
3.76
6.16
11.41
18.31
25.18
30.36
32.65
31.61
27.50
21.15
13.59
5.85
-1.23
-7.07
-11.51
-14.73
-17.17
-19.47
-22.35
-26.28
-31.16
-36.17
-39.96
-41.19
-39.25
-34.74
-29.23
-24.57
-21.85
-20.89
-20.35
-18.58
-14.70
-9.12
-3.42
0.47
1.27
-1.23
-6.16
-12.16
-17.86
-22.07
-23.76
-22.09
-16.50
-7.00
5.47
18.96
30.82
38.40
39.77
34.39
23.23
8.57
-6.65
-19.62
-28.33
-32.02
-31.26
-27.54
-22.71
-18.23
-14.78
-12.09
-9.32
-5.45
0.15
7.52
15.99
24.43
31.46
35.82
36.59
33.36
26.29
15.99
3.40
-10.35
-24.10
-36.67
-46.97
-53.99
-56.85
-54.85
-47.60
-35.21
-18.47
1.01
20.88
38.44
51.28
57.88
58.05
52.92
44.45
34.77
25.62
17.99
12.17
8.02
5.16
3.23
1.92
0.88
-0.21
-1.73
-3.88
-6.71
-10.02
-13.42
-16.49
-18.95
-20.78
-22.22
-23.67
-25.41
-27.42
-29.38
-30.83
-31.43
-31.24
-30.80
-30.91
-32.33
-35.42
-40.00
-45.40
-50.66
-54.84
-57.20
-57.36
-55.34
-51.66
-47.27
-43.45
-41.52
-42.45
-46.49
-52.99
-60.57
-67.55
-72.49
-74.58
-73.76
-70.51
-65.52
-59.42
-52.68
-45.67
-38.78
-32.48
-27.26
-23.65
-22.01
-22.52
-25.00
-28.86
-33.08
-36.33
-37.17
-34.29
-26.74
-14.13
3.18
23.95
46.13
67.22
84.91
97.81
105.81
109.96
111.73
112.24
111.82
110.17
107.05
102.82
98.56
95.49
94.24
94.38
94.59
93.40
90.01
84.70
78.50
72.54
67.34
62.54
57.17
50.25
41.25
30.32
18.14
5.71
-5.88
-15.56
-22.46
-26.11
-26.60
-24.53
-20.73
-15.84
-10.01
-2.98
5.53
15.29
25.33
34.23
40.68
44.10
44.88
44.12
43.00
42.26
41.96
41.72
41.07
39.79
38.01
35.96
33.69
31.03
27.68
23.53
18.74
13.77
9.10
5.07
1.79
-0.77
-2.70
-4.00
-4.71
-4.90
-4.82
-4.77
-5.00
-5.52
-6.04
-6.13
-5.62
-4.94
-5.16
-7.64
-13.38
-22.50
-33.95
-45.85
-56.04
-62.79
-65.22
-63.40
-58.21
-50.98
-43.23
-36.27
-30.94
-27.36
-25.03
-23.13
-20.90
-17.98
-14.37
-10.15
-5.18
0.85
8.18
16.63
25.59
34.38
42.63
50.61
58.99
68.18
77.79
86.48
92.42
94.21
91.56
85.52
77.96
70.59
64.16
58.16
51.30
42.36
31.00
17.97
4.62
-7.85
-19.02
-29.14
-38.62
-47.37
-54.60
-59.17
-60.27
-57.96
-53.15
-47.18
-41.20
-35.76
-30.95
-26.69
-23.13
-20.65
-19.70
-20.53
-23.08
-27.01
-31.87
-37.26
-42.91
-48.75
-55.00
-62.11
-70.60
-80.75
-92.38
-104.72
-116.51
-126.16
-132.02
-132.65
-127.18
-115.43
-97.98
-75.93
-50.70
-23.90
2.63
26.74
45.96
57.96
61.23
55.75
43.09
26.04
7.55
-10.26
-26.59
-41.83
-56.97
-72.91
-90.19
-108.90
-128.98
-150.15
-171.64
-191.79
-208.06
-217.65
-218.69
-211.10
-196.69
-178.34
-158.47
-137.98
-116.14
-91.67
-64.22
-35.31
-8.01
14.39
29.97
39.03
43.71
46.77
50.23
54.76
59.97
65.15
69.95
74.59
79.58
85.16
90.99
96.24
100.06
102.13
102.91
103.49
105.05
108.23
112.71
117.29
120.45
121.04
118.87
114.74
109.96
105.76
102.62
100.25
97.95
95.19
91.99
88.98
86.90
86.21
86.72
87.77
88.59
88.70
88.18
87.45
87.09
87.42
88.41
89.67
90.68
90.95
90.19
88.30
85.37
81.61
77.29
72.69
68.09
63.70
59.66
56.09
53.03
50.54
48.61
47.09
45.76
44.32
42.50
40.22
37.53
34.53
31.25
27.53
23.07
17.57
10.93
3.36
-4.65
-12.47
-19.61
-25.73
-30.71
-34.48
-36.90
-37.75
-36.84
-34.18
-30.11
-25.17
-19.93
-14.70
-9.36
-3.54
3.11
10.62
18.54
26.17
32.82
38.17
42.31
45.58
48.27
50.38
51.63
51.59
49.94
46.54
41.47
34.99
27.39
19.11
10.75
3.04
-3.25
-7.57
-9.79
-10.22
-9.43
-8.05
-6.54
-5.18
-4.22
-4.02
-5.13
-8.19
-13.65
-21.50
-31.14
-41.39
-50.87
-58.27
-62.79
-64.23
-62.92
-59.60
-55.14
-50.40
-46.15
-43.03
-41.46
-41.61
-43.25
-45.75
-48.21
-49.64
-49.21
-46.37
-41.03
-33.52
-24.62
-15.40
-7.08
-0.62
3.49
5.45
6.11
6.58
7.84
10.29
13.65
17.06
19.36
19.41
16.39
9.92
0.23
-11.80
-24.78
-37.11
-47.53
-55.67
-62.25
-68.71
-76.36
-85.39
-94.31
-100.26
-100.06
-91.76
-75.64
-54.18
-31.11
-9.85
7.71
21.53
32.70
42.26
50.39
56.55
60.24
61.76
62.37
63.65
66.35
69.65
71.20
68.09
58.24
41.42
19.54
-3.93
-25.09
-40.70
-49.04
-50.12
-45.45
-37.33
-28.15
-19.65
-12.67
-7.31
-3.43
-0.91
0.07
-0.68
-3.25
-7.58
-13.72
-21.99
-32.91
-46.36
-60.63
-72.11
-76.13
-69.07
-50.40
-23.56
5.32
30.05
47.10
56.59
61.30
64.41
67.68
71.03
73.58
75.02
76.12
77.98
80.80
83.37
83.63
80.01
72.61
62.98
53.08
43.91
34.90
24.34
10.58
-6.67
-25.96
-44.58
-59.76
-69.82
-74.66
-75.48
-73.91
-71.11
-67.40
-62.43
-55.84
-47.86
-39.47
-32.05
-26.65
-23.51
-22.02
-21.26
-20.56
-19.84
-19.51
-20.10
-21.92
-25.12
-29.73
-35.92
-43.87
-53.53
-64.37
-75.33
-85.10
-92.60
-97.51
-100.54
-103.45
-108.49
-117.60
-131.46
-148.94
-167.23
-182.68
-192.18
-194.11
-188.73
-177.72
-163.29
-147.40
-131.43
-116.26
-102.25
-89.10
-75.60
-59.70
-39.15
-12.58
19.56
54.79
89.28
119.44
143.13
160.28
172.49
181.79
189.25
193.85
192.60
181.71
158.83
125.22
86.69
52.57
32.53
32.86
53.50
87.90
125.34
154.96
169.20
165.58
146.05
114.94
76.99
36.26
-3.92
-40.62
-71.21
-93.79
-107.74
-113.96
-114.84
-113.30
-112.00
-112.60
-115.54
-120.17
-125.22
-129.58
-132.78
-135.17
-137.60
-140.72
-144.35
-147.07
-146.64
-140.73
-127.86
-107.92
-82.20
-52.85
-22.32
7.13
33.60
55.61
72.04
82.31
86.47
85.38
80.54
73.69
66.40
59.63
53.60
48.06
42.67
37.44
33.02
30.51
31.08
35.46
43.58
54.65
67.49
80.99
94.38
107.20
119.09
129.59
138.11
144.14
147.46
148.21
146.71
143.21
137.60
129.45
118.24
103.79
86.62
67.89
49.24
32.29
18.18
7.34
-0.54
-6.28
-10.90
-15.31
-20.16
-25.80
-32.26
-39.20
-45.85
-50.95
-53.01
-50.81
-43.91
-33.02
-19.83
-6.38
5.71
15.82
24.25
31.74
38.72
45.00
49.87
52.66
53.27
52.37
51.05
50.24
50.20
50.49
50.23
48.65
45.50
41.25
36.83
33.26
31.33
31.27
32.88
35.65
39.01
42.62
46.35
50.25
54.33
58.43
62.21
65.30
67.39
68.31
68.06
66.64
64.13
60.55
55.98
50.33
43.27
34.08
21.87
5.86
-14.13
-37.51
-62.89
-88.42
-112.22
-132.73
-148.84
-159.95
-165.87
-166.86
-163.59
-157.09
-148.53
-138.97
-129.30
-120.04
-111.52
-103.85
-97.01
-90.89
-85.28
-79.98
-74.86
-69.92
-65.26
-61.09
-57.56
-54.70
-52.32
-50.13
-47.81
-45.16
-42.20
-39.07
-36.04
-33.31
-30.99
-29.10
-27.55
-26.27
-25.16
-24.06
-22.77
-21.09
-18.84
-16.01
-12.74
-9.27
-5.94
-3.00
-0.63
1.05
2.04
2.39
2.28
1.95
1.70
1.76
2.26
3.11
4.11
5.04
5.76
6.25
6.62
6.98
7.39
7.85
8.29
8.60
8.71
8.55
8.06
7.23
6.12
4.92
3.84
3.14
3.06
3.74
5.19
7.32
9.93
12.70
15.26
17.22
18.25
18.15
16.87
14.53
11.37
7.72
3.90
0.18
-3.26
-6.33
-9.06
-11.52
-13.72
-15.64
-17.20
-18.33
-18.93
-19.01
-18.64
-17.97
-17.21
-16.55
-16.15
-16.04
-16.13
-16.20
-15.96
-15.18
-13.75
-11.67
-9.09
-6.23
-3.34
-0.68
1.56
3.24
4.37
5.07
5.65
6.51
8.04
10.55
14.11
18.49
23.15
27.31
30.16
31.02
29.64
26.25
21.52
16.36
11.62
7.91
5.44
4.06
3.36
2.85
2.11
0.89
-0.77
-2.61
-4.24
-5.29
-5.55
-5.04
-3.99
-2.73
-1.53
-0.53
0.29
1.03
1.81
2.68
3.61
4.57
5.45
6.18
6.76
7.18
7.50
7.79
8.02
8.13
8.00
7.59
6.94
6.22
5.63
5.28
5.17
5.11
4.84
4.12
2.92
1.42
0.04
-0.69
-0.27
1.54
4.65
8.57
12.61
16.05
18.42
19.58
19.70
19.07
17.99
16.60
14.86
12.70
10.07
7.07
3.99
1.28
-0.59
-1.26
-0.60
1.20
3.68
6.24
8.30
9.42
9.40
8.27
6.27
3.71
0.95
-1.75
-4.14
-6.05
-7.35
-7.93
-7.75
-6.87
-5.46
-3.76
-2.06
-0.55
0.62
1.39
1.71
1.59
1.13
0.49
-0.05
-0.25
0.08
0.93
2.13
3.43
4.52
5.18
5.32
4.93
4.11
2.99
1.71
0.41
-0.79
-1.87
-2.88
-4.00
-5.47
-7.48
-10.01
-12.75
-15.12
-16.44
-16.24
-14.49
-11.65
-8.48
-5.71
-3.77
-2.61
-1.84
-0.95
0.43
2.37
4.66
6.96
8.96
10.45
11.33
11.59
11.23
10.29
8.84
7.04
5.18
3.61
2.65
2.46
2.95
3.75
4.36
4.30
3.35
1.62
-0.44
-2.25
-3.28
-3.25
-2.18
-0.39
1.66
3.57
5.07
6.07
6.62
6.79
6.61
6.08
5.20
3.99
2.50
0.85
-0.87
-2.57
-4.16
-5.55
-6.65
-7.36
-7.60
-7.35
-6.67
-5.62
-4.36
-3.06
-1.98
-1.41
-1.56
-2.51
-4.08
-5.83
-7.21
-7.70
-7.01
-5.18
-2.56
0.40
3.27
5.76
7.81
9.43
10.70
11.63
12.22
12.50
12.54
12.45
12.35
12.31
12.32
12.30
12.17
11.86
11.37
10.75
10.05
9.35
8.64
7.87
6.95
5.78
4.25
2.32
0.01
-2.56
-5.17
-7.50
-9.20
-9.99
-9.73
-8.53
-6.65
-4.47
-2.33
-0.47
0.99
2.02
2.66
2.93
2.94
2.78
2.62
2.58
2.76
3.19
3.83
4.59
5.37
6.04
6.49
6.66
6.53
6.23
5.96
5.88
6.09
6.47
6.77
6.69
6.02
4.74
3.07
1.37
0.06
-0.56
-0.32
0.78
2.59
4.83
7.13
9.06
10.29
10.68
10.37
9.71
9.15
8.99
9.30
9.85
10.30
10.29
9.71
8.62
7.27
5.93
4.79
3.89
3.17
2.52
1.88
1.20
0.50
-0.28
-1.23
-2.49
-4.13
-6.12
-8.31
-10.45
-12.30
-13.71
-14.64
-15.08
-15.05
-14.54
-13.50
-11.91
-9.81
-7.32
-4.65
-2.01
0.44
2.59
4.42
5.90
6.98
7.60
7.71
7.34
6.66
5.92
5.35
5.09
5.10
5.21
5.23
5.06
4.70
4.22
3.73
3.24
2.72
2.12
1.37
0.44
-0.69
-2.02
-3.52
-5.10
-6.55
-7.60
-8.01
-7.65
-6.56
-4.96
-3.11
-1.16
0.87
3.03
5.34
7.65
9.62
10.86
11.11
10.34
8.82
6.97
5.16
3.62
2.42
1.50
0.77
0.17
-0.36
-0.89
-1.50
-2.22
-3.05
-3.94
-4.83
-5.67
-6.49
-7.38
-8.43
-9.65
-10.97
-12.18
-13.04
-13.26
-12.67
-11.22
-9.04
-6.38
-3.53
-0.73
1.89
4.30
6.53
8.57
10.35
11.77
12.74
13.22
13.25
12.91
12.29
11.49
10.61
9.71
8.87
8.14
7.51
6.96
6.42
5.85
5.18
4.41
3.48
2.37
1.07
-0.41
-2.04
-3.76
-5.50
-7.22
-8.81
-10.12
-10.91
-10.90
-9.88
-7.84
-4.97
-1.67
1.57
4.35
6.42
7.76
8.46
8.70
8.64
8.40
8.10
7.80
7.54
7.27
6.89
6.24
5.22
3.85
2.30
0.82
-0.33
-0.99
-1.16
-0.96
-0.62
-0.36
-0.36
-0.72
-1.38
-2.16
-2.78
-2.94
-2.44
-1.26
0.42
2.30
4.12
5.73
7.13
8.33
9.31
9.87
9.70
8.60
6.55
3.86
1.02
-1.45
-3.19
-4.14
-4.44
-4.32
-3.98
-3.52
-2.95
-2.33
-1.83
-1.68
-2.10
-3.26
-5.13
-7.57
-10.30
-12.99
-15.24
-16.66
-16.93
-15.87
-13.58
-10.44
-6.97
-3.71
-0.97
1.17
2.86
4.28
5.60
6.82
7.86
8.61
9.01
9.04
8.70
8.01
7.00
5.73
4.29
2.79
1.35
0.05
-1.05
-1.95
-2.70
-3.43
-4.34
-5.57
-7.19
-9.07
-10.95
-12.46
-13.29
-13.25
-12.34
-10.72
-8.63
-6.32
-3.95
-1.62
0.66
2.87
4.93
6.71
8.02
8.70
8.71
8.09
7.02
5.68
4.24
2.83
1.51
0.33
-0.69
-1.56
-2.30
-2.98
-3.65
-4.37
-5.19
-6.15
-7.33
-8.72
-10.27
-11.80
-13.06
-13.80
-13.82
-13.10
-11.71
-9.78
-7.48
-4.93
-2.22
0.52
3.14
5.48
7.40
8.83
9.79
10.35
10.64
10.78
10.82
10.76
10.55
10.11
9.42
8.55
7.65
6.88
6.35
6.00
5.64
5.04
3.97
2.41
0.44
-1.71
-3.84
-5.81
-7.54
-8.97
-9.99
-10.44
-10.16
-9.17
-7.62
-5.83
-4.06
-2.47
-1.02
0.42
1.95
3.52
4.90
5.82
6.15
6.00
5.62
5.34
5.28
5.38
5.43
5.21
4.68
3.98
3.37
3.02
2.95
3.00
2.93
2.59
1.98
1.17
0.26
-0.72
-1.84
-3.18
-4.70
-6.26
-7.57
-8.35
-8.43
-7.80
-6.61
-5.05
-3.30
-1.44
0.50
2.52
4.57
6.50
8.14
9.34
10.04
10.22
9.95
9.32
8.47
7.55
6.75
6.21
5.96
5.87
5.72
5.24
4.23
2.70
0.82
-1.17
-2.99
-4.43
-5.42
-6.00
-6.28
-6.46
-6.71
-7.20
-8.04
-9.15
-10.37
-11.39
-11.86
-11.54
-10.34
-8.39
-5.95
-3.37
-0.88
1.36
3.36
5.11
6.53
7.40
7.52
6.80
5.46
4.00
3.02
2.96
3.83
5.19
6.36
6.73
6.02
4.36
2.19
0.00
-1.83
-3.10
-3.79
-3.96
-3.79
-3.56
-3.64
-4.36
-5.85
-7.93
-10.15
-11.93
-12.87
-12.84
-12.00
-10.70
-9.25
-7.82
-6.41
-4.95
-3.39
-1.71
0.03
1.81
3.56
5.19
6.53
7.45
7.85
7.81
7.53
7.22
6.98
6.75
6.36
5.64
4.58
3.35
2.21
1.40
0.97
0.81
0.67
0.32
-0.42
-1.58
-3.06
-4.66
-6.13
-7.25
-7.88
-7.97
-7.54
-6.68
-5.47
-3.95
-2.17
-0.20
1.86
3.86
5.64
7.03
7.91
8.21
7.96
7.28
6.36
5.44
4.72
4.32
4.17
4.14
4.03
3.73
3.21
2.58
2.03
1.66
1.49
1.40
1.19
0.66
-0.32
-1.76
-3.60
-5.67
-7.77
-9.68
-11.11
-11.80
-11.54
-10.27
-8.07
-5.22
-2.08
0.97
3.60
5.58
6.78
7.17
6.82
5.91
4.72
3.52
2.53
1.83
1.35
0.92
0.44
-0.14
-0.82
-1.60
-2.55
-3.81
-5.48
-7.55
-9.86
-12.17
-14.27
-16.11
-17.76
-19.37
-21.04
-22.83
-24.70
-26.60
-28.48
-30.26
-31.80
-32.84
-33.09
-32.31
-30.49
-27.90
-25.02
-22.39
-20.40
-19.09
-18.24
-17.44
-16.30
-14.62
-12.38
-9.72
-6.82
-3.78
-0.67
2.58
6.12
10.26
15.48
22.32
31.18
42.06
54.36
66.84
77.92
86.08
90.32
90.35
86.43
79.06
68.47
54.53
36.96
15.84
-7.84
-32.07
-54.15
-71.45
-82.18
-85.76
-82.85
-74.96
-64.02
-52.14
-41.39
-33.59
-30.07
-31.26
-36.55
-44.35
-52.64
-59.60
-64.13
-66.06
-65.89
-64.34
-62.02
-59.17
-55.81
-51.87
-47.51
-43.06
-39.02
-35.78
-33.52
-32.07
-30.91
-29.41
-27.06
-23.74
-19.91
-16.44
-14.28
-13.94
-15.00
-16.11
-15.30
-10.90
-2.20
10.10
24.16
37.66
48.71
56.39
60.91
63.18
64.20
64.49
63.96
62.14
58.53
53.04
45.95
37.71
28.63
18.69
7.77
-4.03
-16.03
-26.91
-35.09
-39.10
-37.89
-30.84
-17.69
1.18
24.27
48.64
70.23
85.08
91.02
88.72
81.52
73.79
68.80
67.26
67.36
66.34
62.35
55.61
48.14
42.31
39.43
39.05
39.54
39.12
36.87
32.92
28.06
23.04
18.25
13.73
9.54
5.93
3.20
1.32
-0.25
-2.49
-6.16
-11.28
-16.95
-21.66
-24.15
-24.01
-21.82
-18.60
-15.11
-11.45
-7.31
-2.60
1.99
5.12
5.49
2.81
-1.82
-6.34
-8.79
-8.44
-6.14
-3.78
-3.22
-5.28
-9.40
-14.17
-18.04
-20.13
-20.35
-19.16
-17.05
-14.29
-10.93
-7.07
-3.11
0.22
2.13
2.13
0.30
-2.73
-6.15
-9.36
-12.24
-15.21
-18.89
-23.85
-30.36
-38.31
-47.26
-56.54
-65.20
-72.12
-76.14
-76.48
-73.03
-66.50
-58.03
-48.67
-38.80
-28.04
-15.68
-1.42
14.18
29.77
43.77
55.25
64.29
71.84
78.98
86.28
93.39
99.38
103.24
104.41
102.96
99.30
93.95
87.25
79.51
71.14
62.80
55.32
49.39
45.38
43.15
42.22
41.95
41.76
41.23
40.10
38.24
35.65
32.48
29.02
25.58
22.37
19.37
16.34
13.00
9.25
5.27
1.50
-1.58
-3.71
-4.91
-5.43
-5.63
-5.84
-6.20
-6.74
-7.34
-7.81
-7.97
-7.75
-7.27
-6.86
-7.00
-8.14
-10.50
-14.06
-18.53
-23.53
-28.72
-33.77
-38.37
-42.19
-44.94
-46.48
-46.89
-46.45
-45.47
-44.12
-42.39
-40.14
-37.28
-33.89
-30.27
-26.82
-23.84
-21.43
-19.43
-17.55
-15.47
-13.06
-10.40
-7.78
-5.60
-4.19
-3.71
-4.09
-5.03
-6.13
-6.97
-7.22
-6.71
-5.47
-3.75
-1.92
-0.37
0.62
1.00
0.93
0.66
0.44
0.36
0.42
0.61
0.98
1.65
2.68
3.97
5.16
5.83
5.64
4.51
2.72
0.73
-0.95
-2.01
-2.41
-2.37
-2.18
-2.13
-2.35
-2.85
-3.57
-4.49
-5.65
-7.07
-8.70
-10.35
-11.65
-12.25
-11.95
-10.81
-9.12
-7.27
-5.61
-4.31
-3.38
-2.78
-2.44
-2.33
-2.39
-2.50
-2.52
-2.33
-1.93
-1.50
-1.29
-1.54
-2.31
-3.39
-4.41
-4.89
-4.49
-3.07
-0.78
2.04
4.93
7.39
8.97
9.39
8.56
6.65
4.02
1.21
-1.18
-2.59
-2.73
-1.59
0.52
3.09
5.61
7.76
9.48
10.94
12.34
13.70
14.78
15.14
14.32
12.17
8.90
5.15
1.71
-0.72
-1.79
-1.48
0.00
2.33
5.19
8.22
10.96
12.80
13.14
11.59
8.24
3.68
-1.15
-5.26
-7.94
-8.93
-8.36
-6.59
-4.02
-0.92
2.48
6.09
9.88
13.84
18.06
22.58
27.40
32.38
37.28
41.81
45.76
49.09
51.95
54.59
57.22
59.85
62.24
63.94
64.51
63.63
61.28
57.74
53.41
48.66
43.63
38.29
32.44
25.87
18.29
9.40
-0.99
-12.74
-25.11
-36.74
-45.96
-51.42
-52.68
-50.52
-46.64
-43.00
-41.02
-41.22
-43.31
-46.61
-50.52
-54.71
-58.98
-63.06
-66.46
-68.58
-68.99
-67.71
-65.21
-62.31
-59.89
-58.46
-58.10
-58.42
-58.78
-58.47
-56.94
-53.90
-49.34
-43.44
-36.53
-29.09
-21.70
-14.99
-9.65
-6.14
-4.63
-4.81
-6.02
-7.38
-8.14
-7.91
-6.79
-5.24
-3.85
-3.08
-3.03
-3.52
-4.15
-4.56
-4.58
-4.27
-3.89
-3.72
-3.98
-4.69
-5.69
-6.68
-7.34
-7.39
-6.69
-5.20
-3.02
-0.33
2.62
5.56
8.25
10.49
12.19
13.35
14.06
14.49
14.82
15.17
15.56
15.88
15.93
15.41
14.08
11.89
9.09
6.20
3.90
2.73
2.91
4.20
5.99
7.46
7.85
6.69
3.89
-0.25
-5.17
-10.16
-14.53
-17.61
-18.94
-18.30
-15.82
-11.94
-7.36
-2.85
0.89
3.40
4.52
4.38
3.35
1.91
0.58
-0.25
-0.43
-0.12
0.20
-0.04
-1.25
-3.41
-5.99
-8.09
-8.82
-7.67
-4.75
-0.77
3.17
5.84
6.29
4.01
-0.84
-7.37
-14.15
-19.49
-22.03
-21.22
-17.61
-12.67
-8.31
-6.10
-6.73
-9.85
-14.37
-18.98
-22.73
-25.42
-27.45
-29.55
-32.27
-35.65
-39.18
-42.09
-43.72
-43.86
-42.73
-40.82
-38.68
-36.78
-35.47
-35.03
-35.56
-36.86
-38.40
-39.37
-39.09
-37.36
-34.74
-32.40
-31.56
-32.80
-35.75
-39.11
-41.32
-41.25
-38.78
-34.84
-30.88
-28.17
-27.11
-27.14
-27.09
-25.87
-23.09
-19.13
-14.85
-10.91
-7.32
-3.40
1.79
8.79
17.56
27.85
39.78
54.01
71.05
90.21
108.75
122.36
126.86
120.34
104.35
83.40
63.00
47.36
38.04
34.33
34.62
37.77
43.45
51.48
60.87
69.39
74.19
73.16
65.85
53.91
40.44
28.82
21.45
19.10
20.84
24.69
28.61
31.24
32.41
32.80
33.42
35.02
37.74
41.21
44.84
48.03
50.19
50.64
48.57
43.27
34.51
22.89
9.89
-2.42
-12.00
-17.34
-17.87
-13.91
-6.57
2.66
12.17
20.53
26.71
30.20
30.99
29.49
26.32
22.19
17.75
13.54
9.95
7.20
5.31
4.15
3.51
3.19
3.00
2.75
2.19
0.98
-1.19
-4.48
-8.79
-13.66
-18.47
-22.54
-25.38
-26.81
-26.95
-26.22
-25.05
-23.83
-22.73
-21.72
-20.61
-19.12
-17.06
-14.37
-11.15
-7.74
-4.51
-1.90
-0.18
0.51
0.26
-0.72
-2.13
-3.67
-5.01
-5.86
-5.90
-4.92
-2.87
0.10
3.57
7.02
9.91
11.86
12.78
12.82
12.35
11.79
11.45
11.51
12.01
12.89
14.07
15.47
17.01
18.55
19.93
20.90
21.26
20.80
19.37
16.84
13.10
8.07
1.79
-5.52
-13.49
-21.65
-29.54
-36.78
-43.07
-48.15
-51.78
-53.80
-54.18
-53.07
-50.80
-47.78
-44.37
-40.85
-37.45
-34.39
-31.85
-29.90
-28.41
-27.02
-25.19
-22.55
-19.01
-14.90
-10.82
-7.39
-5.03
-3.84
-3.64
-4.04
-4.65
-5.05
-4.91
-4.02
-2.37
-0.16
2.20
4.17
5.20
4.91
3.15
0.11
-3.77
-7.91
-11.79
-15.09
-17.85
-20.36
-23.00
-25.90
-28.81
-31.14
-32.28
-31.96
-30.48
-28.69
-27.59
-27.79
-29.12
-30.53
-30.45
-27.34
-20.42
-10.00
2.52
15.04
25.42
32.17
34.84
34.16
31.70
29.36
28.82
31.08
36.23
43.40
50.89
56.55
58.28
54.73
45.80
32.77
17.97
3.95
-7.26
-14.63
-18.11
-18.32
-16.01
-11.92
-6.76
-1.41
3.14
5.97
6.57
5.07
2.17
-1.24
-4.43
-7.13
-9.54
-12.09
-15.13
-18.70
-22.45
-25.83
-28.31
-29.66
-30.11
-30.18
-30.40
-30.92
-31.30
-30.50
-27.16
-20.12
-8.78
6.54
24.63
43.61
61.29
75.82
86.24
92.87
97.27
101.79
108.85
120.10
135.93
155.37
176.36
196.21
212.20
222.05
224.31
218.52
205.11
184.94
158.98
128.00
92.85
54.86
16.26
-19.92
-50.40
-72.58
-85.29
-89.04
-85.64
-77.42
-66.57
-54.85
-43.73
-34.65
-28.94
-27.43
-29.94
-35.02
-40.26
-43.18
-42.23
-37.47
-30.42
-23.27
-17.84
-14.75
-13.38
-12.37
-10.55
-7.46
-3.49
0.45
3.56
5.41
5.88
4.68
1.09
-5.93
-17.21
-32.71
-51.20
-70.58
-88.55
-103.48
-114.74
-122.67
-127.97
-131.21
-132.56
-131.81
-128.66
-123.06
-115.47
-106.89
-98.74
-92.43
-88.86
-87.89
-88.22
-87.77
-84.61
-77.73
-67.38
-54.91
-41.97
-29.80
-18.83
-8.80
0.82
10.33
19.62
28.29
35.92
42.44
48.13
53.54
59.16
65.18
71.32
76.97
81.44
84.19
84.93
83.57
79.98
73.83
64.58
51.76
35.37
16.15
-4.32
-24.04
-41.14
-54.42
-63.63
-69.33
-72.42
-73.67
-73.36
-71.26
-66.84
-59.62
-49.51
-36.89
-22.63
-7.89
6.04
17.99
27.09
32.97
35.80
36.30
35.57
34.72
34.60
35.56
37.39
39.50
41.17
41.85
41.29
39.58
36.93
33.57
29.68
25.44
21.12
17.11
13.75
11.14
9.07
7.14
5.10
3.02
1.37
0.75
1.47
3.24
5.24
6.43
5.97
3.64
-0.14
-4.46
-8.32
-10.96
-12.12
-12.16
-11.88
-12.35
-14.33
-17.92
-22.27
-25.78
-26.77
-24.22
-18.36
-10.72
-3.62
0.80
1.37
-1.72
-7.14
-13.10
-18.17
-21.82
-24.52
-27.28
-31.03
-36.07
-41.77
-46.89
-49.98
-50.09
-47.09
-41.68
-35.03
-28.30
-22.34
-17.54
-14.01
-11.66
-10.38
-9.97
-10.11
-10.32
-10.12
-9.13
-7.25
-4.80
-2.39
-0.83
-0.77
-2.39
-5.23
-8.30
-10.43
-10.81
-9.39
-7.02
-5.06
-4.90
-7.38
-12.42
-19.13
-26.08
-31.81
-35.18
-35.56
-32.87
-27.48
-20.05
-11.40
-2.43
6.05
13.50
19.66
24.63
28.72
32.30
35.58
38.50
40.69
41.72
41.22
39.12
35.67
31.46
27.20
23.59
21.11
19.87
19.68
20.04
20.34
20.01
18.71
16.37
13.16
9.43
5.52
1.77
-1.55
-4.23
-6.04
-6.74
-6.20
-4.38
-1.52
1.89
5.18
7.63
8.73
8.37
6.88
4.95
3.37
2.72
3.18
4.50
6.20
7.79
9.01
9.82
10.30
10.46
10.16
9.07
6.86
3.38
-1.20
-6.38
-11.42
-15.51
-18.01
-18.58
-17.25
-14.41
-10.63
-6.56
-2.77
0.32
2.45
3.49
3.44
2.39
0.62
-1.47
-3.37
-4.62
-4.87
-4.05
-2.29
0.11
2.79
5.41
7.56
8.76
8.35
5.74
0.66
-6.58
-15.04
-23.43
-30.56
-35.71
-38.86
-40.49
-41.31
-41.78
-41.94
-41.27
-38.98
-34.35
-27.19
-18.21
-9.09
-2.12
0.55
-2.30
-10.33
-21.73
-33.80
-43.87
-50.11
-51.89
-49.62
-44.36
-37.52
-30.65
-25.50
-23.70
-26.28
-32.90
-41.45
-48.40
-49.89
-43.16
-27.43
-4.02
24.47
55.18
85.63
113.73
137.56
155.37
165.97
169.25
166.39
159.27
149.61
138.23
125.08
109.98
93.40
76.72
61.70
49.50
40.04
32.18
24.56
16.66
9.10
3.27
0.28
0.01
0.96
0.86
-2.09
-8.23
-16.07
-22.88
-25.97
-23.90
-17.28
-8.35
-0.16
4.70
4.82
0.07
-8.83
-20.71
-33.85
-45.79
-53.32
-53.22
-43.65
-25.59
-3.09
17.96
32.06
36.17
30.58
18.08
2.20
-14.21
-29.55
-42.91
-53.37
-59.72
-61.00
-57.24
-49.87
-41.18
-33.35
-27.58
-23.96
-21.80
-20.48
-19.88
-20.36
-22.35
-25.85
-30.20
-33.97
-35.38
-32.90
-25.88
-14.98
-2.26
9.34
16.94
18.82
15.07
7.60
-0.62
-6.77
-9.20
-7.83
-3.81
1.20
5.79
9.32
11.82
13.69
15.33
16.95
18.60
20.31
22.18
24.35
26.84
29.36
31.22
31.54
29.58
25.14
18.72
11.44
4.66
-0.54
-3.71
-5.13
-5.59
-5.99
-6.97
-8.68
-10.83
-12.91
-14.39
-14.99
-14.64
-13.46
-11.66
-9.48
-7.14
-4.88
-2.91
-1.46
-0.63
-0.43
-0.71
-1.28
-1.95
-2.57
-3.10
-3.44
-3.49
-3.03
-1.88
-0.05
2.23
4.45
6.04
6.47
5.50
3.21
-0.01
-3.63
-7.09
-10.01
-12.27
-14.04
-15.68
-17.57
-19.94
-22.75
-25.65
-28.08
-29.39
-29.06
-26.80
-22.66
-17.08
-10.79
-4.65
0.63
4.60
7.16
8.48
8.92
8.79
8.42
8.08
8.00
8.35
9.23
10.65
12.52
14.75
17.26
19.97
22.70
25.19
27.07
27.96
27.56
25.68
22.32
17.64
12.02
6.07
0.52
-3.85
-6.46
-7.11
-6.03
-3.78
-1.02
1.71
4.12
6.16
7.89
9.28
10.19
10.40
9.76
8.34
6.49
4.67
3.30
2.55
2.25
2.06
1.60
0.67
-0.66
-2.14
-3.40
-4.06
-3.90
-2.87
-1.24
0.44
1.29
0.35
-3.10
-9.19
-17.27
-26.00
-33.75
-39.07
-41.12
-39.86
-35.84
-29.98
-23.24
-16.43
-10.26
-5.28
-1.88
-0.20
-0.07
-0.97
-2.14
-2.78
-2.31
-0.48
2.51
6.20
10.03
13.59
16.79
19.86
23.15
26.90
30.98
34.88
37.74
38.71
37.17
32.95
26.47
18.57
10.42
3.13
-2.48
-6.08
-7.88
-8.48
-8.54
-8.52
-8.54
-8.38
-7.72
-6.35
-4.22
-1.55
1.38
4.26
6.81
8.75
9.85
9.95
9.02
7.28
5.03
2.64
0.38
-1.70
-3.67
-5.65
-7.70
-9.76
-11.70
-13.46
-15.04
-16.53
-17.95
-19.15
-19.79
-19.43
-17.77
-14.86
-11.16
-7.42
-4.44
-2.78
-2.53
-3.38
-4.70
-5.80
-6.09
-5.22
-3.12
0.01
3.73
7.35
10.06
11.05
9.72
5.90
-0.04
-7.31
-14.92
-22.00
-28.00
-32.65
-35.77
-37.09
-36.19
-32.64
-26.36
-17.91
-8.42
0.56
7.64
11.94
13.32
12.24
9.49
5.86
2.02
-1.48
-4.13
-5.40
-4.81
-2.16
2.36
8.08
14.04
19.26
23.08
25.23
25.87
25.33
23.94
21.83
18.99
15.41
11.24
6.88
2.93
0.03
-1.29
-0.71
1.81
6.08
11.69
18.03
24.33
29.77
33.68
35.70
35.81
34.35
31.78
28.56
24.96
21.11
17.00
12.65
8.12
3.53
-1.00
-5.39
-9.58
-13.48
-16.96
-19.85
-22.00
-23.37
-24.02
-24.12
-23.89
-23.54
-23.24
-23.05
-22.87
-22.46
-21.44
-19.40
-16.05
-11.38
-5.76
0.12
5.39
9.24
11.10
10.76
8.41
4.57
0.06
-4.13
-7.01
-7.83
-6.27
-2.58
2.40
7.50
11.58
13.80
13.92
12.22
9.35
6.13
3.27
1.31
0.47
0.74
1.81
3.26
4.66
5.77
6.59
7.35
8.29
9.54
11.01
12.44
13.54
14.15
14.27
14.03
13.57
13.01
12.45
11.95
11.54
11.22
10.95
10.67
10.33
9.89
9.40
8.92
8.56
8.44
8.64
9.21
10.04
10.90
11.49
11.52
10.84
9.56
7.97
6.46
5.33
4.73
4.58
4.72
5.00
5.40
6.00
6.94
8.27
9.87
11.36
12.26
12.13
10.76
8.28
5.12
1.87
-0.94
-2.96
-4.15
-4.67
-4.76
-4.63
-4.32
-3.74
-2.71
-1.05
1.33
4.30
7.49
10.32
12.13
12.37
10.86
7.82
3.90
0.03
-2.82
-3.90
-2.87
0.06
4.17
8.46
11.90
13.80
13.94
12.67
10.60
8.35
6.28
4.45
2.67
0.82
-1.04
-2.65
-3.73
-4.09
-3.79
-3.03
-2.02
-0.81
0.69
2.61
4.86
7.07
8.51
8.29
5.58
-0.13
-8.83
-19.95
-32.35
-44.52
-54.91
-62.20
-65.65
-65.22
-61.51
-55.51
-48.34
-41.00
-34.22
-28.46
-23.98
-20.85
-18.98
-18.09
-17.82
-17.72
-17.47
-16.95
-16.31
-15.92
-16.07
-16.84
-17.92
-18.71
-18.60
-17.28
-14.89
-11.95
-9.08
-6.65
-4.58
-2.41
0.47
4.56
10.02
16.67
24.12
31.82
39.20
45.62
50.45
53.16
53.53
51.65
47.91
42.84
36.94
30.53
23.84
17.11
10.67
4.87
-0.06
-4.11
-7.45
-10.32
-12.72
-14.43
-15.13
-14.59
-12.93
-10.66
-8.49
-7.17
-7.30
-9.22
-12.99
-18.36
-24.81
-31.58
-37.82
-42.77
-46.02
-47.56
-47.73
-47.03
-45.84
-44.36
-42.51
-40.06
-36.77
-32.45
-27.08
-20.77
-13.76
-6.30
1.43
9.33
17.35
25.33
32.90
39.47
44.32
46.83
46.76
44.35
40.27
35.38
30.45
25.97
22.13
18.88
16.10
13.79
11.99
10.83
10.40
10.68
11.58
12.98
14.81
17.07
19.90
23.45
27.84
33.06
38.97
45.25
51.45
56.97
61.15
63.34
63.03
60.06
54.75
47.92
40.76
34.46
29.97
27.68
27.44
28.69
30.68
32.70
34.23
34.87
34.35
32.41
28.92
23.92
17.72
10.86
4.06
-2.04
-7.09
-11.03
-14.17
-16.97
-19.99
-23.66
-28.22
-33.60
-39.48
-45.29
-50.36
-54.12
-56.23
-56.64
-55.61
-53.59
-51.05
-48.41
-45.91
-43.64
-41.54
-39.45
-37.25
-34.85
-32.30
-29.73
-27.36
-25.39
-23.97
-23.15
-22.89
-22.98
-23.16
-23.07
-22.41
-20.99
-18.92
-16.52
-14.27
-12.64
-11.89
-11.91
-12.33
-12.62
-12.38
-11.50
-10.18
-8.84
-7.95
-7.75
-8.26
-9.33
-10.74
-12.38
-14.27
-16.49
-19.08
-21.94
-24.87
-27.64
-30.08
-32.14
-33.80
-35.00
-35.60
-35.36
-34.06
-31.50
-27.62
-22.43
-15.96
-8.34
0.23
9.37
18.56
27.24
34.93
41.33
46.36
50.10
52.70
54.32
55.11
55.17
54.54
53.19
51.03
48.08
44.55
40.89
37.75
35.76
35.20
35.87
37.06
37.80
37.18
34.64
30.22
24.44
18.13
12.10
6.94
2.96
0.15
-1.67
-2.78
-3.46
-4.01
-4.71
-5.83
-7.58
-9.97
-12.82
-15.72
-18.21
-19.92
-20.78
-20.94
-20.70
-20.25
-19.53
-18.34
-16.46
-13.95
-11.18
-8.67
-6.87
-5.97
-5.86
-6.29
-7.07
-8.15
-9.53
-11.06
-12.40
-13.08
-12.71
-11.24
-8.92
-6.21
-3.47
-0.84
1.86
4.90
8.38
12.14
15.76
18.74
20.77
21.86
22.26
22.36
22.47
22.72
23.12
23.57
23.94
24.10
23.93
23.27
21.99
20.05
17.53
14.61
11.52
8.50
5.71
3.30
1.34
-0.11
-1.03
-1.49
-1.62
-1.58
-1.47
-1.27
-0.85
-0.07
1.10
2.51
3.75
4.33
3.81
1.96
-1.22
-5.55
-10.83
-16.96
-23.83
-31.30
-39.07
-46.67
-53.60
-59.49
-64.15
-67.57
-69.83
-70.90
-70.70
-69.12
-66.18
-62.09
-57.22
-51.94
-46.53
-41.07
-35.48
-29.66
-23.62
-17.53
-11.79
-6.92
-3.32
-1.22
-0.52
-0.88
-1.87
-3.14
-4.51
-5.92
-7.36
-8.70
-9.75
-10.27
-10.12
-9.29
-7.82
-5.78
-3.21
-0.23
2.99
6.10
8.64
10.16
10.32
9.04
6.48
3.04
-0.69
-4.09
-6.58
-7.75
-7.44
-5.79
-3.19
-0.14
2.84
5.42
7.48
9.16
10.70
12.30
13.93
15.29
15.91
15.38
13.57
10.73
7.45
4.46
2.34
1.38
1.48
2.19
2.74
2.12
-0.67
-6.35
-15.04
-26.05
-37.93
-48.75
-56.61
-60.11
-58.61
-52.32
-42.08
-29.10
-14.67
0.05
14.14
26.97
38.09
47.22
54.06
58.27
59.47
57.32
51.63
42.56
30.70
17.14
3.36
-8.86
-17.91
-22.71
-23.15
-20.13
-15.22
-9.92
-4.85
0.65
8.36
20.30
37.70
60.31
86.18
112.05
134.05
148.43
152.25
144.10
124.68
97.01
65.91
36.73
13.78
-1.02
-8.41
-11.09
-12.32
-14.53
-18.69
-24.35
-30.27
-34.92
-36.99
-35.58
-30.35
-21.67
-10.54
1.64
13.56
24.37
33.86
42.28
49.93
56.79
62.39
65.93
66.60
63.92
57.96
49.33
39.00
28.00
17.20
7.10
-2.12
-10.48
-17.94
-24.27
-29.09
-32.05
-33.03
-32.27
-30.29
-27.67
-24.89
-22.32
-20.31
-19.27
-19.64
-21.66
-25.20
-29.66
-34.22
-38.12
-41.04
-43.18
-45.03
-47.05
-49.35
-51.58
-53.07
-53.13
-51.30
-47.53
-42.17
-35.69
-28.43
-20.38
-11.15
-0.21
12.75
27.50
43.17
58.35
71.35
80.46
84.20
81.51
72.05
56.40
36.22
13.98
-7.55
-26.11
-40.47
-50.53
-56.92
-60.52
-61.92
-61.55
-59.80
-57.33
-54.93
-53.21
-52.07
-50.55
-47.09
-40.16
-28.86
-13.26
5.77
26.87
48.54
69.03
86.21
97.73
101.83
98.22
88.66
76.32
64.38
54.43
45.63
35.41
21.43
3.37
-16.33
-33.49
-44.18
-46.32
-39.80
-25.58
-4.51
22.63
53.87
84.66
107.70
115.04
101.42
67.21
18.97
-32.70
-77.19
-107.69
-122.91
-126.09
-122.52
-116.85
-111.52
-106.73
-101.25
-93.28
-80.91
-62.17
-35.21
0.99
45.48
94.39
140.91
176.65
194.11
189.27
163.25
122.00
74.22
28.47
-9.24
-36.52
-54.15
-64.63
-70.79
-74.89
-78.48
-82.51
-87.52
-93.57
-100.03
-105.54
-108.30
-106.75
-100.25
-89.52
-76.45
-63.35
-51.96
-42.69
-34.46
-25.20
-12.83
3.76
24.17
46.57
68.25
86.36
98.71
104.16
102.82
96.00
85.83
74.74
64.88
57.55
52.98
50.42
48.55
45.86
41.06
33.30
22.14
7.71
-9.34
-27.77
-45.90
-61.84
-73.85
-80.77
-82.29
-78.93
-71.89
-62.60
-52.36
-42.01
-31.81
-21.50
-10.53
1.55
14.83
28.88
42.70
54.96
64.34
69.81
70.82
67.32
59.75
48.96
36.18
22.93
10.83
1.23
-5.08
-8.11
-8.59
-7.59
-6.21
-5.23
-5.11
-6.10
-8.39
-12.04
-16.80
-22.00
-26.61
-29.57
-30.23
-28.51
-24.76
-19.37
-12.52
-4.17
5.59
16.04
25.79
33.06
36.50
35.80
31.85
26.35
20.96
16.69
13.64
11.34
9.29
7.41
6.15
6.20
8.15
12.17
17.86
24.38
30.60
35.44
37.98
37.63
34.05
27.09
16.79
3.47
-12.15
-28.85
-45.03
-58.99
-69.16
-74.31
-73.40
-65.57
-50.29
-27.81
0.28
30.71
59.07
80.88
92.96
94.38
86.44
71.90
53.77
34.48
15.52
-2.34
-18.75
-33.62
-47.14
-59.80
-72.19
-84.69
-97.07
-108.36
-117.02
-121.57
-121.10
-115.72
-106.57
-95.43
-84.10
-73.90
-65.37
-58.32
-52.17
-46.23
-39.95
-32.90
-24.82
-15.62
-5.58
4.54
13.57
20.32
24.04
24.88
23.82
22.26
21.35
21.55
22.48
23.29
23.16
21.78
19.50
17.25
16.11
17.06
20.68
27.01
35.50
44.83
52.93
57.25
55.46
46.27
30.13
9.33
-12.64
-32.14
-46.45
-54.31
-55.90
-52.29
-44.85
-34.77
-23.08
-10.71
1.45
12.54
22.01
29.73
35.97
41.20
45.83
49.97
53.38
55.59
56.17
54.97
52.21
48.40
44.11
39.82
35.73
31.80
27.85
23.63
19.00
13.99
8.82
3.97
-0.04
-2.75
-4.01
-4.06
-3.46
-2.78
-2.36
-2.19
-1.97
-1.31
0.05
2.13
4.81
7.92
11.31
14.79
18.10
20.87
22.72
23.42
22.95
21.51
19.30
16.49
13.12
9.14
4.55
-0.60
-6.08
-11.54
-16.52
-20.53
-23.20
-24.41
-24.41
-23.82
-23.33
-23.44
-24.25
-25.38
-26.23
-26.21
-24.96
-22.43
-18.79
-14.37
-9.57
-4.89
-0.85
2.15
4.00
4.92
5.47
6.24
7.67
9.78
12.24
14.49
15.92
16.13
14.88
12.18
8.22
3.37
-1.90
-6.99
-11.39
-14.73
-16.91
-18.06
-18.53
-18.69
-18.87
-19.17
-19.53
-19.73
-19.56
-18.85
-17.56
-15.72
-13.40
-10.72
-7.83
-4.93
-2.31
-0.23
1.09
1.57
1.34
0.65
-0.18
-0.89
-1.33
-1.46
-1.30
-0.89
-0.31
0.35
0.99
1.47
1.68
1.57
1.20
0.68
0.12
-0.43
-0.93
-1.37
-1.68
-1.71
-1.23
-0.05
1.85
4.23
6.64
8.50
9.28
8.74
6.97
4.41
1.72
-0.45
-1.56
-1.33
0.22
2.83
6.08
9.47
12.55
14.96
16.52
17.22
17.24
16.79
16.11
15.33
14.49
13.52
12.30
10.74
8.79
6.51
4.08
1.75
-0.20
-1.52
-2.05
-1.81
-0.98
0.13
1.17
1.86
2.10
1.97
1.65
1.37
1.30
1.49
1.91
2.47
3.01
3.38
3.39
2.94
2.06
0.87
-0.45
-1.72
-2.83
-3.72
-4.39
-4.93
-5.41
-5.88
-6.41
-6.98
-7.50
-7.76
-7.52
-6.73
-5.64
-4.61
-4.02
-4.11
-4.78
-5.66
-6.13
-5.63
-4.08
-2.12
-0.56
-0.14
-1.27
-3.78
-6.88
-9.39
-10.23
-9.14
-7.35
-6.23
-6.90
-9.96
-14.93
-20.61
-25.31
-27.56
-26.96
-25.08
-23.34
-22.83
-24.50
-28.71
-35.55
-44.27
-53.06
-59.35
-61.21
-56.02
-41.80
-18.50
10.57
38.33
57.88
67.55
76.75
89.40
105.45
122.61
133.57
133.89
122.28
101.06
74.94
48.59
23.96
1.79
-18.19
-36.64
-53.21
-66.89
-76.08
-79.33
-76.33
-68.69
-57.85
-44.85
-30.43
-14.65
2.36
20.32
38.60
56.04
70.58
80.72
85.78
85.90
82.34
76.85
71.22
66.63
63.16
59.46
53.74
44.46
30.95
14.06
-3.99
-20.13
-31.37
-35.94
-34.05
-27.46
-18.55
-8.97
1.22
13.29
28.78
48.12
69.86
91.05
108.49
120.15
125.72
126.19
122.77
116.09
106.15
93.03
77.62
61.89
48.30
38.64
33.22
30.75
28.96
25.73
19.95
11.84
2.52
-6.77
-15.34
-23.35
-31.62
-41.10
-52.43
-65.66
-80.30
-95.41
-109.84
-122.34
-131.69
-136.89
-137.49
-133.78
-126.87
-118.40
-110.11
-103.24
-98.14
-94.24
-90.37
-85.35
-78.62
-70.52
-62.18
-55.12
-50.52
-48.74
-49.15
-50.37
-50.87
-49.53
-46.01
-40.69
-34.38
-27.92
-21.92
-16.80
-12.77
-9.95
-8.35
-7.79
-7.87
-8.05
-7.85
-7.02
-5.64
-4.06
-2.63
-1.59
-0.85
-0.12
0.97
2.61
4.83
7.42
10.13
12.73
15.09
17.13
18.81
20.02
20.63
20.58
19.91
18.74
17.25
15.53
13.58
11.33
8.65
5.55
2.15
-1.25
-4.29
-6.61
-7.97
-8.37
-7.96
-7.10
-6.16
-5.43
-5.05
-4.97
-5.01
-5.01
-4.86
-4.52
-3.96
-3.10
-1.85
-0.21
1.60
3.23
4.26
4.46
3.89
2.86
1.73
0.71
-0.25
-1.34
-2.72
-4.28
-5.68
-6.50
-6.42
-5.37
-3.58
-1.42
0.69
2.41
3.56
4.12
4.16
3.85
3.38
2.98
2.83
3.14
4.02
5.45
7.22
8.96
10.23
10.70
10.29
9.24
8.01
7.05
6.64
6.76
7.14
7.41
7.30
6.75
5.94
5.17
4.78
4.93
5.59
6.57
7.60
8.49
9.21
9.90
10.79
12.11
13.90
16.04
18.22
20.11
21.45
22.14
22.29
22.05
21.62
21.07
20.40
19.60
18.67
17.66
16.52
15.13
13.39
11.51
10.05
9.80
11.40
14.81
19.20
23.14
25.29
24.90
22.14
17.82
12.87
7.93
3.23
-1.26
-5.40
-8.72
-10.29
-8.93
-3.47
6.81
21.62
39.19
56.38
69.33
74.68
70.83
58.52
40.65
21.09
3.48
-9.76
-17.66
-20.41
-18.80
-13.91
-6.98
0.57
7.30
12.00
14.07
13.65
11.51
8.61
5.72
3.14
0.67
-2.16
-5.81
-10.49
-16.11
-22.36
-28.79
-35.00
-40.68
-45.61
-49.68
-52.88
-55.27
-56.98
-58.11
-58.66
-58.50
-57.38
-55.04
-51.35
-46.44
-40.72
-34.83
-29.47
-25.12
-21.91
-19.58
-17.60
-15.47
-12.87
-9.89
-6.90
-4.43
-2.98
-2.85
-4.15
-6.82
-10.71
-15.58
-21.12
-26.91
-32.51
-37.58
-42.06
-46.03
-49.67
-52.92
-55.37
-56.32
-54.99
-50.83
-43.73
-34.03
-22.41
-9.60
3.66
16.74
29.05
40.05
49.25
56.29
61.00
63.35
63.43
61.34
57.23
51.33
43.98
35.64
26.86
18.21
10.18
3.18
-2.50
-6.65
-9.19
-10.10
-9.50
-7.56
-4.54
-0.77
3.42
7.66
11.54
14.64
16.51
16.82
15.39
12.41
8.35
3.97
0.11
-2.53
-3.53
-2.83
-0.71
2.35
5.78
9.04
11.70
13.53
14.56
14.97
14.98
14.70
14.09
12.98
11.31
9.23
7.14
5.56
4.88
5.22
6.33
7.71
8.75
8.90
7.83
5.50
2.11
-1.90
-6.04
-9.84
-13.06
-15.67
-17.76
-19.44
-20.75
-21.66
-22.15
-22.32
-22.34
-22.38
-22.49
-22.53
-22.33
-21.76
-20.91
-20.04
-19.46
-19.32
-19.52
-19.80
-19.84
-19.57
-19.21
-19.22
-20.10
-22.12
-25.16
-28.77
-32.36
-35.40
-37.58
-38.77
-38.88
-37.79
-35.28
-31.19
-25.51
-18.46
-10.35
-1.50
7.89
17.65
27.59
37.33
46.32
53.94
59.64
63.10
64.17
62.85
59.24
53.48
45.84
36.75
26.78
16.58
6.78
-2.09
-9.66
-15.77
-20.36
-23.46
-25.17
-25.63
-25.01
-23.55
-21.52
-19.16
-16.66
-14.11
-11.56
-9.06
-6.70
-4.65
-3.00
-1.82
-1.02
-0.46
0.01
0.48
1.01
1.61
2.32
3.16
4.12
5.13
6.05
6.68
6.90
6.68
6.13
5.44
4.89
4.67
4.87
5.47
6.32
7.24
8.06
8.72
9.20
9.55
9.80
9.98
10.11
10.18
10.21
10.20
10.09
9.86
9.45
8.85
8.07
7.09
5.90
4.51
2.96
1.39
-0.01
-1.08
-1.80
-2.31
-2.83
-3.53
-4.36
-5.05
-5.26
-4.74
-3.49
-1.81
-0.12
1.28
2.32
3.19
4.23
5.76
7.93
10.74
14.10
17.88
21.94
26.04
29.87
33.07
35.31
36.42
36.51
35.92
35.02
34.02
32.86
31.19
28.51
24.45
18.89
12.08
4.53
-3.11
-10.24
-16.35
-21.13
-24.37
-26.04
-26.24
-25.26
-23.51
-21.44
-19.44
-17.70
-16.23
-14.90
-13.58
-12.21
-10.81
-9.50
-8.41
-7.63
-7.24
-7.28
-7.80
-8.79
-10.14
-11.69
-13.19
-14.44
-15.31
-15.84
-16.19
-16.59
-17.26
-18.30
-19.64
-21.12
-22.48
-23.47
-23.93
-23.78
-23.00
-21.60
-19.63
-17.16
-14.38
-11.54
-8.96
-6.87
-5.34
-4.22
-3.23
-2.04
-0.47
1.47
3.58
5.55
7.13
8.15
8.62
8.59
8.20
7.58
6.85
6.12
5.48
5.03
4.80
4.75
4.79
4.79
4.59
4.09
3.26
2.11
0.77
-0.61
-1.87
-2.83
-3.36
-3.39
-2.93
-2.06
-0.92
0.36
1.69
3.01
4.31
5.60
6.85
8.01
9.04
9.90
10.59
11.09
11.39
11.42
11.13
10.45
9.41
8.09
6.72
5.52
4.69
4.27
4.18
4.25
4.30
4.25
4.07
3.81
3.45
2.96
2.30
1.47
0.57
-0.26
-0.92
-1.37
-1.69
-1.92
-2.06
-2.02
-1.66
-0.94
0.08
1.22
2.28
3.14
3.81
4.45
5.19
6.07
6.96
7.67
7.99
7.82
7.24
6.43
5.58
4.80
4.14
3.58
3.10
2.72
2.51
2.51
2.66
2.85
2.92
2.76
2.31
1.62
0.79
-0.07
-0.87
-1.55
-2.08
-2.46
-2.69
-2.79
-2.76
-2.57
-2.13
-1.36
-0.24
1.19
2.73
4.13
5.20
5.87
6.24
6.50
6.74
6.95
6.98
6.70
6.07
5.20
4.30
3.58
3.13
2.94
2.90
2.89
2.80
2.60
2.29
1.96
1.69
1.53
1.47
1.39
1.11
0.44
-0.65
-2.10
-3.73
-5.31
-6.68
-7.73
-8.40
-8.67
-8.54
-8.04
-7.22
-6.17
-5.01
-3.88
-2.93
-2.27
-1.97
-2.02
-2.34
-2.85
-3.51
-4.32
-5.29
-6.38
-7.50
-8.45
-9.11
-9.48
-9.72
-10.21
-11.25
-13.01
-15.35
-17.81
-19.79
-20.69
-20.08
-17.81
-14.00
-9.02
-3.45
2.04
6.78
10.19
11.93
11.99
10.63
8.33
5.51
2.42
-1.02
-5.14
-10.29
-16.57
-23.63
-30.60
-36.39
-39.97
-40.81
-39.11
-35.68
-31.66
-28.12
-25.70
-24.44
-23.87
-23.15
-21.32
-17.54
-11.29
-2.47
8.68
21.79
36.64
53.19
71.36
90.70
109.97
127.17
139.94
146.33
145.63
138.71
127.86
116.15
106.38
100.17
97.46
96.53
94.65
89.05
77.93
61.19
40.51
18.75
-0.90
-15.93
-25.07
-28.44
-27.18
-22.97
-17.49
-12.21
-8.24
-6.39
-7.11
-10.43
-15.90
-22.58
-29.23
-34.73
-38.41
-40.30
-41.07
-41.60
-42.66
-44.46
-46.68
-48.69
-49.89
-50.07
-49.41
-48.44
-47.74
-47.63
-48.08
-48.70
-48.94
-48.29
-46.49
-43.61
-39.94
-35.88
-31.77
-27.83
-24.19
-20.91
-18.12
-15.90
-14.27
-13.13
-12.21
-11.29
-10.19
-8.89
-7.48
-6.12
-4.83
-3.56
-2.16
-0.50
1.41
3.40
5.17
6.42
6.93
6.64
5.65
4.18
2.53
0.98
-0.24
-0.90
-0.87
-0.13
1.22
2.96
4.80
6.48
7.82
8.78
9.40
9.72
9.80
9.67
9.34
8.81
8.12
7.36
6.64
6.13
5.97
6.26
6.93
7.82
8.65
9.21
9.37
9.20
8.84
8.42
7.98
7.47
6.83
6.03
5.16
4.34
3.66
3.14
2.69
2.19
1.58
0.89
0.27
-0.13
-0.16
0.24
1.06
2.20
3.55
4.94
6.21
7.21
7.88
8.22
8.34
8.38
8.45
8.62
8.88
9.20
9.55
9.88
10.07
10.01
9.58
8.68
7.32
5.63
3.83
2.17
0.87
0.00
-0.48
-0.76
-1.02
-1.41
-1.96
-2.65
-3.39
-4.14
-4.93
-5.77
-6.65
-7.46
-7.98
-8.02
-7.41
-6.19
-4.54
-2.74
-1.12
0.11
0.82
1.01
0.76
0.21
-0.48
-1.16
-1.68
-1.97
-1.98
-1.75
-1.35
-0.88
-0.44
-0.10
0.13
0.25
0.26
0.14
-0.12
-0.54
-1.09
-1.72
-2.33
-2.84
-3.17
-3.33
-3.36
-3.30
-3.23
-3.20
-3.26
-3.46
-3.83
-4.40
-5.14
-5.96
-6.71
-7.22
-7.35
-7.04
-6.32
-5.32
-4.22
-3.17
-2.30
-1.70
-1.40
-1.33
-1.37
-1.36
-1.17
-0.74
-0.15
0.46
0.98
1.34
1.59
1.80
2.00
2.18
2.26
2.19
1.96
1.64
1.32
1.05
0.85
0.67
0.47
0.22
-0.07
-0.37
-0.68
-1.00
-1.33
-1.67
-2.03
-2.41
-2.80
-3.20
-3.58
-3.85
-3.88
-3.51
-2.66
-1.39
0.03
1.21
1.77
1.53
0.62
-0.61
-1.67
-2.24
-2.23
-1.84
-1.40
-1.14
-1.07
-1.01
-0.70
0.03
1.13
2.42
3.67
4.76
5.74
6.73
7.81
8.91
9.81
10.28
10.15
9.46
8.39
7.18
6.00
4.89
3.79
2.56
1.13
-0.47
-2.12
-3.66
-4.98
-6.01
-6.79
-7.36
-7.79
-8.06
-8.19
-8.15
-7.96
-7.62
-7.09
-6.30
-5.16
-3.59
-1.64
0.53
2.67
4.47
5.70
6.29
6.27
5.82
5.12
4.39
3.75
3.24
2.82
2.42
1.94
1.34
0.60
-0.27
-1.24
-2.27
-3.34
-4.38
-5.31
-6.05
-6.60
-7.01
-7.36
-7.64
-7.68
-7.19
-5.84
-3.51
-0.40
3.00
6.07
8.29
9.47
9.81
9.79
9.94
10.60
11.82
13.38
14.90
16.09
16.78
16.98
16.76
16.15
15.10
13.57
11.64
9.57
7.73
6.35
5.29
4.06
1.92
-1.64
-6.63
-12.40
-17.91
-22.08
-24.25
-24.30
-22.67
-20.01
-16.96
-13.97
-11.30
-9.22
-8.06
-8.26
-10.13
-13.70
-18.56
-23.91
-28.80
-32.41
-34.33
-34.60
-33.57
-31.67
-29.25
-26.48
-23.37
-19.92
-16.17
-12.35
-8.84
-6.14
-4.77
-5.04
-6.87
-9.75
-12.86
-15.35
-16.63
-16.56
-15.37
-13.52
-11.45
-9.42
-7.56
-5.92
-4.56
-3.57
-2.95
-2.53
-1.97
-0.86
1.13
4.02
7.44
10.68
12.90
13.35
11.63
7.73
1.98
-5.12
-13.05
-21.32
-29.42
-36.84
-43.03
-47.55
-50.08
-50.40
-48.33
-43.58
-35.87
-25.15
-11.97
2.39
16.15
27.65
35.94
41.10
44.08
46.03
47.60
48.48
47.56
43.37
34.80
21.61
4.74
-13.59
-29.92
-40.03
-39.86
-26.85
-1.36
32.71
68.56
98.45
116.16
119.10
108.85
90.09
68.37
48.10
31.46
18.78
9.62
3.85
1.77
3.64
8.76
15.21
20.33
21.79
18.68
11.99
4.06
-2.50
-5.97
-6.18
-4.28
-2.01
-0.77
-1.03
-2.28
-3.50
-3.75
-2.75
-0.97
0.64
1.17
0.24
-1.84
-4.28
-6.20
-7.03
-6.76
-5.78
-4.64
-3.72
-3.11
-2.65
-2.08
-1.24
-0.15
1.02
2.04
2.80
3.31
3.74
4.25
4.90
5.57
6.03
6.03
5.45
4.36
2.97
1.60
0.51
-0.15
-0.36
-0.22
0.13
0.50
0.69
0.51
-0.15
-1.30
-2.81
-4.42
-5.86
-6.89
-7.42
-7.53
-7.38
-7.14
-6.96
-6.83
-6.67
-6.40
-5.93
-5.24
-4.36
-3.35
-2.28
-1.28
-0.54
-0.32
-0.87
-2.29
-4.44
-6.93
-9.23
-10.83
-11.46
-11.09
-9.96
-8.39
-6.68
-4.97
-3.34
-1.82
-0.46
0.59
1.21
1.30
0.88
0.09
-0.88
-1.84
-2.70
-3.50
-4.30
-5.17
-6.02
-6.68
-6.95
-6.71
-6.01
-5.02
-3.94
-2.95
-2.08
-1.35
-0.72
-0.22
0.13
0.26
0.17
-0.07
-0.38
-0.57
-0.51
-0.09
0.71
1.77
2.94
4.06
5.06
5.95
6.80
7.63
8.35
8.76
8.64
7.81
6.28
4.19
1.81
-0.55
-2.64
-4.27
-5.32
-5.74
-5.50
-4.61
-3.15
-1.27
0.81
2.81
4.49
5.72
6.48
6.87
7.03
7.02
6.86
6.48
5.82
4.92
3.92
3.03
2.43
2.18
2.15
2.12
1.84
1.20
0.20
-0.97
-2.12
-3.11
-3.93
-4.70
-5.58
-6.65
-7.87
-9.08
-10.09
-10.74
-11.00
-10.91
-10.54
-9.91
-9.02
-7.85
-6.47
-5.04
-3.77
-2.83
-2.31
-2.11
-2.03
-1.91
-1.64
-1.28
-0.95
-0.78
-0.85
-1.11
-1.42
-1.63
-1.61
-1.38
-1.08
-0.89
-0.99
-1.45
-2.22
-3.13
-4.01
-4.75
-5.32
-5.77
-6.21
-6.72
-7.35
-8.07
-8.81
-9.46
-9.87
-9.90
-9.43
-8.42
-6.92
-5.06
-3.05
-1.11
0.60
2.04
3.22
4.20
5.01
5.56
5.69
5.21
4.01
2.21
0.09
-1.89
-3.26
-3.64
-2.91
-1.23
1.04
3.46
5.71
7.59
9.06
10.07
10.58
10.52
9.83
8.63
7.11
5.55
4.13
2.90
1.77
0.66
-0.43
-1.38
-2.00
-2.11
-1.64
-0.63
0.76
2.31
3.79
4.95
5.65
5.81
5.51
4.94
4.34
3.95
3.94
4.31
4.92
5.55
5.96
5.98
5.60
4.97
4.28
3.72
3.31
2.95
2.45
1.65
0.53
-0.81
-2.22
-3.56
-4.78
-5.89
-6.90
-7.76
-8.34
-8.49
-8.13
-7.35
-6.31
-5.26
-4.34
-3.61
-2.96
-2.22
-1.23
0.09
1.65
3.23
4.56
5.43
5.72
5.51
4.95
4.29
3.73
3.41
3.41
3.70
4.20
4.77
5.23
5.44
5.30
4.85
4.26
3.71
3.32
3.05
2.69
1.97
0.72
-1.01
-2.95
-4.74
-6.11
-6.93
-7.23
-7.11
-6.69
-6.18
-5.89
-6.22
-7.42
-9.33
-11.25
-12.19
-11.24
-8.17
-3.53
1.53
5.89
8.90
10.59
11.40
11.73
11.70
11.09
9.69
7.57
5.17
3.11
1.93
1.81
2.55
3.72
4.83
5.52
5.64
5.25
4.48
3.51
2.49
1.45
0.39
-0.72
-1.87
-3.01
-4.01
-4.81
-5.33
-5.59
-5.59
-5.29
-4.64
-3.54
-1.95
0.06
2.31
4.46
6.17
7.17
7.40
6.99
6.23
5.45
4.84
4.48
4.28
4.15
3.95
3.67
3.30
2.87
2.43
2.02
1.73
1.62
1.72
1.93
2.08
1.94
1.36
0.31
-1.11
-2.68
-4.19
-5.50
-6.61
-7.62
-8.64
-9.77
-10.99
-12.23
-13.36
-14.25
-14.79
-14.90
-14.50
-13.53
-12.01
-10.05
-7.86
-5.75
-3.99
-2.74
-2.00
-1.65
-1.50
-1.37
-1.20
-0.98
-0.77
-0.57
-0.38
-0.12
0.25
0.75
1.33
1.86
2.22
2.28
2.00
1.46
0.79
0.17
-0.31
-0.66
-0.97
-1.37
-1.94
-2.63
-3.29
-3.77
-3.98
-4.00
-3.99
-4.16
-4.61
-5.34
-6.28
-7.32
-8.35
-9.27
-9.95
-10.16
-9.70
-8.41
-6.29
-3.55
-0.57
2.20
4.38
5.76
6.35
6.35
6.05
5.69
5.44
5.35
5.39
5.53
5.71
5.91
6.08
6.19
6.22
6.15
6.05
5.95
5.86
5.73
5.51
5.13
4.59
3.89
3.11
2.30
1.53
0.83
0.23
-0.30
-0.81
-1.43
-2.26
-3.36
-4.72
-6.22
-7.69
-8.93
-9.74
-9.97
-9.57
-8.60
-7.18
-5.53
-3.84
-2.24
-0.80
0.46
1.54
2.46
3.26
3.99
4.72
5.43
6.05
6.46
6.51
6.18
5.58
4.93
4.45
4.24
4.27
4.34
4.25
3.89
3.31
2.64
2.05
1.61
1.30
0.94
0.39
-0.50
-1.71
-3.16
-4.69
-6.14
-7.40
-8.43
-9.28
-9.94
-10.39
-10.53
-10.21
-9.32
-7.90
-6.11
-4.22
-2.55
-1.30
-0.46
0.15
0.84
1.85
3.21
4.71
6.01
6.80
6.92
6.46
5.69
4.90
4.34
4.10
4.11
4.29
4.53
4.74
4.89
4.92
4.78
4.42
3.79
2.88
1.71
0.35
-1.09
-2.52
-3.89
-5.16
-6.36
-7.48
-8.47
-9.24
-9.64
-9.56
-8.93
-7.77
-6.19
-4.39
-2.58
-0.92
0.50
1.70
2.72
3.63
4.43
5.13
5.70
6.15
6.46
6.64
6.59
6.26
5.60
4.71
3.78
3.03
2.62
2.53
2.59
2.55
2.20
1.50
0.52
-0.58
-1.68
-2.76
-3.88
-5.13
-6.52
-8.01
-9.51
-10.89
-12.02
-12.79
-13.12
-12.93
-12.18
-10.89
-9.13
-7.05
-4.83
-2.64
-0.63
1.09
2.51
3.66
4.61
5.45
6.21
6.87
7.42
7.86
8.22
8.55
8.89
9.24
9.57
9.83
10.01
10.11
10.12
9.97
9.54
8.73
7.42
5.59
3.33
0.77
-1.89
-4.47
-6.76
-8.60
-9.83
-10.36
-10.16
-9.28
-7.84
-6.02
-4.05
-2.13
-0.44
0.92
1.95
2.74
3.39
3.94
4.36
4.59
4.56
4.31
3.93
3.58
3.34
3.20
3.05
2.79
2.38
1.89
1.43
1.09
0.88
0.71
0.44
-0.03
-0.71
-1.54
-2.43
-3.35
-4.32
-5.39
-6.62
-7.96
-9.27
-10.31
-10.83
-10.68
-9.77
-8.20
-6.13
-3.76
-1.33
0.94
2.89
4.45
5.63
6.54
7.23
7.71
7.90
7.73
7.20
6.49
5.81
5.38
5.22
5.24
5.23
5.04
4.63
4.07
3.48
2.94
2.43
1.92
1.29
0.50
-0.51
-1.75
-3.22
-4.88
-6.66
-8.42
-10.01
-11.32
-12.27
-12.80
-12.85
-12.36
-11.29
-9.64
-7.55
-5.25
-3.00
-1.00
0.67
2.09
3.38
4.64
5.89
7.01
7.87
8.37
8.43
8.10
7.42
6.52
5.51
4.54
3.77
3.29
3.11
3.12
3.17
3.06
2.67
1.94
0.90
-0.38
-1.81
-3.32
-4.89
-6.46
-8.01
-9.47
-10.79
-11.92
-12.80
-13.33
-13.38
-12.79
-11.45
-9.34
-6.59
-3.45
-0.20
2.89
5.66
8.04
9.99
11.51
12.57
13.14
13.29
13.08
12.62
11.98
11.19
10.27
9.23
8.16
7.17
6.40
5.91
5.69
5.65
5.66
5.61
5.42
5.07
4.55
3.82
2.82
1.46
-0.32
-2.50
-4.95
-7.43
-9.62
-11.21
-11.92
-11.60
-10.23
-7.96
-5.08
-1.95
1.07
3.74
5.99
7.83
9.32
10.50
11.32
11.78
11.91
11.85
11.72
11.63
11.60
11.58
11.49
11.26
10.87
10.29
9.47
8.42
7.23
6.06
5.06
4.29
3.61
2.77
1.48
-0.36
-2.68
-5.26
-7.86
-10.36
-12.73
-14.95
-16.91
-18.41
-19.24
-19.32
-18.74
-17.76
-16.61
-15.43
-14.24
-12.96
-11.59
-10.27
-9.23
-8.68
-8.75
-9.37
-10.37
-11.56
-12.80
-14.04
-15.24
-16.32
-17.14
-17.60
-17.68
-17.47
-17.22
-17.15
-17.50
-18.35
-19.71
-21.55
-23.76
-26.21
-28.73
-31.05
-32.88
-33.90
-33.87
-32.66
-30.26
-26.78
-22.40
-17.30
-11.67
-5.64
0.66
7.01
13.14
18.68
23.32
26.89
29.44
31.16
32.28
32.91
33.04
32.62
31.68
30.48
29.35
28.63
28.49
28.82
29.31
29.59
29.38
28.59
27.29
25.76
24.26
23.05
22.16
21.48
20.70
19.55
17.90
15.94
14.10
12.91
12.78
13.87
16.17
19.55
23.78
28.35
32.30
34.26
32.84
27.20
17.60
5.41
-7.41
-19.16
-29.04
-37.29
-44.65
-51.72
-58.44
-64.19
-68.25
-70.34
-70.79
-70.27
-69.21
-67.43
-64.02
-57.80
-47.92
-34.42
-18.28
-1.15
15.24
29.54
41.06
49.72
55.79
59.67
61.83
62.72
62.87
62.79
62.87
63.26
63.80
64.14
63.95
63.13
61.94
60.90
60.45
60.51
60.23
58.03
52.19
41.63
26.51
8.25
-10.94
-28.88
-44.04
-55.84
-64.29
-69.76
-72.66
-73.59
-73.29
-72.69
-72.48
-72.75
-72.92
-71.99
-69.23
-64.68
-59.30
-54.66
-52.27
-52.83
-55.81
-59.36
-60.76
-57.19
-46.63
-28.65
-4.63
22.48
49.03
71.74
88.55
99.03
104.07
105.23
103.99
101.28
97.49
92.72
87.12
81.09
75.21
69.92
65.32
61.09
56.64
51.46
45.39
38.64
31.61
24.48
16.99
8.39
-2.20
-15.38
-31.01
-48.12
-65.12
-80.32
-92.51
-101.32
-107.25
-111.29
-114.40
-117.11
-119.37
-120.66
-120.27
-117.49
-111.64
-102.19
-88.86
-71.82
-51.92
-30.67
-9.96
8.36
23.01
33.49
39.97
43.07
43.50
42.02
39.44
36.67
34.66
34.15
35.34
37.75
40.26
41.57
40.72
37.56
32.90
28.17
24.78
23.53
24.26
26.02
27.58
28.01
27.06
25.09
22.75
20.55
18.61
16.73
14.69
12.55
10.75
9.96
10.74
13.24
17.04
21.33
25.24
28.22
30.22
31.63
32.96
34.57
36.59
38.98
41.59
44.03
45.51
44.75
40.30
31.26
18.06
2.77
-11.40
-21.23
-24.80
-22.08
-14.69
-4.92
5.33
14.90
23.19
29.57
33.08
32.87
28.97
22.91
17.46
15.38
17.91
23.65
28.86
29.14
21.59
6.43
-13.03
-31.99
-46.39
-54.73
-58.26
-59.83
-62.05
-65.76
-69.81
-71.94
-70.21
-64.24
-55.42
-46.30
-39.36
-35.95
-35.86
-37.62
-39.28
-39.25
-36.86
-32.32
-26.38
-19.86
-13.32
-7.00
-0.96
4.74
10.00
14.71
18.90
22.79
26.84
31.53
37.17
43.71
50.60
56.90
61.51
63.59
62.82
59.46
54.22
48.00
41.65
35.82
30.94
27.17
24.34
22.01
19.51
16.15
11.50
5.50
-1.49
-8.91
-16.26
-23.28
-29.97
-36.43
-42.65
-48.37
-53.19
-56.74
-58.92
-60.02
-60.69
-61.75
-63.91
-67.54
-72.60
-78.71
-85.39
-92.16
-98.66
-104.66
-110.14
-115.36
-121.06
-128.30
-138.02
-150.29
-163.71
-175.19
-180.67
-176.27
-159.56
-130.31
-90.40
-43.23
7.09
56.44
101.09
138.07
165.30
181.89
188.14
185.38
175.54
160.78
143.34
125.57
109.94
98.80
93.87
95.62
103.00
113.69
124.80
133.90
139.63
141.95
141.85
140.69
139.49
138.59
137.64
135.91
132.57
126.94
118.57
107.27
93.25
77.15
60.10
43.53
28.94
17.47
9.66
5.40
4.03
4.54
5.84
6.89
6.81
4.96
1.02
-5.07
-13.12
-22.74
-33.44
-44.64
-55.67
-65.88
-74.73
-81.88
-87.13
-90.32
-91.04
-88.61
-82.27
-71.70
-57.59
-41.88
-27.47
-17.35
-13.57
-16.64
-25.64
-38.92
-55.04
-73.32
-93.63
-115.80
-138.95
-161.40
-181.01
-196.07
-205.85
-210.90
-212.76
-213.32
-214.24
-216.52
-220.18
-224.15
-226.28
-223.63
-213.20
-192.96
-162.64
-124.20
-81.62
-40.12
-4.90
20.07
33.13
34.61
26.30
10.87
-8.71
-29.48
-48.81
-64.25
-73.63
-74.42
-64.78
-44.07
-13.06
25.99
69.56
113.11
152.43
184.44
208.82
226.49
238.59
245.58
247.13
242.80
232.54
217.80
200.94
185.62
173.92
165.34
157.56
147.83
134.75
118.45
101.23
78.22
49.38
19.05
-6.85
-25.43
-38.71
-48.11
-58.16
-70.55
-84.19
-95.01
-99.28
-96.51
-87.32
-73.57
-57.59
-41.87
-27.72
-15.62
-4.65
5.77
15.33
23.50
30.08
35.96
42.52
51.61
64.19
80.38
98.71
116.62
131.84
143.14
150.94
156.56
161.74
167.53
174.15
180.80
186.05
188.72
188.27
185.08
180.32
175.93
174.05
176.61
184.33
196.08
208.68
217.51
217.88
206.51
182.76
148.57
107.59
63.77
20.03
-22.41
-63.87
-105.32
-147.18
-188.47
-226.66
-258.36
-280.46
-291.16
-290.34
-279.32
-260.13
-235.01
-206.37
-177.20
-151.13
-131.77
-121.40
-119.49
-122.36
-124.22
-119.52
-105.19
-81.78
-52.97
-23.66
2.04
22.32
37.71
50.33
62.46
75.53
89.65
103.70
115.89
124.38
127.57
124.32
114.11
97.11
74.42
48.20
21.41
-2.84
-22.25
-36.11
-45.57
-53.06
-61.18
-71.56
-84.28
-98.03
-110.92
-121.40
-128.83
-133.49
-136.21
-137.85
-138.98
-139.85
-140.49
-140.83
-140.87
-140.77
-140.78
-141.32
-142.94
-146.15
-151.21
-157.84
-165.04
-171.05
-173.78
-171.44
-163.25
-149.82
-133.06
-115.42
-98.98
-84.67
-72.06
-59.79
-46.49
-31.53
-15.39
0.60
14.97
26.72
35.74
42.66
48.58
54.64
61.74
70.37
80.44
91.22
101.48
109.81
115.10
117.02
116.32
114.55
113.55
114.71
118.47
124.05
129.75
133.40
132.93
126.98
115.21
98.60
79.28
60.23
44.53
34.54
31.14
33.43
39.03
44.94
48.63
48.95
46.39
42.69
39.77
38.84
39.80
41.50
42.55
42.42
42.03
43.56
49.31
60.27
75.05
89.80
99.20
97.90
81.84
49.27
1.26
-57.98
-121.06
-178.15
-218.83
-235.01
-223.90
-189.45
-141.43
-92.15
-52.14
-26.92
-16.00
-14.42
-15.56
-13.87
-6.37
7.02
24.21
41.83
56.08
63.41
61.20
48.18
24.84
-6.19
-40.18
-70.86
-91.60
-97.37
-86.61
-62.24
-31.03
-1.44
19.28
27.47
23.77
12.06
-2.70
-16.53
-27.55
-35.68
-41.63
-45.88
-48.24
-47.96
-44.32
-37.02
-26.26
-12.51
3.65
21.48
39.75
56.45
69.11
75.60
75.09
68.67
59.06
49.62
43.27
41.62
44.95
52.55
63.16
75.15
86.70
95.94
101.37
102.31
99.08
92.73
84.59
75.71
66.75
58.10
50.00
42.61
35.76
28.94
21.37
12.44
2.04
-9.28
-20.56
-30.84
-39.53
-46.54
-52.11
-56.56
-60.02
-62.40
-63.51
-63.26
-61.81
-59.50
-56.80
-54.09
-51.54
-49.15
-46.75
-44.20
-41.43
-38.51
-35.62
-32.97
-30.76
-29.02
-27.69
-26.58
-25.49
-24.26
-22.82
-21.19
-19.42
-17.59
-15.75
-13.94
-12.28
-10.85
-9.71
-8.88
-8.27
-7.83
-7.50
-7.30
-7.25
-7.31
-7.35
-7.15
-6.50
-5.29
-3.60
-1.71
0.03
1.32
2.05
2.30
2.32
2.36
2.53
2.79
2.98
2.95
2.69
2.35
2.12
2.15
2.41
2.74
2.94
2.90
2.66
2.38
2.20
2.20
2.31
2.38
2.23
1.74
0.91
-0.13
-1.16
-1.88
-2.04
-1.50
-0.32
1.27
2.93
4.41
5.57
6.52
7.42
8.40
9.45
10.42
11.13
11.52
11.63
11.57
11.41
11.04
10.29
9.02
7.32
5.49
3.98
3.15
3.10
3.69
4.66
5.79
6.96
8.16
9.30
10.23
10.67
10.45
9.55
8.19
6.70
5.40
4.43
3.79
3.41
3.23
3.29
3.69
4.52
5.66
6.81
7.50
7.33
6.09
3.95
1.39
-1.00
-2.81
-3.96
-4.69
-5.39
-6.34
-7.64
-9.13
-10.67
-12.21
-13.89
-15.93
-18.60
-22.08
-26.39
-31.30
-36.31
-40.59
-43.10
-42.84
-39.23
-32.43
-23.38
-13.47
-4.04
4.13
10.97
16.92
22.50
27.80
32.36
35.33
35.99
34.08
30.03
24.72
19.05
13.58
8.34
2.96
-2.91
-9.34
-15.88
-21.65
-25.58
-26.82
-24.95
-20.15
-13.09
-4.78
3.65
11.24
17.25
21.31
23.41
23.79
22.85
20.94
18.23
14.61
9.77
3.40
-4.62
-13.99
-23.92
-33.31
-40.93
-45.75
-47.10
-44.84
-39.40
-31.69
-22.96
-14.50
-7.38
-2.21
1.00
2.70
3.47
3.75
3.63
2.90
1.24
-1.41
-4.75
-8.07
-10.48
-11.24
-10.00
-6.95
-2.72
1.86
6.01
9.13
10.93
11.33
10.42
8.42
5.71
2.81
0.36
-1.01
-0.87
0.87
3.96
7.91
12.17
16.28
19.94
22.96
25.21
26.51
26.70
25.66
23.47
20.44
17.13
14.23
12.35
11.79
12.49
14.04
15.89
17.60
18.93
19.93
20.74
21.43
21.90
21.84
20.92
18.93
15.90
12.06
7.78
3.46
-0.61
-4.16
-7.02
-9.03
-10.12
-10.30
-9.74
-8.73
-7.63
-6.81
-6.54
-6.96
-8.04
-9.54
-11.11
-12.30
-12.71
-12.10
-10.49
-8.11
-5.36
-2.64
-0.33
1.36
2.31
2.47
1.89
0.60
-1.26
-3.50
-5.88
-8.10
-9.92
-11.16
-11.76
-11.74
-11.16
-10.11
-8.65
-6.85
-4.82
-2.70
-0.71
0.88
1.83
1.96
1.23
-0.25
-2.23
-4.37
-6.35
-7.86
-8.69
-8.72
-7.92
-6.39
-4.30
-1.86
0.74
3.39
6.06
8.78
11.55
14.32
17.04
19.63
22.00
24.08
25.80
27.07
27.85
28.18
28.24
28.22
28.22
28.18
27.85
26.93
25.22
22.68
19.46
15.74
11.65
7.24
2.58
-2.07
-6.26
-9.35
-10.79
-10.33
-8.12
-4.70
-0.79
2.99
6.26
8.95
11.13
12.94
14.39
15.38
15.73
15.34
14.22
12.53
10.57
8.58
6.70
4.90
3.02
0.85
-1.72
-4.58
-7.48
-10.03
-11.94
-13.14
-13.77
-14.13
-14.57
-15.33
-16.45
-17.82
-19.23
-20.42
-21.12
-21.08
-20.10
-18.15
-15.42
-12.32
-9.37
-7.01
-5.41
-4.46
-3.85
-3.26
-2.49
-1.53
-0.48
0.57
1.65
2.85
4.34
6.18
8.31
10.55
12.61
14.15
14.86
14.55
13.37
11.83
10.78
11.14
13.45
17.56
22.52
26.87
29.15
28.47
24.84
19.00
12.01
4.73
-2.51
-9.80
-17.23
-24.44
-30.33
-33.16
-31.23
-23.60
-10.67
5.76
22.99
38.15
48.90
53.78
52.21
44.50
31.77
15.99
-0.25
-14.34
-24.49
-30.35
-33.19
-35.22
-38.38
-43.40
-49.39
-54.24
-55.71
-52.35
-44.15
-32.41
-19.18
-6.60
3.76
11.06
15.19
16.50
15.62
13.23
10.06
6.85
4.26
2.78
2.56
3.41
4.80
6.16
7.05
7.37
7.36
7.48
8.17
9.73
12.08
14.90
17.66
19.86
21.16
21.46
20.89
19.72
18.18
16.48
14.71
12.93
11.13
9.29
7.38
5.39
3.38
1.47
-0.21
-1.64
-2.90
-4.25
-5.90
-7.96
-10.28
-12.56
-14.43
-15.65
-16.16
-16.01
-15.32
-14.19
-12.66
-10.79
-8.71
-6.61
-4.76
-3.42
-2.72
-2.69
-3.22
-4.12
-5.19
-6.29
-7.36
-8.37
-9.25
-9.82
-9.88
-9.30
-8.19
-6.90
-5.85
-5.39
-5.59
-6.26
-7.13
-7.96
-8.67
-9.26
-9.72
-9.90
-9.63
-8.77
-7.43
-5.90
-4.55
-3.65
-3.25
-3.15
-3.06
-2.70
-1.97
-0.93
0.29
1.54
2.75
3.92
5.06
6.13
7.02
7.61
7.80
7.61
7.19
6.70
6.32
6.10
6.04
6.00
5.85
5.42
4.60
3.28
1.47
-0.72
-3.11
-5.42
-7.36
-8.67
-9.21
-8.92
-7.91
-6.34
-4.49
-2.61
-0.97
0.32
1.24
1.91
2.56
3.44
4.76
6.66
9.06
11.75
14.40
16.64
18.26
19.16
19.45
19.34
19.02
18.59
18.06
17.35
16.39
15.17
13.73
12.20
10.72
9.36
8.17
7.13
6.24
5.52
5.03
4.88
5.16
5.88
6.96
8.19
9.31
10.07
10.28
9.89
8.97
7.70
6.29
4.92
3.75
2.90
2.44
2.38
2.60
2.90
2.96
2.46
1.21
-0.80
-3.45
-6.47
-9.59
-12.56
-15.23
-17.49
-19.31
-20.65
-21.49
-21.74
-21.31
-20.13
-18.21
-15.71
-12.90
-10.09
-7.50
-5.18
-3.06
-1.02
0.92
2.62
3.85
4.47
4.49
4.11
3.56
2.99
2.40
1.67
0.65
-0.74
-2.45
-4.33
-6.14
-7.68
-8.77
-9.33
-9.38
-9.04
-8.50
-7.94
-7.48
-7.10
-6.71
-6.13
-5.21
-3.87
-2.09
0.03
2.34
4.68
6.88
8.85
10.48
11.68
12.35
12.37
11.66
10.19
8.06
5.44
2.56
-0.29
-2.83
-4.83
-6.20
-6.96
-7.21
-7.14
-6.84
-6.37
-5.69
-4.78
-3.66
-2.43
-1.28
-0.47
-0.22
-0.70
-1.91
-3.64
-5.46
-6.88
-7.47
-7.07
-5.83
-4.11
-2.31
-0.69
0.70
1.93
3.07
4.08
4.82
5.13
4.98
4.47
3.86
3.43
3.35
3.64
4.15
4.66
4.95
4.93
4.63
4.19
3.75
3.45
3.27
3.13
2.82
2.20
1.17
-0.25
-1.93
-3.73
-5.51
-7.19
-8.72
-10.04
-11.05
-11.64
-11.72
-11.25
-10.32
-9.09
-7.71
-6.31
-4.98
-3.73
-2.60
-1.64
-0.88
-0.36
-0.05
0.15
0.37
0.69
1.15
1.65
2.03
2.11
1.81
1.20
0.44
-0.27
-0.89
-1.49
-2.22
-3.21
-4.39
-5.51
-6.29
-6.50
-6.12
-5.29
-4.20
-3.02
-1.76
-0.36
1.27
3.16
5.26
7.49
9.75
11.93
13.94
15.66
16.94
17.60
17.54
16.76
15.50
14.20
13.39
13.56
14.90
17.23
20.04
22.66
24.55
25.43
25.32
24.39
22.88
20.92
18.59
15.94
13.10
10.21
7.44
4.77
2.04
-1.03
-4.66
-8.87
-13.42
-17.79
-21.39
-23.73
-24.54
-23.82
-21.75
-18.69
-14.98
-11.04
-7.23
-3.85
-1.09
1.01
2.51
3.49
3.96
3.88
3.13
1.66
-0.39
-2.77
-5.08
-6.95
-8.16
-8.64
-8.47
-7.87
-7.04
-6.18
-5.40
-4.79
-4.33
-3.99
-3.70
-3.31
-2.64
-1.48
0.35
2.85
5.77
8.53
10.40
10.76
9.41
6.65
3.29
0.24
-1.83
-2.71
-2.70
-2.40
-2.45
-3.31
-5.16
-7.90
-11.22
-14.68
-17.75
-19.96
-21.01
-20.88
-19.84
-18.33
-16.82
-15.60
-14.81
-14.48
-14.62
-15.24
-16.33
-17.75
-19.19
-20.17
-20.19
-18.86
-16.04
-11.91
-6.91
-1.66
3.24
7.28
10.20
12.05
13.09
13.66
14.07
14.44
14.77
15.04
15.33
15.79
16.61
17.78
19.09
20.14
20.55
20.21
19.26
18.08
17.08
16.46
16.29
16.45
16.81
17.23
17.59
17.78
17.66
17.16
16.22
14.82
13.01
10.82
8.36
5.83
3.53
1.75
0.67
0.19
-0.00
-0.35
-1.19
-2.65
-4.55
-6.50
-8.09
-8.95
-8.91
-7.92
-6.08
-3.59
-0.76
2.01
4.33
5.89
6.55
6.37
5.63
4.62
3.61
2.70
1.88
1.04
0.06
-1.11
-2.52
-4.14
-5.87
-7.53
-8.80
-9.32
-8.85
-7.36
-5.14
-2.74
-0.77
0.27
0.15
-1.05
-3.03
-5.34
-7.48
-8.99
-9.54
-8.99
-7.48
-5.34
-3.01
-0.84
0.92
2.25
3.15
3.62
3.64
3.19
2.32
1.19
0.01
-1.06
-1.93
-2.58
-3.00
-3.13
-2.89
-2.23
-1.23
-0.12
0.86
1.46
1.54
1.07
0.08
-1.41
-3.33
-5.58
-7.99
-10.33
-12.34
-13.76
-14.45
-14.32
-13.38
-11.78
-9.73
-7.50
-5.34
-3.38
-1.56
0.31
2.49
5.16
8.34
11.84
15.31
18.39
20.76
22.24
22.82
22.58
21.64
20.08
17.96
15.26
12.07
8.58
5.07
1.89
-0.72
-2.70
-4.24
-5.68
-7.35
-9.38
-11.62
-13.66
-15.00
-15.24
-14.26
-12.28
-9.79
-7.31
-5.20
-3.49
-1.97
-0.33
1.57
3.55
5.11
5.67
4.87
2.76
-0.07
-2.75
-4.44
-4.67
-3.53
-1.65
0.12
0.98
0.49
-1.23
-3.37
-4.39
-2.01
6.23
22.07
45.45
73.76
102.07
124.43
135.80
133.77
119.28
96.04
68.96
42.44
19.32
0.81
-13.07
-22.79
-28.98
-32.38
-33.93
-34.70
-35.69
-37.52
-40.25
-43.39
-46.13
-47.67
-47.51
-45.58
-42.22
-38.10
-33.98
-30.51
-28.06
-26.66
-25.99
-25.53
-24.84
-23.66
-22.11
-20.72
-20.15
-21.01
-23.48
-27.13
-31.01
-33.94
-34.97
-33.72
-30.58
-26.44
-22.38
-19.30
-17.92
-18.72
-22.03
-27.81
-35.43
-43.44
-49.66
-51.67
-47.59
-36.62
-19.22
3.15
28.70
55.86
83.43
110.39
135.63
157.80
175.52
187.74
194.06
194.80
190.66
182.35
170.09
153.40
131.31
103.20
69.90
34.39
1.60
-22.92
-35.10
-34.26
-23.83
-10.50
-1.71
-2.83
-15.09
-35.30
-57.49
-75.55
-85.64
-87.23
-82.62
-75.42
-69.00
-65.47
-65.48
-68.53
-73.45
-78.75
-82.67
-83.34
-79.28
-70.03
-56.61
-41.44
-27.60
-17.87
-13.81
-15.35
-21.03
-28.58
-35.66
-40.43
-41.95
-40.35
-36.61
-32.15
-28.38
-26.26
-26.09
-27.50
-29.64
-31.52
-32.30
-31.46
-28.86
-24.74
-19.68
-14.37
-9.52
-5.67
-2.93
-1.01
0.67
2.70
5.43
8.95
13.22
18.25
24.13
30.79
37.63
43.40
46.35
44.87
38.22
27.03
13.32
-0.12
-10.54
-16.16
-16.58
-12.73
-6.33
0.78
7.27
12.65
17.14
21.34
25.85
31.05
37.02
43.57
50.15
55.80
59.17
58.94
54.38
45.88
35.16
24.71
16.96
13.38
13.85
16.71
19.42
19.41
14.99
5.86
-6.91
-21.30
-35.11
-46.61
-54.95
-60.10
-62.44
-62.35
-59.95
-55.29
-48.70
-41.05
-33.60
-27.60
-23.76
-21.98
-21.48
-21.27
-20.67
-19.61
-18.54
-18.09
-18.65
-20.15
-22.12
-23.95
-25.15
-25.54
-25.17
-24.21
-22.86
-21.25
-19.40
-17.35
-15.09
-12.71
-10.33
-8.16
-6.41
-5.16
-4.17
-2.94
-0.83
2.60
7.26
12.42
16.91
19.61
20.00
18.35
15.67
13.20
11.82
11.76
12.49
13.16
13.02
11.80
9.82
7.70
6.05
5.14
4.82
4.67
4.32
3.59
2.61
1.58
0.67
-0.17
-1.11
-2.32
-3.73
-5.04
-5.82
-5.73
-4.69
-2.98
-1.07
0.50
1.32
1.18
0.09
-1.71
-3.92
-6.16
-8.17
-9.78
-10.97
-11.77
-12.20
-12.21
-11.66
-10.43
-8.43
-5.70
-2.40
1.24
4.95
8.43
11.40
13.63
14.99
15.53
15.49
15.21
15.07
15.29
15.92
16.93
18.28
20.01
22.24
25.04
28.22
31.34
33.74
34.90
34.64
33.29
31.45
29.74
28.42
27.28
25.76
23.26
19.43
14.36
8.57
2.80
-2.19
-5.82
-7.93
-8.77
-8.96
-9.29
-10.43
-12.60
-15.26
-17.13
-16.40
-11.42
-1.47
12.50
27.56
39.34
43.24
36.07
17.46
-9.70
-40.02
-67.36
-86.79
-95.96
-95.41
-87.79
-76.59
-64.87
-54.62
-46.73
-41.24
-37.81
-35.93
-35.01
-34.36
-33.28
-31.14
-27.56
-22.45
-16.06
-8.92
-1.73
4.78
9.93
13.36
15.18
15.98
16.73
18.55
22.04
27.15
33.09
38.47
41.88
42.23
38.86
31.50
20.27
6.07
-9.07
-22.04
-29.57
-29.63
-22.63
-11.55
-0.78
6.00
7.37
4.68
0.91
-1.18
-0.35
2.67
6.20
8.69
9.56
9.17
8.21
7.13
6.03
5.00
4.18
4.03
5.16
7.91
12.13
17.18
22.11
26.08
28.64
29.79
29.91
29.48
28.81
27.89
26.26
23.12
17.48
8.54
-3.82
-18.73
-34.30
-48.12
-57.97
-62.54
-61.79
-56.81
-49.22
-40.57
-31.89
-23.66
-15.98
-8.87
-2.36
3.40
8.22
11.86
14.14
15.01
14.63
13.44
12.05
11.05
10.91
11.78
13.58
16.12
19.27
23.07
27.61
32.84
38.32
43.12
46.06
46.08
42.78
36.67
29.09
21.72
15.97
12.47
10.89
10.20
9.14
6.73
2.54
-3.24
-10.01
-17.03
-23.62
-29.38
-34.12
-37.82
-40.49
-42.01
-42.24
-41.06
-38.58
-35.23
-31.66
-28.49
-26.08
-24.31
-22.67
-20.54
-17.51
-13.68
-9.53
-5.68
-2.44
0.41
3.53
7.74
13.34
20.01
26.75
32.19
35.22
35.36
32.75
27.98
21.82
15.17
9.29
5.78
6.19
11.21
19.88
29.49
36.48
37.93
32.99
23.34
12.34
3.41
-1.47
-2.43
-1.14
0.40
0.90
0.21
-1.05
-2.23
-3.17
-4.20
-5.91
-8.63
-12.04
-15.36
-17.61
-18.21
-17.25
-15.44
-13.79
-13.14
-13.79
-15.52
-17.75
-19.89
-21.58
-22.71
-23.40
-23.78
-23.90
-23.64
-22.72
-20.83
-17.75
-13.57
-8.74
-4.03
-0.34
1.65
1.77
0.41
-1.50
-2.79
-2.28
0.83
6.70
14.60
22.97
29.73
32.95
31.55
25.79
17.20
8.09
0.64
-3.81
-5.04
-3.73
-0.95
2.36
5.54
8.21
10.01
10.58
9.70
7.50
4.62
2.19
1.38
2.92
6.80
12.21
17.78
22.10
24.09
23.28
19.81
14.30
7.66
0.83
-5.43
-10.64
-14.71
-17.80
-20.13
-21.79
-22.59
-22.22
-20.48
-17.46
-13.67
-9.88
-6.81
-4.91
-4.19
-4.37
-5.07
-5.99
-7.03
-8.25
-9.69
-11.23
-12.62
-13.43
-13.30
-12.09
-9.90
-7.05
-3.96
-0.91
1.99
4.85
7.84
11.02
14.27
17.21
19.33
20.19
19.57
17.65
14.92
12.01
9.46
7.52
6.18
5.26
4.61
4.25
4.37
5.15
6.63
8.60
10.67
12.47
13.75
14.47
14.70
14.50
13.80
12.47
10.43
7.70
4.51
1.20
-1.87
-4.41
-6.32
-7.61
-8.41
-8.88
-9.18
-9.42
-9.62
-9.74
-9.71
-9.51
-9.21
-9.01
-9.11
-9.61
-10.43
-11.38
-12.21
-12.77
-13.04
-13.11
-13.14
-13.23
-13.48
-13.92
-14.54
-15.25
-15.89
-16.22
