1513092061.00
64.000000
-0.00
-0.00
-0.00
-0.00
-0.00
-0.00
-0.00
-0.00
-0.00
-0.00
0.00
0.01
0.01
-0.00
-0.03
-0.05
-0.05
0.00
0.13
0.36
0.66
1.01
1.37
1.72
2.06
2.40
2.79
3.24
3.80
4.42
5.06
5.66
6.20
6.68
7.15
7.68
8.31
9.14
10.09
11.04
11.88
12.56
13.14
13.76
14.65
15.96
17.91
20.32
22.90
25.38
27.58
29.57
31.68
34.32
37.81
42.54
48.15
54.10
59.83
64.97
69.58
74.14
79.34
85.71
93.76
103.00
112.62
121.73
129.77
136.75
143.30
150.75
157.77
166.64
177.95
191.79
206.97
220.57
228.25
225.36
208.53
176.87
132.76
80.05
23.07
-34.94
-92.44
-149.16
-205.23
-260.37
-313.74
-363.87
-409.83
-450.91
-486.50
-515.74
-537.23
-549.22
-549.96
-538.37
-514.21
-478.67
-433.88
-382.45
-327.02
-269.84
-212.63
-156.66
-102.95
-52.37
-5.90
35.58
71.43
101.35
125.50
144.38
158.69
169.15
176.37
180.75
182.57
182.07
179.51
175.23
169.65
163.18
156.15
148.81
141.30
133.69
126.02
118.33
110.69
103.16
95.80
88.68
81.83
75.25
68.95
62.95
57.25
51.86
46.78
42.03
37.59
33.45
29.61
26.07
22.81
19.83
17.11
14.67
12.48
10.54
8.84
7.35
6.07
4.97
4.04
3.27
2.63
2.12
1.69
1.32
0.99
0.69
0.42
0.20
0.03
-0.08
-0.13
-0.16
-0.19
-0.24
-0.31
-0.40
-0.47
-0.50
-0.48
-0.43
-0.37
-0.35
-0.42
-0.57
-0.76
-0.93
-1.02
-0.99
-0.86
-0.75
-0.77
-1.00
-1.45
-2.02
-2.54
-2.85
-2.85
-2.62
-2.35
-2.32
-2.71
-3.54
-4.62
-5.61
-6.20
-6.22
-5.79
-5.25
-5.06
-5.54
-6.71
-8.29
-9.75
-10.65
-10.75
-10.18
-9.34
-8.69
-8.60
-9.37
-11.16
-13.91
-17.10
-19.59
-19.73
-15.88
-7.29
5.36
19.94
33.66
44.12
50.25
52.37
51.69
49.45
46.20
41.94
36.58
30.10
23.11
16.50
10.96
6.64
3.19
0.02
-3.42
-7.25
-11.22
-14.72
-17.08
-17.87
-16.94
-14.58
-11.32
-7.84
-4.76
-2.52
-1.28
-0.96
-1.33
-2.04
-2.83
-3.55
-4.20
-4.87
-5.65
-6.48
-7.21
-7.65
-7.67
-7.28
-6.67
-6.07
-5.64
-5.46
-5.42
-5.41
-5.41
-5.44
-5.53
-5.69
-5.90
-6.08
-6.25
-6.47
-6.84
-7.43
-8.12
-8.56
-8.26
-6.75
-3.87
0.11
4.62
8.90
12.33
14.63
15.89
16.45
16.65
16.69
16.21
15.05
13.17
10.78
8.25
6.05
4.54
3.82
3.70
3.76
3.61
2.96
1.68
-0.10
-2.20
-4.43
-6.70
-9.03
-11.44
-13.85
-16.14
-18.19
-20.02
-21.80
-23.74
-25.88
-27.90
-29.14
-28.69
-25.90
-20.61
-13.36
-5.21
2.66
9.31
14.34
17.86
20.22
21.80
22.76
23.10
22.82
21.96
20.74
19.39
18.15
17.08
16.14
15.15
13.93
12.38
10.48
8.33
6.07
3.89
1.89
0.14
-1.41
-2.84
-4.24
-5.69
-7.35
-9.34
-11.73
-14.40
-16.89
-18.54
-18.64
-16.76
-12.97
-7.85
-2.35
2.62
6.46
9.03
10.58
11.39
11.68
11.49
10.79
9.61
8.20
6.93
6.20
6.34
7.39
9.19
11.33
13.38
14.94
15.82
16.05
15.80
15.36
14.94
14.57
14.14
13.41
12.11
10.05
7.13
3.46
-0.63
-4.57
-7.57
-8.85
-7.82
-4.41
0.86
6.99
12.72
16.91
18.86
18.34
15.58
11.01
5.14
-1.52
-8.49
-15.32
-21.55
-26.89
-31.19
-34.53
-37.16
-39.38
-41.52
-43.90
-46.76
-50.28
-54.53
-59.36
-64.44
-69.20
-73.04
-75.56
-76.79
-77.35
-78.40
-81.18
-86.42
-93.83
-102.02
-108.86
-112.36
-111.42
-106.24
-98.10
-88.82
-79.95
-72.38
-66.14
-60.38
-53.57
-43.71
-28.99
-8.70
15.76
40.56
60.06
68.61
62.68
42.51
12.45
-20.21
-47.45
-62.97
-63.83
-50.84
-27.72
0.45
28.78
53.75
73.47
87.48
96.16
100.30
101.04
99.98
99.24
101.09
107.28
118.22
132.71
148.29
162.18
172.24
177.64
178.81
176.89
172.86
167.04
158.96
147.89
133.53
116.55
98.64
81.97
68.27
58.07
50.51
43.79
36.08
26.52
15.54
4.54
-4.86
-11.57
-15.40
-16.88
-16.94
-16.53
-16.61
-18.03
-21.56
-27.44
-35.13
-43.27
-50.09
-54.23
-55.49
-54.86
-53.92
-53.81
-54.45
-54.46
-51.90
-45.37
-34.83
-21.73
-8.40
2.98
11.18
16.18
18.80
20.04
20.50
20.10
18.34
14.68
9.01
1.75
-6.28
-14.22
-21.57
-28.38
-35.17
-42.64
-51.22
-60.78
-70.45
-78.85
-84.50
-86.63
-85.59
-82.96
-80.98
-81.57
-85.55
-92.31
-100.29
-107.83
-114.05
-119.03
-123.55
-128.38
-133.75
-139.30
-144.40
-148.61
-151.82
-154.03
-154.93
-153.70
-149.18
-140.41
-127.10
-109.81
-89.81
-68.51
-47.31
-27.57
-10.93
0.55
4.88
1.22
-8.98
-21.42
-29.63
-26.70
-7.50
29.51
81.50
141.81
201.71
252.60
288.19
305.87
306.88
295.29
276.14
253.59
229.77
204.78
177.75
148.29
117.44
87.68
61.90
41.99
27.90
17.62
8.25
-2.39
-14.59
-26.59
-35.51
-38.93
-36.18
-28.79
-19.73
-12.07
-7.64
-6.45
-7.04
-7.40
-6.02
-2.40
2.98
9.22
15.53
21.49
26.82
31.02
33.37
33.55
32.50
32.64
37.07
47.90
64.75
84.40
102.04
113.39
116.46
111.79
101.19
86.05
66.35
41.15
9.92
-26.21
-64.37
-101.06
-133.57
-161.03
-184.21
-204.55
-223.19
-240.21
-254.53
-264.19
-266.84
-260.25
-242.98
-215.11
-178.80
-138.30
-99.26
-67.29
-46.39
-37.69
-39.16
-46.27
-53.52
-56.00
-50.68
-36.79
-15.45
11.33
41.63
74.68
111.08
152.22
198.86
249.44
299.08
340.11
364.31
366.09
344.98
306.15
258.55
211.60
172.01
142.40
121.95
108.33
99.48
94.27
92.06
91.83
91.92
90.54
86.71
80.86
74.68
70.41
69.66
72.57
77.52
81.49
80.88
72.76
55.89
31.26
1.90
-28.22
-55.55
-78.02
-95.25
-107.77
-115.84
-118.53
-113.82
-99.73
-75.99
-45.19
-12.67
14.85
31.53
34.41
24.25
5.08
-17.44
-37.79
-52.01
-58.17
-56.09
-46.74
-31.53
-12.10
9.84
32.35
53.23
70.19
81.05
84.22
78.94
65.63
45.85
22.04
-2.98
-26.58
-46.80
-62.56
-73.56
-80.10
-82.88
-83.03
-82.04
-81.72
-83.58
-88.30
-95.06
-101.67
-105.31
-103.64
-95.95
-83.49
-69.06
-55.95
-46.87
-43.16
-44.63
-49.92
-57.08
-64.22
-69.85
-73.17
-73.99
-72.65
-69.72
-65.82
-61.43
-56.81
-52.07
-47.18
-42.01
-36.27
-29.59
-21.55
-11.93
-0.87
10.90
22.11
31.20
36.69
37.79
34.62
28.21
20.07
11.57
3.48
-4.06
-11.25
-18.13
-24.32
-29.15
-31.98
-32.79
-32.35
-32.08
-33.53
-37.66
-44.31
-52.00
-58.25
-60.17
-55.37
-42.59
-22.19
3.91
32.63
60.44
84.05
101.02
109.97
110.80
104.38
92.37
76.82
59.91
43.64
29.61
18.99
12.32
9.51
9.84
12.09
14.91
17.10
18.02
17.63
16.47
15.33
14.90
15.55
17.29
19.77
22.42
24.58
25.57
24.79
21.85
16.67
9.56
1.17
-7.70
-16.33
-24.12
-30.78
-36.14
-40.19
-42.96
-44.55
-45.11
-44.81
-43.86
-42.41
-40.71
-39.02
-37.67
-36.88
-36.60
-36.50
-36.03
-34.78
-32.73
-30.39
-28.52
-27.73
-28.09
-29.14
-30.02
-29.98
-28.72
-26.42
-23.59
-20.72
-18.08
-15.71
-13.51
-11.45
-9.61
-8.13
-7.10
-6.50
-6.20
-5.98
-5.72
-5.35
-5.03
-4.97
-5.43
-6.58
-8.40
-10.62
-12.84
-14.62
-15.72
-16.16
-16.20
-16.24
-16.61
-17.46
-18.71
-20.15
-21.53
-22.70
-23.63
-24.42
-25.31
-26.60
-28.66
-31.83
-36.22
-41.65
-47.55
-53.25
-58.19
-62.35
-66.36
-71.34
-78.46
-88.39
-100.86
-114.71
-128.22
-139.71
-148.13
-153.47
-156.55
-158.62
-160.54
-162.18
-162.26
-158.62
-148.88
-131.01
-104.02
-68.54
-27.32
14.53
50.34
73.56
80.04
69.92
47.92
21.72
-0.96
-15.09
-19.56
-16.42
-8.98
0.14
9.63
19.12
28.25
36.29
42.41
46.40
49.17
52.32
57.38
64.77
73.30
80.50
83.49
80.14
69.98
54.44
36.45
19.48
6.40
-1.29
-3.72
-2.30
0.97
4.18
5.86
5.19
1.91
-3.64
-10.50
-17.07
-21.34
-21.42
-16.09
-5.33
9.63
26.63
43.27
57.52
68.13
74.73
77.65
77.65
75.73
72.95
70.37
68.86
68.92
70.47
72.79
74.70
75.02
73.05
68.84
63.13
56.95
51.12
45.95
41.39
37.32
33.91
31.64
30.98
31.86
33.33
33.70
31.00
23.82
11.98
-3.13
-18.74
-31.40
-37.99
-36.77
-28.04
-14.05
1.80
16.22
27.20
34.70
40.43
47.08
57.17
72.08
91.45
113.13
133.57
148.60
154.56
149.44
133.77
110.61
84.89
61.90
45.74
38.14
38.09
42.43
46.96
47.77
42.34
29.93
11.45
-11.13
-35.54
-59.75
-82.30
-102.19
-118.65
-130.83
-137.64
-137.90
-130.59
-115.42
-93.19
-66.08
-37.43
-11.18
9.20
21.63
25.90
23.47
16.39
6.05
-7.66
-26.21
-51.14
-82.55
-117.72
-151.33
-176.68
-187.60
-180.13
-153.40
-109.66
-54.07
5.69
60.31
100.48
119.39
115.14
91.85
58.93
28.32
10.96
13.74
37.82
78.55
127.04
172.67
206.00
221.45
218.48
201.08
175.40
146.81
117.89
88.43
57.25
24.40
-7.38
-33.14
-47.64
-47.20
-30.85
-0.36
40.39
86.21
131.27
169.71
196.51
208.29
203.87
184.01
151.20
109.57
64.74
23.26
-8.76
-27.87
-35.04
-35.79
-38.10
-48.81
-70.27
-99.18
-128.54
-151.39
-164.44
-169.26
-170.51
-172.58
-176.65
-180.19
-178.84
-169.47
-152.13
-130.22
-108.58
-91.02
-78.64
-70.01
-62.84
-55.91
-50.31
-48.83
-54.16
-66.89
-84.30
-100.59
-108.42
-101.35
-76.26
-34.86
16.39
67.81
109.32
133.08
135.22
116.03
78.95
29.14
-27.54
-84.97
-136.94
-177.49
-201.84
-207.76
-196.56
-173.20
-144.82
-118.34
-98.04
-84.30
-73.93
-61.82
-43.31
-15.82
20.95
65.94
118.11
176.94
241.71
309.99
376.66
434.41
475.96
496.69
496.41
479.17
451.29
418.70
385.19
351.98
318.72
284.90
250.72
217.09
185.07
155.18
127.10
99.95
72.74
44.79
15.98
-13.28
-42.60
-71.84
-101.38
-131.72
-162.87
-193.74
-222.03
-244.85
-259.80
-265.95
-264.19
-256.68
-245.89
-233.62
-220.66
-207.08
-192.86
-178.42
-164.68
-152.65
-142.87
-135.08
-128.29
-121.03
-111.85
-99.69
-84.15
-65.43
-44.11
-21.02
2.77
25.88
46.38
62.06
70.98
72.16
66.27
55.51
43.01
31.61
23.01
17.42
14.09
12.12
11.25
12.06
15.64
22.80
33.56
46.88
60.88
73.28
82.12
86.19
85.24
80.10
72.39
64.10
56.82
50.88
44.98
36.42
22.23
0.64
-27.70
-59.49
-89.74
-113.53
-127.75
-132.00
-128.34
-120.04
-110.21
-100.85
-92.65
-85.49
-78.94
-72.63
-66.27
-59.53
-51.99
-43.15
-32.74
-21.03
-8.92
2.21
10.85
16.01
17.53
16.24
13.82
12.16
12.79
16.31
22.20
28.97
34.74
37.87
37.61
34.24
28.82
22.71
17.03
12.25
8.30
4.77
1.27
-2.24
-5.56
-8.25
-9.92
-10.31
-9.32
-7.01
-3.47
1.11
6.52
12.46
18.69
24.92
30.93
36.44
41.14
44.74
46.99
47.91
47.77
47.09
46.45
46.28
46.69
47.49
48.20
48.42
47.89
46.63
44.90
43.02
41.23
39.60
38.02
36.26
34.08
31.35
28.10
24.45
20.61
16.73
12.87
8.95
4.96
0.90
-3.04
-6.67
-9.83
-12.56
-15.06
-17.53
-20.01
-22.30
-24.05
-25.00
-25.15
-24.88
-24.78
-25.41
-27.00
-29.39
-32.05
-34.39
-35.94
-36.52
-36.19
-35.20
-33.91
-32.69
-31.91
-31.84
-32.57
-33.93
-35.50
-36.70
-37.03
-36.28
-34.58
-32.39
-30.27
-28.60
-27.52
-26.89
-26.44
-25.99
-25.57
-25.31
-25.40
-25.92
-26.73
-27.56
-28.06
-28.02
-27.39
-26.26
-24.84
-23.36
-22.00
-20.92
-20.16
-19.73
-19.51
-19.27
-18.77
-17.82
-16.33
-14.41
-12.24
-10.08
-8.14
-6.53
-5.27
-4.33
-3.69
-3.29
-3.09
-2.97
-2.81
-2.53
-2.14
-1.71
-1.43
-1.44
-1.77
-2.33
-2.92
-3.34
-3.54
-3.61
-3.76
-4.19
-4.91
-5.77
-6.49
-6.84
-6.76
-6.42
-6.09
-5.99
-6.21
-6.61
-7.02
-7.29
-7.35
-7.23
-6.98
-6.62
-6.15
-5.55
-4.87
-4.27
-3.89
-3.87
-4.19
-4.70
-5.20
-5.49
-5.48
-5.20
-4.77
-4.30
-3.88
-3.55
-3.33
-3.27
-3.42
-3.81
-4.40
-5.15
-6.00
-6.95
-8.08
-9.54
-11.47
-13.94
-16.92
-20.28
-23.84
-27.47
-31.20
-35.32
-40.38
-47.11
-56.21
-68.08
-82.64
-99.26
-116.79
-133.72
-148.51
-159.86
-167.03
-169.93
-168.94
-164.63
-157.30
-146.78
-132.43
-113.56
-89.90
-62.17
-32.10
-2.23
24.74
46.66
62.40
71.97
76.36
77.01
75.28
72.16
68.11
63.18
57.04
49.05
38.46
24.76
8.10
-10.23
-27.93
-42.29
-51.06
-53.43
-50.26
-43.70
-36.14
-29.06
-22.52
-15.27
-5.56
7.88
25.25
45.54
66.98
87.70
106.38
122.44
135.86
146.67
154.44
158.25
156.98
149.96
137.47
120.80
101.91
82.65
64.28
47.17
30.96
15.09
-0.87
-17.04
-33.30
-49.37
-65.05
-80.23
-94.83
-108.72
-121.61
-132.95
-141.81
-147.00
-147.32
-142.20
-132.08
-118.64
-104.23
-91.07
-80.32
-71.69
-63.70
-54.53
-42.87
-28.44
-12.02
4.99
21.07
34.84
45.32
52.03
55.09
55.21
53.49
50.84
47.59
43.27
36.89
27.54
14.92
-0.41
-17.33
-34.60
-51.22
-66.44
-79.48
-89.44
-95.27
-96.24
-92.37
-84.61
-74.56
-63.95
-54.04
-45.25
-37.39
-30.03
-22.90
-16.06
-9.64
-3.48
3.12
11.20
21.73
35.09
50.84
67.87
84.89
100.88
115.37
128.23
139.47
148.77
155.49
158.83
158.23
153.76
146.31
137.39
128.77
121.88
117.52
115.76
116.24
118.56
122.43
127.67
133.88
140.15
145.09
147.21
145.40
139.47
130.28
119.39
108.57
99.20
91.99
86.95
83.52
80.93
78.51
75.99
73.58
71.72
70.85
71.04
71.88
72.66
72.68
71.68
69.91
68.02
66.66
66.17
66.38
66.69
66.39
64.83
61.59
56.47
49.50
40.84
30.82
19.93
8.67
-2.54
-13.50
-24.26
-35.03
-45.87
-56.57
-66.44
-74.56
-80.04
-82.41
-81.87
-79.32
-76.10
-73.56
-72.61
-73.49
-75.78
-78.71
-81.34
-82.78
-82.21
-78.89
-72.41
-62.91
-51.51
-40.19
-31.41
-27.22
-28.42
-34.14
-42.04
-49.21
-53.22
-52.87
-48.42
-41.05
-32.12
-22.56
-12.73
-2.76
7.09
16.21
23.77
29.21
32.42
33.82
33.93
33.06
31.14
27.91
23.27
17.51
11.31
5.46
0.45
-3.58
-6.85
-9.70
-12.57
-15.89
-20.16
-25.71
-32.49
-39.91
-46.95
-52.51
-55.79
-56.62
-55.45
-53.08
-50.25
-47.45
-44.72
-41.81
-38.26
-33.58
-27.47
-19.92
-11.37
-2.66
5.13
11.06
14.53
15.44
14.11
11.15
7.18
2.78
-1.68
-5.97
-10.14
-14.41
-19.09
-24.40
-30.30
-36.43
-42.29
-47.40
-51.49
-54.49
-56.33
-56.84
-55.73
-52.81
-48.14
-42.21
-35.72
-29.26
-23.01
-16.54
-9.08
0.08
11.09
23.29
35.38
45.86
53.58
58.11
59.72
59.09
56.99
54.00
50.49
46.69
42.63
38.15
32.92
26.59
19.18
11.30
4.18
-0.82
-2.81
-1.92
0.70
3.28
4.17
2.28
-2.70
-10.40
-19.85
-29.64
-38.02
-43.25
-44.15
-40.60
-33.81
-26.00
-19.67
-16.69
-17.67
-21.83
-27.25
-31.53
-32.51
-28.80
-20.13
-7.38
7.70
23.02
36.71
47.67
55.62
60.96
64.39
66.40
67.10
66.20
63.24
57.83
49.86
39.56
27.49
14.39
1.09
-11.59
-22.92
-32.24
-39.08
-43.20
-44.66
-43.74
-40.89
-36.60
-31.30
-25.30
-18.82
-12.05
-5.22
1.40
7.54
12.96
17.51
21.12
23.77
25.43
26.06
25.69
24.40
22.33
19.66
16.54
13.03
9.08
4.57
-0.69
-6.81
-13.79
-21.50
-29.63
-37.78
-45.51
-52.48
-58.48
-63.44
-67.42
-70.48
-72.64
-73.89
-74.30
-74.09
-73.59
-73.12
-72.65
-71.60
-68.97
-63.70
-55.32
-44.23
-31.66
-19.19
-8.15
0.68
7.11
11.21
13.11
13.00
11.30
8.85
6.73
5.86
6.50
8.16
9.96
11.21
11.92
12.77
14.73
18.37
23.48
29.17
34.27
38.00
40.22
41.43
42.40
43.74
45.68
48.11
50.80
53.46
55.86
57.65
58.37
57.49
54.61
49.75
43.49
36.90
31.24
27.59
26.51
28.02
31.70
37.06
43.73
51.65
60.85
71.25
82.38
93.46
103.63
112.39
119.91
127.02
134.86
144.49
156.43
170.63
186.60
203.67
221.17
238.29
253.95
266.80
275.47
278.89
276.64
268.93
256.36
239.51
218.92
195.18
169.16
142.05
115.14
89.36
64.90
41.35
18.02
-5.52
-29.08
-51.93
-73.01
-91.51
-107.13
-120.21
-131.54
-142.01
-152.18
-162.02
-170.85
-177.56
-180.98
-180.36
-175.70
-167.83
-158.25
-148.77
-140.97
-135.82
-133.40
-133.02
-133.47
-133.58
-132.67
-130.77
-128.52
-126.78
-126.27
-127.26
-129.54
-132.46
-135.11
-136.52
-135.97
-133.28
-128.96
-124.12
-120.07
-117.76
-117.29
-117.62
-116.72
-111.73
-99.71
-78.35
-46.80
-6.37
39.28
84.66
123.91
152.44
168.39
172.91
169.22
161.02
150.87
139.63
126.90
112.23
96.23
80.96
69.43
64.58
68.20
80.25
98.65
119.55
137.98
148.64
147.05
130.60
99.44
56.87
8.78
-37.46
-74.85
-98.55
-107.09
-102.58
-89.80
-74.55
-61.81
-54.53
-53.28
-56.87
-63.38
-71.09
-78.84
-85.95
-91.85
-96.04
-98.19
-98.46
-97.64
-96.92
-97.40
-99.60
-103.21
-107.13
-110.03
-110.86
-109.33
-106.00
-102.10
-99.03
-97.76
-98.47
-100.47
-102.49
-103.29
-102.21
-99.63
-96.74
-95.09
-95.89
-99.39
-104.83
-110.76
-115.74
-118.83
-119.86
-119.32
-118.01
-116.69
-115.89
-115.73
-115.77
-114.64
-109.85
-98.02
-75.96
-42.15
1.89
51.22
98.39
135.59
156.83
159.51
144.60
115.54
76.61
31.54
-16.91
-66.65
-115.39
-160.17
-197.57
-224.93
-241.56
-249.46
-252.73
-255.83
-261.61
-270.24
-279.48
-286.21
-288.18
-284.87
-277.06
-265.61
-250.45
-230.65
-205.32
-174.82
-141.03
-106.69
-73.88
-42.94
-12.45
19.77
55.14
93.22
131.90
168.40
200.68
228.32
252.26
273.75
293.33
310.30
323.36
331.63
335.37
335.93
334.88
332.83
329.00
321.63
309.18
291.45
270.02
247.74
227.64
211.84
200.91
193.85
188.56
182.40
172.82
157.92
136.91
110.63
81.50
53.18
29.77
14.78
10.14
15.71
29.34
47.46
66.17
82.27
94.04
101.34
105.10
106.45
105.62
101.41
91.65
74.37
49.49
19.73
-9.78
-33.23
-46.67
-49.67
-45.54
-39.60
-36.71
-39.21
-46.46
-56.01
-65.47
-74.00
-82.38
-92.06
-103.79
-116.84
-129.19
-138.42
-142.77
-141.91
-137.04
-130.30
-123.96
-119.63
-117.69
-117.32
-116.85
-114.52
-109.12
-100.45
-89.18
-76.40
-63.01
-49.37
-35.43
-21.21
-7.43
4.46
12.48
15.05
11.79
3.84
-6.32
-15.88
-22.73
-26.13
-26.81
-26.22
-25.53
-25.27
-25.39
-25.67
-26.08
-26.80
-28.01
-29.50
-30.50
-29.67
-25.92
-19.04
-9.76
0.57
10.65
19.62
27.07
32.79
37.12
40.30
42.48
44.00
45.51
48.03
52.32
58.43
65.54
73.62
82.12
89.86
95.38
97.93
98.09
97.55
98.28
101.72
111.00
127.10
147.79
168.43
184.66
194.56
198.86
199.78
199.66
204.40
217.23
236.77
257.90
275.40
287.02
293.68
298.03
302.98
316.38
342.98
381.41
424.67
464.54
495.42
515.09
523.67
485.87
385.30
233.34
64.86
-85.53
-200.67
-279.81
-330.26
-361.03
-379.49
-385.23
-376.70
-354.75
-324.20
-291.48
-261.82
-238.54
-223.40
-216.89
-214.16
-209.25
-200.44
-190.02
-181.69
-177.91
-179.24
-184.70
-192.40
-197.31
-195.48
-186.20
-171.95
-156.48
-142.69
-131.92
-124.14
-118.27
-111.55
-101.83
-89.07
-75.16
-62.67
-53.42
-47.85
-45.25
-44.37
-43.61
-42.04
-39.68
-37.03
-34.23
-30.64
-25.09
-16.68
-5.36
7.82
21.22
33.29
43.47
52.45
61.75
72.86
86.37
101.52
116.43
128.78
136.67
139.16
136.46
129.80
121.17
113.21
108.70
109.64
116.04
125.06
131.52
129.83
116.74
93.07
63.62
34.91
12.19
-2.59
-11.03
-16.75
-23.43
-33.53
-48.09
-67.33
-90.90
-117.73
-145.70
-171.75
-192.80
-206.98
-214.61
-218.06
-220.72
-225.42
-233.24
-242.82
-250.79
-252.59
-243.93
-221.88
-185.58
-136.23
-76.74
-11.13
55.98
119.58
174.60
216.44
241.71
249.18
240.24
218.71
189.94
159.37
131.30
108.11
90.30
77.22
67.75
60.99
56.39
53.69
52.56
52.68
53.86
56.26
60.22
65.55
70.91
73.41
69.28
55.48
31.47
0.17
-32.64
-60.27
-77.62
-82.99
-78.30
-67.70
-55.37
-43.66
-32.45
-20.04
-4.71
13.77
33.69
51.88
65.00
70.56
67.36
55.20
34.39
5.55
-30.25
-70.82
-112.74
-151.65
-183.49
-205.73
-218.23
-222.99
-223.07
-221.32
-219.51
-218.19
-217.24
-216.14
-214.09
-209.68
-200.74
-184.60
-158.87
-122.51
-76.75
-25.24
26.72
73.59
110.99
136.70
150.70
154.58
150.70
141.36
128.45
113.35
97.16
80.76
64.80
49.69
35.42
21.97
9.46
-1.51
-10.02
-15.23
-16.87
-15.42
-12.05
-8.21
-5.08
-3.28
-2.81
-3.29
-4.14
-4.93
-5.50
-6.05
-7.12
-9.48
-13.96
-21.16
-31.21
-43.60
-57.25
-70.83
-83.10
-93.25
-100.95
-106.20
-109.04
-109.44
-107.17
-101.96
-93.67
-82.45
-68.83
-53.51
-37.26
-20.90
-5.24
8.79
20.18
28.00
31.67
31.10
26.92
20.31
12.77
5.75
0.33
-3.03
-4.45
-4.59
-4.33
-4.44
-5.41
-7.28
-9.79
-12.61
-15.62
-18.99
-23.16
-28.68
-35.97
-45.15
-56.09
-68.29
-80.98
-93.01
-102.99
-109.58
-111.90
-110.03
-105.08
-98.80
-92.71
-87.25
-81.35
-72.75
-59.10
-39.17
-13.59
15.15
43.71
69.27
90.55
108.14
123.84
139.65
156.66
174.48
191.47
205.37
214.31
217.47
215.47
210.15
203.91
198.85
195.96
194.73
193.33
189.19
180.00
164.48
142.82
116.53
87.84
59.13
32.43
9.24
-9.45
-23.10
-31.66
-35.67
-36.32
-35.23
-34.09
-34.10
-35.67
-38.30
-40.88
-42.23
-41.53
-38.61
-33.78
-27.57
-20.39
-12.37
-3.58
5.73
14.94
23.22
29.89
34.76
38.34
41.50
45.01
48.98
52.85
55.56
56.15
54.14
49.69
43.55
36.97
31.52
28.67
29.17
32.20
35.25
34.88
28.30
15.03
-2.47
-19.71
-32.22
-37.69
-36.73
-32.00
-26.30
-20.91
-15.29
-8.11
1.23
11.74
21.24
27.66
30.26
30.01
28.86
28.58
29.68
31.24
31.58
29.26
23.94
16.50
8.59
1.83
-2.86
-5.53
-6.96
-8.28
-10.42
-13.86
-18.59
-24.18
-30.07
-35.70
-40.65
-44.51
-46.86
-47.13
-44.81
-39.68
-32.02
-22.71
-13.02
-4.22
2.84
7.90
11.17
13.13
14.26
14.88
15.25
15.61
16.23
17.26
18.59
19.80
20.28
19.48
17.07
13.16
8.16
2.76
-2.34
-6.60
-9.79
-12.13
-14.27
-17.09
-21.37
-27.42
-34.90
-42.89
-50.16
-55.55
-58.29
-58.10
-55.21
-50.20
-43.92
-37.23
-30.93
-25.46
-20.91
-17.02
-13.42
-9.82
-6.16
-2.57
0.81
3.87
6.64
9.11
11.20
12.73
13.52
13.52
12.81
11.61
10.18
8.78
7.75
7.44
8.12
9.78
11.84
13.23
12.60
8.85
1.49
-9.04
-21.53
-34.36
-45.97
-55.25
-61.77
-65.77
-67.94
-69.05
-69.68
-70.00
-69.81
-68.73
-66.38
-62.52
-56.99
-49.68
-40.53
-29.72
-17.88
-6.13
4.16
11.86
16.60
18.93
20.10
21.44
23.88
27.59
32.16
36.90
41.18
44.58
46.75
47.34
46.00
42.61
37.54
31.79
26.80
24.03
24.42
28.03
33.97
40.68
46.50
50.05
50.79
48.99
45.66
42.03
39.07
37.17
36.05
35.02
33.45
31.10
28.15
24.94
21.62
17.90
13.19
6.94
-0.88
-9.63
-18.10
-25.01
-29.38
-30.79
-29.41
-25.84
-21.07
-16.31
-12.84
-11.70
-13.41
-17.76
-23.87
-30.57
-36.80
-41.99
-46.01
-48.99
-51.02
-52.07
-52.04
-51.04
-49.47
-47.90
-46.80
-46.19
-45.56
-43.93
-40.31
-34.10
-25.47
-15.32
-5.01
4.13
11.24
16.04
18.75
19.67
18.97
16.63
12.73
7.73
2.68
-1.05
-2.21
-0.26
4.43
10.61
16.68
21.22
23.46
23.33
21.34
18.24
14.77
11.53
8.98
7.45
7.11
7.90
9.47
11.13
12.18
12.12
10.90
8.95
6.86
5.00
3.20
0.78
-3.12
-9.06
-17.01
-26.31
-35.92
-44.77
-51.98
-56.98
-59.44
-59.37
-57.11
-53.33
-48.98
-45.02
-42.13
-40.67
-40.62
-41.82
-44.07
-47.19
-50.99
-55.20
-59.45
-63.47
-67.20
-70.86
-74.86
-79.63
-85.34
-91.85
-98.72
-105.43
-111.56
-116.89
-121.32
-124.79
-127.05
-127.74
-126.34
-122.24
-114.94
-103.97
-89.09
-70.30
-48.08
-23.45
2.15
27.07
49.89
69.83
86.94
101.96
115.89
129.49
142.87
155.35
165.79
173.13
176.92
177.60
176.34
174.54
173.24
172.78
172.82
172.69
171.69
169.31
165.12
158.58
149.06
136.06
119.70
101.02
81.87
64.40
50.30
40.14
33.36
28.67
24.87
21.36
18.38
16.56
16.26
17.14
18.22
18.45
17.33
15.43
14.01
14.07
15.44
16.33
14.05
6.41
-6.84
-23.43
-39.37
-50.65
-55.04
-52.91
-46.67
-39.40
-33.39
-29.58
-27.77
-27.49
-28.60
-31.36
-35.95
-42.00
-48.49
-54.10
-57.74
-58.93
-57.81
-55.00
-51.23
-47.23
-43.58
-40.58
-38.06
-35.36
-31.41
-25.16
-16.10
-4.63
7.89
19.60
28.80
34.54
36.82
36.35
34.09
30.69
26.38
21.12
14.99
8.45
2.32
-2.53
-5.57
-6.76
-6.49
-5.19
-3.11
-0.28
3.45
8.11
13.64
19.84
26.56
33.65
40.90
47.82
53.68
57.65
59.15
58.26
55.86
53.43
52.63
54.72
60.06
67.93
76.77
84.62
89.74
91.08
88.39
82.04
72.67
60.81
46.88
31.34
14.87
-1.46
-16.49
-29.35
-39.79
-48.28
-55.75
-63.13
-70.92
-79.05
-86.99
-94.02
-99.56
-103.31
-105.32
-105.98
-105.77
-105.26
-104.86
-104.69
-104.54
-103.86
-101.93
-98.02
-91.57
-82.28
-70.20
-55.83
-40.03
-23.98
-8.91
4.17
14.61
22.32
27.54
30.78
32.50
33.05
32.67
31.48
29.68
27.49
25.17
22.89
20.68
18.40
15.84
12.90
9.75
6.77
4.43
2.97
2.28
1.85
1.05
-0.60
-3.24
-6.63
-10.39
-14.08
-17.32
-19.82
-21.27
-21.41
-20.10
-17.58
-14.48
-11.78
-10.62
-11.92
-16.02
-22.62
-30.82
-39.47
-47.53
-54.45
-60.26
-65.56
-71.17
-77.81
-85.69
-94.39
-102.86
-109.65
-113.27
-112.79
-108.13
-100.21
-90.78
-81.72
-74.50
-69.58
-66.39
-63.75
-60.42
-55.74
-49.75
-43.15
-36.97
-32.12
-29.14
-27.91
-27.71
-27.34
-25.47
-21.06
-13.75
-3.96
7.23
18.38
28.04
35.05
38.69
38.82
35.99
31.42
26.89
24.30
25.20
30.40
39.82
52.65
67.79
84.02
100.15
114.97
127.30
136.27
141.74
144.51
146.11
148.11
151.37
155.60
159.50
161.50
160.52
156.50
150.29
143.09
135.89
129.08
122.59
116.17
109.75
103.58
98.15
93.93
91.02
88.95
86.63
82.68
75.97
66.09
53.55
39.50
25.25
11.81
-0.40
-11.32
-20.95
-29.16
-35.61
-40.08
-42.68
-43.92
-44.61
-45.47
-46.98
-49.17
-51.83
-54.59
-57.04
-58.90
-60.00
-60.31
-59.92
-59.08
-58.14
-57.50
-57.48
-58.21
-59.57
-61.26
-63.01
-64.70
-66.45
-68.44
-70.70
-72.82
-74.04
-73.45
-70.46
-65.07
-57.95
-50.19
-42.88
-36.81
-32.28
-29.21
-27.35
-26.39
-26.05
-26.00
-25.84
-25.15
-23.58
-20.98
-17.42
-13.11
-8.34
-3.38
1.49
5.92
9.54
12.01
13.15
13.10
12.24
11.04
9.86
8.70
7.16
4.59
0.40
-5.57
-12.79
-20.10
-25.99
-29.19
-29.01
-25.63
-19.84
-12.73
-5.20
2.21
9.32
16.13
22.51
28.14
32.55
35.28
36.11
35.15
32.82
29.73
26.46
23.35
20.48
17.65
14.61
11.23
7.61
4.03
0.77
-2.15
-4.95
-8.10
-12.09
-17.20
-23.43
-30.54
-38.04
-45.33
-51.70
-56.33
-58.47
-57.71
-54.16
-48.58
-42.19
-36.26
-31.60
-28.32
-25.88
-23.42
-20.18
-15.83
-10.56
-4.97
0.15
4.16
6.66
7.56
6.96
4.95
1.52
-3.49
-10.16
-18.33
-27.38
-36.32
-44.01
-49.61
-52.90
-54.27
-54.57
-54.73
-55.40
-56.85
-58.96
-61.43
-63.87
-65.88
-67.03
-66.78
-64.55
-59.90
-52.63
-43.01
-31.61
-19.19
-6.46
6.06
17.99
29.07
39.01
47.59
54.70
60.39
64.85
68.24
70.63
71.91
71.98
70.77
68.43
65.23
61.45
57.22
52.58
47.53
42.16
36.74
31.62
27.09
23.29
20.23
17.84
16.03
14.70
13.73
13.09
12.94
13.77
16.35
21.38
29.15
39.16
50.23
60.81
69.65
76.17
80.57
83.49
85.59
87.18
88.12
88.09
86.83
84.38
80.98
77.04
72.84
68.46
63.72
58.28
51.85
44.34
35.99
27.33
18.93
11.14
3.98
-2.92
-10.05
-17.79
-26.17
-34.90
-43.53
-51.67
-59.21
-66.36
-73.51
-81.00
-88.87
-96.79
-104.10
-109.95
-113.63
-114.57
-112.40
-106.86
-97.86
-85.53
-70.51
-53.90
-37.18
-21.76
-8.67
1.72
9.61
15.48
19.72
22.54
23.96
23.94
22.55
20.05
16.79
13.15
9.51
6.14
3.15
0.49
-2.12
-4.99
-8.31
-12.06
-15.95
-19.68
-23.22
-26.88
-31.17
-36.39
-42.22
-47.63
-51.10
-51.11
-46.53
-36.86
-22.23
-3.37
18.36
40.79
61.16
76.50
84.57
84.69
78.12
67.71
56.90
48.53
43.94
42.88
43.89
45.13
45.09
42.98
38.74
32.75
25.60
17.79
9.73
1.73
-5.99
-13.33
-20.45
-27.85
-36.25
-46.26
-57.83
-69.93
-80.58
-87.37
-88.45
-83.23
-72.79
-59.48
-46.00
-34.42
-25.58
-19.09
-13.90
-9.08
-4.25
0.32
4.06
6.49
7.57
7.58
7.00
6.17
5.13
3.73
1.68
-1.14
-4.68
-8.61
-12.54
-16.04
-18.93
-21.24
-23.26
-25.46
-28.30
-32.16
-37.13
-42.92
-48.82
-53.71
-56.34
-55.60
-50.91
-42.51
-31.34
-18.74
-6.01
5.94
16.75
26.43
35.10
42.78
49.27
54.35
57.92
60.09
61.23
61.79
62.21
62.75
63.40
63.94
63.97
63.03
60.74
56.89
51.45
44.64
36.87
28.62
20.39
12.46
4.82
-2.87
-11.18
-20.69
-31.74
-44.11
-56.88
-68.44
-76.76
-80.01
-77.19
-68.63
-55.98
-41.74
-28.34
-17.32
-8.92
-2.25
4.06
11.04
18.98
27.38
35.36
42.15
47.42
51.23
53.87
55.58
56.48
56.58
55.99
54.93
53.70
52.47
51.22
49.70
47.60
44.71
41.07
36.95
32.70
28.50
24.33
19.88
14.72
8.41
0.85
-7.60
-15.98
-22.81
-26.57
-26.13
-21.24
-12.66
-1.89
9.29
19.44
27.84
34.44
39.73
44.29
48.52
52.54
56.18
59.19
61.38
62.76
63.49
63.85
64.05
64.16
64.10
63.66
62.66
61.04
58.90
56.46
53.92
51.40
48.86
46.14
43.04
39.41
35.22
30.51
25.42
20.08
14.59
9.06
3.59
-1.78
-7.11
-12.58
-18.49
-25.25
-33.09
-41.87
-50.87
-58.76
-63.94
-65.02
-61.36
-53.40
-42.48
-30.44
-18.90
-8.77
-0.20
7.24
14.03
20.37
26.08
30.81
34.26
36.45
37.70
38.48
39.13
39.71
39.98
39.55
38.11
35.63
32.34
28.59
24.65
20.57
16.25
11.58
6.76
2.36
-0.84
-2.20
-1.58
0.46
2.78
4.07
3.24
-0.18
-6.15
-14.24
-23.91
-34.61
-45.64
-56.00
-64.25
-68.85
-68.54
-62.96
-52.88
-40.05
-26.61
-14.36
-4.27
3.66
10.05
15.66
20.92
25.86
30.26
33.85
36.58
38.60
40.16
41.45
42.58
43.50
44.14
44.46
44.47
44.22
43.83
43.35
42.75
41.90
40.53
38.34
35.14
30.92
25.93
20.60
15.36
10.46
5.89
1.45
-3.20
-8.29
-13.89
-19.78
-25.57
-30.69
-34.56
-36.59
-36.38
-33.76
-28.92
-22.42
-15.07
-7.72
-1.03
4.66
9.35
13.23
16.55
19.45
22.02
24.34
26.55
28.81
31.16
33.48
35.39
36.44
36.22
34.56
31.59
27.70
23.43
19.23
15.38
11.94
8.80
5.85
3.02
0.40
-1.85
-3.63
-4.96
-6.04
-7.20
-8.74
-10.94
-13.93
-17.68
-21.97
-26.31
-29.97
-31.99
-31.52
-28.06
-21.73
-13.38
-4.43
3.59
9.40
12.31
12.37
10.20
6.75
2.99
-0.25
-2.42
-3.12
-2.23
0.05
3.04
5.51
5.99
3.30
-2.88
-11.71
-21.47
-30.26
-36.83
-41.08
-43.85
-46.32
-49.27
-52.75
-56.33
-59.62
-62.72
-66.12
-70.18
-74.59
-78.19
-79.29
-76.50
-69.36
-58.62
-45.90
-33.06
-21.50
-11.88
-4.16
2.03
7.02
10.89
13.49
14.69
14.59
13.63
12.51
11.91
12.21
13.30
14.63
15.45
15.22
13.74
11.29
8.36
5.46
2.83
0.44
-2.00
-4.88
-8.55
-13.27
-19.17
-26.08
-33.47
-40.41
-45.64
-47.99
-46.74
-41.93
-34.46
-25.71
-17.13
-9.73
-3.89
0.55
4.00
6.85
9.25
11.20
12.70
13.84
14.91
16.21
17.93
20.00
22.07
23.72
24.54
24.36
23.27
21.55
19.49
17.27
14.89
12.21
9.04
5.24
0.76
-4.30
-9.73
-15.17
-20.08
-23.80
-25.73
-25.48
-23.09
-19.02
-14.05
-8.97
-4.33
-0.27
3.37
6.84
10.20
13.20
15.45
16.62
16.66
15.88
14.84
14.05
13.75
13.82
13.84
13.35
12.02
9.81
6.95
3.81
0.75
-2.09
-4.79
-7.70
-11.30
-16.09
-22.42
-30.35
-39.50
-49.01
-57.65
-64.04
-67.04
-66.11
-61.49
-54.12
-45.35
-36.48
-28.43
-21.59
-15.96
-11.36
-7.72
-5.12
-3.70
-3.45
-4.09
-5.09
-5.89
-6.15
-5.94
-5.76
-6.27
-8.00
-11.07
-15.10
-19.41
-23.33
-26.50
-29.03
-31.47
-34.53
-38.78
-44.46
-51.38
-58.87
-66.01
-71.71
-74.96
-75.08
-71.89
-65.84
-57.86
-49.11
-40.58
-32.87
-26.01
-19.69
-13.54
-7.38
-1.33
4.34
9.40
13.86
17.97
22.08
26.46
31.07
35.52
39.22
41.56
42.20
41.20
38.98
36.16
33.29
30.66
28.20
25.60
22.46
18.42
13.32
7.17
0.21
-7.06
-13.89
-19.33
-22.43
-22.54
-19.53
-13.88
-6.55
1.39
9.14
16.30
22.87
29.06
35.05
40.83
46.18
50.87
54.69
57.58
59.59
60.80
61.24
60.91
59.81
58.03
55.74
53.23
50.69
48.12
45.27
41.70
37.00
31.01
23.95
16.42
9.12
2.63
-2.83
-7.50
-11.90
-16.69
-22.38
-29.22
-36.97
-44.91
-51.88
-56.51
-57.64
-54.74
-48.17
-39.08
-29.00
-19.31
-10.67
-2.99
4.35
11.96
20.06
28.29
35.92
42.23
46.86
49.91
51.84
53.21
54.37
55.40
56.10
56.23
55.63
54.38
52.71
50.86
48.99
47.07
44.91
42.23
38.81
34.56
29.53
23.93
18.05
12.20
6.62
1.42
-3.46
-8.23
-13.25
-18.94
-25.72
-33.85
-43.27
-53.41
-63.23
-71.36
-76.47
-77.73
-75.07
-69.22
-61.42
-52.91
-44.56
-36.67
-29.08
-21.53
-13.90
-6.37
0.70
6.95
12.23
16.62
20.32
23.50
26.15
28.13
29.29
29.62
29.36
28.90
28.59
28.57
28.65
28.38
27.28
25.05
21.81
18.01
14.28
11.14
8.79
7.03
5.34
3.08
-0.27
-5.00
-10.91
-17.37
-23.31
-27.43
-28.60
-26.23
-20.50
-12.34
-3.16
5.67
13.25
19.34
24.22
28.40
32.22
35.75
38.86
41.35
43.20
44.52
45.51
46.22
46.46
45.85
43.98
40.65
35.93
30.20
23.89
17.33
10.66
3.79
-3.35
-10.70
-18.00
-24.84
-30.85
-35.81
-39.74
-42.90
-45.61
-48.22
-50.99
-54.11
-57.61
-61.27
-64.55
-66.59
-66.41
-63.24
-56.86
-47.75
-37.08
-26.26
-16.49
-8.46
-2.25
2.47
6.16
9.13
11.49
13.29
14.62
15.70
16.81
18.09
19.54
20.96
22.07
22.63
22.56
21.88
20.63
18.80
16.30
13.10
9.29
5.18
1.19
-2.36
-5.36
-8.03
-10.85
-14.40
-19.18
-25.41
-32.85
-40.77
-47.99
-53.07
-54.75
-52.36
-46.11
-37.11
-27.01
-17.40
-9.34
-3.08
1.80
6.02
10.11
14.29
18.40
22.17
25.39
27.99
30.00
31.48
32.41
32.74
32.44
31.59
30.35
28.86
27.13
25.03
22.35
18.98
14.98
10.66
6.37
2.41
-1.17
-4.52
-7.99
-11.98
-16.81
-22.54
-28.87
-35.01
-39.82
-42.09
-40.94
-36.24
-28.67
-19.58
-10.46
-2.48
3.86
8.72
12.65
16.24
19.80
23.34
26.67
29.56
31.91
33.74
35.10
36.00
36.29
35.83
34.55
32.64
30.47
28.41
26.64
25.04
23.18
20.58
16.99
12.51
7.62
2.93
-1.10
-4.34
-7.02
-9.62
-12.68
-16.69
-21.87
-28.11
-34.86
-41.10
-45.51
-46.88
-44.47
-38.42
-29.67
-19.70
-9.92
-1.29
5.91
11.87
16.93
21.32
25.02
27.94
30.00
31.35
32.31
33.18
34.10
34.98
35.51
35.36
34.36
32.59
30.39
28.15
26.10
24.19
22.09
19.39
15.83
11.48
6.71
2.01
-2.22
-5.88
-9.16
-12.47
-16.17
-20.51
-25.58
-31.27
-37.27
-43.10
-48.03
-51.18
-51.76
-49.31
-43.97
-36.47
-27.93
-19.45
-11.85
-5.46
-0.22
4.08
7.64
10.57
12.91
14.71
16.10
17.26
18.31
19.31
20.15
20.67
20.67
20.10
19.02
17.64
16.20
14.84
13.51
12.01
10.08
7.59
4.61
1.39
-1.75
-4.60
-7.18
-9.75
-12.64
-16.14
-20.29
-24.81
-29.10
-32.35
-33.74
-32.65
-28.84
-22.52
-14.33
-5.15
4.16
12.92
20.76
27.51
33.10
37.47
40.46
41.97
42.07
41.10
39.62
38.24
37.40
37.19
37.39
37.65
37.72
37.59
37.45
37.48
37.72
37.93
37.81
37.08
35.73
34.00
32.31
31.01
30.31
30.10
30.07
29.76
28.79
27.08
24.99
23.35
23.25
25.63
30.91
38.77
48.25
58.09
67.16
74.75
80.62
84.89
87.82
89.73
91.03
92.24
93.96
96.77
100.99
106.60
113.15
120.05
126.73
132.92
138.71
144.37
150.07
155.68
160.70
164.46
166.38
166.17
163.76
158.97
151.32
140.01
124.24
103.70
78.68
49.97
18.44
-15.14
-50.11
-85.53
-119.93
-151.34
-177.82
-198.18
-212.46
-221.81
-227.94
-232.26
-235.53
-237.79
-238.76
-238.36
-236.71
-234.06
-230.46
-225.65
-219.17
-210.78
-200.66
-189.53
-178.36
-167.93
-158.49
-149.73
-140.99
-131.63
-121.25
-109.73
-97.02
-82.99
-67.35
-49.90
-30.77
-10.60
9.54
28.49
45.48
60.41
73.88
86.77
99.78
112.87
125.21
135.38
141.86
143.42
139.38
129.61
114.54
95.11
72.85
49.74
28.00
9.45
-5.11
-16.25
-25.70
-35.65
-47.80
-62.58
-79.13
-95.77
-110.97
-124.09
-135.67
-147.01
-159.49
-173.77
-189.40
-204.97
-218.61
-228.69
-234.03
-233.99
-228.14
-216.28
-198.68
-176.47
-151.79
-127.34
-105.47
-87.24
-72.07
-58.23
-43.92
-28.33
-11.84
4.50
19.90
34.54
49.41
65.50
82.86
100.18
115.06
124.92
127.92
123.84
114.25
102.08
90.77
83.16
80.85
83.93
91.44
102.02
114.49
127.95
141.68
154.59
165.14
171.48
171.91
165.42
151.99
132.69
109.60
85.28
62.30
42.52
26.37
12.76
-0.60
-16.32
-36.42
-61.62
-91.23
-123.48
-156.14
-187.10
-214.82
-238.48
-258.00
-273.96
-287.46
-299.89
-312.58
-326.42
-341.53
-357.13
-371.56
-382.79
-389.11
-389.72
-385.17
-376.96
-366.85
-355.89
-343.84
-329.29
-310.33
-285.55
-254.77
-219.20
-180.87
-141.86
-103.51
-66.06
-28.78
9.52
50.05
93.71
140.99
191.71
244.64
297.09
344.82
382.76
406.30
412.93
403.38
381.61
353.42
324.31
297.45
273.16
249.85
226.23
203.08
183.70
172.38
171.85
181.26
196.06
209.87
217.40
216.75
209.56
199.16
188.11
176.56
162.88
145.60
125.55
106.32
92.70
88.23
93.06
103.82
115.38
123.29
125.55
122.81
117.06
110.00
102.12
93.00
82.32
70.77
60.07
52.02
47.46
45.73
45.08
43.79
41.25
38.38
37.21
39.82
47.37
59.57
74.94
91.38
106.88
119.88
129.39
134.88
136.19
133.66
128.06
120.67
113.07
106.79
102.98
102.10
103.81
107.16
111.02
114.60
117.94
122.02
128.25
137.52
149.37
161.54
170.50
172.70
165.94
150.18
127.39
100.57
72.40
44.34
16.53
-11.72
-41.20
-72.18
-104.13
-135.80
-165.41
-190.99
-210.82
-223.83
-229.94
-230.12
-226.19
-220.26
-214.27
-209.47
-206.38
-204.92
-204.88
-206.28
-209.57
-215.39
-224.04
-234.76
-245.36
-252.47
-252.70
-244.20
-227.85
-207.31
-187.73
-173.64
-166.96
-166.42
-168.43
-168.82
-164.49
-154.24
-138.71
-119.85
-100.34
-83.19
-71.25
-66.36
-68.74
-76.62
-86.90
-96.35
-102.73
-105.34
-104.50
-100.68
-93.89
-83.82
-70.46
-54.50
-37.09
-19.03
-0.16
20.52
43.86
69.53
95.30
117.56
132.50
137.58
132.48
119.13
101.09
82.53
67.15
57.33
53.60
54.36
56.31
55.44
48.57
34.94
16.87
-0.88
-12.97
-15.88
-9.49
2.79
15.59
23.96
25.29
20.16
11.42
2.53
-4.26
-8.89
-13.17
-19.53
-29.37
-41.97
-54.49
-63.11
-65.00
-59.94
-50.83
-42.46
-39.32
-43.44
-53.41
-65.40
-75.28
-80.73
-82.07
-81.35
-80.43
-79.48
-76.71
-69.70
-57.22
-40.20
-21.37
-3.52
12.08
26.30
41.12
57.91
75.83
91.84
102.00
103.51
96.25
82.80
67.14
52.67
40.76
30.48
19.61
6.16
-10.29
-28.29
-45.21
-58.52
-66.96
-70.96
-72.15
-72.30
-72.29
-71.70
-69.22
-63.51
-54.13
-41.91
-28.60
-16.14
-5.85
1.89
7.55
11.96
15.75
19.13
21.75
23.03
22.41
19.67
15.13
9.63
4.35
0.50
-0.97
0.35
4.31
10.36
17.73
25.65
33.47
40.59
46.51
50.83
53.40
54.34
54.01
52.96
51.66
50.44
49.33
48.08
46.29
43.54
39.61
34.58
28.81
22.83
17.11
11.90
7.12
2.36
-2.87
-8.95
-15.90
-23.26
-30.13
-35.51
-38.63
-39.21
-37.55
-34.20
-29.65
-24.04
-17.17
-8.76
1.17
12.17
23.43
34.15
43.85
52.40
59.89
66.26
71.16
73.94
73.99
71.07
65.49
58.02
49.64
41.08
32.63
24.12
15.16
5.44
-5.03
-15.86
-26.48
-36.40
-45.42
-53.73
-61.81
-70.19
-79.25
-89.02
-99.02
-108.26
-115.27
-118.43
-116.32
-108.19
-94.27
-75.77
-54.52
-32.52
-11.40
7.85
24.78
39.36
51.68
61.84
69.96
76.29
81.14
84.85
87.67
89.73
91.04
91.59
91.39
90.46
88.87
86.63
83.73
80.09
75.58
70.09
63.55
56.21
48.66
41.82
36.70
33.90
33.30
34.04
34.80
34.46
32.53
29.31
25.61
22.35
20.18
19.41
20.16
22.44
26.13
30.90
36.09
40.84
44.39
46.42
47.21
47.57
48.45
50.53
53.93
58.08
61.88
64.01
63.30
59.09
51.45
41.12
29.35
17.56
6.98
-1.55
-7.69
-11.64
-14.04
-15.89
-18.27
-22.02
-27.49
-34.39
-41.89
-48.90
-54.31
-57.21
-56.84
-52.68
-44.42
-32.15
-16.47
1.54
20.55
39.35
57.05
73.15
87.40
99.63
109.60
117.10
122.02
124.37
124.21
121.50
116.06
107.59
95.93
81.18
63.81
44.57
24.39
4.15
-15.37
-33.58
-50.05
-64.49
-76.81
-87.08
-95.45
-102.04
-106.74
-109.14
-108.66
-104.85
-97.72
-87.92
-76.68
-65.38
-55.14
-46.48
-39.27
-33.06
-27.41
-22.26
-17.85
-14.61
-12.82
-12.41
-12.98
-14.02
-15.15
-16.34
-17.87
-20.13
-23.31
-27.22
-31.32
-34.95
-37.69
-39.50
-40.71
-41.82
-43.23
-45.03
-47.15
-49.44
-51.83
-54.27
-56.58
-58.24
-58.45
-56.44
-51.85
-45.07
-37.17
-29.48
-23.07
-18.36
-15.00
-12.25
-9.50
-6.59
-3.87
-1.94
-1.18
-1.53
-2.48
-3.30
-3.50
-3.05
-2.48
-2.58
-4.04
-7.13
-11.57
-16.67
-21.65
-25.98
-29.54
-32.60
-35.72
-39.45
-44.27
-50.38
-57.68
-65.55
-72.84
-77.91
-79.01
-74.84
-65.06
-50.56
-33.25
-15.40
1.13
15.35
27.16
37.03
45.35
52.20
57.31
60.36
61.28
60.40
58.27
55.42
52.07
48.06
43.11
37.02
29.94
22.40
15.05
8.45
2.74
-2.38
-7.60
-13.71
-21.38
-30.96
-42.27
-54.52
-66.37
-76.04
-81.81
-82.41
-77.54
-67.98
-55.37
-41.53
-27.90
-15.10
-3.02
8.69
20.08
30.55
39.11
44.80
47.34
47.28
45.77
43.98
42.56
41.37
39.76
37.04
32.97
27.96
22.83
18.43
15.14
12.73
10.46
7.32
2.44
-4.65
-13.84
-24.32
-34.69
-43.12
-47.87
-47.83
-42.92
-34.32
-24.00
-14.08
-6.13
-0.69
2.67
4.95
7.14
9.84
13.00
16.05
18.11
18.24
15.76
10.46
2.77
-6.31
-15.46
-23.37
-29.11
-32.37
-33.40
-32.91
-31.71
-30.62
-30.28
-31.22
-33.80
-38.14
-44.02
-50.63
-56.55
-60.00
-59.33
-53.61
-43.13
-29.29
-14.10
0.61
13.71
24.97
34.66
43.12
50.36
56.13
60.23
62.75
64.22
65.41
66.92
68.97
71.35
73.55
75.00
75.38
74.63
72.96
70.71
68.11
65.19
61.65
56.93
50.40
41.52
30.10
16.48
1.59
-13.07
-25.61
-34.17
-37.44
-35.07
-27.82
-17.33
-5.51
6.05
16.53
25.92
34.67
43.25
51.81
60.13
67.73
74.19
79.29
83.04
85.64
87.28
88.09
88.03
87.01
84.94
81.79
77.53
72.13
65.55
57.72
48.65
38.46
27.46
16.07
4.71
-6.34
-17.09
-27.82
-38.93
-50.64
-62.67
-74.09
-83.38
-88.88
-89.46
-84.97
-76.39
-65.54
-54.33
-44.14
-35.44
-27.89
-20.83
-13.77
-6.75
-0.28
5.02
8.74
10.94
12.08
12.78
13.56
14.66
16.05
17.45
18.57
19.17
19.16
18.58
17.62
16.53
15.56
14.83
14.26
13.57
12.36
10.17
6.67
1.74
-4.42
-11.13
-17.24
-21.30
-21.95
-18.36
-10.66
0.08
12.17
23.90
34.12
42.48
49.33
55.25
60.61
65.33
68.94
70.86
70.80
68.85
65.57
61.66
57.71
54.00
50.42
46.65
42.40
37.63
32.55
27.48
22.66
18.02
13.25
7.89
1.59
-5.84
-14.37
-23.81
-33.85
-43.94
-53.22
-60.50
-64.53
-64.35
-59.77
-51.56
-41.28
-30.74
-21.41
-13.98
-8.25
-3.51
0.96
5.47
9.81
13.48
15.93
16.99
16.88
16.10
15.23
14.61
14.26
13.95
13.31
12.09
10.15
7.58
4.55
1.22
-2.34
-6.11
-10.16
-14.53
-19.24
-24.30
-29.83
-36.06
-43.19
-51.13
-59.25
-66.24
-70.44
-70.34
-65.28
-55.77
-43.40
-30.23
-18.00
-7.57
1.16
8.93
16.49
24.17
31.68
38.33
43.40
46.44
47.50
47.08
45.92
44.69
43.78
43.22
42.72
41.95
40.73
39.09
37.27
35.43
33.61
31.64
29.22
26.09
22.11
17.34
12.00
6.38
0.82
-4.47
-9.40
-14.07
-18.74
-23.77
-29.50
-36.20
-43.98
-52.73
-61.98
-70.75
-77.63
-80.99
-79.56
-72.96
-61.97
-48.35
-34.27
-21.52
-10.97
-2.54
4.46
10.76
16.68
22.12
26.73
30.24
32.65
34.14
34.94
35.14
34.74
33.74
32.26
30.63
29.25
28.35
27.87
27.36
26.17
23.73
19.77
14.49
8.47
2.44
-3.01
-7.62
-11.56
-15.36
-19.72
-25.28
-32.40
-40.91
-50.01
-58.32
-64.17
-66.12
-63.42
-56.37
-46.29
-35.05
-24.48
-15.80
-9.37
-4.79
-1.35
1.57
4.16
6.20
7.31
7.16
5.69
3.16
-0.04
-3.47
-6.82
-10.03
-13.31
-17.07
-21.86
-28.13
-36.05
-45.41
-55.63
-66.02
-76.03
-85.59
-95.26
-105.96
-118.77
-134.48
-153.21
-174.11
-195.34
-214.19
-227.58
-232.85
-228.85
-216.46
-198.63
-179.41
-162.45
-149.56
-140.13
-131.48
-120.15
-103.44
-80.40
-52.12
-21.18
9.33
36.78
59.69
77.89
92.26
104.10
114.47
123.80
131.87
138.23
142.74
145.86
148.39
150.93
153.35
154.68
153.53
148.89
140.69
129.89
118.02
106.39
95.61
85.37
74.80
63.05
49.76
35.24
20.34
6.14
-6.37
-16.36
-23.29
-26.79
-26.75
-23.39
-17.27
-9.32
-0.64
7.74
15.10
21.14
25.95
29.80
33.03
35.93
38.73
41.59
44.60
47.75
50.84
53.56
55.53
56.48
56.37
55.34
53.70
51.70
49.45
46.90
43.95
40.54
36.79
33.00
29.59
26.99
25.44
24.88
24.90
24.85
24.00
21.88
18.55
14.73
11.73
11.02
13.76
20.34
30.25
42.34
55.21
67.73
79.35
90.04
100.12
109.91
119.56
128.96
137.89
146.09
153.36
159.55
164.46
167.71
168.79
167.14
162.35
154.32
143.30
129.87
114.71
98.38
81.31
63.72
45.86
28.06
10.75
-5.60
-20.69
-34.47
-47.20
-59.29
-71.15
-82.90
-94.21
-104.26
-111.91
-115.99
-115.77
-111.25
-103.24
-93.04
-82.00
-70.95
-59.99
-48.64
-36.25
-22.45
-7.54
7.61
21.84
34.24
44.45
52.78
59.97
66.84
73.86
81.01
87.92
94.03
98.90
102.19
103.53
102.45
98.57
92.15
84.33
76.90
71.17
67.00
62.27
53.70
38.44
15.63
-13.09
-44.37
-74.73
-101.87
-124.91
-143.69
-157.73
-165.85
-166.73
-159.87
-146.32
-128.51
-109.27
-90.70
-73.65
-57.72
-41.88
-25.25
-7.61
10.51
28.06
43.87
57.10
67.38
74.98
80.51
84.77
88.40
91.71
94.61
96.69
97.36
95.99
92.11
85.54
76.54
65.92
54.98
45.20
37.78
33.26
31.27
30.76
30.53
29.76
28.45
27.28
27.16
28.70
31.76
35.54
38.99
41.30
42.23
42.08
41.36
40.43
39.27
37.53
34.88
31.22
26.88
22.43
18.54
15.59
13.66
12.56
11.97
11.63
11.31
10.73
9.42
6.69
1.77
-5.99
-16.85
-30.43
-45.82
-61.73
-76.81
-89.99
-100.66
-108.69
-114.32
-118.00
-120.23
-121.48
-122.13
-122.48
-122.73
-122.96
-123.13
-123.11
-122.76
-122.01
-120.93
-119.67
-118.30
-116.73
-114.53
-111.10
-105.79
-98.21
-88.44
-77.13
-65.40
-54.61
-46.08
-40.71
-38.65
-39.35
-41.65
-44.22
-46.05
-46.66
-46.25
-45.28
-44.20
-43.11
-41.82
-40.03
-37.58
-34.63
-31.53
-28.61
-25.99
-23.54
-21.01
-18.24
-15.30
-12.47
-10.16
-8.66
-8.02
-8.07
-8.37
-8.39
-7.55
-5.33
-1.38
4.28
11.18
18.37
24.67
29.02
30.81
30.18
27.91
25.07
22.54
20.65
18.99
16.73
13.06
7.62
0.73
-6.79
-13.93
-19.82
-23.86
-25.72
-25.23
-22.41
-17.65
-11.72
-5.80
-1.14
1.40
1.58
-0.20
-3.22
-6.85
-10.86
-15.36
-20.57
-26.54
-33.03
-39.58
-45.69
-50.97
-55.24
-58.48
-60.74
-62.12
-62.78
-62.93
-62.82
-62.67
-62.55
-62.39
-61.99
-61.18
-59.89
-58.25
-56.47
-54.80
-53.34
-52.07
-50.88
-49.69
-48.49
-47.30
-46.15
-44.93
-43.52
-41.81
-39.79
-37.52
-35.13
-32.71
-30.32
-27.97
-25.70
-23.64
-21.94
-20.67
-19.73
-18.84
-17.66
-16.03
-14.10
-12.30
-11.22
-11.22
-12.24
-13.73
-14.82
-14.78
-13.23
-10.46
-7.16
-4.16
-2.06
-0.98
-0.49
0.34
2.81
8.28
17.76
31.40
48.08
65.31
79.77
88.35
89.38
83.55
73.77
64.26
58.86
59.61
66.22
76.35
86.79
94.58
97.81
95.83
88.98
78.28
65.09
50.94
37.38
25.69
16.70
10.45
6.29
3.04
-0.65
-5.86
-13.06
-21.99
-31.72
-41.09
-49.21
-55.82
-61.39
-66.73
-72.38
-78.18
-83.11
-85.70
-84.65
-79.45
-70.60
-59.37
-47.39
-36.08
-26.33
-18.52
-12.60
-8.36
-5.48
-3.61
-2.32
-1.18
0.14
1.70
3.24
4.26
4.24
2.95
0.54
-2.41
-5.21
-7.41
-9.25
-11.77
-16.53
-25.03
-37.89
-54.47
-72.92
-90.70
-105.28
-114.62
-117.28
-112.14
-98.37
-75.69
-44.92
-8.49
29.82
65.79
96.05
119.01
134.93
145.20
151.33
154.24
154.08
150.49
143.02
131.41
115.80
96.88
75.99
55.06
36.19
21.01
10.02
2.45
-3.31
-8.82
-14.90
-21.48
-27.97
-33.84
-39.16
-44.43
-50.35
-57.29
-65.20
-73.68
-82.34
-91.06
-100.13
-110.13
-121.68
-135.07
-150.17
-166.38
-183.02
-199.59
-216.11
-233.11
-251.35
-271.43
-293.44
-316.74
-340.03
-361.47
-378.86
-389.93
-392.71
-386.01
-369.73
-344.99
-313.89
-278.92
-242.36
-205.92
-170.78
-137.71
-107.33
-80.09
-56.07
-34.92
-15.84
2.05
19.37
36.12
51.89
66.06
78.38
89.19
99.46
110.63
124.31
142.06
165.05
193.48
226.10
259.91
290.71
314.24
327.70
330.77
325.64
315.86
304.81
294.34
284.55
274.43
262.92
249.66
235.05
219.79
204.34
188.77
173.02
157.30
142.24
128.67
117.22
107.90
100.15
93.08
86.04
78.80
71.60
64.91
59.09
54.31
50.66
48.27
47.38
48.17
50.41
53.27
55.49
55.94
54.19
50.78
47.01
44.49
44.63
48.58
57.37
72.11
93.64
121.84
154.78
188.66
218.72
241.02
254.04
259.27
260.23
260.48
261.63
262.59
260.52
252.73
238.58
220.01
200.62
183.85
171.32
162.21
154.07
144.15
130.64
113.24
92.79
70.51
47.44
24.22
1.35
-20.44
-40.07
-56.28
-68.04
-75.01
-77.86
-78.14
-77.96
-79.21
-83.06
-89.60
-97.94
-106.69
-114.54
-120.72
-125.07
-127.89
-129.61
-130.41
-130.09
-128.10
-123.88
-117.10
-108.08
-97.76
-87.57
-78.95
-72.89
-69.62
-68.69
-69.22
-70.36
-71.51
-72.46
-73.24
-73.91
-74.49
-74.89
-75.05
-75.00
-74.91
-75.03
-75.55
-76.46
-77.49
-78.22
-78.29
-77.55
-76.22
-74.77
-73.66
-73.11
-72.98
-72.87
-72.33
-71.15
-69.43
-67.49
-65.67
-64.15
-62.85
-61.54
-59.91
-57.80
-55.13
-51.94
-48.30
-44.23
-39.82
-35.18
-30.50
-26.04
-22.02
-18.56
-15.66
-13.18
-10.98
-8.97
-7.16
-5.66
-4.63
-4.19
-4.43
-5.38
-7.02
-9.34
-12.31
-15.92
-20.10
-24.61
-28.99
-32.52
-34.42
-34.06
-31.23
-26.25
-19.86
-12.91
-6.09
0.19
5.80
10.69
14.72
17.71
19.48
20.06
19.74
18.95
18.10
17.42
16.89
16.30
15.44
14.15
12.44
10.37
8.01
5.36
2.35
-1.07
-4.95
-9.28
-14.05
-19.26
-24.95
-31.20
-38.21
-46.25
-55.55
-66.12
-77.49
-88.67
-98.30
-105.04
-108.00
-107.08
-102.90
-96.50
-88.94
-80.98
-72.96
-64.92
-56.75
-48.27
-39.32
-29.77
-19.64
-9.10
1.47
11.62
20.99
29.40
36.98
44.01
50.74
57.31
63.52
68.91
72.89
74.93
74.78
72.62
68.99
64.59
60.06
55.72
51.50
46.92
41.29
33.89
24.24
12.35
-1.02
-14.31
-25.43
-32.39
-33.84
-29.69
-21.08
-9.98
1.58
12.15
21.20
28.97
35.98
42.58
48.63
53.68
57.23
59.06
59.38
58.71
57.59
56.30
54.76
52.59
49.42
45.15
40.08
34.79
29.84
25.43
21.29
16.77
11.23
4.40
-3.41
-11.40
-18.56
-24.18
-28.06
-30.69
-32.98
-36.00
-40.61
-47.18
-55.40
-64.10
-71.46
-75.34
-73.87
-66.18
-52.72
-35.27
-16.29
1.80
17.41
30.07
40.28
48.90
56.66
63.78
70.08
75.16
78.72
80.66
81.08
80.14
78.05
74.98
71.07
66.49
61.41
55.98
50.30
44.40
38.34
32.22
26.12
20.11
14.18
8.24
2.20
-4.04
-10.57
-17.44
-24.68
-32.21
-39.87
-47.43
-54.70
-61.73
-68.82
-76.59
-85.73
-96.76
-109.60
-123.33
-136.19
-145.83
-150.00
-147.21
-137.34
-121.70
-102.64
-82.79
-64.22
-48.09
-34.66
-23.67
-14.83
-7.99
-3.03
0.33
2.70
4.95
7.90
12.00
17.17
22.84
28.25
32.82
36.36
39.15
41.73
44.52
47.58
50.42
52.26
52.29
50.16
46.14
41.02
35.82
31.36
27.98
25.44
23.14
20.36
16.51
11.32
4.95
-1.91
-8.10
-12.21
-12.92
-9.48
-1.99
8.57
20.63
32.64
43.44
52.51
59.83
65.59
69.90
72.78
74.27
74.61
74.21
73.56
73.00
72.53
71.85
70.53
68.25
64.96
60.90
56.49
52.06
47.76
43.40
38.65
33.15
26.79
19.73
12.38
5.17
-1.66
-8.16
-14.71
-21.83
-30.05
-39.67
-50.49
-61.73
-72.07
-79.95
-84.03
-83.61
-78.90
-70.90
-61.03
-50.62
-40.54
-31.09
-22.10
-13.30
-4.55
4.02
12.04
19.11
24.94
29.46
32.85
35.36
37.19
38.42
38.99
38.85
38.08
36.92
35.64
34.38
33.00
31.12
28.34
24.43
19.56
14.19
8.94
4.25
0.22
-3.40
-7.11
-11.43
-16.70
-22.94
-29.74
-36.29
-41.48
-44.11
-43.25
-38.58
-30.58
-20.41
-9.55
0.68
9.53
16.86
23.05
28.61
33.92
39.04
43.82
48.00
51.34
53.73
55.15
55.66
55.35
54.39
52.92
51.11
49.06
46.81
44.31
41.45
38.10
34.21
29.80
25.03
20.11
15.22
10.45
5.72
0.77
-4.78
-11.29
-18.88
-27.22
-35.43
-42.28
-46.51
-47.21
-44.18
-37.95
-29.60
-20.43
-11.53
-3.58
3.22
8.96
13.86
18.07
21.61
24.47
26.66
28.30
29.56
30.58
31.40
31.95
32.09
31.78
31.08
30.20
29.34
28.54
27.61
26.19
23.87
20.40
15.86
10.61
5.19
0.08
-4.51
-8.74
-13.13
-18.37
-25.03
-33.31
-42.84
-52.65
-61.32
-67.35
-69.63
-67.72
-62.04
-53.65
-43.86
-33.84
-24.26
-15.33
-6.98
0.87
8.14
14.60
19.94
24.03
26.97
29.05
30.69
32.20
33.70
35.09
36.10
36.50
36.20
35.31
34.07
32.76
31.51
30.27
28.85
27.01
24.60
21.67
18.38
15.01
11.79
8.81
6.05
3.32
0.38
-3.04
-7.14
-12.00
-17.48
-23.16
-28.31
-32.01
-33.38
-31.84
-27.33
-20.35
-11.75
-2.50
6.67
15.39
23.59
31.34
38.68
45.51
51.65
57.01
61.63
65.72
69.58
73.46
77.40
81.20
84.48
86.73
87.54
86.71
84.35
80.80
76.60
72.24
68.00
63.90
59.64
54.88
49.42
43.42
37.39
32.05
28.08
25.84
25.31
26.11
27.66
29.31
30.51
30.85
30.18
28.69
26.94
25.82
26.30
29.16
34.71
42.68
52.27
62.39
71.93
79.91
85.64
88.61
88.46
84.83
77.38
65.84
50.18
30.78
8.59
-14.92
-38.03
-59.06
-76.80
-90.70
-100.91
-108.12
-113.33
-117.64
-122.01
-127.03
-132.82
-139.00
-144.82
-149.43
-152.20
-152.90
-151.74
-149.31
-146.36
-143.57
-141.34
-139.67
-137.99
-135.22
-129.99
-121.08
-107.90
-90.81
-71.00
-50.12
-29.71
-10.84
6.04
20.86
33.69
44.62
53.72
61.25
67.67
73.64
79.76
86.44
93.72
101.24
108.43
114.53
118.81
120.74
120.08
117.00
111.94
105.45
97.93
89.52
80.21
69.94
58.89
47.50
36.33
26.02
17.02
9.53
3.42
-1.79
-6.85
-12.55
-19.61
-28.54
-39.59
-52.63
-67.21
-82.33
-96.54
-108.09
-115.37
-117.32
-113.81
-105.47
-93.37
-78.32
-60.64
-40.18
-16.79
9.15
36.49
63.37
87.64
107.30
120.85
127.48
127.11
120.43
108.65
93.48
76.70
59.81
43.74
28.76
14.63
0.80
-13.36
-28.57
-45.54
-64.84
-86.60
-110.00
-133.20
-153.48
-168.05
-175.00
-174.01
-166.49
-155.16
-143.10
-132.89
-126.08
-123.00
-123.01
-124.77
-126.51
-126.17
-121.79
-111.80
-95.41
-73.04
-46.27
-17.62
10.02
33.98
52.29
63.80
68.19
65.79
57.47
44.35
27.87
9.42
-9.62
-28.26
-45.98
-63.05
-80.61
-100.05
-122.03
-145.15
-165.65
-178.37
-179.09
-166.70
-144.05
-116.62
-89.73
-65.92
-44.11
-21.20
5.13
34.18
62.05
83.60
95.13
96.17
89.41
78.89
67.87
57.58
47.41
36.00
22.73
8.37
-5.13
-15.60
-21.74
-23.84
-23.47
-22.64
-22.49
-22.40
-19.94
-11.64
5.50
32.76
69.08
111.34
155.20
196.14
229.96
253.00
262.11
254.87
230.28
189.92
138.67
84.47
36.82
4.25
-8.15
-0.20
23.65
56.11
89.72
119.04
141.69
157.92
169.21
176.93
181.61
183.11
181.33
176.80
170.77
164.64
159.26
154.51
149.39
142.64
133.36
121.40
107.19
91.32
74.20
55.94
36.73
17.20
-1.51
-17.93
-30.83
-39.66
-44.86
-47.72
-49.91
-52.97
-57.75
-64.13
-70.96
-76.46
-78.93
-77.58
-73.07
-67.49
-63.53
-63.49
-68.27
-77.11
-88.07
-99.01
-108.30
-115.28
-120.04
-123.07
-124.93
-126.28
-128.02
-131.40
-137.68
-147.53
-160.44
-174.43
-186.51
-193.66
-193.97
-187.49
-176.16
-163.01
-150.87
-141.30
-134.18
-128.15
-121.60
-113.52
-104.02
-94.09
-85.00
-77.54
-71.67
-66.58
-61.09
-54.20
-45.54
-35.52
-25.12
-15.51
-7.59
-1.74
2.26
4.95
6.92
8.63
10.39
12.45
15.22
19.17
24.62
31.56
39.50
47.59
54.95
60.94
65.35
68.25
69.79
69.90
68.17
64.13
57.43
48.26
37.35
25.79
14.67
4.75
-3.63
-10.54
-16.23
-20.97
-25.02
-28.66
-32.23
-36.12
-40.60
-45.67
-51.12
-56.58
-61.77
-66.64
-71.46
-76.65
-82.57
-89.18
-95.99
-102.10
-106.56
-108.78
-108.74
-106.84
-103.61
-99.28
-93.71
-86.61
-78.07
-68.90
-60.52
-54.32
-50.90
-49.61
-48.66
-45.77
-39.06
-27.68
-12.00
6.72
26.77
46.52
64.61
80.13
92.64
102.14
108.86
113.21
115.57
116.22
115.41
113.40
110.44
106.69
102.17
96.65
89.86
81.65
72.16
61.86
51.33
41.00
31.01
21.28
11.80
2.81
-5.23
-11.84
-16.83
-20.44
-23.16
-25.44
-27.44
-28.98
-29.70
-29.26
-27.41
-23.83
-18.09
-9.69
1.53
14.93
28.93
41.43
50.53
55.34
56.26
54.66
52.14
49.75
47.68
45.47
42.55
38.70
34.16
29.52
25.26
21.65
18.72
16.35
14.52
13.22
12.52
12.42
12.85
13.67
14.63
15.41
15.60
14.76
12.64
9.24
4.88
0.09
-4.71
-9.31
-13.71
-17.91
-21.72
-24.70
-26.36
-26.44
-25.13
-23.04
-20.96
-19.44
-18.69
-18.43
-18.24
-17.73
-16.81
-15.60
-14.40
-13.45
-12.84
-12.47
-12.09
-11.44
-10.40
-9.04
-7.58
-6.30
-5.36
-4.77
-4.41
-4.14
-3.87
-3.66
-3.61
-3.81
-4.23
-4.75
-5.29
-5.84
-6.49
-7.33
-8.32
-9.21
-9.63
-9.24
-7.96
-5.93
-3.53
-1.19
0.80
2.29
3.34
3.99
4.31
4.31
4.07
3.66
3.20
2.82
2.55
2.38
2.21
2.01
1.71
1.32
0.87
0.39
-0.07
-0.47
-0.83
-1.14
-1.43
-1.65
-1.75
-1.69
-1.43
-0.99
-0.49
-0.11
-0.04
-0.38
-1.11
-2.03
-2.88
-3.40
-3.46
-3.07
-2.38
-1.58
-0.79
-0.05
0.63
1.26
1.78
2.08
2.09
1.73
1.04
0.10
-0.94
-1.97
-2.86
-3.54
-3.99
-4.23
-4.33
-4.35
-4.33
-4.32
-4.27
-4.18
-4.01
-3.80
-3.67
-3.79
-4.36
-5.49
-7.18
-9.28
-11.54
-13.66
-15.43
-16.79
-17.75
-18.41
-18.85
-19.09
-19.07
-18.68
-17.80
-16.38
-14.50
-12.40
-10.44
-9.05
-8.52
-8.87
-9.77
-10.48
-10.23
-8.37
-4.72
0.41
6.35
12.34
17.88
22.78
27.06
30.87
34.21
36.95
38.94
40.07
40.37
39.97
39.00
37.49
35.46
32.96
30.10
27.08
24.08
21.15
18.27
15.41
12.59
9.95
7.74
6.14
5.25
5.09
5.54
6.50
7.83
9.34
10.80
11.90
12.38
12.05
10.86
8.93
6.49
3.81
1.17
-1.21
-3.20
-4.76
-5.98
-6.98
-7.91
-8.86
-9.84
-10.83
-11.74
-12.51
-13.05
-13.24
-12.98
-12.20
-10.90
-9.17
-7.20
-5.23
-3.45
-2.04
-1.06
-0.45
-0.09
0.15
0.30
0.30
0.05
-0.54
-1.48
-2.62
-3.81
-4.86
-5.69
-6.29
-6.72
-7.09
-7.46
-7.93
-8.52
-9.22
-9.93
-10.51
-10.92
-11.17
-11.38
-11.63
-11.87
-11.88
-11.40
-10.27
-8.51
-6.33
-4.05
-1.83
0.27
2.34
4.52
6.79
9.04
11.07
12.72
13.97
14.98
15.98
17.16
18.63
20.30
21.99
23.45
24.46
24.93
24.77
23.96
22.39
19.99
16.75
12.86
8.68
4.67
1.24
-1.37
-3.07
-3.93
-3.99
-3.37
-2.10
-0.38
1.56
3.38
4.83
5.78
6.26
6.34
6.12
5.61
4.82
3.77
2.56
1.36
0.36
-0.34
-0.79
-1.15
-1.64
-2.40
-3.44
-4.57
-5.55
-6.18
-6.43
-6.41
-6.33
-6.37
-6.61
-7.04
-7.57
-8.12
-8.59
-8.87
-8.84
-8.40
-7.45
-6.01
-4.18
-2.12
-0.05
1.85
3.37
4.38
4.83
4.74
4.25
3.53
2.75
2.03
1.40
0.93
0.66
0.64
0.87
1.31
1.81
2.20
2.36
2.23
1.90
1.45
0.94
0.38
-0.27
-1.05
-1.94
-2.88
-3.74
-4.33
-4.41
-3.78
-2.31
-0.11
2.53
5.12
7.16
8.33
8.49
7.78
6.52
5.03
3.61
2.47
1.70
1.29
1.14
1.13
1.16
1.16
1.19
1.27
1.44
1.62
1.72
1.61
1.21
0.55
-0.30
-1.25
-2.30
-3.50
-4.94
-6.59
-8.24
-9.52
-10.02
-9.52
-8.16
-6.35
-4.67
-3.54
-3.05
-3.01
-3.08
-3.05
-2.88
-2.72
-2.69
-2.81
-2.95
-2.99
-2.87
-2.66
-2.44
-2.18
-1.67
-0.59
1.31
4.04
7.29
10.53
13.17
14.80
15.26
14.65
13.27
11.49
9.71
8.32
7.63
7.81
8.85
10.52
12.46
14.33
15.84
16.87
17.41
17.53
17.25
16.51
15.24
13.36
10.90
7.99
4.86
1.78
-1.02
-3.40
-5.37
-7.02
-8.48
-9.84
-11.19
-12.48
-13.73
-14.92
-16.06
-17.16
-18.24
-19.28
-20.17
-20.75
-20.81
-20.20
-18.89
-17.00
-14.77
-12.43
-10.14
-7.97
-5.96
-4.16
-2.70
-1.74
-1.36
-1.52
-2.03
-2.59
-2.89
-2.70
-1.91
-0.56
1.22
3.28
5.53
7.89
10.33
12.83
15.30
17.63
19.72
21.57
23.28
25.03
27.00
29.27
31.76
34.23
36.35
37.78
38.19
37.31
34.96
31.09
25.82
19.42
12.29
4.92
-2.17
-8.53
-13.80
-17.81
-20.60
-22.40
-23.59
-24.52
-25.48
-26.65
-28.11
-29.83
-31.75
-33.67
-35.37
-36.55
-37.00
-36.59
-35.43
-33.75
-31.76
-29.59
-27.17
-24.25
-20.67
-16.38
-11.64
-6.86
-2.56
0.90
3.42
5.12
6.31
7.26
8.11
8.85
9.33
9.46
9.26
8.93
8.75
9.02
9.97
11.64
13.92
16.57
19.23
21.60
23.41
24.53
25.02
25.05
24.82
24.48
24.03
23.36
22.41
21.19
19.91
18.91
18.45
18.59
19.13
19.66
19.85
19.53
18.76
17.75
16.67
15.57
14.42
13.18
11.87
10.60
9.56
8.87
8.60
8.71
9.02
9.33
9.42
9.17
8.63
8.00
7.58
7.54
7.94
8.54
9.00
8.88
7.85
5.77
2.72
-1.01
-4.96
-8.58
-11.38
-13.09
-13.67
-13.42
-12.73
-12.05
-11.66
-11.61
-11.82
-12.08
-12.24
-12.30
-12.38
-12.71
-13.49
-14.81
-16.60
-18.72
-21.05
-23.52
-26.20
-29.14
-32.34
-35.67
-38.89
-41.84
-44.49
-47.14
-50.25
-54.35
-59.66
-65.97
-72.57
-78.53
-83.09
-86.01
-87.66
-88.93
-90.79
-93.87
-98.30
-103.70
-109.46
-114.75
-118.51
-119.45
-116.26
-108.21
-95.78
-80.89
-66.47
-55.32
-49.03
-47.36
-48.54
-50.27
-50.80
-49.43
-46.27
-41.70
-35.78
-28.30
-19.15
-8.75
2.01
12.17
21.20
29.21
36.71
44.06
51.11
57.31
62.01
64.92
66.08
65.65
63.55
59.40
52.83
44.05
34.21
25.33
19.72
19.25
24.81
36.11
51.97
70.77
90.78
110.56
129.07
145.64
159.86
171.35
179.56
183.81
183.45
178.28
168.84
156.47
143.04
130.57
120.92
115.58
115.68
121.73
133.18
148.09
163.10
174.16
177.63
171.63
156.57
134.90
110.01
84.95
61.63
40.67
21.94
5.18
-9.68
-22.51
-33.30
-42.35
-50.21
-57.55
-64.77
-71.92
-78.75
-84.84
-89.91
-93.91
-97.10
-99.85
-102.44
-104.71
-106.08
-105.67
-102.66
-96.75
-88.33
-78.40
-68.19
-58.73
-50.44
-43.11
-36.11
-28.80
-20.85
-12.37
-3.76
4.52
12.17
19.12
25.47
31.28
36.50
40.92
44.32
46.54
47.62
47.66
46.82
45.22
42.89
39.79
35.88
31.24
26.08
20.78
15.83
11.63
8.32
5.63
3.09
0.17
-3.33
-7.21
-10.94
-13.98
-16.04
-17.30
-18.19
-19.18
-20.47
-21.89
-23.05
-23.58
-23.25
-22.12
-20.46
-18.56
-16.63
-14.75
-12.81
-10.69
-8.29
-5.71
-3.20
-1.07
0.45
1.38
1.87
2.07
1.83
0.66
-2.21
-7.43
-15.20
-25.03
-35.82
-46.16
-54.63
-60.10
-61.70
-59.03
-52.17
-41.96
-30.14
-19.21
-11.93
-10.53
-16.09
-28.16
-45.12
-64.83
-85.37
-105.43
-124.35
-141.82
-157.60
-171.37
-182.91
-192.25
-199.89
-206.79
-214.02
-222.25
-231.16
-239.09
-243.24
-240.36
-227.80
-204.39
-170.85
-129.64
-84.43
-39.40
1.44
34.80
58.63
72.48
77.65
76.74
72.85
68.62
65.58
64.02
63.46
63.27
63.19
63.28
63.74
64.61
65.55
65.95
65.05
62.13
56.62
48.12
36.53
22.16
5.99
-10.28
-24.28
-33.56
-36.29
-31.87
-21.33
-6.94
8.57
22.96
35.05
44.84
52.99
60.16
66.58
71.97
75.91
78.17
78.96
78.76
78.02
76.83
74.89
71.70
66.89
60.51
53.01
45.02
37.03
29.16
21.18
12.69
3.41
-6.77
-17.74
-29.20
-40.65
-51.23
-59.65
-64.37
-64.04
-58.12
-47.25
-33.15
-18.07
-3.87
8.56
19.46
29.62
39.71
49.76
59.07
66.75
72.27
75.81
78.21
80.45
83.14
86.20
88.98
90.60
90.49
88.52
85.05
80.56
75.32
69.19
61.73
52.47
41.15
27.92
13.27
-2.16
-17.58
-32.09
-44.45
-53.13
-56.43
-53.07
-42.69
-26.24
-5.83
15.80
36.07
53.21
66.45
75.79
81.53
83.98
83.40
80.21
75.18
69.53
64.64
61.58
60.70
61.43
62.49
62.39
59.94
54.73
47.19
38.42
29.71
22.06
15.88
10.86
6.21
0.93
-5.83
-14.53
-25.15
-37.10
-49.19
-59.72
-66.76
-68.67
-64.57
-54.81
-40.90
-25.09
-9.68
3.67
14.17
21.85
27.04
30.12
31.35
31.05
29.79
28.42
27.89
28.80
31.11
34.02
36.36
37.00
35.36
31.56
26.30
20.47
14.75
9.42
4.33
-0.91
-6.86
-14.07
-22.96
-33.62
-45.43
-56.93
-65.91
-70.00
-67.50
-58.08
-43.12
-25.23
-7.37
8.13
20.10
28.54
34.11
37.57
39.47
40.18
40.15
40.03
40.61
42.45
45.54
49.28
52.65
54.68
54.88
53.36
50.69
47.52
44.25
40.87
37.04
32.25
26.01
17.97
7.99
-3.69
-16.36
-28.71
-39.03
-45.59
-47.19
-43.58
-35.57
-24.64
-12.51
-0.47
10.75
20.90
29.85
37.26
42.54
44.97
44.09
39.93
33.02
24.23
14.43
4.22
-6.19
-16.85
-27.84
-39.09
-50.32
-61.16
-71.37
-80.96
-90.15
-99.24
-108.35
-117.42
-126.04
-133.63
-139.44
-142.71
-142.69
-138.81
-130.90
-119.41
-105.45
-90.55
-76.25
-63.53
-52.43
-42.07
-30.95
-17.62
-1.23
18.19
39.80
62.34
84.48
105.13
123.31
138.18
148.96
155.16
156.80
154.67
150.14
144.80
139.90
135.89
132.30
128.04
121.89
113.09
101.73
88.87
76.27
65.92
59.39
57.42
59.70
65.12
72.26
79.77
86.76
92.78
97.75
101.80
105.19
108.28
111.49
115.15
119.36
123.90
128.21
131.70
133.92
134.78
134.56
133.80
133.07
132.88
133.50
134.89
136.63
137.83
137.37
134.16
127.67
118.29
107.19
95.92
85.60
76.39
67.43
57.30
44.87
29.80
12.64
-5.45
-23.26
-39.83
-54.50
-66.79
-76.67
-84.82
-92.89
-103.04
-117.01
-135.02
-155.31
-174.61
-189.39
-197.14
-197.09
-189.98
-177.35
-160.91
-142.45
-124.03
-108.08
-97.02
-92.33
-93.73
-99.12
-105.14
-108.63
-107.64
-101.93
-92.54
-81.16
-69.22
-57.47
-46.00
-34.42
-22.33
-9.64
3.19
15.16
24.90
31.03
32.53
29.12
21.26
10.05
-3.10
-16.83
-30.09
-42.22
-52.85
-61.90
-69.50
-75.95
-81.71
-87.27
-92.98
-98.89
-104.58
-109.15
-111.50
-110.59
-105.88
-97.46
-86.08
-72.85
-58.93
-45.22
-32.22
-20.20
-9.25
0.53
9.04
16.20
22.04
26.72
30.43
33.37
35.68
37.42
38.54
38.91
38.42
37.02
34.85
32.23
29.58
27.26
25.46
24.13
23.01
21.81
20.28
18.36
16.12
13.71
11.27
8.82
6.29
3.44
0.04
-4.07
-8.84
-13.99
-19.06
-23.58
-27.27
-30.06
-32.06
-33.43
-34.28
-34.63
-34.50
-33.96
-33.17
-32.34
-31.64
-31.21
-31.08
-31.24
-31.59
-31.99
-32.25
-32.15
-31.54
-30.36
-28.73
-26.84
-24.95
-23.23
-21.83
-20.84
-20.35
-20.48
-21.33
-22.89
-24.97
-27.20
-29.08
-30.20
-30.33
-29.48
-27.90
-25.90
-23.74
-21.48
-19.15
-16.69
-14.15
-11.62
-9.25
-7.16
-5.34
-3.68
-2.04
-0.28
1.57
3.40
5.00
6.14
6.65
6.45
5.64
4.36
2.78
1.03
-0.82
-2.75
-4.73
-6.67
-8.49
-10.10
-11.51
-12.81
-14.15
-15.68
-17.49
-19.58
-21.80
-23.88
-25.48
-26.27
-26.07
-24.86
-22.86
-20.43
-17.95
-15.68
-13.67
-11.81
-9.94
-7.97
-5.95
-4.02
-2.31
-0.83
0.57
2.13
4.06
6.37
8.83
11.11
12.84
13.85
14.18
14.03
13.71
13.42
13.28
13.27
13.30
13.30
13.23
13.11
12.96
12.81
12.61
12.31
11.84
11.13
10.18
9.12
8.11
7.36
7.02
7.17
7.73
8.58
9.59
10.70
11.93
13.26
14.66
15.95
16.91
17.39
17.35
16.97
16.55
16.38
16.66
17.39
18.42
19.52
20.50
21.17
21.45
21.32
20.88
20.41
20.26
20.79
22.19
24.33
26.80
29.01
30.47
30.95
30.67
30.16
30.11
31.09
33.38
36.80
40.90
45.06
48.73
51.55
53.36
54.05
53.38
50.97
46.39
39.38
30.03
18.80
6.48
-5.85
-16.79
-24.76
-28.32
-26.77
-20.78
-12.47
-4.85
-0.56
-0.66
-4.21
-8.82
-11.98
-12.41
-10.51
-7.99
-6.75
-7.93
-11.57
-16.93
-23.14
-29.68
-36.34
-43.09
-49.61
-55.21
-58.98
-60.18
-58.50
-54.31
-48.52
-42.27
-36.53
-31.88
-28.39
-25.83
-23.98
-22.83
-22.65
-23.85
-26.71
-31.24
-37.04
-43.30
-48.82
-52.22
-52.23
-48.09
-39.87
-28.59
-15.79
-3.09
8.35
18.06
26.04
32.45
37.31
40.42
41.52
40.47
37.33
32.20
25.16
16.29
5.85
-5.46
-16.46
-25.73
-32.09
-35.04
-35.00
-33.13
-30.90
-29.55
-29.71
-31.30
-33.78
-36.39
-38.55
-39.88
-40.27
-39.65
-37.86
-34.67
-29.86
-23.48
-15.97
-8.15
-0.99
4.70
8.53
10.60
11.37
11.42
11.27
11.22
11.39
11.87
12.69
13.85
15.22
16.51
17.28
17.17
16.10
14.40
12.80
12.13
12.97
15.41
18.96
22.75
25.92
27.92
28.64
28.38
27.53
26.40
25.05
23.40
21.33
18.88
16.22
13.62
11.30
9.32
7.59
5.90
4.07
2.06
-0.09
-2.24
-4.35
-6.41
-8.55
-10.86
-13.39
-16.09
-18.82
-21.47
-23.97
-26.34
-28.62
-30.82
-32.86
-34.49
-35.45
-35.48
-34.52
-32.80
-30.85
-29.39
-29.11
-30.44
-33.45
-37.86
-43.06
-48.26
-52.52
-54.83
-54.33
-50.56
-43.78
-35.07
-26.10
-18.46
-12.93
-9.02
-5.05
1.21
11.56
26.58
45.40
66.05
86.24
104.09
118.44
128.84
135.22
137.61
136.06
130.80
122.40
111.83
100.27
88.84
78.40
69.31
61.64
55.29
50.17
46.27
43.60
42.05
41.31
40.83
39.97
38.08
34.74
29.85
23.62
16.50
9.02
1.71
-5.09
-11.20
-16.58
-21.34
-25.59
-29.42
-32.91
-36.14
-39.23
-42.37
-45.82
-49.80
-54.48
-59.86
-65.71
-71.65
-77.18
-81.80
-85.24
-87.52
-88.95
-89.97
-90.95
-91.97
-92.75
-92.77
-91.50
-88.66
-84.41
-79.31
-74.14
-69.57
-65.90
-62.97
-60.35
-57.60
-54.56
-51.49
-48.86
-47.12
-46.39
-46.36
-46.34
-45.50
-42.94
-37.74
-29.15
-16.91
-1.74
14.27
27.96
35.91
35.75
27.18
12.22
-5.55
-22.23
-34.75
-41.29
-41.02
-33.67
-19.38
0.85
24.71
48.42
67.54
78.33
79.04
70.47
55.45
37.67
20.32
5.36
-6.52
-15.43
-21.61
-25.07
-25.57
-22.87
-16.90
-7.95
3.35
16.15
29.53
42.75
55.27
66.85
77.54
87.52
96.87
105.44
112.79
118.38
121.76
122.90
122.27
120.69
119.00
117.69
116.59
114.90
111.54
105.66
97.17
87.00
77.01
69.33
65.57
66.08
69.57
73.67
75.80
74.33
69.48
63.36
59.14
59.81
66.79
79.27
94.15
106.81
112.17
106.03
86.36
54.28
14.15
-27.53
-64.26
-92.12
-111.36
-126.44
-143.79
-168.62
-201.86
-238.96
-271.03
-288.17
-283.08
-254.07
-206.32
-150.40
-99.27
-63.89
-49.97
-56.48
-76.87
-102.15
-124.46
-139.34
-145.87
-145.24
-138.86
-127.38
-111.05
-90.81
-69.07
-49.42
-35.21
-27.97
-26.65
-28.22
-29.06
-26.48
-19.76
-9.89
1.20
11.91
21.82
31.62
42.74
56.42
72.99
91.45
109.54
124.42
133.54
135.51
130.61
120.69
108.55
96.73
86.58
77.79
68.65
57.00
41.25
21.21
-2.05
-26.61
-50.51
-72.33
-91.52
-108.39
-123.80
-138.72
-153.95
-170.08
-187.46
-206.04
-225.36
-244.58
-262.77
-279.27
-293.97
-307.22
-319.83
-332.34
-344.19
-353.44
-357.32
-353.31
-340.33
-319.24
-291.94
-261.42
-230.29
-199.40
-167.59
-132.69
-92.90
-48.01
0.45
51.26
102.17
151.42
198.99
246.71
297.14
352.35
413.42
480.31
553.54
629.95
702.78
763.59
804.59
820.58
810.26
776.41
724.65
663.59
597.56
526.13
446.95
359.27
265.79
172.92
89.17
6.45
-69.01
-127.30
-165.01
-187.65
-202.89
-214.35
-221.40
-222.28
-217.11
-206.19
-193.20
-182.23
-174.32
-165.96
-152.77
-131.85
-103.37
-70.82
-38.19
-11.66
2.74
2.44
-10.40
-30.23
-50.64
-66.63
-76.01
-78.33
-74.82
-68.12
-60.33
-52.13
-43.09
-32.58
-20.32
-6.76
7.17
18.89
25.18
24.83
19.41
12.37
6.71
3.90
3.44
3.81
3.47
0.85
-2.78
-5.61
-6.45
-6.01
-6.09
-9.01
-16.62
-29.55
-46.87
-66.26
-85.52
-98.86
-103.66
-99.79
-89.36
-75.76
-62.16
-50.37
-40.28
-30.90
-21.03
-10.92
-1.49
6.16
11.42
14.54
16.46
18.41
21.18
25.10
29.54
33.79
37.24
39.53
40.54
40.31
39.09
37.15
34.90
32.45
30.14
28.42
27.76
28.51
30.57
33.32
35.61
36.18
34.01
28.90
21.56
13.24
5.19
-1.97
-8.43
-15.03
-22.66
-31.84
-42.29
-53.09
-63.13
-71.62
-78.33
-83.58
-87.88
-91.54
-94.47
-96.27
-96.51
-95.01
-91.96
-87.80
-82.92
-77.53
-71.59
-65.05
-58.02
-50.78
-43.64
-36.66
-29.50
-21.53
-12.10
-0.96
11.51
24.45
36.83
47.81
56.98
64.47
70.62
75.85
80.42
84.37
87.63
90.06
91.57
92.08
91.59
90.12
87.77
84.79
81.51
78.24
75.24
72.47
69.65
66.36
62.16
56.81
50.36
43.06
35.26
27.25
19.25
11.41
3.89
-3.00
-8.90
-13.45
-16.44
-17.91
-18.13
-17.54
-16.55
-15.53
-14.77
-14.54
-15.01
-16.32
-18.47
-21.31
-24.53
-27.82
-30.94
-33.83
-36.59
-39.46
-42.68
-46.41
-50.66
-55.29
-60.09
-64.88
-69.57
-74.11
-78.44
-82.30
-85.26
-86.87
-86.92
-85.67
-83.78
-82.05
-80.94
-80.32
-79.47
-77.51
-73.92
-68.76
-62.58
-55.89
-48.74
-40.62
-30.79
-18.84
-5.17
8.94
21.83
32.05
38.98
42.90
44.72
45.48
46.00
46.82
48.27
50.59
53.82
57.52
60.42
60.47
55.15
42.33
21.28
-6.52
-37.30
-65.77
-86.54
-95.90
-92.99
-80.03
-61.39
-41.98
-25.71
-14.49
-8.22
-5.49
-4.60
-4.42
-4.82
-6.30
-9.40
-13.70
-17.39
-17.42
-10.51
5.36
29.78
59.68
90.30
116.86
136.20
147.36
151.17
149.15
142.68
132.81
120.58
107.35
94.75
84.00
75.25
67.38
58.45
46.73
31.50
13.46
-5.63
-23.77
-39.54
-52.69
-64.21
-75.94
-89.95
-107.80
-129.77
-154.62
-179.66
-201.46
-216.66
-222.77
-218.54
-203.79
-179.09
-145.42
-104.10
-56.90
-6.22
45.13
94.27
138.84
177.34
209.20
234.48
253.49
266.54
273.99
276.27
273.90
267.33
256.73
242.10
223.41
201.19
176.87
152.78
131.49
114.84
103.04
94.44
86.28
75.84
61.77
44.54
26.06
8.60
-6.41
-18.92
-30.03
-41.12
-52.84
-64.76
-75.66
-84.46
-90.94
-95.99
-101.15
-107.87
-116.79
-127.67
-139.79
-152.58
-165.90
-179.85
-193.97
-206.54
-214.57
-214.67
-204.71
-185.22
-159.80
-134.13
-113.85
-102.58
-100.76
-106.07
-114.87
-124.00
-131.78
-138.05
-143.29
-147.76
-151.08
-152.45
-151.27
-147.66
-142.45
-136.84
-131.89
-128.15
-125.52
-123.48
-121.34
-118.49
-114.51
-109.24
-102.65
-94.77
-85.60
-75.15
-63.49
-50.93
-38.03
-25.48
-13.95
-3.82
4.88
12.55
19.86
27.61
36.41
46.60
58.03
70.02
81.48
91.07
97.61
100.41
99.61
96.10
91.37
87.02
84.37
84.15
86.24
89.76
93.20
94.89
93.52
88.62
80.94
72.23
64.76
60.48
60.43
64.37
70.99
78.52
85.33
90.36
93.25
94.13
93.31
91.02
87.33
82.20
75.72
68.21
60.27
52.66
46.07
40.96
37.46
35.46
34.84
35.58
37.79
41.56
46.70
52.69
58.72
63.88
67.52
69.39
69.72
68.95
67.54
65.70
63.24
59.70
54.47
46.98
36.89
24.20
9.38
-6.58
-22.24
-35.95
-46.27
-52.48
-54.83
-54.46
-53.01
-51.96
-52.01
-52.93
-53.69
-52.99
-49.87
-44.07
-36.13
-26.98
-17.55
-8.38
0.45
9.09
17.62
25.88
33.46
40.04
45.53
50.25
54.63
58.93
62.88
65.73
66.56
64.69
60.03
53.21
45.32
37.50
30.53
24.66
19.55
14.61
9.27
3.35
-2.94
-9.15
-14.83
-19.88
-24.53
-29.35
-34.92
-41.57
-49.20
-57.18
-64.40
-69.51
-71.21
-68.69
-61.97
-51.95
-40.22
-28.54
-18.28
-10.02
-3.53
1.87
6.87
11.77
16.42
20.36
23.16
24.68
25.07
24.66
23.72
22.33
20.39
17.74
14.34
10.33
5.94
1.35
-3.42
-8.51
-14.11
-20.27
-26.90
-33.83
-41.11
-49.11
-58.48
-69.95
-83.89
-100.08
-117.67
-135.38
-151.87
-166.04
-177.19
-185.08
-189.94
-192.38
-193.14
-192.78
-191.13
-187.01
-178.27
-162.28
-136.93
-101.56
-57.58
-8.34
41.81
88.56
128.87
161.40
186.47
205.42
219.92
231.41
240.86
248.85
255.76
261.82
267.20
271.83
275.39
277.39
277.31
274.85
270.09
263.46
255.59
247.01
237.89
227.91
216.37
202.39
185.34
165.04
141.91
116.91
91.26
66.23
42.88
21.94
3.70
-11.95
-25.57
-37.98
-50.12
-62.82
-76.53
-91.20
-106.33
-121.03
-134.21
-144.76
-151.62
-154.00
-151.51
-144.35
-133.46
-120.29
-106.49
-93.34
-81.37
-70.28
-59.23
-47.41
-34.59
-21.29
-8.65
2.00
9.61
13.71
14.51
12.80
9.74
6.56
4.31
3.61
4.54
6.71
9.43
12.02
13.99
15.15
15.52
15.26
14.49
13.33
11.89
10.27
8.55
6.75
4.84
2.74
0.40
-2.19
-4.92
-7.62
-10.03
-12.02
-13.54
-14.74
-15.86
-17.17
-18.79
-20.55
-22.13
-23.09
-23.16
-22.36
-21.00
-19.55
-18.39
-17.74
-17.58
-17.83
-18.33
-18.98
-19.71
-20.41
-20.97
-21.31
-21.47
-21.65
-22.13
-23.11
-24.68
-26.69
-28.83
-30.82
-32.47
-33.79
-34.90
-35.97
-37.09
-38.27
-39.49
-40.76
-42.17
-43.76
-45.56
-47.40
-49.07
-50.31
-51.04
-51.34
-51.44
-51.65
-52.17
-53.03
-54.04
-54.83
-54.86
-53.55
-50.27
-44.49
-35.87
-24.36
-10.23
5.92
23.31
41.13
58.65
75.29
90.49
103.62
113.88
120.45
122.63
120.13
113.23
102.81
90.13
76.62
63.60
52.06
42.58
35.27
29.87
25.82
22.45
19.19
15.65
11.74
7.66
3.86
0.90
-0.70
-0.67
0.87
3.31
5.72
7.14
6.90
4.90
1.63
-2.12
-5.64
-8.53
-10.89
-13.12
-15.69
-18.86
-22.68
-26.94
-31.35
-35.66
-39.71
-43.46
-46.93
-50.18
-53.25
-56.13
-58.75
-61.03
-62.85
-64.17
-64.91
-64.94
-63.99
-61.81
-58.21
-53.32
-47.66
-42.01
-37.16
-33.68
-31.78
-31.36
-32.18
-34.02
-36.71
-40.12
-44.04
-48.14
-51.98
-55.12
-57.31
-58.50
-58.95
-59.09
-59.43
-60.43
-62.32
-65.04
-68.26
-71.42
-73.89
-75.07
-74.52
-72.00
-67.47
-61.10
-53.17
-43.97
-33.73
-22.55
-10.46
2.51
16.12
29.88
42.92
54.13
62.38
66.80
67.15
63.90
58.17
51.50
45.46
41.27
39.51
40.00
41.83
43.63
44.03
42.10
37.83
32.23
27.10
24.49
26.03
32.36
42.99
56.55
71.25
85.36
97.57
107.02
113.19
115.83
114.82
110.29
102.67
92.71
81.40
69.76
58.69
48.77
40.24
33.02
26.80
21.14
15.55
9.63
3.09
-4.11
-11.87
-19.96
-28.12
-36.13
-43.84
-51.14
-58.01
-64.46
-70.53
-76.20
-81.29
-85.37
-87.79
-87.90
-85.36
-80.33
-73.62
-66.47
-60.22
-55.87
-53.84
-53.93
-55.55
-58.01
-60.76
-63.50
-66.19
-68.88
-71.67
-74.65
-77.93
-81.63
-85.85
-90.54
-95.37
-99.67
-102.55
-103.21
-101.19
-96.51
-89.64
-81.15
-71.47
-60.61
-48.36
-34.48
-19.11
-2.88
13.12
27.69
39.90
49.49
56.87
63.09
69.40
76.86
85.96
96.43
107.35
117.36
125.13
129.71
130.76
128.62
124.20
118.69
113.23
108.63
105.18
102.52
99.89
96.38
91.34
84.59
76.48
67.80
59.42
52.08
46.25
42.03
39.30
37.77
37.10
36.84
36.46
35.34
32.84
28.48
22.05
13.75
4.04
-6.46
-17.07
-27.11
-35.75
-41.98
-44.73
-43.25
-37.54
-28.53
-17.95
-7.81
0.34
5.77
8.77
10.16
10.90
11.62
12.59
13.76
15.04
16.42
17.93
19.62
21.39
23.04
24.31
24.99
25.00
24.46
23.55
22.45
21.19
19.57
17.33
14.19
10.08
5.17
-0.19
-5.66
-11.02
-16.31
-21.82
-27.86
-34.69
-42.33
-50.38
-58.05
-64.25
-67.93
-68.45
-65.91
-61.21
-55.74
-50.95
-47.75
-46.37
-46.44
-47.28
-48.30
-49.17
-49.78
-50.10
-50.06
-49.56
-48.48
-46.85
-44.75
-42.28
-39.45
-36.09
-31.99
-26.98
-21.10
-14.63
-7.98
-1.62
4.18
9.37
14.14
18.85
23.84
29.40
35.54
42.02
48.27
53.53
57.10
58.68
58.54
57.59
57.00
57.83
60.52
64.92
70.33
75.93
81.09
85.49
89.00
91.51
92.82
92.65
90.82
87.42
82.89
77.99
73.54
70.28
68.63
68.62
69.89
71.73
73.25
73.63
72.32
69.31
65.04
60.20
55.45
51.16
47.28
43.52
39.63
35.62
31.65
27.91
24.27
20.29
15.36
9.05
1.40
-7.09
-15.68
-23.73
-30.99
-37.55
-43.72
-49.76
-55.62
-61.05
-65.63
-69.04
-71.17
-72.11
-72.11
-71.43
-70.33
-68.98
-67.51
-65.94
-64.21
-62.15
-59.57
-56.39
-52.69
-48.77
-45.10
-42.09
-39.93
-38.56
-37.65
-36.84
-35.85
-34.57
-33.08
-31.49
-29.85
-28.07
-25.97
-23.31
-19.91
-15.81
-11.24
-6.66
-2.65
0.27
1.79
1.87
0.81
-0.91
-2.81
-4.51
-5.88
-6.96
-7.90
-8.88
-10.00
-11.27
-12.63
-13.99
-15.23
-16.24
-16.95
-17.29
-17.27
-16.86
-16.08
-14.95
-13.50
-11.80
-9.96
-8.19
-6.66
-5.58
-5.04
-5.02
-5.36
-5.83
-6.13
-5.97
-5.08
-3.32
-0.73
2.47
5.87
9.01
11.51
13.14
13.90
13.90
13.28
12.10
10.42
8.31
5.94
3.57
1.47
-0.15
-1.28
-2.08
-2.87
-3.98
-5.61
-7.78
-10.27
-12.72
-14.77
-16.28
-17.33
-18.26
-19.48
-21.27
-23.67
-26.43
-29.21
-31.64
-33.59
-35.22
-36.96
-39.39
-43.03
-48.14
-54.55
-61.61
-68.22
-73.02
-74.70
-72.47
-66.30
-57.14
-46.70
-36.97
-29.71
-26.00
-26.21
-30.21
-37.61
-47.95
-60.53
-74.24
-87.42
-98.04
-104.29
-105.17
-101.08
-93.85
-86.26
-81.38
-81.49
-87.59
-99.02
-113.76
-128.86
-141.10
-147.76
-147.25
-139.57
-126.44
-110.87
-96.34
-85.58
-79.55
-77.10
-75.52
-71.88
-64.40
-53.16
-39.76
-25.99
-12.55
1.59
18.61
40.32
66.67
95.00
120.77
139.22
147.33
145.17
135.72
123.64
113.65
109.27
112.52
124.16
143.95
170.50
200.90
230.74
255.19
270.76
277.00
276.93
275.64
277.60
284.05
291.95
294.99
286.33
261.49
220.20
166.45
106.98
49.07
-1.36
-40.89
-68.72
-85.72
-93.25
-92.20
-82.96
-66.19
-43.73
-18.85
4.66
23.96
38.23
48.63
56.91
63.86
68.61
69.37
65.14
56.76
46.62
36.94
27.83
16.72
-0.17
-25.38
-58.25
-94.83
-129.95
-160.07
-184.81
-206.65
-228.69
-252.45
-276.85
-299.10
-316.37
-327.26
-331.74
-330.07
-321.38
-303.52
-273.91
-231.20
-176.48
-113.05
-44.93
24.89
95.13
165.41
234.44
298.64
352.37
389.72
407.12
404.87
387.04
359.37
326.51
290.42
250.74
206.52
158.37
109.21
63.21
23.69
-8.70
-36.01
-61.68
-88.56
-117.83
-149.01
-180.75
-211.69
-240.33
-264.46
-280.67
-284.67
-272.59
-242.47
-195.22
-134.49
-65.64
5.54
73.94
135.57
187.55
227.93
255.66
270.55
273.46
266.18
251.33
231.91
210.57
189.02
167.75
146.32
123.98
100.41
75.99
51.64
28.32
6.46
-14.11
-34.15
-54.73
-76.95
-101.78
-129.67
-160.27
-192.25
-223.51
-251.51
-273.75
-288.19
-293.32
-288.17
-272.42
-246.51
-211.86
-170.86
-126.53
-81.96
-39.84
-2.27
29.31
54.01
71.49
82.18
87.45
89.63
91.58
95.97
104.29
116.04
128.39
136.79
136.44
124.05
99.43
65.70
28.14
-7.90
-39.08
-64.91
-87.32
-109.14
-132.61
-158.48
-186.00
-213.42
-238.46
-258.57
-271.11
-273.75
-264.99
-244.82
-214.84
-177.80
-136.76
-94.23
-51.51
-8.59
35.32
80.97
128.14
175.17
219.07
256.54
285.29
304.88
316.65
322.73
324.54
322.08
314.25
300.18
280.23
256.24
230.62
204.97
179.21
151.81
120.79
84.93
44.27
0.04
-45.75
-90.84
-132.96
-170.06
-200.66
-224.41
-242.26
-256.13
-267.87
-277.98
-285.07
-286.14
-278.03
-258.96
-229.63
-192.99
-153.10
-113.62
-76.45
-41.64
-7.76
27.36
65.88
109.51
158.97
213.39
269.93
323.97
370.07
403.57
421.95
425.35
416.00
396.96
370.98
340.00
305.29
267.82
228.65
188.85
149.43
111.22
74.90
41.11
10.45
-16.68
-40.12
-59.80
-75.65
-87.66
-95.94
-101.01
-103.82
-105.55
-107.19
-109.16
-111.19
-112.54
-112.49
-110.66
-107.15
-102.51
-97.53
-92.96
-89.26
-86.48
-84.27
-81.96
-78.88
-74.56
-68.93
-62.28
-55.22
-48.49
-42.77
-38.55
-36.01
-34.99
-35.08
-35.69
-36.20
-36.05
-34.75
-31.90
-27.30
-21.03
-13.54
-5.79
0.99
5.53
6.89
4.66
-1.01
-9.63
-20.58
-33.21
-46.89
-60.98
-74.81
-87.70
-99.22
-109.32
-118.39
-126.93
-135.14
-142.47
-147.48
-148.22
-142.92
-130.83
-112.61
-90.08
-65.59
-41.22
-18.41
2.04
19.64
33.91
44.54
51.57
55.61
57.69
58.81
59.40
59.13
57.13
52.57
45.17
35.50
24.86
14.87
7.17
3.19
4.05
10.36
21.96
37.74
55.56
72.74
86.66
95.60
99.19
98.52
95.71
93.25
93.13
96.15
101.61
107.40
110.85
109.85
103.85
94.13
83.04
72.69
63.66
54.73
43.73
28.92
10.04
-11.68
-34.52
-57.35
-79.97
-102.37
-123.67
-141.78
-154.30
-160.28
-161.25
-160.53
-160.81
-161.62
-158.50
-145.06
-116.80
-74.58
-25.43
20.02
52.18
66.44
64.54
52.66
37.76
24.54
14.26
5.89
-1.93
-9.38
-15.29
-18.16
-17.31
-13.55
-8.77
-5.00
-3.28
-3.23
-3.34
-1.81
2.50
9.53
18.08
26.33
32.62
36.04
36.70
35.54
33.81
32.62
32.47
33.22
34.22
34.71
34.14
32.42
29.95
27.32
25.10
23.44
22.11
20.64
18.52
15.59
12.01
8.18
4.50
1.14
-1.98
-5.01
-8.01
-10.75
-12.93
-14.25
-14.68
-14.53
-14.26
-14.27
-14.71
-15.48
-16.31
-16.97
-17.38
-17.61
-17.80
-18.02
-18.30
-18.57
-18.79
-18.93
-19.02
-19.05
-19.02
-18.92
-18.70
-18.34
-17.81
-17.10
-16.26
-15.38
-14.55
-13.90
-13.53
-13.49
-13.80
-14.44
-15.36
-16.39
-17.35
-17.92
-17.81
-16.85
-15.11
-12.91
-10.66
-8.70
-7.17
-5.95
-4.85
-3.71
-2.56
-1.56
-0.89
-0.61
-0.60
-0.66
-0.62
-0.44
-0.25
-0.21
-0.38
-0.68
-0.92
-0.93
-0.66
-0.24
0.12
0.22
-0.00
-0.44
-0.90
-1.14
-1.10
-0.81
-0.41
-0.10
-0.01
-0.23
-0.75
-1.50
-2.34
-3.04
-3.38
-3.17
-2.34
-1.02
0.47
1.74
2.46
2.57
2.24
1.85
1.72
2.06
2.77
3.63
4.41
4.91
5.11
5.04
4.79
4.44
4.03
3.63
3.31
3.16
3.15
3.21
3.21
3.02
2.60
1.99
1.29
0.58
-0.06
-0.57
-0.91
-1.09
-1.23
-1.45
-1.90
-2.62
-3.50
-4.28
-4.70
-4.53
-3.85
-2.84
-1.79
-0.92
-0.25
0.32
0.89
1.47
1.93
2.08
1.75
1.00
0.01
-0.85
-1.30
-1.22
-0.74
-0.11
0.41
0.66
0.66
0.47
0.18
-0.19
-0.61
-1.03
-1.36
-1.48
-1.36
-1.08
-0.80
-0.68
-0.86
-1.31
-1.97
-2.67
-3.27
-3.61
-3.55
-3.06
-2.17
-1.04
0.10
1.02
1.59
1.81
1.75
1.54
1.32
1.22
1.33
1.66
2.14
2.62
2.91
2.90
2.57
2.03
1.46
1.08
0.96
1.10
1.38
1.66
1.81
1.74
1.46
0.99
0.39
-0.29
-0.95
-1.52
-1.97
-2.27
-2.46
-2.64
-2.84
-3.04
-3.07
-2.73
-1.90
-0.57
1.00
2.46
3.51
4.01
4.08
4.00
4.08
4.46
5.10
5.80
6.34
6.60
6.62
6.59
6.70
7.08
7.69
8.38
8.94
9.23
9.24
9.08
8.94
8.95
9.18
9.59
10.05
10.45
10.75
11.00
11.38
12.04
13.10
14.55
16.27
18.12
19.99
21.92
24.13
26.92
30.52
34.99
40.11
45.46
50.51
54.82
58.09
60.18
61.08
60.91
59.96
58.70
57.72
57.47
57.94
58.52
58.06
55.15
48.70
38.33
24.57
8.62
-7.99
-23.97
-38.53
-51.41
-62.79
-72.98
-82.28
-90.82
-98.66
-105.85
-112.56
-119.04
-125.51
-132.06
-138.50
-144.38
-149.03
-151.77
-151.97
-149.21
-143.17
-133.68
-120.72
-104.45
-85.40
-64.49
-42.92
-21.96
-2.67
14.22
28.41
39.82
48.54
54.73
58.61
60.56
61.00
60.45
59.29
57.82
56.13
54.29
52.30
50.22
48.16
46.19
44.38
42.70
41.13
39.56
37.90
36.04
33.87
31.33
28.37
25.08
21.65
18.40
15.68
13.77
12.74
12.44
12.54
12.67
12.53
11.98
11.04
9.75
8.24
6.54
4.69
2.74
0.80
-0.92
-2.18
-2.79
-2.70
-2.10
-1.29
-0.62
-0.30
-0.39
-0.81
-1.48
-2.33
-3.38
-4.64
-6.07
-7.56
-8.99
-10.34
-11.70
-13.20
-14.95
-16.92
-18.91
-20.64
-21.82
-22.31
-22.11
-21.39
-20.48
-19.73
-19.53
-20.12
-21.53
-23.51
-25.61
-27.34
-28.37
-28.68
-28.55
-28.41
-28.66
-29.45
-30.62
-31.83
-32.66
-32.73
-31.89
-30.20
-27.89
-25.36
-23.03
-21.11
-19.61
-18.29
-16.59
-13.79
-9.06
-1.79
8.08
19.91
32.24
43.36
51.76
56.71
58.35
57.51
55.17
52.01
48.31
44.13
39.70
35.59
32.57
31.26
31.73
33.45
35.46
36.86
37.08
36.05
34.25
32.26
30.58
29.38
28.54
27.79
27.00
26.17
25.44
24.87
24.34
23.49
21.97
19.61
16.59
13.37
10.43
8.09
6.42
5.28
4.58
4.38
4.83
5.96
7.53
8.95
9.52
8.72
6.46
3.16
-0.54
-4.03
-6.96
-9.30
-11.11
-12.40
-12.99
-12.59
-11.00
-8.28
-4.81
-1.11
2.22
4.73
6.19
6.53
5.82
4.23
2.00
-0.63
-3.39
-6.05
-8.45
-10.53
-12.35
-14.08
-15.86
-17.70
-19.33
-20.14
-19.48
-16.83
-12.25
-6.35
-0.18
5.20
9.12
11.50
12.74
13.44
14.01
14.55
14.85
14.59
13.55
11.75
9.45
7.02
4.78
2.91
1.48
0.51
0.08
0.38
1.58
3.77
6.78
10.18
13.40
15.90
17.32
17.48
16.42
14.29
11.25
7.45
3.08
-1.65
-6.50
-11.21
-15.54
-19.43
-22.97
-26.32
-29.63
-32.86
-35.81
-38.14
-39.58
-40.07
-39.83
-39.26
-38.70
-38.30
-37.88
-37.08
-35.61
-33.39
-30.65
-27.82
-25.39
-23.65
-22.70
-22.42
-22.57
-22.88
-23.15
-23.31
-23.43
-23.68
-24.22
-25.11
-26.22
-27.30
-28.00
-28.09
-27.47
-26.32
-24.94
-23.68
-22.80
-22.33
-22.05
-21.60
-20.65
-19.05
-16.98
-14.96
-13.64
-13.53
-14.75
-16.96
-19.42
-21.20
-21.57
-20.25
-17.60
-14.54
-12.30
-11.95
-13.84
-17.44
-21.16
-22.63
-19.31
-9.21
8.22
31.57
57.58
81.87
100.33
110.51
112.32
107.87
100.27
92.31
85.32
79.02
72.20
63.70
53.22
41.40
29.46
18.43
8.66
-0.20
-8.94
-18.20
-28.07
-37.95
-46.78
-53.53
-57.58
-59.07
-58.88
-58.40
-59.09
-62.04
-67.64
-75.25
-83.34
-89.58
-91.48
-86.97
-75.32
-57.49
-36.25
-15.45
1.15
11.07
14.11
12.47
10.32
12.55
23.17
43.61
71.79
102.38
128.40
143.76
145.43
134.37
114.74
91.95
70.65
53.65
42.07
36.13
35.85
40.96
50.40
61.92
72.44
79.08
80.31
76.53
69.60
62.07
56.18
53.20
53.25
55.46
58.22
59.71
58.54
54.28
47.79
40.86
35.62
33.52
34.67
37.75
40.55
40.87
37.33
29.78
19.08
6.52
-6.76
-20.03
-32.86
-44.93
-55.71
-64.53
-70.78
-74.12
-74.81
-73.39
-70.42
-66.36
-61.35
-55.51
-48.83
-41.37
-33.27
-24.97
-16.96
-9.78
-3.89
0.50
3.34
4.87
5.48
5.49
4.85
3.48
1.48
-0.88
-3.24
-5.49
-7.59
-9.53
-11.21
-13.04
-14.97
-16.38
-16.55
-15.02
-12.33
-9.16
-6.06
-3.16
-1.74
-2.11
-3.54
-4.97
-5.62
-6.48
-8.76
-13.36
-20.75
-33.24
-51.85
-75.98
-104.13
-134.52
-167.20
-201.98
-237.98
-273.95
-311.19
-349.11
-384.33
-411.85
-426.96
-429.56
-421.79
-407.11
-371.94
-315.60
-249.72
-189.80
-149.43
-121.78
-100.75
-82.36
-64.42
-45.83
-28.22
-11.50
6.46
28.64
57.14
89.81
124.13
158.51
192.23
223.28
251.25
277.95
307.10
342.27
382.37
424.82
465.98
500.57
521.47
523.51
505.18
470.26
424.62
370.96
313.16
256.60
205.82
163.50
131.04
108.57
97.38
97.07
101.32
105.97
110.47
114.49
117.35
118.19
116.45
115.30
117.71
120.52
123.03
128.14
138.04
154.14
176.95
185.18
166.75
149.54
140.50
126.97
104.15
71.12
30.28
-14.29
-58.93
-98.57
-131.04
-161.15
-190.13
-213.68
-226.85
-226.49
-213.33
-192.58
-169.84
-151.53
-146.40
-157.08
-178.65
-202.84
-220.28
-223.24
-208.14
-175.25
-130.24
-84.37
-46.84
-21.25
-6.57
1.44
7.42
13.85
21.07
27.34
29.64
27.17
21.81
15.83
10.15
3.66
-6.15
-21.56
-43.52
-71.65
-103.97
-138.03
-172.05
-205.00
-235.97
-263.51
-285.57
-300.09
-305.86
-303.00
-292.57
-275.69
-252.67
-223.07
-186.70
-144.96
-101.45
-61.29
-29.31
-7.99
3.49
8.68
11.93
16.43
23.21
31.61
40.67
50.27
61.21
74.28
88.92
102.66
111.93
113.67
107.08
94.12
78.70
64.92
55.49
50.88
49.79
50.29
50.88
51.10
51.33
52.12
53.67
55.46
56.61
56.34
54.39
51.03
46.81
42.10
36.91
30.89
23.70
15.29
6.09
-3.07
-11.31
-17.97
-22.82
-26.08
-28.33
-30.38
-33.08
-37.13
-42.68
-49.15
-55.18
-58.96
-58.89
-54.21
-45.37
-33.84
-21.49
-9.91
0.14
8.73
16.35
23.40
29.88
35.41
39.53
42.06
43.24
43.65
43.95
44.61
45.79
47.39
49.17
50.92
52.44
53.43
53.41
51.74
47.85
41.39
32.43
21.36
8.69
-5.01
-19.08
-32.44
-43.60
-50.79
-52.67
-48.96
-40.70
-29.87
-18.43
-7.38
3.52
15.30
28.70
43.38
57.74
69.65
77.49
80.93
80.88
78.88
76.20
73.36
70.16
66.22
61.52
56.58
52.31
49.47
48.29
48.36
48.77
48.43
46.49
42.43
36.14
27.75
17.50
5.68
-7.30
-20.68
-33.34
-43.88
-50.99
-53.88
-52.64
-48.20
-42.00
-35.53
-29.91
-25.71
-23.11
-22.12
-22.70
-24.69
-27.66
-30.86
-33.47
-34.86
-34.97
-34.40
-34.13
-35.01
-37.26
-40.18
-42.26
-41.66
-36.85
-27.23
-13.34
3.20
20.20
35.61
48.09
57.39
64.34
70.58
78.06
88.38
102.34
119.62
138.92
158.37
176.21
191.28
203.34
212.76
220.04
225.18
227.32
224.95
216.37
200.36
176.65
146.20
110.91
73.30
35.93
0.90
-30.48
-57.92
-81.88
-103.26
-122.74
-140.39
-155.51
-166.82
-173.05
-173.35
-167.63
-156.54
-141.29
-123.47
-104.97
-87.87
-74.26
-65.81
-63.17
-65.68
-71.34
-77.29
-80.58
-79.08
-72.06
-60.44
-46.57
-33.35
-23.10
-16.43
-11.65
-5.17
7.22
28.52
59.02
95.82
133.58
166.30
189.11
199.54
197.68
185.48
165.72
141.25
114.57
87.82
62.78
40.76
22.39
7.48
-4.86
-15.76
-26.11
-36.15
-45.48
-53.34
-59.08
-62.48
-63.81
-63.67
-62.72
-61.50
-60.33
-59.40
-58.77
-58.41
-58.20
-58.00
-57.66
-57.13
-56.46
-55.86
-55.51
-55.46
-55.54
-55.47
-54.93
-53.78
-52.12
-50.23
-48.46
-47.10
-46.34
-46.26
-46.85
-47.99
-49.37
-50.47
-50.68
-49.47
-46.63
-42.36
-37.16
-31.61
-26.13
-20.94
-16.11
-11.70
-7.89
-4.91
-2.97
-2.07
-2.05
-2.62
-3.49
-4.49
-5.57
-6.73
-7.98
-9.30
-10.67
-12.09
-13.57
-15.14
-16.85
-18.66
-20.51
-22.34
-24.13
-25.91
-27.84
-30.02
-32.45
-34.91
-36.91
-37.91
-37.45
-35.42
-32.06
-27.87
-23.40
-19.01
-14.84
-10.86
-7.03
-3.42
-0.24
2.26
3.96
4.89
5.22
5.18
4.95
4.63
4.24
3.79
3.24
2.66
2.10
1.68
1.47
1.47
1.57
1.56
1.13
0.07
-1.76
-4.32
-7.39
-10.59
-13.37
-15.11
-15.21
-13.22
-9.06
-2.99
4.31
12.03
19.35
25.66
30.71
34.49
37.15
38.89
39.80
39.97
39.44
38.32
36.73
34.80
32.61
30.20
27.61
24.94
22.36
20.14
18.52
17.60
17.29
17.26
17.02
16.03
13.86
10.30
5.48
-0.22
-6.22
-11.83
-16.53
-19.97
-22.06
-22.91
-22.75
-21.86
-20.44
-18.62
-16.49
-14.16
-11.77
-9.47
-7.40
-5.60
-4.00
-2.47
-0.93
0.60
2.05
3.30
4.24
4.85
5.13
5.14
4.89
4.42
3.72
2.73
1.38
-0.43
-2.73
-5.47
-8.53
-11.74
-14.97
-18.05
-20.79
-22.90
-23.95
-23.54
-21.43
-17.73
-12.86
-7.41
-2.00
2.95
7.23
10.80
13.68
15.90
17.52
18.67
19.59
20.50
21.59
22.86
24.04
24.74
24.58
23.33
21.02
17.84
14.10
10.08
6.00
1.97
-1.98
-5.92
-9.97
-14.21
-18.64
-22.98
-26.74
-29.30
-30.08
-28.84
-25.80
-21.56
-16.88
-12.40
-8.45
-5.01
-1.92
1.00
3.75
6.22
8.28
9.91
11.20
12.34
13.40
14.41
15.25
15.78
15.94
15.70
15.09
14.13
12.79
11.09
9.08
6.89
4.67
2.51
0.39
-1.85
-4.37
-7.20
-10.13
-12.69
-14.34
-14.67
-13.56
-11.26
-8.18
-4.76
-1.26
2.22
5.68
8.97
11.81
13.79
14.62
14.30
13.24
12.05
11.30
11.28
11.80
12.36
12.37
11.46
9.65
7.31
4.90
2.86
1.33
0.28
-0.51
-1.35
-2.56
-4.45
-7.19
-10.70
-14.59
-18.13
-20.54
-21.16
-19.74
-16.49
-11.94
-6.80
-1.68
3.01
7.09
10.52
13.30
15.41
16.83
17.59
17.81
17.72
17.56
17.55
17.75
18.04
18.18
17.87
16.93
15.35
13.25
10.84
8.29
5.63
2.81
-0.34
-3.98
-8.20
-12.92
-17.87
-22.69
-26.90
-30.14
-32.07
-32.51
-31.46
-29.08
-25.71
-21.79
-17.82
-14.19
-11.19
-8.88
-7.17
-5.90
-4.87
-4.00
-3.26
-2.72
-2.43
-2.43
-2.68
-3.10
-3.48
-3.58
-3.15
-2.00
-0.12
2.32
4.98
7.41
9.12
9.75
9.11
7.23
4.41
1.13
-1.97
-4.25
-5.21
-4.63
-2.68
0.20
3.42
6.45
8.98
10.86
12.14
12.88
13.14
12.94
12.33
11.38
10.23
9.01
7.84
6.73
5.64
4.44
3.01
1.28
-0.70
-2.71
-4.52
-5.93
-6.97
-7.88
-8.98
-10.59
-12.85
-15.69
-18.87
-22.07
-24.97
-27.18
-28.33
-28.06
-26.17
-22.72
-18.08
-12.80
-7.43
-2.36
2.24
6.32
9.89
12.86
15.14
16.63
17.38
17.55
17.34
16.96
16.48
15.90
15.13
14.08
12.72
11.05
9.15
7.12
5.05
2.96
0.81
-1.49
-4.02
-6.87
-10.06
-13.49
-16.90
-19.83
-21.69
-21.88
-19.99
-16.01
-10.30
-3.59
3.34
9.80
15.33
19.71
22.87
24.87
25.78
25.77
25.06
23.95
22.71
21.53
20.49
19.48
18.34
16.87
14.99
12.78
10.46
8.32
6.55
5.19
4.05
2.85
1.31
-0.76
-3.41
-6.50
-9.80
-12.93
-15.46
-16.95
-17.07
-15.66
-12.89
-9.13
-4.96
-0.88
2.77
5.85
8.36
10.34
11.77
12.52
12.53
11.79
10.46
8.83
7.15
5.60
4.18
2.75
1.17
-0.67
-2.77
-5.13
-7.78
-10.76
-14.07
-17.62
-21.21
-24.61
-27.72
-30.64
-33.67
-37.13
-41.14
-45.41
-49.24
-51.75
-52.19
-50.33
-46.58
-41.80
-37.02
-32.98
-29.94
-27.63
-25.50
-22.98
-19.76
-15.79
-11.24
-6.33
-1.29
3.73
8.58
13.15
17.31
20.99
24.21
27.12
29.88
32.67
35.55
38.46
41.16
43.30
44.53
44.63
43.48
41.06
37.33
32.23
25.80
18.37
10.64
3.60
-1.80
-4.97
-5.89
-5.07
-3.24
-1.07
1.09
3.09
4.80
5.98
6.32
5.60
3.87
1.48
-1.02
-3.07
-4.32
-4.79
-4.81
-4.84
-5.37
-6.64
-8.65
-11.12
-13.57
-15.59
-16.92
-17.61
-17.95
-18.36
-19.28
-20.93
-23.27
-25.91
-28.20
-29.36
-28.72
-25.92
-21.01
-14.45
-6.89
0.96
8.50
15.37
21.32
26.17
29.77
32.02
33.00
32.98
32.46
31.92
31.70
31.78
31.86
31.43
29.99
27.31
23.51
19.04
14.54
10.59
7.45
5.02
2.88
0.44
-2.78
-7.00
-12.03
-17.36
-22.22
-25.78
-27.32
-26.41
-22.97
-17.43
-10.56
-3.31
3.45
9.25
14.04
18.13
21.89
25.47
28.75
31.34
32.88
33.22
32.49
31.03
29.19
27.14
24.86
22.12
18.74
14.69
10.18
5.60
1.34
-2.36
-5.55
-8.52
-11.72
-15.51
-20.10
-25.37
-30.89
-35.99
-39.86
-41.76
-41.19
-38.10
-32.85
-26.19
-19.01
-12.05
-5.75
-0.27
4.46
8.57
12.06
14.88
16.94
18.23
18.85
19.04
19.02
18.95
18.83
18.55
17.95
16.87
15.32
13.42
11.36
9.35
7.54
5.96
4.59
3.31
1.98
0.43
-1.53
-4.09
-7.35
-11.12
-14.89
-17.85
-19.19
-18.35
-15.37
-10.85
-5.75
-0.93
3.08
6.24
8.82
11.08
13.07
14.57
15.28
15.02
13.91
12.38
10.95
10.00
9.55
9.33
8.87
7.81
6.03
3.72
1.24
-1.08
-3.06
-4.75
-6.34
-8.01
-9.84
-11.81
-13.89
-16.10
-18.55
-21.32
-24.38
-27.37
-29.61
-30.26
-28.66
-24.61
-18.53
-11.37
-4.22
2.09
7.23
11.30
14.65
17.49
19.80
21.35
21.97
21.71
20.93
20.15
19.78
19.94
20.38
20.64
20.32
19.29
17.70
15.89
14.14
12.52
10.88
9.01
6.74
4.08
1.14
-1.92
-5.06
-8.33
-11.79
-15.38
-18.81
-21.54
-22.99
-22.72
-20.65
-17.10
-12.67
-8.06
-3.78
-0.11
2.94
5.42
7.36
8.73
9.39
9.29
8.48
7.16
5.64
4.28
3.35
2.94
2.94
3.01
2.78
2.00
0.60
-1.28
-3.34
-5.34
-7.15
-8.79
-10.39
-12.13
-14.24
-16.93
-20.35
-24.40
-28.67
-32.46
-34.95
-35.48
-33.77
-30.03
-24.86
-18.98
-13.03
-7.41
-2.25
2.41
6.56
10.09
12.91
14.97
16.39
17.40
18.28
19.16
19.98
20.46
20.24
19.04
16.81
13.75
10.27
6.85
3.90
1.57
-0.21
-1.72
-3.32
-5.32
-7.86
-11.03
-14.76
-18.89
-23.09
-26.80
-29.29
-29.89
-28.23
-24.41
-19.05
-13.01
-7.11
-1.85
2.69
6.60
10.04
12.95
15.19
16.60
17.15
17.08
16.76
16.51
16.47
16.52
16.37
15.73
14.44
12.53
10.20
7.66
5.12
2.70
0.50
-1.49
-3.35
-5.30
-7.66
-10.72
-14.64
-19.31
-24.29
-28.95
-32.59
-34.62
-34.75
-33.04
-29.81
-25.54
-20.73
-15.77
-10.90
-6.32
-2.20
1.28
3.92
5.67
6.57
6.75
6.41
5.67
4.63
3.29
1.70
-0.13
-2.16
-4.34
-6.51
-8.38
-9.54
-9.55
-8.19
-5.58
-2.26
1.06
3.69
5.31
5.95
5.90
5.53
5.15
4.94
4.95
5.23
5.75
6.41
7.00
7.23
6.78
5.45
3.19
0.12
-3.48
-7.28
-11.03
-14.60
-17.98
-21.28
-24.61
-28.04
-31.61
-35.31
-39.16
-43.22
-47.45
-51.73
-55.81
-59.39
-62.19
-64.16
-65.37
-66.03
-66.24
-66.05
-65.36
-64.12
-62.41
-60.45
-58.51
-56.82
-55.29
-53.53
-50.74
-46.01
-38.55
-28.09
-15.05
-0.56
13.91
26.90
37.39
44.92
49.55
51.55
51.24
48.96
45.16
40.58
36.12
32.63
30.57
29.70
29.27
28.20
25.66
21.23
15.05
7.55
-0.81
-9.73
-19.13
-28.99
-39.29
-49.99
-61.10
-72.72
-84.92
-97.50
-109.66
-120.08
-127.13
-129.45
-126.46
-118.66
-107.37
-94.27
-80.86
-68.12
-56.55
-46.30
-37.54
-30.41
-24.98
-20.92
-17.36
-12.98
-6.39
3.28
15.96
30.57
45.47
59.15
71.03
81.66
92.41
104.70
119.16
135.16
150.96
164.44
173.81
178.15
177.45
172.35
163.84
153.16
141.75
131.29
123.38
119.16
118.88
121.77
126.38
131.28
135.59
139.25
142.70
146.46
150.60
154.60
157.63
158.93
158.20
155.77
152.52
149.59
147.99
148.27
150.11
152.21
152.49
148.76
139.65
125.33
107.63
89.28
72.74
59.01
47.37
36.14
23.84
10.28
-3.24
-14.60
-21.98
-24.60
-22.89
-18.00
-11.29
-4.00
2.68
7.54
9.32
6.96
-0.07
-11.52
-26.34
-42.97
-59.59
-74.51
-86.48
-94.88
-99.77
-101.76
-101.70
-100.38
-98.32
-95.86
-93.19
-90.58
-88.28
-86.43
-84.97
-83.62
-82.06
-80.04
-77.56
-74.77
-71.89
-69.14
-66.71
-64.75
-63.32
-62.31
-61.32
-59.72
-56.86
-52.30
-46.09
-38.82
-31.40
-24.71
-19.32
-15.32
-12.39
-10.09
-8.04
-6.10
-4.32
-2.82
-1.69
-0.94
-0.48
-0.26
-0.28
-0.60
-1.37
-2.66
-4.45
-6.57
-8.79
-10.88
-12.78
-14.59
-16.51
-18.73
-21.33
-24.31
-27.59
-31.17
-35.13
-39.49
-44.10
-48.42
-51.67
-52.97
-51.80
-48.14
-42.58
-36.07
-29.61
-23.89
-19.19
-15.41
-12.29
-9.63
-7.37
-5.61
-4.44
-3.81
-3.55
-3.38
-3.14
-2.82
-2.62
-2.80
-3.56
-4.94
-6.68
-8.40
-9.69
-10.33
-10.36
-10.08
-9.96
-10.42
-11.78
-14.14
-17.31
-20.90
-24.20
-26.40
-26.70
-24.56
-19.97
-13.47
-6.10
1.00
6.92
11.27
14.18
16.13
17.63
18.96
20.15
21.04
21.46
21.44
21.19
20.98
21.00
21.18
21.21
20.66
19.26
16.95
13.99
10.81
7.80
5.18
2.90
0.73
-1.71
-4.81
-8.82
-13.81
-19.50
-25.36
-30.55
-34.18
-35.48
-34.02
-29.88
-23.61
-16.12
-8.45
-1.44
4.43
9.10
12.86
16.04
18.87
21.30
23.07
23.96
23.89
23.08
21.93
20.90
20.16
19.64
18.97
17.79
15.93
13.48
10.80
8.25
6.06
4.18
2.35
0.23
-2.50
-6.03
-10.35
-15.23
-20.15
-24.38
-27.05
-27.37
-24.97
-20.01
-13.24
-5.72
1.48
7.63
12.44
16.01
18.58
20.32
21.26
21.33
20.57
19.24
17.75
16.57
15.93
15.76
15.65
15.12
13.77
11.55
8.75
5.83
3.22
1.09
-0.68
-2.45
-4.57
-7.29
-10.70
-14.76
-19.33
-24.07
-28.44
-31.66
-32.87
-31.46
-27.39
-21.28
-14.28
-7.63
-2.21
1.67
4.18
5.67
6.37
6.30
5.36
3.60
1.30
-0.99
-2.73
-3.56
-3.52
-3.02
-2.64
-2.93
-4.14
-6.18
-8.67
-11.06
-12.98
-14.32
-15.31
-16.40
-18.09
-20.75
-24.49
-29.07
-34.00
-38.49
-41.68
-42.69
-40.92
-36.22
-29.02
-20.31
-11.31
-3.16
3.48
8.51
12.29
15.33
17.99
20.28
22.04
23.06
23.37
23.23
23.04
23.06
23.23
23.19
22.44
20.66
17.87
14.44
10.92
7.76
5.06
2.58
-0.17
-3.65
-8.20
-13.77
-20.04
-26.30
-31.65
-35.04
-35.57
-32.82
-26.98
-18.93
-10.02
-1.53
5.66
11.35
15.87
19.71
23.19
26.17
28.24
28.99
28.35
26.64
24.49
22.46
20.89
19.65
18.39
16.70
14.38
11.53
8.45
5.51
2.89
0.58
-1.69
-4.25
-7.41
-11.40
-16.27
-21.84
-27.66
-32.99
-36.83
-38.16
-36.28
-31.02
-22.97
-13.26
-3.24
5.98
13.81
20.17
25.32
29.50
32.74
34.81
35.46
34.60
32.45
29.57
26.59
24.05
22.16
20.77
19.47
17.79
15.40
12.26
8.60
4.78
1.10
-2.34
-5.65
-9.09
-12.93
-17.30
-22.26
-27.67
-33.24
-38.42
-42.37
-44.07
-42.61
-37.61
-29.43
-19.29
-8.81
0.49
7.75
12.90
16.54
19.40
21.92
24.09
25.58
26.09
25.67
24.68
23.68
23.08
22.91
22.84
22.34
20.97
18.57
15.30
11.50
7.64
4.05
0.93
-1.74
-4.19
-6.79
-9.96
-14.07
-19.34
-25.68
-32.62
-39.24
-44.31
-46.51
-44.93
-39.44
-30.85
-20.78
-11.00
-2.91
3.03
7.18
10.37
13.31
16.26
18.95
20.91
21.81
21.69
20.88
19.86
19.01
18.51
18.31
18.15
17.74
16.79
15.19
12.99
10.37
7.56
4.68
1.74
-1.35
-4.68
-8.20
-11.83
-15.54
-19.36
-23.34
-27.36
-30.98
-33.40
-33.71
-31.24
-25.91
-18.31
-9.48
-0.64
7.28
13.76
18.73
22.32
24.69
25.95
26.11
25.31
23.83
22.12
20.63
19.61
19.02
18.46
17.41
15.41
12.33
8.47
4.40
0.72
-2.27
-4.69
-6.98
-9.72
-13.33
-17.92
-23.35
-29.29
-35.29
-40.74
-44.84
-46.67
-45.45
-40.95
-33.64
-24.69
-15.53
-7.36
-0.82
4.15
7.99
11.18
13.93
16.13
17.56
18.09
17.89
17.36
16.95
16.87
16.98
16.86
16.01
14.11
11.26
7.88
4.54
1.68
-0.60
-2.54
-4.61
-7.25
-10.79
-15.32
-20.70
-26.53
-32.12
-36.53
-38.70
-37.78
-33.41
-25.98
-16.59
-6.68
2.43
9.93
15.71
20.11
23.62
26.47
28.58
29.70
29.61
28.41
26.51
24.48
22.79
21.61
20.78
19.86
18.43
16.27
13.47
10.39
7.46
4.93
2.78
0.73
-1.67
-4.86
-9.11
-14.43
-20.49
-26.63
-31.85
-35.09
-35.44
-32.44
-26.28
-17.75
-7.99
1.84
10.85
18.54
24.76
29.52
32.95
35.08
35.96
35.69
34.49
32.69
30.72
28.92
27.44
26.15
24.73
22.75
19.99
16.46
12.51
8.61
5.15
2.29
-0.12
-2.49
-5.30
-9.01
-13.86
-19.77
-26.20
-32.15
-36.40
-37.77
-35.59
-30.04
-22.08
-13.24
-4.94
1.90
7.11
11.11
14.45
17.39
19.80
21.24
21.34
20.13
18.08
15.90
14.26
13.45
13.29
13.26
12.72
11.24
8.73
5.51
2.05
-1.20
-4.04
-6.61
-9.25
-12.35
-16.16
-20.73
-25.80
-30.90
-35.30
-38.10
-38.33
-35.24
-28.61
-18.93
-7.34
4.70
15.92
25.54
33.42
39.86
45.14
49.26
51.87
52.46
50.78
47.11
42.25
37.25
32.94
29.61
26.89
24.13
20.76
16.71
12.44
8.61
5.68
3.48
1.27
-2.00
-7.23
-14.77
-24.34
-35.09
-45.88
-55.47
-62.73
-66.77
-67.08
-63.64
-57.05
-48.40
-39.01
-30.11
-22.46
-16.28
-11.35
-7.32
-3.97
-1.33
0.46
1.34
1.53
1.55
1.99
3.25
5.30
7.67
9.67
10.71
10.60
9.55
8.03
6.39
4.68
2.57
-0.41
-4.62
-10.10
-16.51
-23.09
-28.82
-32.54
-33.19
-30.15
-23.50
-14.18
-3.75
6.07
13.99
19.54
23.03
25.18
26.63
27.60
27.90
27.25
25.60
23.26
20.85
18.89
17.56
16.57
15.32
13.23
10.04
5.92
1.39
-3.02
-6.97
-10.49
-13.89
-17.59
-22.00
-27.32
-33.46
-39.94
-45.86
-50.00
-51.10
-48.34
-41.68
-32.01
-20.89
-10.00
-0.58
6.92
12.71
17.31
21.12
24.16
26.15
26.81
26.17
24.64
22.87
21.37
20.25
19.17
17.52
14.82
11.03
6.62
2.35
-1.16
-3.73
-5.77
-8.12
-11.60
-16.74
-23.56
-31.66
-40.36
-48.78
-55.92
-60.68
-62.11
-59.71
-53.68
-45.11
-35.64
-26.92
-20.05
-15.27
-12.15
-10.07
-8.79
-8.58
-9.99
-13.23
-17.67
-21.81
-23.70
-21.74
-15.39
-5.43
6.38
18.00
27.87
35.34
40.50
43.83
45.72
46.20
45.06
42.10
37.35
31.10
23.81
15.97
8.19
1.28
-3.82
-6.18
-5.24
-1.12
5.37
12.93
20.29
26.58
31.49
35.17
37.90
39.84
41.00
41.31
40.86
39.97
39.15
38.86
39.29
40.25
41.14
41.30
40.26
38.01
35.00
31.93
29.41
27.65
26.33
24.79
22.28
18.26
12.55
5.34
-2.81
-10.97
-17.96
-22.56
-23.77
-21.27
-15.54
-7.85
0.17
7.06
12.04
15.06
16.65
17.45
17.82
17.73
16.96
15.35
13.07
10.54
8.27
6.55
5.30
4.13
2.52
0.16
-2.89
-6.21
-9.19
-11.34
-12.50
-12.95
-13.30
-14.25
-16.36
-19.90
-24.78
-30.55
-36.42
-41.31
-44.02
-43.50
-39.19
-31.35
-21.01
-9.74
0.90
9.80
16.56
21.34
24.51
26.32
26.81
25.97
23.92
21.11
18.18
15.73
13.98
12.71
11.37
9.37
6.42
2.69
-1.34
-5.04
-8.00
-10.15
-11.85
-13.68
-16.26
-20.04
-25.15
-31.30
-37.72
-43.17
-46.27
-45.78
-41.14
-32.71
-21.78
-10.14
0.53
9.17
15.58
20.22
23.75
26.56
28.64
29.67
29.38
27.85
25.59
23.28
21.45
20.23
19.30
18.09
16.13
13.29
9.86
6.33
3.14
0.44
-2.04
-4.78
-8.35
-13.12
-19.23
-26.42
-34.02
-40.95
-45.84
-47.39
-44.77
-38.08
-28.37
-17.37
-6.81
2.11
8.98
14.11
17.99
20.95
22.94
23.78
23.38
22.04
20.34
18.88
17.98
17.48
16.83
15.41
12.85
9.22
5.01
0.86
-2.79
-5.83
-8.58
-11.61
-15.45
-20.38
-26.32
-32.74
-38.73
-43.11
-44.68
-42.61
-36.74
-27.75
-17.03
-6.21
3.35
10.94
16.49
20.46
23.29
25.21
26.24
26.33
25.57
24.24
22.74
21.31
19.98
18.49
16.48
13.74
10.31
6.57
3.00
-0.03
-2.49
-4.69
-7.20
-10.56
-15.09
-20.74
-26.97
-32.84
-37.17
-38.83
-37.11
-32.01
-24.28
-15.21
-6.24
1.48
7.37
11.36
13.65
14.53
14.21
12.90
10.98
8.96
7.43
6.72
6.82
7.30
7.50
6.88
5.24
2.79
0.02
-2.59
-4.83
-6.83
-9.05
-12.05
-16.24
-21.71
-28.04
-34.31
-39.21
-41.40
-39.89
-34.49
-25.92
-15.64
-5.36
3.55
10.39
15.18
18.38
20.51
21.85
22.50
22.48
21.89
20.96
19.98
19.05
18.06
16.68
14.59
11.67
8.15
4.61
1.67
-0.28
-1.33
-2.04
-3.28
-5.80
-10.04
-15.86
-22.52
-28.82
-33.37
-34.95
-32.86
-27.15
-18.66
-8.77
1.08
9.87
17.24
23.39
28.75
33.57
37.74
40.95
42.98
44.06
44.86
46.20
48.66
52.25
56.39
60.31
63.53
66.17
68.95
72.87
78.61
86.26
95.12
104.07
111.90
117.75
121.32
122.97
123.69
124.88
128.00
134.08
143.16
154.03
164.38
171.41
172.68
166.85
153.98
135.19
112.08
86.04
58.03
28.65
-1.45
-31.25
-59.26
-83.84
-103.69
-118.32
-128.31
-135.06
-140.29
-145.44
-151.16
-157.21
-162.75
-166.72
-168.37
-167.62
-164.95
-161.20
-157.11
-152.98
-148.57
-143.39
-137.02
-129.56
-121.82
-115.06
-110.50
-108.84
-109.92
-112.80
-116.18
-118.91
-120.38
-120.70
-120.40
-120.07
-119.87
-119.34
-117.39
-112.70
-104.20
-91.53
-75.24
-56.62
-37.43
-19.45
-4.08
7.87
16.20
21.37
24.33
26.42
29.16
33.89
41.41
51.74
64.06
77.05
89.39
100.11
108.61
114.52
117.30
116.27
110.86
101.08
87.88
73.01
58.58
46.27
36.80
29.86
24.37
19.11
13.21
6.47
-0.59
-6.88
-10.95
-11.34
-7.00
2.28
15.65
31.12
45.94
57.18
62.55
61.06
53.44
41.73
28.67
16.76
7.56
1.64
-1.12
-1.03
1.69
6.82
13.78
21.47
28.38
33.03
34.61
33.28
29.94
25.81
21.84
18.41
15.40
12.49
9.51
6.56
3.88
1.70
0.02
-1.31
-2.45
-3.42
-4.08
-4.27
-3.99
-3.52
-3.31
-3.80
-5.14
-7.19
-9.56
-11.90
-13.98
-15.75
-17.23
-18.35
-19.03
-19.23
-19.09
-18.92
-19.12
-19.88
-21.15
-22.56
-23.63
-24.01
-23.56
-22.44
-20.96
-19.45
-18.08
-16.85
-15.65
-14.33
-12.87
-11.36
-10.00
-8.99
-8.40
-8.12
-7.89
-7.40
-6.43
-4.98
-3.26
-1.62
-0.44
0.09
-0.04
-0.68
-1.56
-2.44
-3.17
-3.71
-4.08
-4.39
-4.73
-5.20
-5.80
-6.39
-6.77
-6.70
-6.06
-4.88
-3.35
-1.74
-0.30
0.82
1.51
1.70
1.31
0.32
-1.16
-2.87
-4.47
-5.81
-7.03
-8.48
-10.51
-13.17
-16.13
-18.81
-20.70
-21.58
-21.65
-21.29
-20.93
-20.84
-21.10
-21.81
-23.05
-24.88
-27.20
-29.69
-31.89
-33.46
-34.20
-34.19
-33.59
-32.60
-31.31
-29.82
-28.19
-26.46
-24.59
-22.37
-19.56
-16.12
-12.49
-9.63
-8.65
-10.28
-14.49
-20.49
-27.22
-34.02
-40.87
-48.18
-56.06
-63.66
-69.16
-70.51
-66.54
-57.81
-46.56
-35.76
-27.71
-23.11
-20.97
-19.40
-16.73
-12.32
-6.61
-0.61
4.87
9.68
14.35
19.62
25.89
32.92
39.85
45.64
49.57
51.66
52.65
53.64
55.55
58.62
62.32
65.58
67.35
67.09
65.00
61.88
58.74
56.33
54.87
54.08
53.41
52.33
50.54
47.97
44.53
40.06
34.45
27.97
21.45
16.06
12.66
10.95
9.40
5.74
-1.75
-13.08
-26.44
-39.06
-48.74
-54.85
-58.26
-60.07
-60.16
-56.55
-46.23
-26.76
2.15
38.23
77.41
115.15
147.54
171.52
184.77
185.59
173.20
148.54
114.63
76.22
38.64
6.46
-17.51
-32.24
-37.83
-34.93
-24.47
-8.21
10.86
28.49
40.15
42.55
34.90
19.29
-0.13
-18.78
-33.41
-42.97
-48.49
-52.04
-55.43
-59.30
-62.92
-64.82
-63.57
-58.68
-50.80
-41.62
-33.08
-26.62
-22.57
-20.01
-17.24
-12.66
-5.61
3.15
11.60
17.26
18.22
13.83
4.88
-6.88
-19.57
-31.78
-42.74
-52.21
-59.94
-65.37
-67.66
-66.01
-60.20
-50.84
-39.34
-27.48
-16.83
-8.24
-1.61
3.91
9.53
16.25
24.41
33.48
42.31
49.61
54.44
56.60
56.48
54.69
51.44
46.39
38.94
28.76
16.50
3.84
-7.02
-14.31
-17.53
-17.67
-16.80
-17.03
-19.65
-24.73
-31.37
-38.34
-44.63
-49.74
-53.57
-56.10
-57.20
-56.70
-54.49
-50.75
-46.07
-41.28
-37.27
-34.63
-33.47
-33.38
-33.64
-33.46
-32.32
-30.12
-27.05
-23.40
-19.37
-14.93
-9.97
-4.47
1.39
7.10
12.10
15.87
18.14
19.04
18.91
18.26
17.50
16.86
16.27
15.50
14.29
12.56
10.51
8.60
7.34
7.07
7.81
9.29
11.04
12.56
13.50
13.66
13.06
11.80
10.06
8.09
6.12
4.35
2.85
1.61
0.56
-0.29
-0.75
-0.53
0.65
2.76
5.35
7.63
8.79
8.41
6.69
4.45
2.68
2.16
3.03
4.83
6.75
8.05
8.28
7.49
5.97
4.15
2.45
1.15
0.48
0.51
1.31
2.75
4.68
6.87
9.08
11.14
12.88
14.20
14.95
15.07
14.54
13.43
11.86
9.97
7.95
5.99
4.33
3.23
2.92
3.42
4.53
5.82
6.74
6.92
6.27
5.06
3.70
2.60
1.88
1.41
0.91
0.17
-0.79
-1.77
-2.50
-2.86
-2.89
-2.78
-2.67
-2.56
-2.36
-1.93
-1.25
-0.46
0.24
0.62
0.61
0.22
-0.47
-1.33
-2.29
-3.20
-3.89
-4.14
-3.78
-2.74
-1.08
1.04
3.44
5.92
8.32
10.42
11.99
12.83
12.80
11.92
10.38
8.50
6.61
4.98
3.70
2.69
1.77
0.77
-0.40
-1.62
-2.65
-3.28
-3.33
-2.88
-2.11
-1.32
-0.80
-0.71
-1.05
-1.64
-2.07
-1.89
-0.70
1.60
4.73
8.10
11.03
13.04
14.05
14.38
14.54
14.95
15.75
16.71
17.41
17.47
16.73
15.34
13.67
12.12
10.97
10.23
9.68
9.03
8.05
6.71
5.15
3.57
2.07
0.62
-0.97
-2.87
-5.17
-7.76
-10.40
-12.91
-15.19
-17.26
-19.15
-20.81
-22.01
-22.50
-22.08
-20.81
-18.99
-17.01
-15.23
-13.76
-12.46
-11.10
-9.49
-7.73
-6.19
-5.42
-5.86
-7.61
-10.26
-13.02
-15.08
-15.91
-15.42
-13.95
-12.00
-10.01
-8.22
-6.69
-5.50
-4.74
-4.57
-5.01
-5.93
-7.07
-8.07
-8.77
-9.11
-9.21
-9.21
-9.17
-8.99
-8.45
-7.31
-5.47
-3.07
-0.43
2.00
3.91
5.20
5.99
6.46
6.75
6.82
6.50
5.61
4.10
2.17
0.17
-1.45
-2.34
-2.35
-1.60
-0.50
0.45
0.82
0.43
-0.63
-2.02
-3.39
-4.44
-5.07
-5.32
-5.31
-5.22
-5.24
-5.59
-6.41
-7.68
-9.21
-10.63
-11.56
-11.82
-11.56
-11.21
-11.30
-12.12
-13.57
-15.14
-16.16
-16.18
-15.15
-13.51
-11.95
-11.12
-11.37
-12.59
-14.34
-16.07
-17.38
-18.12
-18.42
-18.52
-18.67
-18.96
-19.42
-20.00
-20.63
-21.31
-21.99
-22.70
-23.49
-24.53
-26.07
-28.28
-30.97
-33.34
-34.03
-31.49
-24.67
-13.59
0.37
14.95
27.75
37.16
42.76
45.28
45.99
46.08
46.23
46.58
47.01
47.44
47.87
48.37
48.90
49.23
49.11
48.37
47.11
45.62
44.35
43.59
43.35
43.28
42.81
41.36
38.64
34.75
30.24
25.83
22.21
19.78
18.50
17.98
17.67
17.12
16.10
14.66
13.00
11.34
9.77
8.31
6.99
5.84
5.01
4.60
4.59
4.80
4.93
4.74
4.15
3.29
2.44
1.86
1.73
1.97
2.40
2.75
2.78
2.35
1.51
0.47
-0.40
-0.67
0.01
1.75
4.33
7.25
9.86
11.65
12.46
12.58
12.56
12.93
13.88
15.07
15.86
15.59
13.87
10.84
6.97
2.93
-0.71
-3.46
-4.85
-4.47
-2.13
1.78
6.05
8.84
8.28
3.36
-5.52
-16.63
-27.72
-37.02
-44.08
-49.67
-55.10
-61.36
-68.45
-75.49
-81.37
-85.39
-87.68
-88.99
-90.17
-91.69
-93.39
-94.66
-94.79
-93.30
-90.06
-85.25
-79.18
-72.13
-64.17
-55.30
-45.52
-35.01
-24.19
-13.67
-3.99
4.60
12.27
19.49
26.74
34.19
41.52
48.11
53.37
57.14
59.82
62.21
65.13
69.05
73.97
79.47
85.02
90.11
94.48
97.96
100.43
101.72
101.63
100.02
96.94
92.69
87.71
82.57
77.71
73.40
69.68
66.30
62.92
59.15
54.81
49.96
44.93
40.25
36.39
33.62
31.84
30.58
29.06
26.36
21.63
14.30
4.28
-7.95
-21.27
-34.15
-45.01
-52.69
-56.83
-58.00
-57.47
-56.71
-56.85
-58.28
-60.63
-62.98
-64.33
-63.95
-61.65
-57.69
-52.61
-47.05
-41.54
-36.46
-31.99
-28.17
-24.88
-21.86
-18.82
-15.56
-12.04
-8.40
-4.93
-1.77
1.14
4.10
7.57
11.99
17.47
23.79
30.31
36.19
40.57
42.78
42.50
39.84
35.32
29.70
23.87
18.56
14.13
10.56
7.44
4.34
0.91
-2.88
-6.82
-10.58
-13.87
-16.57
-18.68
-20.33
-21.65
-22.76
-23.74
-24.70
-25.63
-26.45
-26.99
-27.06
-26.55
-25.51
-24.12
-22.68
-21.50
-20.79
-20.64
-20.96
-21.51
-21.94
-21.89
-21.09
-19.44
-17.06
-14.21
-11.13
-7.99
-4.85
-1.74
1.20
3.73
5.59
6.64
7.00
6.94
6.86
7.00
7.42
7.94
8.36
8.53
8.45
8.27
8.08
7.96
7.85
7.59
7.04
6.13
4.91
3.50
2.14
1.04
0.32
-0.00
-0.07
-0.11
-0.27
-0.61
-1.08
-1.52
-1.81
-1.91
-1.87
-1.81
-1.90
-2.22
-2.77
-3.48
-4.19
-4.74
-5.01
-4.89
-4.36
-3.40
-2.04
-0.39
1.40
3.10
4.48
5.39
5.78
5.75
5.53
5.33
5.30
5.47
5.78
6.14
6.48
6.74
6.90
6.87
6.57
5.92
4.94
3.77
2.65
1.80
1.37
1.28
1.32
1.20
0.78
0.12
-0.53
-0.89
-0.73
-0.10
0.82
1.74
2.41
2.72
2.70
2.55
2.49
2.69
3.27
4.21
5.39
6.66
7.85
8.83
9.59
10.13
10.48
10.64
10.54
10.10
9.31
8.26
7.13
6.07
5.18
4.37
3.39
2.05
0.23
-1.89
-3.96
-5.61
-6.61
-7.03
-7.14
-7.32
-7.85
-8.83
-10.15
-11.53
-12.68
-13.34
-13.38
-12.79
-11.63
-10.06
-8.30
-6.66
-5.64
-5.73
-7.27
-10.19
-13.91
-17.39
-19.60
-19.78
-17.76
-13.98
-9.23
-4.36
-0.09
3.09
4.89
5.30
4.60
3.40
2.53
2.71
4.38
7.41
11.14
14.45
16.05
14.92
10.62
3.64
-4.72
-12.80
-19.16
-23.04
-24.45
-23.89
-21.91
-18.73
-14.27
-8.33
-0.94
7.42
15.81
23.01
27.78
29.27
27.25
22.28
15.58
8.58
2.48
-2.13
-5.26
-7.22
-8.14
-7.81
-5.79
-1.91
3.44
9.30
14.47
17.97
19.37
18.77
16.56
13.16
8.85
3.83
-1.64
-7.18
-12.26
-16.35
-19.08
-20.27
-20.03
-18.58
-16.31
-13.71
-11.33
-9.67
-9.02
-9.30
-10.11
-10.81
-10.82
-9.82
-7.91
-5.58
-3.44
-2.04
-1.60
-1.94
-2.61
-3.10
-3.00
-2.13
-0.53
1.66
4.18
6.75
9.04
10.72
11.56
11.51
10.76
9.68
8.61
7.77
7.16
6.59
5.82
4.62
2.95
0.90
-1.29
-3.33
-4.94
-5.88
-6.04
-5.45
-4.25
-2.74
-1.27
-0.14
0.47
0.58
0.42
0.35
0.69
1.66
3.22
5.16
7.16
8.95
10.42
11.55
12.43
13.11
13.63
13.94
14.03
13.90
13.61
13.24
12.85
12.40
11.82
11.02
10.05
9.07
8.28
7.88
7.87
8.11
8.37
8.39
8.05
7.36
6.44
5.40
4.32
3.19
1.90
0.32
-1.64
-4.01
-6.70
-9.50
-12.09
-14.17
-15.52
-16.11
-16.03
-15.50
-14.70
-13.75
-12.67
-11.47
-10.17
-8.83
-7.50
-6.14
-4.62
-2.85
-0.83
1.20
2.85
3.75
3.75
3.07
2.18
1.58
1.51
1.84
2.16
2.01
1.22
-0.12
-1.67
-3.13
-4.35
-5.45
-6.68
-8.33
-10.54
-13.34
-16.68
-20.40
-24.28
-27.96
-31.04
-33.10
-33.89
-33.38
-31.82
-29.60
-27.04
-24.44
-21.91
-19.48
-17.11
-14.69
-12.03
-8.93
-5.23
-1.06
3.15
6.65
8.74
9.09
7.98
6.32
5.31
5.95
8.65
13.04
18.11
22.57
25.29
25.56
23.15
18.18
10.92
1.78
-8.74
-19.86
-30.65
-40.11
-47.61
-53.23
-57.79
-62.52
-68.41
-75.61
-83.21
-89.53
-92.89
-92.35
-88.12
-81.47
-74.15
-67.91
-64.00
-62.99
-64.70
-68.17
-71.94
-74.46
-74.56
-71.75
-66.26
-58.54
-48.62
-35.67
-18.25
4.89
33.78
67.01
102.01
135.97
166.50
192.22
212.75
228.32
239.37
245.99
248.26
246.46
240.69
230.50
214.77
192.16
161.87
124.36
81.46
36.91
-4.06
-36.36
-56.73
-64.78
-62.98
-55.70
-47.87
-44.19
-47.23
-56.70
-70.08
-83.99
-95.15
-101.13
-100.62
-90.24
-70.59
-47.16
-26.82
-13.33
-6.57
-4.37
-4.09
-3.29
-0.25
4.94
10.94
16.18
18.25
14.71
4.27
-12.11
-31.05
-48.17
-60.11
-65.33
-64.08
-58.08
-49.97
-42.04
-37.47
-39.73
-51.83
-75.30
-108.08
-143.63
-172.33
-184.89
-176.24
-148.01
-107.91
-66.56
-33.30
-12.84
-4.30
-3.28
-4.83
-5.78
-5.39
-4.33
-3.35
-2.44
-0.92
2.05
6.64
12.01
16.70
19.42
19.83
18.76
17.74
18.16
20.50
23.84
26.23
25.67
21.13
13.29
4.37
-2.73
-5.64
-3.56
2.54
10.41
17.56
22.24
23.98
23.45
22.01
20.91
20.92
22.14
24.23
26.58
28.65
29.97
30.18
29.05
26.44
22.28
16.61
9.51
1.18
-8.07
-17.74
-27.25
-35.99
-43.41
-49.16
-53.12
-55.43
-56.51
-56.89
-57.19
-57.80
-58.71
-59.43
-59.10
-56.80
-51.95
-44.68
-35.84
-26.80
-18.99
-13.48
-10.74
-10.63
-12.55
-15.80
-19.74
-23.99
-28.36
-32.75
-36.94
-40.48
-42.78
-43.18
-41.17
-36.63
-29.99
-22.30
-15.10
-10.22
-9.22
-13.01
-21.58
-34.04
-49.07
-65.36
-82.08
-98.80
-115.30
-131.18
-145.73
-158.08
-167.43
-173.25
-175.22
-173.04
-166.21
-154.00
-135.51
-109.86
-76.35
-34.54
15.50
72.83
135.28
199.45
261.03
315.72
360.22
392.74
413.05
421.95
420.68
410.40
392.12
367.06
337.11
305.26
275.23
250.57
233.42
223.47
217.81
211.83
200.88
182.08
155.18
122.40
87.12
52.40
19.96
-9.92
-37.71
-63.85
-88.23
-110.32
-129.48
-145.21
-157.12
-164.65
-166.68
-161.71
-148.37
-126.25
-96.40
-61.26
-24.01
12.33
45.59
74.76
99.73
120.90
138.76
153.65
165.62
174.46
179.80
181.37
179.31
174.41
168.03
161.62
156.13
151.65
147.41
142.37
135.75
127.41
117.71
107.13
95.92
83.91
70.83
56.53
41.23
25.44
9.70
-5.67
-20.63
-35.24
-49.39
-62.64
-74.29
-83.64
-90.35
-94.64
-97.28
-99.27
-101.52
-104.49
-108.00
-111.47
-114.15
-115.48
-115.29
-113.85
-111.73
-109.57
-107.91
-106.95
-106.48
-105.87
-104.24
-100.67
-94.55
-85.80
-74.90
-62.82
-50.74
-39.72
-30.57
-23.63
-18.89
-16.01
-14.44
-13.62
-13.04
-12.49
-12.15
-12.49
-14.20
-17.87
-23.71
-31.30
-39.63
-47.21
-52.58
-54.77
-53.61
-49.77
-44.45
-38.93
-34.19
-30.75
-28.83
-28.63
-30.49
-34.84
-41.95
-51.60
-63.02
-75.03
-86.32
-95.75
-102.33
-105.21
-103.80
-97.89
-88.04
-75.65
-62.68
-51.17
-42.67
-37.95
-37.10
-39.92
-46.09
-55.25
-66.66
-79.02
-90.42
-98.84
-102.70
-101.39
-95.45
-86.36
-76.12
-66.69
-59.41
-54.57
-51.51
-48.91
-45.63
-41.23
-36.32
-32.09
-29.56
-28.80
-28.72
-27.50
-23.55
-16.31
-6.46
4.55
15.40
25.64
35.73
46.49
58.41
71.11
83.52
94.45
103.38
110.74
117.63
125.08
133.33
141.58
148.43
152.55
153.18
150.30
144.43
136.56
128.18
121.17
117.27
117.33
120.46
124.01
124.46
119.16
107.93
93.50
80.49
73.34
74.24
82.39
94.71
107.47
118.00
125.25
129.27
130.16
127.18
118.77
103.23
79.94
49.95
15.96
-18.67
-51.11
-79.95
-105.27
-128.06
-149.04
-168.27
-185.15
-198.71
-208.02
-212.74
-213.44
-211.53
-208.85
-206.63
-205.41
-205.03
-204.84
-204.02
-201.93
-198.46
-194.12
-189.77
-185.67
-182.12
-179.50
-177.88
-176.24
-172.12
-162.11
-142.93
-112.70
-69.99
-16.98
40.31
93.94
137.53
168.49
188.10
199.96
207.93
218.81
235.71
256.81
276.98
292.05
301.13
305.80
308.17
309.44
316.35
332.16
354.67
377.38
394.39
403.10
403.37
396.22
383.49
377.01
386.04
413.01
452.53
496.71
539.06
575.24
602.89
565.86
440.98
250.45
47.97
-123.28
-248.97
-334.23
-390.07
-425.99
-448.12
-448.74
-426.49
-385.70
-336.97
-290.74
-253.07
-225.87
-208.49
-198.83
-187.07
-169.47
-145.75
-120.66
-99.41
-84.51
-76.00
-72.74
-73.38
-72.80
-68.54
-61.44
-55.73
-55.34
-61.51
-73.36
-89.38
-108.43
-127.94
-146.52
-163.35
-178.46
-191.14
-199.45
-200.95
-193.65
-176.63
-149.57
-113.95
-72.77
-30.57
7.89
38.99
60.97
74.07
80.02
81.26
80.05
78.11
76.34
75.02
74.01
72.86
70.93
67.51
61.99
54.14
44.25
33.07
21.56
10.53
0.47
-8.54
-16.74
-24.49
-32.16
-40.03
-48.20
-56.65
-65.16
-73.49
-81.37
-88.57
-94.89
-100.03
-103.64
-105.26
-104.57
-101.49
-96.35
-89.82
-82.71
-75.76
-69.32
-63.39
-57.69
-52.03
-46.54
-41.71
-38.16
-36.26
-35.79
-35.92
-35.54
-33.89
-30.91
-27.31
-24.23
-22.60
-22.79
-24.37
-26.46
-28.10
-28.63
-27.74
-25.45
-21.97
-17.68
-13.15
-9.13
-6.48
-5.88
-7.55
-10.99
-15.02
-17.90
-17.91
-13.78
-5.18
7.15
21.67
36.55
50.24
61.95
71.73
80.31
88.63
97.50
107.14
117.24
126.95
135.27
141.34
144.79
145.85
145.13
143.34
140.79
137.25
132.06
124.47
114.12
101.24
86.68
71.49
56.63
42.62
29.59
17.34
5.61
-5.82
-16.97
-27.74
-37.87
-46.99
-54.74
-60.85
-65.31
-68.41
-70.67
-72.75
-75.29
-78.73
-83.23
-88.54
-93.98
-98.64
-101.59
-102.32
-101.03
-98.63
-96.57
-96.19
-98.20
-102.37
-107.59
-112.36
-115.37
-116.03
-114.56
-111.83
-108.94
-106.82
-105.96
-106.35
-107.54
-108.81
-109.27
-108.02
-104.21
-97.24
-86.87
-73.45
-58.00
-42.05
-27.25
-14.81
-5.18
2.21
8.60
15.34
23.19
32.01
40.73
47.89
52.27
53.30
51.21
46.70
40.55
33.35
25.47
17.13
8.73
0.80
-6.02
-11.21
-14.60
-16.40
-17.15
-17.43
-17.67
-17.95
-18.07
-17.69
-16.62
-14.98
-13.10
-11.35
-9.84
-8.25
-5.91
-2.06
3.81
11.75
21.32
31.85
42.84
54.13
65.98
78.93
93.45
109.71
127.38
145.53
162.46
175.78
182.70
180.95
169.82
151.08
128.91
108.83
95.81
92.53
98.39
110.06
122.85
132.42
135.86
131.97
120.83
103.36
81.09
56.04
30.59
7.07
-12.87
-28.65
-40.76
-50.27
-58.29
-65.62
-72.93
-81.03
-91.03
-103.89
-119.62
-136.79
-152.71
-164.44
-170.07
-169.50
-164.43
-157.41
-150.67
-145.30
-141.15
-137.33
-133.12
-128.47
-124.04
-120.52
-117.70
-114.01
-106.71
-93.14
-72.23
-45.28
-15.52
13.41
39.14
61.19
80.25
96.78
110.25
119.66
125.07
128.52
133.38
142.22
154.61
166.56
172.34
167.59
151.80
128.60
103.72
82.16
66.24
55.50
48.21
43.00
39.70
39.10
41.97
48.29
57.04
66.23
73.26
75.20
69.51
55.02
32.73
5.98
-20.64
-43.04
-59.22
-69.80
-77.14
-83.70
-90.67
-97.66
-103.45
-107.14
-108.95
-110.05
-111.77
-114.61
-117.81
-119.47
-117.36
-109.89
-96.88
-79.92
-61.88
-45.95
-34.31
-27.49
-24.39
-23.20
-22.44
-21.71
-21.52
-22.62
-25.19
-28.71
-32.33
-35.64
-39.10
-43.95
-51.55
-62.68
-77.01
-93.12
-108.85
-121.96
-130.69
-134.16
-132.62
-127.38
-120.57
-114.51
-111.09
-111.05
-113.72
-117.32
-119.68
-119.18
-115.36
-109.04
-101.74
-94.93
-89.27
-84.32
-78.86
-71.61
-61.84
-49.82
-36.76
-24.28
-13.81
-6.08
-1.02
2.07
4.06
5.62
7.06
8.29
9.01
8.74
6.92
3.11
-2.59
-9.07
-13.96
-13.94
-5.82
12.19
39.40
72.66
107.26
138.63
163.67
181.42
192.63
198.80
201.23
200.60
197.18
191.23
183.42
174.75
166.31
158.89
152.71
147.40
142.17
136.15
128.64
119.42
108.78
97.35
85.87
74.85
64.31
53.82
42.71
30.27
16.01
-0.27
-18.43
-37.84
-57.13
-74.13
-86.13
-90.68
-86.54
-74.39
-56.85
-37.67
-20.43
-7.40
0.95
5.69
8.47
10.61
12.60
14.15
14.62
13.67
11.53
9.04
7.33
7.38
9.59
13.53
18.15
22.12
24.31
24.16
21.74
17.57
12.18
5.89
-1.28
-9.44
-18.52
-28.24
-38.16
-47.97
-57.49
-66.40
-73.73
-77.63
-75.64
-65.62
-46.96
-21.24
8.08
36.75
61.38
80.28
93.65
102.64
108.31
110.92
110.04
105.20
96.64
85.64
74.16
64.10
56.50
51.28
47.28
42.93
36.95
28.87
19.15
8.88
-0.74
-8.98
-15.77
-21.70
-27.62
-34.26
-42.15
-51.44
-61.96
-73.05
-83.28
-90.45
-91.85
-85.14
-69.33
-45.55
-16.87
12.55
38.93
60.01
75.54
86.71
95.13
101.86
106.92
109.61
109.24
105.67
99.62
92.33
84.95
78.08
71.47
64.27
55.54
44.70
31.89
17.85
3.61
-10.04
-22.80
-34.92
-47.04
-59.77
-73.48
-88.20
-103.68
-119.50
-134.89
-148.50
-158.28
-161.72
-156.62
-142.14
-119.47
-91.77
-63.28
-37.86
-17.83
-3.51
6.30
13.28
18.57
22.43
24.44
24.11
21.35
16.64
10.72
4.17
-2.79
-10.39
-18.93
-28.62
-39.31
-50.60
-61.97
-72.99
-83.38
-93.04
-101.93
-110.00
-117.09
-122.95
-127.32
-130.13
-131.72
-132.84
-134.36
-136.68
-139.07
-139.50
-135.16
-123.58
-103.82
-77.07
-46.31
-15.22
13.17
37.29
57.11
73.44
87.18
98.71
107.96
114.78
119.36
122.37
124.66
126.91
129.26
131.34
132.47
132.10
130.11
126.83
122.86
118.63
114.15
108.96
102.31
93.67
83.02
71.08
59.01
48.04
38.86
31.45
24.97
18.12
9.54
-1.80
-16.19
-32.93
-50.19
-65.14
-74.60
-75.92
-68.07
-52.16
-31.24
-9.34
9.99
24.66
34.39
40.16
43.28
44.57
44.22
42.06
38.14
33.12
28.14
24.48
23.05
24.14
27.41
32.26
38.05
44.37
50.96
57.60
63.88
69.06
72.25
72.66
69.96
64.53
57.43
50.16
44.03
39.75
37.01
34.70
31.42
26.32
19.61
12.68
7.48
5.70
7.97
13.56
20.77
27.70
33.09
36.64
38.90
40.71
42.62
44.73
46.79
48.59
50.24
52.19
55.01
58.95
63.80
68.85
73.32
76.65
78.64
79.40
79.13
78.00
76.12
73.61
70.67
67.52
64.31
61.00
57.31
52.90
47.50
41.33
35.14
30.24
28.07
29.53
34.44
41.21
47.22
49.67
46.72
38.14
25.19
9.90
-6.03
-21.84
-37.63
-53.76
-69.98
-85.16
-97.48
-105.22
-107.51
-104.72
-98.37
-90.39
-82.44
-75.34
-68.92
-62.37
-54.63
-44.93
-33.02
-19.30
-4.62
9.85
22.92
33.63
41.55
47.03
51.21
55.69
61.85
70.19
79.79
88.33
92.83
90.79
81.48
66.66
50.10
36.22
28.11
26.08
27.62
28.71
25.97
18.18
6.56
-6.43
-18.77
-29.95
-40.74
-51.93
-63.08
-72.18
-76.57
-74.56
-66.64
-55.42
-44.51
-36.89
-33.72
-34.26
-36.74
-39.52
-41.87
-44.06
-46.68
-49.94
-53.19
-55.10
-54.21
-49.55
-40.92
-28.69
-13.52
3.83
22.41
40.81
57.17
69.55
76.69
78.52
76.22
71.67
66.48
61.31
55.72
48.66
39.25
27.33
13.62
-0.60
-13.93
-25.20
-33.60
-38.57
-39.83
-37.35
-31.51
-23.13
-13.50
-4.24
3.03
6.95
6.84
2.86
-3.94
-11.88
-19.16
-24.42
-27.24
-28.31
-29.21
-31.85
-37.71
-47.33
-60.16
-74.83
-89.87
-104.24
-117.79
-130.98
-144.34
-157.84
-170.50
-180.54
-185.83
-184.48
-175.39
-158.51
-134.84
-106.39
-75.77
-45.85
-19.13
2.67
18.88
29.71
35.72
37.19
33.51
22.84
2.40
-30.59
-77.17
-135.03
-197.65
-255.17
-296.80
-314.03
-302.96
-265.19
-206.92
-137.25
-66.36
-4.12
41.26
64.75
66.13
50.72
28.63
11.83
10.68
30.67
71.21
126.38
187.44
245.52
293.81
328.44
348.12
353.07
344.02
321.69
286.98
241.75
189.44
134.67
82.26
35.49
-4.92
-40.79
-75.49
-112.37
-153.60
-199.34
-247.31
-292.67
-328.48
-347.26
-343.22
-314.62
-264.83
-201.56
-134.29
-71.21
-17.08
26.98
62.35
91.06
114.44
132.62
144.81
149.91
147.29
137.26
121.36
102.16
82.68
65.39
51.70
41.80
35.23
31.45
30.29
31.67
35.02
38.95
41.46
40.86
36.64
29.85
22.74
17.72
16.27
18.27
22.10
25.27
25.59
22.14
15.56
7.75
0.94
-3.29
-4.66
-4.27
-4.09
-6.25
-12.36
-23.14
-38.31
-56.79
-77.02
-97.42
-116.75
-134.28
-149.92
-164.04
-177.23
-190.13
-203.09
-216.07
-228.56
-239.67
-248.23
-253.02
-253.10
-247.47
-234.97
-214.14
-183.93
-144.14
-96.04
-42.56
12.08
63.23
107.32
142.97
171.31
194.92
216.83
239.37
263.42
288.04
310.16
325.88
331.26
323.50
300.64
262.71
212.36
155.10
98.33
48.43
10.52
-12.60
-20.28
-16.26
-5.94
5.64
15.51
22.86
25.63
23.16
16.44
9.35
2.46
-4.71
-13.34
-24.02
-36.66
-54.30
-77.02
-100.90
-116.70
-121.62
-116.73
-106.69
-96.52
-90.40
-95.78
-115.50
-145.96
-174.96
-196.11
-206.12
-205.84
-199.22
-159.21
-79.71
21.99
91.00
123.74
127.01
117.48
101.18
79.10
52.26
19.32
-15.74
-44.44
-54.15
-43.45
-17.86
12.56
35.86
44.65
34.60
8.91
-24.47
-54.11
-76.54
-92.32
-104.35
-118.66
-138.88
-167.03
-201.36
-238.30
-272.08
-299.98
-319.23
-300.44
-230.57
-122.34
-8.06
84.13
143.23
173.68
185.23
187.90
188.68
186.83
179.37
167.13
153.96
143.95
139.28
139.18
141.61
144.79
144.68
139.54
131.03
122.23
115.17
109.52
103.33
94.78
83.65
69.41
53.35
38.55
27.69
21.86
19.52
18.13
14.61
7.06
-5.44
-21.35
-36.68
-46.40
-45.16
-29.77
-1.12
34.96
69.48
92.88
99.30
91.37
73.50
52.31
33.73
20.79
13.27
9.47
7.67
7.24
8.45
11.14
14.74
17.90
19.00
15.85
8.47
-1.52
-11.68
-19.93
-25.82
-30.04
-34.26
-40.16
-48.65
-59.20
-70.43
-80.84
-89.62
-97.27
-105.01
-114.39
-126.60
-141.90
-159.24
-176.81
-192.80
-206.11
-216.79
-225.58
-233.36
-240.54
-246.82
-251.31
-253.16
-251.86
-247.24
-239.16
-227.07
-210.11
-187.48
-159.04
-125.65
-89.13
-51.71
-15.36
18.71
50.15
79.26
106.63
132.93
158.92
185.50
213.62
243.95
276.38
309.73
341.84
369.89
391.04
402.77
403.19
391.21
366.71
330.92
286.57
237.73
189.02
144.57
106.97
76.91
53.49
35.02
19.85
6.69
-5.26
-16.23
-25.64
-31.85
-32.16
-23.66
-4.46
25.04
61.70
100.36
135.42
162.74
180.55
189.52
191.71
189.42
184.44
177.92
170.80
164.04
158.56
154.85
152.42
149.83
144.94
135.68
120.63
99.37
72.31
40.32
4.34
-34.75
-76.00
-118.15
-159.52
-198.12
-232.00
-259.73
-280.74
-295.51
-305.52
-312.90
-319.98
-328.67
-339.84
-352.81
-365.20
-373.29
-373.04
-361.46
-337.93
-304.70
-266.34
-228.30
-195.03
-168.65
-148.76
-133.29
-119.90
-107.17
-94.95
-83.87
-74.45
-66.42
-58.58
-49.29
-37.17
-21.60
-2.88
17.98
39.69
61.01
80.99
98.93
114.44
127.31
137.44
144.76
149.18
150.57
148.84
143.93
135.84
124.62
110.47
93.91
76.11
59.11
45.68
38.65
40.02
50.12
67.35
88.60
110.27
129.30
143.86
153.41
158.29
159.23
156.95
152.13
145.49
137.84
130.04
122.84
116.68
111.57
107.20
103.02
98.50
93.15
86.62
78.70
69.25
58.36
46.35
33.78
21.41
10.03
0.21
-7.78
-14.17
-19.63
-25.18
-31.93
-40.63
-51.12
-62.02
-70.79
-74.40
-70.40
-57.97
-38.43
-14.90
8.83
29.46
45.18
55.74
62.00
65.13
66.01
65.12
62.70
59.09
54.91
50.90
47.66
45.42
43.94
42.68
40.99
38.35
34.51
29.43
23.24
16.05
8.04
-0.68
-9.92
-19.52
-29.28
-39.10
-48.97
-59.12
-70.02
-82.30
-96.39
-112.02
-127.67
-140.52
-147.06
-144.35
-131.33
-109.54
-82.83
-56.08
-33.45
-17.20
-7.38
-2.56
-0.95
-1.27
-3.00
-5.98
-9.80
-13.51
-15.78
-15.49
-12.21
-6.56
0.10
6.13
10.28
12.09
11.89
10.50
8.75
7.15
5.70
4.10
1.92
-1.15
-5.26
-10.53
-16.99
-24.53
-32.59
-39.90
-44.62
-44.70
-38.76
-26.70
-9.99
8.83
26.95
42.30
54.00
62.19
67.54
70.54
71.30
69.68
65.79
60.31
54.47
49.61
46.67
45.70
45.84
45.69
43.90
39.76
33.35
25.53
17.38
9.74
2.87
-3.59
-10.40
-18.37
-28.12
-39.95
-53.67
-68.48
-82.78
-94.15
-99.86
-97.66
-86.77
-68.47
-45.82
-22.68
-2.37
13.22
23.87
30.38
33.71
34.40
32.61
28.53
22.90
17.08
12.66
10.76
11.52
13.94
16.33
16.96
14.79
9.79
2.90
-4.56
-11.41
-17.19
-22.17
-27.19
-33.13
-40.67
-50.07
-61.16
-73.26
-85.05
-94.45
-98.93
-96.17
-85.08
-66.41
-42.82
-18.04
4.43
22.40
35.41
44.28
50.19
53.90
55.52
54.87
52.08
47.93
43.80
41.01
40.24
41.16
42.57
42.89
40.92
36.32
29.73
22.38
15.47
9.65
4.81
0.21
-5.03
-11.59
-19.77
-29.48
-40.35
-51.67
-62.30
-70.60
-74.73
-73.17
-65.46
-52.54
-36.57
-20.24
-5.83
5.44
13.44
18.68
21.70
22.78
22.00
19.64
16.51
13.86
12.94
14.41
17.90
22.11
25.34
26.14
23.92
19.12
12.90
6.57
1.03
-3.58
-7.74
-12.29
-18.06
-25.58
-34.99
-45.83
-56.98
-66.62
-72.47
-72.41
-65.26
-51.43
-32.91
-12.73
6.12
21.68
33.38
41.86
48.14
52.88
56.11
57.44
56.65
54.08
50.80
48.17
47.29
48.46
51.03
53.62
54.70
53.17
48.82
42.25
34.61
27.00
20.05
13.79
7.77
1.41
-5.73
-13.90
-23.22
-33.59
-44.56
-54.97
-62.87
-65.94
-62.25
-51.23
-34.20
-14.10
5.44
21.46
32.48
38.73
41.55
42.49
42.59
42.26
41.50
40.37
39.18
38.41
38.38
39.05
39.94
40.37
39.86
38.26
35.81
32.82
29.40
25.42
20.52
14.49
7.46
-0.04
-7.27
-13.66
-19.01
-23.69
-28.46
-34.32
-42.13
-52.20
-63.93
-75.57
-84.48
-87.79
-83.49
-71.28
-52.89
-31.58
-10.97
6.19
18.68
26.78
31.60
34.22
35.26
34.92
33.33
30.91
28.31
26.19
24.81
23.85
22.58
20.24
16.49
11.55
6.17
1.15
-3.00
-6.31
-9.26
-12.42
-16.01
-19.73
-22.83
-24.43
-24.03
-21.80
-18.61
-15.77
-14.62
-16.13
-20.59
-27.36
-34.84
-40.67
-42.28
-37.65
-26.11
-8.74
11.90
32.59
50.51
64.03
72.91
77.91
80.08
80.27
78.93
76.29
72.68
68.61
64.71
61.41
58.81
56.64
54.39
51.58
47.94
43.50
38.39
32.72
26.43
19.31
11.21
2.23
-7.14
-16.17
-24.15
-30.67
-35.85
-40.32
-45.07
-51.17
-59.41
-69.97
-81.95
-93.29
-101.08
-102.39
-95.37
-80.12
-58.88
-35.34
-13.36
4.31
16.72
24.48
28.97
31.50
32.74
32.89
32.01
30.55
29.26
28.96
30.09
32.45
35.31
37.71
38.93
38.75
37.44
35.49
33.34
31.23
29.21
27.26
25.46
23.98
23.01
22.62
22.65
22.68
22.06
20.11
16.46
11.46
6.36
3.18
4.06
10.34
21.88
36.91
52.52
65.75
74.53
78.25
77.54
73.67
67.78
60.60
52.49
43.79
35.09
27.22
20.97
16.77
14.47
13.43
12.71
11.48
9.21
5.80
1.52
-3.10
-7.43
-10.94
-13.25
-14.26
-14.12
-13.17
-11.87
-10.71
-10.14
-10.51
-11.80
-13.36
-13.76
-10.94
-2.80
11.93
33.01
58.49
85.29
110.18
130.88
146.57
157.74
165.56
171.12
175.05
177.63
179.10
179.90
180.59
181.53
182.43
182.34
179.85
173.64
163.04
148.25
130.30
110.62
90.61
71.26
53.04
36.03
20.11
5.22
-8.61
-21.16
-32.24
-41.76
-49.88
-57.03
-63.77
-70.65
-77.89
-85.32
-92.37
-98.39
-102.89
-105.78
-107.33
-108.06
-108.38
-108.43
-108.09
-107.10
-105.31
-102.84
-99.99
-97.18
-94.65
-92.46
-90.42
-88.30
-85.96
-83.49
-81.13
-79.14
-77.67
-76.69
-76.00
-75.42
-74.83
-74.24
-73.73
-73.33
-73.00
-72.66
-72.30
-71.92
-71.56
-71.21
-70.72
-69.92
-68.69
-67.03
-65.06
-62.97
-60.87
-58.79
-56.62
-54.27
-51.68
-48.91
-46.06
-43.25
-40.58
-38.09
-35.72
-33.44
-31.21
-29.09
-27.27
-25.97
-25.44
-25.78
-26.92
-28.60
-30.51
-32.36
-34.05
-35.56
-36.90
-38.07
-38.99
-39.63
-40.03
-40.32
-40.68
-41.20
-41.78
-42.24
-42.35
-41.93
-40.92
-39.32
-37.10
-34.27
-30.89
-27.20
-23.57
-20.43
-18.12
-16.79
-16.29
-16.32
-16.49
-16.53
-16.31
-15.89
-15.44
-15.13
-15.12
-15.45
-16.04
-16.77
-17.47
-18.03
-18.46
-18.84
-19.27
-19.86
-20.58
-21.37
-22.08
-22.56
-22.73
-22.61
-22.35
-22.15
-22.18
-22.52
-23.17
-24.03
-24.94
-25.72
-26.12
-25.92
-24.99
-23.40
-21.46
-19.58
-18.17
-17.42
-17.22
-17.28
-17.32
-17.25
-17.24
-17.59
-18.48
-19.86
-21.38
-22.61
-23.24
-23.25
-22.99
-22.94
-23.52
-24.84
-26.65
-28.52
-30.05
-31.06
-31.66
-32.13
-32.78
-33.84
-35.42
-37.47
-39.64
-41.11
-40.50
-36.19
-26.92
-12.44
5.98
25.85
44.11
58.18
66.66
69.51
67.69
62.60
55.60
47.86
40.38
34.01
29.45
27.03
26.67
27.88
30.03
32.53
34.97
37.22
39.25
41.09
42.58
43.34
42.83
40.45
35.80
28.85
20.10
10.48
1.04
-7.34
-14.29
-19.98
-25.07
-30.38
-36.56
-43.93
-52.28
-60.94
-68.86
-74.85
-77.90
-77.47
-73.73
-67.53
-60.08
-52.58
-45.77
-39.76
-34.07
-27.96
-20.77
-12.23
-2.43
8.35
19.82
31.91
44.72
58.20
71.81
84.25
93.60
97.86
95.75
87.32
74.09
58.58
43.36
30.36
20.37
13.24
8.43
5.35
3.73
3.38
4.04
5.14
5.86
5.34
2.93
-1.39
-6.90
-12.13
-15.20
-14.43
-8.95
0.89
13.58
26.89
38.73
47.73
53.55
56.68
57.90
57.89
56.88
54.84
51.70
47.62
43.00
38.36
34.12
30.46
27.21
24.06
20.67
16.83
12.58
8.15
3.81
-0.20
-3.78
-6.95
-9.78
-12.26
-14.30
-15.73
-16.44
-16.50
-16.24
-16.20
-16.94
-18.66
-21.08
-23.35
-24.41
-23.39
-20.06
-14.98
-9.25
-4.16
-0.61
1.05
1.02
-0.25
-2.35
-5.02
-8.19
-11.75
-15.44
-18.89
-21.72
-23.70
-24.81
-25.23
-25.28
-25.22
-25.22
-25.29
-25.40
-25.55
-25.82
-26.44
-27.58
-29.27
-31.29
-33.25
-34.70
-35.35
-35.23
-34.62
-33.97
-33.74
-34.26
-35.60
-37.49
-39.28
-40.07
-38.87
-35.07
-28.71
-20.63
-12.23
-4.97
0.09
2.67
3.14
2.23
0.60
-1.31
-3.36
-5.39
-7.13
-8.14
-7.96
-6.39
-3.54
0.11
4.00
7.63
10.75
13.39
15.65
17.63
19.29
20.51
21.19
21.39
21.32
21.29
21.49
21.97
22.55
22.86
22.54
21.25
18.79
15.18
10.74
6.18
2.60
1.28
3.13
8.39
16.31
25.36
33.73
39.95
43.29
43.88
42.38
39.58
36.02
32.01
27.70
23.29
19.08
15.38
12.39
10.07
8.24
6.57
4.74
2.61
0.13
-2.64
-5.57
-8.58
-11.64
-14.75
-17.93
-21.23
-24.61
-27.97
-31.18
-34.09
-36.67
-39.09
-41.65
-44.73
-48.44
-52.45
-55.90
-57.59
-56.41
-51.84
-44.21
-34.64
-24.62
-15.51
-8.12
-2.66
1.11
3.57
4.94
5.29
4.69
3.36
1.73
0.38
-0.24
-0.01
0.81
1.62
1.80
0.91
-1.19
-4.38
-8.36
-12.83
-17.51
-22.19
-26.70
-30.93
-34.93
-38.88
-43.07
-47.88
-53.67
-60.55
-68.25
-75.89
