1510673785.00
64.000000
-0.00
-0.00
-0.00
-0.00
-0.00
-0.00
-0.00
-0.00
-0.00
-0.00
0.00
0.01
0.01
-0.00
-0.03
-0.05
-0.05
0.00
0.13
0.36
0.66
1.01
1.37
1.72
2.06
2.40
2.79
3.24
3.80
4.42
5.06
5.66
6.20
6.68
7.15
7.68
8.31
9.14
10.09
11.04
11.88
12.56
13.14
13.76
14.65
15.96
17.91
20.32
22.90
25.38
27.58
29.57
31.68
34.32
37.81
42.54
48.15
54.10
59.83
64.97
69.58
74.14
79.34
85.71
93.76
103.00
112.62
121.73
129.77
136.75
143.30
150.75
157.77
166.64
177.95
191.79
206.97
220.57
228.25
225.36
208.53
176.87
132.76
80.05
23.07
-34.94
-92.44
-149.16
-205.23
-260.37
-313.74
-363.87
-409.83
-450.91
-486.50
-515.74
-537.23
-549.22
-549.96
-538.37
-514.21
-478.67
-433.88
-382.45
-327.02
-269.84
-212.63
-156.66
-102.95
-52.37
-5.90
35.58
71.43
101.35
125.50
144.38
158.69
169.15
176.37
180.75
182.57
182.07
179.51
175.23
169.65
163.18
156.15
148.81
141.30
133.69
126.02
118.33
110.69
103.16
95.80
88.68
81.83
75.25
68.95
62.95
57.25
51.86
46.78
42.03
37.59
33.45
29.61
26.07
22.81
19.83
17.11
14.67
12.48
10.54
8.83
7.35
6.07
4.97
4.05
3.27
2.62
2.09
1.65
1.30
1.01
0.79
0.61
0.47
0.37
0.29
0.23
0.18
0.15
0.14
0.13
0.14
0.15
0.17
0.19
0.22
0.26
0.30
0.34
0.38
0.43
0.47
0.52
0.57
0.62
0.68
0.73
0.80
0.87
0.94
1.02
1.11
1.21
1.32
1.45
1.59
1.75
1.92
2.12
2.34
2.58
2.85
3.15
3.47
3.83
4.22
4.64
5.10
5.60
6.13
6.71
7.33
7.98
8.69
9.43
10.22
11.06
11.94
12.87
13.85
14.89
15.98
17.15
18.37
19.64
20.92
22.15
23.27
24.17
24.74
24.85
24.40
23.27
21.43
18.87
15.63
11.80
7.56
3.11
-1.37
-5.65
-9.57
-13.01
-15.86
-18.05
-19.56
-20.36
-20.52
-20.12
-19.27
-18.12
-16.80
-15.40
-13.98
-12.54
-11.00
-9.39
-7.69
-5.97
-4.30
-2.77
-1.44
-0.26
0.88
2.20
3.74
5.51
7.41
9.25
10.78
11.88
12.59
13.21
14.21
15.73
17.82
20.28
22.66
24.45
25.30
25.27
24.83
24.83
25.53
27.06
29.09
30.84
31.43
30.28
27.37
23.40
19.56
16.30
13.86
11.79
9.01
3.95
-5.24
-20.51
-43.91
-72.02
-102.14
-130.38
-152.20
-163.74
-163.21
-151.59
-132.28
-109.51
-86.57
-65.54
-46.39
-28.21
-10.50
6.23
20.56
31.16
37.57
40.59
41.35
41.29
41.40
41.83
41.87
40.27
35.71
27.32
15.03
-0.45
-17.23
-32.52
-43.30
-47.06
-42.59
-30.48
-12.91
6.89
25.54
40.57
50.80
56.24
57.61
55.92
52.14
47.24
42.15
37.70
34.37
32.16
30.55
28.74
26.03
22.20
17.46
12.28
7.12
2.13
-2.87
-8.31
-14.81
-22.87
-32.64
-43.55
-54.12
-62.23
-65.63
-62.93
-54.18
-40.97
-25.84
-11.35
0.81
10.11
16.93
21.96
25.65
28.12
29.24
28.96
27.51
25.39
23.04
20.81
18.67
16.42
13.78
10.64
7.05
3.21
-0.70
-4.75
-9.27
-14.78
-21.69
-29.95
-38.72
-46.39
-50.96
-50.77
-45.17
-34.90
-21.93
-8.80
2.35
10.40
15.43
18.27
19.94
21.00
21.57
21.44
20.53
19.03
17.44
16.23
15.59
15.26
14.75
13.48
11.17
7.83
3.70
-1.10
-6.78
-13.77
-22.40
-32.34
-42.28
-50.07
-53.41
-50.80
-42.28
-29.47
-14.94
-1.26
9.91
18.03
23.46
26.90
28.84
29.47
28.83
27.08
24.60
21.89
19.38
17.23
15.36
13.50
11.38
8.85
5.91
2.62
-1.08
-5.48
-11.01
-18.06
-26.46
-35.24
-42.64
-46.55
-45.31
-38.41
-26.82
-12.81
0.92
12.11
19.68
23.82
25.60
26.29
26.76
27.32
27.80
27.95
27.69
27.15
26.50
25.85
25.05
23.79
21.74
18.67
14.53
9.39
3.28
-3.90
-12.35
-22.14
-32.90
-43.51
-52.12
-56.66
-55.44
-47.96
-35.25
-19.62
-3.82
9.79
19.98
26.66
30.51
32.42
33.05
32.76
31.80
30.43
29.00
27.73
26.55
25.08
22.79
19.25
14.47
8.86
3.20
-1.79
-5.77
-8.96
-12.15
-16.35
-22.39
-30.36
-39.37
-47.65
-53.02
-53.67
-48.79
-39.00
-26.09
-12.44
-0.17
9.41
16.01
20.11
22.49
23.84
24.60
25.06
25.49
26.08
26.90
27.71
28.05
27.37
25.33
21.93
17.54
12.71
7.88
3.17
-1.76
-7.49
-14.66
-23.54
-33.69
-43.81
-51.89
-55.77
-53.87
-45.95
-33.24
-18.15
-3.45
8.69
17.17
22.08
24.24
24.65
24.04
22.74
20.85
18.40
15.58
12.70
10.04
7.76
5.77
3.84
1.73
-0.74
-3.66
-7.18
-11.59
-17.33
-24.75
-33.75
-43.47
-52.24
-57.97
-58.88
-54.21
-44.62
-31.94
-18.58
-6.67
2.60
9.09
13.48
16.67
19.38
21.85
23.96
25.43
26.08
25.89
24.95
23.37
21.16
18.33
14.93
11.13
7.16
3.14
-1.12
-6.18
-12.79
-21.43
-31.84
-42.65
-51.61
-56.18
-54.52
-46.23
-32.65
-16.39
-0.42
12.96
22.64
28.80
32.34
34.26
35.23
35.50
35.05
33.93
32.34
30.53
28.69
26.82
24.76
22.34
19.50
16.37
13.16
9.99
6.66
2.61
-2.92
-10.56
-20.38
-31.56
-42.41
-50.65
-54.21
-51.89
-43.88
-31.67
-17.59
-4.00
7.48
16.21
22.40
26.64
29.50
31.34
32.32
32.59
32.34
31.81
31.08
30.05
28.48
26.14
22.98
19.16
14.97
10.66
6.30
1.75
-3.33
-9.31
-16.55
-25.13
-34.64
-44.04
-51.69
-55.78
-54.89
-48.64
-37.87
-24.52
-10.87
1.14
10.42
16.75
20.57
22.52
23.23
23.11
22.46
21.53
20.49
19.42
18.38
17.37
16.40
15.43
14.33
12.82
10.51
7.00
1.98
-4.70
-13.03
-22.77
-33.27
-43.41
-51.57
-55.92
-55.00
-48.31
-36.64
-21.94
-6.73
6.72
17.04
23.98
28.18
30.61
32.08
32.99
33.29
32.76
31.25
28.81
25.72
22.36
19.07
15.96
12.95
9.76
6.13
1.86
-3.14
-8.94
-15.68
-23.47
-32.10
-40.74
-47.87
-51.62
-50.42
-43.73
-32.41
-18.47
-4.33
8.04
17.64
24.44
28.99
31.90
33.57
34.22
34.06
33.44
32.86
32.66
32.86
33.06
32.61
30.91
27.74
23.37
18.37
13.35
8.56
3.80
-1.59
-8.43
-17.32
-28.21
-40.16
-51.38
-59.58
-62.63
-59.29
-49.68
-35.34
-18.74
-2.46
11.56
22.37
29.92
34.68
37.16
37.80
37.00
35.28
33.30
31.65
30.67
30.20
29.71
28.55
26.31
23.00
19.11
15.29
12.08
9.60
7.52
5.08
1.43
-4.24
-12.28
-22.43
-33.63
-44.15
-51.84
-54.81
-51.99
-43.57
-31.02
-16.61
-2.75
8.73
17.03
22.29
25.35
27.15
28.43
29.47
30.25
30.53
30.13
29.01
27.21
24.87
22.02
18.65
14.73
10.29
5.46
0.39
-4.88
-10.60
-17.20
-25.07
-34.08
-43.29
-50.89
-54.73
-53.09
-45.44
-32.80
-17.43
-2.10
10.89
20.28
26.06
28.99
30.10
30.24
29.82
28.98
27.68
25.96
23.92
21.72
19.54
17.51
15.61
13.74
11.62
8.93
5.36
0.62
-5.48
-13.11
-22.30
-32.75
-43.51
-53.00
-59.22
-60.33
-55.38
-44.81
-30.43
-14.74
-0.19
11.64
20.22
25.90
29.42
31.49
32.60
33.09
33.18
33.00
32.62
31.94
30.82
29.08
26.63
23.49
19.78
15.69
11.39
6.98
2.39
-2.68
-8.83
-16.62
-26.17
-36.77
-46.73
-53.76
-55.70
-51.43
-41.40
-27.49
-12.32
1.73
13.22
21.81
27.96
32.32
35.26
36.83
36.92
35.68
33.64
31.64
30.38
30.07
30.34
30.32
29.18
26.42
22.12
16.91
11.55
6.53
1.90
-2.78
-8.23
-15.15
-23.91
-34.43
-45.97
-57.13
-65.98
-70.47
-69.09
-61.41
-48.46
-32.47
-16.13
-1.65
9.79
18.21
24.21
28.47
31.31
32.73
32.78
31.87
30.81
30.38
30.95
32.20
33.26
33.17
31.37
27.95
23.48
18.76
14.33
10.38
6.67
2.72
-1.97
-7.83
-15.13
-23.83
-33.45
-42.89
-50.52
-54.55
-53.62
-47.35
-36.61
-23.23
-9.42
2.91
12.62
19.41
23.56
25.66
26.25
25.78
24.62
23.07
21.37
19.61
17.79
15.75
13.39
10.68
7.73
4.73
1.81
-1.04
-4.08
-7.84
-12.97
-19.98
-28.89
-38.95
-48.63
-55.84
-58.56
-55.48
-46.59
-33.21
-17.70
-2.68
9.74
18.47
23.51
25.63
25.89
25.14
23.91
22.37
20.53
18.42
16.12
13.76
11.39
9.00
6.46
3.62
0.31
-3.60
-8.30
-14.06
-21.14
-29.60
-38.96
-48.03
-54.94
-57.66
-54.70
-45.79
-32.12
-16.04
-0.25
13.03
22.68
28.71
31.87
33.18
33.46
33.23
32.69
31.89
30.80
29.35
27.51
25.25
22.64
19.74
16.60
13.20
9.43
5.07
-0.16
-6.63
-14.64
-24.18
-34.62
-44.52
-51.76
-54.18
-50.35
-40.28
-25.66
-9.35
5.55
16.76
23.45
26.17
26.34
25.52
24.71
24.25
23.91
23.27
22.00
20.01
17.43
14.45
11.26
7.99
4.74
1.59
-1.47
-4.58
-8.15
-12.83
-19.29
-27.84
-38.05
-48.50
-56.97
-60.99
-58.73
-49.75
-35.34
-18.12
-1.21
12.77
22.46
27.85
29.93
30.02
29.21
28.13
27.02
25.95
24.94
23.98
23.02
21.88
20.35
18.26
15.59
12.40
8.82
4.78
0.09
-5.67
-12.94
-21.99
-32.56
-43.55
-53.10
-58.94
-59.14
-52.89
-40.97
-25.62
-9.82
3.76
13.56
19.37
22.09
22.93
22.90
22.45
21.59
20.20
18.30
16.17
14.16
12.54
11.25
10.04
8.45
6.13
2.87
-1.48
-7.06
-14.10
-22.70
-32.57
-42.67
-51.26
-56.26
-55.99
-49.88
-38.80
-24.87
-10.69
1.52
10.51
16.17
19.15
20.25
20.03
18.74
16.46
13.37
9.91
6.71
4.27
2.85
2.25
1.90
1.11
-0.85
-4.49
-10.13
-17.85
-27.43
-38.15
-48.73
-57.35
-62.07
-61.42
-55.02
-43.78
-29.77
-15.46
-2.94
6.65
13.28
17.61
20.44
22.23
23.04
22.70
21.20
18.91
16.41
14.28
12.77
11.65
10.39
8.40
5.31
1.01
-4.54
-11.40
-19.61
-28.87
-38.18
-45.79
-49.65
-48.18
-41.07
-29.51
-15.83
-2.50
8.72
17.26
23.56
28.44
32.42
35.45
37.00
36.56
34.03
29.89
25.05
20.49
16.93
14.60
13.24
12.28
10.96
8.51
4.22
-2.43
-11.60
-22.75
-34.46
-44.45
-50.08
-49.16
-40.89
-26.27
-7.94
10.73
26.76
38.45
45.65
49.29
50.64
50.68
49.81
48.05
45.39
42.02
38.33
34.77
31.60
28.80
26.08
23.04
19.34
14.73
9.07
2.26
-5.78
-14.89
-24.54
-33.53
-40.16
-42.71
-39.98
-31.98
-20.02
-6.26
7.02
18.15
26.46
32.17
35.86
38.02
38.88
38.42
36.69
33.97
30.80
27.71
25.04
22.83
20.82
18.65
15.98
12.57
8.23
2.70
-4.29
-12.89
-22.72
-32.68
-40.96
-45.52
-44.83
-38.52
-27.65
-14.35
-1.05
10.32
18.89
24.78
28.69
31.28
32.83
33.26
32.37
30.20
27.19
24.02
21.29
19.31
17.86
16.37
14.13
10.59
5.47
-1.25
-9.37
-18.50
-28.00
-36.78
-43.37
-46.23
-44.21
-37.11
-25.87
-12.35
1.25
13.17
22.48
29.15
33.66
36.61
38.34
39.01
38.69
37.57
35.92
34.04
32.03
29.82
27.24
24.15
20.63
16.92
13.34
10.07
6.96
3.49
-1.19
-7.93
-17.13
-28.22
-39.52
-48.47
-52.49
-49.98
-41.06
-27.62
-12.54
1.40
12.58
20.87
27.14
32.54
37.61
42.11
45.27
46.45
45.63
43.50
41.16
39.55
38.99
39.05
38.80
37.31
34.11
29.38
23.79
18.14
12.96
8.34
4.01
-0.44
-5.38
-11.05
-17.66
-25.36
-34.16
-43.59
-52.51
-59.24
-62.01
-59.65
-52.22
-40.99
-28.07
-15.53
-4.67
4.22
11.58
17.97
23.55
27.98
30.73
31.56
30.81
29.38
28.26
28.05
28.69
29.48
29.46
27.88
24.59
20.01
14.94
10.15
6.12
2.85
-0.06
-3.32
-7.67
-13.72
-21.67
-31.10
-40.84
-49.09
-53.85
-53.63
-48.01
-37.90
-25.21
-12.17
-0.55
8.77
15.74
20.76
24.19
26.20
26.85
26.30
24.95
23.39
22.10
21.13
20.09
18.36
15.43
11.22
6.14
0.91
-3.81
-7.72
-11.08
-14.50
-18.76
-24.44
-31.70
-40.10
-48.53
-55.47
-59.26
-58.69
-53.43
-44.24
-32.82
-21.23
-11.20
-3.60
1.58
5.00
7.42
9.32
10.83
11.79
12.11
11.76
10.92
9.77
8.46
7.04
5.46
3.66
1.54
-0.92
-3.74
-6.94
-10.61
-14.94
-20.20
-26.51
-33.61
-40.57
-45.94
-48.13
-45.99
-39.41
-29.38
-17.75
-6.52
2.83
9.69
14.25
17.15
19.02
20.22
20.79
20.61
19.66
18.03
15.96
13.68
11.37
9.09
6.93
5.03
3.69
3.19
3.62
4.62
5.26
4.29
0.44
-7.03
-17.76
-30.18
-41.62
-49.05
-49.95
-43.18
-29.41
-10.95
8.96
27.14
41.31
50.46
54.83
55.40
53.34
49.61
44.82
39.31
33.42
27.65
22.63
19.00
17.03
16.46
16.51
16.24
14.96
12.47
9.01
4.89
0.08
-5.95
-13.84
-23.80
-35.03
-45.67
-53.33
-55.93
-52.61
-44.02
-32.10
-19.23
-7.35
2.65
11.00
18.57
26.25
34.36
42.53
49.89
55.58
59.20
60.97
61.63
62.08
63.08
64.83
67.10
69.32
70.84
71.14
69.94
67.10
62.38
55.42
45.78
33.23
18.09
1.34
-15.61
-31.37
-44.97
-55.93
-63.96
-68.53
-68.70
-63.52
-52.68
-37.08
-18.98
-1.36
12.95
22.07
25.42
23.49
17.28
7.85
-3.91
-17.31
-31.64
-46.02
-59.43
-70.87
-79.59
-85.37
-88.61
-90.17
-90.85
-90.98
-90.08
-87.10
-81.01
-71.37
-58.76
-44.60
-30.53
-17.83
-6.93
2.41
10.73
18.39
25.31
31.07
35.20
37.46
37.95
37.03
35.15
32.68
29.89
26.96
24.04
21.18
18.30
15.05
10.90
5.10
-3.09
-14.20
-28.25
-44.46
-61.13
-75.85
-86.03
-89.78
-86.60
-77.65
-65.41
-52.75
-41.92
-33.95
-28.55
-24.71
-21.42
-18.12
-14.86
-12.00
-9.84
-8.35
-7.27
-6.30
-5.30
-4.39
-3.87
-3.96
-4.72
-6.05
-7.84
-10.21
-13.54
-18.37
-25.07
-33.51
-42.77
-51.21
-56.84
-57.97
-53.77
-44.69
-32.29
-18.86
-6.61
2.91
9.11
12.27
13.18
12.75
11.76
10.84
10.39
10.65
11.62
12.99
14.24
14.81
14.30
12.60
9.95
6.73
3.33
-0.11
-3.69
-7.79
-12.89
-19.38
-27.23
-35.75
-43.59
-48.96
-50.18
-46.34
-37.68
-25.63
-12.27
0.44
11.17
19.54
25.89
30.81
34.78
38.02
40.51
42.25
43.34
43.86
43.90
43.46
42.47
40.96
39.04
36.89
34.65
32.33
29.77
26.69
22.70
17.48
10.98
3.68
-3.23
-8.09
-9.24
-5.79
1.93
12.35
23.21
32.51
39.19
43.32
45.74
47.32
48.51
49.18
48.90
47.39
44.73
41.30
37.59
33.94
30.42
26.91
23.21
19.14
14.54
9.20
2.83
-4.92
-14.13
-24.35
-34.42
-42.52
-46.69
-45.53
-38.83
-27.73
-14.43
-1.39
9.47
17.28
22.25
25.18
26.89
27.83
28.00
27.20
25.32
22.57
19.45
16.51
14.08
12.13
10.26
8.01
4.99
1.04
-3.95
-10.16
-17.90
-27.38
-38.35
-49.67
-59.29
-64.80
-64.26
-57.07
-44.23
-28.06
-11.29
3.85
16.19
25.61
32.53
37.46
40.63
42.11
42.05
40.79
38.87
36.73
34.54
32.14
29.20
25.51
21.00
15.82
10.13
3.92
-3.01
-11.02
-20.38
-31.09
-42.51
-53.33
-61.57
-65.06
-62.03
-51.83
-35.34
-14.86
6.58
26.15
42.05
53.80
61.99
67.59
71.37
73.57
74.13
72.98
70.32
66.67
62.62
58.60
54.69
50.74
46.49
41.72
36.34
30.14
22.76
13.71
2.53
-10.77
-25.46
-39.88
-51.79
-58.92
-59.78
-54.27
-43.76
-30.75
-18.02
-7.69
-0.74
2.99
4.40
4.48
3.90
2.84
1.11
-1.44
-4.87
-8.91
-13.10
-17.02
-20.37
-23.17
-25.70
-28.50
-32.18
-37.30
-44.24
-53.01
-63.10
-73.34
-81.98
-87.04
-86.87
-80.77
-69.43
-54.83
-39.55
-26.00
-15.63
-8.68
-4.46
-1.89
-0.09
1.26
2.02
1.88
0.67
-1.45
-4.00
-6.40
-8.25
-9.54
-10.65
-12.23
-14.97
-19.47
-26.01
-34.45
-44.14
-53.84
-61.85
-66.30
-65.75
-59.67
-48.84
-35.06
-20.60
-7.52
2.99
10.75
16.25
20.22
23.23
25.52
27.08
27.89
27.95
27.31
26.06
24.21
21.73
18.66
15.08
11.15
6.92
2.24
-3.24
-10.06
-18.50
-28.20
-37.97
-45.83
-49.58
-47.67
-39.89
-27.53
-13.05
0.87
12.26
20.28
25.26
28.13
29.83
30.86
31.32
31.04
29.97
28.25
26.23
24.22
22.35
20.52
18.39
15.66
12.19
8.00
3.20
-2.25
-8.61
-16.24
-25.14
-34.50
-42.61
-47.31
-46.75
-40.30
-28.95
-14.97
-1.07
10.60
19.06
24.49
27.75
29.76
31.02
31.55
31.17
29.71
27.37
24.55
21.79
19.44
17.57
15.98
14.27
12.00
8.80
4.34
-1.62
-9.28
-18.52
-28.72
-38.56
-46.14
-49.53
-47.39
-39.69
-27.68
-13.60
0.11
11.64
20.25
26.17
30.21
33.17
35.44
36.94
37.37
36.53
34.52
31.75
28.78
26.08
23.79
21.71
19.35
16.16
11.67
5.64
-1.92
-10.74
-20.16
-29.12
-36.13
-39.58
-38.24
-31.74
-20.89
-7.59
5.78
17.13
25.28
30.18
32.62
33.67
34.15
34.29
33.95
32.88
31.05
28.72
26.34
24.30
22.65
21.11
19.17
16.34
12.23
6.70
-0.29
-8.61
-17.83
-27.12
-35.15
-40.34
-41.28
-37.25
-28.60
-16.74
-3.75
8.27
17.78
24.15
27.61
28.97
29.13
28.81
28.37
27.87
27.20
26.20
24.79
22.92
20.58
17.79
14.60
11.04
7.12
2.82
-1.98
-7.51
-14.03
-21.74
-30.56
-39.91
-48.63
-55.07
-57.52
-54.77
-46.73
-34.49
-20.13
-6.09
5.64
14.06
19.17
21.72
22.71
22.92
22.72
22.20
21.30
19.98
18.26
16.21
13.89
11.32
8.45
5.27
1.73
-2.29
-6.98
-12.74
-19.90
-28.57
-38.29
-47.95
-55.73
-59.59
-57.88
-49.96
-36.60
-19.89
-2.67
12.42
23.62
30.59
34.07
35.36
35.68
35.69
35.45
34.75
33.40
31.51
29.36
27.22
25.16
23.00
20.40
17.07
12.87
7.74
1.63
-5.61
-14.14
-23.73
-33.52
-41.92
-46.92
-46.77
-40.72
-29.40
-14.73
0.74
14.68
25.59
33.00
37.31
39.31
39.78
39.38
38.55
37.62
36.78
36.03
35.17
33.88
31.84
28.94
25.36
21.39
17.36
13.36
9.15
4.22
-2.06
-10.16
-20.07
-31.10
-41.79
-50.19
-54.31
-52.77
-45.32
-32.97
-17.73
-2.00
12.13
23.33
31.19
36.02
38.47
39.29
39.07
38.30
37.34
36.48
35.89
35.49
35.03
34.07
32.24
29.38
25.66
21.49
17.25
13.05
8.59
3.29
-3.43
-11.89
-21.78
-32.15
-41.47
-47.92
-49.90
-46.48
-37.84
-25.31
-10.95
3.01
14.90
23.88
29.97
33.61
35.34
35.60
34.77
33.30
31.68
30.32
29.34
28.50
27.35
25.45
22.62
18.93
14.66
10.02
5.07
-0.32
-6.36
-13.27
-21.27
-30.41
-40.47
-50.73
-59.97
-66.54
-68.87
-66.05
-58.27
-46.91
-34.14
-22.16
-12.53
-5.70
-1.17
2.07
4.97
7.92
10.77
13.04
14.33
14.59
14.19
13.64
13.26
13.00
12.50
11.35
9.35
6.64
3.53
0.17
-3.69
-8.70
-15.45
-23.92
-33.05
-40.78
-44.76
-43.28
-36.06
-24.36
-10.61
2.62
13.34
20.76
25.17
27.53
28.84
29.75
30.38
30.47
29.76
28.18
26.02
23.76
21.86
20.45
19.29
17.82
15.48
11.99
7.31
1.60
-5.07
-12.67
-21.03
-29.41
-36.44
-40.34
-39.62
-33.85
-23.96
-11.99
-0.32
9.22
15.88
19.95
22.30
23.79
24.93
25.76
26.11
25.79
24.69
22.81
20.24
17.11
13.62
9.91
6.14
2.33
-1.60
-5.79
-10.43
-15.70
-21.78
-28.66
-36.02
-42.97
-48.13
-49.90
-47.08
-39.53
-28.33
-15.57
-3.55
5.96
12.26
15.68
17.18
17.74
18.04
18.23
18.16
17.66
16.69
15.44
14.20
13.13
12.28
11.44
10.37
8.85
6.65
3.54
-0.84
-6.82
-14.42
-22.93
-30.90
-36.35
-37.54
-33.71
-25.50
-14.74
-3.70
5.70
12.45
16.42
18.00
17.71
15.94
13.00
9.33
5.62
2.53
0.59
-0.11
0.07
0.56
0.80
0.38
-0.96
-3.51
-7.70
-13.90
-22.09
-31.41
-40.08
-45.83
-46.69
-41.85
-32.08
-19.52
-6.81
3.85
11.39
16.08
18.85
20.72
22.11
22.80
22.26
20.26
17.16
13.84
11.20
9.64
8.84
7.86
5.77
2.06
-3.14
-9.39
-16.24
-23.47
-30.91
-38.01
-43.63
-46.26
-44.60
-38.31
-28.38
-16.78
-5.65
3.45
10.10
14.81
18.43
21.56
24.19
25.88
26.10
24.73
22.17
19.23
16.68
14.94
13.89
12.98
11.56
9.11
5.50
0.82
-4.71
-10.88
-17.42
-23.78
-28.96
-31.62
-30.54
-25.16
-15.98
-4.60
6.92
16.76
23.95
28.51
31.13
32.67
33.68
34.27
34.27
33.53
32.07
30.11
27.92
25.70
23.50
21.20
18.66
15.72
12.31
8.34
3.74
-1.70
-8.18
-15.73
-23.89
-31.57
-37.16
-39.02
-36.14
-28.62
-17.77
-5.78
5.11
13.28
18.26
20.53
21.16
21.19
21.27
21.52
21.72
21.58
20.96
19.90
18.58
17.17
15.72
14.17
12.33
10.09
7.37
4.11
0.18
-4.68
-10.73
-18.01
-25.96
-33.35
-38.49
-39.80
-36.42
-28.69
-18.08
-6.71
3.42
10.96
15.52
17.51
17.71
16.93
15.79
14.69
13.88
13.45
13.36
13.42
13.25
12.45
10.71
7.95
4.36
0.27
-4.00
-8.30
-12.80
-17.79
-23.60
-30.15
-36.83
-42.43
-45.52
-44.88
-40.01
-31.44
-20.54
-9.14
1.12
9.14
14.61
17.73
19.00
18.97
18.06
16.61
14.91
13.20
11.60
10.07
8.41
6.37
3.70
0.26
-3.95
-8.87
-14.38
-20.44
-26.96
-33.92
-41.15
-48.19
-54.24
-58.17
-58.88
-55.68
-48.63
-38.64
-27.18
-15.84
-5.85
2.14
8.06
12.19
14.95
16.72
17.82
18.52
18.99
19.33
19.53
19.51
19.20
18.53
17.44
15.93
13.95
11.46
8.42
4.68
0.03
-5.76
-12.78
-20.70
-28.63
-35.15
-38.79
-38.52
-34.19
-26.62
-17.28
-7.73
0.83
7.80
13.11
16.94
19.50
20.99
21.58
21.51
21.05
20.39
19.56
18.45
16.88
14.79
12.24
9.42
6.43
3.23
-0.51
-5.28
-11.59
-19.72
-29.42
-39.72
-48.98
-55.17
-56.45
-51.91
-42.00
-28.55
-14.17
-1.37
8.28
14.54
18.17
20.31
21.77
22.75
23.01
22.31
20.73
18.71
16.82
15.39
14.36
13.33
11.80
9.45
6.12
1.83
-3.51
-9.99
-17.61
-25.89
-33.83
-39.84
-42.28
-40.09
-33.19
-22.74
-10.68
0.87
10.29
16.85
20.73
22.64
23.44
23.76
23.89
23.86
23.62
23.10
22.32
21.25
19.81
17.84
15.18
11.73
7.53
2.72
-2.62
-8.53
-15.14
-22.41
-29.84
-36.33
-40.35
-40.50
-36.07
-27.51
-16.33
-4.59
5.82
13.78
19.12
22.35
24.24
25.40
26.18
26.64
26.81
26.68
26.28
25.62
24.62
23.20
21.34
19.11
16.64
14.04
11.27
8.09
4.08
-1.18
-7.84
-15.51
-23.13
-29.11
-31.78
-29.94
-23.35
-12.90
-0.33
12.35
23.45
32.08
38.12
41.99
44.33
45.68
46.40
46.71
46.76
46.63
46.29
45.63
44.52
42.79
40.43
37.49
34.09
30.41
26.56
22.63
18.52
13.95
8.52
1.92
-5.77
-13.80
-20.76
-24.94
-24.93
-20.28
-11.74
-1.08
9.59
18.57
25.02
29.03
31.31
32.67
33.67
34.48
34.97
34.94
34.24
32.89
31.02
28.80
26.33
23.66
20.78
17.67
14.34
10.75
6.72
1.89
-4.22
-11.90
-20.93
-30.34
-38.50
-43.65
-44.54
-40.97
-33.92
-25.15
-16.52
-9.39
-4.29
-1.05
0.83
1.83
2.17
1.88
0.95
-0.52
-2.21
-3.74
-4.82
-5.41
-5.73
-6.20
-7.20
-8.94
-11.43
-14.57
-18.33
-22.85
-28.20
-34.17
-39.91
-44.01
-44.89
-41.45
-33.68
-22.77
-10.78
0.15
8.52
13.92
16.89
18.47
19.66
20.96
22.33
23.38
23.68
23.05
21.56
19.50
17.15
14.69
12.06
9.13
5.72
1.72
-2.94
-8.36
-14.67
-21.86
-29.56
-36.88
-42.40
-44.64
-42.53
-35.93
-25.77
-13.78
-1.92
8.15
15.53
20.08
22.30
23.01
23.02
22.90
22.89
22.93
22.80
22.24
21.17
19.70
18.00
16.27
14.53
12.69
10.53
7.88
4.55
0.38
-4.85
-11.30
-18.86
-26.91
-34.24
-39.29
-40.61
-37.49
-30.27
-20.35
-9.64
0.01
7.45
12.40
15.27
16.80
17.60
17.99
17.96
17.44
16.43
15.04
13.46
11.80
10.00
7.83
5.08
1.63
-2.44
-6.89
-11.62
-16.65
-22.36
-29.11
-36.96
-45.38
-53.16
-58.68
-60.46
-57.82
-51.12
-41.74
-31.49
-22.05
-14.41
-8.80
-4.89
-2.24
-0.60
0.03
-0.41
-1.79
-3.72
-5.68
-7.16
-8.04
-8.44
-8.73
-9.25
-10.20
-11.68
-13.79
-16.79
-20.94
-26.30
-32.33
-37.81
-41.04
-40.44
-35.19
-25.76
-13.79
-1.49
9.12
16.94
21.96
24.88
26.64
27.91
28.92
29.60
29.84
29.59
28.94
28.01
26.84
25.45
23.81
21.92
19.74
17.13
13.78
9.28
3.33
-4.07
-12.32
-20.25
-26.34
-29.04
-27.39
-21.30
-11.72
-0.37
10.83
20.33
27.38
32.01
34.83
36.55
37.65
38.25
38.22
37.41
35.83
33.69
31.30
28.92
26.62
24.24
21.58
18.48
14.82
10.52
5.48
-0.48
-7.27
-14.39
-20.73
-24.83
-25.36
-21.75
-14.48
-4.99
4.90
13.58
20.14
24.36
26.47
26.83
25.73
23.45
20.36
16.93
13.72
11.13
9.32
8.14
7.28
6.35
5.05
3.23
0.87
-2.00
-5.41
-9.58
-14.77
-21.05
-28.00
-34.50
-38.95
-39.78
-36.14
-28.30
-17.68
-6.34
3.78
11.45
16.39
19.02
20.00
19.89
18.93
17.26
15.01
12.49
10.16
8.43
7.44
6.96
6.47
5.35
3.17
-0.14
-4.38
-9.31
-14.83
-21.00
-27.82
-34.85
-40.98
-44.63
-44.32
-39.34
-30.27
-18.83
-7.27
2.49
9.42
13.51
15.42
15.91
15.53
14.52
12.94
10.95
8.83
6.99
5.70
5.00
4.66
4.23
3.25
1.42
-1.36
-5.08
-9.70
-15.23
-21.58
-28.39
-34.78
-39.39
-40.75
-37.80
-30.55
-20.09
-8.37
2.54
11.09
16.66
19.48
20.15
19.21
16.95
13.50
9.05
4.04
-0.94
-5.33
-8.92
-11.84
-14.50
-17.31
-20.54
-24.26
-28.42
-33.01
-38.07
-43.59
-49.22
-54.21
-57.42
-57.68
-54.16
-46.76
-36.22
-23.97
-11.66
-0.73
7.93
14.10
18.02
20.18
20.98
20.67
19.40
17.42
15.09
12.91
11.33
10.48
10.13
9.70
8.51
6.07
2.15
-3.19
-9.78
-17.38
-25.59
-33.63
-40.27
-43.92
-43.19
-37.47
-27.36
-14.57
-1.41
9.99
18.41
23.68
26.46
27.67
28.04
27.86
27.08
25.61
23.52
21.11
18.81
16.86
15.21
13.51
11.30
8.23
4.16
-0.91
-6.96
-14.04
-22.13
-30.73
-38.71
-44.37
-45.94
-42.41
-34.01
-22.26
-9.51
2.04
11.02
17.08
20.77
22.94
24.26
25.00
25.11
24.46
22.99
20.85
18.35
15.84
13.63
11.86
10.44
9.09
7.36
4.73
0.70
-5.05
-12.47
-20.98
-29.38
-36.03
-39.26
-37.92
-31.88
-22.10
-10.37
1.24
11.06
18.21
22.69
25.01
25.89
25.84
25.12
23.76
21.77
19.27
16.58
14.07
12.01
10.45
9.08
7.44
5.03
1.45
-3.53
-9.99
-17.82
-26.47
-34.87
-41.48
-44.63
-43.20
-37.04
-27.19
-15.46
-3.86
6.15
13.90
19.50
23.36
25.91
27.35
27.79
27.30
26.08
24.45
22.71
21.12
19.78
18.58
17.27
15.45
12.73
8.77
3.37
-3.49
-11.53
-20.07
-28.00
-33.80
-35.96
-33.39
-25.93
-14.53
-1.03
12.39
23.91
32.53
38.12
41.22
42.49
42.48
41.45
39.49
36.70
33.28
29.49
25.56
21.57
17.47
13.09
8.28
2.93
-3.04
-9.76
-17.45
-26.28
-36.18
-46.52
-55.97
-62.62
-64.56
-60.54
-50.57
-36.03
-19.41
-3.50
9.42
18.23
23.10
25.19
26.08
27.12
29.09
32.08
35.72
39.47
42.93
45.89
48.26
49.89
50.50
49.71
47.31
43.38
38.29
32.39
25.85
18.58
10.62
2.48
-4.53
-8.55
-7.87
-1.78
8.99
22.41
35.93
47.45
55.95
61.54
65.00
67.17
68.51
69.16
69.03
68.12
66.53
64.38
61.71
58.49
54.74
50.62
46.45
42.55
39.07
35.85
32.37
27.83
21.39
12.53
1.37
-11.04
-22.83
-31.65
-35.54
-33.66
-26.75
-17.00
-7.25
0.05
3.61
3.56
1.07
-2.41
-5.79
-8.64
-11.13
-13.62
-16.47
-19.82
-23.62
-27.77
-32.09
-36.45
-40.71
-44.86
-48.99
-53.28
-58.03
-63.61
-70.39
-78.61
-88.15
-98.23
-107.27
-113.05
-113.26
-106.37
-92.28
-72.61
-50.15
-28.04
-8.76
6.40
17.44
25.10
30.39
34.10
36.65
38.26
39.08
39.25
38.87
37.90
36.15
33.44
29.75
25.31
20.56
15.92
11.54
7.15
2.12
-4.21
-12.14
-21.21
-30.13
-37.05
-40.08
-37.97
-30.61
-19.18
-5.77
7.29
18.14
25.92
30.74
33.34
34.56
34.96
34.70
33.69
31.80
29.02
25.45
21.32
16.91
12.55
8.56
5.20
2.54
0.39
-1.70
-4.40
-8.43
-14.30
-22.03
-30.86
-39.28
-45.23
-46.79
-42.90
-33.82
-21.16
-7.30
5.42
15.43
22.23
26.16
27.94
28.20
27.33
25.55
23.12
20.42
17.90
15.90
14.50
13.50
12.53
11.14
9.08
6.24
2.64
-1.76
-7.17
-13.90
-22.00
-30.95
-39.44
-45.57
-47.43
-43.90
-35.18
-22.85
-9.33
2.95
12.30
18.11
20.67
20.71
18.93
15.84
11.80
7.19
2.49
-1.78
-5.31
-8.06
-10.34
-12.57
-15.09
-17.96
-21.07
-24.28
-27.64
-31.47
-36.20
-42.05
-48.64
-54.83
-58.89
-59.01
-54.04
-44.08
-30.57
-15.84
-2.37
8.15
15.15
19.16
21.28
22.56
23.60
24.47
24.92
24.72
23.80
22.34
20.58
18.70
16.81
14.80
12.55
9.88
6.72
2.94
-1.60
-7.11
-13.71
-21.20
-28.70
-34.76
-37.66
-36.08
-29.72
-19.54
-7.52
4.05
13.44
19.87
23.53
25.19
25.63
25.34
24.46
22.99
20.96
18.59
16.21
14.05
12.21
10.54
8.76
6.58
3.83
0.45
-3.57
-8.33
-14.09
-21.09
-29.24
-37.75
-45.07
-49.31
-48.87
-43.11
-32.80
-19.76
-6.36
5.35
14.16
19.83
22.84
23.97
23.97
23.34
22.41
21.31
20.11
18.79
17.34
15.74
13.99
12.11
10.07
7.87
5.40
2.52
-1.03
-5.62
-11.60
-19.10
-27.71
-36.33
-43.25
-46.63
-45.18
-38.70
-28.30
-16.06
-4.25
5.38
12.07
15.99
17.85
18.36
17.96
16.75
14.69
11.85
8.53
5.17
2.23
-0.11
-1.94
-3.60
-5.53
-8.11
-11.59
-16.17
-22.03
-29.27
-37.69
-46.55
-54.45
-59.63
-60.51
-56.36
-47.63
-35.93
-23.40
-12.07
-3.31
2.42
5.37
6.25
5.84
4.81
3.61
2.51
1.59
0.87
0.31
-0.15
-0.59
-1.16
-2.08
-3.63
-6.14
-9.92
-15.24
-22.22
-30.65
-39.72
-48.03
-53.78
-55.27
-51.52
-42.69
-30.17
-16.11
-2.77
8.15
15.86
20.46
22.62
23.13
22.69
21.72
20.49
19.16
17.83
16.60
15.49
14.42
13.25
11.77
9.75
7.03
3.41
-1.33
-7.41
-14.86
-23.32
-31.79
-38.71
-42.24
-40.91
-34.25
-23.09
-9.38
4.46
16.34
25.15
30.87
34.24
36.16
37.23
37.56
37.03
35.53
33.23
30.51
27.77
25.26
23.02
20.93
18.81
16.51
13.81
10.44
6.00
0.16
-7.09
-15.13
-22.57
-27.47
-27.96
-22.88
-12.36
2.08
17.98
32.73
44.34
51.94
55.77
56.79
56.07
54.38
52.01
48.93
45.02
40.36
35.33
30.48
26.27
22.82
19.86
16.75
12.79
7.37
0.25
-8.56
-18.64
-29.20
-38.97
-46.35
-49.80
-48.23
-41.60
-31.00
-18.35
-5.81
4.90
12.88
18.01
20.69
21.44
20.68
18.75
15.99
12.85
9.84
7.36
5.57
4.29
3.06
1.35
-1.30
-5.20
-10.59
-17.59
-26.21
-36.04
-45.99
-54.25
-58.67
-57.47
-50.02
-37.26
-21.45
-5.39
8.56
19.10
26.08
30.10
31.94
32.13
30.98
28.76
25.90
23.05
20.81
19.51
19.00
18.69
17.76
15.54
11.65
6.09
-0.97
-9.32
-18.68
-28.49
-37.63
-44.44
-47.08
-44.30
-36.04
-23.62
-9.36
4.30
15.61
23.98
29.77
33.73
36.42
37.95
38.09
36.65
33.71
29.76
25.47
21.46
18.02
15.07
12.17
8.78
4.35
-1.44
-8.72
-17.45
-27.47
-38.33
-49.03
-58.11
-63.63
-63.95
-58.23
-47.08
-32.44
-16.95
-3.03
7.93
15.72
21.04
24.80
27.60
29.56
30.48
30.18
28.70
26.31
23.36
20.19
16.96
13.80
10.72
7.66
4.46
0.84
-3.57
-9.22
-16.39
-25.01
-34.40
-43.16
-49.46
-51.43
-47.83
-38.64
-25.13
-9.59
5.41
17.84
26.71
32.17
35.10
36.60
37.50
38.17
38.59
38.61
38.03
36.79
34.91
32.43
29.44
26.02
22.36
18.67
15.08
11.53
7.65
2.88
-3.42
-11.58
-21.27
-31.32
-39.84
-44.75
-44.47
-38.57
-27.96
-14.68
-1.19
10.45
19.12
24.72
27.87
29.42
30.07
30.19
29.96
29.44
28.68
27.61
26.14
24.12
21.51
18.43
15.12
11.83
8.59
5.16
1.16
-3.81
-10.04
-17.60
-26.32
-35.64
-44.46
-51.20
-54.03
-51.53
-43.36
-30.58
-15.49
-0.88
10.98
19.01
23.43
25.37
26.10
26.44
26.64
26.48
25.70
24.23
22.23
20.00
17.74
15.44
12.85
9.69
5.76
1.06
-4.30
-10.33
-17.18
-25.09
-34.07
-43.43
-51.64
-56.69
-56.69
-50.75
-39.46
-24.88
-9.73
3.46
13.25
19.57
23.37
25.97
28.35
30.73
32.65
33.42
32.59
30.28
27.10
23.87
21.16
19.05
17.17
14.98
12.01
8.12
3.28
-2.61
-9.79
-18.52
-28.56
-38.81
-47.26
-51.56
-49.89
-41.89
-28.89
-13.51
1.38
13.67
22.57
28.46
32.19
34.51
35.72
35.88
35.09
33.76
32.37
31.23
30.19
28.70
26.14
22.20
17.12
11.54
6.19
1.51
-2.49
-6.36
-10.98
-17.26
-25.80
-36.50
-48.34
-59.41
-67.40
-70.26
-67.00
-58.14
-45.55
-31.82
-19.35
-9.64
-3.05
1.03
3.60
5.52
7.22
8.70
9.68
9.88
9.21
7.81
5.95
3.88
1.69
-0.77
-3.79
-7.75
-12.97
-19.60
-27.72
-37.32
-48.24
-59.97
-71.38
-80.67
-85.71
-84.71
-77.10
-63.92
-47.63
-31.22
-17.15
-6.50
1.12
7.00
12.48
18.23
24.15
29.67
34.31
37.91
40.73
43.13
45.34
47.35
48.93
49.77
49.64
48.47
46.20
42.74
37.81
31.11
22.57
12.84
3.53
-3.02
-4.41
0.80
12.33
28.04
44.71
59.24
69.71
75.87
78.73
79.72
79.90
79.66
78.91
77.47
75.28
72.39
68.88
64.66
59.62
53.69
47.07
40.08
33.07
26.20
19.32
12.04
3.83
-5.72
-16.70
-28.55
-39.97
-49.05
-53.78
-52.72
-45.74
-34.22
-20.69
-8.05
1.43
6.76
8.22
7.03
4.55
1.84
-0.60
-2.67
-4.51
-6.22
-7.89
-9.59
-11.42
-13.52
-16.00
-18.91
-22.24
-26.01
-30.34
-35.40
-41.50
-48.93
-57.75
-67.55
-77.19
-84.82
-88.28
-85.80
-76.71
-61.93
-43.76
-25.15
-8.77
3.82
12.36
17.60
20.74
22.80
24.36
25.61
26.53
27.05
27.13
26.74
25.83
24.33
22.28
19.83
17.18
14.51
11.81
8.79
4.87
-0.63
-8.24
-17.87
-28.58
-38.52
-45.39
-47.10
-42.54
-32.18
-17.88
-2.38
11.66
22.39
29.14
32.26
32.67
31.34
28.98
26.10
23.09
20.32
18.15
16.79
16.16
15.88
15.40
14.28
12.33
9.67
6.59
3.22
-0.71
-5.84
-12.95
-22.28
-33.06
-43.39
-50.66
-52.50
-47.73
-36.95
-22.39
-7.12
5.98
15.08
19.67
20.38
18.41
15.01
11.25
7.90
5.50
4.41
4.70
6.18
8.41
10.85
12.94
14.27
14.59
13.81
11.91
8.81
4.33
-1.78
-9.62
-18.81
-28.19
-35.89
-39.76
-38.10
-30.43
-17.77
-2.43
12.80
25.57
34.58
39.77
41.85
41.80
40.37
37.96
34.78
31.18
27.64
24.75
22.96
22.34
22.61
23.21
23.61
23.38
22.21
19.78
15.67
9.46
1.02
-9.13
-19.55
-28.16
-32.85
-32.23
-26.29
-16.44
-5.00
5.58
13.52
18.12
19.61
18.73
16.30
12.92
9.02
4.97
1.20
-1.85
-3.90
-4.96
-5.41
-5.81
-6.67
-8.29
-10.72
-13.89
-17.78
-22.52
-28.18
-34.57
-40.91
-45.77
-47.46
-44.64
-36.95
-25.33
-11.76
1.35
12.01
19.15
22.75
23.44
22.07
19.32
15.61
11.26
6.66
2.32
-1.26
-3.78
-5.27
-6.13
-6.90
-8.16
-10.33
-13.70
-18.46
-24.70
-32.31
-40.74
-48.86
-54.97
-57.26
-54.45
-46.32
-34.12
-20.11
-6.83
3.73
10.70
14.32
15.50
15.17
13.91
11.85
8.97
5.41
1.65
-1.65
-3.93
-5.04
-5.43
-5.89
-7.35
-10.54
-15.84
-23.18
-32.12
-41.78
-50.94
-57.99
-61.37
-59.90
-53.36
-42.70
-29.87
-17.19
-6.57
1.03
5.65
7.98
8.75
8.40
7.05
4.77
1.85
-1.06
-3.21
-4.13
-3.89
-3.20
-3.14
-4.73
-8.73
-15.31
-24.10
-34.13
-43.86
-51.36
-54.70
-52.55
-44.71
-32.35
-17.73
-3.43
8.48
17.09
22.68
26.21
28.70
30.63
31.96
32.33
31.50
29.64
27.23
24.85
22.87
21.34
19.92
18.12
15.41
11.37
5.68
-1.75
-10.68
-20.43
-29.71
-36.79
-39.93
-37.92
-30.64
-19.22
-5.76
7.35
18.23
25.99
30.82
33.53
35.05
35.95
36.36
36.15
35.26
33.82
32.15
30.51
28.98
27.32
25.20
22.28
18.36
13.41
7.43
0.43
-7.49
-15.92
-23.89
-30.04
-32.79
-31.02
-24.50
-14.21
-2.00
9.97
19.92
26.89
30.81
32.28
32.10
30.97
29.35
27.44
25.34
23.10
20.85
18.68
16.65
14.69
12.61
10.12
6.98
3.02
-1.80
-7.61
-14.51
-22.52
-31.28
-39.79
-46.39
-49.17
-46.71
-38.77
-26.52
-12.29
1.36
12.42
19.94
24.08
25.64
25.60
24.68
23.20
21.29
19.05
16.71
14.59
12.95
11.82
10.91
9.76
7.87
4.92
0.86
-4.29
-10.49
-17.76
-25.99
-34.56
-42.21
-47.15
-47.70
-43.00
-33.50
-20.88
-7.48
4.60
14.09
20.69
24.88
27.33
28.55
28.75
28.02
26.47
24.40
22.23
20.29
18.77
17.57
16.40
14.91
12.76
9.78
5.88
1.04
-4.83
-11.84
-20.03
-28.93
-37.47
-43.93
-46.48
-43.83
-35.94
-24.17
-10.86
1.45
10.98
17.15
20.49
22.04
22.76
23.08
22.98
22.25
20.77
18.71
16.40
14.18
12.19
10.29
8.16
5.46
1.91
-2.62
-8.20
-14.92
-22.87
-31.97
-41.69
-50.85
-57.74
-60.59
-58.22
-50.69
-39.33
-26.40
-14.21
-4.30
2.88
7.80
11.29
13.95
15.87
16.81
16.50
15.11
13.20
11.53
10.66
10.58
10.71
10.13
7.92
3.48
-3.34
-12.28
-22.67
-33.35
-42.75
-49.03
-50.58
-46.56
-37.40
-24.78
-11.03
1.62
11.86
19.48
24.97
29.06
32.13
34.15
34.86
34.12
32.20
29.61
26.98
24.75
23.02
21.58
20.00
17.77
14.48
9.87
3.82
-3.52
-11.71
-19.82
-26.52
-30.23
-29.59
-24.02
-14.03
-1.22
12.24
24.37
33.99
40.86
45.50
48.57
50.52
51.47
51.40
50.40
48.76
46.84
45.01
43.31
41.59
39.54
36.83
33.22
28.64
23.07
16.45
8.70
-0.21
-9.94
-19.57
-27.47
-31.72
-30.82
-24.36
-13.46
-0.42
12.03
21.76
27.88
30.78
31.51
31.18
30.45
29.46
28.14
26.40
24.30
22.04
19.84
17.85
16.15
14.62
13.05
11.06
8.26
4.27
-1.09
-7.80
-15.47
-23.24
-29.91
-34.02
-34.29
-30.06
-21.69
-10.63
1.03
11.27
18.82
23.37
25.49
26.00
25.61
24.65
23.22
21.35
19.25
17.22
15.50
14.18
13.11
12.01
10.53
8.44
5.51
1.63
-3.32
-9.39
-16.42
-23.90
-30.87
-36.03
-38.03
-35.94
-29.67
-20.08
-8.82
2.24
11.53
18.14
21.95
23.33
22.89
21.26
19.05
16.75
14.75
13.24
12.13
11.15
9.95
8.22
5.91
3.15
0.09
-3.21
-6.99
-11.68
-17.58
-24.47
-31.40
-36.73
-38.75
-36.28
-29.35
-19.25
-8.12
1.94
9.58
14.57
17.50
19.17
20.05
20.12
19.11
16.98
14.12
11.29
9.19
8.13
7.80
7.52
6.64
4.84
2.18
-1.06
-4.75
-9.07
-14.34
-20.69
-27.59
-33.76
-37.48
-37.32
-32.77
-24.58
-14.48
-4.54
3.62
9.26
12.60
14.32
15.15
15.51
15.43
14.78
13.45
11.53
9.27
6.97
4.90
3.14
1.58
-0.01
-1.87
-4.22
-7.24
-11.09
-15.95
-21.79
-28.25
-34.40
-38.91
-40.36
-37.82
-31.30
-21.84
-11.21
-1.29
6.52
11.60
14.15
14.85
14.51
13.71
12.67
11.35
9.57
7.29
4.78
2.50
0.93
0.24
0.15
0.02
-0.87
-3.06
-6.69
-11.70
-17.85
-24.85
-32.10
-38.60
-42.93
-43.61
-39.72
-31.42
-20.02
-7.69
3.39
11.62
16.46
18.33
18.23
17.18
15.82
14.32
12.56
10.45
8.11
5.93
4.34
3.53
3.30
3.10
2.32
0.49
-2.52
-6.67
-11.88
-18.08
-25.12
-32.42
-38.89
-43.04
-43.48
-39.56
-31.66
-21.20
-10.18
-0.46
6.73
11.06
12.93
13.04
12.14
10.77
9.23
7.68
6.19
4.83
3.59
2.42
1.28
0.05
-1.36
-3.08
-5.21
-7.88
-11.28
-15.62
-21.02
-27.35
-33.97
-39.71
-43.13
-42.97
-38.73
-30.98
-21.18
-11.19
-2.58
3.82
7.97
10.32
11.41
11.59
11.03
9.89
8.47
7.13
6.22
5.89
5.95
5.96
5.45
4.12
1.90
-1.07
-4.65
-8.88
-13.99
-20.29
-27.71
-35.55
-42.51
-46.93
-47.45
-43.55
-35.86
-25.91
-15.64
-6.67
0.14
4.76
7.75
9.79
11.32
12.46
13.09
13.09
12.49
11.49
10.36
9.25
8.20
7.03
5.51
3.50
0.95
-2.16
-5.92
-10.59
-16.42
-23.43
-31.11
-38.30
-43.45
-45.10
-42.51
-36.01
-26.94
-17.18
-8.40
-1.57
3.22
6.44
8.65
10.19
11.05
11.08
10.28
8.96
7.61
6.72
6.47
6.65
6.72
6.14
4.50
1.68
-2.28
-7.34
-13.47
-20.55
-28.09
-35.10
-40.18
-41.94
-39.55
-33.14
-23.90
-13.66
-4.21
3.31
8.65
12.30
14.99
17.28
19.26
20.67
21.15
20.51
18.85
16.59
14.26
12.26
10.70
9.32
7.55
4.76
0.42
-5.66
-13.30
-21.88
-30.41
-37.62
-42.18
-42.98
-39.50
-32.03
-21.70
-10.20
0.75
9.97
16.98
22.02
25.68
28.46
30.53
31.73
31.81
30.65
28.47
25.79
23.24
21.23
19.75
18.38
16.47
13.45
9.02
3.21
-3.73
-11.45
-19.44
-26.89
-32.63
-35.27
-33.77
-27.90
-18.49
-7.33
3.55
12.63
19.28
23.81
26.99
29.49
31.58
33.13
33.85
33.57
32.37
30.50
28.27
25.90
23.47
21.00
18.40
15.62
12.57
9.08
4.88
-0.47
-7.35
-15.75
-24.99
-33.57
-39.49
-40.91
-36.97
-28.25
-16.68
-4.79
5.24
12.38
16.83
19.61
21.76
23.80
25.59
26.64
26.57
25.38
23.43
21.21
19.03
16.91
14.62
11.89
8.63
4.86
0.67
-4.01
-9.41
-15.79
-23.02
-30.36
-36.39
-39.43
-38.17
-32.31
-22.76
-11.33
-0.05
9.55
16.82
21.97
25.59
28.28
30.31
31.66
32.21
31.91
30.85
29.25
27.36
25.41
23.54
21.75
19.90
17.68
14.72
10.66
5.24
-1.65
-9.89
-19.04
-28.24
-36.15
-41.20
-42.01
-37.91
-29.33
-17.74
-5.20
6.38
15.80
22.75
27.56
30.79
32.92
34.17
34.74
34.88
34.83
34.81
34.76
34.37
33.22
30.98
27.63
23.54
19.23
15.20
11.60
8.21
4.39
-0.58
-7.21
-15.45
-24.49
-32.95
-39.14
-41.58
-39.54
-33.21
-23.69
-12.57
-1.50
8.26
16.09
21.92
26.09
28.99
30.98
32.25
32.95
33.23
33.26
33.14
32.82
32.05
30.43
27.65
23.66
18.80
13.71
9.03
5.11
1.76
-1.69
-6.13
-12.23
-20.12
-29.10
-37.73
-44.29
-47.24
-45.78
-40.08
-31.23
-20.80
-10.40
-1.18
6.35
12.19
16.63
19.96
22.39
24.04
25.06
25.71
26.21
26.73
27.17
27.29
26.73
25.22
22.71
19.38
15.56
11.64
7.84
4.11
0.11
-4.69
-10.77
-18.12
-26.08
-33.29
-38.06
-38.99
-35.58
-28.44
-19.12
-9.47
-0.93
5.77
10.63
14.09
16.56
18.29
19.34
19.75
19.64
19.19
18.56
17.73
16.61
15.05
12.99
10.49
7.72
4.87
2.00
-0.91
-4.13
-8.05
-13.08
-19.48
-27.03
-34.80
-41.27
-44.68
-43.67
-37.93
-28.33
-16.76
-5.34
4.24
11.26
15.87
18.80
20.81
22.35
23.56
24.38
24.74
24.62
24.05
23.04
21.62
19.80
17.60
15.10
12.39
9.49
6.39
2.96
-1.00
-5.78
-11.66
-18.70
-26.51
-34.14
-40.18
-43.09
-41.84
-36.28
-27.34
-16.72
-6.32
2.39
8.75
12.88
15.43
17.20
18.73
20.29
21.82
23.13
24.00
24.24
23.75
22.49
20.49
17.84
14.73
11.29
7.71
4.08
0.46
-3.19
-7.08
-11.54
-16.95
-23.54
-31.13
-38.93
-45.60
-49.55
-49.48
-44.93
-36.50
-25.73
-14.58
-4.65
3.20
9.00
13.34
16.88
19.94
22.49
24.27
25.14
25.25
24.97
24.63
24.28
23.66
22.40
20.33
17.61
14.67
11.94
9.55
7.24
4.45
0.54
-4.92
-11.84
-19.58
-26.91
-32.34
-34.47
-32.48
-26.52
-17.80
-8.16
0.46
6.74
10.33
11.75
11.96
11.89
12.01
12.28
12.42
12.12
11.27
9.96
8.33
6.50
4.52
2.40
0.15
-2.12
-4.38
-6.77
-9.67
-13.58
-18.84
-25.31
-32.12
-37.80
-40.66
-39.47
-34.03
-25.35
-15.34
-6.14
0.65
4.52
5.94
6.01
5.72
5.53
5.31
4.60
3.06
0.65
-2.30
-5.32
-8.12
-10.63
-12.97
-15.27
-17.59
-19.88
-22.08
-24.28
-26.69
-29.48
-32.56
-35.29
-36.62
-35.43
-31.00
-23.44
-13.79
-3.72
5.05
11.38
15.03
16.68
17.39
18.18
19.50
21.27
23.00
24.17
24.49
23.94
22.78
21.35
19.92
18.69
17.71
16.93
16.11
14.90
12.81
9.34
4.27
-2.19
-9.36
-16.02
-20.77
-22.38
-20.16
-14.20
-5.47
4.51
14.07
21.89
27.33
30.53
32.14
33.04
33.88
34.89
35.97
36.77
36.97
36.32
34.68
31.97
28.14
23.33
17.86
12.22
6.94
2.28
-1.87
-6.09
-11.12
-17.55
-25.40
-33.91
-41.62
-46.81
-48.07
-44.85
-37.64
-27.81
-17.13
-7.24
0.83
6.69
10.51
12.75
13.97
14.60
15.00
15.30
15.48
15.35
14.71
13.48
11.71
9.67
7.54
5.38
3.06
0.31
-3.08
-7.28
-12.34
-18.25
-24.83
-31.58
-37.50
-41.21
-41.40
-37.36
-29.44
-19.11
-8.45
0.62
6.95
10.42
11.76
11.98
11.98
12.27
13.02
14.13
15.34
16.39
16.99
16.90
16.04
14.46
12.25
9.48
6.08
1.88
-3.32
-9.61
-16.82
-24.44
-31.55
-37.01
-39.70
-38.86
-34.42
-27.01
-17.87
-8.42
0.13
7.09
12.32
16.05
18.61
20.20
20.95
20.88
20.12
18.86
17.32
15.71
14.14
12.64
11.17
9.65
7.98
5.98
3.47
0.21
-4.05
-9.44
-15.79
-22.47
-28.31
-31.88
-31.90
-27.81
-20.11
-10.23
-0.04
8.84
15.50
19.91
22.57
24.11
24.89
25.03
24.54
23.48
22.08
20.55
19.01
17.33
15.32
12.81
9.82
6.58
3.41
0.45
-2.50
-5.93
-10.44
-16.30
-23.14
-29.86
-34.87
-36.66
-34.41
-28.31
-19.50
-9.69
-0.53
6.85
12.11
15.51
17.64
18.99
19.93
20.56
20.85
20.75
20.23
19.26
17.88
16.11
14.02
11.67
9.10
6.32
3.24
-0.34
-4.71
-10.04
-16.23
-22.66
-28.32
-31.92
-32.46
-29.56
-23.66
-15.88
-7.55
0.21
6.70
11.61
14.86
16.45
16.53
15.39
13.46
11.18
8.81
6.46
4.08
1.68
-0.56
-2.43
-3.81
-4.87
-6.05
-8.00
-11.28
-16.15
-22.39
-29.23
-35.49
-39.83
-41.20
-39.12
-33.95
-26.67
-18.51
-10.56
-3.45
2.57
7.44
11.13
13.56
14.69
14.54
13.26
11.05
8.24
5.12
2.07
-0.52
-2.41
-3.63
-4.45
-5.43
-7.16
-10.08
-14.40
-20.02
-26.45
-32.84
-38.06
-40.80
-39.97
-35.09
-26.50
-15.41
-3.60
7.12
15.39
20.61
23.00
23.33
22.56
21.50
20.59
19.90
19.25
18.41
17.28
15.92
14.43
12.87
11.14
9.08
6.49
3.23
-0.81
-5.80
-11.86
-18.95
-26.57
-33.64
-38.67
-40.16
-37.29
-30.33
-20.71
-10.54
-1.86
4.10
7.16
8.10
8.08
8.08
8.56
9.35
9.98
10.02
9.41
8.41
7.42
6.66
6.02
5.11
3.52
1.09
-2.10
-5.78
-9.78
-14.15
-19.01
-24.28
-29.39
-33.28
-34.76
-32.99
-27.87
-20.19
-11.28
-2.51
5.17
11.38
16.26
20.09
22.99
24.85
25.39
24.44
22.08
18.71
14.89
11.12
7.67
4.56
1.63
-1.25
-4.19
-7.25
-10.67
-14.79
-19.99
-26.27
-33.13
-39.35
-43.36
-43.76
-39.82
-31.92
-21.37
-10.05
0.25
8.37
13.91
17.15
18.71
19.29
19.41
19.33
19.07
18.56
17.75
16.70
15.61
14.64
13.80
12.86
11.35
8.81
4.92
-0.28
-6.52
-13.39
-20.52
-27.43
-33.46
-37.64
-38.87
-36.37
-30.08
-20.90
-10.41
-0.27
8.27
14.72
19.20
22.12
23.81
24.46
24.22
23.34
22.22
21.26
20.73
20.55
20.40
19.84
18.50
16.26
13.25
9.74
5.97
2.07
-2.07
-6.73
-12.24
-18.67
-25.73
-32.57
-37.91
-40.46
-39.28
-34.18
-25.86
-15.67
-5.18
4.21
11.69
17.01
20.36
22.16
22.80
22.64
21.95
20.97
19.89
18.82
17.72
16.46
14.80
12.56
9.65
6.10
2.09
-2.16
-6.46
-10.80
-15.37
-20.53
-26.49
-33.09
-39.50
-44.42
-46.36
-44.30
-38.16
-28.91
-18.29
-8.14
0.23
6.36
10.56
13.41
15.36
16.52
16.77
16.09
14.75
13.32
12.43
12.35
12.78
13.01
12.18
9.79
5.91
1.12
-3.89
-8.75
-13.61
-19.00
-25.31
-32.27
-38.78
-43.21
-44.01
-40.47
-32.94
-22.66
-11.26
-0.16
9.65
17.61
23.47
27.32
29.70
31.71
34.91
40.95
50.97
64.96
81.48
97.87
111.10
118.80
120.07
115.69
107.62
97.88
87.51
76.26
63.11
47.48
30.26
13.87
1.37
-5.11
-5.42
-1.42
4.01
8.43
10.70
11.07
10.41
9.41
8.05
5.74
1.90
-3.64
-10.41
-17.65
-24.68
-31.13
-36.92
-42.03
-46.34
-49.60
-51.64
-52.67
-53.44
-55.17
-58.95
-65.20
-73.23
-81.14
-86.37
-86.61
-80.64
-68.87
-53.36
-37.38
-24.70
-18.55
-20.43
-29.08
-40.39
-48.40
-47.45
-34.62
-11.33
16.94
42.85
60.16
66.09
61.88
51.49
39.35
28.31
19.09
10.93
2.79
-5.68
-14.00
-21.44
-27.68
-33.19
-38.80
-45.07
-51.60
-56.94
-59.14
-56.68
-49.35
-38.51
-26.67
-16.77
-11.18
-11.21
-16.90
-27.07
-39.43
-50.88
-57.97
-57.81
-48.91
-31.81
-9.00
15.80
38.80
57.13
69.39
75.43
75.77
71.05
61.79
48.79
33.54
18.51
6.75
0.99
2.55
10.69
22.84
35.52
45.70
51.85
54.12
53.68
51.64
48.33
43.27
35.91
26.49
16.42
7.94
2.98
2.26
4.83
8.58
11.23
11.34
8.69
3.98
-1.95
-8.65
-16.02
-23.83
-31.18
-36.43
-37.81
-34.30
-26.31
-15.64
-4.74
4.29
10.57
14.49
17.23
19.87
22.83
25.70
27.64
27.96
26.53
23.79
20.57
17.67
15.52
14.08
12.97
11.68
9.80
7.09
3.49
-1.01
-6.38
-12.49
-18.87
-24.62
-28.50
-29.25
-26.05
-18.97
-9.03
2.06
12.45
20.70
26.20
29.13
30.28
30.55
30.64
30.80
30.94
30.79
30.12
28.89
27.11
24.91
22.33
19.45
16.33
13.15
10.02
6.88
3.35
-1.21
-7.39
-15.35
-24.47
-33.30
-39.94
-42.61
-40.39
-33.53
-23.50
-12.37
-2.16
5.89
11.49
15.13
17.57
19.42
20.89
21.87
22.22
21.92
21.16
20.16
19.08
17.83
16.18
13.93
11.00
7.51
3.75
-0.08
-3.99
-8.28
-13.35
-19.40
-26.10
-32.43
-36.90
-37.97
-34.80
-27.60
-17.64
-6.83
2.93
10.42
15.29
17.95
19.11
19.32
18.80
17.46
15.19
12.11
8.67
5.52
3.24
2.04
1.61
1.34
0.44
-1.65
-5.14
-9.94
-15.75
-22.20
-28.80
-34.81
-39.13
-40.59
-38.29
-32.12
-22.98
-12.57
-2.80
4.92
10.06
12.90
14.16
14.47
14.16
13.24
11.73
9.83
7.85
6.06
4.47
2.76
0.47
-2.78
-7.08
-12.28
-18.10
-24.39
-31.09
-38.06
-44.79
-50.27
-53.11
-52.08
-46.61
-37.23
-25.42
-13.13
-2.11
6.67
13.11
17.76
21.31
24.16
26.30
27.49
27.53
26.55
24.99
23.39
22.27
21.80
21.82
21.90
21.46
19.98
17.02
12.41
6.30
-0.75
-7.70
-13.27
-16.23
-15.76
-11.76
-4.91
3.57
12.27
20.01
26.06
30.22
32.71
33.86
34.00
33.27
31.69
29.31
26.30
23.09
20.16
17.94
16.45
15.38
14.17
12.26
9.37
5.47
0.65
-5.02
-11.47
-18.35
-24.89
-29.78
-31.67
-29.69
-23.96
-15.66
-6.64
1.33
7.15
10.63
12.27
12.74
12.53
11.77
10.34
8.20
5.53
2.72
0.21
-1.69
-2.97
-3.85
-4.64
-5.64
-7.11
-9.23
-12.20
-16.30
-21.69
-28.28
-35.43
-41.95
-46.26
-46.93
-43.24
-35.50
-25.05
-13.81
-3.67
4.05
8.90
11.13
11.46
10.66
9.29
7.67
6.00
4.47
3.23
2.46
2.21
2.34
2.50
2.22
1.09
-1.12
-4.40
-8.59
-13.51
-18.89
-24.33
-29.01
-31.77
-31.38
-27.08
-19.04
-8.50
2.61
12.39
19.57
23.88
25.79
26.11
25.54
24.45
22.98
21.26
19.48
17.90
16.76
16.08
15.73
15.45
15.00
14.13
12.60
10.06
6.21
0.96
-5.35
-11.86
-17.26
-20.20
-19.68
-15.47
-8.19
0.82
9.98
17.91
23.72
27.14
28.34
27.77
25.94
23.33
20.35
17.40
14.83
12.87
11.57
10.76
10.05
9.00
7.21
4.43
0.58
-4.40
-10.44
-17.41
-24.89
-32.09
-37.87
-41.05
-40.78
-36.90
-30.03
-21.43
-12.61
-4.79
1.28
5.41
7.81
8.85
8.80
7.86
6.15
3.88
1.35
-1.03
-2.94
-4.25
-5.14
-6.02
-7.46
-9.96
-13.87
-19.26
-25.84
-32.94
-39.41
-43.89
-45.05
-42.16
-35.34
-25.67
-14.82
-4.54
3.95
10.21
14.47
17.25
19.00
19.84
19.69
18.52
16.53
14.24
12.21
10.80
9.91
9.05
7.56
4.91
0.95
-4.16
-10.08
-16.47
-22.92
-28.83
-33.22
-34.94
-33.07
-27.39
-18.65
-8.46
1.44
9.72
15.89
20.17
23.07
24.93
25.73
25.30
23.64
21.09
18.33
16.01
14.52
13.76
13.38
12.89
11.95
10.38
8.06
4.77
0.26
-5.59
-12.43
-19.29
-24.71
-27.19
-25.77
-20.48
-12.37
-3.12
5.45
12.09
16.32
18.40
18.96
18.65
17.90
16.93
15.77
14.52
13.29
12.19
11.31
10.55
9.68
8.38
6.43
3.73
0.37
-3.60
-8.19
-13.49
-19.45
-25.62
-30.98
-34.15
-33.85
-29.51
-21.68
-11.90
-2.15
5.87
11.32
14.32
15.54
15.79
15.58
15.09
14.30
13.27
12.20
11.28
10.64
10.15
9.48
8.30
6.38
3.72
0.49
-3.12
-7.06
-11.51
-16.65
-22.32
-27.79
-31.73
-32.62
-29.50
-22.47
-12.89
-2.84
5.62
11.36
14.34
15.45
15.79
16.10
16.56
16.91
16.80
16.08
14.81
13.18
11.39
9.60
7.92
6.36
4.90
3.41
1.65
-0.66
-3.87
-8.34
-14.28
-21.57
-29.50
-36.67
-41.25
-41.64
-37.11
-28.27
-16.91
-5.30
4.61
11.85
16.46
19.07
20.40
20.89
20.74
20.08
19.14
18.25
17.63
17.28
16.96
16.32
15.14
13.38
11.12
8.57
5.82
2.94
-0.14
-3.67
-7.97
-13.26
-19.44
-25.82
-31.11
-33.83
-32.84
-27.92
-19.96
-10.67
-1.86
5.20
10.16
13.48
15.88
17.92
19.69
21.00
21.60
21.43
20.70
19.67
18.53
17.28
15.82
14.03
11.91
9.53
7.02
4.46
1.76
-1.29
-5.01
-9.71
-15.46
-21.92
-28.18
-32.94
-34.81
-32.86
-27.02
-18.24
-8.19
1.20
8.45
12.83
14.48
14.20
13.00
11.74
10.89
10.45
10.12
9.55
8.54
7.17
5.66
4.23
2.90
1.41
-0.67
-3.75
-8.08
-13.74
-20.68
-28.69
-37.28
-45.46
-51.77
-54.62
-52.86
-46.42
-36.51
-25.31
-15.13
-7.50
-2.72
-0.01
1.78
3.54
5.40
6.92
7.59
7.28
6.34
5.47
5.16
5.46
5.86
5.68
4.41
2.02
-1.08
-4.37
-7.57
-10.87
-14.74
-19.56
-25.14
-30.50
-34.03
-34.03
-29.45
-20.41
-8.28
4.82
16.79
26.25
32.85
37.15
40.02
42.10
43.65
44.55
44.62
43.86
42.49
40.80
38.91
36.77
34.19
31.11
27.65
24.19
21.06
18.38
15.86
12.85
8.56
2.53
-4.96
-12.73
-19.00
-21.98
-20.62
-15.08
-6.61
2.89
11.65
18.57
23.32
26.23
27.75
28.20
27.70
26.25
23.94
20.98
17.73
14.47
11.35
8.35
5.35
2.23
-1.02
-4.41
-8.04
-12.23
-17.47
-24.11
-32.03
-40.36
-47.62
-52.06
-52.42
-48.28
-40.34
-30.05
-19.17
-9.24
-1.30
4.25
7.57
9.16
9.65
9.58
9.29
8.89
8.29
7.43
6.32
5.08
3.81
2.46
0.83
-1.36
-4.32
-8.09
-12.56
-17.65
-23.27
-29.22
-34.93
-39.45
-41.62
-40.41
-35.43
-27.17
-16.93
-6.32
3.18
10.69
16.04
19.58
21.96
23.80
25.49
27.12
28.48
29.24
29.11
28.01
26.15
23.89
21.60
19.44
17.33
14.98
12.06
8.24
3.31
-2.82
-9.96
-17.55
-24.55
-29.53
-31.12
-28.40
-21.40
-11.12
0.68
12.10
21.61
28.39
32.45
34.26
34.60
34.19
33.61
33.19
32.91
32.49
31.43
29.31
25.93
21.51
16.57
11.69
7.31
3.46
-0.14
-4.00
-8.66
-14.56
-21.88
-30.42
-39.49
-47.84
-53.95
-56.34
-54.16
-47.48
-37.41
-25.66
-14.02
-3.89
4.03
9.57
13.02
14.82
15.41
15.21
14.57
13.79
13.06
12.43
11.83
11.09
10.03
8.47
6.32
3.63
0.54
-2.73
-5.97
-9.14
-12.47
-16.45
-21.51
-27.76
-34.62
-40.80
-44.59
-44.50
-39.91
-31.38
-20.60
-9.69
-0.49
6.07
10.13
12.55
14.38
16.30
18.38
20.24
21.37
21.47
20.65
19.28
17.86
16.72
15.87
15.10
13.99
12.12
9.14
4.78
-1.09
-8.45
-16.88
-25.55
-33.12
-38.13
-39.33
-36.24
-29.38
-20.17
-10.42
-1.82
4.63
8.76
11.04
12.20
12.92
13.56
14.19
14.69
14.96
14.93
14.63
14.07
13.28
12.18
10.64
8.56
5.84
2.45
-1.63
-6.41
-11.90
-18.03
-24.41
-30.29
-34.54
-36.02
-33.92
-28.16
-19.60
-9.73
-0.26
7.51
12.90
16.00
17.33
17.47
16.91
15.88
14.53
13.04
11.70
10.74
10.23
9.94
9.50
8.57
7.00
4.84
2.25
-0.66
-3.92
-7.64
-11.90
-16.68
-21.72
-26.53
-30.32
-32.15
-31.09
-26.57
-18.76
-8.73
1.76
10.90
17.41
21.04
22.45
22.73
22.81
23.06
23.24
22.91
21.80
19.98
17.81
15.69
13.74
11.84
9.71
7.10
3.85
0.03
-4.18
-8.61
-13.21
-18.04
-23.11
-28.20
-32.69
-35.58
-35.80
-32.61
-26.06
-16.99
-6.91
2.64
10.50
16.28
20.19
22.78
24.49
25.53
25.85
25.34
24.11
22.44
20.73
19.27
18.05
16.80
15.14
12.83
9.94
6.81
3.76
0.85
-2.24
-6.10
-11.17
-17.28
-23.55
-28.53
-30.72
-29.18
-23.93
-16.04
-7.25
0.65
6.40
9.64
10.91
11.24
11.56
12.33
13.39
14.21
14.27
13.40
11.87
10.19
8.79
7.76
6.83
5.55
3.52
0.52
-3.44
-8.27
-13.85
-19.95
-26.18
-31.71
-35.48
-36.40
-33.75
-27.65
-19.03
-9.49
-0.64
6.35
11.15
14.13
16.00
17.38
18.46
19.10
19.09
18.31
16.90
15.17
13.35
11.46
9.28
6.55
3.20
-0.64
-4.59
-8.42
-12.15
-16.16
-20.91
-26.44
-32.09
-36.48
-38.00
-35.55
-29.14
-19.84
-9.50
0.18
8.14
14.15
18.57
21.79
24.01
25.18
25.18
24.15
22.51
20.80
19.39
18.31
17.26
15.80
13.61
10.68
7.28
3.74
0.25
-3.40
-7.74
-13.32
-20.25
-27.89
-34.81
-39.24
-39.66
-35.46
-27.27
-16.65
-5.58
4.22
11.79
16.99
20.27
22.23
23.41
24.06
24.31
24.18
23.71
23.01
22.13
21.15
20.15
19.14
18.06
16.78
15.09
12.84
9.94
6.44
2.32
-2.55
-8.39
-15.27
-22.83
-30.02
-35.29
-37.15
-34.82
-28.62
-19.96
-10.77
-2.70
3.40
7.57
10.40
12.48
14.10
15.11
15.21
14.25
12.40
10.13
7.95
6.20
4.92
3.91
2.79
1.27
-0.82
-3.49
-6.68
-10.39
-14.75
-19.90
-25.72
-31.63
-36.53
-39.10
-38.23
-33.55
-25.58
-15.67
-5.44
3.66
10.83
15.89
19.07
20.71
21.15
20.65
19.49
18.03
16.61
15.50
14.67
13.96
13.16
12.10
10.76
9.13
7.08
4.34
0.51
-4.71
-11.28
-18.77
-26.28
-32.62
-36.59
-37.19
-34.04
-27.41
-18.31
-8.15
1.58
9.82
16.09
20.49
23.49
25.51
26.80
27.42
27.40
26.91
26.15
25.33
24.44
23.29
21.66
19.46
16.79
13.81
10.61
7.06
2.87
-2.19
-8.21
-14.90
-21.63
-27.48
-31.40
-32.41
-29.93
-23.95
-15.18
-4.95
5.10
13.55
19.49
22.71
23.54
22.60
20.54
18.00
15.47
13.35
11.80
10.67
9.64
8.31
6.44
4.10
1.59
-0.77
-2.83
-4.70
-6.76
-9.41
-13.06
-17.91
-24.03
-31.10
-38.42
-44.78
-48.74
-49.04
-45.05
-37.14
-26.54
-14.93
-3.91
5.49
12.84
18.25
22.00
24.44
25.84
26.48
26.69
26.78
26.93
27.12
27.14
26.72
25.69
24.09
22.12
20.00
17.84
15.52
12.69
8.92
3.80
-2.82
-10.84
-19.70
-28.56
-36.33
-41.91
-44.45
-43.53
-39.26
-32.27
-23.55
-14.21
-5.37
2.05
7.47
10.64
11.72
11.20
9.74
7.91
6.13
4.57
3.23
2.04
0.94
-0.06
-1.03
-2.10
-3.49
-5.39
-7.87
-10.86
-14.25
-18.05
-22.44
-27.62
-33.49
-39.47
-44.40
-46.88
-45.71
-40.43
-31.52
-20.22
-8.22
2.95
12.26
19.34
24.30
27.57
29.57
30.67
31.14
31.22
31.14
31.13
31.25
31.39
31.22
30.35
28.48
25.57
21.77
17.37
12.66
7.77
2.60
-3.05
-9.46
-16.74
-24.58
-32.13
-38.00
-40.70
-39.12
-33.05
-23.34
-11.72
-0.12
9.94
17.70
23.17
26.74
28.83
29.72
29.60
28.80
27.85
27.27
27.36
27.98
28.57
28.47
27.20
24.75
21.50
17.98
14.59
11.35
7.93
3.82
-1.54
-8.40
-16.59
-25.35
-33.37
-39.10
-41.10
-38.60
-31.85
-22.13
-11.22
-0.95
7.47
13.63
17.82
20.55
22.24
23.05
22.99
22.21
21.07
20.09
19.69
19.93
20.38
20.37
19.25
16.77
13.23
9.26
5.50
2.21
-0.87
-4.37
-9.01
-15.20
-22.75
-30.85
-38.15
-43.06
-44.25
-41.09
-33.91
-23.90
-12.77
-2.21
6.65
13.31
17.83
20.53
21.81
22.01
21.46
20.55
19.61
18.87
18.30
17.67
16.67
15.04
12.72
9.84
6.65
3.44
0.38
-2.55
-5.72
-9.65
-14.87
-21.50
-28.98
-36.11
-41.24
-42.97
-40.54
-34.23
-25.19
-15.14
-5.73
1.85
7.10
10.15
11.56
11.99
11.97
11.77
11.45
10.88
9.95
8.62
7.01
5.28
3.56
1.87
0.03
-2.19
-4.99
-8.45
-12.61
-17.45
-22.96
-28.96
-34.96
-40.07
-43.11
-43.03
-39.30
-32.22
-22.85
-12.70
-3.27
4.44
10.06
13.79
16.11
17.55
18.42
18.79
18.60
17.82
16.53
14.97
13.41
11.99
10.65
9.11
7.03
4.24
0.75
-3.32
-7.95
-13.28
-19.55
-26.75
-34.34
-41.14
-45.56
-46.22
-42.43
-34.59
-24.10
-12.87
-2.67
5.42
11.16
15.07
17.94
20.42
22.79
24.95
26.62
27.58
27.78
27.34
26.43
25.14
23.48
21.43
19.05
16.55
14.07
11.54
8.51
4.28
-1.79
-9.83
-19.06
-27.93
-34.47
-36.99
-34.68
-27.95
-18.20
-7.30
3.07
11.79
18.43
23.11
26.20
28.12
29.20
29.69
29.75
29.44
28.73
27.57
25.98
24.03
21.90
19.75
17.55
15.17
12.39
9.06
5.08
0.41
-5.09
-11.51
-18.75
-26.18
-32.54
-36.23
-35.81
-30.76
-21.75
-10.61
0.44
9.58
16.00
19.96
22.36
24.01
25.29
25.97
25.70
24.31
22.08
19.63
17.53
16.04
14.93
13.65
11.72
8.91
5.38
1.46
-2.66
-7.13
-12.39
-18.88
-26.56
-34.71
-41.88
-46.31
-46.56
-42.05
-33.32
-21.90
-9.80
1.11
9.64
15.47
18.95
20.79
21.65
21.89
21.58
20.65
19.02
16.69
13.72
10.18
6.09
1.48
-3.58
-8.90
-14.32
-19.79
-25.50
-31.81
-38.95
-46.72
-54.25
-60.01
-62.28
-59.74
-52.02
-39.99
-25.46
-10.56
2.96
14.23
23.27
30.59
36.75
41.93
46.03
48.78
50.12
50.29
49.73
48.93
48.16
47.47
46.63
45.31
43.13
39.87
35.32
29.30
21.60
12.00
0.60
-12.00
-24.47
-34.96
-41.57
-43.07
-39.40
-31.81
-22.45
-13.58
-6.95
-3.35
-2.66
-4.18
-6.94
-10.03
-12.75
-14.72
-15.87
-16.38
-16.65
-17.07
-17.96
-19.42
-21.41
-23.67
-25.96
-28.09
-30.08
-32.10
-34.54
-37.91
-42.61
-48.69
-55.61
-62.13
-66.59
-67.35
-63.31
-54.39
-41.74
-27.19
-12.81
-0.13
10.19
18.28
24.61
29.62
33.50
36.27
38.02
39.06
39.83
40.66
41.60
42.34
42.36
41.22
38.73
35.11
30.85
26.54
22.57
18.95
15.19
10.49
4.02
-4.60
-14.94
-25.67
-34.85
-40.58
-41.65
-37.92
-30.37
-20.74
-10.82
-2.00
5.04
10.26
13.96
16.50
18.18
19.19
19.65
19.71
19.47
18.89
17.86
16.33
14.30
11.93
9.41
6.85
4.29
1.66
-1.27
-4.83
-9.40
-15.35
-22.75
-31.10
-39.20
-45.30
-47.60
-44.95
-37.35
-26.00
-12.93
-0.31
10.20
17.87
22.81
25.60
26.95
27.42
27.32
26.74
25.76
24.43
22.84
21.07
19.21
17.33
15.48
13.67
11.76
9.61
6.93
3.45
-1.11
-6.92
-13.95
-21.80
-29.57
-35.95
-39.42
-38.79
-33.67
-24.66
-13.21
-1.22
9.68
18.40
24.62
28.59
30.80
31.75
31.89
31.50
30.81
29.97
29.09
28.12
26.96
25.36
23.11
19.97
15.93
11.15
6.02
0.89
-4.11
-9.25
-15.13
-22.33
-30.95
-40.14
-48.14
-52.77
-52.24
-45.95
-34.78
-20.85
-6.76
5.15
13.40
17.47
17.86
15.73
12.67
10.19
9.28
10.19
12.42
15.13
17.63
19.75
21.79
24.03
26.42
28.34
28.93
27.57
24.24
19.53
14.27
9.53
6.54
6.66
10.91
19.12
29.45
38.62
43.18
41.15
33.12
22.12
12.06
5.82
4.09
5.53
7.99
10.04
11.62
13.59
16.72
20.84
24.75
26.98
26.56
23.49
18.66
13.38
8.67
4.92
1.81
-1.41
-5.56
-11.14
-18.26
-26.59
-35.59
-44.61
-52.98
-59.92
-64.54
-65.95
-63.46
-56.98
-47.09
-35.04
-22.37
-10.51
-0.46
7.23
12.41
15.17
15.85
14.96
13.21
11.30
9.76
8.76
8.07
7.30
6.10
4.34
2.13
-0.36
-3.01
-5.88
-9.19
-13.30
-18.59
-25.25
-33.06
-41.16
-48.05
-51.89
-51.09
-44.96
-34.13
-20.49
-6.54
5.43
14.10
19.43
22.35
24.09
25.50
26.82
27.71
27.74
26.76
25.09
23.38
22.27
22.03
22.52
23.27
23.86
23.95
23.39
21.94
19.21
14.69
8.12
-0.16
-8.94
-16.34
-20.38
-19.63
-13.84
-4.02
7.83
19.41
28.78
34.88
37.64
37.80
36.48
34.74
33.25
32.12
31.12
29.87
28.21
26.16
23.98
21.86
19.76
17.41
14.46
10.67
6.02
0.68
-5.23
-11.76
-19.07
-27.08
-35.16
-41.96
-45.79
-45.20
-39.64
-29.81
-17.43
-4.68
6.59
15.30
21.25
24.87
26.86
27.86
28.36
28.61
28.71
28.62
28.23
27.44
26.26
24.74
23.02
21.15
19.15
16.97
14.56
11.82
8.51
4.22
-1.53
-9.08
-18.13
-27.54
-35.42
-39.66
-38.73
-32.32
-21.57
-8.71
3.73
13.75
20.39
23.73
24.57
23.91
22.54
20.93
19.27
17.67
16.18
14.86
13.73
12.76
11.84
10.81
9.53
7.82
5.56
2.60
-1.22
-6.17
-12.49
-20.32
-29.32
-38.58
-46.59
-51.68
-52.56
-48.86
-41.34
-31.57
-21.37
-12.19
-4.73
0.97
5.23
8.33
10.33
11.18
10.92
9.82
8.41
7.25
6.62
6.42
6.17
5.31
3.43
0.52
-3.17
-7.34
-11.94
-17.23
-23.71
-31.70
-40.94
-50.43
-58.44
-63.06
-62.71
-56.78
-45.86
-31.56
-16.14
-1.77
9.91
18.14
22.95
24.92
24.87
23.63
21.92
20.26
18.91
17.93
17.15
16.32
15.21
13.68
11.79
9.78
7.93
6.40
5.10
3.55
0.89
-3.86
-11.46
-21.99
-34.60
-47.45
-58.13
-64.44
-64.98
-59.61
-49.42
-36.21
-21.88
-7.99
4.43
14.71
22.39
27.09
28.70
27.58
24.70
21.45
19.22
18.92
20.67
23.76
27.06
29.43
30.13
29.03
26.56
23.45
20.42
17.86
15.68
13.27
9.79
4.61
-2.22
-9.67
-15.78
-18.21
-15.12
-5.97
8.17
24.81
41.07
54.72
64.97
72.51
78.95
85.79
93.73
102.53
111.31
118.94
124.30
126.39
124.70
119.70
113.24
108.49
109.17
118.13
136.19
161.54
190.35
218.03
240.65
255.86
263.00
262.78
256.65
246.51
234.41
222.29
211.61
202.86
195.42
187.72
177.77
163.79
144.90
121.51
94.97
67.17
39.60
12.81
-13.84
-41.92
-73.45
-110.42
-154.11
-204.40
-259.06
-313.73
-362.62
-400.10
-422.55
-429.52
-423.61
-409.12
-390.24
-369.69
-348.43
-326.29
-303.04
-279.03
-255.33
-233.22
-213.57
-196.39
-180.68
-164.88
-147.38
-127.25
-104.93
-82.19
-61.57
-45.36
-34.66
-29.11
-27.28
-27.51
-28.59
-29.80
-30.23
-28.41
-22.38
-10.60
6.96
28.27
49.36
65.37
71.65
64.88
43.82
9.94
-32.39
-76.57
-115.50
-143.74
-159.12
-162.72
-157.23
-144.81
-125.86
-99.68
-66.55
-29.35
6.31
34.22
50.61
55.81
53.85
50.25
49.30
52.67
59.67
68.60
78.06
87.52
97.22
107.73
119.60
133.11
148.13
163.95
179.16
191.79
199.89
202.10
198.13
188.85
176.14
162.43
150.14
141.01
135.50
132.62
130.33
126.36
119.19
108.51
94.97
79.35
62.02
42.75
21.40
-1.57
-24.65
-45.68
-62.55
-73.89
-79.35
-79.39
-74.88
-66.78
-56.09
-43.72
-30.62
-17.82
-6.59
1.63
5.49
4.30
-1.43
-9.67
-17.18
-20.44
-16.71
-4.86
14.43
39.02
65.88
91.78
113.72
129.50
137.98
139.28
134.77
126.54
116.64
106.34
95.83
84.37
70.92
54.69
35.60
14.16
-8.92
-33.13
-58.24
-84.00
-109.83
-134.57
-156.69
-174.61
-187.15
-193.79
-194.62
-190.26
-181.50
-169.15
-153.89
-136.33
-116.98
-96.40
-75.22
-54.03
-33.35
-13.52
5.30
23.06
39.69
54.96
68.44
79.65
88.19
93.72
95.79
93.69
86.48
73.37
54.29
30.26
3.38
-23.84
-49.31
-72.00
-92.20
-110.82
-128.63
-145.47
-160.09
-170.53
-175.03
-172.59
-163.26
-147.88
-127.54
-103.46
-76.92
-49.59
-23.48
-0.52
18.25
33.15
45.73
57.94
70.93
84.26
95.73
102.10
99.98
87.06
63.06
30.35
-6.06
-39.71
-64.48
-76.83
-77.18
-69.66
-60.24
-54.01
-53.14
-56.46
-61.16
-65.02
-68.16
-72.57
-79.95
-89.43
-96.66
-95.49
-80.79
-51.03
-8.60
41.42
93.56
143.30
187.09
221.58
243.07
248.50
237.01
211.22
176.83
140.50
107.17
78.41
52.68
27.09
-0.70
-31.50
-64.89
-100.18
-137.01
-175.32
-214.61
-253.31
-288.60
-317.10
-336.00
-343.89
-340.69
-327.14
-303.91
-271.37
-230.22
-182.34
-131.44
-82.52
-40.39
-8.10
13.96
27.83
36.78
43.94
51.33
59.70
68.81
77.91
86.16
92.74
96.90
97.95
95.40
89.05
79.18
66.52
52.22
37.77
24.84
14.88
8.82
6.57
6.96
8.02
7.58
4.14
-2.59
-11.64
-21.14
-29.16
-34.26
-35.87
-34.23
-30.07
-24.48
-18.61
-13.57
-10.00
-7.81
-6.10
-3.50
1.10
7.85
15.75
22.88
27.13
26.96
21.78
12.00
-1.13
-15.57
-28.83
-38.18
-41.20
-36.53
-24.24
-5.91
15.77
37.97
58.38
75.60
89.02
98.46
104.03
106.13
105.62
103.83
102.21
101.83
102.99
105.00
106.65
106.71
104.54
100.25
94.57
88.36
82.19
76.17
70.06
63.49
56.21
48.16
39.47
30.46
21.67
13.79
7.53
3.48
1.80
2.20
4.01
6.38
8.65
10.46
11.75
12.61
13.03
12.89
11.89
9.89
6.95
3.37
-0.50
-4.48
-8.65
-13.19
-18.08
-22.95
-27.04
-29.58
-30.15
-28.98
-27.00
-25.67
-26.70
-31.71
-41.73
-56.68
-75.07
-93.90
-109.21
-117.14
-115.23
-103.27
-83.51
-60.06
-37.63
-20.23
-10.08
-7.32
-10.32
-16.39
-22.76
-27.34
-29.08
-27.99
-24.76
-20.34
-15.69
-11.52
-8.31
-6.28
-5.49
-5.95
-7.71
-10.91
-15.81
-22.63
-31.37
-41.71
-52.88
-63.66
-72.54
-77.88
-78.39
-73.49
-63.61
-50.13
-35.21
-21.14
-9.83
-2.35
1.19
1.50
-0.23
-2.82
-5.30
-7.11
-8.00
-7.91
-6.89
-5.13
-3.01
-1.16
-0.24
-0.76
-2.86
-6.30
-10.66
-15.68
-21.31
-27.65
-34.55
-41.31
-46.55
-48.53
-45.73
-37.47
-24.29
-7.79
9.78
26.17
39.80
49.97
56.78
60.80
62.72
63.13
62.49
61.14
59.38
57.43
55.50
53.70
51.91
49.87
47.19
43.45
38.43
32.05
24.38
15.52
5.56
-5.34
-16.64
-27.17
-35.02
-38.10
-34.78
-24.85
-9.76
7.69
24.34
37.76
46.94
52.26
54.95
56.34
57.22
57.83
58.00
57.39
55.81
53.12
49.20
44.13
38.15
31.83
25.91
21.01
17.19
13.86
9.80
3.66
-5.60
-18.03
-32.55
-46.89
-58.13
-63.41
-60.74
-49.76
-32.05
-10.81
10.01
26.93
37.88
42.69
42.80
40.36
37.30
34.89
33.56
33.21
33.58
34.42
35.41
36.16
36.18
35.02
32.43
28.36
22.91
16.14
8.05
-1.40
-12.20
-24.09
-36.58
-48.63
-58.73
-65.00
-65.57
-59.24
-46.14
-27.88
-7.24
12.67
29.36
41.51
49.07
52.85
53.96
53.41
52.00
50.22
48.36
46.51
44.54
42.21
39.28
35.73
31.71
27.41
22.96
18.19
12.77
6.24
-1.72
-11.28
-22.24
-34.04
-45.58
-55.20
-61.01
-61.34
-55.41
-43.71
-28.16
-11.47
3.67
15.41
23.21
27.65
29.84
30.79
31.04
30.67
29.64
28.11
26.42
24.94
23.74
22.53
20.76
17.90
13.72
8.36
2.11
-4.86
-12.76
-22.11
-33.39
-46.57
-60.69
-73.77
-83.11
-86.15
-81.34
-68.82
-50.51
-29.45
-8.87
8.88
22.80
33.13
40.86
47.04
52.41
57.20
61.32
64.53
66.64
67.58
67.42
66.33
64.44
61.73
57.98
52.85
46.04
37.47
27.30
15.81
3.48
-9.00
-20.53
-29.49
-33.99
-32.48
-24.58
-11.51
3.94
18.37
28.91
34.22
34.77
32.43
29.43
27.58
27.71
29.71
32.87
36.37
39.57
42.03
43.43
43.54
42.11
39.05
34.55
29.10
23.31
17.67
12.28
6.68
0.10
-8.19
-18.33
-29.52
-40.11
-47.97
-51.21
-48.81
-40.96
-28.97
-14.73
-0.09
13.65
25.91
36.55
45.45
52.29
56.60
58.03
56.75
53.51
49.43
45.44
42.04
39.02
35.89
32.27
28.09
23.62
19.04
14.19
8.36
0.67
-9.50
-22.07
-36.09
-49.96
-61.67
-69.34
-71.44
-67.12
-56.51
-40.89
-22.56
-4.38
10.91
21.54
26.91
27.63
25.07
20.81
16.31
12.77
11.17
12.13
15.78
21.43
27.64
32.48
34.08
31.33
24.10
13.39
0.88
-11.54
-22.34
-30.64
-36.43
-40.36
-43.32
-45.92
-48.10
-49.11
-47.66
-42.56
-33.25
-20.13
-4.55
11.61
26.36
38.13
45.92
49.38
48.74
44.64
38.04
30.02
21.70
14.01
7.67
3.01
0.01
-1.70
-2.66
-3.40
-4.39
-5.91
-8.19
-11.50
-16.18
-22.58
-30.95
-41.18
-52.59
-63.90
-73.35
-79.02
-79.39
-73.76
-62.63
-47.55
-30.79
-14.68
-0.99
9.32
16.13
19.85
21.07
20.38
18.30
15.41
12.32
9.56
7.36
5.54
3.57
0.87
-2.86
-7.45
-12.26
-16.57
-20.02
-22.81
-25.74
-29.83
-35.92
-44.21
-54.17
-64.48
-73.38
-78.94
-79.65
-74.68
-64.30
-49.68
-32.67
-15.27
0.89
14.76
25.88
34.14
39.62
42.49
43.12
42.15
40.43
38.80
37.82
37.52
37.41
36.70
34.80
31.52
27.16
22.35
17.62
13.15
8.66
3.56
-2.74
-10.50
-19.49
-28.89
-37.41
-43.35
-45.16
-41.74
-33.07
-20.33
-5.65
8.45
20.01
28.04
32.63
34.59
34.78
33.86
32.23
30.19
28.13
26.44
25.27
24.42
23.26
21.10
17.51
12.55
6.67
0.53
-5.35
-10.76
-15.81
-20.90
-26.56
-33.38
-41.70
-51.31
-61.14
-69.32
-73.65
-72.34
-64.74
-51.68
-35.28
-18.19
-2.75
9.57
18.37
23.94
26.94
28.08
28.02
27.29
26.33
25.37
24.40
23.20
21.46
18.99
15.75
11.92
7.67
3.08
-1.97
-7.76
-14.66
-22.97
-32.76
-43.73
-54.97
-65.02
-71.99
-74.09
-70.18
-60.19
-45.29
-27.55
-9.44
6.87
20.00
29.42
35.37
38.50
39.62
39.45
38.62
37.57
36.59
35.74
34.83
33.52
31.44
28.35
24.25
19.31
13.83
8.02
1.92
-4.69
-12.25
-21.26
-32.01
-44.28
-57.05
-68.38
-75.81
-77.06
-70.85
-57.57
-39.21
-18.81
0.59
16.82
29.04
37.45
42.83
45.96
47.35
47.34
46.28
44.76
43.44
42.78
42.76
42.77
41.83
39.10
34.29
27.84
20.67
13.76
7.53
1.68
-4.69
-12.59
-22.64
-34.76
-47.99
-60.70
-70.86
-76.52
-76.15
-69.15
-56.10
-38.73
-19.50
-0.89
15.22
27.90
37.10
43.26
46.87
48.28
47.83
46.00
43.51
41.20
39.66
38.99
38.69
37.99
36.14
32.85
28.28
23.00
17.56
12.25
6.91
0.98
-6.20
-15.17
-26.08
-38.55
-51.56
-63.59
-72.76
-77.25
-75.75
-67.95
-54.64
-37.66
-19.37
-2.08
12.60
23.84
31.66
36.47
38.79
39.14
38.11
36.33
34.48
33.00
31.95
30.93
29.32
26.55
22.49
17.48
12.14
7.05
2.40
-2.17
-7.49
-14.57
-24.12
-36.06
-49.29
-61.68
-70.44
-73.11
-68.27
-56.21
-38.88
-19.22
-0.21
15.94
28.18
36.51
41.49
43.88
44.38
43.57
42.04
40.27
38.49
36.70
34.64
32.04
28.83
25.11
21.09
16.80
12.01
6.25
-0.96
-9.98
-20.86
-33.26
-46.35
-58.76
-68.57
-73.68
-72.32
-63.76
-48.71
-29.30
-8.51
10.76
26.47
37.83
45.13
49.28
51.27
51.80
51.22
49.70
47.38
44.53
41.48
38.45
35.45
32.30
28.72
24.59
19.93
14.92
9.57
3.58
-3.75
-13.15
-25.05
-38.97
-53.41
-65.98
-73.98
-75.15
-68.54
-54.78
-36.13
-15.74
3.15
18.26
28.58
34.39
36.71
36.66
35.13
32.61
29.47
26.03
22.65
19.59
16.87
14.26
11.42
8.15
4.50
0.73
-2.92
-6.47
-10.39
-15.46
-22.60
-32.33
-44.46
-57.91
-70.67
-80.29
-84.44
-81.56
-71.36
-54.95
-34.61
-13.19
6.58
22.73
34.40
41.81
45.88
47.83
48.69
49.20
49.69
50.22
50.66
50.77
50.28
48.93
46.50
42.85
37.98
32.03
25.28
18.04
10.46
2.44
-6.42
-16.77
-29.02
-42.90
-57.18
-69.68
-77.85
-79.51
-73.65
-60.87
-43.12
-23.19
-3.82
12.99
26.27
35.92
42.29
45.91
47.21
46.61
44.64
41.90
38.99
36.37
34.18
32.20
29.93
26.83
22.46
16.71
9.77
2.00
-6.26
-14.95
-24.24
-34.54
-46.08
-58.46
-70.46
-80.05
-84.95
-83.37
-74.74
-60.05
-41.70
-22.71
-5.78
7.38
16.28
21.38
23.56
23.57
21.96
19.15
15.70
12.26
9.40
7.38
5.95
4.54
2.55
-0.38
-4.23
-8.81
-13.95
-19.80
-26.72
-35.09
-45.00
-55.89
-66.39
-74.44
-77.78
-74.67
-64.56
-48.57
-29.14
-9.40
7.84
20.84
29.31
34.03
36.38
37.58
38.34
38.81
38.84
38.20
36.81
34.76
32.23
29.38
26.25
22.76
18.73
13.97
8.19
0.98
-8.10
-19.39
-32.77
-47.19
-60.44
-69.42
-71.14
-63.88
-48.10
-26.62
-3.58
17.00
32.60
42.82
48.86
52.52
55.12
57.16
58.53
59.06
58.86
58.28
57.59
56.68
55.10
52.32
48.15
42.90
37.16
31.69
26.77
21.99
16.29
8.25
-3.19
-17.98
-34.52
-49.71
-59.78
-61.52
-53.48
-36.50
-13.52
11.50
34.75
53.59
66.95
75.13
79.17
80.27
79.36
77.13
74.07
70.72
67.54
64.87
62.70
60.64
58.07
54.46
49.63
43.82
37.52
31.13
24.68
17.71
9.48
-0.59
-12.51
-25.52
-38.00
-47.83
-52.92
-51.88
-44.44
-31.62
-15.45
1.69
17.62
30.89
40.84
47.41
50.78
51.18
48.82
44.07
37.65
30.48
23.53
17.44
12.40
8.04
3.84
-0.60
-5.33
-10.03
-14.33
-18.18
-22.07
-26.97
-33.86
-43.18
-54.38
-65.80
-74.94
-79.29
-76.91
-67.26
-51.28
-31.21
-10.00
9.48
25.03
35.48
40.74
41.57
39.27
35.21
30.54
25.91
21.41
16.69
11.30
4.97
-2.06
-9.04
-14.81
-18.19
-18.31
-15.03
-9.27
-3.07
0.72
-0.67
-9.00
-23.97
-42.94
-61.54
-74.88
-79.29
-73.47
-58.78
-38.57
-16.85
2.98
18.94
30.51
38.18
42.74
44.83
44.76
42.79
39.29
34.96
30.59
26.82
23.77
21.10
18.22
14.65
10.24
5.18
-0.20
-5.72
-11.51
-17.90
-25.11
-32.90
-40.46
-46.45
-49.45
-48.37
-43.05
-34.39
-24.19
-14.52
-7.09
-2.67
-1.08
-1.44
-2.76
-4.36
-5.97
-7.64
-9.35
-11.00
-12.32
-13.12
-13.42
-13.54
-14.01
-15.31
-17.81
-21.64
-26.75
-33.04
-40.35
-48.37
-56.49
-63.71
-68.64
-69.90
-66.47
-58.13
-45.59
-30.33
-14.29
0.73
13.32
22.66
28.49
31.06
30.95
28.99
26.14
23.22
20.86
19.29
18.46
18.06
17.65
16.88
15.44
13.19
9.92
5.41
-0.65
-8.43
-17.79
-27.95
-37.50
-44.61
-47.43
-44.85
-36.72
-24.10
-8.86
6.92
21.45
33.64
42.99
49.48
53.13
54.03
52.32
48.35
42.84
36.78
31.14
26.58
23.17
20.41
17.46
13.63
8.62
2.57
-4.16
-11.36
-19.01
-27.19
-35.67
-43.46
-48.81
-49.70
-44.63
-33.35
-17.16
1.42
19.45
34.47
45.06
50.99
52.96
52.14
49.64
46.36
42.74
39.00
35.17
31.29
27.40
23.52
19.58
15.40
10.74
5.37
-0.82
-7.90
-16.00
-25.28
-35.75
-46.93
-57.51
-65.40
-68.28
-64.39
-53.39
-36.66
-16.91
2.73
19.78
33.12
42.92
50.09
55.56
59.77
62.67
64.08
64.09
63.22
62.28
62.00
62.71
64.17
65.84
67.12
67.60
67.14
65.72
63.21
59.39
54.20
48.15
42.62
39.77
42.02
51.06
67.17
88.89
113.58
138.30
160.75
179.59
194.24
204.16
208.44
205.85
195.45
177.14
152.01
121.98
89.13
55.01
20.44
-14.24
-48.70
-82.29
-113.97
-142.77
-167.98
-189.35
-206.96
-220.85
-230.88
-236.62
-237.56
-233.20
-223.30
-207.92
-187.56
-163.29
-136.60
-109.35
-83.44
-60.44
-41.30
-26.22
-14.74
-5.98
0.94
6.70
11.54
15.26
17.29
16.94
13.90
8.46
1.68
-4.92
-9.82
-12.23
-12.33
-11.17
-10.15
-10.36
-12.13
-15.13
-18.61
-21.88
-24.43
-25.86
-25.73
-23.55
-19.04
-12.47
-4.83
2.42
7.78
10.32
9.87
7.03
2.85
-1.54
-5.12
-7.07
-6.80
-4.11
0.75
7.18
14.32
21.33
27.58
32.69
36.39
38.34
38.15
35.42
29.99
22.04
12.11
0.89
-10.86
-22.41
-32.99
-41.83
-48.18
-51.53
-51.84
-49.55
-45.57
-40.95
-36.62
-33.13
-30.52
-28.36
-26.02
-22.91
-18.67
-13.42
-7.76
-2.56
1.19
2.86
2.35
0.22
-2.54
-4.83
-5.91
-5.59
-4.21
-2.44
-1.03
-0.68
-2.04
-5.63
-11.75
-20.21
-30.07
-39.76
-47.48
-51.77
-52.04
-48.79
-43.38
-37.41
-32.19
-28.39
-26.04
-24.71
-23.89
-23.25
-22.75
-22.63
-23.08
-24.14
-25.48
-26.58
-26.93
-26.37
-25.28
-24.37
-24.40
-25.81
-28.59
-32.43
-36.99
-42.11
-47.68
-53.41
-58.50
-61.75
-61.92
-58.34
-51.25
-41.76
-31.56
-22.16
-14.55
-8.94
-4.94
-1.90
0.75
3.31
5.88
8.40
10.75
12.76
14.25
15.02
15.03
14.38
13.32
12.16
11.02
9.81
8.07
5.20
0.69
-5.68
-13.51
-21.88
-29.39
-34.49
-35.92
-33.00
-25.90
-15.64
-3.88
7.58
17.29
24.47
29.03
31.45
32.53
33.00
33.39
33.87
34.38
34.72
34.73
34.36
33.67
32.77
31.64
30.30
28.74
27.07
25.39
23.67
21.53
18.30
13.40
6.68
-1.08
-8.33
-13.20
-14.24
-11.01
-4.23
4.52
13.45
21.05
26.52
29.61
30.59
29.87
27.95
25.23
22.10
18.94
15.99
13.43
11.19
9.12
6.96
4.40
1.26
-2.53
-6.88
-11.59
-16.50
-21.63
-27.17
-33.36
-40.17
-47.09
-53.02
-56.45
-56.00
-50.85
-41.21
-28.41
-14.44
-1.36
9.28
16.88
21.74
24.63
26.53
28.13
29.77
31.46
33.03
34.28
35.11
35.45
35.30
34.65
33.44
31.68
29.43
26.82
24.01
21.04
17.67
13.56
8.51
2.73
-2.91
-7.03
-8.20
-5.56
0.62
8.94
17.34
23.87
27.34
27.74
25.87
22.80
19.37
15.93
12.45
8.92
5.56
2.82
1.09
0.38
0.20
-0.17
-1.38
-3.64
-6.77
-10.39
-14.31
-18.57
-23.48
-29.26
-35.78
-42.43
-48.27
-52.26
-53.63
-52.17
-48.29
-42.90
-37.20
-32.26
-28.81
-27.10
-26.98
-28.04
-29.91
-32.29
-34.92
-37.59
-40.14
-42.48
-44.63
-46.80
-49.23
-52.14
-55.63
-59.66
-64.08
-68.80
-73.77
-79.15
-85.08
-91.59
-98.22
-104.04
-107.70
-107.81
-103.60
-95.26
-84.14
-72.39
-62.38
-55.91
-53.75
-55.53
-60.00
-65.65
-71.31
-76.44
-81.26
-86.31
-91.93
-98.08
-104.11
-109.13
-112.42
-113.68
-112.88
-109.93
-104.68
-97.31
-88.86
-81.45
-77.56
-78.68
-83.94
-89.72
-90.98
-83.32
-65.15
-38.63
-8.56
19.82
43.16
61.02
75.06
87.31
98.46
107.43
112.36
112.03
107.04
99.67
93.12
89.67
89.87
92.47
95.21
95.86
92.95
85.94
74.80
59.77
41.47
21.11
0.89
-16.17
-26.74
-28.20
-19.77
-3.09
18.02
38.62
54.45
63.18
65.07
62.34
57.78
53.53
50.21
47.25
43.60
38.68
32.78
26.83
21.83
18.23
15.69
13.17
9.35
2.99
-6.87
-20.39
-36.91
-54.64
-70.73
-81.75
-84.55
-77.28
-60.24
-35.95
-8.52
17.62
38.95
53.67
61.72
64.13
62.31
57.48
50.47
41.89
32.40
22.69
13.49
5.36
-1.39
-6.73
-10.96
-14.60
-18.48
-23.71
-31.45
-42.56
-57.02
-73.53
-89.59
-102.03
-107.97
-105.79
-95.60
-79.01
-58.36
-36.07
-13.86
7.13
26.17
42.67
56.08
66.02
72.46
75.94
77.25
77.28
76.71
75.91
74.91
73.47
71.23
67.66
62.16
54.02
42.61
27.80
10.30
-8.05
-24.37
-35.34
-38.19
-31.68
-16.68
4.03
26.73
47.91
65.37
78.43
87.66
94.13
98.78
102.09
104.20
105.13
105.07
104.47
103.84
103.59
103.77
104.14
104.17
103.22
100.59
95.66
87.99
77.58
65.23
52.72
42.60
37.63
39.86
49.81
66.16
86.06
106.05
123.12
135.38
142.28
144.29
142.29
137.18
129.69
120.38
109.89
98.88
88.10
78.10
69.10
60.86
52.86
44.54
35.58
26.06
16.24
6.31
-3.87
-14.82
-26.96
-39.91
-52.11
-60.86
-63.22
-57.20
-42.72
-21.87
1.81
24.58
43.70
57.95
67.49
73.25
76.25
77.19
76.56
74.71
72.04
68.94
65.69
62.35
58.80
54.80
50.11
44.67
38.47
31.66
24.33
16.37
7.42
-3.13
-15.69
-29.98
-44.56
-56.83
-63.71
-62.72
-53.08
-36.20
-15.29
5.82
23.95
37.38
45.98
50.59
52.33
52.03
50.14
46.97
42.86
38.28
33.63
29.22
25.14
21.33
17.67
14.01
10.16
5.94
1.06
-4.87
-12.31
-21.69
-33.10
-45.98
-58.75
-69.05
-74.30
-72.64
-63.81
-49.37
-32.23
-15.56
-1.70
8.44
15.24
19.66
22.54
24.19
24.52
23.42
21.12
18.25
15.57
13.61
12.43
11.59
10.47
8.41
5.00
0.01
-6.75
-15.43
-26.03
-37.99
-49.86
-59.39
-64.03
-61.85
-52.39
-37.07
-18.75
-0.72
14.42
25.47
32.65
37.06
39.80
41.49
42.12
41.41
39.18
35.67
31.47
27.31
23.64
20.46
17.35
13.68
8.94
2.91
-4.44
-13.09
-23.08
-34.30
-46.19
-57.38
-65.81
-69.27
-66.28
-56.82
-42.46
-25.94
-10.10
3.01
12.63
19.05
23.19
25.96
27.98
29.60
31.01
32.36
33.64
34.61
34.77
33.57
30.72
26.37
21.18
15.95
11.25
7.10
2.91
-2.33
-9.57
-19.31
-31.23
-44.01
-55.49
-63.17
-64.91
-59.73
-48.17
-32.24
-14.74
1.75
15.55
26.13
33.78
39.05
42.35
43.86
43.89
42.99
41.99
41.58
41.89
42.37
41.97
39.75
35.35
29.26
22.51
16.24
11.10
7.12
3.74
0.08
-4.70
-11.26
-19.84
-30.17
-41.38
-51.87
-59.59
-62.56
-59.53
-50.47
-36.82
-20.88
-5.22
8.20
18.38
25.21
29.15
30.86
30.87
29.69
27.80
25.67
23.74
22.22
21.07
19.97
18.49
16.26
13.07
9.02
4.40
-0.38
-5.03
-9.61
-14.55
-20.50
-28.02
-37.03
-46.56
-54.80
-59.60
-59.15
-52.78
-41.25
-26.59
-11.36
2.09
12.32
19.01
22.66
24.21
24.45
23.87
22.62
20.73
18.26
15.42
12.55
9.97
7.81
5.99
4.22
2.12
-0.62
-4.29
-9.12
-15.40
-23.42
-33.23
-44.20
-54.84
-62.88
-65.96
-62.50
-52.45
-37.42
-20.17
-3.64
9.97
19.70
25.71
28.83
30.01
30.04
29.44
28.45
27.22
25.75
23.95
21.69
18.86
15.49
11.75
7.93
4.27
0.87
-2.44
-6.07
-10.68
-16.88
-25.10
-35.09
-45.79
-55.34
-61.47
-62.21
-56.60
-45.21
-29.94
-13.46
1.71
13.92
22.64
28.27
31.57
33.22
33.64
33.09
31.84
30.23
28.62
27.13
25.60
23.71
21.13
17.76
13.81
9.62
5.54
1.69
-2.10
-6.30
-11.59
-18.58
-27.50
-37.90
-48.47
-57.26
-62.14
-61.60
-55.26
-44.08
-30.03
-15.41
-2.17
8.56
16.43
21.61
24.51
25.50
24.97
23.35
21.19
19.01
17.24
15.95
14.95
13.82
12.16
9.68
6.34
2.25
-2.40
-7.43
-12.80
-18.67
-25.34
-33.11
-41.93
-51.13
-59.31
-64.68
-65.55
-61.01
-51.43
-38.37
-24.09
-10.83
-0.20
7.13
11.31
12.99
12.98
11.95
10.33
8.35
6.11
3.68
1.19
-1.23
-3.44
-5.44
-7.34
-9.35
-11.71
-14.63
-18.30
-22.95
-28.88
-36.26
-44.81
-53.60
-61.00
-65.07
-64.22
-57.84
-46.55
-32.15
-16.96
-3.05
8.18
16.25
21.42
24.33
25.63
25.86
25.37
24.37
23.02
21.40
19.57
17.52
15.17
12.42
9.09
5.13
0.55
-4.55
-10.06
-15.98
-22.54
-30.11
-38.85
-48.37
-57.41
-63.95
-65.83
-61.61
-51.23
-36.29
-19.57
-3.95
8.45
16.91
21.91
24.58
26.03
26.87
27.31
27.25
26.68
25.64
24.23
22.44
20.14
17.13
13.34
8.92
4.25
-0.32
-4.72
-9.28
-14.78
-21.98
-31.22
-41.94
-52.57
-60.80
-64.34
-61.66
-52.67
-38.76
-22.35
-6.19
7.54
17.68
24.08
27.42
28.61
28.51
27.68
26.48
25.08
23.61
22.11
20.51
18.66
16.39
13.59
10.23
6.46
2.41
-1.87
-6.57
-12.14
-19.12
-27.85
-38.11
-48.87
-58.26
-64.07
-64.40
-58.39
-46.65
-31.11
-14.46
0.76
12.82
21.12
26.04
28.45
29.21
28.93
27.88
26.14
23.81
21.02
18.01
14.91
11.72
8.36
4.68
0.60
-3.83
-8.55
-13.58
-19.21
-25.97
-34.30
-44.18
-54.75
-64.18
-70.08
-70.35
-63.95
-51.55
-35.34
-18.35
-3.36
7.97
15.37
19.65
21.98
23.23
23.67
23.16
21.53
18.92
15.76
12.63
9.88
7.54
5.28
2.69
-0.59
-4.71
-9.62
-15.28
-21.80
-29.47
-38.42
-48.16
-57.32
-63.73
-65.01
-59.64
-47.61
-30.73
-11.94
5.65
19.83
29.83
36.08
39.60
41.37
42.02
41.82
40.96
39.57
37.80
35.66
33.02
29.78
25.93
21.67
17.30
13.06
8.93
4.58
-0.55
-7.06
-15.43
-25.77
-37.51
-49.30
-58.99
-64.12
-62.73
-54.17
-39.59
-21.62
-3.44
12.33
24.46
33.17
39.52
44.55
48.60
51.37
52.30
51.21
48.62
45.57
43.13
41.85
41.51
41.23
40.00
37.08
32.37
26.36
19.85
13.52
7.61
1.98
-3.85
-10.41
-18.06
-26.99
-37.21
-48.49
-60.26
-71.38
-80.10
-84.38
-82.48
-73.71
-58.86
-40.11
-20.33
-2.08
13.05
24.66
33.13
39.08
42.91
44.78
44.88
43.74
42.19
41.06
40.76
41.05
41.11
40.00
37.17
32.70
27.28
21.82
16.99
12.87
8.99
4.56
-1.17
-8.69
-18.07
-28.98
-40.67
-51.89
-61.00
-66.21
-66.14
-60.22
-49.11
-34.59
-18.94
-4.31
7.90
17.18
23.68
27.78
29.82
30.09
29.01
27.22
25.49
24.37
23.89
23.54
22.48
20.05
16.10
11.10
5.81
0.91
-3.35
-7.28
-11.56
-17.05
-24.44
-33.96
-45.17
-56.80
-66.91
-73.23
-73.89
-68.04
-56.23
-40.23
-22.52
-5.49
9.14
20.55
28.69
34.03
37.14
38.58
38.84
38.41
37.71
37.07
36.55
35.94
34.77
32.59
29.13
24.57
19.38
14.18
9.42
5.10
0.74
-4.48
-11.42
-20.64
-32.00
-44.40
-55.87
-63.99
-66.58
-62.50
-52.17
-37.42
-20.89
-5.08
8.35
18.90
26.86
32.79
37.06
39.81
41.06
41.07
40.38
39.61
39.14
38.94
38.49
37.08
34.23
29.83
24.35
18.50
12.98
8.14
3.87
-0.41
-5.47
-12.07
-20.64
-31.17
-43.00
-54.79
-64.60
-70.27
-70.07
-63.27
-50.63
-34.20
-16.78
-1.03
11.33
19.85
25.05
28.00
29.65
30.56
30.90
30.71
30.01
28.93
27.54
25.82
23.58
20.63
16.86
12.39
7.62
2.94
-1.42
-5.59
-10.23
-16.21
-24.30
-34.57
-46.07
-56.76
-64.02
-65.48
-59.90
-47.76
-31.17
-13.18
3.29
16.29
25.18
30.42
33.01
33.90
33.75
32.94
31.67
30.09
28.29
26.29
24.03
21.41
18.44
15.23
11.98
8.83
5.70
2.31
-1.87
-7.41
-14.80
-24.15
-34.91
-45.69
-54.43
-58.83
-57.17
-49.00
-35.45
-18.89
-2.11
12.57
23.94
31.88
36.97
39.92
41.28
41.37
40.48
39.07
37.65
36.59
35.92
35.25
33.96
31.56
27.91
23.32
18.39
13.69
9.51
5.65
1.48
-3.84
-11.08
-20.58
-31.97
-44.03
-54.81
-62.09
-63.96
-59.53
-49.26
-34.91
-19.00
-3.92
8.68
18.17
24.77
29.08
31.64
32.72
32.52
31.31
29.67
28.30
27.72
28.00
28.53
28.37
26.61
22.87
17.46
11.26
5.25
0.07
-4.31
-8.50
-13.39
-19.76
-27.99
-37.94
-48.95
-59.86
-69.11
-74.88
-75.58
-70.30
-59.29
-44.08
-27.05
-10.73
2.97
13.24
20.20
24.50
26.84
27.74
27.53
26.58
25.32
24.15
23.16
22.11
20.57
18.18
14.93
11.17
7.39
3.87
0.51
-3.18
-7.91
-14.26
-22.52
-32.53
-43.52
-54.11
-62.45
-66.56
-64.95
-57.13
-43.95
-27.46
-10.33
5.00
17.01
25.26
30.26
32.86
33.80
33.51
32.25
30.30
28.07
25.99
24.26
22.73
20.91
18.32
14.76
10.48
6.02
1.91
-1.68
-5.09
-9.07
-14.49
-22.05
-31.87
-43.27
-54.70
-63.93
-68.57
-66.84
-58.24
-43.83
-26.03
-7.79
8.37
21.01
29.90
35.71
39.27
41.24
41.91
41.38
39.93
38.10
36.54
35.76
35.80
36.24
36.35
35.41
32.98
29.04
23.91
18.12
12.17
6.40
0.90
-4.43
-9.92
-16.04
-23.23
-31.86
-41.95
-52.93
-63.50
-71.72
-75.49
-73.18
-64.31
-49.89
-32.14
-13.81
2.73
16.15
26.21
33.45
38.53
41.85
43.43
43.26
41.59
39.06
36.60
35.02
34.67
35.24
35.98
35.96
34.53
31.47
27.04
21.76
16.19
10.70
5.37
0.09
-5.37
-11.31
-18.00
-25.66
-34.50
-44.51
-55.24
-65.68
-74.22
-79.05
-78.64
-72.33
-60.76
-45.63
-29.27
-13.86
-0.92
8.85
15.42
19.07
20.18
19.17
16.67
13.54
10.74
9.00
8.60
9.23
10.21
10.69
10.09
8.18
5.15
1.39
-2.61
-6.54
-10.35
-14.37
-19.16
-25.30
-33.06
-42.04
-51.07
-58.36
-61.91
-60.20
-52.74
-40.31
-24.77
-8.55
6.13
17.81
25.99
31.00
33.57
34.44
34.24
33.39
32.27
31.22
30.45
29.94
29.43
28.48
26.71
23.93
20.29
16.17
11.95
7.85
3.71
-1.02
-7.14
-15.30
-25.59
-37.11
-47.96
-55.65
-57.86
-53.29
-42.19
-26.31
-8.36
8.92
23.53
34.49
41.80
46.03
47.95
48.27
47.63
46.55
45.40
44.29
43.12
41.56
39.24
35.95
31.74
26.84
21.58
16.24
10.96
5.73
0.41
-5.37
-12.08
-20.20
-29.80
-40.20
-49.83
-56.52
-58.13
-53.48
-42.78
-27.73
-10.90
5.10
18.37
28.09
34.38
37.85
39.17
38.85
37.29
34.87
32.06
29.34
27.06
25.22
23.52
21.45
18.61
14.90
10.61
6.20
2.08
-1.78
-5.79
-10.68
-17.16
-25.56
-35.57
-46.04
-55.14
-60.77
-61.15
-55.53
-44.51
-29.91
-14.33
-0.19
10.89
18.36
22.61
24.45
24.60
23.56
21.56
18.87
15.85
12.94
10.46
8.51
6.89
5.25
3.23
0.62
-2.64
-6.55
-11.22
-16.89
-23.91
-32.46
-42.22
-52.02
-59.92
-63.69
-61.60
-53.12
-39.29
-22.44
-5.49
9.09
19.85
26.60
30.06
31.32
31.30
30.57
29.37
27.77
25.88
23.82
21.72
19.64
17.53
15.29
12.78
9.92
6.62
2.82
-1.71
-7.34
-14.53
-23.54
-34.03
-44.88
-54.08
-59.33
-58.70
-51.51
-38.58
-22.10
-4.84
10.69
22.98
31.62
37.01
39.97
41.31
41.63
41.42
41.03
40.66
40.35
39.91
39.08
37.67
35.71
33.46
31.23
29.22
27.39
25.46
22.96
19.36
14.16
7.24
-0.88
-8.84
-14.55
-15.67
-10.45
1.64
19.55
41.02
63.38
84.42
103.02
119.06
133.15
146.00
158.13
169.74
180.82
191.30
201.07
210.05
218.07
224.86
230.10
233.41
234.49
233.09
228.99
221.95
211.65
197.65
179.51
156.91
129.91
99.13
65.81
31.89
-0.19
-27.86
-48.98
-62.38
-68.31
-68.38
-65.07
-61.03
-58.32
-58.00
-60.16
-64.26
-69.51
-75.14
-80.49
-85.03
-88.36
-90.32
-91.12
-91.40
-92.00
-93.75
-97.05
-101.80
-107.37
-113.03
-118.28
-123.12
-128.12
-134.10
-141.66
-150.79
-160.57
-169.31
-174.91
-175.50
-170.07
-158.81
-143.12
-125.20
-107.45
-91.74
-79.03
-69.29
-61.88
-56.00
-51.06
-46.91
-43.63
-41.42
-40.30
-40.14
-40.66
-41.59
-42.71
-43.86
-44.96
-45.91
-46.64
-47.17
-47.71
-48.63
-50.46
-53.72
-58.54
-64.44
-70.12
-73.66
-72.93
-66.37
-53.54
-35.50
-14.55
6.45
24.89
39.13
48.68
54.04
56.21
56.27
55.10
53.32
51.29
49.17
46.92
44.42
41.57
38.33
34.85
31.38
28.17
25.41
23.00
20.53
17.33
12.61
5.79
-3.07
-13.04
-22.30
-28.64
-30.14
-25.80
-15.95
-2.05
13.88
29.78
44.03
55.60
64.00
69.30
72.06
73.26
74.16
76.01
79.69
85.42
92.61
100.05
106.28
109.96
110.20
106.68
99.54
89.16
75.94
60.19
42.17
22.18
0.67
-21.73
-44.11
-65.18
-83.36
-96.96
-104.59
-105.74
-101.06
-92.23
-81.55
-71.02
-61.95
-54.73
-49.20
-44.98
-41.82
-39.62
-38.26
-37.44
-36.77
-35.88
-34.63
-33.20
-31.92
-31.15
-31.05
-31.62
-32.71
-34.15
-35.82
-37.62
-39.52
-41.55
-43.84
-46.65
-50.13
-54.15
-57.98
-60.37
-59.70
-54.64
-44.69
-30.51
-13.76
3.49
19.46
33.16
44.28
53.01
59.46
63.52
64.92
63.55
59.65
53.76
46.57
38.55
29.79
20.11
9.21
-3.10
-16.72
-31.28
-46.24
-61.00
-75.10
-88.33
-100.92
-113.44
-126.48
-140.24
-154.08
-166.33
-174.72
-177.06
-172.09
-160.10
-142.79
-122.71
-102.46
-83.90
-68.00
-55.00
-44.80
-37.20
-31.95
-28.56
-26.23
-24.02
-21.29
-17.97
-14.70
-12.38
-11.76
-12.99
-15.54
-18.60
-21.59
-24.52
-28.00
-32.89
-39.90
-49.14
-60.04
-71.29
-81.04
-87.23
-88.10
-82.71
-71.42
-55.83
-38.43
-21.75
-7.68
2.95
10.32
15.13
18.17
19.98
21.02
21.66
22.26
23.08
24.15
25.21
25.81
25.48
23.90
21.00
16.95
12.12
7.02
2.08
-2.56
-7.26
-12.81
-20.26
-30.27
-42.66
-56.12
-68.45
-77.20
-80.33
-76.81
-66.84
-51.69
-33.24
-13.54
5.61
22.85
37.30
48.48
56.21
60.60
62.06
61.41
59.70
57.98
56.97
56.77
56.88
56.43
54.68
51.31
46.54
40.86
34.66
28.09
20.84
12.46
2.46
-9.37
-22.80
-36.99
-50.43
-61.16
-67.07
-66.55
-58.92
-44.85
-26.16
-5.40
14.93
32.95
47.69
59.02
67.35
73.23
77.18
79.54
80.58
80.55
79.70
78.28
76.48
74.36
71.93
69.20
66.25
63.20
60.05
56.53
52.04
45.73
36.76
24.85
10.64
-4.18
-17.07
-25.44
-27.46
-22.62
-12.02
2.09
17.01
30.36
40.59
47.12
50.08
50.06
47.78
43.95
39.15
33.78
28.02
21.90
15.47
8.90
2.50
-3.39
-8.64
-13.41
-18.17
-23.60
-30.41
-39.26
-50.62
-64.54
-80.32
-96.33
-110.06
-118.63
-119.78
-112.64
-98.19
-78.93
-58.02
-38.29
-21.52
-8.27
1.88
9.83
16.48
22.42
27.86
32.64
36.45
38.98
40.14
40.12
39.28
38.00
36.43
34.42
31.58
27.44
21.53
13.60
3.57
-8.23
-20.84
-32.54
-40.89
-43.39
-38.22
-25.10
-5.63
17.15
39.71
59.21
74.16
84.56
91.32
95.58
98.11
99.32
99.41
98.59
97.16
95.40
93.37
90.98
88.00
84.30
79.90
74.88
69.32
63.07
55.72
46.71
35.51
21.93
6.48
-9.44
-23.57
-33.30
-36.35
-31.62
-19.73
-2.88
15.72
32.94
46.57
55.78
60.93
63.08
63.35
62.55
61.10
59.17
56.89
54.41
51.84
49.22
46.43
43.28
39.64
35.49
30.90
25.94
20.56
14.49
7.28
-1.54
-12.23
-24.43
-36.90
-47.58
-54.05
-54.20
-47.10
-33.40
-15.20
4.57
23.07
38.27
49.17
55.67
58.24
57.65
54.82
50.82
46.72
43.38
41.17
39.84
38.76
37.24
34.91
31.82
28.32
24.71
21.02
16.99
12.15
6.02
-1.73
-11.20
-22.06
-33.50
-44.00
-51.55
-54.10
-50.23
-39.82
-24.18
-5.83
12.39
28.07
39.84
47.42
51.34
52.49
51.75
49.84
47.36
44.82
42.64
41.06
40.07
39.35
38.41
36.72
33.88
29.76
24.48
18.29
11.39
3.82
-4.65
-14.31
-25.18
-36.63
-47.08
-54.31
-56.06
-50.98
-39.32
-23.05
-5.19
11.19
23.97
32.44
37.05
38.88
38.92
37.87
36.09
33.90
31.64
29.63
28.03
26.69
25.22
23.14
20.22
16.49
12.28
7.97
3.68
-0.76
-5.95
-12.67
-21.50
-32.39
-44.33
-55.37
-63.01
-65.05
-60.34
-49.38
-34.10
-17.22
-1.33
11.93
21.99
29.11
33.84
36.64
37.71
37.23
35.61
33.50
31.62
30.37
29.61
28.59
26.41
22.43
16.62
9.73
2.87
-2.95
-7.27
-10.45
-13.48
-17.62
-23.95
-32.92
-44.16
-56.32
-67.32
-74.78
-76.61
-71.85
-61.08
-46.28
-30.22
-15.50
-3.74
4.66
10.20
13.76
15.97
17.15
17.36
16.75
15.72
14.80
14.46
14.84
15.61
16.14
15.80
14.25
11.66
8.60
5.79
3.70
2.25
0.77
-1.80
-6.41
-13.49
-22.68
-32.67
-41.56
-47.26
-48.12
-43.38
-33.48
-19.93
-4.83
9.76
22.37
32.34
39.72
44.83
48.00
49.45
49.41
48.25
46.54
44.90
43.78
43.22
42.87
42.11
40.30
37.00
32.18
26.23
19.86
13.86
8.80
4.73
1.16
-2.80
-8.12
-15.48
-25.06
-36.41
-48.44
-59.57
-67.98
-72.06
-70.81
-64.31
-53.68
-40.84
-27.87
-16.50
-7.69
-1.66
1.87
3.37
3.37
2.38
0.93
-0.44
-1.38
-1.83
-2.09
-2.63
-3.91
-6.08
-8.89
-11.83
-14.36
-16.20
-17.44
-18.58
-20.37
-23.57
-28.69
-35.74
-44.07
-52.25
-58.37
-60.56
-57.70
-49.90
-38.47
-25.55
-13.27
-3.12
4.28
9.12
11.84
12.90
12.63
11.36
9.49
7.54
5.95
4.93
4.36
3.88
3.06
1.53
-0.79
-3.72
-6.81
-9.54
-11.58
-12.96
-14.19
-16.07
-19.39
-24.54
-31.24
-38.53
-44.94
-48.95
-49.34
-45.61
-38.11
-27.89
-16.42
-5.08
5.08
13.57
20.21
25.03
28.01
29.19
28.74
27.11
24.97
23.01
21.65
20.89
20.37
19.58
18.16
16.03
13.37
10.43
7.42
4.35
1.01
-2.94
-7.83
-13.90
-21.13
-29.12
-37.04
-43.64
-47.45
-47.27
-42.54
-33.70
-22.13
-9.70
1.74
10.95
17.40
21.23
22.87
22.79
21.44
19.27
16.82
14.64
13.16
12.54
12.56
12.75
12.59
11.71
10.02
7.69
5.02
2.27
-0.50
-3.52
-7.30
-12.40
-19.08
-27.02
-35.16
-41.85
-45.26
-44.10
-37.98
-27.63
-14.61
-0.72
12.44
23.84
33.00
39.88
44.57
47.25
48.17
47.63
46.16
44.33
42.68
41.53
40.88
40.46
39.88
38.78
36.99
34.56
31.60
28.19
24.29
19.73
14.34
7.96
0.54
-7.83
-16.77
-25.51
-32.87
-37.48
-38.19
-34.55
-27.05
-17.00
-6.10
4.17
12.88
19.76
24.94
28.61
30.88
31.72
31.17
29.50
27.17
24.69
22.41
20.37
18.33
15.95
12.96
9.31
5.18
0.80
-3.65
-8.16
-12.95
-18.35
-24.69
-32.22
-40.85
-50.10
-58.98
-66.10
-70.04
-69.73
-64.85
-55.97
-44.46
-32.06
-20.47
-10.88
-3.82
0.85
3.62
5.06
5.62
5.57
5.12
4.46
3.85
3.53
3.63
4.04
4.46
4.57
4.18
3.33
2.18
0.83
-0.85
-3.32
-7.23
-13.06
-20.76
-29.48
-37.65
-43.33
-44.81
-41.16
-32.55
-20.15
-5.72
8.89
22.23
33.52
42.64
49.91
55.87
60.99
65.67
70.13
74.58
79.15
83.98
89.15
94.63
100.37
106.41
112.96
120.26
128.41
137.04
145.20
151.66
155.40
156.24
155.06
153.71
154.45
159.25
169.24
184.50
204.16
226.56
249.54
270.69
287.61
298.30
301.48
296.87
285.16
267.82
246.64
223.39
199.54
176.13
153.83
132.95
113.55
95.50
78.50
62.16
46.08
29.97
13.67
-2.76
-19.16
-35.33
-51.19
-66.83
-82.47
-98.42
-115.00
-132.62
-151.69
-172.40
-194.40
-216.51
-236.81
-253.04
-263.41
-267.29
-265.45
-259.74
-252.33
-244.96
-238.48
-232.88
-227.72
-222.54
-217.11
-211.37
-205.24
-198.57
-191.18
-183.09
-174.73
-166.92
-160.61
-156.38
-154.03
-152.36
-149.43
-143.29
-132.72
-117.79
-99.90
-81.17
-63.76
-49.12
-37.80
-29.58
-23.85
-20.06
-17.81
-16.83
-16.86
-17.47
-18.25
-18.82
-19.11
-19.24
-19.42
-19.68
-19.81
-19.44
-18.25
-16.37
-14.43
-13.53
-14.81
-18.83
-25.12
-32.02
-37.03
-37.47
-31.43
-18.43
0.23
21.78
42.78
60.01
71.31
75.98
74.58
68.42
59.08
47.98
36.31
25.05
15.03
6.82
0.57
-4.14
-8.18
-12.59
-18.14
-25.00
-32.67
-40.29
-47.00
-52.37
-56.60
-60.35
-64.43
-69.45
-75.47
-81.98
-87.95
-92.14
-93.26
-90.44
-83.40
-72.67
-59.61
-45.95
-33.41
-23.22
-15.87
-11.21
-8.74
-7.92
-8.24
-9.31
-10.68
-11.86
-12.51
-12.54
-12.25
-12.12
-12.61
-13.90
-15.87
-18.09
-20.18
-21.96
-23.59
-25.55
-28.40
-32.47
-37.55
-42.84
-47.08
-49.00
-47.83
-43.54
-36.94
-29.30
-21.89
-15.61
-10.96
-8.02
-6.66
-6.67
-7.73
-9.44
-11.42
-13.36
-15.15
-16.88
-18.83
-21.20
-23.94
-26.64
-28.73
-29.68
-29.44
-28.48
-27.85
-28.71
-31.75
-36.78
-42.51
-46.76
-47.20
-42.05
-30.77
-14.23
5.54
25.90
44.41
59.24
69.52
75.33
77.34
76.63
74.41
71.78
69.69
68.77
69.22
70.77
72.70
73.97
73.43
70.16
63.69
54.17
42.34
29.27
16.00
3.25
-8.78
-20.08
-30.49
-39.27
-45.10
-46.37
-41.95
-31.61
-16.28
2.13
21.24
38.26
50.35
54.86
49.94
35.21
12.36
-15.20
-43.29
-68.09
-87.16
-99.84
-107.13
-111.38
-115.78
-123.44
-136.36
-154.47
-175.26
-194.75
-209.30
-217.40
-220.50
-222.06
-225.53
-232.40
-241.48
-249.59
-253.23
-250.05
-239.41
-222.12
-199.80
-174.30
-147.51
-121.16
-96.69
-75.21
-57.11
-42.40
-30.61
-21.09
-13.16
-6.20
0.45
7.41
15.24
24.11
33.46
42.01
48.07
50.26
48.15
42.61
35.34
27.95
21.00
13.71
4.42
-8.20
-23.98
-40.90
-55.64
-64.82
-66.22
-59.50
-46.06
-28.40
-9.24
9.20
25.65
39.69
51.37
60.92
68.44
73.89
77.22
78.46
77.88
75.95
73.28
70.51
68.14
66.29
64.70
62.70
59.53
54.60
47.64
38.77
28.24
16.38
3.61
-9.17
-20.36
-27.83
-29.44
-24.03
-11.89
5.23
24.80
44.40
62.30
77.63
90.05
99.52
106.10
110.03
111.81
112.16
111.71
110.83
109.54
107.69
105.12
101.86
98.05
93.78
88.91
83.01
75.54
66.03
54.34
40.89
26.82
13.87
4.24
0.11
3.03
13.38
30.12
50.92
72.86
93.21
110.12
122.85
131.57
136.87
139.45
139.87
138.64
136.27
133.26
129.95
126.39
122.37
117.65
112.12
105.86
99.07
91.86
84.08
75.42
65.41
53.68
40.02
24.59
8.19
-7.60
-20.50
-27.91
-27.72
-19.22
-3.54
16.65
37.90
57.07
72.14
82.45
88.38
90.86
90.90
89.40
87.07
84.55
82.24
80.24
78.34
76.03
72.76
68.16
62.19
55.20
47.72
40.30
33.23
26.37
19.06
10.31
-0.83
-14.66
-30.31
-45.58
-57.28
-62.19
-58.27
-45.47
-25.98
-3.46
18.20
36.17
49.34
58.18
63.98
67.93
70.63
72.07
72.10
70.82
68.66
66.30
64.25
62.67
61.31
59.75
57.63
54.75
51.12
46.78
41.76
36.04
29.57
22.35
14.49
6.20
-2.17
-10.29
-18.05
-25.69
-33.83
-43.19
-54.04
-65.73
-76.57
-84.12
-86.04
-80.99
-69.21
-52.54
-33.68
-15.33
0.59
13.24
22.70
29.50
34.18
37.12
38.59
38.97
38.84
38.79
39.25
40.17
41.05
41.10
39.64
36.46
31.92
26.84
22.06
18.03
14.61
11.08
6.42
-0.23
-9.30
-20.45
-32.58
-43.93
-52.41
-56.11
-53.89
-45.78
-33.02
-17.76
-2.28
11.61
22.98
31.73
38.14
42.50
44.86
45.21
43.80
41.30
38.67
36.75
35.95
36.01
36.17
35.49
33.25
29.25
23.86
17.81
11.93
6.74
2.23
-2.13
-7.19
-13.81
-22.45
-32.96
-44.52
-55.69
-64.70
-69.82
-69.72
-64.00
-53.32
-39.36
-24.37
-10.43
1.10
9.86
16.28
21.05
24.68
27.24
28.51
28.32
26.88
24.81
22.99
22.10
22.28
23.00
23.28
22.16
19.16
14.52
9.03
3.67
-0.94
-4.81
-8.45
-12.63
-17.89
-24.47
-32.26
-40.90
-49.82
-58.08
-64.36
-67.14
-65.17
-58.04
-46.48
-32.27
-17.66
-4.65
5.64
13.05
18.15
21.68
24.25
26.18
27.57
28.48
29.06
29.48
29.86
30.20
30.34
30.08
29.27
27.89
26.06
23.87
21.35
18.38
14.73
10.22
4.84
-1.17
-7.40
-13.38
-18.81
-23.69
-28.34
-33.37
-39.35
-46.59
-54.80
-62.98
-69.58
-72.89
-71.64
-65.49
-55.20
-42.41
-29.11
-16.99
-7.06
0.47
5.94
9.87
12.64
14.38
15.13
14.97
14.24
13.46
13.12
13.44
14.17
14.68
14.23
12.36
9.14
5.09
0.93
-2.76
-5.84
-8.56
-11.46
-15.09
-19.90
-26.08
-33.46
-41.44
-48.93
-54.55
-56.92
-55.13
-49.05
-39.42
-27.68
-15.48
-4.35
4.73
11.31
15.44
17.50
18.03
17.59
16.75
15.98
15.65
15.91
16.66
17.61
18.29
18.24
17.13
14.91
11.83
8.31
4.84
1.66
-1.35
-4.66
-8.89
-14.48
-21.46
-29.47
-37.77
-45.52
-51.86
-55.96
-57.11
-54.76
-48.81
-39.75
-28.75
-17.28
-6.78
1.80
8.10
12.21
14.36
14.78
13.68
11.46
8.78
6.41
4.95
4.51
4.66
4.65
3.81
1.90
-0.90
-4.12
-7.41
-10.71
-14.23
-18.32
-23.28
-29.25
-36.15
-43.61
-50.88
-56.80
-59.96
-59.16
-53.88
-44.61
-32.81
-20.44
-9.29
-0.44
5.88
10.06
12.67
14.16
14.70
14.33
13.12
11.38
9.53
8.05
7.20
6.89
6.73
6.18
4.80
2.43
-0.79
-4.60
-8.91
-13.94
-20.12
-27.78
-36.68
-45.79
-53.39
-57.61
-57.15
-51.69
-42.10
-30.03
-17.39
-5.79
3.74
10.82
15.55
18.31
19.58
19.89
19.70
19.35
19.01
18.65
18.11
17.16
15.56
13.22
10.18
6.68
2.99
-0.69
-4.37
-8.38
-13.25
-19.54
-27.48
-36.76
-46.36
-54.71
-60.05
-60.99
-56.89
-48.15
-36.04
-22.38
-8.99
2.68
11.79
18.13
22.01
24.01
24.86
25.19
25.43
25.76
26.03
26.02
25.48
24.21
22.23
19.63
16.55
13.08
9.28
5.09
0.43
-4.86
-11.03
-18.33
-26.92
-36.61
-46.57
-55.34
-61.02
-61.87
-56.96
-46.67
-32.61
-17.11
-2.42
9.99
19.58
26.51
31.26
34.16
35.43
35.32
34.26
32.97
32.15
32.18
32.96
33.85
33.99
32.71
29.79
25.54
20.70
15.99
11.81
8.01
3.95
-1.26
-8.38
-17.75
-29.03
-41.11
-52.29
-60.53
-64.02
-61.63
-53.35
-40.34
-24.63
-8.45
6.30
18.51
27.81
34.32
38.31
40.06
39.96
38.62
36.87
35.55
35.15
35.64
36.34
36.34
34.81
31.48
26.68
21.22
15.96
11.45
7.67
4.07
-0.26
-6.20
-14.27
-24.38
-35.67
-46.57
-55.04
-59.13
-57.49
-49.86
-37.24
-21.63
-5.46
9.19
21.03
29.70
35.47
38.84
40.25
40.11
38.92
37.35
36.05
35.43
35.40
35.39
34.68
32.73
29.52
25.46
21.15
17.02
13.13
9.20
4.71
-0.86
-7.99
-16.79
-26.87
-37.15
-45.82
-50.84
-50.51
-44.20
-32.68
-17.93
-2.44
11.57
22.73
30.74
36.04
39.31
41.14
41.83
41.59
40.68
39.58
38.79
38.62
38.92
39.13
38.47
36.39
32.77
28.08
23.05
18.30
14.08
10.06
5.48
-0.51
-8.59
-18.79
-30.32
-41.51
-50.13
-54.06
-52.04
-44.13
-31.78
-17.29
-3.04
9.28
18.97
26.17
31.42
35.24
37.91
39.53
40.20
40.18
39.81
39.48
39.34
39.30
38.93
37.66
35.05
30.98
25.81
20.27
15.14
10.83
7.24
3.72
-0.55
-6.29
-13.77
-22.74
-32.48
-41.86
-49.51
-53.95
-53.98
-49.06
-39.62
-27.01
-13.22
-0.23
10.56
18.60
24.12
27.62
29.63
30.47
30.42
29.81
29.12
28.82
29.19
30.13
31.04
31.16
29.88
27.00
22.86
18.17
13.70
9.92
6.86
4.05
0.82
-3.54
-9.48
-17.08
-25.99
-35.46
-44.34
-51.29
-55.03
-54.71
-50.19
-42.17
-31.97
-21.11
-10.93
-2.30
4.42
9.24
12.32
13.93
14.38
14.11
13.66
13.51
13.92
14.78
15.62
15.85
14.98
12.91
9.92
6.61
3.53
0.96
-1.24
-3.55
-6.55
-10.72
-16.26
-23.10
-30.83
-38.72
-45.62
-50.16
-51.03
-47.49
-39.70
-28.85
-16.77
-5.42
3.78
10.28
14.34
16.62
17.81
18.31
18.23
17.59
16.52
15.29
14.25
13.57
13.11
12.42
10.96
8.38
4.77
0.59
-3.52
-7.07
-9.99
-12.70
-15.88
-20.23
-25.98
-32.69
-39.22
-44.04
-45.64
-43.09
-36.42
-26.60
-15.29
-4.27
5.07
12.00
16.57
19.18
20.37
20.56
20.11
19.32
18.54
18.08
18.08
18.32
18.27
17.28
14.89
11.07
6.23
1.12
-3.54
-7.37
-10.51
-13.58
-17.39
-22.61
-29.42
-37.30
-45.06
-51.06
-53.73
-52.02
-45.84
-36.12
-24.55
-13.00
-2.93
4.92
10.52
14.20
16.32
17.04
16.47
14.84
12.72
10.79
9.64
9.36
9.55
9.50
8.56
6.48
3.44
-0.06
-3.48
-6.51
-9.15
-11.69
-14.56
-18.19
-22.94
-29.00
-36.18
-43.79
-50.62
-55.10
-55.80
-51.95
-43.79
-32.56
-20.14
-8.39
1.47
9.00
14.47
18.38
21.09
22.65
22.97
22.05
20.25
18.25
16.77
16.20
16.33
16.48
15.79
13.74
10.38
6.25
2.05
-1.79
-5.27
-8.81
-12.93
-18.06
-24.39
-31.82
-39.97
-48.12
-55.15
-59.71
-60.50
-56.83
-48.87
-37.73
-25.07
-12.62
-1.70
6.92
13.02
16.70
18.24
18.06
16.78
15.13
13.80
13.21
13.36
13.83
13.99
13.33
11.64
9.08
5.93
2.50
-1.14
-5.12
-9.72
-15.25
-21.95
-29.78
-38.24
-46.28
-52.36
-54.87
-52.68
-45.69
-34.91
-22.16
-9.46
1.68
10.56
17.19
21.93
25.10
26.90
27.49
27.20
26.51
25.93
25.67
25.54
25.05
23.72
21.38
18.24
14.75
11.32
8.00
4.52
0.37
-4.98
-11.86
-20.28
-29.79
-39.49
-48.00
-53.66
-54.98
-51.11
-42.24
-29.69
-15.45
-1.65
10.17
19.25
25.62
29.72
32.06
33.06
33.08
32.55
31.96
31.76
32.11
32.75
33.09
32.48
30.57
27.45
23.61
19.64
15.90
12.45
8.98
4.99
-0.05
-6.61
-14.94
-24.79
-35.16
-44.35
-50.27
-51.14
-46.19
-36.07
-22.56
-7.99
5.60
16.96
25.75
32.19
36.67
39.50
40.80
40.77
39.73
38.13
36.45
34.92
33.51
31.81
29.35
25.75
21.03
15.59
10.05
4.98
0.57
-3.46
-7.75
-13.10
-20.09
-28.81
-38.65
-48.29
-55.90
-59.61
-58.06
-50.91
-39.07
-24.47
-9.40
4.11
14.86
22.61
27.75
30.88
32.47
32.75
31.88
30.14
27.96
25.83
24.05
22.58
21.13
19.31
16.91
14.00
10.83
7.58
4.19
0.31
-4.60
-11.05
-19.14
-28.41
-37.71
-45.33
-49.41
-48.51
-42.19
-31.20
-17.39
-3.03
9.83
19.98
27.11
31.63
34.25
35.59
36.08
35.96
35.30
34.16
32.51
30.28
27.48
24.21
20.70
17.17
13.78
10.47
6.98
2.92
-2.16
-8.68
-16.83
-26.37
-36.40
-45.38
-51.42
-52.88
-48.93
-39.95
-27.43
-13.44
0.04
11.59
20.58
27.01
31.27
33.83
35.20
35.80
35.95
35.78
35.29
34.34
32.81
30.68
27.99
24.90
21.53
17.98
14.26
10.31
6.00
1.00
-5.10
-12.68
-21.79
-31.84
-41.44
-48.65
-51.56
-48.93
-40.79
-28.43
-14.04
0.01
11.82
20.51
26.12
29.30
30.86
31.37
31.16
30.37
29.20
27.93
26.83
25.99
25.25
24.17
22.25
19.28
15.29
10.62
5.70
0.79
-4.19
-9.62
-16.12
-24.15
-33.72
-44.09
-53.72
-60.63
-62.98
-59.74
-51.19
-38.85
-25.00
-11.85
-0.87
7.51
13.70
18.48
22.41
25.58
27.79
28.77
28.63
27.79
26.87
26.33
26.18
26.09
25.56
24.28
22.29
19.86
17.25
14.56
11.51
7.59
2.26
-4.79
-13.37
-22.56
-30.76
-35.96
-36.33
-30.97
-20.33
-6.29
8.55
21.66
31.47
37.67
40.87
42.09
42.11
41.29
39.75
37.58
34.95
32.13
29.26
26.25
22.83
18.78
14.11
9.07
4.06
-0.59
-4.86
-9.13
-14.12
-20.55
-28.72
-38.13
-47.36
-54.38
-57.23
-54.77
-47.17
-35.96
-23.39
-11.61
-2.09
4.78
9.33
12.30
14.27
15.59
16.31
16.51
16.28
15.84
15.42
15.16
15.07
15.01
14.82
14.27
13.23
11.61
9.32
6.21
2.05
-3.35
-10.01
-17.35
-24.23
-29.04
-30.20
-26.74
-18.79
-7.53
5.19
17.47
27.93
35.95
41.49
44.81
46.21
45.97
44.46
42.24
40.01
38.32
37.34
36.72
35.73
33.69
30.21
25.47
20.06
14.66
9.76
5.44
1.34
-3.14
-8.62
-15.45
-23.59
-32.44
-40.82
-47.18
-50.00
-48.34
-42.22
-32.77
-21.86
-11.48
-3.12
2.55
5.66
6.82
6.63
5.52
3.76
1.57
-0.69
-2.59
-3.81
-4.33
-4.45
-4.72
-5.59
-7.30
-9.73
-12.59
-15.61
-18.79
-22.42
-26.99
-32.80
-39.57
-46.22
-51.04
-52.17
-48.40
-39.76
-27.60
-14.13
-1.66
8.26
15.14
19.34
21.61
22.54
22.41
21.31
19.41
17.00
14.48
12.14
10.06
8.12
6.13
3.92
1.41
-1.42
-4.59
-8.22
-12.54
-17.82
-24.20
-31.52
-38.99
-45.31
-48.87
-48.30
-43.02
-33.57
-21.52
-8.88
2.57
11.76
18.46
23.03
26.04
27.90
28.83
28.87
28.11
26.67
24.77
22.62
20.33
17.93
15.36
12.62
9.69
6.66
3.61
0.53
-2.74
-6.53
-11.26
-17.23
-24.32
-31.82
-38.50
-42.84
-43.61
-40.19
-32.90
-22.90
-11.83
-1.32
7.42
13.78
17.72
19.62
20.04
19.57
18.71
17.84
17.14
16.62
16.08
15.23
13.76
11.53
8.64
5.40
2.19
-0.70
-3.23
-5.73
-8.74
-12.87
-18.50
-25.57
-33.44
-40.95
-46.58
-48.84
-46.71
-40.08
-29.89
-17.90
-6.12
3.76
10.80
14.96
16.78
17.02
16.36
15.24
13.88
12.40
10.81
9.08
7.11
4.81
2.10
-0.95
-4.26
-7.70
-11.17
-14.61
-18.02
-21.50
-25.24
-29.45
-34.16
-39.04
-43.17
-45.22
-43.81
-38.09
-28.20
-15.32
-1.35
11.71
22.34
29.87
34.43
36.72
37.66
38.12
38.71
39.82
41.52
43.58
45.55
46.81
46.73
44.89
41.09
35.38
27.99
19.12
8.95
-2.43
-14.83
-27.79
-40.43
-51.43
-59.28
-62.61
-60.62
-53.49
-42.41
-29.29
-16.27
-5.13
3.13
8.34
11.01
11.83
11.53
10.65
9.50
8.24
6.92
5.54
4.13
2.73
1.40
0.22
-0.87
-2.09
-3.80
-6.42
-10.32
-15.71
-22.59
-30.58
-38.89
-46.19
-50.88
-51.40
-46.87
-37.46
-24.47
-10.02
3.69
14.99
23.13
28.23
30.90
31.83
31.56
30.44
28.71
26.59
24.30
22.02
19.81
17.56
15.13
12.35
9.13
5.42
1.19
-3.68
-9.32
-15.95
-23.72
-32.57
-42.00
-51.04
-58.26
-62.06
-61.20
-55.30
-45.05
-32.13
-18.74
-6.89
2.04
7.66
10.34
10.96
10.50
9.73
9.13
8.84
8.74
8.63
8.29
7.56
6.45
4.99
3.25
1.17
-1.37
-4.52
-8.32
-12.75
-17.85
-23.75
-30.67
-38.56
-46.84
-54.19
-58.82
-59.06
-54.10
-44.33
-31.34
-17.29
-4.24
6.41
14.10
18.93
21.37
22.00
21.39
20.04
18.37
16.74
15.35
14.26
13.47
12.84
12.18
11.24
9.74
7.50
4.43
0.55
-4.11
-9.59
-15.99
-23.29
-31.16
-38.71
-44.59
-47.26
-45.55
-39.06
-28.45
-15.26
-1.47
11.08
21.22
28.54
33.34
36.21
37.78
38.44
38.36
37.62
36.33
34.67
32.80
30.84
28.69
26.21
23.26
19.82
16.08
12.14
7.96
3.15
-2.87
-10.47
-19.51
-29.02
-37.35
-42.56
-43.03
-38.08
-28.16
-14.81
-0.11
13.84
25.48
34.05
39.56
42.51
43.58
43.34
42.19
40.43
38.37
36.34
34.62
33.26
32.08
30.64
28.53
25.43
21.37
16.54
11.27
5.75
-0.05
-6.42
-13.66
-21.83
-30.39
-38.13
-43.34
-44.30
-40.01
-30.58
-17.34
-2.46
11.84
23.83
32.64
38.20
41.00
41.74
41.15
39.92
38.64
37.64
36.97
36.36
35.33
33.48
30.67
27.13
23.28
19.55
16.15
12.98
9.69
5.72
0.56
-6.23
-14.67
-24.25
-33.80
-41.63
-45.96
-45.44
-39.67
-29.43
-16.43
-2.77
9.70
19.75
26.94
31.39
33.54
33.93
33.08
31.53
29.83
28.38
27.42
26.80
26.16
25.03
23.12
20.39
17.06
13.45
9.74
5.90
1.72
-3.14
-9.02
-16.15
-24.49
-33.58
-42.39
-49.33
-52.53
-50.55
-42.94
-30.63
-15.67
-0.58
12.59
22.70
29.72
34.26
37.04
38.54
38.97
38.51
37.46
36.19
35.03
33.98
32.79
31.02
28.39
24.91
20.97
17.07
13.56
10.47
7.48
4.00
-0.64
-6.90
-14.87
-24.07
-33.33
-40.93
-45.00
-44.17
-38.05
-27.55
-14.63
-1.64
9.48
17.76
23.25
26.59
28.53
29.50
29.50
28.38
26.09
22.81
18.91
14.80
10.80
7.01
3.43
0.04
-3.28
-6.64
-10.23
-14.34
-19.34
-25.55
-33.02
-41.31
-49.38
-55.73
-58.76
-57.37
-51.40
-41.70
-29.96
-18.02
-7.41
1.01
7.08
10.95
12.95
13.36
12.56
11.02
9.34
8.02
7.29
7.09
7.07
6.84
6.08
4.66
2.53
-0.30
-3.91
-8.47
-14.15
-21.00
-28.77
-36.76
-43.82
-48.52
-49.53
-46.10
-38.36
-27.39
-14.92
-2.78
7.53
15.22
20.12
22.60
23.24
22.66
21.51
20.29
19.39
18.93
18.78
18.57
17.86
16.29
13.75
10.50
6.96
3.57
0.60
-2.11
-5.04
-8.91
-14.36
-21.60
-30.14
-38.69
-45.42
-48.43
-46.42
-39.23
-27.99
-14.76
-1.89
8.82
16.61
21.72
24.96
27.22
28.99
30.37
31.21
31.35
30.84
29.92
28.92
28.13
27.62
27.24
26.70
25.64
23.82
21.18
17.86
14.09
10.02
5.71
1.14
-3.64
-8.52
-13.36
-18.14
-23.13
-28.83
-35.64
-43.53
-51.78
-58.94
-63.24
-63.23
-58.26
-48.82
-36.34
-22.78
-10.00
0.71
8.81
14.40
17.93
19.90
20.69
20.66
20.17
19.63
19.41
19.70
20.40
21.06
21.13
20.09
17.72
14.27
10.30
6.53
3.40
0.92
-1.37
-4.17
-8.12
-13.66
-20.80
-29.18
-38.00
-45.97
-51.56
-53.27
-50.20
-42.41
-31.09
-18.13
-5.49
5.36
13.76
19.74
23.64
25.93
26.97
27.13
26.79
26.29
25.89
25.74
25.81
25.97
25.97
25.49
24.12
21.64
18.13
13.95
9.72
5.95
2.84
0.07
-2.94
-6.78
-11.80
-17.99
-25.05
-32.48
-39.67
-45.83
-50.05
-51.38
-49.05
-42.86
-33.38
-21.85
-9.85
1.16
10.23
17.04
21.63
24.21
24.96
24.11
22.10
19.65
17.57
16.52
16.63
17.40
17.99
17.60
15.85
12.91
9.38
5.92
2.96
0.54
-1.72
-4.49
-8.46
-14.13
-21.50
-29.91
-37.94
-43.77
-45.68
-42.72
-35.05
-24.01
-11.65
0.04
9.71
16.87
21.79
24.97
26.85
27.69
27.60
26.83
25.81
25.01
24.74
24.92
25.07
24.56
22.90
19.97
15.99
11.44
6.77
2.19
-2.34
-7.13
-12.60
-19.12
-26.91
-35.80
-45.12
-53.63
-59.79
-62.09
-59.67
-52.63
-42.10
-29.86
-17.75
-7.12
1.43
7.97
12.94
16.78
19.69
21.74
23.03
23.76
24.25
24.78
25.35
25.71
25.43
24.12
21.75
18.64
15.45
12.76
10.86
9.58
8.36
6.49
3.34
-1.54
-8.27
-16.52
-25.41
-33.48
-38.88
-39.95
-35.83
-26.85
-14.63
-1.45
10.52
19.92
26.39
30.34
32.46
33.29
33.11
32.11
30.57
28.93
27.68
27.08
27.02
27.06
26.57
25.06
22.36
18.78
14.93
11.43
8.58
6.20
3.66
0.11
-5.09
-12.14
-20.60
-29.45
-37.24
-42.42
-43.76
-40.70
-33.61
-23.70
-12.65
-2.16
6.57
13.01
17.19
19.43
20.07
19.45
17.94
16.04
14.30
13.10
12.47
12.09
11.47
10.29
8.54
6.51
4.57
2.92
1.39
-0.48
-3.36
-7.84
-14.18
-22.20
-31.10
-39.53
-45.76
-48.17
-45.68
-38.22
-26.82
-13.37
-0.05
11.35
19.82
25.30
28.37
29.86
30.49
30.68
30.59
30.22
29.55
28.59
27.33
25.70
23.49
20.48
16.48
11.59
6.19
0.85
-3.95
-8.08
-11.94
-16.32
-22.01
-29.31
-37.55
-45.21
-50.29
-51.06
-46.82
-38.15
-26.68
-14.56
-3.71
4.63
10.06
12.84
13.55
12.87
11.38
9.58
7.89
6.61
5.87
5.59
5.51
5.33
4.78
3.80
2.47
0.94
-0.66
-2.32
-4.18
-6.51
-9.65
-13.94
-19.47
-25.97
-32.64
-38.10
-40.78
-39.35
-33.28
-23.10
-10.33
3.03
15.16
24.90
32.01
36.88
40.14
42.31
43.52
43.75
43.01
41.60
40.07
38.95
38.43
38.21
37.58
35.75
32.33
27.56
22.20
17.19
13.10
9.90
6.97
3.46
-1.37
-7.81
-15.49
-23.57
-30.77
-35.70
-37.12
-34.26
-27.12
-16.56
-4.11
8.42
19.48
28.16
34.22
37.96
39.85
40.36
39.85
38.63
36.99
35.19
33.40
31.56
29.46
26.84
23.52
19.55
15.12
10.57
6.19
2.15
-1.63
-5.52
-10.10
-15.99
-23.41
-31.95
-40.47
-47.31
-50.85
-50.08
-44.97
-36.48
-26.22
-15.93
-7.06
-0.42
3.80
5.98
6.72
6.66
6.21
5.51
4.62
3.51
2.27
1.01
-0.23
-1.53
-3.03
-4.79
-6.80
-8.87
-10.98
-13.32
-16.41
-20.85
-26.90
-34.08
-41.02
-45.84
-46.69
-42.50
-33.51
-21.18
-7.80
4.41
13.93
20.34
24.10
26.06
26.94
27.04
26.29
24.68
22.45
20.26
18.94
19.16
21.14
24.52
28.60
32.47
35.23
36.05
34.23
29.28
20.98
9.62
-3.97
-18.35
-31.68
-42.08
-48.12
-49.17
-45.63
-38.79
-30.42
-22.23
-15.42
-10.43
-7.03
-4.63
-2.64
-0.63
1.58
4.05
6.77
9.70
12.72
15.68
18.39
20.78
22.78
24.48
25.93
27.15
28.04
28.43
28.02
26.48
23.56
19.20
13.77
8.03
2.97
-0.47
-1.78
-1.18
0.52
2.13
2.59
1.30
-1.85
-6.47
-11.89
-17.38
-22.23
-25.96
-28.35
-29.54
-29.92
-29.97
-29.96
-29.94
-29.80
-29.41
-28.99
-28.95
-29.83
-31.93
-35.24
-39.45
-44.16
-48.95
-53.29
-56.36
-57.12
-54.50
-47.94
-37.76
-25.22
-12.14
-0.25
9.34
16.35
21.00
23.73
24.87
24.61
23.17
21.01
18.72
16.83
15.54
14.64
13.70
12.31
10.31
7.86
5.25
2.71
0.33
-2.01
-4.50
-7.39
-10.93
-15.29
-20.38
-25.61
-29.81
-31.44
-29.17
-22.49
-12.06
0.35
12.53
22.52
29.16
32.21
32.09
29.54
25.25
19.84
13.92
8.08
2.93
-1.15
-4.04
-6.00
-7.47
-8.87
-10.47
-12.29
-14.20
-16.12
-18.04
-20.18
-22.94
-26.79
-32.01
-38.41
-45.08
-50.38
-52.43
-49.66
-41.59
-29.12
-14.34
0.17
12.24
20.68
25.46
27.31
27.19
25.93
24.11
22.21
20.59
19.49
18.88
18.45
17.76
16.47
14.56
12.34
10.12
8.16
6.37
4.45
1.99
-1.42
-6.12
-12.36
-20.02
-28.42
-36.15
-41.29
-42.05
-37.46
-27.98
-15.37
-2.09
9.66
18.54
24.31
27.48
28.69
28.49
27.21
25.14
22.77
20.74
19.56
19.37
19.78
20.04
19.44
17.65
14.88
11.70
8.69
6.11
3.74
0.99
-2.93
-8.59
-16.09
-24.75
-33.11
-39.18
-41.11
-37.77
-29.31
-17.23
-3.83
8.57
18.39
25.17
29.28
31.42
32.11
31.53
29.72
26.85
23.39
20.07
17.46
15.88
15.18
14.97
14.74
14.12
12.93
11.18
8.90
6.09
2.69
-1.51
-6.73
-13.03
-20.14
-27.14
-32.61
-34.93
-32.94
-26.43
-16.37
-4.57
6.95
16.61
23.61
27.88
29.77
29.78
28.34
25.96
23.18
20.60
18.72
17.70
17.39
17.37
17.14
16.29
14.59
12.04
8.75
4.91
0.57
-4.43
-10.44
-17.73
-26.13
-34.66
-41.65
-45.23
-44.08
-37.96
-27.90
-15.71
-3.46
7.25
15.59
21.34
24.76
26.22
26.10
24.74
22.42
19.43
16.04
12.63
9.57
7.20
5.59
4.52
3.49
1.93
-0.54
-4.00
-8.33
-13.44
-19.33
-25.97
-33.07
-39.81
-44.81
-46.54
-43.87
-36.61
-25.68
-12.93
-0.50
9.84
17.18
21.49
23.40
23.76
23.27
22.35
21.17
19.78
18.18
16.43
14.59
12.68
10.68
8.63
6.51
4.29
1.90
-0.90
-4.41
-9.00
-14.97
-22.38
-30.78
-39.08
-45.64
-48.66
-46.79
-39.70
-28.39
-14.84
-1.41
9.99
18.43
23.88
26.91
28.16
28.02
26.69
24.42
21.63
18.95
16.95
15.82
15.32
14.83
13.73
11.61
8.50
4.72
0.68
-3.43
-7.72
-12.58
-18.42
-25.27
-32.46
-38.55
-41.71
-40.41
-34.04
-23.36
-10.21
3.09
14.55
23.05
28.44
31.23
32.12
31.74
30.55
28.94
27.26
25.84
24.79
23.97
22.99
21.42
19.04
15.97
12.59
9.24
6.06
2.77
-1.18
-6.39
-13.21
-21.48
-30.38
-38.57
-44.46
-46.53
-43.91
-36.60
-25.65
-12.90
-0.39
10.19
17.97
22.90
25.53
26.52
26.36
25.33
23.62
21.51
19.37
17.52
16.06
14.84
13.47
11.66
9.31
6.53
3.50
0.28
-3.31
-7.70
-13.28
-20.17
-27.96
-35.59
-41.60
-44.41
-42.95
-36.99
-27.43
-16.00
-4.72
4.74
11.46
15.35
16.92
16.93
16.02
14.67
13.19
11.81
10.66
9.76
9.05
8.39
7.65
6.71
5.45
3.71
1.26
-2.14
-6.69
-12.42
-19.23
-26.73
-34.13
-40.25
-43.63
-42.93
-37.55
-27.99
-15.85
-3.30
7.66
15.92
21.41
24.72
26.53
27.28
27.02
25.80
23.85
21.71
19.96
18.92
18.44
18.03
17.08
15.23
12.49
9.10
5.29
1.10
-3.73
-9.64
-16.95
-25.50
-34.42
-42.09
-46.65
-46.61
-41.44
-31.93
-19.86
-7.43
3.58
12.22
18.36
22.37
24.68
25.59
25.24
23.90
22.04
20.29
19.13
18.67
18.50
18.05
16.79
14.57
11.68
8.57
5.59
2.75
-0.37
-4.38
-9.83
-16.93
-25.32
-34.06
-41.71
-46.60
-47.33
-43.22
-34.65
-23.02
-10.28
1.71
11.74
19.45
25.09
29.06
31.56
32.62
32.31
30.96
29.28
28.02
27.61
27.90
28.22
27.75
25.94
22.77
18.78
14.68
11.01
7.84
4.76
0.99
-4.22
-11.30
-20.05
-29.62
-38.60
-45.28
-48.15
-46.28
-39.72
-29.50
-17.38
-5.27
5.30
13.48
19.18
22.70
24.53
24.99
24.39
23.03
21.34
19.76
18.63
17.93
17.29
16.11
13.91
10.61
6.57
2.42
-1.23
-4.03
-6.09
-7.87
-10.07
-13.36
-18.15
-24.43
-31.62
-38.51
-43.55
-45.04
-41.88
-33.86
-21.93
-7.93
6.04
18.24
27.76
34.50
38.80
41.15
41.88
41.23
39.52
37.33
35.34
34.08
33.57
33.28
32.38
30.15
26.39
21.55
16.51
12.13
8.88
6.55
4.35
1.18
-3.96
-11.54
-21.11
-31.32
-40.14
-45.47
-45.87
-40.96
-31.71
-19.93
-7.78
3.08
11.72
17.96
22.04
24.25
24.81
23.98
22.16
20.00
18.18
17.08
16.61
16.20
15.16
13.06
9.99
6.48
3.18
0.44
-1.89
-4.36
-7.72
-12.62
-19.26
-27.24
-35.46
-42.33
-46.08
-45.37
-39.82
-30.25
-18.47
-6.67
3.31
10.56
15.06
17.36
18.07
17.59
16.13
13.88
11.20
8.59
6.48
5.04
4.14
3.42
2.47
1.05
-0.94
-3.47
-6.59
-10.48
-15.43
-21.68
-29.17
-37.23
-44.52
-49.30
-49.91
-45.48
-36.29
-23.82
-10.23
2.31
12.31
19.23
23.31
25.23
25.66
25.11
23.85
22.12
20.13
18.16
16.47
15.27
14.56
14.16
13.64
12.51
10.31
6.76
1.78
-4.55
-12.05
-20.42
-29.08
-37.03
-42.88
-45.14
-42.82
-35.84
-25.22
-12.89
-0.92
9.07
16.41
21.27
24.30
26.18
27.24
27.59
27.15
26.02
24.46
22.79
21.29
19.93
18.46
16.52
13.85
10.45
6.61
2.66
-1.30
-5.63
-10.95
-17.73
-25.75
-33.82
-40.02
-42.41
-39.89
-32.69
-22.24
-10.57
0.43
9.64
16.71
21.77
25.03
26.63
26.74
25.73
24.18
22.74
21.83
21.43
21.19
20.61
19.42
17.75
15.97
14.42
13.09
11.51
8.98
4.81
-1.33
-9.24
-18.17
-26.95
-34.12
-38.32
-38.50
-34.33
-26.32
-15.77
-4.40
6.12
14.63
20.76
24.75
27.20
28.69
29.66
30.26
30.57
30.57
30.22
29.44
28.14
26.28
23.90
21.11
18.07
14.83
11.36
7.46
2.87
-2.64
-9.26
-17.04
-25.82
-35.08
-43.84
-50.77
-54.37
-53.50
-47.92
-38.44
-26.82
-15.27
-5.70
0.81
4.20
5.19
4.89
4.25
3.78
3.55
3.34
2.91
2.23
1.44
0.81
0.47
0.29
-0.07
-1.05
-2.96
-5.92
-9.90
-14.86
-20.78
-27.50
-34.43
-40.40
-43.80
-43.13
-37.73
-28.21
-16.36
-4.53
5.28
12.12
16.23
18.59
20.24
21.75
23.09
23.85
23.69
22.64
21.02
19.29
17.73
16.32
14.81
12.96
10.67
8.03
5.11
1.79
-2.26
-7.53
-14.23
-21.95
-29.49
-35.13
-37.15
-34.53
-27.36
-16.92
-5.19
5.83
14.68
20.87
24.68
26.83
28.08
28.85
29.27
29.25
28.65
27.39
25.52
23.22
20.74
18.31
15.99
13.69
11.20
8.30
4.83
0.66
-4.34
-10.26
-17.06
-24.28
-30.90
-35.48
-36.53
-33.20
-25.64
-15.21
-3.94
6.10
13.52
17.87
19.57
19.46
18.41
17.03
15.66
14.39
13.22
12.06
10.77
9.16
7.09
4.53
1.66
-1.24
-3.88
-6.12
-8.03
-9.89
-12.12
-15.10
-19.11
-24.06
-29.32
-33.75
-35.85
-34.28
-28.39
-18.57
-6.23
6.60
18.01
26.68
32.24
35.01
35.69
35.00
33.50
31.56
29.43
27.32
25.37
23.64
22.13
20.78
19.47
18.11
16.53
14.56
12.04
8.86
4.94
0.19
-5.56
-12.45
-20.26
-28.16
-34.60
-37.75
-36.07
-29.16
-18.04
-4.91
7.67
17.73
24.46
28.25
30.12
31.09
31.77
32.27
32.52
32.46
32.15
31.59
30.63
28.88
25.93
21.59
16.09
10.09
4.32
-0.75
-5.14
-9.41
-14.32
-20.54
-28.24
-36.94
-45.45
-52.23
-55.70
-54.74
-49.11
-39.59
-27.88
-16.04
-5.97
1.22
5.40
7.20
7.62
7.47
7.20
6.84
6.31
5.63
4.94
4.48
4.36
4.46
4.45
4.05
3.15
1.88
0.49
-0.97
-2.82
-5.66
-10.09
-16.20
-23.17
-29.33
-32.62
-31.31
-24.83
-14.01
-0.89
12.10
22.86
30.30
34.38
35.79
35.51
34.31
32.69
30.82
28.69
26.30
23.55
20.41
16.84
12.91
8.80
4.82
1.24
-1.85
-4.65
-7.70
-11.71
-17.28
-24.54
-32.94
-41.17
-47.46
-50.07
-47.87
-40.77
-29.82
-16.93
-4.30
6.17
13.35
17.00
17.68
16.43
14.37
12.43
11.19
10.76
10.88
11.03
10.68
9.54
7.70
5.57
3.64
2.14
0.93
-0.52
-2.88
-6.66
-11.96
-18.43
-25.22
-31.14
-34.87
-35.23
-31.53
-23.76
-12.85
-0.40
11.67
21.62
28.37
31.62
31.83
29.93
26.99
24.00
21.63
20.18
19.70
19.98
20.76
21.72
22.43
22.39
21.07
18.10
13.36
7.00
-0.66
-9.34
-18.86
-29.05
-39.46
-49.13
-56.63
-60.43
-59.52
-53.79
-44.24
-32.63
-20.89
-10.60
-2.65
2.67
5.62
6.66
6.36
5.36
4.27
3.58
3.54
4.04
4.73
5.21
5.21
4.74
3.98
3.11
2.19
1.03
-0.63
-3.07
-6.44
-10.68
-15.44
-20.01
-23.39
-24.47
-22.32
-16.62
-7.94
2.40
12.63
21.05
26.61
29.06
28.87
26.97
24.28
21.45
18.76
16.20
13.64
11.01
8.41
6.00
3.91
2.14
0.53
-1.24
-3.43
-6.24
-9.73
-13.95
-18.92
-24.60
-30.76
-36.75
-41.55
-43.91
-42.80
-37.87
-29.75
-19.85
-10.04
-1.95
3.45
6.05
6.44
5.49
4.04
2.65
1.62
1.07
1.04
1.46
2.12
2.70
2.77
2.02
0.34
-2.09
-4.92
-7.83
-10.75
-13.96
-17.97
-23.24
-29.72
-36.66
-42.66
-46.04
-45.54
-40.78
-32.52
-22.34
-12.13
-3.45
2.84
6.62
8.22
8.15
6.84
4.64
1.96
-0.67
-2.73
-3.86
-4.05
-3.73
-3.58
-4.24
-6.02
-8.80
-12.23
-15.95
-19.92
-24.45
-29.90
-36.30
-42.98
-48.57
-51.41
-50.16
-44.43
-34.99
-23.56
-12.22
-2.71
4.09
8.31
10.70
12.25
13.60
14.91
15.94
16.33
15.88
14.69
13.08
11.38
9.73
8.07
6.17
3.84
0.91
-2.69
-7.19
-12.82
-19.72
-27.69
-35.88
-42.88
-46.96
-46.75
-41.71
-32.55
-20.96
-9.11
1.17
8.93
14.19
17.64
20.07
21.97
23.40
24.19
24.21
23.58
22.63
21.66
20.81
19.95
18.84
17.28
15.22
12.70
9.70
6.06
1.37
-4.73
-12.34
-20.92
-29.28
-35.76
-38.63
-36.78
-29.99
-19.15
-5.94
7.63
19.75
29.21
35.54
38.87
39.75
38.94
37.24
35.37
33.90
33.09
32.87
32.84
32.50
31.42
29.41
26.63
23.41
20.04
16.63
13.01
8.73
3.27
-3.77
-12.31
-21.73
-30.74
-37.66
-40.82
-39.11
-32.42
-21.77
-9.00
3.78
14.80
23.08
28.48
31.50
32.90
33.40
33.45
33.23
32.78
32.07
31.11
29.93
28.58
27.04
25.23
23.06
20.43
17.38
14.00
10.42
6.71
2.74
-1.83
-7.37
-14.01
-21.32
-28.13
-32.74
-33.42
-29.11
-19.90
-7.16
7.01
20.36
31.31
39.17
44.08
46.58
47.25
46.54
44.88
42.80
40.90
39.66
39.18
39.08
38.60
36.99
33.84
29.27
23.83
18.26
13.08
8.39
3.85
-1.19
-7.36
-14.99
-23.85
-33.00
-40.88
-45.74
-46.12
-41.42
-32.14
-19.75
-6.27
6.38
16.78
24.30
29.00
31.33
31.96
31.52
30.59
29.64
28.98
28.75
28.86
29.06
29.01
28.40
27.05
24.92
22.24
19.31
16.43
13.69
10.85
7.36
2.61
-3.68
-10.99
-17.98
-22.78
-23.68
-19.85
-11.80
-1.18
9.80
19.17
25.85
29.76
31.52
32.03
31.92
31.49
30.72
29.50
27.80
25.69
23.31
20.73
17.91
14.75
11.11
7.01
2.57
-1.89
-6.13
-10.08
-14.02
-18.47
-23.98
-30.63
-37.71
-43.70
-46.68
-45.10
-38.34
-27.16
-13.38
0.69
13.03
22.34
28.25
31.12
31.66
30.70
28.94
26.91
24.95
23.24
21.84
20.73
19.83
18.99
18.03
16.74
14.97
12.73
10.15
7.45
4.65
1.56
-2.26
-7.16
-13.06
-19.10
-23.78
-25.35
-22.65
-15.65
-5.60
5.35
15.03
21.98
25.87
27.29
27.28
26.71
25.97
25.07
23.82
22.26
20.66
19.44
18.89
18.95
19.17
18.92
17.78
15.62
12.75
9.68
6.73
3.77
0.27
-4.36
-10.36
-17.20
-23.70
-28.37
-30.05
-28.34
-23.79
-17.69
-11.58
-6.78
-4.03
-3.46
-4.75
-7.40
-10.91
-14.95
-19.29
-23.75
-28.17
-32.31
-35.95
-38.91
-41.19
-42.90
-44.19
-45.28
-46.37
-47.72
-49.66
-52.54
-56.46
-61.11
-65.60
-68.62
-68.84
-65.44
-58.52
-49.07
-38.71
-29.04
-21.19
-15.57
-11.96
-9.77
-8.47
-7.63
-7.07
-6.72
-6.50
-6.37
-6.20
-5.94
-5.61
-5.34
-5.39
-6.05
-7.53
-9.92
-13.19
-17.20
-21.77
-26.52
-30.85
-33.86
-34.55
-32.14
-26.52
-18.42
-9.26
-0.63
6.27
11.01
13.90
15.60
16.66
17.28
17.36
16.74
15.42
13.67
11.95
10.63
9.91
9.66
9.54
9.14
8.08
6.14
3.26
-0.55
-5.21
-10.57
-16.25
-21.50
-25.26
-26.39
-24.20
-18.74
-10.99
-2.57
4.83
10.07
12.84
13.64
13.30
12.60
11.90
11.16
10.19
8.90
7.32
5.59
3.80
1.86
-0.39
-3.06
-6.09
-9.24
-12.24
-15.02
-17.82
-21.16
-25.53
-31.07
-37.26
-42.95
-46.70
-47.28
-44.27
-38.12
-30.12
-21.83
-14.54
-8.92
-4.93
-2.18
-0.22
1.19
2.02
2.10
1.40
0.11
-1.39
-2.64
-3.36
-3.58
-3.61
-3.94
-5.03
-7.10
-10.25
-14.53
-19.92
-26.37
-33.53
-40.53
-45.98
-48.38
-46.63
-40.60
-31.29
-20.48
-10.08
-1.46
4.88
9.24
12.32
14.78
16.97
18.92
20.54
21.74
22.62
23.31
23.93
24.53
25.05
25.37
25.37
24.96
24.00
22.28
19.52
15.46
10.13
4.15
-1.28
-4.43
-3.59
2.42
13.79
29.58
47.98
66.74
83.74
97.35
106.65
111.52
112.53
110.87
108.08
105.67
104.72
105.64
108.17
111.49
114.62
116.65
116.89
114.94
110.70
104.33
96.18
86.66
76.05
64.36
51.43
37.24
22.33
8.06
-3.74
-11.38
-14.14
-12.70
-8.92
-5.05
-2.86
-3.00
-4.99
-7.82
-10.52
-12.63
-14.09
-14.88
-14.85
-13.66
-11.13
-7.54
-3.65
-0.41
1.51
2.03
1.69
1.25
1.17
1.32
0.89
-1.20
-5.75
-12.82
-21.49
-30.09
-36.68
-39.70
-38.55
-33.70
-26.57
-19.00
-12.74
-9.06
-8.58
-11.39
-17.22
-25.74
-36.57
-49.32
-63.40
-78.01
-92.13
-104.59
-114.41
-120.99
-124.34
-125.02
-123.96
-122.17
-120.42
-119.25
-118.93
-119.61
-121.24
-123.34
-124.84
-124.21
-119.75
-110.32
-95.83
-77.42
-57.05
-36.76
-18.10
-1.82
11.73
22.26
29.15
31.66
29.40
22.88
13.62
3.81
-4.43
-9.78
-11.99
-11.72
-10.04
-7.91
-5.97
-4.60
-4.23
-5.50
-9.10
-15.35
-23.69
-32.47
-39.36
-42.01
-39.08
-30.72
-18.55
-5.00
7.61
17.77
25.05
29.82
32.83
34.85
36.50
38.34
40.88
44.45
49.00
53.99
58.56
61.79
63.06
62.32
59.96
56.65
52.96
49.17
45.18
40.60
35.05
28.50
21.63
15.88
13.19
15.30
23.05
35.98
52.35
69.72
85.85
99.35
109.77
117.44
122.92
126.63
128.81
129.63
129.48
128.95
128.53
128.24
127.54
125.38
120.72
113.08
102.78
90.82
78.41
66.30
54.51
42.41
29.12
14.02
-2.85
-20.77
-38.56
-54.84
-68.41
-78.48
-84.85
-87.92
-88.58
-87.94
-87.05
-86.62
-86.91
-87.72
-88.57
-88.81
-87.79
-85.10
-80.68
-74.99
-68.86
-63.24
-58.93
-56.24
-55.05
-54.89
-55.37
-56.33
-57.94
-60.52
-64.43
-69.87
-76.88
-85.22
-94.27
-102.92
-109.65
-112.88
-111.65
-106.14
-97.61
-88.00
-79.00
-71.44
-65.10
-59.21
-53.03
-46.40
-39.68
-33.34
-27.43
-21.47
-14.63
-6.29
3.57
14.26
24.74
34.01
41.50
47.18
51.36
54.47
56.72
57.99
57.99
56.47
53.59
50.20
47.69
47.62
51.11
58.33
68.35
79.38
89.41
96.92
101.36
103.06
102.93
101.80
100.02
97.37
93.28
87.26
79.27
69.73
59.47
49.38
40.18
32.18
25.32
19.26
13.54
7.62
0.99
-6.89
-16.41
-27.70
-40.36
-53.39
-65.16
-73.86
-78.05
-77.20
-72.08
-64.49
-56.58
-50.06
-45.60
-42.82
-40.77
-38.68
-36.31
-33.97
-32.13
-31.04
-30.55
-30.37
-30.32
-30.47
-31.03
-32.04
-33.19
-33.96
-33.90
-32.93
-31.54
-30.46
-30.25
-30.93
-31.86
-31.89
-29.82
-24.86
-16.98
-6.88
4.23
15.11
24.86
33.06
39.76
45.11
49.16
51.85
53.12
53.17
52.41
51.38
50.43
49.57
48.35
46.21
42.74
37.86
31.96
25.60
19.24
13.02
6.78
0.28
-6.42
-12.65
-17.24
-18.77
-16.22
-9.45
0.51
11.80
22.36
30.58
35.79
38.11
38.20
36.66
33.93
30.21
25.75
20.89
16.08
11.61
7.48
3.33
-1.35
-6.92
-13.32
-20.09
-26.57
-32.24
-37.00
-41.16
-45.20
-49.45
-53.74
-57.29
-58.87
-57.25
-51.69
-42.26
-29.97
-16.45
-3.45
7.65
16.23
22.43
26.80
29.94
32.19
33.58
34.01
33.54
32.41
31.01
29.59
28.11
26.25
23.63
20.11
15.89
11.44
7.28
3.63
0.35
-2.94
-6.57
-10.47
-14.04
-16.35
-16.49
-13.99
-9.12
-2.78
3.77
9.38
13.35
15.53
16.20
15.76
14.49
12.51
9.84
6.56
2.92
-0.76
-4.12
-6.92
-9.09
-10.67
-11.82
-12.72
-13.57
-14.61
-16.11
-18.36
-21.59
-25.91
-31.09
-36.43
-40.80
-42.83
-41.38
-36.02
-27.27
-16.57
-5.81
3.27
9.69
13.35
14.86
15.08
14.71
14.07
13.15
11.87
10.23
8.41
6.68
5.22
4.11
3.25
2.47
1.47
-0.07
-2.57
-6.52
-12.26
-19.74
-28.23
-36.31
-42.12
-44.01
-41.15
-33.87
-23.58
-12.22
-1.57
7.29
14.11
19.17
22.89
25.44
26.68
26.40
24.53
21.36
17.42
13.30
9.38
5.71
2.14
-1.56
-5.54
-9.73
-14.06
-18.59
-23.61
-29.63
-36.97
-45.36
-53.69
-60.10
-62.61
-59.93
-52.06
-40.45
-27.47
-15.57
-6.48
-0.75
2.02
2.79
2.42
1.44
-0.05
-2.13
-4.92
-8.32
-12.02
-15.55
-18.40
-20.25
-20.99
-20.90
-20.55
-20.59
-21.67
-24.35
-29.06
-35.95
-44.64
-54.03
-62.13
-66.54
-65.21
-57.24
-43.45
-26.23
-8.69
6.40
17.49
24.52
28.53
30.87
32.55
33.92
34.80
34.95
34.27
32.96
31.33
29.63
27.82
25.64
22.79
19.11
14.62
9.44
3.69
-2.78
-10.26
-19.02
-28.80
-38.59
-46.63
-50.83
-49.47
-41.99
-29.30
-13.58
2.49
16.62
27.56
35.20
40.18
43.26
45.01
45.67
45.32
44.15
42.50
40.75
39.17
37.79
36.36
34.59
32.28
29.42
26.22
22.86
19.33
15.19
9.79
2.55
-6.39
-15.90
-23.86
-27.87
-26.08
-18.11
-5.28
9.81
24.30
36.09
44.36
49.48
52.45
54.21
55.25
55.53
54.80
52.84
49.75
45.94
41.94
38.18
34.76
31.45
27.85
23.63
18.77
13.50
8.17
2.92
-2.34
-7.78
-13.28
-18.01
-20.47
-19.00
-12.56
-1.38
12.98
28.12
41.64
51.94
58.53
61.76
62.36
60.92
57.65
52.46
45.26
36.23
25.87
14.96
4.27
-5.66
-14.61
-22.58
-29.62
-35.71
-40.71
-44.59
-47.55
-50.14
-53.07
-56.83
-61.28
-65.44
-67.71
-66.29
-59.92
-48.29
-32.17
-13.23
6.55
25.35
41.92
55.64
66.37
74.25
79.56
82.63
83.82
83.49
81.89
79.10
75.11
69.86
63.41
55.91
47.55
38.45
28.57
17.87
6.43
-5.53
-17.64
-29.64
-41.47
-53.20
-64.78
-75.64
-84.61
-90.16
-90.99
-86.60
-77.63
-65.63
-52.58
-40.22
-29.65
-21.27
-14.91
-10.22
-6.86
-4.52
-2.94
-1.85
-1.09
-0.61
-0.55
-1.08
-2.33
-4.18
-6.41
-8.68
-10.68
-12.20
-13.27
-14.08
-15.07
-16.83
-19.86
-24.31
-29.74
-35.01
-38.53
-38.71
-34.55
-26.12
-14.55
-1.71
10.41
20.30
27.30
31.54
33.56
33.94
33.05
31.08
28.12
24.37
20.08
15.46
10.52
5.14
-0.71
-6.78
-12.38
-16.67
-19.04
-19.41
-18.31
-16.74
-15.80
-16.30
-18.52
-22.08
-26.00
-28.98
-29.62
-26.94
-20.72
-11.52
-0.52
10.98
21.97
32.01
40.99
48.84
55.31
59.98
62.55
63.08
62.06
60.22
58.19
56.26
54.33
52.06
49.22
45.76
41.79
37.43
32.52
26.62
19.09
9.50
-2.05
-14.59
-26.42
-35.56
-40.39
-40.32
-36.01
-29.07
-21.40
-14.45
-8.95
-4.96
-2.24
-0.64
-0.18
-0.90
-2.59
-4.77
-6.83
-8.31
-9.13
-9.56
-10.00
-10.75
-11.87
-13.21
-14.59
-15.98
-17.65
-20.14
-24.08
-29.83
-37.16
-45.08
-51.97
-55.98
-55.71
-50.67
-41.54
-29.88
-17.60
-6.29
3.07
10.26
15.55
19.38
22.13
24.01
25.20
25.85
26.16
26.28
26.19
25.73
24.71
23.00
20.74
18.18
15.55
12.91
10.01
6.35
1.42
-5.15
-13.32
-22.59
-31.98
-40.15
-45.61
-47.14
-44.11
-36.84
-26.53
-14.89
-3.73
5.68
12.76
17.56
20.49
22.01
22.52
22.25
21.43
20.22
18.72
16.94
14.82
12.29
9.46
6.56
3.85
1.42
-0.87
-3.35
-6.35
-10.02
-14.39
-19.38
-24.90
-30.79
-36.63
-41.56
-44.33
-43.64
-38.67
-29.48
-17.16
-3.49
9.67
20.96
29.86
36.74
42.48
48.07
54.30
61.42
69.20
76.96
83.87
89.19
92.57
94.18
94.75
95.34
97.00
100.12
104.13
107.30
107.20
101.58
89.44
71.87
52.24
35.36
26.02
27.35
39.50
59.33
81.02
97.75
103.74
96.20
76.45
49.73
23.44
4.50
-3.09
0.39
11.03
23.32
32.59
36.63
35.87
32.24
27.46
22.10
15.52
6.69
-4.92
-19.00
-34.55
-50.40
-65.66
-79.70
-91.98
-101.75
-108.00
-109.56
-105.51
-95.66
-80.82
-62.79
-43.97
-26.63
-12.27
-1.24
7.05
13.36
17.81
19.55
17.20
9.99
-1.22
-13.79
-24.24
-29.93
-30.37
-27.57
-25.05
-26.27
-33.30
-46.21
-63.44
-82.57
-100.89
-115.77
-124.72
-125.80
-118.12
-102.60
-82.01
-60.16
-40.52
-24.73
-12.06
0.11
14.78
33.96
57.74
84.57
112.23
138.87
163.71
187.00
209.25
230.60
250.27
266.55
277.27
280.45
274.89
260.58
238.69
211.28
180.58
148.42
115.84
83.11
50.02
16.23
-18.26
-53.01
-87.06
-119.03
-147.31
-170.55
-187.94
-199.62
-206.59
-210.30
-212.15
-213.12
-213.62
-213.71
-213.39
-212.63
-211.32
-209.18
-205.75
-200.68
-193.85
-185.70
-177.01
-168.77
-161.84
-156.63
-153.04
-150.48
-148.07
-144.78
-139.83
-132.87
-124.03
-113.89
-103.18
-92.58
-82.50
-73.13
-64.55
-56.83
-50.05
-44.23
-39.31
-35.17
-31.69
-28.84
-26.76
-25.61
-25.61
-26.81
-29.16
-32.48
-36.47
-40.77
-44.97
-48.70
-51.75
-54.22
-56.54
-59.49
-63.85
-70.23
-78.68
-88.63
-98.88
-107.79
-113.64
-115.07
-111.41
-102.89
-90.62
-76.23
-61.44
-47.57
-35.28
-24.68
-15.67
-8.21
-2.41
1.67
4.38
6.49
9.01
12.71
17.64
23.04
27.71
30.30
29.95
26.33
19.59
10.17
-0.99
-12.22
-21.17
-25.28
-22.78
-13.54
0.84
17.54
33.73
47.54
58.44
66.71
72.88
77.12
79.42
79.84
78.98
77.72
76.85
76.53
76.11
74.60
71.16
65.61
58.46
50.61
42.99
36.03
29.55
22.71
14.46
3.88
-9.19
-23.83
-37.93
-48.57
-52.62
-47.58
-32.53
-8.79
20.09
49.13
73.29
89.15
95.86
95.12
90.19
84.36
79.58
76.10
72.99
69.18
64.31
58.94
54.00
50.10
47.02
43.95
39.88
34.14
26.55
17.15
6.05
-6.86
-21.52
-37.28
-52.43
-64.29
-69.90
-67.12
-55.56
-36.90
-14.48
7.86
26.87
40.72
49.10
52.81
53.18
51.48
48.77
45.80
43.19
41.37
40.62
40.88
41.79
42.72
43.06
42.31
40.22
36.80
32.23
26.63
20.01
12.24
3.32
-6.32
-15.46
-22.20
-24.48
-20.74
-10.72
4.33
21.88
38.93
52.86
62.18
66.70
67.29
65.40
62.38
59.25
56.48
54.13
52.00
49.91
47.80
45.75
43.88
42.20
40.50
38.34
35.13
30.23
23.11
13.48
1.42
-12.38
-26.54
-38.88
-46.77
-47.63
-39.84
-23.58
-1.17
23.36
45.50
61.72
70.61
72.92
70.87
66.89
62.62
58.71
55.06
51.49
48.11
45.20
42.89
40.87
38.44
34.88
29.87
23.62
16.64
9.40
2.03
-5.72
-14.11
-23.04
-31.75
-38.81
-42.58
-41.79
-36.07
-26.24
-14.09
-1.87
8.48
15.75
19.79
21.21
20.89
19.56
17.47
14.48
10.33
5.07
-0.81
-6.50
-11.17
-14.36
-16.17
-17.15
-18.07
-19.68
-22.44
-26.45
-31.33
-36.09
-39.21
-38.89
-33.51
-22.30
-5.80
14.08
34.39
52.04
64.60
70.96
71.44
67.46
60.90
53.44
46.16
39.52
33.56
28.28
23.72
20.01
17.14
14.92
12.89
10.59
7.66
3.84
-1.05
-7.30
-15.11
-24.27
-33.83
-41.97
-46.49
-45.56
-38.49
-26.20
-10.94
4.54
17.87
27.82
34.28
38.01
39.91
40.51
39.88
37.80
34.15
29.21
23.63
18.22
13.55
9.74
6.46
3.19
-0.55
-5.00
-10.26
-16.41
-23.53
-31.54
-39.88
-47.19
-51.57
-51.12
-44.83
-33.14
-18.00
-2.22
11.50
21.39
27.05
29.17
28.87
27.16
24.53
21.18
17.19
12.86
8.65
5.12
2.62
1.17
0.46
-0.02
-0.85
-2.54
-5.57
-10.30
-17.00
-25.48
-34.87
-43.56
-49.42
-50.47
-45.75
-35.77
-22.48
-8.58
3.38
11.89
16.72
18.66
18.89
18.36
17.46
16.11
13.99
10.81
6.59
1.65
-3.53
-8.49
-13.02
-17.20
-21.33
-25.76
-30.64
-36.04
-41.87
-48.02
-54.26
-59.93
-63.93
-64.76
-61.20
-52.84
-40.62
-26.66
-13.47
-3.09
3.57
6.79
7.52
6.76
5.11
2.76
-0.25
-3.68
-7.05
-9.81
-11.62
-12.53
-12.95
-13.51
-14.80
-17.20
-20.88
-25.83
-31.94
-38.93
-46.14
-52.36
-55.91
-55.01
-48.46
-36.26
-19.83
-1.70
15.38
29.26
38.99
44.79
47.62
48.46
47.86
45.85
42.32
37.36
31.44
25.43
20.13
15.96
12.75
9.88
6.62
2.47
-2.72
-8.93
-16.10
-24.27
-33.26
-42.28
-49.78
-53.71
-52.24
-44.76
-32.27
-17.18
-2.51
9.28
16.93
20.57
21.30
20.39
18.78
16.93
14.96
12.99
11.27
10.17
9.95
10.60
11.81
13.07
13.85
13.79
12.66
10.25
6.27
0.34
-7.79
-17.77
-28.43
-37.82
-43.65
-44.16
-38.74
-28.30
-14.93
-1.15
10.86
19.85
25.59
28.54
29.39
28.77
27.16
24.95
22.52
20.23
18.30
16.70
15.23
13.53
11.32
8.47
4.96
0.90
-3.68
-8.81
-14.60
-21.05
-27.86
-34.29
-39.07
-40.82
-38.38
-31.36
-20.44
-7.29
6.03
17.59
26.17
31.47
33.77
33.68
31.82
28.72
24.98
21.29
18.39
16.80
16.68
17.72
19.33
20.83
21.67
21.55
20.20
17.42
12.95
6.73
-1.06
-9.71
-18.09
-24.83
-28.67
-29.03
-26.30
-21.89
-17.84
-16.13
-17.96
-23.45
-31.66
-41.20
-50.88
-60.09
-68.87
-77.58
-86.48
-95.52
-104.31
-112.34
-119.21
-124.71
-128.93
-132.14
-134.89
-138.02
-142.54
-149.22
-157.99
-167.58
-175.40
-178.20
-173.34
-159.88
-139.23
-114.61
-89.93
-68.24
-50.86
-37.41
-26.47
-16.53
-6.35
4.71
16.81
29.49
41.60
51.49
57.60
59.13
56.53
51.39
45.59
40.57
36.61
33.02
28.62
22.45
14.23
4.43
-5.75
-14.62
-20.32
-21.24
-16.62
-6.95
5.98
19.83
32.25
41.66
47.47
49.94
49.80
47.99
45.65
44.01
44.29
47.08
52.08
57.88
62.40
63.70
60.90
54.43
45.76
36.75
28.54
21.31
14.34
6.66
-2.22
-11.87
-20.90
-27.43
-29.71
-26.79
-18.83
-7.02
6.75
20.55
32.91
43.01
50.61
55.83
58.87
60.04
59.67
58.28
56.41
54.54
52.88
51.37
49.72
47.63
44.98
41.77
38.13
34.14
29.68
24.43
17.94
9.90
0.51
-9.47
-18.66
-25.44
-28.40
-26.76
-20.66
-11.13
0.20
11.57
21.58
29.51
35.27
39.24
41.90
43.63
44.59
44.77
44.24
43.15
41.73
40.20
38.54
36.56
34.03
30.72
26.54
21.54
15.82
9.43
2.30
-5.73
-14.63
-23.95
-32.55
-38.74
-40.77
-37.62
-29.51
-18.03
-5.52
5.74
14.38
20.14
23.57
25.41
26.21
26.16
25.38
24.17
23.10
22.76
23.42
24.81
26.17
26.57
25.36
22.37
17.86
12.29
6.03
-0.93
-8.83
-17.96
-28.12
-38.40
-47.09
-52.23
-52.27
-46.71
-36.38
-23.15
-9.26
3.44
13.87
21.77
27.40
31.15
33.36
34.29
34.16
33.30
32.06
30.72
29.45
28.24
26.97
25.41
23.42
20.87
17.73
14.10
10.09
5.73
0.79
-5.13
-12.37
-20.81
-29.52
-36.87
-40.90
-40.16
-34.28
-24.20
-11.85
0.63
11.56
20.17
26.47
30.81
33.61
35.07
35.27
34.35
32.57
30.33
28.01
25.85
23.85
21.75
19.21
15.87
11.57
6.42
0.73
-5.22
-11.42
-18.14
-25.67
-33.84
-41.72
-47.68
-49.89
-47.13
-39.34
-27.73
-14.28
