1506005334.00
64.000000
-0.00
-0.00
-0.00
-0.00
-0.00
-0.00
-0.00
-0.00
-0.00
-0.00
0.00
0.01
0.01
-0.00
-0.03
-0.05
-0.05
0.00
0.13
0.36
0.66
1.01
1.37
1.72
2.06
2.40
2.79
3.24
3.80
4.42
5.06
5.66
6.20
6.68
7.15
7.68
8.31
9.14
10.09
11.04
11.88
12.56
13.14
13.76
14.65
15.96
17.91
20.32
22.90
25.38
27.58
29.57
31.68
34.32
37.81
42.54
48.15
54.10
59.83
64.97
69.59
74.15
79.35
85.71
93.76
102.99
112.62
121.74
129.80
136.80
143.34
150.73
157.66
166.40
177.56
191.29
206.40
219.99
227.68
224.81
207.95
176.20
131.97
79.13
22.06
-35.98
-93.44
-150.11
-206.18
-261.42
-315.02
-365.47
-411.75
-453.06
-488.72
-517.89
-539.26
-551.27
-552.30
-541.32
-518.03
-483.39
-439.26
-388.11
-332.58
-275.17
-217.96
-162.52
-110.03
-61.17
-16.50
23.59
58.79
88.79
113.33
132.31
145.88
154.52
159.12
160.71
160.28
158.55
155.82
152.01
146.88
140.19
131.78
121.54
109.54
96.43
83.69
73.68
69.01
71.42
80.77
94.67
109.21
120.43
125.86
125.19
119.89
112.09
103.39
94.44
85.18
75.73
66.41
58.00
51.23
46.29
42.73
39.64
36.13
31.83
27.01
22.42
18.86
16.80
16.09
16.03
15.70
14.39
11.86
8.47
4.89
1.88
-0.07
-0.94
-1.05
-0.93
-1.00
-1.46
-2.31
-3.42
-4.62
-5.72
-6.42
-6.39
-5.42
-3.56
-1.28
0.66
1.53
0.98
-0.79
-3.10
-5.17
-6.44
-6.73
-6.25
-5.31
-4.20
-3.05
-1.98
-1.11
-0.56
-0.47
-0.79
-1.38
-2.06
-2.61
-2.93
-3.03
-2.98
-2.84
-2.71
-2.62
-2.59
-2.59
-2.55
-2.35
-1.94
-1.32
-0.58
0.09
0.55
0.70
0.57
0.27
-0.03
-0.20
-0.13
0.27
1.03
2.18
3.69
5.47
7.36
9.20
10.80
12.02
12.81
13.14
13.01
12.45
11.45
10.04
8.21
6.07
3.68
1.18
-1.23
-3.38
-5.21
-6.74
-8.00
-9.06
-9.92
-10.57
-10.98
-11.16
-11.14
-10.97
-10.68
-10.35
-9.99
-9.67
-9.38
-9.06
-8.57
-7.75
-6.56
-5.08
-3.54
-2.21
-1.28
-0.81
-0.71
-0.80
-0.95
-1.12
-1.33
-1.65
-2.05
-2.48
-2.80
-2.93
-2.83
-2.57
-2.29
-2.12
-2.12
-2.25
-2.39
-2.45
-2.34
-2.10
-1.84
-1.74
-1.87
-2.25
-2.80
-3.35
-3.72
-3.76
-3.34
-2.44
-1.10
0.53
2.27
3.92
5.37
6.41
6.98
7.09
6.84
6.35
5.76
5.18
4.67
4.24
3.85
3.50
3.17
2.88
2.63
2.42
2.22
1.98
1.65
1.23
0.73
0.16
-0.47
-1.19
-2.02
-2.94
-3.90
-4.80
-5.55
-6.06
-6.29
-6.19
-5.72
-4.84
-3.54
-1.87
0.05
2.04
3.90
5.45
6.57
7.22
7.43
7.28
6.90
6.39
5.82
5.24
4.69
4.19
3.80
3.58
3.54
3.62
3.71
3.68
3.44
2.97
2.28
1.41
0.44
-0.55
-1.43
-2.15
-2.67
-3.07
-3.47
-3.98
-4.66
-5.48
-6.38
-7.24
-7.92
-8.26
-8.11
-7.36
-6.03
-4.28
-2.36
-0.53
1.07
2.39
3.47
4.32
4.91
5.16
5.03
4.56
3.90
3.25
2.80
2.59
2.57
2.60
2.54
2.30
1.93
1.49
1.08
0.71
0.36
-0.04
-0.52
-1.07
-1.62
-2.09
-2.45
-2.72
-2.99
-3.39
-4.01
-4.86
-5.82
-6.65
-7.05
-6.81
-5.87
-4.37
-2.62
-0.93
0.47
1.50
2.19
2.58
2.67
2.47
2.03
1.45
0.90
0.50
0.34
0.36
0.40
0.28
-0.16
-0.94
-1.92
-2.85
-3.46
-3.59
-3.27
-2.72
-2.24
-2.06
-2.26
-2.73
-3.25
-3.64
-3.84
-3.94
-4.09
-4.43
-4.99
-5.72
-6.54
-7.27
-7.77
-7.88
-7.50
-6.61
-5.27
-3.66
-2.00
-0.52
0.64
1.49
2.02
2.27
2.21
1.85
1.31
0.72
0.17
-0.20
-0.35
-0.30
-0.17
-0.16
-0.42
-0.93
-1.68
-2.71
-3.83
-4.88
-5.69
-6.27
-6.87
-7.88
-9.40
-11.26
-12.78
-12.38
-8.33
0.61
14.36
31.35
49.05
65.09
77.68
84.09
82.16
71.27
53.34
32.07
11.81
-5.63
-19.08
-28.29
-34.18
-36.70
-36.62
-34.81
-31.96
-28.37
-24.00
-18.23
-10.59
-1.27
8.84
17.93
24.04
25.87
23.61
19.04
14.92
13.33
14.50
16.89
18.07
16.45
12.09
6.49
1.37
-2.49
-5.82
-10.14
-16.36
-23.93
-30.67
-34.05
-32.53
-26.56
-18.34
-10.81
-6.25
-5.32
-7.08
-9.71
-11.55
-11.84
-10.91
-9.70
-9.18
-9.87
-11.64
-13.95
-16.17
-17.91
-19.17
-20.23
-21.54
-23.28
-25.28
-26.92
-27.44
-26.24
-23.22
-18.72
-13.29
-7.29
-0.70
6.80
15.37
24.58
33.34
40.15
43.77
43.71
40.49
35.33
29.66
24.63
20.84
18.36
17.03
16.55
16.65
17.00
17.25
17.02
16.07
14.39
12.28
10.21
8.66
7.95
8.13
9.06
10.52
12.34
14.41
16.61
18.71
20.37
21.27
21.31
20.75
20.21
20.55
22.57
26.75
32.99
40.47
47.65
52.60
53.62
49.92
42.04
31.73
21.27
12.55
6.38
2.33
-0.72
-3.84
-7.52
-11.59
-15.65
-19.47
-23.11
-26.79
-30.51
-33.99
-36.85
-38.91
-40.37
-41.68
-43.14
-44.58
-45.42
-44.97
-43.08
-40.37
-38.10
-37.59
-39.56
-43.75
-49.10
-54.38
-58.75
-62.16
-65.11
-68.19
-71.60
-75.04
-77.91
-79.76
-80.55
-80.68
-80.75
-81.20
-82.25
-83.84
-85.88
-88.34
-91.25
-94.61
-98.22
-101.67
-104.26
-105.07
-102.99
-96.83
-85.67
-69.13
-47.74
-22.99
2.93
27.71
49.49
67.21
80.65
90.18
96.59
100.87
104.12
107.25
110.70
114.37
117.64
119.88
120.77
120.50
119.49
117.95
115.63
111.89
106.21
98.60
89.69
80.33
71.00
61.57
51.48
40.32
28.36
16.64
6.60
-0.53
-4.23
-4.85
-3.42
-1.20
0.67
1.54
1.35
0.60
0.17
0.96
3.57
7.93
13.27
18.25
21.39
21.54
18.13
11.34
1.98
-8.76
-19.52
-28.94
-35.89
-39.64
-40.01
-37.47
-32.94
-27.58
-22.39
-18.03
-14.68
-12.21
-10.40
-9.09
-8.20
-7.65
-7.19
-6.39
-4.65
-1.51
3.13
8.78
14.38
18.64
20.39
19.04
14.71
8.12
0.21
-8.24
-16.79
-25.40
-34.15
-43.12
-52.17
-60.98
-69.18
-76.41
-82.44
-87.18
-90.63
-92.92
-94.25
-94.87
-94.86
-94.03
-91.73
-86.99
-78.84
-66.67
-50.68
-31.90
-11.96
7.42
24.91
39.82
51.98
61.46
68.24
72.15
73.03
70.97
66.56
60.78
54.79
49.45
45.10
41.49
38.03
34.11
29.51
24.50
19.67
15.68
12.90
11.35
10.73
10.64
10.84
11.24
11.87
12.68
13.52
14.14
14.29
13.91
13.08
11.97
10.74
9.48
8.27
7.18
6.33
5.80
5.56
5.46
5.27
4.77
3.93
2.87
1.86
1.11
0.72
0.61
0.54
0.24
-0.47
-1.67
-3.25
-5.05
-6.81
-8.26
-9.13
-9.21
-8.38
-6.66
-4.29
-1.58
1.07
3.40
5.27
6.75
7.96
9.05
10.07
10.95
11.60
11.94
11.98
11.79
11.51
11.23
11.02
10.84
10.65
10.37
9.96
9.41
8.73
7.95
7.12
6.25
5.36
4.42
3.34
2.06
0.51
-1.30
-3.28
-5.27
-7.02
-8.29
-8.81
-8.43
-7.10
-4.96
-2.29
0.58
3.36
5.84
7.94
9.65
10.94
11.80
12.23
12.26
11.99
11.56
11.07
10.58
10.10
9.61
9.14
8.76
8.53
8.47
8.50
8.48
8.24
7.67
6.73
5.52
4.16
2.77
1.41
0.10
-1.18
-2.44
-3.67
-4.87
-6.05
-7.26
-8.51
-9.69
-10.60
-10.93
-10.41
-8.93
-6.64
-3.90
-1.16
1.27
3.25
4.87
6.24
7.44
8.42
9.05
9.21
8.89
8.19
7.32
6.53
6.00
5.79
5.85
6.01
6.09
5.93
5.49
4.86
4.21
3.68
3.36
3.19
3.03
2.73
2.19
1.42
0.48
-0.54
-1.58
-2.61
-3.57
-4.38
-4.90
-5.07
-4.91
-4.57
-4.28
-4.18
-4.28
-4.38
-4.21
-3.58
-2.46
-1.06
0.31
1.39
2.02
2.24
2.22
2.14
2.12
2.20
2.36
2.54
2.73
2.92
3.12
3.31
3.43
3.42
3.21
2.79
2.15
1.30
0.30
-0.79
-1.88
-2.85
-3.60
-4.12
-4.52
-5.04
-5.91
-7.25
-8.94
-10.65
-11.91
-12.33
-11.70
-10.11
-7.88
-5.42
-3.07
-0.95
0.96
2.76
4.47
5.94
6.96
7.33
7.05
6.31
5.41
4.61
4.06
3.73
3.52
3.33
3.14
2.94
2.75
2.55
2.28
1.88
1.35
0.69
-0.06
-0.87
-1.74
-2.66
-3.66
-4.73
-5.83
-6.89
-7.83
-8.52
-8.88
-8.83
-8.35
-7.42
-6.05
-4.30
-2.28
-0.18
1.78
3.39
4.53
5.17
5.41
5.37
5.19
4.97
4.74
4.49
4.21
3.86
3.44
3.01
2.62
2.33
2.15
2.02
1.78
1.31
0.53
-0.52
-1.72
-2.88
-3.90
-4.73
-5.43
-6.08
-6.74
-7.47
-8.27
-9.10
-9.89
-10.45
-10.57
-10.06
-8.84
-7.01
-4.82
-2.59
-0.61
0.98
2.20
3.12
3.84
4.40
4.74
4.82
4.61
4.21
3.81
3.61
3.74
4.17
4.73
5.19
5.34
5.16
4.72
4.18
3.65
3.10
2.45
1.60
0.54
-0.62
-1.73
-2.63
-3.29
-3.77
-4.21
-4.72
-5.38
-6.20
-7.17
-8.25
-9.35
-10.35
-11.07
-11.34
-11.00
-9.98
-8.33
-6.19
-3.74
-1.22
1.17
3.22
4.75
5.67
5.98
5.83
5.41
4.93
4.53
4.27
4.12
4.07
4.12
4.32
4.67
5.10
5.50
5.73
5.69
5.38
4.87
4.27
3.67
3.11
2.55
1.94
1.21
0.35
-0.67
-1.84
-3.23
-4.88
-6.83
-9.02
-11.27
-13.23
-14.53
-14.86
-14.08
-12.33
-9.94
-7.36
-5.01
-3.17
-1.93
-1.22
-0.86
-0.70
-0.66
-0.73
-0.96
-1.35
-1.84
-2.25
-2.44
-2.29
-1.87
-1.32
-0.82
-0.46
-0.24
-0.08
0.06
0.14
0.04
-0.36
-1.10
-2.10
-3.22
-4.28
-5.21
-6.02
-6.80
-7.67
-8.67
-9.78
-10.88
-11.75
-12.17
-11.92
-10.89
-9.14
-6.88
-4.41
-2.07
-0.10
1.40
2.41
3.01
3.30
3.37
3.27
3.07
2.79
2.44
2.03
1.58
1.08
0.54
-0.09
-0.82
-1.66
-2.59
-3.54
-4.46
-5.35
-6.25
-7.21
-8.28
-9.35
-10.26
-10.76
-10.66
-9.89
-8.50
-6.73
-4.82
-3.04
-1.57
-0.48
0.29
0.91
1.65
2.74
4.29
6.26
8.46
10.62
12.45
13.77
14.57
14.98
15.20
15.39
15.63
15.81
15.76
15.31
14.43
13.26
12.03
10.97
10.15
9.50
8.85
8.11
7.29
6.52
5.92
5.47
5.03
4.42
3.51
2.36
1.20
0.24
-0.42
-0.87
-1.35
-2.09
-3.16
-4.44
-5.74
-6.91
-7.96
-9.01
-10.20
-11.50
-12.70
-13.47
-13.55
-12.83
-11.50
-9.91
-8.41
-7.26
-6.50
-6.05
-5.74
-5.46
-5.13
-4.78
-4.48
-4.25
-4.08
-3.86
-3.40
-2.51
-1.07
0.93
3.34
5.95
8.51
10.84
12.83
14.39
15.52
16.16
16.32
16.03
15.38
14.47
13.43
12.29
11.07
9.72
8.21
6.54
4.81
3.18
1.88
1.09
0.93
1.41
2.40
3.70
5.11
6.43
7.57
8.48
9.13
9.52
9.63
9.43
8.93
8.21
7.36
6.50
5.70
5.01
4.42
3.90
3.42
2.96
2.52
2.10
1.69
1.25
0.75
0.12
-0.66
-1.60
-2.65
-3.73
-4.74
-5.63
-6.39
-7.06
-7.75
-8.55
-9.47
-10.46
-11.38
-12.07
-12.35
-12.07
-11.15
-9.64
-7.68
-5.56
-3.62
-2.11
-1.17
-0.71
-0.50
-0.29
0.07
0.59
1.12
1.53
1.78
1.91
2.01
2.13
2.17
1.97
1.38
0.41
-0.75
-1.80
-2.50
-2.73
-2.55
-2.10
-1.51
-0.78
0.10
1.11
2.08
2.75
2.87
2.30
1.09
-0.53
-2.26
-3.73
-4.59
-4.52
-3.29
-0.90
2.44
6.23
9.89
12.95
15.21
16.79
18.07
19.37
20.83
22.31
23.46
23.88
23.34
21.82
19.55
16.83
13.90
10.85
7.69
4.42
1.18
-1.76
-3.93
-4.83
-4.09
-1.61
2.33
7.17
12.08
16.13
18.38
18.24
15.67
11.15
5.41
-0.76
-6.79
-12.44
-17.66
-22.71
-27.52
-31.71
-34.73
-36.27
-36.35
-35.25
-33.33
-30.62
-27.04
-22.11
-15.16
-5.82
5.63
18.70
32.85
47.73
62.96
74.56
77.17
66.23
41.28
6.82
-28.98
-57.64
-74.54
-77.32
-66.68
-45.73
-18.93
9.81
35.45
53.75
62.14
60.05
48.89
31.19
10.38
-9.86
-26.28
-37.00
-41.52
-40.82
-36.79
-31.42
-26.43
-22.63
-19.92
-17.54
-14.83
-11.38
-7.27
-3.10
0.50
2.88
3.76
3.30
1.95
0.18
-1.60
-3.15
-4.40
-5.42
-6.36
-7.38
-8.55
-9.82
-11.12
-12.26
-13.08
-13.47
-13.43
-13.09
-12.62
-12.16
-11.78
-11.41
-10.87
-9.89
-8.22
-5.69
-2.23
2.03
6.75
11.42
15.43
18.23
19.46
19.02
17.13
14.23
10.90
7.69
5.07
3.31
2.48
2.45
2.95
3.64
4.17
4.26
3.71
2.49
0.69
-1.45
-3.62
-5.55
-7.05
-8.12
-8.94
-9.78
-10.89
-12.43
-14.38
-16.56
-18.71
-20.56
-21.92
-22.67
-22.74
-22.01
-20.28
-17.34
-13.11
-7.78
-1.78
4.33
10.05
15.07
19.22
22.37
24.36
25.01
24.30
22.49
20.11
17.79
16.00
14.87
14.17
13.55
12.73
11.69
10.60
9.71
9.20
9.13
9.40
9.92
10.53
11.10
11.47
11.48
11.01
10.10
8.95
7.85
7.13
6.95
7.25
7.70
7.92
7.58
6.60
5.10
3.38
1.78
0.53
-0.19
-0.28
0.39
1.93
4.38
7.61
11.26
14.80
17.73
19.73
20.85
21.53
22.47
24.41
27.89
32.99
39.32
46.05
52.17
56.79
59.38
59.99
59.11
57.54
56.05
55.16
55.00
55.33
55.59
55.05
53.01
48.95
42.70
34.57
25.37
16.20
8.05
1.49
-3.59
-7.85
-12.24
-17.47
-23.80
-30.96
-38.33
-45.27
-51.44
-56.80
-61.50
-65.71
-69.36
-72.16
-73.64
-73.37
-71.18
-67.26
-62.18
-56.75
-51.78
-47.88
-45.35
-44.04
-43.48
-42.96
-41.69
-39.05
-34.69
-28.74
-21.76
-14.66
-8.41
-3.81
-1.17
-0.26
-0.45
-1.00
-1.45
-1.84
-2.69
-4.64
-7.96
-12.25
-16.45
-19.19
-19.45
-16.93
-12.16
-6.21
-0.16
5.32
10.06
14.19
17.77
20.56
22.09
21.89
19.84
16.24
11.74
7.02
2.51
-1.64
-5.47
-9.05
-12.31
-15.17
-17.52
-19.34
-20.64
-21.40
-21.56
-21.06
-19.94
-18.46
-17.02
-16.00
-15.57
-15.62
-15.76
-15.57
-14.78
-13.39
-11.68
-10.07
-9.03
-8.77
-9.27
-10.22
-11.17
-11.75
-11.76
-11.25
-10.43
-9.55
-8.76
-8.13
-7.63
-7.26
-7.07
-7.10
-7.40
-7.90
-8.45
-8.89
-9.15
-9.29
-9.50
-9.99
-10.89
-12.10
-13.28
-13.98
-13.75
-12.35
-9.78
-6.25
-2.09
2.38
6.84
11.03
14.73
17.76
20.02
21.47
22.11
22.00
21.18
19.74
17.85
15.73
13.72
12.14
11.22
11.00
11.31
11.84
12.15
11.88
10.83
9.07
6.82
4.41
2.12
0.10
-1.59
-2.98
-4.09
-4.90
-5.41
-5.66
-5.82
-6.08
-6.59
-7.35
-8.21
-8.96
-9.44
-9.59
-9.50
-9.30
-9.10
-8.94
-8.85
-8.85
-8.98
-9.31
-9.92
-10.80
-11.83
-12.86
-13.68
-14.13
-14.13
-13.64
-12.70
-11.42
-9.95
-8.51
-7.37
-6.73
-6.64
-6.96
-7.38
-7.60
-7.60
-7.76
-8.80
-11.41
-15.86
-21.74
-28.00
-33.24
-36.07
-35.41
-30.70
-22.04
-10.21
3.38
16.94
28.83
37.95
44.07
47.69
49.60
50.36
50.10
48.67
45.99
42.39
38.54
35.16
32.72
31.25
30.40
29.62
28.18
25.16
19.56
10.56
-1.84
-16.41
-30.70
-41.82
-47.59
-47.44
-42.65
-35.63
-28.79
-23.51
-19.97
-17.56
-15.65
-14.12
-13.34
-13.66
-14.98
-16.61
-17.62
-17.30
-15.54
-12.91
-10.33
-8.60
-8.12
-8.71
-9.73
-10.45
-10.29
-9.12
-7.26
-5.36
-4.10
-3.96
-5.00
-6.89
-9.06
-10.92
-12.03
-12.20
-11.48
-10.04
-8.12
-5.95
-3.75
-1.64
0.33
2.23
4.17
6.30
8.63
11.07
13.38
15.30
16.61
17.28
17.40
17.23
17.01
16.90
16.92
17.00
17.02
16.92
16.65
16.23
15.61
14.76
13.67
12.38
10.99
9.66
8.50
7.50
6.60
5.70
4.73
3.68
2.57
1.42
0.24
-0.98
-2.22
-3.43
-4.54
-5.41
-5.89
-5.83
-5.17
-3.95
-2.39
-0.79
0.52
1.28
1.36
0.72
-0.55
-2.21
-3.81
-4.69
-4.07
-1.33
3.63
10.36
17.82
24.74
30.00
32.92
33.39
31.88
29.29
26.71
25.25
25.72
28.36
32.64
37.22
40.20
39.65
34.16
23.32
7.95
-10.17
-28.77
-45.82
-59.91
-70.54
-77.99
-83.07
-86.88
-90.60
-95.34
-101.86
-110.22
-119.48
-127.58
-131.79
-129.50
-119.25
-101.44
-78.42
-53.90
-31.82
-15.26
-5.64
-2.43
-3.32
-4.83
-3.16
4.82
20.55
43.16
69.57
95.30
115.97
128.64
132.59
129.20
121.02
110.68
100.10
90.26
81.46
73.77
67.20
61.75
57.23
53.22
49.20
44.76
39.86
34.91
30.60
27.58
26.11
25.89
26.13
25.93
24.66
22.26
19.25
16.42
14.45
13.59
13.59
13.84
13.74
12.86
11.12
8.64
5.65
2.35
-1.12
-4.64
-8.06
-11.17
-13.74
-15.56
-16.56
-16.81
-16.54
-16.05
-15.62
-15.36
-15.22
-15.04
-14.65
-14.01
-13.16
-12.29
-11.58
-11.17
-11.11
-11.35
-11.75
-12.04
-11.90
-11.04
-9.28
-6.63
-3.29
0.47
4.36
8.19
11.85
15.22
18.18
20.58
22.36
23.52
24.21
24.60
24.83
24.90
24.72
24.13
23.03
21.42
19.46
17.40
15.52
14.02
12.94
12.15
11.34
10.15
8.28
5.65
2.40
-1.11
-4.51
-7.47
-9.90
-11.83
-13.42
-14.84
-16.20
-17.53
-18.80
-19.89
-20.63
-20.76
-20.07
-18.44
-15.93
-12.81
-9.48
-6.35
-3.69
-1.58
0.01
1.23
2.21
3.02
3.71
4.32
4.90
5.47
6.08
6.72
7.37
7.98
8.52
8.95
9.23
9.27
8.99
8.27
7.09
5.53
3.80
2.28
1.35
1.22
1.87
2.95
3.93
4.32
3.88
2.69
1.07
-0.64
-2.25
-3.81
-5.48
-7.42
-9.66
-12.10
-14.66
-17.32
-20.12
-23.02
-25.74
-27.74
-28.44
-27.43
-24.67
-20.53
-15.57
-10.36
-5.26
-0.50
3.80
7.41
10.12
11.73
12.28
12.05
11.48
11.02
10.91
11.20
11.69
12.09
12.13
11.58
10.35
8.48
6.19
3.83
1.81
0.51
0.15
0.76
2.13
3.95
5.86
7.58
8.91
9.78
10.20
10.21
9.80
8.94
7.61
5.84
3.72
1.39
-0.95
-3.16
-5.13
-6.81
-8.22
-9.34
-10.19
-10.74
-11.00
-10.95
-10.56
-9.76
-8.46
-6.56
-4.06
-1.02
2.37
5.93
9.43
12.73
15.68
18.18
20.06
21.11
21.18
20.22
18.42
16.20
14.17
12.92
12.85
14.12
16.69
20.30
24.67
29.41
34.06
38.09
40.89
42.02
41.26
38.73
34.77
29.85
24.27
18.13
11.39
4.00
-3.87
-11.74
-18.88
-24.59
-28.46
-30.57
-31.47
-31.97
-32.77
-34.18
-36.12
-38.17
-39.90
-41.02
-41.51
-41.51
-41.26
-40.93
-40.61
-40.21
-39.47
-37.95
-35.08
-30.30
-23.23
-13.90
-2.91
8.58
19.03
26.93
31.28
31.88
29.43
25.19
20.56
16.60
13.82
12.25
11.67
11.83
12.52
13.53
14.59
15.32
15.37
14.54
12.88
10.62
8.04
5.41
2.90
0.63
-1.32
-2.80
-3.67
-3.82
-3.25
-2.04
-0.43
1.30
2.80
3.71
3.72
2.63
0.38
-2.87
-6.77
-10.85
-14.64
-17.84
-20.35
-22.27
-23.79
-25.04
-26.05
-26.76
-27.10
-27.03
-26.63
-26.02
-25.32
-24.60
-23.86
-23.11
-22.38
-21.70
-21.03
-20.20
-18.92
-16.93
-14.10
-10.53
-6.54
-2.53
1.17
4.37
7.03
9.14
10.72
11.73
12.17
12.12
11.72
11.17
10.65
10.26
10.03
9.91
9.83
9.71
9.48
9.08
8.50
7.75
6.90
6.06
5.33
4.82
4.51
4.33
4.07
3.52
2.52
1.08
-0.66
-2.46
-4.13
-5.60
-6.93
-8.26
-9.71
-11.30
-12.92
-14.35
-15.30
-15.50
-14.80
-13.18
-10.83
-8.07
-5.25
-2.65
-0.42
1.45
3.03
4.38
5.46
6.21
6.57
6.54
6.23
5.75
5.21
4.66
4.10
3.51
2.91
2.29
1.66
1.03
0.41
-0.21
-0.76
-1.23
-1.57
-1.82
-2.03
-2.32
-2.76
-3.40
-4.18
-4.99
-5.69
-6.19
-6.50
-6.72
-7.00
-7.51
-8.36
-9.57
-11.06
-12.67
-14.14
-15.16
-15.47
-14.88
-13.39
-11.12
-8.33
-5.30
-2.24
0.66
3.30
5.57
7.39
8.72
9.61
10.15
10.48
10.71
10.86
10.94
10.90
10.70
10.31
9.75
9.00
8.08
7.04
5.94
4.84
3.82
2.91
2.10
1.35
0.60
-0.16
-0.94
-1.68
-2.32
-2.82
-3.16
-3.39
-3.58
-3.83
-4.22
-4.85
-5.81
-7.21
-9.14
-11.52
-14.14
-16.60
-18.45
-19.29
-18.94
-17.50
-15.27
-12.69
-10.12
-7.83
-5.91
-4.36
-3.12
-2.13
-1.35
-0.73
-0.26
0.08
0.32
0.49
0.62
0.76
0.97
1.22
1.49
1.71
1.85
1.88
1.82
1.68
1.42
1.02
0.47
-0.20
-0.88
-1.46
-1.87
-2.08
-2.17
-2.25
-2.43
-2.76
-3.26
-3.93
-4.76
-5.76
-6.98
-8.45
-10.18
-12.08
-13.99
-15.66
-16.78
-17.13
-16.56
-15.09
-12.88
-10.16
-7.21
-4.24
-1.45
1.07
3.31
5.34
7.24
9.10
10.91
12.60
14.08
15.25
16.05
16.46
16.51
16.23
15.72
15.07
14.39
13.78
13.23
12.66
11.96
11.00
9.69
8.04
6.13
4.08
2.01
0.08
-1.60
-2.97
-4.05
-4.98
-5.99
-7.28
-9.01
-11.17
-13.60
-16.00
-18.03
-19.39
-19.88
-19.46
-18.18
-16.20
-13.71
-10.98
-8.28
-5.86
-3.87
-2.32
-1.08
0.04
1.18
2.35
3.47
4.43
5.18
5.78
6.33
6.87
7.39
7.79
8.00
8.06
8.06
8.11
8.20
8.22
7.97
7.30
6.22
4.87
3.52
2.42
1.66
1.21
0.88
0.47
-0.16
-1.06
-2.21
-3.47
-4.66
-5.56
-5.98
-5.81
-5.07
-3.93
-2.64
-1.43
-0.43
0.36
1.04
1.71
2.40
3.06
3.62
4.04
4.32
4.56
4.85
5.25
5.77
6.33
6.88
7.41
7.95
8.55
9.24
9.96
10.56
10.90
10.86
10.41
9.64
8.71
7.81
7.04
6.44
5.89
5.16
4.00
2.17
-0.40
-3.61
-7.08
-10.32
-12.85
-14.35
-14.82
-14.52
-13.84
-13.11
-12.49
-11.94
-11.26
-10.32
-9.04
-7.44
-5.58
-3.51
-1.22
1.23
3.76
6.17
8.29
9.96
11.16
11.91
12.29
12.41
12.36
12.21
12.02
11.80
11.50
10.98
10.10
8.78
7.06
5.17
3.38
1.94
0.94
0.29
-0.22
-0.83
-1.71
-2.89
-4.36
-6.04
-7.78
-9.37
-10.51
-10.87
-10.24
-8.61
-6.20
-3.43
-0.70
1.68
3.59
5.01
6.01
6.71
7.20
7.62
8.09
8.70
9.43
10.20
10.89
11.37
11.58
11.51
11.21
10.78
10.36
10.07
9.96
10.00
10.05
9.93
9.50
8.71
7.62
6.35
5.04
3.81
2.76
1.90
1.21
0.59
-0.06
-0.80
-1.65
-2.56
-3.49
-4.44
-5.49
-6.72
-8.08
-9.34
-10.15
-10.16
-9.21
-7.40
-5.07
-2.60
-0.29
1.74
3.57
5.28
6.94
8.48
9.79
10.73
11.25
11.38
11.21
10.88
10.50
10.16
9.88
9.67
9.54
9.47
9.43
9.40
9.36
9.28
9.20
9.10
8.97
8.75
8.39
7.90
7.32
6.76
6.28
5.89
5.49
4.97
4.25
3.36
2.40
1.45
0.56
-0.29
-1.13
-1.97
-2.79
-3.51
-4.06
-4.33
-4.23
-3.63
-2.46
-0.69
1.63
4.39
7.45
10.62
13.66
16.20
17.83
18.17
17.11
14.88
11.99
9.07
6.58
4.67
3.18
1.83
0.39
-1.15
-2.67
-4.03
-5.12
-5.97
-6.65
-7.28
-7.89
-8.53
-9.19
-9.90
-10.71
-11.63
-12.63
-13.66
-14.59
-15.35
-15.91
-16.34
-16.78
-17.38
-18.20
-19.20
-20.24
-21.11
-21.61
-21.55
-20.86
-19.51
-17.62
-15.37
-12.99
-10.66
-8.50
-6.53
-4.69
-2.97
-1.41
-0.08
0.98
1.77
2.38
2.94
3.54
4.22
4.96
5.71
6.41
7.06
7.65
8.21
8.77
9.34
9.88
10.35
10.65
10.67
10.32
9.52
8.26
6.56
4.48
2.12
-0.37
-2.85
-5.15
-7.17
-8.89
-10.37
-11.70
-13.01
-14.36
-15.70
-16.90
-17.80
-18.20
-18.02
-17.27
-16.04
-14.46
-12.64
-10.65
-8.54
-6.39
-4.31
-2.42
-0.80
0.58
1.82
3.01
4.19
5.25
6.07
6.51
6.62
6.50
6.36
6.30
6.32
6.26
5.96
5.28
4.20
2.79
1.22
-0.32
-1.68
-2.82
-3.80
-4.82
-6.14
-7.93
-10.22
-12.87
-15.58
-18.00
-19.88
-21.10
-21.75
-22.01
-22.19
-22.60
-23.54
-25.21
-27.65
-30.67
-33.92
-36.98
-39.55
-41.53
-42.97
-43.97
-44.31
-43.44
-40.45
-34.38
-24.57
-10.96
5.71
24.01
42.03
57.72
69.32
75.64
76.36
72.04
63.97
53.78
43.14
33.31
25.10
18.83
14.46
11.74
10.29
9.65
9.34
8.99
8.43
7.70
7.04
6.70
6.82
7.27
7.77
7.98
7.68
6.84
5.59
4.14
2.60
0.93
-0.98
-3.27
-5.92
-8.78
-11.52
-13.73
-15.01
-15.08
-13.89
-11.69
-9.00
-6.43
-4.52
-3.44
-2.96
-2.52
-1.47
0.76
4.34
9.09
14.48
19.82
24.43
27.82
29.81
30.60
30.74
30.94
31.88
33.87
36.76
39.93
42.46
43.45
42.28
38.83
33.46
26.87
19.87
13.19
7.32
2.51
-1.21
-4.00
-6.12
-7.97
-9.89
-12.13
-14.70
-17.30
-19.45
-20.68
-20.73
-19.73
-18.15
-16.61
-15.59
-15.29
-15.57
-16.07
-16.46
-16.61
-16.62
-16.80
-17.46
-18.79
-20.74
-23.05
-25.36
-27.33
-28.72
-29.45
-29.56
-29.10
-28.21
-26.98
-25.55
-24.08
-22.75
-21.69
-20.88
-20.08
-18.90
-16.94
-13.94
-9.98
-5.44
-0.91
3.01
5.89
7.51
7.95
7.45
6.39
5.26
4.52
4.55
5.49
7.27
9.60
12.12
14.52
16.55
18.04
18.87
19.00
18.41
17.22
15.61
13.77
11.89
10.08
8.47
7.18
6.34
6.03
6.17
6.51
6.75
6.61
5.96
4.84
3.38
1.74
0.03
-1.65
-3.18
-4.48
-5.47
-6.18
-6.72
-7.25
-7.94
-8.83
-9.83
-10.70
-11.18
-11.04
-10.23
-8.85
-7.11
-5.28
-3.53
-1.97
-0.66
0.34
0.91
0.93
0.33
-0.77
-2.13
-3.45
-4.54
-5.33
-5.93
-6.48
-7.10
-7.78
-8.45
-9.01
-9.39
-9.55
-9.48
-9.18
-8.61
-7.79
-6.73
-5.48
-4.10
-2.64
-1.12
0.44
2.03
3.62
5.20
6.74
8.24
9.70
11.10
12.41
13.58
14.53
15.22
15.67
15.89
15.93
15.85
15.64
15.25
14.61
13.70
12.51
11.14
9.72
8.42
7.35
6.60
6.11
5.80
5.50
5.07
4.41
3.53
2.47
1.34
0.23
-0.80
-1.71
-2.49
-3.18
-3.86
-4.61
-5.51
-6.55
-7.61
-8.46
-8.84
-8.55
-7.54
-5.94
-3.95
-1.83
0.21
2.05
3.59
4.82
5.78
6.54
7.19
7.80
8.37
8.81
9.03
8.96
8.63
8.10
7.50
6.91
6.39
5.96
5.60
5.30
5.02
4.69
4.28
3.75
3.12
2.42
1.72
1.06
0.49
0.02
-0.38
-0.76
-1.23
-1.91
-2.89
-4.13
-5.48
-6.67
-7.36
-7.35
-6.57
-5.17
-3.42
-1.66
-0.14
0.98
1.70
2.11
2.37
2.58
2.81
3.07
3.31
3.46
3.46
3.33
3.10
2.80
2.48
2.13
1.71
1.24
0.71
0.20
-0.24
-0.55
-0.75
-0.92
-1.16
-1.56
-2.17
-2.97
-3.89
-4.82
-5.68
-6.45
-7.17
-7.92
-8.81
-9.87
-11.10
-12.42
-13.70
-14.77
-15.48
-15.72
-15.48
-14.84
-13.96
-13.00
-12.12
-11.45
-11.02
-10.77
-10.63
-10.43
-10.05
-9.34
-8.26
-6.82
-5.09
-3.18
-1.11
1.11
3.50
6.04
8.64
11.16
13.48
15.49
17.13
18.37
19.14
19.30
18.74
17.42
15.50
13.29
11.19
9.51
8.33
7.47
6.59
5.38
3.74
1.82
-0.11
-1.77
-3.02
-3.91
-4.60
-5.17
-5.60
-5.74
-5.38
-4.42
-2.89
-0.96
1.11
3.10
4.86
6.35
7.58
8.55
9.18
9.35
8.93
7.93
6.59
5.26
4.37
4.24
4.98
6.49
8.56
10.94
13.37
15.55
17.15
17.83
17.38
15.79
13.34
10.51
7.87
5.82
4.49
3.64
2.76
1.26
-1.31
-5.07
-9.76
-14.77
-19.37
-22.87
-24.87
-25.24
-24.15
-21.95
-18.99
-15.64
-12.23
-9.05
-6.36
-4.33
-2.92
-1.92
-0.97
0.27
1.92
3.82
5.58
6.79
7.15
6.68
5.58
4.17
2.71
1.33
0.06
-1.06
-1.92
-2.32
-2.09
-1.20
0.18
1.69
2.87
3.34
2.87
1.48
-0.69
-3.37
-6.30
-9.19
-11.70
-13.51
-14.30
-13.96
-12.63
-10.69
-8.62
-6.79
-5.37
-4.29
-3.37
-2.39
-1.20
0.31
2.15
4.31
6.72
9.23
11.58
13.47
14.60
14.72
13.73
11.70
8.90
5.80
2.95
0.86
-0.17
-0.17
0.55
1.57
2.53
3.16
3.34
2.93
1.76
-0.33
-3.36
-7.03
-10.78
-13.90
-15.82
-16.40
-15.97
-15.08
-14.22
-13.56
-12.99
-12.39
-11.81
-11.50
-11.61
-11.89
-11.67
-10.12
-6.83
-2.12
2.98
7.34
10.26
11.90
13.09
14.80
17.54
21.13
24.92
28.13
30.30
31.35
31.47
30.91
29.83
28.27
26.25
23.82
21.12
18.30
15.51
12.86
10.41
8.17
6.12
4.20
2.30
0.34
-1.74
-3.95
-6.24
-8.58
-10.94
-13.34
-15.75
-18.04
-19.97
-21.27
-21.77
-21.51
-20.73
-19.78
-18.98
-18.45
-18.10
-17.68
-16.94
-15.75
-14.12
-12.19
-10.13
-8.10
-6.15
-4.31
-2.61
-1.08
0.16
1.00
1.40
1.39
1.11
0.70
0.28
-0.13
-0.62
-1.28
-2.12
-3.08
-4.07
-5.02
-5.97
-6.98
-8.13
-9.31
-10.30
-10.80
-10.60
-9.74
-8.43
-6.93
-5.46
-4.07
-2.69
-1.24
0.25
1.65
2.80
3.58
4.01
4.16
4.11
3.88
3.45
2.81
2.05
1.31
0.76
0.49
0.42
0.38
0.18
-0.27
-0.96
-1.78
-2.59
-3.32
-4.02
-4.79
-5.72
-6.85
-8.15
-9.46
-10.66
-11.62
-12.19
-12.25
-11.69
-10.46
-8.63
-6.40
-4.07
-1.93
-0.21
1.03
1.86
2.43
2.93
3.50
4.25
5.19
6.29
7.46
8.60
9.57
10.26
10.59
10.48
9.92
8.97
7.80
6.58
5.47
4.54
3.72
2.92
2.10
1.27
0.56
0.10
-0.06
-0.02
0.08
0.08
-0.06
-0.28
-0.42
-0.29
0.24
1.26
2.77
4.68
6.85
9.08
11.14
12.82
13.95
14.45
14.36
13.79
12.89
11.86
10.87
10.06
9.44
8.96
8.44
7.66
6.46
4.78
2.72
0.46
-1.79
-3.94
-5.99
-8.09
-10.38
-12.95
-15.72
-18.49
-21.02
-23.10
-24.66
-25.77
-26.58
-27.22
-27.68
-27.89
-27.72
-27.04
-25.80
-23.98
-21.54
-18.42
-14.51
-9.76
-4.26
1.77
7.99
14.05
19.63
24.51
28.55
31.66
33.76
34.88
35.10
34.68
33.98
33.41
33.27
33.72
34.67
35.90
37.07
37.81
37.85
37.04
35.37
32.90
29.72
25.87
21.44
16.47
10.99
5.09
-0.98
-6.84
-12.02
-16.11
-18.92
-20.43
-20.96
-20.95
-20.86
-20.74
-20.31
-19.23
-17.38
-15.02
-12.49
-10.32
-9.02
-8.95
-9.80
-10.89
-11.57
-11.53
-10.89
-9.48
-7.13
-3.86
0.04
4.55
9.34
13.56
16.01
15.54
12.66
8.81
5.65
4.28
5.71
10.33
17.83
27.40
37.79
48.69
59.60
69.21
71.13
60.41
36.77
5.44
-23.98
-49.48
-70.70
-87.39
-98.03
-100.77
-93.87
-77.05
-52.17
-23.18
4.69
27.51
42.65
49.03
47.10
39.41
29.67
21.45
17.02
16.55
19.23
23.23
26.19
26.06
22.12
14.99
6.21
-2.42
-9.56
-14.15
-16.05
-16.00
-15.16
-14.20
-13.16
-11.78
-10.00
-8.41
-7.80
-8.87
-11.75
-15.82
-19.80
-22.47
-23.20
-22.31
-20.77
-19.50
-18.89
-18.66
-18.05
-16.26
-12.88
-8.12
-2.85
1.68
4.15
3.71
0.28
-5.26
-11.28
-15.95
-17.79
-16.15
-11.29
-3.98
4.95
14.88
25.43
36.15
46.16
54.20
58.98
59.88
57.27
52.51
47.42
43.48
41.27
40.43
40.00
38.98
36.84
33.70
30.12
26.76
24.03
21.88
19.91
17.67
14.89
11.68
8.28
4.85
1.17
-3.27
-9.15
-16.82
-26.14
-36.38
-46.51
-55.51
-62.69
-67.75
-70.84
-72.44
-73.38
-74.79
-78.06
-84.37
-94.00
-105.53
-115.61
-119.67
-113.56
-95.58
-67.75
-35.47
-5.80
15.23
24.47
22.30
11.73
-3.18
-18.60
-31.57
-39.96
-42.38
-38.39
-28.87
-16.17
-3.65
5.28
8.14
4.11
-5.81
-19.15
-32.55
-42.33
-45.23
-39.20
-24.08
-1.87
23.64
47.94
67.13
79.09
83.86
83.22
79.65
75.16
70.68
66.14
61.05
55.19
48.78
42.45
36.86
32.29
28.46
24.76
20.63
15.98
11.22
7.04
3.97
2.32
1.98
2.37
2.73
2.44
1.37
-0.16
-1.77
-3.28
-4.52
-5.48
-6.30
-7.30
-8.62
-10.16
-11.65
-12.88
-13.66
-13.24
-10.44
-4.15
6.10
19.90
36.04
52.61
67.11
74.96
71.97
56.98
32.94
4.80
-22.91
-46.88
-64.64
-74.42
-75.27
-67.29
-52.18
-33.34
-15.27
-1.92
4.46
4.53
0.06
-6.69
-13.52
-19.02
-22.74
-25.14
-26.81
-28.07
-28.90
-29.40
-29.83
-30.46
-31.74
-33.33
-35.32
-37.79
-40.76
-44.30
-48.75
-54.27
-60.37
-65.68
-68.24
-66.28
-58.84
-46.16
-29.59
-11.10
7.41
24.45
38.86
49.68
56.02
57.55
54.72
48.69
40.89
32.31
23.21
13.16
1.67
-11.23
-24.71
-37.19
-46.81
-51.76
-50.68
-42.82
-28.49
-9.25
12.31
33.30
51.66
66.92
80.13
92.98
106.54
120.35
132.54
140.66
142.95
138.95
129.56
116.28
100.53
83.28
65.21
47.07
29.91
14.98
3.23
-5.02
-10.27
-13.58
-16.10
-18.60
-21.34
-24.02
-26.14
-27.28
-27.36
-26.71
-25.90
-25.52
-25.90
-27.07
-28.78
-30.65
-32.33
-33.65
-34.61
-35.37
-36.09
-36.89
-37.80
-38.77
-39.67
-40.38
-40.82
-40.96
-40.89
-40.77
-40.81
-41.15
-41.80
-42.64
-43.33
-43.46
-42.60
-40.40
-36.65
-31.40
-24.94
-17.83
-10.76
-4.35
0.96
5.15
8.52
11.64
15.09
19.29
24.33
29.99
35.83
41.31
45.98
49.61
52.18
53.84
54.81
55.26
55.30
54.92
54.02
52.39
49.76
45.80
40.30
33.27
25.12
16.64
8.77
2.36
-2.18
-4.98
-6.64
-7.85
-9.15
-10.63
-11.97
-12.53
-11.74
-9.36
-5.77
-1.99
0.66
0.94
-1.80
-7.28
-14.42
-21.66
-27.48
-30.85
-31.44
-29.52
-25.74
-20.85
-15.54
-10.32
-5.47
-1.00
3.32
7.76
12.39
16.68
19.48
19.26
14.76
5.84
-6.05
-18.10
-27.16
-30.95
-29.05
-22.93
-15.24
-8.54
-4.37
-2.97
-3.64
-5.40
-7.43
-9.15
-9.99
-9.38
-6.88
-2.56
2.82
7.99
11.64
13.08
12.52
10.89
9.34
8.68
8.94
9.48
9.34
7.78
4.64
0.48
-3.67
-6.72
-7.91
-7.07
-4.61
-1.32
1.86
4.16
5.16
4.97
4.35
4.63
7.40
13.72
23.24
33.83
41.96
44.07
38.19
25.10
8.07
-8.48
-20.73
-26.72
-26.58
-21.78
-14.18
-5.44
3.07
10.13
14.68
16.18
15.01
12.50
10.57
10.89
14.33
20.67
28.82
37.09
43.66
46.86
45.52
39.27
28.68
15.26
1.11
-11.60
-21.25
-27.08
-29.37
-29.16
-27.82
-26.55
-26.02
-26.23
-26.70
-26.73
-25.77
-23.62
-20.53
-17.08
-13.94
-11.68
-10.66
-10.92
-12.27
-14.36
-16.84
-19.45
-21.98
-24.35
-26.45
-28.22
-29.63
-30.71
-31.49
-31.99
-32.06
-31.39
-29.65
-26.57
-22.22
-17.00
-11.51
-6.37
-2.03
1.38
4.02
6.15
8.05
9.95
11.97
14.25
16.87
19.82
22.92
25.81
28.03
29.21
29.17
28.08
26.35
24.53
23.08
22.20
21.68
21.00
19.51
16.77
12.79
8.14
3.76
0.60
-0.79
-0.52
0.70
1.82
1.88
0.43
-2.41
-5.91
-9.07
-10.95
-10.95
-8.98
-5.46
-1.17
3.14
7.04
10.67
14.85
20.83
29.81
42.31
57.55
73.15
85.64
91.44
88.20
75.72
56.08
32.83
9.66
-10.89
-27.93
-41.97
-54.02
-64.71
-73.87
-80.70
-84.38
-84.56
-81.59
-76.37
-69.95
-63.32
-57.24
-52.38
-49.23
-48.04
-48.45
-49.30
-48.83
-45.14
-37.04
-24.60
-9.32
6.42
20.22
30.42
36.47
38.80
38.39
36.29
33.41
30.43
27.85
26.01
25.02
24.68
24.51
23.94
22.51
20.14
17.12
14.03
11.49
9.90
9.31
9.34
9.39
8.85
7.33
4.87
1.82
-1.30
-4.11
-6.54
-8.78
-11.13
-13.65
-16.03
-17.61
-17.62
-15.45
-10.83
-3.96
4.55
13.78
22.57
29.71
34.26
35.77
34.54
31.50
27.95
25.03
23.25
22.38
21.61
20.00
16.95
12.40
6.73
0.41
-6.25
-13.28
-20.75
-28.44
-35.50
-40.59
-42.46
-40.71
-36.28
-31.22
-27.80
-27.47
-30.07
-33.92
-36.64
-36.28
-32.10
-24.66
-15.38
-5.73
3.32
11.37
18.39
24.35
29.01
32.06
33.27
32.69
30.72
28.00
25.15
22.60
20.46
18.59
16.70
14.55
12.08
9.45
6.93
4.81
3.28
2.36
1.94
1.89
2.06
2.40
2.92
3.64
4.49
5.31
5.78
5.59
4.50
2.53
-0.06
-2.81
-5.21
-6.88
-7.62
-7.47
-6.59
-5.20
-3.44
-1.39
0.94
3.50
6.12
8.54
10.44
11.59
11.91
11.50
10.60
9.46
8.23
6.99
5.69
4.30
2.82
1.30
-0.19
-1.55
-2.66
-3.45
-3.88
-4.02
-4.03
-4.14
-4.54
-5.35
-6.50
-7.84
-9.17
-10.33
-11.26
-12.02
-12.75
-13.57
-14.52
-15.47
-16.24
-16.52
-16.10
-14.83
-12.77
-10.09
-7.07
-3.99
-1.10
1.45
3.57
5.33
6.78
8.03
9.14
10.10
10.82
11.21
11.21
10.80
10.08
9.16
8.22
7.36
6.66
6.17
5.87
5.79
5.92
6.24
6.66
7.00
7.03
6.58
5.54
4.05
2.36
0.83
-0.26
-0.76
-0.72
-0.32
0.16
0.52
0.58
0.24
-0.51
-1.60
-2.88
-4.11
-5.01
-5.37
-5.12
-4.35
-3.30
-2.25
-1.42
-0.94
-0.80
-0.94
-1.32
-2.03
-3.31
-5.56
-9.15
-14.11
-19.97
-25.70
-29.96
-31.59
-30.12
-25.97
-20.27
-14.41
-9.47
-5.95
-3.72
-2.33
-1.37
-0.58
0.07
0.52
0.77
0.93
1.11
1.35
1.55
1.47
0.86
-0.40
-2.22
-4.24
-5.97
-6.92
-6.80
-5.62
-3.70
-1.50
0.56
2.22
3.45
4.37
5.14
5.82
6.40
6.75
6.80
6.54
6.02
5.38
4.68
3.98
3.26
2.50
1.73
1.00
0.34
-0.23
-0.72
-1.24
-1.85
-2.66
-3.69
-4.92
-6.22
-7.39
-8.20
-8.50
-8.32
-7.93
-7.69
-7.99
-8.97
-10.47
-12.07
-13.21
-13.39
-12.41
-10.37
-7.61
-4.61
-1.82
0.49
2.19
3.33
4.00
4.31
4.36
4.22
3.96
3.64
3.23
2.65
1.79
0.64
-0.62
-1.61
-1.79
-0.73
1.70
5.12
8.78
11.74
13.31
13.30
12.05
10.25
8.56
7.28
6.29
5.13
3.36
0.75
-2.59
-6.31
-9.99
-13.31
-16.09
-18.30
-19.89
-20.76
-20.81
-19.94
-18.13
-15.49
-12.21
-8.48
-4.44
-0.16
4.33
8.90
13.22
16.79
19.06
19.68
18.62
16.24
13.10
9.79
6.69
3.93
1.50
-0.64
-2.41
-3.67
-4.31
-4.42
-4.22
-4.01
-3.91
-3.84
-3.57
-2.80
-1.43
0.46
2.65
4.89
7.00
8.96
10.81
12.70
14.75
16.98
19.20
20.97
21.59
20.34
16.71
10.80
3.34
-4.29
-10.44
-13.69
-13.28
-9.37
-3.04
4.12
10.53
15.05
17.22
17.23
15.56
12.74
9.17
5.16
1.09
-2.60
-5.51
-7.49
-8.73
-9.64
-10.67
-12.00
-13.48
-14.71
-15.26
-14.93
-13.79
-12.13
-10.30
-8.55
-7.01
-5.66
-4.44
-3.37
-2.47
-1.84
-1.51
-1.40
-1.28
-0.85
0.13
1.77
3.94
6.28
8.33
9.66
10.01
9.35
7.91
6.05
4.16
2.52
1.22
0.15
-0.87
-2.00
-3.29
-4.60
-5.73
-6.51
-6.81
-6.64
-6.02
-5.01
-3.64
-1.92
0.05
2.12
4.05
5.61
6.66
7.19
7.35
7.31
7.22
7.12
6.96
6.64
6.10
5.39
4.63
4.02
3.71
3.74
4.03
4.40
4.65
4.64
4.28
3.60
2.67
1.60
0.49
-0.63
-1.73
-2.86
-4.04
-5.23
-6.35
-7.22
-7.68
-7.60
-6.98
-5.91
-4.57
-3.12
-1.69
-0.32
1.03
2.39
3.78
5.14
6.34
7.27
7.83
8.04
7.99
7.83
7.67
7.58
7.48
7.29
6.93
6.36
5.61
4.74
3.78
2.76
1.71
0.61
-0.49
-1.54
-2.45
-3.17
-3.67
-4.01
-4.29
-4.65
-5.20
-6.03
-7.11
-8.34
-9.54
-10.42
-10.74
-10.28
-9.02
-7.13
-4.95
-2.83
-1.08
0.21
1.15
1.90
2.64
3.47
4.35
5.19
5.91
6.43
6.76
6.95
7.04
7.09
7.12
7.14
7.14
7.09
6.96
6.72
6.29
5.61
4.63
3.39
2.03
0.77
-0.18
-0.75
-1.02
-1.23
-1.65
-2.44
-3.63
-5.05
-6.40
-7.36
-7.70
-7.28
-6.10
-4.32
-2.14
0.15
2.33
4.36
6.36
8.59
11.28
14.41
17.60
20.19
21.50
21.08
18.98
15.68
11.92
8.35
5.41
3.17
1.53
0.32
-0.63
-1.48
-2.41
-3.61
-5.24
-7.31
-9.66
-12.04
-14.16
-15.83
-17.01
-17.85
-18.58
-19.45
-20.66
-22.20
-23.89
-25.35
-26.10
-25.78
-24.24
-21.60
-18.25
-14.69
-11.35
-8.50
-6.16
-4.20
-2.41
-0.61
1.26
3.12
4.83
6.23
7.23
7.93
8.49
9.10
9.88
10.76
11.59
12.19
12.43
12.34
11.99
11.47
10.82
10.03
9.09
8.02
6.90
5.79
4.69
3.57
2.40
1.17
-0.01
-1.00
-1.76
-2.37
-3.03
-3.98
-5.29
-6.83
-8.27
-9.24
-9.47
-8.91
-7.74
-6.26
-4.72
-3.25
-1.85
-0.43
1.04
2.51
3.85
4.95
5.75
6.29
6.65
6.94
7.21
7.43
7.53
7.43
7.10
6.54
5.87
5.23
4.78
4.59
4.62
4.71
4.64
4.23
3.44
2.34
1.14
0.03
-0.87
-1.56
-2.18
-2.84
-3.64
-4.63
-5.74
-6.94
-8.14
-9.32
-10.44
-11.44
-12.19
-12.51
-12.26
-11.35
-9.85
-7.89
-5.67
-3.39
-1.20
0.77
2.42
3.68
4.55
5.08
5.41
5.66
5.88
6.04
6.04
5.83
5.41
4.89
4.38
3.96
3.63
3.34
2.99
2.52
1.90
1.11
0.20
-0.80
-1.78
-2.64
-3.33
-3.83
-4.24
-4.71
-5.31
-6.11
-7.06
-8.12
-9.25
-10.43
-11.55
-12.43
-12.81
-12.44
-11.18
-9.08
-6.35
-3.33
-0.36
2.29
4.47
6.16
7.42
8.33
8.96
9.35
9.48
9.37
9.06
8.62
8.18
7.76
7.37
6.93
6.35
5.56
4.61
3.58
2.57
1.68
0.89
0.16
-0.61
-1.47
-2.44
-3.49
-4.58
-5.71
-6.88
-8.16
-9.54
-10.97
-12.32
-13.46
-14.21
-14.46
-14.11
-13.13
-11.57
-9.54
-7.23
-4.81
-2.39
-0.03
2.28
4.49
6.53
8.24
9.54
10.42
11.01
11.48
11.98
12.51
12.97
13.22
13.19
12.89
12.40
11.87
11.38
10.95
10.52
9.96
9.17
8.06
6.69
5.21
3.83
2.72
1.96
1.54
1.34
1.19
0.91
0.28
-0.94
-2.93
-5.72
-9.09
-12.53
-15.42
-17.25
-17.81
-17.22
-15.89
-14.27
-12.72
-11.46
-10.55
-9.95
-9.55
-9.23
-8.83
-8.24
-7.40
-6.33
-5.06
-3.66
-2.20
-0.73
0.66
1.89
2.93
3.79
4.56
5.27
5.91
6.36
6.48
6.15
5.39
4.35
3.23
2.22
1.39
0.71
0.07
-0.64
-1.48
-2.47
-3.59
-4.83
-6.16
-7.48
-8.63
-9.35
-9.38
-8.54
-6.86
-4.53
-1.91
0.66
2.93
4.82
6.37
7.69
8.87
9.96
10.95
11.83
12.56
13.11
13.46
13.58
13.49
13.24
12.90
12.54
12.26
12.08
11.92
11.54
10.51
8.42
5.02
0.54
-4.32
-8.56
-11.18
-11.55
-9.63
-5.99
-1.58
2.53
5.43
6.51
5.61
3.00
-0.68
-4.51
-7.60
-9.29
-9.43
-8.33
-6.63
-5.03
-3.99
-3.68
-3.92
-4.43
-4.98
-5.41
-5.68
-5.75
-5.50
-4.72
-3.20
-0.86
2.10
5.21
7.79
9.14
8.77
6.59
2.94
-1.41
-5.57
-8.76
-10.60
-11.14
-10.77
-10.01
-9.25
-8.67
-8.31
-8.11
-8.10
-8.35
-8.89
-9.59
-10.18
-10.26
-9.54
-7.94
-5.66
-3.08
-0.62
1.43
3.00
4.17
5.12
5.94
6.65
7.14
7.34
7.20
6.81
6.32
5.90
5.63
5.48
5.32
5.00
4.41
3.53
2.46
1.31
0.18
-0.90
-1.99
-3.14
-4.42
-5.86
-7.37
-8.86
-10.17
-11.12
-11.54
-11.27
-10.27
-8.58
-6.39
-3.92
-1.43
0.92
3.01
4.82
6.37
7.66
8.67
9.33
9.57
9.41
8.93
8.31
7.75
7.38
7.21
7.12
6.94
6.53
5.86
4.98
4.01
3.01
2.00
0.95
-0.17
-1.36
-2.63
-4.00
-5.50
-7.12
-8.82
-10.41
-11.62
-12.13
-11.66
-10.12
-7.65
-4.60
-1.48
1.28
3.43
4.98
6.14
7.19
8.27
9.35
10.28
10.86
11.06
10.93
10.63
10.27
9.87
9.37
8.73
7.97
7.20
6.53
6.00
5.55
5.03
4.30
3.28
1.98
0.51
-1.00
-2.46
-3.84
-5.21
-6.63
-8.14
-9.65
-11.00
-11.93
-12.19
-11.61
-10.16
-7.97
-5.29
-2.43
0.36
2.88
5.05
6.84
8.25
9.30
10.01
10.39
10.52
10.49
10.42
10.40
10.46
10.52
10.46
10.16
9.57
8.73
7.73
6.68
5.67
4.65
3.59
2.43
1.17
-0.11
-1.34
-2.42
-3.37
-4.25
-5.17
-6.23
-7.47
-8.90
-10.47
-12.03
-13.34
-14.12
-14.06
-12.98
-10.91
-8.06
-4.84
-1.65
1.21
3.61
5.57
7.16
8.42
9.35
9.96
10.28
10.42
10.49
10.60
10.72
10.79
10.69
10.32
9.65
8.77
7.80
6.91
6.21
5.73
5.38
5.00
4.45
3.63
2.52
1.23
-0.10
-1.32
-2.33
-3.09
-3.65
-4.13
-4.70
-5.53
-6.75
-8.31
-9.98
-11.37
-12.06
-11.75
-10.38
-8.16
-5.47
-2.72
-0.17
2.02
3.87
5.40
6.63
7.53
8.07
8.28
8.23
8.06
7.92
7.88
7.96
8.07
8.11
8.00
7.73
7.31
6.81
6.28
5.74
5.19
4.59
3.92
3.15
2.23
1.16
-0.08
-1.42
-2.72
-3.84
-4.64
-5.12
-5.43
-5.80
-6.49
-7.66
-9.29
-11.22
-13.16
-14.77
-15.76
-15.93
-15.25
-13.79
-11.72
-9.27
-6.64
-4.05
-1.67
0.35
1.97
3.24
4.30
5.31
6.33
7.33
8.20
8.78
9.01
8.96
8.76
8.54
8.37
8.19
7.93
7.54
7.00
6.37
5.65
4.84
3.89
2.77
1.49
0.14
-1.16
-2.27
-3.08
-3.55
-3.69
-3.59
-3.36
-3.12
-3.00
-3.05
-3.32
-3.77
-4.35
-4.98
-5.62
-6.29
-7.03
-7.90
-8.89
-9.87
-10.63
-10.89
-10.49
-9.39
-7.75
-5.82
-3.82
-1.87
0.03
1.92
3.79
5.56
7.05
8.11
8.70
8.84
8.67
8.33
7.95
7.64
7.44
7.36
7.37
7.43
7.42
7.28
6.99
6.61
6.23
5.92
5.65
5.32
4.78
3.94
2.86
1.70
0.65
-0.17
-0.78
-1.35
-2.03
-2.93
-4.01
-5.16
-6.26
-7.28
-8.27
-9.30
-10.40
-11.54
-12.64
-13.65
-14.51
-15.16
-15.50
-15.33
-14.46
-12.81
-10.47
-7.71
-4.90
-2.39
-0.38
1.13
2.22
3.03
3.67
4.18
4.61
4.98
5.32
5.61
5.87
6.04
6.10
6.01
5.78
5.44
5.05
4.66
4.31
4.00
3.74
3.49
3.20
2.82
2.30
1.65
0.87
0.03
-0.82
-1.61
-2.32
-2.95
-3.57
-4.21
-4.94
-5.74
-6.58
-7.45
-8.37
-9.40
-10.58
-11.88
-13.12
-14.04
-14.34
-13.81
-12.40
-10.27
-7.74
-5.18
-2.89
-1.04
0.37
1.46
2.37
3.16
3.80
4.22
4.35
4.24
4.00
3.78
3.67
3.68
3.75
3.84
3.95
4.12
4.38
4.70
5.00
5.18
5.17
4.91
4.36
3.49
2.28
0.77
-0.89
-2.46
-3.74
-4.56
-4.98
-5.19
-5.50
-6.21
-7.44
-9.08
-10.81
-12.17
-12.74
-12.26
-10.78
-8.59
-6.18
-4.04
-2.50
-1.70
-1.51
-1.58
-1.43
-0.61
1.16
3.83
7.03
10.09
12.24
12.91
11.88
9.43
6.20
3.02
0.62
-0.56
-0.50
0.48
1.83
2.94
3.38
2.94
1.62
-0.40
-2.84
-5.44
-7.96
-10.19
-12.01
-13.43
-14.61
-15.79
-17.18
-18.78
-20.36
-21.44
-21.54
-20.33
-17.79
-14.26
-10.26
-6.31
-2.80
0.12
2.47
4.37
5.97
7.43
8.85
10.27
11.67
12.89
13.69
13.81
13.03
11.34
8.95
6.26
3.69
1.55
-0.12
-1.47
-2.78
-4.29
-6.07
-7.94
-9.58
-10.52
-10.30
-8.52
-4.87
0.72
8.04
16.45
25.07
32.84
38.87
42.64
44.11
43.56
41.48
38.34
34.51
30.38
26.43
23.24
21.33
20.99
22.15
24.47
27.42
30.28
32.07
31.55
27.47
19.23
7.38
-6.13
-18.63
-27.74
-32.39
-33.14
-31.66
-29.77
-28.68
-28.93
-30.69
-34.28
-40.14
-48.28
-57.55
-65.55
-69.27
-66.40
-56.57
-41.81
-25.90
-12.91
-5.58
-4.45
-7.96
-13.44
-18.43
-21.59
-22.87
-23.01
-22.68
-21.94
-20.20
-16.61
-10.54
-1.95
8.58
20.09
31.52
42.00
51.01
58.26
63.57
66.63
66.95
64.00
57.55
48.08
36.96
26.23
18.02
13.84
14.10
18.16
24.74
32.66
41.28
50.61
61.02
72.68
85.23
97.74
109.04
117.94
123.41
124.42
119.98
109.28
92.25
69.99
44.92
20.22
-1.15
-17.54
-29.04
-37.28
-44.50
-52.47
-61.86
-72.12
-81.97
-90.16
-96.03
-99.75
-102.06
-103.85
-105.74
-107.78
-109.45
-109.87
-108.16
-103.72
-96.54
-86.85
-74.99
-61.41
-46.71
-31.81
-17.86
-6.00
2.96
8.68
11.73
13.39
15.07
17.64
21.06
24.60
27.36
28.82
28.62
27.34
26.20
26.12
27.07
28.08
28.08
26.63
24.27
21.03
17.72
15.55
15.18
15.89
15.99
13.86
8.80
1.21
-9.57
-22.68
-35.92
-47.14
-55.85
-63.23
-71.03
-80.82
-93.80
-113.33
-140.43
-172.58
-204.52
-230.16
-244.10
-242.57
-224.41
-177.94
-106.16
-25.13
46.69
100.45
137.07
160.44
172.62
173.41
164.82
145.37
117.45
87.38
62.19
45.91
38.43
36.95
38.18
40.06
39.68
36.67
32.78
30.07
29.05
28.59
27.17
23.96
19.23
12.74
5.50
-0.72
-4.48
-5.60
-4.95
-3.56
-1.90
0.16
2.32
4.75
7.82
11.75
16.34
21.07
25.43
29.08
31.82
33.15
32.83
30.85
27.48
23.11
18.30
13.73
10.09
7.84
6.96
7.06
7.50
7.62
7.03
5.65
3.64
1.25
-1.34
-4.06
-6.86
-9.66
-12.34
-14.76
-16.84
-18.54
-19.80
-20.54
-20.57
-19.70
-17.81
-14.93
-11.25
-7.12
-2.94
0.89
4.11
6.59
8.38
9.65
10.63
11.48
12.27
12.99
13.60
14.06
14.36
14.54
14.59
14.50
14.24
13.78
13.09
12.18
11.02
9.57
7.80
5.71
3.37
0.96
-1.28
-3.15
-4.58
-5.69
-6.83
-8.41
-10.72
-13.74
-17.08
-20.05
-21.94
-22.26
-20.95
-18.32
-14.93
-11.31
-7.85
-4.68
-1.83
0.76
3.14
5.28
7.16
8.75
10.00
10.84
11.25
11.36
11.46
12.06
13.73
16.88
21.48
26.91
32.04
35.59
36.58
34.76
30.66
25.44
20.45
16.90
15.59
16.89
20.73
26.65
33.83
41.15
47.45
51.78
53.60
52.93
50.23
46.15
41.33
36.25
31.19
26.25
21.39
16.48
11.34
5.91
0.24
-5.43
-10.78
-15.46
-19.20
-21.79
-23.11
-23.12
-21.95
-19.93
-17.52
-15.21
-13.32
-11.95
-10.99
-10.23
-9.56
-8.99
-8.70
-8.84
-9.50
-10.62
-12.02
-13.49
-14.84
-15.91
-16.58
-16.80
-16.55
-15.92
-15.07
-14.18
-13.40
-12.82
-12.37
-11.93
-11.31
-10.37
-9.11
-7.66
-6.34
-5.40
-4.99
-4.98
-5.07
-4.86
-4.12
-2.88
-1.44
-0.22
0.44
0.35
-0.44
-1.72
-3.23
-4.78
-6.23
-7.58
-8.90
-10.33
-11.97
-13.88
-16.02
-18.21
-20.21
-21.76
-22.62
-22.71
-22.14
-21.27
-20.71
-21.18
-23.27
-27.17
-32.47
-38.21
-43.16
-46.27
-47.00
-45.55
-42.71
-39.59
-37.27
-36.47
-37.40
-39.66
-42.28
-44.01
-43.69
-40.82
-35.81
-29.94
-24.75
-21.46
-20.36
-20.83
-21.62
-21.42
-19.20
-14.33
-6.54
4.16
17.31
31.83
46.04
57.90
65.64
68.28
65.91
59.62
50.97
41.64
32.95
25.77
20.50
17.11
15.19
14.14
13.27
12.09
10.49
8.80
7.63
7.53
8.68
10.76
13.06
14.77
15.26
14.23
11.69
8.02
3.99
0.70
-0.70
0.49
3.92
8.11
10.81
10.00
4.88
-3.56
-12.93
-20.45
-24.16
-23.65
-19.93
-14.72
-9.54
-5.13
-1.51
1.65
4.48
6.78
8.11
8.16
7.00
5.19
3.52
2.60
2.59
3.14
3.58
3.26
1.83
-0.65
-3.69
-6.64
-8.85
-9.90
-9.65
-8.24
-5.98
-3.20
-0.10
3.27
6.97
11.05
15.40
19.70
23.44
26.02
26.90
25.80
22.75
18.09
12.37
6.22
0.18
-5.43
-10.45
-14.94
-19.01
-22.81
-26.42
-29.69
-32.22
-33.33
-32.32
-28.75
-22.80
-15.34
-7.75
-1.50
2.36
3.47
2.20
-0.65
-4.10
-7.26
-9.41
-9.95
-8.56
-5.20
-0.29
5.37
10.78
15.04
17.58
18.32
17.62
16.04
14.17
12.49
11.20
10.27
9.51
8.67
7.58
6.23
4.77
3.38
2.21
1.26
0.45
-0.30
-0.94
-1.32
-1.15
-0.20
1.59
4.07
6.86
9.36
10.95
11.01
9.22
5.61
0.70
-4.61
-9.29
-12.44
-13.62
-12.95
-11.03
-8.67
-6.64
-5.38
-5.02
-5.42
-6.37
-7.67
-9.20
-10.87
-12.53
-14.06
-15.39
-16.57
-17.77
-19.17
-20.78
-22.35
-23.36
-23.27
-21.75
-18.83
-14.95
-10.79
-6.99
-3.94
-1.70
0.00
1.58
3.45
5.92
9.07
12.87
17.09
21.41
25.44
28.86
31.43
33.15
34.19
34.81
35.33
35.93
36.65
37.39
37.88
37.82
36.90
34.93
31.93
28.17
24.13
20.39
17.42
15.44
14.36
13.84
13.45
12.80
11.68
10.05
7.98
5.61
3.07
0.52
-1.91
-4.09
-5.96
-7.48
-8.68
-9.66
-10.50
-11.29
-12.03
-12.70
-13.22
-13.52
-13.63
-13.67
-13.86
-14.42
-15.53
-17.18
-19.16
-21.11
-22.61
-23.25
-22.78
-21.15
-18.55
-15.39
-12.21
-9.48
-7.52
-6.30
-5.56
-4.92
-4.15
-3.23
-2.35
-1.78
-1.64
-1.86
-2.21
-2.49
-2.61
-2.62
-2.64
-2.71
-2.78
-2.73
-2.53
-2.26
-2.08
-2.22
-2.81
-3.84
-5.20
-6.71
-8.15
-9.32
-10.01
-10.01
-9.24
-7.70
-5.60
-3.25
-0.99
0.93
2.42
3.53
4.35
4.94
5.27
5.30
5.01
4.46
3.82
3.24
2.85
2.66
2.57
2.46
2.20
1.74
1.12
0.37
-0.46
-1.37
-2.35
-3.46
-4.74
-6.22
-7.91
-9.74
-11.49
-12.86
-13.55
-13.33
-12.16
-10.22
-7.84
-5.39
-3.19
-1.40
-0.01
1.09
2.04
2.90
3.59
3.95
3.87
3.32
2.44
1.40
0.34
-0.71
-1.81
-3.01
-4.23
-5.27
-5.89
-5.94
-5.44
-4.57
-3.62
-2.84
-2.40
-2.38
-2.77
-3.45
-4.21
-4.78
-4.83
-4.10
-2.48
0.02
3.23
6.92
10.82
14.60
17.95
20.50
21.95
22.15
21.17
19.31
17.03
14.80
12.99
11.76
11.10
10.88
10.94
11.11
11.22
11.13
10.67
9.72
8.22
6.18
3.69
0.86
-2.18
-5.30
-8.30
-10.98
-13.05
-14.32
-14.69
-14.25
-13.23
-11.89
-10.40
-8.80
-6.99
-4.83
-2.32
0.41
3.08
5.35
6.97
7.86
8.11
7.93
7.55
7.14
6.75
6.33
5.75
4.94
3.94
2.85
1.88
1.18
0.81
0.66
0.51
0.06
-0.89
-2.39
-4.35
-6.46
-8.38
-9.73
-10.19
-9.56
-7.77
-4.96
-1.43
2.35
5.92
8.90
11.16
12.79
14.04
15.16
16.26
17.24
17.89
18.02
17.62
16.87
16.04
15.39
14.99
14.77
14.55
14.22
13.75
13.21
12.75
12.44
12.31
12.34
12.47
12.68
12.92
13.16
13.34
13.42
13.32
13.01
12.50
11.88
11.36
11.19
11.61
12.68
14.26
15.98
17.36
17.96
17.57
16.25
14.22
11.77
9.12
6.38
3.57
0.74
-2.06
-4.70
-7.01
-8.91
-10.41
-11.63
-12.73
-13.88
-15.20
-16.69
-18.32
-20.03
-21.74
-23.38
-24.88
-26.20
-27.29
-28.16
-28.87
-29.58
-30.46
-31.60
-32.91
-34.15
-34.92
-34.84
-33.65
-31.36
-28.18
-24.52
-20.79
-17.21
-13.83
-10.50
-7.03
-3.39
0.29
3.69
6.43
8.22
8.94
8.67
7.66
6.25
4.83
3.77
3.31
3.58
4.46
5.64
6.71
7.27
7.07
6.05
4.38
2.32
0.18
-1.80
-3.49
-4.87
-6.05
-7.15
-8.31
-9.52
-10.68
-11.59
-12.01
-11.77
-10.83
-9.23
-7.12
-4.68
-2.10
0.42
2.66
4.46
5.69
6.35
6.51
6.31
5.88
5.28
4.51
3.59
2.53
1.42
0.33
-0.65
-1.52
-2.31
-3.06
-3.83
-4.66
-5.53
-6.45
-7.41
-8.39
-9.37
-10.30
-11.07
-11.66
-12.08
-12.45
-12.99
-13.83
-14.97
-16.17
-16.98
-16.89
-15.54
-12.87
-9.13
-4.82
-0.42
3.74
7.55
11.03
14.21
17.00
19.17
20.53
21.03
20.88
20.48
20.20
20.24
20.55
20.90
21.02
20.72
20.02
19.05
17.94
16.79
15.60
14.32
12.87
11.23
9.46
7.65
5.97
4.58
3.58
2.98
2.69
2.55
2.35
1.96
1.33
0.53
-0.30
-1.01
-1.50
-1.77
-1.96
-2.21
-2.67
-3.41
-4.40
-5.53
-6.65
-7.70
-8.64
-9.47
-10.17
-10.64
-10.69
-10.10
-8.75
-6.65
-4.02
-1.17
1.55
3.91
5.82
7.29
8.42
9.26
9.82
10.08
10.04
9.73
9.17
8.34
7.15
5.53
3.46
1.04
-1.52
-3.93
-5.90
-7.22
-7.77
-7.53
-6.55
-5.00
-3.16
-1.36
0.09
1.03
1.50
1.71
1.88
2.15
2.48
2.74
2.81
2.69
2.49
2.37
2.39
2.47
2.39
1.94
1.01
-0.34
-1.96
-3.65
-5.24
-6.68
-8.00
-9.22
-10.41
-11.57
-12.70
-13.79
-14.77
-15.59
-16.07
-16.01
-15.19
-13.45
-10.75
-7.22
-3.12
1.18
5.31
8.98
11.99
14.28
15.91
16.97
17.61
17.91
17.92
17.69
17.28
16.82
16.44
16.22
16.12
16.02
15.71
15.06
14.08
12.94
11.87
11.05
10.49
10.00
9.32
8.24
6.70
4.81
2.79
0.90
-0.65
-1.74
-2.29
-2.31
-1.78
-0.78
0.62
2.27
4.00
5.62
6.96
7.88
8.29
8.19
7.65
6.86
6.07
5.53
5.42
5.77
6.48
7.30
7.94
8.13
7.75
6.84
5.62
4.36
3.33
2.70
2.47
2.52
2.66
2.69
2.44
1.80
0.76
-0.62
-2.22
-3.85
-5.26
-6.24
-6.59
-6.24
-5.25
-3.82
-2.23
-0.75
0.38
1.05
1.22
0.97
0.43
-0.21
-0.77
-1.09
-1.12
-0.90
-0.60
-0.46
-0.68
-1.36
-2.44
-3.71
-4.99
-6.11
-7.05
-7.87
-8.69
-9.60
-10.65
-11.82
-13.03
-14.19
-15.20
-15.97
-16.36
-16.26
-15.56
-14.25
-12.42
-10.24
-7.99
-5.86
-4.06
-2.67
-1.74
-1.25
-1.14
-1.30
-1.57
-1.79
-1.86
-1.75
-1.55
-1.34
-1.20
-1.13
-1.08
-0.98
-0.83
-0.65
-0.53
-0.54
-0.74
-1.18
-1.84
-2.66
-3.48
-4.10
-4.29
-3.94
-3.05
-1.80
-0.44
0.81
1.84
2.66
3.38
4.06
4.74
5.33
5.76
5.93
5.82
5.46
4.93
4.37
3.93
3.80
4.10
4.85
5.90
6.96
7.64
7.65
6.83
5.25
3.11
0.65
-1.95
-4.63
-7.38
-10.23
-13.11
-15.86
-18.19
-19.84
-20.59
-20.40
-19.42
-17.91
-16.15
-14.38
-12.70
-11.15
-9.70
-8.37
-7.21
-6.28
-5.63
-5.21
-4.92
-4.55
-3.97
-3.10
-2.03
-0.88
0.18
1.05
1.74
2.30
2.76
3.12
3.33
3.35
3.18
2.90
2.60
2.32
2.02
1.57
0.83
-0.22
-1.45
-2.57
-3.25
-3.18
-2.26
-0.60
1.49
3.65
5.54
7.01
8.05
8.78
9.35
9.81
10.13
10.24
10.06
9.58
8.87
8.07
7.26
6.50
5.82
5.26
4.86
4.67
4.67
4.78
4.82
4.65
4.19
3.45
2.54
1.59
0.71
-0.06
-0.71
-1.31
-1.94
-2.71
-3.73
-5.00
-6.45
-7.90
-9.11
-9.84
-9.90
-9.23
-7.87
-6.00
-3.87
-1.71
0.28
2.02
3.50
4.78
5.87
6.80
7.56
8.17
8.68
9.16
9.63
10.05
10.32
10.34
10.04
9.45
8.67
7.77
6.81
5.78
4.67
3.54
2.48
1.58
0.91
0.41
-0.03
-0.52
-1.14
-1.83
-2.53
-3.17
-3.79
-4.52
-5.52
-6.88
-8.54
-10.29
-11.82
-12.84
-13.16
-12.71
-11.56
-9.90
-7.98
-6.04
-4.27
-2.78
-1.58
-0.62
0.15
0.76
1.21
1.44
1.44
1.21
0.86
0.49
0.21
0.09
0.09
0.12
0.03
-0.29
-0.86
-1.62
-2.44
-3.19
-3.84
-4.45
-5.19
-6.21
-7.56
-9.09
-10.56
-11.72
-12.36
-12.46
-12.10
-11.42
-10.54
-9.54
-8.46
-7.25
-5.85
-4.14
-2.01
0.55
3.45
6.44
9.21
11.46
13.05
13.99
14.43
14.52
14.38
14.06
13.57
12.94
12.24
11.56
10.97
10.47
9.98
9.43
8.72
7.88
6.98
6.16
5.52
5.05
4.64
4.09
3.23
2.02
0.60
-0.71
-1.64
-2.04
-2.08
-2.10
-2.50
-3.47
-4.93
-6.55
-7.88
-8.52
-8.32
-7.36
-5.86
-4.07
-2.21
-0.39
1.30
2.87
4.36
5.76
6.96
7.85
8.34
8.42
8.17
7.77
7.66
8.15
9.26
10.63
11.71
12.12
11.77
10.88
9.91
9.68
10.77
13.06
15.71
17.60
17.98
16.76
14.52
12.26
11.55
13.40
17.45
21.96
24.72
24.25
20.42
14.57
8.89
6.55
9.91
19.52
33.81
49.90
64.63
74.98
78.27
68.23
42.09
3.78
-36.50
-67.98
-84.84
-87.33
-79.81
-67.87
-55.86
-45.04
-34.83
-24.64
-15.23
-8.46
-6.00
-8.29
-14.03
-20.98
-25.91
-26.31
-21.34
-12.16
-1.26
8.52
14.41
14.54
8.62
-1.24
-11.48
-18.63
-20.92
-18.91
-14.36
-9.50
-6.24
-5.86
-8.60
-13.90
-20.42
-25.86
-27.71
-24.55
-17.08
-8.00
-0.63
2.82
2.42
0.15
-1.63
-1.68
-0.60
-0.25
-1.88
-5.40
-9.35
-11.81
-11.51
-8.68
-4.87
-2.16
-2.08
-4.82
-9.41
-14.22
-17.62
-18.68
-17.29
-14.00
-9.61
-4.73
0.43
6.08
12.02
17.79
22.75
26.33
28.30
28.88
28.70
28.53
28.90
29.85
31.05
31.94
31.99
30.91
28.76
25.85
22.62
19.43
16.47
13.80
11.41
9.29
7.44
5.86
4.53
3.36
2.18
0.81
-0.85
-2.78
-4.88
-6.95
-8.83
-10.42
-11.73
-12.86
-14.00
-15.30
-16.87
-18.70
-20.68
-22.62
-24.32
-25.54
-26.08
-25.73
-24.38
-22.00
-18.69
-14.69
-10.31
-5.86
-1.60
2.29
5.68
8.55
10.89
12.79
14.29
15.39
16.01
15.97
15.14
13.54
11.39
9.03
6.81
4.92
3.39
2.12
1.06
0.25
-0.17
-0.14
0.24
0.70
0.88
0.54
-0.31
-1.39
-2.29
-2.64
-2.23
-1.05
0.74
2.90
5.19
7.39
9.32
10.88
12.04
12.82
13.33
13.67
13.95
14.25
14.60
15.00
15.47
16.02
16.62
17.17
17.53
17.56
17.13
16.27
15.01
13.39
11.31
8.64
5.21
1.06
-3.51
-8.00
-11.80
-14.40
-15.56
-15.29
-13.87
-11.71
-9.17
-6.56
-4.05
-1.69
0.46
2.31
3.57
3.83
2.62
-0.39
-5.14
-11.01
-16.93
-21.51
-23.45
-22.01
-17.21
-10.03
-2.20
4.34
7.95
7.81
4.13
-2.06
-9.30
-16.25
-22.00
-26.21
-28.96
-30.48
-31.03
-30.79
-29.91
-28.55
-26.91
-25.09
-23.04
-20.53
-17.29
-13.11
-8.03
-2.41
3.16
7.99
11.57
13.68
14.50
14.52
14.35
14.39
14.74
15.14
15.11
14.18
12.12
9.01
5.23
1.31
-2.21
-4.94
-6.73
-7.68
-8.10
-8.43
-9.05
-10.17
-11.70
-13.30
-14.55
-15.13
-15.00
-14.42
-13.85
-13.76
-14.42
-15.89
-17.92
-20.16
-22.19
-23.67
-24.38
-24.18
-23.07
-21.16
-18.65
-15.83
-13.07
-10.67
-8.83
-7.59
-6.81
-6.27
-5.74
-5.11
-4.35
-3.59
-2.94
-2.53
-2.40
-2.57
-3.05
-3.83
-4.86
-5.99
-7.02
-7.70
-7.77
-7.08
-5.58
-3.32
-0.42
2.96
6.64
10.41
13.92
16.68
18.17
17.96
15.94
12.40
8.06
3.86
0.70
-0.86
-0.67
0.97
3.46
6.18
8.64
10.65
12.34
14.01
15.93
18.11
20.26
21.95
22.78
22.69
21.96
21.17
20.91
21.54
23.09
25.27
27.67
29.91
31.79
33.26
34.33
35.03
35.31
35.13
34.47
33.41
32.11
30.72
29.33
27.92
26.50
25.06
23.75
22.73
22.14
21.99
22.15
22.37
22.42
22.15
21.52
20.65
19.72
18.95
18.44
18.18
17.98
17.49
16.36
14.36
11.54
8.21
4.89
2.08
0.06
-1.21
-2.09
-3.11
-4.80
-7.52
-11.34
-16.05
-21.20
-26.27
-30.83
-34.62
-37.63
-40.01
-42.07
-44.10
-46.35
-48.89
-51.53
-53.79
-54.95
-54.31
-51.38
-46.16
-39.17
-31.31
-23.56
-16.71
-11.16
-6.93
-3.80
-1.50
0.10
0.96
0.90
-0.24
-2.43
-5.32
-8.31
-10.63
-11.59
-10.81
-8.29
-4.36
0.38
5.31
9.81
13.32
15.42
15.90
14.80
12.41
9.22
5.74
2.33
-0.89
-4.01
-7.22
-10.59
-13.90
-16.61
-18.06
-17.72
-15.44
-11.55
-6.76
-1.90
2.36
5.66
8.00
9.53
10.50
11.03
11.22
11.14
10.90
10.62
10.33
9.94
9.28
8.10
6.26
3.76
0.74
-2.55
-5.83
-8.86
-11.48
-13.64
-15.40
-16.94
-18.52
-20.38
-22.71
-25.58
-28.89
-32.45
-35.98
-39.16
-41.73
-43.45
-44.22
-44.09
-43.28
-42.17
-41.16
-40.62
-40.81
-41.92
-44.09
-47.49
-52.15
-57.88
-64.12
-69.94
-74.30
-76.37
-75.93
-73.46
-69.93
-66.48
-63.92
-62.55
-62.14
-62.21
-62.24
-61.85
-60.81
-58.96
-56.21
-52.55
-48.13
-43.37
-38.86
-35.21
-32.86
-31.84
-31.84
-32.25
-32.30
-31.19
-28.14
-22.36
-13.21
-0.40
15.74
34.14
53.13
70.91
86.06
97.93
106.70
113.05
117.71
121.10
123.28
124.10
123.57
122.04
120.21
118.85
118.59
119.58
121.46
123.41
124.37
123.31
119.40
112.09
101.13
86.47
68.37
47.51
25.13
3.05
-16.61
-31.84
-41.37
-45.00
-43.68
-39.14
-33.31
-27.74
-23.30
-20.07
-17.67
-15.54
-13.25
-10.62
-7.72
-4.75
-1.98
0.35
2.06
3.07
3.42
3.33
3.11
3.17
3.85
5.28
7.35
9.69
11.75
12.97
12.94
11.46
8.60
4.60
-0.24
-5.68
-11.60
-18.00
-24.80
-31.69
-38.02
-42.82
-45.15
-44.47
-40.94
-35.46
-29.37
-23.96
-20.02
-17.61
-16.21
-15.05
-13.43
-10.94
-7.42
-2.93
2.19
7.25
11.25
13.13
12.31
9.10
4.83
1.42
0.66
3.41
9.30
16.98
24.75
31.29
36.00
38.92
40.35
40.52
39.44
37.03
33.26
28.39
22.91
17.48
12.78
9.38
7.55
7.28
8.19
9.69
11.14
12.10
12.43
12.34
12.19
12.30
12.76
13.37
13.79
13.72
13.09
12.12
11.25
11.02
11.87
13.99
17.25
21.28
25.52
29.50
32.92
35.80
38.42
41.26
44.94
50.08
57.08
65.87
75.63
84.75
91.13
92.92
89.38
81.41
71.43
62.40
56.61
54.66
55.30
56.17
55.03
50.75
43.54
34.56
25.02
15.64
6.43
-2.86
-12.35
-21.74
-30.42
-37.89
-43.99
-48.99
-53.41
-57.72
-62.14
-66.53
-70.46
-73.35
-74.65
-74.00
-71.40
-67.20
-62.04
-56.62
-51.49
-46.85
-42.65
-38.65
-34.73
-30.94
-27.56
-24.93
-23.24
-22.47
-22.35
-22.46
-22.47
-22.19
-21.62
-20.89
-20.11
-19.32
-18.43
-17.36
-16.09
-14.72
-13.46
-12.51
-11.97
-11.77
-11.64
-11.27
-10.34
-8.65
-6.23
-3.30
-0.22
2.62
4.91
6.57
7.66
8.36
8.83
9.17
9.51
10.01
10.94
12.55
14.93
17.88
20.94
23.48
24.96
25.12
23.97
21.75
18.78
15.33
11.57
7.67
3.78
0.09
-3.21
-6.03
-8.41
-10.55
-12.72
-15.14
-17.87
-20.72
-23.35
-25.36
-26.47
-26.62
-25.96
-24.76
-23.28
-21.72
-20.19
-18.73
-17.40
-16.28
-15.43
-14.88
-14.58
-14.45
-14.47
-14.68
-15.23
-16.25
-17.81
-19.82
-22.05
-24.17
-25.80
-26.55
-26.10
-24.31
-21.28
-17.37
-13.12
-9.07
-5.54
-2.63
-0.18
2.00
3.98
5.70
6.97
7.61
7.56
6.82
5.43
3.38
0.62
-2.93
-7.30
-12.45
-18.22
-24.36
-30.54
-36.39
-41.58
-45.84
-48.96
-50.81
-51.28
-50.34
-48.01
-44.46
-40.05
-35.29
-30.73
-26.77
-23.57
-20.98
-18.72
-16.48
-14.11
-11.67
-9.34
-7.29
-5.58
-4.17
-2.97
-1.88
-0.83
0.25
1.42
2.78
4.38
6.14
7.90
9.40
10.45
11.02
11.30
11.65
12.43
13.95
16.24
19.15
22.32
25.29
27.71
29.34
30.11
30.16
29.66
28.86
27.91
26.96
26.04
25.20
24.46
23.84
23.30
22.75
21.99
20.86
19.26
17.29
15.13
12.99
10.94
8.83
6.42
3.56
0.36
-2.77
-5.28
-6.68
-6.75
-5.61
-3.57
-1.00
1.72
4.30
6.49
8.08
8.97
9.20
8.97
8.49
7.92
7.30
6.63
5.97
5.49
5.42
5.86
6.69
7.60
8.20
8.25
7.77
6.92
5.90
4.78
3.50
1.94
0.18
-1.51
-2.67
-2.85
-1.87
0.12
2.62
4.95
6.47
6.82
5.95
4.17
1.99
-0.09
-1.72
-2.82
-3.52
-4.09
-4.78
-5.80
-7.24
-9.20
-11.71
-14.61
-17.56
-20.00
-21.40
-21.54
-20.70
-19.56
-18.88
-19.04
-19.80
-20.34
-19.64
-17.03
-12.44
-6.42
0.17
6.57
12.33
17.24
21.11
23.67
24.53
23.37
20.12
15.00
8.49
1.14
-6.60
-14.45
-22.18
-29.57
-36.28
-41.84
-45.78
-47.75
-47.73
-46.04
-43.20
-39.64
-35.49
-30.51
-24.38
-17.03
-8.96
-1.15
5.26
9.54
11.60
11.94
11.32
10.32
9.14
7.72
6.02
4.24
2.83
2.26
2.72
4.10
5.99
7.95
9.67
11.08
12.25
13.26
14.07
14.50
14.32
13.33
11.54
9.18
6.69
4.65
3.56
3.72
5.15
7.55
10.44
13.31
15.76
17.59
18.77
19.36
19.42
19.07
18.40
17.50
16.46
15.33
14.16
12.96
11.77
10.57
9.33
7.95
6.33
4.45
2.34
0.05
-2.37
-4.91
-7.50
-10.00
-12.01
-13.03
-12.61
-10.56
-7.09
-2.76
1.71
5.69
8.83
11.04
12.48
13.33
13.77
13.91
13.80
13.44
12.85
12.07
11.15
10.18
9.26
8.43
7.68
6.89
5.90
4.54
2.68
0.28
-2.58
-5.70
-8.80
-11.52
-13.45
-14.27
-13.74
-11.83
-8.74
-4.87
-0.73
3.20
6.59
9.27
11.22
12.49
13.18
13.29
12.87
11.98
10.76
9.39
8.09
6.99
6.15
5.50
4.92
4.31
3.59
2.72
1.67
0.33
-1.37
-3.49
-5.93
-8.37
-10.31
-11.19
-10.61
-8.50
-5.15
-1.11
2.97
6.61
9.54
11.71
13.15
13.88
13.93
13.32
12.18
10.79
9.46
8.43
7.80
7.43
7.09
6.56
5.71
4.60
3.37
2.17
1.05
-0.06
-1.33
-2.93
-4.96
-7.37
-9.93
-12.24
-13.81
-14.18
-13.08
-10.51
-6.80
-2.47
1.86
5.72
8.83
11.11
12.62
13.42
13.61
13.33
12.77
12.14
11.64
11.31
11.11
10.90
10.50
9.81
8.77
7.41
5.85
4.24
2.77
1.58
0.64
-0.23
-1.34
-3.02
-5.41
-8.37
-11.48
-14.11
-15.68
-15.76
-14.24
-11.33
-7.48
-3.22
0.96
4.71
7.86
10.36
12.21
13.38
13.84
13.56
12.64
11.28
9.83
8.62
7.92
7.79
8.09
8.53
8.81
8.67
8.03
6.96
5.62
4.21
2.91
1.80
0.86
-0.05
-1.16
-2.69
-4.74
-7.18
-9.69
-11.71
-12.71
-12.29
-10.36
-7.14
-3.11
1.12
4.96
8.02
10.15
11.46
12.26
12.82
13.32
13.76
14.01
13.97
13.68
13.31
13.08
13.08
13.19
13.17
12.75
11.80
10.43
8.95
7.77
7.30
7.84
9.43
11.83
14.39
16.25
16.54
14.71
10.77
5.32
-0.71
-6.31
-10.73
-13.53
-14.52
-13.63
-10.84
-6.34
-0.53
5.85
11.93
16.97
20.56
22.69
23.71
23.96
23.68
22.83
21.20
18.57
14.84
10.12
4.68
-1.12
-6.89
-12.32
-17.13
-21.10
-24.14
-26.25
-27.59
-28.43
-29.06
-29.73
-30.52
-31.42
-32.32
-33.10
-33.72
-34.23
-34.74
-35.33
-36.08
-37.00
-38.03
-39.00
-39.57
-39.29
-37.69
-34.44
-29.55
-23.37
-16.52
-9.67
-3.31
2.28
7.09
11.17
14.61
17.44
19.69
21.41
22.73
23.79
24.68
25.43
25.96
26.14
25.90
25.20
24.08
22.58
20.70
18.37
15.54
12.17
8.35
4.27
0.18
-3.74
-7.38
-10.73
-13.83
-16.75
-19.58
-22.40
-25.37
-28.55
-31.91
-35.22
-38.09
-40.10
-40.91
-40.44
-38.84
-36.42
-33.55
-30.47
-27.27
-23.90
-20.23
-16.22
-11.98
-7.82
-4.19
-1.46
0.21
1.03
1.45
1.98
2.95
4.39
6.04
7.59
8.80
9.64
10.25
10.73
11.08
11.14
10.73
9.77
8.32
6.61
4.85
3.30
2.07
1.24
0.86
0.91
1.34
1.97
2.60
3.01
3.19
3.28
3.67
4.75
6.78
9.69
13.10
16.49
19.36
21.45
22.75
23.45
23.77
23.88
23.81
23.58
23.18
22.70
22.22
21.82
21.53
21.27
20.91
20.32
19.42
18.24
16.87
15.46
14.14
12.91
11.69
10.29
8.61
6.63
4.52
2.56
0.98
-0.18
-1.04
-1.91
-3.12
-4.89
-7.24
-9.96
-12.73
-15.14
-16.80
-17.38
-16.67
-14.68
-11.60
-7.83
-3.83
-0.07
3.16
5.77
7.87
9.66
11.32
12.94
14.46
15.76
16.66
17.03
16.87
16.29
15.53
14.84
14.46
14.46
14.75
15.12
15.32
15.15
14.55
13.55
12.26
10.74
9.03
7.16
5.20
3.29
1.59
0.17
-0.99
-2.06
-3.26
-4.72
-6.47
-8.45
-10.52
-12.57
-14.52
-16.24
-17.53
-18.14
-17.82
-16.46
-14.15
-11.18
-7.96
-4.87
-2.16
0.06
1.82
3.14
4.05
4.53
4.58
4.28
3.80
3.36
3.19
3.36
3.80
4.25
4.42
4.10
3.28
2.16
1.00
0.04
-0.65
-1.19
-1.77
-2.58
-3.66
-4.93
-6.22
-7.33
-8.19
-8.85
-9.42
-10.09
-10.99
-12.18
-13.65
-15.29
-16.86
-18.05
-18.51
-17.96
-16.31
-13.71
-10.50
-7.11
-3.92
-1.15
1.14
2.99
4.43
5.48
6.14
6.46
6.55
6.60
6.74
7.06
7.48
7.87
8.05
7.88
7.40
6.72
6.02
5.46
5.08
4.79
4.39
3.70
2.62
1.20
-0.37
-1.84
-3.02
-3.89
-4.57
-5.30
-6.34
-7.79
-9.58
-11.47
-13.06
-13.98
-13.93
-12.83
-10.79
-8.12
-5.19
-2.35
0.17
2.32
4.17
5.79
7.18
8.26
8.91
9.06
8.76
8.21
7.65
7.31
7.30
7.54
7.81
7.86
7.50
6.71
5.69
4.72
4.03
3.65
3.41
3.01
2.24
1.06
-0.39
-1.84
-3.11
-4.15
-5.05
-5.96
-7.01
-8.29
-9.85
-11.68
-13.68
-15.65
-17.24
-18.07
-17.84
-16.50
-14.23
-11.41
-8.45
-5.68
-3.23
-1.07
0.87
2.61
4.14
5.35
6.13
6.47
6.45
6.24
6.06
6.07
6.29
6.64
6.96
7.08
6.91
6.46
5.84
5.18
4.60
4.15
3.78
3.35
2.69
1.71
0.39
-1.11
-2.59
-3.88
-4.93
-5.82
-6.70
-7.71
-8.88
-10.19
-11.53
-12.80
-13.89
-14.61
-14.73
-14.00
-12.28
-9.71
-6.64
-3.64
-1.19
0.46
1.44
2.09
2.79
3.70
4.74
5.67
6.26
6.51
6.57
6.71
7.05
7.53
7.90
7.94
7.49
6.63
5.54
4.42
3.36
2.36
1.38
0.33
-0.80
-2.03
-3.34
-4.68
-5.96
-7.10
-8.00
-8.69
-9.30
-10.09
-11.28
-12.93
-14.87
-16.70
-17.95
-18.23
-17.37
-15.48
-12.87
-9.90
-6.89
-4.05
-1.54
0.56
2.16
3.22
3.76
3.90
3.82
3.70
3.66
3.68
3.68
3.57
3.34
3.09
2.96
3.04
3.28
3.52
3.55
3.21
2.48
1.45
0.25
-1.00
-2.21
-3.36
-4.41
-5.33
-6.12
-6.82
-7.56
-8.56
-9.96
-11.76
-13.71
-15.37
-16.20
-15.82
-14.10
-11.26
-7.80
-4.27
-1.10
1.52
3.63
5.33
6.70
7.75
8.44
8.75
8.76
8.69
8.75
9.05
9.49
9.79
9.64
8.79
7.19
5.11
3.08
1.69
1.21
1.43
1.77
1.53
0.21
-2.28
-5.47
-8.43
-10.20
-10.37
-9.26
-7.78
-6.92
-7.31
-8.97
-11.05
-12.06
-10.46
-5.41
2.95
13.73
25.77
37.76
47.23
50.47
44.14
27.89
5.19
-18.12
-36.18
-45.08
-44.07
-35.48
-23.28
-11.18
-1.30
5.98
11.17
14.72
16.56
16.24
13.58
9.25
4.38
0.17
-2.72
-4.58
-6.31
-8.95
-13.02
-18.10
-23.06
-26.58
-27.79
-26.64
-23.89
-20.79
-18.54
-17.76
-18.17
-18.73
-17.70
-13.65
-5.66
6.43
21.93
38.46
52.37
60.74
63.15
61.21
56.95
51.53
45.04
36.95
26.75
14.69
1.96
-9.76
-19.12
-25.53
-29.03
-30.28
-29.75
-28.08
-26.00
-24.14
-22.83
-22.20
-22.11
-22.06
-21.13
-18.45
-13.56
-6.63
1.55
9.78
16.63
20.13
17.74
8.61
-5.38
-19.76
-29.78
-32.66
-28.46
-19.56
-9.25
-0.17
7.34
13.77
19.88
25.61
30.12
32.45
32.34
30.88
29.07
29.15
33.20
42.17
54.52
66.57
74.03
73.78
65.07
49.39
30.12
9.65
-7.57
-17.65
-19.67
-16.03
-11.11
-7.31
-5.52
-5.69
-7.71
-11.44
-17.21
-25.28
-35.14
-45.35
-53.96
-59.48
-61.11
-58.80
-52.66
-43.03
-30.12
-13.92
5.31
26.45
47.17
64.66
76.63
82.22
81.70
76.33
67.80
57.54
46.37
34.65
22.72
11.20
0.82
-8.35
-16.31
-23.01
-28.46
-32.99
-37.30
-42.12
-47.94
-54.82
-62.81
-70.87
-77.00
-79.33
-77.36
-72.08
-65.52
-60.04
-57.85
-61.00
-69.50
-80.90
-91.09
-95.87
-91.63
-75.98
-48.50
-7.34
40.92
83.38
108.44
112.77
100.63
79.90
57.97
39.27
24.74
12.23
-0.05
-12.23
-21.64
-25.42
-21.90
-11.59
2.88
17.64
28.77
34.51
35.96
36.03
36.20
37.12
38.82
40.74
41.80
40.61
36.90
31.75
27.62
26.94
31.39
41.32
55.66
71.55
85.24
92.63
90.86
79.27
59.18
33.69
6.76
-17.77
-37.12
-50.20
-58.14
-62.60
-64.82
-65.70
-66.05
-66.79
-68.90
-73.32
-80.78
-92.23
-107.03
-122.38
-134.18
-138.45
-132.29
-114.42
-85.27
-42.02
10.61
61.75
100.14
119.79
120.73
106.81
83.67
57.21
32.44
11.82
-3.64
-13.75
-18.85
-19.87
-17.87
-13.88
-8.92
-4.46
-1.82
-1.51
-2.82
-4.39
-5.12
-4.56
-2.91
-0.74
1.44
3.09
4.07
4.79
5.72
7.10
8.87
10.85
13.04
15.55
18.46
21.65
24.63
26.63
26.90
25.11
21.76
18.09
16.02
17.20
22.28
30.59
40.61
50.60
58.91
63.88
61.59
48.98
26.28
-1.77
-27.94
-46.05
-53.54
-52.02
-45.98
-40.33
-37.60
-37.13
-36.16
-32.03
-23.99
-13.51
-3.37
3.98
7.55
8.33
8.19
8.53
9.46
10.12
9.57
7.48
4.39
1.38
-0.30
0.07
2.36
5.63
8.66
10.50
10.79
9.78
8.06
6.35
5.21
4.78
4.88
5.18
5.45
5.74
6.28
7.42
9.45
12.38
15.96
19.65
22.79
24.82
25.32
24.12
21.37
17.43
12.79
7.91
3.17
-1.17
-4.98
-8.33
-11.38
-14.39
-17.66
-21.36
-25.45
-29.69
-33.69
-37.05
-39.54
-41.09
-41.88
-42.20
-42.39
-42.74
-43.39
-44.31
-45.21
-45.57
-44.71
-42.01
-37.20
-30.51
-22.73
-14.85
-7.72
-1.73
3.35
8.04
12.88
18.08
23.47
28.72
33.51
37.71
41.24
43.91
45.32
45.04
42.83
38.90
33.91
28.74
24.15
20.60
18.13
16.55
15.65
15.20
15.04
14.97
14.76
14.20
13.21
11.89
10.46
9.14
8.05
7.19
6.41
5.56
4.52
3.28
1.87
0.40
-1.08
-2.53
-3.98
-5.39
-6.66
-7.64
-8.19
-8.29
-8.05
-7.67
-7.38
-7.27
-7.28
-7.27
-7.11
-6.75
-6.27
-5.77
-5.36
-5.14
-5.13
-5.38
-5.93
-6.80
-7.94
-9.23
-10.48
-11.47
-12.00
-11.99
-11.46
-10.52
-9.34
-8.09
-6.81
-5.55
-4.32
-3.17
-2.22
-1.59
-1.38
-1.60
-2.19
-2.99
-3.86
-4.68
-5.34
-5.74
-5.78
-5.41
-4.62
-3.43
-1.92
-0.26
1.24
2.26
2.56
2.00
0.68
-1.16
-3.08
-4.66
-5.75
-6.52
-7.26
-8.26
-9.63
-11.30
-13.09
-14.58
-15.38
-15.50
-15.39
-15.59
-16.54
-18.40
-21.02
-24.03
-26.57
-27.84
-27.59
-26.31
-24.75
-23.84
-24.51
-27.44
-32.77
-39.11
-43.90
-44.40
-38.84
-26.84
-9.77
9.76
29.57
45.60
55.01
58.50
59.20
59.78
61.53
64.21
66.74
67.56
65.16
58.80
48.56
36.27
22.50
8.47
-4.40
-15.10
-23.20
-28.35
-30.03
-27.97
-22.63
-15.14
-6.49
2.48
11.19
18.94
25.64
31.52
36.74
39.54
38.30
32.66
23.26
12.43
0.69
-10.77
-19.94
-24.62
-23.28
-15.84
-3.74
10.30
22.95
30.60
31.73
27.31
19.62
10.76
2.11
-5.43
-11.54
-16.15
-19.15
-20.14
-19.09
-16.57
-13.59
-11.08
-9.31
-8.58
-8.99
-10.45
-12.44
-14.39
-15.86
-16.58
-16.35
-15.01
-12.65
-9.47
-5.79
-1.91
1.86
5.17
7.72
9.39
10.22
10.31
9.85
8.98
7.86
6.58
5.12
3.44
1.51
-0.64
-3.00
-5.51
-8.09
-10.61
-12.95
-14.95
-16.52
-17.63
-18.41
-19.07
-19.88
-20.99
-22.35
-23.66
-24.36
-23.84
-21.63
-17.63
-12.13
-5.79
0.63
6.40
11.03
14.22
15.90
16.16
15.25
13.65
12.00
10.95
10.98
12.13
14.08
16.18
17.83
18.62
18.46
17.52
16.06
14.29
12.35
10.32
8.31
6.43
4.84
3.59
2.66
1.87
0.96
-0.29
-1.99
-3.97
-5.85
-7.10
-7.23
-6.04
-3.67
-0.61
2.50
5.11
6.96
8.07
8.68
9.05
9.28
9.33
9.10
8.54
7.74
6.89
6.17
5.63
5.15
4.51
3.55
2.26
0.78
-0.64
-1.84
-2.79
-3.64
-4.60
-5.84
-7.40
-9.22
-11.14
-13.06
-14.92
-16.66
-18.19
-19.27
-19.63
-19.01
-17.31
-14.68
-11.50
-8.22
-5.22
-2.68
-0.59
1.15
2.61
3.76
4.54
4.91
4.95
4.85
4.80
4.92
5.22
5.60
5.99
6.32
6.58
6.75
6.82
6.74
6.50
6.14
5.71
5.28
4.78
4.08
3.03
1.52
-0.34
-2.25
-3.76
-4.41
-3.91
-2.24
0.33
3.35
6.33
8.90
10.90
12.33
13.30
13.95
14.36
14.57
14.62
14.54
14.36
14.07
13.59
12.83
11.71
10.21
8.35
6.26
4.07
1.93
-0.10
-2.01
-3.85
-5.73
-7.68
-9.72
-11.79
-13.85
-15.83
-17.68
-19.26
-20.36
-20.69
-19.99
-18.14
-15.32
-11.96
-8.58
-5.65
-3.35
-1.64
-0.30
0.84
1.83
2.55
2.83
2.53
1.65
0.34
-1.14
-2.55
-3.65
-4.36
-4.69
-4.74
-4.65
-4.57
-4.60
-4.84
-5.31
-6.02
-6.93
-7.95
-8.93
-9.76
-10.35
-10.74
-11.05
-11.39
-11.75
-11.99
-11.81
-10.92
-9.18
-6.66
-3.67
-0.60
2.18
4.42
6.07
7.17
7.87
8.27
8.45
8.43
8.21
7.84
7.39
6.98
6.69
6.52
6.35
5.94
5.09
3.69
1.86
-0.14
-2.02
-3.56
-4.75
-5.71
-6.64
-7.72
-9.02
-10.49
-12.01
-13.38
-14.36
-14.68
-14.08
-12.40
-9.67
-6.14
-2.24
1.50
4.66
7.01
8.50
9.26
9.44
9.22
8.73
8.14
7.59
7.21
7.08
7.15
7.25
7.19
6.76
5.91
4.69
3.23
1.73
0.33
-0.88
-1.93
-2.94
-4.13
-5.65
-7.57
-9.72
-11.76
-13.26
-13.83
-13.32
-11.80
-9.56
-6.96
-4.33
-1.88
0.31
2.22
3.83
5.09
5.87
6.08
5.73
4.93
3.95
3.05
2.43
2.11
1.97
1.79
1.43
0.83
0.07
-0.74
-1.56
-2.39
-3.31
-4.44
-5.87
-7.59
-9.49
-11.38
-12.92
-13.80
-13.75
-12.64
-10.52
-7.65
-4.33
-0.89
2.36
5.18
7.44
9.15
10.34
11.06
11.30
11.22
10.99
10.69
10.34
9.87
9.24
8.43
7.38
6.06
4.83
4.04
3.83
3.97
4.06
3.79
3.07
2.04
0.94
0.53
1.46
3.80
7.03
10.37
13.28
15.63
17.60
19.48
22.24
26.79
33.48
42.02
51.74
62.00
72.30
82.16
86.65
82.19
68.52
49.36
29.75
12.98
-0.15
-10.50
-19.47
-28.14
-36.10
-42.19
-45.33
-45.24
-42.45
-38.17
-33.39
-29.00
-25.66
-23.22
-21.27
-19.52
-17.97
-16.72
-15.60
-14.24
-12.36
-10.03
-7.31
-4.44
-1.81
0.21
1.71
3.29
5.84
9.96
15.61
22.25
28.89
34.37
37.69
38.31
36.27
32.20
27.07
22.02
18.17
16.36
16.95
19.74
24.13
29.30
34.50
39.24
43.30
46.68
49.38
51.31
52.24
51.83
49.69
45.44
38.77
29.57
18.06
4.85
-8.98
-22.14
-33.44
-42.24
-48.59
-52.99
-56.00
-57.90
-58.74
-58.33
-56.58
-53.98
-51.67
-51.18
-53.72
-59.70
-68.59
-79.37
-90.38
-99.68
-105.60
-107.15
-104.30
-97.69
-88.56
-78.54
-69.77
-63.59
-60.18
-58.88
-58.75
-59.19
-59.71
-59.99
-59.61
-58.70
-56.72
-52.65
-45.63
-35.58
-23.20
-9.31
5.53
24.75
47.39
69.20
85.58
94.64
98.25
98.11
95.53
90.95
85.01
77.73
69.75
62.12
55.93
51.63
48.81
46.69
44.36
41.05
35.66
27.90
18.23
7.78
-2.27
-11.10
-18.07
-22.87
-25.47
-26.51
-26.65
-26.47
-26.36
-26.49
-26.81
-26.85
-25.97
-23.60
-19.71
-13.43
-4.96
4.44
12.88
18.70
20.90
19.31
14.76
9.12
5.08
4.59
8.51
16.22
25.74
34.52
40.52
42.96
42.52
39.56
35.02
29.53
23.21
16.02
8.25
0.77
-5.14
-8.31
-8.38
-5.87
-2.74
-1.71
-4.49
-10.54
-17.47
-22.67
-25.14
-25.08
-23.53
-21.74
-20.40
-19.32
-17.80
-14.82
-10.33
-4.94
0.49
4.92
7.70
8.99
9.57
10.18
11.03
11.81
12.50
12.91
13.06
13.15
13.47
14.21
15.43
17.10
18.65
19.75
20.19
19.87
18.79
17.00
14.59
11.73
8.65
5.65
3.16
1.55
1.03
1.58
2.78
3.89
3.94
2.11
-2.00
-8.06
-15.18
-22.10
-27.72
-31.47
-33.40
-33.97
-33.70
-32.81
-31.11
-28.20
-23.66
-17.26
-9.03
0.67
11.17
21.36
29.78
34.92
35.66
31.78
24.26
15.03
6.40
0.31
-2.31
-1.68
1.19
4.83
7.87
9.24
8.27
4.75
-1.07
-8.48
-16.40
-23.62
-29.06
-31.99
-32.12
-29.60
-24.97
-19.18
-13.41
-8.90
-6.45
-6.08
-6.97
-7.76
-7.24
-4.99
-1.48
2.24
5.24
7.26
8.81
10.74
13.65
17.45
21.47
24.82
26.85
27.47
27.07
26.19
25.26
24.35
23.30
21.84
19.82
17.38
14.92
12.98
12.02
12.20
13.26
14.61
15.43
14.95
12.68
8.48
2.59
-4.47
-11.92
-18.85
-24.32
-27.60
-28.44
-27.18
-24.69
-21.96
-19.75
-18.27
-17.22
-16.09
-14.46
-12.28
-9.77
-7.29
-5.06
-3.13
-1.43
0.02
1.15
1.84
2.10
2.12
2.18
2.55
3.29
4.22
4.98
5.20
4.62
3.18
1.04
-1.54
-4.27
-6.93
-9.40
-11.65
-13.68
-15.48
-16.99
-18.09
-18.76
-19.11
-19.50
-20.40
-22.24
-25.08
-28.54
-31.83
-34.02
-34.39
-32.69
-29.22
-24.64
-19.70
-15.05
-11.01
-7.66
-4.91
-2.62
-0.66
1.11
2.86
4.75
6.88
9.19
11.41
13.11
13.87
13.52
12.25
10.55
9.03
8.18
8.13
8.71
9.52
10.16
10.38
10.09
9.39
8.43
7.42
6.50
5.77
5.23
4.82
4.38
3.74
2.76
1.39
-0.23
-1.77
-2.76
-2.73
-1.41
1.16
4.61
8.36
11.87
14.82
17.12
18.87
20.13
20.81
20.66
19.40
16.93
13.42
9.36
5.40
2.16
0.06
-0.84
-0.80
-0.32
0.08
-0.01
-0.79
-2.19
-4.04
-6.12
-8.24
-10.31
-12.24
-13.95
-15.39
-16.50
-17.32
-17.87
-18.18
-18.16
-17.57
-16.11
-13.47
-9.50
-4.25
1.97
8.66
15.18
20.77
24.74
26.61
26.25
23.99
20.52
16.71
13.34
10.83
9.25
8.37
7.87
7.54
7.33
7.24
7.23
7.06
6.40
4.94
2.58
-0.52
-3.95
-7.20
-9.90
-11.85
-13.06
-13.72
-14.07
-14.32
-14.62
-15.06
-15.59
-16.06
-16.26
-15.91
-14.75
-12.58
-9.36
-5.26
-0.72
3.63
7.14
9.41
10.51
11.03
11.77
13.39
16.00
19.04
21.59
22.83
22.51
21.00
19.07
17.43
16.38
15.80
15.36
14.87
14.40
14.15
14.20
14.23
13.62
11.85
8.84
5.06
1.22
-2.23
-5.44
-8.97
-13.33
-18.36
-23.07
-26.00
-25.96
-22.67
-16.99
-10.52
-4.79
-0.72
1.72
3.22
4.76
7.16
10.83
15.79
21.66
27.74
33.12
36.74
37.62
35.03
28.88
19.83
9.23
-1.12
-9.59
-15.10
-17.41
-16.95
-14.47
-10.71
-6.12
-1.04
4.14
8.74
11.85
12.55
10.37
5.43
-1.47
-9.17
-16.44
-22.33
-26.25
-27.97
-27.55
-25.22
-21.39
-16.61
-11.50
-6.76
-2.95
-0.39
0.88
1.09
0.62
-0.12
-0.75
-1.03
-0.83
-0.24
0.50
1.00
0.83
-0.28
-2.30
-4.90
-7.43
-9.20
-9.65
-8.57
-6.11
-2.70
1.15
4.97
8.42
11.25
13.20
14.06
13.59
11.72
8.57
4.50
-0.00
-4.39
-8.17
-10.91
-12.22
-11.79
-9.45
-5.33
0.08
6.03
11.70
16.45
19.99
22.33
23.67
24.16
23.81
22.56
20.42
17.55
14.24
10.78
7.27
3.68
-0.11
-4.17
-8.45
-12.65
-16.47
-19.63
-21.99
-23.48
-24.06
-23.76
-22.76
-21.42
-20.12
-19.16
-18.69
-18.61
-18.58
-18.10
-16.79
-14.62
-11.97
-9.15
-6.37
-3.72
-1.13
1.59
4.77
8.52
12.49
15.98
18.49
19.87
20.11
19.48
18.40
17.60
17.63
18.59
20.05
21.62
22.90
23.14
21.50
15.86
5.57
-7.63
-19.87
-29.66
-36.72
-40.82
-42.22
-41.62
-39.84
-37.17
-33.42
-28.22
-21.29
-12.37
-1.64
9.95
20.91
29.85
36.00
39.31
40.12
38.84
36.12
32.51
28.20
23.29
17.93
12.57
7.67
3.45
-0.21
-3.39
-5.96
-7.63
-7.92
-6.38
-2.88
2.17
7.75
12.55
15.54
16.21
14.69
11.55
7.65
3.84
0.76
-1.32
-2.62
-3.70
-5.24
-7.82
-11.55
-16.11
-20.72
-24.49
-26.72
-27.22
-26.29
-24.52
-22.51
-20.75
-19.52
-18.92
-18.86
-19.13
-19.58
-20.08
-20.47
-20.64
-20.54
-20.19
-19.55
-18.26
-15.88
-12.02
-6.62
-0.03
6.98
13.28
17.78
19.00
16.49
11.48
6.27
2.87
2.20
4.04
7.39
10.95
13.71
15.44
16.24
16.14
15.15
13.29
10.66
7.54
4.33
1.54
-0.27
-0.78
-0.14
1.09
2.22
2.70
2.26
0.96
-0.86
-2.72
-4.22
-5.13
-5.42
-5.21
-4.71
-4.22
-4.04
-4.36
-5.25
-6.59
-8.18
-9.68
-10.70
-10.81
-9.59
-6.79
-2.45
3.01
8.83
14.06
17.91
19.99
20.46
19.86
18.79
17.68
16.62
15.46
14.04
12.38
10.67
9.22
8.23
7.69
7.45
7.32
7.19
7.06
6.99
6.93
6.72
6.16
5.12
3.63
1.92
0.32
-0.92
-1.69
-2.07
-2.30
-2.68
-3.42
-4.60
-6.09
-7.63
-8.93
-9.77
-10.12
-10.09
-9.87
-9.61
-9.34
-8.96
-8.32
-7.36
-6.14
-4.82
-3.57
-2.57
-1.91
-1.68
-1.95
-2.79
-4.20
-6.08
-8.24
-10.36
-12.10
-13.10
-13.11
-11.96
-9.66
-6.37
-2.46
1.57
5.15
7.78
9.09
9.00
7.64
5.43
2.93
0.71
-0.75
-1.25
-0.86
0.10
1.24
2.21
2.86
3.13
3.01
2.49
1.47
-0.05
-1.89
-3.68
-4.98
-5.49
-5.24
-4.61
-4.14
-4.33
-5.43
-7.39
-10.03
-13.09
-16.40
-19.82
-23.19
-26.18
-28.35
-29.17
-28.18
-25.17
-20.26
-13.87
-6.59
0.98
8.36
15.22
21.31
26.39
30.22
32.68
33.81
33.86
33.25
32.36
31.44
30.49
29.35
27.81
25.75
23.20
20.38
17.61
15.23
13.52
12.56
12.23
12.21
12.15
11.78
10.98
9.83
8.51
7.13
5.63
3.78
1.25
-2.17
-6.49
-11.46
-16.68
-21.77
-26.42
-30.40
-33.47
-35.34
-35.72
-34.49
-31.82
-28.23
-24.46
-21.20
-18.86
-17.40
-16.40
-15.24
-13.39
-10.57
-6.89
-2.79
1.21
4.69
7.50
9.72
11.60
13.29
14.80
15.95
16.54
16.58
16.33
16.19
16.52
17.37
18.46
19.28
19.33
18.33
16.34
13.65
10.65
7.62
4.66
1.69
-1.47
-4.90
-8.55
-12.08
-15.00
-16.76
-16.91
-15.33
-12.22
-8.10
-3.64
0.50
3.79
5.93
6.88
6.88
6.35
5.84
5.81
6.52
7.90
9.61
11.15
12.10
12.22
11.46
9.95
7.88
5.48
3.02
0.76
-1.03
-2.19
-2.76
-3.01
-3.41
-4.42
-6.27
-8.91
-11.94
-14.85
-17.22
-18.84
-19.80
-20.42
-21.06
-21.96
-23.16
-24.47
-25.47
-25.77
-25.04
-23.17
-20.27
-16.67
-12.76
-8.86
-5.17
-1.78
1.34
4.18
6.68
8.74
10.28
11.30
11.91
12.27
12.53
12.77
12.92
12.87
12.51
11.85
11.02
10.16
9.43
8.90
8.55
8.27
7.94
7.40
6.51
5.22
3.56
1.67
-0.19
-1.81
-3.08
-4.05
-4.89
-5.82
-7.00
-8.50
-10.29
-12.24
-14.17
-15.78
-16.73
-16.71
-15.52
-13.22
-10.10
-6.63
-3.28
-0.36
2.04
3.99
5.63
7.06
8.28
9.19
9.68
9.72
9.37
8.81
8.21
7.73
7.40
7.17
6.95
6.68
6.37
6.05
5.74
5.42
4.98
4.30
3.31
2.00
0.51
-0.99
-2.33
-3.41
-4.26
-5.01
-5.82
-6.81
-8.02
-9.39
-10.77
-12.01
-12.90
-13.26
-12.90
-11.71
-9.69
-6.99
-3.95
-0.95
1.66
3.69
5.12
6.08
6.76
7.31
7.80
8.21
8.48
8.57
8.48
8.26
7.92
7.46
6.83
6.05
5.23
4.63
4.48
4.90
5.77
6.73
7.33
7.26
6.44
5.09
3.52
1.97
0.52
-0.92
-2.52
-4.43
-6.65
-9.12
-11.65
-14.03
-16.02
-17.42
-18.05
-17.83
-16.75
-14.93
-12.61
-10.07
-7.60
-5.40
-3.60
-2.19
-1.16
-0.43
0.06
0.37
0.54
0.65
0.71
0.75
0.73
0.64
0.48
0.36
0.41
0.74
1.36
2.14
2.91
3.52
3.96
4.37
4.95
5.86
7.11
8.58
10.09
11.44
12.41
12.73
12.13
10.38
7.49
3.80
-0.04
-3.20
-4.98
-5.05
-3.55
-1.00
1.88
4.41
6.10
6.70
6.25
4.98
3.27
1.54
0.14
-0.71
-0.94
-0.49
0.64
2.47
4.99
8.03
11.28
14.35
16.87
18.66
19.71
20.21
20.36
20.28
19.99
19.42
18.49
17.17
15.49
13.48
11.14
8.42
5.27
1.68
-2.22
-6.22
-10.15
-13.91
-17.52
-21.05
-24.42
-27.31
-29.16
-29.36
-27.50
-23.59
-18.06
-11.63
-5.08
0.85
5.57
8.57
9.52
8.35
5.31
1.06
-3.51
-7.54
-10.44
-11.98
-12.32
-11.74
-10.55
-8.98
-7.21
-5.48
-4.08
-3.35
-3.53
-4.62
-6.35
-8.15
-9.41
-9.61
-8.52
-6.29
-3.35
-0.29
2.32
4.03
4.60
4.04
2.54
0.49
-1.61
-3.25
-4.07
-3.92
-2.92
-1.36
0.40
2.07
3.48
4.57
5.33
5.76
5.88
5.70
5.27
4.69
4.05
3.39
2.72
2.01
1.23
0.42
-0.34
-0.99
-1.49
-1.85
-2.15
-2.49
-2.96
-3.60
-4.42
-5.37
-6.38
-7.33
-8.15
-8.84
-9.46
-10.14
-10.94
-11.77
-12.36
-12.35
-11.48
-9.69
-7.20
-4.36
-1.55
0.99
3.18
5.07
6.70
8.09
9.25
10.13
10.75
11.12
11.24
11.11
10.71
10.08
9.29
8.47
7.75
7.25
6.99
6.91
6.83
6.53
5.85
4.75
3.34
1.89
0.64
-0.24
-0.75
-1.05
-1.40
-2.09
-3.31
-5.08
-7.21
-9.29
-10.81
-11.30
-10.51
-8.55
-5.82
-2.89
-0.27
1.75
3.16
4.11
4.80
5.41
6.00
6.56
7.02
7.36
7.54
7.58
7.46
7.19
6.75
6.16
5.49
4.87
4.43
4.23
4.15
3.95
3.28
1.91
-0.16
-2.64
-5.06
-6.96
-8.07
-8.38
-8.14
-7.74
-7.54
-7.76
-8.45
-9.53
-10.78
-11.88
-12.52
-12.41
-11.41
-9.60
-7.22
-4.63
-2.21
-0.14
1.57
3.07
4.48
5.78
6.84
7.48
7.62
7.31
6.76
6.25
6.01
6.01
6.08
6.00
5.62
4.99
4.21
3.45
2.94
2.76
2.83
2.92
2.80
2.46
2.09
2.02
2.59
4.10
6.53
9.51
12.46
14.87
16.57
17.78
18.97
19.57
19.22
18.02
16.53
15.23
14.08
12.54
9.99
6.03
0.74
-5.15
-10.62
-14.76
-17.10
-17.70
-17.01
-15.53
-13.85
-12.02
-9.88
-7.35
-4.54
-1.79
0.53
2.14
3.05
3.39
3.41
3.30
3.12
2.75
1.97
0.59
-1.42
-3.86
-6.32
-8.40
-9.78
-10.29
-9.94
-8.90
-7.44
-5.88
-4.50
-3.54
-3.07
-3.00
-3.02
-2.71
-1.72
0.11
2.66
5.57
8.30
10.42
11.70
12.14
11.91
11.25
10.30
9.19
8.02
6.96
6.19
5.89
6.06
6.56
7.12
7.51
7.60
7.42
7.05
6.54
5.86
5.00
3.98
2.97
2.18
1.76
1.66
1.67
1.44
0.72
-0.60
-2.42
-4.55
-6.75
-8.85
-10.64
-11.90
-12.38
-11.90
-10.42
-8.10
-5.28
-2.38
0.19
2.15
3.37
3.84
3.67
3.04
2.19
1.33
0.66
0.23
0.03
-0.07
-0.21
-0.51
-0.99
-1.60
-2.20
-2.68
-2.96
-3.03
-2.94
-2.77
-2.65
-2.68
-2.98
-3.63
-4.61
-5.84
-7.17
-8.48
-9.74
-11.06
-12.59
-14.43
-16.49
-18.46
-19.89
-20.35
-19.58
-17.62
-14.77
-11.50
-8.27
-5.34
-2.78
-0.55
1.42
3.09
4.19
4.41
3.39
1.02
-2.48
-6.37
-9.45
-10.24
-7.39
-0.22
10.84
24.19
37.42
48.01
54.15
55.23
51.91
45.63
38.03
30.39
23.45
17.54
12.79
9.30
7.07
5.96
5.56
5.27
4.48
2.89
0.57
-1.99
-4.13
-5.29
-5.29
-4.39
-3.19
-2.38
-2.40
-3.35
-4.98
-6.83
-8.52
-9.86
-10.92
-11.88
-12.94
-14.14
-15.39
-16.51
-17.34
-17.79
-17.87
-17.63
-17.16
-16.54
-15.87
-15.32
-15.02
-15.04
-15.37
-15.85
-16.29
-16.50
-16.43
-16.18
-15.98
-16.03
-16.41
-16.99
-17.42
-17.30
-16.35
-14.47
-11.81
-8.67
-5.41
-2.31
0.44
2.77
4.72
6.36
7.78
9.05
10.19
11.14
11.82
12.20
12.28
12.12
11.81
11.39
10.86
10.20
9.45
8.70
8.10
7.73
7.55
7.40
7.04
6.25
4.95
3.19
1.16
-0.91
-2.85
-4.56
-6.08
-7.51
-8.99
-10.65
-12.49
-14.42
-16.21
-17.55
-18.15
-17.80
-16.51
-14.45
-11.93
-9.24
-6.65
-4.27
-2.16
-0.31
1.29
2.65
3.74
4.59
5.23
5.71
6.05
6.27
6.38
6.37
6.23
5.94
5.48
4.83
4.05
3.23
2.48
1.85
1.27
0.54
-0.53
-2.06
-3.97
-6.02
-7.92
-9.43
-10.47
-11.09
-11.45
-11.71
-12.00
-12.37
-12.82
-13.20
-13.33
-12.95
-11.80
-9.75
-6.84
-3.30
0.50
4.19
7.42
10.03
11.96
13.22
13.85
13.88
13.31
12.14
10.43
8.28
5.84
3.25
0.59
-2.12
-4.89
-7.70
-10.49
-13.12
-15.40
-17.11
-18.00
-17.86
-16.57
-14.15
-10.77
-6.79
-2.70
0.99
3.92
5.95
7.17
7.83
8.23
8.64
9.32
10.50
12.42
15.18
18.73
22.72
26.64
29.96
32.33
33.76
34.47
34.81
35.00
35.04
34.71
33.80
32.16
29.90
27.27
24.59
22.11
19.96
18.12
16.47
14.84
13.07
11.05
8.71
6.07
3.24
0.35
-2.46
-5.10
-7.55
-9.89
-12.21
-14.65
-17.26
-20.05
-22.87
-25.47
-27.55
-28.79
-28.97
-28.03
-26.11
-23.48
-20.48
-17.41
-14.49
-11.81
-9.41
-7.28
-5.45
-3.94
-2.80
-2.05
-1.62
-1.38
-1.19
-0.98
-0.76
-0.59
-0.56
-0.68
-0.89
-1.12
-1.34
-1.62
-2.10
-2.94
-4.20
-5.84
-7.75
-9.78
-11.78
-13.61
-15.12
-16.10
-16.34
-15.72
-14.26
-12.17
-9.73
-7.24
-4.92
-2.93
-1.33
-0.09
0.80
1.39
1.71
1.84
1.79
1.58
1.14
0.47
-0.35
-1.20
-1.96
-2.59
-2.97
-3.09
-3.04
-3.15
-3.57
-4.27
-5.14
-6.08
-7.06
-7.96
-8.74
-9.59
-10.98
-12.90
-14.92
-16.36
-16.70
-15.75
-13.32
-9.62
-5.26
-1.50
1.13
2.75
4.03
5.70
8.41
13.08
20.16
29.37
39.16
48.35
56.13
62.24
66.63
66.51
60.42
49.30
39.49
32.57
28.20
24.23
19.69
14.20
7.99
2.16
-2.22
-4.71
-6.15
-7.16
-8.14
-9.11
-10.09
-11.00
-11.38
-10.76
-9.01
-6.77
-4.40
-2.19
-0.26
1.17
1.96
2.35
2.65
3.00
3.01
2.50
1.43
0.00
-1.50
-2.80
-3.55
-3.65
-3.31
-3.10
-3.50
-4.72
-6.67
-9.08
-11.59
-13.85
-15.65
-16.96
-17.97
-18.82
-19.63
-20.42
-21.19
-21.95
-22.72
-23.45
-24.06
-24.35
-24.07
-22.99
-20.99
-18.14
-14.69
-11.01
-7.44
-4.21
-1.43
0.95
2.99
4.71
6.11
7.13
7.71
7.87
7.72
7.43
7.19
7.13
7.29
7.59
7.89
8.02
7.90
7.52
6.93
6.17
5.26
4.20
3.00
1.72
0.49
-0.54
-1.33
-1.92
-2.48
-3.26
-4.46
-6.10
-7.99
-9.73
-10.78
-10.70
-9.32
-6.84
-3.76
-0.70
1.83
3.61
4.74
5.49
6.10
6.68
7.20
7.55
7.68
7.63
7.50
7.41
7.42
7.51
7.59
7.55
7.33
6.88
6.17
5.25
4.15
2.94
1.69
0.46
-0.70
-1.81
-2.89
-4.02
-5.25
-6.64
-8.18
-9.76
-11.20
-12.23
-12.53
-11.89
-10.29
-7.88
-5.01
-2.03
0.77
3.20
5.23
6.87
8.14
9.08
9.70
10.02
10.07
9.92
9.62
9.25
8.86
8.48
8.13
7.75
7.29
6.71
6.02
5.27
4.53
3.80
3.04
2.16
1.06
-0.26
-1.71
-3.14
-4.40
-5.46
-6.41
-7.47
-8.83
-10.54
-12.41
-14.02
-14.89
-14.62
-13.13
-10.60
-7.39
-3.95
-0.58
2.51
5.27
7.72
9.87
11.72
13.25
14.37
15.05
15.23
14.97
14.38
13.62
12.80
11.98
11.12
10.17
9.12
8.08
7.20
6.58
6.24
6.05
5.77
5.21
4.25
2.91
1.35
-0.20
-1.51
-2.46
-3.12
-3.70
-4.47
-5.71
-7.53
-9.83
-12.29
-14.46
-15.87
-16.13
-15.05
-12.71
-9.44
-5.72
-2.06
1.18
3.83
5.95
7.70
9.23
10.56
11.60
12.22
12.33
11.94
11.17
10.15
9.01
7.83
6.68
5.57
4.60
3.79
3.16
2.60
1.98
1.15
0.04
-1.26
-2.60
-3.81
-4.77
-5.52
-6.18
-6.88
-7.76
-8.88
-10.21
-11.68
-13.10
-14.21
-14.67
-14.15
-12.52
-9.87
-6.55
-3.06
0.12
2.70
4.61
5.98
7.00
7.82
8.46
8.87
8.99
8.81
8.44
8.03
7.71
7.54
7.48
7.39
7.12
6.60
5.84
4.98
4.13
3.38
2.67
1.87
0.86
-0.43
-2.00
-3.71
-5.43
-6.99
-8.22
-9.00
-9.26
-8.94
-8.04
-6.62
-4.78
-2.69
-0.55
1.40
2.97
4.05
4.67
4.95
4.99
4.90
4.69
4.34
3.89
3.45
3.14
3.03
3.05
3.00
2.64
1.81
0.57
-0.87
-2.24
-3.32
-4.06
-4.58
-5.06
-5.66
-6.49
-7.57
-8.84
-10.26
-11.69
-12.94
-13.77
-13.93
-13.26
-11.74
-9.59
-7.13
-4.75
-2.73
-1.19
-0.07
0.84
1.73
2.75
3.90
5.08
6.15
6.98
7.50
7.70
7.60
7.28
6.80
6.24
5.69
5.23
4.91
4.73
4.65
4.56
4.37
3.93
3.17
2.07
0.72
-0.71
-2.01
-3.04
-3.81
-4.48
-5.29
-6.46
-8.01
-9.77
-11.42
-12.56
-12.90
-12.31
-10.86
-8.76
-6.30
-3.77
-1.40
0.69
2.45
3.96
5.31
6.57
7.75
8.76
9.48
9.83
9.84
9.65
9.49
9.58
10.06
10.98
12.27
13.79
15.37
16.76
17.75
18.18
17.96
17.19
16.01
14.64
13.24
11.88
10.55
9.21
7.87
6.55
5.29
4.11
2.96
1.74
0.36
-1.28
-3.23
-5.50
-8.07
-10.89
-13.83
-16.62
-18.92
-20.37
-20.69
-19.85
-18.05
-15.67
-13.13
-10.78
-8.82
-7.29
-6.11
-5.17
-4.31
-3.38
-2.32
-1.15
0.00
0.92
1.38
1.31
0.81
0.15
-0.36
-0.55
-0.41
-0.12
0.05
-0.10
-0.63
-1.46
-2.43
-3.37
-4.25
-5.05
-5.84
-6.62
-7.34
-7.87
-8.12
-8.04
-7.67
-7.13
-6.56
-6.08
-5.80
-5.82
-6.23
-7.08
-8.34
-9.83
-11.21
-12.06
-12.04
-11.02
-9.10
-6.64
-4.06
-1.74
0.12
1.48
2.43
3.13
3.67
4.09
4.35
4.40
4.25
4.00
3.83
3.93
4.37
5.10
5.93
6.65
7.12
7.35
7.44
7.51
7.59
7.61
7.44
7.02
6.34
5.54
4.75
4.05
3.44
2.86
2.22
1.48
0.63
-0.39
-1.61
-3.02
-4.54
-5.91
-6.80
-6.89
-6.05
-4.37
-2.21
0.02
1.97
3.48
4.55
5.25
5.63
5.68
5.35
4.64
3.63
2.48
1.37
0.42
-0.32
-0.90
-1.44
-2.02
-2.70
-3.48
-4.31
-5.04
-5.50
-5.57
-5.25
-4.70
-4.21
-4.05
-4.38
-5.13
-6.03
-6.76
-7.08
-6.96
-6.53
-6.04
-5.74
-5.82
-6.34
-7.28
-8.51
-9.78
-10.78
-11.18
-10.73
-9.37
-7.26
-4.71
-2.06
0.41
2.56
4.39
5.94
7.25
8.33
9.15
9.67
9.85
9.73
9.36
8.84
8.28
7.75
7.29
6.88
6.45
5.94
5.30
4.51
3.61
2.67
1.78
0.99
0.26
-0.51
-1.43
-2.56
-3.86
-5.17
-6.30
-7.09
-7.52
-7.72
-7.92
-8.34
-9.13
-10.29
-11.70
-13.16
-14.37
-15.00
-14.77
-13.52
-11.29
-8.33
-5.04
-1.78
1.19
3.85
6.30
8.65
10.91
12.91
14.39
15.12
15.04
14.33
13.39
12.63
12.39
12.75
13.50
14.23
14.44
13.76
12.03
9.36
6.07
2.60
-0.62
-3.23
-4.96
-5.77
-5.76
-5.23
-4.56
-4.15
-4.25
-4.94
-6.10
-7.56
-9.15
-10.78
-12.46
-14.19
-15.92
-17.50
-18.71
-19.34
-19.21
-18.27
-16.57
-14.22
-11.41
-8.37
-5.33
-2.51
-0.02
2.08
3.80
5.21
6.32
7.12
7.60
7.76
7.70
7.56
7.48
7.54
7.71
7.90
7.97
7.87
7.61
7.27
6.89
6.45
5.87
5.06
3.97
2.65
1.22
-0.16
-1.36
-2.33
-3.15
-3.98
-4.99
-6.29
-7.82
-9.34
-10.51
-10.93
-10.39
-8.86
-6.55
-3.82
-1.05
1.42
3.44
4.93
5.97
6.67
7.15
7.51
7.78
7.95
7.99
7.93
7.82
7.80
7.95
8.27
8.67
8.98
9.06
8.84
8.31
7.58
6.69
5.66
4.47
3.13
1.68
0.23
-1.12
-2.32
-3.39
-4.50
-5.79
-7.33
-9.05
-10.70
-11.89
-12.25
-11.54
-9.74
-7.12
-4.09
-1.12
1.48
3.60
5.36
6.99
8.70
10.61
12.67
14.74
16.65
18.23
19.37
20.07
20.38
20.38
20.19
19.89
19.52
19.03
18.28
17.11
15.36
12.96
9.93
6.44
2.71
-0.99
-4.41
-7.43
-10.07
-12.41
-14.59
-16.74
-18.93
-21.13
-23.28
-25.14
-26.37
-26.53
-25.21
-22.24
-17.83
-12.56
-7.26
-2.75
0.44
2.19
2.74
2.49
1.82
0.96
0.04
-0.80
-1.35
-1.36
-0.67
0.66
2.30
3.76
4.59
4.57
3.79
2.59
1.37
0.42
-0.15
-0.43
-0.56
-0.75
-1.12
-1.78
-2.75
-3.96
-5.31
-6.67
-7.93
-9.07
-10.17
-11.39
-12.88
-14.68
-16.67
-18.52
-19.79
-20.10
-19.20
-17.16
-14.28
-10.99
-7.73
-4.79
-2.25
-0.05
1.95
3.85
5.67
7.35
8.81
9.96
10.77
11.21
11.32
11.16
10.77
10.18
9.37
8.22
6.64
4.61
2.27
-0.17
-2.43
-4.37
-5.95
-7.38
-8.97
-10.99
-13.48
-16.28
-19.05
-21.44
-23.20
-24.12
-24.06
-23.07
-21.19
-18.60
-15.69
-12.98
-10.89
-9.41
-7.88
-5.30
-1.04
5.16
12.98
21.50
29.56
36.25
41.12
44.54
47.02
48.39
48.48
47.35
45.14
42.06
38.45
34.63
31.27
28.73
26.18
22.98
19.19
14.98
10.74
6.95
4.09
3.21
4.95
8.33
12.46
17.00
21.56
25.81
29.53
28.59
20.62
11.95
5.39
-0.30
-5.23
-9.28
-12.22
-13.86
-14.24
-13.09
-10.56
-8.29
-7.36
-7.69
-8.75
-9.70
-9.70
-8.29
-4.98
0.09
5.44
9.80
12.62
13.55
12.49
9.62
5.28
0.33
-4.38
-8.70
-12.47
-15.43
-17.59
-19.24
-20.77
-22.54
-24.55
-26.55
-28.42
-29.90
-30.66
-30.66
-30.12
-29.36
-28.53
-27.45
-25.72
-22.98
-18.94
-13.37
-6.34
1.83
10.45
18.61
25.25
29.47
30.79
29.43
26.44
23.18
20.90
20.24
21.15
23.04
25.15
26.76
27.44
27.27
26.47
25.28
23.88
22.41
21.01
19.83
18.86
16.91
13.30
8.04
1.81
-4.58
-10.63
-16.51
-22.14
-27.31
-31.90
-35.23
-37.16
-38.03
-38.43
-38.92
-39.75
-40.75
-41.46
-41.38
-39.93
-36.93
-32.60
-27.48
-22.25
-17.48
-13.42
-10.11
-7.38
-4.97
-2.76
-0.81
0.76
1.85
2.52
2.97
3.39
3.90
4.54
5.19
5.69
5.92
5.91
5.78
5.75
5.92
6.26
6.59
6.65
6.20
5.19
3.77
2.33
1.27
0.81
0.88
1.14
1.10
0.40
-1.11
-3.20
-5.34
-6.93
-7.56
-7.13
-5.77
-3.82
-1.67
0.37
2.32
4.51
7.33
10.90
14.93
18.88
22.12
24.22
25.08
25.19
25.44
26.45
28.12
29.69
30.13
28.70
25.22
20.09
14.34
9.48
7.03
8.06
13.07
21.70
32.28
41.66
44.19
34.40
10.63
-22.56
-56.50
-82.92
-97.07
-98.38
-89.47
-74.24
-56.11
-37.11
-18.23
-0.20
16.16
29.96
40.27
46.10
47.06
43.09
35.39
26.33
18.66
14.68
15.52
20.76
28.63
36.62
42.65
45.80
46.35
45.26
43.58
41.96
40.41
38.40
35.04
29.83
22.62
13.65
3.50
-7.02
-17.02
-25.83
-33.23
-39.43
-44.89
-50.02
-54.90
-59.16
-62.04
-62.69
-60.63
-56.15
-50.30
-44.50
-39.83
-36.65
-34.53
-32.84
-31.34
-30.41
-30.79
-32.78
-35.79
-38.25
-38.39
-35.16
-28.85
-21.14
-14.35
-10.52
-10.72
-14.81
-21.71
-29.66
-36.59
-40.49
-39.66
-33.07
-20.69
-3.62
16.05
35.73
52.92
65.84
73.69
76.68
75.73
72.03
66.64
60.30
53.33
45.85
38.02
30.19
22.96
17.01
12.78
10.28
9.13
8.78
8.78
9.04
9.72
11.04
13.00
15.26
17.22
18.32
18.31
17.32
15.88
14.59
13.91
13.99
14.69
15.62
16.41
16.75
16.48
15.58
14.18
12.52
10.93
9.78
9.33
9.62
10.40
11.21
11.49
10.75
8.68
5.20
0.41
-5.43
-11.91
-18.43
-24.22
-28.37
-30.11
-29.03
-25.37
-19.93
-13.89
-8.44
-4.42
-2.12
-1.32
-1.56
-2.31
-3.25
-4.20
-5.10
-5.89
-6.48
-6.80
-6.87
-6.80
-6.75
-6.84
-7.16
-7.64
-8.17
-8.51
-8.46
-7.87
-6.75
-5.29
-3.88
-2.98
-3.00
-4.10
-6.20
-8.97
-11.97
-14.82
-17.22
-19.03
-20.17
-20.60
-20.25
-19.11
-17.22
-14.72
-11.80
-8.73
-5.74
-3.03
-0.75
1.00
2.19
2.85
3.07
3.01
2.81
2.58
2.38
2.16
1.82
1.31
0.61
-0.15
-0.79
-1.08
-0.84
0.01
1.43
3.28
5.31
7.19
8.50
8.75
7.52
4.55
-0.10
-6.11
-12.91
-19.94
-26.70
-32.85
-38.10
-42.11
-44.52
-44.99
-43.43
-40.11
-35.69
-30.99
-26.78
-23.53
-21.37
-20.11
-19.43
-18.92
-18.26
-17.13
-15.34
-12.73
-9.19
-4.69
0.63
6.29
11.51
15.39
17.27
17.17
15.93
15.06
16.22
20.67
28.68
39.47
51.40
62.48
70.80
75.04
74.63
69.90
61.92
52.13
41.88
32.11
23.20
15.28
8.61
3.78
1.52
2.35
6.05
11.58
17.36
21.92
24.49
25.17
24.62
23.42
21.58
18.50
13.33
5.66
-4.09
-14.60
-24.12
-31.14
-34.91
-35.66
-34.35
-32.18
-30.03
-28.31
-26.92
-25.58
-24.08
-22.45
-20.95
-19.81
-19.15
-18.87
-18.77
-18.69
-18.65
-18.83
-19.42
-20.42
-21.58
-22.41
-22.42
-21.29
-19.00
-15.88
-12.39
-9.00
-6.02
-3.53
-1.49
0.22
1.70
3.00
4.13
5.09
5.85
6.36
6.58
6.52
6.23
5.82
5.40
5.07
4.87
4.76
4.64
4.40
3.95
3.27
2.38
1.38
0.34
-0.70
-1.71
-2.71
-3.73
-4.84
-6.10
-7.60
-9.35
-11.25
-13.05
-14.38
-14.85
-14.20
-12.43
-9.77
-6.61
-3.32
-0.19
2.64
5.10
7.18
8.85
10.06
10.79
11.07
10.98
10.68
10.33
10.05
9.90
9.85
9.82
9.73
9.55
9.29
8.96
8.52
7.89
6.98
5.76
4.27
2.62
0.93
-0.63
-1.99
-3.10
-4.01
-4.84
-5.75
-6.90
-8.36
-10.06
-11.78
-13.21
-14.02
-13.96
-12.93
-11.01
-8.39
-5.38
-2.31
0.54
2.97
4.89
6.33
7.38
8.18
8.79
9.25
9.51
9.51
9.25
8.81
8.36
8.03
7.86
7.80
7.68
7.38
6.84
6.08
5.20
4.25
3.26
2.18
1.02
-0.21
-1.46
-2.68
-3.92
-5.24
-6.72
-8.40
-10.17
-11.76
-12.81
-12.96
-12.00
-9.98
-7.23
-4.24
-1.49
0.75
2.45
3.78
4.94
6.02
6.94
7.52
7.63
7.27
6.62
5.91
5.33
4.90
4.55
4.15
3.61
2.90
2.01
0.93
-0.34
-1.80
-3.38
-4.94
-6.32
-7.43
-8.29
-9.06
-9.96
-11.21
-12.86
-14.80
-16.68
-18.00
-18.25
-17.06
-14.35
-10.38
-5.66
-0.83
3.54
7.10
9.77
11.64
12.90
13.72
14.24
14.50
14.53
14.34
13.94
13.37
12.68
11.91
11.12
10.33
9.57
8.83
8.12
7.37
6.53
5.48
4.18
2.64
1.00
-0.55
-1.85
-2.82
-3.58
-4.29
-5.22
-6.50
-8.12
-9.91
-11.54
-12.64
-12.90
-12.12
-10.31
-7.70
-4.66
-1.62
1.09
3.25
4.86
5.96
6.69
7.15
7.42
7.56
7.65
7.71
7.77
7.83
7.88
7.90
7.83
7.58
7.03
6.11
4.84
3.38
1.97
0.81
-0.01
-0.60
-1.10
-1.69
-2.45
-3.41
-4.56
-5.93
-7.53
-9.23
-10.70
-11.46
-11.02
-9.10
-5.87
-1.91
2.01
5.15
7.16
8.09
8.33
8.38
8.61
9.24
10.29
11.71
13.42
15.31
17.23
18.97
20.36
21.28
21.68
21.60
21.06
19.98
18.31
16.01
13.14
9.93
6.68
3.81
1.74
0.78
1.01
2.08
3.29
3.82
3.15
1.31
-1.14
-3.50
-5.45
-7.38
-10.27
-15.15
-22.51
-31.89
-42.08
-51.58
-59.10
-63.91
-65.68
-64.35
-59.96
-52.66
-42.95
-31.71
-20.22
-9.79
-1.44
4.32
7.58
8.79
8.53
7.31
5.50
3.38
1.27
-0.49
-1.62
-2.01
-1.76
-1.19
-0.67
-0.42
-0.44
-0.53
-0.44
-0.08
0.42
0.76
0.62
-0.06
-1.04
-1.78
-1.73
-0.58
1.60
4.43
7.38
10.06
12.38
14.51
16.71
19.10
21.55
23.74
25.30
25.95
25.63
24.40
22.39
19.73
16.56
13.08
9.61
6.55
4.28
2.97
2.47
2.28
1.71
0.18
-2.56
-6.24
-10.18
-13.51
-15.45
-15.62
-14.04
-11.13
-7.45
-3.51
0.27
3.66
6.47
8.58
9.88
10.36
10.14
9.44
8.58
7.78
7.12
6.50
5.69
4.44
2.60
0.16
-2.78
-6.01
-9.33
-12.56
-15.52
-18.11
-20.19
-21.62
-22.27
-21.98
-20.62
-18.12
-14.49
-9.92
-4.78
0.39
4.98
8.46
10.55
11.38
11.44
11.52
12.46
14.97
19.47
25.95
33.91
42.40
50.18
55.87
58.45
57.58
53.79
48.44
43.19
39.43
37.80
38.11
39.62
41.55
43.43
45.19
46.91
48.61
50.06
50.96
51.18
50.98
50.96
51.81
54.01
57.68
62.52
67.94
73.01
76.53
77.02
73.11
64.05
50.29
33.55
16.48
1.71
-9.03
-15.42
-18.31
-19.03
-18.55
-17.06
-14.10
-9.17
-2.28
5.86
14.01
20.98
26.08
29.25
30.86
31.37
30.97
29.57
27.02
23.31
18.78
14.03
9.68
6.09
3.24
0.80
-1.73
-4.77
-8.61
-13.37
-19.10
-25.74
-33.18
-41.05
-48.81
-55.77
-61.34
-65.21
-67.47
-68.55
-68.99
-69.26
-69.59
-69.96
-70.30
-70.57
-70.83
-71.25
-71.99
-73.08
-74.45
-75.89
-77.04
-77.47
-76.73
-74.44
-70.46
-64.98
-58.45
-51.50
-44.80
-38.90
-34.09
-30.34
-27.24
-23.95
-19.34
-12.34
-2.43
9.92
23.14
34.91
42.91
45.60
42.80
35.57
25.76
15.34
5.90
-1.57
-6.52
-8.80
-8.59
-6.45
-3.32
-0.38
1.33
1.17
-0.78
-3.89
-7.23
-9.99
-11.76
-12.55
-12.69
-12.60
-12.55
-12.64
-12.79
-12.86
-12.74
-12.48
-12.15
-11.86
-11.59
-11.21
-10.60
-9.75
-8.77
-7.90
-7.32
-7.00
-6.69
-5.96
-4.45
-2.04
1.08
4.52
7.87
10.80
13.21
15.08
16.36
17.01
16.97
16.33
15.34
14.30
13.46
12.82
12.17
11.24
9.86
8.13
6.35
4.82
3.72
2.94
2.21
1.25
-0.08
-1.67
-3.29
-4.68
-5.68
-6.28
-6.55
-6.61
-6.55
-6.44
-6.38
-6.39
-6.41
-6.16
-5.08
-2.55
1.96
8.49
16.55
25.13
33.05
39.35
43.53
45.57
45.79
44.58
42.33
39.33
35.88
32.32
28.99
26.14
23.81
21.89
20.19
18.54
16.88
15.22
13.58
11.86
9.85
7.33
4.11
0.14
-4.48
-9.58
-15.04
-20.76
-26.66
-32.56
-38.17
-43.07
-46.89
-49.39
-50.55
-50.54
-49.64
-48.14
-46.26
-44.18
-42.06
-40.11
-38.48
-37.24
-36.30
-35.39
-34.18
-32.41
-30.03
-27.20
-24.19
-21.29
-18.61
-16.16
-13.78
-11.28
-8.54
-5.51
-2.20
1.35
5.02
8.62
11.91
14.59
16.41
17.24
17.15
16.36
15.18
13.91
12.76
11.79
10.97
10.21
9.44
8.71
8.11
7.80
7.87
8.33
9.08
10.01
11.03
12.06
13.07
13.99
14.76
15.34
15.74
16.01
16.23
16.41
16.45
16.20
15.49
14.25
12.54
10.50
8.23
5.75
3.03
0.11
-2.84
-5.53
-7.70
-9.19
-10.11
-10.72
-11.32
-12.12
-13.09
-14.11
-14.98
-15.60
-16.04
-16.43
-16.90
-17.52
-18.21
-18.80
-19.15
-19.22
-19.13
-19.18
-19.73
-21.11
-23.44
-26.59
-30.14
-33.55
-36.29
-38.06
-38.91
-39.16
-39.20
-39.29
-39.32
-38.91
-37.55
-34.89
-30.95
-26.09
-20.94
-16.11
-12.05
-8.96
-6.86
-5.69
-5.33
-5.66
-6.53
-7.83
-9.43
-11.27
-13.26
-15.17
-16.50
-16.41
-13.86
-7.95
1.62
14.29
28.57
42.51
54.32
62.93
68.26
70.87
71.54
70.67
68.23
63.92
57.67
49.95
41.65
33.75
26.85
20.83
15.07
8.72
1.27
-7.27
-16.27
-24.83
-32.17
-37.92
-42.28
-45.94
-49.85
-54.91
-61.75
-70.48
-80.59
-91.05
-100.56
-107.93
-112.37
-113.74
-112.54
-109.62
-105.81
-101.50
-96.29
-89.08
-78.41
-63.14
-43.10
-19.36
5.93
30.27
51.55
68.75
81.98
92.07
100.01
106.35
111.11
113.85
114.07
111.47
106.06
98.18
88.41
77.45
66.10
55.18
45.51
37.80
32.55
29.93
29.78
31.55
34.54
38.02
41.44
44.44
46.81
48.32
48.69
47.63
44.96
40.79
35.50
29.65
23.91
18.80
14.69
11.73
9.88
8.88
8.34
7.74
6.68
5.03
3.09
1.62
1.61
3.93
8.99
16.52
25.61
34.93
42.98
48.36
49.86
46.71
38.71
26.43
11.23
-4.93
-20.05
-32.64
-42.25
-49.46
-55.50
-61.60
-68.43
-75.95
-83.56
-90.52
-96.40
-101.22
-105.35
-109.34
-113.66
-118.60
-124.27
-130.63
-137.44
-144.04
-149.19
-151.01
-147.35
-136.36
-117.33
-91.11
-60.14
-27.82
2.42
27.94
47.28
60.05
66.50
67.21
63.02
55.15
45.38
35.87
28.64
25.02
25.22
28.39
33.10
37.96
42.02
44.95
46.78
47.67
47.67
46.69
44.63
41.48
37.40
32.73
27.86
23.19
19.06
15.72
13.28
11.76
11.04
10.87
10.91
10.88
10.66
10.36
10.28
10.68
11.62
12.83
13.80
13.93
12.84
10.50
7.18
3.30
-0.80
-4.82
-8.41
-11.05
-12.05
-10.80
-7.14
-1.51
5.04
11.30
16.26
19.54
21.34
22.23
22.77
23.25
23.62
23.65
23.14
22.13
20.84
19.66
18.91
18.75
19.10
19.72
20.27
20.45
20.12
19.21
17.79
15.95
13.81
11.48
9.11
6.86
4.81
2.93
1.04
-1.15
-3.92
-7.28
-10.95
-14.30
-16.54
-17.05
-15.57
-12.30
-7.83
-2.86
1.99
6.38
10.21
13.53
16.45
19.01
21.24
23.11
24.63
25.84
26.74
27.29
27.36
26.79
25.42
23.25
20.45
17.34
14.28
11.53
9.16
7.05
5.01
2.94
0.93
-0.87
-2.31
-3.45
-4.62
-6.24
-8.62
-11.76
-15.24
-18.36
-20.32
-20.52
-18.68
-14.97
-9.85
-3.99
1.93
7.35
11.90
15.42
17.91
19.41
19.98
19.63
18.42
16.52
14.27
12.12
10.47
9.56
9.25
9.21
9.00
8.33
7.13
5.58
3.95
2.41
1.02
-0.31
-1.69
-3.20
-4.87
-6.71
-8.73
-10.95
-13.30
-15.59
-17.43
-18.38
-18.04
-16.25
-13.16
-9.19
-4.96
-1.00
2.27
4.73
6.51
7.86
9.08
10.35
11.77
13.27
14.75
16.09
17.20
18.10
18.80
19.37
19.79
19.98
19.80
19.14
17.96
16.34
14.47
12.56
10.76
9.10
7.56
6.03
4.37
2.45
0.18
-2.46
-5.35
-8.16
-10.37
-11.44
-10.93
-8.78
-5.27
-1.01
3.33
7.21
10.41
12.97
15.02
16.73
18.15
19.25
19.96
20.28
20.21
19.79
19.08
18.18
17.16
16.14
15.19
14.33
13.47
12.49
11.29
9.80
8.07
6.19
4.26
2.37
0.52
-1.32
-3.21
-5.24
-7.48
-9.96
-12.65
-15.39
-17.87
-19.68
-20.38
-19.69
-17.57
-14.26
-10.23
-5.99
-1.96
1.64
4.77
7.46
9.75
11.68
13.22
14.37
15.14
15.55
15.59
15.31
14.74
13.99
13.19
12.47
11.91
11.49
11.12
10.65
9.94
8.88
7.42
5.60
3.52
1.35
-0.78
-2.72
-4.42
-5.93
-7.35
-8.84
-10.57
-12.61
-14.95
-17.38
-19.55
-21.07
-21.56
-20.82
-18.86
-15.87
-12.19
-8.22
-4.31
-0.78
2.14
4.36
5.88
6.84
7.44
7.83
8.08
8.11
7.82
7.17
6.25
5.21
4.13
3.01
1.72
0.09
-1.96
-4.35
-6.89
-9.33
-11.45
-13.04
-13.79
-13.27
-10.96
-6.55
-0.20
7.20
14.15
18.91
20.05
17.04
10.37
1.46
-7.87
-15.96
-21.73
-24.83
-25.52
-24.40
-22.20
-19.61
-17.19
-15.33
-14.20
-13.78
-13.86
-14.15
-14.31
-14.05
-13.07
-11.19
-8.34
-4.63
-0.29
4.37
9.08
13.65
17.93
21.67
24.47
25.78
25.10
22.19
17.29
11.08
4.49
-1.61
-6.63
-10.38
-12.99
-14.79
-16.15
-17.36
-18.63
-20.01
-21.36
-22.28
-22.13
-20.16
-15.78
-8.87
0.02
9.77
18.93
26.20
30.75
32.38
31.39
28.41
24.14
19.23
14.24
9.62
5.69
2.56
0.17
-1.69
-3.28
-4.83
-6.51
-8.38
-10.38
-12.37
-14.13
-15.47
-16.27
-16.59
-16.61
-16.58
-16.68
-16.98
-17.42
-17.85
-18.16
-18.33
-18.42
-18.49
-18.55
-18.47
-18.04
-16.99
-15.14
-12.42
-8.97
-5.02
-0.78
3.59
8.07
12.69
17.39
22.03
26.33
30.07
33.14
35.64
37.76
39.60
41.11
41.98
41.85
40.46
37.80
34.18
30.07
25.95
22.14
18.71
15.52
12.35
9.03
5.53
1.94
-1.60
-4.97
-8.08
-10.94
-13.60
-16.08
-18.42
-20.70
-23.01
-25.41
-27.83
-30.02
-31.58
-32.04
-31.08
-28.66
-25.04
-20.68
-16.11
-11.78
-7.97
-4.79
-2.19
-0.08
1.68
3.18
4.45
5.44
6.06
6.22
5.95
5.36
4.68
4.11
3.72
3.49
3.30
3.05
2.70
2.28
1.79
1.17
0.33
-0.80
-2.24
-3.85
-5.43
-6.75
-7.73
-8.41
-9.00
-9.76
-10.89
-12.51
-14.62
-17.06
-19.53
-21.64
-22.93
-22.99
-21.59
-18.76
-14.78
-10.15
-5.44
-1.12
2.51
5.40
7.63
9.40
10.88
12.21
13.39
14.34
14.93
15.07
14.79
14.23
13.58
12.99
12.47
11.93
11.25
10.34
9.24
8.04
6.83
5.65
4.45
3.13
1.62
-0.07
-1.85
-3.60
-5.23
-6.70
-8.00
-9.19
-10.32
-11.46
-12.71
-14.15
-15.86
-17.81
-19.84
-21.60
-22.66
-22.64
-21.31
-18.74
-15.20
-11.14
-7.00
-3.10
0.34
3.26
5.68
7.61
9.09
10.11
10.69
10.91
10.86
10.67
10.46
10.23
9.95
9.52
8.90
8.12
7.31
6.56
5.92
5.29
4.50
3.37
1.86
0.08
-1.77
-3.48
-4.93
-6.18
-7.37
-8.69
-10.25
-12.09
-14.08
-15.99
-17.52
-18.32
-18.06
-16.62
-14.07
-10.72
-7.01
-3.38
-0.16
2.51
4.68
6.44
7.94
9.25
10.41
11.44
12.26
12.82
13.04
12.90
12.41
11.66
10.77
9.84
8.95
8.13
7.41
6.80
6.25
5.69
4.99
3.99
2.60
0.82
-1.23
-3.30
-5.18
-6.69
-7.80
-8.62
-9.38
-10.35
-11.80
-13.82
-16.33
-18.95
-21.17
-22.37
-22.11
-20.20
-16.87
-12.64
-8.19
-4.08
-0.61
2.19
4.53
6.58
8.41
9.94
11.00
11.49
11.44
11.04
10.56
10.22
10.06
10.01
9.92
9.61
9.01
8.16
7.19
6.29
5.61
5.27
5.34
5.74
6.26
6.59
6.36
5.33
3.47
1.00
-1.67
-4.12
-6.08
-7.52
-8.62
-9.66
-10.87
-12.36
-14.04
-15.75
-17.24
-18.23
-18.47
-17.76
-16.01
-13.35
-10.00
-6.35
-2.75
0.52
3.30
5.54
7.25
8.46
9.25
9.71
9.97
10.12
10.23
10.27
10.17
9.87
9.34
8.66
7.97
7.42
7.05
6.80
6.52
6.03
5.21
4.05
2.65
1.15
-0.30
-1.61
-2.76
-3.81
-4.83
-5.89
-7.07
-8.45
-10.13
-12.15
-14.47
-16.90
-19.07
-20.56
-20.98
-20.09
-17.89
-14.65
-10.79
-6.82
-3.17
-0.12
2.25
3.99
5.29
6.30
7.13
7.79
8.26
8.46
8.36
8.00
7.47
6.89
6.36
5.95
5.68
5.53
5.46
5.45
5.44
5.40
5.30
5.11
4.85
4.56
4.29
4.09
3.98
3.90
3.73
3.35
2.68
1.75
0.67
-0.51
-1.76
-3.17
-4.86
-6.89
-9.17
-11.46
-13.41
-14.67
-14.93
-14.05
-12.03
-9.06
-5.50
-1.78
1.69
4.60
6.87
8.57
9.86
10.89
11.73
12.35
12.68
12.70
12.42
11.91
11.26
10.56
9.85
9.16
8.47
7.79
7.10
6.40
5.67
4.92
4.13
3.32
2.50
1.69
0.92
0.14
-0.70
-1.70
-2.92
-4.37
-5.96
-7.53
-8.92
-10.01
-10.78
-11.35
-11.91
-12.71
-13.96
-15.74
-17.93
-20.17
-21.97
-22.78
-22.16
-19.94
-16.25
-11.50
-6.30
-1.27
3.12
6.62
9.23
11.11
12.50
13.57
14.42
15.03
15.34
15.33
15.03
14.54
13.95
13.35
12.76
12.16
11.55
10.89
10.17
9.35
8.37
7.19
5.81
4.28
2.73
1.26
-0.01
-1.10
-2.05
-3.02
-4.13
-5.47
-7.06
-8.80
-10.56
-12.22
-13.76
-15.22
-16.71
-18.32
-20.12
-22.05
-24.00
-25.72
-26.91
-27.23
-26.34
-24.07
-20.49
-15.93
-10.96
-6.21
-2.19
0.86
3.00
4.48
5.62
6.66
7.73
8.81
9.84
10.72
11.38
11.78
11.90
11.73
11.34
10.82
10.35
10.09
10.11
10.29
10.37
10.00
8.95
7.19
4.97
2.68
0.72
-0.68
-1.56
-2.18
-2.89
-4.06
-5.88
-8.30
-11.05
-13.69
-15.71
-16.66
-16.26
-14.48
-11.55
-7.91
-4.07
-0.47
2.56
4.88
6.51
7.56
8.17
8.45
8.48
8.33
8.02
7.60
7.11
6.58
6.07
5.62
5.26
4.92
4.52
3.91
2.96
1.64
0.03
-1.74
-3.53
-5.24
-6.84
-8.38
-9.89
-11.41
-13.01
-14.72
-16.60
-18.60
-20.54
-22.06
-22.67
-21.97
-19.80
-16.35
-12.10
-7.66
-3.53
0.02
3.03
5.65
8.05
10.28
12.24
13.74
14.68
15.03
14.92
14.55
14.10
13.72
13.40
13.08
12.63
11.96
11.02
9.85
8.52
7.06
5.48
3.78
1.95
0.06
-1.81
-3.58
-5.19
-6.71
-8.24
-9.96
-11.93
-14.06
-16.04
-17.39
-17.65
-16.52
-14.00
-10.40
-6.23
-2.06
1.69
4.83
7.33
9.32
10.92
12.21
13.17
13.77
13.98
13.85
13.45
12.92
12.35
11.82
11.34
10.87
10.33
9.67
8.82
7.76
6.48
5.01
3.40
1.72
0.05
-1.56
-3.07
-4.48
-5.79
-7.05
-8.35
-9.81
-11.55
-13.59
-15.77
-17.70
-18.83
-18.69
-17.01
-13.91
-9.85
-5.49
-1.42
1.98
4.65
6.77
8.59
10.29
11.92
13.43
14.70
15.60
16.05
16.03
15.58
14.80
13.79
12.62
11.35
9.99
8.58
7.21
6.01
5.04
4.26
3.50
2.54
1.22
-0.45
-2.32
-4.16
-5.78
-7.13
-8.28
-9.39
-10.62
-12.07
-13.69
-15.29
-16.54
-17.06
-16.53
-14.78
-11.92
-8.28
-4.33
-0.54
2.76
5.41
7.41
8.83
9.74
10.23
10.40
10.30
9.99
9.51
8.94
8.36
7.87
7.57
7.42
7.30
7.00
6.31
5.18
3.67
1.99
0.35
-1.13
-2.43
-3.64
-4.90
-6.27
-7.83
-9.57
-11.47
-13.41
-15.19
-16.53
-17.08
-16.59
-14.94
-12.24
-8.81
-5.09
-1.57
1.39
3.67
5.36
6.70
7.93
9.16
10.35
11.35
11.99
12.21
12.03
11.57
10.93
10.17
9.33
8.43
7.52
6.66
5.90
5.22
4.54
3.74
2.72
1.43
-0.09
-1.71
-3.29
-4.67
-5.80
-6.72
-7.61
-8.70
-10.19
-12.18
-14.50
-16.81
-18.60
-19.37
-18.86
-17.07
-14.27
-10.89
-7.35
-3.91
-0.72
2.22
4.91
7.33
9.43
11.13
12.37
13.13
13.45
13.42
13.16
12.74
12.24
11.66
10.97
10.21
9.42
8.73
8.21
7.87
7.59
7.18
6.48
5.42
4.04
2.46
0.83
-0.76
-2.25
-3.60
-4.80
-5.87
-6.88
-7.94
-9.16
-10.64
-12.44
-14.51
-16.70
-18.76
-20.34
-21.09
-20.67
-18.96
-16.04
-12.25
-8.08
-4.04
-0.50
2.39
4.67
6.47
7.96
9.20
10.20
10.94
11.39
11.59
11.58
11.42
11.14
10.75
10.29
9.81
9.35
8.96
8.60
8.19
7.60
6.76
5.66
4.38
3.05
1.77
0.56
-0.61
-1.78
-2.97
-4.16
-5.32
-6.44
-7.56
-8.79
-10.25
-11.99
-13.99
-16.13
-18.15
-19.71
-20.45
-20.05
-18.39
-15.60
-12.01
-8.09
-4.26
-0.84
2.03
4.32
6.07
7.32
8.17
8.72
9.11
9.40
9.61
9.69
9.54
9.16
8.62
8.04
7.55
7.17
6.85
6.48
5.95
5.18
4.14
2.84
1.31
-0.37
-2.08
-3.67
-5.00
-6.05
-6.91
-7.79
-8.99
-10.72
-13.04
-15.73
-18.28
-20.05
-20.47
-19.28
-16.59
-12.92
-8.92
-5.18
-2.03
0.52
2.64
4.53
6.29
7.88
9.15
9.98
10.33
10.30
10.05
9.75
9.49
9.24
8.90
8.34
7.48
6.39
5.18
4.01
2.92
1.86
0.69
-0.75
-2.56
-4.70
-7.06
-9.48
-11.83
-14.04
-16.06
-17.94
-19.76
-21.68
-23.89
-26.49
-29.42
-32.32
-34.62
-35.63
-34.80
-31.90
-27.07
-20.75
-13.55
-6.07
1.13
7.59
12.87
16.74
19.21
20.63
21.63
22.91
24.95
27.85
31.27
34.66
37.46
39.33
40.25
40.38
39.90
38.96
37.56
35.69
33.37
30.67
27.69
24.49
21.07
17.39
13.45
9.34
5.23
1.29
-2.36
-5.75
-9.03
-12.36
-15.87
-19.52
-23.10
-26.25
-28.55
-29.61
-29.19
-27.28
-24.13
-20.17
-15.93
-11.94
-8.53
-5.84
-3.76
-2.07
-0.54
0.94
2.28
3.25
3.64
3.39
2.68
1.82
1.18
0.97
1.19
1.64
2.08
2.32
2.28
1.95
1.37
0.53
-0.55
-1.80
-3.00
-3.90
-4.27
-4.05
-3.41
-2.67
-2.20
-2.22
-2.79
-3.80
-5.08
-6.44
-7.68
-8.60
-8.96
-8.53
-7.15
-4.89
-1.99
1.13
4.04
6.45
8.21
9.40
10.18
10.71
11.11
11.40
11.54
11.49
11.25
10.84
10.26
9.41
8.15
6.31
3.88
1.07
-1.69
-3.91
-5.30
-5.95
-6.28
-6.88
-8.19
-10.31
-12.93
-15.55
-17.70
-19.16
-19.91
-20.02
-19.44
-17.99
-15.44
-11.69
-6.97
-1.78
3.26
7.63
11.12
13.76
15.73
17.11
17.79
17.58
16.39
14.42
12.14
10.12
8.73
7.97
7.46
6.64
5.13
2.95
0.60
-1.24
-2.04
-1.74
-0.87
-0.31
-0.96
-3.37
-7.51
-12.76
-18.13
-22.56
-25.20
-25.63
-23.94
-20.59
-16.24
-11.52
-6.92
-2.69
1.02
4.11
6.49
8.09
8.88
8.95
8.43
7.46
6.18
4.73
3.26
1.98
1.10
0.70
0.76
1.13
1.61
2.05
2.32
2.32
1.93
0.98
-0.62
-2.83
-5.44
-8.08
-10.33
-11.77
-12.12
-11.27
-9.25
-6.31
-2.81
0.81
4.16
6.99
9.27
11.07
12.53
13.74
14.73
15.45
15.82
15.80
15.37
14.54
13.40
12.08
10.73
9.45
8.30
7.25
6.28
5.37
4.53
3.72
2.85
1.69
0.04
-2.20
-4.84
-7.48
-9.54
-10.53
-10.14
-8.40
-5.61
-2.20
1.35
4.67
7.51
9.74
11.31
12.19
12.37
11.88
10.80
9.35
7.80
6.45
5.49
4.94
4.60
4.18
3.39
2.06
0.23
-1.93
-4.18
-6.27
-8.06
-9.44
-10.43
-11.08
-11.50
-11.77
-11.83
-11.49
-10.45
-8.42
-5.37
-1.62
2.20
5.37
7.30
7.78
7.06
5.60
3.96
2.48
1.28
0.22
-0.94
-2.41
-4.24
-6.26
-8.13
-9.56
-10.48
-11.05
-11.67
-12.70
-14.36
-16.51
-18.71
-20.41
-21.18
-20.86
-19.50
-17.36
-14.87
-12.65
-11.33
-11.27
-12.41
-14.13
-15.36
-14.90
-12.02
-6.90
-0.59
5.54
10.58
14.33
17.12
19.52
21.99
24.64
27.20
29.23
30.30
30.47
29.74
27.88
24.62
20.08
14.93
10.25
7.18
6.72
9.87
16.93
27.12
38.75
49.63
57.56
60.72
58.20
47.99
31.46
13.42
-0.37
-6.69
-5.90
-0.44
6.95
14.29
20.74
26.52
31.56
35.36
37.30
37.30
36.10
34.81
34.41
35.20
37.26
39.83
41.62
41.42
38.82
34.39
29.31
24.67
20.98
18.06
14.93
10.15
2.47
-8.52
-22.23
-37.35
-52.36
-65.91
-77.03
-85.41
-91.28
-95.11
-97.30
-98.05
-97.40
-95.39
-92.24
-88.16
-83.34
-77.61
-70.52
-61.53
-50.50
-38.09
-25.75
-15.35
-8.34
-5.22
-5.32
-7.22
-9.40
-10.90
-11.56
-11.81
-12.16
-12.77
-13.14
-12.30
-9.23
-3.32
5.23
15.42
25.75
34.65
41.06
44.60
45.57
44.60
42.33
39.03
34.73
29.28
22.70
15.28
7.51
-0.17
-7.58
-14.87
-22.33
-30.08
-37.78
-44.62
-49.54
-51.65
-50.53
-46.40
-40.00
-32.26
-24.01
-15.82
-7.96
-0.59
6.15
12.10
17.07
21.06
24.20
26.74
28.92
30.79
32.19
32.79
32.40
31.08
29.25
27.66
27.09
28.14
30.93
35.02
39.56
43.51
45.99
46.55
45.24
42.50
38.96
35.15
31.36
27.58
23.62
19.26
14.38
9.05
3.55
-1.78
-6.59
-10.69
-14.03
-16.74
-18.96
-20.76
-22.11
-22.82
-22.67
-21.45
-19.00
-15.22
-10.13
-4.04
2.35
7.91
11.33
11.63
8.57
2.88
-3.95
-10.30
-15.04
-17.78
-18.78
-18.37
-16.64
-13.43
-8.76
-3.45
0.72
1.43
-3.03
-12.79
-25.88
-38.83
-48.10
-51.57
-49.44
-43.89
-37.85
-33.44
-31.07
-29.54
-27.00
-22.17
-15.04
-6.83
0.81
6.66
10.42
12.72
14.52
16.61
19.18
21.90
24.13
25.38
25.62
25.27
25.10
25.73
27.37
29.71
32.15
34.21
35.88
37.66
40.24
44.09
49.19
55.17
61.55
68.17
75.17
82.64
90.19
96.76
100.89
101.31
97.58
90.23
80.44
69.40
57.88
46.17
34.44
23.13
13.07
5.23
0.16
-2.30
-3.08
-3.44
-4.37
-6.27
-8.87
-11.64
-14.12
-16.23
-18.25
-20.57
-23.45
-26.87
-30.51
-33.93
-36.72
-38.60
-39.47
-39.44
-38.76
-37.79
-36.87
-36.28
-36.08
-36.18
-36.40
-36.57
-36.69
-36.90
-37.45
-38.48
-40.02
-41.90
-43.87
-45.66
-47.10
-48.11
-48.74
-49.10
-49.41
-49.88
-50.72
-52.09
-54.01
-56.42
-59.14
-61.98
-64.83
-67.70
-70.73
-74.08
-77.82
-81.83
-85.77
-89.07
-91.09
-91.22
-89.02
-84.32
-77.30
-68.50
-58.77
-49.11
-40.47
-33.53
-28.54
-25.32
-23.38
-22.25
-21.63
-21.57
-22.44
-24.76
-28.92
-34.91
-42.15
-49.49
-55.45
-58.61
-58.15
-54.21
-47.91
-41.04
-35.32
-31.76
-30.35
-30.25
-30.31
-29.66
-28.13
-26.01
-23.67
-21.25
-18.55
-15.30
-11.23
-5.99
1.04
10.79
24.11
41.09
60.55
80.02
96.47
107.43
111.89
110.49
105.04
97.61
89.76
82.29
75.43
69.26
63.99
59.95
57.33
55.99
55.33
54.43
52.46
49.19
45.14
41.48
39.57
40.25
43.50
48.42
53.64
57.93
60.62
61.70
61.52
60.46
58.63
55.91
52.07
47.03
40.98
34.30
27.44
20.74
14.35
8.27
2.46
-3.05
-8.20
-12.90
-17.12
-20.90
-24.36
-27.63
-30.76
-33.67
-36.07
-37.52
-37.53
-35.69
-31.93
-26.55
-20.19
-13.67
-7.72
-2.80
0.95
3.64
5.48
6.65
7.26
7.39
7.17
6.78
6.44
6.29
6.35
6.55
6.76
6.90
6.98
7.06
7.18
7.25
7.08
6.41
5.10
3.18
0.89
-1.42
-3.41
-4.91
-5.92
-6.59
-7.15
-7.83
-8.81
-10.24
-12.11
-14.25
-16.28
-17.61
-17.68
-16.15
-13.07
-8.93
-4.51
-0.52
2.63
4.95
6.75
8.34
9.82
11.01
11.69
11.76
11.48
11.35
11.92
13.49
16.08
19.45
23.38
27.69
32.25
36.84
41.01
44.16
45.72
45.43
43.41
40.19
36.45
32.81
29.62
26.86
24.27
21.41
17.94
13.74
9.00
4.14
-0.36
-4.16
-7.14
-9.42
-11.20
-12.60
-13.68
-14.43
-14.91
-15.31
-15.89
-16.95
-18.70
-21.18
-24.37
-28.16
-32.52
-37.44
-42.90
-48.65
-54.07
-58.11
-59.48
-56.96
-49.90
-38.45
-23.57
-6.82
10.14
25.87
39.33
49.94
57.37
61.50
62.42
60.45
56.12
50.13
43.17
35.88
28.85
22.67
17.94
15.18
14.67
16.23
19.18
22.52
25.22
26.58
26.45
25.28
23.97
23.67
25.49
30.15
37.55
46.42
54.32
58.16
55.25
44.32
26.22
3.73
-19.40
-39.73
-55.21
-65.43
-71.28
-74.10
-75.07
-74.88
-73.87
-72.23
-70.10
-67.47
-64.06
-59.30
-52.48
-43.16
-31.49
-18.34
-5.12
6.57
15.43
20.80
22.78
22.13
19.94
17.31
15.10
13.80
13.52
14.07
15.10
16.22
17.16
17.78
18.12
18.30
18.41
18.41
18.19
17.61
16.57
15.13
13.50
11.92
10.62
9.66
8.98
8.38
7.68
6.80
5.76
4.69
3.73
2.89
2.05
1.02
-0.37
-2.15
-4.14
-6.09
-7.70
-8.84
-9.54
-9.97
-10.30
-10.62
-10.96
-11.25
-11.47
-11.63
-11.82
-12.09
-12.44
-12.84
-13.20
-13.48
-13.65
-13.64
-13.30
-12.44
-10.84
-8.43
-5.32
-1.80
1.73
4.96
7.67
9.79
11.37
12.50
13.21
13.56
13.60
13.38
12.98
12.45
11.81
11.03
10.11
9.03
7.86
6.66
5.54
4.58
3.81
3.22
2.73
2.23
1.53
0.49
-0.96
-2.77
-4.76
-6.66
-8.25
-9.42
-10.25
-10.96
-11.82
-13.02
-14.64
-16.58
-18.59
-20.31
-21.36
-21.41
-20.33
-18.18
-15.26
-11.98
-8.68
-5.59
-2.75
-0.12
2.33
4.54
6.41
7.82
8.70
9.08
9.01
8.58
7.86
6.95
6.00
5.22
4.82
4.92
5.47
6.27
7.03
7.45
7.38
6.77
5.74
4.48
3.16
1.94
0.87
-0.00
-0.70
-1.29
-1.89
-2.68
-3.87
-5.61
-7.88
-10.40
-12.62
-13.93
-13.85
-12.22
-9.33
-5.72
-2.05
1.22
3.86
5.89
7.43
8.60
9.45
9.99
10.21
10.10
9.71
9.11
8.35
7.49
6.53
5.47
4.31
3.08
1.85
0.74
-0.19
-0.94
-1.61
-2.37
-3.35
-4.59
-6.02
-7.50
-8.91
-10.20
-11.36
-12.43
-13.44
-14.47
-15.61
-17.02
-18.85
-21.11
-23.63
-26.06
-27.87
-28.59
-27.93
-25.84
-22.55
-18.44
-13.99
-9.61
-5.60
-2.13
0.79
3.22
5.21
6.84
8.13
9.14
10.00
10.90
12.00
13.35
14.85
16.22
17.20
17.62
17.56
17.22
16.81
16.36
15.72
14.58
12.78
10.37
7.77
5.55
4.24
4.06
4.81
5.97
6.92
7.20
6.64
5.30
3.39
1.06
-1.56
-4.29
-6.80
-8.58
-9.08
-7.92
-5.11
-1.07
3.47
7.69
10.96
12.99
13.83
13.73
13.03
11.98
10.69
9.17
7.34
5.18
2.73
0.12
-2.51
-5.06
-7.53
-9.96
-12.40
-14.87
-17.36
-19.66
-21.51
-22.74
-23.30
-23.35
-23.13
-22.92
-22.90
-23.11
-23.15
-22.47
-20.61
-17.44
-13.12
-8.10
-2.94
1.69
5.25
7.75
9.47
10.81
12.06
13.40
15.01
17.08
19.77
23.09
27.31
32.36
37.76
42.71
46.67
49.80
52.95
56.98
59.03
56.25
46.93
31.91
14.02
-3.37
-17.52
-27.04
-32.08
-33.95
-33.83
-32.82
-31.12
-28.75
-25.79
-22.45
-18.93
-15.38
-11.84
-7.84
-2.89
3.39
10.81
18.77
26.56
33.63
39.58
44.12
47.16
48.56
48.07
45.31
40.16
33.01
24.76
16.60
9.60
4.47
1.29
-0.40
-1.39
-2.31
-3.37
-4.27
-4.50
-3.67
-1.77
0.67
2.67
3.09
1.04
-3.81
-11.09
-19.86
-28.86
-36.82
-42.75
-46.12
-47.00
-45.98
-43.91
-41.62
-39.57
-37.80
-36.02
-34.04
-32.11
-30.94
-31.47
-34.27
-39.03
-44.54
-48.97
-50.62
-48.66
-43.49
-36.63
-30.41
-27.14
-28.57
-35.42
-47.06
-61.45
-75.26
-84.46
-85.24
-75.29
-54.89
-27.26
2.16
27.52
44.64
52.47
53.09
50.18
47.08
45.28
44.39
43.22
41.26
39.42
39.51
42.90
49.32
56.62
61.70
62.03
56.89
47.72
37.14
27.69
20.69
15.87
11.89
7.27
1.30
-5.63
-12.26
-17.22
-19.77
-20.11
-19.29
-18.62
-19.07
-20.97
-23.97
-27.42
-30.72
-33.46
-35.48
-36.68
-36.98
-36.29
-34.59
-31.93
-28.43
-24.17
-19.20
-13.61
-7.70
-1.93
3.11
7.02
9.79
11.85
13.80
16.09
18.76
21.47
23.72
25.23
26.08
26.63
27.26
28.11
29.01
29.58
29.52
28.73
27.34
25.55
23.52
21.24
18.61
15.53
12.06
8.40
4.77
1.30
-2.11
-5.71
-9.69
-13.94
-17.97
-21.00
-22.24
-21.18
-17.88
-12.91
-7.19
-1.65
3.02
6.46
8.61
9.65
9.87
9.60
9.16
8.71
8.22
7.43
5.99
3.69
0.69
-2.43
-4.88
-5.95
-5.42
-3.65
-1.48
0.15
0.59
-0.20
-1.77
-3.30
-4.03
-3.51
-1.71
0.96
3.83
6.01
6.56
4.70
0.05
-7.18
-16.06
-25.04
-32.34
-36.40
-36.45
-32.66
-26.14
-18.52
-11.40
-5.94
-2.60
-1.14
-0.89
-1.01
-0.81
0.14
1.98
4.61
7.80
11.21
14.51
17.45
19.91
21.98
23.88
25.83
27.84
29.68
30.87
30.86
29.26
26.03
21.45
16.05
10.37
4.90
0.03
-3.87
-6.43
-7.35
-6.57
-4.51
-2.12
-0.69
-1.39
-4.84
-10.81
-18.30
-25.88
-32.22
-36.38
-38.04
-37.21
-34.07
-28.74
-21.38
-12.30
-2.00
8.76
19.13
28.29
35.68
41.02
44.40
46.16
46.82
47.08
47.64
49.00
51.29
54.08
56.46
57.34
55.86
51.82
46.26
40.94
37.73
37.62
40.08
43.25
44.67
42.26
34.98
23.58
9.90
-3.61
-14.72
-22.16
-25.83
-26.75
-26.00
-25.57
-27.65
-33.58
-42.29
-51.08
-57.29
-59.50
-57.74
-52.90
-47.82
-41.98
-34.26
-23.65
-9.77
6.95
25.29
43.52
59.69
71.95
78.63
78.23
70.44
56.46
38.65
19.94
2.85
-11.08
-21.44
-28.28
-32.04
-33.07
-31.78
-28.81
-24.99
-21.20
-18.00
-15.58
-13.58
-11.51
-8.87
-5.49
-1.65
1.99
4.60
5.49
4.30
1.26
-3.12
-8.09
-13.01
-17.44
-21.25
-24.49
-27.28
-29.69
-31.74
-33.38
-34.58
-35.27
-35.31
-34.47
-32.35
-28.47
-22.45
-14.21
-4.14
6.86
17.52
26.53
32.92
36.28
36.80
35.09
31.95
28.10
24.07
20.22
16.77
13.90
11.71
10.27
9.51
9.25
9.19
8.96
8.21
6.68
4.23
0.88
-3.28
-8.16
-13.72
-19.92
-26.69
-33.83
-41.00
-47.81
-53.90
-59.08
-63.35
-66.85
-69.81
-72.40
-74.75
-76.89
-78.79
-80.36
-81.40
-81.58
-80.43
-77.43
-72.11
-64.26
-54.00
-41.91
-28.86
-15.90
-3.96
6.34
14.79
21.55
27.00
31.54
35.42
38.73
41.42
43.39
44.69
45.41
45.77
45.91
45.94
45.84
45.57
45.04
44.13
42.63
40.24
36.71
31.93
26.10
19.68
13.26
7.38
2.35
-1.79
-5.16
-7.97
-10.42
-12.75
-15.22
-18.13
-21.62
-25.61
-29.78
-33.69
-36.92
-39.09
-39.85
-38.67
-34.92
-28.07
-18.11
-5.72
7.69
20.55
31.57
40.21
46.55
50.93
53.41
53.62
51.08
45.70
38.19
30.01
22.73
17.31
13.66
10.72
7.09
1.74
-5.53
-14.19
-23.49
-32.92
-42.42
-52.15
-62.06
-71.70
-80.14
-86.43
-89.97
-90.81
-89.58
-87.19
-84.50
-82.02
-79.96
-78.31
-77.08
-76.32
-76.13
-76.53
-77.37
-78.35
-79.10
-79.32
-78.80
-77.47
-75.18
-71.64
-66.38
-58.86
-48.77
-36.31
-22.32
-8.12
4.83
15.34
22.87
27.53
29.98
31.10
31.78
32.74
34.52
37.52
41.89
47.53
53.97
60.58
66.63
71.58
75.20
77.49
78.67
78.98
78.64
77.77
76.37
74.39
71.71
68.29
64.20
59.68
55.04
50.63
46.64
43.08
39.83
36.75
33.73
30.76
27.80
24.73
21.35
17.41
12.81
7.67
2.44
-2.20
-5.54
-6.98
-6.26
-3.47
0.97
6.44
12.30
17.99
23.11
27.44
30.92
33.57
35.42
36.53
36.89
36.48
35.29
33.41
30.99
28.26
25.39
22.48
19.53
16.51
13.45
10.51
7.88
5.73
4.06
2.71
1.41
-0.05
-1.84
-4.01
-6.59
-9.57
-12.82
-16.05
-18.70
-20.11
-19.68
-17.17
-12.80
-7.15
-0.97
5.09
10.60
15.41
19.48
22.79
25.31
26.98
27.88
28.17
28.07
27.77
27.31
26.64
25.67
24.42
23.04
21.73
20.60
19.60
18.50
17.04
15.09
12.71
10.11
7.55
5.13
2.87
0.62
-1.76
-4.37
-7.26
-10.42
-13.72
-16.93
-19.63
-21.25
-21.26
-19.33
-15.54
-10.39
-4.64
0.91
5.67
9.42
12.24
14.41
16.17
17.62
18.75
19.43
19.59
19.22
18.44
17.44
16.39
15.41
14.52
13.69
12.83
11.85
10.71
9.36
7.81
6.06
4.14
2.13
0.11
-1.85
-3.71
-5.52
-7.39
-9.42
-11.72
-14.31
-17.10
-19.82
-22.06
-23.32
-23.08
-21.05
-17.29
-12.30
-6.91
-1.99
1.85
4.46
6.12
7.36
8.58
9.88
11.02
11.55
11.16
9.87
8.06
6.32
5.18
4.81
5.01
5.28
5.07
4.04
2.09
-0.70
-4.21
-8.25
-12.36
-15.70
-17.05
-15.31
-10.10
-2.15
6.79
14.66
19.85
21.87
21.33
19.44
17.29
15.37
13.60
11.84
10.32
9.68
10.64
13.49
17.88
22.81
27.00
29.34
29.37
27.26
23.69
19.37
14.81
10.63
7.17
4.48
2.38
0.77
-0.38
-0.73
-0.01
1.73
4.84
9.25
14.21
18.56
21.32
21.91
20.75
18.50
15.68
13.73
13.61
15.23
17.64
19.85
21.05
21.76
22.62
24.10
27.93
35.33
46.22
59.17
72.50
84.44
94.80
103.67
101.80
84.25
53.20
16.99
-16.11
-38.63
-53.45
-63.27
-69.83
-74.25
-76.14
-74.87
-70.82
-65.45
-60.35
-56.98
-55.24
-54.85
-55.67
-56.46
-56.15
-54.52
-52.17
-49.90
-48.56
-47.89
-47.54
-47.23
-46.10
-43.50
-39.58
-35.27
-31.67
-29.67
-29.06
-29.06
-28.79
-27.31
-24.30
-20.37
-16.73
-14.38
-13.67
-13.96
-14.21
-13.70
-12.22
-10.18
-8.40
-7.64
-8.26
-10.30
-13.47
-17.36
-21.26
-23.93
-23.70
-19.06
-9.42
4.13
18.93
31.53
39.02
40.13
35.60
27.65
18.87
11.23
5.56
1.73
-0.90
-2.99
-4.98
-7.13
-9.53
-12.17
-14.80
-16.93
-17.98
-17.40
-15.01
-11.11
-6.37
-1.68
2.21
4.87
6.22
6.49
6.01
5.08
3.97
2.85
1.86
1.03
0.35
-0.31
-1.04
-1.91
-2.87
-3.82
-4.68
-5.47
-6.26
-7.18
-8.30
-9.61
-11.06
-12.63
-14.35
-16.27
-18.42
-20.75
-23.04
-25.08
-26.62
-27.45
-27.44
-26.49
-24.59
-21.87
-18.63
-15.23
-12.04
-9.19
-6.57
-3.86
-0.79
2.68
6.27
9.47
11.79
12.99
13.16
12.62
11.75
10.82
9.89
8.97
8.04
7.14
6.36
5.70
5.05
4.20
2.91
1.09
-1.21
-3.74
-6.17
-8.28
-10.02
-11.52
-13.06
-14.89
-17.17
-19.87
-22.70
-25.19
-26.74
-26.82
-25.10
-21.63
-16.82
-11.38
-6.02
-1.28
2.65
5.89
8.74
11.41
13.97
16.24
17.97
18.98
19.22
18.81
18.03
17.15
16.37
15.80
15.46
15.31
15.30
15.37
15.45
15.45
15.28
14.77
13.81
12.29
10.21
7.68
4.86
2.01
-0.62
-2.83
-4.59
-6.04
-7.46
-9.17
-11.34
-13.91
-16.52
-18.58
-19.49
-18.80
-16.41
-12.58
-7.85
-2.88
1.81
5.89
9.30
12.15
14.61
16.80
18.72
20.30
21.40
21.97
22.06
21.82
21.47
21.17
20.97
20.78
20.43
19.76
18.74
17.48
16.19
15.03
14.02
13.04
11.89
10.42
8.64
6.68
4.68
2.65
0.45
-2.22
-5.62
-9.85
-14.80
-20.18
-25.62
-30.76
-35.22
-38.56
-40.30
-40.03
-37.61
-33.26
-27.62
-21.49
-15.61
-10.41
-6.00
-2.24
1.04
3.84
6.05
7.47
8.02
7.81
7.16
6.54
6.49
7.46
9.70
13.17
17.53
22.16
26.34
29.48
31.16
31.30
30.00
27.53
24.21
20.39
16.42
12.60
9.20
6.32
3.92
1.78
-0.37
-2.78
-5.54
-8.53
-11.44
-13.84
-15.31
-15.50
-14.34
-12.02
-9.00
-5.84
-3.03
-0.81
0.85
2.20
3.49
4.81
6.00
6.77
6.82
6.11
4.87
3.54
2.56
2.12
2.15
2.37
2.46
2.24
1.70
1.01
0.30
-0.39
-1.19
-2.31
-3.94
-6.08
-8.54
-10.95
-12.95
-14.35
-15.22
-15.87
-16.69
-17.98
-19.78
-21.88
-23.89
-25.36
-25.96
-25.47
-23.87
-21.23
-17.75
-13.69
-9.29
-4.77
-0.25
4.19
8.49
12.43
15.68
17.78
18.37
17.37
15.06
12.07
9.15
6.89
5.56
5.07
5.09
5.23
5.25
5.09
4.81
4.48
4.06
3.46
2.54
1.24
-0.37
-2.15
-3.94
-5.68
-7.44
-9.41
-11.77
-14.56
-17.62
-20.54
-22.80
-23.89
-23.49
-21.58
-18.49
-14.83
-11.32
-8.55
-6.72
-5.66
-4.91
-3.96
-2.51
-0.51
1.86
4.38
6.91
9.39
11.77
13.94
15.75
17.06
17.92
18.53
19.17
19.95
20.67
20.94
20.35
18.89
17.05
15.73
15.85
17.89
21.54
25.78
29.26
30.92
30.37
27.97
24.50
20.62
16.63
12.34
7.45
1.88
-3.98
-9.35
-13.29
-15.17
-14.89
-12.85
-9.84
-6.62
-3.72
-1.36
0.53
2.10
3.50
4.73
5.77
6.58
7.19
7.69
8.22
8.89
9.64
10.28
10.41
9.61
7.60
4.60
1.40
-0.73
-0.54
2.63
8.38
15.38
21.94
26.69
28.99
28.85
26.59
22.48
16.75
9.90
2.84
-3.17
-7.07
-8.56
-8.40
-8.02
-8.87
-11.73
-16.45
-22.19
-28.01
-33.20
-37.51
-40.91
-43.52
-45.41
-46.72
-47.62
-48.36
-49.10
-49.77
-50.02
-49.24
-46.89
-42.70
-36.92
-30.23
-23.60
-17.87
-13.46
-10.34
-8.10
-6.34
-4.93
-4.11
-4.32
-5.84
-8.55
-11.79
-14.57
-15.98
-15.60
-13.71
-11.29
-9.65
-9.98
-12.75
-17.46
-22.81
-27.17
-29.27
-28.79
-26.49
-23.97
-23.10
-25.49
-31.84
-41.43
-51.81
-59.16
-59.36
-49.64
-30.05
-3.90
23.31
45.88
60.21
65.80
64.81
60.46
55.26
50.20
45.07
39.45
33.61
28.59
25.59
25.23
27.05
29.85
32.21
33.31
33.21
32.79
33.21
35.28
39.03
43.70
48.10
51.04
51.53
48.87
42.63
32.81
20.09
6.08
-6.98
-16.90
-22.58
-24.46
-24.43
-24.92
-27.70
-33.22
-40.76
-49.12
-57.24
-64.29
-69.32
-71.05
-68.08
-59.81
-47.09
-32.33
-18.55
-8.11
-1.68
1.77
4.11
6.87
10.52
14.54
18.11
20.81
22.80
24.62
26.61
28.64
30.17
30.64
29.68
27.45
24.47
21.41
18.78
16.78
15.27
13.98
12.66
11.28
10.06
9.35
9.34
10.01
11.04
11.93
12.25
11.72
10.31
8.28
6.07
4.23
3.29
3.71
5.72
9.28
14.12
19.74
25.62
31.27
36.30
40.47
43.62
45.69
46.66
46.58
45.51
43.53
40.71
37.08
32.75
27.92
22.95
18.27
14.25
11.03
8.42
5.98
3.18
-0.43
-4.98
-10.25
-15.63
-20.27
-23.27
-23.99
-22.26
-18.56
-13.87
-9.45
-6.38
-5.23
-6.01
-8.31
-11.55
-15.25
-19.13
-23.05
-26.90
-30.57
-33.95
-37.06
-40.04
-43.16
-46.57
-50.28
-53.97
-57.10
-59.06
-59.42
-58.03
-55.05
-50.90
-46.07
-41.04
-36.23
-31.96
-28.37
-25.39
-22.64
-19.60
-15.70
-10.62
-4.39
2.66
9.99
17.08
23.52
29.12
33.80
37.61
40.60
42.75
44.07
44.47
43.91
42.42
40.15
37.36
34.33
31.28
28.30
25.40
22.52
19.67
16.87
14.17
11.58
9.04
6.49
3.88
1.25
-1.32
-3.75
-5.94
-7.92
-9.76
-11.55
-13.33
-15.00
-16.30
-16.87
-16.35
-14.58
-11.61
-7.75
-3.41
1.00
5.19
9.02
12.39
15.22
17.37
18.77
19.41
19.46
19.17
18.86
18.75
18.94
19.33
19.76
20.07
20.19
20.17
20.11
20.08
20.09
20.04
19.77
19.15
18.15
16.83
15.39
14.03
12.90
12.07
11.42
10.76
9.81
8.30
6.09
3.20
-0.18
-3.76
-7.22
-10.26
-12.71
-14.48
-15.62
-16.28
-16.67
-17.01
-17.38
-17.73
-17.87
-17.60
-16.81
-15.60
-14.23
-13.00
-12.09
-11.51
-11.08
-10.62
-9.97
-9.16
-8.30
-7.59
-7.18
-7.13
-7.35
-7.69
-7.97
-8.11
-8.17
-8.34
-8.91
-10.12
-12.17
-15.18
-19.25
-24.48
-30.72
-37.43
-43.57
-47.84
-49.18
-47.24
-42.63
-36.63
-30.64
-25.58
-21.59
-18.27
-15.12
-11.97
-9.09
-6.88
-5.45
-4.35
-2.65
0.63
6.03
13.32
21.56
29.42
35.71
39.80
41.73
42.10
41.64
40.88
40.00
38.86
37.33
35.44
33.45
31.67
30.23
28.81
26.81
23.51
18.48
11.78
4.03
-3.79
-10.65
-15.85
-19.24
-21.23
-22.59
-24.13
-26.39
-29.46
-32.98
-36.42
-39.28
-41.31
-42.47
-42.83
-42.39
-41.04
-38.58
-34.95
-30.35
-25.24
-20.16
-15.59
-11.75
-8.66
-6.22
-4.31
-2.87
-1.71
-0.52
1.13
3.57
6.77
10.31
13.38
15.21
15.34
13.87
11.27
8.21
5.19
2.40
-0.19
-2.68
-5.08
-7.24
-8.98
-10.27
-11.31
-12.53
-14.34
-16.89
-19.90
-22.64
-24.29
-24.15
-21.92
-17.74
-12.00
-5.15
2.54
10.89
19.77
28.88
37.58
44.95
49.92
51.65
49.78
44.65
37.20
28.62
19.95
11.86
4.59
-1.84
-7.42
-11.93
-14.99
-16.13
-14.87
-10.87
-4.05
5.13
15.50
25.27
32.42
35.38
33.60
27.74
19.32
10.04
1.11
-6.98
-14.24
-20.69
-26.01
-29.51
-30.38
-28.12
-22.84
-15.27
-6.56
2.03
9.47
15.18
19.04
21.37
22.66
23.37
23.73
23.75
23.33
22.47
21.35
20.29
19.58
19.32
19.30
19.15
18.53
17.29
15.59
13.77
12.13
10.81
9.65
8.33
6.48
3.94
0.80
-2.55
-5.64
-8.04
-9.58
-10.39
-10.80
-11.19
-11.82
-12.69
-13.56
-14.03
-13.65
-12.13
-9.37
-5.54
-1.03
3.69
8.21
12.26
15.73
18.60
20.86
22.49
23.42
23.63
23.19
22.22
20.86
19.21
17.27
15.03
12.46
9.62
6.68
3.88
1.51
-0.22
-1.25
-1.75
-2.00
-2.33
-2.98
-4.02
-5.34
-6.77
-8.14
-9.37
-10.46
-11.48
-12.53
-13.73
-15.20
-17.07
-19.38
-22.00
-24.58
-26.53
-27.25
-26.31
-23.63
-19.55
-14.68
-9.71
-5.16
-1.29
1.95
4.72
7.17
9.36
11.29
12.95
14.35
15.59
16.73
17.75
18.57
19.04
19.09
18.72
18.04
17.19
16.30
15.44
14.58
13.62
12.47
11.06
9.36
7.41
5.32
3.21
1.16
-0.86
-3.01
-5.49
-8.47
-11.92
-15.61
-19.09
-21.80
-23.30
-23.33
-21.90
-19.29
-15.92
-12.24
-8.64
-5.38
-2.56
-0.11
2.07
4.05
5.85
7.36
8.44
8.99
9.02
8.71
8.35
8.24
8.57
9.34
10.33
11.21
11.66
11.54
10.89
9.91
8.78
7.61
6.37
4.92
3.13
0.95
-1.57
-4.35
-7.23
-10.03
-12.52
-14.39
-15.32
-15.07
-13.56
-11.01
-7.79
-4.43
-1.34
1.21
3.14
4.55
5.57
6.34
6.92
7.37
7.69
7.91
8.04
8.09
8.02
7.76
7.25
6.48
5.49
4.33
3.04
1.67
0.20
-1.32
-2.86
-4.36
-5.86
-7.45
-9.27
-11.43
-13.91
-16.54
-19.00
-20.92
-21.98
-21.97
-20.81
-18.56
-15.41
-11.70
-7.88
-4.41
-1.60
0.46
1.95
3.18
4.42
5.72
6.92
7.78
8.11
7.94
7.48
6.97
6.61
6.42
6.31
6.18
5.94
5.59
5.09
4.39
3.43
2.15
0.61
-1.06
-2.67
-4.11
-5.42
-6.73
-8.21
-9.91
-11.68
-13.20
-14.10
-14.06
-12.98
-10.96
-8.30
-5.36
-2.46
0.14
2.33
4.11
5.53
6.64
7.48
8.04
8.34
8.41
8.32
8.14
7.90
7.63
7.27
6.81
6.22
5.48
4.60
3.58
2.47
1.32
0.20
-0.85
-1.81
-2.70
-3.56
-4.40
-5.22
-6.12
-7.27
-8.88
-11.08
-13.74
-16.45
-18.56
-19.45
-18.74
-16.49
-13.13
-9.33
-5.72
-2.70
-0.36
1.45
2.95
4.35
5.70
6.90
7.79
8.20
8.09
7.54
6.72
5.83
5.00
4.25
3.54
2.78
1.92
1.02
0.14
-0.61
-1.21
-1.67
-2.10
-2.61
-3.33
-4.46
-6.24
-8.95
-12.73
-17.43
-22.52
-27.10
-30.16
-30.87
-28.86
-24.36
-18.06
-10.92
-3.84
2.47
7.57
11.24
13.41
14.16
13.76
12.68
11.51
10.78
10.82
11.58
12.70
13.59
13.74
12.93
11.29
9.30
7.53
6.45
6.20
6.60
7.24
7.58
7.22
5.89
3.58
0.41
-3.36
-7.40
-11.36
-14.81
-17.33
-18.51
-18.06
-15.92
-12.30
-7.76
-3.04
1.12
4.21
6.16
7.29
8.18
9.38
11.15
13.41
15.83
18.04
19.75
20.81
21.12
20.53
18.85
15.98
11.97
7.14
2.02
-2.90
-7.27
-11.03
-14.33
-17.40
-20.39
-23.33
-26.07
-28.44
-30.33
-31.73
-32.71
-33.32
-33.47
-32.91
-31.24
-28.13
-23.52
-17.65
-11.10
-4.57
1.30
6.12
9.83
12.59
14.64
16.20
17.30
17.91
17.98
17.55
16.82
16.07
15.54
15.37
15.48
15.64
15.60
15.21
14.54
13.87
13.55
13.84
14.77
16.04
17.14
17.53
16.81
14.91
12.01
8.46
4.59
0.64
-3.29
-7.21
-11.16
-15.22
-19.37
-23.54
-27.49
-30.83
-33.11
-33.96
-33.43
-31.98
-30.44
-29.57
-29.67
-30.29
-30.43
-28.93
-24.97
-18.51
-10.26
-1.41
6.81
13.59
18.76
22.81
26.71
31.64
38.53
47.71
58.49
69.17
77.29
80.43
77.02
66.91
51.50
33.28
15.03
-0.91
-13.09
-20.96
-24.72
-25.00
-22.68
-18.82
-14.56
-10.96
-8.77
-8.26
-9.16
-10.90
-12.85
-14.57
-15.92
-16.99
-17.96
-18.99
-20.18
-21.54
-23.07
-24.74
-26.48
-28.14
-29.52
-30.46
-30.93
-31.10
-31.15
-31.13
-30.86
-29.94
-28.04
-25.15
-21.65
-18.19
-15.29
-13.02
-10.91
-8.15
-4.00
1.86
9.10
16.88
24.12
29.86
33.51
35.02
34.80
33.58
32.06
30.73
29.73
28.84
27.73
26.06
23.63
20.47
16.80
13.07
9.99
8.43
9.17
12.58
18.33
25.33
32.03
36.81
38.58
37.05
32.69
26.47
19.48
12.56
6.21
0.56
-4.44
-8.90
-12.88
-16.34
-19.17
-21.20
-22.26
-22.19
-20.95
-18.66
-15.62
-12.26
-8.99
-6.13
-3.76
-1.81
-0.06
1.64
3.41
5.23
7.00
8.54
9.65
10.09
9.64
8.26
6.12
3.68
1.53
0.15
-0.28
0.04
0.68
1.15
1.21
0.84
0.22
-0.47
-1.16
-1.92
-2.89
-4.21
-5.96
-8.18
-10.76
-13.47
-15.90
-17.53
-17.86
-16.61
-13.84
-9.94
-5.51
-1.17
2.59
5.51
7.53
8.72
9.25
9.33
9.16
8.93
8.75
8.70
8.77
8.90
8.99
8.94
8.65
8.08
7.27
6.28
5.24
4.29
3.57
3.16
2.96
2.80
2.44
1.70
0.54
-0.95
-2.62
-4.37
-6.27
-8.48
-11.12
-14.06
-16.84
-18.78
-19.24
-17.85
-14.74
-10.45
-5.77
-1.46
1.98
4.36
5.72
6.23
6.06
5.34
4.21
2.84
1.51
0.51
0.13
0.53
1.62
3.12
4.57
5.46
5.40
4.21
1.99
-0.91
-4.05
-7.00
-9.51
-11.51
-13.18
-14.87
-17.05
-20.13
-24.27
-29.22
-34.28
-38.43
-40.63
-40.19
-36.98
-31.46
-24.43
-16.71
-8.93
-1.46
5.47
11.61
16.63
20.21
22.26
22.95
22.73
22.14
21.50
20.83
19.84
18.14
15.54
12.15
8.37
4.79
1.99
0.40
0.16
1.10
2.85
4.89
6.54
6.94
5.25
1.06
-5.34
-12.80
-19.59
-23.88
-24.33
-20.77
-14.27
-6.71
0.02
4.57
6.45
5.85
3.50
0.40
-2.53
-4.53
-4.84
-2.63
2.81
11.72
22.55
32.03
36.92
35.59
28.54
17.93
6.65
-2.78
-8.94
-11.94
-13.24
-14.12
-15.17
-16.34
-17.14
-17.01
-15.79
-13.66
-11.36
-9.78
-9.37
-9.67
-9.82
-8.88
-6.19
-1.76
4.19
11.16
18.56
25.78
32.05
36.20
36.77
32.66
22.40
7.47
-7.96
-19.40
-24.70
-24.54
-21.09
-16.81
-12.30
-7.70
-3.04
1.07
3.56
3.57
0.89
-3.58
-8.32
-11.75
-13.04
-12.05
-9.45
-6.54
-4.64
-4.52
-6.10
-8.54
-10.50
-10.80
-8.61
-3.85
2.71
9.79
16.21
21.21
24.53
26.31
26.71
25.95
24.16
21.46
18.09
14.54
11.43
9.31
8.43
8.66
9.59
10.68
11.44
11.48
10.60
8.79
6.22
3.22
0.15
-2.58
-4.67
-5.95
-6.42
-6.23
-5.57
-4.74
-4.03
-3.70
-3.91
-4.61
-5.48
-6.00
-5.62
-3.94
-0.97
2.85
6.77
9.95
11.74
11.92
10.68
8.55
6.19
4.16
2.79
2.09
1.86
1.79
1.67
1.39
0.98
0.55
0.21
0.07
0.22
0.70
1.47
2.44
3.43
4.27
4.85
5.23
5.57
6.13
7.05
8.30
9.59
10.40
9.97
7.63
3.09
-3.30
-10.57
-17.37
-22.47
-25.17
-25.54
-24.46
-22.98
-21.84
-21.21
-20.85
-20.50
-20.20
-20.28
-21.19
-23.39
-26.94
-31.33
-35.69
-39.15
-41.10
-41.40
-40.12
-37.51
-34.13
-30.50
-26.89
-23.44
-20.18
-17.11
-14.12
-10.64
-4.48
5.13
16.71
26.96
32.54
31.95
26.46
18.23
9.64
2.65
-2.06
-4.77
-5.82
-5.70
-4.79
-3.30
-1.41
0.82
3.33
5.82
7.99
9.74
11.08
12.07
12.72
12.94
12.77
12.39
11.90
11.35
10.79
10.13
9.23
7.99
6.40
4.82
3.87
4.11
5.86
8.86
12.27
14.86
15.38
12.95
7.43
-0.56
-9.77
-18.55
-25.19
-28.33
-27.36
-22.65
-15.46
-7.44
-0.00
6.20
11.35
16.15
21.29
27.00
32.88
38.12
41.90
43.70
43.55
41.96
39.71
37.51
35.74
34.35
32.93
31.02
28.36
25.10
21.70
18.66
16.28
14.55
13.33
12.47
12.01
11.99
12.30
12.51
11.98
10.11
6.74
2.35
-1.92
-4.63
-4.43
-0.59
6.68
16.09
25.50
32.46
34.92
31.93
23.99
12.85
0.85
-9.87
-18.03
-23.36
-26.32
-27.57
-27.61
-26.71
-25.00
-22.74
-20.35
-18.31
-16.96
-16.35
-16.33
-16.66
-17.27
-18.22
-19.66
-21.64
-23.98
-26.31
-28.21
-29.40
-29.88
-29.93
-30.00
-30.54
-31.80
-33.81
-36.32
-38.86
-40.83
-41.53
-40.39
-37.09
-31.74
-24.91
-17.55
-10.64
-5.00
-1.00
1.38
2.48
2.67
2.26
1.41
0.25
-1.17
-2.75
-4.49
-6.44
-8.73
-11.48
-14.69
-18.22
-21.76
-24.94
-27.44
-29.00
-29.48
-28.80
-26.84
-23.49
-18.55
-11.96
-3.85
5.26
14.49
22.78
29.20
33.31
35.36
36.16
36.75
37.85
39.62
41.52
42.64
42.13
39.57
35.13
29.50
23.55
18.02
13.41
9.86
7.39
5.98
5.63
6.25
7.62
9.27
10.66
11.32
11.09
10.15
8.90
7.80
7.09
6.70
6.28
5.41
3.74
1.18
-2.09
-5.65
-9.02
-11.76
-13.62
-14.51
-14.45
-13.47
-11.61
-8.87
-5.33
-1.26
2.97
6.81
9.80
11.64
12.31
12.00
11.10
9.99
8.97
8.25
7.87
7.85
8.13
8.63
