1555696275.00
64.000000
-0.00
-0.00
-0.00
-0.00
-0.00
-0.00
-0.00
-0.00
-0.00
-0.00
0.00
0.01
0.01
-0.00
-0.03
-0.05
-0.05
0.00
0.13
0.36
0.66
1.01
1.37
1.72
2.06
2.40
2.79
3.24
3.80
4.42
5.06
5.66
6.20
6.68
7.15
7.68
8.31
9.14
10.09
11.04
11.88
12.56
13.14
13.76
14.65
15.96
17.91
20.32
22.90
25.38
27.58
29.57
31.68
34.32
37.81
42.54
48.15
54.10
59.83
64.97
69.58
74.14
79.34
85.71
93.76
103.00
112.62
121.73
129.77
136.75
143.30
150.75
157.77
166.64
177.95
191.79
206.97
220.57
228.25
225.36
208.53
176.87
132.76
80.05
23.07
-34.94
-92.44
-149.16
-205.23
-260.37
-313.74
-363.87
-409.83
-450.91
-486.50
-515.74
-537.23
-549.22
-549.96
-538.37
-514.21
-478.67
-433.88
-382.45
-327.02
-269.84
-212.63
-156.66
-102.95
-52.37
-5.90
35.58
71.43
101.35
125.50
144.38
158.69
169.15
176.37
180.75
182.57
182.07
179.51
175.23
169.65
163.18
156.15
148.81
141.30
133.69
126.02
118.33
110.69
103.17
95.83
88.71
81.83
75.21
68.85
62.78
57.02
51.59
46.51
41.76
37.31
33.15
29.25
25.61
22.26
19.21
16.49
14.07
11.94
10.02
8.28
6.68
5.21
3.91
2.84
2.01
1.42
0.98
0.57
0.09
-0.53
-1.26
-1.97
-2.52
-2.80
-2.80
-2.68
-2.67
-3.00
-3.75
-4.83
-5.97
-6.83
-7.18
-7.03
-6.65
-6.45
-6.85
-7.99
-9.71
-11.53
-12.92
-13.54
-13.39
-12.83
-12.42
-12.63
-13.72
-15.70
-18.37
-21.37
-24.04
-25.44
-24.51
-20.41
-13.13
-3.70
6.05
14.19
19.62
22.54
24.23
26.16
29.13
32.72
35.64
36.53
34.79
30.85
25.90
21.21
17.59
15.19
13.63
12.40
11.17
9.90
8.80
8.15
8.14
8.71
9.55
10.21
10.31
9.80
8.99
8.47
8.85
10.46
13.11
16.21
18.95
20.57
20.61
19.02
15.88
11.54
6.52
1.35
-3.47
-7.57
-10.76
-13.08
-14.75
-16.11
-17.54
-19.21
-21.06
-22.71
-23.61
-23.25
-21.36
-18.04
-13.76
-9.18
-4.95
-1.61
0.52
1.37
1.08
-0.03
-1.51
-2.91
-3.89
-4.36
-4.48
-4.60
-4.99
-5.80
-6.95
-8.19
-9.27
-10.01
-10.31
-10.20
-9.76
-9.12
-8.50
-8.14
-8.34
-9.27
-10.91
-13.03
-15.20
-17.03
-18.24
-18.83
-19.02
-19.16
-19.55
-20.32
-21.38
-22.52
-23.44
-23.83
-23.40
-21.92
-19.23
-15.49
-11.02
-6.26
-1.60
2.64
6.40
9.76
12.87
15.81
18.47
20.64
22.08
22.67
22.46
21.76
20.91
20.28
20.06
20.23
20.65
21.08
21.32
21.24
20.87
20.29
19.55
18.61
17.29
15.32
12.50
8.77
4.39
-0.12
-4.05
-6.77
-7.89
-7.39
-5.69
-3.45
-1.34
0.15
0.97
1.50
2.47
4.70
8.75
14.75
22.26
30.43
38.23
44.83
49.79
53.18
55.47
57.29
59.13
61.12
62.99
64.17
64.05
62.31
59.02
54.62
49.75
44.99
40.63
36.78
33.34
30.25
27.49
25.16
23.29
21.82
20.46
18.77
16.27
12.69
8.08
2.85
-2.41
-7.19
-11.33
-15.10
-19.17
-24.23
-30.78
-38.90
-48.22
-57.93
-66.73
-72.95
-74.80
-70.95
-61.08
-46.32
-29.03
-12.14
1.87
11.67
17.34
19.94
20.75
20.68
20.01
18.62
16.30
13.04
9.06
4.66
0.03
-4.72
-9.52
-14.10
-18.00
-20.61
-21.50
-20.73
-18.92
-17.05
-16.05
-16.46
-18.15
-20.51
-22.82
-24.62
-25.97
-27.32
-29.24
-32.10
-35.87
-40.10
-44.08
-47.09
-48.63
-48.66
-47.59
-46.22
-45.51
-46.33
-49.27
-54.41
-61.15
-68.16
-73.41
-74.59
-69.94
-58.90
-42.62
-23.73
-5.46
9.37
19.36
24.63
26.48
26.54
26.10
25.82
25.84
26.07
26.50
27.22
28.26
29.48
30.53
30.95
30.38
28.73
26.24
23.43
20.86
18.93
17.72
16.96
16.20
14.95
12.89
9.92
6.16
1.89
-2.52
-6.71
-10.33
-13.15
-15.13
-16.40
-17.24
-17.97
-18.85
-19.93
-21.12
-22.30
-23.51
-24.98
-27.12
-30.31
-34.66
-39.79
-44.78
-48.35
-49.20
-46.42
-39.90
-30.35
-19.20
-8.11
1.52
8.87
13.86
16.96
18.85
20.19
21.35
22.53
23.75
25.01
26.35
27.79
29.36
31.04
32.74
34.31
35.54
36.17
35.98
34.76
32.50
29.32
25.53
21.56
17.86
14.86
12.87
12.04
12.27
13.19
14.23
14.76
14.25
12.49
9.71
6.41
3.22
0.64
-1.08
-2.04
-2.62
-3.40
-5.03
-8.19
-13.42
-20.92
-30.25
-40.21
-48.97
-54.48
-55.16
-50.48
-41.21
-29.12
-16.37
-4.84
4.38
11.01
15.36
17.96
19.26
19.64
19.39
18.82
18.23
17.86
17.79
17.97
18.22
18.35
18.21
17.77
17.06
16.16
15.19
14.22
13.30
12.36
11.30
9.93
8.11
5.81
3.13
0.32
-2.36
-4.77
-6.88
-8.86
-10.90
-13.19
-15.74
-18.44
-21.09
-23.56
-25.84
-28.04
-30.28
-32.46
-34.18
-34.74
-33.41
-29.74
-23.86
-16.46
-8.60
-1.35
4.57
8.91
11.85
13.76
15.03
15.88
16.42
16.73
16.90
17.09
17.44
18.07
19.01
20.13
21.20
21.92
22.08
21.64
20.75
19.68
18.66
17.75
16.73
15.25
13.00
9.82
5.84
1.44
-2.95
-7.02
-10.64
-13.90
-17.03
-20.27
-23.91
-28.17
-33.19
-38.92
-44.89
-50.15
-53.36
-53.25
-49.04
-40.90
-29.92
-17.79
-6.19
3.62
11.13
16.36
19.64
21.31
21.65
20.97
19.63
18.12
16.84
16.01
15.52
15.05
14.24
12.90
11.14
9.32
7.89
7.14
7.01
7.15
7.02
6.16
4.36
1.67
-1.63
-5.23
-8.80
-12.12
-15.04
-17.50
-19.61
-21.58
-23.63
-25.81
-27.84
-29.12
-28.91
-26.70
-22.42
-16.58
-10.04
-3.74
1.65
5.84
8.88
10.94
12.19
12.69
12.53
11.86
10.96
10.22
9.96
10.36
11.39
12.79
14.17
15.13
15.36
14.70
13.16
10.83
7.89
4.53
0.95
-2.59
-5.78
-8.25
-9.73
-10.10
-9.60
-8.78
-8.40
-9.15
-11.37
-14.84
-18.78
-22.11
-23.72
-22.95
-19.68
-14.37
-7.90
-1.26
4.66
9.25
12.25
13.74
14.09
13.80
13.35
13.07
13.04
13.13
13.13
12.87
12.30
11.51
10.64
9.82
9.15
8.66
8.28
7.89
7.28
6.24
4.64
2.52
0.17
-2.00
-3.65
-4.66
-5.23
-5.85
-7.08
-9.29
-12.47
-16.16
-19.58
-21.85
-22.36
-20.99
-18.12
-14.48
-10.83
-7.56
-4.55
-1.37
2.42
6.80
11.18
14.55
16.07
15.52
13.55
11.40
10.44
11.61
15.20
20.83
27.60
33.97
37.69
36.10
27.10
10.55
-10.83
-31.78
-46.37
-50.59
-44.23
-30.86
-16.03
-4.51
1.69
3.50
3.40
3.47
4.17
4.52
3.23
-0.20
-5.05
-9.86
-13.28
-14.60
-13.85
-11.49
-7.90
-3.29
2.26
8.44
14.63
20.00
23.84
26.06
27.14
27.97
29.20
30.87
32.46
33.52
34.44
36.49
41.15
48.82
57.99
65.58
68.14
63.71
52.59
36.89
19.13
0.98
-16.81
-33.37
-46.73
-53.88
-52.15
-41.22
-24.09
-6.23
6.82
11.88
9.30
2.18
-5.72
-11.77
-15.41
-17.56
-19.25
-20.60
-20.43
-16.88
-8.48
4.95
22.00
39.99
55.83
67.17
72.94
73.52
70.24
64.63
57.85
50.57
43.14
35.98
29.73
25.07
22.37
21.42
21.38
21.06
19.38
15.66
9.72
1.75
-7.92
-19.02
-31.32
-44.48
-57.79
-70.16
-80.33
-87.19
-90.12
-89.14
-84.80
-77.93
-69.55
-60.66
-52.22
-44.95
-39.15
-34.51
-30.31
-25.69
-20.10
-13.55
-6.56
0.15
5.93
10.45
13.63
15.51
16.18
15.84
14.82
13.60
12.64
12.19
12.29
12.77
13.42
14.16
14.97
15.85
16.72
17.41
17.73
17.58
16.97
15.98
14.65
12.96
10.82
8.15
5.02
1.59
-1.86
-5.11
-8.09
-10.98
-14.05
-17.55
-21.42
-25.25
-28.28
-29.69
-28.89
-25.82
-21.00
-15.36
-9.94
-5.49
-2.28
-0.10
1.54
3.16
5.04
7.16
9.31
11.17
12.48
13.07
12.94
12.23
11.25
10.42
10.23
10.96
12.46
14.22
15.43
15.43
14.01
11.53
8.73
6.34
4.78
3.98
3.59
3.14
2.27
0.75
-1.53
-4.62
-8.38
-12.44
-16.13
-18.62
-19.26
-17.80
-14.51
-10.06
-5.33
-1.05
2.36
4.83
6.59
7.97
9.27
10.63
12.04
13.32
14.31
14.90
15.12
15.14
15.09
15.07
15.01
14.76
14.17
13.16
11.76
10.07
8.20
6.23
4.21
2.18
0.22
-1.57
-3.09
-4.27
-5.17
-5.89
-6.63
-7.64
-9.16
-11.42
-14.49
-18.27
-22.37
-26.14
-28.80
-29.66
-28.32
-24.83
-19.72
-13.81
-7.97
-2.91
0.95
3.58
5.22
6.25
7.10
8.02
9.14
10.39
11.64
12.74
13.64
14.33
14.81
15.04
14.94
14.46
13.62
12.60
11.59
10.70
9.92
9.02
7.77
6.00
3.77
1.36
-0.80
-2.37
-3.22
-3.54
-3.74
-4.29
-5.50
-7.36
-9.50
-11.43
-12.78
-13.52
-14.01
-14.93
-16.92
-20.34
-24.99
-30.11
-34.51
-36.92
-36.30
-32.14
-24.52
-14.26
-2.81
7.98
16.31
21.04
22.14
20.73
18.65
17.66
18.79
21.98
26.39
30.96
34.90
37.90
39.97
41.08
41.07
39.72
37.04
33.47
29.74
26.63
24.63
23.85
23.87
24.06
23.74
22.45
20.10
16.98
13.61
10.55
8.10
6.20
4.48
2.44
-0.27
-3.68
-7.48
-11.16
-14.25
-16.54
-18.13
-19.41
-20.88
-22.96
-25.86
-29.63
-34.07
-38.81
-43.26
-46.66
-48.17
-47.12
-43.27
-36.98
-29.16
-20.98
-13.51
-7.42
-2.92
0.20
2.30
3.72
4.80
5.74
6.74
7.86
9.07
10.20
11.11
11.70
12.02
12.20
12.34
12.49
12.59
12.49
12.04
11.11
9.67
7.75
5.50
3.15
0.95
-0.90
-2.35
-3.55
-4.79
-6.42
-8.63
-11.38
-14.40
-17.34
-19.88
-21.94
-23.70
-25.49
-27.61
-30.18
-32.98
-35.50
-37.12
-37.32
-35.86
-32.87
-28.73
-23.92
-18.80
-13.55
-8.17
-2.66
2.92
8.30
13.10
16.91
19.45
20.69
20.89
20.47
19.84
19.31
18.96
18.75
18.67
18.75
19.08
19.73
20.66
21.60
22.18
21.95
20.52
17.71
13.59
8.51
3.06
-2.07
-6.24
-9.05
-10.42
-10.56
-9.94
-9.13
-8.72
-9.15
-10.60
-12.88
-15.47
-17.64
-18.68
-18.17
-16.11
-12.94
-9.33
-6.01
-3.51
-2.06
-1.55
-1.59
-1.68
-1.31
-0.17
1.79
4.41
7.35
10.25
12.83
14.84
16.07
16.31
15.42
13.49
10.86
8.10
5.90
4.80
5.08
6.63
9.05
11.69
13.87
14.99
14.66
12.81
9.67
5.72
1.51
-2.51
-6.11
-9.29
-12.25
-15.18
-18.22
-21.32
-24.27
-26.66
-28.00
-27.80
-25.76
-21.87
-16.52
-10.39
-4.27
1.17
5.59
8.96
11.49
13.42
14.90
15.89
16.25
15.87
14.72
12.94
10.85
8.85
7.39
6.90
7.70
9.90
13.34
17.51
21.64
24.86
26.37
25.71
22.78
17.90
11.75
5.23
-0.70
-5.24
-7.94
-8.85
-8.46
-7.61
-7.10
-7.43
-8.65
-10.44
-12.33
-14.03
-15.53
-17.13
-19.26
-22.22
-26.05
-30.45
-34.84
-38.46
-40.49
-40.27
-37.42
-32.00
-24.54
-16.03
-7.66
-0.54
4.59
7.59
8.90
9.39
10.04
11.61
14.43
18.32
22.77
27.08
30.65
33.04
34.03
33.50
31.44
27.92
23.15
17.53
11.67
6.23
1.81
-1.18
-2.64
-2.76
-1.87
-0.38
1.31
2.84
3.91
4.27
3.78
2.49
0.62
-1.45
-3.28
-4.50
-4.95
-4.76
-4.34
-4.26
-5.09
-7.17
-10.46
-14.47
-18.31
-20.94
-21.43
-19.27
-14.55
-7.96
-0.64
6.17
11.37
14.25
14.63
12.79
9.43
5.46
1.82
-0.58
-1.04
0.83
5.03
11.07
17.96
24.37
28.91
30.50
28.74
24.02
17.39
10.26
3.92
-0.73
-3.36
-4.07
-3.27
-1.47
0.74
2.75
3.94
3.84
2.24
-0.68
-4.32
-7.94
-10.82
-12.59
-13.26
-13.29
-13.31
-13.97
-15.69
-18.48
-21.92
-25.21
-27.39
-27.59
-25.35
-20.74
-14.38
-7.24
-0.35
5.48
9.77
12.42
13.60
13.70
13.12
12.28
11.51
11.02
10.96
11.35
12.13
13.15
14.26
15.22
15.94
16.41
16.78
17.29
18.14
19.33
20.58
21.39
21.19
19.54
16.37
11.95
6.89
1.86
-2.52
-5.87
-8.10
-9.41
-10.15
-10.73
-11.51
-12.75
-14.57
-16.89
-19.49
-21.94
-23.70
-24.24
-23.25
-20.72
-17.00
-12.67
-8.29
-4.22
-0.51
2.95
6.31
9.56
12.52
14.91
16.46
17.07
16.78
15.81
14.44
12.98
11.69
10.76
10.26
10.17
10.41
10.87
11.47
12.08
12.55
12.68
12.26
11.12
9.17
6.43
3.00
-0.97
-5.28
-9.71
-14.05
-18.15
-21.97
-25.62
-29.23
-32.84
-36.19
-38.71
-39.66
-38.38
-34.59
-28.55
-21.04
-13.11
-5.77
0.23
4.52
7.09
8.18
8.17
7.50
6.64
5.98
5.77
6.11
6.92
7.99
9.05
9.86
10.22
10.04
9.34
8.27
7.04
5.88
4.90
4.05
3.14
1.94
0.28
-1.82
-4.19
-6.59
-8.84
-10.95
-13.09
-15.55
-18.58
-22.23
-26.17
-29.76
-32.16
-32.58
-30.62
-26.37
-20.44
-13.71
-7.09
-1.23
3.55
7.20
9.81
11.54
12.54
13.00
13.13
13.06
12.87
12.52
11.97
11.22
10.34
9.46
8.68
8.00
7.33
6.59
5.69
4.66
3.56
2.40
1.14
-0.30
-1.97
-3.89
-6.00
-8.34
-10.92
-13.85
-17.13
-20.59
-23.80
-26.09
-26.75
-25.20
-21.34
-15.61
-8.97
-2.65
2.31
5.36
6.66
6.94
7.21
8.30
10.60
13.88
17.40
20.19
21.37
20.43
17.38
12.82
7.73
3.28
0.58
0.32
2.70
7.21
12.81
18.12
21.74
22.60
20.24
14.78
6.87
-2.59
-12.62
-22.28
-30.73
-37.12
-40.73
-41.01
-37.74
-31.24
-22.32
-12.33
-2.82
4.67
9.01
9.70
7.01
1.90
-4.21
-9.79
-13.50
-14.46
-12.34
-7.38
-0.31
7.82
15.77
22.34
26.55
27.83
26.13
21.93
16.20
10.20
5.18
2.09
1.42
3.01
6.18
9.89
13.04
14.70
14.41
12.19
8.56
4.24
-0.01
-3.68
-6.57
-8.73
-10.41
-11.80
-12.93
-13.73
-13.99
-13.49
-12.11
-9.90
-7.12
-4.18
-1.55
0.49
1.96
3.18
4.64
6.75
9.66
13.19
16.90
20.30
23.00
24.84
25.79
25.89
25.18
23.74
21.69
19.30
16.95
14.98
13.64
12.90
12.50
12.02
11.05
9.36
6.95
4.11
1.26
-1.20
-3.04
-4.24
-5.00
-5.60
-6.31
-7.33
-8.69
-10.29
-11.98
-13.61
-15.08
-16.43
-17.74
-19.20
-21.01
-23.32
-26.16
-29.33
-32.39
-34.73
-35.68
-34.71
-31.68
-26.89
-21.05
-15.05
-9.69
-5.40
-2.17
0.30
2.43
4.50
6.59
8.60
10.42
11.99
13.35
14.56
15.60
16.37
16.73
16.57
15.90
14.85
13.58
12.22
10.73
8.97
6.74
4.02
1.05
-1.67
-3.51
-3.92
-2.66
0.18
4.22
8.90
13.67
18.00
21.47
23.73
24.62
24.18
22.72
20.74
18.79
17.33
16.65
16.82
17.77
19.32
21.15
22.77
23.53
22.74
19.85
14.73
7.85
0.30
-6.49
-11.20
-13.09
-12.33
-9.90
-7.14
-5.22
-4.60
-5.02
-5.63
-5.62
-4.55
-2.58
-0.33
1.51
2.49
2.64
2.35
2.12
2.29
2.86
3.50
3.78
3.39
2.31
0.80
-0.74
-2.00
-2.93
-3.71
-4.65
-5.99
-7.71
-9.55
-11.07
-11.93
-12.03
-11.52
-10.79
-10.24
-10.16
-10.61
-11.46
-12.45
-13.35
-14.02
-14.45
-14.75
-15.06
-15.52
-16.20
-17.13
-18.35
-19.90
-21.86
-24.26
-26.98
-29.67
-31.75
-32.54
-31.51
-28.51
-23.86
-18.23
-12.48
-7.28
-2.96
0.50
3.38
5.98
8.48
10.88
13.04
14.79
16.05
16.81
17.18
17.34
17.49
17.78
18.28
18.93
19.54
19.91
19.86
19.39
18.57
17.58
16.51
15.39
14.19
12.85
11.41
9.96
8.60
7.39
6.32
5.26
4.07
2.58
0.66
-1.73
-4.52
-7.48
-10.26
-12.47
-13.91
-14.58
-14.77
-14.90
-15.39
-16.56
-18.58
-21.45
-24.98
-28.77
-32.24
-34.64
-35.29
-33.81
-30.26
-25.17
-19.31
-13.46
-8.14
-3.56
0.30
3.54
6.28
8.54
10.36
11.79
12.88
13.76
14.54
15.33
16.17
17.10
18.06
18.96
19.73
20.32
20.75
21.12
21.47
21.82
22.05
21.97
21.41
20.24
18.46
16.18
13.61
10.99
8.57
6.54
5.04
4.01
3.28
2.53
1.45
-0.19
-2.38
-4.91
-7.48
-9.81
-11.78
-13.46
-15.11
-17.00
-19.37
-22.24
-25.47
-28.64
-31.15
-32.38
-31.78
-29.12
-24.55
-18.62
-12.13
-5.87
-0.47
3.72
6.68
8.64
9.92
10.88
11.77
12.75
13.85
15.03
16.20
17.19
17.86
18.07
17.82
17.27
16.74
16.57
16.98
17.96
19.27
20.55
21.44
21.75
21.46
20.65
19.48
18.06
16.53
15.03
13.67
12.51
11.50
10.47
9.18
7.39
4.98
1.98
-1.39
-4.88
-8.19
-11.13
-13.63
-15.81
-17.91
-20.22
-22.97
-26.14
-29.43
-32.28
-33.97
-33.91
-31.77
-27.64
-21.96
-15.45
-8.90
-3.01
1.70
5.02
6.99
7.91
8.20
8.25
8.35
8.61
9.02
9.51
10.02
10.51
11.00
11.42
11.72
11.80
11.59
11.12
10.45
9.67
8.87
8.06
7.23
6.31
5.28
4.09
2.73
1.17
-0.61
-2.65
-4.89
-7.24
-9.51
-11.51
-13.17
-14.53
-15.89
-17.65
-20.16
-23.51
-27.35
-30.89
-33.06
-32.90
-29.86
-24.07
-16.31
-7.78
0.19
6.56
10.70
12.51
12.30
10.71
8.45
6.23
4.60
3.91
4.30
5.65
7.70
10.02
12.18
13.84
14.82
15.18
15.10
14.78
14.26
13.48
12.30
10.63
8.56
6.33
4.22
2.36
0.69
-1.05
-3.19
-5.95
-9.38
-13.31
-17.39
-21.17
-24.17
-25.98
-26.28
-25.00
-22.28
-18.50
-14.18
-9.85
-5.95
-2.75
-0.31
1.45
2.72
3.76
4.79
5.96
7.29
8.68
9.95
10.96
11.65
12.04
12.22
12.24
12.11
11.80
11.25
10.46
9.45
8.24
6.75
4.85
2.41
-0.59
-4.00
-7.51
-10.76
-13.45
-15.50
-17.04
-18.35
-19.77
-21.55
-23.79
-26.33
-28.76
-30.52
-31.03
-29.82
-26.74
-22.05
-16.37
-10.55
-5.33
-1.22
1.72
3.73
5.26
6.69
8.25
9.96
11.72
13.39
14.88
16.13
17.09
17.66
17.77
17.36
16.56
15.58
14.72
14.15
13.86
13.56
12.90
11.60
9.57
7.03
4.31
1.79
-0.29
-1.85
-3.00
-3.98
-5.02
-6.33
-8.00
-9.97
-12.09
-14.22
-16.33
-18.60
-21.36
-24.93
-29.31
-34.14
-38.67
-41.98
-43.32
-42.34
-39.17
-34.36
-28.75
-23.22
-18.54
-15.22
-13.42
-12.84
-12.88
-12.74
-11.73
-9.44
-5.83
-1.17
4.17
9.86
15.65
21.35
26.69
31.41
35.28
38.23
40.39
41.95
43.07
43.75
43.84
43.13
41.55
39.22
36.45
33.60
30.97
28.72
26.84
25.21
23.62
21.85
19.72
17.08
13.93
10.38
6.74
3.36
0.57
-1.52
-3.06
-4.48
-6.29
-8.91
-12.48
-16.72
-21.01
-24.46
-26.25
-25.78
-22.95
-18.15
-12.18
-6.00
-0.46
3.91
7.00
8.99
10.19
10.94
11.46
11.90
12.37
12.99
13.83
14.90
16.13
17.37
18.50
19.43
20.14
20.64
20.96
21.05
20.84
20.28
19.34
18.05
16.56
15.04
13.66
12.55
11.71
11.07
10.44
9.69
8.67
7.35
5.80
4.15
2.57
1.21
0.11
-0.79
-1.65
-2.71
-4.13
-6.02
-8.37
-11.07
-14.01
-17.06
-20.14
-23.17
-26.09
-28.92
-31.70
-34.48
-37.14
-39.30
-40.33
-39.59
-36.66
-31.64
-25.12
-18.01
-11.27
-5.55
-1.12
2.07
4.28
5.79
6.86
7.70
8.54
9.55
10.80
12.21
13.64
14.87
15.76
16.29
16.57
16.73
16.88
17.00
17.04
16.88
16.43
15.68
14.67
13.45
12.13
10.77
9.46
8.23
7.10
6.07
5.04
3.97
2.79
1.52
0.22
-1.04
-2.25
-3.49
-4.84
-6.39
-8.12
-9.92
-11.62
-13.08
-14.28
-15.29
-16.34
-17.66
-19.45
-21.78
-24.46
-27.08
-28.95
-29.32
-27.59
-23.49
-17.34
-9.89
-2.20
4.68
10.03
13.55
15.38
15.95
15.81
15.44
15.13
15.09
15.38
16.04
17.08
18.48
20.12
21.75
23.06
23.71
23.53
22.52
20.93
19.14
17.51
16.19
15.07
13.80
11.96
9.23
5.63
1.51
-2.56
-5.98
-8.39
-9.77
-10.43
-10.81
-11.33
-12.19
-13.36
-14.65
-15.84
-16.76
-17.36
-17.76
-18.16
-18.83
-20.03
-21.89
-24.31
-26.94
-29.23
-30.56
-30.40
-28.53
-25.03
-20.32
-15.03
-9.81
-5.20
-1.53
1.14
2.98
4.25
5.21
5.98
6.59
7.01
7.25
7.42
7.70
8.23
8.97
9.69
10.09
9.94
9.24
8.25
7.34
6.85
6.87
7.20
7.45
7.28
6.53
5.26
3.78
2.36
1.22
0.38
-0.29
-1.01
-2.04
-3.59
-5.83
-8.80
-12.40
-16.32
-20.09
-23.15
-24.90
-24.92
-23.04
-19.44
-14.61
-9.22
-3.97
0.60
4.22
6.88
8.77
10.16
11.27
12.27
13.21
14.13
15.02
15.85
16.61
17.26
17.73
18.02
18.09
17.96
17.68
17.35
17.03
16.73
16.34
15.70
14.62
13.09
11.24
9.37
7.76
6.54
5.58
4.60
3.29
1.51
-0.64
-2.90
-4.97
-6.66
-7.98
-9.08
-10.25
-11.77
-13.88
-16.66
-19.98
-23.43
-26.41
-28.22
-28.31
-26.47
-22.91
-18.19
-13.05
-8.13
-3.88
-0.45
2.20
4.26
6.01
7.72
9.57
11.61
13.69
15.56
16.94
17.70
17.90
17.75
17.51
17.37
17.31
17.22
16.97
16.51
15.87
15.16
14.45
13.73
12.95
12.02
10.93
9.67
8.32
6.91
5.45
3.88
2.15
0.15
-2.12
-4.64
-7.31
-9.93
-12.26
-14.08
-15.25
-15.82
-16.06
-16.45
-17.49
-19.58
-22.72
-26.56
-30.34
-33.15
-34.20
-33.03
-29.66
-24.58
-18.57
-12.47
-7.01
-2.66
0.42
2.39
3.65
4.71
6.04
7.91
10.29
12.87
15.17
16.77
17.47
17.33
16.67
15.83
15.14
14.78
14.78
15.05
15.46
15.82
15.97
15.81
15.29
14.45
13.36
12.15
10.89
9.62
8.37
7.15
5.97
4.84
3.77
2.78
1.87
0.97
0.05
-1.02
-2.29
-3.80
-5.51
-7.34
-9.21
-11.03
-12.79
-14.50
-16.24
-18.11
-20.25
-22.78
-25.66
-28.61
-31.11
-32.50
-32.24
-30.08
-26.18
-21.04
-15.31
-9.59
-4.36
0.04
3.39
5.66
6.95
7.63
8.22
9.18
10.76
12.86
15.07
16.92
18.08
18.51
18.42
18.12
17.86
17.72
17.69
17.69
17.63
17.41
16.92
16.04
14.70
12.95
10.96
8.96
7.14
5.57
4.22
2.99
1.83
0.83
0.13
-0.21
-0.25
-0.26
-0.59
-1.52
-3.11
-5.21
-7.47
-9.55
-11.20
-12.37
-13.20
-13.95
-14.94
-16.41
-18.46
-20.99
-23.70
-26.12
-27.73
-28.05
-26.81
-23.98
-19.84
-14.88
-9.79
-5.22
-1.63
0.80
2.20
2.93
3.40
3.92
4.63
5.55
6.63
7.90
9.44
11.29
13.37
15.47
17.28
18.59
19.33
19.66
19.83
20.00
20.22
20.35
20.25
19.81
19.03
18.00
16.81
15.51
14.12
12.64
11.10
9.54
8.01
6.53
5.14
3.83
2.61
1.45
0.28
-0.99
-2.43
-4.06
-5.83
-7.61
-9.31
-10.94
-12.63
-14.60
-17.03
-19.93
-23.04
-25.86
-27.74
-28.11
-26.63
-23.35
-18.68
-13.27
-7.81
-2.84
1.33
4.61
7.01
8.63
9.56
9.94
9.91
9.70
9.56
9.66
10.06
10.67
11.30
11.79
11.99
11.84
11.36
10.59
9.58
8.40
7.10
5.73
4.29
2.81
1.30
-0.22
-1.73
-3.25
-4.83
-6.55
-8.47
-10.56
-12.69
-14.65
-16.25
-17.44
-18.39
-19.45
-20.98
-23.15
-25.78
-28.32
-30.03
-30.22
-28.58
-25.25
-20.82
-16.01
-11.48
-7.57
-4.32
-1.55
0.92
3.16
5.14
6.78
8.06
9.06
9.96
10.91
11.90
12.80
13.39
13.52
13.18
12.56
11.88
11.30
10.82
10.23
9.29
7.83
5.88
3.64
1.36
-0.75
-2.61
-4.25
-5.81
-7.43
-9.28
-11.44
-14.00
-16.89
-19.93
-22.75
-24.86
-25.75
-25.03
-22.60
-18.68
-13.84
-8.83
-4.38
-0.98
1.29
2.72
3.81
4.98
6.45
8.14
9.77
11.08
11.94
12.36
12.47
12.39
12.14
11.66
10.91
9.88
8.68
7.46
6.39
5.54
4.84
4.13
3.17
1.80
-0.00
-2.06
-4.10
-5.88
-7.28
-8.40
-9.50
-10.89
-12.80
-15.22
-17.95
-20.54
-22.45
-23.19
-22.44
-20.16
-16.64
-12.35
-7.87
-3.68
-0.03
3.03
5.63
7.97
10.19
12.38
14.52
16.52
18.32
19.83
21.01
21.86
22.42
22.76
22.94
22.99
22.88
22.56
22.00
21.21
20.28
19.31
18.40
17.49
16.50
15.26
13.67
11.74
9.56
7.21
4.77
2.27
-0.22
-2.62
-4.78
-6.57
-7.96
-9.06
-10.09
-11.32
-12.96
-15.17
-17.95
-21.10
-24.21
-26.65
-27.70
-26.77
-23.68
-18.75
-12.76
-6.71
-1.44
2.57
5.30
7.08
8.38
9.59
11.00
12.69
14.60
16.59
18.44
19.91
20.82
21.12
20.89
20.31
19.57
18.84
18.19
17.62
17.09
16.61
16.19
15.86
15.58
15.25
14.64
13.53
11.82
9.57
7.07
4.68
2.74
1.36
0.42
-0.38
-1.38
-2.75
-4.46
-6.33
-8.13
-9.68
-10.95
-12.04
-13.14
-14.51
-16.35
-18.84
-21.93
-25.40
-28.78
-31.48
-32.93
-32.71
-30.70
-27.06
-22.23
-16.76
-11.26
-6.26
-2.11
1.05
3.33
5.02
6.48
8.04
9.83
11.82
13.75
15.37
16.47
17.02
17.09
16.85
16.51
16.20
16.05
16.06
16.20
16.32
16.28
15.90
15.15
14.06
12.77
11.45
10.18
9.02
7.91
6.80
5.64
4.42
3.13
1.79
0.37
-1.13
-2.73
-4.41
-6.12
-7.81
-9.43
-10.92
-12.28
-13.56
-14.89
-16.43
-18.35
-20.76
-23.72
-27.05
-30.39
-33.19
-34.81
-34.68
-32.58
-28.70
-23.60
-18.02
-12.69
-8.04
-4.20
-1.09
1.47
3.66
5.56
7.26
8.81
10.24
11.58
12.81
13.90
14.84
15.64
16.28
16.76
17.04
17.11
17.00
16.79
16.53
16.22
15.76
15.04
13.97
12.56
10.94
9.29
7.74
6.38
5.21
4.23
3.39
2.68
2.04
1.42
0.74
-0.04
-0.97
-2.06
-3.32
-4.74
-6.32
-8.04
-9.87
-11.77
-13.78
-15.96
-18.36
-21.02
-23.79
-26.31
-28.02
-28.32
-26.73
-23.11
-17.77
-11.41
-4.91
0.89
5.42
8.48
10.19
10.88
10.96
10.85
10.92
11.40
12.36
13.69
15.12
16.36
17.18
17.55
17.60
17.50
17.41
17.35
17.24
16.94
16.35
15.44
14.22
12.75
11.06
9.23
7.33
5.55
4.03
2.82
1.84
0.86
-0.41
-2.14
-4.32
-6.73
-9.07
-11.03
-12.45
-13.38
-14.01
-14.65
-15.61
-17.19
-19.51
-22.45
-25.65
-28.47
-30.21
-30.27
-28.39
-24.77
-19.96
-14.71
-9.74
-5.52
-2.22
0.22
2.00
3.33
4.39
5.28
6.07
6.78
7.44
8.07
8.66
9.14
9.43
9.41
8.99
8.14
6.92
5.52
4.15
2.98
2.05
1.27
0.43
-0.67
-2.18
-4.12
-6.40
-8.87
-11.34
-13.65
-15.66
-17.30
-18.58
-19.54
-20.31
-21.00
-21.67
-22.29
-22.72
-22.68
-21.86
-20.01
-17.06
-13.15
-8.66
-4.00
0.43
4.40
7.88
10.94
13.68
16.07
18.04
19.42
20.15
20.33
20.23
20.24
20.61
21.34
22.14
22.58
22.33
21.40
20.20
19.28
19.08
19.72
20.87
21.97
22.44
21.87
20.15
17.46
14.16
10.63
7.23
4.09
1.19
-1.67
-4.71
-8.03
-11.56
-15.03
-18.09
-20.41
-21.74
-21.97
-21.06
-19.13
-16.39
-13.19
-9.87
-6.73
-3.93
-1.49
0.60
2.45
4.04
5.43
6.65
7.76
8.86
9.96
10.99
11.84
12.38
12.57
12.41
12.01
11.45
10.85
10.27
9.73
9.14
8.39
7.31
5.77
3.72
1.25
-1.46
-4.17
-6.66
-8.83
-10.66
-12.27
-13.87
-15.70
-17.99
-20.89
-24.31
-27.90
-31.06
-33.05
-33.24
-31.26
-27.21
-21.67
-15.48
-9.58
-4.65
-1.00
1.52
3.30
4.80
6.39
8.19
10.16
12.09
13.77
15.02
15.74
15.89
15.53
14.76
13.74
12.66
11.73
11.11
10.90
11.06
11.41
11.65
11.49
10.70
9.31
7.50
5.65
4.07
2.95
2.26
1.77
1.18
0.25
-1.13
-2.91
-4.92
-6.93
-8.76
-10.29
-11.58
-12.83
-14.33
-16.42
-19.30
-22.85
-26.66
-29.97
-31.98
-32.02
-29.83
-25.62
-20.06
-14.03
-8.39
-3.75
-0.30
2.12
3.92
5.54
7.24
9.10
11.00
12.78
14.31
15.53
16.43
17.05
17.37
17.41
17.24
16.96
16.75
16.76
17.07
17.67
18.49
19.34
20.01
20.27
19.93
18.92
17.31
15.33
13.27
11.40
9.82
8.48
7.21
5.76
4.00
1.92
-0.37
-2.72
-4.99
-7.15
-9.27
-11.48
-13.92
-16.68
-19.76
-23.08
-26.45
-29.53
-31.83
-32.82
-32.04
-29.32
-24.85
-19.21
-13.17
-7.50
-2.75
0.83
3.29
4.89
5.93
6.72
7.49
8.39
9.50
10.86
12.48
14.33
16.30
18.26
20.05
21.49
22.52
23.17
23.55
23.74
23.78
23.63
23.13
22.20
20.78
18.97
16.88
14.66
12.42
10.22
8.12
6.12
4.28
2.55
0.93
-0.66
-2.25
-3.85
-5.41
-6.84
-8.02
-8.92
-9.59
-10.25
-11.21
-12.81
-15.31
-18.70
-22.64
-26.47
-29.34
-30.46
-29.38
-26.08
-21.04
-15.06
-9.02
-3.68
0.52
3.42
5.15
6.01
6.38
6.66
7.15
8.01
9.19
10.48
11.61
12.37
12.71
12.81
12.91
13.16
13.59
13.95
13.89
13.08
11.33
8.66
5.34
1.81
-1.38
-3.76
-5.07
-5.35
-5.00
-4.60
-4.66
-5.41
-6.75
-8.30
-9.70
-10.73
-11.45
-12.13
-13.16
-14.89
-17.54
-21.06
-25.11
-29.06
-32.12
-33.50
-32.74
-29.86
-25.35
-20.01
-14.69
-10.03
-6.34
-3.63
-1.71
-0.29
0.85
1.91
3.00
4.21
5.56
7.05
8.54
9.84
10.72
11.00
10.66
9.82
8.73
7.60
6.53
5.47
4.28
2.81
0.99
-1.17
-3.52
-5.87
-7.99
-9.70
-10.96
-11.87
-12.69
-13.77
-15.39
-17.66
-20.47
-23.42
-25.99
-27.58
-27.69
-26.01
-22.58
-17.77
-12.23
-6.64
-1.58
2.62
5.93
8.48
10.51
12.18
13.63
14.91
16.02
16.98
17.74
18.30
18.60
18.65
18.47
18.09
17.57
16.96
16.32
15.66
14.98
14.19
13.18
11.85
10.19
8.26
6.17
4.02
1.87
-0.24
-2.30
-4.26
-6.09
-7.75
-9.36
-11.08
-13.17
-15.81
-18.99
-22.43
-25.63
-27.95
-28.83
-27.95
-25.38
-21.49
-16.90
-12.24
-7.97
-4.30
-1.20
1.55
4.14
6.72
9.31
11.83
14.16
16.13
17.62
18.56
18.97
18.94
18.67
18.33
18.04
17.85
17.72
17.61
17.57
17.62
17.77
17.91
17.82
17.24
16.04
14.24
12.04
9.72
7.51
5.50
3.70
2.06
0.54
-0.85
-2.10
-3.21
-4.28
-5.41
-6.78
-8.54
-10.83
-13.75
-17.28
-21.31
-25.47
-29.22
-31.90
-32.87
-31.79
-28.69
-24.06
-18.68
-13.36
-8.69
-4.87
-1.78
0.91
3.52
6.24
9.08
11.93
14.64
17.07
19.08
20.61
21.69
22.38
22.78
23.03
23.17
23.20
23.08
22.76
22.29
21.75
21.23
20.76
20.30
19.73
18.91
17.74
16.15
14.17
11.96
9.70
7.62
5.86
4.43
3.21
2.03
0.72
-0.80
-2.50
-4.34
-6.27
-8.28
-10.36
-12.51
-14.70
-16.91
-19.24
-21.91
-25.22
-29.33
-34.13
-39.06
-43.22
-45.62
-45.51
-42.68
-37.57
-31.11
-24.38
-18.31
-13.42
-9.81
-7.28
-5.53
-4.26
-3.25
-2.37
-1.58
-0.97
-0.72
-1.02
-1.97
-3.44
-5.07
-6.41
-6.99
-6.54
-5.05
-2.64
0.47
4.08
8.05
12.28
16.66
21.06
25.29
29.13
32.41
34.97
36.72
37.63
37.66
36.82
35.16
32.78
29.90
26.82
23.88
21.30
19.12
17.16
15.14
12.74
9.75
6.08
1.77
-3.14
-8.52
-14.15
-19.66
-24.53
-28.18
-30.12
-30.13
-28.31
-25.10
-21.12
-17.01
-13.23
-9.96
-7.16
-4.64
-2.20
0.25
2.64
4.86
6.75
8.23
9.32
10.13
10.76
11.29
11.74
12.07
12.25
12.19
11.84
11.07
9.80
7.95
5.55
2.75
-0.22
-3.07
-5.57
-7.56
-9.02
-10.01
-10.65
-11.08
-11.40
-11.72
-12.14
-12.76
-13.71
-15.02
-16.59
-18.12
-19.12
-19.05
-17.57
-14.68
-10.75
-6.42
-2.32
1.15
3.91
6.16
8.21
10.27
12.40
14.47
16.30
17.70
18.60
19.00
18.96
18.61
18.05
17.39
16.73
16.18
15.84
15.80
16.00
16.22
16.14
15.42
13.86
11.51
8.65
5.63
2.76
0.16
-2.24
-4.66
-7.33
-10.39
-13.85
-17.52
-21.01
-23.74
-25.05
-24.40
-21.63
-17.05
-11.45
-5.79
-0.87
2.92
5.71
7.90
9.90
11.92
13.90
15.65
17.03
18.05
18.85
19.49
19.93
19.97
19.44
18.32
16.83
15.36
14.23
13.58
13.24
12.88
12.12
10.73
8.68
6.16
3.42
0.70
-1.79
-3.95
-5.75
-7.28
-8.68
-10.23
-12.16
-14.66
-17.76
-21.21
-24.57
-27.23
-28.61
-28.33
-26.27
-22.67
-18.01
-12.87
-7.73
-2.92
1.47
5.49
9.17
12.52
15.45
17.81
19.53
20.57
21.02
20.98
20.58
19.88
18.92
17.72
16.32
14.86
13.41
12.01
10.57
8.96
7.04
4.81
2.46
0.31
-1.27
-2.13
-2.32
-2.15
-1.98
-2.09
-2.60
-3.44
-4.47
-5.59
-6.85
-8.37
-10.37
-13.03
-16.45
-20.55
-25.05
-29.40
-32.90
-34.82
-34.60
-32.06
-27.51
-21.65
-15.42
-9.66
-4.88
-1.24
1.45
3.51
5.27
6.91
8.53
10.13
11.67
13.14
14.48
15.67
16.71
17.61
18.41
19.15
19.80
20.30
20.56
20.51
20.14
19.49
18.58
17.35
15.66
13.41
10.59
7.41
4.29
1.74
0.11
-0.53
-0.46
-0.26
-0.49
-1.51
-3.36
-5.78
-8.44
-11.11
-13.76
-16.56
-19.72
-23.33
-27.30
-31.36
-35.08
-37.99
-39.54
-39.23
-36.66
-31.74
-24.81
-16.75
-8.74
-1.94
2.92
5.81
7.36
8.51
10.13
12.65
15.99
19.67
23.11
25.88
27.72
28.59
28.59
27.92
26.84
25.65
24.60
23.76
23.04
22.16
20.87
19.02
16.67
14.04
11.38
8.87
6.63
4.75
3.29
2.26
1.61
1.12
0.45
-0.70
-2.49
-4.76
-7.09
-8.90
-9.80
-9.79
-9.29
-9.09
-10.02
-12.69
-17.24
-23.28
-29.97
-36.18
-40.71
-42.47
-40.74
-35.40
-26.96
-16.59
-5.84
3.80
11.24
16.05
18.43
18.97
18.35
17.13
15.65
14.08
12.56
11.25
10.34
9.95
10.10
10.66
11.42
12.22
12.99
13.77
14.61
15.46
16.12
16.24
15.47
13.61
10.73
7.17
3.47
0.12
-2.54
-4.47
-5.86
-7.02
-8.20
-9.54
-11.03
-12.61
-14.21
-15.83
-17.53
-19.44
-21.71
-24.52
-27.97
-32.05
-36.50
-40.77
-44.08
-45.62
-44.76
-41.34
-35.71
-28.67
-21.21
-14.28
-8.45
-3.94
-0.56
2.01
4.11
5.99
7.76
9.45
11.10
12.81
14.69
16.86
19.37
22.15
24.99
27.58
29.61
30.83
31.13
30.60
29.48
28.09
26.69
25.42
24.18
22.78
20.95
18.49
15.38
11.76
7.95
4.30
1.15
-1.29
-3.04
-4.33
-5.55
-7.13
-9.40
-12.46
-16.09
-19.78
-22.88
-24.72
-24.84
-23.06
-19.53
-14.71
-9.22
-3.67
1.39
5.57
8.60
10.21
10.22
8.55
5.37
1.25
-2.98
-6.38
-8.37
-8.96
-8.81
-9.00
-10.55
-13.89
-18.70
-23.93
-28.29
-30.89
-31.64
-31.39
-31.53
-33.33
-37.35
-43.12
-49.25
-53.87
-55.02
-51.05
-41.01
-25.09
-5.10
15.36
31.55
39.00
35.33
21.60
2.24
-16.44
-28.76
-31.85
-26.38
-15.75
-4.07
5.72
12.74
17.72
21.80
25.38
27.75
27.59
24.05
17.50
9.71
3.20
0.19
1.77
7.65
16.56
26.87
37.18
46.49
54.05
59.16
61.20
59.80
55.17
48.15
40.03
32.08
25.16
19.50
14.81
10.52
6.08
1.12
-4.52
-10.79
-17.42
-23.88
-29.45
-33.29
-34.75
-33.48
-29.70
-24.11
-17.73
-11.57
-6.43
-2.69
-0.38
0.81
1.34
1.71
2.27
3.12
4.12
4.89
5.10
4.58
3.52
2.32
1.48
1.27
1.69
2.40
2.96
3.04
2.44
1.17
-0.65
-2.86
-5.22
-7.46
-9.29
-10.56
-11.31
-11.85
-12.63
-14.07
-16.36
-19.31
-22.41
-24.98
-26.37
-26.17
-24.26
-20.83
-16.25
-11.05
-5.79
-0.99
2.94
5.78
7.62
8.76
9.65
10.67
11.95
13.35
14.58
15.34
15.52
15.21
14.66
14.13
13.79
13.65
13.58
13.41
12.96
12.11
10.79
9.00
6.79
4.32
1.74
-0.76
-3.02
-4.96
-6.65
-8.33
-10.31
-12.87
-16.05
-19.58
-22.84
-25.09
-25.70
-24.36
-21.11
-16.38
-10.83
-5.17
-0.11
3.82
6.29
7.22
6.87
5.76
4.59
4.01
4.44
5.99
8.40
11.17
13.69
15.46
16.17
15.77
14.51
12.82
11.24
10.19
9.79
9.79
9.66
8.74
6.67
3.51
-0.21
-3.81
-6.76
-8.93
-10.63
-12.34
-14.42
-16.91
-19.53
-21.88
-23.55
-24.26
-23.81
-22.05
-18.95
-14.76
-9.98
-5.32
-1.42
1.45
3.52
5.32
7.47
10.34
13.98
18.26
23.00
28.10
33.53
39.08
44.23
48.15
49.92
48.95
45.37
40.17
34.96
31.46
30.87
33.48
38.55
44.76
50.69
55.43
58.80
61.36
64.01
67.59
72.57
78.91
86.16
93.60
100.49
106.14
110.04
111.87
111.49
108.92
104.40
98.30
90.87
81.78
69.89
53.59
31.66
4.43
-25.61
-54.20
-76.83
-90.50
-94.96
-92.65
-87.43
-82.78
-80.45
-80.21
-80.66
-80.27
-78.46
-75.67
-73.09
-71.91
-72.80
-75.61
-79.53
-83.53
-86.89
-89.55
-92.07
-95.14
-99.01
-103.13
-106.17
-106.55
-103.25
-96.29
-86.96
-77.56
-70.93
-69.54
-74.61
-85.17
-97.85
-107.27
-107.33
-93.07
-62.45
-17.57
35.38
87.45
129.39
154.28
159.34
146.42
120.79
89.17
57.51
29.74
7.56
-8.86
-19.91
-26.03
-27.73
-26.03
-22.53
-19.04
-16.92
-16.44
-16.78
-16.47
-14.24
-9.73
-3.64
2.61
7.59
10.47
11.36
11.12
10.87
11.47
13.12
15.42
17.53
18.57
17.95
15.56
11.83
7.55
3.67
0.91
-0.45
-0.65
-0.29
-0.07
-0.51
-1.81
-3.82
-6.25
-8.78
-11.24
-13.59
-15.97
-18.50
-21.24
-24.02
-26.39
-27.77
-27.55
-25.36
-21.19
-15.49
-8.98
-2.44
3.49
8.43
12.23
14.93
16.66
17.61
17.99
18.07
18.09
18.28
18.70
19.35
20.12
20.85
21.45
21.86
22.07
22.11
21.97
21.62
20.97
19.97
18.58
16.84
14.86
12.78
10.66
8.55
6.38
4.12
1.77
-0.55
-2.70
-4.52
-5.97
-7.16
-8.34
-9.84
-11.99
-14.96
-18.76
-23.13
-27.58
-31.41
-33.85
-34.26
-32.26
-27.94
-21.83
-14.83
-7.91
-1.91
2.73
5.98
8.08
9.39
10.21
10.70
10.92
10.94
10.91
11.03
11.46
12.27
13.29
14.25
14.85
14.88
14.36
13.47
12.48
11.64
11.00
10.43
9.63
8.30
6.22
3.45
0.25
-2.96
-5.80
-8.04
-9.68
-10.90
-11.99
-13.26
-14.98
-17.31
-20.27
-23.71
-27.18
-30.06
-31.60
-31.23
-28.71
-24.21
-18.31
-11.72
-5.20
0.69
5.55
9.16
11.47
12.60
12.83
12.55
12.12
11.81
11.73
11.85
12.10
12.42
12.77
13.10
13.35
13.42
13.18
12.55
11.45
9.84
7.67
4.94
1.72
-1.81
-5.39
-8.73
-11.66
-14.15
-16.36
-18.58
-21.09
-24.11
-27.63
-31.38
-34.81
-37.16
-37.66
-35.79
-31.45
-25.10
-17.62
-10.05
-3.26
2.24
6.37
9.37
11.60
13.35
14.73
15.75
16.36
16.59
16.56
16.43
16.32
16.27
16.15
15.82
15.18
14.28
13.30
12.50
12.12
12.19
12.58
13.00
13.21
13.10
12.70
12.08
11.17
9.77
7.51
4.05
-0.75
-6.78
-13.72
-21.06
-28.16
-34.28
-38.60
-40.33
-38.95
-34.41
-27.24
-18.51
-9.57
-1.65
4.41
8.38
10.55
11.59
12.26
13.17
14.68
16.76
19.17
21.52
23.48
24.86
25.61
25.76
25.39
24.56
23.31
21.72
19.89
17.91
15.91
13.92
11.94
9.91
7.79
5.61
3.46
1.46
-0.34
-2.02
-3.75
-5.74
-8.14
-10.97
-14.15
-17.51
-20.96
-24.44
-27.96
-31.36
-34.30
-36.19
-36.40
-34.43
-30.18
-24.06
-16.90
-9.69
-3.35
1.52
4.83
6.85
8.09
9.05
10.05
11.18
12.31
13.29
14.01
14.51
14.85
15.04
15.00
14.56
13.60
12.13
10.33
8.48
6.84
5.53
4.48
3.54
2.57
1.51
0.40
-0.74
-1.94
-3.29
-4.94
-6.96
-9.40
-12.22
-15.35
-18.75
-22.31
-25.86
-29.10
-31.62
-33.02
-33.04
-31.58
-28.73
-24.63
-19.38
-13.01
-5.52
2.96
12.19
21.68
30.85
39.01
45.52
49.80
51.53
50.71
47.69
43.17
38.02
33.08
28.95
25.90
23.94
22.89
22.47
22.40
22.31
21.82
20.54
18.21
14.80
10.56
5.88
1.25
-2.96
-6.65
-9.93
-13.15
-16.71
-20.86
-25.56
-30.42
-34.69
-37.46
-37.91
-35.63
-30.74
-23.93
-16.27
-8.91
-2.77
1.66
4.39
5.85
6.64
7.29
8.16
9.31
10.66
12.01
13.24
14.33
15.32
16.25
17.13
17.89
18.41
18.64
18.57
18.25
17.80
17.32
16.87
16.44
15.90
15.06
13.71
11.74
9.22
6.44
3.84
1.83
0.70
0.47
0.87
1.47
1.79
1.47
0.37
-1.34
-3.10
-4.13
-3.54
-0.60
5.07
13.36
23.73
35.40
47.61
59.88
72.04
84.11
96.00
107.24
116.73
123.00
124.57
120.52
110.91
96.85
80.21
63.06
47.14
33.49
22.39
13.56
6.43
0.40
-4.99
-10.04
-14.94
-19.81
-24.74
-29.82
-35.10
-40.54
-45.99
-51.17
-55.69
-59.16
-61.31
-62.13
-61.88
-61.05
-60.17
-59.53
-59.17
-58.89
-58.47
-57.90
-57.45
-57.63
-58.89
-61.57
-65.78
-71.44
-78.18
-85.11
-90.64
-92.69
-89.25
-79.31
-63.52
-44.15
-24.36
-7.09
5.98
14.66
19.89
22.91
24.74
25.88
26.61
27.24
28.16
29.71
31.85
34.16
35.99
36.74
36.22
34.68
32.72
30.96
29.82
29.33
29.21
28.99
28.24
26.73
24.47
21.69
18.74
15.97
13.61
11.71
10.10
8.46
6.49
4.02
1.15
-1.83
-4.58
-6.90
-8.89
-10.94
-13.54
-17.08
-21.57
-26.67
-31.86
-36.64
-40.76
-44.33
-47.66
-51.17
-55.28
-60.38
-66.75
-74.30
-82.27
-88.98
-92.17
-89.71
-80.57
-65.41
-46.54
-27.06
-9.76
3.72
13.16
19.24
22.89
24.81
25.44
25.11
24.41
24.11
24.89
27.03
30.24
33.78
36.79
38.68
39.31
39.08
38.64
38.54
38.93
39.49
39.60
38.69
36.49
33.22
29.43
25.76
22.63
20.11
18.00
15.96
13.74
11.33
8.93
6.88
5.45
4.70
4.39
4.02
2.97
0.66
-3.18
-8.52
-15.02
-22.20
-29.56
-36.73
-43.45
-49.70
-55.70
-61.87
-68.67
-76.01
-82.91
-87.43
-87.26
-80.66
-67.36
-48.93
-28.30
-8.64
7.67
19.63
27.50
32.19
34.60
35.31
34.70
33.17
31.34
29.90
29.38
29.93
31.24
32.77
33.86
34.09
33.42
32.14
30.77
29.77
29.31
29.10
28.57
27.07
24.21
20.10
15.25
10.47
6.45
3.54
1.59
0.13
-1.45
-3.60
-6.43
-9.76
-13.25
-16.59
-19.61
-22.33
-24.91
-27.63
-30.83
-34.95
-40.33
-46.99
-54.30
-60.92
-65.06
-65.08
-60.15
-50.67
-38.13
-24.59
-11.95
-1.44
6.55
12.22
16.02
18.40
19.80
20.66
21.39
22.40
23.87
25.72
27.64
29.24
30.18
30.38
29.98
29.31
28.68
28.27
28.02
27.65
26.78
25.13
22.64
19.51
16.11
12.83
9.91
7.39
5.08
2.70
-0.01
-3.14
-6.57
-10.08
-13.37
-16.30
-18.89
-21.33
-23.95
-27.18
-31.41
-36.86
-43.39
-50.29
-56.35
-60.07
-60.16
-55.94
-47.72
-36.63
-24.26
-12.22
-1.66
6.86
13.26
17.78
20.79
22.70
23.91
24.80
25.66
26.57
27.46
28.04
28.03
27.28
25.86
24.13
22.58
21.59
21.29
21.43
21.56
21.18
20.06
18.24
16.09
14.04
12.41
11.26
10.36
9.34
7.77
5.40
2.17
-1.71
-5.86
-9.81
-13.19
-15.78
-17.64
-19.10
-20.72
-23.13
-26.82
-31.88
-37.76
-43.32
-47.13
-47.94
-45.10
-38.83
-30.10
-20.29
-10.70
-2.27
4.59
9.86
13.77
16.62
18.73
20.37
21.77
23.13
24.53
25.96
27.34
28.57
29.59
30.36
30.89
31.17
31.22
31.00
30.44
29.48
28.09
26.30
24.15
21.73
19.13
16.43
13.71
11.11
8.68
6.38
4.05
1.48
-1.51
-4.95
-8.64
-12.30
-15.70
-18.78
-21.72
-24.88
-28.61
-33.22
-38.75
-44.95
-51.22
-56.60
-60.02
-60.49
-57.50
-51.13
-42.12
-31.58
-20.73
-10.65
-2.10
4.52
9.16
12.08
13.80
14.97
16.23
17.96
20.22
22.77
25.23
27.25
28.57
29.14
29.02
28.40
27.59
26.93
26.75
27.17
28.05
28.98
29.42
28.91
27.25
24.56
21.25
17.83
14.77
12.34
10.64
9.58
8.94
8.47
7.88
6.94
5.44
3.29
0.51
-2.69
-5.96
-8.83
-10.87
-11.98
-12.44
-13.02
-14.63
-18.00
-23.27
-29.77
-36.16
-40.82
-42.39
-40.19
-34.40
-25.94
-16.13
-6.23
2.78
10.34
16.26
20.53
23.30
24.85
25.56
25.96
26.53
27.60
29.16
30.87
32.24
32.82
32.41
31.10
29.24
27.25
25.47
24.05
22.95
21.94
20.72
19.00
16.61
13.57
10.11
6.54
3.19
0.26
-2.18
-4.23
-6.05
-7.82
-9.68
-11.70
-13.92
-16.31
-18.81
-21.34
-23.89
-26.53
-29.52
-33.16
-37.60
-42.62
-47.49
-51.05
-52.11
-49.81
-44.09
-35.60
-25.59
-15.37
-6.02
1.87
8.15
12.91
16.35
18.72
20.36
21.69
23.14
25.03
27.39
29.97
32.36
34.17
35.22
35.67
35.91
36.41
37.53
39.40
41.90
44.66
47.24
49.16
50.15
50.31
50.25
51.11
54.11
60.02
68.69
78.95
89.00
97.06
102.00
103.62
102.40
99.19
94.80
89.82
84.59
79.08
72.77
64.62
53.35
37.99
18.55
-3.61
-26.05
-45.93
-61.01
-70.27
-74.09
-73.79
-71.07
-67.41
-63.89
-61.19
-59.74
-59.76
-61.22
-63.73
-66.44
-68.24
-68.03
-65.17
-59.78
-52.82
-45.80
-40.25
-37.28
-37.16
-39.29
-42.51
-45.49
-47.23
-47.33
-46.05
-44.15
-42.64
-42.46
-44.16
-47.65
-51.88
-54.89
-54.23
-47.80
-34.82
-16.46
4.27
23.45
37.61
44.97
45.85
42.35
37.21
32.70
29.93
28.76
28.28
27.40
25.40
22.09
17.72
12.77
7.73
2.94
-1.42
-5.25
-8.49
-11.09
-13.01
-14.29
-15.03
-15.49
-15.99
-16.94
-18.72
-21.56
-25.43
-29.92
-34.29
-37.62
-39.20
-38.83
-36.95
-34.59
-33.02
-33.30
-36.01
-41.13
-47.96
-55.17
-60.84
-62.72
-58.77
-48.02
-31.17
-10.75
9.56
26.21
37.09
42.18
43.36
43.22
43.86
45.92
48.56
50.11
48.96
44.36
36.64
26.97
16.81
7.44
-0.34
-6.19
-10.14
-12.37
-13.28
-13.50
-13.84
-15.12
-17.81
-21.72
-26.03
-29.55
-31.31
-30.97
-29.06
-26.69
-25.09
-25.03
-26.59
-29.19
-31.94
-34.09
-35.32
-35.84
-36.24
-37.29
-39.72
-44.02
-50.15
-57.13
-62.88
-64.45
-58.99
-44.98
-23.33
2.64
28.14
48.74
61.94
67.80
68.37
66.40
64.01
62.11
60.65
59.22
57.64
56.04
54.58
53.19
51.44
48.85
45.14
40.55
35.69
31.38
28.10
25.81
23.88
21.40
17.62
12.30
5.84
-0.96
-7.29
-12.75
-17.45
-21.86
-26.40
-31.18
-35.80
-39.64
-42.13
-43.16
-43.16
-43.00
-43.70
-46.20
-51.08
-58.30
-66.88
-74.74
-78.94
-76.51
-65.67
-46.81
-22.73
2.20
23.63
38.72
46.93
49.63
49.03
47.08
44.82
42.56
40.37
38.54
37.56
37.84
39.30
41.31
42.87
43.02
41.27
37.83
33.47
29.25
25.97
23.91
22.66
21.42
19.34
16.00
11.57
6.68
2.18
-1.33
-3.71
-5.35
-6.97
-9.31
-12.76
-17.28
-22.38
-27.33
-31.49
-34.57
-36.74
-38.63
-41.13
-45.16
-51.36
-59.58
-68.48
-75.55
-77.65
-72.12
-58.04
-36.93
-12.46
10.84
29.22
40.92
46.36
47.41
46.20
44.25
42.29
40.57
39.31
38.90
39.66
41.46
43.61
45.01
44.68
42.15
37.78
32.62
28.00
25.00
23.97
24.39
25.09
24.73
22.38
17.87
11.88
5.60
0.16
-3.78
-6.31
-8.16
-10.26
-13.35
-17.55
-22.40
-27.05
-30.77
-33.27
-34.82
-36.21
-38.39
-42.27
-48.46
-56.98
-66.97
-76.42
-82.35
-81.61
-72.18
-54.22
-30.41
-5.16
16.96
32.85
41.74
44.85
44.42
42.47
40.23
38.17
36.40
35.12
34.60
34.98
35.97
36.94
37.06
35.78
33.07
29.46
25.93
23.41
22.47
23.01
24.31
25.33
25.12
23.26
19.97
15.96
12.06
8.84
6.33
4.10
1.48
-2.10
-6.78
-12.24
-17.79
-22.72
-26.58
-29.38
-31.56
-33.85
-37.08
-41.96
-48.86
-57.33
-65.91
-72.09
-73.00
-66.48
-52.14
-31.81
-9.09
11.95
28.21
38.43
43.21
44.20
43.15
41.25
39.05
36.78
34.69
33.15
32.48
32.71
33.54
34.46
34.96
34.72
33.70
32.02
29.90
27.44
24.64
21.45
17.84
13.86
9.65
5.34
0.94
-3.64
-8.56
-13.88
-19.49
-25.03
-30.05
-34.17
-37.26
-39.49
-41.30
-43.27
-46.07
-50.33
-56.40
-64.00
-71.80
-77.45
-78.08
-71.45
-57.05
-36.63
-13.76
7.50
24.03
34.62
39.87
41.46
41.05
39.75
38.03
36.16
34.51
33.53
33.52
34.30
35.24
35.57
34.77
32.86
30.47
28.48
27.55
27.80
28.62
28.93
27.68
24.27
18.91
12.52
6.32
1.39
-1.80
-3.48
-4.41
-5.57
-7.85
-11.83
-17.53
-24.24
-30.42
-33.97
-32.86
-25.96
-13.83
1.25
15.93
27.01
32.47
32.07
27.09
19.58
11.53
4.43
-0.83
-3.92
-4.95
-4.44
-3.29
-2.57
-3.10
-5.15
-8.34
-11.73
-14.30
-15.33
-14.77
-13.21
-11.70
-11.28
-12.62
-15.73
-20.03
-24.67
-28.82
-32.12
-34.67
-36.98
-39.78
-43.83
-49.66
-57.26
-65.66
-72.71
-75.55
-71.53
-59.48
-40.46
-17.73
4.43
22.29
33.94
39.61
41.01
40.30
39.07
38.06
37.40
36.97
36.70
36.60
36.54
36.30
35.59
34.22
32.22
29.79
27.19
24.62
22.09
19.47
16.52
13.04
8.89
4.09
-1.26
-6.95
-12.73
-18.38
-23.81
-29.16
-34.75
-40.85
-47.23
-52.94
-56.38
-55.83
-50.28
-39.98
-26.54
-12.38
0.21
9.79
16.13
19.83
21.86
23.03
23.86
24.62
25.46
26.46
27.57
28.59
29.14
28.93
27.82
25.94
23.70
21.58
19.96
18.93
18.26
17.47
15.97
13.36
9.53
4.78
-0.33
-5.22
-9.52
-13.19
-16.61
-20.36
-25.09
-31.11
-38.21
-45.44
-51.30
-54.14
-52.75
-46.83
-37.14
-25.25
-12.99
-1.89
7.14
13.88
18.56
21.67
23.77
25.36
26.86
28.50
30.28
31.99
33.28
33.95
33.93
33.39
32.57
31.70
30.89
30.10
29.19
28.03
26.48
24.46
21.93
18.94
15.51
11.74
7.68
3.40
-0.98
-5.28
-9.30
-12.84
-15.85
-18.44
-20.88
-23.52
-26.74
-30.92
-36.39
-43.25
-51.16
-59.12
-65.55
-68.62
-66.91
-60.00
-48.75
-35.06
-21.20
-9.07
0.35
7.06
11.74
15.29
18.45
21.64
24.95
28.28
31.42
34.20
36.48
38.15
39.16
39.48
39.11
38.08
36.54
34.75
33.03
31.62
30.60
29.80
28.86
27.42
25.21
22.28
18.87
15.39
12.26
9.68
7.64
5.86
3.91
1.45
-1.73
-5.51
-9.62
-13.69
-17.45
-20.81
-23.85
-26.74
-29.71
-33.04
-37.09
-42.23
-48.54
-55.60
-62.27
-66.92
-67.96
-64.38
-56.26
-44.63
-31.24
-17.82
-5.76
4.22
11.91
17.48
21.28
23.76
25.45
26.81
28.19
29.73
31.35
32.86
34.03
34.74
34.96
34.77
34.28
33.59
32.76
31.82
30.75
29.52
28.07
26.35
24.31
21.92
19.26
16.47
13.82
11.57
9.87
8.64
7.58
6.19
4.01
0.80
-3.37
-8.12
-12.91
-17.24
-20.82
-23.66
-26.01
-28.33
-31.13
-34.84
-39.66
-45.38
-51.30
-56.23
-58.83
-57.95
-53.06
-44.48
-33.32
-21.13
-9.46
0.52
8.22
13.58
16.95
18.84
19.85
20.51
21.27
22.37
23.87
25.61
27.34
28.80
29.83
30.39
30.57
30.51
30.35
30.16
29.92
29.51
28.79
27.59
25.81
23.43
20.58
17.51
14.52
11.87
9.67
7.81
6.01
3.89
1.20
-2.12
-5.85
-9.61
-13.01
-15.81
-18.07
-20.13
-22.51
-25.73
-30.18
-35.93
-42.59
-49.32
-54.94
-58.13
-57.85
-53.61
-45.72
-35.27
-23.73
-12.63
-3.06
4.43
9.87
13.62
16.15
17.87
19.07
19.97
20.78
21.70
22.88
24.36
26.00
27.56
28.81
29.61
30.04
30.24
30.41
30.57
30.60
30.22
29.14
27.25
24.62
21.52
18.29
15.22
12.38
9.76
7.18
4.51
1.64
-1.40
-4.46
-7.41
-10.16
-12.75
-15.32
-18.10
-21.35
-25.30
-30.08
-35.53
-41.18
-46.15
-49.34
-49.68
-46.48
-39.75
-30.25
-19.31
-8.45
1.06
8.48
13.75
17.26
19.63
21.38
22.81
23.94
24.70
25.05
25.06
24.98
25.05
25.41
26.02
26.67
27.12
27.15
26.70
25.81
24.56
22.96
20.96
18.49
15.51
12.09
8.36
4.54
0.85
-2.60
-5.75
-8.62
-11.25
-13.68
-16.00
-18.35
-21.01
-24.31
-28.49
-33.54
-38.98
-43.85
-46.94
-47.19
-44.02
-37.61
-28.81
-18.85
-9.00
-0.21
6.92
12.19
15.67
17.64
18.45
18.58
18.44
18.32
18.36
18.57
18.85
19.11
19.24
19.17
18.78
18.03
16.93
15.62
14.30
13.09
11.91
10.44
8.30
5.23
1.26
-3.25
-7.75
-11.74
-15.04
-17.80
-20.44
-23.39
-26.99
-31.27
-36.02
-40.76
-44.82
-47.35
-47.58
-44.99
-39.50
-31.62
-22.34
-12.81
-4.12
3.03
8.41
12.20
14.85
16.86
18.62
20.32
21.92
23.26
24.17
24.54
24.38
23.81
22.92
21.82
20.61
19.41
18.38
17.63
17.07
16.39
15.10
12.77
9.26
4.82
0.01
-4.48
-8.20
-11.02
-13.22
-15.35
-18.02
-21.72
-26.61
-32.41
-38.30
-43.14
-45.70
-45.06
-40.91
-33.74
-24.62
-14.92
-5.88
1.74
7.71
12.26
15.83
18.86
21.62
24.22
26.61
28.71
30.41
31.61
32.25
32.24
31.52
30.13
28.21
25.99
23.72
21.61
19.75
18.11
16.55
14.83
12.72
10.03
6.74
2.96
-1.01
-4.82
-8.18
-11.04
-13.62
-16.31
-19.62
-23.92
-29.40
-35.89
-42.87
-49.49
-54.66
-57.36
-56.92
-53.23
-46.85
-38.84
-30.45
-22.72
-16.27
-11.23
-7.37
-4.25
-1.47
1.22
3.94
6.61
9.04
10.96
12.12
12.42
11.95
11.03
10.13
9.83
10.64
12.96
17.01
22.72
29.73
37.34
44.76
51.27
56.56
60.74
64.19
67.24
69.86
71.51
71.36
68.72
63.40
55.82
46.92
37.66
28.77
20.40
12.18
3.36
-6.84
-18.86
-32.45
-46.49
-59.17
-68.49
-72.80
-71.41
-64.70
-53.93
-40.81
-27.02
-13.87
-2.13
7.87
16.17
23.02
28.77
33.72
38.07
41.78
44.70
46.61
47.32
46.73
44.81
41.67
37.53
32.74
27.70
22.74
18.06
13.71
9.64
5.75
2.05
-1.45
-4.79
-8.06
-11.41
-14.92
-18.47
-21.75
-24.37
-26.02
-26.74
-26.83
-26.74
-26.90
-27.48
-28.45
-29.57
-30.62
-31.50
-32.27
-33.13
-34.35
-36.25
-39.12
-43.12
-48.15
-53.65
-58.61
-61.73
-61.79
-58.03
-50.51
-40.14
-28.41
-16.89
-6.87
1.07
6.94
11.22
14.55
17.44
20.24
23.06
25.88
28.64
31.27
33.66
35.69
37.18
37.97
38.03
37.57
36.95
36.56
36.65
37.13
37.61
37.53
36.49
34.46
31.85
29.34
27.61
26.99
27.27
27.86
28.04
27.33
25.73
23.79
22.27
21.78
22.45
23.80
24.97
25.07
23.58
20.60
16.88
13.74
12.88
16.12
24.96
39.90
59.74
81.43
100.51
112.36
113.72
103.67
83.89
57.80
29.39
2.07
-21.65
-40.06
-51.85
-56.01
-52.24
-41.57
-26.68
-11.63
-0.83
2.45
-2.74
-14.67
-29.50
-42.89
-51.71
-55.18
-54.96
-54.18
-56.03
-62.68
-74.73
-91.25
-110.02
-127.72
-140.47
-144.63
-138.20
-121.94
-99.65
-76.97
-59.32
-49.65
-47.56
-50.04
-53.34
-54.93
-54.33
-52.64
-51.27
-50.84
-50.82
-50.04
-47.51
-42.96
-36.85
-30.03
-23.23
-16.71
-10.21
-3.15
5.10
14.97
26.55
39.64
53.88
68.92
84.51
100.38
116.10
130.95
143.99
154.32
161.46
165.66
167.91
169.54
171.58
174.09
175.77
174.14
166.35
150.26
125.43
93.56
58.17
23.50
-6.69
-30.08
-46.10
-55.61
-60.25
-61.91
-62.32
-62.90
-64.67
-68.07
-72.86
-78.22
-83.05
-86.41
-87.98
-88.14
-87.88
-88.47
-91.04
-96.02
-102.58
-108.34
-109.84
-103.64
-87.83
-63.23
-33.35
-3.21
22.57
41.45
53.53
60.86
66.10
71.29
77.44
84.71
92.85
101.47
109.89
116.99
121.32
121.58
117.15
108.35
96.25
82.33
68.04
54.47
42.33
31.89
23.03
15.22
7.61
-0.66
-10.26
-21.42
-33.96
-47.55
-61.89
-76.84
-92.26
-107.80
-122.67
-135.75
-146.00
-152.75
-155.98
-156.37
-155.04
-153.28
-152.35
-153.04
-155.23
-157.46
-156.91
-150.16
-134.59
-109.81
-78.43
-45.34
-16.05
5.47
17.99
23.03
23.57
22.39
21.05
19.73
18.01
15.69
13.19
11.34
10.90
12.14
14.78
18.29
22.21
26.41
31.12
36.61
42.85
49.22
54.50
57.25
56.36
51.54
43.64
34.40
25.90
19.84
16.90
16.56
17.32
17.28
14.80
9.07
0.37
-10.06
-20.39
-28.71
-33.63
-34.51
-31.57
-25.68
-17.98
-9.58
-1.31
6.29
12.93
18.47
22.89
26.23
28.61
30.20
31.20
31.82
32.20
32.48
32.73
32.97
33.25
33.65
34.32
35.38
36.89
38.70
40.51
41.88
42.40
41.77
39.95
37.10
33.52
29.60
25.66
22.03
18.90
16.33
14.23
12.47
11.06
10.35
11.15
14.59
21.73
33.07
48.23
65.85
83.85
99.97
112.18
119.13
120.26
115.89
107.09
95.49
82.94
71.09
61.07
53.32
47.73
43.97
41.86
41.45
42.94
46.31
50.83
55.06
57.03
54.95
47.95
36.61
22.86
9.28
-1.91
-9.76
-14.83
-18.77
-23.42
-30.03
-38.80
-49.17
-60.24
-71.28
-81.90
-92.00
-101.61
-110.76
-119.56
-128.18
-136.68
-144.73
-151.34
-154.80
-153.04
-144.44
-128.58
-106.86
-82.24
-58.61
-39.53
-27.16
-21.71
-21.58
-24.09
-26.39
-26.25
-22.44
-14.79
-4.06
8.37
20.76
31.29
38.51
41.47
39.99
34.56
26.24
16.42
6.56
-1.97
-8.21
-11.74
-12.79
-12.19
-11.01
-10.27
-10.52
-11.74
-13.46
-14.98
-15.74
-15.59
-14.83
-14.13
-14.28
-15.98
-19.59
-24.94
-31.24
-37.06
-40.53
-39.73
-33.29
-20.91
-3.69
16.05
35.34
51.37
62.26
67.41
67.47
63.82
57.96
51.10
43.88
36.56
29.23
22.14
15.69
10.41
6.60
4.09
2.27
0.20
-3.03
-7.90
-14.30
-21.53
-28.50
-34.12
-37.62
-38.76
-37.96
-36.05
-34.06
-32.75
-32.37
-32.62
-32.80
-32.29
-30.84
-28.83
-27.06
-26.55
-28.18
-32.44
-39.28
-47.82
-56.15
-61.48
-60.77
-51.79
-34.34
-10.73
14.73
37.14
52.75
60.18
60.43
56.00
49.53
42.76
36.38
30.47
25.13
20.85
18.39
18.30
20.52
24.23
28.09
30.68
31.03
28.88
24.74
19.53
14.23
9.41
5.15
1.03
-3.50
-8.79
-14.75
-20.81
-26.13
-29.95
-31.97
-32.43
-32.09
-31.90
-32.71
-35.04
-39.06
-44.60
-51.12
-57.55
-62.10
-62.47
-56.43
-42.84
-22.50
1.67
25.39
44.41
56.03
59.77
57.25
51.06
43.67
36.57
30.37
25.12
20.87
17.90
16.53
16.81
18.28
20.05
21.05
20.47
18.04
14.10
9.41
4.82
0.96
-1.99
-4.34
-6.67
-9.59
-13.44
-18.09
-23.01
-27.41
-30.67
-32.57
-33.42
-33.96
-35.06
-37.40
-41.31
-46.79
-53.44
-60.35
-65.94
-68.06
-64.47
-53.70
-35.97
-13.47
10.06
30.58
45.08
52.48
53.64
50.56
45.43
39.82
34.53
29.81
25.74
22.39
19.86
18.10
16.85
15.70
14.20
12.04
9.05
5.27
0.81
-4.10
-9.16
-14.05
-18.46
-22.17
-25.10
-27.30
-28.88
-30.01
-30.89
-31.87
-33.53
-36.52
-41.18
-46.98
-52.28
-54.61
-51.63
-42.22
-27.28
-9.47
7.67
21.18
29.65
33.44
34.10
33.32
32.28
31.35
30.43
29.30
27.97
26.64
25.49
24.65
24.03
23.49
22.83
21.89
20.58
18.80
16.48
13.52
9.90
5.64
0.89
-4.13
-9.15
-14.00
-18.65
-23.21
-27.97
-33.30
-39.48
-46.45
-53.55
-59.45
-62.49
-61.23
-55.05
-44.58
-31.51
-18.01
-5.97
3.54
10.41
15.11
18.32
20.56
22.15
23.29
24.23
25.18
26.22
27.25
27.93
27.93
27.07
25.47
23.55
21.85
20.81
20.53
20.71
20.71
19.85
17.68
14.14
9.63
4.79
0.26
-3.58
-6.74
-9.68
-13.10
-17.68
-23.77
-31.10
-38.65
-44.93
-48.33
-47.71
-42.78
-34.24
-23.44
-11.95
-1.08
8.36
16.05
22.00
26.38
29.42
31.40
32.64
33.46
34.13
34.79
35.42
35.90
36.01
35.54
34.34
32.39
29.87
27.12
24.54
22.37
20.54
18.68
16.23
12.76
8.14
2.70
-2.97
-8.23
-12.67
-16.20
-19.07
-21.77
-24.83
-28.71
-33.63
-39.44
-45.51
-50.77
-53.96
-53.91
-50.02
-42.43
-32.07
-20.41
-9.04
0.74
8.22
13.34
16.53
18.48
19.80
20.91
21.96
22.95
23.86
24.74
25.71
26.76
27.76
28.36
28.22
27.18
25.36
23.14
21.01
19.32
18.08
17.03
15.73
13.77
10.89
7.16
2.86
-1.58
-5.70
-9.26
-12.23
-14.84
-17.52
-20.77
-24.98
-30.29
-36.44
-42.74
-48.15
-51.46
-51.66
-48.18
-41.13
-31.30
-19.91
-8.39
2.10
10.82
17.57
22.57
26.27
29.13
31.47
33.44
35.06
36.32
37.20
37.73
37.96
37.93
37.71
37.30
36.79
36.22
35.68
35.19
34.70
34.06
33.02
31.35
28.90
25.72
22.03
18.19
14.53
11.23
8.25
5.35
2.28
-1.15
-4.90
-8.78
-12.52
-15.93
-19.00
-21.94
-25.17
-29.14
-34.20
-40.36
-47.11
-53.43
-57.96
-59.40
-56.91
-50.44
-40.77
-29.28
-17.52
-6.83
1.98
8.68
13.51
16.95
19.55
21.77
23.88
25.99
28.00
29.75
31.11
32.06
32.66
33.06
33.37
33.68
34.01
34.34
34.64
34.83
34.73
34.08
32.59
30.11
26.75
22.89
19.05
15.67
12.94
10.67
8.45
5.89
2.80
-0.72
-4.28
-7.48
-10.08
-12.22
-14.33
-17.05
-20.97
-26.39
-33.15
-40.58
-47.62
-52.98
-55.45
-54.20
-49.00
-40.37
-29.46
-17.78
-6.80
2.39
9.35
14.22
17.57
20.06
22.21
24.26
26.20
27.88
29.17
30.02
30.43
30.44
30.09
29.44
28.55
27.55
26.56
25.66
24.83
23.91
22.70
21.03
18.85
16.24
13.39
10.46
7.58
4.80
2.11
-0.54
-3.18
-5.82
-8.48
-11.16
-13.91
-16.81
-20.06
-23.90
-28.57
-34.10
-40.17
-46.02
-50.49
-52.40
-50.90
-45.84
-37.86
-28.19
-18.27
-9.32
-1.99
3.63
7.87
11.22
14.05
16.54
18.70
20.45
21.74
22.61
23.14
23.39
23.35
22.95
22.14
20.95
19.56
18.20
17.04
16.09
15.12
13.77
11.69
8.72
4.98
0.86
-3.22
-6.91
-10.18
-13.27
-16.59
-20.57
-25.41
-30.98
-36.74
-41.84
-45.25
-46.04
-43.63
-38.04
-29.91
-20.43
-10.93
-2.54
4.07
8.86
12.20
14.70
16.89
19.09
21.39
23.70
25.86
27.69
29.03
29.79
29.89
29.32
28.12
26.41
24.39
22.34
20.56
19.21
18.21
17.21
15.65
13.07
9.32
4.69
-0.19
-4.62
-8.19
-10.90
-13.17
-15.58
-18.71
-22.87
-28.12
-34.17
-40.41
-45.94
-49.61
-50.41
-47.70
-41.58
-32.92
-23.06
-13.44
-5.10
1.49
6.47
10.29
13.46
16.34
19.11
21.77
24.23
26.38
28.11
29.33
29.98
30.07
29.66
28.85
27.74
26.40
24.89
23.22
21.46
19.68
18.00
16.46
15.04
13.63
12.07
10.19
7.88
5.10
1.90
-1.61
-5.24
-8.78
-12.04
-14.95
-17.59
-20.29
-23.50
-27.65
-32.81
-38.59
-44.01
-47.79
-48.71
-46.07
-39.98
-31.38
-21.72
-12.46
-4.64
1.36
5.81
9.37
12.67
16.15
19.84
23.47
26.62
28.92
30.18
30.45
29.99
29.12
28.17
27.37
26.86
26.64
26.63
26.73
26.78
26.59
25.98
24.77
22.87
20.32
17.39
14.45
11.92
10.03
8.72
7.63
6.21
3.98
0.75
-3.30
-7.69
-11.84
-15.33
-18.02
-20.17
-22.25
-24.84
-28.43
-33.24
-39.16
-45.67
-51.85
-56.52
-58.46
-56.76
-51.14
-42.11
-30.90
-19.15
-8.38
0.41
6.92
11.49
14.76
17.38
19.76
22.06
24.24
26.19
27.87
29.25
30.34
31.14
31.58
31.59
31.08
30.01
28.41
26.42
24.22
22.06
20.13
18.53
17.24
16.11
14.89
13.35
11.34
8.91
6.24
3.61
1.30
-0.50
-1.78
-2.70
-3.53
-4.62
-6.22
-8.45
-11.25
-14.37
-17.52
-20.47
-23.11
-25.55
-28.02
-30.81
-34.21
-38.38
-43.23
-48.34
-52.91
-55.81
-55.91
-52.41
-45.24
-35.11
-23.35
-11.57
-1.14
7.06
12.79
16.32
18.29
19.41
20.37
21.64
23.46
25.80
28.47
31.23
33.88
36.23
38.16
39.53
40.23
40.24
39.66
38.73
37.73
36.84
36.13
35.50
34.80
33.89
32.70
31.21
29.39
27.21
24.63
21.64
18.32
14.79
11.22
7.70
4.22
0.72
-2.85
-6.42
-9.79
-12.72
-15.05
-16.85
-18.45
-20.39
-23.20
-27.20
-32.36
-38.21
-43.94
-48.58
-51.15
-50.87
-47.36
-40.76
-31.75
-21.40
-11.01
-1.72
5.71
11.03
14.48
16.56
17.82
18.71
19.48
20.26
21.12
22.06
23.04
23.93
24.56
24.78
24.53
23.89
22.98
21.94
20.85
19.67
18.37
16.85
15.09
13.04
10.68
7.99
4.99
1.73
-1.69
-5.14
-8.46
-11.50
-14.11
-16.27
-18.12
-20.00
-22.38
-25.72
-30.25
-35.75
-41.57
-46.69
-50.03
-50.75
-48.45
-43.27
-35.79
-26.93
-17.68
-9.03
-1.68
3.97
7.88
10.34
11.79
12.70
13.39
14.04
14.59
14.91
14.84
14.31
13.36
12.12
10.77
9.50
8.40
7.45
6.57
5.58
4.37
2.82
0.85
-1.57
-4.37
-7.40
-10.39
-13.10
-15.46
-17.65
-20.09
-23.24
-27.33
-32.12
-36.86
-40.50
-41.96
-40.58
-36.29
-29.61
-21.46
-12.95
-5.02
1.66
6.76
10.20
12.11
12.71
12.25
11.10
9.68
8.43
7.73
7.74
8.41
9.43
10.37
10.81
10.52
9.50
8.01
6.42
5.13
4.44
4.47
5.14
6.10
6.88
6.92
5.80
3.38
-0.01
-3.69
-6.83
-8.80
-9.39
-8.90
-7.96
-7.29
-7.48
-8.96
-11.95
-16.38
-21.74
-26.98
-30.57
-30.93
-27.03
-18.94
-8.03
3.47
13.20
19.55
22.11
21.67
19.70
17.68
16.57
16.65
17.63
19.02
20.40
21.60
22.67
23.71
24.76
25.72
26.39
26.56
26.13
25.11
23.72
22.26
21.07
20.34
20.00
19.71
18.94
17.25
14.52
11.02
7.35
4.21
2.05
0.88
0.31
-0.27
-1.44
-3.50
-6.43
-9.91
-13.58
-17.09
-20.30
-23.27
-26.23
-29.51
-33.42
-38.21
-43.91
-50.27
-56.63
-61.87
-64.68
-63.86
-58.78
-49.73
-37.90
-25.05
-13.03
-3.20
3.86
8.39
11.12
13.02
14.92
17.37
20.55
24.29
28.17
31.61
34.11
35.36
35.35
34.33
32.72
30.95
29.35
28.08
27.17
26.54
26.05
25.54
24.85
23.77
22.14
19.81
16.77
13.18
9.37
5.80
2.91
0.94
-0.21
-0.96
-1.91
-3.57
-6.17
-9.53
-13.21
-16.69
-19.64
-22.03
-24.11
-26.32
-29.09
-32.74
-37.45
-43.06
-49.10
-54.59
-58.30
-58.88
-55.45
-47.88
-37.00
-24.36
-11.75
-0.67
8.05
14.31
18.52
21.26
23.08
24.35
25.30
26.14
27.01
27.99
29.06
30.11
30.98
31.60
31.96
32.09
32.04
31.78
31.30
30.53
29.46
28.06
26.34
24.28
21.85
19.05
15.91
12.53
9.10
5.83
2.89
0.39
-1.69
-3.48
-5.24
-7.25
-9.71
-12.68
-16.04
-19.58
-23.08
-26.37
-29.39
-32.19
-34.95
-37.97
-41.65
-46.34
-52.17
-58.80
-65.36
-70.43
-72.53
-70.48
-63.95
-53.51
-40.56
-26.86
-14.07
-3.38
4.68
10.22
13.84
16.31
18.42
20.64
23.16
25.82
28.33
30.42
31.94
32.91
33.37
33.37
32.91
32.04
30.92
29.91
29.40
29.72
30.90
32.62
34.29
35.20
34.81
32.90
29.69
25.69
21.52
17.73
14.55
11.94
9.59
7.08
4.04
0.32
-3.96
-8.42
-12.55
-15.97
-18.55
-20.56
-22.55
-25.17
-28.95
-34.11
-40.48
-47.38
-53.71
-58.04
-58.98
-55.56
-47.63
-36.02
-22.37
-8.61
3.60
13.30
20.30
24.97
27.93
29.75
30.87
31.63
32.22
32.72
33.08
33.15
32.87
32.27
31.58
31.01
30.69
30.56
30.40
30.01
29.28
28.25
27.02
25.64
24.02
22.03
19.59
16.72
13.61
10.49
7.61
5.08
2.92
1.03
-0.75
-2.57
-4.53
-6.69
-9.00
-11.42
-13.94
-16.56
-19.31
-22.22
-25.24
-28.37
-31.68
-35.36
-39.62
-44.48
-49.53
-53.85
-56.12
-55.08
-49.99
-41.06
-29.43
-16.89
-5.26
4.09
10.55
14.28
15.95
16.42
16.43
16.52
16.93
17.77
18.99
20.48
22.08
23.59
24.80
25.56
25.80
25.61
25.16
24.66
24.24
23.88
23.42
22.72
21.65
20.22
18.50
16.56
14.40
12.02
9.41
6.75
4.27
2.22
0.72
-0.38
-1.44
-2.88
-5.01
-7.84
-11.13
-14.47
-17.52
-20.13
-22.39
-24.57
-27.01
-30.03
-33.89
-38.67
-44.16
-49.66
-54.05
-55.98
-54.28
-48.45
-38.96
-27.17
-14.91
-3.90
4.76
10.73
14.36
16.30
17.23
17.66
17.94
18.33
19.03
20.19
21.81
23.71
25.52
26.85
27.43
27.23
26.48
25.52
24.67
24.07
23.64
23.19
22.47
21.34
19.76
17.78
15.48
12.99
10.46
8.02
5.77
3.77
1.99
0.30
-1.47
-3.50
-5.90
-8.66
-11.63
-14.57
-17.22
-19.45
-21.29
-23.01
-25.07
-27.93
-31.96
-37.15
-43.05
-48.72
-52.91
-54.39
-52.31
-46.49
-37.56
-26.80
-15.71
-5.64
2.58
8.68
12.85
15.54
17.21
18.24
18.96
19.60
20.39
21.42
22.72
24.20
25.69
27.00
27.95
28.43
28.40
27.89
26.97
25.74
24.30
22.74
21.09
19.36
17.55
15.62
13.58
11.45
9.32
7.30
5.48
3.87
2.39
0.84
-1.02
-3.37
-6.27
-9.57
-12.97
-16.13
-18.79
-20.92
-22.74
-24.67
-27.23
-30.83
-35.56
-41.04
-46.45
-50.60
-52.27
-50.55
-45.20
-36.77
-26.48
-15.88
-6.39
1.07
6.21
9.29
10.91
11.76
12.44
13.39
14.80
16.68
18.89
21.13
23.10
24.54
25.34
25.53
25.33
25.02
24.85
24.97
25.33
25.71
25.79
25.28
24.00
22.00
19.51
16.87
14.40
12.33
10.67
9.31
8.04
6.65
5.01
3.13
1.05
-1.15
-3.43
-5.84
-8.45
-11.29
-14.31
-17.35
-20.25
-22.88
-25.29
-27.69
-30.47
-33.99
-38.49
-43.86
-49.55
-54.58
-57.74
-57.93
-54.54
-47.74
-38.47
-28.18
-18.37
-10.16
-4.01
0.21
3.05
5.16
7.06
9.07
11.30
13.67
16.08
18.35
20.32
21.89
23.00
23.64
23.82
23.60
23.08
22.42
21.85
21.51
21.41
21.36
21.04
20.15
18.53
16.32
13.84
11.50
9.56
7.99
6.57
4.93
2.87
0.42
-2.16
-4.51
-6.34
-7.52
-8.08
-7.98
-7.14
-5.45
-3.05
-0.53
1.14
1.00
-1.45
-5.96
-11.71
-17.74
-23.42
-28.67
-33.58
-38.01
-41.17
-41.85
-38.92
-32.10
-22.27
-11.18
-0.83
7.30
12.70
15.80
17.55
18.99
20.82
23.25
26.09
28.95
31.48
33.51
35.11
36.51
37.88
39.25
40.45
41.16
41.13
40.26
38.67
36.65
34.52
32.49
30.59
28.72
26.73
24.50
22.03
19.44
16.91
14.58
12.48
10.54
8.60
6.56
4.39
2.13
-0.13
-2.36
-4.60
-6.95
-9.51
-12.32
-15.31
-18.37
-21.30
-23.97
-26.32
-28.46
-30.65
-33.25
-36.58
-40.77
-45.51
-50.05
-53.29
-54.07
-51.58
-45.71
-37.09
-26.99
-16.90
-8.08
-1.26
3.49
6.57
8.66
10.40
12.25
14.38
16.73
19.14
21.38
23.31
24.87
26.08
26.93
27.41
27.45
27.02
26.14
24.98
23.77
22.75
22.01
21.49
20.98
20.20
18.99
17.31
15.33
13.23
11.21
9.33
7.56
5.82
4.08
2.36
0.68
-0.92
-2.54
-4.33
-6.47
-9.03
-11.98
-15.13
-18.21
-21.00
-23.37
-25.37
-27.18
-29.15
-31.67
-35.07
-39.48
-44.66
-49.90
-54.09
-56.00
-54.62
-49.58
-41.34
-31.02
-20.11
-10.01
-1.69
4.44
8.45
10.77
11.99
12.73
13.53
14.74
16.49
18.68
21.04
23.26
25.14
26.57
27.54
28.06
28.14
27.78
27.06
26.12
25.13
24.22
23.37
22.46
21.40
20.13
18.70
17.26
15.89
14.59
13.24
11.70
9.90
7.84
5.65
3.45
1.35
-0.62
-2.47
-4.26
-6.12
-8.16
-10.47
-13.10
-16.01
-19.03
-21.98
-24.73
-27.31
-29.92
-32.90
-36.58
-41.04
-46.01
-50.77
-54.28
-55.43
-53.40
-48.00
-39.70
-29.62
-19.08
-9.34
-1.26
4.80
8.94
11.54
13.13
14.21
15.21
16.39
17.84
19.52
21.34
23.16
24.90
26.50
27.90
29.05
29.88
30.34
30.47
30.31
29.96
29.47
28.83
27.96
26.75
25.19
23.35
21.37
19.44
17.66
16.00
14.32
12.46
10.30
7.84
5.21
2.62
0.24
-1.82
-3.59
-5.23
-6.98
-9.02
-11.49
-14.36
-17.52
-20.75
-23.90
-26.87
-29.72
-32.59
-35.68
-39.12
-42.91
-46.81
-50.27
-52.49
-52.62
-50.01
-44.47
-36.45
-26.85
-16.83
-7.44
0.58
6.95
11.72
15.15
17.56
19.27
20.60
21.78
22.98
24.25
25.50
26.57
27.29
27.56
27.41
26.93
26.25
25.43
24.45
23.21
21.59
19.53
17.07
14.32
11.43
8.50
5.53
2.47
-0.73
-4.07
-7.49
-10.85
-14.01
-16.86
-19.37
-21.61
-23.78
-26.19
-29.13
-32.81
-37.19
-41.81
-45.88
-48.42
-48.53
-45.74
-40.15
-32.51
-23.91
-15.52
-8.21
-2.44
1.82
4.88
7.19
9.12
10.93
12.73
14.54
16.30
17.92
19.24
20.09
20.38
20.11
19.42
18.53
17.66
16.90
16.24
15.53
14.59
13.25
11.39
8.91
5.85
2.30
-1.50
-5.22
-8.52
-11.16
-13.10
-14.58
-16.03
-18.00
-21.00
-25.22
-30.49
-36.10
-41.03
-44.10
-44.43
-41.63
-36.01
-28.43
-20.04
-11.95
-4.98
0.52
4.60
7.60
9.95
12.04
14.07
16.07
17.94
19.56
20.90
21.97
22.85
23.56
24.03
24.12
23.73
22.85
21.67
20.48
19.57
19.03
18.70
18.20
17.07
14.99
11.93
8.18
4.22
0.52
-2.63
-5.24
-7.52
-9.81
-12.41
-15.51
-19.22
-23.47
-28.04
-32.43
-35.88
-37.51
-36.59
-32.86
-26.77
-19.36
-11.92
-5.48
-0.45
3.46
6.91
10.55
14.59
18.79
22.62
25.52
27.21
27.73
27.36
26.45
25.29
24.10
23.00
22.08
21.34
20.70
20.05
19.26
18.23
16.92
15.33
13.48
11.38
9.02
6.36
3.42
0.21
-3.20
-6.68
-10.10
-13.35
-16.43
-19.44
-22.56
-26.03
-30.08
-34.78
-40.02
-45.45
-50.38
-53.94
-55.27
-53.80
-49.54
-43.13
-35.62
-28.17
-21.57
-16.10
-11.59
-7.68
-4.17
-1.14
1.13
2.50
3.11
3.55
4.58
6.93
10.97
16.60
23.31
30.24
36.55
41.56
44.98
46.91
47.78
48.06
48.05
47.74
46.86
45.16
42.59
39.43
36.22
33.42
31.20
29.32
27.21
24.34
20.46
15.80
11.04
7.12
4.92
5.10
7.83
12.62
18.28
23.08
25.24
23.51
17.69
8.80
-1.19
-10.14
-16.35
-19.11
-18.68
-15.99
-12.14
-8.06
-4.39
-1.47
0.60
1.89
2.72
3.49
4.59
6.24
8.40
10.83
13.17
15.05
16.23
16.60
16.23
15.36
14.30
13.36
12.76
12.57
12.69
12.87
12.88
12.51
11.69
10.48
9.00
7.37
5.74
4.23
2.90
1.72
0.58
-0.69
-2.26
-4.18
-6.43
-8.90
-11.45
-14.00
-16.49
-18.93
-21.35
-23.80
-26.41
-29.33
-32.76
-36.83
-41.43
-46.14
-50.18
-52.57
-52.41
-49.22
-43.13
-34.94
-25.85
-17.08
-9.53
-3.58
0.88
4.26
7.06
9.66
12.28
14.97
17.64
20.18
22.47
24.44
26.07
27.34
28.22
28.71
28.78
28.48
27.91
27.22
26.52
25.86
25.17
24.32
23.16
21.58
19.55
17.19
14.70
12.32
10.28
8.64
7.29
6.02
4.62
2.92
0.92
-1.40
-4.06
-7.10
-10.49
-14.10
-17.60
-20.70
-23.32
-25.70
-28.37
-31.87
-36.38
-41.47
-46.12
-49.00
-48.95
-45.45
-38.78
-29.95
-20.34
-11.28
-3.67
2.15
6.31
9.20
11.25
12.76
13.98
15.03
16.09
17.27
18.60
19.99
21.18
21.91
21.99
21.47
20.56
19.58
18.79
18.25
17.81
17.13
15.90
13.95
11.38
8.53
5.85
3.60
1.81
0.20
-1.63
-3.96
-6.80
-9.89
-12.86
-15.38
-17.42
-19.16
-20.90
-22.97
-25.55
-28.75
-32.57
-36.87
-41.30
-45.25
-47.90
-48.38
-46.06
-40.77
-32.95
-23.53
-13.73
-4.74
2.60
7.96
11.48
13.68
15.21
16.64
18.30
20.19
22.13
23.83
25.02
25.61
25.63
25.32
24.96
24.86
25.24
26.22
27.72
29.45
30.94
31.59
30.89
28.62
24.91
20.27
15.34
10.69
6.63
3.20
0.27
-2.36
-4.84
-7.30
-9.90
-12.84
-16.34
-20.54
-25.41
-30.73
-36.01
-40.59
-43.74
-44.75
-43.20
-39.08
-32.81
-25.21
-17.23
-9.78
-3.45
1.48
5.08
7.65
9.59
11.27
12.97
14.79
16.68
18.51
20.15
21.53
22.61
23.34
23.68
23.59
23.07
22.23
21.24
20.23
19.28
18.32
17.24
15.88
14.16
12.09
9.73
7.19
4.55
1.86
-0.82
-3.47
-6.03
-8.48
-10.82
-13.12
-15.51
-18.18
-21.37
-25.25
-29.78
-34.67
-39.26
-42.64
-43.85
-42.20
-37.54
-30.38
-21.79
-13.11
-5.48
0.42
4.55
7.29
9.27
11.02
12.81
14.72
16.63
18.39
19.90
21.07
21.87
22.28
22.34
22.09
21.66
21.15
20.67
20.32
20.09
19.88
19.53
18.84
17.67
16.00
13.98
11.84
9.79
7.90
6.10
4.16
1.90
-0.74
-3.62
-6.49
-9.08
-11.23
-12.98
-14.56
-16.36
-18.78
-22.13
-26.53
-31.76
-37.20
-41.97
-44.98
-45.32
-42.52
-36.72
-28.66
-19.57
-10.75
-3.28
2.25
5.88
8.06
9.50
10.83
12.43
14.35
16.44
18.51
20.45
22.31
24.16
25.98
27.60
28.73
29.13
28.72
27.69
26.36
25.03
23.81
22.60
21.21
19.47
17.35
14.98
12.57
10.31
8.25
6.38
4.57
2.71
0.68
-1.57
-4.03
-6.61
-9.16
-11.52
-13.59
-15.40
-17.07
-18.87
-21.10
-24.04
-27.85
-32.42
-37.28
-41.62
-44.39
-44.64
-41.80
-36.00
-28.04
-19.13
-10.55
-3.21
2.48
6.60
9.53
11.70
13.43
14.92
16.26
17.54
18.84
20.16
21.45
22.59
23.41
23.76
23.57
22.90
21.90
20.81
19.83
19.06
18.42
17.69
16.61
14.98
12.78
10.13
7.22
4.24
1.27
-1.70
-4.68
-7.64
-10.44
-12.97
-15.13
-16.96
-18.57
-20.14
-21.85
-23.87
-26.38
-29.51
-33.21
-37.18
-40.72
-42.91
-42.83
-39.89
-34.12
-26.21
-17.33
-8.74
-1.43
4.10
7.84
10.10
11.32
11.89
12.12
12.27
12.58
13.19
14.15
15.38
16.62
17.59
18.05
17.90
17.19
16.12
14.92
13.80
12.83
11.93
10.85
9.27
6.97
3.89
0.24
-3.58
-7.13
-10.08
-12.33
-14.02
-15.46
-17.10
-19.35
-22.51
-26.59
-31.24
-35.70
-38.93
-39.92
-38.03
-33.24
-26.19
-17.95
-9.69
-2.36
3.52
7.83
10.74
12.50
13.38
13.64
13.58
13.53
13.79
14.43
15.33
16.11
16.40
15.98
14.95
13.67
12.55
11.86
11.55
11.29
10.65
9.26
6.98
3.94
0.43
-3.22
-6.75
-10.02
-13.07
-16.08
-19.25
-22.82
-26.84
-31.19
-35.45
-38.91
-40.73
-40.14
-36.80
-30.89
-23.19
-14.85
-7.04
-0.68
3.87
6.77
8.56
9.88
11.25
12.93
14.87
16.83
18.51
19.71
20.38
20.62
20.55
20.26
19.74
18.92
17.80
16.45
15.00
13.55
12.08
10.49
8.70
6.83
5.21
4.25
4.20
4.84
5.49
5.22
3.27
-0.68
-6.36
-13.14
-20.21
-26.85
-32.41
-36.26
-37.79
-36.55
-32.47
-26.02
-18.23
-10.34
-3.45
1.89
5.69
8.43
10.71
13.04
15.59
18.25
20.67
22.51
23.56
23.84
23.61
23.18
22.85
22.70
22.66
22.58
22.29
21.74
20.93
19.89
18.65
17.19
15.49
13.61
11.62
9.64
7.71
5.82
3.92
1.91
-0.23
-2.48
-4.77
-7.02
-9.21
-11.42
-13.87
-16.82
-20.55
-25.14
-30.44
-35.93
-40.74
-43.89
-44.47
-42.04
-36.77
-29.48
-21.36
-13.63
-7.11
-2.06
1.77
4.91
7.82
10.73
13.62
16.30
18.61
20.48
21.92
22.98
23.70
24.06
24.02
23.63
23.00
22.34
21.86
21.66
21.65
21.56
21.02
19.77
17.80
15.34
12.78
10.50
8.64
7.13
5.65
3.88
1.63
-1.11
-4.13
-7.19
-10.06
-12.66
-15.07
-17.47
-20.13
-23.27
-27.06
-31.45
-36.09
-40.30
-43.14
-43.73
-41.49
-36.49
-29.48
-21.61
-14.12
-7.83
-3.02
0.58
3.51
6.24
9.02
11.79
14.35
16.48
18.13
19.44
20.60
21.79
23.05
24.24
25.11
25.46
25.28
24.81
24.41
24.39
24.83
25.51
26.02
25.96
25.10
23.50
21.39
19.05
16.65
14.16
11.48
8.50
5.26
1.94
-1.25
-4.14
-6.78
-9.38
-12.31
-15.91
-20.30
-25.26
-30.16
-34.11
-36.19
-35.79
-32.78
-27.62
-21.14
-14.32
-7.94
-2.49
1.88
5.29
7.91
9.92
11.47
12.63
13.49
14.15
14.72
15.29
15.95
16.69
17.45
18.09
18.47
18.51
18.19
17.51
16.51
15.20
13.60
11.71
9.59
7.27
4.78
2.13
-0.62
-3.42
-6.17
-8.77
-11.19
-13.45
-15.69
-18.11
-20.95
-24.41
-28.54
-33.07
-37.41
-40.66
-41.86
-40.34
-35.99
-29.36
-21.52
-13.68
-6.81
-1.41
2.46
5.11
6.93
8.26
9.36
10.40
11.54
12.87
14.37
15.93
17.34
18.31
18.59
18.09
16.86
15.14
13.20
11.30
9.49
7.69
5.62
3.05
-0.10
-3.71
-7.44
-10.89
-13.84
-16.28
-18.47
-20.80
-23.64
-27.20
-31.38
-35.76
-39.63
-42.06
-42.21
-39.56
-34.10
-26.51
-17.87
-9.39
-1.99
3.90
8.36
11.74
14.43
16.70
18.73
20.65
22.57
24.54
26.53
28.38
29.86
30.78
31.05
30.67
29.77
28.45
26.84
25.02
23.05
20.94
18.63
15.97
12.84
9.27
5.42
1.60
-1.85
-4.71
-6.99
-8.90
-10.83
-13.24
-16.43
-20.42
-24.79
-28.74
-31.24
-31.39
-28.77
-23.67
-16.98
-9.87
-3.35
2.05
6.33
9.87
13.09
16.25
19.39
22.38
25.09
27.38
29.15
30.30
30.76
30.56
29.82
28.77
27.60
26.39
25.11
23.70
22.10
20.35
18.50
16.59
14.59
12.44
10.06
7.43
4.60
1.63
-1.44
-4.53
-7.60
-10.53
-13.24
-15.71
-18.04
-20.47
-23.36
-27.04
-31.69
-37.13
-42.76
-47.61
-50.60
-50.86
-48.02
-42.41
-34.90
-26.67
-18.80
-12.05
-6.67
-2.51
0.88
3.95
7.09
10.42
13.82
17.01
19.68
21.64
22.85
23.44
23.60
23.50
23.22
22.76
22.12
21.35
20.54
19.80
19.22
18.76
18.25
17.39
15.85
13.45
10.28
6.77
3.56
1.26
0.12
-0.13
-0.16
-0.80
-2.63
-5.72
-9.58
-13.45
-16.62
-18.70
-19.83
-20.56
-21.69
-24.01
-28.04
-33.80
-40.68
-47.38
-52.22
-53.31
-49.11
-38.85
-22.96
-3.20
17.62
36.45
50.86
59.75
63.51
63.56
61.58
58.76
55.53
51.81
47.51
42.87
38.52
35.11
32.86
31.45
30.21
28.45
25.90
22.78
19.64
17.05
15.31
14.27
13.43
12.19
10.11
7.14
3.64
0.17
-2.71
-4.70
-5.88
-6.64
-7.50
-8.91
-11.08
-13.88
-16.95
-19.86
-22.29
-24.15
-25.66
-27.20
-29.24
-32.15
-36.11
-40.93
-46.10
-50.75
-53.84
-54.40
-51.86
-46.29
-38.44
-29.49
-20.76
-13.26
-7.47
-3.37
-0.59
1.35
2.88
4.29
5.75
7.31
8.94
10.48
11.72
12.48
12.68
12.39
11.80
11.14
10.62
10.33
10.25
10.25
10.13
9.65
8.59
6.84
4.44
1.58
-1.45
-4.37
-6.99
-9.21
-11.10
-12.84
-14.74
-17.17
-20.41
-24.45
-28.86
-32.74
-35.03
-34.82
-31.75
-26.18
-19.05
-11.57
-4.78
0.69
4.73
7.61
9.73
11.42
12.92
14.29
15.55
16.70
17.75
18.69
19.49
20.09
20.35
20.20
19.62
18.70
17.65
16.69
15.98
15.53
15.17
14.57
13.38
11.35
8.48
4.95
1.14
-2.56
-5.83
-8.52
-10.70
-12.60
-14.65
-17.22
-20.58
-24.69
-29.12
-33.08
-35.66
-36.04
-33.85
-29.28
-23.04
-16.13
-9.51
-3.83
0.69
4.26
7.31
10.19
13.05
15.77
18.10
19.81
20.85
21.34
21.47
21.32
20.88
20.01
18.67
16.98
15.25
13.88
13.11
12.93
13.05
13.01
12.36
10.87
8.54
5.59
2.41
-0.63
-3.23
-5.26
-6.78
-8.03
-9.36
-11.18
-13.81
-17.39
-21.78
-26.48
-30.66
-33.36
-33.72
-31.35
-26.43
-19.74
-12.38
-5.44
0.31
4.53
7.32
9.04
10.13
10.96
11.83
12.89
14.17
15.57
16.89
17.90
18.43
18.41
17.94
17.22
16.49
15.93
15.63
15.49
15.34
14.94
14.08
12.64
10.65
8.26
5.72
3.36
1.41
0.01
-0.91
-1.59
-2.35
-3.46
-5.00
-6.84
-8.74
-10.54
-12.25
-14.17
-16.69
-20.13
-24.51
-29.40
-34.01
-37.33
-38.39
-36.63
-32.04
-25.24
-17.30
-9.42
-2.62
2.60
6.24
8.71
10.55
12.19
13.83
15.45
16.92
18.13
19.06
19.76
20.30
20.71
20.97
21.05
20.94
20.67
20.27
19.79
19.22
18.49
17.51
16.19
14.52
12.60
10.54
8.45
6.38
4.25
1.96
-0.59
-3.38
-6.31
-9.18
-11.82
-14.14
-16.19
-18.17
-20.34
-22.99
-26.25
-29.96
-33.60
-36.36
-37.37
-36.00
-32.10
-26.12
-18.98
-11.74
-5.34
-0.33
3.16
5.34
6.60
7.29
7.66
7.84
7.92
7.98
8.15
8.50
9.04
9.63
10.04
10.11
9.80
9.26
8.72
8.33
8.09
7.79
7.09
5.71
3.56
0.76
-2.31
-5.25
-7.70
-9.57
-11.06
-12.62
-14.73
-17.71
-21.49
-25.60
-29.25
-31.57
-31.94
-30.08
-26.19
-20.85
-14.86
-9.10
-4.24
-0.66
1.73
3.43
5.17
7.63
11.18
15.65
20.35
24.31
26.66
26.97
25.40
22.60
19.39
16.50
14.32
12.88
12.02
11.46
10.93
10.22
9.17
7.61
5.41
2.54
-0.93
-4.77
-8.70
-12.48
-15.97
-19.20
-22.31
-25.43
-28.47
-31.06
-32.59
-32.41
-30.08
-25.60
-19.51
-12.71
-6.16
-0.58
3.73
6.94
9.46
11.70
13.87
15.92
17.62
18.74
19.21
19.12
18.68
18.08
17.39
16.59
15.62
14.51
13.38
12.46
11.91
11.69
11.55
11.07
9.86
7.69
4.61
0.91
-2.97
-6.63
-9.82
-12.51
-14.84
-17.06
-19.48
-22.35
-25.78
-29.62
-33.38
-36.25
-37.30
-35.82
-31.59
-25.08
-17.28
-9.42
-2.52
2.90
6.86
9.76
12.06
14.07
15.88
17.48
18.83
20.03
21.23
22.56
24.03
25.44
26.53
27.03
26.83
26.07
25.05
24.12
23.52
23.23
23.00
22.51
21.45
19.79
17.69
15.47
13.39
11.56
9.89
8.18
6.26
4.09
1.72
-0.71
-3.08
-5.35
-7.55
-9.79
-12.23
-15.08
-18.54
-22.77
-27.73
-33.12
-38.26
-42.28
-44.25
-43.54
-40.02
-34.16
-26.93
-19.43
-12.65
-7.17
-3.09
-0.13
2.15
4.10
5.88
7.43
8.54
9.03
8.85
8.18
7.37
6.82
6.88
7.74
9.42
11.77
14.57
17.48
20.06
21.84
22.47
21.79
19.97
17.48
14.88
12.60
10.77
9.16
7.43
5.27
2.60
-0.42
-3.52
-6.50
-9.34
-12.26
-15.51
-19.30
-23.57
-27.94
-31.71
-34.08
-34.37
-32.22
-27.74
-21.48
-14.31
-7.14
-0.76
4.36
8.12
10.73
12.56
14.00
15.28
16.49
17.58
18.46
19.12
19.57
19.91
20.22
20.49
20.67
20.65
20.34
19.73
18.85
17.77
16.59
15.33
13.95
12.38
10.54
8.40
6.00
3.46
0.90
-1.60
-3.99
-6.29
-8.57
-10.90
-13.41
-16.26
-19.62
-23.57
-28.00
-32.50
-36.37
-38.71
-38.72
-35.99
-30.63
-23.40
-15.40
-7.80
-1.48
3.24
6.51
8.84
10.80
12.77
14.88
17.03
19.06
20.80
22.20
23.25
23.96
24.34
24.37
24.09
23.59
23.02
22.51
22.13
21.86
21.54
20.96
19.92
18.29
16.08
13.43
10.66
8.13
6.14
4.78
3.92
3.17
2.05
0.22
-2.41
-5.63
-9.05
-12.21
-14.83
-16.85
-18.47
-20.05
-22.04
-24.81
-28.56
-33.17
-38.16
-42.68
-45.67
-46.14
-43.54
-38.00
-30.31
-21.73
-13.57
-6.75
-1.64
1.96
4.59
6.80
8.94
11.12
13.27
15.31
17.20
18.98
20.64
22.12
23.29
24.00
24.22
24.05
23.70
23.40
23.26
23.22
23.07
22.55
21.51
19.95
18.04
16.05
14.22
12.71
11.57
10.68
9.90
9.03
7.93
6.55
4.95
3.20
1.39
-0.44
-2.32
-4.28
-6.38
-8.67
-11.16
-13.88
-16.81
-19.88
-22.94
-25.85
-28.56
-31.20
-34.09
-37.54
-41.60
-45.84
-49.34
-50.97
-49.89
-45.85
-39.43
-31.68
-23.78
-16.51
-10.15
-4.61
0.31
4.70
8.46
11.46
13.70
15.35
16.77
18.27
20.08
22.24
24.62
26.99
28.99
30.29
30.66
30.12
28.99
27.87
27.44
28.31
30.90
35.43
41.85
49.66
57.77
64.55
68.13
67.13
61.10
50.89
38.31
25.48
14.03
4.74
-2.44
-8.03
-12.53
-16.26
-19.36
-22.01
-24.50
-27.17
-30.38
-34.34
-39.04
-44.22
-49.25
-53.21
-55.04
-53.87
-49.41
-42.19
-33.37
-24.42
-16.56
-10.45
-6.15
-3.30
-1.45
-0.22
0.61
1.17
1.63
2.14
2.89
3.93
5.25
6.71
8.10
9.21
9.86
9.94
9.52
8.75
7.83
6.92
6.04
5.09
3.92
2.37
0.42
-1.88
-4.35
-6.81
-9.13
-11.19
-12.98
-14.49
-15.83
-17.18
-18.82
-21.06
-24.13
-27.96
-32.13
-35.81
-38.05
-37.99
-35.30
-30.22
-23.57
-16.38
-9.61
-3.87
0.66
4.08
6.61
8.45
9.77
10.69
11.33
11.81
12.22
12.60
12.96
13.30
13.64
13.99
14.34
14.60
14.68
14.46
13.86
12.86
11.48
9.78
7.86
5.81
3.71
1.62
-0.45
-2.55
-4.71
-6.91
-9.04
-11.01
-12.77
-14.51
-16.56
-19.38
-23.26
-28.16
-33.62
-38.76
-42.49
-43.73
-41.75
-36.33
-27.87
-17.40
-6.32
3.84
11.85
17.12
19.81
20.75
21.06
21.68
23.10
25.24
27.69
29.94
31.69
32.88
33.57
33.82
33.58
32.80
31.51
29.93
28.38
27.17
26.37
25.76
24.90
23.29
20.60
16.89
12.55
8.20
4.47
1.75
0.09
-0.79
-1.34
-1.98
-2.96
-4.31
-5.88
-7.48
-8.97
-10.39
-11.91
-13.83
-16.43
-19.93
-24.38
-29.56
-34.91
-39.54
-42.44
-42.70
-39.87
-34.17
-26.47
-18.01
-10.08
-3.57
1.23
4.51
6.79
8.63
10.39
12.19
13.96
15.52
16.75
17.62
18.18
18.59
18.93
19.26
19.57
19.83
20.04
20.22
20.39
20.51
20.50
20.22
19.61
18.64
17.36
15.88
14.28
12.60
10.88
9.14
7.43
5.84
4.39
3.06
1.74
0.30
-1.38
-3.25
-5.22
-7.10
-8.73
-10.11
-11.38
-12.84
-14.81
-17.55
-21.18
-25.56
-30.32
-34.78
-38.09
-39.38
-38.05
-33.93
-27.47
-19.63
-11.60
-4.47
1.04
4.73
6.81
7.80
8.29
8.83
9.83
11.56
14.05
17.08
20.22
22.90
24.60
25.08
24.44
23.12
21.67
20.56
19.94
19.63
19.30
18.61
17.43
15.81
13.92
11.99
10.15
8.56
7.30
6.46
5.96
5.60
5.02
3.85
1.85
-0.92
-4.13
-7.35
-10.18
-12.42
-14.09
-15.33
-16.40
-17.54
-18.99
-20.99
-23.73
-27.27
-31.43
-35.71
-39.31
-41.31
-40.90
-37.67
-31.78
-23.96
-15.30
-6.98
0.07
5.36
8.84
10.85
11.83
12.24
12.38
12.46
12.58
12.82
13.30
14.07
15.12
16.34
17.51
18.44
18.96
18.97
18.48
17.55
16.28
14.81
13.26
11.78
10.46
9.32
8.34
7.43
6.44
5.23
3.64
1.57
-1.02
-4.00
-7.17
-10.22
-12.91
-15.17
-17.15
-19.22
-21.81
-25.20
-29.29
-33.52
-36.97
-38.62
-37.74
-34.20
-28.46
-21.45
-14.21
-7.60
-2.09
2.17
5.32
7.56
9.14
10.30
11.23
12.09
12.99
13.97
15.05
16.17
17.20
18.00
18.34
18.12
17.33
16.10
14.64
13.17
11.80
10.49
9.13
7.55
5.60
3.24
0.49
-2.48
-5.47
-8.26
-10.73
-12.91
-15.04
-17.41
-20.33
-23.89
-27.95
-32.09
-35.64
-37.88
-38.13
-36.05
-31.63
-25.38
-18.11
-10.78
-4.24
0.97
4.71
7.24
9.06
10.70
12.55
14.69
16.97
19.05
20.66
21.63
22.04
22.07
21.96
21.85
21.79
21.74
21.59
21.24
20.57
19.47
17.90
15.89
13.53
11.02
8.54
6.19
4.00
1.87
-0.31
-2.65
-5.12
-7.63
-9.99
-12.06
-13.89
-15.69
-17.85
-20.76
-24.66
-29.42
-34.48
-38.94
-41.75
-42.04
-39.36
-33.92
-26.48
-18.18
-10.22
-3.48
1.66
5.33
8.04
10.33
12.64
15.09
17.58
19.93
21.99
23.75
25.24
26.47
27.35
27.71
27.40
26.45
25.10
23.71
22.66
22.12
22.01
22.01
21.74
20.91
19.39
17.27
14.81
12.31
10.07
8.28
6.97
6.02
5.17
4.12
2.62
0.57
-1.92
-4.62
-7.32
-9.90
-12.48
-15.34
-18.80
-23.06
-28.02
-33.23
-37.92
-41.17
-42.11
-40.28
-35.72
-29.04
-21.26
-13.50
-6.69
-1.31
2.57
5.28
7.31
9.13
11.05
13.18
15.44
17.66
19.66
21.31
22.59
23.52
24.15
24.52
24.64
24.52
24.20
23.71
23.09
22.36
21.50
20.42
19.06
17.34
15.36
13.27
11.28
9.60
8.32
7.39
6.64
5.83
4.73
3.16
1.04
-1.62
-4.68
-7.89
-10.89
-13.38
-15.16
-16.29
-17.09
-18.02
-19.58
-22.10
-25.73
-30.34
-35.54
-40.64
-44.77
-46.99
-46.58
-43.25
-37.33
-29.67
-21.41
-13.62
-7.06
-1.99
1.73
4.46
6.57
8.31
9.84
11.29
12.88
14.90
17.58
20.93
24.63
28.07
30.59
31.75
31.56
30.45
29.10
28.10
27.69
27.72
27.75
27.29
26.02
23.93
21.23
18.30
15.54
13.34
12.01
11.70
12.37
13.67
15.01
15.66
15.02
12.84
9.29
4.88
0.18
-4.34
-8.41
-11.92
-14.88
-17.28
-19.18
-20.83
-22.58
-24.90
-28.11
-32.23
-36.85
-41.15
-44.07
-44.63
-42.19
-36.78
-29.10
-20.32
-11.79
-4.58
0.76
4.31
6.60
8.27
9.84
11.55
13.35
15.05
16.48
17.58
18.39
19.07
19.69
20.31
20.84
21.17
21.17
20.79
20.03
18.96
17.67
16.19
14.52
12.64
10.48
8.06
5.44
2.74
0.05
-2.54
-5.03
-7.45
-9.87
-12.33
-14.84
-17.34
-19.76
-21.99
-23.96
-25.67
-27.21
-28.74
-30.48
-32.60
-35.15
-37.99
-40.73
-42.77
-43.45
-42.12
-38.42
-32.36
-24.45
-15.62
-7.04
0.17
5.27
8.10
9.10
9.15
9.14
9.71
11.06
13.00
15.14
17.10
18.68
19.84
20.65
21.19
21.47
21.51
21.23
20.55
19.37
17.61
15.31
12.64
9.83
7.10
4.53
2.09
-0.31
-2.71
-5.00
-7.01
-8.63
-9.91
-11.08
-12.47
-14.45
-17.23
-20.86
-25.20
-29.83
-34.08
-37.12
-38.03
-36.15
-31.25
-23.80
-14.87
-5.90
1.73
7.13
10.15
11.26
11.39
11.46
12.16
13.77
16.23
19.25
22.43
25.40
27.88
29.66
30.67
30.96
30.65
29.90
28.83
27.56
26.19
24.85
23.64
22.59
21.59
20.42
18.80
16.62
13.97
11.19
8.71
6.90
5.85
5.31
4.77
3.59
1.28
-2.41
-7.33
-13.03
-18.79
-23.70
-26.85
-27.44
-25.01
-19.61
-11.90
-2.99
5.71
12.98
17.99
20.56
21.11
20.45
19.51
19.10
19.63
21.08
23.06
25.05
26.54
27.26
27.23
26.64
25.76
24.75
23.64
22.33
20.73
18.82
16.65
14.31
11.85
9.28
6.53
3.55
0.29
-3.22
-6.89
-10.60
-14.21
-17.60
-20.76
-23.81
-26.93
-30.40
-34.43
-39.13
-44.45
-50.10
-55.55
-60.03
-62.66
-62.63
-59.43
-53.08
-44.19
-33.84
-23.32
-13.79
-6.01
-0.25
3.65
6.07
7.46
8.22
8.71
9.19
9.87
10.81
11.92
12.99
13.80
14.21
14.17
13.75
12.99
11.91
10.50
8.73
6.69
4.53
2.41
0.45
-1.35
-3.08
-4.87
-6.88
-9.27
-12.24
-15.95
-20.42
-25.36
-30.10
-33.72
-35.28
-34.18
-30.36
-24.36
-17.18
-9.88
-3.33
1.98
5.96
8.81
10.82
12.29
13.44
14.50
15.63
16.95
18.46
20.04
21.41
22.26
22.33
21.52
20.00
18.14
16.38
15.09
14.40
14.15
13.91
13.24
11.81
9.63
6.97
4.25
1.77
-0.40
-2.45
-4.75
-7.62
-11.20
-15.47
-20.15
-24.75
-28.57
-30.82
-30.79
-28.14
-23.10
-16.51
-9.50
-3.18
1.77
5.27
7.68
9.51
11.15
12.72
14.12
15.22
15.95
16.38
16.60
16.70
16.70
16.55
16.20
15.65
14.97
14.25
13.60
13.07
12.65
12.21
11.54
10.40
8.59
6.09
3.11
0.01
-2.81
-5.10
-6.85
-8.33
-9.94
-12.08
-15.02
-18.82
-23.26
-27.87
-31.94
-34.69
-35.38
-33.56
-29.25
-22.95
-15.56
-8.08
-1.39
4.03
8.12
11.15
13.55
15.70
17.79
19.86
21.80
23.49
24.87
25.92
26.68
27.17
27.33
27.12
26.53
25.60
24.45
23.21
21.99
20.80
19.58
18.22
16.67
14.93
13.08
11.22
9.39
7.59
5.74
3.75
1.54
-0.89
-3.50
-6.19
-8.83
-11.35
-13.77
-16.24
-18.98
-22.28
-26.27
-30.83
-35.49
-39.46
-41.83
-41.82
-39.06
-33.72
-26.49
-18.39
-10.48
-3.63
1.70
5.47
7.94
9.52
10.63
11.56
12.52
13.64
15.04
16.70
18.54
20.32
21.75
22.59
22.78
22.46
21.90
21.32
20.79
20.21
19.42
18.31
16.94
15.42
13.92
12.49
11.11
9.65
8.04
6.28
4.46
2.69
1.01
-0.63
-2.35
-4.25
-6.37
-8.64
-10.92
-13.10
-15.10
-17.01
-19.00
-21.34
-24.28
-28.02
-32.49
-37.34
-41.90
-45.24
-46.46
-44.86
-40.27
-33.09
-24.21
-14.80
-6.02
1.23
6.49
9.78
11.48
12.20
12.56
13.03
13.85
14.99
16.27
17.42
18.22
18.50
18.20
17.36
16.16
14.95
14.17
14.20
15.21
17.04
19.21
21.04
21.95
21.62
20.08
17.60
14.56
11.28
7.96
4.74
1.81
-0.62
-2.40
-3.53
-4.23
-4.91
-5.97
-7.63
-9.89
-12.54
-15.32
-18.03
-20.58
-22.99
-25.36
-27.78
-30.40
-33.28
-36.38
-39.43
-41.85
-42.88
-41.80
-38.27
-32.46
-25.12
-17.32
-10.08
-4.11
0.38
3.59
5.98
7.93
9.70
11.29
12.68
13.84
14.88
15.98
17.27
18.77
20.32
21.69
22.65
23.12
23.19
23.09
23.03
23.10
23.22
23.15
22.65
21.56
19.89
17.81
15.52
13.17
10.77
8.29
5.69
3.05
0.52
-1.75
-3.72
-5.51
-7.31
-9.28
-11.41
-13.55
-15.49
-17.11
-18.48
-19.93
-21.89
-24.74
-28.61
-33.17
-37.66
-41.02
-42.17
-40.44
-35.73
-28.66
-20.32
-11.90
-4.41
1.57
5.90
8.73
10.41
11.34
11.90
12.45
13.25
14.45
16.01
17.81
19.61
21.23
22.49
23.29
23.57
23.34
22.68
21.77
20.82
20.01
19.41
18.93
18.32
17.34
15.79
13.70
11.26
8.78
6.58
4.86
3.65
2.74
1.77
0.40
-1.64
-4.32
-7.37
-10.29
-12.61
-14.05
-14.67
-14.87
-15.24
-16.39
-18.73
-22.40
-27.18
-32.43
-37.24
-40.52
-41.30
-38.95
-33.51
-25.64
-16.48
-7.36
0.57
6.65
10.72
13.05
14.15
14.54
14.66
14.81
15.17
15.86
16.90
18.24
19.72
21.09
22.05
22.40
22.08
21.20
20.02
18.79
17.67
16.65
15.61
14.35
12.78
10.90
8.85
6.82
4.97
3.34
1.87
0.41
-1.24
-3.22
-5.58
-8.22
-10.93
-13.43
-15.50
-17.09
-18.35
-19.61
-21.30
-23.80
-27.28
-31.59
-36.20
-40.27
-42.84
-43.04
-40.41
-35.07
-27.70
-19.35
-11.16
-4.03
1.57
5.58
8.22
9.88
10.93
11.69
12.37
13.13
14.00
14.97
15.94
16.78
17.33
17.53
17.36
16.94
16.41
15.92
15.54
15.20
14.74
13.97
12.74
10.99
8.77
6.15
3.25
0.19
-2.85
-5.69
-8.19
-10.30
-12.11
-13.87
-15.89
-18.48
-21.78
-25.68
-29.72
-33.20
-35.34
-35.45
-33.23
-28.76
-22.56
-15.42
-8.21
-1.68
3.65
7.56
10.15
11.77
12.87
13.84
14.90
16.04
17.14
18.03
18.70
19.22
19.73
20.30
20.83
21.15
21.05
20.46
19.43
18.12
16.69
15.18
13.53
11.61
9.29
6.48
3.24
-0.27
-3.81
-7.09
-9.86
-12.03
-13.69
-15.18
-16.99
-19.63
-23.37
-28.06
-33.04
-37.25
-39.61
-39.28
-36.05
-30.36
-23.12
-15.42
-8.18
-1.96
3.09
7.04
10.11
12.51
14.43
16.05
17.53
18.99
20.43
21.76
22.81
23.44
23.59
23.33
22.81
22.18
21.52
20.83
20.06
19.12
18.01
16.75
15.38
13.97
12.54
11.04
9.42
7.59
5.49
3.08
0.40
-2.46
-5.35
-8.12
-10.69
-13.09
-15.48
-18.17
-21.46
-25.53
-30.26
-35.11
-39.24
-41.62
-41.39
-38.19
-32.28
-24.52
-16.13
-8.31
-1.86
2.93
6.27
8.67
10.62
12.48
14.39
16.32
18.24
20.10
21.87
23.50
24.87
25.84
26.36
26.46
26.27
25.97
25.70
25.45
25.17
24.71
23.99
22.92
21.52
19.81
17.89
15.84
13.76
11.72
9.75
7.83
5.94
4.07
2.18
0.23
-1.87
-4.19
-6.75
-9.48
-12.19
-14.70
-16.92
-18.92
-20.94
-23.35
-26.44
-30.31
-34.73
-39.14
-42.75
-44.71
-44.36
-41.44
-36.17
-29.16
-21.31
-13.51
-6.46
-0.60
4.01
7.54
10.36
12.88
15.42
18.10
20.82
23.32
25.28
26.52
27.09
27.20
27.19
27.31
27.66
28.15
28.56
28.67
28.35
27.60
26.50
25.19
23.77
22.29
20.73
19.07
17.28
15.39
13.45
11.48
9.51
7.50
5.48
3.49
1.61
-0.08
-1.56
-2.98
-4.55
-6.52
-9.04
-12.05
-15.32
-18.55
-21.52
-24.22
-26.88
-29.83
-33.27
-37.13
-40.92
-43.84
-45.02
-43.79
-39.97
-33.88
-26.27
-18.10
-10.30
-3.59
1.60
5.15
7.23
8.22
8.61
8.88
9.37
10.18
11.26
12.42
13.46
14.28
14.91
15.43
15.94
16.45
16.88
17.10
16.95
16.31
15.14
13.52
11.57
9.49
7.44
5.53
3.78
2.15
0.54
-1.13
-2.90
-4.76
-6.70
-8.71
-10.89
-13.35
-16.19
-19.49
-23.27
-27.48
-32.01
-36.54
-40.54
-43.31
-44.07
-42.32
-37.99
-31.56
-23.94
-16.16
-9.07
-3.18
1.39
4.82
7.39
9.41
11.15
12.82
14.58
16.53
18.67
20.88
22.97
24.72
25.92
26.47
26.35
25.66
24.52
23.12
21.64
20.22
18.95
17.85
16.83
15.71
14.33
12.58
10.51
8.26
6.04
3.98
2.09
0.29
-1.56
-3.50
-5.52
-7.54
-9.54
-11.62
-14.05
-17.19
-21.34
-26.49
-32.22
-37.63
-41.56
-42.88
-40.91
-35.66
-27.88
-18.82
-9.83
-1.99
4.18
8.71
11.96
14.39
16.36
18.07
19.60
21.03
22.49
24.14
26.08
28.24
30.39
32.15
33.13
33.06
31.90
29.85
27.31
24.68
22.26
20.16
18.29
16.52
14.74
13.02
11.55
10.55
10.08
9.99
9.92
9.41
8.12
5.87
2.73
-1.13
-5.50
-10.22
-15.16
-20.11
-24.80
-28.89
-32.13
-34.47
-36.13
-37.46
-38.68
-39.74
-40.16
-39.24
-36.38
-31.35
-24.54
-16.84
-9.32
-2.92
1.88
5.05
6.91
7.96
8.67
9.40
10.43
11.94
14.04
16.70
19.71
22.65
25.03
26.43
26.64
25.76
24.21
22.53
21.19
20.39
20.03
19.79
19.29
18.27
16.72
14.80
12.81
10.96
9.32
7.77
6.08
4.09
1.75
-0.80
-3.39
-5.87
-8.19
-10.37
-12.55
-14.84
-17.41
-20.43
-24.07
-28.37
-33.06
-37.47
-40.58
-41.34
-39.05
-33.70
-26.01
-17.21
-8.64
-1.31
4.29
8.16
10.66
12.26
13.37
14.28
15.19
16.21
17.39
18.69
20.02
21.23
22.15
22.72
22.95
22.95
22.84
22.73
22.62
22.44
22.10
21.55
20.80
19.87
18.78
17.47
15.89
13.97
11.78
9.43
7.06
4.82
2.76
0.89
-0.86
-2.54
-4.21
-5.95
-7.86
-10.00
-12.43
-15.14
-18.08
-21.21
-24.56
-28.21
-32.25
-36.58
-40.83
-44.25
-45.94
-45.09
-41.34
-34.95
-26.78
-18.02
-9.83
-3.03
2.07
5.55
7.79
9.17
10.04
10.63
11.09
11.56
12.13
12.86
13.73
14.62
15.37
15.84
15.94
15.67
15.14
14.43
13.65
12.85
12.04
11.17
10.17
8.91
7.28
5.21
2.71
-0.12
-3.06
-5.87
-8.39
-10.51
-12.26
-13.76
-15.26
-17.07
-19.52
-22.77
-26.71
-30.83
-34.27
-36.11
-35.64
-32.60
-27.32
-20.55
-13.21
-6.17
-0.02
4.91
8.54
10.93
12.29
12.88
13.03
13.02
13.06
13.25
13.58
13.99
14.43
14.82
15.12
15.25
15.15
14.77
14.11
13.18
12.01
10.57
8.81
6.64
4.04
1.05
-2.16
-5.40
-8.44
-11.17
-13.57
-15.73
-17.87
-20.27
-23.21
-26.82
-30.92
-34.94
-37.96
-39.02
-37.42
-33.03
-26.41
-18.60
-10.78
-3.89
1.63
5.78
8.87
11.23
13.10
14.58
15.73
16.65
17.53
18.53
19.67
20.78
21.53
21.60
20.87
19.52
17.88
16.33
15.07
14.05
13.07
11.86
10.26
8.24
5.86
3.26
0.59
-2.00
-4.38
-6.47
-8.34
-10.23
-12.45
-15.36
-19.10
-23.56
-28.29
-32.57
-35.58
-36.60
-35.21
-31.46
-25.86
-19.23
-12.52
-6.50
-1.65
1.95
4.54
6.49
8.15
9.71
11.16
12.36
13.19
13.69
14.09
14.69
15.75
17.27
18.98
20.46
21.24
21.09
20.02
18.29
16.27
14.27
12.41
10.66
8.87
6.89
4.68
2.31
-0.08
-2.37
-4.51
-6.59
-8.79
-11.32
-14.36
-18.06
-22.48
-27.55
-32.98
-38.19
-42.30
-44.33
-43.49
-39.47
-32.68
-24.13
-15.14
-6.91
-0.21
4.79
8.37
11.01
13.20
15.23
17.24
19.22
21.11
22.85
24.36
25.55
26.31
26.57
26.32
25.65
24.73
23.81
23.07
22.63
22.43
22.24
21.81
20.90
19.41
17.44
15.27
13.22
11.54
10.32
9.44
8.62
7.49
5.76
3.29
0.12
-3.50
-7.29
-10.97
-14.40
-17.61
-20.76
-24.06
-27.71
-31.78
-36.10
-40.26
-43.60
-45.32
-44.71
-41.36
-35.41
-27.51
-18.70
-10.09
-2.57
3.46
8.03
11.50
14.33
16.87
19.24
21.37
23.10
24.31
25.01
25.38
25.63
25.92
26.26
26.48
26.40
25.93
25.16
24.37
23.82
23.64
23.67
23.57
22.88
21.27
18.69
15.39
11.83
8.47
5.64
3.42
1.62
-0.07
-1.91
-4.01
-6.30
-8.63
-10.87
-13.02
-15.23
-17.76
-20.86
-24.71
-29.35
-34.60
-40.05
-45.04
-48.74
-50.33
-49.20
-45.16
-38.53
-30.09
-20.88
-11.95
-4.12
2.20
6.95
10.42
12.97
14.93
16.49
17.78
18.87
19.90
21.02
22.32
23.81
25.31
26.53
27.21
27.23
26.64
25.67
24.60
23.62
22.83
22.13
21.32
20.16
18.47
16.22
13.55
10.79
8.30
6.34
4.96
3.90
2.76
1.14
-1.17
-4.11
-7.36
-10.57
-13.49
-16.05
-18.37
-20.67
-23.13
-25.90
-29.05
-32.57
-36.26
-39.67
-42.07
-42.55
-40.34
-35.11
-27.22
-17.71
-8.04
0.42
6.76
10.76
12.85
13.76
14.22
14.73
15.48
16.47
17.66
19.01
20.52
22.12
23.64
24.86
25.54
25.59
25.08
24.21
23.26
22.44
21.82
21.32
20.74
19.91
18.77
17.36
15.83
14.34
12.92
11.51
9.93
7.99
5.59
2.72
-0.50
-3.87
-7.25
-10.50
-13.58
-16.48
-19.26
-21.96
-24.71
-27.70
-31.12
-35.07
-39.40
-43.52
-46.53
-47.39
-45.33
-40.15
-32.41
-23.19
-13.82
-5.41
1.39
6.44
9.98
12.39
14.02
15.08
15.65
15.81
15.67
15.48
15.51
16.03
17.16
18.80
20.72
22.60
24.13
25.12
25.50
25.21
24.22
22.51
20.08
17.00
13.48
9.77
6.10
2.65
-0.53
-3.48
-6.31
-9.07
-11.80
-14.49
-17.17
-19.96
-23.07
-26.65
-30.73
-34.98
-38.77
-41.24
-41.51
-39.08
-33.92
-26.62
-18.20
-9.77
-2.31
3.59
7.81
10.56
12.21
13.20
13.84
14.35
14.85
15.41
16.00
16.58
17.05
17.29
17.24
16.90
16.36
15.73
15.13
14.51
13.74
12.53
10.63
7.87
4.36
0.45
-3.37
-6.66
-9.18
-11.02
-12.49
-14.10
-16.30
-19.40
-23.44
-28.18
-33.02
-37.06
-39.34
-39.05
-35.84
-29.97
-22.28
-13.92
-5.99
0.74
5.95
9.73
12.42
14.39
15.95
17.28
18.47
19.53
20.49
21.36
22.09
22.60
22.74
22.40
21.54
20.29
18.84
17.43
16.16
15.02
13.85
12.47
10.72
8.51
5.86
2.86
-0.31
-3.42
-6.23
-8.62
-10.61
-12.46
-14.56
-17.29
-20.86
-25.22
-29.94
-34.30
-37.42
-38.47
-36.87
-32.57
-26.04
-18.21
-10.20
-2.99
2.86
7.24
10.45
12.92
15.04
16.97
18.72
20.24
21.47
22.42
23.11
23.52
23.63
23.43
22.98
22.40
21.82
21.27
20.66
19.80
18.54
16.81
14.71
12.44
10.15
7.91
5.65
3.24
0.59
-2.25
-5.19
-8.03
-10.67
-13.13
-15.57
-18.20
-21.24
-24.76
-28.73
-32.87
-36.78
-39.85
-41.42
-40.87
-37.83
-32.34
-25.00
-16.80
-8.94
-2.43
2.21
5.09
6.80
8.16
9.82
11.99
14.37
16.29
17.01
16.12
13.73
10.54
7.53
5.62
5.33
6.63
8.96
11.53
13.58
14.56
14.27
12.79
10.41
7.55
4.67
2.25
0.69
0.27
1.02
2.69
4.76
6.58
7.62
7.65
6.79
5.50
4.26
3.38
2.84
2.32
1.36
-0.45
-3.33
-7.30
-12.08
-17.10
-21.52
-24.36
-24.78
-22.41
-17.54
-11.04
-4.11
2.16
7.07
10.44
12.52
13.75
14.56
15.24
15.95
16.76
17.75
18.94
20.29
21.68
22.90
23.70
23.86
23.34
22.26
20.93
19.66
18.68
17.97
17.35
16.50
15.18
13.30
10.95
8.41
5.95
3.78
1.93
0.29
-1.39
-3.27
-5.40
-7.67
-9.87
-11.81
-13.43
-14.87
-16.42
-18.41
-21.09
-24.51
-28.48
-32.52
-35.90
-37.78
-37.41
-34.42
-28.99
-21.84
-14.09
-6.82
-0.81
3.62
6.60
8.51
9.75
10.64
11.38
12.08
12.79
13.54
14.26
14.88
15.32
15.53
15.52
15.35
15.12
14.97
14.97
15.14
15.31
15.18
14.38
12.65
10.08
7.10
4.39
2.65
2.26
3.14
4.74
6.24
6.83
5.95
3.46
-0.37
-5.00
-9.76
-14.14
-17.85
-20.95
-23.79
-26.82
-30.37
-34.41
-38.45
-41.67
-43.19
-42.29
-38.68
-32.54
-24.50
-15.54
-6.84
0.48
5.61
8.36
9.22
9.21
9.49
10.88
13.59
17.20
20.94
24.08
26.14
27.01
26.81
25.75
24.09
22.08
20.04
18.22
16.80
15.78
15.01
14.22
13.11
11.39
8.80
5.19
0.61
-4.65
-10.05
-14.92
-18.66
-20.90
-21.65
-21.22
-20.12
-18.85
-17.76
-17.17
-17.31
-18.46
-20.77
-24.09
-27.78
-30.82
-31.97
-30.32
-25.60
-18.36
-9.79
-1.31
5.88
11.09
14.24
15.66
15.87
15.37
14.57
13.79
13.29
13.30
13.94
15.14
16.63
17.93
18.58
18.28
17.09
15.36
13.58
12.16
11.17
10.40
9.39
7.73
5.26
2.08
-1.43
-4.90
-8.01
-10.67
-12.90
-14.85
-16.72
-18.70
-21.06
-24.04
-27.75
-32.00
-36.16
-39.26
-40.23
-38.29
-33.29
-25.84
-17.09
-8.40
-0.83
5.03
9.15
11.85
13.54
14.61
15.28
15.70
15.93
16.05
16.14
16.27
16.48
16.72
16.89
16.87
16.57
16.00
15.27
14.64
14.32
14.44
14.95
15.61
16.09
16.10
15.43
13.98
11.80
9.00
5.80
2.45
-0.77
-3.67
-6.27
-8.81
-11.67
-15.25
-19.72
-24.80
-29.74
-33.44
-34.77
-33.01
-28.11
-20.82
-12.43
-4.35
2.35
7.24
10.53
12.82
14.72
16.65
18.71
20.77
22.67
24.28
25.53
26.40
26.88
26.93
26.59
25.89
24.91
23.74
22.44
21.06
19.65
18.30
17.10
16.08
15.15
14.08
12.55
10.25
7.00
2.88
-1.85
-6.75
-11.41
-15.52
-18.99
-21.91
-24.48
-26.98
-29.64
-32.67
-36.08
-39.60
-42.64
-44.36
-43.96
-40.93
-35.34
-27.82
-19.39
-11.12
-3.87
1.88
6.00
8.64
10.12
10.83
11.21
11.64
12.37
13.48
14.86
16.30
17.58
18.51
19.00
19.05
18.72
18.09
17.25
16.29
15.25
14.12
12.92
11.64
10.31
8.91
7.40
5.71
3.77
1.59
-0.75
-3.14
-5.44
-7.61
-9.70
-11.82
-14.13
-16.79
-19.90
-23.57
-27.77
-32.28
-36.63
-40.06
-41.67
-40.67
-36.76
-30.27
-22.18
-13.79
-6.30
-0.48
3.55
6.13
7.84
9.14
10.32
11.44
12.54
13.67
14.93
16.41
18.10
19.82
21.28
22.20
22.35
21.69
20.36
18.62
16.77
15.08
13.67
12.54
11.60
10.71
9.76
8.68
7.39
5.78
3.70
1.09
-2.02
-5.44
-8.87
-12.04
-14.79
-17.15
-19.38
-21.86
-24.99
-29.03
-33.96
-39.35
-44.32
-47.69
-48.32
-45.52
-39.32
-30.54
-20.49
-10.63
-2.12
4.47
9.10
12.13
14.10
15.55
16.89
18.38
20.06
21.79
23.31
24.34
24.67
24.26
23.23
21.81
20.27
18.88
17.81
17.10
16.65
16.21
15.51
14.34
12.66
10.60
8.46
6.51
4.98
3.95
3.36
3.05
2.84
2.50
1.78
0.48
-1.56
-4.40
-8.00
-12.28
-17.12
-22.32
-27.54
-32.22
-35.62
-37.00
-35.88
-32.25
-26.61
-19.83
-12.81
-6.25
-0.47
4.46
8.59
11.93
14.36
15.78
16.19
15.83
15.08
14.41
14.13
14.28
14.68
14.99
14.95
14.45
13.59
12.56
11.55
10.61
9.67
8.56
7.16
5.38
3.25
0.84
-1.74
-4.42
-7.14
-9.87
-12.65
-15.54
-18.63
-21.98
-25.62
-29.44
-33.17
-36.34
-38.33
-38.50
-36.40
-31.98
-25.70
-18.40
-11.14
-4.77
0.30
4.17
7.28
10.03
12.60
14.83
16.40
17.05
16.77
15.87
14.77
13.84
13.22
12.86
12.57
12.20
11.75
11.27
10.81
10.28
9.45
8.04
5.84
2.87
-0.69
-4.48
-8.19
-11.63
-14.83
-18.00
-21.38
-25.10
-29.04
-32.79
-35.63
-36.81
-35.74
-32.29
-26.83
-20.21
-13.44
-7.37
-2.44
1.38
4.41
7.10
9.73
12.40
14.99
17.30
19.18
20.53
21.36
21.75
21.77
21.48
20.97
20.30
19.58
18.92
18.37
17.84
17.11
15.89
13.97
11.28
8.03
4.55
1.24
-1.67
-4.17
-6.50
-9.06
-12.25
-16.32
-21.21
-26.48
-31.33
-34.81
-36.06
-34.59
-30.51
-24.49
-17.55
-10.66
-4.53
0.64
5.04
9.09
13.09
17.11
20.92
24.21
26.66
28.20
28.90
28.94
28.49
27.66
26.53
25.21
23.90
22.76
21.90
21.26
20.61
19.69
18.34
16.53
14.35
11.94
9.39
6.72
3.93
1.02
-1.96
-4.91
-7.76
-10.47
-13.08
-15.67
-18.32
-21.11
-24.15
-27.55
-31.34
-35.33
-39.03
-41.65
-42.34
-40.50
-36.04
-29.48
-21.79
-14.03
-6.96
-0.86
4.46
9.41
14.35
19.39
24.38
28.97
32.78
35.51
37.07
37.51
37.04
35.90
34.36
32.62
30.95
29.54
28.56
28.03
27.80
27.59
27.06
25.99
24.41
22.55
20.74
19.26
18.16
17.31
16.42
15.18
13.46
11.31
8.96
6.77
5.00
3.77
2.90
2.06
0.89
-0.83
-3.13
-5.80
-8.54
-11.12
-13.45
-15.61
-17.82
-20.46
-23.89
-28.36
-33.80
-39.67
-44.98
-48.50
-49.16
-46.45
-40.64
-32.70
-23.97
-15.74
-8.89
-3.70
0.05
2.87
5.30
7.75
10.39
13.23
16.13
18.88
21.33
23.32
24.78
25.69
26.08
26.02
25.63
25.09
24.56
24.16
23.86
23.58
23.10
22.25
20.98
19.39
17.73
16.24
15.07
14.16
13.31
12.29
10.96
9.33
7.55
5.77
4.11
2.49
0.79
-1.12
-3.27
-5.58
-7.91
-10.14
-12.28
-14.47
-16.95
-19.93
-23.57
-27.86
-32.60
-37.36
-41.48
-44.14
-44.50
-42.01
-36.65
-29.00
-20.19
-11.53
-4.16
1.32
4.93
7.17
8.77
10.33
12.17
14.27
16.44
18.46
20.24
21.77
23.14
24.37
25.42
26.15
26.44
26.23
25.59
24.68
23.65
22.67
21.77
20.96
20.19
19.35
18.36
17.10
15.53
13.63
11.55
9.47
7.57
5.92
4.44
2.89
1.02
-1.33
-4.14
-7.20
-10.21
-12.92
-15.23
-17.21
-19.06
-21.08
-23.59
-26.82
-30.80
-35.26
-39.53
-42.67
-43.69
-41.88
-37.12
-29.95
-21.46
-12.97
-5.60
-0.04
3.55
5.50
6.41
6.90
7.46
8.34
9.50
10.77
11.91
12.72
13.10
13.10
12.81
12.38
11.94
11.60
11.38
11.24
11.07
10.73
10.08
9.02
7.47
5.45
3.06
0.45
-2.14
-4.52
-6.56
-8.27
-9.79
-11.27
-12.82
-14.53
-16.40
-18.49
-20.91
-23.73
-26.92
-30.14
-32.82
-34.19
-33.56
-30.61
-25.52
-18.98
-11.99
-5.51
-0.27
3.49
5.91
7.38
8.28
8.88
9.32
9.62
9.86
10.14
10.59
11.24
12.01
12.72
13.18
13.27
13.01
12.52
11.88
11.12
10.19
8.99
7.48
5.67
3.62
1.38
-0.99
-3.41
-5.79
-7.99
-9.96
-11.77
-13.66
-15.96
-18.96
-22.71
-26.92
-30.95
-33.98
-35.21
-34.16
-30.80
-25.52
-19.08
-12.34
-6.09
-0.83
3.22
6.14
8.19
9.75
11.18
12.77
14.66
16.77
18.79
20.21
20.44
18.93
15.43
10.14
3.75
-2.65
-7.89
-11.01
-11.54
-9.50
-5.36
0.21
6.46
12.62
17.91
21.53
22.81
21.33
17.06
10.44
2.26
-6.49
-14.78
-21.72
-26.65
-29.26
-29.70
-28.53
-26.64
-24.90
-23.85
-23.48
-23.27
-22.45
-20.47
-17.29
-13.40
-9.59
-6.54
-4.50
-3.20
-2.03
-0.35
2.21
5.62
9.56
13.51
16.99
19.66
21.35
22.03
21.82
20.85
19.29
17.28
15.00
12.69
10.66
9.19
8.49
8.54
9.18
10.07
10.91
11.44
11.59
11.35
10.78
9.91
8.74
7.21
5.23
2.77
-0.16
-3.37
-6.53
-9.27
-11.30
-12.55
-13.28
-13.98
-15.21
-17.39
-20.68
-24.90
-29.60
-34.13
-37.67
-39.42
-38.75
-35.41
-29.74
-22.61
-15.20
-8.64
-3.66
-0.41
1.50
2.75
4.02
5.76
8.10
10.89
13.82
16.59
18.96
20.82
22.09
22.80
22.95
22.68
22.18
21.73
21.54
21.73
22.21
22.72
22.98
22.75
21.95
20.62
18.88
16.90
14.87
12.97
11.33
10.03
9.01
8.11
7.13
5.91
4.39
2.58
0.57
-1.53
-3.63
-5.64
-7.46
-9.05
-10.46
-11.89
-13.65
-16.17
-19.75
-24.39
-29.63
-34.53
-37.89
-38.65
-36.26
-30.93
-23.60
-15.62
-8.27
-2.39
1.75
4.45
6.28
7.82
9.47
11.40
13.57
15.78
17.80
19.47
20.73
21.63
22.29
22.80
23.16
23.32
23.15
22.59
21.64
20.39
18.98
17.50
15.97
14.39
12.68
10.82
8.84
6.84
4.97
3.35
1.99
0.76
-0.58
-2.26
-4.40
-6.90
-9.54
-12.02
-14.16
-16.00
-17.79
-19.90
-22.69
-26.31
-30.65
-35.24
-39.34
-42.08
-42.63
-40.48
-35.62
-28.60
-20.44
-12.37
-5.45
-0.33
2.88
4.58
5.40
5.99
6.78
7.94
9.46
11.22
13.11
15.03
16.90
18.57
19.86
20.59
20.68
20.13
19.05
17.60
15.93
14.16
12.34
10.44
8.38
6.07
3.50
0.76
-2.01
-4.61
-6.94
-9.07
-11.23
-13.72
-16.79
-20.56
-24.95
-29.75
-34.52
-38.63
-41.36
-41.96
-39.96
-35.32
-28.63
-20.93
-13.40
-7.04
-2.27
1.07
3.57
5.89
8.46
11.33
14.21
16.71
18.54
19.65
20.15
20.27
20.21
20.11
20.00
19.86
19.70
19.46
19.14
18.70
18.11
17.28
16.13
14.59
12.62
10.23
7.55
4.76
2.05
-0.39
-2.51
-4.34
-6.00
-7.68
-9.55
-11.82
-14.67
-18.21
-22.42
-27.02
-31.40
-34.72
-36.07
-34.83
-30.88
-24.77
-17.51
-10.31
-4.08
0.73
4.29
7.11
9.82
12.80
16.13
19.56
22.74
25.36
27.27
28.53
29.28
29.69
29.82
29.68
29.24
28.53
27.63
26.65
25.71
24.85
24.01
23.07
21.88
20.34
18.44
16.24
13.85
11.42
9.06
6.90
5.01
3.44
2.14
0.98
-0.25
-1.79
-3.81
-6.31
-9.10
-11.93
-14.57
-16.96
-19.24
-21.72
-24.74
-28.54
-33.13
-38.21
-43.15
-47.07
-49.05
-48.35
-44.71
-38.46
-30.45
-21.89
-13.94
-7.39
-2.51
0.91
3.42
5.62
7.92
10.51
13.35
16.28
19.08
21.56
23.53
24.86
25.52
25.62
25.41
25.19
25.22
25.58
26.17
26.77
27.11
27.00
26.31
24.99
23.12
20.91
18.68
16.80
15.54
14.91
14.58
14.07
12.96
11.05
8.54
5.82
3.35
1.37
-0.20
-1.65
-3.38
-5.66
-8.47
-11.57
-14.55
-17.07
-18.99
-20.48
-21.94
-23.87
-26.71
-30.70
-35.77
-41.45
-46.94
-51.14
-52.93
-51.46
-46.46
-38.37
-28.31
-17.76
-8.08
-0.23
5.48
9.30
11.73
13.35
14.55
15.56
16.46
17.30
18.15
19.07
20.09
21.13
21.99
22.47
22.47
22.00
21.31
20.70
20.47
20.73
21.34
22.01
22.39
22.27
21.66
20.76
19.78
18.87
17.98
16.89
15.40
13.40
10.97
8.35
5.80
3.52
1.56
-0.20
-1.94
-3.84
-6.00
-8.43
-11.02
-13.67
-16.33
-19.00
-21.81
-24.89
-28.34
-32.21
-36.42
-40.72
-44.66
-47.54
-48.54
-46.95
-42.43
-35.23
-26.24
-16.76
-8.09
-1.15
3.73
6.80
8.66
9.96
11.23
12.76
14.65
16.88
19.34
21.87
24.29
26.39
28.00
29.03
29.51
29.53
29.27
28.91
28.54
28.17
27.70
27.05
26.15
25.01
23.71
22.32
20.85
19.22
17.35
15.22
12.91
10.62
8.56
6.86
5.50
4.26
2.79
0.77
-1.98
-5.42
-9.24
-13.05
-16.46
-19.24
-21.37
-23.03
-24.56
-26.37
-28.83
-32.16
-36.22
-40.48
-43.97
-45.57
-44.32
-39.87
-32.64
-23.76
-14.66
-6.64
-0.53
3.48
5.72
6.80
7.36
7.89
8.68
9.80
11.11
12.38
13.33
13.79
13.78
13.47
13.12
12.96
13.04
13.25
13.34
13.08
12.34
11.11
9.54
7.80
6.04
4.35
2.72
1.11
-0.58
-2.43
-4.51
-6.79
-9.18
-11.50
-13.60
-15.39
-16.95
-18.52
-20.46
-23.11
-26.58
-30.62
-34.60
-37.63
-38.72
-37.21
-32.92
-26.30
-18.34
-10.28
-3.25
2.06
5.52
7.51
8.70
9.70
10.85
12.19
13.56
14.76
15.73
16.54
17.30
18.02
18.60
18.79
18.40
17.42
16.04
14.61
13.48
12.84
12.63
12.57
12.25
11.24
9.32
6.53
3.19
-0.26
-3.41
-6.06
-8.36
-10.66
-13.46
-17.10
-21.65
-26.78
-31.83
-35.92
-38.14
-37.82
-34.73
-29.20
-22.07
-14.42
-7.31
-1.43
3.02
6.31
8.92
11.33
13.79
16.26
18.49
20.11
20.87
20.69
19.78
18.54
17.40
16.69
16.48
16.59
16.69
16.44
15.71
14.52
13.05
11.49
9.92
8.32
6.58
4.62
2.38
-0.16
-2.95
-5.92
-8.95
-11.87
-14.50
-16.73
-18.56
-20.22
-22.09
-24.61
-28.09
-32.48
-37.26
-41.45
-43.82
-43.39
-39.78
-33.49
-25.71
-17.94
-11.43
-6.77
-3.86
-2.08
-0.71
0.81
2.69
4.90
7.25
9.54
11.57
13.19
14.30
14.85
14.93
14.74
14.61
14.85
15.74
17.33
19.52
21.99
24.30
25.97
26.64
26.07
24.30
21.59
18.38
15.12
12.10
9.39
6.87
4.30
1.60
-1.16
-3.67
-5.61
-6.78
-7.30
-7.57
-8.23
-9.96
-13.30
-18.46
-25.17
-32.66
-39.68
-44.77
-46.65
-44.60
-38.77
-30.18
-20.38
-11.00
-3.24
2.37
5.97
8.13
9.61
11.06
12.88
15.27
18.14
21.28
24.39
27.15
29.38
31.03
32.16
32.85
33.18
33.11
32.58
31.61
30.28
28.78
27.26
25.80
24.37
22.90
21.31
19.58
17.76
15.89
13.98
12.00
9.87
7.50
4.88
2.06
-0.83
-3.60
-6.03
-8.00
-9.49
-10.69
-11.94
-13.64
-16.11
-19.48
-23.65
-28.25
-32.75
-36.45
-38.66
-38.82
-36.65
-32.30
-26.32
-19.53
-12.79
-6.77
-1.85
1.98
4.96
7.48
9.85
12.26
14.69
17.03
19.12
20.88
22.36
23.61
24.65
25.39
25.68
25.44
24.76
23.90
23.18
22.76
22.54
22.26
21.62
20.43
18.75
16.79
14.76
12.85
11.16
9.67
8.36
7.08
5.68
3.93
1.71
-1.01
-4.05
-7.17
-10.07
-12.63
-14.89
-17.04
-19.38
-22.20
-25.76
-30.11
-35.05
-40.00
-44.09
-46.28
-45.74
-42.15
-35.87
-27.85
-19.34
-11.46
-4.93
0.07
3.74
6.53
8.87
11.04
13.19
15.34
17.43
19.34
20.99
22.28
23.20
23.80
24.22
24.60
25.08
25.71
26.49
27.29
27.93
28.16
27.76
26.54
24.47
21.73
18.63
15.58
12.95
11.00
9.71
8.84
7.99
6.66
4.49
1.39
-2.46
-6.57
-10.41
-13.59
-16.01
-17.97
-20.01
-22.67
-26.30
-30.82
-35.71
-40.03
-42.77
-43.00
-40.27
-34.72
-27.12
-18.68
-10.66
-4.02
0.82
4.00
6.05
7.57
9.00
10.50
12.00
13.37
14.48
15.27
15.78
16.04
16.09
15.96
15.64
15.17
14.55
13.78
12.85
11.73
10.39
8.77
6.85
4.66
2.27
-0.16
-2.45
-4.50
-6.29
-7.89
-9.47
-11.13
-12.96
-15.03
-17.41
-20.23
-23.56
-27.30
-31.07
-34.25
-36.03
-35.75
-33.06
-28.13
-21.62
-14.46
-7.59
-1.73
2.84
6.18
8.57
10.27
11.46
12.16
12.36
12.14
11.68
11.20
10.84
10.60
10.26
9.56
8.35
6.72
5.00
3.64
2.94
2.91
3.23
3.40
2.95
1.67
-0.31
-2.61
-4.79
-6.57
-7.98
-9.42
-11.48
-14.73
-19.46
-25.48
-32.06
-38.03
-42.08
-43.17
-40.87
-35.46
-27.92
-19.55
-11.58
-4.89
0.23
3.94
6.70
8.98
11.08
13.08
14.88
16.32
17.36
18.10
18.74
19.48
20.38
21.33
22.10
22.44
22.26
21.59
20.58
19.37
18.04
16.50
14.60
12.22
9.33
6.05
2.64
-0.56
-3.27
-5.37
-7.01
-8.55
-10.48
-13.22
-16.99
-21.73
-27.01
-32.11
-36.12
-38.14
-37.53
-34.13
-28.35
-21.09
-13.51
-6.65
-1.15
2.86
5.69
7.81
9.66
11.50
13.47
15.55
17.74
19.94
22.02
23.73
24.83
25.16
24.72
23.68
22.38
21.15
20.20
19.56
19.10
18.56
17.71
16.38
14.58
12.47
10.27
8.21
6.38
4.78
3.24
1.60
-0.24
-2.27
-4.41
-6.53
-8.53
-10.46
-12.47
-14.83
-17.81
-21.60
-26.13
-31.00
-35.49
-38.62
-39.49
-37.52
-32.73
-25.75
-17.67
-9.71
-2.83
2.51
6.36
9.15
11.41
13.60
15.92
18.34
20.68
22.73
24.30
25.31
25.83
26.01
26.03
26.00
25.98
25.92
25.75
25.44
24.99
24.44
23.82
23.13
22.34
21.44
20.42
19.29
18.07
16.77
15.36
13.81
12.09
10.21
8.26
6.34
4.55
2.90
1.27
-0.51
-2.62
-5.11
-7.85
-10.60
-13.11
-15.31
-17.37
-19.70
-22.69
-26.50
-30.88
-35.11
-38.25
-39.41
-38.04
-34.16
-28.30
-21.39
-14.42
-8.21
-3.22
0.50
3.19
5.29
7.20
9.19
11.32
13.46
15.41
16.94
17.95
18.46
18.62
18.60
18.55
18.48
18.32
17.96
17.37
16.60
15.74
14.84
13.84
12.60
11.05
9.21
7.26
5.41
3.71
2.06
0.23
-1.91
-4.29
-6.62
-8.57
-9.98
-11.04
-12.21
-14.07
-17.07
-21.30
-26.46
-31.83
-36.42
-39.17
-39.25
-36.32
-30.70
-23.30
-15.40
-8.20
-2.44
1.71
4.62
6.87
8.92
10.97
12.94
14.58
15.71
16.25
16.31
16.08
15.75
15.42
15.13
14.79
14.32
13.65
12.78
11.73
10.55
9.21
7.62
5.72
3.51
1.07
-1.41
-3.81
-6.07
-8.25
-10.50
-12.95
-15.67
-18.65
-21.82
-25.12
-28.46
-31.80
-35.06
-38.10
-40.69
-42.45
-42.94
-41.72
-38.54
-33.45
-26.86
-19.41
-11.76
-4.43
2.33
8.45
13.92
18.60
22.24
24.57
25.46
25.07
23.85
22.39
21.28
20.86
21.15
21.89
22.65
23.04
22.80
21.92
20.61
19.12
17.73
16.53
15.45
14.30
12.86
10.99
8.69
6.09
3.41
0.85
-1.45
-3.42
-5.08
-6.57
-8.13
-10.16
-13.05
-17.05
-22.04
-27.42
-32.16
-35.10
-35.30
-32.44
-26.93
-19.83
-12.43
-5.91
-1.03
2.05
3.67
4.52
5.32
6.66
8.80
11.62
14.70
17.53
19.71
21.09
21.82
22.16
22.39
22.64
22.88
23.06
23.13
23.13
23.10
22.97
22.57
21.68
20.17
18.14
15.85
13.69
11.98
10.83
10.10
9.47
8.59
7.20
5.19
2.61
-0.35
-3.45
-6.47
-9.24
-11.67
-13.80
-15.77
-17.82
-20.26
-23.35
-27.28
-31.99
-37.09
-41.86
-45.36
-46.70
-45.32
-41.21
-34.92
-27.39
-19.65
-12.53
-6.51
-1.73
1.92
4.63
6.67
8.30
9.76
11.30
13.01
14.95
17.02
19.06
20.89
22.35
23.30
23.70
23.56
22.96
22.04
20.94
19.75
18.48
17.13
15.74
14.37
13.16
12.18
11.45
10.86
10.26
9.51
8.56
7.42
6.22
5.07
4.04
3.12
2.20
1.12
-0.24
-1.97
-3.99
-6.15
-8.26
-10.20
-11.95
-13.63
-15.41
-17.50
-20.13
-23.45
-27.50
-32.01
-36.33
-39.44
-40.21
-37.78
-32.00
-23.60
-13.98
-4.82
2.52
7.34
9.69
10.14
9.47
8.47
7.72
7.67
8.57
10.47
13.17
16.25
19.19
21.48
22.76
22.95
22.20
20.88
19.42
18.21
17.44
17.07
16.80
16.26
15.14
13.33
10.95
8.27
5.60
3.13
0.91
-1.11
-3.06
-5.05
-7.14
-9.34
-11.60
-13.82
-15.87
-17.65
-19.11
-20.34
-21.52
-22.96
-24.98
-27.80
-31.37
-35.26
-38.68
-40.60
-40.14
-36.85
-30.95
-23.25
-14.94
-7.17
-0.78
3.92
7.09
9.18
10.74
12.18
13.72
15.31
16.79
17.96
18.69
18.95
18.89
18.70
18.54
18.48
18.46
18.30
17.86
16.98
15.62
13.76
11.43
8.69
5.62
2.31
-1.03
-4.09
-6.53
-8.06
-8.55
-8.19
-7.45
-7.01
-7.56
-9.61
-13.36
-18.64
-24.99
-31.72
-38.02
-43.05
-46.02
-46.34
-43.75
-38.50
-31.31
-23.23
-15.39
-8.61
-3.26
0.77
3.88
6.51
8.94
11.22
13.17
14.60
15.40
15.64
15.49
15.15
14.77
14.37
13.96
13.57
13.25
13.14
13.29
13.69
14.22
14.68
14.85
14.57
13.70
12.16
9.90
6.98
3.60
0.07
-3.25
-6.06
-8.25
-9.92
-11.32
-12.81
-14.79
-17.64
-21.63
-26.75
-32.57
-38.19
-42.40
-43.99
-42.22
-37.05
-29.26
-20.16
-11.13
-3.30
2.80
7.12
10.05
12.17
14.00
15.92
18.06
20.39
22.70
24.74
26.29
27.25
27.59
27.43
26.94
26.32
25.72
25.19
24.69
24.05
23.05
21.49
19.26
16.40
13.11
9.73
6.71
4.45
3.18
2.88
3.20
3.63
3.63
2.84
1.19
-1.14
-3.88
-6.81
-9.83
-13.03
-16.54
-20.46
-24.75
-29.18
-33.35
-36.72
-38.65
-38.58
-36.20
-31.54
-25.09
-17.65
-10.17
-3.46
2.02
6.23
9.48
12.17
14.67
17.14
19.56
21.78
23.66
25.12
26.16
26.80
27.07
27.02
26.69
26.13
25.39
24.54
23.64
22.73
21.87
21.05
20.20
19.16
17.75
15.81
13.36
10.65
8.07
5.91
4.29
2.97
1.53
-0.41
-2.98
-5.98
-8.97
-11.53
-13.49
-15.01
-16.53
-18.59
-21.58
-25.63
-30.57
-35.87
-40.75
-44.25
-45.48
-43.83
-39.24
-32.23
-23.80
-15.15
-7.31
-0.95
3.74
6.95
9.10
10.68
12.13
13.78
15.78
18.04
20.33
22.34
23.82
24.71
25.09
25.14
25.06
24.95
24.77
24.44
23.86
23.00
21.92
20.75
19.63
18.65
17.76
16.84
15.72
14.30
12.61
10.81
9.12
7.74
6.69
5.87
5.02
3.92
2.41
0.50
-1.69
-4.00
-6.30
-8.56
-10.87
-13.38
-16.29
-19.78
-23.98
-28.86
-34.17
-39.32
-43.41
-45.45
-44.62
-40.68
-34.06
-25.76
-17.10
-9.24
-2.91
1.68
4.76
6.79
8.32
9.78
11.47
13.50
15.79
18.14
20.29
22.06
23.37
24.30
24.94
25.35
25.51
25.34
24.81
23.96
22.96
21.99
21.17
20.46
19.72
18.75
17.43
15.76
13.87
11.97
10.23
8.72
7.45
6.27
5.00
3.40
1.24
-1.59
-5.04
-8.89
-12.75
-16.27
-19.18
-21.44
-23.21
-24.82
-26.63
-28.95
-31.88
-35.26
-38.62
-41.20
-42.21
-40.99
-37.28
-31.32
-23.80
-15.70
-7.97
-1.37
3.68
7.15
9.33
10.66
11.55
12.29
12.98
13.57
14.00
14.31
14.63
15.10
15.74
16.39
16.78
16.64
15.83
14.48
12.88
11.34
10.03
8.86
7.56
5.76
3.25
0.05
-3.55
-7.14
-10.33
-12.92
-14.91
-16.45
-17.80
-19.20
-20.91
-23.13
-26.02
-29.54
-33.35
-36.80
-39.03
-39.25
-37.00
-32.32
-25.80
-18.32
-10.83
-4.12
1.35
5.36
7.96
9.34
9.84
9.85
9.78
9.90
10.32
10.89
11.32
11.29
10.63
9.36
7.71
6.04
4.73
4.12
4.38
5.56
7.50
9.84
12.09
13.75
14.40
13.85
12.10
9.31
5.63
1.16
-4.07
-10.08
-16.75
-23.72
-30.33
-35.72
-38.92
-39.19
-36.29
-30.57
-23.02
-14.97
-7.71
-2.09
1.67
3.92
5.25
6.23
7.16
8.05
8.84
9.54
10.31
11.39
12.95
14.97
17.21
19.27
20.75
21.41
21.18
20.20
18.71
16.95
15.04
12.93
10.48
7.49
3.88
-0.19
-4.31
-7.93
-10.53
-11.91
-12.28
-12.19
-12.36
-13.39
-15.60
-19.00
-23.29
-27.93
-32.18
-35.18
-36.07
-34.25
-29.60
-22.65
-14.47
-6.32
0.72
6.07
9.75
12.22
14.11
15.96
18.03
20.30
22.56
24.54
26.01
26.89
27.21
27.10
26.68
26.05
25.23
24.27
23.25
22.24
21.36
20.61
19.95
19.26
18.40
17.25
15.77
13.92
11.64
8.87
5.56
1.75
-2.36
-6.44
-10.18
-13.35
-16.01
-18.40
-20.90
-23.86
-27.50
-31.76
-36.32
-40.54
-43.56
-44.49
-42.69
-38.05
-31.12
-22.99
-14.96
-8.07
-2.86
0.71
3.06
4.69
5.93
6.85
7.34
7.23
6.47
5.16
3.56
2.02
0.83
0.27
0.49
1.61
3.70
6.76
10.67
15.15
19.74
23.89
27.12
29.18
30.12
30.25
29.98
29.57
29.06
28.22
26.65
24.07
20.45
16.08
11.52
7.34
3.95
1.34
-0.85
-3.25
-6.50
-10.94
-16.41
-22.19
-27.14
-30.04
-29.96
-26.58
-20.32
-12.25
-3.73
3.95
9.86
13.62
15.39
15.73
15.37
15.03
15.24
16.23
17.95
20.08
22.17
23.79
24.64
24.62
23.90
22.81
21.72
20.99
20.75
20.92
21.20
21.22
20.63
19.29
17.23
14.68
11.92
9.22
6.73
4.52
2.51
0.58
-1.42
-3.62
-6.09
-8.82
-11.77
-14.88
-18.16
-21.67
-25.50
-29.61
-33.76
-37.39
-39.78
-40.23
-38.34
-34.21
-28.44
-22.03
-16.01
-11.17
-7.86
-5.91
-4.78
-3.83
-2.53
-0.60
1.91
4.78
7.74
10.59
13.23
15.59
17.53
18.77
19.04
18.15
16.17
13.45
10.51
7.84
5.76
4.27
3.17
2.18
1.04
-0.37
-2.02
-3.79
-5.57
-7.27
-8.92
-10.68
-12.79
-15.46
-18.78
-22.57
-26.34
-29.36
-30.80
-30.06
-26.91
-21.70
-15.18
-8.32
-1.96
3.32
7.33
10.21
12.19
13.55
14.46
15.03
15.35
15.54
15.77
16.21
16.98
18.10
19.46
20.83
21.90
22.38
22.06
20.91
19.10
16.93
14.74
12.79
11.20
9.85
8.45
6.69
4.38
1.53
-1.64
-4.74
-7.42
-9.48
-10.95
-12.10
-13.34
-15.11
-17.75
-21.34
-25.62
-29.97
-33.45
-35.00
-33.87
-29.85
-23.50
-16.03
-8.87
-3.17
0.61
2.72
3.99
5.32
7.31
10.10
13.41
16.77
19.72
21.96
23.41
24.10
24.11
23.59
22.69
21.65
20.68
19.97
19.62
19.55
19.58
19.45
18.91
17.84
16.20
14.10
11.75
9.39
7.28
5.55
4.20
3.05
1.84
0.36
-1.51
-3.69
-6.02
-8.29
-10.36
-12.22
-13.95
-15.72
-17.75
-20.23
-23.34
-27.12
-31.34
-35.52
-38.89
-40.58
-39.94
-36.72
-31.24
-24.26
-16.77
-9.67
-3.58
1.26
4.85
7.41
9.23
10.62
11.91
13.32
14.97
16.79
18.53
19.93
20.77
21.00
20.76
20.27
19.77
19.40
19.19
19.07
18.91
18.61
18.09
17.36
16.41
15.26
13.91
12.39
10.76
9.17
7.73
6.50
5.42
4.33
3.07
1.56
-0.15
-1.92
-3.64
-5.28
-6.93
-8.73
-10.74
-12.91
-15.06
-16.99
-18.58
-19.91
-21.23
-22.92
-25.30
-28.46
-32.12
-35.55
-37.80
-37.90
-35.28
-29.95
-22.56
-14.20
-6.04
1.04
6.57
10.56
13.29
15.14
16.47
17.45
18.18
18.69
19.05
19.37
19.78
20.38
21.16
22.07
22.97
23.76
24.35
24.69
24.70
24.27
23.28
21.65
19.42
16.80
14.10
11.65
9.65
8.11
6.87
5.73
4.48
3.10
1.65
0.26
-1.01
-2.24
-3.62
-5.39
-7.71
-10.61
-13.93
-17.39
-20.69
-23.57
-25.89
-27.72
-29.28
-30.94
-33.00
-35.61
-38.59
-41.40
-43.29
-43.54
-41.72
-37.88
-32.53
-26.45
-20.55
-15.54
-11.84
-9.50
-8.31
-7.79
-7.41
-6.69
-5.34
-3.27
-0.66
2.20
5.02
7.60
9.85
11.76
13.35
14.59
15.49
16.07
16.42
16.63
16.70
16.51
15.82
14.36
11.99
8.74
4.94
1.04
-2.47
-5.25
-7.24
-8.63
-9.78
-11.09
-12.88
-15.36
-18.51
-22.13
-25.76
-28.74
-30.27
-29.67
-26.54
-21.00
-13.65
-5.46
2.50
9.30
14.34
17.46
18.86
19.00
18.44
17.72
17.25
17.21
17.58
18.17
18.74
19.03
18.88
18.23
17.12
15.66
14.02
12.39
10.94
9.80
8.98
8.37
7.73
6.78
5.33
3.29
0.82
-1.80
-4.25
-6.27
-7.77
-8.85
-9.75
-10.80
-12.36
-14.75
-18.08
-22.23
-26.75
-30.92
-33.85
-34.79
-33.27
-29.34
-23.48
-16.54
-9.47
-3.07
2.17
6.16
9.09
11.28
13.05
14.61
16.07
17.42
18.64
19.69
20.56
21.23
21.66
21.83
21.75
21.43
20.96
20.46
20.04
19.76
19.60
19.45
19.13
18.48
17.39
15.81
13.83
11.62
9.34
7.15
5.15
3.34
1.64
-0.03
-1.78
-3.62
-5.51
-7.35
-9.06
-10.70
-12.42
-14.51
-17.28
-20.92
-25.42
-30.46
-35.42
-39.43
-41.58
-41.13
-37.74
-31.67
-23.69
-14.93
-6.54
0.54
5.87
9.48
11.76
13.23
14.41
15.60
16.93
18.36
19.79
21.10
22.19
22.99
23.47
23.63
23.52
23.23
22.88
22.53
22.21
21.84
21.31
20.50
19.38
17.94
16.24
14.37
12.38
10.34
8.28
6.24
4.26
2.37
0.61
-1.01
-2.49
-3.88
-5.30
-6.87
-8.73
-10.95
-13.49
-16.17
-18.70
-20.82
-22.36
-23.37
-24.09
-24.98
-26.52
-29.05
-32.57
-36.60
-40.22
-42.31
-41.85
-38.35
-32.02
-23.75
-14.83
-6.54
0.22
5.17
8.59
11.01
13.00
14.83
16.47
17.68
18.20
17.92
17.04
15.97
15.19
14.99
15.43
16.23
16.96
17.23
16.83
15.80
14.38
12.83
11.33
9.88
8.33
6.52
4.37
1.94
-0.55
-2.88
-4.85
-6.41
-7.63
-8.62
-9.52
-10.42
-11.38
-12.49
-13.85
-15.59
-17.87
-20.76
-24.26
-28.22
-32.33
-36.15
-39.10
-40.52
-39.89
-36.97
-31.94
-25.46
-18.47
-11.91
-6.46
-2.32
0.74
3.26
5.73
8.46
11.45
14.44
17.10
19.17
20.57
21.33
21.61
21.55
21.32
21.03
20.80
20.71
20.80
21.05
21.38
21.70
21.88
21.83
21.40
20.46
18.91
16.78
14.23
11.60
9.21
7.24
5.60
4.04
2.24
0.06
-2.47
-5.11
-7.64
-9.94
-12.10
-14.38
-17.05
-20.30
-24.22
-28.66
-33.22
-37.28
-40.00
-40.56
-38.41
-33.57
-26.63
-18.68
-10.93
-4.32
0.70
4.22
6.71
8.69
10.58
12.56
14.59
16.53
18.18
19.45
20.30
20.83
21.17
21.43
21.72
22.05
22.42
22.80
23.19
23.59
23.98
24.31
24.48
24.34
23.75
22.65
21.03
19.01
16.79
14.53
12.34
10.25
8.17
5.99
3.61
1.01
-1.71
-4.34
-6.65
-8.45
-9.76
-10.78
-11.88
-13.52
-16.06
-19.72
-24.45
-29.98
-35.72
-40.91
-44.61
-45.97
-44.44
-39.95
-33.03
-24.72
-16.22
-8.62
-2.62
1.65
4.49
6.43
8.01
9.60
11.34
13.21
15.14
17.09
19.07
21.10
23.11
24.92
26.32
27.07
27.11
26.52
25.50
24.33
23.20
22.17
21.19
20.17
18.99
17.62
16.11
14.52
12.91
11.28
9.63
7.95
6.26
4.61
2.99
1.32
-0.52
-2.65
-5.06
-7.62
-10.12
-12.37
-14.34
-16.18
-18.19
-20.76
-24.16
-28.44
-33.28
-38.00
-41.63
-43.20
-42.04
-38.02
-31.62
-23.77
-15.54
-7.84
-1.27
3.93
7.76
10.42
12.20
13.47
14.62
15.96
17.63
19.52
21.40
22.93
23.86
24.12
23.78
23.05
22.16
21.27
20.45
19.68
18.90
18.07
17.16
16.19
15.15
14.04
12.80
11.44
10.03
8.73
7.68
6.94
6.35
5.58
4.23
2.00
-1.14
-4.86
-8.62
-11.85
-14.21
-15.69
-16.62
-17.52
-18.89
-21.13
-24.37
-28.52
-33.22
-37.85
-41.61
-43.66
-43.35
-40.47
-35.35
-28.80
-21.88
-15.52
-10.25
-6.13
-2.82
0.11
2.99
5.90
8.75
11.39
13.78
15.97
18.07
20.07
21.84
23.17
23.88
23.96
23.54
22.77
21.75
20.39
18.53
16.00
12.79
9.11
5.27
1.64
-1.55
-4.21
-6.39
-8.22
-9.83
-11.37
-13.01
-14.96
-17.48
-20.73
-24.73
-29.13
-33.26
-36.24
-37.22
-35.66
-31.53
-25.32
-17.94
-10.36
-3.41
2.41
7.00
10.51
13.23
15.44
17.34
18.98
20.36
21.40
22.03
22.23
21.99
21.38
20.55
19.71
19.07
18.80
18.93
19.32
19.68
19.67
19.02
17.67
15.75
13.55
11.39
9.42
7.62
5.82
3.84
1.59
-0.85
-3.28
-5.54
-7.56
-9.47
-11.47
-13.78
-16.58
-19.97
-23.90
-28.17
-32.33
-35.67
-37.33
-36.61
-33.18
-27.32
-19.86
-11.95
-4.68
1.18
5.39
8.14
9.86
11.07
12.19
13.48
15.03
16.84
18.83
20.88
22.84
24.56
25.82
26.45
26.32
25.45
24.03
22.38
20.83
19.60
18.69
17.95
17.11
15.95
14.43
12.63
10.76
9.02
7.53
6.23
4.99
3.60
1.92
-0.08
-2.31
-4.59
-6.76
-8.74
-10.54
-12.30
-14.20
-16.47
-19.32
-22.92
-27.24
-31.99
-36.56
-40.04
-41.50
-40.28
-36.28
-30.01
-22.43
-14.64
-7.53
-1.63
2.98
6.44
8.99
10.89
12.31
13.44
14.44
15.47
16.60
17.84
19.09
20.23
21.11
21.65
21.86
21.84
21.71
21.55
21.34
20.96
20.26
19.12
17.60
15.83
14.02
12.31
10.72
9.21
7.73
6.26
4.79
3.35
1.91
0.43
-1.10
-2.68
-4.25
-5.73
-7.15
-8.51
-9.84
-11.21
-12.65
-14.33
-16.46
-19.32
-23.06
-27.63
-32.60
-37.26
-40.72
-42.19
-41.14
-37.48
-31.62
-24.28
-16.44
-8.99
-2.65
2.23
5.59
7.69
8.91
9.70
10.41
11.26
12.33
13.61
15.02
16.47
17.89
19.16
20.15
20.70
20.70
20.19
19.32
18.35
17.54
17.01
16.70
16.37
15.76
14.71
13.22
11.45
9.63
7.93
6.40
5.04
3.82
2.72
1.75
0.89
0.02
-1.05
-2.53
-4.47
-6.79
-9.23
-11.55
-13.59
-15.37
-17.08
-18.99
-21.35
-24.36
-28.04
-32.15
-36.19
-39.39
-40.88
-39.97
-36.42
-30.54
-23.18
-15.46
-8.44
-2.87
0.94
3.09
3.96
4.06
3.90
3.91
4.39
5.47
7.13
9.23
11.53
13.78
15.73
17.23
18.20
18.71
18.93
19.04
19.13
19.17
18.95
18.15
16.46
13.76
10.25
6.41
2.89
0.25
-1.29
-1.96
-2.39
-3.29
-5.15
-8.07
-11.70
-15.45
-18.78
-21.36
-23.12
-24.29
-25.33
-26.81
-29.31
-33.17
-38.25
-43.76
-48.38
-50.60
-49.27
-44.07
-35.60
-25.22
-14.48
-4.72
3.27
9.24
13.33
15.90
17.33
17.99
18.25
18.41
18.70
19.22
19.97
20.78
21.48
21.93
22.05
21.95
21.82
21.90
22.32
22.98
23.58
23.68
22.91
21.15
18.59
15.66
12.84
10.51
8.77
7.48
6.36
5.12
3.57
1.72
-0.32
-2.36
-4.26
-5.98
-7.64
-9.50
-11.85
-14.96
-18.91
-23.49
-28.14
-32.02
-34.13
-33.65
-30.14
-23.75
-15.17
-5.46
4.25
13.01
20.15
25.25
28.12
28.66
26.89
22.96
17.24
10.29
2.87
-4.17
-10.02
-14.11
-16.14
-16.12
-14.24
-10.83
-6.26
-0.95
4.51
9.46
13.13
14.92
14.52
12.09
8.17
3.62
-0.67
-3.99
-6.01
-6.77
-6.72
-6.48
-6.65
-7.60
-9.31
-11.47
-13.68
-15.67
-17.50
-19.53
-22.12
-25.39
-28.98
-32.06
-33.63
-32.89
-29.60
-24.14
-17.38
-10.33
-3.89
1.37
5.25
7.78
9.26
10.12
10.85
11.92
13.64
16.05
18.94
21.94
24.66
26.81
28.21
28.78
28.46
27.29
25.35
22.90
20.32
18.02
16.36
15.46
15.22
15.33
15.36
14.94
13.82
11.92
9.29
6.12
2.62
-0.93
-4.20
-6.86
-8.66
-9.57
-9.91
-10.31
-11.42
-13.70
-17.03
-20.75
-23.85
-25.35
-24.74
-22.07
-17.89
-13.03
-8.19
-3.81
-0.01
3.34
6.43
9.39
12.25
14.93
17.32
19.31
20.90
22.14
23.18
24.13
25.06
25.92
26.49
26.53
25.84
24.38
22.26
19.66
16.76
13.63
10.24
6.58
2.73
-1.08
-4.49
-7.15
-8.84
-9.52
-9.34
-8.61
-7.82
-7.54
-8.40
-10.96
-15.45
-21.58
-28.50
-34.87
-39.23
-40.39
-37.82
-31.77
-23.21
-13.51
-4.12
3.83
9.66
13.26
14.96
15.37
15.25
15.23
15.71
16.72
18.02
19.13
19.50
18.72
16.64
13.44
9.65
5.96
3.08
1.47
1.23
2.05
3.37
4.54
5.00
4.42
2.76
0.19
-2.95
-6.34
-9.76
-13.18
-16.77
-20.78
-25.35
-30.32
-35.15
-38.92
-40.67
-39.66
-35.71
-29.29
-21.42
-13.36
-6.20
-0.61
3.29
5.74
7.22
8.15
8.86
9.49
10.14
10.87
11.77
12.90
14.26
15.74
17.10
18.03
18.28
17.72
16.50
14.95
13.47
12.35
11.57
10.81
9.64
7.66
4.81
1.31
-2.43
-6.01
-9.17
-11.87
-14.24
-16.50
-18.89
-21.69
-25.09
-29.09
-33.30
-36.93
-38.99
-38.58
-35.34
-29.61
-22.34
-14.77
-7.97
-2.57
1.35
4.09
6.14
7.89
9.60
11.34
13.04
14.56
15.79
16.67
17.22
17.53
17.71
17.88
18.06
18.26
18.44
18.57
18.60
18.43
17.94
17.04
15.65
13.82
11.65
9.33
7.01
4.81
2.79
0.99
-0.61
-2.04
-3.38
-4.74
-6.26
-8.11
-10.45
-13.41
-17.00
-21.06
-25.11
-28.42
-30.10
-29.40
-25.98
-20.08
-12.48
-4.21
3.68
10.48
15.87
19.87
22.73
24.79
26.35
27.63
28.78
29.84
30.78
31.50
31.95
32.06
31.83
31.31
30.56
29.67
28.72
27.80
26.93
26.10
25.25
24.31
23.27
22.16
21.09
20.11
19.16
18.03
16.43
14.06
10.81
6.79
2.33
-2.06
-5.91
-8.89
-10.94
-12.31
-13.49
-15.12
-17.75
-21.67
-26.71
-32.17
-36.97
-39.96
-40.31
-37.81
-33.00
-26.90
-20.69
-15.35
-11.37
-8.81
-7.33
-6.52
-5.98
-5.46
-4.86
-4.17
-3.45
-2.72
-2.01
-1.30
-0.58
0.09
0.62
0.92
0.91
0.61
0.13
-0.33
-0.60
-0.56
-0.25
0.14
0.31
-0.11
-1.38
-3.64
-6.82
-10.70
-15.01
-19.52
-24.06
-28.51
-32.66
-36.16
-38.48
-39.12
-37.75
-34.41
-29.50
-23.66
-17.59
-11.83
-6.68
-2.26
1.48
4.61
7.22
9.37
11.20
12.90
14.69
16.73
19.09
21.65
24.12
26.13
27.41
27.86
27.66
27.14
26.64
26.31
26.06
25.61
24.59
22.73
19.92
16.20
11.73
6.74
1.54
-3.54
-8.21
-12.27
-15.73
-18.74
-21.56
-24.41
-27.28
-29.88
-31.71
-32.18
-30.84
-27.58
-22.63
-16.54
-10.02
-3.71
1.90
6.53
10.12
12.68
14.26
14.95
14.84
14.11
12.98
11.77
10.78
10.25
10.26
10.73
11.49
12.28
12.93
13.30
13.31
12.95
12.21
11.19
9.98
8.70
7.37
5.93
4.22
2.11
-0.42
-3.19
-5.92
-8.35
-10.38
-12.15
-13.96
-16.21
-19.16
-22.82
-26.85
-30.62
-33.30
-34.10
-32.56
-28.69
-23.00
-16.36
-9.72
-3.84
0.90
4.56
7.40
9.82
12.12
14.43
16.75
19.00
21.06
22.81
24.21
25.21
25.79
25.95
25.77
25.37
24.92
24.55
24.28
23.98
23.41
22.33
20.59
18.26
15.64
13.17
11.27
10.17
9.76
9.64
9.26
8.14
6.09
3.27
0.07
-3.05
-5.80
-8.19
-10.46
-13.03
-16.28
-20.40
-25.25
-30.32
-34.78
-37.63
-38.05
-35.62
-30.55
-23.60
-15.83
-8.37
-2.09
2.59
5.66
7.48
8.58
9.54
10.77
12.42
14.38
16.39
18.17
19.52
20.42
20.91
21.04
20.84
20.34
19.65
18.94
18.40
18.11
17.98
17.76
17.15
15.97
14.22
12.08
9.86
7.83
6.15
4.85
3.80
2.81
1.67
0.21
-1.69
-4.03
-6.72
-9.55
-12.29
-14.73
-16.80
-18.61
-20.47
-22.79
-25.91
-29.92
-34.51
-38.92
-42.15
-43.18
-41.36
-36.61
-29.50
-21.07
-12.52
-4.86
1.27
5.67
8.49
10.06
10.76
10.95
10.92
10.91
11.14
11.69
12.60
13.72
14.86
15.79
16.38
16.59
16.56
16.44
16.40
16.49
16.67
16.79
16.66
16.12
15.00
13.27
11.02
8.48
6.02
3.98
2.63
1.98
1.85
1.91
1.81
1.33
0.36
-1.07
-2.92
-5.13
-7.67
-10.61
-14.03
-18.03
-22.63
-27.68
-32.73
-37.03
-39.59
-39.48
-36.10
-29.44
-20.24
-9.84
0.13
8.10
12.98
14.42
12.83
9.25
4.98
1.17
-1.44
-2.71
-2.95
-2.63
-2.10
-1.40
-0.30
1.52
4.18
7.46
10.82
13.59
15.19
15.39
14.29
12.30
9.93
7.64
5.62
3.81
1.95
-0.28
-3.11
-6.56
-10.36
-14.03
-16.89
-18.23
-17.54
-14.93
-11.28
-8.20
-7.56
-10.67
-17.63
-27.09
-36.69
-43.88
-46.85
-44.96
-38.77
-29.56
-18.77
-7.68
2.76
11.83
19.04
24.09
26.95
27.87
27.30
25.75
23.72
21.60
19.65
17.99
16.64
15.55
14.67
13.97
13.49
13.30
13.47
14.01
14.78
15.49
15.75
15.13
13.32
10.27
6.21
1.62
-2.96
-7.07
-10.50
-13.35
-15.90
-18.52
-21.52
-25.05
-29.03
-33.11
-36.66
-38.83
-38.82
-36.10
-30.77
-23.58
-15.74
-8.54
-2.85
1.03
3.40
4.81
5.78
6.59
7.34
8.03
8.70
9.46
10.36
11.39
12.40
13.18
13.56
13.45
12.94
12.17
11.38
10.75
10.37
10.13
9.73
8.79
7.02
4.38
1.09
-2.33
-5.40
-7.76
-9.42
-10.67
-12.00
-13.89
-16.66
-20.37
-24.82
-29.47
-33.55
-36.13
-36.38
-33.80
-28.47
-21.07
-12.73
-4.70
2.03
6.97
10.16
12.04
13.17
13.97
14.65
15.21
15.59
15.81
15.99
16.37
17.09
18.16
19.38
20.44
21.00
20.90
20.12
18.79
17.06
15.07
12.87
10.52
8.09
5.66
3.34
1.18
-0.78
-2.51
-4.02
-5.31
-6.51
-7.88
-9.87
-12.90
-17.34
-23.21
-30.18
-37.46
-43.89
-48.08
-48.64
-44.61
-35.88
-23.48
-9.52
3.42
13.11
18.47
19.91
18.92
17.30
16.40
16.66
17.83
19.39
21.00
22.68
24.63
26.92
29.33
31.39
32.67
32.99
32.53
31.67
30.80
30.04
29.25
28.13
26.44
24.15
21.55
19.06
17.06
15.64
14.58
13.47
11.94
9.84
7.31
4.67
2.22
0.13
-1.73
-3.66
-6.10
-9.43
-13.83
-19.15
-24.88
-30.11
-33.79
-34.95
-33.01
-28.07
-20.83
-12.49
-4.35
2.53
7.52
10.55
11.94
12.26
12.11
11.99
12.14
12.61
13.27
13.87
14.20
14.09
13.53
12.52
11.17
9.56
7.84
6.20
4.91
4.17
3.98
4.07
3.89
2.85
0.51
-3.16
-7.76
-12.60
-16.95
-20.34
-22.65
-24.06
-24.96
-25.71
-26.69
-28.23
-30.59
-33.85
-37.77
-41.66
-44.49
-45.19
-43.00
-37.83
-30.27
-21.45
-12.57
-4.60
1.95
6.99
10.67
13.23
14.86
15.80
16.33
16.78
17.41
18.23
19.02
19.32
18.76
17.21
15.00
12.75
11.10
10.39
10.52
10.96
11.04
10.24
8.41
5.75
2.65
-0.50
-3.49
-6.33
-9.17
-12.22
-15.65
-19.55
-23.80
-28.06
-31.76
-34.14
-34.52
-32.50
-28.16
-22.06
-15.05
-8.02
-1.65
3.74
8.08
11.50
14.15
16.14
17.58
18.63
19.47
20.26
21.08
21.88
22.48
22.67
22.28
21.29
19.82
18.07
16.28
14.57
12.90
11.13
9.10
6.77
4.19
1.55
-0.98
-3.33
-5.59
-7.95
-10.63
-13.88
-17.84
-22.54
-27.70
-32.71
-36.65
-38.53
-37.58
-33.66
-27.32
-19.67
-12.01
-5.34
-0.12
3.76
6.74
9.33
11.85
14.37
16.78
18.90
20.61
21.90
22.80
23.38
23.67
23.64
23.27
22.60
21.75
20.93
20.32
19.95
19.71
19.30
18.39
16.78
14.51
11.86
9.30
7.30
6.16
5.90
6.21
6.60
6.54
5.62
3.70
0.87
-2.57
-6.25
-9.84
-13.15
-16.15
-19.04
-22.16
-25.83
-30.21
-35.02
-39.53
-42.64
-43.22
-40.54
-34.57
-26.06
-16.27
-6.56
1.97
8.79
13.87
17.53
20.25
22.38
24.13
25.49
26.44
26.98
27.23
27.42
27.76
28.39
29.24
30.07
30.66
30.86
30.74
30.44
30.06
29.55
28.69
27.24
25.03
22.17
18.96
15.84
13.19
11.20
9.85
8.93
8.13
7.15
5.79
3.93
1.61
-1.07
-3.93
-6.79
-9.47
-11.86
-13.91
-15.71
-17.43
-19.36
-21.84
-25.16
-29.45
-34.46
-39.54
-43.62
-45.57
-44.54
-40.28
-33.34
-24.86
-16.16
-8.33
-1.95
2.95
6.69
9.64
12.07
14.08
15.74
17.11
18.32
19.47
20.59
21.60
22.39
22.83
22.86
22.52
21.90
21.15
20.39
19.73
19.22
18.83
18.43
17.84
16.90
15.58
14.03
12.47
11.13
10.09
9.23
8.35
7.23
5.77
4.06
2.24
0.46
-1.25
-2.95
-4.75
-6.72
-8.80
-10.85
-12.71
-14.30
-15.70
-17.07
-18.63
-20.56
-22.96
-25.86
-29.25
-32.96
-36.60
-39.56
-41.04
-40.29
-36.97
-31.24
-23.84
-15.82
-8.20
-1.64
3.62
7.70
10.88
13.39
15.32
16.67
17.43
17.70
17.70
17.67
17.84
18.26
18.85
19.36
19.55
19.28
18.52
17.39
16.06
14.72
13.45
12.31
11.27
10.34
9.50
8.71
7.90
6.97
5.83
4.48
3.03
1.69
0.62
-0.16
-0.80
-1.57
-2.73
-4.38
-6.41
-8.60
-10.69
-12.47
-13.87
-14.92
-15.75
-16.63
-17.93
-20.02
-23.12
-27.08
-31.26
-34.60
-35.96
-34.47
-29.90
-22.78
-14.24
-5.65
1.78
7.36
10.92
12.72
13.31
13.23
12.97
12.88
13.16
13.83
14.81
15.90
16.90
17.64
18.08
18.27
18.28
18.13
17.77
17.16
16.29
15.22
14.03
12.75
11.29
9.51
7.24
4.52
1.53
-1.34
-3.76
-5.50
-6.64
-7.50
-8.53
-10.09
-12.35
-15.21
-18.38
-21.51
-24.33
-26.75
-28.83
-30.74
-32.66
-34.73
-37.03
-39.54
-42.11
-44.38
-45.75
-45.46
-42.83
-37.54
-29.86
-20.69
-11.28
-2.91
3.53
7.75
9.97
10.83
11.01
11.11
11.47
12.19
13.14
14.03
14.50
14.24
13.06
11.06
8.60
6.20
4.39
3.54
3.75
4.82
6.40
8.06
9.38
10.03
9.78
8.54
6.32
3.34
-0.10
-3.63
-6.92
-9.79
-12.28
-14.64
-17.24
-20.42
-24.26
-28.43
-32.24
-34.75
-35.10
-32.82
-28.09
-21.59
-14.36
-7.41
-1.44
3.25
6.72
9.19
10.96
12.28
13.40
14.55
15.94
17.65
19.60
21.52
23.03
23.79
23.66
22.72
21.23
19.49
17.74
16.10
14.57
13.12
11.72
10.37
9.03
7.64
6.06
4.14
1.81
-0.86
-3.65
-6.25
-8.33
-9.75
-10.58
-11.16
-11.99
-13.56
-16.20
-19.94
-24.57
-29.67
-34.61
-38.64
-40.98
-40.97
-38.24
-32.91
-25.59
-17.29
-9.08
-1.88
3.80
7.89
10.63
12.44
13.76
14.95
16.21
17.57
18.90
20.01
20.73
21.00
20.89
20.49
19.95
19.34
18.78
18.40
18.30
18.47
18.69
18.59
17.77
15.99
13.34
10.21
7.17
4.68
2.96
1.84
0.97
-0.09
-1.61
-3.66
-6.09
-8.64
-11.08
-13.30
-15.37
-17.52
-20.01
-23.04
-26.71
-30.92
-35.28
-39.23
-41.94
-42.57
-40.50
-35.56
-28.17
-19.33
-10.30
-2.29
3.88
7.98
10.20
11.08
11.24
11.19
11.33
11.91
13.06
14.80
17.06
19.66
22.31
24.66
26.41
27.42
27.78
27.78
27.82
28.21
28.96
29.76
30.12
29.51
27.67
24.68
20.90
16.87
13.13
10.13
8.19
7.39
7.40
7.58
7.14
5.52
2.68
-0.76
-3.83
-5.73
-6.24
-5.90
-5.72
-6.71
-9.48
-13.98
-19.60
-25.41
-30.35
-33.48
-34.17
-32.19
-27.84
-21.78
-14.87
-7.89
-1.38
4.37
9.22
13.04
15.73
17.24
17.68
17.39
16.88
16.66
17.12
18.36
20.12
21.91
23.16
23.44
22.64
21.02
19.11
17.49
16.54
16.32
16.49
16.57
16.11
14.93
13.12
10.94
8.66
6.36
3.87
0.88
-2.97
-7.86
-13.68
-20.00
-26.20
-31.61
-35.74
-38.41
-39.85
-40.62
-41.46
-43.07
-45.90
-49.99
-54.92
-59.82
-63.57
-64.97
-63.10
-57.51
-48.43
-36.78
-23.95
-11.49
-0.81
7.23
12.36
14.94
15.69
15.46
14.96
14.63
14.67
15.08
15.75
16.58
17.51
18.44
19.37
20.27
21.12
21.93
22.62
23.05
23.00
22.23
20.54
17.88
14.39
10.42
6.43
2.92
0.26
-1.44
-2.34
-2.86
-3.51
-4.83
-7.19
-10.82
-15.69
-21.50
-27.61
-33.07
-36.84
-38.02
-36.20
-31.63
-25.11
-17.75
-10.61
-4.40
0.62
4.59
7.88
10.94
14.13
17.60
21.25
24.81
27.87
30.13
31.49
32.07
32.11
31.85
31.39
30.65
29.50
27.86
25.79
23.47
21.13
18.89
16.76
14.66
12.45
10.10
7.67
5.29
3.09
1.12
-0.72
-2.62
-4.78
-7.31
-10.21
-13.38
-16.74
-20.30
-24.14
-28.27
-32.45
-36.10
-38.34
-38.27
-35.32
-29.55
-21.69
-12.92
-4.47
2.74
8.32
12.34
15.17
17.23
18.88
20.32
21.68
23.04
24.42
25.81
27.13
28.22
28.93
29.14
28.86
28.25
27.52
26.90
26.49
26.23
25.82
24.92
23.24
20.70
17.47
13.96
10.64
7.87
5.75
4.08
2.48
0.57
-1.88
-4.80
-7.91
-10.80
-13.17
-14.90
-16.19
-17.41
-19.07
-21.61
-25.24
-29.87
-34.99
-39.73
-42.99
-43.79
-41.51
-36.20
-28.60
-19.93
-11.48
-4.30
1.20
5.17
8.22
11.07
14.15
17.47
20.65
23.16
24.68
25.27
25.42
25.75
26.71
28.32
30.22
31.87
32.86
33.06
32.58
31.66
30.50
29.36
28.67
29.01
31.06
35.18
41.18
48.15
54.63
59.14
60.62
58.82
54.30
48.19
41.74
35.94
31.31
27.78
24.89
21.91
18.13
12.95
6.03
-2.68
-13.04
-24.67
-37.09
-49.67
-61.61
-72.01
-80.03
-85.07
-87.02
-86.45
-84.42
-82.28
-81.18
-81.78
-84.16
-87.94
-92.51
-97.17
-101.16
-103.46
-102.77
-97.71
-87.38
-71.92
-52.85
-32.87
-15.11
-2.10
4.98
6.55
4.20
-0.07
-4.63
-8.56
-11.63
-13.90
-15.46
-16.25
-16.20
-15.35
-13.94
-12.38
-10.98
-9.79
-8.54
-6.73
-3.87
0.26
5.49
11.22
16.64
20.85
23.11
23.00
20.58
16.42
11.61
7.50
5.35
5.95
9.38
14.97
21.59
28.04
33.39
37.17
39.31
40.02
39.67
38.60
37.21
35.83
34.74
34.10
33.89
33.95
34.05
33.94
33.46
32.57
31.34
29.95
28.63
27.54
26.78
26.25
25.72
24.85
23.35
21.06
18.07
14.64
11.16
7.94
5.11
2.61
0.19
-2.44
-5.54
-9.25
-13.59
-18.35
-23.14
-27.32
-30.11
-30.77
-28.88
-24.55
-18.43
-11.53
-4.86
0.88
5.44
8.97
11.82
14.31
16.57
18.56
20.18
21.32
