1501597291.00
64.000000
-0.00
-0.00
-0.00
-0.00
-0.00
-0.00
-0.00
-0.00
-0.00
-0.00
0.00
0.01
0.01
-0.00
-0.03
-0.05
-0.05
0.00
0.13
0.36
0.66
1.01
1.37
1.72
2.06
2.40
2.79
3.24
3.80
4.42
5.06
5.66
6.20
6.68
7.15
7.68
8.31
9.14
10.09
11.04
11.88
12.56
13.14
13.76
14.65
15.97
17.92
20.32
22.90
25.37
27.57
29.57
31.70
34.36
37.87
42.57
48.10
53.93
59.50
64.47
68.95
73.43
78.60
84.96
93.00
102.17
111.67
120.63
128.51
135.39
141.91
149.39
156.46
165.31
176.47
190.03
204.82
218.05
225.48
222.52
205.77
174.19
129.99
76.84
19.05
-40.02
-98.56
-156.05
-212.45
-267.54
-320.77
-371.09
-417.89
-460.56
-498.27
-529.64
-552.75
-565.51
-566.25
-554.39
-530.40
-496.06
-453.65
-405.44
-353.33
-298.78
-243.00
-187.28
-133.14
-82.20
-36.22
3.27
35.20
59.35
76.83
90.17
102.98
118.80
139.76
165.49
193.14
218.50
237.69
248.65
251.57
248.33
241.27
232.10
221.53
209.71
196.71
182.97
169.22
156.14
144.04
132.76
121.81
110.64
99.05
87.26
75.84
65.48
56.65
49.41
43.41
38.16
33.01
27.63
22.08
16.71
11.97
8.12
5.19
2.92
0.98
-0.97
-3.06
-5.18
-7.13
-8.60
-9.38
-9.35
-8.59
-7.29
-5.79
-4.39
-3.30
-2.66
-2.43
-2.54
-2.90
-3.45
-4.16
-5.02
-5.96
-6.80
-7.28
-7.09
-6.06
-4.28
-2.14
-0.25
0.83
0.77
-0.32
-1.99
-3.66
-4.88
-5.48
-5.56
-5.38
-5.17
-5.05
-5.01
-4.98
-4.87
-4.62
-4.14
-3.39
-2.37
-1.11
0.25
1.51
2.50
3.13
3.45
3.58
3.66
3.66
3.43
2.83
1.81
0.58
-0.47
-0.95
-0.65
0.28
1.47
2.45
2.92
2.82
2.34
1.79
1.46
1.51
1.98
2.73
3.55
4.21
4.49
4.29
3.61
2.58
1.42
0.41
-0.22
-0.36
-0.07
0.41
0.81
0.87
0.52
-0.15
-0.98
-1.89
-2.93
-4.23
-5.87
-7.68
-9.28
-10.22
-10.18
-9.21
-7.66
-6.02
-4.74
-4.02
-3.90
-4.36
-5.34
-6.75
-8.46
-10.18
-11.59
-12.46
-12.74
-12.61
-12.37
-12.26
-12.22
-11.92
-10.87
-8.69
-5.50
-1.89
1.26
3.25
3.93
3.77
3.54
3.93
5.07
6.54
7.66
7.96
7.45
6.61
6.00
5.95
6.34
6.78
6.88
6.55
5.91
5.28
4.92
4.91
5.18
5.60
6.09
6.62
7.34
8.44
10.19
12.82
16.49
21.13
26.49
32.21
37.91
43.29
48.03
51.60
53.25
52.08
47.47
39.43
28.85
17.23
6.26
-2.83
-9.50
-13.92
-16.59
-18.02
-18.51
-18.20
-17.29
-16.13
-15.18
-14.80
-15.16
-16.07
-17.14
-17.87
-17.79
-16.63
-14.37
-11.22
-7.54
-3.76
-0.19
2.97
5.66
7.86
9.49
10.41
10.45
9.52
7.67
5.11
2.10
-1.07
-4.20
-7.18
-9.90
-12.25
-14.09
-15.26
-15.69
-15.41
-14.55
-13.36
-12.10
-10.99
-10.15
-9.60
-9.23
-8.82
-8.19
-7.21
-5.91
-4.47
-3.13
-2.11
-1.53
-1.32
-1.33
-1.37
-1.34
-1.25
-1.19
-1.27
-1.57
-2.10
-2.87
-3.85
-5.04
-6.40
-7.86
-9.35
-10.76
-12.03
-13.12
-14.06
-14.93
-15.82
-16.79
-17.86
-18.96
-19.95
-20.59
-20.68
-20.04
-18.62
-16.51
-13.88
-10.98
-8.06
-5.35
-3.04
-1.21
0.11
0.96
1.47
1.76
1.98
2.19
2.41
2.62
2.74
2.68
2.41
1.89
1.16
0.31
-0.59
-1.48
-2.39
-3.37
-4.54
-5.91
-7.39
-8.74
-9.67
-9.90
-9.30
-7.94
-6.08
-4.03
-2.09
-0.49
0.67
1.41
1.83
2.10
2.36
2.73
3.21
3.68
4.00
4.03
3.71
3.07
2.17
1.08
-0.15
-1.48
-2.80
-3.98
-4.89
-5.45
-5.75
-5.97
-6.32
-6.90
-7.57
-8.04
-7.87
-6.71
-4.41
-1.09
2.86
7.00
10.88
14.21
16.88
18.93
20.46
21.58
22.36
22.81
22.90
22.58
21.84
20.73
19.36
17.86
16.29
14.68
13.00
11.19
9.27
7.30
5.32
3.34
1.27
-1.05
-3.70
-6.66
-9.70
-12.46
-14.56
-15.78
-16.13
-15.85
-15.27
-14.72
-14.38
-14.27
-14.29
-14.35
-14.44
-14.62
-15.03
-15.70
-16.54
-17.33
-17.86
-18.04
-17.99
-17.95
-18.11
-18.47
-18.84
-18.94
-18.62
-17.98
-17.35
-17.15
-17.62
-18.80
-20.52
-22.51
-24.50
-26.23
-27.45
-27.88
-27.30
-25.61
-22.94
-19.61
-16.04
-12.59
-9.55
-7.08
-5.28
-4.13
-3.52
-3.28
-3.17
-2.96
-2.54
-1.92
-1.14
-0.26
0.74
1.84
3.00
4.10
4.99
5.56
5.80
5.77
5.47
4.92
4.08
3.08
2.21
1.94
2.72
4.77
7.98
11.88
15.87
19.41
22.19
24.12
25.26
25.73
25.65
25.14
24.35
23.45
22.57
21.79
21.10
20.45
19.74
18.89
17.84
16.58
15.07
13.34
11.40
9.25
6.87
4.25
1.45
-1.32
-3.68
-5.16
-5.34
-4.07
-1.54
1.76
5.17
8.12
10.26
11.54
12.07
12.04
11.61
10.88
9.92
8.80
7.62
6.48
5.45
4.58
3.87
3.26
2.68
2.04
1.25
0.30
-0.78
-1.94
-3.14
-4.39
-5.73
-7.17
-8.62
-9.86
-10.55
-10.40
-9.25
-7.19
-4.48
-1.48
1.53
4.35
6.90
9.10
10.85
12.01
12.48
12.32
11.73
11.02
10.45
10.13
9.96
9.74
9.24
8.38
7.18
5.79
4.35
2.97
1.65
0.37
-0.97
-2.47
-4.23
-6.29
-8.56
-10.85
-12.80
-14.04
-14.24
-13.25
-11.17
-8.29
-4.98
-1.58
1.72
4.85
7.79
10.47
12.74
14.47
15.64
16.40
17.06
18.00
19.44
21.37
23.55
25.57
27.10
27.98
28.32
28.41
28.63
29.26
30.41
32.03
33.88
35.66
37.01
37.65
37.43
36.49
35.29
34.59
35.25
37.95
42.91
49.79
57.77
65.83
73.06
78.79
82.54
83.87
82.23
77.15
68.55
57.00
43.69
30.12
17.52
6.43
-3.24
-11.91
-19.88
-27.01
-32.91
-37.20
-39.91
-41.53
-42.77
-44.20
-46.03
-48.06
-49.98
-51.58
-52.90
-54.13
-55.40
-56.62
-57.45
-57.47
-56.35
-54.02
-50.67
-46.68
-42.43
-38.23
-34.28
-30.71
-27.65
-25.20
-23.40
-22.21
-21.51
-21.15
-21.05
-21.20
-21.64
-22.39
-23.40
-24.51
-25.53
-26.27
-26.64
-26.65
-26.38
-26.01
-25.69
-25.64
-26.01
-26.93
-28.36
-30.06
-31.51
-32.05
-31.04
-28.07
-23.13
-16.64
-9.38
-2.25
3.97
8.72
11.80
13.35
13.77
13.56
13.24
13.19
13.65
14.65
16.08
17.78
19.55
21.23
22.67
23.77
24.43
24.58
24.18
23.25
21.90
20.33
18.72
17.24
15.99
15.06
14.52
14.45
14.93
15.91
17.17
18.30
18.80
18.18
16.12
12.54
7.62
1.73
-4.60
-10.76
-16.20
-20.55
-23.77
-26.07
-27.92
-29.81
-32.07
-34.72
-37.56
-40.17
-42.08
-43.08
-43.26
-43.13
-43.45
-45.04
-48.61
-54.47
-62.32
-71.10
-79.01
-83.91
-83.99
-78.46
-68.04
-54.72
-41.06
-29.21
-20.15
-13.66
-8.80
-4.73
-1.17
1.65
3.35
3.94
3.91
3.92
4.42
5.38
6.33
6.70
6.22
5.06
3.75
2.94
3.07
4.20
5.95
7.67
8.64
8.41
7.02
5.03
3.37
2.97
4.39
7.63
12.16
17.15
21.83
25.74
28.75
30.95
32.47
33.37
33.62
33.20
32.18
30.80
29.38
28.24
27.50
27.07
26.66
25.96
24.74
23.02
21.04
19.15
17.66
16.69
16.14
15.73
15.10
13.95
12.23
10.16
8.17
6.80
6.47
7.32
9.21
11.74
14.48
17.11
19.48
21.50
23.12
24.23
24.73
24.59
23.98
23.22
22.71
22.76
23.47
24.69
26.11
27.42
28.42
29.10
29.60
30.13
30.75
31.41
31.89
32.03
31.87
31.71
32.07
33.47
36.22
40.33
45.60
51.64
57.87
63.30
66.62
66.50
62.10
53.56
41.98
29.03
16.15
4.10
-7.17
-17.91
-28.04
-36.86
-43.27
-46.41
-46.23
-43.47
-39.40
-35.18
-31.55
-28.77
-26.83
-25.53
-24.56
-23.50
-21.92
-19.49
-16.10
-12.01
-7.71
-3.74
-0.53
1.70
2.91
3.14
2.49
1.16
-0.50
-2.02
-2.86
-2.60
-1.13
1.36
4.41
7.45
10.01
11.79
12.75
13.04
12.88
12.48
11.90
11.08
9.88
8.23
6.24
4.15
2.33
1.06
0.43
0.31
0.41
0.40
0.12
-0.41
-0.99
-1.34
-1.27
-0.69
0.37
1.80
3.52
5.41
7.34
9.08
10.42
11.21
11.50
11.53
11.61
11.86
12.02
11.48
9.45
5.44
-0.53
-7.79
-15.30
-21.98
-27.10
-30.39
-31.97
-32.22
-31.74
-31.30
-31.73
-33.65
-37.09
-41.30
-44.81
-46.00
-43.80
-38.22
-30.29
-21.60
-13.54
-6.81
-1.37
3.20
7.20
10.64
13.20
14.51
14.37
12.77
9.82
5.62
0.30
-5.97
-12.87
-19.97
-26.82
-33.07
-38.49
-43.03
-46.73
-49.68
-52.05
-54.00
-55.63
-56.96
-57.81
-57.88
-56.85
-54.52
-50.94
-46.38
-41.27
-36.05
-31.06
-26.51
-22.52
-19.17
-16.47
-14.38
-12.85
-11.77
-11.01
-10.48
-10.11
-9.92
-9.92
-10.08
-10.21
-10.02
-9.13
-7.24
-4.30
-0.58
3.40
7.03
9.81
11.55
12.43
12.90
13.48
14.59
16.38
18.66
21.00
22.91
23.99
24.10
23.43
22.33
21.20
20.31
19.73
19.38
19.11
18.86
18.58
18.28
17.83
17.05
15.77
13.99
11.97
10.21
9.21
9.29
10.37
12.04
13.73
15.00
15.71
15.98
16.06
16.11
16.11
15.91
15.37
14.44
13.25
12.01
10.89
10.01
9.33
8.77
8.25
7.70
7.10
6.40
5.55
4.48
3.16
1.64
0.07
-1.32
-2.25
-2.51
-1.99
-0.75
1.00
2.95
4.81
6.36
7.51
8.27
8.76
9.05
9.22
9.25
9.15
8.91
8.59
8.29
8.10
8.08
8.21
8.42
8.63
8.73
8.61
8.13
7.15
5.63
3.62
1.38
-0.72
-2.27
-2.96
-2.67
-1.51
0.26
2.30
4.29
5.98
7.23
7.95
8.13
7.80
7.03
5.92
4.61
3.27
2.02
0.97
0.14
-0.50
-1.04
-1.58
-2.22
-3.03
-4.11
-5.50
-7.16
-8.93
-10.47
-11.38
-11.30
-10.10
-7.95
-5.28
-2.64
-0.45
1.14
2.23
3.05
3.79
4.49
5.03
5.27
5.12
4.66
4.04
3.44
2.94
2.51
2.06
1.50
0.83
0.08
-0.71
-1.53
-2.48
-3.67
-5.15
-6.77
-8.20
-8.99
-8.77
-7.44
-5.17
-2.40
0.36
2.72
4.51
5.72
6.47
6.88
7.01
6.91
6.64
6.28
5.92
5.65
5.48
5.37
5.19
4.83
4.18
3.23
2.03
0.70
-0.64
-1.94
-3.24
-4.69
-6.42
-8.39
-10.36
-11.90
-12.55
-12.02
-10.31
-7.71
-4.73
-1.80
0.79
2.93
4.67
6.05
7.07
7.68
7.83
7.57
7.06
6.52
6.15
6.03
6.10
6.18
6.02
5.48
4.51
3.20
1.72
0.26
-1.07
-2.28
-3.47
-4.75
-6.23
-7.92
-9.70
-11.36
-12.55
-12.96
-12.39
-10.86
-8.63
-6.11
-3.72
-1.69
-0.08
1.26
2.46
3.58
4.54
5.18
5.42
5.34
5.14
5.09
5.32
5.79
6.33
6.67
6.58
6.02
5.04
3.83
2.59
1.44
0.44
-0.48
-1.43
-2.58
-4.05
-5.88
-7.96
-10.01
-11.67
-12.54
-12.39
-11.18
-9.09
-6.47
-3.68
-1.03
1.30
3.18
4.55
5.32
5.46
5.01
4.16
3.17
2.36
1.95
2.00
2.38
2.85
3.17
3.18
2.84
2.24
1.49
0.67
-0.18
-1.10
-2.17
-3.47
-5.04
-6.84
-8.68
-10.24
-11.13
-10.98
-9.65
-7.26
-4.22
-1.06
1.74
3.87
5.28
6.09
6.52
6.72
6.82
6.84
6.79
6.67
6.49
6.24
5.93
5.54
5.04
4.42
3.69
2.86
1.93
0.85
-0.46
-2.12
-4.18
-6.60
-9.13
-11.38
-12.90
-13.32
-12.51
-10.61
-7.99
-5.12
-2.42
-0.18
1.48
2.59
3.26
3.59
3.73
3.77
3.83
3.94
4.12
4.32
4.45
4.43
4.21
3.79
3.17
2.36
1.32
0.02
-1.55
-3.39
-5.41
-7.49
-9.43
-10.97
-11.83
-11.79
-10.77
-8.86
-6.30
-3.42
-0.59
1.91
3.86
5.16
5.85
6.08
6.09
6.13
6.35
6.74
7.18
7.48
7.51
7.21
6.61
5.72
4.55
3.14
1.56
-0.07
-1.63
-3.10
-4.58
-6.22
-8.15
-10.33
-12.47
-14.15
-14.92
-14.49
-12.84
-10.20
-6.98
-3.64
-0.55
2.08
4.19
5.81
7.03
7.89
8.42
8.62
8.54
8.25
7.86
7.44
7.01
6.54
5.96
5.21
4.27
3.21
2.15
1.20
0.37
-0.44
-1.51
-3.12
-5.43
-8.36
-11.51
-14.28
-16.09
-16.55
-15.56
-13.37
-10.36
-6.95
-3.50
-0.24
2.69
5.17
7.15
8.57
9.41
9.70
9.52
9.03
8.40
7.80
7.35
7.07
6.87
6.60
6.13
5.42
4.52
3.57
2.66
1.80
0.88
-0.29
-1.88
-3.94
-6.43
-9.18
-11.91
-14.31
-16.05
-16.81
-16.38
-14.71
-11.97
-8.50
-4.76
-1.19
1.91
4.40
6.27
7.59
8.42
8.83
8.89
8.68
8.30
7.87
7.44
7.03
6.62
6.16
5.62
5.04
4.41
3.75
2.98
2.02
0.77
-0.80
-2.68
-4.78
-6.96
-9.03
-10.72
-11.70
-11.68
-10.47
-8.13
-4.96
-1.44
1.89
4.62
6.50
7.51
7.78
7.54
7.00
6.35
5.72
5.18
4.77
4.46
4.24
4.03
3.75
3.27
2.47
1.34
-0.10
-1.76
-3.58
-5.55
-7.71
-10.02
-12.35
-14.37
-15.63
-15.74
-14.52
-12.11
-8.94
-5.54
-2.36
0.36
2.54
4.26
5.61
6.60
7.21
7.42
7.25
6.79
6.14
5.42
4.68
3.98
3.31
2.64
1.93
1.11
0.15
-0.97
-2.28
-3.81
-5.65
-7.84
-10.35
-12.96
-15.26
-16.74
-16.92
-15.57
-12.81
-9.09
-4.99
-1.07
2.36
5.18
7.46
9.27
10.62
11.48
11.84
11.80
11.59
11.49
11.69
12.19
12.83
13.37
13.64
13.63
13.44
13.17
12.85
12.36
11.49
10.06
8.01
5.46
2.70
0.14
-1.83
-2.88
-2.86
-1.81
0.02
2.28
4.61
6.71
8.39
9.55
10.19
10.30
9.91
9.07
7.90
6.53
5.15
3.92
3.00
2.43
2.16
2.03
1.79
1.25
0.34
-0.87
-2.20
-3.45
-4.56
-5.61
-6.80
-8.34
-10.29
-12.55
-14.87
-16.83
-18.07
-18.27
-17.31
-15.23
-12.30
-8.89
-5.39
-2.18
0.55
2.69
4.29
5.36
5.94
6.03
5.68
5.05
4.33
3.76
3.47
3.40
3.37
3.11
2.47
1.51
0.42
-0.53
-1.17
-1.50
-1.74
-2.19
-3.11
-4.59
-6.52
-8.55
-10.20
-11.00
-10.63
-9.01
-6.33
-3.02
0.46
3.65
6.30
8.30
9.69
10.56
11.04
11.20
11.15
10.99
10.79
10.61
10.39
10.00
9.28
8.18
6.77
5.24
3.79
2.51
1.30
-0.13
-2.06
-4.63
-7.72
-10.94
-13.75
-15.64
-16.27
-15.53
-13.60
-10.82
-7.61
-4.36
-1.37
1.15
3.11
4.42
5.07
5.11
4.69
3.99
3.25
2.66
2.34
2.33
2.57
2.93
3.23
3.29
2.96
2.21
1.04
-0.44
-2.19
-4.16
-6.30
-8.52
-10.53
-11.96
-12.44
-11.72
-9.88
-7.24
-4.27
-1.32
1.44
4.04
6.55
8.96
11.09
12.67
13.50
13.63
13.37
13.24
13.77
15.33
18.04
21.72
26.03
30.58
35.09
39.39
43.32
46.73
49.32
50.67
50.42
48.35
44.55
39.33
33.19
26.55
19.76
13.01
6.46
0.31
-5.25
-10.05
-14.01
-17.23
-19.91
-22.29
-24.56
-26.84
-29.16
-31.53
-33.91
-36.31
-38.75
-41.29
-44.03
-47.07
-50.44
-54.08
-57.86
-61.62
-65.14
-68.23
-70.52
-71.50
-70.54
-67.10
-61.00
-52.56
-42.56
-31.97
-21.63
-12.10
-3.68
3.43
9.01
12.84
14.83
15.20
14.44
13.23
12.08
11.29
10.81
10.47
10.10
9.65
9.17
8.69
8.25
7.81
7.27
6.56
5.58
4.28
2.69
1.02
-0.38
-1.11
-0.84
0.48
2.61
5.10
7.45
9.34
10.74
11.78
12.64
13.38
13.90
14.05
13.72
13.01
12.14
11.38
10.93
10.76
10.74
10.63
10.25
9.52
8.49
7.22
5.78
4.14
2.25
0.10
-2.19
-4.34
-5.99
-6.77
-6.48
-5.12
-2.94
-0.30
2.41
4.86
6.85
8.34
9.34
9.94
10.26
10.37
10.32
10.15
9.87
9.50
9.06
8.55
7.97
7.28
6.48
5.57
4.59
3.55
2.43
1.12
-0.52
-2.58
-5.03
-7.65
-10.06
-11.78
-12.36
-11.56
-9.46
-6.43
-3.04
0.15
2.77
4.74
6.21
7.40
8.43
9.27
9.82
10.02
9.91
9.67
9.48
9.43
9.47
9.45
9.21
8.66
7.82
6.73
5.47
4.09
2.61
1.00
-0.74
-2.60
-4.56
-6.55
-8.57
-10.59
-12.57
-14.40
-15.84
-16.62
-16.46
-15.29
-13.20
-10.49
-7.52
-4.58
-1.87
0.49
2.43
3.93
5.00
5.79
6.52
7.39
8.44
9.48
10.19
10.28
9.65
8.45
7.02
5.63
4.44
3.44
2.54
1.67
0.84
0.06
-0.73
-1.69
-3.01
-4.76
-6.71
-8.40
-9.23
-8.78
-6.97
-4.14
-0.84
2.31
4.90
6.81
8.17
9.17
9.98
10.64
11.09
11.31
11.30
11.18
11.11
11.16
11.31
11.41
11.25
10.69
9.70
8.38
6.89
5.33
3.68
1.83
-0.34
-2.86
-5.54
-8.00
-9.79
-10.52
-10.05
-8.53
-6.35
-4.02
-1.96
-0.41
0.60
1.21
1.59
1.87
2.07
2.18
2.18
2.07
1.90
1.77
1.76
2.00
2.49
3.20
3.98
4.68
5.17
5.44
5.54
5.55
5.48
5.28
4.91
4.49
4.33
4.95
6.84
10.26
15.12
20.93
26.92
32.29
36.33
38.59
38.90
37.32
34.04
29.30
23.45
16.87
10.02
3.39
-2.68
-7.97
-12.43
-16.08
-18.89
-20.78
-21.64
-21.52
-20.67
-19.55
-18.70
-18.50
-19.03
-20.08
-21.24
-22.13
-22.50
-22.27
-21.47
-20.26
-18.80
-17.23
-15.59
-13.78
-11.59
-8.77
-5.16
-0.79
4.05
8.96
13.49
17.29
20.14
21.95
22.66
22.24
20.71
18.22
15.15
12.04
9.49
7.95
7.57
8.10
8.93
9.31
8.52
6.23
2.56
-1.87
-6.09
-9.10
-10.16
-9.11
-6.43
-3.07
-0.11
1.67
2.03
1.21
-0.25
-1.89
-3.51
-5.25
-7.53
-10.89
-15.75
-22.22
-29.90
-37.87
-44.93
-49.93
-52.24
-51.96
-49.83
-46.88
-43.96
-41.53
-39.67
-38.31
-37.37
-36.72
-36.09
-34.94
-32.65
-28.78
-23.33
-16.82
-10.12
-4.06
0.86
4.59
7.43
9.76
11.91
14.02
16.08
18.13
20.23
22.44
24.79
27.17
29.33
31.01
32.05
32.45
32.29
31.64
30.44
28.49
25.64
21.93
17.71
13.58
10.19
7.98
7.03
7.02
7.43
7.71
7.52
6.74
5.48
3.92
2.20
0.37
-1.62
-3.82
-6.24
-8.82
-11.47
-14.02
-16.30
-18.09
-19.15
-19.33
-18.63
-17.30
-15.86
-14.95
-15.13
-16.69
-19.51
-23.05
-26.52
-29.08
-30.10
-29.29
-26.81
-23.13
-18.91
-14.82
-11.34
-8.78
-7.22
-6.57
-6.62
-7.09
-7.71
-8.23
-8.44
-8.15
-7.19
-5.37
-2.63
0.96
5.11
9.33
13.03
15.72
17.11
17.21
16.20
14.41
12.20
9.99
8.20
7.25
7.44
8.91
11.54
14.95
18.66
22.20
25.26
27.66
29.42
30.62
31.37
31.74
31.71
31.22
30.14
28.43
26.12
23.43
20.65
18.03
15.61
13.19
10.40
6.95
2.76
-1.93
-6.71
-11.15
-15.03
-18.28
-20.92
-22.92
-24.21
-24.72
-24.50
-23.71
-22.54
-21.09
-19.34
-17.25
-14.97
-12.95
-11.85
-12.22
-14.22
-17.36
-20.60
-22.69
-22.61
-19.94
-14.99
-8.72
-2.47
2.33
4.53
3.57
-0.33
-6.21
-12.66
-18.35
-22.41
-24.61
-25.23
-24.67
-23.14
-20.65
-17.17
-12.93
-8.56
-4.89
-2.61
-1.91
-2.35
-3.08
-3.10
-1.60
1.76
6.75
12.54
17.97
21.83
23.37
22.50
19.86
16.49
13.39
11.15
9.76
8.82
7.84
6.46
4.61
2.39
0.05
-2.11
-3.69
-4.27
-3.53
-1.29
2.43
7.54
13.95
21.50
29.75
37.83
44.48
48.45
49.12
46.90
43.17
39.72
37.95
38.30
40.16
42.40
43.88
43.90
42.16
38.42
32.40
23.89
13.21
1.46
-9.55
-18.03
-22.94
-24.51
-23.99
-22.98
-22.60
-23.09
-24.01
-24.88
-25.53
-26.23
-27.18
-28.02
-27.76
-25.12
-19.32
-10.63
-0.48
9.08
16.16
19.74
19.92
17.59
13.88
9.67
5.34
0.96
-3.39
-7.36
-10.49
-12.45
-13.47
-14.35
-16.13
-19.51
-24.38
-29.71
-33.94
-35.63
-34.09
-29.57
-23.11
-16.04
-9.43
-3.84
0.76
4.67
8.25
11.61
14.66
17.14
18.81
19.56
19.43
18.57
17.14
15.29
13.13
10.78
8.33
5.90
3.54
1.18
-1.28
-4.05
-7.33
-11.21
-15.52
-19.74
-23.05
-24.61
-23.81
-20.58
-15.48
-9.45
-3.46
1.78
6.05
9.44
12.13
14.19
15.54
15.99
15.50
14.23
12.50
10.64
8.87
7.19
5.57
3.97
2.45
1.18
0.27
-0.26
-0.59
-1.02
-1.75
-2.80
-3.96
-4.82
-4.96
-4.18
-2.52
-0.29
2.07
4.10
5.44
5.89
5.41
4.18
2.54
0.96
-0.09
-0.24
0.63
2.40
4.77
7.37
9.88
12.07
13.79
14.89
15.29
14.95
13.93
12.39
10.53
8.49
6.38
4.30
2.45
1.10
0.59
1.18
2.93
5.60
8.72
11.74
14.19
15.83
16.63
16.66
15.99
14.59
12.43
9.53
6.07
2.39
-1.14
-4.24
-6.82
-8.94
-10.76
-12.40
-13.97
-15.51
-17.08
-18.78
-20.70
-22.96
-25.52
-28.19
-30.57
-32.14
-32.40
-31.08
-28.31
-24.53
-20.40
-16.55
-13.35
-10.88
-8.97
-7.39
-5.97
-4.67
-3.50
-2.49
-1.69
-1.14
-0.88
-0.99
-1.44
-2.15
-2.99
-3.79
-4.49
-5.03
-5.40
-5.58
-5.57
-5.41
-5.23
-5.18
-5.32
-5.53
-5.53
-4.94
-3.54
-1.28
1.57
4.62
7.42
9.61
11.03
11.69
11.72
11.36
10.79
10.12
9.35
8.45
7.41
6.31
5.30
4.50
3.96
3.59
3.21
2.66
1.89
0.96
-0.05
-1.13
-2.35
-3.75
-5.23
-6.51
-7.14
-6.73
-5.08
-2.42
0.76
3.78
6.14
7.59
8.22
8.30
8.08
7.67
7.04
6.11
4.90
3.54
2.27
1.30
0.75
0.55
0.52
0.45
0.19
-0.33
-1.07
-1.97
-2.99
-4.15
-5.48
-6.96
-8.46
-9.68
-10.27
-9.91
-8.51
-6.24
-3.50
-0.82
1.39
2.88
3.62
3.76
3.51
3.05
2.49
1.84
1.11
0.27
-0.64
-1.54
-2.31
-2.85
-3.12
-3.15
-3.00
-2.79
-2.60
-2.55
-2.78
-3.43
-4.54
-6.05
-7.66
-8.95
-9.51
-9.05
-7.55
-5.21
-2.43
0.33
2.74
4.56
5.75
6.39
6.59
6.42
5.89
4.97
3.70
2.22
0.77
-0.48
-1.43
-2.19
-2.93
-3.78
-4.74
-5.66
-6.36
-6.74
-6.89
-7.01
-7.33
-7.98
-8.94
-10.02
-10.90
-11.22
-10.63
-8.91
-6.06
-2.33
1.80
5.79
9.17
11.70
13.35
14.24
14.50
14.25
13.57
12.55
11.35
10.14
9.07
8.17
7.33
6.37
5.17
3.72
2.12
0.56
-0.85
-2.08
-3.24
-4.46
-5.86
-7.51
-9.42
-11.51
-13.59
-15.36
-16.43
-16.47
-15.31
-13.09
-10.23
-7.30
-4.83
-3.19
-2.50
-2.71
-3.65
-5.11
-6.87
-8.71
-10.45
-11.96
-13.21
-14.27
-15.31
-16.51
-18.06
-19.98
-22.21
-24.52
-26.62
-28.25
-29.25
-29.64
-29.63
-29.51
-29.57
-29.96
-30.64
-31.36
-31.74
-31.43
-30.16
-27.85
-24.60
-20.63
-16.22
-11.66
-7.26
-3.31
-0.13
2.06
3.12
3.18
2.58
1.83
1.43
1.69
2.62
3.96
5.31
6.40
7.10
7.48
7.63
7.57
7.16
6.20
4.56
2.30
-0.25
-2.54
-3.99
-4.16
-2.89
-0.33
3.07
6.76
10.19
12.97
14.96
16.14
16.64
16.61
16.17
15.48
14.72
14.05
13.59
13.37
13.30
13.26
13.11
12.77
12.19
11.35
10.22
8.78
7.00
4.94
2.74
0.67
-0.99
-1.93
-1.96
-1.00
0.85
3.36
6.20
9.02
11.47
13.33
14.50
15.01
14.98
14.57
13.91
13.12
12.30
11.57
11.03
10.73
10.65
10.67
10.61
10.33
9.74
8.88
7.81
6.63
5.30
3.78
2.01
0.14
-1.52
-2.50
-2.35
-0.83
1.93
5.51
9.32
12.83
15.72
17.91
19.49
20.62
21.43
22.01
22.47
22.89
23.34
23.84
24.28
24.51
24.39
23.84
22.85
21.48
19.76
17.69
15.25
12.38
9.06
5.30
1.20
-3.00
-6.91
-10.05
-12.02
-12.59
-11.87
-10.25
-8.26
-6.36
-4.83
-3.72
-2.95
-2.45
-2.21
-2.26
-2.61
-3.20
-3.90
-4.63
-5.37
-6.19
-7.25
-8.64
-10.42
-12.56
-14.96
-17.45
-19.86
-22.06
-24.02
-25.81
-27.58
-29.39
-31.12
-32.44
-32.88
-32.04
-29.80
-26.38
-22.24
-17.93
-13.87
-10.20
-6.88
-3.79
-0.85
1.89
4.27
6.14
7.42
8.19
8.69
9.20
9.90
10.83
11.85
12.73
13.28
13.40
13.10
12.47
11.50
10.19
8.52
6.63
4.84
3.63
3.46
4.59
6.93
10.09
13.49
16.59
19.07
20.83
21.99
22.73
23.19
23.44
23.46
23.26
22.87
22.42
22.08
21.99
22.17
22.45
22.49
21.88
20.28
17.58
14.01
10.07
6.49
4.02
3.27
4.57
7.88
12.74
18.29
23.42
27.00
28.27
27.00
23.63
19.04
14.23
10.04
6.88
4.83
3.67
3.11
2.86
2.60
2.03
0.86
-1.09
-3.78
-6.92
-10.11
-12.93
-15.11
-16.57
-17.35
-17.49
-16.99
-15.82
-14.00
-11.68
-9.14
-6.74
-4.78
-3.38
-2.46
-1.87
-1.44
-1.11
-0.91
-0.92
-1.19
-1.73
-2.50
-3.55
-4.89
-6.56
-8.42
-10.19
-11.50
-12.02
-11.65
-10.60
-9.29
-8.21
-7.65
-7.56
-7.59
-7.25
-6.18
-4.30
-1.87
0.67
2.85
4.44
5.39
5.84
5.92
5.69
5.12
4.21
3.03
1.77
0.65
-0.16
-0.65
-0.96
-1.34
-1.99
-3.03
-4.44
-6.09
-7.78
-9.36
-10.72
-11.87
-12.85
-13.70
-14.31
-14.46
-13.80
-12.10
-9.35
-5.87
-2.22
0.98
3.26
4.42
4.49
3.65
2.10
0.08
-2.10
-4.02
-5.18
-5.21
-3.93
-1.55
1.46
4.52
7.16
9.15
10.49
11.35
11.90
12.23
12.31
12.05
11.29
9.94
7.99
5.58
3.01
0.68
-1.03
-1.87
-1.83
-1.18
-0.28
0.51
1.06
1.48
2.04
2.99
4.35
5.94
7.42
8.50
9.08
9.22
9.05
8.69
8.16
7.42
6.47
5.41
4.47
3.86
3.70
3.96
4.45
4.89
4.98
4.51
3.44
1.91
0.25
-1.17
-2.05
-2.25
-1.92
-1.39
-1.03
-1.17
-1.91
-3.20
-4.86
-6.67
-8.43
-9.99
-11.23
-12.04
-12.35
-12.15
-11.48
-10.47
-9.29
-8.08
-6.94
-5.89
-4.88
-3.93
-3.08
-2.50
-2.39
-2.86
-3.89
-5.22
-6.43
-7.05
-6.72
-5.35
-3.07
-0.27
2.65
5.34
7.63
9.53
11.13
12.51
13.71
14.68
15.39
15.77
15.84
15.57
14.93
13.86
12.32
10.34
8.03
5.60
3.18
0.86
-1.41
-3.76
-6.29
-8.96
-11.58
-13.79
-15.20
-15.46
-14.45
-12.27
-9.29
-6.07
-3.17
-1.04
0.11
0.34
-0.07
-0.76
-1.38
-1.62
-1.32
-0.46
0.82
2.18
3.18
3.43
2.79
1.37
-0.46
-2.28
-3.74
-4.70
-5.21
-5.46
-5.65
-5.96
-6.47
-7.18
-7.98
-8.62
-8.83
-8.37
-7.14
-5.23
-2.90
-0.47
1.78
3.72
5.40
6.93
8.44
9.94
11.26
12.11
12.17
11.22
9.23
6.42
3.13
-0.20
-3.21
-5.59
-7.17
-7.85
-7.71
-6.99
-6.09
-5.41
-5.22
-5.52
-6.03
-6.33
-6.02
-4.91
-3.09
-0.83
1.56
3.86
5.92
7.62
8.81
9.34
9.14
8.25
6.88
5.30
3.71
2.18
0.75
-0.55
-1.54
-1.88
-1.22
0.72
3.92
8.05
12.48
16.39
18.91
19.32
17.18
12.50
5.73
-2.31
-10.67
-18.48
-25.19
-30.58
-34.68
-37.62
-39.48
-40.25
-39.83
-38.11
-35.12
-31.05
-26.23
-21.10
-16.02
-11.30
-7.15
-3.79
-1.53
-0.81
-2.10
-5.71
-11.53
-18.96
-26.95
-34.29
-39.87
-42.86
-42.78
-39.43
-32.96
-23.94
-13.44
-2.92
6.13
12.62
16.21
17.29
16.67
15.15
13.22
10.98
8.36
5.37
2.24
-0.68
-3.10
-4.95
-6.40
-7.72
-9.16
-10.79
-12.48
-13.97
-14.89
-14.91
-13.74
-11.22
-7.43
-2.68
2.47
7.34
11.23
13.71
14.66
14.39
13.45
12.46
11.91
12.04
12.83
14.03
15.32
16.37
16.97
17.01
16.55
15.69
14.61
13.47
12.34
11.22
9.99
8.55
6.81
4.81
2.76
1.04
0.03
0.05
1.18
3.22
5.77
8.34
10.50
12.05
12.99
13.47
13.71
13.81
13.80
13.62
13.19
12.54
11.78
11.07
10.56
10.27
10.12
9.94
9.59
9.00
8.18
7.21
6.19
5.17
4.20
3.26
2.32
1.32
0.18
-1.16
-2.71
-4.41
-6.09
-7.50
-8.36
-8.44
-7.64
-6.01
-3.76
-1.22
1.30
3.55
5.37
6.73
7.67
8.29
8.69
8.96
9.17
9.36
9.59
9.87
10.22
10.66
11.19
11.81
12.50
13.21
13.87
14.39
14.70
14.72
14.43
13.80
12.90
11.81
10.71
9.77
9.13
8.75
8.50
8.16
7.54
6.64
5.67
4.97
4.82
5.26
6.07
6.87
7.31
7.21
6.66
5.85
5.01
4.21
3.40
2.40
1.05
-0.68
-2.65
-4.51
-5.83
-6.32
-5.96
-5.07
-4.25
-4.11
-5.01
-6.91
-9.43
-12.06
-14.41
-16.36
-17.99
-19.42
-20.62
-21.39
-21.45
-20.69
-19.16
-17.04
-14.44
-11.18
-6.88
-1.23
5.63
12.93
19.47
24.16
26.55
26.94
26.09
24.57
22.30
18.68
13.12
5.80
-2.01
-8.29
-11.17
-9.89
-5.29
0.56
5.30
7.32
6.32
3.23
-0.45
-3.45
-5.24
-6.12
-6.72
-7.56
-8.67
-9.68
-10.20
-10.15
-10.00
-10.47
-12.15
-15.05
-18.54
-21.56
-23.10
-22.69
-20.59
-17.61
-14.72
-12.64
-11.60
-11.37
-11.48
-11.51
-11.24
-10.74
-10.21
-9.85
-9.71
-9.65
-9.40
-8.70
-7.43
-5.75
-3.99
-2.64
-2.15
-2.88
-5.07
-8.77
-13.77
-19.49
-25.04
-29.41
-31.78
-31.83
-29.78
-26.24
-21.84
-17.03
-11.96
-6.72
-1.51
3.30
7.28
10.18
12.05
13.16
13.84
14.32
14.63
14.79
14.89
15.12
15.63
16.44
17.36
18.08
18.34
18.02
17.24
16.28
15.48
15.15
15.43
16.27
17.38
18.27
18.33
17.03
14.06
9.49
3.83
-2.11
-7.46
-11.53
-14.00
-14.95
-14.74
-13.80
-12.52
-11.12
-9.72
-8.39
-7.24
-6.47
-6.22
-6.59
-7.47
-8.67
-9.87
-10.77
-11.20
-11.14
-10.71
-10.10
-9.48
-8.93
-8.39
-7.74
-6.94
-6.06
-5.33
-5.04
-5.43
-6.50
-7.97
-9.38
-10.21
-10.11
-8.99
-7.03
-4.55
-1.89
0.72
3.11
5.20
6.86
7.97
8.39
8.10
7.21
5.99
4.77
3.83
3.27
2.97
2.71
2.21
1.40
0.37
-0.63
-1.34
-1.68
-1.74
-1.78
-2.04
-2.68
-3.67
-4.89
-6.15
-7.24
-7.98
-8.16
-7.64
-6.36
-4.45
-2.14
0.22
2.31
3.92
5.00
5.62
5.88
5.92
5.82
5.65
5.46
5.31
5.21
5.16
5.13
5.04
4.82
4.41
3.79
2.97
2.02
1.04
0.11
-0.74
-1.53
-2.36
-3.34
-4.49
-5.69
-6.68
-7.13
-6.80
-5.64
-3.80
-1.63
0.53
2.42
3.95
5.17
6.15
6.87
7.26
7.26
6.87
6.25
5.67
5.36
5.41
5.73
6.09
6.24
6.01
5.44
4.66
3.85
3.10
2.37
1.57
0.57
-0.68
-2.15
-3.74
-5.32
-6.72
-7.74
-8.16
-7.79
-6.53
-4.50
-1.96
0.68
3.04
4.90
6.21
7.06
7.58
7.89
8.01
8.00
7.91
7.88
8.03
8.45
9.08
9.74
10.17
10.18
9.72
8.90
7.95
7.09
6.46
6.03
5.64
5.10
4.28
3.17
1.89
0.59
-0.56
-1.39
-1.73
-1.43
-0.41
1.29
3.46
5.74
7.79
9.33
10.28
10.66
10.56
10.05
9.13
7.81
6.16
4.36
2.68
1.39
0.70
0.62
0.99
1.56
2.05
2.32
2.40
2.38
2.38
2.43
2.46
2.34
1.93
1.17
0.08
-1.22
-2.55
-3.64
-4.26
-4.26
-3.65
-2.64
-1.57
-0.73
-0.27
-0.18
-0.31
-0.49
-0.63
-0.71
-0.71
-0.59
-0.24
0.43
1.41
2.59
3.76
4.68
5.20
5.27
4.97
4.41
3.73
3.01
2.32
1.65
0.96
0.18
-0.80
-2.07
-3.65
-5.48
-7.35
-8.98
-10.09
-10.49
-10.14
-9.16
-7.79
-6.27
-4.85
-3.71
-2.90
-2.43
-2.24
-2.24
-2.32
-2.40
-2.41
-2.32
-2.13
-1.84
-1.50
-1.19
-0.97
-0.88
-0.95
-1.13
-1.40
-1.70
-2.04
-2.44
-2.96
-3.65
-4.54
-5.59
-6.66
-7.52
-7.89
-7.55
-6.42
-4.62
-2.41
-0.16
1.87
3.55
4.94
6.17
7.41
8.65
9.81
10.68
11.12
11.10
10.73
10.23
9.80
9.58
9.56
9.64
9.72
9.70
9.55
9.26
8.79
8.10
7.11
5.80
4.17
2.33
0.48
-1.12
-2.18
-2.48
-1.95
-0.70
0.98
2.74
4.25
5.28
5.75
5.70
5.21
4.39
3.38
2.28
1.20
0.23
-0.63
-1.40
-2.13
-2.91
-3.78
-4.76
-5.84
-6.98
-8.08
-9.07
-9.89
-10.59
-11.27
-12.03
-12.91
-13.80
-14.43
-14.47
-13.65
-11.86
-9.21
-6.01
-2.60
0.69
3.59
5.91
7.51
8.20
7.89
6.56
4.39
1.75
-0.90
-3.14
-4.68
-5.51
-5.84
-5.97
-6.17
-6.58
-7.14
-7.68
-8.04
-8.18
-8.23
-8.42
-8.97
-9.97
-11.27
-12.55
-13.44
-13.65
-13.13
-12.00
-10.54
-8.98
-7.47
-6.03
-4.69
-3.49
-2.59
-2.12
-2.12
-2.44
-2.80
-2.92
-2.63
-2.03
-1.35
-0.91
-0.91
-1.38
-2.20
-3.23
-4.34
-5.51
-6.75
-8.08
-9.48
-10.90
-12.28
-13.54
-14.56
-15.17
-15.18
-14.40
-12.73
-10.24
-7.17
-3.92
-0.90
1.60
3.40
4.56
5.21
5.54
5.72
5.81
5.88
6.00
6.23
6.70
7.44
8.39
9.37
10.12
10.43
10.24
9.61
8.74
7.85
7.06
6.37
5.66
4.82
3.78
2.65
1.71
1.26
1.57
2.70
4.52
6.68
8.80
10.53
11.68
12.22
12.25
11.95
11.52
11.15
10.94
10.95
11.14
11.44
11.72
11.85
11.70
11.18
10.26
9.01
7.64
6.39
5.51
5.10
5.08
5.21
5.21
4.93
4.43
3.96
3.89
4.45
5.68
7.33
9.01
10.29
10.89
10.75
9.97
8.80
7.47
6.13
4.85
3.63
2.47
1.43
0.67
0.41
0.79
1.80
3.16
4.41
5.06
4.78
3.53
1.53
-0.81
-3.13
-5.13
-6.63
-7.50
-7.60
-6.81
-5.16
-2.83
-0.23
2.15
3.90
4.78
4.78
4.05
2.80
1.20
-0.63
-2.58
-4.56
-6.46
-8.15
-9.52
-10.53
-11.20
-11.60
-11.85
-12.02
-12.18
-12.34
-12.56
-12.84
-13.19
-13.55
-13.76
-13.58
-12.75
-11.08
-8.61
-5.58
-2.45
0.23
2.01
2.68
2.36
1.48
0.67
0.51
1.33
2.99
4.88
5.97
5.14
1.72
-4.16
-11.37
-18.06
-22.33
-22.81
-19.15
-12.07
-3.06
6.08
13.65
18.35
19.57
17.48
13.07
7.94
3.79
1.80
2.19
4.15
6.32
7.49
7.15
5.61
3.71
2.30
1.88
2.51
3.85
5.54
7.32
9.00
10.40
11.21
11.04
9.58
6.82
3.12
-0.79
-4.15
-6.42
-7.46
-7.57
-7.22
-6.81
-6.50
-6.19
-5.66
-4.78
-3.57
-2.22
-0.97
-0.01
0.60
0.89
0.94
0.81
0.57
0.23
-0.18
-0.67
-1.20
-1.76
-2.29
-2.74
-3.07
-3.27
-3.43
-3.67
-4.11
-4.80
-5.67
-6.56
-7.20
-7.34
-6.79
-5.54
-3.75
-1.75
0.07
1.40
2.11
2.27
2.10
1.87
1.77
1.90
2.24
2.73
3.31
3.93
4.57
5.18
5.70
6.04
6.12
5.88
5.29
4.41
3.34
2.24
1.26
0.43
-0.27
-0.94
-1.65
-2.35
-2.85
-2.93
-2.43
-1.33
0.21
1.90
3.47
4.72
5.59
6.13
6.48
6.85
7.43
8.35
9.60
11.05
12.43
13.48
14.02
14.01
13.50
12.56
11.18
9.28
6.77
3.63
-0.06
-4.12
-8.28
-12.28
-15.80
-18.53
-20.19
-20.59
-19.76
-17.94
-15.51
-12.85
-10.26
-7.90
-5.84
-4.17
-3.03
-2.57
-2.92
-4.07
-5.90
-8.03
-9.82
-10.41
-8.88
-4.64
2.21
10.67
18.98
25.21
27.95
26.82
22.59
16.70
10.72
5.76
2.34
0.53
0.23
1.30
3.60
6.80
10.39
13.64
15.85
16.53
15.56
13.18
9.92
6.38
3.11
0.40
-1.75
-3.51
-5.07
-6.40
-7.21
-7.01
-5.48
-2.72
0.62
3.48
4.85
4.13
1.34
-2.91
-7.72
-12.21
-15.76
-18.08
-19.19
-19.24
-18.47
-17.16
-15.55
-13.85
-12.21
-10.68
-9.28
-7.94
-6.57
-5.08
-3.36
-1.38
0.79
2.96
4.87
6.26
7.00
7.13
6.82
6.28
5.66
4.97
4.13
3.07
1.77
0.39
-0.84
-1.65
-1.84
-1.38
-0.43
0.76
1.89
2.74
3.22
3.37
3.33
3.20
3.05
2.87
2.57
2.10
1.42
0.54
-0.46
-1.53
-2.57
-3.52
-4.33
-4.94
-5.36
-5.65
-5.96
-6.46
-7.33
-8.61
-10.22
-11.95
-13.51
-14.64
-15.22
-15.29
-15.06
-14.79
-14.67
-14.78
-15.04
-15.27
-15.32
-15.07
-14.54
-13.82
-12.96
-12.03
-11.06
-10.11
-9.26
-8.59
-8.15
-7.90
-7.73
-7.55
-7.31
-7.09
-6.99
-7.08
-7.30
-7.41
-7.13
-6.16
-4.43
-2.05
0.67
3.33
5.59
7.23
8.24
8.70
8.80
8.70
8.49
8.19
7.74
7.11
6.29
5.35
4.41
3.56
2.89
2.37
1.97
1.61
1.22
0.66
-0.23
-1.57
-3.35
-5.33
-7.06
-8.04
-7.93
-6.71
-4.75
-2.65
-0.93
0.12
0.50
0.43
0.16
-0.14
-0.38
-0.49
-0.39
0.00
0.74
1.74
2.83
3.81
4.52
4.96
5.18
5.25
5.18
4.89
4.26
3.24
1.84
0.25
-1.29
-2.48
-3.07
-2.90
-1.96
-0.39
1.52
3.45
5.11
6.33
7.11
7.56
7.80
7.89
7.79
7.43
6.78
5.88
4.92
4.13
3.70
3.70
4.05
4.55
4.94
4.99
4.55
3.61
2.29
0.89
-0.22
-0.65
-0.14
1.30
3.44
5.83
8.06
9.90
11.38
12.72
14.18
15.92
17.89
19.84
21.44
22.43
22.61
21.99
20.67
18.88
16.84
14.73
12.64
10.55
8.43
6.25
4.11
2.20
0.74
-0.08
-0.25
0.14
0.90
1.84
2.94
4.30
6.07
8.37
11.13
14.04
16.64
18.46
19.17
18.68
17.17
14.98
12.49
10.05
7.83
5.89
4.17
2.61
1.13
-0.37
-2.13
-4.50
-7.90
-12.61
-18.54
-25.14
-31.50
-36.65
-39.89
-40.93
-39.90
-37.10
-32.78
-27.08
-20.22
-12.68
-5.34
0.75
4.66
6.01
5.17
3.04
0.73
-0.97
-1.81
-2.07
-2.31
-2.98
-4.26
-6.03
-8.02
-9.99
-11.80
-13.35
-14.51
-15.09
-14.91
-13.90
-12.20
-10.14
-8.15
-6.55
-5.44
-4.70
-4.13
-3.55
-2.87
-2.12
-1.44
-0.91
-0.60
-0.50
-0.57
-0.75
-0.97
-1.18
-1.40
-1.67
-2.12
-2.85
-3.87
-5.02
-6.00
-6.49
-6.20
-5.07
-3.29
-1.14
1.02
2.97
4.58
5.84
6.77
7.38
7.64
7.59
7.28
6.84
6.45
6.25
6.31
6.61
7.01
7.37
7.54
7.46
7.12
6.59
5.92
5.11
4.15
2.99
1.62
0.10
-1.42
-2.74
-3.66
-4.00
-3.71
-2.84
-1.55
-0.07
1.35
2.53
3.35
3.83
4.00
3.91
3.60
3.12
2.55
2.02
1.65
1.50
1.53
1.57
1.44
0.99
0.19
-0.88
-2.09
-3.32
-4.51
-5.62
-6.63
-7.50
-8.17
-8.58
-8.71
-8.55
-8.09
-7.34
-6.27
-4.91
-3.31
-1.62
-0.02
1.29
2.20
2.65
2.72
2.57
2.37
2.28
2.38
2.67
3.06
3.46
3.79
3.97
3.92
3.58
2.89
1.80
0.29
-1.61
-3.83
-6.27
-8.75
-11.01
-12.73
-13.59
-13.38
-12.12
-10.04
-7.54
-5.01
-2.69
-0.61
1.38
3.42
5.61
7.90
10.13
12.15
13.93
15.55
17.20
19.01
21.04
23.17
25.16
26.70
27.53
27.51
26.65
25.08
22.97
20.57
18.15
15.99
14.37
13.47
13.29
13.63
14.09
14.32
14.08
13.32
12.20
10.90
9.57
8.23
6.83
5.30
3.59
1.72
-0.19
-1.95
-3.26
-3.81
-3.46
-2.29
-0.71
0.72
1.49
1.38
0.57
-0.37
-0.75
-0.05
1.87
4.72
7.87
10.58
12.26
12.63
11.74
9.93
7.59
5.03
2.35
-0.49
-3.49
-6.53
-9.35
-11.63
-13.17
-14.04
-14.53
-15.01
-15.80
-16.95
-18.31
-19.61
-20.60
-21.14
-21.19
-20.73
-19.71
-18.04
-15.67
-12.68
-9.33
-5.94
-2.88
-0.38
1.48
2.77
3.62
4.13
4.33
4.22
3.84
3.27
2.69
2.26
2.08
2.16
2.35
2.50
2.44
2.06
1.36
0.36
-0.88
-2.34
-3.93
-5.50
-6.78
-7.39
-7.02
-5.59
-3.32
-0.73
1.53
2.96
3.34
2.81
1.76
0.56
-0.54
-1.49
-2.39
-3.31
-4.30
-5.27
-6.12
-6.83
-7.41
-7.93
-8.44
-8.96
-9.44
-9.85
-10.19
-10.49
-10.75
-10.91
-10.85
-10.41
-9.45
-7.96
-6.01
-3.76
-1.41
0.87
2.94
4.69
6.08
7.13
7.90
8.50
9.08
9.78
10.70
11.86
13.18
14.44
15.41
15.89
15.76
15.06
13.88
12.33
10.41
8.10
5.36
2.27
-0.94
-3.88
-6.14
-7.42
-7.63
-6.92
-5.66
-4.25
-3.03
-2.20
-1.80
-1.77
-1.97
-2.32
-2.78
-3.38
-4.15
-5.09
-6.14
-7.15
-7.99
-8.54
-8.80
-8.89
-8.96
-9.13
-9.47
-9.96
-10.56
-11.23
-11.97
-12.68
-13.22
-13.38
-12.94
-11.83
-10.12
-8.08
-6.01
-4.19
-2.73
-1.63
-0.84
-0.28
0.05
0.16
0.03
-0.29
-0.68
-0.99
-1.13
-1.10
-0.96
-0.83
-0.80
-0.92
-1.21
-1.67
-2.34
-3.26
-4.35
-5.39
-6.05
-5.97
-4.96
-3.12
-0.82
1.49
3.42
4.83
5.79
6.45
6.94
7.25
7.32
7.12
6.74
6.36
6.22
6.49
7.19
8.23
9.42
10.53
11.31
11.52
11.00
9.68
7.73
5.53
3.60
2.44
2.36
3.32
4.99
6.88
8.54
9.71
10.36
10.61
10.61
10.46
10.19
9.75
9.15
8.41
7.57
6.68
5.77
4.86
3.98
3.17
2.40
1.58
0.56
-0.84
-2.77
-5.24
-8.11
-11.08
-13.76
-15.78
-16.87
-16.98
-16.22
-14.87
-13.22
-11.55
-10.08
-8.95
-8.21
-7.84
-7.72
-7.70
-7.63
-7.40
-6.99
-6.52
-6.15
-6.02
-6.20
-6.63
-7.15
-7.55
-7.69
-7.61
-7.57
-7.95
-9.05
-10.87
-12.96
-14.58
-14.96
-13.70
-10.94
-7.35
-3.80
-0.98
0.76
1.44
1.30
0.62
-0.21
-0.76
-0.53
0.81
3.28
6.44
9.58
11.97
13.19
13.23
12.37
10.97
9.24
7.24
4.94
2.34
-0.47
-3.27
-5.80
-7.78
-8.92
-9.04
-8.15
-6.49
-4.52
-2.72
-1.45
-0.80
-0.65
-0.76
-0.92
-1.00
-0.95
-0.70
-0.23
0.49
1.36
2.20
2.78
2.94
2.64
1.96
1.05
0.05
-0.97
-1.98
-2.99
-4.01
-4.99
-5.86
-6.53
-6.90
-6.87
-6.38
-5.40
-4.02
-2.34
-0.49
1.44
3.41
5.33
7.08
8.45
9.21
9.21
8.54
7.46
6.37
5.58
5.22
5.17
5.15
4.90
4.31
3.45
2.52
1.72
1.11
0.53
-0.23
-1.33
-2.67
-3.90
-4.54
-4.18
-2.73
-0.42
2.29
4.88
6.97
8.37
9.00
8.85
7.92
6.35
4.49
2.95
2.43
3.42
5.94
9.40
12.76
14.93
15.19
13.43
10.16
6.19
2.28
-1.13
-3.94
-6.23
-8.04
-9.19
-9.37
-8.35
-6.12
-3.02
0.42
3.69
6.47
8.73
10.65
12.40
14.00
15.30
16.01
15.94
15.08
13.65
12.01
10.55
9.54
9.05
8.97
9.08
9.14
8.98
8.49
7.63
6.44
5.01
3.53
2.24
1.46
1.42
2.18
3.60
5.32
6.95
8.19
8.92
9.16
8.98
8.43
7.49
6.19
4.64
3.09
1.89
1.32
1.52
2.38
3.59
4.78
5.58
5.76
5.23
3.99
2.17
-0.05
-2.32
-4.22
-5.37
-5.53
-4.72
-3.29
-1.76
-0.61
-0.14
-0.35
-1.01
-1.80
-2.50
-3.04
-3.49
-4.00
-4.69
-5.60
-6.68
-7.85
-9.03
-10.20
-11.45
-12.89
-14.64
-16.68
-18.88
-20.95
-22.59
-23.51
-23.57
-22.75
-21.14
-18.93
-16.36
-13.73
-11.33
-9.46
-8.32
-7.96
-8.29
-9.08
-10.05
-10.88
-11.36
-11.36
-10.92
-10.18
-9.33
-8.58
-8.06
-7.78
-7.64
-7.51
-7.31
-7.03
-6.78
-6.68
-6.78
-6.99
-7.12
-6.88
-6.04
-4.50
-2.35
0.16
2.70
4.96
6.73
7.92
8.54
8.65
8.33
7.69
6.81
5.83
4.88
4.10
3.56
3.28
3.23
3.32
3.45
3.50
3.32
2.77
1.73
0.24
-1.44
-2.88
-3.57
-3.13
-1.50
1.08
4.07
6.92
9.20
10.73
11.49
11.62
11.25
10.54
9.66
8.82
8.22
7.99
8.11
8.44
8.73
8.77
8.43
7.74
6.76
5.62
4.36
3.00
1.46
-0.29
-2.21
-4.10
-5.64
-6.48
-6.30
-5.01
-2.73
0.15
3.17
5.89
7.98
9.32
9.92
9.94
9.58
9.05
8.52
8.12
7.88
7.74
7.56
7.18
6.45
5.36
3.99
2.50
1.06
-0.22
-1.38
-2.52
-3.77
-5.14
-6.50
-7.57
-8.03
-7.65
-6.33
-4.24
-1.66
1.03
3.49
5.50
6.92
7.75
8.04
7.91
7.49
6.88
6.15
5.35
4.52
3.73
3.06
2.53
2.12
1.70
1.10
0.18
-1.10
-2.66
-4.36
-6.07
-7.62
-8.84
-9.52
-9.38
-8.29
-6.28
-3.60
-0.71
1.96
4.13
5.77
7.02
8.07
9.01
9.76
10.14
9.91
8.95
7.28
5.14
2.88
0.91
-0.46
-1.06
-0.95
-0.40
0.27
0.78
0.94
0.73
0.21
-0.47
-1.10
-1.43
-1.19
-0.24
1.37
3.34
5.19
6.49
6.98
6.74
6.06
5.28
4.61
4.08
3.56
2.92
2.10
1.09
-0.06
-1.38
-2.87
-4.54
-6.30
-8.03
-9.66
-11.19
-12.80
-14.66
-16.88
-19.34
-21.70
-23.52
-24.37
-23.99
-22.37
-19.77
-16.64
-13.57
-11.10
-9.65
-9.40
-10.25
-11.82
-13.60
-15.03
-15.73
-15.53
-14.51
-12.87
-10.87
-8.76
-6.71
-4.87
-3.37
-2.27
-1.63
-1.39
-1.50
-1.84
-2.27
-2.64
-2.75
-2.44
-1.59
-0.22
1.44
3.10
4.46
5.36
5.82
6.00
6.03
5.95
5.71
5.25
4.60
3.89
3.35
3.11
3.18
3.38
3.40
2.93
1.75
-0.18
-2.74
-5.59
-8.28
-10.29
-11.17
-10.68
-8.88
-6.10
-2.88
0.25
2.90
4.87
6.16
6.85
7.08
6.91
6.42
5.71
4.93
4.25
3.82
3.69
3.78
3.94
3.98
3.78
3.33
2.67
1.87
1.00
0.06
-0.99
-2.17
-3.42
-4.53
-5.18
-5.05
-3.94
-1.89
0.79
3.63
6.15
8.07
9.35
10.07
10.36
10.25
9.63
8.43
6.66
4.54
2.41
0.62
-0.60
-1.16
-1.08
-0.41
0.76
2.33
4.05
5.56
6.38
6.12
4.59
1.99
-1.09
-3.85
-5.51
-5.62
-4.19
-1.67
1.25
3.96
6.09
7.60
8.68
9.52
10.21
10.71
10.92
10.85
10.61
10.38
10.31
10.39
10.47
10.39
10.03
9.47
8.93
8.63
8.69
9.02
9.32
9.22
8.36
6.64
4.21
1.45
-1.13
-3.07
-4.04
-3.88
-2.56
-0.10
3.43
7.87
12.94
18.15
22.90
26.59
28.78
29.29
28.22
25.80
22.37
18.29
13.92
9.66
5.88
2.81
0.42
-1.61
-3.84
-6.79
-10.78
-15.70
-21.00
-25.92
-29.71
-31.83
-32.14
-30.84
-28.30
-24.96
-21.20
-17.31
-13.49
-9.94
-6.84
-4.26
-2.17
-0.35
1.46
3.49
5.81
8.30
10.67
12.60
13.88
14.45
14.43
14.01
13.41
12.83
12.37
12.06
11.80
11.42
10.76
9.72
8.29
6.62
4.93
3.48
2.46
1.98
1.99
2.34
2.79
3.09
3.06
2.65
1.92
1.07
0.31
-0.22
-0.53
-0.71
-0.89
-1.12
-1.33
-1.37
-1.05
-0.26
0.94
2.36
3.70
4.75
5.38
5.68
5.80
5.90
6.07
6.23
6.19
5.73
4.63
2.79
0.27
-2.68
-5.59
-7.88
-9.11
-9.12
-8.20
-6.95
-6.06
-5.95
-6.66
-7.79
-8.82
-9.31
-9.08
-8.23
-7.02
-5.78
-4.72
-3.93
-3.36
-2.79
-1.99
-0.81
0.63
1.95
2.58
2.03
0.13
-2.87
-6.45
-9.94
-12.79
-14.58
-15.11
-14.38
-12.53
-9.84
-6.67
-3.28
0.23
3.89
7.74
11.62
15.15
17.82
19.29
19.55
18.94
17.86
16.59
15.12
13.30
11.05
8.53
6.10
4.17
2.94
2.29
1.97
1.71
1.39
1.01
0.59
0.05
-0.77
-2.03
-3.78
-5.99
-8.66
-11.85
-15.68
-20.23
-25.35
-30.63
-35.51
-39.46
-42.22
-43.84
-44.58
-44.63
-43.97
-42.36
-39.46
-35.09
-29.40
-22.86
-16.19
-10.10
-5.17
-1.68
0.39
1.36
1.77
2.21
3.14
4.83
7.21
9.97
12.67
14.86
16.25
16.67
16.14
14.84
13.09
11.34
10.01
9.40
9.56
10.30
11.24
12.03
12.46
12.55
12.45
12.36
12.34
12.28
11.90
10.91
9.14
6.58
3.44
0.02
-3.31
-6.21
-8.44
-9.81
-10.26
-9.88
-8.91
-7.72
-6.68
-6.07
-5.96
-6.21
-6.51
-6.55
-6.04
-4.87
-3.07
-0.79
1.70
4.09
6.10
7.57
8.52
9.05
9.35
9.52
9.57
9.34
8.62
7.25
5.25
2.83
0.41
-1.56
-2.75
-3.08
-2.77
-2.25
-1.98
-2.29
-3.19
-4.34
-5.16
-5.05
-3.63
-0.92
2.59
6.10
8.83
10.28
10.53
10.19
10.22
11.52
14.57
19.11
24.20
28.53
30.93
30.88
28.77
25.80
23.61
23.81
27.61
35.36
46.12
57.55
66.17
68.44
62.10
47.42
27.38
6.77
-9.78
-19.52
-22.51
-21.06
-18.24
-16.38
-16.30
-17.57
-19.36
-21.18
-23.10
-25.38
-28.00
-30.47
-32.00
-31.98
-30.34
-27.74
-25.27
-23.92
-24.14
-25.56
-27.19
-27.84
-26.73
-23.75
-19.50
-14.95
-10.95
-7.91
-5.72
-3.91
-2.00
0.20
2.56
4.67
6.15
6.87
7.03
7.14
7.70
9.04
11.12
13.49
15.40
15.99
14.48
10.41
3.81
-4.75
-14.19
-23.21
-30.53
-35.29
-37.26
-36.84
-34.90
-32.45
-30.35
-29.11
-28.85
-29.32
-30.04
-30.36
-29.62
-27.29
-23.19
-17.62
-11.28
-5.22
-0.46
2.34
3.12
2.47
1.48
1.39
3.19
7.14
12.50
17.70
20.84
20.53
16.55
10.11
3.38
-1.32
-2.50
-0.10
4.59
9.48
12.43
12.01
7.85
0.67
-8.02
-16.24
-22.07
-24.12
-21.99
-16.55
-9.53
-2.92
1.83
4.25
4.89
4.76
4.72
5.15
5.92
6.83
7.92
9.48
11.82
14.90
18.19
20.93
22.66
23.57
24.52
26.52
30.21
35.46
41.28
46.15
48.60
47.81
43.84
37.65
30.64
24.17
19.01
15.14
11.88
8.26
3.46
-2.83
-10.25
-17.93
-24.80
-29.97
-33.05
-34.18
-33.91
-32.83
-31.29
-29.35
-26.82
-23.58
-19.75
-15.67
-11.74
-8.28
-5.34
-2.84
-0.70
1.02
2.13
2.48
2.10
1.20
0.15
-0.76
-1.41
-1.92
-2.53
-3.49
-4.92
-6.79
-8.87
-10.83
-12.34
-13.10
-12.94
-11.86
-10.04
-7.75
-5.38
-3.24
-1.56
-0.40
0.35
0.92
1.63
2.72
4.37
6.56
9.14
11.80
14.20
15.99
16.97
17.09
16.50
15.45
14.22
12.97
11.76
10.50
9.05
7.34
5.38
3.27
1.13
-0.99
-3.10
-5.24
-7.46
-9.78
-12.21
-14.77
-17.41
-20.02
-22.35
-24.06
-24.81
-24.41
-22.92
-20.60
-17.84
-15.04
-12.47
-10.38
-8.97
-8.49
-9.11
-10.79
-13.20
-15.76
-17.86
-19.16
-19.69
-19.86
-20.19
-21.04
-22.45
-24.18
-25.89
-27.33
-28.42
-29.17
-29.56
-29.49
-28.80
-27.36
-25.20
-22.47
-19.44
-16.31
-13.24
-10.27
-7.43
-4.78
-2.44
-0.53
0.89
1.86
2.53
3.16
3.97
5.12
6.65
8.40
10.07
11.30
11.71
11.04
9.31
6.78
3.97
1.47
-0.16
-0.57
0.28
2.20
4.77
7.52
10.03
11.98
13.22
13.78
13.81
13.52
13.11
12.73
12.43
12.20
12.02
11.87
11.77
11.75
11.75
11.67
11.34
10.60
9.37
7.67
5.63
3.48
1.46
-0.22
-1.39
-1.96
-1.95
-1.45
-0.66
0.19
0.87
1.22
1.19
0.82
0.22
-0.48
-1.15
-1.69
-2.04
-2.14
-2.01
-1.71
-1.37
-1.14
-1.16
-1.51
-2.21
-3.24
-4.56
-6.08
-7.71
-9.20
-10.22
-10.38
-9.42
-7.34
-4.41
-1.12
2.02
4.67
6.77
8.41
9.75
10.84
11.60
11.88
11.63
10.96
10.10
9.39
9.06
9.13
9.44
9.74
9.81
9.51
8.83
7.79
6.43
4.79
3.03
1.49
0.64
0.90
2.43
5.02
8.19
11.33
14.01
16.12
17.74
19.00
19.92
20.29
19.88
18.60
16.71
14.77
13.40
13.02
13.59
14.63
15.40
15.31
14.17
12.39
10.74
10.07
10.90
13.22
16.51
19.90
22.58
23.98
24.00
23.13
22.35
22.96
26.15
32.68
42.47
54.44
66.47
75.74
79.42
75.64
64.27
47.34
28.40
11.28
-1.43
-9.23
-13.52
-16.50
-19.86
-24.11
-28.74
-33.09
-37.08
-41.25
-46.19
-51.73
-56.74
-59.48
-58.55
-53.60
-45.51
-36.03
-26.98
-19.57
-14.18
-10.38
-7.36
-4.29
-0.67
3.55
8.08
12.44
16.24
19.19
21.16
22.07
21.89
20.68
18.63
16.10
13.57
11.53
10.29
9.91
10.24
10.98
11.82
12.46
12.66
12.32
11.42
10.11
8.70
7.60
7.21
7.79
9.35
11.58
13.85
15.34
15.28
13.22
9.31
4.25
-0.94
-5.41
-8.86
-11.66
-14.62
-18.46
-23.37
-28.93
-34.38
-39.11
-42.93
-46.14
-49.08
-51.78
-53.82
-54.53
-53.47
-50.75
-47.05
-43.28
-40.10
-37.62
-35.44
-32.92
-29.62
-25.42
-20.58
-15.49
-10.49
-5.73
-1.27
2.82
6.42
9.31
11.31
12.40
12.80
12.89
13.14
13.94
15.47
17.62
20.13
22.72
25.23
27.72
30.46
33.74
37.74
42.39
47.28
51.77
55.02
56.27
55.01
51.26
45.74
39.81
35.12
33.07
34.15
37.58
41.33
42.78
39.59
30.64
16.43
-1.03
-18.95
-34.58
-45.94
-52.10
-53.09
-49.61
-42.69
-33.52
-23.36
-13.48
-5.12
0.81
3.82
4.09
2.35
-0.40
-3.20
-5.46
-7.06
-8.26
-9.41
-10.64
-11.79
-12.48
-12.39
-11.49
-10.10
-8.81
-8.14
-8.42
-9.56
-11.19
-12.80
-13.92
-14.22
-13.65
-12.32
-10.54
-8.66
-7.02
-5.85
-5.18
-4.88
-4.72
-4.45
-3.98
-3.37
-2.83
-2.65
-3.01
-3.97
-5.40
-7.07
-8.70
-10.15
-11.38
-12.49
-13.73
-15.38
-17.75
-21.06
-25.32
-30.31
-35.48
-40.09
-43.35
-44.64
-43.64
-40.29
-34.86
-27.80
-19.71
-11.40
-3.71
2.57
6.98
9.52
10.62
10.89
10.86
10.72
10.42
9.83
9.04
8.37
8.25
8.95
10.31
11.84
12.93
13.16
12.48
11.19
9.71
8.38
7.29
6.38
5.61
5.01
4.76
5.04
5.92
7.28
8.82
10.22
11.22
11.75
11.84
11.61
11.16
10.60
10.02
9.54
9.26
9.26
9.50
9.88
10.21
10.35
10.23
9.86
9.35
8.81
8.30
7.84
7.33
6.68
5.81
4.77
3.70
2.84
2.41
2.55
3.24
4.28
5.37
6.21
6.59
6.43
5.81
4.87
3.79
2.72
1.80
1.16
0.90
1.08
1.66
2.49
3.26
3.65
3.41
2.47
1.00
-0.69
-2.24
-3.39
-4.09
-4.43
-4.59
-4.69
-4.75
-4.60
-4.01
-2.77
-0.77
1.96
5.24
8.82
12.41
15.73
18.60
20.91
22.65
23.89
24.73
25.24
25.48
25.43
25.09
24.44
23.49
22.30
20.89
19.29
17.50
15.54
13.43
11.23
8.99
6.74
4.44
1.98
-0.73
-3.67
-6.71
-9.60
-12.04
-13.90
-15.21
-16.19
-17.10
-18.15
-19.38
-20.69
-21.93
-22.97
-23.77
-24.34
-24.76
-25.10
-25.45
-25.89
-26.54
-27.49
-28.76
-30.20
-31.34
-31.43
-29.60
-25.30
-18.68
-10.70
-2.80
3.78
8.66
12.44
16.36
21.41
27.77
34.69
40.98
45.65
48.18
48.29
45.56
39.42
29.64
17.01
3.64
-7.70
-14.76
-16.83
-15.08
-11.77
-9.10
-8.19
-8.89
-10.32
-11.64
-12.56
-13.22
-13.93
-14.78
-15.65
-16.34
-16.68
-16.63
-16.19
-15.43
-14.46
-13.46
-12.66
-12.19
-12.06
-12.14
-12.30
-12.48
-12.73
-13.02
-13.11
-12.52
-10.69
-7.35
-2.67
2.55
7.21
10.26
11.13
9.93
7.36
4.39
1.85
0.17
-0.64
-0.85
-0.70
-0.31
0.45
1.70
3.51
5.68
7.88
9.72
10.90
11.35
11.20
10.63
9.80
8.68
7.17
5.19
2.78
0.19
-2.20
-4.13
-5.55
-6.72
-8.00
-9.62
-11.53
-13.40
-14.85
-15.68
-16.04
-16.30
-16.83
-17.73
-18.78
-19.53
-19.51
-18.46
-16.44
-13.74
-10.80
-8.01
-5.63
-3.72
-2.24
-1.03
0.01
0.91
1.58
1.90
1.76
1.15
0.21
-0.82
-1.66
-2.00
-1.58
-0.33
1.62
3.86
5.84
6.96
6.82
5.28
2.59
-0.79
-4.28
-7.37
-9.69
-10.99
-11.10
-9.91
-7.31
-3.30
1.92
7.88
13.83
18.87
22.18
23.30
22.32
19.78
16.50
13.24
10.48
8.36
6.84
5.84
5.43
5.66
6.52
7.72
8.74
8.99
8.07
5.94
2.95
-0.27
-3.04
-4.88
-5.57
-5.16
-3.88
-2.02
0.18
2.51
4.85
7.10
9.08
10.59
11.33
11.08
9.78
7.63
5.12
2.79
1.05
-0.01
-0.65
-1.29
-2.31
-3.78
-5.45
-6.96
-7.99
-8.54
-8.91
-9.49
-10.53
-12.00
-13.59
-14.90
-15.59
-15.47
-14.35
-12.06
-8.46
-3.72
1.63
6.65
10.35
12.16
12.11
10.75
8.75
6.40
3.48
-0.41
-5.32
-10.52
-14.70
-16.41
-14.86
-10.29
-3.89
2.64
7.83
10.86
11.54
10.18
7.24
3.23
-1.33
-5.86
-9.75
-12.50
-13.88
-13.99
-13.24
-12.14
-11.12
-10.33
-9.50
-8.10
-5.68
-2.23
1.65
5.02
7.08
7.70
7.63
8.03
9.80
12.99
16.71
19.65
20.85
20.15
18.19
15.85
13.61
11.31
8.39
4.41
-0.47
-5.50
-9.56
-11.73
-11.60
-9.42
-5.99
-2.31
0.74
2.52
2.84
1.82
-0.20
-2.74
-5.23
-7.17
-8.14
-7.92
-6.57
-4.42
-2.01
-0.01
1.05
0.90
-0.37
-2.30
-4.24
-5.58
-5.96
-5.37
-4.08
-2.55
-1.24
-0.47
-0.36
-0.86
-1.76
-2.79
-3.66
-4.12
-4.05
-3.45
-2.44
-1.22
-0.04
0.86
1.29
1.20
0.67
-0.07
-0.75
-1.13
-1.14
-0.82
-0.33
0.19
0.63
0.97
1.15
1.11
0.71
-0.19
-1.57
-3.22
-4.73
-5.59
-5.42
-4.13
-1.95
0.64
3.11
5.10
6.46
7.29
7.73
7.93
7.91
7.65
7.13
6.44
5.73
5.15
4.76
4.53
4.35
4.13
3.80
3.35
2.76
1.97
0.90
-0.53
-2.25
-4.07
-5.63
-6.54
-6.48
-5.41
-3.53
-1.25
0.96
2.73
3.89
4.50
4.71
4.71
4.61
4.43
4.15
3.79
3.38
2.97
2.57
2.11
1.48
0.59
-0.59
-1.96
-3.37
-4.69
-5.86
-6.89
-7.80
-8.53
-8.91
-8.75
-7.88
-6.33
-4.29
-2.11
-0.10
1.52
2.73
3.65
4.46
5.29
6.17
7.04
7.77
8.29
8.63
8.89
9.16
9.47
9.70
9.69
9.32
8.58
7.59
6.48
5.32
4.13
2.87
1.63
0.57
-0.11
-0.34
-0.24
-0.08
-0.11
-0.43
-0.88
-1.23
-1.32
-1.17
-1.03
-1.16
-1.76
-2.84
-4.27
-5.84
-7.33
-8.51
-9.14
-9.04
-8.13
-6.60
-4.79
-3.16
-2.13
-1.87
-2.35
-3.30
-4.41
-5.36
-5.93
-6.01
-5.57
-4.65
-3.38
-1.94
-0.51
0.74
1.73
2.47
3.03
3.52
4.00
4.54
5.11
5.68
6.17
6.46
6.46
6.12
5.46
4.62
3.80
3.21
2.93
2.86
2.78
2.45
1.81
1.10
0.71
0.98
2.00
3.42
4.71
5.33
5.06
4.16
3.14
2.57
2.82
3.88
5.49
7.31
9.06
10.59
11.86
12.86
13.50
13.61
13.10
12.12
11.06
10.51
10.84
11.91
12.92
12.68
10.16
5.09
-1.75
-8.76
-14.16
-16.69
-16.03
-12.79
-8.08
-2.98
1.79
5.96
9.48
12.40
14.74
16.48
17.62
18.19
18.26
17.80
16.70
14.62
11.23
6.40
0.52
-5.48
-10.45
-13.48
-14.34
-13.46
-11.58
-9.22
-6.39
-2.71
2.06
7.61
12.93
16.68
17.86
16.28
12.66
8.21
4.08
0.94
-1.12
-2.37
-3.28
-4.21
-5.37
-6.83
-8.61
-10.74
-13.25
-16.13
-19.24
-22.28
-24.84
-26.54
-27.20
-26.99
-26.39
-25.99
-26.27
-27.38
-29.01
-30.49
-30.96
-29.77
-26.67
-21.99
-16.59
-11.56
-7.89
-6.12
-6.16
-7.41
-8.99
-10.15
-10.39
-9.62
-8.05
-6.07
-4.25
-3.21
-3.51
-5.41
-8.57
-11.90
-13.79
-12.76
-8.20
-0.82
7.48
14.38
18.20
18.60
16.64
14.10
12.47
12.25
12.90
13.31
12.66
10.82
8.42
6.34
5.14
4.80
4.90
5.02
5.14
5.74
7.48
10.67
14.99
19.37
22.47
23.14
20.94
16.27
10.18
4.01
-1.05
-4.14
-4.84
-3.14
0.48
5.02
9.01
10.90
9.52
4.64
-2.85
-11.25
-18.67
-23.82
-26.36
-26.85
-26.26
-25.41
-24.64
-23.69
-21.88
-18.38
-12.54
-4.20
6.03
16.73
25.96
31.85
33.27
30.19
23.69
15.41
6.96
-0.56
-6.63
-11.10
-13.85
-14.70
-13.51
-10.39
-5.93
-1.09
3.08
5.83
6.99
6.99
6.64
6.70
7.52
8.91
10.29
10.98
10.69
9.66
8.59
8.37
9.57
12.17
15.52
18.58
20.36
20.33
18.59
15.74
12.58
9.75
7.62
6.26
5.56
5.31
5.28
5.18
4.79
4.02
3.03
2.13
1.68
1.86
2.57
3.52
4.40
5.11
5.76
6.59
7.72
9.01
10.12
10.69
10.58
9.95
9.19
8.76
8.98
10.01
11.78
14.00
16.17
17.51
17.15
14.40
9.12
1.99
-5.54
-11.74
-15.22
-15.55
-13.35
-10.01
-7.00
-5.25
-4.91
-5.48
-6.29
-6.93
-7.39
-8.00
-9.07
-10.65
-12.41
-13.78
-14.24
-13.58
-11.98
-9.90
-7.82
-5.95
-4.16
-2.11
0.48
3.52
6.43
8.31
8.34
6.09
1.83
-3.54
-8.81
-12.79
-14.67
-14.26
-11.92
-8.46
-4.75
-1.44
1.29
3.68
6.11
8.72
11.28
13.26
14.28
14.42
14.29
14.70
16.10
18.20
20.15
20.93
19.98
17.38
13.66
9.40
4.88
0.20
-4.44
-8.48
-11.10
-11.72
-10.49
-8.40
-6.82
-6.68
-7.92
-9.48
-9.98
-8.62
-5.69
-2.48
-0.64
-1.40
-5.03
-10.71
-16.79
-21.29
-22.60
-19.98
-14.02
-6.54
0.04
3.56
3.12
-0.64
-5.92
-10.75
-13.92
-15.45
-16.26
-17.42
-19.41
-21.86
-23.85
-24.39
-23.00
-19.84
-15.63
-11.24
-7.20
-3.51
0.29
4.77
10.16
16.01
21.34
25.11
26.73
26.34
24.61
22.25
19.49
16.02
11.38
5.59
-0.47
-5.16
-6.85
-4.80
0.29
6.30
10.50
10.69
6.09
-2.34
-12.28
-20.97
-26.08
-26.38
-21.96
-14.01
-4.43
4.69
11.48
14.84
14.71
12.20
9.16
7.58
8.73
12.70
18.43
24.16
28.17
29.26
26.90
21.14
12.50
1.84
-9.54
-20.02
-28.09
-32.72
-33.70
-31.43
-26.53
-19.47
-10.62
-0.66
9.03
16.42
19.59
17.75
11.91
4.67
-0.93
-2.86
-1.01
2.83
6.05
6.62
4.07
-0.38
-4.66
-6.96
-6.61
-4.29
-1.54
0.13
-0.01
-1.74
-4.11
-6.08
-7.03
-6.81
-5.61
-3.65
-1.00
2.23
5.70
8.66
10.15
9.39
6.25
1.36
-4.09
-8.76
-11.75
-12.78
-12.19
-10.61
-8.65
-6.68
-4.79
-2.96
-1.14
0.63
2.19
3.34
3.90
3.74
2.84
1.31
-0.64
-2.79
-5.01
-7.39
-10.21
-13.73
-17.93
-22.11
-24.91
-24.69
-20.30
-11.90
-1.34
8.38
14.19
14.39
9.36
1.43
-6.20
-10.83
-11.28
-7.99
-2.54
3.29
8.23
11.73
13.71
14.29
13.62
11.93
9.67
7.49
6.08
5.91
6.94
8.60
10.02
10.33
9.10
6.44
3.01
-0.33
-2.82
-4.02
-3.92
-2.84
-1.31
0.15
1.11
1.33
0.73
-0.63
-2.58
-4.90
-7.28
-9.36
-10.79
-11.31
-10.84
-9.48
-7.47
-5.07
-2.55
-0.26
1.40
1.98
1.28
-0.38
-2.16
-2.93
-1.88
0.94
4.50
7.26
7.91
6.07
2.46
-1.52
-4.58
-6.10
-6.32
-5.90
-5.36
-4.65
-3.19
-0.25
4.43
10.26
15.89
19.61
20.15
17.20
11.58
4.90
-1.08
-5.05
-6.51
-5.84
-4.07
-2.47
-2.15
-3.67
-6.75
-10.26
-12.50
-11.92
-7.96
-1.54
5.09
9.20
8.82
3.66
-4.71
-13.61
-20.39
-23.43
-22.50
-18.35
-12.07
-4.69
2.92
9.64
13.98
14.44
10.30
2.36
-6.90
-14.15
-16.62
-13.44
-6.11
2.20
8.19
9.93
7.62
3.15
-0.99
-3.00
-2.44
-0.14
2.45
4.13
4.38
3.44
1.99
0.78
0.33
0.93
2.64
5.35
8.70
12.03
14.43
14.91
12.89
8.52
2.86
-2.50
-6.11
-7.25
-6.28
-4.33
-2.74
-2.41
-3.52
-5.62
-8.10
-10.49
-12.67
-14.63
-16.29
-17.33
-17.39
-16.26
-14.17
-11.66
-9.37
-7.60
-6.14
-4.25
-1.13
3.54
9.23
14.53
17.77
17.82
14.72
9.80
5.04
2.18
1.87
3.47
5.46
6.35
5.43
3.03
0.26
-1.77
-2.50
-2.15
-1.47
-1.25
-1.85
-3.12
-4.54
-5.53
-5.66
-4.71
-2.57
0.67
4.74
9.07
12.83
15.17
15.48
13.69
10.26
6.03
1.95
-1.23
-3.15
-3.82
-3.63
-3.07
-2.68
-2.78
-3.47
-4.66
-6.10
-7.59
-8.99
-10.21
-11.13
-11.54
-11.22
-10.05
-8.09
-5.51
-2.46
0.99
4.84
8.98
13.00
16.18
17.63
16.65
13.03
7.34
0.88
-4.68
-7.84
-7.83
-5.00
-0.60
3.68
6.40
6.97
5.75
3.70
1.87
0.84
0.58
0.67
0.68
0.42
-0.01
-0.39
-0.62
-0.75
-0.89
-0.91
-0.42
1.15
4.16
8.40
12.88
16.15
16.76
13.97
8.07
0.39
-7.24
-13.19
-16.55
-17.33
-16.29
-14.48
-12.79
-11.70
-11.16
-10.80
-10.23
-9.22
-7.87
-6.49
-5.42
-4.79
-4.53
-4.38
-4.11
-3.60
-2.75
-1.37
0.84
4.10
8.24
12.46
15.51
16.27
14.31
10.31
5.72
2.10
0.29
0.11
0.61
0.76
0.09
-1.06
-1.94
-1.88
-0.79
0.84
2.22
2.77
2.37
1.44
0.55
0.21
0.59
1.61
3.08
4.86
6.78
8.56
9.68
9.47
7.36
3.27
-2.28
-8.23
-13.39
-16.91
-18.51
-18.43
-17.13
-15.03
-12.36
-9.28
-6.09
-3.22
-1.16
-0.17
-0.16
-0.65
-1.08
-1.04
-0.53
0.15
0.55
0.36
-0.44
-1.60
-2.72
-3.37
-3.23
-2.23
-0.58
1.21
2.40
2.24
0.28
-3.35
-7.87
-12.01
-14.51
-14.67
-12.64
-9.38
-6.16
-3.96
-2.99
-2.69
-2.11
-0.52
2.16
5.30
7.92
9.22
8.91
7.32
5.17
3.33
2.54
3.36
6.08
10.53
16.07
21.54
25.51
26.68
24.38
18.77
10.82
1.98
-6.26
-12.71
-16.63
-17.75
-16.26
-12.78
-8.28
-3.93
-0.73
0.77
0.69
-0.27
-1.26
-1.63
-1.30
-0.66
-0.29
-0.55
-1.37
-2.30
-2.68
-1.97
0.11
3.41
7.34
10.94
12.97
12.34
8.42
1.50
-7.12
-15.28
-20.57
-21.11
-16.28
-7.12
3.92
13.79
19.94
21.22
18.19
12.67
6.82
2.18
-0.65
-1.89
-1.98
-1.10
0.78
3.63
6.90
9.57
10.54
9.24
6.01
1.92
-1.77
-4.26
-5.52
-6.14
-6.88
-8.22
-10.12
-12.22
-14.16
-15.81
-17.34
-18.97
-20.72
-22.30
-23.18
-22.85
-21.18
-18.44
-15.20
-12.11
-9.57
-7.70
-6.34
-5.30
-4.48
-3.93
-3.69
-3.70
-3.71
-3.42
-2.64
-1.35
0.38
2.44
4.73
7.07
9.13
10.48
10.81
10.21
9.31
9.13
10.61
14.04
18.88
23.93
27.89
30.00
30.19
28.99
26.99
24.46
21.27
17.11
11.85
5.80
-0.29
-5.51
-9.04
-10.34
-9.29
-6.16
-1.61
3.42
7.93
11.21
13.10
14.05
14.91
16.42
18.79
21.51
23.62
24.15
22.61
19.20
14.65
9.93
5.86
2.92
1.22
0.59
0.70
1.16
1.62
1.83
1.71
1.34
0.91
0.55
0.19
-0.49
-1.86
-4.13
-7.09
-10.05
-12.06
-12.37
-10.78
-7.84
-4.67
-2.51
-2.26
-4.18
-7.94
-12.86
-18.21
-23.43
-28.00
-31.39
-32.92
-31.90
-27.95
-21.35
-13.16
-4.91
1.95
6.59
9.05
9.96
10.06
9.76
8.98
7.42
4.86
1.44
-2.37
-6.03
-9.18
-11.66
-13.41
-14.28
-13.97
-12.21
-9.03
-4.93
-0.81
2.27
3.50
2.66
0.17
-3.01
-5.72
-6.97
-6.25
-3.69
0.07
4.07
7.33
9.06
8.85
6.73
3.17
-0.95
-4.54
-6.61
-6.62
-4.70
-1.61
1.58
3.92
4.97
4.81
3.87
2.58
1.17
-0.29
-1.78
-3.15
-4.08
-4.28
-3.64
-2.34
-0.64
1.20
3.14
5.26
7.60
9.93
11.79
12.60
11.99
10.00
7.18
4.38
2.48
2.02
3.10
5.30
7.92
10.18
11.44
11.37
9.99
7.56
4.47
1.15
-2.07
-4.85
-6.91
-7.98
-7.94
-6.93
-5.36
-3.87
-3.02
-3.09
-3.99
-5.37
-6.77
-7.79
-8.10
-7.36
-5.30
-1.93
2.32
6.49
9.37
10.02
8.23
4.57
0.21
-3.73
-6.65
-8.56
-9.79
-10.54
-10.60
-9.46
-6.75
-2.70
1.81
5.47
7.17
6.47
3.85
0.45
-2.43
-3.92
-3.84
-2.62
-0.98
0.48
1.52
2.22
2.77
3.17
3.25
2.70
1.34
-0.69
-2.94
-4.80
-5.81
-5.87
-5.29
-4.64
-4.44
-4.92
-5.98
-7.24
-8.30
-8.90
-9.03
-8.81
-8.37
-7.72
-6.77
-5.29
-3.14
-0.34
2.86
6.02
8.61
10.24
10.74
10.21
8.96
7.34
5.65
4.05
2.54
1.07
-0.45
-2.03
-3.60
-4.97
-5.92
-6.31
-6.15
-5.73
-5.49
-5.85
-6.93
-8.38
-9.55
-9.71
-8.54
-6.26
-3.66
-1.65
-0.89
-1.43
-2.81
-4.29
-5.28
-5.56
-5.32
-4.94
-4.72
-4.66
-4.48
-3.74
-2.09
0.48
3.58
6.46
8.31
8.51
6.87
3.69
-0.40
-4.56
-7.91
-9.67
-9.23
-6.35
-1.28
5.08
11.40
16.20
18.35
17.44
13.91
8.73
3.12
-1.94
-5.84
-8.38
-9.65
-9.87
-9.30
-8.18
-6.71
-5.07
-3.42
-1.93
-0.74
0.08
0.61
1.03
1.56
2.32
3.19
3.88
4.09
3.63
2.65
1.49
0.61
0.32
0.68
1.47
2.32
2.88
2.90
2.33
1.26
-0.10
-1.48
-2.58
-3.17
-3.14
-2.54
-1.52
-0.32
0.86
1.86
2.67
3.29
3.79
4.18
4.43
4.51
4.35
3.96
3.36
2.67
2.02
1.56
1.30
1.21
1.10
0.83
0.27
-0.55
-1.49
-2.35
-2.89
-2.97
-2.56
-1.72
-0.63
0.56
1.69
2.65
3.39
3.88
4.12
4.13
3.94
3.61
3.24
2.95
2.83
2.87
3.01
3.10
2.99
2.57
1.83
0.81
-0.38
-1.62
-2.75
-3.59
-4.00
-3.88
-3.21
-2.11
-0.81
0.46
1.49
2.19
2.60
2.82
2.91
2.93
2.86
2.69
2.44
2.17
1.99
1.98
2.16
2.46
2.75
2.82
2.51
1.72
0.49
-1.04
-2.60
-3.89
-4.63
-4.63
-3.90
-2.62
-1.06
0.42
1.57
2.27
2.56
2.61
2.61
2.67
2.81
2.95
2.92
2.59
1.92
0.98
-0.06
-1.00
-1.70
-2.14
-2.48
-2.92
-3.62
-4.57
-5.63
-6.48
-6.82
-6.46
-5.40
-3.86
-2.16
-0.66
0.44
1.12
1.51
1.82
2.16
2.53
2.78
2.78
2.52
2.16
2.00
2.26
3.01
4.13
5.36
6.45
7.18
7.39
6.94
5.79
4.04
2.09
0.56
0.07
0.98
3.17
6.13
9.21
12.02
14.53
17.03
19.82
22.88
25.82
28.00
28.94
28.59
27.41
26.23
25.88
26.90
29.36
32.83
36.46
39.17
39.84
37.61
32.15
23.87
13.80
3.33
-6.14
-13.63
-18.71
-21.46
-22.29
-21.73
-20.35
-18.74
-17.52
-17.25
-18.30
-20.67
-24.04
-27.79
-31.20
-33.62
-34.59
-33.94
-31.77
-28.48
-24.64
-20.91
-17.91
-16.09
-15.60
-16.28
-17.62
-18.91
-19.39
-18.55
-16.31
-13.11
-9.75
-7.08
-5.64
-5.53
-6.39
-7.60
-8.49
-8.45
-7.04
-4.18
-0.21
3.98
7.17
8.27
6.91
3.73
0.24
-1.87
-1.60
0.91
4.45
7.44
8.75
8.19
6.41
4.42
2.97
2.33
2.30
2.57
2.95
3.54
4.54
6.05
7.95
9.83
11.22
11.81
11.60
10.91
10.24
9.97
10.22
10.80
11.30
11.33
10.66
9.23
7.13
4.51
1.56
-1.46
-4.20
-6.30
-7.53
-7.88
-7.62
-7.16
-6.87
-6.84
-6.91
-6.73
-6.01
-4.71
-3.03
-1.43
-0.35
-0.06
-0.50
-1.35
-2.08
-2.14
-1.11
1.20
4.60
8.51
11.99
13.94
13.46
10.24
4.92
-0.97
-5.44
-6.88
-4.77
-0.04
5.24
8.77
9.06
6.05
1.07
-3.90
-7.15
-7.84
-6.10
-2.63
1.80
6.58
11.16
14.90
16.93
16.47
13.15
7.41
0.38
-6.44
-11.73
-14.73
-15.38
-14.18
-11.96
-9.58
-7.62
-6.19
-4.93
-3.14
-0.17
4.04
8.82
12.79
14.46
12.83
7.88
0.62
-7.25
-13.91
-17.90
-18.33
-15.06
-8.73
-0.76
6.81
11.84
12.80
9.41
2.88
-4.48
-10.22
-12.69
-11.58
-7.90
-3.30
0.65
2.99
3.55
2.66
0.82
-1.46
-3.77
-5.74
-6.93
-6.91
-5.40
-2.39
1.73
6.26
10.31
13.16
14.42
14.22
13.09
11.78
10.85
10.53
10.59
10.50
9.78
8.21
5.99
3.64
1.70
0.45
-0.27
-0.94
-2.14
-4.18
-6.91
-9.73
-11.88
-12.82
-12.45
-11.17
-9.58
-8.24
-7.41
-7.03
-6.93
-7.06
-7.44
-8.02
-8.43
-7.95
-5.79
-1.60
4.10
9.91
13.98
14.81
11.93
6.03
-1.27
-8.15
-13.22
-15.81
-15.90
-13.79
-9.90
-4.76
0.87
5.93
9.22
9.91
7.99
4.43
0.85
-1.27
-1.35
0.07
1.63
2.08
1.00
-0.90
-2.28
-2.02
0.01
2.91
5.24
6.02
5.27
4.15
4.37
7.25
13.05
20.72
28.30
33.56
34.76
31.25
23.57
13.27
2.44
-6.81
-12.88
-15.01
-13.47
-9.61
-5.51
-3.32
-4.48
-9.00
-15.22
-20.32
-21.49
-17.13
-7.57
5.02
17.60
27.45
33.03
34.17
31.62
26.40
19.41
11.36
2.96
-4.93
-11.41
-15.86
-18.20
-18.97
-19.16
-19.75
-21.32
-23.82
-26.59
-28.64
-29.02
-27.21
-23.30
-17.94
-12.22
-7.24
-3.84
-2.31
-2.35
-3.17
-3.81
-3.48
-1.82
1.00
4.38
7.55
9.92
11.23
11.65
11.65
11.80
12.52
13.95
15.97
18.22
20.28
21.75
22.31
21.78
20.07
17.24
13.48
9.06
4.35
-0.27
-4.49
-8.11
-11.07
-13.45
-15.40
-17.03
-18.42
-19.50
-20.05
-19.71
-18.01
-14.47
-8.69
-0.58
9.54
20.83
31.94
41.26
47.31
49.16
46.66
40.49
31.82
21.90
11.66
1.68
-7.78
-16.45
-23.98
-29.96
-34.08
-36.34
-37.04
-36.57
-35.22
-33.08
-30.11
-26.35
-22.06
-17.68
-13.67
-10.22
-7.11
-3.80
0.40
6.02
13.28
21.95
31.44
40.85
49.13
55.20
58.19
57.66
53.82
47.48
39.92
32.44
25.94
20.64
16.03
11.19
5.24
-2.22
-10.91
-19.86
-27.62
-32.64
-33.64
-29.90
-21.60
-9.87
3.33
15.72
25.23
30.63
31.73
29.27
24.47
18.54
12.35
6.32
0.55
-4.98
-10.35
-15.60
-20.76
-25.71
-30.18
-33.70
-35.77
-36.08
-34.71
-32.22
-29.50
-27.49
-26.82
-27.60
-29.38
-31.31
-32.50
-32.32
-30.64
-27.81
-24.53
-21.50
-19.17
-17.58
-16.34
-14.84
-12.52
-9.07
-4.62
0.39
5.36
9.80
13.55
16.81
19.97
23.39
27.11
30.69
33.34
34.16
32.55
28.56
23.10
17.78
14.51
14.87
19.44
27.55
37.37
46.54
52.98
55.47
53.84
48.72
41.00
31.48
20.73
9.23
-2.37
-13.31
-22.80
-30.38
-36.03
-40.08
-42.94
-44.87
-45.87
-45.76
-44.49
-42.22
-39.35
-36.39
-33.68
-31.33
-29.18
-27.04
-24.86
-22.82
-21.42
-21.26
-22.85
-26.35
-31.29
-36.54
-40.38
-40.88
-36.50
-26.62
-11.99
5.36
22.47
36.33
44.66
46.61
42.86
35.30
26.36
18.14
11.87
7.72
5.02
2.86
0.56
-2.04
-4.66
-6.96
-8.81
-10.50
-12.62
-15.79
-20.38
-26.39
-33.28
-40.10
-45.40
-47.33
-44.04
-34.24
-17.98
2.98
25.29
45.00
58.78
64.97
63.95
57.67
48.69
39.25
30.79
23.92
18.77
15.32
13.43
12.75
12.65
12.23
10.68
7.53
2.89
-2.57
-7.92
-12.22
-14.90
-15.85
-15.43
-14.26
-13.08
-12.53
-13.05
-14.80
-17.57
-20.70
-23.22
-24.01
-22.32
-18.07
-12.11
-6.06
-1.76
-0.64
-3.13
-8.53
-15.12
-20.62
-22.79
-19.94
-11.44
2.07
18.65
35.45
49.42
58.06
60.10
55.67
46.13
33.48
19.80
6.92
-3.86
-11.66
-16.04
-16.96
-14.81
-10.36
-4.68
1.13
6.14
9.83
12.07
13.03
12.96
12.00
10.10
7.16
3.23
-1.35
-5.93
-9.71
-12.04
-12.58
-11.46
-9.17
-6.38
-3.70
-1.57
-0.16
0.62
0.96
1.06
1.01
0.77
0.25
-0.53
-1.39
-2.03
-2.20
-1.88
-1.34
-1.04
-1.37
-2.41
-3.79
-4.85
-4.92
-3.61
-1.02
2.29
5.55
8.02
9.19
8.85
7.05
4.06
0.33
-3.57
-6.89
-8.86
-8.87
-6.73
-2.83
1.83
5.89
8.16
8.05
5.81
2.39
-1.07
-3.84
-5.92
-7.88
-10.26
-12.94
-14.90
-14.48
-10.31
-2.07
9.04
20.61
29.88
34.67
34.01
28.25
18.61
6.69
-5.86
-17.40
-26.32
-31.20
-31.13
-26.15
-17.42
-6.96
2.95
10.50
14.77
15.84
14.35
11.12
6.80
1.87
-3.29
-8.18
-12.20
-14.70
-15.19
-13.43
-9.60
-4.31
1.44
6.41
9.38
9.56
6.86
1.96
-3.84
-8.98
-12.15
-12.56
-10.11
-5.36
0.69
6.84
11.99
15.38
16.65
15.94
13.66
10.36
6.55
2.68
-0.93
-4.01
-6.48
-8.53
-10.57
-13.12
-16.42
-20.13
-23.22
-24.37
-22.45
-17.13
-9.04
0.57
10.34
19.31
27.02
33.30
37.96
40.67
41.12
39.41
36.19
32.59
29.66
27.89
26.91
25.67
23.00
18.17
11.30
3.32
-4.41
-10.61
-14.39
-15.40
-13.75
-9.92
-4.77
0.45
4.31
5.57
3.67
-0.94
-6.92
-12.62
-16.86
-19.38
-20.75
-21.87
-23.25
-24.70
-25.55
-25.28
-24.00
-22.57
-22.14
-23.48
-26.51
-30.35
-33.72
-35.59
-35.65
-34.40
-32.79
-31.86
-32.23
-33.97
-36.54
-38.90
-39.87
-38.31
-33.56
-25.60
-15.16
-3.55
7.73
17.39
24.62
29.14
31.11
30.89
28.85
25.35
20.78
15.70
10.86
7.12
5.18
5.39
7.55
10.96
14.67
17.83
20.01
21.24
21.90
22.37
22.85
23.21
23.17
22.48
21.11
19.23
17.12
14.99
12.94
10.89
8.75
6.47
4.14
1.95
0.14
-1.08
-1.59
-1.25
0.01
2.24
5.32
8.80
11.95
13.84
13.70
11.26
6.89
1.49
-3.97
-8.75
-12.58
-15.53
-17.68
-18.86
-18.64
-16.64
-12.85
-7.89
-2.89
0.85
2.39
1.43
-1.62
-5.86
-10.26
-13.94
-16.39
-17.51
-17.49
-16.76
-15.83
-15.11
-14.87
-15.11
-15.57
-15.86
-15.52
-14.25
-11.92
-8.64
-4.73
-0.59
3.32
6.66
9.23
11.02
12.19
12.96
13.40
13.39
12.63
10.77
7.67
3.52
-1.19
-5.77
-9.60
-12.22
-13.43
-13.19
-11.66
-9.14
-6.09
-3.07
-0.59
0.99
1.64
1.56
1.08
0.45
-0.20
-0.89
-1.69
-2.63
-3.72
-4.98
-6.44
-8.05
-9.55
-10.51
-10.35
-8.67
-5.43
-1.04
3.83
8.46
12.39
15.36
17.21
17.72
16.51
13.32
8.22
1.76
-5.05
-11.09
-15.50
-17.89
-18.31
-17.05
-14.44
-10.75
-6.35
-1.74
2.42
5.43
6.87
6.77
5.61
4.03
2.57
1.42
0.49
-0.40
-1.28
-1.88
-1.77
-0.57
1.83
5.18
8.97
12.64
15.75
18.07
19.51
20.08
19.79
18.64
16.67
14.07
11.12
8.19
5.59
3.55
2.12
1.25
0.88
0.94
1.41
2.22
3.15
3.90
4.11
3.51
2.02
-0.14
-2.59
-4.89
-6.68
-7.82
-8.43
-8.84
-9.46
-10.67
-12.64
-15.32
-18.41
-21.49
-24.13
-26.04
-27.01
-26.94
-25.73
-23.33
-19.74
-15.11
-9.76
-4.23
0.92
5.19
8.26
10.09
10.84
10.81
10.31
9.54
8.63
7.59
6.41
5.08
3.66
2.22
0.83
-0.43
-1.53
-2.45
-3.15
-3.64
-3.97
-4.21
-4.42
-4.55
-4.43
-3.81
-2.53
-0.60
1.67
3.79
5.23
5.62
4.93
3.39
1.40
-0.67
-2.60
-4.32
-5.84
-7.15
-8.14
-8.65
-8.53
-7.78
-6.54
-5.11
-3.84
-3.02
-2.79
-3.15
-3.94
-4.97
-6.07
-7.12
-8.01
-8.57
-8.61
-7.94
-6.48
-4.38
-1.94
0.42
2.40
3.87
4.90
5.66
6.28
6.81
7.22
7.50
7.70
7.91
8.21
8.61
9.02
9.30
9.34
9.07
8.52
7.76
6.87
5.93
4.96
3.91
2.75
1.50
0.28
-0.66
-1.05
-0.67
0.50
2.24
4.14
5.76
6.82
7.26
7.22
6.94
6.58
6.24
5.92
5.63
5.41
5.35
5.47
5.72
5.98
6.08
5.89
5.33
4.37
3.02
1.32
-0.63
-2.61
-4.28
-5.33
-5.55
-4.99
-3.89
-2.63
-1.54
-0.77
-0.23
0.24
0.82
1.54
2.30
2.92
3.24
3.23
2.96
2.63
2.40
2.40
2.61
2.89
3.07
2.95
2.44
1.53
0.29
-1.16
-2.66
-4.01
-4.97
-5.28
-4.75
-3.34
-1.24
1.17
3.43
5.19
6.26
6.67
6.58
6.09
5.24
4.01
2.44
0.67
-1.03
-2.35
-3.10
-3.23
-2.91
-2.43
-2.05
-1.94
-2.13
-2.53
-2.98
-3.30
-3.31
-2.88
-1.93
-0.49
1.29
3.14
4.76
5.91
6.50
6.62
6.50
6.39
6.46
6.69
6.94
6.98
6.69
6.11
5.43
4.92
4.75
4.88
5.09
5.09
4.66
3.75
2.46
0.93
-0.67
-2.21
-3.52
-4.40
-4.61
-3.99
-2.55
-0.49
1.81
3.98
5.72
6.91
7.53
7.69
7.53
7.22
6.92
6.77
6.85
7.08
7.34
7.48
7.38
7.04
6.53
5.94
5.27
4.49
3.47
2.09
0.33
-1.74
-3.91
-5.88
-7.29
-7.88
-7.51
-6.27
-4.44
-2.45
-0.67
0.61
1.34
1.64
1.68
1.62
1.53
1.39
1.23
1.12
1.15
1.39
1.83
2.29
2.59
2.57
2.26
1.80
1.40
1.17
1.05
0.85
0.36
-0.55
-1.85
-3.33
-4.74
-5.81
-6.37
-6.32
-5.65
-4.46
-2.91
-1.23
0.36
1.67
2.60
3.17
3.46
3.54
3.49
3.35
3.15
2.91
2.65
2.40
2.17
1.96
1.75
1.57
1.41
1.26
1.03
0.61
-0.17
-1.41
-3.05
-4.86
-6.46
-7.42
-7.44
-6.48
-4.79
-2.78
-0.90
0.55
1.51
2.09
2.44
2.67
2.79
2.76
2.56
2.26
1.96
1.75
1.69
1.72
1.75
1.69
1.51
1.20
0.77
0.21
-0.52
-1.47
-2.68
-4.06
-5.42
-6.44
-6.83
-6.41
-5.22
-3.52
-1.65
0.06
1.46
2.50
3.28
3.87
4.30
4.58
4.68
4.67
4.64
4.67
4.81
4.98
5.07
4.91
4.44
3.67
2.75
1.87
1.16
0.68
0.34
-0.04
-0.64
-1.57
-2.86
-4.41
-6.03
-7.43
-8.31
-8.45
-7.77
-6.39
-4.58
-2.64
-0.79
0.90
2.45
3.90
5.19
6.18
6.72
6.76
6.37
5.76
5.15
4.75
4.64
4.80
5.14
5.48
5.65
5.50
4.97
4.10
3.07
2.07
1.27
0.67
0.16
-0.42
-1.21
-2.25
-3.51
-4.93
-6.44
-7.99
-9.43
-10.51
-10.91
-10.35
-8.77
-6.40
-3.65
-1.01
1.20
2.88
4.09
4.99
5.66
6.12
6.29
6.17
5.82
5.38
5.07
5.06
5.40
6.03
6.76
7.33
7.52
7.22
6.47
5.42
4.25
3.07
1.97
0.95
0.06
-0.68
-1.25
-1.70
-2.16
-2.76
-3.59
-4.61
-5.61
-6.23
-6.16
-5.19
-3.34
-0.90
1.69
3.99
5.72
6.86
7.59
8.17
8.79
9.51
10.24
10.87
11.33
11.66
11.96
12.36
12.90
13.53
14.14
14.62
14.90
15.02
15.01
14.78
14.12
12.66
10.07
6.25
1.39
-3.99
-9.29
-13.98
-17.75
-20.50
-22.30
-23.18
-23.19
-22.34
-20.72
-18.54
-16.06
-13.59
-11.38
-9.56
-8.19
-7.21
-6.51
-5.97
-5.47
-4.97
-4.45
-3.92
-3.41
-2.95
-2.56
-2.30
-2.23
-2.40
-2.83
-3.48
-4.27
-5.12
-5.95
-6.78
-7.59
-8.33
-8.88
-9.04
-8.64
-7.61
-6.03
-4.10
-2.03
-0.01
1.90
3.69
5.35
6.82
7.94
8.62
8.84
8.73
8.55
8.51
8.74
9.18
9.64
9.84
9.60
8.85
7.71
6.37
5.00
3.67
2.28
0.69
-1.25
-3.48
-5.75
-7.64
-8.63
-8.38
-6.77
-4.04
-0.67
2.77
5.80
8.14
9.78
10.90
11.75
12.57
13.51
14.59
15.62
16.28
16.15
14.92
12.52
9.25
5.69
2.53
0.29
-0.83
-1.00
-0.57
0.07
0.63
0.93
0.81
0.16
-1.04
-2.64
-4.27
-5.47
-5.87
-5.33
-4.01
-2.24
-0.44
1.06
2.03
2.32
1.93
0.97
-0.31
-1.55
-2.43
-2.75
-2.53
-1.99
-1.40
-0.99
-0.88
-1.07
-1.52
-2.22
-3.18
-4.47
-6.14
-8.16
-10.38
-12.55
-14.33
-15.42
-15.60
-14.87
-13.46
-11.72
-10.04
-8.66
-7.64
-6.85
-6.14
-5.37
-4.56
-3.84
-3.38
-3.25
-3.40
-3.69
-3.96
-4.12
-4.22
-4.40
-4.76
-5.33
-5.99
-6.64
-7.23
-7.82
-8.52
-9.38
-10.27
-10.90
-10.92
-10.08
-8.42
-6.17
-3.72
-1.44
0.45
1.87
2.87
3.52
3.90
4.04
3.94
3.63
3.17
2.64
2.17
1.88
1.80
1.88
1.99
2.00
1.79
1.35
0.67
-0.25
-1.40
-2.77
-4.20
-5.42
-6.06
-5.81
-4.59
-2.62
-0.32
1.82
3.45
4.45
4.92
5.07
5.08
5.05
4.99
4.85
4.62
4.30
3.94
3.61
3.37
3.23
3.16
3.03
2.74
2.13
1.12
-0.31
-2.04
-3.85
-5.45
-6.55
-6.97
-6.66
-5.76
-4.51
-3.17
-1.93
-0.90
-0.09
0.51
0.85
0.92
0.69
0.20
-0.44
-1.07
-1.57
-1.86
-1.97
-1.98
-1.97
-2.02
-2.16
-2.42
-2.86
-3.55
-4.53
-5.77
-7.09
-8.19
-8.70
-8.33
-7.02
-4.97
-2.58
-0.31
1.53
2.83
3.68
4.24
4.62
4.87
4.97
4.92
4.76
4.58
4.43
4.29
4.10
3.79
3.34
2.82
2.28
1.71
1.05
0.16
-1.01
-2.40
-3.79
-4.85
-5.28
-4.92
-3.83
-2.24
-0.46
1.17
2.43
3.22
3.57
3.61
3.50
3.38
3.31
3.31
3.33
3.34
3.27
3.09
2.81
2.43
1.96
1.42
0.80
0.12
-0.60
-1.35
-2.14
-2.99
-3.98
-5.10
-6.25
-7.20
-7.66
-7.37
-6.23
-4.36
-2.09
0.17
2.03
3.26
3.86
4.01
3.95
3.89
3.91
3.96
3.92
3.67
3.19
2.60
2.03
1.62
1.39
1.24
1.04
0.72
0.26
-0.28
-0.87
-1.54
-2.38
-3.45
-4.64
-5.70
-6.22
-5.90
-4.62
-2.63
-0.35
1.76
3.39
4.48
5.15
5.60
5.90
6.06
5.97
5.61
5.01
4.33
3.73
3.29
3.03
2.88
2.72
2.46
2.00
1.30
0.34
-0.82
-2.10
-3.40
-4.61
-5.64
-6.37
-6.68
-6.42
-5.50
-3.97
-2.07
-0.12
1.53
2.68
3.33
3.64
3.80
3.93
4.04
4.05
3.91
3.64
3.31
3.05
2.89
2.82
2.72
2.52
2.16
1.61
0.88
-0.07
-1.26
-2.68
-4.26
-5.80
-7.03
-7.68
-7.60
-6.79
-5.40
-3.67
-1.88
-0.18
1.32
2.59
3.60
4.34
4.76
4.84
4.59
4.07
3.44
2.83
2.37
2.13
2.08
2.14
2.20
2.16
1.90
1.38
0.58
-0.46
-1.66
-2.91
-4.01
-4.80
-5.08
-4.71
-3.71
-2.18
-0.37
1.46
3.08
4.39
5.35
6.02
6.43
6.62
6.66
6.62
6.59
6.62
6.70
6.71
6.53
6.10
5.45
4.70
3.97
3.32
2.68
1.92
0.94
-0.34
-1.84
-3.48
-5.08
-6.50
-7.58
-8.13
-8.03
-7.22
-5.77
-3.91
-1.96
-0.19
1.15
2.03
2.48
2.65
2.66
2.61
2.57
2.59
2.70
2.93
3.24
3.55
3.73
3.69
3.39
2.86
2.22
1.58
0.98
0.38
-0.37
-1.43
-2.81
-4.35
-5.68
-6.39
-6.18
-5.00
-3.08
-0.87
1.21
2.84
3.95
4.63
5.05
5.34
5.52
5.53
5.33
4.93
4.43
3.94
3.52
3.15
2.76
2.24
1.56
0.75
-0.12
-1.02
-1.95
-2.96
-4.04
-5.06
-5.81
-6.02
-5.55
-4.38
-2.73
-0.89
0.80
2.13
2.99
3.44
3.58
3.56
3.47
3.35
3.21
3.08
3.03
3.13
3.40
3.76
4.04
4.04
3.60
2.76
1.65
0.48
-0.62
-1.63
-2.63
-3.63
-4.53
-5.10
-5.07
-4.30
-2.84
-0.98
0.95
2.60
3.80
4.49
4.74
4.68
4.45
4.20
4.02
4.00
4.09
4.20
4.21
4.03
3.65
3.14
2.60
2.07
1.55
0.95
0.21
-0.71
-1.78
-2.97
-4.22
-5.43
-6.45
-7.07
-7.09
-6.37
-4.98
-3.16
-1.29
0.32
1.51
2.29
2.76
3.04
3.16
3.14
3.01
2.89
2.90
3.09
3.40
3.67
3.70
3.41
2.83
2.08
1.31
0.59
-0.04
-0.60
-1.11
-1.63
-2.28
-3.15
-4.28
-5.53
-6.60
-7.12
-6.85
-5.78
-4.15
-2.38
-0.85
0.25
0.90
1.24
1.41
1.52
1.58
1.57
1.47
1.34
1.25
1.24
1.31
1.40
1.47
1.50
1.47
1.40
1.26
1.01
0.58
-0.04
-0.82
-1.74
-2.73
-3.75
-4.71
-5.47
-5.82
-5.60
-4.75
-3.42
-1.91
-0.53
0.46
1.00
1.19
1.16
1.04
0.87
0.63
0.28
-0.18
-0.73
-1.26
-1.69
-1.92
-1.96
-1.85
-1.72
-1.67
-1.80
-2.14
-2.70
-3.43
-4.30
-5.27
-6.21
-6.96
-7.28
-7.01
-6.12
-4.75
-3.17
-1.69
-0.51
0.31
0.86
1.29
1.71
2.16
2.59
2.92
3.10
3.11
3.02
2.91
2.87
2.89
2.94
2.88
2.61
2.05
1.22
0.25
-0.74
-1.62
-2.33
-2.89
-3.32
-3.60
-3.65
-3.39
-2.76
-1.84
-0.76
0.27
1.11
1.71
2.11
2.39
2.60
2.72
2.75
2.67
2.49
2.28
2.07
1.90
1.74
1.59
1.44
1.28
1.11
0.90
0.59
0.17
-0.39
-1.09
-1.95
-2.96
-4.11
-5.26
-6.19
-6.65
-6.41
-5.47
-4.00
-2.34
-0.84
0.27
0.93
1.26
1.41
1.50
1.56
1.61
1.61
1.59
1.55
1.52
1.48
1.43
1.34
1.22
1.10
1.00
0.92
0.82
0.64
0.31
-0.16
-0.76
-1.43
-2.14
-2.88
-3.63
-4.35
-4.91
-5.16
-4.96
-4.32
-3.32
-2.18
-1.09
-0.17
0.54
1.08
1.47
1.73
1.85
1.82
1.67
1.48
1.31
1.22
1.23
1.33
1.50
1.69
1.86
1.97
1.97
1.81
1.48
0.98
0.34
-0.43
-1.33
-2.31
-3.26
-3.97
-4.22
-3.85
-2.89
-1.56
-0.21
0.85
1.48
1.74
1.81
1.86
1.96
2.05
2.03
1.87
1.60
1.30
1.06
0.92
0.88
0.93
1.03
1.12
1.13
0.94
0.49
-0.25
-1.20
-2.21
-3.11
-3.76
-4.04
-3.87
-3.24
-2.18
-0.84
0.58
1.80
2.58
2.81
2.57
2.11
1.68
1.48
1.53
1.75
1.98
2.10
2.08
1.92
1.64
1.23
0.71
0.10
-0.50
-0.95
-1.18
-1.23
-1.29
-1.57
-2.17
-3.03
-3.87
-4.37
-4.27
-3.54
-2.34
-1.00
0.20
1.06
1.57
1.78
1.81
1.74
1.61
1.45
1.29
1.17
1.15
1.21
1.31
1.37
1.31
1.09
0.76
0.37
0.03
-0.23
-0.47
-0.81
-1.38
-2.25
-3.34
-4.42
-5.22
-5.45
-5.02
-3.98
-2.57
-1.10
0.18
1.14
1.81
2.27
2.61
2.87
3.01
2.99
2.78
2.43
2.03
1.70
1.48
1.36
1.30
1.24
1.13
0.97
0.75
0.45
0.07
-0.38
-0.88
-1.39
-1.89
-2.39
-2.97
-3.66
-4.46
-5.21
-5.68
-5.63
-4.96
-3.77
-2.35
-1.05
-0.17
0.20
0.11
-0.25
-0.70
-1.14
-1.52
-1.78
-1.84
-1.55
-0.85
0.21
1.43
2.52
3.21
3.41
3.19
2.76
2.34
2.06
1.95
1.90
1.79
1.51
0.99
0.21
-0.79
-1.85
-2.76
-3.28
-3.25
-2.66
-1.70
-0.67
0.17
0.64
0.77
0.69
0.54
0.41
0.32
0.25
0.16
0.05
-0.05
-0.13
-0.20
-0.26
-0.32
-0.42
-0.61
-0.94
-1.47
-2.20
-3.09
-4.06
-5.01
-5.83
-6.46
-6.82
-6.82
-6.38
-5.51
-4.32
-3.04
-1.93
-1.15
-0.79
-0.75
-0.89
-1.07
-1.22
-1.37
-1.57
-1.85
-2.14
-2.32
-2.27
-1.98
-1.55
-1.17
-0.96
-1.00
-1.24
-1.55
-1.85
-2.12
-2.36
-2.54
-2.51
-2.11
-1.21
0.17
1.81
3.43
4.79
5.83
6.66
7.49
8.49
9.73
11.11
12.48
13.63
14.42
14.74
14.58
13.97
13.02
11.88
10.68
9.48
8.32
7.19
6.07
4.93
3.74
2.49
1.14
-0.32
-1.84
-3.29
-4.51
-5.33
-5.67
-5.57
-5.16
-4.64
-4.20
-3.94
-3.86
-3.88
-3.93
-3.93
-3.88
-3.77
-3.60
-3.35
-2.99
-2.55
-2.08
-1.68
-1.46
-1.51
-1.84
-2.36
-2.94
-3.40
-3.66
-3.75
-3.81
-4.03
-4.52
-5.20
-5.84
-6.11
-5.75
-4.68
-3.05
-1.15
0.72
2.31
3.52
4.36
4.87
5.10
5.06
4.80
4.35
3.80
3.25
2.81
2.51
2.31
2.12
1.82
1.35
0.70
-0.09
-0.91
-1.68
-2.37
-2.98
-3.59
-4.27
-5.05
-5.87
-6.57
-6.89
-6.65
-5.79
-4.45
-2.97
-1.66
-0.77
-0.34
-0.23
-0.23
-0.21
-0.12
0.02
0.15
0.24
0.30
0.36
0.41
0.44
0.43
0.38
0.30
0.20
0.07
-0.16
-0.57
-1.22
-2.15
-3.27
-4.46
-5.50
-6.18
-6.32
-5.86
-4.88
-3.54
-2.13
-0.85
0.15
0.91
1.51
2.06
2.59
3.03
3.25
3.19
2.86
2.38
1.92
1.60
1.42
1.29
1.09
0.76
0.30
-0.26
-0.89
-1.59
-2.43
-3.41
-4.47
-5.44
-6.07
-6.12
-5.45
-4.12
-2.36
-0.55
0.96
1.96
2.42
2.50
2.44
2.46
2.65
3.00
3.36
3.59
3.60
3.39
3.04
2.67
2.34
2.07
1.81
1.46
0.99
0.41
-0.20
-0.83
-1.49
-2.30
-3.35
-4.61
-5.86
-6.76
-6.95
-6.28
-4.83
-2.90
-0.92
0.76
1.96
2.61
2.81
2.69
2.40
2.10
1.93
1.94
2.11
2.36
2.58
2.73
2.83
2.91
3.00
3.08
3.10
3.05
2.93
2.76
2.53
2.16
1.53
0.62
-0.51
-1.63
-2.43
-2.66
-2.22
-1.21
0.07
1.32
2.29
2.91
3.24
3.39
3.46
3.45
3.30
2.94
2.38
1.72
1.11
0.69
0.55
0.64
0.85
1.07
1.18
1.16
0.98
0.67
0.23
-0.36
-1.10
-1.96
-2.83
-3.53
-3.85
-3.67
-2.98
-1.91
-0.71
0.40
1.30
1.99
2.56
3.08
3.54
3.84
3.86
3.52
2.88
2.08
1.31
0.69
0.25
-0.07
-0.37
-0.73
-1.19
-1.73
-2.37
-3.11
-3.96
-4.90
-5.87
-6.69
-7.20
-7.24
-6.72
-5.72
-4.37
-2.89
-1.48
-0.29
0.61
1.17
1.44
1.44
1.23
0.86
0.40
-0.04
-0.36
-0.47
-0.38
-0.20
-0.06
-0.12
-0.44
-1.00
-1.71
-2.51
-3.36
-4.25
-5.14
-5.92
-6.40
-6.35
-5.65
-4.31
-2.56
-0.73
0.82
1.87
2.34
2.37
2.17
1.97
1.87
1.89
1.96
2.00
1.97
1.91
1.84
1.78
1.72
1.56
1.19
0.57
-0.33
-1.42
-2.56
-3.63
-4.49
-5.05
-5.23
-4.93
-4.05
-2.57
-0.57
1.68
3.76
5.22
5.73
5.24
3.97
2.37
0.90
-0.08
-0.46
-0.36
-0.04
0.27
0.44
0.53
0.66
0.92
1.31
1.74
2.05
2.14
2.01
1.69
1.22
0.65
0.04
-0.53
-0.89
-0.90
-0.48
0.26
1.04
1.50
1.28
0.20
-1.66
-3.94
-6.07
-7.52
-7.97
-7.46
-6.34
-5.14
-4.32
-4.03
-4.10
-4.18
-3.92
-3.14
-1.85
-0.22
1.44
2.78
3.31
2.65
0.64
-2.44
-5.89
-8.76
-10.30
-10.19
-8.69
-6.39
-3.98
-1.91
-0.35
0.71
1.29
1.37
0.91
-0.02
-1.16
-2.11
-2.46
-2.02
-0.80
0.92
2.81
4.52
5.82
6.62
6.97
7.04
7.08
7.42
8.31
9.88
12.00
14.31
16.35
17.74
18.35
18.28
17.83
17.23
16.62
15.95
15.11
14.02
12.70
11.23
9.71
8.21
6.70
5.17
3.62
2.11
0.74
-0.41
-1.32
-2.04
-2.65
-3.21
-3.75
-4.20
-4.52
-4.66
-4.66
-4.60
-4.54
-4.51
-4.44
-4.30
-4.06
-3.79
-3.59
-3.52
-3.54
-3.54
-3.42
-3.17
-2.87
-2.69
-2.79
-3.29
-4.24
-5.57
-7.18
-8.85
-10.32
-11.29
-11.59
-11.20
-10.30
-9.22
-8.34
-7.90
-7.98
-8.42
-8.87
-8.94
-8.26
-6.68
-4.33
-1.62
0.83
2.46
2.95
2.31
0.92
-0.72
-2.08
-2.83
-2.87
-2.31
-1.43
-0.58
-0.12
-0.28
-1.15
-2.62
-4.44
-6.35
-8.12
-9.59
-10.70
-11.37
-11.50
-11.01
-9.88
-8.20
-6.18
-4.08
-2.11
-0.40
1.03
2.17
3.02
3.55
3.75
3.66
3.32
2.79
2.10
1.23
0.17
-1.02
-2.16
-3.06
-3.57
-3.69
-3.57
-3.39
-3.26
-3.10
-2.64
-1.53
0.48
3.40
6.93
10.49
13.34
14.87
14.75
13.14
10.61
8.02
6.14
5.40
5.73
6.60
7.24
7.02
5.66
3.42
0.90
-1.14
-2.12
-1.82
-0.49
1.27
2.69
3.09
2.11
-0.09
-2.67
-4.15
-2.74
2.96
13.18
26.53
40.22
50.97
56.22
55.13
48.76
39.49
30.00
22.30
17.28
14.86
14.32
14.79
15.48
15.76
15.19
13.54
10.82
7.21
2.98
-1.55
-6.05
-10.09
-13.26
-15.27
-16.11
-16.08
-15.65
-15.22
-14.92
-14.54
-13.67
-11.99
-9.46
-6.37
-3.31
-0.84
0.63
0.99
0.48
-0.49
-1.47
-2.08
-2.19
-1.88
-1.40
-1.00
-0.86
-0.97
-1.21
-1.46
-1.66
-1.92
-2.40
-3.27
-4.52
-5.98
-7.33
-8.23
-8.50
-8.14
-7.33
-6.32
-5.29
-4.34
-3.44
-2.54
-1.61
-0.72
-0.00
0.41
0.47
0.25
-0.10
-0.40
-0.58
-0.68
-0.86
-1.26
-1.98
-2.97
-4.08
-5.15
-6.07
-6.85
-7.56
-8.29
-9.03
-9.68
-10.02
-9.88
-9.16
-7.95
-6.48
-5.04
-3.89
-3.15
-2.77
-2.61
-2.52
-2.40
-2.23
-2.04
-1.87
-1.74
-1.64
-1.60
-1.62
-1.70
-1.83
-1.96
-2.05
-2.10
-2.12
-2.21
-2.42
-2.79
-3.27
-3.73
-4.01
-3.94
-3.42
-2.47
-1.19
0.23
1.61
2.85
3.89
4.75
5.43
5.87
5.99
5.78
5.32
4.84
4.58
4.72
5.21
5.84
6.29
6.34
5.94
5.20
4.36
3.58
2.95
2.41
1.90
1.42
1.00
0.74
0.68
0.83
1.08
1.34
1.56
1.77
2.04
2.47
3.05
3.68
4.20
4.42
4.25
3.69
2.84
1.87
0.92
0.11
-0.50
-0.91
-1.15
-1.26
-1.32
-1.40
-1.61
-2.01
-2.62
-3.37
-4.11
-4.67
-4.87
-4.60
-3.89
-2.87
-1.74
-0.69
0.13
0.65
0.88
0.84
0.63
0.34
0.09
-0.04
-0.07
-0.08
-0.21
-0.53
-1.00
-1.48
-1.79
-1.85
-1.71
-1.55
-1.57
-1.88
-2.47
-3.20
-3.88
-4.40
-4.69
-4.71
-4.48
-3.98
-3.23
-2.29
-1.24
-0.19
0.73
1.45
1.91
2.09
2.03
1.77
1.40
0.98
0.60
0.29
0.09
0.02
0.06
0.22
0.45
0.68
0.83
0.84
0.68
0.39
0.02
-0.42
-0.93
-1.56
-2.30
-3.03
-3.54
-3.63
-3.16
-2.18
-0.95
0.25
1.19
1.78
2.09
2.24
2.28
2.23
2.07
1.80
1.50
1.28
1.19
1.25
1.38
1.47
1.46
1.27
0.89
0.33
-0.39
-1.24
-2.15
-3.05
-3.84
-4.45
-4.78
-4.77
-4.39
-3.72
-2.88
-2.07
-1.44
-1.06
-0.94
-0.98
-1.10
-1.24
-1.38
-1.52
-1.64
-1.69
-1.62
-1.42
-1.13
-0.85
-0.68
-0.71
-0.95
-1.35
-1.84
-2.42
-3.10
-3.90
-4.79
-5.60
-6.14
-6.20
-5.74
-4.88
-3.88
-2.99
-2.36
-1.99
-1.76
-1.52
-1.20
-0.81
-0.44
-0.17
-0.05
-0.07
-0.16
-0.24
-0.25
-0.17
-0.02
0.14
0.21
0.14
-0.05
-0.34
-0.64
-0.94
-1.26
-1.70
-2.27
-2.93
-3.51
-3.83
-3.77
-3.33
-2.66
-1.91
-1.20
-0.54
0.12
0.79
1.44
1.94
2.17
2.10
1.82
1.47
1.22
1.10
1.10
1.07
0.95
0.70
0.38
0.05
-0.20
-0.39
-0.52
-0.65
-0.79
-0.95
-1.15
-1.44
-1.86
-2.45
-3.18
-3.89
-4.37
-4.43
-3.97
-3.08
-1.96
-0.91
-0.10
0.39
0.68
0.89
1.11
1.35
1.52
1.58
1.56
1.58
1.75
2.12
2.61
3.03
3.21
3.04
2.57
1.93
1.33
0.96
0.93
1.27
1.88
2.59
3.17
3.42
3.26
2.74
2.07
1.50
1.28
1.50
2.15
3.12
4.27
5.47
6.60
7.60
8.40
8.97
9.32
9.46
9.46
9.36
9.23
9.16
9.20
9.36
9.62
9.84
9.91
9.73
9.28
8.66
8.02
7.48
7.11
6.87
6.69
6.56
6.46
6.45
6.55
6.75
6.94
7.00
6.83
6.40
5.76
5.00
4.17
3.20
1.99
0.41
-1.56
-3.76
-5.86
-7.46
-8.23
-8.02
-7.01
-5.58
-4.26
-3.54
-3.73
-4.89
-6.88
-9.42
-12.19
-14.87
-17.20
-18.94
-19.90
-19.94
-18.99
-17.08
-14.41
-11.26
-8.05
-5.25
-3.30
-2.51
-2.96
-4.48
-6.72
-9.23
-11.63
-13.62
-15.05
-15.89
-16.19
-16.10
-15.85
-15.70
-15.86
-16.43
-17.34
-18.43
-19.48
-20.34
-20.91
-21.12
-20.91
-20.13
-18.70
-16.61
-14.02
-11.27
-8.75
-6.78
-5.42
-4.48
-3.66
-2.63
-1.28
0.24
1.60
2.44
2.58
2.08
1.30
0.62
0.38
0.62
1.17
1.72
2.02
2.02
1.80
1.52
1.30
1.20
1.22
1.41
1.85
2.61
3.71
5.01
6.26
7.21
7.71
7.76
7.49
7.09
6.69
6.31
5.92
5.45
4.82
4.06
3.20
2.35
1.63
1.13
0.89
0.86
0.93
1.00
0.95
0.80
0.56
0.35
0.25
0.33
0.69
1.39
2.53
4.13
6.12
8.29
10.37
12.09
13.31
14.08
14.57
14.96
15.38
15.82
16.14
16.18
15.80
14.91
13.47
11.50
9.13
6.61
4.29
2.50
1.43
0.99
0.92
0.88
0.60
0.05
-0.62
-1.20
-1.54
-1.63
-1.52
-1.28
-0.87
-0.23
0.69
1.83
3.00
4.04
4.81
5.30
5.55
5.63
5.56
5.33
4.96
4.50
4.03
3.65
3.46
3.50
3.78
4.21
4.68
5.03
5.10
4.83
4.20
3.31
2.27
1.20
0.13
-0.90
-1.82
-2.51
-2.80
-2.56
-1.79
-0.61
0.69
1.85
2.69
3.20
3.51
3.78
4.08
4.37
4.53
4.46
4.15
3.72
3.30
2.99
2.76
2.54
2.23
1.78
1.23
0.64
0.05
-0.60
-1.37
-2.33
-3.44
-4.56
-5.44
-5.87
-5.72
-5.01
-3.92
-2.69
-1.56
-0.65
0.02
0.52
0.95
1.36
1.73
1.98
2.04
1.89
1.57
1.15
0.74
0.40
0.13
-0.11
-0.38
-0.69
-1.06
-1.50
-2.00
-2.60
-3.27
-3.94
-4.44
-4.60
-4.30
-3.53
-2.42
-1.20
-0.13
0.67
1.18
1.51
1.80
2.16
2.59
3.03
3.34
3.42
3.24
2.86
2.36
1.86
1.41
0.97
0.47
-0.17
-0.98
-1.93
-2.92
-3.83
-4.64
-5.37
-6.09
-6.83
-7.51
-7.94
-7.91
-7.30
-6.15
-4.67
-3.18
-1.96
-1.13
-0.66
-0.43
-0.28
-0.16
-0.04
0.10
0.32
0.77
1.59
2.89
4.61
6.51
8.27
9.57
10.24
10.30
9.93
9.36
8.72
8.03
7.20
6.13
4.82
3.41
2.15
1.24
0.80
0.77
0.96
1.22
1.43
1.59
1.75
1.93
2.08
2.12
1.96
1.58
1.07
0.58
0.27
0.20
0.35
0.65
1.02
1.43
1.88
2.32
2.67
2.82
2.69
2.34
1.95
1.73
1.79
2.13
2.60
3.00
3.25
3.41
3.64
4.08
4.78
5.60
6.38
6.97
7.31
7.48
7.55
7.62
7.67
7.67
7.60
7.50
7.52
7.79
8.40
9.29
10.25
11.05
11.51
11.57
11.28
10.72
9.93
8.89
7.55
5.94
4.21
2.57
1.25
0.34
-0.23
-0.60
-0.93
-1.31
-1.72
-2.10
-2.43
-2.75
-3.13
-3.58
-3.98
-4.07
-3.54
-2.14
0.19
3.30
6.87
10.52
13.87
16.62
18.49
19.24
18.70
16.82
13.76
9.89
5.73
1.82
-1.42
-3.84
-5.54
-6.76
-7.80
-8.88
-10.10
-11.49
-13.00
-14.54
-15.92
-16.90
-17.25
-16.81
-15.52
-13.48
-10.81
-7.62
-3.88
0.47
5.48
11.08
17.04
23.00
28.45
32.81
35.53
36.22
34.80
31.60
27.31
22.84
18.98
16.23
14.65
14.00
13.88
14.01
14.30
14.84
15.79
17.19
18.90
20.55
21.66
21.78
20.57
17.96
14.11
9.31
3.97
-1.56
-7.02
-12.20
-16.97
-21.22
-24.89
-28.00
-30.63
-32.94
-35.11
-37.17
-39.02
-40.40
-41.02
-40.71
-39.52
-37.70
-35.62
-33.57
-31.73
-30.06
-28.46
-26.86
-25.28
-23.87
-22.83
-22.37
-22.63
-23.61
-25.18
-27.04
-28.67
-29.43
-28.63
-25.76
-20.70
-13.89
-6.25
1.00
6.74
10.24
11.32
10.37
8.04
5.07
2.12
-0.36
-2.02
-2.67
-2.28
-1.02
0.74
2.45
3.63
3.97
3.45
2.34
1.04
-0.10
-0.86
-1.30
-1.60
-1.99
-2.69
-3.77
-5.19
-6.83
-8.52
-10.07
-11.29
-11.99
-11.97
-11.15
-9.54
-7.28
-4.59
-1.78
0.85
3.03
4.51
5.15
4.92
4.00
2.75
1.67
1.18
1.49
2.50
3.82
4.93
5.46
5.23
4.33
2.93
1.19
-0.83
-3.16
-5.76
-8.50
-11.15
-13.44
-15.22
-16.48
-17.35
-18.00
-18.46
-18.64
-18.29
-17.18
-15.24
-12.62
-9.73
-7.10
-5.13
-4.07
-3.89
-4.43
-5.48
-6.92
-8.71
-10.81
-13.12
-15.41
-17.36
-18.68
-19.25
-19.18
-18.76
-18.35
-18.15
-18.23
-18.44
-18.62
-18.63
-18.48
-18.28
-18.09
-17.89
-17.53
-16.86
-15.78
-14.38
-12.93
-11.74
-11.02
-10.71
-10.53
-10.10
-9.20
-7.86
-6.41
-5.28
-4.73
-4.78
-5.21
-5.81
-6.49
-7.34
-8.46
-9.73
-10.79
-11.09
-10.21
-8.06
-4.94
-1.39
2.14
5.40
8.43
11.38
14.33
17.15
19.63
21.54
22.79
23.47
23.79
23.92
23.92
23.72
23.21
22.32
21.07
19.64
18.23
17.02
16.07
15.30
14.50
13.45
11.97
10.00
7.61
4.99
2.41
0.12
-1.66
-2.82
-3.33
-3.23
-2.64
-1.69
-0.52
0.73
1.99
3.17
4.21
5.09
5.77
6.25
6.57
6.78
6.96
7.19
7.48
7.79
8.01
8.01
7.71
7.13
6.35
5.50
4.72
4.04
3.46
2.90
2.31
1.62
0.78
-0.23
-1.42
-2.72
-3.93
-4.79
-5.06
-4.57
-3.39
-1.72
0.13
1.92
3.50
4.89
6.13
7.20
8.09
8.72
9.13
9.40
9.73
10.28
11.10
12.11
13.09
13.76
13.91
13.50
12.63
11.54
10.47
9.54
8.73
7.90
6.89
5.62
4.16
2.72
1.52
0.76
0.55
0.84
1.53
2.46
3.47
4.44
5.32
6.05
6.61
6.97
7.08
6.93
6.60
6.24
6.03
6.09
6.37
6.69
6.83
6.61
6.03
5.22
4.38
3.66
3.03
2.34
1.41
0.16
-1.28
-2.63
-3.51
-3.65
-2.99
-1.76
-0.30
1.03
1.98
2.50
2.67
2.64
2.55
2.50
2.51
2.61
2.80
3.08
3.43
3.79
4.10
4.30
4.38
4.32
4.11
3.71
3.06
2.07
0.73
-0.87
-2.54
-4.00
-4.95
-5.17
-4.61
-3.41
-1.88
-0.36
0.89
1.75
2.25
2.54
2.77
2.99
3.22
3.39
3.48
3.50
3.52
3.61
3.81
4.08
4.31
4.34
4.07
3.47
2.63
1.68
0.72
-0.24
-1.28
-2.45
-3.71
-4.85
-5.59
-5.68
-5.07
-3.91
-2.49
-1.08
0.16
1.24
2.26
3.30
4.34
5.28
5.99
6.38
6.44
6.22
5.82
5.33
4.83
4.38
3.97
3.58
3.12
2.56
1.92
1.27
0.71
0.25
-0.22
-0.88
-1.92
-3.39
-5.09
-6.66
-7.67
-7.82
-7.00
-5.39
-3.29
-1.09
0.89
2.46
3.57
4.32
4.86
5.36
5.90
6.49
7.04
7.47
7.73
7.85
7.89
7.89
7.85
7.68
7.33
6.79
6.12
5.48
5.00
4.75
4.73
4.82
4.84
4.66
4.18
3.38
2.35
1.20
0.09
-0.78
-1.24
-1.18
-0.57
0.50
1.82
3.12
4.14
4.67
4.63
4.07
3.09
1.82
0.35
-1.23
-2.85
-4.40
-5.72
-6.67
-7.18
-7.27
-7.07
-6.76
-6.44
-6.15
-5.87
-5.54
-5.22
-5.01
-5.06
-5.45
-6.18
-7.12
-8.08
-8.85
-9.25
-9.15
-8.49
-7.28
-5.65
-3.80
-1.96
-0.35
0.92
1.88
2.60
3.17
3.63
4.00
4.25
4.36
4.33
4.20
3.99
3.73
3.41
3.00
2.53
2.02
1.56
1.19
0.90
0.55
-0.04
-1.07
-2.53
-4.25
-5.86
-6.96
-7.25
-6.75
-5.65
-4.30
-3.00
-1.89
-0.99
-0.21
0.51
1.19
1.83
2.43
2.98
3.52
4.06
4.57
5.00
5.29
5.40
5.31
5.06
4.69
4.27
3.80
3.26
2.55
1.61
0.38
-1.06
-2.56
-3.88
-4.79
-5.15
-4.90
-4.12
-2.97
-1.68
-0.47
0.45
0.97
1.08
0.88
0.55
0.30
0.28
0.54
1.03
1.56
1.97
2.10
1.87
1.34
0.65
-0.03
-0.58
-0.92
-1.07
-1.10
-1.10
-1.18
-1.44
-1.95
-2.72
-3.66
-4.53
-5.03
-4.91
-4.07
-2.66
-0.98
0.63
1.90
2.78
3.39
3.87
4.34
4.77
5.08
5.20
5.14
4.98
4.82
4.73
4.67
4.57
4.34
3.94
3.41
2.87
2.40
2.04
1.75
1.47
1.15
0.78
0.37
-0.08
-0.66
-1.47
-2.57
-3.88
-5.21
-6.20
-6.58
-6.18
-5.07
-3.50
-1.80
-0.28
0.89
1.70
2.26
2.70
3.12
3.50
3.80
3.96
3.99
3.93
3.85
3.80
3.78
3.74
3.63
3.44
3.21
3.01
2.86
2.76
2.61
2.30
1.71
0.82
-0.29
-1.41
-2.32
-2.82
-2.82
-2.35
-1.53
-0.50
0.61
1.66
2.56
3.20
3.51
3.47
3.12
2.58
1.99
1.46
1.00
0.60
0.17
-0.36
-1.02
-1.79
-2.61
-3.42
-4.15
-4.78
-5.30
-5.73
-6.10
-6.46
-6.85
-7.28
-7.74
-8.09
-8.19
-7.87
-7.09
-5.92
-4.54
-3.17
-1.97
-1.01
-0.30
0.21
0.52
0.68
0.74
0.82
1.02
1.46
2.12
2.90
3.61
4.04
4.08
3.68
2.94
2.04
1.17
0.48
0.01
-0.31
-0.66
-1.20
-2.05
-3.13
-4.21
-4.98
-5.17
-4.66
-3.55
-2.14
-0.76
0.36
1.15
1.71
2.20
2.75
3.34
3.86
4.14
4.15
3.95
3.70
3.59
3.68
3.93
4.19
4.29
4.13
3.73
3.16
2.57
2.04
1.60
1.21
0.77
0.24
-0.42
-1.13
-1.84
-2.51
-3.20
-3.99
-4.87
-5.74
-6.38
-6.54
-6.09
-5.09
-3.74
-2.33
-1.08
-0.07
0.69
1.24
1.59
1.74
1.69
1.51
1.26
1.04
0.90
0.87
0.95
1.11
1.35
1.61
1.82
1.91
1.81
1.53
1.11
0.65
0.27
0.07
0.10
0.31
0.57
0.71
0.56
-0.00
-0.97
-2.23
-3.59
-4.78
-5.58
-5.80
-5.36
-4.35
-2.99
-1.60
-0.44
0.33
0.72
0.88
0.99
1.15
1.33
1.47
1.51
1.46
1.40
1.40
1.48
1.58
1.60
1.49
1.25
0.94
0.62
0.36
0.18
0.08
0.04
0.01
-0.13
-0.49
-1.15
-2.06
-3.05
-3.88
-4.35
-4.36
-3.95
-3.21
-2.28
-1.27
-0.28
0.58
1.19
1.47
1.43
1.16
0.84
0.64
0.67
0.93
1.31
1.67
1.90
1.93
1.80
1.58
1.32
1.09
0.89
0.68
0.48
0.27
0.06
-0.21
-0.61
-1.24
-2.10
-3.08
-3.96
-4.50
-4.53
-4.06
-3.24
-2.31
-1.49
-0.88
-0.49
-0.23
-0.01
0.21
0.42
0.60
0.68
0.65
0.52
0.31
0.07
-0.16
-0.34
-0.47
-0.54
-0.53
-0.48
-0.41
-0.41
-0.59
-1.05
-1.83
-2.84
-3.87
-4.63
-4.89
-4.57
-3.79
-2.86
-2.08
-1.66
-1.61
-1.76
-1.89
-1.83
-1.54
-1.11
-0.65
-0.26
0.01
0.14
0.12
-0.12
-0.57
-1.17
-1.75
-2.09
-2.04
-1.57
-0.86
-0.23
0.01
-0.38
-1.41
-2.92
-4.61
-6.14
-7.23
-7.69
-7.44
-6.50
-4.98
-3.04
-0.91
1.13
2.81
3.95
4.47
4.42
3.94
3.25
2.53
1.91
1.48
1.26
1.22
1.30
1.38
1.38
1.27
1.06
0.82
0.60
0.37
0.01
-0.60
-1.54
-2.78
-4.15
-5.41
-6.31
-6.70
-6.50
-5.79
-4.68
-3.31
-1.85
-0.43
0.90
2.08
3.13
4.03
4.76
5.25
5.48
5.45
5.28
5.09
4.95
4.84
4.66
4.28
3.65
2.83
1.99
1.28
0.79
0.47
0.22
-0.07
-0.50
-1.13
-2.00
-3.08
-4.30
-5.45
-6.23
-6.40
-5.85
-4.69
-3.23
-1.85
-0.79
-0.12
0.30
0.67
1.18
1.86
2.59
3.23
3.63
3.75
3.66
3.50
3.39
3.36
3.41
3.42
3.31
3.00
2.54
1.99
1.44
0.93
0.47
-0.00
-0.53
-1.13
-1.78
-2.44
-3.09
-3.73
-4.38
-5.00
-5.51
-5.78
-5.67
-5.14
-4.24
-3.10
-1.85
-0.63
0.50
1.47
2.25
2.79
3.07
3.11
2.98
2.81
2.71
2.76
2.93
3.09
3.12
2.92
2.51
2.00
1.55
1.27
1.17
1.16
1.05
0.68
-0.05
-1.10
-2.34
-3.56
-4.56
-5.14
-5.19
-4.70
-3.77
-2.63
-1.53
-0.67
-0.09
0.28
0.59
0.94
1.32
1.59
1.59
1.20
0.49
-0.34
-1.02
-1.36
-1.33
-1.09
-0.85
-0.85
-1.15
-1.68
-2.29
-2.83
-3.25
-3.61
-4.01
-4.53
-5.14
-5.71
-6.05
-6.04
-5.63
-4.89
-3.93
-2.85
-1.75
-0.67
0.38
1.35
2.23
2.98
3.60
4.08
4.43
4.69
4.85
4.92
4.91
4.80
4.59
4.29
3.91
3.49
3.06
2.59
2.01
1.23
0.18
-1.15
-2.64
-4.06
-5.16
-5.71
-5.60
-4.82
-3.49
-1.82
-0.10
1.41
2.52
3.17
3.45
3.52
3.54
3.62
3.77
3.93
4.03
4.05
3.95
3.72
3.34
2.81
2.22
1.67
1.28
1.09
1.03
0.94
0.67
0.14
-0.64
-1.54
-2.39
-3.03
-3.30
-3.13
-2.48
-1.41
-0.09
1.29
2.52
3.45
4.03
4.29
4.31
4.20
4.03
3.87
3.77
3.76
3.85
4.03
4.22
4.32
4.23
3.88
3.30
2.56
1.77
1.04
0.40
-0.17
-0.73
-1.37
-2.15
-3.08
-4.06
-4.94
-5.49
-5.51
-4.88
-3.64
-1.99
-0.25
1.28
2.43
3.20
3.71
4.12
4.52
4.85
5.04
5.02
4.85
4.70
4.75
5.11
5.68
6.24
6.48
6.19
5.35
4.12
2.79
1.65
0.83
0.31
-0.04
-0.42
-0.93
-1.62
-2.44
-3.29
-4.07
-4.69
-5.08
-5.15
-4.84
-4.11
-3.01
-1.69
-0.33
0.84
1.68
2.10
2.16
1.97
1.68
1.43
1.30
1.30
1.38
1.49
1.57
1.61
1.62
1.59
1.48
1.21
0.72
-0.03
-0.97
-2.02
-3.09
-4.09
-4.98
-5.71
-6.23
-6.45
-6.30
-5.76
-4.89
-3.83
-2.75
-1.78
-0.99
-0.38
0.10
0.49
0.81
1.04
1.17
1.21
1.17
1.11
1.09
1.11
1.17
1.19
1.13
0.94
0.64
0.24
-0.25
-0.85
-1.62
-2.56
-3.62
-4.61
-5.34
-5.61
-5.36
-4.65
-3.66
-2.55
-1.46
-0.44
0.49
1.30
1.97
2.44
2.72
2.82
2.82
2.77
2.70
2.63
2.56
2.49
2.42
2.31
2.13
1.87
1.50
1.06
0.54
-0.07
-0.82
-1.75
-2.80
-3.84
-4.62
-4.94
-4.66
-3.87
-2.79
-1.69
-0.77
-0.09
0.43
0.94
1.52
2.20
2.88
3.46
3.87
4.12
4.24
4.31
4.35
4.33
4.22
4.01
3.70
3.32
2.91
2.46
1.96
1.42
0.84
0.24
-0.37
-1.02
-1.77
-2.67
-3.70
-4.73
-5.56
-6.00
-5.91
-5.27
-4.19
-2.87
-1.52
-0.29
0.73
1.58
2.29
2.93
3.47
3.86
4.04
4.02
3.91
3.83
3.90
4.14
4.47
4.78
4.93
4.86
4.56
4.05
3.39
2.65
1.94
1.33
0.86
0.47
0.01
-0.69
-1.72
-3.07
-4.61
-6.10
-7.31
-8.05
-8.19
-7.72
-6.70
-5.32
-3.79
-2.31
-1.01
0.04
0.86
1.43
1.76
1.83
1.68
1.41
1.18
1.11
1.23
1.48
1.74
1.92
1.99
1.96
1.89
1.77
1.58
1.27
0.86
0.37
-0.11
-0.56
-0.99
-1.49
-2.10
-2.83
-3.59
-4.21
-4.51
-4.39
-3.85
-2.99
-2.00
-1.09
-0.41
-0.02
0.14
0.19
0.28
0.46
0.70
0.89
0.93
0.78
0.52
0.28
0.15
0.11
0.04
-0.18
-0.62
-1.22
-1.84
-2.36
-2.77
-3.15
-3.60
-4.14
-4.63
-4.87
-4.67
-4.01
-3.00
-1.90
-0.92
-0.19
0.33
0.79
1.31
1.97
2.70
3.39
3.88
4.05
3.88
3.44
2.86
2.28
1.83
1.53
1.32
1.09
0.75
0.25
-0.36
-0.99
-1.60
-2.20
-2.90
-3.76
-4.76
-5.74
-6.43
-6.59
-6.14
-5.18
-4.01
-2.94
-2.14
-1.58
-1.07
-0.42
0.43
1.34
2.07
2.44
2.44
2.26
2.12
2.19
2.48
2.83
3.05
3.02
2.73
2.30
1.83
1.40
1.04
0.67
0.24
-0.34
-1.12
-2.12
-3.28
-4.43
-5.35
-5.79
-5.59
-4.77
-3.47
-1.96
-0.52
0.65
1.50
2.08
2.53
2.98
3.49
4.06
4.60
5.05
5.34
5.47
5.46
5.35
5.19
5.01
4.85
4.73
4.65
4.57
4.43
4.12
3.55
2.67
1.49
0.09
-1.43
-3.00
-4.58
-6.14
-7.59
-8.72
-9.29
-9.09
-8.10
-6.52
-4.69
-3.02
-1.74
-0.90
-0.41
-0.12
0.07
0.17
0.20
0.23
0.35
0.66
1.15
1.69
2.11
2.27
2.17
1.88
1.54
1.22
0.95
0.71
0.46
0.15
-0.25
-0.78
-1.48
-2.36
-3.35
-4.32
-5.08
-5.43
-5.29
-4.69
-3.78
-2.74
-1.77
-0.95
-0.33
0.12
0.45
0.69
0.85
0.92
0.87
0.70
0.42
0.09
-0.24
-0.51
-0.73
-0.90
-1.08
-1.31
-1.61
-2.00
-2.54
-3.28
-4.23
-5.31
-6.37
-7.18
-7.53
-7.33
-6.61
-5.53
-4.27
-3.05
-2.01
-1.22
-0.69
-0.37
-0.15
0.06
0.33
0.65
0.99
1.28
1.49
1.61
1.66
1.64
1.56
1.41
1.18
0.91
0.64
0.41
0.19
-0.10
-0.57
-1.26
-2.13
-2.99
-3.57
-3.68
-3.24
-2.36
-1.29
-0.28
0.49
1.00
1.34
1.66
2.03
2.46
2.89
3.23
3.40
3.41
3.28
3.05
2.78
2.51
2.27
2.05
1.81
1.52
1.17
0.76
0.35
-0.02
-0.38
-0.78
-1.35
-2.15
-3.21
-4.36
-5.39
-6.02
-6.06
-5.49
-4.43
-3.12
-1.79
-0.56
0.56
1.63
2.71
3.79
4.76
5.47
5.80
5.75
5.42
5.02
4.80
4.90
5.38
6.09
6.77
7.16
7.11
6.61
5.88
5.13
4.55
4.13
3.74
3.23
2.47
1.44
0.23
-1.08
-2.37
-3.50
-4.36
-4.80
-4.75
-4.23
-3.32
-2.17
-0.92
0.28
1.36
2.25
2.90
3.32
3.58
3.76
3.93
4.12
4.32
4.49
4.62
4.70
4.69
4.56
4.23
3.67
2.96
2.22
1.58
1.09
0.69
0.26
-0.32
-1.08
-1.95
-2.85
-3.68
-4.39
-4.93
-5.23
-5.19
-4.78
-4.05
-3.13
-2.20
-1.36
-0.63
0.07
0.83
1.65
2.44
3.06
3.36
3.32
3.05
2.77
2.63
2.73
2.99
3.24
3.29
3.05
2.56
1.98
1.47
1.12
0.88
0.61
0.14
-0.64
-1.72
-2.95
-4.12
-4.97
-5.35
-5.16
-4.47
-3.45
-2.32
-1.30
-0.53
-0.06
0.19
0.34
0.52
0.79
1.15
1.52
1.83
2.01
2.00
1.82
1.54
1.24
0.96
0.73
0.48
0.16
-0.30
-0.91
-1.67
-2.51
-3.35
-4.12
-4.72
-5.06
-5.05
-4.64
-3.82
-2.67
-1.36
-0.06
1.05
1.87
2.42
2.80
3.15
3.61
4.18
4.76
5.13
5.12
4.68
3.94
3.12
2.43
1.95
1.64
1.39
1.09
0.71
0.25
-0.30
-0.97
-1.82
-2.87
-4.06
-5.24
-6.23
-6.83
-6.93
-6.50
-5.60
-4.40
-3.11
-1.90
-0.89
-0.11
0.54
1.16
1.81
2.48
3.06
3.48
3.70
3.80
3.89
4.07
4.33
4.59
4.74
4.71
4.49
4.14
3.72
3.25
2.72
2.10
1.37
0.56
-0.27
-1.06
-1.81
-2.57
-3.39
-4.27
-5.13
-5.83
-6.19
-6.10
-5.53
-4.54
-3.27
-1.88
-0.53
0.66
1.60
2.25
2.61
2.76
2.80
2.81
2.87
2.99
3.19
3.42
3.66
3.87
3.98
3.95
3.72
3.25
2.58
1.82
1.08
0.46
0.02
-0.29
-0.58
-1.00
-1.64
-2.51
-3.50
-4.45
-5.26
-5.91
-6.45
-6.90
-7.22
-7.29
-6.95
-6.15
-4.93
-3.49
-2.02
-0.69
0.45
1.35
2.04
2.50
2.73
2.77
2.71
2.68
2.81
3.19
3.84
4.65
5.45
6.03
6.21
5.91
5.22
4.31
3.42
2.69
2.14
1.70
1.26
0.73
0.04
-0.84
-1.93
-3.22
-4.61
-5.94
-7.00
-7.58
-7.56
-6.97
-5.99
-4.86
-3.81
-2.97
-2.38
-1.96
-1.62
-1.26
-0.84
-0.36
0.12
0.56
0.88
1.04
1.05
0.97
0.89
0.93
1.12
1.40
1.65
1.72
1.53
1.13
0.62
0.12
-0.33
-0.82
-1.45
-2.24
-3.04
-3.58
-3.57
-2.89
-1.62
-0.04
1.49
2.73
3.57
4.12
4.57
5.04
5.60
6.24
6.91
7.61
8.33
9.11
9.88
10.60
11.16
11.55
11.81
12.11
12.61
13.47
14.68
16.02
17.09
17.37
16.39
13.98
10.36
6.22
2.40
-0.40
-1.90
-2.34
-2.25
-2.17
-2.32
-2.62
-2.74
-2.42
-1.61
-0.45
0.78
1.80
2.42
2.52
2.08
1.13
-0.24
-1.88
-3.64
-5.41
-7.15
-8.84
-10.40
-11.72
-12.67
-13.16
-13.26
-13.09
-12.84
-12.70
-12.79
-13.13
-13.70
-14.40
-15.05
-15.44
-15.35
-14.67
-13.44
-11.85
-10.16
-8.60
-7.24
-6.00
-4.76
-3.42
-2.03
-0.71
0.38
1.20
1.83
2.44
3.18
4.08
4.98
5.67
5.91
5.65
4.96
4.05
3.14
2.31
1.55
0.72
-0.30
-1.57
-3.00
-4.48
-5.86
-7.08
-8.09
-8.84
-9.25
-9.21
-8.68
-7.71
-6.50
-5.30
-4.30
-3.54
-2.89
-2.19
-1.32
-0.29
0.74
1.60
2.19
2.50
2.63
2.72
2.85
3.02
3.20
3.31
3.31
3.17
2.88
2.47
1.95
1.38
0.79
0.21
-0.35
-0.94
-1.64
-2.51
-3.52
-4.61
-5.65
-6.52
-7.12
-7.41
-7.40
-7.06
-6.39
-5.38
-4.06
-2.56
-1.04
0.32
1.37
2.05
2.38
2.41
2.23
1.96
1.69
1.53
1.57
1.81
2.25
2.77
3.27
3.66
3.88
3.93
3.81
3.51
3.05
2.40
1.55
0.54
-0.58
-1.72
-2.74
-3.51
-3.88
-3.82
-3.40
-2.79
-2.15
-1.61
-1.20
-0.83
-0.38
0.17
0.72
1.10
1.12
0.72
-0.02
-0.88
-1.61
-2.07
-2.21
-2.10
-1.87
-1.57
-1.22
-0.84
-0.43
-0.12
-0.03
-0.28
-0.89
-1.75
-2.63
-3.29
-3.52
-3.21
-2.39
-1.20
0.16
1.48
2.59
3.38
3.85
4.07
4.15
4.18
4.20
4.18
4.07
3.83
3.43
2.92
2.33
1.69
1.04
0.39
-0.22
-0.73
-1.04
-1.13
-1.06
-0.95
-0.98
-1.28
-1.83
-2.48
-3.01
-3.18
-2.91
-2.25
-1.37
-0.48
0.29
0.91
1.39
1.76
2.03
2.19
2.23
2.20
2.18
2.26
2.47
2.80
3.16
3.48
3.69
3.80
3.86
3.91
4.00
4.10
4.15
4.06
3.71
3.02
1.96
0.60
-0.88
-2.25
-3.23
-3.63
-3.40
-2.63
-1.54
-0.40
0.59
1.32
1.79
2.13
2.44
2.83
3.32
3.87
4.39
4.79
5.06
5.25
5.46
5.80
6.24
6.66
6.86
6.64
5.97
4.98
3.91
2.99
2.33
1.85
1.37
0.74
-0.09
-1.05
-2.02
-2.95
-3.80
-4.57
-5.20
-5.57
-5.56
-5.12
-4.35
-3.44
-2.61
-1.99
-1.57
-1.24
-0.90
-0.51
-0.13
0.15
0.28
0.27
0.22
0.24
0.38
0.59
0.77
0.84
0.81
0.74
0.75
0.90
1.14
1.34
1.35
1.10
0.59
-0.08
-0.77
-1.36
-1.75
-1.86
-1.63
-1.05
-0.15
0.94
2.12
3.28
4.37
5.41
6.41
7.37
8.27
9.09
9.83
10.54
11.26
12.01
12.75
13.40
13.91
14.22
14.27
14.01
13.32
12.12
10.40
8.28
6.01
3.91
2.23
1.08
0.46
0.28
0.48
1.03
1.92
3.06
4.30
5.40
6.12
6.35
6.11
5.54
4.86
4.19
3.57
2.94
2.19
1.29
0.29
-0.68
-1.50
-2.08
-2.44
-2.69
-2.98
-3.46
-4.20
-5.23
-6.53
-8.07
-9.76
-11.48
-12.97
-13.88
-13.88
-12.69
-10.35
-7.14
-3.60
-0.26
2.48
4.51
5.97
7.11
8.16
9.18
10.07
10.62
10.61
9.88
8.35
6.04
3.04
-0.46
-4.20
-7.80
-10.79
-12.74
-13.29
-12.33
-9.97
-6.58
-2.66
1.28
4.83
7.72
9.83
11.12
11.65
11.57
11.06
10.38
9.75
9.37
9.34
9.66
10.24
10.92
11.52
11.83
11.66
10.89
9.51
7.70
5.77
4.10
2.96
2.45
2.45
2.68
2.84
2.71
2.25
1.48
0.41
-1.01
-2.86
-5.17
-7.75
-10.21
-12.09
-13.02
-12.85
-11.78
-10.16
-8.39
-6.76
-5.40
-4.34
-3.55
-3.02
-2.80
-2.88
-3.15
-3.45
-3.59
-3.45
-3.05
-2.56
-2.20
-2.15
-2.45
-2.98
-3.51
-3.81
-3.76
-3.38
-2.79
-2.15
-1.55
-0.90
0.01
1.40
3.40
5.89
8.55
10.89
12.46
12.94
12.23
10.44
7.82
4.73
1.53
-1.41
-3.82
-5.54
-6.54
-6.91
-6.81
-6.40
-5.82
-5.16
-4.49
-3.86
-3.34
-2.96
-2.72
-2.60
-2.57
-2.61
-2.74
-3.02
-3.51
-4.21
-5.04
-5.82
-6.34
-6.39
-5.89
-4.91
-3.63
-2.31
-1.19
-0.40
-0.01
-0.02
-0.44
-1.21
-2.17
-3.05
-3.52
-3.40
-2.79
-2.08
-1.81
-2.44
-4.14
-6.78
-10.06
-13.67
-17.37
-20.99
-24.22
-26.60
-27.52
-26.49
-23.34
-18.34
-12.19
-5.75
0.16
5.01
8.58
10.93
12.27
12.82
12.76
12.22
11.33
10.26
9.19
8.29
7.55
6.87
6.06
5.00
3.65
2.11
0.59
-0.73
-1.76
-2.53
-3.15
-3.73
-4.32
-4.90
-5.37
-5.64
-5.62
-5.28
-4.66
-3.79
-2.80
-1.80
-0.97
-0.47
-0.41
-0.81
-1.57
-2.49
-3.31
-3.83
-3.93
-3.65
-3.16
-2.71
-2.54
-2.80
-3.50
-4.50
-5.59
-6.58
-7.38
-7.95
-8.27
-8.28
-7.83
-6.85
-5.40
-3.72
-2.23
-1.29
-1.09
-1.52
-2.28
-3.05
-3.67
-4.18
-4.76
-5.54
-6.54
-7.69
-8.90
-10.23
-11.82
-13.84
-16.28
-18.83
-21.00
-22.28
-22.42
-21.47
-19.78
-17.74
-15.62
-13.43
-11.03
-8.24
-5.03
-1.51
2.07
5.47
8.54
11.24
13.57
15.48
16.86
17.56
17.49
16.70
15.44
14.03
12.80
11.92
11.38
11.00
10.52
9.75
8.65
7.33
5.96
4.69
3.51
2.36
1.16
-0.06
-1.14
-1.77
-1.74
-1.03
0.10
1.24
2.06
2.44
2.56
2.75
3.32
4.35
5.69
7.09
8.29
9.14
9.62
9.67
9.19
8.07
6.26
3.90
1.27
-1.29
-3.56
-5.48
-7.17
-8.78
-10.37
-11.93
-13.34
-14.51
-15.39
-15.90
-15.99
-15.56
-14.58
-13.12
-11.36
-9.56
-7.90
-6.48
-5.27
-4.18
-3.11
-2.05
-1.04
-0.16
0.54
1.00
1.22
1.24
1.13
0.93
0.65
0.26
-0.28
-0.95
-1.67
-2.31
-2.79
-3.12
-3.43
-3.82
-4.31
-4.74
-4.88
-4.48
-3.49
-2.06
-0.54
0.72
1.52
1.87
1.94
2.00
2.23
2.67
3.26
3.85
4.31
4.54
4.52
4.27
3.80
3.10
2.17
1.01
-0.34
-1.80
-3.22
-4.45
-5.34
-5.88
-6.12
-6.22
-6.27
-6.25
-6.00
-5.28
-3.91
-1.92
0.44
2.82
4.87
6.40
7.38
7.89
8.00
7.71
6.92
5.58
3.66
1.29
-1.31
-3.86
-6.03
-7.60
-8.44
-8.59
-8.20
-7.44
-6.42
-5.17
-3.70
-2.07
-0.50
0.70
1.24
0.99
0.06
-1.19
-2.31
-2.98
-3.11
-2.86
-2.56
-2.48
-2.75
-3.31
-4.00
-4.61
-5.07
-5.38
-5.60
-5.79
-5.94
-5.95
-5.71
-5.14
-4.25
-3.14
-1.99
-1.01
-0.36
-0.14
-0.35
-0.91
-1.65
-2.37
-2.84
-2.91
-2.48
-1.60
-0.46
0.74
1.78
2.60
3.24
3.82
4.45
5.10
5.67
6.01
6.05
5.84
5.50
5.13
4.81
4.52
4.26
4.03
3.92
3.97
4.17
4.39
4.42
4.13
3.49
2.66
1.88
1.37
1.27
1.50
1.93
2.38
2.73
3.02
3.36
3.87
4.58
5.44
6.25
6.81
6.98
6.75
6.24
5.67
5.26
5.16
5.36
5.72
6.04
6.09
5.73
4.92
3.74
2.31
0.80
-0.64
-1.83
-2.62
-2.89
-2.63
-1.93
-1.03
-0.18
0.45
0.81
0.98
1.11
1.28
1.47
1.60
1.60
1.46
1.25
1.06
0.95
0.89
0.82
0.69
0.47
0.18
-0.17
-0.61
-1.18
-1.91
-2.75
-3.61
-4.32
-4.75
-4.80
-4.49
-3.91
-3.19
-2.46
-1.75
-1.03
-0.26
0.58
1.42
2.09
2.47
2.51
2.26
1.88
1.52
1.27
1.14
1.07
1.02
0.96
0.88
0.71
0.35
-0.34
-1.40
-2.72
-4.06
-5.09
-5.53
-5.27
-4.36
-3.00
-1.45
0.06
1.36
2.35
3.00
3.32
3.36
3.25
3.12
3.09
3.21
3.45
3.72
3.95
4.09
4.17
4.23
4.26
4.20
3.95
3.39
2.51
1.35
0.04
-1.31
-2.59
-3.72
-4.65
-5.27
-5.54
-5.41
-4.94
-4.20
-3.27
-2.20
-0.96
0.44
1.95
3.44
4.75
5.78
6.54
7.15
7.75
8.42
9.11
9.74
10.20
10.43
10.44
10.28
9.94
9.38
8.54
7.35
5.89
4.30
2.79
1.62
0.92
0.73
0.96
1.43
1.92
2.27
2.41
2.35
2.16
1.86
1.49
1.03
0.51
-0.04
-0.50
-0.79
-0.82
-0.61
-0.26
0.07
0.22
0.12
-0.27
-0.83
-1.47
-2.06
-2.52
-2.79
-2.83
-2.62
-2.15
-1.48
-0.73
-0.07
0.39
0.60
0.63
0.60
0.64
0.81
1.05
1.26
1.32
1.19
0.91
0.61
0.40
0.35
0.44
0.54
0.53
0.27
-0.25
-0.95
-1.68
-2.31
-2.74
-2.91
-2.81
-2.42
-1.78
-0.91
0.08
1.08
1.97
2.69
3.24
3.69
4.07
4.43
4.70
4.82
4.73
4.46
4.06
3.65
3.31
3.04
2.77
2.41
1.91
1.28
0.57
-0.15
-0.83
-1.46
-2.02
-2.47
-2.71
-2.66
-2.27
-1.57
-0.70
0.20
1.03
1.78
2.52
3.30
4.10
4.79
5.23
5.28
4.95
4.35
3.72
3.24
3.02
3.00
3.04
2.95
2.63
2.08
1.37
0.61
-0.15
-0.93
-1.75
-2.61
-3.39
-3.90
-3.91
-3.36
-2.33
-1.05
0.20
1.19
1.87
2.32
2.68
3.08
3.52
3.96
4.30
4.46
4.42
4.24
3.99
3.77
3.64
3.61
3.66
3.74
3.75
3.62
3.31
2.79
2.06
1.14
0.09
-1.03
-2.12
-3.02
-3.56
-3.60
-3.13
-2.30
-1.30
-0.37
0.34
0.81
1.10
1.32
1.54
1.79
2.09
2.43
2.80
3.17
3.44
3.54
3.40
3.03
2.53
2.00
1.52
1.12
0.77
0.45
0.12
-0.23
-0.60
-1.05
-1.59
-2.19
-2.73
-3.02
-2.91
-2.34
-1.43
-0.37
0.60
1.32
1.78
2.03
2.20
2.38
2.62
2.89
3.13
3.28
3.27
3.10
2.84
2.54
2.30
2.15
2.06
1.96
1.78
1.45
0.98
0.33
-0.46
-1.37
-2.35
-3.26
-3.94
-4.21
-4.01
-3.37
-2.44
-1.44
-0.56
0.09
0.51
0.78
1.01
1.28
1.60
1.93
2.17
2.25
2.17
1.98
1.79
1.66
1.61
1.61
1.55
1.38
1.12
0.83
0.56
0.30
-0.04
-0.58
-1.34
-2.26
-3.15
-3.78
-4.00
-3.82
-3.35
-2.75
-2.11
-1.48
-0.82
-0.15
0.50
1.02
1.36
1.51
1.53
1.53
1.56
1.63
1.71
1.75
1.71
1.61
1.47
1.30
1.09
0.84
0.52
0.14
-0.30
-0.80
-1.35
-1.94
-2.57
-3.19
-3.74
-4.10
-4.15
-3.83
-3.14
-2.18
-1.11
-0.12
0.65
1.17
1.47
1.65
1.80
1.96
2.10
2.17
2.12
1.99
1.87
1.81
1.86
1.93
1.92
1.71
1.23
0.52
-0.28
-1.02
-1.57
-1.89
-2.06
-2.22
-2.50
-2.94
-3.47
-3.95
-4.23
-4.23
-3.92
-3.38
-2.68
-1.93
-1.18
-0.48
0.14
0.66
1.05
1.30
1.41
1.39
1.29
1.15
1.02
0.90
0.81
0.73
0.64
0.52
0.34
0.12
-0.17
-0.54
-0.99
-1.57
-2.25
-3.01
-3.77
-4.42
-4.84
-4.95
-4.73
-4.24
-3.58
-2.88
-2.22
-1.64
-1.14
-0.68
-0.23
0.20
0.58
0.88
1.07
1.17
1.20
1.22
1.24
1.25
1.22
1.12
0.93
0.65
0.29
-0.09
-0.46
-0.80
-1.12
-1.49
-1.97
-2.58
-3.28
-3.92
-4.35
-4.41
-4.08
-3.43
-2.58
-1.69
-0.87
-0.18
0.35
0.72
0.95
1.11
1.25
1.42
1.65
1.89
2.08
2.16
2.11
1.95
1.73
1.49
1.25
1.01
0.76
0.51
0.29
0.07
-0.18
-0.56
-1.11
-1.85
-2.71
-3.59
-4.34
-4.86
-5.08
-4.99
-4.60
-3.98
-3.20
-2.38
-1.60
-0.87
-0.17
0.60
1.46
2.37
3.19
3.77
4.02
3.96
3.72
3.47
3.35
3.36
3.44
3.46
3.33
3.03
2.61
2.17
1.80
1.53
1.30
1.01
0.56
-0.04
-0.74
-1.43
-2.03
-2.57
-3.11
-3.76
-4.54
-5.36
-6.03
-6.35
-6.20
-5.59
-4.66
-3.59
-2.53
-1.57
-0.71
0.12
0.93
1.70
2.32
2.69
2.75
2.58
2.33
2.21
2.34
2.75
3.32
3.90
4.35
4.59
4.60
4.41
4.05
3.53
2.90
2.23
1.60
1.03
0.50
-0.09
-0.86
-1.84
-2.96
-4.03
-4.84
-5.23
-5.17
-4.76
-4.14
-3.42
-2.67
-1.89
-1.08
-0.25
0.50
1.10
1.48
1.65
1.70
1.74
1.88
2.18
2.61
3.10
3.52
3.74
3.69
3.40
2.92
2.36
1.79
1.26
0.77
0.31
-0.14
-0.58
-1.03
-1.57
-2.21
-2.97
-3.74
-4.37
-4.70
-4.62
-4.12
-3.28
-2.20
-1.02
0.13
1.13
1.86
2.25
2.30
2.10
1.83
1.64
1.63
1.75
1.92
2.00
1.95
1.77
1.52
1.26
0.96
0.60
0.16
-0.38
-0.98
-1.59
-2.19
-2.81
-3.46
-4.14
-4.75
-5.13
-5.12
-4.62
-3.71
-2.54
-1.36
-0.34
0.47
1.12
1.69
2.24
2.72
3.03
3.08
2.86
2.48
2.09
1.85
1.82
1.95
2.13
2.24
2.18
1.93
1.53
1.04
0.53
0.04
-0.47
-1.09
-1.92
-2.96
-4.10
-5.13
-5.77
-5.86
-5.39
-4.52
-3.50
-2.53
-1.67
-0.85
0.03
1.02
2.01
2.80
3.23
3.24
2.97
2.64
2.49
2.58
2.85
3.09
3.13
2.88
2.43
1.94
1.54
1.31
1.19
1.02
0.67
0.04
-0.89
-2.04
-3.28
-4.43
-5.31
-5.74
-5.67
-5.10
-4.17
-3.03
-1.86
-0.76
0.21
1.05
1.75
2.31
2.73
3.03
3.23
3.36
3.45
3.55
3.65
3.75
3.83
3.81
3.60
3.17
2.55
1.84
1.20
0.71
0.38
0.13
-0.17
-0.61
-1.21
-1.93
-2.69
-3.39
-3.91
-4.12
-3.94
-3.38
-2.55
-1.64
-0.86
-0.32
0.02
0.30
0.66
1.19
1.81
2.40
2.78
2.88
2.70
2.36
1.98
1.68
1.52
1.46
1.45
1.41
1.28
1.09
0.88
0.72
0.62
0.51
0.26
-0.28
-1.15
-2.29
-3.48
-4.47
-5.05
-5.14
-4.78
-4.12
-3.31
-2.45
-1.55
-0.60
0.39
1.32
2.10
2.61
2.86
2.89
2.81
2.70
2.62
2.55
2.50
2.45
2.42
2.40
2.37
2.30
2.13
1.84
1.43
0.94
0.43
-0.12
-0.74
-1.50
-2.43
-3.48
-4.47
-5.19
-5.43
-5.13
-4.36
-3.35
-2.33
-1.45
-0.73
-0.09
0.57
1.27
1.94
2.50
2.85
3.01
3.04
3.06
3.11
3.20
3.27
3.22
3.03
2.73
2.39
2.11
1.93
1.80
1.61
1.24
0.63
-0.24
-1.29
-2.39
-3.43
-4.28
-4.86
-5.12
-5.03
-4.58
-3.83
-2.85
-1.77
-0.68
0.32
1.22
2.04
2.78
3.43
3.93
4.20
4.19
3.91
3.48
3.06
2.82
2.81
3.00
3.26
3.43
3.41
3.18
2.76
2.23
1.64
1.04
0.43
-0.21
-0.93
-1.77
-2.68
-3.60
-4.37
-4.88
-5.02
-4.79
-4.27
-3.58
-2.81
-2.03
-1.21
-0.34
0.58
1.48
2.26
2.83
3.13
3.19
3.12
3.05
3.11
3.30
3.55
3.74
3.75
3.54
3.14
2.67
2.19
1.78
1.41
1.06
0.71
0.34
-0.09
-0.60
-1.28
-2.12
-3.06
-3.91
-4.46
-4.57
-4.22
-3.53
-2.73
-1.98
-1.39
-0.94
-0.57
-0.24
0.06
0.34
0.61
0.89
1.22
1.57
1.87
2.04
2.04
1.89
1.70
1.54
1.45
1.37
1.22
0.91
0.46
-0.07
-0.63
-1.17
-1.75
-2.40
-3.12
-3.82
-4.33
-4.50
-4.29
-3.75
-3.05
-2.32
-1.64
-0.99
-0.34
0.31
0.93
1.40
1.65
1.64
1.42
1.09
0.74
0.49
0.40
0.49
0.70
0.93
1.08
1.05
0.84
0.47
-0.01
-0.59
-1.29
-2.14
-3.12
-4.14
-5.02
-5.58
-5.71
-5.38
-4.63
-3.56
-2.29
-0.98
0.20
1.11
1.66
1.87
1.87
1.81
1.81
1.91
2.08
2.23
2.31
2.31
2.24
2.08
1.83
1.47
1.03
0.57
0.15
-0.22
-0.61
-1.10
-1.74
-2.52
-3.33
-4.03
-4.49
-4.65
-4.47
-3.98
-3.21
-2.23
-1.18
-0.20
0.60
1.17
1.56
1.88
2.22
2.59
2.97
3.28
3.46
3.49
3.41
3.28
3.14
2.99
2.83
2.64
2.42
2.19
1.98
1.82
1.69
1.53
1.27
0.81
0.11
-0.83
-1.87
-2.86
-3.56
-3.84
-3.63
-2.99
-2.09
-1.14
-0.33
0.27
0.71
1.07
1.47
1.94
2.43
2.82
3.04
3.09
3.07
3.10
3.31
3.74
4.28
4.74
4.95
4.81
4.39
3.88
3.47
3.25
3.20
3.16
2.98
2.62
2.15
1.73
1.48
1.38
1.28
0.93
0.18
-0.92
-2.14
-3.19
-3.81
-3.95
-3.73
-3.40
-3.20
-3.24
-3.49
-3.84
-4.14
-4.36
-4.54
-4.78
-5.19
-5.80
-6.56
-7.37
-8.12
-8.74
-9.22
-9.57
-9.85
-10.07
-10.25
-10.41
-10.52
-10.52
-10.30
-9.71
-8.66
-7.16
-5.33
-3.42
-1.64
-0.15
1.01
1.91
2.64
3.27
3.84
4.32
4.68
4.88
4.92
4.82
4.61
4.35
4.06
3.77
3.46
3.14
2.78
2.40
2.02
1.62
1.21
0.72
0.12
-0.57
-1.26
-1.80
-2.09
-2.04
-1.68
-1.11
-0.45
0.17
0.70
1.13
1.52
1.91
2.32
2.69
2.98
3.10
3.09
3.00
2.94
2.98
3.09
3.16
3.06
2.70
2.16
1.59
1.14
0.87
0.64
0.27
-0.43
-1.45
-2.58
-3.51
-3.97
-3.88
-3.29
-2.42
-1.45
-0.52
0.33
1.06
1.68
2.15
2.47
2.66
2.77
2.85
2.93
2.99
3.03
3.02
2.96
2.87
2.75
2.57
2.35
2.05
1.69
1.26
0.74
0.11
-0.62
-1.42
-2.20
-2.85
-3.25
-3.31
-2.99
-2.32
-1.41
-0.42
0.50
1.22
1.68
1.91
1.97
1.98
2.00
2.02
2.00
1.87
1.62
1.30
1.01
0.81
0.72
0.67
0.54
0.24
-0.23
-0.84
-1.51
-2.17
-2.79
-3.34
-3.75
-3.95
-3.85
-3.44
-2.81
-2.08
-1.39
-0.85
-0.44
-0.13
0.20
0.59
1.06
1.60
2.15
2.63
2.95
3.03
2.86
2.52
2.12
1.82
1.69
1.71
1.76
1.72
1.50
1.10
0.57
-0.02
-0.63
-1.28
-1.95
-2.57
-2.99
-3.03
-2.59
-1.72
-0.60
0.48
1.26
1.64
1.69
1.65
1.71
2.00
2.45
2.88
3.11
3.06
2.80
2.48
2.23
2.07
1.91
1.60
1.09
0.43
-0.25
-0.82
-1.22
-1.51
-1.81
-2.23
-2.79
-3.44
-4.04
-4.47
-4.60
-4.40
-3.87
-3.11
-2.20
-1.26
-0.34
0.52
1.31
2.01
2.56
2.93
3.09
3.07
2.93
2.75
2.56
2.34
2.05
1.68
1.26
0.88
0.67
0.66
0.82
0.99
1.02
0.82
0.38
-0.21
-0.87
-1.56
-2.24
-2.90
-3.44
-3.71
-3.59
-3.07
-2.29
-1.45
-0.75
-0.24
0.10
0.42
0.76
1.13
1.42
1.53
1.43
1.18
0.90
0.72
0.67
0.71
0.74
0.67
0.48
0.20
-0.10
-0.40
-0.73
-1.17
-1.81
-2.67
-3.64
-4.56
-5.20
-5.41
-5.20
-4.66
-4.00
-3.37
-2.90
-2.59
-2.37
-2.16
-1.89
-1.55
-1.21
-0.96
-0.92
-1.13
-1.56
-2.10
-2.55
-2.78
-2.74
-2.47
-2.14
-1.89
-1.80
-1.85
-1.96
-2.03
-2.06
-2.06
-2.11
-2.21
-2.32
-2.35
-2.20
-1.85
-1.33
-0.75
-0.20
0.29
0.69
1.08
1.50
1.96
2.38
2.70
2.85
2.85
2.81
2.83
3.02
3.36
3.73
4.00
4.05
3.85
3.46
2.98
2.48
1.98
1.44
0.86
0.24
-0.35
-0.79
-1.00
-0.93
-0.60
-0.05
0.63
1.35
2.03
2.58
2.95
3.09
3.05
2.86
2.63
2.42
2.25
2.08
1.87
1.57
1.18
0.74
0.30
-0.12
-0.53
-0.93
-1.33
-1.71
-2.08
-2.47
-2.93
-3.47
-4.05
-4.52
-4.70
-4.43
-3.73
-2.74
-1.72
-0.89
-0.38
-0.14
-0.06
-0.02
0.05
0.15
0.26
0.32
0.32
0.24
0.07
-0.14
-0.33
-0.38
-0.25
0.06
0.41
0.63
0.55
0.10
-0.70
-1.70
-2.73
-3.58
-4.10
-4.17
-3.76
-2.93
-1.87
-0.79
0.12
0.76
1.13
1.29
1.33
1.31
1.28
1.28
1.35
1.50
1.71
1.94
2.11
2.16
2.05
1.80
1.47
1.14
0.87
0.67
0.53
0.37
0.10
-0.34
-0.97
-1.76
-2.61
-3.37
-3.87
-3.98
-3.66
-2.98
-2.10
-1.24
-0.58
-0.18
0.01
0.12
0.28
0.54
0.84
1.07
1.13
1.03
0.86
0.72
0.66
0.67
0.63
0.48
0.17
-0.19
-0.50
-0.64
-0.61
-0.52
-0.53
-0.77
-1.28
-1.99
-2.71
-3.25
-3.46
-3.28
-2.78
-2.10
-1.39
-0.75
-0.23
0.20
0.55
0.80
0.90
0.82
0.52
0.08
-0.43
-0.90
-1.29
-1.59
-1.85
-2.10
-2.39
-2.73
-3.16
-3.67
-4.29
-5.00
-5.73
-6.46
-7.12
-7.69
-8.15
-8.43
-8.43
-8.09
-7.40
-6.43
-5.36
-4.37
-3.58
-3.01
-2.61
-2.34
-2.20
-2.22
-2.45
-2.85
-3.28
-3.58
-3.60
-3.34
-2.90
-2.45
-2.11
-1.96
-2.00
-2.21
-2.58
-3.10
-3.76
-4.50
-5.23
-5.83
-6.19
-6.19
-5.75
-4.80
-3.36
-1.52
0.55
2.68
4.73
6.65
8.37
9.80
10.79
11.15
10.84
10.01
8.98
8.21
8.00
8.48
9.52
10.84
12.13
13.17
13.80
13.96
13.59
12.69
11.29
9.54
7.62
5.78
4.24
3.11
2.40
2.05
1.98
2.08
2.27
2.47
2.62
2.66
2.51
2.11
1.44
0.53
-0.50
-1.50
-2.30
-2.81
-3.03
-3.03
-2.93
-2.85
-2.86
-3.00
-3.20
-3.42
-3.58
-3.64
-3.57
-3.35
-2.93
-2.28
-1.42
-0.39
0.73
1.84
2.86
3.78
4.62
5.41
6.11
6.64
6.92
6.90
6.65
6.32
6.12
6.20
6.58
7.21
7.94
8.60
9.05
9.23
9.12
8.81
8.45
8.21
8.28
8.77
9.70
10.95
12.30
13.50
14.38
14.93
15.21
15.40
15.62
15.87
16.06
16.02
15.59
14.67
13.29
11.57
9.71
7.89
6.24
4.80
3.52
2.32
1.09
-0.21
-1.59
-3.03
-4.50
-5.96
-7.35
-8.56
-9.50
-10.06
-10.26
-10.19
-9.99
-9.77
-9.58
-9.38
-9.09
-8.68
-8.18
-7.62
-7.05
-6.47
-5.90
-5.39
-5.00
-4.84
-4.95
-5.34
-5.95
-6.70
-7.54
-8.43
-9.31
-10.07
-10.61
-10.84
-10.74
-10.32
-9.69
-8.93
-8.11
-7.26
-6.39
-5.54
-4.73
-4.02
-3.50
-3.22
-3.21
-3.40
-3.70
-3.98
-4.14
-4.13
-4.00
-3.85
-3.77
-3.80
-3.96
-4.25
-4.66
-5.21
-5.91
-6.69
-7.39
-7.87
-7.99
-7.69
-7.06
-6.23
-5.37
-4.58
-3.88
-3.25
-2.60
-1.90
-1.21
-0.60
-0.17
0.04
0.02
-0.13
-0.35
-0.54
-0.63
-0.60
-0.42
-0.15
0.15
0.34
0.29
-0.10
-0.83
-1.78
-2.78
-3.59
-4.05
-4.09
-3.75
-3.17
-2.50
-1.91
-1.47
-1.12
-0.76
-0.24
0.50
1.39
2.26
2.83
2.93
2.54
1.80
1.00
0.39
0.10
0.09
0.21
0.28
0.18
-0.09
-0.51
-1.04
-1.70
-2.52
-3.48
-4.44
-5.23
-5.62
-5.53
-4.97
-4.12
-3.16
-2.26
-1.50
-0.89
-0.39
0.01
0.33
0.57
0.75
0.93
1.16
1.43
1.65
1.71
1.52
1.10
0.56
0.05
-0.32
-0.58
-0.85
-1.32
-2.12
-3.21
-4.42
-5.51
-6.26
-6.61
-6.62
-6.43
-6.17
-5.89
-5.62
-5.35
-5.10
-4.85
-4.55
-4.13
-3.54
-2.84
-2.18
-1.78
-1.83
-2.32
-3.08
-3.81
-4.22
-4.12
-3.48
-2.41
-1.08
0.32
1.61
2.63
3.30
3.59
3.53
3.22
2.75
2.24
1.79
1.54
1.58
1.98
2.68
3.57
4.50
5.36
6.11
6.80
7.53
8.34
9.21
10.06
10.75
11.19
11.31
11.13
10.75
10.30
9.90
9.66
9.58
9.59
9.56
9.41
9.08
8.55
7.82
6.82
5.48
3.76
1.71
-0.52
-2.65
-4.42
-5.68
-6.39
-6.66
-6.66
-6.50
-6.27
-5.95
-5.53
-5.01
-4.45
-3.91
-3.47
-3.21
-3.15
-3.24
-3.40
-3.55
-3.63
-3.65
-3.65
-3.72
-3.89
-4.17
-4.53
-4.97
-5.51
-6.17
-6.89
-7.52
-7.82
-7.61
-6.85
-5.71
-4.43
-3.22
-2.17
-1.18
-0.14
0.99
2.13
3.11
3.76
4.01
3.94
3.69
3.42
3.25
3.18
3.17
3.10
2.89
2.47
1.85
1.07
0.26
-0.50
-1.12
-1.56
-1.83
-1.91
-1.79
-1.45
-0.91
-0.23
0.53
1.31
2.12
2.96
3.84
4.69
5.40
5.81
5.85
5.57
5.10
4.68
4.45
4.48
4.64
4.76
4.64
4.11
3.18
1.90
0.44
-1.00
-2.27
-3.23
-3.81
-3.99
-3.78
-3.28
-2.59
-1.86
-1.20
-0.67
-0.25
0.12
0.47
0.81
1.11
1.29
1.34
1.26
1.14
1.02
0.94
0.88
0.77
0.55
0.19
-0.34
-1.05
-1.96
-3.08
-4.32
-5.53
-6.47
-6.92
-6.71
-5.82
-4.42
-2.74
-1.08
0.35
1.45
2.24
2.87
3.48
4.15
4.85
5.48
5.89
5.97
5.73
5.26
4.72
4.21
3.76
3.37
2.99
2.63
2.30
2.01
1.71
1.30
0.70
-0.07
-0.85
-1.43
-1.62
-1.33
-0.58
0.49
1.76
3.12
4.48
5.71
6.66
7.17
7.21
6.83
6.24
5.65
5.21
4.92
4.69
4.42
4.03
3.53
2.96
2.35
1.70
0.95
0.07
-0.97
-2.11
-3.22
-4.14
-4.69
-4.75
-4.32
-3.47
-2.37
-1.23
-0.18
0.75
1.60
2.47
3.39
4.32
5.13
5.67
5.82
5.60
5.11
4.50
3.94
3.50
3.22
3.03
2.83
2.52
2.02
1.25
0.26
-0.88
-2.04
-3.06
-3.79
-4.14
-4.06
-3.58
-2.82
-1.93
-1.03
-0.22
0.50
1.18
1.85
2.52
3.09
3.42
3.46
3.22
2.82
2.45
2.22
2.15
2.16
2.13
1.94
1.60
1.12
0.57
-0.05
-0.79
-1.73
-2.91
-4.24
-5.57
-6.67
-7.36
-7.56
-7.30
-6.68
-5.85
-4.89
-3.88
-2.83
-1.75
-0.63
0.53
1.72
2.90
4.00
4.93
5.60
5.96
6.01
5.78
5.34
4.82
4.34
4.04
4.01
4.21
4.50
4.68
4.54
4.02
3.15
2.08
0.96
-0.13
-1.14
-2.03
-2.73
-3.13
-3.18
-2.89
-2.40
-1.85
-1.33
-0.81
-0.16
0.73
1.86
3.08
4.16
4.90
5.23
5.18
4.93
4.64
4.46
4.43
4.54
4.71
4.83
4.79
4.53
4.06
3.46
2.81
2.17
1.54
0.87
0.11
-0.74
-1.58
-2.35
-2.96
-3.40
-3.68
-3.82
-3.81
-3.59
-3.14
-2.43
-1.54
-0.58
0.33
1.09
1.70
2.20
2.64
3.04
3.38
3.64
3.77
3.77
3.70
3.59
3.48
3.34
3.13
2.86
2.58
2.40
2.34
2.37
2.32
2.01
1.28
0.16
-1.22
-2.65
-3.90
-4.80
-5.25
-5.23
-4.74
-3.89
-2.79
-1.61
-0.49
0.48
1.25
1.83
2.22
2.46
2.59
2.65
2.68
2.75
2.85
2.99
3.13
3.20
3.19
3.07
2.84
2.50
2.10
1.66
1.24
0.86
0.49
0.05
-0.59
-1.52
-2.69
-3.94
-4.97
-5.51
-5.41
-4.73
-3.69
-2.55
-1.53
-0.72
-0.07
0.48
1.01
1.53
1.99
2.35
2.56
2.61
2.50
2.24
1.85
1.38
0.90
0.46
0.14
-0.06
-0.18
-0.31
-0.56
-1.03
-1.74
-2.65
-3.63
-4.49
-5.03
-5.12
-4.73
-3.95
-2.97
-2.03
-1.29
-0.76
-0.38
-0.01
0.43
0.94
1.44
1.84
2.09
2.20
2.20
2.11
1.95
1.72
1.41
1.06
0.71
0.39
0.08
-0.27
-0.75
-1.40
-2.29
-3.41
-4.70
-6.03
-7.22
-8.05
-8.32
-7.93
-6.95
-5.58
-4.11
-2.81
-1.84
-1.23
-0.82
-0.47
-0.03
0.48
0.98
1.34
1.51
1.53
1.50
1.50
1.54
1.54
1.43
1.17
0.82
0.45
0.11
-0.21
-0.60
-1.12
-1.86
-2.80
-3.89
-5.04
-6.11
-6.94
-7.37
-7.27
-6.66
-5.67
-4.47
-3.27
-2.17
-1.14
-0.12
0.95
2.04
3.05
3.85
4.37
4.60
4.62
4.56
4.50
4.47
4.45
4.38
4.22
3.93
3.52
3.02
2.44
1.80
1.13
0.44
-0.23
-0.89
-1.54
-2.24
-3.08
-4.08
-5.23
-6.37
-7.32
-7.85
-7.85
-7.33
-6.40
-5.25
-4.05
-2.90
-1.85
-0.91
-0.08
0.62
1.20
1.65
2.01
2.33
2.66
3.00
3.31
3.54
3.63
3.59
3.44
3.24
3.03
2.81
2.54
2.16
1.64
0.99
0.27
-0.47
-1.21
-1.94
-2.69
-3.45
-4.19
-4.85
-5.34
-5.60
-5.58
-5.25
-4.60
-3.67
-2.52
-1.22
0.14
1.46
2.65
3.61
4.27
4.62
4.74
4.76
4.84
5.08
5.47
5.92
6.28
6.39
6.17
5.55
4.56
3.23
1.68
0.01
-1.64
-3.15
-4.48
-5.60
-6.55
-7.34
-7.96
-8.35
-8.41
-8.09
-7.37
-6.36
-5.21
-4.09
-3.13
-2.36
-1.79
-1.37
-1.11
-0.99
-1.00
-1.10
-1.17
-1.13
-0.94
-0.67
-0.40
-0.24
-0.20
-0.27
-0.38
-0.53
-0.74
-1.09
-1.64
-2.39
-3.27
-4.11
-4.72
-4.90
-4.56
-3.69
-2.41
-0.94
0.50
1.74
2.70
3.44
4.06
4.65
5.25
5.81
6.24
6.51
6.62
6.62
6.59
6.57
6.54
6.48
6.36
6.17
5.91
5.55
5.02
4.23
3.12
1.63
-0.20
-2.26
-4.34
-6.15
-7.40
-7.85
-7.45
-6.33
-4.80
-3.23
-1.88
-0.84
-0.04
0.67
1.40
2.15
2.84
3.38
3.73
3.92
4.03
4.10
4.10
3.99
3.72
3.25
2.61
1.87
1.11
0.42
-0.19
-0.74
-1.33
-2.08
-3.08
-4.28
-5.54
-6.62
-7.30
-7.43
-7.00
-6.15
-5.03
-3.82
-2.63
-1.50
-0.44
0.54
1.47
2.32
3.08
3.74
4.29
4.73
5.07
5.34
5.53
5.62
5.60
5.46
5.21
4.91
4.59
4.29
4.01
3.68
3.23
2.58
1.69
0.59
-0.63
-1.88
-3.03
-3.99
-4.69
-5.06
-5.07
-4.73
-4.08
-3.25
-2.38
-1.63
-1.08
-0.72
-0.51
-0.38
-0.27
-0.14
0.01
0.19
0.38
0.56
0.72
0.80
0.77
0.59
0.23
-0.28
-0.87
-1.40
-1.78
-1.99
-2.11
-2.36
-2.95
-3.94
-5.21
-6.43
-7.21
-7.26
-6.55
-5.27
-3.73
-2.22
-0.89
0.21
1.12
1.84
2.33
2.52
2.42
2.13
1.80
1.59
1.60
1.81
2.10
2.30
2.29
2.03
1.56
0.95
0.27
-0.48
-1.29
-2.21
-3.20
-4.20
-5.07
-5.67
-5.91
-5.74
-5.22
-4.44
-3.51
-2.53
-1.55
-0.57
0.43
1.44
2.41
3.25
3.83
4.06
3.92
3.49
2.90
2.32
1.83
1.47
1.18
0.88
0.49
-0.04
-0.72
-1.57
-2.62
-3.86
-5.26
-6.73
-8.12
-9.24
-9.91
-10.01
-9.53
-8.57
-7.37
-6.19
-5.24
-4.62
-4.28
-4.08
-3.86
-3.54
-3.13
-2.63
-2.05
-1.32
-0.41
0.69
1.83
2.83
3.55
3.93
4.04
4.00
3.90
3.72
3.33
2.56
1.30
-0.46
-2.55
-4.71
-6.68
-8.21
-9.22
-9.70
-9.77
-9.55
-9.14
-8.62
-8.03
-7.33
-6.41
-5.07
-3.03
-0.13
3.60
7.85
12.07
15.66
18.15
19.36
19.37
18.48
17.00
15.23
13.43
11.77
10.40
9.37
8.61
7.86
6.75
4.94
2.25
-1.21
-5.04
-8.57
-11.14
-12.24
-11.74
-9.87
-7.16
-4.18
-1.45
0.79
2.50
3.76
4.71
5.43
5.98
6.42
6.79
7.12
7.41
7.67
7.85
7.90
7.80
7.54
7.10
6.48
5.64
4.59
3.28
1.71
-0.14
-2.21
-4.36
-6.36
-7.94
-8.87
-9.07
-8.60
-7.63
-6.38
-5.05
-3.74
-2.51
-1.45
-0.64
-0.19
-0.14
-0.47
-1.04
-1.72
-2.38
-2.89
-3.17
-3.08
-2.49
-1.32
0.31
2.12
3.67
4.55
4.54
3.69
2.23
0.53
-1.10
-2.45
-3.40
-3.88
-3.87
-3.39
-2.52
-1.45
-0.41
0.35
0.66
0.45
-0.23
-1.20
-2.21
-2.98
-3.26
-2.90
-1.92
-0.46
1.24
2.91
4.32
5.37
6.00
6.25
6.22
6.00
5.71
5.43
5.26
5.25
5.41
5.73
6.13
6.54
6.89
7.16
7.35
7.48
7.54
7.50
7.27
6.81
6.12
5.28
4.44
3.73
3.21
2.84
2.51
2.10
1.56
0.85
-0.02
-1.03
-2.10
-3.14
-3.97
-4.45
-4.48
-4.07
-3.32
-2.35
-1.24
-0.05
1.20
2.44
3.59
4.53
5.21
5.62
5.86
6.01
6.11
6.18
6.18
6.10
5.96
5.79
5.65
5.51
5.33
4.98
4.39
3.53
2.46
1.37
0.45
-0.12
-0.31
-0.16
0.23
0.78
1.49
2.41
3.58
4.94
6.33
7.54
8.40
8.87
9.03
9.00
8.84
8.55
8.03
7.20
6.05
4.63
3.05
1.39
-0.33
-2.15
-4.06
-6.00
-7.82
-9.37
-10.47
-11.05
-11.06
-10.57
-9.68
-8.50
-7.16
-5.76
-4.36
-2.97
-1.55
-0.05
1.53
3.08
4.39
5.25
5.51
5.16
4.29
3.08
1.70
0.30
-1.01
-2.19
-3.22
-4.15
-5.05
-5.95
-6.91
-7.87
-8.76
-9.46
-9.91
-10.06
-9.92
-9.49
-8.78
-7.84
-6.72
-5.57
-4.55
-3.78
-3.32
-3.08
-2.92
-2.70
-2.34
-1.89
-1.48
-1.27
-1.35
-1.70
-2.22
-2.76
-3.23
-3.57
-3.80
-3.89
-3.82
-3.57
-3.13
-2.59
-2.11
-1.84
-1.88
-2.22
-2.69
-3.07
-3.13
-2.79
-2.08
-1.18
-0.26
0.56
1.27
1.94
2.68
3.49
4.25
4.79
4.99
4.86
4.56
4.28
4.13
4.09
4.02
3.78
3.32
2.74
2.17
1.78
1.56
1.42
1.19
0.73
-0.02
-0.97
-2.03
-3.07
-3.99
-4.69
-5.11
-5.17
-4.88
-4.30
-3.55
-2.79
-2.14
-1.62
-1.19
-0.74
-0.23
0.29
0.69
0.82
0.65
0.22
-0.34
-0.91
-1.46
-2.02
-2.66
-3.42
-4.25
-5.01
-5.62
-6.05
-6.41
-6.87
-7.59
-8.61
-9.80
-10.90
-11.61
-11.75
-11.31
-10.53
-9.72
-9.16
-8.98
-9.07
-9.20
-9.11
-8.72
-8.07
-7.37
-6.84
-6.62
-6.72
-7.11
-7.66
-8.32
-9.03
-9.76
-10.48
-11.09
-11.46
-11.44
-10.88
-9.72
-7.97
-5.73
-3.14
-0.33
2.59
5.53
8.42
11.17
13.60
15.57
16.92
17.64
17.81
17.59
17.18
16.71
16.22
15.71
15.13
14.45
13.72
12.96
12.21
11.44
10.55
9.51
8.29
6.98
5.70
4.52
3.44
2.33
1.02
-0.61
-2.49
-4.39
-5.97
-6.86
-6.85
-5.94
-4.32
-2.30
-0.20
1.72
3.29
4.44
5.12
5.31
5.06
4.46
3.72
3.09
2.81
2.98
3.53
4.22
4.75
4.90
4.59
3.92
3.08
2.24
1.47
0.69
-0.22
-1.39
-2.80
-4.35
-5.86
-7.12
-7.96
-8.27
-8.02
-7.26
-6.13
-4.82
-3.55
-2.49
-1.70
-1.16
-0.79
-0.51
-0.25
0.00
0.21
0.34
0.35
0.23
-0.00
-0.30
-0.61
-0.87
-1.04
-1.12
-1.14
-1.15
-1.21
-1.38
-1.76
-2.44
-3.44
-4.69
-5.97
-6.98
-7.44
-7.18
-6.25
-4.91
-3.47
-2.25
-1.40
-0.91
-0.60
-0.30
0.16
0.76
1.38
1.83
1.96
1.78
1.41
1.06
0.87
0.88
1.00
1.09
1.06
0.89
0.59
0.16
-0.44
-1.31
-2.50
-3.95
-5.44
-6.66
-7.31
-7.20
-6.33
-4.88
-3.17
-1.50
-0.08
1.00
1.83
2.51
3.15
3.76
4.25
4.50
4.44
4.10
3.60
3.09
2.68
2.35
2.02
1.59
0.98
0.23
-0.53
-1.20
-1.73
-2.23
-2.90
-3.89
-5.25
-6.83
-8.31
-9.35
-9.70
-9.32
-8.32
-6.96
-5.50
-4.13
-2.91
-1.84
-0.87
0.00
0.76
1.37
1.77
1.92
1.86
1.66
1.43
1.27
1.21
1.19
1.07
0.68
-0.09
-1.21
-2.53
-3.84
-4.97
-5.83
-6.42
-6.80
-6.97
-6.89
-6.48
-5.65
-4.40
-2.83
-1.07
0.69
2.30
3.67
4.75
5.53
6.04
6.34
6.47
6.42
6.20
5.78
5.19
4.53
3.93
3.49
3.22
3.04
2.82
2.46
1.93
1.29
0.57
-0.21
-1.08
-2.04
-3.00
-3.78
-4.14
-3.91
-3.10
-1.88
-0.53
0.68
1.61
2.26
2.70
3.07
3.42
3.75
4.01
4.12
4.02
3.72
3.30
2.86
2.47
2.13
1.77
1.25
0.50
-0.42
-1.37
-2.15
-2.63
-2.82
-2.81
-2.71
-2.57
-2.34
-1.91
-1.22
-0.33
0.67
1.64
2.51
3.26
3.89
4.41
4.79
5.06
5.24
5.46
5.83
6.48
7.43
8.64
10.00
11.36
12.55
13.40
13.74
13.50
12.70
11.46
9.96
8.38
6.86
5.43
4.08
2.83
1.75
0.93
0.45
0.32
0.39
0.45
0.31
-0.11
-0.73
-1.38
-1.86
-2.03
-1.91
-1.61
-1.31
-1.14
-1.14
-1.29
-1.48
-1.61
-1.66
-1.65
-1.68
-1.83
-2.13
-2.54
-3.03
-3.61
-4.30
-5.14
-6.06
-6.90
-7.39
-7.34
-6.67
-5.51
-4.15
-2.87
-1.85
-1.09
-0.49
0.11
0.80
1.57
2.34
2.99
3.45
3.68
3.70
3.56
3.33
3.02
2.64
2.19
1.68
1.16
0.69
0.31
-0.01
-0.38
-0.96
-1.85
-3.04
-4.38
-5.57
-6.29
-6.34
-5.68
-4.46
-2.97
-1.48
-0.22
0.72
1.35
1.75
2.00
2.16
2.24
2.23
2.12
1.91
1.62
1.33
1.12
1.03
1.08
1.20
1.28
1.18
0.84
0.25
-0.56
-1.51
-2.55
-3.63
-4.65
-5.43
-5.76
-5.47
-4.55
-3.17
-1.62
-0.18
1.01
1.99
2.87
3.70
4.37
4.74
4.71
4.34
3.85
3.51
3.44
3.60
3.81
3.88
3.76
3.52
3.29
3.15
3.10
2.99
2.66
1.98
0.96
-0.29
-1.60
-2.73
-3.53
-3.86
-3.72
-3.19
-2.41
-1.54
-0.73
-0.06
0.43
0.74
0.90
0.97
1.01
1.07
1.13
1.18
1.17
1.07
0.89
0.60
0.24
-0.23
-0.85
-1.61
-2.49
-3.36
-4.09
-4.56
-4.76
-4.74
-4.62
-4.47
-4.30
-3.99
-3.46
-2.66
-1.67
-0.67
0.16
0.72
1.04
1.27
1.55
1.93
2.31
2.57
2.58
2.34
1.97
1.64
1.43
1.32
1.16
0.85
0.38
-0.17
-0.67
-1.06
-1.42
-1.89
-2.56
-3.40
-4.22
-4.71
-4.66
-3.98
-2.83
-1.46
-0.16
0.89
1.62
2.08
2.37
2.59
2.75
2.83
2.80
2.63
2.32
1.94
1.57
1.26
1.04
0.87
0.69
0.38
-0.17
-1.00
-2.09
-3.35
-4.61
-5.70
-6.45
-6.77
-6.63
-6.11
-5.34
-4.47
-3.66
-2.98
-2.47
-2.09
-1.78
-1.48
-1.16
-0.87
-0.67
-0.63
-0.76
-1.01
-1.27
-1.41
-1.38
-1.19
-0.97
-0.85
-0.95
-1.30
-1.86
-2.54
-3.21
-3.75
-4.07
-4.07
-3.68
-2.85
-1.57
0.05
1.83
3.54
4.99
6.09
6.87
7.43
7.85
8.15
8.26
8.10
7.66
7.01
6.30
5.65
5.13
4.69
4.31
3.96
3.67
3.49
3.36
3.18
2.77
1.99
0.83
-0.55
-1.90
-2.95
-3.51
-3.54
-3.08
-2.29
-1.31
-0.26
0.73
1.61
2.34
2.91
3.38
3.77
4.10
4.36
4.52
4.58
4.54
4.45
4.34
4.20
4.00
3.66
3.16
2.51
1.82
1.18
0.65
0.18
-0.34
-1.00
-1.85
-2.81
-3.71
-4.38
-4.65
-4.48
-3.88
-2.94
-1.74
-0.36
1.18
2.84
4.53
6.08
7.29
7.98
8.06
7.61
6.79
5.84
4.96
4.24
3.69
3.26
2.88
2.49
2.07
1.64
1.22
0.85
0.54
0.26
-0.06
-0.52
-1.14
-1.89
-2.64
-3.20
-3.44
-3.29
-2.81
-2.13
-1.38
-0.68
-0.08
0.39
0.74
0.98
1.13
1.21
1.30
1.43
1.62
1.82
1.96
1.95
1.78
1.48
1.17
0.92
0.76
0.64
0.47
0.20
-0.17
-0.59
-1.01
-1.42
-1.86
-2.34
-2.82
-3.15
-3.17
-2.79
-2.06
-1.17
-0.37
0.20
0.51
0.67
0.81
1.03
1.32
1.60
1.77
1.80
1.70
1.53
1.36
1.25
1.20
1.22
1.28
1.35
1.38
1.32
1.11
0.73
0.19
-0.48
-1.25
-2.05
-2.78
-3.32
-3.52
-3.29
-2.61
-1.58
-0.41
0.67
1.47
1.90
1.98
1.81
1.49
1.11
0.74
0.39
0.10
-0.11
-0.19
-0.16
-0.09
-0.06
-0.16
-0.41
-0.73
-1.01
-1.18
-1.23
-1.29
-1.50
-1.98
-2.74
-3.64
-4.45
-4.96
-5.06
-4.78
-4.21
-3.49
-2.76
-2.08
-1.49
-0.99
-0.54
-0.10
0.38
0.90
1.43
1.83
1.98
1.82
1.39
0.84
0.33
-0.03
-0.24
-0.36
-0.46
-0.59
-0.72
-0.82
-0.90
-1.03
-1.30
-1.74
-2.36
-3.05
-3.68
-4.14
-4.39
-4.43
-4.33
-4.15
-3.93
-3.63
-3.19
-2.52
-1.66
-0.75
0.01
0.43
0.46
0.19
-0.19
-0.49
-0.64
-0.65
-0.62
-0.64
-0.76
-0.93
-1.11
-1.26
-1.38
-1.52
-1.73
-2.08
-2.62
-3.37
-4.31
-5.38
-6.46
-7.45
-8.29
-8.95
-9.40
-9.64
-9.66
-9.45
-9.06
-8.65
-8.36
-8.29
-8.38
-8.34
-7.76
-6.23
-3.55
0.21
4.69
9.40
13.81
17.49
20.13
21.47
21.39
19.89
17.15
13.54
9.54
5.61
2.09
-0.85
-3.20
-5.01
-6.32
-7.14
-7.46
-7.34
-6.88
-6.21
-5.45
-4.66
-3.84
-2.95
-2.00
-1.03
-0.15
0.56
1.07
1.42
1.68
1.89
2.04
2.05
1.84
1.43
0.91
0.45
0.20
0.17
0.24
0.19
-0.17
-0.94
-2.03
-3.31
-4.57
-5.72
-6.72
-7.59
-8.35
-8.99
-9.46
-9.74
-9.85
-9.86
-9.81
-9.78
-9.77
-9.78
-9.77
-9.70
-9.59
-9.46
-9.41
-9.50
-9.74
-10.00
-10.01
-9.44
-8.07
-5.85
-2.98
0.19
3.29
6.03
8.24
9.85
10.80
11.04
10.54
9.36
7.72
5.93
4.33
3.11
2.31
1.85
1.57
1.37
1.27
1.34
1.65
2.21
2.95
3.74
4.46
5.08
5.66
6.27
6.92
7.55
8.01
8.16
7.91
7.31
6.51
5.69
4.97
4.39
3.88
3.38
2.83
2.27
1.79
1.46
1.31
1.31
1.41
1.49
1.48
1.25
0.70
-0.22
-1.51
-3.03
-4.58
-5.87
-6.68
-6.86
-6.43
-5.53
-4.37
-3.15
-2.03
-1.06
-0.23
0.51
1.18
1.75
2.14
2.28
2.20
1.99
1.84
1.90
2.23
2.79
3.42
3.97
4.33
4.46
4.41
4.23
3.97
3.60
3.12
2.52
1.79
0.96
0.08
-0.82
-1.71
-2.54
-3.25
-3.78
-4.04
-3.98
-3.59
-2.94
-2.13
-1.29
-0.51
0.14
0.63
0.98
1.18
1.25
1.22
1.15
1.08
1.07
1.11
1.21
1.35
1.53
1.73
1.94
2.08
2.06
1.84
1.40
0.82
0.22
-0.31
-0.72
-1.05
-1.38
-1.83
-2.43
-3.17
-3.95
-4.63
-5.06
-5.15
-4.87
-4.29
-3.51
-2.62
-1.74
-0.92
-0.20
0.37
0.81
1.16
1.47
1.81
2.22
2.65
3.01
3.22
3.24
3.12
2.98
2.91
2.91
2.93
2.82
2.52
2.02
1.40
0.81
0.36
0.04
-0.25
-0.64
-1.24
-2.05
-2.91
-3.62
-3.96
-3.80
-3.17
-2.21
-1.15
-0.19
0.53
1.02
1.36
1.65
1.90
2.07
2.08
1.91
1.61
1.39
1.40
1.68
2.13
2.52
2.68
2.58
2.39
2.33
2.56
3.08
3.75
4.33
4.68
4.74
4.60
4.42
4.38
4.64
5.30
6.37
7.74
9.15
10.30
10.84
10.59
9.50
7.74
5.56
3.25
1.04
-0.93
-2.59
-3.92
-4.99
-5.85
-6.58
-7.26
-7.92
-8.55
-9.05
-9.34
-9.35
-9.09
-8.70
-8.33
-8.12
-8.14
-8.38
-8.77
-9.19
-9.49
-9.57
-9.34
-8.78
-7.93
-6.89
-5.75
-4.64
-3.64
-2.79
-2.12
-1.63
-1.31
-1.12
-1.02
-0.93
-0.75
-0.43
0.03
0.57
1.10
1.52
1.77
1.87
1.87
1.80
1.70
1.54
1.30
0.96
0.53
0.02
-0.55
-1.16
-1.72
-2.14
-2.28
-2.03
-1.40
-0.51
0.51
1.50
2.41
3.24
3.98
4.64
5.17
5.52
5.67
5.65
5.52
5.32
5.07
4.74
4.33
3.83
3.29
2.75
2.25
1.80
1.40
1.02
0.65
0.27
-0.16
-0.66
-1.27
-1.93
-2.55
-2.93
-2.91
-2.43
-1.59
-0.60
0.26
0.83
1.04
1.01
0.90
0.87
0.99
1.27
1.63
1.96
2.18
2.21
2.07
1.78
1.42
1.07
0.76
0.48
0.22
-0.07
-0.39
-0.72
-1.07
-1.43
-1.82
-2.20
-2.53
-2.69
-2.61
-2.25
-1.62
-0.81
0.07
0.93
1.68
2.27
2.68
2.90
2.93
2.83
2.65
2.45
2.22
1.96
1.62
1.21
0.75
0.32
0.01
-0.18
-0.30
-0.46
-0.76
-1.30
-2.08
-3.07
-4.19
-5.31
-6.32
-7.07
-7.47
-7.46
-7.09
-6.45
-5.70
-5.00
-4.51
-4.31
-4.44
-4.86
-5.47
-6.19
-6.91
-7.56
-8.13
-8.62
-9.05
-9.44
-9.86
-10.34
-10.91
-11.53
-12.06
-12.34
-12.22
-11.67
-10.79
-9.80
-8.92
-8.28
-7.78
-7.19
-6.20
-4.64
-2.57
-0.23
2.04
3.98
5.44
6.43
6.99
7.20
7.10
6.78
6.40
6.16
6.27
6.81
7.70
8.77
9.87
10.90
11.86
12.75
13.54
14.09
14.28
13.96
13.14
11.93
10.57
9.32
8.42
8.00
8.10
8.64
9.46
10.35
11.13
11.64
11.83
11.72
11.38
10.93
10.49
10.11
9.81
9.59
9.43
9.29
9.13
8.89
8.46
7.77
6.80
5.58
4.20
2.79
1.40
0.03
-1.37
-2.84
-4.36
-5.77
-6.84
-7.40
-7.33
-6.68
-5.59
-4.20
-2.57
-0.65
1.61
4.20
6.95
9.62
11.95
13.86
15.39
16.66
17.72
18.52
18.89
18.71
18.00
16.91
15.72
14.66
13.90
13.45
13.26
13.23
13.18
12.85
11.90
10.08
7.29
3.65
-0.49
-4.73
-8.73
-12.31
-15.41
-18.01
-20.06
-21.48
-22.27
-22.51
-22.40
-22.13
-21.85
-21.55
-21.18
-20.68
-20.05
-19.31
-18.49
-17.59
-16.57
-15.44
-14.25
-13.12
-12.13
-11.31
-10.57
-9.80
-8.92
-7.96
-6.99
-6.11
-5.33
-4.63
-3.93
-3.23
-2.57
-2.03
-1.70
-1.61
-1.73
-2.03
-2.43
-2.86
-3.17
-3.23
-2.91
-2.13
-0.98
0.34
1.60
2.60
3.26
3.67
3.95
4.25
4.57
4.83
4.92
4.73
4.28
3.68
3.12
2.76
2.66
2.79
3.04
3.29
3.41
3.38
3.18
2.82
2.30
1.61
0.71
-0.36
-1.49
-2.48
-3.08
-3.07
-2.42
-1.30
-0.05
1.01
1.69
2.02
2.20
2.42
2.78
3.23
3.61
3.80
3.80
3.74
3.75
3.92
4.15
4.26
4.09
3.58
2.82
2.02
1.35
0.89
0.54
0.16
-0.38
-1.12
-1.94
-2.66
-3.13
-3.30
-3.22
-2.97
-2.62
-2.19
-1.69
-1.11
-0.52
0.04
0.56
1.03
1.52
2.02
2.49
2.86
3.07
3.11
3.03
2.95
2.95
3.04
3.17
3.26
3.24
3.06
2.74
2.33
1.90
1.49
1.11
0.74
0.39
0.03
-0.34
-0.77
-1.34
-2.11
-3.08
-4.11
-4.97
-5.38
-5.19
-4.37
-3.13
-1.76
-0.55
0.34
0.91
1.29
1.62
2.02
2.51
3.02
3.46
3.71
3.73
3.56
3.25
2.88
2.46
2.00
1.46
0.88
0.34
-0.02
-0.10
0.11
0.45
0.71
0.69
0.31
-0.31
-1.00
-1.60
-2.07
-2.45
-2.79
-3.07
-3.17
-2.95
-2.37
-1.53
-0.67
0.02
0.44
0.67
0.86
1.13
1.45
1.72
1.80
1.63
1.26
0.86
0.56
0.45
0.55
0.79
1.07
1.29
1.40
1.36
1.15
0.78
0.29
-0.24
-0.77
-1.26
-1.74
-2.27
-2.91
-3.64
-4.34
-4.81
-4.89
-4.47
-3.61
-2.49
-1.35
-0.39
0.30
0.70
0.89
0.91
0.81
0.61
0.37
0.15
0.02
0.02
0.10
0.18
0.16
-0.00
-0.32
-0.73
-1.15
-1.52
-1.78
-1.93
-2.02
-2.10
-2.24
-2.48
-2.81
-3.15
-3.41
-3.45
-3.20
-2.64
-1.87
-1.07
-0.40
0.03
0.23
0.32
0.44
0.67
0.98
1.24
1.34
1.24
1.00
0.78
0.71
0.82
1.05
1.30
1.47
1.52
1.47
1.34
1.13
0.83
0.42
-0.15
-0.85
-1.61
-2.28
-2.71
-2.75
-2.38
-1.70
-0.92
-0.20
0.34
0.74
1.07
1.41
1.81
2.24
2.66
3.05
3.38
3.65
3.84
3.90
3.81
3.56
3.18
2.72
2.21
1.69
1.20
0.74
0.32
-0.09
-0.54
-1.09
-1.76
-2.51
-3.29
-4.07
-4.79
-5.46
-6.02
-6.40
-6.51
-6.27
-5.65
-4.73
-3.69
-2.70
-1.88
-1.27
-0.80
-0.38
0.07
0.52
0.91
1.17
1.28
1.31
1.37
1.58
1.93
2.36
2.71
2.87
2.83
2.63
2.39
2.20
2.07
1.94
1.72
1.36
0.85
0.24
-0.40
-1.03
-1.64
-2.23
-2.77
-3.20
-3.42
-3.35
-2.96
-2.28
-1.43
-0.56
0.20
0.79
1.21
1.53
1.83
2.13
2.42
2.62
2.67
2.56
2.35
2.17
2.12
2.21
2.37
2.42
2.23
1.76
1.06
0.28
-0.43
-1.01
-1.47
-1.89
-2.36
-2.95
-3.66
-4.42
-5.13
-5.68
-5.96
-5.89
-5.43
-4.65
-3.64
-2.55
-1.51
-0.62
0.09
0.58
0.85
0.87
0.65
0.27
-0.16
-0.50
-0.64
-0.54
-0.29
0.01
0.22
0.29
0.18
-0.08
-0.47
-0.98
-1.58
-2.25
-2.94
-3.64
-4.30
-4.89
-5.33
-5.53
-5.45
-5.05
-4.41
-3.62
-2.76
-1.89
-1.02
-0.17
0.63
1.28
1.70
1.83
1.72
1.52
1.38
1.40
1.58
1.84
2.02
2.07
1.99
1.86
1.75
1.67
1.53
1.18
0.52
-0.49
-1.75
-3.06
-4.16
-4.85
-5.00
-4.60
-3.76
-2.66
-1.49
-0.38
0.55
1.23
1.68
1.92
2.03
2.10
2.23
2.46
2.79
3.16
3.48
3.67
3.71
3.57
3.28
2.85
2.36
1.86
1.43
1.09
0.79
0.46
-0.01
-0.68
-1.52
-2.45
-3.29
-3.89
-4.15
-4.04
-3.60
-2.94
-2.15
-1.33
-0.52
0.28
1.10
1.93
2.75
3.47
4.00
4.28
4.32
4.23
4.15
4.21
4.44
4.80
5.11
5.20
4.95
4.37
3.59
2.80
2.18
1.77
1.54
1.33
0.97
0.36
-0.52
-1.59
-2.73
-3.82
-4.74
-5.39
-5.68
-5.55
-5.00
-4.11
-3.02
-1.93
-1.00
-0.29
0.24
0.70
1.19
1.73
2.24
2.63
2.83
2.87
2.88
3.01
3.32
3.76
4.16
4.30
4.06
3.49
2.78
2.18
1.83
1.73
1.69
1.49
0.97
0.15
-0.84
-1.87
-2.83
-3.67
-4.34
-4.72
-4.70
-4.20
-3.27
-2.10
-0.95
0.01
0.75
1.32
1.83
2.27
2.58
2.67
2.51
2.21
1.92
1.79
1.88
2.11
2.35
2.47
2.41
2.18
1.86
1.50
1.11
0.63
0.00
-0.80
-1.75
-2.73
-3.63
-4.32
-4.74
-4.86
-4.68
-4.24
-3.61
-2.83
-1.96
-1.02
-0.02
0.99
1.95
2.77
3.37
3.72
3.84
3.80
3.70
3.60
3.52
3.44
3.32
3.12
2.81
2.40
1.92
1.41
0.92
0.46
0.06
-0.32
-0.72
-1.18
-1.76
-2.47
-3.32
-4.22
-5.01
-5.49
-5.44
-4.80
-3.63
-2.17
-0.72
0.46
1.28
1.75
2.00
2.15
2.30
2.48
2.69
2.91
3.12
3.29
3.35
3.27
3.03
2.65
2.21
1.81
1.53
1.40
1.42
1.54
1.71
1.82
1.77
1.43
