1532611247.00
64.000000
-0.00
-0.00
-0.00
-0.00
-0.00
-0.00
-0.00
-0.00
-0.00
-0.00
0.00
0.01
0.01
-0.00
-0.03
-0.05
-0.05
0.00
0.13
0.36
0.66
1.01
1.37
1.72
2.06
2.40
2.79
3.24
3.80
4.42
5.06
5.66
6.20
6.68
7.15
7.68
8.31
9.14
10.09
11.04
11.88
12.56
13.14
13.76
14.65
15.96
17.91
20.32
22.90
25.38
27.58
29.57
31.68
34.32
37.81
42.54
48.15
54.11
59.84
64.97
69.58
74.14
79.34
85.71
93.79
103.04
112.66
121.75
129.71
136.57
142.99
150.30
157.23
166.06
177.36
191.22
206.39
219.94
227.52
224.50
207.55
175.81
131.69
79.01
22.04
-36.02
-93.68
-150.67
-207.07
-262.50
-316.03
-366.15
-412.01
-453.01
-488.74
-518.42
-540.66
-553.57
-555.15
-544.08
-520.04
-484.35
-439.41
-388.21
-333.64
-277.94
-222.55
-168.27
-115.69
-65.48
-18.82
22.93
58.50
87.18
109.09
125.18
136.83
145.40
151.79
156.24
158.51
158.17
154.87
148.47
139.14
127.52
114.95
103.60
96.10
94.73
100.37
111.80
125.91
138.74
146.93
148.90
145.07
137.16
127.21
116.63
106.11
95.92
86.41
78.23
72.04
68.16
66.01
64.36
61.79
57.26
50.53
42.18
33.33
25.17
18.65
14.16
11.57
10.36
9.79
9.14
7.94
6.07
3.81
1.61
-0.10
-1.14
-1.60
-1.86
-2.26
-3.02
-4.12
-5.35
-6.47
-7.36
-7.98
-8.33
-8.31
-7.74
-6.44
-4.46
-2.22
-0.38
0.34
-0.39
-2.39
-5.02
-7.45
-9.06
-9.62
-9.31
-8.54
-7.69
-6.99
-6.54
-6.43
-6.72
-7.46
-8.43
-9.19
-9.11
-7.61
-4.48
-0.06
4.85
9.21
12.13
13.19
12.54
10.71
8.38
6.12
4.20
2.64
1.27
-0.03
-1.30
-2.46
-3.35
-3.83
-3.92
-3.71
-3.36
-2.98
-2.51
-1.82
-0.79
0.54
1.95
3.12
3.77
3.89
3.63
3.26
2.99
2.86
2.80
2.70
2.59
2.50
2.56
2.86
3.42
4.04
4.48
4.46
3.89
2.88
1.74
0.89
0.57
0.73
1.02
0.98
0.29
-1.11
-2.97
-4.93
-6.70
-8.21
-9.53
-10.69
-11.61
-12.00
-11.59
-10.23
-8.11
-5.69
-3.54
-2.19
-1.88
-2.48
-3.62
-4.82
-5.73
-6.22
-6.37
-6.39
-6.47
-6.67
-6.90
-6.98
-6.76
-6.18
-5.37
-4.47
-3.73
-3.38
-3.59
-4.42
-5.69
-7.04
-7.91
-7.73
-6.07
-2.88
1.41
6.05
10.26
13.42
15.32
16.12
15.75
14.47
12.63
10.53
8.41
6.43
4.72
3.34
2.31
1.59
1.15
0.86
0.54
0.06
-0.62
-1.35
-1.87
-1.91
-1.40
-0.43
0.63
1.28
1.13
0.05
-1.74
-3.79
-5.58
-6.79
-7.33
-7.47
-7.65
-8.35
-9.86
-12.29
-15.49
-19.11
-22.63
-25.33
-26.48
-25.46
-22.05
-16.53
-9.68
-2.54
3.87
8.89
12.27
14.18
14.99
15.13
14.95
14.72
14.64
14.80
15.17
15.65
16.04
16.20
16.01
15.49
14.73
13.90
13.17
12.69
12.47
12.40
12.20
11.58
10.35
8.51
6.30
4.04
2.02
0.33
-1.15
-2.68
-4.46
-6.56
-8.86
-11.14
-13.18
-14.83
-16.10
-17.16
-18.29
-19.83
-22.04
-24.95
-28.20
-31.04
-32.48
-31.63
-28.08
-22.07
-14.44
-6.42
0.86
6.64
10.63
13.02
14.21
14.65
14.72
14.68
14.69
14.89
15.34
16.06
16.94
17.81
18.43
18.67
18.49
18.01
17.43
16.96
16.64
16.41
16.05
15.37
14.24
12.66
10.71
8.56
6.40
4.37
2.61
1.13
-0.17
-1.49
-3.02
-4.90
-7.05
-9.26
-11.20
-12.67
-13.70
-14.60
-15.87
-17.96
-21.13
-25.23
-29.68
-33.54
-35.75
-35.44
-32.19
-26.27
-18.53
-10.22
-2.57
3.52
7.64
9.91
10.73
10.65
10.13
9.55
9.15
9.08
9.37
9.96
10.75
11.54
12.16
12.46
12.36
11.85
10.99
9.93
8.84
7.88
7.12
6.48
5.76
4.73
3.21
1.18
-1.20
-3.61
-5.75
-7.42
-8.60
-9.50
-10.43
-11.73
-13.65
-16.27
-19.35
-22.39
-24.60
-25.18
-23.52
-19.52
-13.64
-6.75
0.07
5.92
10.28
13.10
14.66
15.36
15.55
15.44
15.15
14.78
14.45
14.31
14.48
14.98
15.66
16.33
16.74
16.71
16.21
15.28
14.05
12.68
11.27
9.89
8.50
7.02
5.32
3.32
1.02
-1.40
-3.69
-5.61
-7.09
-8.26
-9.41
-10.88
-12.88
-15.50
-18.63
-22.03
-25.25
-27.72
-28.75
-27.75
-24.43
-19.04
-12.33
-5.34
0.89
5.71
8.95
10.85
11.83
12.31
12.54
12.67
12.80
13.00
13.37
13.92
14.61
15.31
15.86
16.11
16.01
15.63
15.09
14.59
14.25
14.09
13.99
13.71
13.04
11.84
10.16
8.22
6.33
4.78
3.71
3.08
2.66
2.15
1.24
-0.23
-2.21
-4.51
-6.84
-8.94
-10.64
-11.92
-12.91
-13.80
-14.85
-16.39
-18.70
-21.90
-25.75
-29.55
-32.24
-32.73
-30.37
-25.24
-18.23
-10.66
-3.80
1.56
5.32
7.87
9.74
11.39
12.97
14.48
15.88
17.12
18.20
19.08
19.68
19.84
19.45
18.49
17.09
15.50
14.01
12.94
12.48
12.69
13.43
14.40
15.23
15.59
15.29
14.39
13.10
11.73
10.53
9.56
8.70
7.71
6.34
4.48
2.19
-0.29
-2.64
-4.63
-6.22
-7.57
-8.97
-10.69
-12.87
-15.55
-18.66
-22.03
-25.43
-28.41
-30.41
-30.83
-29.31
-25.95
-21.39
-16.61
-12.60
-9.97
-8.80
-8.64
-8.75
-8.43
-7.22
-4.94
-1.73
2.11
6.17
10.05
13.46
16.17
18.15
19.45
20.20
20.63
20.89
21.07
21.12
20.87
20.08
18.55
16.29
13.43
10.31
7.26
4.51
2.14
0.03
-1.98
-4.07
-6.36
-8.90
-11.70
-14.76
-18.09
-21.70
-25.61
-29.83
-34.36
-39.12
-43.88
-48.14
-51.14
-52.01
-50.00
-44.79
-36.62
-26.37
-15.30
-4.70
4.36
11.28
15.90
18.39
19.12
18.51
17.01
15.10
13.25
11.86
11.15
11.11
11.53
12.07
12.43
12.43
12.08
11.46
10.72
9.92
9.06
8.02
6.67
4.88
2.56
-0.28
-3.58
-7.18
-10.85
-14.35
-17.43
-19.88
-21.58
-22.49
-22.74
-22.58
-22.37
-22.40
-22.69
-22.91
-22.43
-20.54
-16.84
-11.47
-5.09
1.37
7.05
11.46
14.57
16.64
18.00
18.90
19.49
19.88
20.18
20.51
20.96
21.48
21.96
22.26
22.28
22.01
21.48
20.74
19.79
18.60
17.14
15.44
13.53
11.46
9.29
7.04
4.74
2.42
0.12
-2.08
-4.06
-5.74
-7.03
-7.91
-8.48
-8.81
-9.03
-9.23
-9.54
-10.10
-11.20
-13.12
-16.01
-19.71
-23.56
-26.60
-27.76
-26.36
-22.34
-16.34
-9.45
-2.79
2.77
6.87
9.53
11.05
11.76
11.97
11.93
11.85
11.90
12.13
12.52
12.96
13.28
13.41
13.34
13.15
12.92
12.71
12.53
12.37
12.25
12.19
12.20
12.21
12.08
11.63
10.73
9.41
7.83
6.25
4.90
3.86
3.04
2.25
1.26
-0.08
-1.77
-3.71
-5.71
-7.62
-9.32
-10.85
-12.28
-13.80
-15.61
-17.91
-20.85
-24.36
-28.15
-31.57
-33.81
-34.06
-31.84
-27.15
-20.58
-13.12
-5.86
0.24
4.65
7.28
8.39
8.50
8.15
7.83
7.89
8.45
9.51
10.93
12.52
14.09
15.50
16.66
17.50
18.04
18.32
18.42
18.43
18.38
18.26
18.00
17.48
16.58
15.25
13.51
11.48
9.36
7.39
5.77
4.54
3.59
2.70
1.60
0.12
-1.73
-3.73
-5.61
-7.13
-8.25
-9.15
-10.10
-11.42
-13.30
-15.80
-18.83
-22.17
-25.45
-28.08
-29.38
-28.68
-25.59
-20.23
-13.29
-5.83
1.02
6.42
10.00
11.88
12.47
12.27
11.69
11.04
10.50
10.21
10.23
10.52
10.96
11.34
11.51
11.40
11.10
10.76
10.53
10.43
10.38
10.19
9.69
8.81
7.57
6.05
4.37
2.64
0.95
-0.61
-2.03
-3.33
-4.62
-6.00
-7.53
-9.16
-10.78
-12.27
-13.57
-14.76
-16.06
-17.75
-20.08
-23.04
-26.24
-28.94
-30.18
-29.14
-25.50
-19.59
-12.34
-4.94
1.58
6.63
10.09
12.22
13.37
13.84
13.80
13.37
12.69
11.96
11.40
11.18
11.32
11.72
12.18
12.52
12.62
12.53
12.35
12.18
12.05
11.88
11.48
10.70
9.41
7.58
5.29
2.69
-0.00
-2.54
-4.72
-6.45
-7.77
-8.86
-9.96
-11.28
-13.04
-15.33
-18.20
-21.47
-24.77
-27.44
-28.72
-27.96
-24.88
-19.71
-13.14
-6.13
0.41
5.81
9.73
12.13
13.24
13.39
13.00
12.45
12.04
11.94
12.14
12.51
12.90
13.14
13.18
13.04
12.82
12.66
12.63
12.70
12.73
12.53
11.91
10.78
9.21
7.42
5.65
4.06
2.68
1.39
0.03
-1.53
-3.29
-5.15
-6.94
-8.50
-9.81
-10.97
-12.21
-13.77
-15.91
-18.70
-22.02
-25.46
-28.35
-29.91
-29.46
-26.66
-21.65
-15.04
-7.78
-0.87
4.88
9.02
11.49
12.59
12.75
12.43
12.01
11.72
11.69
11.95
12.45
13.09
13.75
14.29
14.60
14.63
14.44
14.16
13.92
13.79
13.71
13.56
13.17
12.41
11.20
9.63
7.83
6.02
4.40
3.06
1.96
0.93
-0.27
-1.78
-3.65
-5.73
-7.78
-9.59
-11.04
-12.23
-13.40
-14.87
-16.93
-19.72
-23.14
-26.78
-29.97
-31.85
-31.67
-29.03
-24.06
-17.39
-10.01
-2.93
3.08
7.60
10.59
12.23
12.85
12.80
12.44
12.05
11.87
11.99
12.41
13.03
13.72
14.34
14.74
14.82
14.55
13.99
13.29
12.64
12.10
11.61
10.95
9.89
8.35
6.41
4.31
2.34
0.65
-0.77
-2.10
-3.52
-5.21
-7.20
-9.43
-11.75
-13.96
-15.91
-17.51
-18.88
-20.31
-22.22
-24.87
-28.11
-31.31
-33.46
-33.58
-31.12
-26.25
-19.86
-13.28
-7.83
-4.27
-2.69
-2.57
-3.21
-4.07
-5.01
-6.29
-8.35
-11.49
-15.52
-19.84
-23.69
-26.57
-28.41
-29.70
-31.25
-34.00
-38.70
-45.38
-53.75
-63.38
-73.62
-83.35
-90.87
-93.97
-90.93
-81.37
-65.80
-46.21
-25.45
-6.08
10.82
25.54
39.54
53.55
66.67
77.88
85.72
88.98
87.65
83.43
79.01
77.99
82.74
93.63
110.92
133.61
159.30
184.63
206.19
220.98
228.10
227.84
211.77
177.22
129.22
78.72
35.61
7.38
-10.61
-23.25
-33.49
-42.08
-47.34
-47.02
-40.40
-28.73
-14.42
-0.79
9.64
14.09
10.12
-1.87
-18.94
-36.45
-49.74
-55.81
-55.08
-50.30
-45.93
-45.76
-50.18
-56.77
-62.24
-64.48
-63.41
-60.75
-57.94
-55.61
-53.30
-49.61
-43.54
-35.44
-26.94
-20.00
-16.12
-15.32
-16.46
-17.84
-17.80
-15.50
-11.18
-6.03
-1.54
1.10
1.55
0.29
-1.69
-3.35
-4.00
-3.55
-2.60
-2.09
-2.95
-5.67
-10.06
-15.30
-20.31
-24.18
-26.53
-27.65
-28.19
-28.92
-30.29
-32.34
-34.67
-36.64
-37.47
-36.42
-32.91
-26.66
-17.83
-7.08
4.53
15.80
25.73
33.72
39.67
43.89
46.85
49.05
50.82
52.34
53.70
54.92
56.09
57.26
58.36
59.17
59.21
57.92
54.86
49.90
43.32
35.69
27.56
19.26
10.84
2.15
-6.87
-15.99
-24.71
-32.44
-38.77
-43.65
-47.41
-50.55
-53.59
-56.92
-60.68
-64.74
-68.64
-71.52
-72.32
-70.06
-64.23
-55.11
-43.79
-31.85
-20.84
-11.80
-5.07
-0.38
2.78
4.91
6.24
6.86
6.79
6.14
5.08
3.77
2.33
0.78
-0.93
-2.75
-4.57
-6.15
-7.28
-7.91
-8.23
-8.64
-9.57
-11.29
-13.75
-16.60
-19.30
-21.33
-22.46
-22.77
-22.62
-22.58
-23.18
-24.78
-27.44
-30.73
-33.84
-35.61
-34.92
-31.08
-24.08
-14.74
-4.41
5.42
13.58
19.45
23.03
24.72
25.01
24.42
23.29
21.99
20.81
20.03
19.77
19.98
20.42
20.78
20.84
20.56
20.07
19.58
19.19
18.85
18.35
17.51
16.23
14.63
12.93
11.37
10.03
8.83
7.55
5.88
3.54
0.35
-3.64
-8.06
-12.20
-15.10
-15.83
-13.78
-9.00
-2.21
5.38
12.46
18.05
21.77
23.80
24.68
25.05
25.36
25.78
26.26
26.72
27.10
27.46
27.87
28.35
28.76
28.75
27.87
25.70
21.95
16.63
10.06
2.77
-4.64
-11.69
-18.16
-24.04
-29.42
-34.29
-38.45
-41.58
-43.37
-43.84
-43.40
-42.85
-43.08
-44.83
-48.41
-53.65
-59.89
-66.07
-70.87
-72.93
-71.15
-65.01
-54.82
-41.70
-27.29
-13.32
-1.15
8.52
15.67
20.78
24.55
27.56
30.18
32.48
34.35
35.61
36.19
36.20
35.91
35.58
35.33
35.08
34.61
33.72
32.34
30.59
28.72
26.93
25.30
23.72
22.00
19.91
17.28
14.09
10.42
6.48
2.57
-1.00
-4.00
-6.36
-8.17
-9.66
-11.08
-12.64
-14.42
-16.27
-17.79
-18.26
-16.85
-12.83
-5.89
3.68
14.94
26.66
37.59
46.90
54.23
59.64
63.34
65.45
65.87
64.40
60.90
55.44
48.41
40.43
32.18
24.20
16.79
9.99
3.80
-1.75
-6.43
-9.87
-11.69
-11.70
-10.09
-7.37
-4.32
-1.74
-0.17
0.20
-0.48
-1.83
-3.47
-5.15
-6.80
-8.45
-10.18
-12.10
-14.44
-17.51
-21.56
-26.49
-31.67
-35.97
-38.11
-37.15
-32.92
-26.02
-17.63
-9.00
-1.12
5.47
10.53
14.03
15.99
16.52
15.87
14.52
13.01
11.80
11.16
11.05
11.20
11.26
10.98
10.32
9.49
8.84
8.65
8.96
9.40
9.30
7.96
4.94
0.26
-5.62
-11.95
-17.98
-23.21
-27.50
-31.09
-34.49
-38.19
-42.40
-46.76
-50.32
-51.78
-50.02
-44.60
-36.06
-25.80
-15.59
-6.99
-0.94
2.28
2.81
1.00
-2.75
-7.94
-13.91
-19.87
-25.10
-29.18
-32.22
-34.74
-37.51
-41.25
-46.30
-52.45
-58.95
-64.67
-68.50
-69.73
-68.26
-64.58
-59.42
-53.43
-46.87
-39.55
-30.99
-20.58
-7.95
6.88
23.32
40.17
55.83
68.64
77.38
81.64
82.08
80.28
78.39
78.41
81.43
87.01
93.07
96.35
93.35
81.41
59.38
27.87
-11.04
-54.30
-98.37
-139.67
-175.08
-202.43
-220.90
-230.93
-233.67
-230.03
-220.01
-202.78
-177.43
-144.04
-104.18
-60.59
-16.24
26.63
66.87
104.07
137.87
167.59
192.39
211.85
226.49
237.65
246.96
255.46
262.83
267.34
266.62
258.70
242.90
220.19
192.69
163.06
133.94
107.10
83.13
61.84
42.65
24.96
8.44
-7.25
-22.27
-36.27
-49.30
-62.24
-76.37
-93.17
-113.84
-138.49
-166.11
-193.88
-216.37
-227.48
-222.76
-200.96
-165.17
-122.23
-80.32
-46.51
-24.19
-11.82
-5.76
-3.13
-2.84
-5.83
-14.19
-26.85
-42.48
-65.53
-96.97
-131.74
-163.44
-184.64
-188.94
-173.58
-140.76
-97.42
-52.08
-10.74
23.54
50.22
70.43
85.25
95.02
99.80
99.98
97.12
94.37
94.34
97.59
102.87
107.79
110.04
108.55
103.56
96.49
89.44
83.83
79.63
75.95
71.53
65.43
57.45
48.00
37.95
28.43
20.24
13.55
8.17
3.71
-0.25
-4.02
-7.91
-12.12
-16.64
-21.35
-25.97
-30.11
-33.40
-35.61
-36.84
-37.46
-37.96
-38.75
-39.93
-41.29
-42.31
-42.57
-41.86
-40.37
-38.59
-37.16
-36.62
-37.48
-40.27
-45.57
-53.54
-63.05
-71.00
-72.77
-63.78
-41.73
-8.40
30.61
67.87
96.85
113.91
118.56
112.12
96.23
72.42
42.90
11.71
-15.25
-31.84
-34.29
-23.20
-3.45
17.89
34.49
42.99
43.50
38.37
30.38
21.41
12.17
2.74
-6.59
-14.99
-21.35
-24.92
-25.92
-25.61
-25.60
-27.13
-30.29
-33.86
-35.83
-34.30
-28.37
-18.59
-6.79
4.57
13.32
18.24
19.39
17.86
15.19
12.79
11.49
11.52
12.70
14.83
17.83
21.68
26.26
31.11
35.46
38.44
39.39
38.15
35.03
30.62
25.55
20.23
14.80
9.23
3.50
-2.33
-8.06
-13.41
-18.13
-22.00
-24.86
-26.47
-26.45
-24.40
-20.09
-13.69
-5.91
2.11
9.12
14.12
16.66
16.83
15.15
12.27
8.76
5.00
1.20
-2.56
-6.20
-9.60
-12.59
-14.95
-16.46
-16.94
-16.33
-14.75
-12.51
-9.99
-7.55
-5.44
-3.81
-2.61
-1.79
-1.29
-1.15
-1.48
-2.43
-4.08
-6.33
-9.01
-11.89
-14.78
-17.57
-20.11
-22.11
-23.07
-22.38
-19.61
-14.77
-8.43
-1.68
4.29
8.55
10.74
11.11
10.25
8.83
7.36
6.12
5.26
4.89
5.10
5.93
7.21
8.59
9.63
9.93
9.34
7.96
6.10
4.07
2.06
0.15
-1.65
-3.28
-4.52
-5.03
-4.50
-2.73
0.22
3.96
7.94
11.53
14.27
15.94
16.62
16.63
16.37
16.18
16.21
16.33
16.21
15.44
13.73
11.13
8.02
5.03
2.85
1.88
2.18
3.44
5.15
6.86
8.29
9.33
10.01
10.34
10.33
9.97
9.32
8.55
7.84
7.32
7.03
6.87
6.72
6.47
6.11
5.66
5.21
4.82
4.55
4.43
4.48
4.70
5.04
5.35
5.41
4.97
3.84
1.97
-0.54
-3.46
-6.49
-9.29
-11.62
-13.36
-14.49
-15.16
-15.66
-16.36
-17.60
-19.51
-21.87
-24.15
-25.60
-25.53
-23.64
-20.13
-15.71
-11.22
-7.36
-4.36
-2.20
-0.62
0.54
1.20
1.09
-0.07
-2.27
-5.11
-7.70
-9.36
-9.49
-8.04
-5.47
-2.61
-0.16
1.68
3.48
6.72
12.43
21.22
32.59
44.96
56.24
64.56
68.80
68.59
64.46
56.78
46.91
37.23
30.97
31.21
39.29
53.51
67.19
76.37
76.03
64.61
44.09
18.47
-8.32
-33.99
-58.05
-80.67
-100.81
-116.54
-124.84
-123.39
-111.92
-92.56
-69.07
-45.27
-23.64
-4.48
12.93
29.89
47.00
63.69
78.51
89.96
97.27
100.81
101.95
101.94
101.62
100.87
98.79
94.26
86.57
75.85
63.10
49.72
36.74
24.59
12.92
1.00
-11.77
-25.44
-39.54
-53.15
-65.32
-75.33
-82.66
-87.04
-88.37
-86.82
-82.86
-77.17
-70.54
-63.65
-56.97
-50.79
-45.40
-41.20
-38.67
-38.19
-39.78
-42.97
-46.82
-50.25
-52.44
-53.05
-52.37
-51.16
-50.36
-50.80
-52.86
-56.38
-60.71
-64.88
-67.95
-69.26
-68.70
-66.71
-64.05
-61.55
-59.76
-58.81
-58.44
-58.28
-58.06
-57.85
-58.00
-59.00
-61.15
-64.35
-68.04
-71.18
-72.32
-69.68
-61.32
-45.70
-22.34
7.60
41.13
74.06
102.15
122.32
133.51
136.59
133.68
127.13
118.77
109.72
100.68
92.20
84.91
79.30
75.48
73.01
71.06
68.73
65.47
61.33
56.85
52.74
49.51
47.12
45.03
42.50
38.92
34.19
28.69
23.09
17.97
13.51
9.42
5.17
0.30
-5.27
-11.10
-16.36
-20.02
-21.17
-19.31
-14.43
-7.08
1.82
11.16
19.96
27.51
33.50
38.04
41.52
44.40
46.88
48.63
48.65
45.53
37.98
25.50
8.83
-10.09
-28.76
-44.96
-57.50
-66.46
-72.90
-78.23
-83.68
-90.01
-97.44
-105.67
-113.86
-120.57
-124.06
-122.82
-116.32
-105.51
-92.74
-81.08
-73.14
-70.02
-70.84
-73.00
-73.03
-67.74
-55.15
-35.03
-8.91
20.35
49.34
74.96
95.21
109.47
118.34
123.05
124.87
124.64
122.69
119.07
113.80
107.06
99.21
90.82
82.55
75.25
69.79
66.76
66.20
67.32
68.76
69.03
67.22
63.36
58.25
52.94
48.06
43.39
38.00
30.75
20.92
8.54
-5.58
-20.27
-34.48
-47.53
-59.18
-69.38
-78.04
-84.91
-89.69
-92.25
-92.81
-91.94
-90.37
-88.73
-87.38
-86.33
-85.32
-83.99
-82.05
-79.23
-75.40
-70.52
-64.74
-58.40
-52.03
-46.15
-41.09
-36.86
-33.18
-29.66
-26.02
-22.31
-18.84
-16.07
-14.45
-14.20
-15.31
-17.51
-20.31
-23.07
-25.06
-25.55
-23.99
-20.22
-14.47
-7.41
0.09
7.12
12.91
16.96
18.98
18.86
16.68
12.64
7.16
0.80
-5.81
-12.11
-17.73
-22.62
-27.03
-31.43
-36.37
-42.29
-49.30
-57.09
-65.01
-72.22
-77.99
-81.95
-84.18
-85.26
-86.06
-87.60
-90.72
-95.90
-102.88
-110.65
-117.42
-121.09
-119.87
-112.83
-100.26
-83.50
-64.49
-45.19
-27.10
-11.17
2.07
12.43
19.99
25.26
29.29
33.58
39.70
48.73
60.71
74.51
88.07
99.03
105.57
106.97
103.78
97.55
90.20
83.40
78.11
74.48
72.01
69.91
67.31
63.46
57.80
50.13
40.74
30.51
20.85
13.40
9.49
9.68
13.59
19.99
27.36
34.30
39.97
44.04
46.51
47.43
46.78
44.60
41.09
36.80
32.51
29.02
26.80
25.86
25.72
25.66
25.03
23.50
21.18
18.48
15.85
13.55
11.59
9.71
7.62
5.07
1.93
-1.88
-6.43
-11.77
-17.74
-23.86
-29.19
-32.59
-33.04
-30.03
-23.83
-15.39
-6.00
3.08
10.94
17.07
21.21
23.29
23.31
21.49
18.36
14.75
11.62
9.77
9.56
10.82
13.03
15.59
18.09
20.43
22.69
24.97
27.14
28.89
29.80
29.62
28.41
26.57
24.68
23.23
22.39
21.89
21.18
19.62
16.81
12.77
8.02
3.47
0.11
-1.23
-0.15
3.23
8.33
14.26
20.08
24.99
28.51
30.51
31.16
30.85
30.01
28.96
27.91
26.92
26.01
25.25
24.76
24.67
24.98
25.45
25.75
25.51
24.52
22.84
20.73
18.50
16.39
14.45
12.60
10.69
8.59
6.27
3.70
0.84
-2.36
-5.83
-9.34
-12.31
-14.00
-13.67
-10.90
-5.89
0.51
7.08
12.59
16.23
17.81
17.67
16.37
14.39
11.94
8.99
5.47
1.48
-2.65
-6.43
-9.50
-11.70
-13.17
-14.21
-15.06
-15.82
-16.39
-16.54
-16.08
-14.97
-13.36
-11.50
-9.64
-7.93
-6.38
-4.95
-3.63
-2.53
-1.89
-1.80
-2.12
-2.30
-1.58
0.71
4.79
10.27
16.28
21.84
26.26
29.29
31.01
31.63
31.25
29.91
27.77
25.21
22.90
21.50
21.41
22.56
24.57
26.94
29.35
31.73
34.15
36.56
38.71
40.16
40.55
39.76
38.02
35.75
33.31
30.80
27.98
24.38
19.58
13.39
6.05
-1.82
-9.38
-15.87
-20.76
-23.99
-25.87
-26.93
-27.68
-28.41
-29.12
-29.68
-29.98
-30.12
-30.41
-31.22
-32.83
-35.19
-37.91
-40.45
-42.31
-43.23
-43.27
-42.80
-42.26
-42.05
-42.34
-43.08
-44.05
-44.95
-45.51
-45.53
-44.95
-43.87
-42.55
-41.41
-40.96
-41.67
-43.75
-46.93
-50.38
-52.81
-52.80
-49.38
-42.33
-32.42
-21.10
-9.97
-0.24
7.58
13.67
18.59
22.86
26.71
30.12
32.96
35.18
36.90
38.26
39.36
40.11
40.28
39.68
38.27
36.24
33.94
31.76
29.92
28.44
27.16
25.86
24.37
22.62
20.71
18.85
17.27
16.05
15.07
14.09
12.85
11.25
9.44
7.81
6.85
6.93
8.03
9.71
11.27
12.08
11.80
10.54
8.63
6.63
4.86
3.34
1.76
-0.18
-2.60
-5.34
-8.05
-10.40
-11.91
-12.38
-11.97
-11.21
-10.66
-10.72
-11.68
-13.87
-17.62
-22.33
-27.03
-30.74
-32.97
-33.78
-33.76
-33.78
-34.69
-36.74
-38.33
-37.29
-32.16
-22.90
-10.62
3.27
17.65
31.89
45.74
60.44
77.09
95.57
114.55
132.40
148.16
161.83
173.97
175.75
161.27
130.72
90.85
50.24
14.63
-13.94
-35.72
-51.87
-63.38
-71.02
-74.81
-75.08
-73.02
-70.10
-67.49
-65.84
-65.56
-66.06
-65.99
-64.08
-59.96
-54.36
-48.45
-43.18
-38.87
-35.41
-32.42
-28.93
-24.07
-17.72
-10.63
-3.91
1.57
5.38
7.59
8.53
8.92
9.53
10.78
12.51
14.16
15.00
14.40
12.00
7.91
2.70
-2.69
-7.43
-11.04
-13.50
-15.13
-16.29
-17.27
-18.16
-19.00
-19.80
-20.72
-21.99
-23.80
-26.22
-29.11
-32.13
-34.92
-37.09
-38.31
-38.33
-36.95
-34.24
-30.66
-27.14
-24.92
-24.98
-27.46
-31.27
-34.26
-34.03
-28.95
-18.95
-5.56
8.85
22.08
32.88
41.13
47.30
51.83
54.66
55.43
53.91
50.48
46.15
42.15
39.42
38.14
37.73
37.17
35.38
31.64
25.68
17.66
8.08
-2.32
-12.67
-22.07
-29.74
-35.19
-38.30
-39.28
-38.57
-36.67
-34.03
-31.02
-28.00
-25.32
-23.30
-22.21
-22.11
-22.89
-24.30
-26.04
-27.87
-29.53
-30.77
-31.27
-30.71
-28.83
-25.56
-21.04
-15.69
-10.03
-4.64
-0.02
3.52
5.95
7.50
8.66
10.01
12.00
14.80
18.37
22.63
27.62
33.61
40.93
49.58
58.96
67.82
74.55
77.78
76.89
72.30
65.29
57.44
50.27
44.80
41.69
41.29
43.80
49.22
57.12
66.52
75.95
83.86
89.02
90.78
89.01
83.77
75.03
62.69
46.88
28.44
9.11
-8.91
-23.73
-34.72
-42.94
-50.79
-61.04
-75.72
-95.36
-119.05
-144.94
-170.90
-194.95
-215.19
-229.65
-236.36
-233.72
-221.20
-199.79
-171.90
-140.75
-109.35
-79.71
-52.58
-27.65
-4.24
18.18
39.61
59.50
76.96
90.96
100.71
105.88
106.77
104.28
99.68
94.19
88.70
83.62
78.94
74.53
70.26
66.16
62.27
58.53
54.75
50.69
46.28
41.81
37.86
35.13
34.07
34.63
36.20
37.71
37.96
35.99
31.38
24.30
15.37
5.45
-4.64
-14.33
-23.33
-31.56
-39.00
-45.58
-51.20
-55.72
-59.14
-61.66
-63.63
-65.46
-67.41
-69.39
-71.00
-71.63
-70.76
-68.22
-64.32
-59.81
-55.70
-52.91
-52.01
-53.06
-55.68
-59.24
-63.18
-67.21
-71.33
-75.75
-80.67
-86.07
-91.56
-96.36
-99.43
-99.77
-96.69
-90.09
-80.52
-69.04
-56.90
-45.30
-35.07
-26.67
-20.21
-15.58
-12.53
-10.65
-9.44
-8.28
-6.59
-3.99
-0.40
3.95
8.65
13.23
17.41
21.09
24.39
27.44
30.32
32.97
35.24
37.08
38.62
40.24
42.37
45.38
49.37
54.05
58.81
62.75
64.72
63.46
57.90
47.57
33.07
16.29
0.19
-11.84
-17.13
-14.54
-4.97
8.97
23.86
36.58
45.20
49.15
49.02
45.87
40.74
34.42
27.53
20.74
14.86
10.72
8.78
8.94
10.44
12.17
13.14
12.91
11.63
9.91
8.41
7.44
6.90
6.38
5.45
3.88
1.81
-0.41
-2.41
-4.00
-5.30
-6.70
-8.66
-11.52
-15.23
-19.32
-22.93
-25.07
-25.00
-22.47
-17.83
-11.92
-5.73
-0.10
4.44
7.71
9.74
10.68
10.70
10.04
9.06
8.18
7.74
7.92
8.63
9.63
10.62
11.42
12.00
12.44
12.87
13.34
13.79
14.05
13.86
13.03
11.50
9.38
6.97
4.64
2.75
1.51
0.87
0.53
-0.01
-1.26
-3.55
-6.77
-10.36
-13.34
-14.61
-13.29
-9.10
-2.47
5.48
13.34
19.81
24.13
26.16
26.35
25.43
24.10
22.80
21.72
20.90
20.40
20.35
20.88
22.01
23.58
25.20
26.46
27.05
26.93
26.33
25.59
24.97
24.47
23.89
22.88
21.12
18.52
15.29
11.86
8.75
6.27
4.48
3.30
2.37
1.20
-0.76
-3.76
-7.69
-11.93
-15.58
-17.69
-17.28
-14.02
-8.39
-1.49
5.43
11.35
15.87
18.88
20.42
21.04
21.09
20.56
19.37
17.75
16.16
15.50
16.42
19.10
23.93
30.59
37.89
44.14
47.85
48.10
45.20
40.05
29.55
13.13
-7.05
-27.24
-44.60
-57.04
-65.82
-71.73
-75.09
-76.26
-75.21
-72.32
-68.60
-65.33
-63.52
-63.72
-65.48
-67.86
-69.65
-69.06
-64.85
-56.87
-46.09
-34.06
-22.53
-12.53
-4.58
1.24
5.50
8.76
11.34
13.45
15.45
17.77
20.99
25.29
30.35
35.65
40.49
44.17
46.22
46.56
45.39
43.28
40.76
38.19
35.65
32.87
29.41
24.94
19.57
13.90
8.83
5.10
2.96
2.02
1.35
-0.18
-3.54
-9.10
-16.45
-24.32
-30.80
-33.84
-31.82
-24.00
-10.72
6.70
26.15
45.00
60.34
69.50
70.62
63.38
49.29
31.38
13.27
-1.99
-12.86
-19.41
-22.77
-24.33
-24.98
-24.98
-24.22
-22.62
-20.45
-18.27
-16.72
-16.19
-16.70
-17.89
-19.26
-20.42
-21.25
-21.94
-22.78
-23.99
-25.57
-27.34
-29.03
-30.37
-31.11
-30.93
-29.43
-26.22
-21.11
-14.28
-6.35
1.82
9.30
15.46
19.95
22.74
23.97
23.81
22.55
20.57
18.37
16.52
15.44
15.30
15.94
17.00
18.04
18.70
18.78
18.20
16.93
15.02
12.47
9.41
5.97
2.37
-1.17
-4.51
-7.60
-10.53
-13.48
-16.72
-20.46
-24.73
-29.29
-33.53
-36.63
-37.78
-36.44
-32.60
-26.74
-19.79
-12.79
-6.61
-1.84
1.30
2.89
3.15
2.43
1.12
-0.40
-1.75
-2.61
-2.76
-2.11
-0.68
1.32
3.64
5.91
7.79
9.01
9.42
9.07
8.16
6.94
5.61
4.25
2.84
1.28
-0.48
-2.49
-4.76
-7.27
-9.97
-12.62
-14.80
-15.92
-15.33
-12.67
-7.98
-1.80
4.96
11.34
16.60
20.34
22.58
23.57
23.61
22.96
21.79
20.28
18.65
17.23
16.34
16.22
16.85
17.92
18.94
19.41
19.07
17.90
16.20
14.33
12.55
10.96
9.44
7.79
5.87
3.60
1.02
-1.84
-4.93
-8.15
-11.20
-13.58
-14.61
-13.69
-10.60
-5.57
0.62
6.99
12.59
16.82
19.46
20.67
20.75
20.06
18.93
17.67
16.59
15.96
15.93
16.43
17.18
17.77
17.83
17.15
15.84
14.17
12.49
11.01
9.71
8.41
6.90
5.09
3.04
0.95
-0.99
-2.67
-4.12
-5.47
-6.94
-8.76
-11.06
-13.83
-16.73
-19.11
-20.19
-19.30
-16.16
-11.07
-4.84
1.49
6.97
11.06
13.66
15.03
15.54
15.51
15.11
14.47
13.74
13.14
12.95
13.34
14.26
15.42
16.43
16.92
16.75
16.02
14.98
13.86
12.72
11.46
9.90
7.95
5.69
3.40
1.46
0.16
-0.39
-0.36
-0.07
0.02
-0.45
-1.72
-3.76
-6.27
-8.72
-10.43
-10.80
-9.44
-6.36
-1.99
2.94
7.57
11.21
13.48
14.43
14.37
13.76
12.97
12.21
11.47
10.67
9.78
8.90
8.25
8.00
8.15
8.44
8.47
7.84
6.37
4.18
1.59
-1.07
-3.65
-6.23
-9.05
-12.38
-16.37
-21.00
-26.07
-31.31
-36.36
-40.82
-44.26
-46.23
-46.39
-44.64
-41.25
-36.87
-32.39
-28.62
-26.00
-24.43
-23.30
-21.79
-19.24
-15.46
-10.77
-5.84
-1.39
2.17
4.75
6.51
7.67
8.39
8.70
8.68
8.43
8.20
8.26
8.77
9.73
10.94
12.07
12.79
12.91
12.39
11.32
9.87
8.20
6.43
4.61
2.72
0.74
-1.33
-3.45
-5.56
-7.53
-9.30
-10.89
-12.44
-14.19
-16.31
-18.80
-21.35
-23.39
-24.26
-23.46
-20.85
-16.74
-11.73
-6.57
-1.84
2.11
5.22
7.58
9.31
10.48
11.15
11.37
11.32
11.26
11.41
11.91
12.69
13.51
14.07
14.19
13.82
13.09
12.16
11.14
10.07
8.87
7.52
6.01
4.42
2.88
1.47
0.24
-0.83
-1.82
-2.84
-4.08
-5.63
-7.54
-9.61
-11.43
-12.50
-12.37
-10.85
-8.11
-4.62
-1.01
2.15
4.52
5.95
6.52
6.36
5.64
4.56
3.35
2.27
1.57
1.42
1.86
2.77
3.89
4.90
5.57
5.78
5.60
5.18
4.69
4.20
3.63
2.86
1.74
0.28
-1.36
-2.92
-4.17
-5.00
-5.43
-5.65
-5.87
-6.33
-7.15
-8.34
-9.73
-10.98
-11.67
-11.38
-9.88
-7.26
-3.92
-0.47
2.53
4.68
5.88
6.25
6.02
5.40
4.57
3.68
2.87
2.30
2.10
2.30
2.81
3.45
4.03
4.40
4.48
4.31
3.97
3.57
3.14
2.67
2.06
1.26
0.25
-0.84
-1.85
-2.59
-3.00
-3.12
-3.15
-3.30
-3.83
-4.85
-6.33
-8.03
-9.51
-10.24
-9.79
-8.04
-5.24
-1.96
1.13
3.54
5.07
5.82
6.00
5.80
5.31
4.56
3.63
2.71
2.04
1.83
2.13
2.80
3.60
4.28
4.68
4.77
4.63
4.36
4.04
3.64
3.07
2.26
1.17
-0.07
-1.28
-2.24
-2.85
-3.12
-3.22
-3.40
-3.87
-4.79
-6.15
-7.84
-9.53
-10.80
-11.25
-10.58
-8.79
-6.15
-3.12
-0.21
2.21
3.97
5.03
5.47
5.33
4.67
3.58
2.21
0.80
-0.36
-1.05
-1.16
-0.70
0.19
1.25
2.24
2.93
3.21
3.05
2.50
1.62
0.52
-0.70
-1.91
-3.00
-3.91
-4.63
-5.23
-5.84
-6.64
-7.71
-9.05
-10.44
-11.49
-11.75
-10.87
-8.79
-5.77
-2.40
0.70
3.03
4.39
4.86
4.71
4.21
3.54
2.75
1.85
0.88
-0.08
-0.90
-1.41
-1.53
-1.27
-0.71
-0.07
0.44
0.60
0.29
-0.48
-1.61
-2.96
-4.40
-5.87
-7.36
-8.88
-10.45
-12.03
-13.65
-15.32
-17.08
-18.89
-20.52
-21.56
-21.53
-20.03
-16.97
-12.63
-7.56
-2.44
2.18
5.95
8.79
10.77
12.03
12.73
13.03
13.11
13.14
13.28
13.59
14.05
14.57
15.00
15.22
15.13
14.71
13.98
12.98
11.75
10.33
8.78
7.10
5.37
3.64
2.00
0.51
-0.78
-1.89
-2.90
-3.95
-5.18
-6.72
-8.49
-10.26
-11.57
-11.90
-10.88
-8.44
-4.94
-1.01
2.63
5.46
7.25
8.06
8.11
7.63
6.80
5.79
4.80
4.07
3.82
4.12
4.84
5.71
6.43
6.81
6.83
6.60
6.28
5.92
5.51
4.99
4.32
3.48
2.53
1.48
0.39
-0.73
-1.79
-2.74
-3.59
-4.41
-5.42
-6.81
-8.66
-10.75
-12.57
-13.49
-12.96
-10.81
-7.30
-3.08
1.04
4.43
6.75
8.00
8.36
8.10
7.43
6.53
5.60
4.86
4.52
4.65
5.20
5.94
6.61
7.01
7.09
6.90
6.56
6.12
5.58
4.87
3.91
2.70
1.34
-0.01
-1.18
-2.08
-2.75
-3.28
-3.81
-4.44
-5.25
-6.27
-7.49
-8.80
-9.91
-10.43
-9.93
-8.16
-5.15
-1.32
2.69
6.17
8.61
9.82
9.90
9.17
7.98
6.66
5.43
4.41
3.65
3.18
3.02
3.15
3.52
4.02
4.47
4.72
4.65
4.27
3.65
2.89
2.03
1.08
0.02
-1.14
-2.33
-3.45
-4.47
-5.43
-6.46
-7.70
-9.15
-10.63
-11.79
-12.22
-11.59
-9.76
-6.89
-3.39
0.23
3.45
5.89
7.35
7.86
7.55
6.65
5.39
4.01
2.70
1.62
0.90
0.63
0.80
1.35
2.10
2.85
3.37
3.55
3.36
2.87
2.21
1.47
0.66
-0.29
-1.43
-2.75
-4.16
-5.54
-6.82
-8.02
-9.17
-10.24
-11.04
-11.18
-10.31
-8.24
-5.09
-1.37
2.29
5.31
7.35
8.37
8.58
8.20
7.42
6.35
5.07
3.73
2.53
1.72
1.46
1.78
2.53
3.42
4.14
4.47
4.34
3.78
2.93
1.90
0.78
-0.39
-1.59
-2.78
-3.92
-4.96
-5.94
-6.94
-8.03
-9.22
-10.32
-11.00
-10.85
-9.61
-7.25
-4.08
-0.61
2.58
5.07
6.62
7.25
7.12
6.44
5.44
4.27
3.08
2.01
1.21
0.83
0.94
1.52
2.41
3.40
4.25
4.78
4.88
4.54
3.82
2.80
1.56
0.18
-1.23
-2.58
-3.74
-4.66
-5.39
-6.06
-6.88
-8.01
-9.45
-10.95
-12.04
-12.21
-11.07
-8.58
-5.05
-1.08
2.69
5.73
7.75
8.74
8.82
8.23
7.20
5.93
4.62
3.50
2.77
2.57
2.91
3.66
4.55
5.28
5.61
5.47
4.96
4.29
3.60
2.96
2.29
1.48
0.48
-0.70
-1.95
-3.13
-4.09
-4.78
-5.19
-5.38
-5.44
-5.51
-5.72
-6.23
-7.09
-8.28
-9.56
-10.55
-10.79
-9.93
-7.86
-4.84
-1.42
1.75
4.14
5.54
6.00
5.76
5.11
4.24
3.24
2.21
1.31
0.71
0.60
1.03
1.88
2.91
3.84
4.48
4.77
4.78
4.58
4.23
3.68
2.86
1.75
0.47
-0.78
-1.79
-2.42
-2.70
-2.80
-2.96
-3.41
-4.32
-5.73
-7.50
-9.29
-10.56
-10.80
-9.61
-6.96
-3.21
0.97
4.81
7.69
9.31
9.72
9.17
7.99
6.48
4.86
3.31
1.98
1.05
0.66
0.83
1.46
2.33
3.15
3.67
3.76
3.40
2.71
1.79
0.76
-0.31
-1.36
-2.30
-3.08
-3.63
-3.96
-4.09
-4.14
-4.22
-4.49
-5.07
-6.01
-7.21
-8.33
-8.95
-8.62
-7.11
-4.53
-1.32
1.91
4.59
6.39
7.23
7.29
6.76
5.87
4.72
3.44
2.16
1.03
0.21
-0.19
-0.14
0.28
0.94
1.66
2.27
2.61
2.58
2.15
1.39
0.40
-0.66
-1.65
-2.49
-3.14
-3.64
-4.06
-4.57
-5.32
-6.43
-7.90
-9.53
-10.95
-11.69
-11.36
-9.79
-7.13
-3.77
-0.30
2.75
5.00
6.31
6.75
6.51
5.82
4.85
3.75
2.63
1.64
0.94
0.64
0.81
1.36
2.12
2.85
3.35
3.51
3.28
2.74
1.98
1.13
0.31
-0.43
-1.08
-1.72
-2.47
-3.47
-4.78
-6.37
-8.05
-9.55
-10.49
-10.57
-9.57
-7.49
-4.57
-1.22
2.05
4.78
6.66
7.58
7.61
6.92
5.73
4.28
2.83
1.61
0.82
0.57
0.84
1.52
2.40
3.26
3.90
4.22
4.16
3.77
3.13
2.29
1.34
0.31
-0.78
-1.90
-3.03
-4.13
-5.24
-6.40
-7.71
-9.19
-10.75
-12.13
-12.93
-12.76
-11.37
-8.79
-5.36
-1.64
1.76
4.33
5.84
6.32
6.02
5.27
4.35
3.45
2.70
2.16
1.89
1.94
2.32
2.93
3.62
4.20
4.54
4.58
4.35
3.89
3.22
2.37
1.38
0.35
-0.62
-1.44
-2.11
-2.73
-3.46
-4.48
-5.90
-7.72
-9.71
-11.49
-12.54
-12.38
-10.77
-7.82
-4.01
-0.06
3.36
5.82
7.22
7.75
7.68
7.22
6.47
5.48
4.34
3.24
2.42
2.11
2.35
3.05
3.95
4.77
5.28
5.40
5.11
4.49
3.59
2.50
1.29
0.07
-1.06
-2.04
-2.89
-3.70
-4.62
-5.73
-7.01
-8.27
-9.17
-9.37
-8.57
-6.71
-3.94
-0.64
2.72
5.74
8.09
9.63
10.33
10.22
9.43
8.09
6.45
4.79
3.41
2.55
2.32
2.71
3.55
4.57
5.48
6.03
6.03
5.44
4.35
2.94
1.45
0.05
-1.13
-2.10
-2.92
-3.75
-4.69
-5.85
-7.26
-8.86
-10.51
-11.89
-12.66
-12.45
-11.08
-8.62
-5.42
-1.98
1.19
3.77
5.65
6.85
7.43
7.38
6.70
5.46
3.87
2.26
0.99
0.31
0.25
0.65
1.26
1.84
2.25
2.45
2.40
2.06
1.40
0.42
-0.82
-2.19
-3.56
-4.83
-6.00
-7.15
-8.38
-9.71
-11.02
-11.99
-12.23
-11.38
-9.31
-6.20
-2.48
1.29
4.56
7.01
8.54
9.21
9.19
8.59
7.50
6.02
4.35
2.80
1.72
1.35
1.72
2.62
3.63
4.34
4.49
4.05
3.20
2.23
1.34
0.59
-0.12
-0.90
-1.84
-2.96
-4.22
-5.63
-7.19
-8.88
-10.54
-11.81
-12.25
-11.42
-9.19
-5.79
-1.79
2.09
5.22
7.26
8.20
8.28
7.77
6.90
5.85
4.73
3.70
2.95
2.63
2.76
3.26
3.91
4.48
4.80
4.83
4.60
4.18
3.60
2.82
1.77
0.40
-1.27
-3.08
-4.84
-6.36
-7.64
-8.80
-10.14
-11.85
-13.89
-15.88
-17.21
-17.26
-15.72
-12.75
-8.93
-5.06
-1.85
0.29
1.30
1.37
0.78
-0.27
-1.66
-3.26
-4.91
-6.32
-7.19
-7.27
-6.47
-4.90
-2.85
-0.65
1.39
3.12
4.53
5.73
6.84
7.92
8.87
9.52
9.66
9.17
8.10
6.60
4.87
3.04
1.18
-0.58
-2.03
-2.82
-2.55
-1.00
1.72
5.15
8.63
11.48
13.28
13.93
13.56
12.46
10.93
9.23
7.56
6.10
4.98
4.32
4.12
4.32
4.78
5.30
5.67
5.76
5.47
4.80
3.81
2.58
1.23
-0.13
-1.41
-2.51
-3.40
-4.08
-4.63
-5.19
-5.93
-6.99
-8.41
-10.03
-11.49
-12.32
-12.07
-10.50
-7.67
-3.98
-0.03
3.55
6.30
7.98
8.64
8.46
7.72
6.66
5.49
4.38
3.48
2.90
2.74
3.04
3.73
4.65
5.55
6.16
6.27
5.80
4.85
3.58
2.22
0.94
-0.16
-1.05
-1.78
-2.41
-3.04
-3.73
-4.58
-5.63
-6.87
-8.16
-9.16
-9.47
-8.69
-6.66
-3.57
0.07
3.56
6.33
8.08
8.87
8.94
8.55
7.83
6.75
5.31
3.63
1.99
0.76
0.23
0.46
1.27
2.30
3.14
3.55
3.47
3.02
2.40
1.76
1.12
0.41
-0.46
-1.50
-2.64
-3.77
-4.82
-5.85
-6.98
-8.29
-9.68
-10.78
-11.12
-10.25
-8.01
-4.64
-0.70
3.14
6.31
8.47
9.57
9.69
8.96
7.53
5.54
3.26
0.99
-0.92
-2.22
-2.79
-2.72
-2.20
-1.50
-0.84
-0.42
-0.37
-0.73
-1.42
-2.30
-3.17
-3.92
-4.52
-5.10
-5.83
-6.84
-8.13
-9.56
-10.82
-11.56
-11.42
-10.22
-7.94
-4.79
-1.16
2.45
5.56
7.83
9.06
9.24
8.53
7.14
5.33
3.41
1.65
0.37
-0.21
0.02
0.93
2.20
3.38
4.05
3.97
3.19
1.99
0.76
-0.17
-0.70
-0.95
-1.20
-1.76
-2.82
-4.45
-6.54
-8.80
-10.83
-12.17
-12.38
-11.22
-8.75
-5.32
-1.52
2.03
4.87
6.75
7.66
7.73
7.12
6.00
4.51
2.88
1.39
0.31
-0.13
0.14
0.99
2.14
3.23
3.93
4.05
3.60
2.71
1.59
0.40
-0.78
-1.96
-3.18
-4.48
-5.84
-7.20
-8.49
-9.57
-10.30
-10.47
-9.84
-8.28
-5.83
-2.77
0.45
3.32
5.46
6.68
7.00
6.59
5.66
4.38
2.91
1.42
0.13
-0.76
-1.11
-0.85
-0.11
0.83
1.63
2.04
1.98
1.54
0.88
0.07
-0.79
-1.65
-2.54
-3.48
-4.47
-5.50
-6.52
-7.44
-8.14
-8.18
-7.10
-4.61
-0.74
4.13
9.42
14.48
18.76
21.92
24.12
25.74
27.18
28.72
30.53
32.77
35.59
39.03
41.14
40.15
35.11
26.39
15.28
3.27
-8.22
-17.88
-24.70
-28.19
-28.28
-25.55
-20.99
-15.79
-10.91
-6.89
-3.84
-1.65
-0.28
0.59
1.21
1.81
2.50
3.30
4.20
5.18
6.18
7.12
8.06
9.09
10.26
11.57
12.92
14.22
15.33
16.06
16.50
16.64
16.43
15.83
14.76
13.17
11.08
8.65
6.12
3.74
1.69
-0.07
-1.80
-3.93
-6.90
-10.92
-15.86
-21.19
-26.12
-29.83
-31.65
-31.26
-28.76
-24.61
-19.48
-14.00
-8.68
-3.77
0.64
4.55
7.96
10.81
13.01
14.46
15.15
15.20
14.78
14.07
13.27
12.52
12.01
11.99
12.74
14.53
17.39
20.95
24.51
27.19
28.29
27.61
25.49
22.68
20.00
18.01
16.95
16.82
17.72
20.01
24.32
31.30
41.18
53.54
67.23
80.54
91.61
98.93
101.65
99.75
93.95
85.39
75.37
65.10
55.54
47.33
40.63
35.06
29.69
23.28
14.74
3.58
-9.80
-24.19
-37.99
-49.81
-58.88
-65.20
-69.27
-71.84
-73.57
-74.92
-76.19
-77.48
-78.80
-80.02
-80.96
-81.40
-81.26
-80.59
-79.60
-78.52
-77.45
-76.30
-74.81
-72.69
-69.73
-65.96
-61.57
-56.83
-52.01
-47.30
-42.78
-38.55
-34.62
-30.97
-27.49
-23.98
-20.24
-16.19
-11.91
-7.67
-3.80
-0.58
1.80
3.33
4.04
4.04
3.36
2.02
0.03
-2.63
-5.91
-9.73
-13.96
-18.44
-23.00
-27.52
-31.84
-35.76
-38.97
-40.95
-41.13
-39.03
-34.51
-27.86
-19.84
-11.40
-3.47
3.33
8.73
12.77
15.60
17.38
18.21
18.06
16.85
14.47
10.95
6.54
1.77
-2.56
-5.70
-7.12
-6.73
-4.82
-1.80
2.01
6.44
11.27
16.05
19.95
22.06
21.79
19.21
15.11
10.67
6.94
4.43
3.04
2.27
1.61
0.79
-0.13
-0.92
-1.40
-1.52
-1.42
-1.26
-1.20
-1.28
-1.42
-1.54
-1.56
-1.51
-1.44
-1.42
-1.47
-1.59
-1.84
-2.33
-3.19
-4.45
-5.94
-7.32
-8.22
-8.47
-8.25
-8.13
-8.89
-11.20
-15.37
-21.23
-28.19
-35.47
-42.31
-48.11
-52.51
-55.37
-56.74
-56.86
-56.15
-55.13
-54.35
-54.27
-55.09
-56.77
-59.04
-61.62
-64.33
-67.07
-69.69
-71.85
-72.93
-72.20
-69.05
-63.20
-54.77
-44.26
-32.33
-19.64
-6.85
5.40
16.51
26.06
33.94
40.45
46.13
51.55
56.98
62.23
66.82
70.24
72.21
72.80
72.30
71.03
69.20
66.84
63.95
60.56
56.83
52.93
48.90
44.62
39.83
34.34
28.24
22.05
16.69
13.16
12.23
14.15
18.51
24.38
30.64
36.32
40.77
43.72
45.20
45.29
44.17
42.11
39.59
37.21
35.59
35.07
35.53
36.41
36.91
36.32
34.38
31.29
27.58
23.84
20.42
17.38
14.51
11.58
8.45
5.05
1.40
-2.51
-6.64
-10.83
-14.72
-17.78
-19.44
-19.38
-17.71
-14.98
-12.00
-9.56
-8.12
-7.70
-7.98
-8.55
-9.13
-9.65
-10.15
-10.66
-11.08
-11.17
-10.69
-9.51
-7.75
-5.70
-3.78
-2.28
-1.28
-0.58
0.14
1.13
2.39
3.52
3.91
2.95
0.32
-3.85
-9.11
-14.80
-20.35
-25.22
-28.92
-30.90
-30.65
-27.86
-22.69
-15.84
-8.46
-1.75
3.38
6.51
7.78
7.67
6.79
5.73
5.03
5.16
6.42
8.94
12.52
16.70
20.79
24.17
26.38
27.32
27.15
26.17
24.69
22.90
20.88
18.68
16.43
14.29
12.40
10.75
9.19
7.55
5.87
4.62
4.55
6.38
10.41
16.23
22.87
29.13
34.07
37.21
38.47
37.94
35.64
31.59
25.99
19.36
12.55
6.52
2.03
-0.66
-1.74
-1.78
-1.38
-1.08
-1.16
-1.72
-2.65
-3.75
-4.83
-5.80
-6.74
-7.88
-9.52
-11.89
-15.10
-19.05
-23.35
-27.38
-30.40
-31.74
-30.97
-28.13
-23.73
-18.61
-13.65
-9.57
-6.70
-5.05
-4.40
-4.53
-5.27
-6.49
-8.06
-9.72
-11.16
-12.09
-12.38
-12.18
-11.85
-11.87
-12.59
-14.03
-15.88
-17.59
-18.63
-18.73
-17.92
-16.52
-14.97
-13.64
-12.83
-12.74
-13.44
-14.79
-16.44
-17.73
-17.87
-16.23
-12.58
-7.31
-1.27
4.50
9.15
12.29
13.95
14.49
14.27
13.59
12.59
11.38
10.11
9.01
8.36
8.39
9.21
10.69
12.53
14.32
15.65
16.29
16.20
15.60
14.77
13.99
13.31
12.64
11.73
10.32
8.23
5.31
1.54
-3.05
-8.17
-13.26
-17.47
-19.87
-19.80
-17.18
-12.58
-7.12
-2.02
1.75
3.72
3.83
2.25
-0.82
-5.10
-10.21
-15.48
-20.03
-22.96
-23.69
-22.18
-18.98
-15.05
-11.44
-8.96
-7.88
-7.94
-8.31
-8.01
-6.18
-2.45
2.95
9.21
15.19
19.78
22.17
22.01
19.46
15.11
9.79
4.47
0.05
-2.75
-3.49
-2.03
1.46
6.53
12.57
18.77
24.35
28.63
31.21
32.01
31.25
29.33
26.69
23.72
20.70
17.84
15.23
12.86
10.64
8.49
6.32
4.17
2.11
0.18
-1.74
-4.01
-7.06
-11.30
-16.81
-23.35
-30.28
-36.72
-41.83
-44.94
-45.75
-44.40
-41.45
-37.70
-33.95
-30.75
-28.26
-26.19
-24.08
-21.44
-18.03
-13.88
-9.21
-4.30
0.61
5.33
9.68
13.43
16.31
18.08
18.68
18.27
17.28
16.25
15.76
16.15
17.52
19.62
22.01
24.20
25.82
26.75
27.10
27.23
27.49
28.23
29.54
31.33
33.23
34.63
34.75
32.77
28.07
20.48
10.45
-0.91
-11.97
-20.87
-25.96
-26.02
-20.58
-9.97
4.65
21.39
37.91
51.81
61.16
65.03
63.71
58.56
51.52
44.39
38.29
33.43
29.32
25.20
20.54
15.26
9.65
4.11
-1.11
-5.99
-10.61
-14.98
-18.88
-21.95
-23.82
-24.32
-23.60
-22.07
-20.24
-18.64
-17.60
-17.28
-17.59
-18.24
-18.72
-18.45
-16.95
-13.93
-9.42
-3.69
2.92
10.10
17.53
24.85
31.53
36.85
40.12
40.90
39.23
35.68
31.20
26.80
23.26
20.84
19.26
17.89
16.05
13.30
9.62
5.39
1.25
-2.24
-4.71
-6.06
-6.39
-5.85
-4.61
-2.79
-0.63
1.51
3.33
4.71
5.98
7.76
10.79
15.42
21.38
27.75
33.24
36.72
37.56
35.80
32.01
26.92
21.19
15.29
9.54
4.26
-0.14
-3.24
-4.71
-4.45
-2.65
0.24
3.72
7.35
10.80
13.81
16.10
17.32
17.07
15.07
11.30
6.14
0.28
-5.48
-10.42
-14.05
-16.21
-17.00
-16.65
-15.42
-13.53
-11.13
-8.38
-5.45
-2.60
-0.10
1.81
3.06
3.76
4.15
4.48
4.88
5.30
5.47
5.00
3.51
0.77
-3.23
-8.27
-13.92
-19.70
-25.21
-30.25
-34.87
-39.29
-43.80
-48.63
-53.94
-59.81
-66.23
-73.18
-80.52
-88.09
-95.63
-102.89
-109.66
-115.81
-121.25
-125.86
-129.38
-131.44
-131.72
-130.12
-126.92
-122.75
-118.34
-114.23
-110.54
-107.03
-103.29
-99.14
-94.74
-90.61
-87.33
-85.14
-83.70
-82.05
-78.93
-73.09
-63.83
-51.17
-35.93
-19.48
-3.37
11.01
22.67
31.13
36.32
38.62
38.73
37.62
36.36
35.93
37.04
39.99
44.74
50.89
57.87
64.93
71.16
75.71
77.96
77.76
75.47
71.88
67.81
63.91
60.49
57.58
55.11
53.04
51.44
50.37
49.86
49.83
50.09
50.40
50.54
50.44
50.16
50.02
50.49
52.11
55.18
59.46
64.05
67.42
67.97
64.59
57.24
47.02
35.79
25.37
16.80
10.03
4.18
-1.68
-7.91
-14.05
-19.13
-22.36
-23.71
-23.93
-24.22
-25.59
-28.34
-31.99
-35.57
-38.19
-39.45
-39.63
-39.45
-39.75
-41.08
-43.52
-46.66
-49.76
-51.99
-52.66
-51.51
-48.74
-45.04
-41.44
-38.96
-38.30
-39.49
-41.79
-43.88
-44.33
-42.08
-36.93
-29.70
-21.90
-15.20
-10.75
-8.76
-8.42
-8.17
-6.22
-1.27
7.10
18.23
30.64
42.54
52.33
59.04
62.55
63.63
63.45
63.04
62.92
62.93
62.33
60.06
55.10
46.84
35.78
23.01
9.92
-2.00
-11.28
-16.69
-17.60
-14.34
-8.17
-0.22
8.07
15.28
20.63
24.55
28.53
34.22
42.52
53.15
66.05
80.21
93.76
104.66
111.62
114.59
114.37
112.12
108.96
107.36
108.75
112.80
117.75
121.89
124.41
125.33
125.00
112.99
84.81
44.09
0.59
-36.72
-63.53
-79.69
-87.45
-90.08
-90.04
-87.86
-83.30
-76.59
-68.76
-61.13
-54.70
-50.17
-48.71
-50.27
-52.40
-52.41
-49.00
-42.64
-34.78
-26.68
-18.93
-11.62
-4.52
3.20
11.72
20.13
26.82
29.63
27.68
21.35
12.03
1.75
-7.31
-13.86
-18.09
-21.24
-24.57
-28.56
-33.00
-37.31
-41.03
-43.88
-45.86
-47.29
-48.20
-47.92
-45.32
-39.75
-31.37
-21.46
-11.71
-3.57
1.78
4.04
4.27
4.40
6.19
10.74
17.69
25.69
32.91
37.12
36.81
32.36
25.89
19.95
16.64
16.40
18.40
25.11
36.80
50.25
60.72
65.32
62.46
55.27
46.88
39.41
33.10
28.44
22.94
13.20
-3.35
-27.11
-55.45
-84.08
-108.32
-124.98
-133.82
-137.07
-137.16
-135.56
-132.64
-128.08
-121.99
-115.08
-108.36
-102.89
-99.21
-96.57
-93.38
-88.27
-80.66
-71.20
-61.31
-52.46
-45.74
-41.52
-39.05
-36.97
-33.94
-29.17
-22.62
-14.86
-6.85
0.42
6.21
10.36
13.26
15.66
18.50
22.98
29.63
37.88
46.09
52.26
54.84
53.39
48.64
42.16
36.47
33.22
32.40
32.57
32.23
30.68
28.28
26.06
25.14
27.61
34.51
45.16
57.52
69.74
80.89
91.04
100.75
110.54
122.37
137.16
153.76
169.21
180.69
186.32
185.26
177.09
151.70
106.53
49.55
-5.20
-47.58
-74.62
-89.76
-97.96
-102.40
-104.97
-104.90
-101.55
-93.40
-81.26
-66.19
-49.11
-30.91
-13.04
2.34
14.28
21.96
24.56
21.36
13.03
1.44
-10.98
-22.17
-30.90
-36.10
-38.18
-39.49
-43.71
-53.57
-69.15
-87.34
-102.96
-110.93
-107.94
-94.13
-72.88
-49.19
-27.32
-9.51
3.94
13.66
20.22
23.96
25.07
23.97
21.43
18.57
16.39
15.50
16.03
17.55
19.44
21.19
22.53
23.38
23.79
23.70
23.04
21.71
19.64
16.74
12.97
8.52
3.95
0.18
-1.75
-1.06
2.32
7.56
13.01
16.91
18.36
17.78
16.49
15.93
16.92
19.28
21.93
23.35
22.48
19.48
15.76
13.17
12.97
15.31
19.15
22.57
23.26
19.31
10.23
-2.85
-17.74
-31.87
-42.51
-46.97
-41.77
-25.10
-0.08
25.50
43.45
48.99
42.03
26.55
8.93
-4.63
-10.77
-9.82
-4.84
0.24
2.43
0.71
-3.93
-9.22
-13.19
-15.39
-16.68
-17.80
-18.68
-18.50
-16.21
-11.53
-5.19
0.63
2.68
-1.65
-12.53
-27.28
-41.24
-49.64
-49.53
-40.22
-23.76
-4.20
13.87
27.09
33.85
34.29
30.23
23.60
17.29
13.94
15.09
20.30
27.50
32.94
31.99
20.53
-3.61
-37.80
-75.26
-106.65
-123.19
-119.14
-94.41
-54.82
-8.29
31.37
55.07
60.98
54.80
42.14
27.66
14.23
3.02
-5.62
-11.71
-14.16
-12.21
-6.28
1.86
10.45
18.07
24.38
30.13
36.22
43.77
52.58
60.93
66.02
65.55
58.66
46.23
30.55
14.45
0.96
-7.90
-11.60
-11.16
-8.35
-5.18
-3.29
-3.49
-5.73
-9.04
-12.22
-14.46
-15.66
-16.20
-16.68
-17.57
-18.95
-20.59
-22.01
-22.75
-22.49
-21.00
-18.11
-13.65
-7.65
-0.38
7.64
15.75
23.31
29.85
34.94
38.21
39.26
37.72
33.39
26.41
17.28
6.84
-3.94
-14.13
-23.00
-30.06
-35.09
-38.16
-39.52
-39.61
-38.97
-38.05
-37.17
-36.37
-35.44
-33.99
-31.54
-27.71
-22.30
-15.47
-7.72
0.10
7.01
12.09
14.78
15.01
13.16
9.91
6.06
2.31
-0.82
-2.95
-3.88
-3.57
-2.17
-0.01
2.50
4.99
7.21
9.01
10.35
11.15
11.29
10.58
8.92
6.32
3.05
-0.40
-3.36
-5.20
-5.49
-4.16
-1.62
1.45
4.28
6.29
7.30
7.46
7.20
7.06
7.62
9.29
12.24
16.13
20.08
22.84
23.21
20.59
15.41
9.00
3.23
-0.22
-0.38
2.73
8.23
14.77
20.92
25.54
28.00
28.24
26.81
24.65
22.85
22.29
23.34
25.77
28.79
31.34
32.51
31.90
29.89
27.54
26.22
26.98
30.09
34.80
39.57
42.67
42.69
39.03
32.09
23.16
14.07
6.66
2.27
1.23
2.85
5.68
8.03
8.66
7.06
3.48
-1.43
-7.02
-12.89
-18.91
-24.95
-30.69
-35.46
-38.38
-38.73
-36.33
-31.94
-27.23
-24.31
-24.98
-30.03
-38.85
-49.62
-60.01
-68.00
-72.44
-73.28
-71.14
-66.85
-61.03
-53.95
-45.74
-36.75
-27.72
-19.66
-13.41
-9.24
-6.56
-4.13
-0.58
5.01
12.73
21.92
31.55
40.60
48.34
54.38
58.53
60.64
60.66
58.69
55.09
50.42
45.26
39.98
34.64
29.06
22.96
16.20
8.92
1.54
-5.38
-11.35
-16.18
-20.02
-23.31
-26.54
-29.96
-33.40
-36.26
-37.74
-37.21
-34.49
-29.97
-24.37
-18.48
-12.81
-7.60
-2.97
0.80
3.17
3.48
1.24
-3.52
-10.16
-17.61
-24.78
-30.84
-35.41
-38.41
-39.84
-39.62
-37.62
-33.99
-29.31
-24.62
-21.13
-19.72
-20.57
-23.18
-26.55
-29.57
-31.38
-31.39
-29.22
-24.70
-17.91
-9.44
-0.46
7.34
12.19
12.67
8.20
-0.74
-12.56
-24.80
-34.55
-39.10
-36.74
-27.34
-12.45
5.15
22.35
36.63
46.58
51.91
53.02
50.66
45.73
39.32
32.76
27.39
24.16
23.24
23.87
24.69
24.28
21.66
16.57
9.23
0.02
-10.83
-23.25
-37.07
-51.68
-65.75
-77.43
-84.75
-86.29
-81.58
-71.30
-57.00
-40.54
-23.70
-7.88
5.95
17.24
25.94
32.55
38.16
44.17
51.74
61.10
71.20
79.89
84.69
83.72
76.54
64.32
49.42
34.53
21.77
12.11
5.27
0.06
-4.97
-10.93
-18.25
-26.60
-35.12
-42.71
-48.28
-51.00
-50.36
-46.45
-40.01
-32.48
-25.56
-20.61
-18.04
-17.07
-16.11
-13.61
-8.82
-2.16
5.03
11.27
15.58
17.77
18.22
17.40
15.50
12.43
8.11
2.83
-2.62
-7.25
-10.24
-11.41
-11.18
-10.35
-9.49
-8.56
-6.90
-3.57
1.98
9.46
17.64
24.81
29.46
30.93
29.50
26.24
22.38
18.88
16.14
14.02
11.99
9.29
5.08
-1.47
-10.89
-23.18
-37.51
-52.14
-64.67
-72.62
-74.15
-68.64
-56.98
-41.35
-24.67
-9.73
1.64
9.11
13.70
17.16
21.00
25.75
30.84
35.14
37.84
39.05
39.74
41.22
44.24
48.61
53.20
56.53
57.25
54.48
47.67
36.46
20.71
0.92
-21.38
-43.54
-62.27
-74.61
-78.90
-75.41
-66.19
-54.39
-43.14
-34.59
-29.43
-27.05
-26.12
-25.24
-23.36
-19.84
-14.34
-6.79
2.55
13.01
23.48
32.83
40.19
45.34
48.66
50.82
52.24
52.86
52.08
49.14
43.55
35.34
25.19
14.32
4.23
-3.57
-7.80
-7.81
-3.92
2.45
9.07
13.50
13.99
10.08
2.69
-6.25
-14.63
-20.81
-23.92
-23.75
-20.46
-14.37
-6.10
3.33
12.36
19.32
22.96
22.95
19.99
15.34
10.00
4.16
-2.74
-11.33
-21.47
-31.72
-39.66
-42.94
-40.44
-33.00
-23.28
-14.75
-10.39
-11.48
-17.23
-25.20
-32.35
-36.20
-35.58
-30.70
-22.51
-12.01
0.24
14.03
29.01
44.20
57.99
68.62
74.99
77.01
75.35
70.71
63.07
51.70
35.96
16.39
-4.85
-24.43
-39.16
-47.42
-49.75
-48.38
-46.02
-44.81
-45.73
-48.75
-53.41
-59.27
-66.12
-73.89
-82.40
-91.05
-98.42
-102.21
-99.55
-87.92
-66.40
-36.55
-2.33
31.04
58.94
78.80
90.50
95.52
95.61
91.78
84.21
73.04
59.13
44.46
31.64
22.98
19.57
20.95
25.40
30.59
34.51
36.09
35.48
33.79
32.45
32.50
34.04
36.29
38.09
38.62
37.86
36.62
35.94
36.46
37.96
39.52
40.06
39.01
36.62
33.68
30.87
28.13
24.53
18.65
9.24
-4.09
-20.65
-38.67
-55.78
-69.55
-78.08
-80.44
-76.79
-68.27
-56.57
-43.59
-31.07
-20.45
-12.69
-8.05
-5.92
-4.86
-3.02
1.15
8.12
16.97
25.79
32.55
36.09
36.54
34.99
32.72
30.40
27.81
24.14
18.62
11.13
2.30
-6.67
-14.59
-20.67
-24.81
-27.47
-29.45
-31.40
-33.48
-35.23
-35.81
-34.43
-30.94
-26.03
-21.08
-17.64
-16.75
-18.50
-22.01
-25.68
-27.87
-27.37
-23.81
-17.59
-9.65
-1.02
7.43
15.16
21.84
27.18
30.79
32.22
31.13
27.53
21.96
15.36
8.93
3.80
0.87
0.66
3.31
8.55
15.68
23.63
31.16
37.11
40.71
41.74
40.52
37.70
34.06
30.20
26.47
23.01
19.81
16.84
14.12
11.66
9.36
6.95
4.04
0.22
-4.69
-10.54
-16.85
-22.96
-28.12
-31.70
-33.13
-32.05
-28.33
-22.22
-14.33
-5.63
2.75
9.79
14.68
16.83
15.98
12.30
6.56
0.18
-5.10
-7.82
-7.41
-4.47
-0.47
3.00
4.97
5.45
5.22
5.14
5.60
6.24
6.28
5.02
2.34
-1.23
-4.68
-7.08
-7.91
-7.30
-5.90
-4.64
-4.39
-5.65
-8.48
-12.44
-16.79
-20.63
-23.26
-24.28
-23.63
-21.48
-18.12
-13.90
-9.24
-4.70
-0.92
1.49
2.22
1.42
-0.27
-1.96
-2.95
-2.97
-2.41
-2.16
-3.24
-6.43
-11.85
-18.72
-25.56
-30.56
-32.21
-29.95
-24.39
-17.11
-10.00
-4.47
-0.91
1.28
3.19
5.72
9.12
13.00
16.69
19.68
21.85
23.32
24.20
24.39
23.58
21.57
18.42
14.64
10.86
7.57
4.88
2.51
0.04
-2.86
-6.11
-9.22
-11.40
-11.80
-9.85
-5.50
0.66
7.62
14.35
20.10
24.67
28.14
30.67
32.12
32.12
30.41
27.24
23.49
20.40
18.98
19.46
21.13
22.75
23.21
22.06
19.72
17.18
15.55
15.59
17.54
21.22
26.11
31.58
36.89
41.51
45.24
48.49
52.16
57.39
65.00
75.01
86.55
98.11
108.11
115.41
119.53
120.60
119.05
115.44
110.53
105.30
100.99
98.83
99.59
103.24
108.96
115.42
121.09
124.46
123.93
117.75
104.32
82.84
54.03
20.52
-13.68
-44.40
-68.73
-85.87
-97.02
-104.44
-110.15
-115.16
-119.49
-122.77
-125.00
-126.79
-129.09
-132.50
-136.77
-140.89
-143.56
-143.83
-141.50
-137.11
-131.50
-125.44
-119.43
-113.81
-108.88
-105.05
-102.70
-101.97
-102.59
-103.90
-105.10
-105.44
-104.49
-102.18
-98.67
-94.22
-88.93
-82.72
-75.35
-66.68
-56.92
-46.90
-38.06
-32.12
-30.48
-33.69
-41.08
-50.84
-60.55
-67.81
-70.86
-68.85
-61.98
-51.31
-38.50
-25.44
-13.90
-5.15
0.29
2.71
3.01
2.20
1.04
-0.28
-2.19
-5.37
-10.26
-16.54
-22.95
-27.61
-28.73
-25.39
-17.92
-7.85
2.70
11.86
18.57
22.78
25.15
26.45
27.24
27.65
27.41
26.04
23.08
18.39
12.28
5.51
-1.08
-6.66
-10.48
-12.17
-11.82
-9.81
-6.65
-2.78
1.52
5.58
8.99
11.77
14.27
16.83
19.82
23.38
27.71
32.95
38.47
43.67
48.42
52.77
56.62
59.80
61.87
62.39
60.70
54.98
43.90
27.74
8.59
-10.32
-25.50
-34.67
-37.30
-29.51
-12.48
7.83
24.84
35.76
40.41
41.84
41.55
39.79
36.48
31.58
25.70
20.45
17.40
17.10
19.01
21.66
23.81
24.87
24.33
22.39
20.00
18.24
17.62
18.06
18.90
19.53
19.56
18.50
16.23
13.24
10.23
7.70
5.83
4.37
3.00
1.48
-0.45
-2.86
-5.49
-7.97
-10.04
-11.62
-12.82
-13.78
-14.68
-15.78
-17.36
-19.66
-22.74
-26.38
-30.08
-33.00
-34.17
-32.76
-28.48
-21.70
-13.40
-4.91
2.65
8.57
12.76
15.58
17.53
19.03
20.24
21.16
21.68
21.80
21.63
21.35
21.14
21.05
21.02
20.89
20.51
19.78
18.70
17.35
15.86
14.34
12.87
11.45
9.95
8.22
6.07
3.44
0.35
-3.03
-6.44
-9.63
-12.48
-15.00
-17.39
-19.95
-23.01
-26.80
-31.36
-36.40
-41.22
-44.84
-46.18
-44.43
-39.35
-31.45
-21.87
-12.06
-3.31
3.59
8.50
11.78
14.06
15.96
17.86
19.88
21.92
23.78
25.30
26.37
27.02
27.34
27.37
27.16
26.67
25.92
25.00
24.08
23.31
22.81
22.53
22.29
21.86
20.99
19.56
17.58
15.18
12.58
10.06
7.85
6.05
4.65
3.42
2.07
0.36
-1.80
-4.28
-6.83
-9.15
-11.07
-12.64
-14.12
-15.93
-18.49
-22.08
-26.68
-31.84
-36.73
-40.21
-41.13
-38.75
-32.98
-24.50
-14.58
-4.70
3.94
10.66
15.39
18.49
20.50
21.95
23.20
24.53
26.03
27.66
29.27
30.63
31.51
31.80
31.56
30.96
30.25
29.62
29.19
29.00
28.97
28.98
28.90
28.58
27.93
26.90
25.53
23.93
22.24
20.61
19.11
17.72
16.32
14.74
12.84
10.62
8.23
5.94
4.01
2.53
1.40
0.29
-1.15
-3.19
-5.86
-8.99
-12.25
-15.30
-17.90
-20.00
-21.76
-23.50
-25.63
-28.49
-32.19
-36.48
-40.68
-43.83
-44.92
-43.20
-38.51
-31.30
-22.53
-13.42
-5.09
1.64
6.48
9.51
11.21
12.14
12.79
13.45
14.18
14.87
15.40
15.73
15.92
16.02
16.00
15.73
15.06
13.98
12.70
11.55
10.80
10.54
10.55
10.41
9.71
8.23
6.01
3.32
0.56
-1.95
-4.04
-5.73
-7.17
-8.61
-10.27
-12.30
-14.66
-17.18
-19.58
-21.62
-23.20
-24.40
-25.53
-26.97
-29.09
-32.00
-35.41
-38.62
-40.62
-40.49
-37.62
-32.04
-24.43
-15.87
-7.56
-0.47
4.89
8.43
10.43
11.31
11.51
11.38
11.16
11.00
10.96
11.03
11.18
11.38
11.62
11.90
12.20
12.47
12.65
12.63
12.36
11.80
10.98
9.91
8.65
7.19
5.54
3.68
1.62
-0.55
-2.72
-4.74
-6.51
-8.02
-9.36
-10.70
-12.24
-14.15
-16.55
-19.45
-22.74
-26.09
-28.92
-30.52
-30.16
-27.43
-22.42
-15.74
-8.41
-1.47
4.32
8.62
11.50
13.27
14.28
14.83
15.16
15.48
15.95
16.67
17.60
18.59
19.43
19.94
20.05
19.85
19.47
19.06
18.69
18.36
18.02
17.61
17.11
16.51
15.75
14.76
13.45
11.81
9.93
8.00
6.23
4.76
3.51
2.27
0.75
-1.23
-3.66
-6.32
-8.87
-10.99
-12.49
-13.35
-13.70
-13.80
-14.02
-14.72
-16.28
-18.83
-22.19
-25.75
-28.56
-29.59
-28.02
-23.62
-16.77
-8.40
0.34
8.37
14.90
19.50
22.09
22.84
22.16
20.70
19.18
18.24
18.21
19.02
20.26
21.42
22.09
22.17
21.80
21.20
20.56
19.94
19.32
18.76
18.35
18.20
18.30
18.49
18.44
17.85
16.61
14.86
13.00
11.48
10.58
10.30
10.35
10.30
9.80
8.73
7.24
5.62
4.16
3.00
2.07
1.20
0.08
-1.57
-3.99
-7.23
-11.04
-14.82
-17.61
-18.40
-16.44
-11.60
-4.50
3.62
11.33
17.40
21.09
22.28
21.32
18.82
15.49
12.04
9.11
7.26
6.88
8.04
10.48
13.67
16.86
19.39
20.73
20.63
19.11
16.43
13.00
9.35
6.02
3.43
1.71
0.66
-0.17
-1.32
-3.15
-5.72
-8.81
-12.08
-15.26
-18.25
-21.14
-24.07
-27.15
-30.43
-33.92
-37.67
-41.63
-45.58
-49.00
-51.10
-51.10
-48.53
-43.52
-36.86
-29.70
-23.16
-17.91
-14.05
-11.17
-8.66
-6.01
-2.98
0.38
3.88
7.33
10.60
13.71
16.73
19.82
23.17
26.95
31.21
35.77
40.12
43.45
44.81
43.36
38.67
30.91
20.83
9.56
-1.71
-11.92
-20.44
-27.05
-31.91
-35.46
-38.25
-40.91
-44.11
-48.46
-54.42
-61.96
-70.33
-77.99
-82.88
-83.20
-78.11
-68.24
-55.48
-42.31
-30.72
-21.55
-14.40
-8.14
-1.76
5.15
12.26
18.95
24.70
29.47
33.48
36.95
39.73
41.26
40.79
37.81
32.28
24.75
16.14
7.52
-0.19
-6.31
-10.41
-12.31
-12.10
-10.15
-7.03
-3.42
-0.01
2.65
4.13
4.16
2.53
-0.79
-5.59
-11.28
-16.92
-21.33
-23.48
-22.70
-18.97
-12.89
-5.52
1.91
8.35
13.16
16.18
17.64
17.93
17.44
16.39
14.75
12.39
9.21
5.34
1.18
-2.62
-5.38
-6.63
-6.28
-4.65
-2.32
0.12
2.30
4.11
5.70
7.31
9.07
10.92
12.67
14.03
14.76
14.68
13.72
11.90
9.34
6.19
2.73
-0.78
-4.04
-6.88
-9.26
-11.27
-13.02
-14.54
-15.70
-16.19
-15.67
-13.89
-10.84
-6.82
-2.33
2.06
5.89
8.87
10.93
12.20
12.91
13.34
13.71
14.20
14.81
15.51
16.19
16.75
17.15
17.33
17.29
17.02
16.54
15.94
15.34
14.82
14.41
14.02
13.49
12.69
11.55
10.14
8.62
7.16
5.85
4.67
3.51
2.21
0.66
-1.13
-3.05
-4.92
-6.59
-8.01
-9.27
-10.56
-12.10
-14.07
-16.50
-19.21
-21.80
-23.68
-24.21
-22.90
-19.64
-14.77
-9.00
-3.24
1.72
5.43
7.81
9.10
9.65
9.74
9.58
9.25
8.82
8.39
8.10
8.09
8.42
9.06
9.83
10.50
10.83
10.69
10.12
9.27
8.35
7.53
6.90
6.40
5.88
5.15
4.02
2.42
0.40
-1.84
-4.06
-6.02
-7.57
-8.73
-9.69
-10.70
-12.05
-13.91
-16.27
-18.92
-21.41
-23.17
-23.65
-22.47
-19.58
-15.28
-10.19
-5.01
-0.37
3.36
6.07
7.91
9.14
10.04
10.81
11.63
12.57
13.63
14.75
15.77
16.53
16.91
16.90
16.63
16.27
16.00
15.87
15.82
15.68
15.31
14.65
13.72
12.62
11.45
10.23
8.98
7.68
6.33
4.99
3.70
2.48
1.34
0.23
-0.88
-2.05
-3.29
-4.55
-5.79
-6.97
-8.09
-9.26
-10.55
-12.01
-13.56
-15.07
-16.44
-17.72
-19.16
-21.08
-23.59
-26.41
-28.82
-29.89
-28.81
-25.34
-19.84
-13.20
-6.49
-0.63
3.88
6.97
8.89
10.05
10.84
11.54
12.31
13.18
14.07
14.86
15.38
15.51
15.21
14.54
13.68
12.79
12.03
11.51
11.28
11.31
11.52
11.77
11.83
11.49
10.64
9.34
7.78
6.20
4.79
3.57
2.45
1.26
-0.05
-1.40
-2.66
-3.70
-4.52
-5.28
-6.18
-7.36
-8.84
-10.47
-12.04
-13.40
-14.55
-15.64
-16.91
-18.55
-20.60
-22.85
-24.86
-26.02
-25.76
-23.68
-19.74
-14.31
-8.12
-2.02
3.24
7.22
9.85
11.38
12.15
12.49
12.61
12.64
12.69
12.87
13.27
13.87
14.57
15.15
15.40
15.20
14.62
13.80
12.98
12.32
11.89
11.65
11.52
11.36
11.07
10.56
9.77
8.66
7.26
5.66
4.00
2.44
1.05
-0.17
-1.33
-2.57
-4.01
-5.62
-7.29
-8.84
-10.09
-10.97
-11.54
-11.99
-12.62
-13.70
-15.46
-17.93
-20.87
-23.82
-26.13
-27.11
-26.24
-23.32
-18.60
-12.69
-6.39
-0.52
4.31
7.75
9.77
10.51
10.25
9.36
8.18
7.01
6.07
5.48
5.25
5.36
5.75
6.34
7.02
7.62
7.97
7.89
7.26
6.08
4.46
2.60
0.79
-0.71
-1.70
-2.10
-2.05
-1.80
-1.69
-1.98
-2.78
-4.05
-5.63
-7.37
-9.17
-11.05
-13.07
-15.31
-17.79
-20.37
-22.76
-24.47
-24.97
-23.76
-20.68
-15.92
-10.09
-4.02
1.48
5.86
8.90
10.75
11.73
12.18
12.45
12.75
13.23
13.96
14.93
16.09
17.35
18.62
19.79
20.76
21.41
21.60
21.29
20.50
19.37
18.10
16.90
15.88
15.03
14.18
13.01
11.00
7.40
1.50
-7.18
-18.45
-31.30
-44.02
-54.73
-62.02
-65.40
-65.40
-63.14
-59.70
-55.64
-50.90
-45.10
-38.02
-29.84
-21.17
-12.77
-5.32
0.72
4.93
6.84
5.96
2.11
-4.11
-11.14
-16.71
-18.60
-15.58
-7.98
2.35
12.76
20.81
25.06
25.43
22.98
19.34
16.02
14.08
13.93
15.45
18.22
21.68
25.27
28.47
30.86
32.11
32.05
30.71
28.37
25.46
22.45
19.67
17.19
14.86
12.42
9.65
6.48
3.05
-0.38
-3.49
-6.10
-8.20
-10.05
-12.07
-14.62
-17.81
-21.30
-24.38
-26.17
-25.93
-23.38
-18.79
-12.86
-6.50
-0.54
4.42
8.15
10.66
12.20
13.12
13.75
14.41
15.27
16.43
17.82
19.26
20.44
21.03
20.79
19.73
18.07
16.24
14.65
13.58
13.03
12.83
12.74
12.56
12.23
11.73
11.05
10.15
8.99
7.64
6.26
5.02
4.06
3.34
2.71
1.91
0.76
-0.81
-2.70
-4.66
-6.45
-7.89
-8.96
-9.80
-10.66
-11.81
-13.46
-15.73
-18.58
-21.82
-25.02
-27.56
-28.75
-28.00
-25.06
-20.22
-14.22
-8.05
-2.58
1.67
4.59
6.43
7.55
8.24
8.70
9.03
9.28
9.53
9.79
10.10
10.46
10.88
11.33
11.77
12.12
12.25
12.09
11.65
11.03
10.36
9.75
9.13
8.38
7.36
6.02
4.48
2.93
1.53
0.30
-0.85
-2.10
-3.55
-5.20
-6.92
-8.55
-10.02
-11.39
-12.83
-14.51
-16.58
-19.00
-21.59
-23.93
-25.50
-25.74
-24.25
-20.93
-16.07
-10.31
-4.47
0.74
4.83
7.72
9.57
10.69
11.36
11.76
11.99
12.15
12.40
12.91
13.77
14.94
16.16
17.11
17.53
17.36
16.81
16.22
15.92
16.03
16.49
17.02
17.30
17.08
16.27
14.92
13.23
11.46
9.85
8.54
7.49
6.56
5.49
4.09
2.31
0.25
-1.83
-3.63
-4.88
-5.42
-5.19
-4.28
-2.93
-1.56
-0.67
-0.68
-1.70
-3.31
-4.58
-4.36
-1.73
3.61
11.18
19.92
28.65
36.51
43.17
48.80
53.79
58.51
63.22
68.12
73.50
79.66
86.71
94.34
101.65
107.27
109.76
108.08
101.90
91.58
77.87
61.54
43.11
22.87
1.14
-21.52
-44.24
-66.01
-85.93
-103.42
-118.21
-130.24
-139.49
-145.93
-149.56
-150.54
-149.19
-145.98
-141.47
-136.12
-130.19
-123.63
-116.09
-107.04
-96.05
-83.11
-68.78
-54.24
-40.93
-30.21
-22.99
-19.50
-19.31
-21.51
-24.96
-28.52
-31.24
-32.38
-31.51
-28.39
-23.03
-15.61
-6.59
3.35
13.38
22.69
30.66
36.99
41.67
44.82
46.59
47.04
46.25
44.31
41.38
37.71
33.62
29.45
25.54
22.17
19.50
17.54
16.11
15.04
14.23
13.76
13.82
14.54
15.84
17.33
18.41
18.52
17.36
15.00
11.83
8.39
5.13
2.21
-0.47
-3.22
-6.36
-10.08
-14.33
-18.72
-22.62
-25.23
-25.87
-24.12
-20.08
-14.34
-7.84
-1.61
3.59
7.43
10.01
11.75
13.04
14.15
15.06
15.62
15.67
15.14
14.11
12.79
11.36
9.98
8.71
7.59
6.71
6.19
6.14
6.63
7.50
8.45
9.09
9.08
8.30
6.92
5.31
3.86
2.78
1.98
1.09
-0.40
-2.94
-6.67
-11.27
-16.00
-19.88
-22.03
-22.00
-19.90
-16.38
-12.36
-8.63
-5.61
-3.26
-1.22
0.96
3.61
6.73
10.05
13.09
15.37
16.55
16.55
15.55
13.89
11.91
9.91
8.07
6.53
5.38
4.68
4.35
4.15
3.71
2.75
1.18
-0.75
-2.54
-3.68
-3.92
-3.35
-2.42
-1.72
-1.75
-2.79
-4.83
-7.53
-10.35
-12.63
-13.80
-13.58
-12.10
-9.85
-7.51
-5.61
-4.28
-3.17
-1.66
0.80
4.41
8.88
13.53
17.58
20.47
22.02
22.45
22.23
21.80
21.41
20.99
20.32
19.19
17.59
15.72
13.97
12.62
11.79
11.34
11.02
10.64
10.14
9.60
9.17
8.97
8.97
9.06
9.01
8.60
7.59
5.76
2.92
-1.02
-5.98
-11.64
-17.37
-22.31
-25.63
-26.76
-25.66
-22.82
-19.10
-15.34
-12.06
-9.33
-6.77
-3.90
-0.36
3.95
8.82
13.82
18.45
22.17
24.54
25.29
24.47
22.44
19.81
17.22
15.17
13.89
13.38
13.49
14.08
14.99
16.02
16.85
17.11
16.50
14.91
12.52
9.74
6.97
4.47
2.26
0.14
-2.16
-4.86
-8.10
-11.84
-15.88
-19.81
-23.06
-24.97
-24.97
-22.83
-18.76
-13.39
-7.60
-2.23
2.17
5.36
7.39
8.43
8.63
8.15
7.21
6.17
5.43
5.35
6.03
7.25
8.55
9.43
9.54
8.88
7.74
6.55
5.70
5.30
5.18
4.98
4.31
2.95
0.98
-1.33
-3.57
-5.43
-6.81
-7.86
-8.86
-10.11
-11.85
-14.12
-16.78
-19.53
-21.87
-23.23
-23.08
-21.12
-17.45
-12.57
-7.26
-2.32
1.68
4.55
6.47
7.82
9.02
10.35
11.90
13.60
15.28
16.72
17.76
18.30
18.35
18.02
17.45
16.81
16.19
15.64
15.14
14.67
14.17
13.57
12.79
11.78
10.57
9.28
8.08
7.18
6.65
6.40
6.16
5.58
4.39
2.49
0.06
-2.56
-5.00
-7.00
-8.58
-10.02
-11.73
-14.01
-16.89
-19.99
-22.58
-23.84
-23.19
-20.57
-16.46
-11.76
-7.43
-4.21
-2.37
-1.74
-1.82
-2.01
-1.82
-0.94
0.70
3.00
5.76
8.70
11.49
13.78
15.28
15.77
15.23
13.91
12.22
10.70
9.80
9.75
10.50
11.68
12.77
13.21
12.63
10.85
7.97
4.32
0.43
-3.15
-5.90
-7.50
-7.94
-7.58
-7.08
-7.14
-8.24
-10.44
-13.33
-16.27
-18.67
-20.28
-21.23
-21.95
-22.87
-24.17
-25.76
-27.21
-27.99
-27.56
-25.57
-21.95
-16.92
-10.98
-4.79
0.98
5.83
9.51
12.03
13.55
14.29
14.42
14.03
13.19
12.01
10.64
9.34
8.32
7.76
7.62
7.68
7.54
6.81
5.29
3.11
0.69
-1.41
-2.76
-3.24
-3.05
-2.59
-2.18
-2.00
-2.05
-2.29
-2.75
-3.52
-4.67
-6.05
-7.37
-8.24
-8.43
-8.00
-7.27
-6.71
-6.76
-7.59
-9.15
-11.12
-13.04
-14.47
-15.04
-14.65
-13.41
-11.68
-9.86
-8.23
-6.84
-5.56
-4.25
-2.90
-1.66
-0.72
-0.21
-0.03
0.09
0.45
1.18
2.22
3.33
4.24
4.79
4.97
4.87
4.63
4.40
4.36
4.68
5.52
6.89
8.59
10.24
11.35
11.52
10.59
8.72
6.31
3.84
1.69
-0.01
-1.37
-2.71
-4.43
-6.92
-10.34
-14.50
-18.86
-22.64
-25.02
-25.50
-24.06
-21.12
-17.31
-13.22
-9.17
-5.27
-1.52
1.97
4.92
7.09
8.39
9.00
9.40
10.08
11.41
13.46
16.13
19.18
22.38
25.57
28.57
31.14
32.98
33.87
33.85
33.38
33.26
34.36
37.17
41.51
46.52
50.97
53.79
54.50
53.35
51.07
48.52
46.21
44.20
42.19
39.75
36.65
32.90
28.70
24.30
19.89
15.65
11.75
8.41
5.75
3.68
1.86
-0.25
-3.15
-7.16
-12.22
-17.94
-23.71
-28.94
-33.17
-36.09
-37.63
-37.92
-37.29
-36.26
-35.38
-35.05
-35.45
-36.44
-37.82
-39.46
-41.47
-44.14
-47.78
-52.41
-57.57
-62.42
-65.95
-67.35
-66.38
-63.45
-59.46
-55.52
-52.51
-50.81
-50.25
-50.20
-49.84
-48.45
-45.58
-41.21
-35.67
-29.56
-23.52
-18.02
-13.09
-8.17
-2.25
5.89
17.07
31.28
47.38
63.25
76.41
84.70
86.95
83.17
74.49
62.69
49.76
37.53
27.47
20.54
17.06
16.64
18.27
20.52
21.99
21.76
19.64
16.21
12.42
9.19
7.05
6.10
6.13
6.84
8.03
9.45
10.76
11.45
10.98
9.07
5.80
1.66
-2.80
-7.27
-11.86
-17.08
-23.43
-31.13
-39.78
-48.40
-55.68
-60.37
-61.73
-59.69
-54.90
-48.51
-41.77
-35.65
-30.60
-26.54
-23.04
-19.56
-15.76
-11.50
-6.89
-2.18
2.36
6.48
10.01
12.92
15.28
17.29
19.22
21.39
24.06
27.31
31.03
34.81
38.08
40.19
40.65
39.20
35.93
31.21
25.52
19.37
13.17
7.24
1.82
-2.87
-6.66
-9.51
-11.54
-13.03
-14.28
-15.44
-16.39
-16.76
-16.07
-14.00
-10.57
-6.18
-1.49
2.84
6.36
8.97
10.87
12.51
14.42
17.06
20.76
25.58
31.27
37.28
42.84
47.10
49.29
48.93
45.82
40.17
32.49
23.51
14.05
4.85
-3.48
-10.54
-16.10
-20.06
-22.48
-23.61
-23.99
-24.38
-25.54
-27.92
-31.40
-35.28
-38.48
-39.99
-39.27
-36.38
-31.95
-26.81
-21.71
-17.11
-13.25
-10.14
-7.62
-5.40
-3.05
-0.12
3.58
7.80
11.78
14.40
14.62
11.84
6.20
-1.46
-9.84
-17.52
-23.30
-26.45
-26.76
-24.51
-20.34
-15.10
-9.72
-5.05
-1.82
-0.60
-1.73
-5.26
-10.88
-17.97
-25.74
-33.41
-40.43
-46.53
-51.66
-55.82
-58.88
-60.49
-60.19
-57.54
-52.33
-44.67
-35.01
-24.11
-12.84
-2.15
7.10
14.26
18.91
20.93
20.51
18.17
14.76
11.36
9.08
8.82
10.99
15.34
21.01
26.70
31.01
32.75
31.13
25.86
17.11
5.49
-7.93
-21.72
-34.13
-43.50
-48.66
-49.34
-46.22
-40.70
-34.34
-28.22
-22.78
-17.88
-13.20
-8.65
-4.54
-1.34
0.51
0.95
0.24
-1.20
-3.08
-5.31
-7.96
-11.12
-14.71
-18.47
-22.05
-25.09
-27.44
-29.14
-30.43
-31.50
-32.34
-32.64
-31.89
-29.56
-25.42
-19.73
-13.17
-6.67
-1.08
3.06
5.63
6.88
7.24
7.21
7.16
7.35
7.87
8.72
9.81
10.95
11.91
12.40
12.15
10.96
8.85
5.99
2.79
-0.27
-2.73
-4.16
-4.34
-3.15
-0.66
2.94
7.28
11.87
16.15
19.45
21.19
20.88
18.33
13.73
7.76
1.56
-3.47
-6.04
-5.28
-1.03
6.15
15.20
24.89
34.14
42.19
48.68
53.50
56.68
58.29
58.38
57.08
54.63
51.51
48.33
45.80
44.48
44.66
46.25
48.77
51.54
53.76
54.72
53.92
51.12
46.40
40.14
32.94
25.52
18.54
12.47
7.55
3.77
0.95
-1.18
-2.99
-4.85
-7.08
-9.87
-13.08
-16.28
-18.75
-19.72
-18.63
-15.37
-10.38
-4.52
1.23
6.06
9.55
11.66
12.58
12.51
11.59
9.89
7.51
4.67
1.73
-0.95
-3.15
-4.80
-6.04
-7.08
-8.12
-9.30
-10.68
-12.26
-13.96
-15.62
-17.04
-18.04
-18.52
-18.52
-18.24
-17.87
-17.56
-17.34
-17.14
-16.89
-16.62
-16.45
-16.53
-17.03
-18.02
-19.57
-21.68
-24.30
-27.16
-29.75
-31.38
-31.34
-29.22
-25.11
-19.67
-13.84
-8.48
-4.07
-0.60
2.26
4.94
7.65
10.34
12.76
14.68
15.99
16.76
17.17
17.37
17.43
17.32
17.02
16.59
16.13
15.77
15.59
15.50
15.28
14.64
13.35
11.37
8.89
6.26
3.87
1.95
0.56
-0.50
-1.49
-2.75
-4.55
-7.02
-10.12
-13.56
-16.81
-19.13
-19.80
-18.37
-14.89
-9.98
-4.54
0.47
4.42
7.17
8.99
10.30
11.45
12.57
13.56
14.23
14.48
14.32
13.86
13.29
12.71
12.09
11.31
10.26
8.90
7.33
5.80
4.58
3.82
3.41
3.03
2.27
0.84
-1.28
-3.80
-6.33
-8.48
-10.14
-11.43
-12.61
-13.95
-15.63
-17.63
-19.75
-21.68
-22.97
-23.14
-21.81
-18.84
-14.38
-8.93
-3.15
2.27
6.69
9.53
10.27
8.53
4.31
-1.74
-8.30
-13.63
-16.12
-14.80
-9.62
-1.41
8.37
18.05
26.11
31.47
33.76
33.34
31.26
28.95
27.64
27.99
29.84
32.37
34.54
35.52
34.85
32.49
28.55
23.20
16.56
8.84
0.38
-8.38
-16.84
-24.35
-30.20
-33.79
-34.72
-32.96
-28.90
-23.29
-17.04
-10.95
-5.55
-1.07
2.51
5.32
7.52
9.16
10.26
10.75
10.57
9.75
8.43
6.87
5.42
4.36
3.82
3.70
3.77
3.77
3.49
2.91
2.05
1.00
-0.23
-1.63
-3.22
-4.92
-6.60
-8.06
-9.12
-9.67
-9.73
-9.41
-8.93
-8.54
-8.51
-9.02
-10.10
-11.55
-12.90
-13.56
-12.95
-10.75
-7.11
-2.63
1.81
5.34
7.44
8.08
7.73
7.12
6.92
7.56
9.00
10.87
12.60
13.66
13.81
13.09
11.80
10.29
8.83
7.55
6.46
5.54
4.83
4.45
4.50
4.97
5.74
6.60
7.34
7.91
8.33
8.71
9.07
9.34
9.28
8.59
7.03
4.55
1.35
-2.23
-5.78
-8.92
-11.38
-13.05
-13.98
-14.47
-14.94
-15.81
-17.34
-19.40
-21.37
-22.29
-21.26
-17.90
-12.54
-6.08
0.41
6.05
10.50
14.04
17.56
21.86
27.27
33.46
39.75
45.35
49.62
52.25
53.41
53.98
54.72
55.64
56.18
55.70
54.04
51.62
49.09
46.85
45.28
43.83
41.12
36.09
28.97
21.15
14.31
9.51
7.12
8.12
13.17
21.95
33.09
44.34
52.67
54.94
48.87
29.37
-2.23
-37.73
-66.79
-82.87
-86.36
-82.41
-76.23
-72.02
-72.47
-77.32
-85.56
-96.08
-107.14
-114.56
-114.25
-105.36
-91.17
-76.16
-63.68
-51.39
-37.12
-20.08
-1.49
16.58
31.10
39.32
39.91
33.97
24.29
13.92
6.00
2.28
3.35
8.49
16.46
26.34
37.81
50.40
60.23
66.35
65.09
54.12
33.47
6.23
-22.01
-45.00
-58.11
-60.22
-53.26
-41.68
-29.69
-20.04
-13.37
-8.75
-4.88
-1.07
2.39
5.03
6.22
6.20
5.66
5.35
5.60
6.22
6.70
6.55
5.80
4.61
3.40
2.61
2.45
2.87
3.61
4.31
4.69
4.71
4.49
4.37
4.77
5.96
7.91
10.24
12.34
13.52
13.19
11.07
7.31
2.65
-1.69
-4.22
-3.59
0.97
9.29
20.30
32.22
42.95
50.55
53.61
51.57
44.85
34.87
23.73
13.60
6.13
1.84
0.08
-0.69
-2.19
-5.62
-11.24
-18.30
-25.50
-31.51
-35.46
-37.18
-37.12
-36.12
-34.99
-34.31
-34.22
-34.54
-34.96
-35.25
-35.38
-35.56
-36.07
-37.17
-38.94
-41.21
-43.58
-45.51
-46.47
-46.09
-44.27
-41.15
-37.05
-32.42
-27.66
-23.15
-19.10
-15.58
-12.47
-9.49
-6.34
-2.78
1.20
5.30
9.00
11.78
13.28
13.50
12.75
11.59
10.56
10.07
10.28
11.08
12.18
13.21
13.78
13.62
12.61
10.81
8.32
5.27
1.75
-2.20
-6.48
-10.88
-15.00
-18.35
-20.48
-21.27
-20.93
-19.98
-18.92
-17.96
-16.84
-14.93
-11.57
-6.51
-0.10
6.76
12.97
17.64
20.30
20.80
19.12
15.27
9.38
1.93
-6.24
-14.10
-20.83
-26.18
-30.47
-34.17
-37.41
-39.55
-39.37
-35.61
-27.69
-16.15
-2.55
11.20
23.73
34.76
45.22
56.61
70.14
85.96
102.87
118.68
131.01
138.13
139.45
135.56
127.80
117.65
106.17
93.87
80.86
67.36
54.11
42.48
34.15
30.42
31.60
36.66
43.52
49.75
53.40
53.46
49.93
43.38
34.53
23.89
11.81
-1.33
-14.78
-27.35
-37.57
-44.04
-46.11
-44.03
-39.06
-33.06
-27.96
-25.32
-26.23
-31.31
-40.54
-53.06
-66.85
-79.01
-86.55
-87.57
-82.11
-72.29
-61.37
-52.40
-47.12
-45.68
-47.16
-50.46
-54.83
-59.94
-65.58
-71.32
-76.55
-80.71
-83.44
-84.60
-84.07
-81.68
-77.34
-71.13
-63.43
-54.66
-45.07
-34.60
-22.98
-10.10
3.64
17.27
29.51
39.33
46.40
51.24
54.90
58.49
62.66
67.34
71.82
75.03
75.81
73.30
67.03
57.13
44.31
29.75
14.95
1.41
-9.56
-17.12
-21.05
-21.86
-20.69
-19.03
-18.31
-19.39
-22.23
-25.95
-29.20
-30.84
-30.46
-28.45
-25.68
-22.94
-20.53
-18.29
-15.88
-13.23
-10.64
-8.66
-7.64
-7.48
-7.53
-6.96
-5.18
-2.22
1.25
4.25
6.00
6.26
5.46
4.39
3.81
3.95
4.47
4.71
4.01
2.12
-0.71
-3.83
-6.55
-8.41
-9.31
-9.42
-9.03
-8.37
-7.52
-6.46
-5.19
-3.88
-2.86
-2.57
-3.37
-5.40
-8.49
-12.23
-15.99
-19.10
-20.95
-21.16
-19.62
-16.52
-12.32
-7.64
-3.04
1.06
4.40
6.97
8.84
10.16
11.11
11.93
12.86
14.18
16.15
18.96
22.67
27.20
32.29
37.57
42.64
47.18
51.10
54.54
57.73
60.81
63.64
65.68
65.99
63.40
56.89
45.89
30.67
12.38
-7.13
-25.82
-41.97
-54.67
-63.88
-70.26
-74.72
-77.92
-80.03
-80.77
-79.66
-76.33
-70.79
-63.44
-54.91
-45.90
-36.90
-28.16
-19.77
-11.80
-4.42
2.10
7.48
11.62
14.66
16.92
18.69
20.16
21.21
21.60
21.04
19.41
16.86
13.74
10.55
7.70
5.39
3.58
2.02
0.38
-1.60
-3.99
-6.59
-9.08
-11.10
-12.47
-13.23
-13.66
-14.12
-14.90
-16.04
-17.27
-18.07
-17.81
-16.01
-12.51
-7.58
-1.91
3.60
8.10
11.11
12.65
13.29
13.87
15.20
17.78
21.55
26.02
30.47
34.23
36.91
38.46
39.07
38.99
38.39
37.33
35.86
34.10
32.23
30.47
28.93
27.53
26.04
24.27
22.20
20.07
18.32
17.37
17.42
18.36
19.76
21.08
21.86
21.82
20.95
19.39
17.36
15.09
12.78
10.58
8.64
7.08
5.91
5.07
4.38
3.60
2.55
1.16
-0.49
-2.22
-3.92
-5.54
-7.20
-9.09
-11.40
-14.19
-17.33
-20.47
-23.05
-24.39
-23.84
-21.01
-15.95
-9.26
-1.97
4.74
9.90
13.00
14.14
13.87
12.90
11.92
11.39
11.54
12.38
13.68
15.11
16.24
16.66
16.14
14.68
12.47
9.82
7.03
4.32
1.88
-0.19
-1.79
-2.86
-3.42
-3.58
-3.48
-3.21
-2.82
-2.28
-1.53
-0.60
0.36
1.10
1.32
0.74
-0.86
-3.56
-7.21
-11.46
-15.71
-19.25
-21.39
-21.80
-20.52
-17.98
-14.84
-11.72
-8.97
-6.69
-4.76
-3.05
-1.53
-0.34
0.37
0.54
0.26
-0.18
-0.48
-0.38
0.28
1.50
3.17
5.16
7.29
9.40
11.38
13.12
14.49
15.37
15.59
14.99
13.46
11.02
7.88
4.36
0.94
-1.95
-4.00
-5.16
-5.61
-5.79
-6.23
-7.35
-9.37
-12.20
-15.36
-18.17
-19.92
-20.04
-18.41
-15.30
-11.34
-7.24
-3.53
-0.43
2.17
4.54
6.91
9.31
11.54
13.29
14.29
14.45
13.88
12.84
11.61
10.42
9.37
8.48
7.75
7.23
6.99
7.08
7.46
7.97
8.33
8.23
7.41
5.76
3.35
0.42
-2.71
-5.66
-8.11
-9.86
-10.80
-10.98
-10.49
-9.46
-8.00
-6.20
-4.18
-2.10
-0.15
1.43
2.40
2.60
1.91
0.37
-1.82
-4.36
-6.88
-9.07
-10.76
-11.94
-12.78
-13.52
-14.33
-15.31
-16.40
-17.48
-18.37
-18.88
-18.85
-18.14
-16.71
-14.62
-12.07
-9.34
-6.76
-4.57
-2.87
-1.55
-0.40
0.89
2.52
4.56
6.82
9.00
10.70
11.64
11.68
10.92
9.57
7.89
6.12
4.46
3.11
2.26
2.07
2.60
3.79
5.41
7.17
8.75
9.86
10.25
9.71
8.07
5.32
1.65
-2.50
-6.54
-9.85
-12.03
-12.96
-12.81
-11.95
-10.72
-9.38
-8.06
-6.77
-5.56
-4.52
-3.85
-3.79
-4.50
-6.02
-8.27
-11.03
-13.98
-16.80
-19.12
-20.50
-20.54
-18.88
-15.45
-10.50
-4.70
1.03
5.70
8.60
9.43
8.40
6.07
3.17
0.32
-2.08
-3.83
-4.89
-5.24
-4.87
-3.77
-2.04
0.09
2.27
4.12
5.34
5.75
5.36
4.23
2.50
0.30
-2.17
-4.68
-6.89
-8.47
-9.12
-8.74
-7.47
-5.66
-3.84
-2.56
-2.21
-3.01
-4.84
-7.36
-10.05
-12.38
-13.91
-14.46
-14.10
-13.06
-11.61
-9.91
-7.97
-5.69
-2.99
0.02
3.05
5.64
7.40
8.05
7.62
6.38
4.80
3.41
2.62
2.67
3.51
4.91
6.47
7.86
8.87
9.47
9.77
9.83
9.63
9.02
7.78
5.82
3.22
0.31
-2.50
-4.82
-6.45
-7.43
-7.93
-8.19
-8.41
-8.72
-9.14
-9.72
-10.43
-11.21
-11.92
-12.39
-12.48
-12.16
-11.52
-10.70
-9.80
-8.80
-7.60
-6.05
-4.05
-1.58
1.28
4.39
7.53
10.36
12.52
13.68
13.70
12.70
11.05
9.22
7.57
6.29
5.37
4.73
4.38
4.40
5.00
6.26
8.12
10.26
12.23
13.55
13.87
13.07
11.23
8.67
5.79
2.97
0.53
-1.38
-2.70
-3.45
-3.70
-3.54
-3.08
-2.53
-2.15
-2.20
-2.93
-4.49
-6.97
-10.39
-14.63
-19.37
-24.05
-27.91
-30.14
-30.12
-27.65
-23.03
-16.95
-10.28
-3.85
1.72
6.09
9.14
10.92
11.56
11.31
10.48
9.44
8.59
8.26
8.62
9.66
11.24
13.11
15.04
16.86
18.47
19.77
20.64
20.93
20.54
19.40
17.60
15.23
12.43
9.31
5.98
2.66
-0.35
-2.71
-4.12
-4.48
-3.92
-2.81
-1.58
-0.74
-0.68
-1.72
-4.04
-7.65
-12.28
-17.28
-21.70
-24.45
-24.65
-21.92
-16.56
-9.48
-1.90
4.95
10.26
13.66
15.28
15.49
14.77
13.50
12.00
10.43
8.91
7.52
6.35
5.53
5.20
5.49
6.46
8.04
10.02
12.07
13.78
14.79
14.83
13.81
11.79
9.05
5.99
3.04
0.61
-1.10
-2.09
-2.58
-2.89
-3.28
-3.92
-4.83
-5.99
-7.42
-9.20
-11.48
-14.28
-17.42
-20.43
-22.70
-23.58
-22.70
-20.09
-16.15
-11.50
-6.76
-2.34
1.57
4.95
7.83
10.14
11.78
12.65
12.78
12.41
11.97
11.94
12.67
14.27
16.46
18.75
20.58
21.56
21.58
20.83
19.56
18.00
16.19
14.06
11.56
8.80
6.04
3.67
1.95
0.93
0.45
0.20
-0.05
-0.38
-0.66
-0.70
-0.40
0.11
0.49
0.28
-0.89
-3.21
-6.58
-10.68
-14.95
-18.66
-20.99
-21.27
-19.14
-14.80
-9.05
-3.04
2.07
5.53
7.18
7.39
6.78
5.85
4.88
3.92
3.02
2.28
1.93
2.20
3.24
5.02
7.34
9.92
12.45
14.66
16.37
17.45
17.89
17.74
17.10
16.07
14.82
13.53
12.41
11.62
11.20
10.98
10.66
9.89
8.47
6.40
3.87
1.18
-1.48
-4.05
-6.61
-9.25
-11.97
-14.57
-16.74
-18.21
-18.85
-18.85
-18.58
-18.43
-18.60
-18.91
-18.83
-17.75
-15.26
-11.42
-6.75
-2.07
1.83
4.49
5.85
6.22
6.08
5.86
5.84
6.12
6.67
7.36
8.02
8.45
8.46
7.95
6.95
5.60
4.12
2.70
1.40
0.21
-1.00
-2.28
-3.65
-4.96
-6.01
-6.60
-6.64
-6.14
-5.26
-4.20
-3.21
-2.47
-2.11
-2.20
-2.72
-3.62
-4.85
-6.32
-7.89
-9.34
-10.43
-10.95
-10.84
-10.21
-9.30
-8.38
-7.61
-7.01
-6.52
-6.08
-5.73
-5.60
-5.81
-6.27
-6.70
-6.62
-5.63
-3.56
-0.60
2.83
6.20
9.14
11.49
13.28
14.58
15.43
15.80
15.70
15.19
14.40
13.53
12.78
12.29
12.18
12.47
13.00
13.45
13.35
12.28
9.99
6.60
2.55
-1.56
-5.19
-8.04
-10.09
-11.52
-12.53
-13.24
-13.71
-13.92
-13.92
-13.82
-13.76
-13.88
-14.22
-14.74
-15.33
-15.81
-15.95
-15.54
-14.38
-12.38
-9.62
-6.35
-2.88
0.52
3.78
6.95
10.07
12.98
15.22
16.26
15.68
13.49
10.19
6.59
3.50
1.42
0.45
0.35
0.71
1.26
1.87
2.58
3.50
4.65
5.96
7.28
8.47
9.46
10.29
11.04
11.70
12.13
12.07
11.31
9.80
7.77
5.63
3.80
2.55
1.91
1.68
1.50
0.99
-0.20
-2.30
-5.36
-9.15
-13.24
-17.03
-19.97
-21.80
-22.58
-22.68
-22.50
-22.21
-21.66
-20.46
-18.20
-14.77
-10.38
-5.61
-1.08
2.71
5.58
7.61
8.96
9.74
9.90
9.32
7.93
5.87
3.51
1.46
0.32
0.51
2.06
4.52
7.15
9.09
9.69
8.76
6.62
3.92
1.42
-0.35
-1.23
-1.41
-1.30
-1.32
-1.70
-2.50
-3.61
-4.88
-6.16
-7.38
-8.49
-9.52
-10.54
-11.74
-13.29
-15.32
-17.71
-20.06
-21.75
-22.15
-20.80
-17.60
-12.79
-6.95
-0.79
4.84
9.19
11.68
12.10
10.69
8.08
5.19
2.85
1.61
1.62
2.65
4.30
6.17
8.00
9.65
11.13
12.46
13.63
14.56
15.15
15.31
15.00
14.25
13.15
11.76
10.11
8.22
6.17
4.23
2.76
2.19
2.79
4.47
6.77
8.90
10.03
9.53
7.24
3.49
-1.03
-5.55
-9.38
-12.12
-13.63
-14.07
-13.73
-13.08
-12.66
-12.99
-14.46
-17.19
-20.93
-25.04
-28.63
-30.75
-30.75
-28.41
-24.13
-18.75
-13.35
-8.85
-5.80
-4.18
-3.48
-2.91
-1.62
0.99
5.06
10.20
15.50
19.78
22.00
21.68
19.09
15.19
11.28
8.54
7.61
8.52
10.74
13.46
15.91
17.48
17.87
17.04
15.18
12.64
9.88
7.33
5.33
3.97
3.13
2.46
1.48
-0.29
-3.10
-6.80
-10.79
-14.09
-15.62
-14.61
-11.03
-5.76
-0.37
3.34
4.04
1.35
-4.11
-10.89
-17.27
-21.79
-23.55
-22.35
-18.60
-13.17
-7.11
-1.45
3.04
6.06
7.71
8.42
8.63
8.65
8.51
8.08
7.18
5.66
3.56
1.01
-1.69
-4.10
-5.57
-5.34
-2.79
2.12
8.63
15.17
19.79
20.98
18.20
12.24
4.86
-1.92
-6.54
-8.41
-7.92
-6.08
-3.99
-2.50
-2.02
-2.56
-3.91
-5.76
-7.87
-10.08
-12.32
-14.51
-16.53
-18.23
-19.47
-20.23
-20.60
-20.67
-20.29
-18.92
-15.81
-10.40
-2.85
5.76
13.58
18.74
20.09
17.80
13.25
8.40
4.99
3.79
4.54
6.29
8.01
9.08
9.45
9.42
9.35
9.38
9.38
9.11
8.34
7.02
5.27
3.18
0.79
-2.01
-5.41
-9.46
-13.96
-18.36
-21.86
-23.61
-23.09
-20.46
-16.58
-12.83
-10.49
-10.24
-11.80
-14.00
-15.33
-14.64
-11.60
-6.87
-1.67
2.74
5.62
7.01
7.60
8.30
9.79
12.23
15.18
17.89
19.67
20.22
19.70
18.60
17.42
16.43
15.65
14.95
14.30
13.94
14.27
15.64
18.09
21.19
24.07
25.73
25.40
22.87
18.59
13.52
8.76
5.11
2.81
1.48
0.43
-1.00
-3.06
-5.50
-7.73
-9.18
-9.61
-9.23
-8.65
-8.60
-9.58
-11.69
-14.69
-18.07
-21.32
-23.99
-25.73
-26.25
-25.30
-22.73
-18.58
-13.25
-7.42
-1.91
2.52
5.46
6.87
7.12
6.76
6.35
6.35
6.98
8.25
9.97
11.84
13.50
14.68
15.23
15.13
14.53
13.58
12.50
11.45
10.55
9.87
9.42
9.16
8.98
8.75
8.33
7.60
6.54
5.23
3.82
2.47
1.31
0.34
-0.52
-1.42
-2.50
-3.80
-5.22
-6.64
-7.92
-9.01
-10.00
-11.03
-12.29
-13.89
-15.83
-17.95
-19.95
-21.39
-21.80
-20.82
-18.32
-14.53
-9.92
-5.15
-0.83
2.57
4.87
6.12
6.50
6.30
5.82
5.32
4.99
4.92
5.11
5.50
6.00
6.48
6.83
6.97
6.85
6.52
6.08
5.63
5.28
5.02
4.73
4.29
3.55
2.45
1.07
-0.49
-2.09
-3.61
-4.99
-6.22
-7.32
-8.30
-9.25
-10.26
-11.46
-12.93
-14.60
-16.20
-17.27
-17.25
-15.76
-12.69
-8.38
-3.48
1.23
5.12
7.89
9.60
10.57
11.15
11.63
12.10
12.50
12.74
12.70
12.36
11.78
11.08
10.39
9.78
9.27
8.83
8.42
8.08
7.84
7.72
7.66
7.50
7.04
6.20
5.02
3.66
2.37
1.26
0.32
-0.63
-1.77
-3.14
-4.61
-5.92
-6.89
-7.47
-7.85
-8.33
-9.21
-10.70
-12.77
-15.21
-17.59
-19.38
-20.05
-19.17
-16.60
-12.54
-7.54
-2.34
2.29
5.85
8.15
9.39
9.97
10.33
10.79
11.51
12.42
13.37
14.15
14.63
14.79
14.66
14.38
14.08
13.84
13.68
13.57
13.45
13.26
12.96
12.54
11.99
11.32
10.51
9.54
8.44
7.23
5.96
4.72
3.56
2.56
1.76
1.16
0.68
0.22
-0.35
-1.12
-2.16
-3.45
-4.95
-6.58
-8.21
-9.78
-11.26
-12.78
-14.60
-17.01
-20.19
-24.08
-28.28
-32.12
-34.81
-35.65
-34.27
-30.71
-25.49
-19.43
-13.44
-8.33
-4.50
-1.96
-0.38
0.72
1.70
2.77
3.93
5.09
6.22
7.37
8.64
10.09
11.64
13.16
14.47
15.47
16.16
16.64
17.02
17.38
17.68
17.84
17.72
17.25
16.42
15.37
14.23
13.15
12.16
11.19
10.15
8.96
7.64
6.24
4.82
3.39
1.90
0.28
-1.47
-3.28
-5.05
-6.72
-8.29
-9.79
-11.28
-12.77
-14.26
-15.73
-17.27
-18.96
-20.89
-22.97
-24.94
-26.37
-26.81
-25.95
-23.71
-20.31
-16.15
-11.71
-7.46
-3.74
-0.79
1.32
2.67
3.44
3.88
4.27
4.77
5.41
6.09
6.65
7.02
7.22
7.36
7.55
7.87
8.28
8.69
8.99
9.08
8.92
8.54
7.98
7.27
6.44
5.50
4.46
3.32
2.14
0.97
-0.17
-1.24
-2.29
-3.33
-4.39
-5.46
-6.55
-7.66
-8.87
-10.26
-11.86
-13.54
-15.04
-15.98
-15.98
-14.79
-12.41
-9.07
-5.21
-1.34
2.09
4.80
6.71
7.95
8.72
9.25
9.65
9.97
10.20
10.36
10.51
10.74
11.07
11.50
11.89
12.12
12.08
11.80
11.38
11.01
10.79
10.76
10.77
10.62
10.10
9.10
7.72
6.16
4.71
3.56
2.72
2.06
1.38
0.55
-0.46
-1.57
-2.66
-3.74
-4.82
-5.97
-7.19
-8.38
-9.46
-10.36
-11.17
-12.07
-13.31
-15.03
-17.22
-19.62
-21.81
-23.27
-23.54
-22.30
-19.51
-15.46
-10.64
-5.70
-1.24
2.32
4.77
6.17
6.73
6.80
6.74
6.88
7.34
8.13
9.08
9.95
10.58
10.88
10.89
10.71
10.43
10.16
9.95
9.85
9.94
10.19
10.57
10.95
11.16
11.09
10.68
10.00
9.15
8.24
7.39
6.63
5.95
5.29
4.63
3.93
3.18
2.38
1.50
0.48
-0.73
-2.08
-3.49
-4.82
-6.00
-7.01
-7.98
-9.05
-10.35
-11.94
-13.85
-16.04
-18.39
-20.68
-22.47
-23.23
-22.45
-19.92
-15.87
-10.93
-5.93
-1.64
1.50
3.39
4.25
4.38
4.12
3.70
3.32
3.08
3.06
3.29
3.71
4.27
4.87
5.43
5.91
6.27
6.54
6.74
6.93
7.17
7.48
7.80
8.05
8.13
7.99
7.67
7.25
6.80
6.36
5.90
5.39
4.82
4.20
3.54
2.85
2.08
1.18
0.15
-1.01
-2.28
-3.63
-5.12
-6.81
-8.76
-10.95
-13.23
-15.33
-16.89
-17.55
-17.04
-15.31
-12.52
-9.04
-5.37
-2.02
0.65
2.45
3.38
3.60
3.33
2.82
2.32
2.00
1.99
2.30
2.86
3.56
4.24
4.77
5.11
5.28
5.39
5.60
5.97
6.48
6.99
7.29
7.24
6.78
5.99
4.93
3.68
2.24
0.62
-1.12
-2.87
-4.53
-6.05
-7.53
-9.17
-11.10
-13.31
-15.48
-17.13
-17.71
-16.89
-14.68
-11.44
-7.72
-4.09
-0.96
1.47
3.16
4.16
4.56
4.49
4.09
3.55
3.06
2.74
2.66
2.87
3.37
4.17
5.22
6.41
7.57
8.52
9.17
9.48
9.52
9.36
9.07
8.65
8.10
7.37
6.41
5.16
3.60
1.77
-0.17
-1.99
-3.48
-4.53
-5.23
-5.86
-6.76
-8.27
-10.50
-13.33
-16.36
-19.00
-20.66
-20.90
-19.55
-16.78
-13.01
-8.79
-4.65
-1.00
1.91
4.03
5.45
6.41
7.22
8.13
9.25
10.51
11.67
12.46
12.69
12.36
11.64
10.80
10.09
9.64
9.54
9.75
10.23
10.91
11.67
12.36
12.85
13.02
12.84
12.35
11.68
10.96
10.30
9.76
9.39
9.16
9.01
8.84
8.52
7.97
7.16
6.15
5.00
3.81
2.61
1.45
0.39
-0.50
-1.18
-1.69
-2.19
-2.87
-3.89
-5.25
-6.82
-8.41
-9.88
-11.25
-12.65
-14.31
-16.37
-18.87
-21.64
-24.35
-26.49
-27.55
-27.13
-25.08
-21.58
-17.05
-12.11
-7.36
-3.17
0.30
3.04
5.02
6.25
6.75
6.66
6.22
5.75
5.70
6.38
7.77
9.50
10.99
11.70
11.36
10.03
8.04
6.11
4.96
4.93
5.77
6.79
7.19
6.48
4.69
2.41
0.95
1.79
5.86
13.03
22.17
31.54
39.28
43.88
42.52
33.78
19.03
2.22
-12.34
-22.05
-26.22
-26.28
-23.38
-18.00
-9.89
1.42
15.99
33.13
51.06
67.36
79.60
85.86
85.11
77.80
66.00
53.12
43.22
39.97
45.57
59.65
79.09
98.57
112.42
116.44
109.27
92.41
69.44
44.59
21.44
2.20
-12.20
-21.58
-26.02
-25.94
-22.32
-16.88
-11.83
-9.27
-10.53
-15.76
-23.80
-32.69
-40.39
-45.55
-47.82
-47.95
-47.39
-47.75
-50.32
-55.63
-63.32
-72.21
-80.71
-87.26
-90.82
-91.14
-88.77
-84.77
-80.27
-76.23
-73.16
-71.21
-70.15
-69.51
-68.45
-65.85
-60.46
-51.19
-37.61
-20.15
-0.10
20.75
40.65
58.40
73.49
86.04
96.38
104.72
110.85
114.21
114.03
109.75
101.19
88.77
73.32
55.96
37.77
19.59
1.88
-15.32
-32.20
-49.04
-65.92
-82.56
-98.19
-111.68
-121.82
-127.72
-129.22
-126.95
-122.27
-116.82
-112.04
-108.90
-107.75
-108.48
-110.75
-114.41
-119.57
-126.59
-135.75
-146.78
-158.57
-169.11
-176.09
-177.62
-172.97
-162.69
-148.23
-130.95
-111.49
-89.61
-64.81
-37.25
-8.24
20.02
45.31
66.40
83.52
97.95
111.15
124.20
137.64
151.73
166.55
181.34
193.69
199.29
193.09
171.72
135.93
91.37
46.97
11.45
-10.24
-18.52
-18.03
-14.55
-11.74
-9.69
-5.81
2.74
16.59
33.32
48.42
57.40
57.85
50.39
37.98
24.32
12.24
2.91
-3.98
-9.15
-12.76
-14.14
-12.24
-6.64
1.84
11.18
18.88
23.02
23.00
19.64
14.72
10.17
7.48
7.26
9.41
13.40
18.68
24.86
31.73
38.97
45.87
51.17
53.30
50.81
42.95
30.06
13.54
-4.45
-21.61
-35.87
-45.71
-50.12
-48.69
-41.56
-29.69
-14.81
0.65
13.97
22.70
25.22
20.99
10.61
-4.38
-21.75
-38.86
-52.99
-61.64
-62.94
-55.98
-41.00
-19.33
6.80
34.61
61.16
83.62
99.55
107.09
105.21
94.00
74.89
50.49
24.22
-0.49
-20.98
-35.83
-44.84
-48.55
-47.56
-42.15
-32.38
-18.59
-2.01
14.98
29.19
37.38
37.15
27.70
10.03
-13.32
-38.80
-62.55
-81.12
-91.95
-93.74
-86.62
-71.95
-52.09
-29.82
-7.86
11.56
26.97
37.74
43.95
46.14
45.07
41.57
36.48
30.78
25.58
22.03
21.02
22.85
26.99
32.21
36.90
39.69
39.88
37.67
33.93
29.80
26.19
23.48
21.45
19.47
16.84
13.02
7.81
1.37
-5.90
-13.42
-20.55
-26.59
-30.87
-32.86
-32.29
-29.35
-24.72
-19.46
-14.80
-11.69
-10.64
-11.53
-13.78
-16.48
-18.68
-19.53
-18.42
-15.05
-9.48
-2.12
6.35
15.09
23.37
30.67
36.77
41.68
45.52
48.36
50.12
50.59
49.53
46.78
42.47
37.00
30.98
25.11
19.89
15.56
12.05
9.10
6.41
3.77
1.10
-1.56
-4.14
-6.58
-8.84
-10.93
-12.85
-14.57
-16.04
-17.16
-17.84
-18.05
-17.84
-17.32
-16.62
-15.84
-15.00
-14.03
-12.88
-11.50
-9.93
-8.29
-6.72
-5.33
-4.11
-2.95
-1.71
-0.30
1.28
2.87
4.29
5.43
6.32
7.09
7.87
8.69
9.34
9.55
9.02
7.59
5.23
2.02
-1.87
-6.15
-10.42
-14.08
-16.50
-17.23
-16.18
-13.67
-10.33
-6.88
-3.93
-1.85
-0.75
-0.63
-1.33
-2.62
-4.20
-5.73
-6.97
-7.76
-8.15
-8.21
-8.00
-7.50
-6.64
-5.36
-3.74
-1.94
-0.20
1.29
2.44
3.27
3.86
4.32
4.75
5.25
5.86
6.59
7.40
8.24
9.03
9.71
10.23
10.61
10.84
10.94
10.94
10.85
10.67
10.37
9.87
9.10
7.97
6.46
4.59
2.45
0.13
-2.26
-4.59
-6.80
-8.79
-10.56
-12.13
-13.59
-15.14
-16.97
-19.24
-21.99
-25.00
-27.82
-29.80
-30.31
-28.89
-25.50
-20.51
-14.59
-8.56
-3.10
1.33
4.54
6.58
7.69
8.13
8.21
8.15
8.12
8.19
8.37
8.63
8.91
9.15
9.36
9.54
9.74
10.03
10.41
10.84
11.20
11.32
11.07
10.39
9.38
8.21
7.05
6.03
5.19
4.42
3.63
2.70
1.57
0.25
-1.21
-2.74
-4.25
-5.65
-6.86
-7.81
-8.49
-9.01
-9.52
-10.23
-11.31
-12.89
-14.96
-17.32
-19.59
-21.25
-21.74
-20.68
-17.99
-13.95
-9.13
-4.22
0.21
3.87
6.68
8.75
10.22
11.18
11.69
11.81
11.64
11.35
11.12
11.01
10.97
10.87
10.61
10.17
9.65
9.18
8.81
8.39
7.68
6.47
4.74
2.70
0.69
-1.01
-2.37
-3.66
-5.21
-7.29
-9.85
-12.60
-15.17
-17.23
-18.70
-19.67
-20.31
-20.81
-21.38
-22.19
-23.38
-24.95
-26.63
-27.87
-28.04
-26.58
-23.33
-18.63
-13.16
-7.76
-3.08
0.53
3.04
4.57
5.33
5.50
5.30
4.98
4.81
5.02
5.66
6.64
7.70
8.57
9.09
9.30
9.38
9.53
9.90
10.47
11.14
11.69
11.94
11.78
11.16
10.13
8.80
7.31
5.78
4.31
2.92
1.59
0.25
-1.16
-2.66
-4.23
-5.82
-7.38
-8.85
-10.24
-11.58
-12.96
-14.55
-16.54
-19.08
-22.11
-25.29
-28.03
-29.58
-29.31
-26.91
-22.56
-16.87
-10.66
-4.73
0.34
4.28
7.08
8.90
9.92
10.38
10.44
10.32
10.22
10.31
10.73
11.52
12.54
13.60
14.47
14.98
15.13
14.96
14.58
14.05
13.43
12.74
12.07
11.48
11.01
10.57
9.97
8.98
7.52
5.70
3.79
2.09
0.76
-0.28
-1.26
-2.43
-3.92
-5.72
-7.63
-9.47
-11.10
-12.52
-13.78
-14.98
-16.27
-17.81
-19.80
-22.30
-25.15
-27.86
-29.67
-29.81
-27.81
-23.69
-18.01
-11.68
-5.58
-0.37
3.66
6.49
8.28
9.27
9.65
9.65
9.50
9.33
9.23
9.17
9.12
9.06
9.08
9.30
9.85
10.72
11.81
12.91
13.81
14.34
14.44
14.12
13.41
12.35
10.97
9.27
7.24
4.89
2.25
-0.49
-3.05
-5.06
-6.20
-6.36
-5.73
-4.82
-4.37
-5.05
-7.29
-11.03
-15.74
-20.54
-24.39
-26.43
-26.12
-23.42
-18.79
-13.03
-7.12
-1.91
2.05
4.57
5.86
6.32
6.41
6.45
6.62
7.00
7.68
8.78
10.32
12.12
13.72
14.49
13.94
11.97
9.04
6.06
4.02
3.61
4.88
7.21
9.48
10.47
9.22
5.36
-0.68
-7.82
-14.59
-19.71
-22.54
-23.40
-23.40
-24.00
-26.41
-31.02
-37.32
-44.01
-49.57
-52.75
-53.10
-51.10
-48.04
-45.54
-44.80
-45.99
-47.94
-48.50
-45.41
-37.44
-25.08
-10.57
3.01
13.15
19.08
22.10
25.00
30.65
40.66
54.71
70.84
86.02
97.15
101.51
97.40
84.74
65.84
45.54
30.26
25.51
32.98
48.80
64.43
70.29
60.46
35.83
3.79
-25.33
-43.23
-47.09
-39.75
-27.08
-14.34
-3.83
5.12
14.31
24.69
35.57
45.31
52.87
58.91
65.71
75.94
90.85
109.15
127.06
139.76
143.34
136.45
120.73
100.00
78.60
59.89
45.44
35.21
28.36
24.05
21.86
21.62
23.05
25.51
28.05
29.68
29.66
27.68
23.85
18.60
12.58
6.50
1.01
-3.46
-6.88
-9.60
-12.35
-15.89
-20.76
-26.94
-33.80
-40.30
-45.42
-48.62
-50.05
-50.50
-50.97
-52.23
-54.44
-57.19
-59.74
-61.44
-62.06
-61.90
-61.67
-62.17
-63.93
-66.95
-70.75
-74.42
-77.03
-77.89
-76.79
-74.09
-70.62
-67.43
-65.47
-65.12
-65.94
-66.61
-65.20
-59.75
-48.92
-32.61
-12.15
10.01
30.99
48.40
60.92
68.54
72.23
73.26
72.56
70.43
66.53
60.22
51.01
38.79
23.96
7.26
-10.53
-28.70
-46.70
-63.99
-79.92
-93.64
-104.30
-111.34
-114.79
-115.43
-114.59
-113.74
-114.07
-116.18
-120.02
-124.99
-129.96
-133.44
-133.81
-129.72
-120.64
-107.22
-91.20
-74.81
-59.89
-47.17
-36.04
-24.96
-12.31
2.93
20.79
40.45
60.56
79.56
95.88
107.98
114.46
114.41
107.71
95.46
79.90
63.92
50.25
40.68
35.64
34.36
35.47
37.54
39.50
40.66
40.46
38.40
34.09
27.60
19.63
11.44
4.45
-0.30
-2.48
-2.46
-0.95
1.44
4.40
7.89
11.96
16.50
21.16
25.52
29.22
32.20
34.67
36.96
39.38
42.00
44.57
46.60
47.43
46.42
43.13
37.52
30.04
21.70
13.82
7.73
4.36
3.91
5.84
9.04
12.26
14.55
15.47
15.11
13.71
11.53
8.54
4.60
-0.36
-6.14
-12.09
-17.29
-20.74
-21.72
-19.98
-15.86
-10.16
-3.95
1.69
5.86
8.02
8.01
5.99
2.37
-2.32
-7.49
-12.60
-17.12
-20.69
-23.11
-24.37
-24.64
-24.21
-23.35
-22.30
-21.14
-19.91
-18.57
-17.16
-15.78
-14.65
-13.96
-13.83
-14.17
-14.65
-14.86
-14.39
-13.04
-10.92
-8.39
-5.95
-4.13
-3.31
-3.61
-4.84
-6.48
-7.74
-7.80
-6.01
-2.29
2.86
8.44
13.26
16.45
17.65
17.13
15.54
13.66
12.04
10.94
10.33
10.04
9.92
9.93
10.12
10.53
11.07
11.53
11.61
11.10
10.10
9.00
8.33
8.49
9.53
11.10
12.68
13.85
14.51
14.91
15.44
16.39
17.74
19.23
20.52
21.37
21.76
21.87
21.90
22.00
22.15
22.19
21.91
21.15
19.88
18.28
16.65
15.29
14.41
13.95
13.66
13.18
12.19
10.58
8.44
6.00
3.46
0.92
-1.68
-4.51
-7.70
-11.37
-15.54
-20.20
-25.21
-30.19
-34.49
-37.29
-37.80
-35.58
-30.82
-24.27
-17.07
-10.35
-4.91
-1.04
1.40
2.79
3.57
4.08
4.58
5.26
6.29
7.79
9.72
11.92
14.12
16.02
17.39
18.23
18.64
18.90
19.23
19.76
20.45
21.11
21.48
21.37
20.74
19.70
18.48
17.31
16.34
15.56
14.84
13.99
12.85
11.35
9.56
7.61
5.66
3.80
2.00
0.12
-2.01
-4.47
-7.24
-10.13
-12.88
-15.25
-17.12
-18.51
-19.55
-20.44
-21.38
-22.60
-24.24
-26.26
-28.38
-30.03
-30.49
-29.16
-25.81
-20.73
-14.70
-8.67
-3.46
0.52
3.30
5.16
6.44
7.35
7.96
8.29
8.38
8.36
8.39
8.60
8.99
9.43
9.71
9.60
9.00
7.92
6.51
4.98
3.50
2.17
1.00
-0.08
-1.15
-2.27
-3.46
-4.72
-6.02
-7.29
-8.47
-9.44
-10.12
-10.40
-10.31
-9.95
-9.47
-9.08
-8.94
-9.09
-9.38
-9.51
-9.10
-7.78
-5.39
-2.03
1.94
6.00
9.62
12.44
14.33
15.36
15.76
15.81
15.72
15.60
15.42
15.09
14.51
13.58
12.25
10.55
8.55
6.37
4.17
2.11
0.27
-1.33
-2.82
-4.36
-6.14
-8.22
-10.49
-12.71
-14.55
-15.77
-16.33
-16.33
-16.03
-15.63
-15.25
-14.83
-14.20
-13.22
-11.83
-10.11
-8.28
-6.60
-5.31
-4.58
-4.44
-4.73
-5.10
-5.05
-4.01
-1.60
2.22
7.10
12.29
16.89
20.11
21.53
21.14
19.38
16.87
14.26
11.99
10.22
8.86
7.71
6.57
5.30
3.90
2.45
1.03
-0.30
-1.49
-2.45
-3.11
-3.42
-3.42
-3.21
-3.00
-2.99
-3.30
-3.91
-4.63
-5.25
-5.62
-5.75
-5.75
-5.89
-6.40
-7.49
-9.24
-11.56
-14.22
-16.95
-19.51
-21.61
-23.20
-24.48
-25.83
-27.67
-30.09
-32.82
-35.26
-36.60
-35.81
-32.31
-26.25
-18.45
-10.22
-2.51
4.14
9.73
14.67
19.92
26.16
33.42
41.10
48.10
53.79
57.72
59.65
59.63
58.40
56.70
54.88
52.92
50.45
47.65
44.77
42.00
36.12
25.88
12.48
-1.11
-10.67
-16.61
-19.95
-21.54
-22.42
-23.19
-23.73
-23.97
-24.08
-24.39
-25.43
-27.00
-28.66
-29.99
-30.62
-29.90
-27.60
-24.01
-19.81
-15.91
-12.58
-9.83
-7.57
-5.65
-3.76
-1.75
0.29
2.06
3.10
3.29
2.59
1.06
-1.10
-3.39
-5.29
-6.42
-6.69
-6.36
-5.76
-5.29
-5.27
-5.87
-6.99
-8.41
-9.95
-11.44
-12.81
-13.97
-14.80
-15.22
-15.19
-14.70
-13.83
-12.65
-11.29
-9.84
-8.41
-7.05
-5.81
-4.68
-3.62
-2.58
-1.54
-0.49
0.56
1.58
2.55
3.43
4.21
4.86
5.37
5.72
5.93
5.98
5.83
5.42
4.65
3.46
1.79
-0.28
-2.60
-4.90
-6.82
-8.02
-8.22
-7.31
-5.38
-2.70
0.27
3.04
5.20
6.49
6.86
6.47
5.57
4.46
3.41
2.59
2.09
1.92
2.09
2.52
3.13
3.81
4.47
5.05
5.53
5.94
6.32
6.69
6.99
7.13
7.01
6.59
5.94
5.22
4.63
4.28
4.19
4.22
4.17
3.86
3.27
2.51
1.81
1.39
1.28
1.33
1.21
0.52
-1.08
-3.73
-7.32
-11.48
-15.62
-19.05
-21.12
-21.42
-19.89
-16.87
-13.06
-9.24
-6.06
-3.86
-2.62
-2.06
-1.82
-1.57
-1.13
-0.44
0.49
1.62
2.95
4.45
6.01
7.51
8.80
9.83
10.61
11.24
11.88
12.68
13.71
14.93
16.23
17.55
18.84
20.03
20.99
21.51
21.44
20.63
19.01
16.55
13.45
9.92
6.07
1.87
-2.72
-7.62
-12.53
-17.20
-21.32
-24.48
-26.36
-26.96
-26.75
-26.34
-26.21
-26.44
-26.82
-26.68
-24.81
-19.97
-11.50
0.23
14.06
28.45
41.88
53.02
58.80
56.93
47.71
34.31
20.73
9.55
1.64
-2.96
-5.29
-6.05
-5.33
-3.15
0.07
3.53
6.07
7.06
6.47
4.67
2.29
0.10
-1.36
-2.07
-2.44
-2.98
-3.94
-5.22
-6.54
-7.54
-7.77
-6.97
-5.21
-2.90
-0.66
1.02
1.82
1.63
0.60
-1.00
-2.84
-4.70
-6.53
-8.33
-10.07
-11.57
-12.61
-12.92
-12.26
-10.61
-8.20
-5.50
-3.04
-1.24
-0.20
0.22
0.33
0.38
0.40
0.24
-0.39
-1.64
-3.46
-5.56
-7.55
-9.07
-9.91
-10.07
-9.68
-8.98
-8.19
-7.48
-6.87
-6.27
-5.47
-4.22
-2.31
0.32
3.53
7.02
10.27
12.69
13.61
12.50
9.09
3.58
-3.28
-10.29
-16.17
-19.99
-21.56
-21.47
-20.82
-20.76
-21.96
-24.40
-27.38
-29.86
-30.87
-29.80
-26.60
-21.69
-15.86
-9.94
-4.64
-0.36
2.85
5.16
6.82
8.07
9.09
10.18
11.75
14.30
18.12
23.08
28.47
33.21
36.23
36.91
35.31
32.11
28.21
24.34
20.81
17.48
14.03
10.20
6.00
1.60
-2.69
-6.65
-10.23
-13.45
-16.36
-18.95
-21.12
-22.77
-23.91
-24.68
-25.40
-26.40
-27.81
-29.43
-30.68
-30.70
-28.70
-24.22
-17.36
-8.89
-0.10
7.53
12.76
14.91
14.07
11.14
7.46
4.46
3.23
4.19
7.04
10.90
14.67
17.46
18.85
18.98
18.37
17.62
17.08
16.73
16.22
15.18
13.45
11.21
8.88
6.82
5.14
3.69
2.24
0.76
-0.41
-0.65
0.60
3.41
7.20
10.81
12.96
12.81
10.33
6.25
1.82
-1.83
-4.04
-4.82
-4.76
-4.65
-5.15
-6.55
-8.78
-11.50
-14.26
-16.63
-18.31
-19.04
-18.71
-17.28
-14.87
-11.72
-8.25
-4.91
-2.11
-0.10
1.16
2.01
3.03
4.83
7.76
11.71
16.08
19.92
22.32
22.77
21.41
18.92
16.28
14.34
13.53
13.78
14.62
15.52
16.04
16.06
15.67
15.12
14.67
14.44
14.46
14.64
14.85
14.98
15.01
14.96
14.89
14.88
14.92
15.00
15.12
15.40
16.23
18.15
21.70
27.16
34.33
42.51
50.61
57.45
62.03
63.76
62.59
59.03
53.90
48.18
42.71
38.05
34.46
32.03
30.87
31.07
32.63
35.16
37.78
39.18
37.88
32.70
23.17
9.68
-6.41
-23.04
-37.80
-48.51
-53.86
-53.96
-50.50
-46.34
-44.58
-47.47
-55.57
-67.52
-80.67
-92.03
-99.36
-101.75
-99.62
-94.22
-87.03
-79.20
-71.43
-64.10
-57.47
-51.83
-47.40
-44.21
-41.88
-39.70
-36.89
-32.98
-28.00
-22.55
-17.51
-13.69
-11.42
-10.55
-10.46
-10.40
-9.71
-8.01
-5.16
-1.17
3.98
10.27
17.73
26.27
35.62
45.31
54.72
63.18
70.12
75.25
78.65
80.86
82.73
85.14
88.57
92.63
96.04
96.96
93.87
86.43
75.90
64.61
54.98
48.34
44.48
41.88
38.70
33.88
27.58
21.03
15.72
12.52
11.32
11.15
10.85
9.69
7.75
5.75
4.69
5.53
9.11
16.21
27.47
43.18
62.54
83.34
102.00
114.60
118.38
112.94
100.49
84.96
70.39
59.45
52.84
49.59
47.97
46.45
44.14
40.88
36.99
33.01
29.41
26.44
23.86
20.89
16.28
8.53
-3.51
-20.10
-40.21
-61.69
-81.79
-98.20
-109.96
-117.74
-123.64
-130.09
-138.74
-149.75
-161.60
-171.61
-176.77
-174.54
-163.47
-143.58
-116.45
-84.94
-52.71
-23.36
0.26
16.57
25.19
26.60
21.58
11.03
-3.99
-22.04
-41.12
-58.89
-73.19
-82.71
-87.37
-88.32
-87.46
-86.71
-87.47
-90.28
-94.98
-101.11
-108.39
-116.62
-125.39
-133.42
-138.45
-137.82
-129.64
-114.06
-93.66
-72.80
-56.00
-46.18
-43.66
-46.44
-51.48
-56.29
-60.06
-63.94
-70.31
-81.72
-99.97
-125.32
-156.14
-188.75
-217.83
-237.41
-242.54
-230.90
-203.77
-165.83
-123.41
-82.40
-46.45
-16.47
8.65
30.75
51.27
70.94
90.12
109.31
129.26
150.58
173.21
196.08
217.41
235.28
248.15
255.10
255.94
251.08
241.57
228.91
214.76
200.40
186.22
171.59
155.21
135.82
112.92
87.19
60.30
34.34
11.14
-8.15
-23.09
-33.76
-40.40
-43.27
-42.71
-39.39
-34.29
-28.64
-23.50
-19.34
-15.90
-12.43
-8.22
-3.24
1.66
5.07
5.78
3.50
-0.90
-5.83
-9.80
-12.17
-13.26
-13.94
-14.88
-15.96
-16.34
-14.99
-11.40
-6.05
-0.30
4.25
6.65
7.10
7.01
8.48
13.29
22.09
33.87
46.08
55.29
58.07
51.91
35.90
11.34
-18.03
-46.30
-66.43
-72.23
-60.56
-32.88
4.91
44.44
77.86
100.50
111.84
114.48
111.88
106.50
99.02
89.19
77.04
63.79
51.49
42.05
36.05
32.51
29.42
24.90
18.18
9.93
1.82
-4.42
-7.85
-8.68
-8.11
-7.60
-8.21
-10.16
-12.86
-15.33
-16.67
-16.55
-15.27
-13.62
-12.45
-12.32
-13.26
-14.77
-16.09
-16.50
-15.64
-13.59
-10.80
-7.91
-5.53
-4.07
-3.75
-4.60
-6.43
-8.93
-11.72
-14.40
-16.70
-18.52
-19.90
-20.96
-21.78
-22.34
-22.59
-22.46
-21.99
-21.31
-20.57
-19.99
-19.79
-20.30
-21.85
-24.72
-28.93
-34.16
-39.75
-44.86
-48.79
-51.16
-51.88
-51.12
-49.10
-46.01
-42.09
-37.68
-33.33
-29.61
-26.89
-25.17
-24.03
-22.82
-20.95
-18.17
-14.75
-11.31
-8.63
-7.20
-7.09
-7.85
-8.74
-9.12
-8.69
-7.69
-6.75
-6.67
-8.09
-11.24
-15.76
-20.58
-23.94
-23.71
-17.93
-5.54
13.05
35.86
59.91
82.28
101.11
116.18
128.59
139.92
151.24
162.52
172.68
180.12
183.41
181.78
175.21
164.25
149.77
132.71
114.06
94.69
75.41
56.81
39.20
22.58
6.74
-8.58
-23.52
-37.94
-51.39
-63.20
-72.70
-79.47
-83.52
-85.41
-86.04
-86.48
-87.58
-89.65
-92.31
-94.62
-95.45
-93.97
-90.08
-84.53
-78.68
-73.96
-71.35
-71.18
-73.19
-76.84
-81.68
-87.41
-93.71
-99.97
-105.23
-108.37
-108.52
-105.55
-100.36
-94.67
-90.56
-89.76
-93.12
-100.26
-109.83
-119.97
-129.07
-136.33
-141.96
-146.97
-152.45
-158.86
-165.45
-170.29
-170.85
-164.99
-151.75
-131.58
-106.26
-78.43
-51.36
-28.51
-12.89
-6.06
-7.05
-12.14
-15.85
-13.16
-1.65
17.35
39.57
60.09
75.68
85.85
92.15
96.26
98.44
97.22
90.70
78.20
61.34
43.69
29.35
21.12
19.57
23.09
28.97
34.71
39.00
41.71
43.34
44.26
44.18
42.41
38.38
32.34
25.52
19.73
16.49
16.36
18.55
21.31
22.73
21.51
17.41
11.38
5.40
2.12
4.31
14.01
31.58
55.15
80.84
103.99
120.85
129.79
131.39
127.46
119.66
108.81
95.16
79.40
63.34
49.72
41.10
38.52
40.90
45.59
49.66
51.08
49.16
44.30
37.28
28.74
19.13
8.99
-0.82
-9.07
-14.44
-15.88
-12.91
-5.70
5.03
18.26
32.85
47.60
61.41
73.35
82.92
90.15
95.41
99.12
101.28
101.30
98.10
90.64
78.44
61.98
42.68
22.46
3.22
-13.64
-27.30
-37.48
-44.16
-47.54
-47.92
-45.76
-41.70
-36.52
-31.00
-25.82
-21.36
-17.65
-14.50
-11.63
-8.94
-6.68
-5.44
-5.95
-8.83
-14.30
-21.96
-30.87
-39.79
-47.58
-53.60
-57.84
-60.87
-63.55
-66.70
-70.94
-76.58
-83.57
-91.25
-98.23
-102.37
-101.31
-93.29
-77.99
-57.00
-33.28
-10.25
9.47
24.70
35.68
43.40
48.76
52.16
53.60
53.00
50.62
47.14
43.43
40.22
37.86
36.29
35.17
34.07
32.71
30.96
28.84
26.39
23.63
20.49
16.95
13.08
9.05
5.16
1.64
-1.37
-3.97
-6.42
-9.08
-12.24
-15.96
-19.94
-23.53
-25.87
-26.18
-24.07
-19.74
-13.95
-7.77
-2.18
2.19
5.25
7.28
8.75
10.04
11.34
12.64
13.81
14.71
15.23
15.33
14.98
14.22
13.15
11.90
10.65
9.54
8.59
7.70
6.67
5.29
3.46
1.26
-1.11
-3.39
-5.32
-6.81
-7.84
-8.56
-9.22
-10.12
-11.54
-13.65
-16.35
-19.20
-21.51
-22.48
-21.50
-18.44
-13.73
-8.20
-2.83
1.60
4.83
7.04
8.70
10.33
12.18
14.20
16.15
17.73
18.81
19.40
19.63
19.66
19.59
19.48
19.32
19.11
18.78
18.26
17.44
16.21
14.55
12.44
9.95
7.15
4.10
0.89
-2.38
-5.65
-8.93
-12.31
-15.91
-19.72
-23.44
-26.45
-27.93
-27.24
-24.17
-19.10
-12.88
-6.48
-0.65
4.23
8.08
10.99
12.97
14.00
14.14
13.58
12.69
11.92
11.57
11.69
12.16
12.74
13.28
13.73
14.11
14.42
14.57
14.43
13.91
13.03
11.90
10.67
9.39
8.04
6.45
4.50
2.17
-0.36
-2.82
-4.90
-6.46
-7.60
-8.62
-9.96
-12.00
-14.93
-18.63
-22.66
-26.38
-29.00
-29.86
-28.54
-24.99
-19.56
-12.96
-6.07
0.27
5.47
9.31
11.92
13.70
15.06
16.31
17.53
18.61
19.42
19.83
19.89
19.69
19.38
19.07
18.80
18.57
18.38
18.21
18.04
17.79
17.33
16.55
15.35
13.73
11.81
9.73
7.62
5.55
3.53
1.49
-0.60
-2.73
-4.87
-6.94
-8.88
-10.65
-12.29
-13.94
-15.86
-18.34
-21.57
-25.44
-29.41
-32.58
-33.92
-32.69
-28.71
-22.56
-15.32
-8.20
-2.16
2.33
5.32
7.17
8.34
9.23
10.06
10.97
11.96
13.01
14.04
14.94
15.66
16.16
16.46
16.57
16.50
16.23
15.78
15.21
14.67
14.28
14.03
13.82
13.40
12.53
11.07
9.10
6.87
4.68
2.79
1.29
0.10
-0.97
-2.14
-3.54
-5.22
-7.11
-9.12
-11.13
-13.04
-14.76
-16.26
-17.56
-18.78
-20.16
-22.01
-24.54
-27.77
-31.35
-34.53
-36.41
-36.14
-33.33
-28.13
-21.25
-13.75
-6.65
-0.70
3.78
6.86
8.89
10.30
11.46
12.57
13.75
14.95
16.10
17.12
17.96
18.62
19.07
19.32
19.39
19.33
19.22
19.19
19.25
19.37
19.39
19.10
18.35
17.12
15.50
13.65
11.75
9.89
8.14
6.50
4.95
3.47
2.02
0.53
-1.06
-2.82
-4.75
-6.78
-8.75
-10.50
-11.90
-12.96
-13.84
-14.88
-16.43
-18.79
-22.02
-25.82
-29.52
-32.21
-33.01
-31.37
-27.22
-21.07
-13.85
-6.62
-0.29
4.59
7.90
9.90
11.03
11.79
12.57
13.58
14.89
16.42
18.04
19.59
20.93
21.95
22.60
22.88
22.88
22.70
22.51
22.39
22.31
22.13
21.66
20.72
19.28
17.49
15.57
13.76
12.20
10.88
9.61
8.22
6.59
4.75
2.88
1.23
0.01
-0.65
-0.79
-0.51
-0.05
0.26
-0.05
-1.40
-4.11
-8.12
-12.89
-17.44
-20.64
-21.63
-20.10
-16.43
-11.49
-6.28
-1.64
1.92
4.09
4.75
3.79
1.21
-2.82
-7.97
-13.82
-19.94
-25.96
-31.53
-36.20
-39.38
-40.41
-38.74
-34.17
-26.91
-17.56
-7.00
3.78
13.76
22.03
27.88
30.95
31.34
29.55
26.34
22.44
18.35
14.20
9.90
5.30
0.41
-4.52
-9.07
-12.77
-15.30
-16.62
-16.93
-16.63
-16.18
-16.11
-16.86
-18.75
-21.86
-25.87
-30.00
-33.19
-34.33
-32.63
-27.91
-20.60
-11.63
-2.11
6.93
14.73
20.80
24.90
26.97
27.08
25.46
22.55
18.97
15.38
12.34
10.03
8.20
6.26
3.65
0.21
-3.63
-6.96
-8.78
-8.54
-6.33
-2.72
1.70
6.68
12.44
19.33
27.48
36.47
45.46
53.52
59.98
64.55
67.14
67.52
65.32
60.14
51.90
41.12
28.82
16.19
4.19
-6.63
-16.07
-24.00
-30.17
-34.26
-36.09
-35.85
-34.15
-31.83
-29.62
-27.92
-26.73
-25.81
-24.90
-23.90
-22.89
-22.04
-21.47
-21.10
-20.72
-20.09
-19.01
-17.44
-15.48
-13.26
-10.91
-8.50
-6.06
-3.61
-1.29
0.68
2.00
2.42
1.80
0.23
-2.03
-4.57
-7.00
-9.03
-10.57
-11.64
-12.40
-13.06
-13.86
-15.09
-17.02
-19.75
-23.06
-26.29
-28.46
-28.54
-25.91
-20.57
-13.24
-5.12
2.56
8.89
13.48
16.40
18.02
18.74
18.84
18.51
17.87
17.05
16.15
15.30
14.57
13.97
13.48
13.06
12.67
12.27
11.87
11.44
10.99
10.52
10.04
9.52
8.89
8.03
6.87
5.39
3.69
1.92
0.24
-1.26
-2.60
-3.87
-5.14
-6.48
-7.90
-9.46
-11.25
-13.38
-15.87
-18.56
-21.06
-22.81
-23.26
-22.07
-19.20
-14.96
-9.90
-4.69
0.08
4.01
6.91
8.87
10.05
10.74
11.17
11.52
11.89
12.35
12.87
13.43
13.98
14.47
14.86
15.15
15.37
15.59
15.85
16.19
16.54
16.77
16.67
16.10
15.00
13.42
11.57
9.70
8.02
6.63
5.51
4.53
3.54
2.41
1.09
-0.42
-2.03
-3.62
-5.10
-6.42
-7.67
-9.04
-10.69
-12.67
-14.82
-16.89
-18.62
-19.90
-20.84
-21.71
-22.82
-24.43
-26.64
-29.39
-32.42
-35.24
-37.15
-37.36
-35.22
-30.54
-23.67
-15.55
-7.38
-0.25
5.13
8.56
10.31
10.88
10.82
10.58
10.48
10.72
11.36
12.35
13.57
14.82
15.93
16.74
17.17
17.23
17.02
16.71
16.46
16.39
16.49
16.63
16.57
16.13
15.24
14.03
12.71
11.51
10.55
9.76
8.98
8.01
6.80
5.43
4.09
2.92
1.94
1.00
-0.16
-1.75
-3.82
-6.20
-8.61
-10.75
-12.47
-13.79
-14.90
-16.05
-17.48
-19.37
-21.80
-24.61
-27.37
-29.35
-29.74
-27.91
-23.72
-17.64
-10.62
-3.78
1.92
5.98
8.32
9.22
9.13
8.55
7.91
7.52
7.55
8.01
8.74
9.56
10.27
10.74
10.93
10.87
10.63
10.32
10.08
9.99
10.09
10.26
10.27
9.88
8.93
7.44
5.61
3.68
1.89
0.29
-1.14
-2.50
-3.81
-5.02
-6.02
-6.73
-7.20
-7.60
-8.12
-8.92
-10.10
-11.67
-13.60
-15.78
-17.96
-19.74
-20.61
-20.11
-18.10
-14.83
-10.87
-6.91
-3.48
-0.79
1.24
2.84
4.20
5.37
6.27
6.86
7.16
7.32
7.48
7.73
8.05
8.28
8.27
7.95
7.40
6.92
6.93
7.91
10.22
13.91
18.67
23.78
28.24
31.15
31.96
30.74
28.16
25.21
22.89
21.81
22.11
23.46
25.30
27.05
28.30
28.93
28.99
28.74
28.37
28.03
27.65
27.08
26.15
24.79
23.04
20.94
18.46
15.47
11.78
7.41
2.65
-1.93
-5.68
-8.06
-8.81
-8.02
-6.03
-3.33
-0.48
1.96
3.54
3.92
2.94
0.54
-3.22
-8.15
-13.89
-19.84
-25.09
-28.62
-29.52
-27.42
-22.58
-15.82
-8.22
-0.73
5.96
11.41
15.33
17.51
17.90
16.74
14.64
12.41
10.75
9.85
9.26
8.05
5.28
0.49
-5.94
-12.92
-18.99
-22.85
-23.82
-22.01
-18.26
-13.86
-10.18
-8.29
-8.61
-10.70
-13.35
-14.91
-14.00
-9.95
-2.89
6.59
17.95
30.83
44.68
58.18
68.93
74.00
71.00
59.39
40.85
18.84
-2.74
-20.69
-33.13
-39.36
-39.53
-34.36
-25.17
-13.89
-2.84
5.99
11.49
13.74
13.71
12.66
11.60
11.08
11.29
12.39
14.57
17.99
22.56
27.90
33.50
38.92
43.98
48.68
52.95
56.42
58.38
58.03
55.03
49.79
43.51
37.84
34.18
33.15
34.35
36.52
38.18
38.02
35.23
29.42
20.56
8.89
-4.95
-19.87
-34.41
-47.09
-56.91
-63.79
-68.52
-72.41
-76.55
-81.24
-85.67
-88.24
-87.31
-81.97
-72.55
-60.68
-48.82
-39.64
-35.08
-35.75
-40.67
-47.34
-52.51
-53.17
-47.68
-36.59
-22.72
-10.56
-4.74
-8.38
-21.78
-42.04
-64.07
-82.34
-92.78
-94.01
-87.46
-76.26
-63.75
-52.19
-42.07
-32.59
-22.50
-11.04
1.49
13.82
24.13
30.59
31.90
27.60
18.18
4.97
-10.27
-25.79
-40.28
-53.07
-64.13
-73.79
-82.45
-90.35
-97.31
-102.46
-104.06
-99.57
-86.29
-62.44
-28.31
13.24
57.24
98.02
130.93
153.40
165.01
166.71
159.87
145.84
126.20
103.26
80.23
60.70
47.59
42.15
43.71
49.99
57.98
64.79
68.21
66.96
60.73
50.11
36.62
22.44
9.96
1.12
-3.24
-3.66
-1.93
-0.32
-0.73
-3.97
-9.61
-16.45
-23.11
-28.75
-33.18
-36.66
-39.42
-41.51
-42.73
-43.02
-42.86
-43.31
-45.63
-50.67
-58.50
-68.35
-78.98
-88.98
-97.13
-102.55
-104.80
-103.84
-99.97
-93.83
-86.25
-78.18
-70.15
-62.06
-53.39
-43.54
-32.28
-20.25
-8.98
-0.53
2.96
0.86
-5.79
-15.12
-25.57
-36.48
-47.94
-60.15
-72.56
-84.48
-93.80
-98.30
-97.35
-92.76
-87.92
-85.98
-88.80
-96.39
-108.96
-125.01
-142.49
-160.30
-178.62
-197.57
-215.47
-228.66
-232.45
-224.84
-204.55
-171.88
-129.46
-81.52
-32.25
15.56
59.53
108.22
156.33
191.44
205.24
200.09
185.43
168.71
154.50
143.28
133.59
122.36
109.64
99.56
95.45
98.12
105.37
113.24
117.14
113.47
99.51
76.77
50.38
26.41
9.49
1.45
1.66
7.61
16.31
24.60
31.47
37.74
44.55
52.34
60.79
69.55
78.52
87.91
97.44
106.84
115.61
122.69
126.84
127.01
122.85
114.78
103.77
90.98
77.88
66.03
56.75
50.78
48.07
47.72
48.14
47.55
44.38
37.74
27.49
14.08
-1.53
-17.92
-33.26
-45.45
-52.72
-54.14
-50.07
-41.94
-31.61
-20.76
-10.51
-1.66
5.02
8.63
8.54
4.95
-0.82
-6.67
-10.54
-11.41
-9.53
-6.02
-1.94
2.38
7.36
13.56
20.99
28.77
35.37
39.30
39.72
36.65
30.83
23.27
14.88
6.37
-1.75
-9.05
-15.03
-19.29
-21.65
-22.34
-21.92
-21.12
-20.58
-20.63
-21.27
-22.19
-23.00
-23.37
-23.11
-22.22
-20.86
-19.38
-18.18
-17.66
-18.10
-19.47
-21.36
-23.03
-23.63
-22.53
-19.45
-14.66
-8.85
-2.85
2.58
6.92
9.88
11.35
11.30
9.83
7.13
3.44
-0.99
-5.90
-11.12
-16.47
-21.74
-26.66
-30.73
-33.56
-35.04
-35.38
-35.01
-34.36
-33.73
-33.26
-32.93
-32.39
-31.52
-30.59
-30.09
-30.31
-31.15
-32.25
-33.16
-33.50
-32.25
-28.76
-22.97
-15.35
-6.42
3.33
13.37
23.05
31.72
40.08
48.61
57.05
64.62
70.75
75.47
79.25
82.63
85.99
90.92
98.08
106.67
114.92
121.31
125.27
127.10
127.72
118.88
98.03
69.81
42.61
21.83
7.52
-3.27
-13.65
-25.27
-38.13
-49.80
-58.44
-63.93
-67.54
-70.39
-72.67
-73.75
-72.95
-69.94
-64.03
-55.72
-46.65
-38.77
-33.22
-29.88
-27.97
-26.38
-24.36
-21.03
-16.34
-11.10
-6.49
-3.34
-1.68
-1.56
-2.26
-2.97
-2.75
-1.13
1.75
5.41
9.43
13.51
16.54
17.65
16.49
13.62
9.95
6.05
2.13
-1.88
-5.88
-9.59
-12.27
-13.25
-12.49
-10.38
-7.74
-5.44
-4.14
-3.96
-4.63
-5.44
-5.77
-5.36
-4.41
-3.45
-2.97
-3.45
-5.08
-7.74
-10.85
-13.63
-15.35
-15.55
-14.14
-11.34
-7.61
-3.48
0.63
4.44
7.91
11.14
14.38
17.86
21.69
25.74
29.64
32.85
34.81
35.05
33.23
29.31
23.51
16.40
8.82
1.75
-4.04
-8.17
-10.92
-13.06
-15.58
-19.38
-24.86
-31.97
-40.25
-49.03
-57.63
-65.45
-71.99
-76.92
-80.09
-81.46
-80.95
-78.24
-72.72
-63.72
-51.08
-35.64
-19.44
-5.29
4.23
7.77
5.76
0.11
-6.68
-12.54
-16.43
-18.28
-18.40
-16.98
-13.87
-8.77
-1.75
6.54
14.93
22.14
27.32
30.36
31.78
32.47
33.21
34.33
35.72
36.94
37.52
37.26
36.30
35.03
33.95
33.33
33.14
33.06
32.67
31.69
30.13
28.26
26.46
24.96
23.71
22.40
20.56
17.83
14.12
9.70
5.08
0.91
-2.19
-3.86
-4.05
-3.12
-1.69
-0.52
-0.22
-1.07
-2.95
-5.44
-8.04
-10.42
-12.54
-14.60
-16.90
-19.60
-22.59
-25.45
-27.53
-28.14
-26.70
-22.92
-16.87
-9.08
-0.51
7.59
13.97
17.70
18.51
16.90
13.93
10.87
8.76
8.10
8.81
10.47
12.55
14.65
16.63
18.40
19.93
21.05
21.59
21.41
20.52
19.12
17.49
15.89
14.43
13.08
11.69
10.07
8.11
5.82
3.31
0.72
-1.85
-4.26
-6.45
-8.38
-10.07
-11.65
-13.33
-15.36
-17.92
-20.94
-24.06
-26.66
-28.01
-27.48
-24.86
-20.40
-14.74
-8.74
-3.14
1.59
5.30
8.11
10.24
11.88
13.16
14.15
14.89
15.43
15.84
16.16
16.41
16.57
16.61
16.50
16.21
15.75
15.23
14.74
14.33
13.98
13.53
12.80
11.68
10.15
8.33
6.37
4.34
2.26
0.12
-2.08
-4.24
-6.28
-8.13
-9.88
-11.66
-13.65
-15.91
-18.45
-21.20
-24.08
-26.94
-29.53
-31.38
-31.93
-30.67
-27.37
-22.26
-16.02
-9.54
-3.66
1.09
4.58
7.02
8.78
10.20
11.49
12.69
13.73
14.50
14.91
14.94
14.68
14.26
13.87
13.66
13.68
13.88
14.11
14.26
14.22
13.99
13.63
13.22
12.79
12.25
11.47
10.31
8.72
6.80
4.79
3.01
1.68
0.80
0.16
-0.61
-1.85
-3.73
-6.09
-8.57
-10.74
-12.30
-13.18
-13.58
-13.84
-14.30
-15.26
-16.84
-18.98
-21.38
-23.51
-24.66
-24.17
-21.61
-16.96
-10.71
-3.68
3.27
9.55
15.01
19.94
24.76
29.73
34.62
38.71
40.96
40.42
36.58
29.62
20.42
10.33
0.82
-6.85
-11.92
-14.22
-14.13
-12.42
-9.93
-7.31
-4.77
-1.97
1.76
7.05
14.16
22.69
31.71
40.04
46.55
50.45
51.25
48.77
43.08
34.66
24.47
13.93
4.66
-2.00
-5.38
-5.55
-2.98
1.92
9.05
18.43
29.70
41.66
52.11
58.45
58.46
51.05
36.57
16.47
-7.16
-32.15
-56.38
-77.74
-94.09
-103.54
-104.94
-98.45
-85.75
-69.75
-53.79
-40.68
-31.94
-27.55
-26.32
-26.53
-26.62
-25.65
-23.41
-20.19
-16.42
-12.46
-8.44
-4.42
-0.54
2.93
5.57
6.97
6.97
5.70
3.56
1.05
-1.46
-3.85
-6.17
-8.50
-10.78
-12.74
-13.95
-14.04
-12.86
-10.59
-7.66
-4.64
-2.08
-0.35
0.35
0.05
-1.04
-2.45
-3.54
-3.61
-2.12
1.08
5.66
10.88
15.87
19.88
22.55
23.88
24.09
23.46
22.15
20.28
17.97
15.43
12.93
10.73
8.94
7.51
6.25
4.99
3.61
2.11
0.60
-0.81
-2.02
-3.02
-3.92
-4.90
-6.18
-7.93
-10.22
-12.91
-15.71
-18.28
-20.36
-21.91
-23.15
-24.50
-26.34
-28.79
-31.48
-33.61
-34.17
-32.32
-27.74
-20.87
-12.69
-4.41
2.90
8.66
12.79
15.53
17.25
18.27
18.73
18.75
18.43
17.90
17.36
16.96
16.78
16.80
16.87
16.79
16.39
15.63
14.59
13.44
12.37
11.43
10.54
9.45
7.92
5.79
3.10
0.05
-3.03
-5.83
-8.15
-9.95
-11.40
-12.81
-14.52
-16.82
-19.81
-23.26
-26.59
-28.97
-29.53
-27.63
-23.14
-16.58
-8.94
-1.45
4.90
9.57
12.58
14.34
15.37
16.06
16.60
17.02
17.28
17.43
17.57
17.80
18.16
18.59
18.93
19.01
18.76
18.19
17.43
16.63
15.94
15.39
14.95
14.47
13.79
12.77
11.30
9.42
7.24
4.99
2.87
1.00
-0.61
-2.09
-3.62
-5.38
-7.43
-9.72
-12.11
-14.44
-16.60
-18.53
-20.30
-22.03
-23.88
-26.02
-28.60
-31.70
-35.22
-38.73
-41.43
-42.31
-40.51
-35.65
-28.09
-18.87
-9.36
-0.83
5.90
10.57
13.38
14.83
15.46
15.78
16.16
16.86
17.93
19.26
20.65
21.90
22.86
23.48
23.74
23.65
23.27
22.71
22.19
21.89
21.92
22.19
22.44
22.34
21.66
20.33
18.49
16.40
14.33
12.49
10.93
9.53
8.07
6.33
4.10
1.34
-1.83
-5.16
-8.31
-11.01
-13.10
-14.66
-15.95
-17.37
-19.33
-22.12
-25.87
-30.38
-35.11
-39.24
-41.78
-41.84
-38.92
-33.11
-25.19
-16.32
-7.79
-0.60
4.72
8.16
10.01
10.65
10.50
9.87
9.04
8.29
7.82
7.73
8.00
8.57
9.27
10.01
10.65
11.12
11.39
11.42
11.28
11.03
10.71
10.22
9.41
8.10
6.20
3.85
1.37
-0.85
-2.50
-3.55
-4.24
-4.97
-6.19
-8.24
-11.26
-15.09
-19.36
-23.45
-26.61
-28.14
-27.49
-24.49
-19.40
-12.88
-5.82
0.90
6.59
10.90
13.79
15.46
16.23
16.39
16.24
16.05
16.13
16.70
17.88
19.54
21.39
23.00
23.97
24.12
23.48
22.35
21.12
20.18
19.74
19.83
20.22
20.55
20.41
19.49
17.68
15.04
11.75
7.97
3.79
-0.78
-5.70
-10.95
-16.40
-21.88
-27.14
-31.77
-35.19
-36.75
-35.93
-32.57
-27.10
-20.43
-13.69
-7.87
-3.49
-0.56
1.35
2.74
4.05
5.44
6.90
8.33
9.66
10.90
12.09
13.23
14.25
15.04
15.48
15.51
15.16
14.57
13.88
13.19
12.46
11.53
10.12
7.97
4.93
1.04
-3.41
-8.00
-12.29
-15.93
-18.79
-20.97
-22.72
-24.35
-26.19
-28.50
-31.38
-34.69
-37.89
-40.14
-40.45
-38.05
-32.75
-25.08
-16.19
-7.44
-0.01
5.45
8.86
10.56
11.11
11.04
10.79
10.62
10.61
10.74
10.85
10.82
10.61
10.31
10.08
10.04
10.22
10.51
10.77
10.84
10.66
10.20
9.55
8.80
8.11
7.64
7.48
7.56
7.67
7.56
7.01
6.05
4.90
3.90
3.28
3.00
2.77
2.14
0.74
-1.59
-4.75
-8.44
-12.26
-15.87
-19.18
-22.44
-26.37
-32.02
-40.50
-52.45
-67.48
-83.98
-99.40
-111.07
-117.22
-117.72
-114.14
-108.92
-104.32
-101.41
-99.84
-98.33
-95.52
-90.73
-84.25
-77.03
-69.94
-63.19
-56.10
-47.34
-35.48
-19.54
0.80
24.95
51.37
77.81
101.60
119.97
130.79
133.24
128.87
121.67
116.85
118.57
127.98
142.48
156.70
164.91
163.26
151.75
133.98
115.04
98.76
86.27
76.31
66.63
55.72
43.21
30.43
19.88
13.58
11.68
12.32
12.68
10.13
3.29
-8.64
-25.21
-44.52
-63.92
-80.68
-92.01
-95.05
-87.73
-66.71
-35.50
-4.91
14.22
18.27
10.92
-1.30
-12.22
-20.59
-26.82
-32.39
-37.96
-42.45
-44.17
-41.65
-35.53
-27.73
-20.70
-16.04
-14.68
-16.27
-19.04
-20.90
-20.73
-18.84
-16.47
-14.93
-14.63
-14.84
-14.60
-13.12
-9.99
-5.03
1.94
10.79
20.62
29.81
37.27
41.66
42.28
39.41
33.53
25.11
14.50
2.82
-7.47
-13.16
-11.48
-2.31
10.96
21.96
25.30
19.07
5.16
-12.58
-30.12
-44.07
-51.93
-50.07
-35.29
-6.75
31.30
70.20
100.09
114.00
110.23
88.73
55.58
17.19
-15.86
-34.93
-37.74
-28.25
-12.68
3.74
17.80
28.59
36.54
41.70
43.30
40.94
35.45
28.88
23.40
20.30
20.01
21.51
23.49
24.37
23.08
19.71
15.34
11.34
8.62
7.58
7.86
8.71
9.12
8.29
6.03
2.81
-0.62
-3.66
-5.86
-7.29
-8.32
-9.60
-11.68
-14.69
-18.10
-21.00
-22.39
-21.50
-18.17
-12.83
-6.43
-0.08
5.33
9.35
11.98
13.45
14.08
14.08
13.56
12.56
11.14
9.47
7.76
6.19
4.86
3.71
2.62
1.41
-0.01
-1.58
-3.14
-4.47
-5.40
-5.91
-6.15
-6.39
-6.97
-8.13
-9.94
-12.21
-14.58
-16.63
-18.07
-18.87
-19.26
-19.62
-20.32
-21.54
-23.20
-25.11
-26.97
-28.58
-29.79
-30.53
-30.76
-30.55
-30.13
-29.82
-29.92
-30.46
-31.06
-30.98
-29.45
-25.99
-20.74
-14.38
-7.93
-2.31
1.95
4.77
6.44
7.36
7.85
8.09
8.15
8.03
7.80
7.54
7.33
7.21
7.13
6.97
6.59
5.90
4.97
4.00
3.23
2.77
2.52
2.22
1.57
0.43
-1.10
-2.73
-4.09
-5.00
-5.44
-5.63
-5.85
-6.28
-7.02
-8.00
-9.11
-10.21
-11.19
-12.03
-12.75
-13.46
-14.38
-15.69
-17.47
-19.47
-21.16
-21.86
-21.02
-18.48
-14.55
-9.88
-5.24
-1.18
2.03
4.43
6.13
7.27
7.89
8.02
7.75
7.25
6.72
6.32
6.10
6.01
5.98
5.91
5.69
5.27
4.63
3.82
2.97
2.21
1.67
1.36
1.13
0.75
-0.02
-1.30
-3.01
-4.89
-6.65
-8.07
-9.10
-9.86
-10.56
-11.37
-12.41
-13.67
-15.12
-16.66
-18.09
-19.14
-19.39
-18.46
-16.13
-12.48
-7.95
-3.14
1.34
5.07
7.88
9.83
11.04
11.63
11.69
11.35
10.77
10.17
9.73
9.54
9.58
9.78
10.03
10.22
10.32
10.32
10.24
10.09
9.84
9.43
8.81
7.90
6.69
5.25
3.68
2.12
0.66
-0.64
-1.77
-2.78
-3.73
-4.68
-5.72
-6.90
-8.24
-9.66
-11.06
-12.32
-13.40
-14.38
-15.48
-16.95
-18.96
-21.38
-23.78
-25.49
-25.80
-24.25
-20.82
-15.92
-10.29
-4.71
0.22
4.16
7.06
9.06
10.46
11.66
13.04
14.96
17.61
20.97
24.77
28.57
31.85
34.10
34.97
34.31
32.18
28.82
24.57
19.83
14.96
10.26
5.97
2.20
-1.01
-3.72
-6.08
-8.28
-10.43
-12.57
-14.62
-16.49
-18.08
-19.41
-20.56
-21.61
-22.62
-23.55
-24.32
-24.79
-24.87
-24.57
-23.95
-23.12
-22.17
-21.10
-19.89
-18.51
-17.01
-15.53
-14.28
-13.35
-12.74
-12.27
-11.72
-10.95
-9.98
-8.96
-8.12
-7.57
-7.31
-7.20
-7.04
-6.68
-6.03
-5.07
-3.85
-2.43
-0.88
0.70
2.18
3.44
4.40
5.03
5.41
5.65
5.90
6.23
6.67
7.16
7.66
8.14
8.63
9.15
9.67
10.11
10.31
10.17
9.67
8.95
8.22
7.73
7.65
8.06
8.90
10.02
11.22
12.31
13.12
13.50
13.36
12.60
11.16
9.08
6.51
3.69
0.91
-1.61
-3.76
-5.53
-6.89
-7.76
-7.93
-7.26
-5.73
-3.58
-1.26
0.77
2.18
2.90
3.07
2.92
2.67
2.44
2.29
2.24
2.27
2.36
2.43
2.37
2.10
1.58
0.86
0.03
-0.79
-1.54
-2.12
-2.53
-2.77
-2.92
-3.10
-3.41
-3.91
-4.56
-5.20
-5.61
-5.62
-5.20
-4.43
-3.53
-2.71
-2.08
-1.67
-1.36
-1.04
-0.62
-0.10
0.45
0.90
1.15
1.14
0.85
0.31
-0.41
-1.27
-2.20
-3.15
-4.09
-5.00
-5.90
-6.82
-7.79
-8.85
-9.97
-11.11
-12.20
-13.20
-14.09
-14.91
-15.74
-16.66
-17.72
-18.89
-19.97
-20.64
-20.50
-19.20
-16.57
-12.74
-8.08
-3.11
1.68
5.97
9.62
12.62
14.97
16.64
17.63
18.03
18.06
18.05
18.26
18.77
19.40
19.80
19.64
18.77
17.30
15.55
13.90
12.58
11.62
10.82
9.89
8.55
6.64
4.24
1.64
-0.72
-2.43
-3.29
-3.37
-3.07
-2.95
-3.45
-4.70
-6.48
-8.27
-9.55
-10.04
-9.84
-9.45
-9.67
-11.21
-14.47
-19.32
-25.03
-30.34
-33.78
-34.07
-30.60
-23.78
-14.82
-5.37
2.91
8.75
11.63
11.87
10.54
9.04
8.35
8.68
9.30
8.73
5.60
-0.43
-8.11
-14.99
-18.51
-17.64
-12.77
-5.51
2.07
8.47
13.49
18.17
23.93
31.56
40.01
48.10
54.76
59.00
59.80
56.71
50.50
43.30
38.29
37.14
40.99
48.98
57.33
60.11
51.78
29.62
-5.55
-49.74
-98.86
-146.61
-185.84
-210.45
-216.67
-203.44
-172.37
-127.89
-66.90
1.57
63.12
107.36
132.47
141.60
138.38
125.68
105.97
83.92
60.82
39.53
23.43
14.15
10.44
9.21
9.46
8.87
6.65
2.90
0.07
0.56
4.50
9.10
10.87
8.11
1.66
-6.11
-12.50
-15.59
-15.19
-12.76
-10.67
-10.49
-12.03
-13.94
-14.54
-13.49
-11.76
-11.22
-12.31
-15.50
-20.24
-25.04
-28.03
-27.91
-24.73
-19.83
-15.18
-12.76
-14.09
-19.87
-29.47
-40.33
-48.90
-51.73
-46.72
-33.77
-14.58
7.77
29.50
47.51
60.87
69.82
75.03
77.21
77.53
78.14
81.98
91.17
103.27
114.91
122.31
123.25
116.96
103.21
82.13
54.64
23.16
-11.50
-45.68
-74.75
-94.96
-105.22
-107.23
-104.87
-95.93
-83.13
-70.69
-60.99
-54.01
-48.09
-41.80
-34.84
-27.72
-20.90
-15.37
-10.86
-5.69
1.15
10.27
20.59
30.21
37.59
42.30
44.17
44.03
43.46
43.59
44.78
46.59
48.49
49.88
50.91
51.47
51.65
51.58
51.20
50.29
48.53
45.84
42.49
39.02
35.65
32.53
29.70
27.07
24.51
21.85
19.04
16.15
13.42
11.02
9.10
7.75
6.92
6.40
5.78
4.51
2.10
-1.75
-7.08
-13.66
-21.04
-28.65
-35.99
-42.82
-49.16
-55.25
-61.34
-67.52
-73.61
-79.26
-84.12
-88.18
-91.82
-95.75
-100.65
-106.81
-113.79
-120.55
-125.83
-128.70
-129.07
-127.71
-125.82
-124.33
-123.38
-122.25
-120.14
-117.17
-114.91
-115.89
-122.05
-133.27
-146.84
-158.47
-164.29
-162.48
-153.64
-139.50
-121.31
-99.01
-72.04
-41.06
-9.08
19.30
40.30
53.39
61.96
71.41
85.84
105.41
126.12
142.05
148.77
145.73
136.41
126.11
118.79
114.94
111.61
104.52
90.83
71.03
48.94
29.80
17.71
13.71
15.59
19.43
21.86
21.84
20.89
21.76
26.58
35.44
46.24
55.84
61.61
62.55
59.58
54.84
50.51
47.86
46.88
46.61
45.86
43.86
40.59
36.65
32.82
29.61
27.06
24.82
22.42
19.57
16.35
13.24
10.82
9.50
9.21
9.37
9.03
7.29
3.63
-1.83
-8.37
-14.92
-20.52
-24.66
-27.49
-29.73
-32.34
-36.05
-40.93
-46.23
-50.58
-52.47
-50.89
-45.76
-37.96
-29.01
-20.37
-12.93
-6.84
-1.65
3.23
8.14
13.08
17.79
22.01
25.64
28.72
31.33
33.45
34.97
35.74
35.78
35.32
34.75
34.40
34.41
34.64
34.73
34.27
32.95
30.70
27.69
24.18
20.45
16.70
13.04
9.50
6.07
2.70
-0.72
-4.35
-8.34
-12.70
-17.23
-21.52
-25.01
-27.12
-27.32
-25.24
-20.70
-13.82
-5.20
4.10
12.71
19.38
23.38
24.85
24.70
24.22
24.47
25.89
28.27
31.01
33.54
35.62
37.31
38.73
39.85
40.36
39.82
37.92
34.71
30.58
26.20
22.28
19.33
17.62
17.17
17.79
19.11
20.70
22.11
22.98
23.13
22.58
21.44
19.85
17.84
15.34
12.23
8.51
4.30
-0.15
-4.65
-9.15
-13.76
-18.55
-23.31
-27.38
-29.76
-29.43
-25.89
-19.44
-11.20
-2.78
4.31
9.10
11.39
11.67
10.84
9.82
9.33
9.70
10.92
12.74
14.77
16.66
18.17
19.15
19.57
19.45
18.80
17.66
16.10
14.29
12.48
10.93
9.83
9.19
8.82
8.35
7.44
5.84
3.54
0.70
-2.41
-5.59
-8.78
-12.07
-15.57
-19.38
-23.53
-27.93
-32.41
-36.59
-39.98
-41.94
-41.90
-39.60
-35.21
-29.39
-23.10
-17.28
-12.59
-9.34
-7.47
-6.75
-6.90
-7.58
-8.37
-8.76
-8.16
-6.18
-2.74
1.74
6.55
10.83
13.96
15.66
16.01
15.24
13.58
11.04
7.53
2.91
-2.82
-9.44
-16.51
-23.39
-29.42
-33.97
-36.65
-37.38
-36.46
-34.48
-32.20
-30.23
-28.77
-27.30
-24.62
-19.08
-9.19
5.59
24.38
44.80
63.65
77.86
85.54
86.50
82.07
74.50
66.13
58.88
54.05
52.36
53.91
58.11
63.67
68.75
71.49
70.69
66.18
58.95
50.60
42.75
36.42
31.88
28.77
26.53
24.83
23.68
23.31
23.95
25.50
27.36
28.59
28.13
25.33
20.25
13.87
7.89
4.23
4.33
8.56
16.10
25.32
34.42
42.06
47.70
51.68
55.14
59.73
67.38
79.72
97.36
119.09
141.64
160.19
170.06
168.76
157.23
139.53
120.91
105.44
94.11
84.86
73.90
58.31
37.70
13.93
-10.44
-33.96
-57.07
-81.50
-108.72
-138.98
-170.18
-198.61
-220.65
-234.72
-241.96
-245.78
-250.71
-260.77
-278.66
-303.75
-331.54
-354.78
-365.78
-358.69
-331.10
-285.01
-226.13
-163.34
-105.17
-57.18
-21.29
3.46
19.73
30.78
39.16
52.57
73.43
97.90
119.55
134.65
142.75
144.46
140.51
130.98
116.89
99.60
81.60
65.93
54.63
47.48
41.93
37.50
32.60
26.54
19.15
11.57
6.10
5.10
9.60
18.65
29.57
38.36
41.60
37.05
25.09
8.84
-6.94
-17.67
-20.49
-14.76
-2.35
13.70
29.90
43.54
53.17
58.37
59.15
55.55
47.66
35.77
20.95
5.06
-9.51
-20.57
-26.76
-28.07
-25.73
-21.70
-18.27
-17.47
-20.71
-28.68
-41.35
-57.84
-76.57
-95.58
-112.99
-127.50
-138.48
-145.90
-150.18
-152.19
-152.92
-153.28
-153.83
-154.64
-155.41
-155.91
-156.08
-156.45
-158.02
-161.43
-166.07
-169.74
-169.14
-160.96
-142.86
-113.63
-74.33
-28.70
17.07
55.74
80.73
87.99
77.28
52.66
22.88
-2.59
-16.93
-18.06
-7.91
9.38
29.45
49.17
67.51
87.29
111.52
140.86
172.69
202.87
227.67
245.10
254.95
258.65
260.70
264.50
270.43
276.51
281.62
287.14
295.77
308.80
305.13
268.11
197.01
108.94
24.74
-41.99
-86.75
-111.78
-124.97
-132.34
-135.08
-132.84
-126.42
-119.24
-114.60
-115.19
-121.72
-132.91
-145.68
-154.51
-154.35
-143.39
-124.22
-101.99
-82.43
-69.52
-64.39
-65.13
-67.17
-65.36
-56.72
-41.61
-22.80
-5.44
5.72
9.07
8.99
7.35
4.21
-1.33
-12.17
-28.27
-47.27
-65.19
-78.23
-84.24
-83.57
-77.61
-68.10
-56.73
-44.56
-32.43
-20.55
-8.29
5.73
22.72
43.59
67.76
92.57
114.20
128.90
134.84
132.76
125.35
115.55
105.68
96.73
88.55
80.79
73.40
66.91
62.05
59.23
57.98
57.20
55.35
50.87
42.76
30.78
15.50
-2.08
-21.16
-41.54
-63.49
-87.15
-111.90
-135.84
-155.95
-168.96
-172.40
-165.60
-149.95
-128.48
-104.88
-82.43
-63.36
-48.74
-38.72
-32.85
-30.24
-29.52
-28.75
-25.65
-18.14
-5.30
11.89
30.37
45.88
54.40
53.79
44.70
30.51
16.17
6.54
4.89
12.05
26.44
44.67
62.65
76.62
84.06
84.18
77.96
67.66
56.09
45.83
38.54
34.81
34.14
35.30
36.74
36.99
35.11
30.88
24.86
18.09
11.73
6.65
3.17
1.11
-0.02
-0.69
-1.11
-1.24
-0.85
0.30
2.30
5.02
8.14
11.32
14.22
16.68
18.64
20.14
21.21
21.87
22.11
21.93
21.41
20.70
19.94
19.16
18.28
17.10
15.44
13.26
10.72
8.16
5.96
4.39
3.40
2.71
1.86
0.46
-1.64
-4.27
-7.04
-9.54
-11.51
-12.94
-14.10
-15.31
-16.91
-19.05
-21.65
-24.37
-26.64
-27.77
-27.18
-24.58
-20.14
-14.44
-8.34
-2.63
2.21
6.08
9.19
11.85
14.28
16.54
18.57
20.25
21.51
22.36
22.81
22.94
22.85
22.67
22.51
22.42
22.34
22.09
21.48
20.35
18.70
16.64
14.39
12.13
9.99
7.90
5.75
3.41
0.78
-2.08
-4.99
-7.73
-10.16
-12.22
-14.03
-15.76
-17.55
-19.46
-21.38
-23.14
-24.48
-25.11
-24.71
-23.03
-20.02
-15.95
-11.40
-7.13
-3.83
-1.81
-0.94
-0.72
-0.52
0.13
1.42
3.22
5.17
6.87
8.03
8.54
8.51
8.18
7.77
7.41
7.03
6.44
5.49
4.17
2.61
1.04
-0.33
-1.46
-2.49
-3.64
-5.11
-6.95
-9.02
-11.06
-12.79
-14.07
-14.92
-15.57
-16.28
-17.31
-18.71
-20.45
-22.36
-24.27
-26.04
-27.50
-28.42
-28.48
-27.40
-25.04
-21.54
-17.35
-13.07
-9.22
-6.08
-3.58
-1.44
0.67
2.95
5.40
7.85
10.12
12.04
13.62
14.90
15.98
16.93
17.78
18.49
19.02
19.34
19.43
19.30
18.99
18.54
17.93
17.09
15.90
14.25
12.12
9.67
7.20
5.05
3.45
2.40
1.66
0.84
-0.39
-2.20
-4.49
-7.04
-9.49
-11.48
-12.69
-12.88
-11.90
-9.84
-6.99
-3.84
-0.95
1.25
2.55
2.99
2.79
2.21
1.46
0.68
-0.08
-0.76
-1.30
-1.66
-1.82
-1.86
-1.89
-2.01
-2.24
-2.50
-2.66
-2.60
-2.34
-2.02
-1.88
-2.10
-2.73
-3.71
-4.86
-6.04
-7.12
-8.06
-8.85
-9.50
-10.11
-10.83
-11.85
-13.29
-15.02
-16.68
-17.71
-17.57
-15.95
-12.97
-9.12
-5.07
-1.46
1.33
3.22
4.32
4.85
5.03
5.01
4.91
4.85
4.93
5.25
5.82
6.56
7.34
7.98
8.35
8.40
8.18
7.80
7.42
7.13
6.90
6.55
5.87
4.68
3.01
1.06
-0.86
-2.48
-3.68
-4.55
-5.34
-6.33
-7.70
-9.50
-11.62
-13.80
-15.68
-16.83
-16.89
-15.63
-13.12
-9.70
-5.94
-2.43
0.40
2.39
3.64
4.39
4.87
5.26
5.60
5.92
6.23
6.61
7.12
7.78
8.52
9.18
9.58
9.59
9.22
8.58
7.89
7.35
7.12
7.18
7.40
7.53
7.29
6.52
5.18
3.49
1.81
0.52
-0.18
-0.31
-0.20
-0.34
-1.16
-2.92
-5.56
-8.72
-11.84
-14.30
-15.57
-15.34
-13.62
-10.75
-7.27
-3.80
-0.86
1.25
2.53
3.19
3.57
3.95
4.50
5.21
5.98
6.69
7.26
7.72
8.14
8.57
8.95
9.13
8.93
8.23
7.01
5.36
3.47
1.50
-0.40
-2.16
-3.75
-5.19
-6.55
-7.87
-9.16
-10.38
-11.46
-12.32
-12.94
-13.39
-13.84
-14.48
-15.47
-16.87
-18.56
-20.27
-21.58
-22.03
-21.26
-19.12
-15.73
-11.46
-6.82
-2.33
1.58
4.69
6.95
8.49
9.51
10.22
10.81
11.39
11.98
12.54
13.00
13.34
13.54
13.64
13.68
13.66
13.55
13.30
12.84
12.11
11.13
9.99
8.80
7.67
6.64
5.64
4.55
3.22
1.54
-0.45
-2.63
-4.77
-6.67
-8.21
-9.34
-10.11
-10.64
-11.15
-11.91
-13.16
-15.01
-17.25
-19.37
-20.62
-20.36
-18.25
-14.50
-9.71
-4.73
-0.24
3.34
5.90
7.57
8.53
9.01
9.19
9.30
9.53
10.03
10.84
11.90
13.06
14.18
15.04
15.49
15.38
14.67
13.44
11.94
10.46
9.29
8.50
7.95
7.31
6.29
4.72
2.71
0.55
-1.41
-2.89
-3.79
-4.19
-4.29
-4.34
-4.56
-5.11
-6.10
-7.46
-8.96
-10.14
-10.44
-9.39
-6.78
-2.84
1.83
6.45
10.31
12.98
14.41
14.79
14.49
13.77
12.83
11.72
10.51
9.28
8.15
7.27
6.65
6.24
5.87
5.39
4.69
3.79
2.81
1.91
1.20
0.68
0.24
-0.32
-1.15
-2.32
-3.74
-5.24
-6.62
-7.75
-8.62
-9.34
-10.09
-11.03
-12.27
-13.89
-15.90
-18.20
-20.53
-22.47
-23.45
-22.97
-20.79
-17.10
-12.51
-7.88
-4.01
-1.36
0.11
0.78
1.14
1.53
2.05
2.61
3.11
3.52
3.92
4.40
4.98
5.54
5.93
5.99
5.70
5.15
4.44
3.72
3.03
2.40
1.84
1.32
0.83
0.32
-0.27
-0.99
-1.86
-2.84
-3.87
-4.87
-5.80
-6.62
-7.37
-8.12
-8.99
-10.10
-11.47
-12.97
-14.27
-14.92
-14.48
-12.68
-9.55
-5.41
-0.80
3.70
7.65
10.79
13.03
14.45
15.12
15.16
14.65
13.74
12.59
11.38
10.27
9.33
8.53
7.79
6.99
6.06
4.99
3.87
2.78
1.82
1.00
0.26
-0.53
-1.53
-2.81
-4.40
-6.18
-7.95
-9.53
-10.83
-11.89
-12.89
-14.03
-15.47
-17.30
-19.46
-21.78
-23.97
-25.66
-26.44
-25.96
-23.98
-20.51
-15.84
-10.46
-4.98
0.03
4.10
7.00
8.68
9.31
9.19
8.76
8.46
8.70
9.76
11.69
14.34
17.33
20.21
22.50
23.90
24.31
23.89
22.97
21.89
20.91
20.08
19.30
18.44
17.40
16.20
14.91
13.58
12.19
10.59
8.58
5.99
2.73
-1.16
-5.53
-10.09
-14.45
-18.12
-20.66
-21.77
-21.40
-19.80
-17.48
-15.02
-12.95
-11.58
-10.95
-10.88
-11.04
-11.11
-10.85
-10.19
-9.22
-8.16
-7.25
-6.67
-6.49
-6.71
-7.24
-8.02
-8.95
-9.96
-10.99
-11.92
-12.67
-13.16
-13.43
-13.56
-13.73
-14.05
-14.53
-15.01
-15.26
-15.10
-14.50
-13.68
-12.94
-12.50
-12.28
-11.90
-10.73
-8.15
-3.85
2.06
8.99
16.10
22.58
27.94
32.08
35.23
37.79
40.07
42.22
44.19
45.83
47.04
47.74
47.92
47.58
46.76
45.50
43.91
42.18
40.46
38.88
37.45
36.11
34.77
33.31
31.64
29.64
27.21
24.33
21.10
17.69
14.34
11.18
8.21
5.26
2.05
-1.63
-5.94
-10.87
-16.21
-21.64
-26.70
-30.86
-33.69
-35.02
-35.01
-34.16
-33.13
-32.50
-32.55
-33.25
-34.31
-35.37
-36.17
-36.57
-36.51
-36.00
-35.02
-33.57
-31.70
-29.53
-27.26
-25.07
-23.13
-21.54
-20.32
-19.49
-19.02
-18.89
-19.04
-19.45
-20.07
-20.86
-21.79
-22.81
-23.83
-24.73
-25.46
-25.97
-26.32
-26.66
-27.16
-27.91
-28.90
-30.03
-31.15
-32.11
-32.83
-33.22
-33.19
-32.56
-31.08
-28.50
-24.67
-19.67
-13.77
-7.43
-1.14
4.68
9.69
13.70
16.59
18.39
19.27
19.57
19.79
20.42
21.80
23.97
26.67
29.53
32.14
34.27
35.87
36.96
37.58
37.77
37.53
36.93
36.11
35.28
34.67
34.45
34.68
35.30
36.15
37.02
37.68
37.88
37.45
36.28
34.43
32.15
29.91
28.32
27.99
29.29
32.24
36.44
41.15
45.55
48.96
51.03
51.79
51.52
50.62
49.45
48.19
46.90
45.48
43.79
41.65
38.90
35.38
30.99
25.69
19.56
12.77
5.55
-1.85
-9.29
-16.72
-24.21
-31.81
-39.52
-47.19
-54.52
-61.15
-66.71
-70.99
-73.91
-75.58
-76.20
-76.03
-75.22
-73.81
-71.71
-68.69
-64.54
-59.13
-52.55
-45.10
-37.29
-29.71
-22.87
-17.09
-12.45
-8.80
-5.88
-3.41
-1.21
0.76
2.44
3.67
4.33
4.41
4.02
3.35
2.55
1.68
0.72
-0.45
-1.92
-3.72
-5.79
-8.05
-10.42
-12.87
-15.37
-17.86
-20.26
-22.44
-24.34
-25.99
-27.51
-29.07
-30.78
-32.61
-34.39
-35.79
-36.44
-36.00
-34.24
-31.09
-26.72
-21.44
-15.73
-10.13
-5.12
-0.98
2.25
4.80
7.06
9.42
12.12
15.22
18.60
22.09
25.56
29.05
32.65
36.43
40.31
44.02
47.21
49.56
51.01
51.77
52.28
53.02
54.28
56.06
58.04
59.70
60.58
60.40
59.14
56.97
54.14
50.92
47.50
44.06
40.69
37.42
34.19
30.92
27.58
24.31
21.43
19.32
18.26
18.24
18.91
19.69
20.00
19.43
17.87
15.44
12.35
8.80
4.90
0.76
-3.51
-7.73
-11.74
-15.41
-18.71
-21.70
-24.44
-26.97
-29.27
-31.25
-32.76
-33.69
-33.93
-33.49
-32.45
-31.03
-29.52
-28.17
-27.13
-26.34
-25.63
-24.77
-23.69
-22.45
-21.29
-20.44
-20.05
-20.14
-20.61
-21.36
-22.26
-23.13
-23.69
-23.55
-22.34
-19.87
-16.28
-12.01
-7.70
-3.94
-1.13
0.64
1.48
1.67
1.49
1.19
0.98
1.03
1.45
2.24
3.33
4.54
5.66
6.52
7.02
7.20
7.15
7.00
6.81
6.54
6.11
5.42
4.48
3.39
2.32
1.43
0.76
0.27
-0.22
-0.89
-1.95
-3.50
-5.52
-7.84
-10.09
-11.78
-12.39
-11.63
-9.48
-6.30
-2.68
0.75
3.54
5.53
6.82
7.62
8.15
8.52
8.73
8.75
8.55
8.18
7.69
7.13
6.52
5.86
5.18
4.51
3.92
3.40
2.94
2.46
1.90
1.19
0.30
-0.77
-1.97
-3.29
-4.62
-5.91
-7.07
-8.09
-9.02
-10.01
-11.19
-12.59
-14.07
-15.29
-15.84
-15.34
-13.64
-10.87
-7.41
-3.77
-0.40
2.38
4.48
5.98
7.04
7.82
8.42
8.88
9.16
9.27
9.19
8.99
8.72
8.46
8.25
8.10
8.00
7.90
7.79
7.62
7.37
6.99
6.41
5.56
4.40
2.96
1.34
-0.30
-1.82
-3.12
-4.15
-4.96
-5.60
-6.17
-6.80
-7.60
-8.70
-10.19
-11.98
-13.82
-15.26
-15.80
-15.03
-12.86
-9.55
-5.65
-1.78
1.54
4.08
5.83
6.94
7.56
7.78
7.71
7.41
7.03
6.69
6.47
6.38
6.37
6.38
6.36
6.30
6.20
6.04
5.84
5.62
5.40
5.16
4.83
4.25
3.29
1.88
0.08
-1.91
-3.87
-5.58
-6.95
-7.97
-8.71
-9.26
-9.73
-10.27
-11.00
-11.98
-13.13
-14.19
-14.76
-14.40
-12.88
-10.25
-6.94
-3.54
-0.63
1.42
2.59
3.05
3.07
2.89
2.57
2.15
1.64
1.15
0.83
0.83
1.20
1.87
2.61
3.20
3.47
3.38
2.98
2.39
1.70
0.94
0.08
-0.92
-2.09
-3.38
-4.70
-5.89
-6.84
-7.49
-7.94
-8.39
-9.09
-10.18
-11.58
-12.91
-13.68
-13.38
-11.78
-9.01
-5.49
-1.80
1.52
4.14
5.97
7.04
7.47
7.42
7.06
6.62
6.32
6.31
6.62
7.14
7.64
7.95
7.97
7.75
7.41
7.05
6.68
6.19
5.50
4.53
3.35
2.06
0.80
-0.37
-1.44
-2.44
-3.43
-4.46
-5.57
-6.82
-8.26
-9.85
-11.39
-12.56
-12.96
-12.25
-10.29
-7.25
-3.58
0.13
3.31
5.55
6.75
7.04
6.79
6.36
6.06
6.03
6.27
6.65
7.02
7.28
7.36
7.28
7.08
6.84
6.59
6.33
6.00
5.55
4.91
4.07
3.07
1.97
0.85
-0.27
-1.37
-2.48
-3.62
-4.84
-6.24
-7.88
-9.82
-11.98
-14.07
-15.67
-16.30
-15.61
-13.56
-10.44
-6.79
-3.22
-0.21
2.08
3.67
4.80
5.67
6.42
7.07
7.61
8.00
8.23
8.34
8.34
8.25
8.05
7.74
7.30
6.77
6.18
5.60
5.09
4.64
4.20
3.65
2.90
1.90
0.73
-0.47
-1.54
-2.39
-3.04
-3.63
-4.29
-5.14
-6.22
-7.57
-9.15
-10.92
-12.72
-14.25
-15.14
-15.00
-13.62
-11.03
-7.54
-3.66
0.09
3.32
5.82
7.61
8.78
9.44
9.67
9.58
9.26
8.87
8.54
8.35
8.30
8.25
8.07
7.69
7.14
6.50
5.85
5.24
4.60
3.80
2.76
1.42
-0.16
-1.82
-3.41
-4.76
-5.81
-6.58
-7.22
-7.95
-9.00
-10.54
-12.59
-15.00
-17.43
-19.40
-20.43
-20.15
-18.47
-15.56
-11.87
-7.99
-4.43
-1.55
0.51
1.84
2.60
3.01
3.25
3.47
3.80
4.36
5.18
6.22
7.36
8.40
9.15
9.49
9.38
8.88
8.06
7.01
5.76
4.33
2.69
0.85
-1.14
-3.19
-5.20
-7.12
-8.94
-10.72
-12.53
-14.41
-16.41
-18.55
-20.77
-22.91
-24.68
-25.73
-25.76
-24.62
-22.46
-19.68
-16.89
-14.60
-13.12
-12.52
-12.72
-13.53
-14.65
-15.62
-15.97
-15.28
-13.36
-10.34
-6.70
-3.07
0.01
2.55
4.90
7.58
11.01
15.54
21.41
28.62
36.77
45.06
52.78
59.16
63.36
64.66
62.85
58.38
52.14
45.12
38.17
32.50
28.87
27.17
26.32
25.09
22.72
19.11
14.73
10.41
8.06
9.55
15.90
26.78
40.71
55.34
67.69
74.81
70.09
51.10
22.42
-6.02
-25.65
-33.98
-34.13
-31.39
-30.08
-31.96
-35.52
-38.17
-38.19
-35.70
-31.86
-27.94
-24.81
-22.63
-21.02
-18.65
-14.21
-7.45
0.59
8.33
14.31
17.41
16.81
11.85
2.60
-9.87
-23.23
-34.57
-40.41
-38.22
-27.90
