1511879852.00
64.000000
-0.00
-0.00
-0.00
-0.00
-0.00
-0.00
-0.00
-0.00
-0.00
-0.00
0.00
0.01
0.01
-0.00
-0.03
-0.05
-0.05
0.00
0.13
0.36
0.66
1.01
1.37
1.72
2.06
2.40
2.79
3.24
3.80
4.42
5.06
5.66
6.20
6.68
7.15
7.68
8.31
9.14
10.09
11.04
11.88
12.56
13.14
13.76
14.65
15.96
17.91
20.32
22.90
25.38
27.58
29.57
31.68
34.32
37.82
42.54
48.15
54.10
59.83
64.97
69.58
74.15
79.38
85.76
93.81
103.00
112.54
121.52
129.41
136.27
142.73
150.13
157.14
166.00
177.27
191.04
206.10
219.57
227.15
224.22
207.40
175.77
131.67
78.88
21.70
-36.61
-94.43
-151.41
-207.59
-262.70
-315.99
-366.13
-412.35
-454.00
-490.45
-520.62
-542.89
-555.30
-556.08
-544.35
-520.18
-485.13
-441.46
-391.69
-338.11
-282.48
-226.17
-170.40
-116.50
-65.91
-20.16
19.60
52.89
80.00
101.75
119.14
132.97
143.57
150.97
154.97
155.39
152.16
145.45
135.97
125.22
115.58
109.83
110.15
117.09
129.18
143.27
155.79
164.10
167.27
165.88
161.19
154.20
145.19
134.16
121.42
107.99
95.38
84.92
77.07
71.17
66.00
60.01
52.37
43.24
33.65
25.00
18.50
14.80
13.93
15.24
17.62
19.74
20.41
18.89
15.21
10.12
4.80
0.35
-2.66
-4.35
-5.27
-6.02
-6.93
-7.95
-8.76
-9.09
-8.83
-8.12
-7.24
-6.49
-6.06
-5.90
-5.78
-5.37
-4.47
-3.17
-1.85
-0.98
-0.90
-1.61
-2.80
-4.00
-4.89
-5.35
-5.42
-5.19
-4.67
-3.84
-2.75
-1.69
-1.02
-1.10
-1.96
-3.30
-4.55
-5.08
-4.52
-2.90
-0.64
1.55
2.94
3.03
1.69
-0.76
-3.59
-5.76
-6.10
-3.71
1.50
8.41
14.82
18.14
16.54
9.94
0.31
-9.09
-15.03
-15.71
-11.42
-4.19
3.39
9.18
12.27
12.88
11.86
10.08
8.09
6.16
4.39
2.89
1.89
1.58
2.04
2.98
3.82
3.89
2.73
0.28
-3.01
-6.38
-9.07
-10.71
-11.34
-11.35
-11.17
-11.11
-11.22
-11.37
-11.37
-11.07
-10.44
-9.51
-8.37
-7.14
-6.01
-5.15
-4.63
-4.29
-3.70
-2.37
0.04
3.41
7.08
10.08
11.53
11.04
8.86
5.73
2.48
-0.33
-2.58
-4.45
-6.18
-7.84
-9.30
-10.34
-10.85
-10.90
-10.65
-10.19
-9.49
-8.36
-6.67
-4.47
-2.07
0.03
1.38
1.85
1.72
1.64
2.24
3.80
6.05
8.15
9.06
7.90
4.14
-1.91
-9.05
-15.57
-19.55
-19.54
-15.12
-7.22
1.98
9.70
13.58
12.51
7.06
-0.76
-8.43
-13.85
-16.04
-15.15
-12.12
-7.97
-3.49
0.81
4.59
7.43
8.84
8.44
6.17
2.46
-1.85
-5.73
-8.31
-9.15
-8.35
-6.44
-4.15
-2.11
-0.65
0.23
0.74
1.03
1.08
0.63
-0.61
-2.78
-5.62
-8.63
-11.13
-12.72
-13.39
-13.59
-14.07
-15.48
-18.12
-21.66
-25.10
-27.01
-25.97
-21.06
-12.32
-0.79
11.73
23.24
32.15
37.62
39.57
38.43
34.78
29.23
22.42
15.16
8.40
3.14
0.06
-0.61
0.81
3.57
6.84
9.86
12.18
13.58
14.11
13.89
13.06
11.77
10.14
8.33
6.61
5.27
4.58
4.67
5.38
6.34
7.11
7.33
6.92
6.09
5.25
4.85
5.20
6.40
8.28
10.44
12.30
13.20
12.50
9.74
4.80
-1.98
-9.82
-17.55
-23.88
-27.75
-28.54
-26.23
-21.41
-15.07
-8.41
-2.51
1.80
4.11
4.44
3.14
0.77
-2.01
-4.67
-6.81
-8.30
-9.17
-9.66
-10.04
-10.56
-11.30
-12.09
-12.58
-12.38
-11.24
-9.14
-6.36
-3.30
-0.41
1.95
3.56
4.37
4.51
4.37
4.58
5.81
8.59
13.01
18.63
24.56
29.77
33.33
34.67
33.54
29.90
23.84
15.62
5.76
-4.80
-14.76
-22.69
-27.34
-28.00
-24.74
-18.33
-10.12
-1.71
5.37
9.95
11.39
9.70
5.58
0.14
-5.30
-9.60
-12.05
-12.44
-11.03
-8.37
-5.10
-1.81
1.01
3.01
3.98
3.83
2.67
0.76
-1.51
-3.79
-5.85
-7.73
-9.72
-12.17
-15.25
-18.71
-21.88
-23.81
-23.68
-21.24
-16.98
-12.08
-8.00
-6.00
-6.68
-9.91
-14.94
-20.64
-25.77
-29.15
-29.75
-26.89
-20.43
-10.93
0.34
11.65
21.26
27.96
31.39
32.07
31.07
29.65
28.83
29.17
30.72
33.12
35.68
37.57
37.94
36.08
31.59
24.54
15.48
5.45
-4.31
-12.56
-18.33
-21.07
-20.73
-17.67
-12.62
-6.51
-0.37
4.85
8.41
9.89
9.26
6.85
3.30
-0.54
-3.79
-5.67
-5.72
-3.90
-0.60
3.43
7.33
10.35
12.02
12.19
11.00
8.79
5.96
2.90
-0.11
-2.87
-5.29
-7.30
-8.75
-9.44
-9.15
-7.80
-5.48
-2.50
0.64
3.43
5.40
6.22
5.73
3.98
1.26
-1.92
-4.93
-7.19
-8.46
-8.87
-8.94
-9.27
-10.24
-11.80
-13.43
-14.44
-14.29
-12.83
-10.41
-7.68
-5.30
-3.75
-3.13
-3.24
-3.61
-3.59
-2.55
-0.11
3.66
8.07
11.96
14.07
13.60
10.66
6.32
2.23
0.01
0.52
3.64
8.40
13.44
17.57
20.10
20.79
19.72
16.97
12.63
6.78
-0.21
-7.63
-14.49
-19.73
-22.53
-22.59
-20.12
-15.77
-10.38
-4.83
0.12
3.83
5.80
5.79
4.03
1.28
-1.23
-2.19
-0.76
3.04
8.30
13.66
17.82
20.03
20.17
18.54
15.45
11.03
5.33
-1.45
-8.64
-15.19
-19.94
-22.07
-21.43
-18.60
-14.64
-10.68
-7.57
-5.61
-4.58
-3.99
-3.35
-2.36
-1.08
0.24
1.30
1.92
2.11
2.05
1.95
1.93
1.97
1.96
1.78
1.44
1.09
0.88
0.91
1.09
1.19
0.97
0.30
-0.73
-1.85
-2.77
-3.30
-3.43
-3.31
-3.14
-3.07
-3.09
-3.11
-3.01
-2.74
-2.35
-1.93
-1.61
-1.49
-1.61
-2.02
-2.78
-3.89
-5.25
-6.60
-7.53
-7.62
-6.59
-4.42
-1.36
2.15
5.62
8.65
10.91
12.25
12.62
12.14
11.06
9.76
8.57
7.71
7.17
6.72
6.00
4.64
2.42
-0.70
-4.53
-8.67
-12.64
-15.93
-18.12
-19.00
-18.58
-17.06
-14.72
-11.88
-8.82
-5.84
-3.32
-1.70
-1.46
-2.97
-6.24
-10.76
-15.33
-18.29
-17.87
-12.85
-3.18
9.80
23.52
34.98
41.69
42.48
37.78
29.34
19.45
10.20
2.97
-1.71
-4.02
-4.49
-3.85
-2.86
-2.22
-2.45
-3.82
-6.24
-9.25
-12.19
-14.45
-15.69
-15.93
-15.43
-14.53
-13.41
-12.07
-10.37
-8.28
-5.94
-3.62
-1.59
0.01
1.18
1.97
2.27
1.98
1.14
0.12
-0.38
0.28
2.23
4.87
7.15
8.22
8.03
7.56
8.28
11.32
16.73
23.41
29.57
33.57
34.55
32.55
28.17
22.17
15.08
7.27
-0.90
-8.95
-16.22
-21.99
-25.64
-26.75
-25.20
-21.22
-15.40
-8.64
-2.01
3.49
7.14
8.61
7.94
5.48
1.65
-2.99
-7.81
-11.92
-14.34
-14.18
-11.10
-5.48
1.52
8.43
14.02
17.79
20.03
21.52
22.98
24.62
26.02
26.37
24.91
21.24
15.48
8.14
-0.08
-8.46
-16.30
-22.93
-27.70
-30.02
-29.47
-25.97
-20.04
-12.70
-5.44
0.28
3.34
3.42
0.97
-2.99
-7.25
-10.97
-13.82
-15.91
-17.43
-18.20
-17.60
-14.80
-9.37
-1.71
6.79
14.30
19.39
21.73
22.29
22.78
24.79
28.86
34.24
39.22
41.99
41.31
36.91
29.31
19.39
8.05
-3.98
-16.07
-27.47
-37.24
-44.19
-47.24
-45.69
-39.60
-29.87
-18.15
-6.46
3.35
9.98
12.93
12.45
9.32
4.57
-0.67
-5.29
-8.20
-8.57
-6.03
-0.90
5.72
12.22
16.89
18.56
16.90
12.56
6.88
1.43
-2.52
-4.32
-3.96
-1.94
1.01
4.13
6.73
8.22
8.15
6.25
2.59
-2.34
-7.70
-12.54
-16.03
-17.85
-18.17
-17.57
-16.73
-16.12
-15.81
-15.51
-14.78
-13.29
-11.02
-8.29
-5.61
-3.47
-2.20
-1.83
-2.15
-2.76
-3.13
-2.68
-0.95
2.21
6.49
11.09
14.92
17.00
16.82
14.64
11.41
8.37
6.63
6.69
8.38
10.97
13.48
15.09
15.29
13.94
11.20
7.36
2.72
-2.40
-7.65
-12.60
-16.75
-19.65
-21.01
-20.85
-19.39
-17.06
-14.26
-11.30
-8.32
-5.40
-2.60
-0.07
2.01
3.53
4.59
5.49
6.65
8.41
10.85
13.64
16.17
17.74
17.85
16.34
13.48
9.83
6.02
2.66
0.18
-1.22
-1.55
-1.06
-0.24
0.30
-0.02
-1.62
-4.48
-8.16
-11.86
-14.67
-15.99
-15.63
-13.94
-11.61
-9.29
-7.40
-5.94
-4.61
-3.06
-1.19
0.80
2.36
2.87
1.85
-0.80
-4.69
-8.91
-12.27
-13.58
-12.11
-7.97
-2.12
3.88
8.55
11.04
11.49
10.85
10.38
10.95
12.71
15.12
17.29
18.55
18.68
17.89
16.50
14.65
12.18
8.72
3.99
-1.86
-8.22
-14.12
-18.58
-20.90
-20.90
-18.87
-15.33
-10.88
-6.02
-1.13
3.45
7.37
10.21
11.61
11.33
9.38
6.09
2.04
-1.98
-5.14
-6.74
-6.36
-4.04
-0.30
3.92
7.52
9.54
9.39
7.01
2.91
-2.10
-7.10
-11.30
-14.22
-15.66
-15.62
-14.24
-11.76
-8.48
-4.84
-1.36
1.42
3.07
3.40
2.44
0.50
-2.00
-4.62
-7.02
-8.99
-10.44
-11.40
-11.93
-12.09
-11.90
-11.36
-10.42
-9.10
-7.47
-5.72
-4.07
-2.76
-1.97
-1.75
-1.93
-2.13
-1.79
-0.31
2.68
7.16
12.59
18.05
22.60
25.58
26.81
26.63
25.58
24.16
22.60
20.92
18.99
16.72
14.13
11.37
8.60
6.01
3.75
1.94
0.65
-0.15
-0.58
-0.85
-1.22
-1.88
-2.90
-4.25
-5.76
-7.21
-8.39
-9.10
-9.27
-8.92
-8.17
-7.19
-6.16
-5.18
-4.26
-3.32
-2.27
-1.03
0.37
1.78
2.95
3.62
3.60
2.91
1.75
0.48
-0.50
-0.92
-0.63
0.36
1.96
4.06
6.48
9.00
11.26
12.77
13.05
11.72
8.73
4.38
-0.73
-5.79
-10.05
-12.95
-14.27
-14.09
-12.69
-10.47
-7.77
-4.90
-2.08
0.48
2.58
4.00
4.58
4.23
3.05
1.29
-0.65
-2.32
-3.36
-3.62
-3.22
-2.48
-1.83
-1.60
-1.95
-2.85
-4.12
-5.53
-6.78
-7.47
-7.09
-5.15
-1.42
3.86
9.92
15.66
20.05
22.53
23.15
22.47
21.22
19.92
18.72
17.38
15.43
12.42
8.01
2.11
-5.12
-13.25
-21.62
-29.45
-35.94
-40.34
-42.07
-40.75
-36.33
-29.13
-19.92
-9.83
-0.13
8.00
13.77
16.90
17.56
16.24
13.58
10.14
6.40
2.73
-0.57
-3.28
-5.31
-6.67
-7.52
-8.13
-8.72
-9.33
-9.65
-9.09
-6.97
-2.86
3.04
9.86
16.30
21.07
23.36
23.12
20.89
17.54
13.81
10.14
6.67
3.44
0.59
-1.64
-3.00
-3.43
-3.12
-2.49
-1.98
-1.87
-2.24
-2.96
-3.78
-4.50
-4.97
-5.18
-5.18
-5.07
-4.98
-5.04
-5.34
-5.86
-6.48
-6.93
-6.92
-6.23
-4.83
-2.90
-0.78
1.13
2.51
3.20
3.13
2.34
0.87
-1.11
-3.30
-5.16
-6.05
-5.44
-3.17
0.39
4.45
8.08
10.58
11.60
11.21
9.61
6.98
3.44
-0.80
-5.24
-9.11
-11.46
-11.59
-9.36
-5.27
-0.35
4.27
7.70
9.53
9.78
8.77
6.83
4.17
0.89
-2.97
-7.25
-11.57
-15.33
-17.88
-18.66
-17.49
-14.70
-11.05
-7.59
-5.33
-4.96
-6.75
-10.44
-15.29
-20.07
-23.21
-23.08
-18.56
-9.54
2.75
16.02
27.57
35.19
37.81
35.69
30.02
22.37
14.13
6.35
-0.13
-4.63
-6.59
-5.84
-2.84
1.36
5.36
7.95
8.54
7.35
5.16
2.92
1.26
0.25
-0.45
-1.32
-2.61
-4.23
-5.76
-6.72
-6.76
-5.82
-4.10
-2.05
-0.23
0.72
0.24
-1.90
-5.35
-9.03
-11.28
-10.51
-5.94
1.82
10.80
18.44
22.66
22.84
19.95
16.09
13.34
12.89
14.61
17.37
19.75
20.56
19.20
15.45
9.38
1.21
-8.55
-18.94
-28.52
-35.64
-38.92
-37.74
-32.53
-24.66
-15.96
-8.11
-2.15
1.66
3.65
4.44
4.54
4.29
3.79
3.03
2.00
0.84
-0.04
0.03
1.85
5.93
12.08
19.20
25.51
29.23
29.39
26.31
21.45
16.62
13.15
11.37
10.67
10.10
8.97
7.19
5.02
2.73
0.25
-2.78
-6.71
-11.57
-16.82
-21.50
-24.60
-25.50
-24.17
-21.16
-17.33
-13.55
-10.40
-8.08
-6.52
-5.54
-5.04
-4.99
-5.46
-6.43
-7.77
-9.22
-10.34
-10.63
-9.58
-6.88
-2.52
2.97
8.60
13.13
15.50
15.22
12.60
8.66
4.71
1.90
0.90
1.76
3.99
6.87
9.64
11.73
12.76
12.62
11.39
9.26
6.49
3.33
0.07
-3.07
-5.84
-8.03
-9.43
-9.87
-9.25
-7.57
-5.00
-1.90
1.25
3.93
5.65
6.03
4.88
2.22
-1.57
-5.64
-8.72
-9.47
-7.00
-1.40
6.05
13.25
18.00
18.91
15.92
10.19
3.55
-2.34
-6.44
-8.54
-8.89
-7.88
-5.77
-2.80
0.63
3.89
6.14
6.66
5.11
1.76
-2.56
-6.75
-9.74
-10.88
-10.03
-7.64
-4.53
-1.66
0.17
0.60
-0.27
-1.91
-3.63
-4.84
-5.27
-5.02
-4.48
-4.12
-4.36
-5.41
-7.22
-9.45
-11.38
-12.08
-10.60
-6.46
-0.01
7.47
14.15
18.27
18.95
16.49
12.24
7.88
4.74
3.30
3.25
3.89
4.63
5.19
5.57
5.71
5.31
3.91
1.09
-3.17
-8.29
-13.25
-16.90
-18.41
-17.56
-14.82
-11.10
-7.43
-4.58
-2.83
-1.98
-1.57
-1.16
-0.53
0.21
0.69
0.54
-0.47
-2.27
-4.48
-6.51
-7.68
-7.34
-5.10
-0.91
4.80
11.27
17.49
22.54
25.75
26.83
25.87
23.23
19.41
15.01
10.61
6.76
3.92
2.39
2.23
3.21
4.83
6.31
6.80
5.57
2.22
-3.01
-9.27
-15.27
-19.67
-21.52
-20.56
-17.29
-12.75
-8.16
-4.64
-2.96
-3.49
-6.10
-10.10
-14.26
-17.01
-16.89
-13.09
-5.89
3.42
12.97
21.03
26.52
29.25
29.68
28.53
26.43
23.75
20.70
17.34
13.58
9.14
3.57
-3.51
-12.10
-21.55
-30.60
-37.68
-41.40
-40.97
-36.44
-28.70
-19.23
-9.70
-1.56
4.21
7.28
7.86
6.57
4.15
1.26
-1.65
-4.36
-6.73
-8.53
-9.37
-8.77
-6.35
-2.14
3.40
9.37
14.72
18.54
20.26
19.78
17.38
13.62
9.21
4.89
1.34
-0.92
-1.69
-1.07
0.55
2.61
4.52
5.71
5.75
4.42
1.80
-1.72
-5.45
-8.58
-10.47
-10.80
-9.73
-7.77
-5.59
-3.81
-2.81
-2.72
-3.50
-5.01
-7.06
-9.39
-11.55
-12.92
-12.82
-10.79
-6.83
-1.54
4.01
8.67
11.64
12.76
12.56
11.95
11.81
12.55
13.99
15.50
16.31
15.78
13.65
9.98
5.12
-0.54
-6.59
-12.62
-18.20
-22.81
-25.86
-26.83
-25.43
-21.73
-16.27
-9.96
-3.96
0.58
2.74
1.99
-1.62
-7.36
-13.84
-19.16
-21.46
-19.53
-13.29
-3.90
6.63
16.20
23.30
27.33
28.55
27.63
25.29
22.09
18.45
14.74
11.36
8.70
6.96
6.14
6.01
6.20
6.38
6.25
5.64
4.54
3.13
1.67
0.45
-0.36
-0.73
-0.86
-1.02
-1.45
-2.30
-3.53
-5.03
-6.62
-8.15
-9.57
-10.87
-12.04
-13.02
-13.70
-14.01
-13.96
-13.66
-13.26
-12.90
-12.60
-12.26
-11.71
-10.78
-9.33
-7.35
-4.95
-2.38
0.02
1.93
3.07
3.35
2.90
2.08
1.35
1.17
1.79
3.17
5.01
6.83
8.15
8.64
8.19
6.89
4.91
2.44
-0.40
-3.49
-6.67
-9.66
-12.12
-13.67
-14.03
-13.12
-11.06
-8.13
-4.67
-1.02
2.53
5.73
8.30
10.04
10.84
10.84
10.45
10.17
10.45
11.44
12.91
14.32
15.00
14.33
11.93
7.71
1.88
-4.99
-12.06
-18.29
-22.65
-24.38
-23.15
-19.23
-13.37
-6.65
-0.21
4.98
8.27
9.39
8.41
5.71
1.83
-2.62
-7.05
-10.95
-13.98
-16.08
-17.46
-18.50
-19.59
-20.88
-22.19
-23.10
-23.14
-21.96
-19.41
-15.49
-10.35
-4.20
2.63
9.68
16.48
22.69
28.32
33.65
39.05
44.59
49.80
53.65
54.86
52.39
45.89
35.87
23.55
10.47
-1.93
-12.61
-20.94
-26.55
-29.23
-28.86
-25.57
-19.88
-12.79
-5.59
0.40
4.20
5.41
4.28
1.60
-1.53
-4.01
-4.97
-4.01
-1.23
2.82
7.31
11.43
14.64
16.81
18.21
19.37
20.88
23.17
26.51
30.91
36.34
42.68
49.81
57.43
65.01
71.73
76.67
78.97
78.09
73.90
66.61
56.68
44.63
31.00
16.40
1.53
-12.70
-25.22
-34.92
-40.92
-42.87
-41.09
-36.58
-30.72
-24.80
-19.61
-15.27
-11.35
-7.24
-2.43
3.32
9.99
17.42
25.35
33.37
40.89
47.23
51.75
54.17
54.68
53.90
52.72
51.96
52.16
53.40
55.36
57.42
58.95
59.53
59.11
58.08
57.06
56.70
57.42
59.28
61.98
64.92
67.45
68.95
69.08
67.81
65.45
62.59
59.87
57.75
56.25
54.81
52.26
47.13
38.06
24.33
6.16
-15.19
-37.78
-59.50
-78.59
-93.95
-105.16
-112.30
-115.72
-115.92
-113.59
-109.49
-104.43
-99.11
-93.97
-89.14
-84.56
-80.16
-75.90
-71.94
-68.51
-65.87
-64.20
-63.54
-63.74
-64.46
-65.30
-65.84
-65.80
-65.08
-63.77
-62.03
-60.03
-57.89
-55.66
-53.39
-51.22
-49.29
-47.68
-46.35
-45.09
-43.72
-42.11
-40.32
-38.52
-36.85
-35.30
-33.71
-31.86
-29.58
-26.89
-23.94
-20.87
-17.78
-14.67
-11.49
-8.20
-4.87
-1.62
1.41
4.12
6.48
8.55
10.42
12.23
14.05
15.82
17.37
18.43
18.71
18.04
16.45
14.14
11.46
8.79
6.46
4.70
3.62
3.19
3.23
3.42
3.40
2.86
1.66
-0.10
-2.10
-3.89
-5.06
-5.34
-4.68
-3.27
-1.42
0.50
2.17
3.38
4.03
4.20
4.02
3.68
3.33
3.06
2.94
2.88
2.70
2.12
0.96
-0.69
-2.32
-3.13
-2.38
0.16
4.01
8.14
11.50
13.45
14.00
13.58
12.61
11.17
9.07
6.10
2.41
-1.44
-4.87
-7.48
-9.22
-10.22
-10.70
-10.73
-10.23
-9.04
-7.10
-4.60
-1.78
1.30
4.70
8.51
12.59
16.64
20.21
22.96
24.36
24.21
22.69
20.35
17.79
15.41
13.41
11.79
10.40
8.03
3.68
-2.82
-10.79
-19.22
-27.34
-34.75
-41.22
-46.55
-52.59
-60.75
-71.10
-82.27
-92.58
-101.06
-107.46
-111.87
-114.33
-118.12
-125.86
-137.95
-152.35
-166.47
-178.70
-188.53
-195.77
-199.90
-204.21
-211.00
-220.18
-229.74
-238.61
-248.46
-262.93
-285.27
-289.45
-257.94
-189.78
-101.76
-14.31
59.83
116.26
155.50
180.40
194.54
197.06
187.20
167.25
143.76
125.38
119.48
129.62
154.28
187.07
218.03
238.00
243.18
236.39
224.12
212.16
202.91
195.12
185.51
169.39
144.75
114.10
83.41
58.92
44.21
39.58
43.06
51.09
60.08
67.44
72.27
75.04
76.41
76.37
74.44
70.28
64.31
57.55
51.44
47.50
46.64
48.62
52.05
54.99
55.81
53.71
48.93
42.21
34.45
26.27
17.98
9.64
1.36
-6.60
-13.83
-19.79
-24.04
-26.27
-26.45
-24.84
-21.99
-18.66
-15.64
-13.54
-12.66
-12.93
-14.01
-15.45
-16.79
-17.71
-18.06
-17.85
-17.27
-16.57
-16.02
-15.81
-16.02
-16.54
-17.20
-17.80
-18.26
-18.66
-19.20
-20.13
-21.57
-23.40
-25.26
-26.68
-27.26
-26.86
-25.61
-23.90
-22.13
-20.53
-19.11
-17.67
-15.97
-13.77
-10.88
-7.27
-3.09
1.14
4.49
5.82
4.13
-0.83
-8.28
-16.34
-22.60
-24.91
-22.17
-14.72
-4.14
7.41
17.94
26.23
31.92
35.23
36.53
36.04
33.86
30.08
25.18
20.06
15.87
13.58
13.59
15.53
18.37
20.85
21.97
21.26
18.91
15.55
11.86
8.32
5.04
1.82
-1.63
-5.56
-10.08
-15.25
-21.04
-27.22
-33.22
-38.01
-40.23
-38.59
-32.38
-21.87
-8.36
6.15
19.53
30.04
36.65
39.11
37.71
33.15
26.32
18.17
9.74
2.01
-4.16
-8.21
-10.01
-9.90
-8.59
-6.90
-5.48
-4.71
-4.74
-5.73
-7.88
-11.47
-16.55
-22.75
-29.24
-34.98
-39.14
-41.47
-42.27
-42.16
-41.67
-40.99
-40.05
-38.74
-37.21
-35.91
-35.36
-35.91
-37.51
-39.85
-42.46
-45.01
-47.36
-49.51
-51.41
-52.91
-53.78
-53.84
-53.04
-51.49
-49.38
-46.81
-43.84
-40.49
-36.81
-32.78
-28.12
-22.16
-13.98
-2.86
11.20
27.08
42.78
56.01
65.01
69.15
68.98
65.85
61.17
55.90
50.33
44.31
37.62
30.30
22.82
15.98
10.63
7.43
6.62
7.95
10.70
13.82
16.12
16.59
14.62
10.32
4.57
-1.01
-4.58
-4.58
-0.29
7.94
18.88
30.96
42.86
53.90
64.02
73.30
81.50
87.76
90.81
89.45
83.27
72.97
60.25
47.20
35.51
25.84
17.72
9.96
1.33
-8.89
-20.61
-33.02
-44.83
-54.66
-61.35
-64.40
-64.18
-61.91
-59.30
-57.86
-58.18
-59.63
-60.65
-59.49
-55.22
-48.10
-39.44
-30.82
-23.29
-16.96
-11.23
-5.43
0.69
6.76
12.06
15.96
18.28
19.27
19.38
18.89
17.75
15.73
12.66
8.72
4.53
0.93
-1.19
-1.24
0.91
4.96
10.23
15.87
21.04
25.16
27.98
29.60
30.33
30.54
30.53
30.44
30.33
30.20
30.15
30.24
30.53
30.89
31.05
30.65
29.41
27.18
24.04
20.26
16.22
12.33
8.92
6.21
4.20
2.71
1.41
-0.03
-1.86
-4.10
-6.59
-9.09
-11.36
-13.27
-14.79
-15.94
-16.82
-17.58
-18.46
-19.76
-21.70
-24.23
-27.03
-29.57
-31.29
-31.83
-31.15
-29.44
-27.03
-24.27
-21.40
-18.56
-15.87
-13.36
-11.07
-8.98
-7.05
-5.32
-3.90
-3.03
-2.96
-3.86
-5.70
-8.16
-10.73
-12.83
-14.05
-14.20
-13.36
-11.78
-9.76
-7.50
-5.09
-2.59
-0.06
2.34
4.39
5.87
6.70
6.88
6.59
6.01
5.29
4.42
3.33
1.88
0.05
-2.00
-4.00
-5.62
-6.60
-6.85
-6.44
-5.60
-4.59
-3.64
-2.90
-2.50
-2.55
-3.14
-4.34
-6.07
-8.12
-10.08
-11.49
-11.94
-11.25
-9.53
-7.14
-4.51
-2.02
0.14
1.97
3.48
4.68
5.46
5.70
5.35
4.53
3.53
2.63
2.00
1.60
1.26
0.77
0.05
-0.80
-1.57
-2.07
-2.30
-2.44
-2.74
-3.45
-4.70
-6.46
-8.63
-11.08
-13.67
-16.14
-18.23
-19.61
-20.02
-19.44
-18.09
-16.38
-14.74
-13.40
-12.32
-11.23
-9.85
-8.02
-5.85
-3.64
-1.74
-0.41
0.30
0.54
0.59
0.78
1.34
2.36
3.77
5.34
6.83
8.02
8.79
9.16
9.23
9.09
8.83
8.46
7.96
7.23
6.19
4.74
2.83
0.52
-1.99
-4.34
-6.13
-6.99
-6.71
-5.31
-3.02
-0.19
2.76
5.44
7.58
9.07
9.92
10.29
10.43
10.54
10.78
11.19
11.70
12.17
12.52
12.71
12.73
12.65
12.52
12.39
12.28
12.19
12.08
11.85
11.38
10.53
9.21
7.45
5.38
3.25
1.34
-0.14
-1.08
-1.50
-1.55
-1.42
-1.27
-1.19
-1.18
-1.20
-1.23
-1.27
-1.33
-1.45
-1.62
-1.81
-1.89
-1.80
-1.47
-0.92
-0.27
0.32
0.72
0.86
0.78
0.52
0.16
-0.31
-0.93
-1.77
-2.86
-4.21
-5.78
-7.51
-9.27
-10.90
-12.19
-12.90
-12.82
-11.87
-10.11
-7.76
-5.07
-2.37
0.06
1.95
3.08
3.33
2.76
1.61
0.29
-0.79
-1.32
-1.23
-0.63
0.21
1.00
1.51
1.64
1.38
0.80
0.02
-0.82
-1.56
-2.17
-2.68
-3.19
-3.77
-4.42
-5.00
-5.30
-5.16
-4.49
-3.37
-1.95
-0.39
1.20
2.77
4.34
5.86
7.27
8.47
9.38
9.90
10.04
9.83
9.36
8.75
8.13
7.57
7.11
6.70
6.33
5.98
5.68
5.48
5.41
5.44
5.50
5.49
5.31
4.96
4.49
4.00
3.61
3.36
3.23
3.14
3.00
2.80
2.69
2.97
3.98
6.03
9.23
13.41
18.09
22.66
26.44
28.89
29.77
29.16
27.44
25.16
22.87
20.93
19.47
18.39
17.47
16.50
15.35
14.01
12.56
11.07
9.65
8.38
7.37
6.73
6.48
6.53
6.63
6.44
5.64
4.04
1.70
-1.13
-4.07
-6.78
-9.10
-11.04
-12.75
-14.45
-16.34
-18.50
-20.96
-23.61
-26.24
-28.58
-30.30
-31.15
-30.97
-29.77
-27.71
-25.12
-22.37
-19.83
-17.74
-16.16
-14.87
-13.46
-11.34
-7.96
-2.97
3.59
11.18
18.93
25.85
31.23
34.80
36.84
37.92
38.57
38.98
38.90
37.88
35.59
32.09
27.86
23.49
19.36
15.33
10.76
4.82
-3.04
-12.75
-23.52
-34.08
-43.18
-50.13
-55.04
-58.73
-62.28
-66.50
-71.48
-76.55
-80.46
-81.86
-79.55
-72.86
-61.73
-46.97
-30.29
-14.14
-1.11
6.96
9.91
9.46
8.77
11.13
18.76
31.94
49.17
67.97
85.99
101.69
114.48
124.16
130.34
132.14
128.43
118.55
102.93
83.45
63.01
44.56
30.01
19.63
12.25
6.11
0.05
-5.81
-10.21
-11.56
-9.00
-2.99
4.78
12.18
17.49
19.99
20.05
18.61
16.76
15.26
14.50
14.56
15.30
16.47
17.80
19.01
19.91
20.37
20.27
19.49
17.76
14.90
10.91
6.13
1.20
-3.28
-7.07
-10.51
-14.35
-19.31
-25.61
-32.77
-39.97
-46.51
-52.21
-57.37
-62.35
-67.01
-70.58
-72.01
-70.75
-67.24
-62.89
-59.38
-57.80
-58.05
-59.06
-59.50
-58.62
-56.62
-54.34
-52.67
-51.92
-51.82
-51.86
-51.73
-51.54
-51.52
-51.58
-51.09
-48.99
-44.39
-37.05
-27.60
-17.26
-7.35
1.14
7.76
12.44
15.37
16.89
17.54
18.05
19.12
21.18
24.16
27.45
30.20
31.73
31.77
30.60
28.74
26.78
25.04
23.68
22.72
22.24
22.45
23.61
25.86
29.12
32.99
36.89
40.21
42.56
43.82
44.11
43.71
42.85
41.66
40.12
38.06
35.27
31.49
26.53
20.32
13.10
5.37
-2.16
-8.70
-13.72
-17.02
-18.82
-19.57
-19.75
-19.70
-19.61
-19.51
-19.44
-19.43
-19.49
-19.47
-19.12
-18.13
-16.36
-13.92
-11.27
-9.01
-7.60
-7.16
-7.44
-7.95
-8.24
-8.15
-7.86
-7.74
-8.16
-9.27
-10.89
-12.65
-14.17
-15.12
-15.42
-15.13
-14.39
-13.36
-12.24
-11.25
-10.69
-10.90
-12.12
-14.29
-16.90
-19.05
-19.68
-17.97
-13.65
-7.09
0.74
8.67
15.66
21.05
24.59
26.31
26.40
25.10
22.67
19.49
15.97
12.58
9.67
7.43
5.80
4.55
3.35
1.96
0.23
-1.79
-3.99
-6.24
-8.48
-10.69
-12.84
-14.81
-16.45
-17.57
-18.03
-17.80
-16.98
-15.67
-14.02
-12.09
-9.91
-7.50
-4.89
-2.18
0.45
2.80
4.68
5.95
6.59
6.73
6.56
6.31
6.17
6.19
6.33
6.49
6.58
6.53
6.29
5.86
5.23
4.47
3.64
2.87
2.21
1.58
0.73
-0.68
-2.92
-6.06
-9.84
-13.79
-17.38
-20.25
-22.27
-23.50
-24.08
-24.08
-23.52
-22.39
-20.70
-18.49
-15.90
-13.10
-10.34
-7.91
-5.94
-4.24
-2.18
1.20
6.82
15.09
25.65
37.32
48.56
57.94
64.53
68.07
68.79
67.15
63.69
58.93
53.39
47.55
41.70
35.92
30.02
23.80
17.32
11.07
5.89
2.71
2.14
4.27
8.59
14.18
20.07
25.38
29.48
31.95
32.55
31.17
27.90
23.02
16.99
10.35
3.56
-3.04
-9.30
-15.18
-20.66
-25.63
-29.93
-33.40
-35.98
-37.80
-39.14
-40.36
-41.74
-43.46
-45.56
-47.99
-50.73
-53.72
-56.79
-59.59
-61.59
-62.23
-61.08
-58.06
-53.50
-48.03
-42.40
-37.24
-32.94
-29.56
-26.90
-24.61
-22.28
-19.55
-16.18
-12.10
-7.42
-2.40
2.66
7.42
11.62
15.09
17.73
19.52
20.52
20.84
20.66
20.12
19.37
18.45
17.37
16.10
14.66
13.08
11.51
10.05
8.82
7.83
6.99
6.16
5.17
3.91
2.39
0.75
-0.77
-1.89
-2.40
-2.17
-1.21
0.33
2.23
4.26
6.28
8.23
10.21
12.37
14.84
17.63
20.61
23.48
25.88
27.50
28.14
27.78
26.55
24.63
22.26
19.63
16.93
14.33
11.97
9.92
8.24
6.87
5.74
4.75
3.83
2.94
2.10
1.36
0.76
0.32
-0.02
-0.37
-0.90
-1.70
-2.79
-3.98
-4.99
-5.51
-5.37
-4.62
-3.46
-2.18
-1.02
-0.09
0.61
1.14
1.51
1.72
1.75
1.61
1.39
1.19
1.10
1.15
1.34
1.58
1.81
1.97
2.06
2.08
2.08
2.08
2.13
2.25
2.43
2.62
2.74
2.72
2.54
2.22
1.83
1.39
0.88
0.19
-0.81
-2.15
-3.78
-5.56
-7.30
-8.87
-10.24
-11.44
-12.50
-13.43
-14.20
-14.76
-15.05
-15.03
-14.67
-13.97
-12.93
-11.64
-10.22
-8.79
-7.48
-6.36
-5.41
-4.57
-3.70
-2.67
-1.36
0.29
2.24
4.40
6.60
8.69
10.53
12.06
13.25
14.08
14.56
14.73
14.67
14.51
14.37
14.31
14.30
14.25
14.01
13.47
12.59
11.39
9.92
8.28
6.55
4.78
3.02
1.28
-0.40
-1.94
-3.23
-4.11
-4.47
-4.31
-3.74
-2.95
-2.16
-1.55
-1.19
-1.11
-1.25
-1.52
-1.83
-2.08
-2.22
-2.21
-2.08
-1.86
-1.56
-1.15
-0.65
-0.08
0.49
0.92
1.12
1.07
0.81
0.41
-0.09
-0.72
-1.54
-2.52
-3.55
-4.41
-4.96
-5.18
-5.27
-5.56
-6.35
-7.71
-9.47
-11.24
-12.63
-13.38
-13.41
-12.81
-11.69
-10.16
-8.32
-6.30
-4.33
-2.68
-1.59
-1.18
-1.43
-2.13
-3.07
-4.05
-4.92
-5.59
-5.96
-6.00
-5.73
-5.27
-4.82
-4.59
-4.73
-5.26
-6.06
-6.94
-7.66
-7.99
-7.84
-7.21
-6.28
-5.35
-4.74
-4.75
-5.49
-6.89
-8.65
-10.35
-11.51
-11.76
-10.91
-9.06
-6.49
-3.61
-0.79
1.79
4.05
6.02
7.68
8.93
9.63
9.71
9.21
8.28
7.12
5.88
4.62
3.37
2.12
0.95
-0.07
-0.88
-1.47
-1.89
-2.24
-2.63
-3.15
-3.83
-4.64
-5.51
-6.36
-7.16
-7.91
-8.60
-9.25
-9.74
-9.92
-9.64
-8.77
-7.35
-5.55
-3.58
-1.64
0.17
1.83
3.34
4.67
5.70
6.29
6.37
5.98
5.26
4.43
3.63
2.95
2.37
1.87
1.49
1.32
1.43
1.83
2.38
2.85
2.96
2.55
1.58
0.16
-1.52
-3.26
-4.85
-6.13
-6.95
-7.18
-6.80
-5.83
-4.41
-2.75
-1.00
0.68
2.23
3.61
4.75
5.58
6.04
6.09
5.75
5.05
4.13
3.11
2.20
1.59
1.41
1.70
2.32
3.07
3.71
4.13
4.29
4.27
4.15
3.95
3.57
2.94
1.98
0.74
-0.64
-1.93
-2.91
-3.42
-3.36
-2.77
-1.74
-0.45
0.95
2.37
3.76
5.07
6.25
7.17
7.71
7.77
7.37
6.65
5.85
5.19
4.78
4.59
4.49
4.36
4.13
3.83
3.49
3.14
2.72
2.18
1.48
0.60
-0.44
-1.63
-3.02
-4.62
-6.36
-7.96
-9.04
-9.19
-8.19
-6.13
-3.37
-0.44
2.21
4.33
5.90
7.02
7.86
8.47
8.88
9.08
9.12
9.07
8.98
8.91
8.84
8.81
8.92
9.34
10.19
11.47
12.97
14.40
15.49
16.18
16.61
17.06
17.76
18.73
19.83
20.80
21.47
21.81
21.96
22.13
22.50
23.15
24.13
25.54
27.53
30.28
33.90
38.24
42.90
47.37
51.17
54.11
56.27
57.84
58.92
59.32
58.61
56.32
52.20
46.34
39.10
30.87
21.97
12.58
2.89
-6.69
-15.58
-23.15
-28.97
-33.04
-35.74
-37.69
-39.37
-40.98
-42.38
-43.13
-42.76
-40.86
-37.37
-32.68
-27.69
-23.69
-22.06
-23.79
-29.10
-37.20
-46.47
-54.90
-60.72
-62.87
-61.26
-56.55
-49.79
-41.90
-33.41
-24.37
-14.60
-4.02
7.10
18.02
27.72
35.17
39.61
40.75
38.75
34.13
27.54
19.72
11.35
2.99
-4.97
-12.41
-19.37
-26.01
-32.39
-38.25
-42.95
-45.60
-45.33
-41.75
-35.12
-26.43
-17.02
-8.11
-0.32
6.38
12.50
18.58
24.76
30.69
35.68
39.06
40.45
39.89
37.64
33.94
28.86
22.27
14.09
4.45
-6.06
-16.55
-26.03
-33.72
-39.23
-42.67
-44.47
-45.18
-45.22
-44.65
-43.26
-40.61
-36.30
-30.17
-22.43
-13.63
-4.53
4.11
11.71
18.03
23.01
26.76
29.36
30.90
31.58
31.76
31.90
32.33
33.00
33.32
32.38
29.31
23.80
16.27
7.81
-0.27
-6.87
-11.41
-13.88
-14.65
-14.25
-13.19
-11.87
-10.66
-9.80
-9.43
-9.54
-10.01
-10.67
-11.39
-12.21
-13.31
-14.95
-17.37
-20.65
-24.64
-29.00
-33.23
-36.82
-39.42
-40.88
-41.30
-40.84
-39.62
-37.62
-34.69
-30.69
-25.62
-19.74
-13.48
-7.36
-1.78
3.09
7.29
11.05
14.68
18.45
22.56
27.15
32.22
37.69
43.37
49.05
54.50
59.61
64.32
68.63
72.54
75.98
78.83
81.00
82.46
83.29
83.64
83.58
83.00
81.59
78.96
74.80
69.15
62.43
55.25
48.23
41.63
35.35
28.95
21.91
13.80
4.36
-6.51
-18.77
-32.16
-45.99
-59.06
-69.70
-76.30
-77.84
-74.39
-67.12
-57.83
-48.19
-39.10
-30.56
-21.98
-12.85
-3.27
6.03
13.98
19.78
23.31
25.00
25.54
25.34
24.29
21.87
17.55
11.15
3.08
-5.89
-14.95
-23.60
-31.73
-39.48
-46.99
-54.17
-60.69
-66.11
-70.07
-72.44
-73.35
-73.13
-72.20
-70.94
-69.64
-68.41
-67.18
-65.70
-63.66
-60.78
-56.94
-52.18
-46.75
-41.00
-35.31
-29.99
-25.21
-20.99
-17.24
-13.75
-10.35
-6.89
-3.35
0.18
3.55
6.60
9.27
11.59
13.66
15.61
17.47
19.22
20.79
22.10
23.15
23.98
24.66
25.27
25.86
26.45
26.99
27.39
27.44
26.93
25.75
24.12
22.66
22.33
24.21
29.22
37.85
50.02
65.06
81.66
97.97
111.73
120.66
122.91
117.59
104.97
86.43
63.95
39.67
15.46
-7.19
-27.12
-43.47
-55.67
-63.63
-67.76
-68.94
-68.26
-66.76
-65.11
-63.60
-62.20
-60.72
-59.03
-57.10
-54.98
-52.78
-50.59
-48.46
-46.38
-44.38
-42.46
-40.70
-39.14
-37.82
-36.67
-35.60
-34.49
-33.23
-31.76
-30.06
-28.08
-25.80
-23.11
-19.90
-16.07
-11.57
-6.46
-0.95
4.64
9.96
14.72
18.80
22.24
25.25
27.99
30.55
32.88
34.86
36.40
37.53
38.43
39.32
40.39
41.72
43.31
45.09
47.06
49.21
51.56
54.10
56.80
59.63
62.65
66.01
69.81
74.02
78.15
81.31
82.29
79.96
73.70
63.66
50.81
36.68
23.03
11.49
3.39
-0.38
0.55
5.92
14.75
25.41
35.84
44.04
48.37
47.87
42.27
31.87
17.45
0.10
-18.85
-37.98
-55.91
-71.58
-84.26
-93.57
-99.48
-102.09
-101.72
-98.79
-93.92
-87.84
-81.31
-74.97
-69.23
-64.24
-59.96
-56.25
-52.96
-50.04
-47.47
-45.24
-43.35
-41.76
-40.42
-39.30
-38.43
-37.80
-37.37
-36.99
-36.40
-35.33
-33.50
-30.81
-27.29
-23.16
-18.71
-14.23
-9.86
-5.60
-1.36
2.95
7.31
11.51
15.22
18.13
20.10
21.30
22.18
23.26
24.92
27.15
29.56
31.53
32.53
32.35
31.18
29.49
27.71
26.05
24.47
22.88
21.31
20.06
19.46
19.60
20.11
20.17
18.90
15.75
10.80
4.74
-1.51
-7.13
-11.66
-14.99
-17.09
-17.87
-17.10
-14.66
-10.79
-6.16
-1.70
1.73
3.72
4.42
4.36
4.09
3.94
3.88
3.73
3.43
3.19
3.47
4.61
6.57
8.84
10.62
11.17
10.22
8.05
5.30
2.61
0.38
-1.30
-2.44
-3.00
-2.80
-1.77
-0.18
1.36
2.05
1.36
-0.67
-3.42
-6.11
-8.10
-9.27
-9.84
-10.11
-10.13
-9.68
-8.46
-6.41
-3.82
-1.20
1.06
2.91
4.66
6.75
9.62
13.48
18.39
24.24
30.78
37.51
43.71
48.60
51.61
52.73
52.55
52.12
52.52
54.46
57.99
62.48
66.77
69.42
69.05
64.57
55.58
42.45
26.34
8.85
-8.49
-24.71
-39.63
-53.68
-67.47
-81.21
-94.42
-106.05
-114.92
-120.19
-121.69
-119.82
-115.28
-108.73
-100.63
-91.34
-81.26
-70.98
-61.21
-52.58
-45.46
-39.82
-35.34
-31.56
-28.08
-24.71
-21.45
-18.51
-16.11
-14.43
-13.46
-13.05
-12.92
-12.78
-12.51
-12.11
-11.73
-11.55
-11.63
-11.94
-12.32
-12.62
-12.72
-12.57
-12.20
-11.63
-10.92
-10.13
-9.32
-8.58
-7.94
-7.44
-7.04
-6.61
-5.99
-5.00
-3.49
-1.43
1.10
3.98
7.01
10.02
12.87
15.44
17.62
19.33
20.50
21.14
21.36
21.30
21.11
20.89
20.65
20.40
20.13
19.88
19.69
19.55
19.37
19.05
18.49
17.71
16.77
15.76
14.72
13.62
12.39
11.02
9.54
8.01
6.48
4.91
3.26
1.49
-0.31
-1.92
-3.10
-3.67
-3.56
-2.85
-1.70
-0.26
1.33
2.93
4.40
5.53
6.16
6.17
5.54
4.41
3.00
1.58
0.36
-0.55
-1.15
-1.49
-1.74
-2.02
-2.42
-2.96
-3.61
-4.33
-5.04
-5.73
-6.38
-7.04
-7.79
-8.75
-9.99
-11.52
-13.18
-14.64
-15.46
-15.21
-13.69
-10.96
-7.38
-3.46
0.34
3.76
6.71
9.22
11.36
13.12
14.46
15.37
15.87
16.06
16.10
16.14
16.26
16.48
16.74
16.94
16.96
16.73
16.24
15.50
14.63
13.69
12.73
11.74
10.64
9.36
7.81
5.96
3.81
1.45
-0.97
-3.24
-5.06
-6.15
-6.29
-5.39
-3.47
-0.68
2.73
6.47
10.20
13.60
16.37
18.34
19.48
19.93
19.93
19.72
19.49
19.29
19.11
18.87
18.54
18.10
17.58
17.06
16.58
16.15
15.79
15.47
15.18
14.91
14.62
14.15
13.31
11.89
9.81
7.25
4.59
2.35
0.93
0.38
0.35
0.25
-0.52
-2.19
-4.46
-6.54
-7.47
-6.50
-3.41
1.43
7.23
13.06
18.28
22.63
26.28
29.61
33.08
37.05
41.68
46.72
51.36
54.10
52.99
46.26
33.08
14.20
-8.01
-30.12
-48.73
-61.46
-67.55
-67.77
-63.85
-57.74
-51.07
-44.94
-40.04
-36.74
-35.18
-35.16
-36.07
-36.96
-36.76
-34.77
-30.92
-25.87
-20.77
-16.80
-14.63
-14.34
-15.40
-17.09
-18.72
-19.86
-20.26
-19.78
-18.34
-15.94
-12.72
-9.01
-5.20
-1.67
1.34
3.75
5.60
6.94
7.87
8.47
8.83
9.02
9.10
9.10
8.99
8.79
8.53
8.31
8.21
8.30
8.56
8.89
9.18
9.27
9.09
8.66
8.05
7.40
6.83
6.40
6.09
5.80
5.43
4.92
4.22
3.31
2.20
0.91
-0.45
-1.64
-2.31
-2.07
-0.67
1.86
5.23
8.97
12.57
15.66
18.00
19.47
20.02
19.65
18.43
16.55
14.29
11.97
9.85
8.03
6.46
4.99
3.44
1.72
-0.18
-2.13
-3.94
-5.43
-6.44
-6.92
-6.94
-6.71
-6.54
-6.80
-7.75
-9.49
-11.88
-14.58
-17.13
-19.10
-20.12
-20.04
-18.83
-16.64
-13.72
-10.35
-6.86
-3.48
-0.36
2.45
4.91
7.00
8.62
9.67
10.10
9.97
9.45
8.79
8.25
7.93
7.83
7.78
7.59
7.08
6.21
5.08
3.85
2.67
1.64
0.79
0.10
-0.48
-1.02
-1.66
-2.56
-3.87
-5.64
-7.68
-9.58
-10.84
-11.03
-9.93
-7.63
-4.43
-0.75
2.98
6.43
9.34
11.57
13.10
14.02
14.56
14.97
15.40
15.87
16.28
16.51
16.55
16.55
16.66
17.03
17.60
18.15
18.41
18.21
17.53
16.51
15.36
14.24
13.19
12.18
11.09
9.81
8.26
6.43
4.43
2.53
1.09
0.45
0.82
2.22
4.42
7.13
10.07
13.11
16.25
19.53
22.99
26.54
30.01
33.26
36.16
38.67
40.72
42.23
43.18
43.73
44.27
45.46
47.95
52.14
57.99
64.99
72.34
79.15
84.75
88.74
91.03
91.75
91.14
89.49
87.01
83.85
80.04
75.59
70.48
64.72
58.26
50.97
42.59
32.89
21.82
9.57
-3.43
-16.66
-29.75
-42.50
-54.88
-66.79
-77.89
-87.52
-94.89
-99.34
-100.65
-99.22
-95.92
-91.82
-87.86
-84.51
-81.79
-79.41
-77.00
-74.31
-71.30
-68.10
-64.93
-61.98
-59.38
-57.20
-55.54
-54.48
-54.12
-54.44
-55.23
-56.07
-56.39
-55.63
-53.46
-49.91
-45.35
-40.34
-35.42
-30.96
-27.02
-23.50
-20.21
-17.06
-14.06
-11.38
-9.14
-7.44
-6.17
-5.13
-4.09
-2.89
-1.53
-0.10
1.28
2.51
3.59
4.52
5.29
5.85
6.17
6.23
6.10
5.87
5.62
5.40
5.15
4.79
4.19
3.23
1.85
0.07
-1.96
-3.95
-5.52
-6.32
-6.14
-4.96
-2.99
-0.52
2.14
4.76
7.19
9.32
11.05
12.28
12.98
13.14
12.86
12.27
11.51
10.66
9.79
8.97
8.30
7.89
7.78
7.96
8.27
8.54
8.58
8.30
7.71
6.88
5.94
4.98
4.03
3.09
2.09
0.93
-0.43
-1.97
-3.54
-4.88
-5.63
-5.53
-4.43
-2.39
0.33
3.33
6.22
8.69
10.57
11.84
12.61
12.97
12.99
12.71
12.17
11.45
10.67
9.93
9.29
8.79
8.38
8.09
7.98
8.19
8.83
9.90
11.27
12.69
13.89
14.65
14.89
14.67
14.13
13.43
12.68
11.88
10.99
9.85
8.32
6.28
3.79
1.06
-1.54
-3.58
-4.72
-4.86
-4.13
-2.88
-1.48
-0.21
0.88
1.90
3.04
4.40
5.88
7.28
8.31
8.82
8.78
8.32
7.65
6.97
6.38
5.90
5.44
4.95
4.38
3.79
3.25
2.85
2.63
2.55
2.49
2.33
1.94
1.26
0.31
-0.87
-2.20
-3.56
-4.90
-6.14
-7.24
-8.20
-9.07
-9.94
-10.87
-11.83
-12.66
-13.15
-13.06
-12.26
-10.77
-8.71
-6.30
-3.72
-1.10
1.45
3.85
5.96
7.66
8.87
9.62
10.00
10.18
10.25
10.27
10.25
10.19
10.13
10.15
10.30
10.60
10.96
11.31
11.59
11.82
12.09
12.43
12.82
13.18
13.38
13.39
13.26
13.11
13.09
13.21
13.41
13.53
13.46
13.15
12.66
12.14
11.74
11.68
12.15
13.33
15.32
18.02
21.21
24.48
27.45
29.80
31.39
32.26
32.53
32.37
31.94
31.42
31.06
31.11
31.79
33.17
35.10
37.26
39.18
40.43
40.65
39.64
37.35
33.84
29.25
23.81
17.76
11.34
4.76
-1.89
-8.57
-15.27
-21.94
-28.48
-34.73
-40.47
-45.49
-49.58
-52.49
-53.99
-53.95
-52.33
-49.37
-45.43
-41.01
-36.58
-32.51
-29.00
-26.14
-23.97
-22.49
-21.69
-21.55
-21.98
-22.85
-23.95
-25.01
-25.77
-25.95
-25.40
-24.09
-22.18
-19.95
-17.75
-15.88
-14.49
-13.62
-13.16
-12.95
-12.90
-12.91
-13.00
-13.15
-13.34
-13.53
-13.67
-13.70
-13.59
-13.32
-12.83
-12.07
-10.98
-9.49
-7.56
-5.16
-2.26
1.12
4.91
9.00
13.21
17.38
21.40
25.21
28.75
31.94
34.63
36.65
37.85
38.19
37.77
36.80
35.52
34.09
32.57
30.95
29.15
27.13
24.90
22.46
19.84
17.09
14.25
11.40
8.60
5.94
3.41
1.02
-1.27
-3.40
-5.30
-6.88
-8.14
-9.17
-10.10
-11.03
-12.00
-12.92
-13.71
-14.28
-14.63
-14.82
-14.92
-14.94
-14.87
-14.68
-14.36
-13.88
-13.24
-12.45
-11.48
-10.35
-9.12
-7.86
-6.67
-5.60
-4.68
-3.90
-3.21
-2.55
-1.85
-1.06
-0.16
0.81
1.71
2.40
2.73
2.64
2.19
1.53
0.80
0.09
-0.61
-1.38
-2.27
-3.26
-4.21
-4.98
-5.47
-5.69
-5.73
-5.67
-5.50
-5.14
-4.53
-3.64
-2.60
-1.61
-0.84
-0.42
-0.36
-0.62
-1.15
-1.89
-2.77
-3.68
-4.48
-5.03
-5.31
-5.38
-5.37
-5.38
-5.41
-5.35
-5.09
-4.52
-3.67
-2.65
-1.61
-0.65
0.15
0.75
1.12
1.20
0.97
0.46
-0.18
-0.81
-1.27
-1.48
-1.50
-1.47
-1.65
-2.28
-3.59
-5.67
-8.37
-11.32
-14.01
-15.88
-16.64
-16.31
-15.24
-13.95
-12.95
-12.48
-12.54
-12.89
-13.23
-13.36
-13.19
-12.78
-12.27
-11.78
-11.36
-10.95
-10.43
-9.69
-8.71
-7.55
-6.38
-5.34
-4.49
-3.78
-3.10
-2.34
-1.46
-0.57
0.21
0.80
1.17
1.40
1.58
1.79
2.04
2.32
2.61
2.92
3.28
3.72
4.22
4.72
5.17
5.50
5.75
5.99
6.34
6.85
7.50
8.16
8.66
8.89
8.84
8.64
8.50
8.58
8.89
9.27
9.46
9.15
8.09
6.15
3.33
-0.20
-4.05
-7.68
-10.45
-11.87
-11.72
-10.20
-7.84
-5.29
-3.12
-1.60
-0.74
-0.38
-0.36
-0.57
-0.97
-1.45
-1.84
-1.94
-1.62
-0.89
0.04
0.86
1.26
1.08
0.35
-0.69
-1.74
-2.56
-3.01
-3.13
-3.08
-3.05
-3.16
-3.45
-3.82
-4.15
-4.32
-4.28
-4.04
-3.67
-3.26
-2.87
-2.57
-2.36
-2.27
-2.27
-2.34
-2.44
-2.51
-2.51
-2.43
-2.27
-2.07
-1.91
-1.86
-1.99
-2.35
-2.91
-3.59
-4.23
-4.71
-4.94
-4.92
-4.74
-4.55
-4.45
-4.49
-4.65
-4.84
-4.96
-4.93
-4.69
-4.21
-3.47
-2.48
-1.31
-0.04
1.19
2.25
3.05
3.56
3.77
3.71
3.44
3.03
2.57
2.18
1.95
1.93
2.14
2.53
3.04
3.60
4.12
4.52
4.74
4.75
4.58
4.27
3.89
3.48
3.07
2.68
2.33
2.06
1.90
1.85
1.84
1.81
1.69
1.50
1.27
1.05
0.85
0.61
0.26
-0.27
-0.98
-1.78
-2.50
-3.02
-3.24
-3.21
-3.02
-2.84
-2.79
-2.86
-3.00
-3.08
-3.02
-2.82
-2.58
-2.43
-2.46
-2.63
-2.88
-3.06
-3.13
-3.08
-2.96
-2.78
-2.52
-2.15
-1.67
-1.15
-0.68
-0.37
-0.17
0.02
0.37
0.95
1.70
2.41
2.86
2.92
2.63
2.21
1.92
2.02
2.58
3.55
4.80
6.19
7.64
9.12
10.64
12.20
13.70
14.99
15.80
15.85
14.89
12.81
9.70
5.80
1.47
-2.92
-7.01
-10.56
-13.37
-15.39
-16.65
-17.30
-17.55
-17.64
-17.79
-18.13
-18.70
-19.47
-20.39
-21.38
-22.30
-23.02
-23.38
-23.30
-22.82
-22.09
-21.32
-20.69
-20.24
-19.87
-19.28
-18.15
-16.18
-13.24
-9.40
-4.91
-0.10
4.73
9.38
13.76
17.91
21.90
25.88
30.00
34.36
39.02
43.84
48.50
52.54
55.53
57.12
57.19
55.77
52.94
48.74
43.19
36.32
28.30
19.38
9.94
0.34
-9.13
-18.19
-26.54
-33.89
-39.93
-44.46
-47.44
-49.02
-49.47
-49.09
-48.16
-46.92
-45.58
-44.29
-43.12
-42.00
-40.78
-39.23
-37.20
-34.68
-31.79
-28.72
-25.64
-22.69
-19.90
-17.28
-14.85
-12.66
-10.79
-9.29
-8.17
-7.35
-6.71
-6.14
-5.55
-4.89
-4.18
-3.45
-2.72
-1.96
-1.17
-0.37
0.35
0.90
1.19
1.25
1.15
1.00
0.89
0.84
0.87
0.95
1.08
1.25
1.38
1.40
1.26
1.03
0.87
1.00
1.58
2.65
4.11
5.79
7.57
9.35
11.14
12.91
14.63
16.20
17.53
18.61
19.45
20.07
20.52
20.79
20.89
20.89
20.88
20.95
21.17
21.52
21.88
22.13
22.19
22.07
21.83
21.60
21.46
21.42
21.43
21.40
21.21
20.83
20.28
19.64
19.00
18.47
18.12
17.95
17.88
17.72
17.22
16.03
13.91
10.78
6.85
2.58
-1.48
-4.86
-7.40
-9.24
-10.75
-12.25
-13.87
-15.50
-16.91
-17.91
-18.47
-18.66
-18.58
-18.22
-17.46
-16.15
-14.24
-11.88
-9.34
-6.96
-5.00
-3.58
-2.62
-1.96
-1.39
-0.76
0.01
0.89
1.80
2.64
3.33
3.81
4.07
4.08
3.76
3.05
1.90
0.45
-1.07
-2.33
-3.08
-3.23
-2.86
-2.21
-1.52
-0.92
-0.47
-0.15
0.09
0.24
0.33
0.47
0.81
1.52
2.67
4.24
6.07
7.98
9.80
11.46
12.95
14.27
15.40
16.29
16.90
17.23
17.33
17.27
17.13
17.00
16.91
16.89
16.90
16.79
16.25
14.88
12.29
8.29
3.13
-2.53
-7.68
-11.30
-12.63
-11.39
-7.78
-2.36
4.10
10.80
17.00
22.09
25.62
27.43
27.63
26.59
24.90
23.12
21.68
20.75
20.21
19.76
19.05
17.79
15.85
13.23
10.05
6.45
2.61
-1.25
-4.90
-8.08
-10.62
-12.45
-13.69
-14.57
-15.34
-16.17
-17.14
-18.21
-19.32
-20.44
-21.53
-22.56
-23.50
-24.27
-24.82
-25.13
-25.25
-25.24
-25.14
-24.93
-24.54
-23.89
-22.94
-21.71
-20.27
-18.69
-17.03
-15.30
-13.49
-11.62
-9.72
-7.79
-5.85
-3.95
-2.14
-0.55
0.66
1.36
1.46
1.03
0.21
-0.80
-1.84
-2.88
-4.00
-5.33
-7.01
-9.02
-11.26
-13.48
-15.45
-17.04
-18.19
-18.94
-19.31
-19.26
-18.67
-17.41
-15.43
-12.77
-9.61
-6.20
-2.82
0.28
2.95
5.15
6.96
8.52
9.98
11.42
12.82
14.11
15.18
15.96
16.42
16.53
16.23
15.48
14.29
12.77
11.10
9.46
7.96
6.61
5.35
4.11
2.89
1.71
0.66
-0.21
-0.86
-1.29
-1.54
-1.69
-1.86
-2.13
-2.57
-3.14
-3.71
-4.07
-4.11
-3.82
-3.34
-2.87
-2.58
-2.46
-2.40
-2.24
-1.93
-1.57
-1.36
-1.50
-2.01
-2.71
-3.29
-3.45
-3.04
-2.06
-0.67
0.96
2.64
4.20
5.50
6.42
6.91
7.01
6.82
6.48
6.02
5.45
4.71
3.78
2.72
1.62
0.60
-0.28
-0.99
-1.52
-1.84
-1.84
-1.42
-0.48
1.00
2.94
5.22
7.66
10.12
12.47
14.63
16.52
18.05
19.18
19.84
20.06
19.90
19.41
18.59
17.36
15.64
13.33
10.43
7.05
3.40
-0.22
-3.54
-6.36
-8.58
-10.25
-11.53
-12.55
-13.43
-14.16
-14.66
-14.85
-14.72
-14.42
-14.17
-14.21
-14.61
-15.31
-16.07
-16.57
-16.61
-16.10
-15.11
-13.82
-12.39
-10.94
-9.46
-7.93
-6.35
-4.78
-3.32
-2.14
-1.34
-0.95
-0.94
-1.23
-1.71
-2.31
-2.95
-3.53
-3.99
-4.25
-4.34
-4.39
-4.63
-5.34
-6.69
-8.71
-11.17
-13.73
-16.07
-17.98
-19.46
-20.68
-21.83
-23.04
-24.32
-25.59
-26.74
-27.68
-28.38
-28.81
-28.94
-28.66
-27.82
-26.30
-24.02
-21.03
-17.49
-13.66
-9.81
-6.20
-2.99
-0.19
2.28
4.52
6.59
8.50
10.20
11.72
13.12
14.53
16.07
17.75
19.52
21.28
22.93
24.45
25.85
27.16
28.29
29.10
29.40
29.10
28.22
26.94
25.47
24.00
22.60
21.27
19.92
18.47
16.91
15.21
13.36
11.33
9.07
6.63
4.11
1.70
-0.43
-2.19
-3.60
-4.71
-5.53
-6.01
-6.03
-5.46
-4.27
-2.53
-0.39
2.03
4.60
7.21
9.64
11.63
12.87
13.17
12.55
11.24
9.64
8.09
6.78
5.66
4.60
3.48
2.30
1.26
0.60
0.58
1.35
2.98
5.42
8.60
12.41
16.73
21.31
25.80
29.81
33.02
35.27
36.65
37.46
38.03
38.54
38.97
39.15
38.90
38.23
37.41
36.80
36.75
37.53
39.31
42.19
46.16
50.83
55.23
57.82
56.75
50.45
38.09
19.91
-2.91
-28.59
-55.22
-80.94
-104.06
-123.11
-136.93
-144.87
-146.95
-143.91
-136.95
-127.54
-117.02
-106.48
-96.59
-87.63
-79.56
-72.12
-64.98
-57.90
-50.81
-43.80
-37.12
-31.00
-25.64
-21.19
-17.71
-15.20
-13.56
-12.54
-11.75
-10.75
-9.09
-6.50
-2.93
1.45
6.29
11.18
15.72
19.64
22.81
25.27
27.13
28.59
29.85
31.14
32.60
34.29
36.11
37.82
39.13
39.81
39.78
39.12
38.03
36.73
35.36
33.96
32.56
31.19
29.96
28.97
28.26
27.71
27.09
26.15
24.76
22.92
20.79
18.57
16.33
14.04
11.59
8.86
5.83
2.60
-0.65
-3.74
-6.58
-9.16
-11.52
-13.70
-15.63
-17.22
-18.35
-18.96
-19.07
-18.74
-18.08
-17.17
-16.14
-15.05
-14.01
-12.99
-11.92
-10.64
-9.02
-7.07
-4.94
-2.86
-1.00
0.67
2.32
4.10
6.05
7.94
9.45
10.30
10.46
10.17
9.81
9.71
9.95
10.34
10.57
10.38
9.67
8.51
7.09
5.57
4.00
2.36
0.55
-1.47
-3.70
-6.08
-8.55
-11.05
-13.51
-15.85
-17.95
-19.69
-20.98
-21.73
-21.91
-21.48
-20.45
-18.82
-16.70
-14.24
-11.66
-9.14
-6.84
-4.80
-2.98
-1.28
0.38
2.03
3.64
5.16
6.53
7.77
8.92
10.05
11.20
12.34
13.38
14.21
14.74
14.94
14.80
14.37
13.71
12.88
11.93
10.88
9.70
8.38
6.93
5.40
3.85
2.26
0.56
-1.36
-3.54
-5.87
-8.01
-9.55
-10.07
-9.41
-7.67
-5.15
-2.29
0.58
3.23
5.54
7.45
8.87
9.74
10.04
9.82
9.25
8.53
7.85
7.31
6.91
6.58
6.24
5.84
5.37
4.83
4.21
3.51
2.71
1.79
0.79
-0.27
-1.33
-2.35
-3.35
-4.37
-5.52
-6.88
-8.47
-10.14
-11.66
-12.71
-13.07
-12.69
-11.72
-10.45
-9.14
-7.91
-6.74
-5.51
-4.14
-2.67
-1.21
0.03
0.93
1.48
1.81
2.14
2.67
3.57
4.88
6.49
8.26
10.05
11.77
13.41
15.00
16.53
17.92
19.04
19.76
20.06
19.95
19.54
18.88
18.02
16.95
15.67
14.24
12.75
11.30
10.03
9.00
8.27
7.87
7.82
8.14
8.80
9.77
10.92
12.12
13.22
14.10
14.72
15.06
15.17
15.11
14.92
14.63
14.26
13.81
13.29
12.72
12.10
11.49
10.94
10.49
10.13
9.82
9.47
8.97
8.25
7.26
6.06
4.69
3.26
1.83
0.54
-0.50
-1.23
-1.69
-2.05
-2.54
-3.37
-4.58
-6.04
-7.44
-8.45
-8.84
-8.57
-7.74
-6.57
-5.23
-3.86
-2.52
-1.26
-0.13
0.87
1.77
2.61
3.46
4.34
5.24
6.12
6.96
7.69
8.29
8.74
9.05
9.26
9.47
9.72
10.04
10.33
10.45
10.27
9.76
8.96
7.98
6.95
5.97
5.10
4.39
3.83
3.38
2.97
2.48
1.85
1.05
0.12
-0.85
-1.78
-2.61
-3.30
-3.85
-4.26
-4.59
-4.93
-5.43
-6.20
-7.27
-8.56
-9.87
-10.96
-11.60
-11.68
-11.18
-10.14
-8.70
-7.00
-5.25
-3.62
-2.26
-1.24
-0.53
-0.08
0.23
0.46
0.67
0.87
1.08
1.29
1.50
1.66
1.68
1.50
1.10
0.58
0.10
-0.18
-0.16
0.13
0.54
0.90
1.11
1.13
0.98
0.73
0.37
-0.10
-0.70
-1.41
-2.19
-2.98
-3.74
-4.49
-5.23
-5.90
-6.37
-6.46
-6.01
-4.98
-3.46
-1.67
0.18
1.89
3.40
4.74
5.95
7.06
8.00
8.68
8.96
8.82
8.30
7.51
6.52
5.41
4.20
3.04
2.21
2.14
3.27
5.82
9.64
14.22
18.85
22.90
26.01
28.16
29.54
30.43
30.98
31.26
31.22
30.86
30.24
29.54
29.05
29.05
29.68
30.90
32.43
33.84
34.59
34.24
32.54
29.45
25.10
19.78
13.84
7.67
1.76
-3.40
-7.30
-9.59
-10.09
-8.89
-6.34
-2.99
0.51
3.52
5.51
6.17
5.43
3.48
0.67
-2.50
-5.49
-7.85
-9.27
-9.72
-9.47
-8.97
-8.72
-9.08
-10.11
-11.65
-13.40
-15.14
-16.85
-18.69
-20.86
-23.46
-26.41
-29.52
-32.58
-35.57
-38.59
-41.86
-45.51
-49.46
-53.41
-56.82
-59.12
-59.80
-58.54
-55.38
-50.62
-44.88
-38.83
-33.09
-28.02
-23.69
-19.90
-16.38
-12.95
-9.55
-6.31
-3.32
-0.59
2.05
4.83
7.94
11.36
14.86
18.06
20.61
22.29
23.08
23.15
22.73
22.04
21.18
20.15
18.90
17.40
15.69
13.87
12.11
10.56
9.25
8.16
7.22
6.38
5.65
5.09
4.67
4.27
3.65
2.57
0.91
-1.25
-3.62
-5.76
-7.24
-7.79
-7.34
-6.00
-4.03
-1.68
0.85
3.42
5.97
8.48
10.97
13.53
16.24
19.20
22.46
26.02
29.85
33.94
38.31
43.02
48.10
53.54
59.23
65.00
70.65
75.95
80.62
84.25
86.45
86.94
85.67
82.96
79.36
75.45
71.58
67.72
63.48
58.31
51.73
43.51
33.71
22.55
10.27
-2.96
-17.04
-31.85
-47.08
-62.18
-76.39
-88.90
-98.97
-106.13
-110.20
-111.30
-109.79
-106.17
-101.06
-95.09
-88.85
-82.82
-77.22
-72.05
-67.12
-62.12
-56.86
-51.33
-45.81
-40.77
-36.68
-33.87
-32.38
-32.04
-32.52
-33.47
-34.69
-36.08
-37.58
-39.17
-40.75
-42.18
-43.35
-44.20
-44.73
-44.91
-44.62
-43.65
-41.75
-38.80
-34.90
-30.40
-25.73
-21.32
-17.36
-13.80
-10.48
-7.25
-4.11
-1.19
1.34
3.41
5.07
6.48
7.82
9.18
10.51
11.73
12.74
13.53
14.16
14.74
15.29
15.78
16.06
16.01
15.62
15.02
14.44
14.07
13.97
14.02
14.04
13.86
13.45
12.93
12.39
11.87
11.28
10.46
9.27
7.65
5.68
3.49
1.29
-0.72
-2.34
-3.32
-3.46
-2.61
-0.76
1.94
5.17
8.52
11.53
13.90
15.46
16.31
16.69
16.93
17.27
17.80
18.45
19.02
19.37
19.50
19.53
19.65
19.94
20.36
20.72
20.83
20.58
20.02
19.29
18.55
17.86
17.20
16.45
15.53
14.45
13.27
12.09
11.01
10.01
9.03
8.03
6.98
5.94
5.04
4.40
4.09
4.06
4.17
4.26
4.20
3.91
3.35
2.53
1.44
0.08
-1.50
-3.23
-4.97
-6.56
-7.88
-8.80
-9.27
-9.28
-8.89
-8.25
-7.53
-6.94
-6.61
-6.61
-6.85
-7.25
-7.69
-8.11
-8.52
-8.93
-9.39
-9.90
-10.40
-10.79
-10.93
-10.70
-10.03
-8.95
-7.57
-6.02
-4.48
-3.07
-1.87
-0.91
-0.18
0.39
0.92
1.52
2.25
3.08
3.84
4.31
4.31
3.77
2.80
1.69
0.83
0.58
1.22
2.81
5.23
8.16
11.23
14.07
16.42
18.20
19.49
20.46
21.28
22.01
22.64
23.03
23.03
22.55
21.61
20.32
18.86
17.41
16.02
14.61
12.87
10.39
6.71
1.53
-5.16
-13.07
-21.56
-29.89
-37.34
-43.42
-47.86
-50.66
-51.95
-51.98
-50.99
-49.20
-46.80
-43.94
-40.72
-37.19
-33.35
-29.16
-24.59
-19.63
-14.33
-8.91
-3.66
1.06
4.95
7.88
9.89
11.16
11.89
12.20
12.09
11.55
10.60
9.36
8.01
6.74
5.65
4.73
3.86
2.91
1.85
0.70
-0.46
-1.60
-2.74
-3.97
-5.36
-6.85
-8.29
-9.51
-10.42
-11.08
-11.68
-12.40
-13.27
-14.10
-14.59
-14.38
-13.30
-11.34
-8.66
-5.47
-2.00
1.58
5.06
8.29
11.10
13.39
15.18
16.53
17.55
18.34
18.91
19.26
19.37
19.27
19.03
18.75
18.49
18.22
17.86
17.27
16.35
15.08
13.51
11.74
9.87
7.88
5.73
3.38
0.89
-1.59
-3.84
-5.68
-7.07
-8.10
-8.89
-9.51
-9.94
-10.13
-10.11
-10.06
-10.24
-10.90
-12.08
-13.60
-15.11
-16.24
-16.75
-16.58
-15.72
-14.20
-11.97
-8.95
-5.18
-0.86
3.61
7.74
11.07
13.32
14.44
14.58
14.03
13.12
12.08
11.06
10.10
9.17
8.23
7.29
6.36
5.48
4.65
3.92
3.34
3.03
3.06
3.45
4.03
4.54
4.67
4.18
3.05
1.45
-0.36
-2.14
-3.76
-5.22
-6.57
-7.90
-9.24
-10.60
-12.01
-13.44
-14.79
-15.90
-16.54
-16.52
-15.78
-14.46
-12.81
-11.12
-9.64
-8.49
-7.64
-7.01
-6.44
-5.79
-4.98
-3.98
-2.88
-1.84
-1.03
-0.53
-0.34
-0.28
-0.16
0.25
1.05
2.27
3.79
5.49
7.18
8.75
10.13
11.28
12.21
12.94
13.48
13.83
14.01
14.03
13.93
13.75
13.55
13.41
13.43
13.69
14.28
15.22
16.49
17.96
19.48
20.91
22.10
22.94
23.28
22.90
21.57
19.01
15.09
9.89
3.81
-2.53
-8.39
-13.11
-16.28
-17.81
-17.87
-16.75
-14.70
-11.90
-8.50
-4.76
-1.10
1.92
3.82
4.31
3.52
1.96
0.34
-0.60
-0.32
1.50
4.88
9.58
15.13
20.92
26.22
30.35
32.85
33.53
32.59
30.56
28.16
26.03
24.54
23.58
22.64
21.04
18.32
14.44
9.85
5.25
1.26
-1.73
-3.66
-4.67
-4.90
-4.43
-3.36
-1.87
-0.27
1.09
1.96
2.32
2.38
2.44
2.75
3.36
4.09
4.64
4.73
4.24
3.24
1.96
0.61
-0.69
-1.96
-3.28
-4.72
-6.28
-7.87
-9.37
-10.64
-11.58
-12.14
-12.27
-11.93
-11.07
-9.71
-7.90
-5.81
-3.76
-2.11
-1.24
-1.37
-2.55
-4.62
-7.29
-10.24
-13.19
-15.91
-18.16
-19.68
-20.25
-19.84
-18.62
-16.98
-15.40
-14.19
-13.45
-13.00
-12.61
-12.08
-11.40
-10.67
-10.06
-9.69
-9.60
-9.75
-10.07
-10.47
-10.83
-11.09
-11.19
-11.18
-11.13
-11.12
-11.19
-11.29
-11.36
-11.34
-11.26
-11.24
-11.40
-11.81
-12.42
-13.11
-13.76
-14.30
-14.76
-15.27
-15.92
-16.68
-17.42
-17.92
-17.99
-17.59
-16.86
-16.09
-15.58
-15.52
-15.92
-16.60
-17.25
-17.51
-17.07
-15.76
-13.58
-10.67
-7.27
-3.67
-0.16
2.99
5.61
7.59
8.96
9.86
10.51
11.13
11.83
12.60
13.29
13.74
13.83
13.63
13.35
13.26
13.56
14.30
15.32
16.28
16.89
16.94
16.49
15.73
14.97
14.42
14.06
13.71
13.06
11.87
10.09
7.90
5.67
3.79
2.58
2.13
2.39
3.16
4.26
5.57
7.11
8.97
11.29
14.06
17.13
20.03
22.01
22.08
19.19
12.61
2.32
-10.76
-24.86
-37.71
-47.32
-52.52
-53.32
-50.64
-45.85
-40.14
-34.22
-28.40
-22.84
-17.92
-14.19
-12.20
-12.15
-13.69
-16.01
-18.17
-19.50
-19.85
-19.55
-19.24
-19.51
-20.74
-22.94
-25.80
-28.72
-30.95
-31.80
-30.81
-27.91
-23.49
-18.24
-12.89
-7.99
-3.83
-0.43
2.24
4.19
5.38
5.83
5.75
5.50
5.54
6.13
7.28
8.73
10.13
11.16
11.74
11.92
11.85
11.71
11.60
11.65
11.96
12.62
13.54
14.52
15.20
15.23
14.44
12.92
10.93
8.86
6.96
5.36
4.01
2.79
1.59
0.36
-0.94
-2.27
-3.56
-4.66
-5.33
-5.33
-4.46
-2.65
0.01
3.31
6.97
10.73
14.38
17.74
20.67
23.02
24.69
25.63
25.88
25.56
24.85
23.98
23.15
22.50
22.09
21.82
21.53
21.07
20.36
19.47
18.54
17.71
17.04
16.51
16.04
15.56
15.06
14.54
13.99
13.39
12.66
11.74
10.61
9.30
7.92
6.60
5.46
4.56
3.91
3.41
2.91
2.28
1.43
0.39
-0.74
-1.85
-2.90
-3.88
-4.79
-5.59
-6.14
-6.26
-5.79
-4.64
-2.84
-0.50
2.20
5.08
7.98
10.72
13.14
15.09
16.49
17.35
17.77
17.91
17.93
17.99
18.16
18.43
18.70
18.75
18.30
17.05
14.83
11.70
7.94
3.99
0.32
-2.70
-4.87
-6.11
-6.37
-5.65
-4.01
-1.72
0.72
2.69
3.59
3.11
1.39
-1.09
-3.65
-5.68
-6.83
-6.98
-6.27
-4.86
-2.95
-0.75
1.53
3.65
5.44
6.81
7.83
8.62
9.28
9.83
10.18
10.22
9.88
9.21
8.34
7.41
6.55
5.81
5.22
4.83
4.69
4.83
5.24
5.83
6.45
7.00
7.41
7.59
7.48
6.94
5.84
4.03
1.47
-1.83
-5.80
-10.34
-15.33
-20.52
-25.53
-29.87
-33.03
-34.66
-34.62
-33.09
-30.41
-27.04
-23.36
-19.68
-16.23
-13.14
-10.53
-8.45
-6.83
-5.54
-4.39
-3.20
-1.85
-0.32
1.35
3.07
4.76
6.35
7.82
9.18
10.46
11.73
13.01
14.34
15.63
16.78
17.64
18.11
18.17
17.89
17.40
16.79
16.13
15.37
14.32
12.73
10.29
6.74
1.94
-4.10
-11.18
-18.94
-26.85
-34.30
-40.64
-45.37
-48.19
-49.08
-48.27
-46.18
-43.20
-39.69
-35.89
-31.94
-27.99
-24.19
-20.66
-17.39
-14.32
-11.27
-8.15
-4.92
-1.64
1.57
4.63
7.54
10.34
13.09
15.79
18.38
20.68
22.54
23.83
24.50
24.62
24.31
23.74
23.05
22.34
21.63
20.85
19.88
18.60
16.89
14.75
12.29
9.72
7.24
5.00
3.02
1.19
-0.71
-2.92
-5.64
-8.97
-12.88
-17.13
-21.28
-24.70
-26.77
-27.06
-25.52
-22.58
-18.95
-15.42
-12.53
-10.47
-9.09
-8.12
-7.29
-6.53
-5.90
-5.48
-5.28
-5.13
-4.79
-3.99
-2.63
-0.78
1.33
3.38
5.11
6.43
7.39
8.15
8.80
9.30
9.45
8.98
7.75
5.82
3.51
1.25
-0.63
-1.95
-2.82
-3.45
-4.09
-4.89
-5.88
-7.05
-8.32
-9.59
-10.72
-11.47
-11.63
-10.98
-9.47
-7.20
-4.42
-1.39
1.63
4.43
6.88
8.85
10.30
11.22
11.66
11.75
11.59
11.30
10.95
10.63
10.41
10.35
10.50
10.90
11.53
12.34
13.25
14.16
14.95
15.52
15.84
15.96
16.01
16.13
16.43
16.89
17.38
17.66
17.52
16.84
15.68
14.27
12.90
11.88
11.37
11.38
11.76
12.38
13.09
13.84
14.59
15.30
15.88
16.24
16.28
15.97
15.28
14.26
12.94
11.41
9.77
8.17
6.67
5.21
3.49
0.97
-2.92
-8.62
-16.11
-24.85
-33.84
-41.95
-48.23
-52.28
-54.24
-54.64
-54.12
-53.19
-52.16
-51.21
-50.46
-49.99
-49.80
-49.67
-49.21
-47.95
-45.60
-42.20
-38.11
-33.85
-29.79
-26.03
-22.42
-18.74
-14.92
-11.15
-7.75
-5.00
-3.02
-1.67
-0.70
0.13
0.91
1.62
2.22
2.72
3.23
3.88
4.74
5.78
6.83
7.68
8.16
8.17
7.76
7.03
6.13
5.22
4.39
3.67
3.03
2.34
1.48
0.31
-1.22
-3.06
-5.07
-6.99
-8.52
-9.36
-9.28
-8.15
-6.02
-3.06
0.39
3.92
7.13
9.68
11.44
12.39
12.68
12.54
12.14
11.64
11.06
10.38
9.55
8.53
7.37
6.18
5.10
4.26
3.74
3.53
3.59
3.80
4.07
4.28
4.33
4.12
3.62
2.87
1.99
1.11
0.31
-0.38
-1.03
-1.72
-2.48
-3.31
-4.12
-4.84
-5.43
-5.94
-6.51
-7.29
-8.43
-9.96
-11.81
-13.71
-15.32
-16.29
-16.32
-15.32
-13.34
-10.56
-7.23
-3.61
0.06
3.58
6.76
9.45
11.51
12.88
13.58
13.73
13.56
13.29
13.12
13.14
13.28
13.43
13.47
13.35
13.13
12.89
12.68
12.50
12.26
11.85
11.22
10.35
9.28
8.05
6.72
5.33
3.93
2.55
1.19
-0.15
-1.50
-2.91
-4.43
-6.10
-7.91
-9.74
-11.36
-12.45
-12.72
-11.96
-10.21
-7.69
-4.76
-1.76
1.05
3.54
5.67
7.38
8.61
9.30
9.51
9.38
9.13
8.95
8.92
9.00
9.11
9.19
9.25
9.35
9.52
9.72
9.82
9.75
9.45
8.96
8.35
7.64
6.82
5.85
4.72
3.48
2.17
0.84
-0.53
-1.90
-3.16
-4.06
-4.28
-3.56
-1.81
0.84
4.03
7.38
10.57
13.41
15.84
17.89
19.53
20.76
21.58
22.05
22.30
22.50
22.83
23.38
24.14
25.05
26.01
26.97
27.97
29.09
30.37
31.83
33.40
34.98
36.46
37.76
38.85
39.73
40.50
41.25
42.12
43.13
44.20
45.11
45.57
45.38
44.51
43.11
41.50
39.94
38.61
37.52
36.52
35.44
34.08
32.23
29.66
26.08
21.30
15.29
8.30
0.92
-6.09
-12.01
-16.33
-18.95
-20.04
-20.03
-19.35
-18.33
-17.19
-16.08
-15.10
-14.35
-13.85
-13.54
-13.29
-12.99
-12.64
-12.37
-12.39
-12.88
-13.89
-15.30
-16.90
-18.45
-19.78
-20.82
-21.57
-22.07
-22.37
-22.60
-22.92
-23.54
-24.67
-26.40
-28.66
-31.19
-33.63
-35.54
-36.59
-36.56
-35.47
-33.47
-30.89
-28.06
-25.32
-22.88
-20.87
-19.27
-18.02
-17.05
-16.34
-15.93
-15.87
-16.18
-16.79
-17.52
-18.18
-18.58
-18.64
-18.40
-18.00
-17.61
-17.35
-17.26
-17.31
-17.42
-17.52
-17.55
-17.53
-17.43
-17.25
-16.93
-16.43
-15.76
-15.03
-14.40
-14.03
-14.02
-14.33
-14.86
-15.45
-16.03
-16.58
-17.13
-17.67
-18.07
-18.14
-17.66
-16.52
-14.75
-12.49
-9.90
-7.13
-4.27
-1.44
1.24
3.58
5.42
6.69
7.44
7.83
8.04
8.17
8.24
8.18
7.97
7.59
7.12
6.66
6.27
6.01
5.91
5.99
6.26
6.68
7.11
7.37
7.24
6.57
5.36
3.77
2.01
0.28
-1.35
-2.91
-4.46
-5.97
-7.27
-8.08
-8.14
-7.41
-6.07
-4.43
-2.75
-1.14
0.49
2.27
4.19
6.05
7.54
8.38
8.54
8.18
7.61
7.06
6.62
6.24
5.85
5.47
5.12
4.85
4.56
4.10
3.31
2.17
0.78
-0.64
-1.91
-2.94
-3.84
-4.75
-5.88
-7.32
-9.08
-11.05
-13.02
-14.71
-15.81
-16.06
-15.29
-13.53
-10.95
-7.83
-4.50
-1.22
1.79
4.38
6.46
8.02
9.09
9.75
10.11
10.22
10.16
9.93
9.58
9.20
8.91
8.85
9.06
9.51
10.05
10.48
10.63
10.43
9.90
9.13
8.22
7.23
6.19
5.12
4.03
2.96
1.91
0.83
-0.37
-1.78
-3.38
-4.95
-6.13
-6.51
-5.80
-3.97
-1.17
2.25
5.90
9.41
12.46
14.80
16.29
16.93
16.86
16.36
15.73
15.23
14.96
14.89
14.92
14.91
14.75
14.41
13.90
13.26
12.57
11.88
11.24
10.70
10.22
9.75
9.22
8.53
7.67
6.64
5.49
4.29
3.08
1.90
0.75
-0.42
-1.62
-2.87
-4.18
-5.56
-6.99
-8.45
-9.93
-11.40
-12.88
-14.35
-15.77
-16.99
-17.77
-17.80
-16.85
-14.82
-11.86
-8.30
-4.53
-0.88
2.44
5.38
7.94
10.08
11.69
12.63
12.85
12.47
11.78
11.10
10.68
10.59
10.67
10.72
10.58
10.17
9.55
8.81
8.07
7.37
6.70
6.03
5.30
4.48
3.57
2.62
1.69
0.83
0.02
-0.79
-1.70
-2.75
-3.94
-5.22
-6.54
-7.84
-9.09
-10.24
-11.27
-12.17
-13.03
-14.03
-15.31
-16.91
-18.64
-20.13
-20.93
-20.75
-19.51
-17.37
-14.59
-11.48
-8.27
-5.13
-2.22
0.33
2.44
4.05
5.17
5.84
6.12
6.06
5.74
5.25
4.71
4.24
3.92
3.80
3.86
4.07
4.36
4.63
4.81
4.81
4.56
4.04
3.31
2.45
1.58
0.79
0.12
-0.52
-1.23
-2.16
-3.38
-4.88
-6.50
-8.01
-9.16
-9.73
-9.56
-8.58
-6.80
-4.38
-1.53
1.42
4.21
6.62
8.54
9.99
11.01
11.68
12.06
12.19
12.12
11.88
11.45
10.81
9.96
8.93
7.85
6.89
6.23
5.93
5.94
6.04
6.00
5.66
4.94
3.94
2.78
1.60
0.46
-0.69
-1.91
-3.28
-4.86
-6.63
-8.54
-10.46
-12.20
-13.48
-13.99
-13.51
-11.99
-9.62
-6.76
-3.78
-1.01
1.41
3.51
5.35
6.98
8.40
9.58
10.47
11.07
11.39
11.43
11.19
10.67
9.96
9.17
8.42
7.78
7.28
6.86
6.47
6.08
5.67
5.25
4.83
4.37
3.83
3.14
2.26
1.18
-0.09
-1.49
-2.93
-4.35
-5.67
-6.88
-8.01
-9.10
-10.23
-11.47
-12.85
-14.37
-15.90
-17.26
-18.12
-18.20
-17.30
-15.40
-12.67
-9.44
-6.04
-2.75
0.26
2.92
5.22
7.15
8.71
9.86
10.59
10.92
10.89
10.56
10.01
9.35
8.66
8.08
7.71
7.65
7.92
8.42
8.94
9.26
9.22
8.78
8.05
7.24
6.51
5.95
5.52
5.10
4.59
3.88
2.95
1.77
0.35
-1.25
-2.92
-4.53
-5.93
-7.11
-8.09
-9.02
-10.06
-11.28
-12.69
-14.25
-15.87
-17.44
-18.86
-19.93
-20.47
-20.24
-19.12
-17.08
-14.27
-10.93
-7.37
-3.84
-0.52
2.46
5.03
7.11
8.65
9.57
9.87
9.63
8.97
8.10
7.21
6.48
5.98
5.70
5.56
5.47
5.38
5.27
5.20
5.20
5.29
5.41
5.43
5.25
4.79
4.08
3.17
2.12
0.98
-0.26
-1.60
-3.02
-4.45
-5.80
-7.01
-8.07
-9.04
-9.99
-10.99
-11.96
-12.71
-12.98
-12.53
-11.27
-9.28
-6.82
-4.18
-1.61
0.77
2.98
5.07
7.04
8.81
10.21
11.04
11.19
10.69
9.72
8.54
7.41
6.49
5.82
5.35
4.95
4.56
4.15
3.71
3.26
2.80
2.30
1.79
1.26
0.75
0.22
-0.42
-1.29
-2.49
-4.02
-5.75
-7.41
-8.66
-9.20
-8.84
-7.56
-5.52
-2.97
-0.17
2.64
5.36
7.90
10.20
12.17
13.71
14.70
15.13
15.06
14.59
13.85
12.96
11.97
10.96
10.00
9.14
8.44
7.86
7.32
6.69
5.85
4.73
3.32
1.68
-0.13
-2.01
-3.94
-5.90
-7.92
-10.07
-12.35
-14.71
-17.01
-19.02
-20.47
-21.08
-20.66
-19.15
-16.67
-13.49
-10.02
-6.67
-3.76
-1.46
0.22
1.38
2.15
2.62
2.84
2.88
2.80
2.68
2.58
2.53
2.49
2.40
2.21
1.91
1.58
1.28
1.09
0.99
0.89
0.64
0.14
-0.63
-1.59
-2.59
-3.53
-4.38
-5.23
-6.23
-7.51
-9.10
-10.87
-12.58
-13.87
-14.42
-14.02
-12.63
-10.34
-7.41
-4.14
-0.82
2.26
4.94
7.10
8.71
9.81
10.48
10.81
10.89
10.77
10.53
10.24
9.95
9.71
9.51
9.33
9.12
8.89
8.66
8.45
8.27
8.08
7.83
7.42
6.81
5.98
5.00
3.99
3.08
2.36
1.77
1.17
0.37
-0.75
-2.16
-3.68
-5.07
-6.17
-6.95
-7.53
-8.10
-8.85
-9.91
-11.28
-12.91
-14.68
-16.41
-17.81
-18.58
-18.41
-17.15
-14.80
-11.60
-7.93
-4.20
-0.75
2.23
4.72
6.79
8.53
9.99
11.17
12.05
12.64
13.04
13.37
13.78
14.35
15.09
15.96
16.88
17.76
18.58
19.38
20.21
21.18
22.30
23.50
24.64
25.56
26.18
26.52
26.66
26.75
26.90
27.10
27.34
27.59
27.91
28.42
29.24
30.42
31.88
33.44
34.94
36.31
37.62
39.02
40.67
42.59
44.68
46.69
48.39
49.65
50.47
50.93
51.08
50.89
50.14
48.54
45.71
41.31
35.02
26.61
15.93
3.00
-11.87
-28.10
-44.85
-61.22
-76.36
-89.67
-100.71
-109.21
-114.95
-117.79
-117.71
-114.98
-110.13
-103.91
-97.13
-90.48
-84.42
-79.15
-74.68
-70.97
-67.95
-65.55
-63.66
-62.05
-60.37
-58.21
-55.18
-51.10
-46.03
-40.27
-34.25
-28.35
-22.80
-17.65
-12.90
-8.55
-4.71
-1.53
0.93
2.73
4.05
5.13
6.11
6.97
7.56
7.75
7.52
6.99
6.41
6.02
5.92
6.08
6.37
6.63
6.74
6.63
6.25
5.58
4.67
3.62
2.59
1.77
1.28
1.15
1.28
1.48
1.52
1.21
0.44
-0.73
-2.07
-3.21
-3.73
-3.25
-1.64
1.03
4.48
8.34
12.28
16.03
19.40
22.23
24.38
25.71
26.17
25.83
24.86
23.53
22.08
20.70
19.50
18.53
17.80
17.25
16.85
16.55
16.33
16.20
16.17
16.21
16.27
16.24
16.01
15.53
14.76
13.75
12.57
11.29
9.99
8.75
7.63
6.66
5.80
4.97
4.07
3.06
1.93
0.76
-0.37
-1.41
-2.39
-3.38
-4.45
-5.64
-6.98
-8.54
-10.38
-12.50
-14.74
-16.76
-18.10
-18.35
-17.34
-15.19
-12.25
-8.94
-5.61
-2.49
0.34
2.80
4.82
6.31
7.20
7.52
7.38
6.92
6.27
5.54
4.81
4.11
3.47
2.93
2.53
2.30
2.31
2.58
3.12
3.84
4.61
5.28
5.73
5.93
5.97
5.97
5.97
5.94
5.74
5.21
4.26
2.99
1.58
0.29
-0.70
-1.37
-1.84
-2.29
-2.91
-3.79
-4.99
-6.50
-8.34
-10.53
-13.03
-15.71
-18.33
-20.52
-21.94
-22.34
-21.61
-19.88
-17.36
-14.36
-11.09
-7.75
-4.43
-1.23
1.75
4.38
6.54
8.22
9.44
10.34
11.09
11.85
12.70
13.68
14.77
15.90
17.03
18.13
19.19
20.22
21.22
22.18
22.99
23.55
23.79
23.69
23.33
22.85
22.39
21.95
21.40
20.46
18.82
16.23
12.58
7.89
2.34
-3.75
-9.95
-15.70
-20.44
-23.66
-25.04
-24.57
-22.50
-19.24
-15.27
-10.93
-6.45
-1.96
2.42
6.51
10.10
12.98
15.09
16.52
17.51
18.30
19.07
19.79
20.32
20.50
20.20
19.47
18.43
17.22
15.94
14.57
13.04
11.26
9.14
6.62
3.66
0.25
-3.62
-7.92
-12.56
-17.44
-22.46
-27.51
-32.52
-37.37
-41.89
-45.83
-48.89
-50.75
-51.20
-50.19
-47.87
-44.50
-40.48
-36.19
-31.94
-27.94
-24.27
-20.91
-17.83
-14.98
-12.40
-10.12
-8.20
-6.59
-5.18
-3.80
-2.29
-0.61
1.19
3.01
4.73
6.30
7.77
9.19
10.60
11.93
13.06
13.86
14.23
14.17
13.76
13.10
12.29
11.33
10.17
8.67
6.76
4.39
1.64
-1.31
-4.20
-6.72
-8.64
-9.77
-10.06
-9.52
-8.27
-6.44
-4.20
-1.76
0.71
3.03
5.14
7.04
8.78
10.40
11.90
13.27
14.46
15.51
16.50
17.52
18.65
19.86
21.02
21.97
22.52
22.51
21.82
20.42
18.33
15.65
12.56
9.22
5.81
2.47
-0.75
-3.79
-6.59
-9.13
-11.39
-13.36
-15.08
-16.60
-17.93
-19.09
-20.05
-20.82
-21.41
-21.81
-22.07
-22.16
-21.96
-21.25
-19.74
-17.15
-13.35
-8.45
-2.73
3.42
9.65
15.66
21.16
25.83
29.24
30.91
30.53
28.13
24.12
19.27
14.42
10.26
7.18
5.26
4.35
4.21
4.65
5.49
6.61
7.92
9.27
10.48
11.37
11.79
11.70
11.10
10.09
8.77
7.18
5.33
3.16
0.61
-2.32
-5.60
-9.13
-12.88
-16.84
-21.05
-25.52
-30.09
-34.39
-37.91
-40.09
-40.51
-39.05
-35.88
-31.41
-26.15
-20.54
-14.90
-9.46
-4.36
0.26
4.29
7.62
10.18
11.99
13.13
13.75
14.09
14.40
14.90
15.71
16.83
18.16
19.56
20.87
21.98
22.87
23.56
24.12
24.60
25.07
25.50
25.79
25.80
25.41
24.61
23.49
22.23
21.05
20.09
19.36
18.78
18.12
17.02
15.00
11.51
6.13
-1.19
-9.95
-19.15
-27.53
-34.00
-37.98
-39.50
-39.01
-37.11
-34.27
-30.76
-26.82
-22.76
-19.03
-16.08
-14.15
-13.17
-12.80
-12.64
-12.40
-12.05
-11.75
-11.69
-11.98
-12.58
-13.36
-14.22
-15.16
-16.22
-17.43
-18.79
-20.18
-21.44
-22.40
-22.96
-23.10
-22.87
-22.42
-21.84
-21.20
-20.45
-19.43
-17.93
-15.79
-13.02
-9.77
-6.36
-3.17
-0.50
1.50
2.86
3.68
4.10
4.21
4.10
3.84
3.53
3.30
3.23
3.38
3.68
4.05
4.41
4.72
4.99
5.20
5.31
5.21
4.80
4.06
3.04
1.89
0.71
-0.42
-1.54
-2.71
-4.05
-5.63
-7.53
-9.75
-12.21
-14.70
-16.89
-18.35
-18.69
-17.69
-15.40
-12.10
-8.23
-4.24
-0.50
2.80
5.62
7.99
9.94
11.47
12.56
13.18
13.39
13.32
13.15
13.09
13.28
13.73
14.31
14.86
15.22
15.35
15.32
15.24
15.19
15.20
15.19
15.08
14.80
14.29
13.53
12.52
11.30
9.91
8.42
6.95
5.55
4.26
3.03
1.82
0.63
-0.56
-1.71
-2.86
-4.04
-5.33
-6.76
-8.36
-10.10
-11.92
-13.69
-15.20
-16.19
-16.39
-15.58
-13.70
-10.87
-7.32
-3.39
0.57
4.23
7.35
9.70
11.24
12.01
12.20
12.01
11.61
11.09
10.50
9.89
9.37
9.07
9.07
9.31
9.64
9.88
9.96
9.88
9.73
9.54
9.25
8.72
7.84
6.62
5.16
3.64
2.18
0.80
-0.57
-2.01
-3.55
-5.14
-6.64
-7.86
-8.63
-8.79
-8.29
-7.12
-5.38
-3.23
-0.87
1.55
3.92
6.19
8.33
10.28
11.93
13.09
13.61
13.46
12.73
11.66
10.56
9.67
9.12
8.87
8.87
9.01
9.21
9.39
9.42
9.19
8.62
7.71
6.62
5.51
4.53
3.73
3.03
2.29
1.40
0.26
-1.12
-2.65
-4.16
-5.42
-6.11
-5.90
-4.60
-2.24
0.91
4.40
7.75
10.67
13.09
15.15
17.03
18.81
20.42
21.67
22.34
22.37
21.89
21.18
20.54
20.18
20.14
20.33
20.63
20.95
21.28
21.67
22.16
22.71
23.23
23.57
23.64
23.45
23.10
22.75
22.51
22.43
22.44
22.45
22.34
22.05
21.58
20.92
20.04
18.90
17.55
16.23
15.40
15.62
17.32
20.57
25.02
30.03
34.92
39.18
42.58
45.16
47.06
48.41
49.36
50.05
50.60
51.08
51.39
51.25
50.23
47.89
44.00
38.57
31.92
24.53
16.89
9.40
2.27
-4.51
-11.08
-17.66
-24.42
-31.44
-38.70
-46.02
-53.11
-59.60
-65.06
-69.16
-71.72
-72.80
-72.66
-71.67
-70.18
-68.43
-66.53
-64.52
-62.43
-60.33
-58.35
-56.61
-55.13
-53.80
-52.38
-50.59
-48.18
-45.00
-41.08
-36.55
-31.63
-26.61
-21.75
-17.29
-13.35
-9.94
-6.99
-4.40
-2.13
-0.28
0.95
1.38
0.95
-0.15
-1.53
-2.75
-3.44
-3.46
-2.86
-1.82
-0.60
0.61
1.67
2.49
2.99
3.10
2.79
2.05
0.94
-0.43
-1.89
-3.33
-4.70
-6.03
-7.37
-8.71
-9.91
-10.74
-10.93
-10.27
-8.75
-6.53
-3.90
-1.19
1.36
3.58
5.42
6.95
8.26
9.42
10.48
11.42
12.15
12.57
12.59
12.18
11.39
10.31
9.09
7.86
6.77
5.89
5.29
4.94
4.75
4.63
4.46
4.19
3.76
3.19
2.48
1.65
0.73
-0.28
-1.31
-2.34
-3.35
-4.38
-5.51
-6.84
-8.38
-10.05
-11.61
-12.75
-13.15
-12.58
-10.98
-8.51
-5.48
-2.31
0.62
3.05
4.86
6.09
6.90
7.46
7.88
8.17
8.28
8.15
7.74
7.12
6.42
5.75
5.15
4.60
4.05
3.44
2.84
2.35
2.12
2.20
2.51
2.86
3.02
2.86
2.37
1.73
1.15
0.85
0.88
1.18
1.55
1.80
1.79
1.55
1.18
0.85
0.65
0.54
0.37
-0.01
-0.68
-1.58
-2.57
-3.55
-4.52
-5.52
-6.58
-7.63
-8.43
-8.75
-8.40
-7.40
-5.93
-4.19
-2.39
-0.62
1.07
2.61
3.88
4.76
5.18
5.17
4.85
4.37
3.87
3.43
3.08
2.81
2.62
2.54
2.56
2.68
2.89
3.13
3.34
3.45
3.40
3.17
2.81
2.36
1.82
1.18
0.35
-0.73
-2.07
-3.55
-5.02
-6.33
-7.42
-8.32
-9.12
-9.94
-10.82
-11.79
-12.84
-13.97
-15.11
-16.16
-16.90
-17.06
-16.39
-14.74
-12.18
-8.92
-5.33
-1.73
1.67
4.76
7.57
10.14
12.48
14.58
16.42
17.99
19.36
20.70
22.19
24.00
26.20
28.77
31.59
34.53
37.42
40.12
42.45
44.21
45.19
45.21
44.22
42.33
39.78
36.89
33.97
31.24
28.89
27.02
25.72
25.04
25.01
25.67
27.06
29.25
32.30
36.28
41.13
46.65
52.50
58.22
63.26
67.00
68.87
68.27
64.75
57.99
48.00
35.05
19.78
3.05
-14.16
-30.90
-46.32
-59.70
-70.48
-78.25
-82.81
-84.23
-82.85
-79.22
-74.01
-67.88
-61.37
-54.90
-48.80
-43.39
-39.02
-35.98
-34.44
-34.29
-35.18
-36.56
-37.88
-38.70
-38.76
-38.02
-36.52
-34.38
-31.77
-28.91
-26.11
-23.67
-21.81
-20.57
-19.78
-19.18
-18.50
-17.64
-16.67
-15.73
-14.96
-14.38
-13.93
-13.51
-13.05
-12.56
-12.06
-11.57
-11.04
-10.38
-9.55
-8.55
-7.53
-6.66
-6.16
-6.15
-6.63
-7.48
-8.52
-9.58
-10.59
-11.58
-12.66
-13.87
-15.14
-16.26
-17.01
-17.20
-16.85
-16.10
-15.17
-14.21
-13.20
-12.00
-10.39
-8.23
-5.51
-2.37
1.05
4.62
8.31
12.09
15.91
19.60
22.89
25.58
27.59
29.04
30.22
31.43
32.80
34.28
35.61
36.47
36.56
35.74
33.99
31.37
27.95
23.80
18.94
13.44
7.43
1.11
-5.23
-11.28
-16.76
-21.42
-25.08
-27.69
-29.32
-30.14
-30.44
-30.51
-30.55
-30.67
-30.80
-30.81
-30.56
-29.90
-28.74
-26.95
-24.43
-21.15
-17.15
-12.61
-7.82
-3.06
1.38
5.30
8.60
11.21
13.17
14.54
15.46
16.11
16.65
17.20
17.75
18.15
18.21
17.75
16.70
15.17
13.40
11.67
10.16
8.91
7.77
6.52
4.94
2.92
0.51
-2.14
-4.81
-7.30
-9.48
-11.32
-12.85
-14.20
-15.47
-16.71
-17.82
-18.64
-18.94
-18.57
-17.45
-15.59
-13.03
-9.81
-5.97
-1.57
3.31
8.45
13.58
18.26
21.91
23.75
22.94
18.78
11.01
0.06
-12.89
-26.15
-37.92
-46.82
-52.08
-53.69
-52.15
-48.27
-42.97
-37.08
-31.33
-26.25
-22.15
-19.11
-17.00
-15.59
-14.70
-14.21
-14.12
-14.41
-15.01
-15.76
-16.45
-16.82
-16.65
-15.69
-13.74
-10.65
-6.42
-1.19
4.72
10.82
16.64
21.83
26.29
30.13
33.61
36.96
40.30
43.54
46.51
49.02
50.99
52.53
53.84
55.18
56.73
58.55
60.54
62.53
64.30
65.69
66.63
67.10
67.13
66.64
65.44
63.13
59.29
53.52
45.62
35.62
23.82
10.76
-2.82
-16.01
-27.83
-37.40
-44.05
-47.58
-48.19
-46.47
-43.24
-39.29
-35.29
-31.69
-28.76
-26.59
-25.22
-24.58
-24.56
-25.04
-25.85
-26.84
-27.88
-28.79
-29.46
-29.77
-29.68
-29.24
-28.54
-27.76
-27.00
-26.23
-25.29
-23.95
-22.01
-19.48
-16.62
-13.82
-11.54
-10.07
-9.51
-9.75
-10.64
-12.00
-13.68
-15.57
-17.52
-19.38
-20.98
-22.22
-23.02
-23.34
-23.13
-22.33
-20.87
-18.72
-15.94
-12.65
-9.02
-5.24
-1.45
2.24
5.74
8.98
11.86
14.32
16.30
17.81
18.94
19.83
20.64
21.53
22.59
23.88
25.40
27.08
28.85
30.54
31.96
32.95
33.42
33.41
33.02
32.43
31.74
30.96
30.00
28.72
27.02
24.88
22.32
19.43
16.36
13.30
10.52
8.37
7.16
7.03
7.85
9.23
10.65
11.69
12.17
12.17
11.92
11.64
11.41
11.13
10.71
10.08
9.36
8.78
8.60
9.04
10.21
12.04
14.34
16.80
19.04
20.74
21.67
21.75
21.00
19.52
17.44
14.86
11.93
8.85
5.79
2.82
-0.12
-3.25
-6.82
-10.94
-15.48
-20.06
-24.19
-27.33
-29.14
-29.40
-28.10
-25.44
-21.84
-17.91
-14.32
-11.69
-10.32
-10.15
-10.71
-11.36
-11.48
-10.66
-8.84
-6.25
-3.44
-1.10
0.01
-0.73
-3.58
-8.22
-13.70
-18.62
-21.59
-21.72
-18.88
-13.80
-7.70
-1.82
3.00
6.41
8.52
9.58
9.82
9.45
8.67
7.79
7.24
7.43
8.59
10.72
13.54
16.59
19.45
21.74
23.25
23.88
23.62
22.51
20.61
18.02
14.86
11.32
7.60
3.97
0.59
-2.39
-4.92
-6.98
-8.61
-9.83
-10.69
-11.22
-11.48
-11.51
-11.41
-11.27
-11.21
-11.38
-11.91
-12.86
-14.27
-16.04
-18.03
-20.09
-22.02
-23.65
-24.81
-25.40
-25.43
-25.05
-24.48
-23.93
-23.52
-23.15
-22.58
-21.48
-19.59
-16.85
-13.43
-9.70
-6.14
-3.17
-1.03
0.23
0.79
0.89
0.81
0.72
0.73
0.86
1.08
1.36
1.66
1.94
2.17
2.37
2.57
2.84
3.18
3.57
3.98
4.39
4.87
5.56
6.59
8.02
9.81
11.81
13.82
15.70
17.36
18.77
19.90
20.64
20.81
20.22
18.80
16.64
14.07
11.56
9.61
8.62
8.77
10.02
12.08
14.56
17.10
19.39
21.28
22.70
23.64
24.08
24.01
23.37
22.13
20.31
17.93
15.07
11.85
8.44
5.06
1.97
-0.67
-2.80
-4.51
-5.99
-7.38
-8.71
-9.92
-10.92
-11.74
-12.52
-13.51
-14.85
-16.54
-18.40
-20.16
-21.63
-22.81
-23.86
-25.05
-26.60
-28.54
-30.72
-32.87
-34.64
-35.71
-35.84
-34.89
-32.83
-29.79
-25.98
-21.72
-17.28
-12.90
-8.72
-4.85
-1.42
1.42
3.48
4.65
4.97
4.66
4.06
3.48
3.16
3.12
3.22
3.19
2.75
1.67
-0.13
-2.60
-5.57
-8.78
-11.94
-14.90
-17.61
-20.15
-22.65
-25.16
-27.59
-29.66
-31.01
-31.30
-30.35
-28.21
-25.12
-21.45
-17.56
-13.78
-10.35
-7.47
-5.31
-3.99
-3.48
-3.59
-3.97
-4.20
-3.91
-2.92
-1.25
0.91
3.33
5.89
8.56
11.35
14.25
17.14
19.73
21.63
22.41
21.72
19.43
15.74
11.17
6.39
2.04
-1.55
-4.39
-6.73
-8.76
-10.40
-11.26
-10.77
-8.54
-4.55
0.87
7.16
13.82
20.47
26.82
32.57
37.31
40.61
42.17
41.96
40.29
37.64
34.51
31.29
28.21
25.40
22.93
20.84
19.17
17.88
16.92
16.27
15.88
15.69
15.60
15.36
14.63
13.10
10.63
7.34
3.62
-0.12
-3.56
-6.65
-9.57
-12.56
-15.68
-18.68
-21.02
-22.01
-21.11
-18.09
-13.14
-6.84
0.04
6.77
12.78
17.80
21.80
24.88
27.14
28.59
29.11
28.58
27.05
24.84
22.51
20.73
20.10
20.90
23.07
26.23
29.80
33.12
35.54
36.52
35.72
33.13
29.06
24.14
19.08
14.50
10.76
7.88
5.73
4.07
2.70
1.40
-0.03
-1.84
-4.24
-7.36
-11.25
-15.91
-21.42
-27.89
-35.40
-43.77
-52.46
-60.60
-67.17
-71.37
-72.85
-71.78
-68.65
-64.06
-58.52
-52.37
-45.91
-39.44
-33.29
-27.75
-22.97
-18.88
-15.32
-12.08
-9.08
-6.28
-3.71
-1.34
0.93
3.22
5.63
8.17
10.79
13.44
16.08
18.69
21.22
23.53
25.44
26.80
27.55
27.83
27.85
27.92
28.25
28.89
29.71
30.41
30.65
30.12
28.63
26.11
22.67
18.55
14.08
9.71
5.85
2.78
0.63
-0.66
-1.33
-1.67
-1.88
-2.01
-1.96
-1.60
-0.80
0.40
1.82
3.23
4.43
5.37
6.12
6.81
7.56
8.40
9.24
9.92
10.31
10.31
9.88
8.97
7.55
5.59
3.12
0.21
-2.96
-6.21
-9.32
-12.10
-14.39
-16.02
-16.86
-16.79
-15.79
-14.02
-11.75
-9.39
-7.30
-5.74
-4.81
-4.44
-4.43
-4.61
-4.83
-5.06
-5.25
-5.45
-5.65
-5.86
-6.08
-6.32
-6.54
-6.71
-6.77
-6.66
-6.33
-5.78
-5.06
-4.24
-3.43
-2.76
-2.36
-2.32
-2.69
-3.44
-4.46
-5.59
-6.73
-7.87
-9.11
-10.62
-12.54
-14.84
-17.26
-19.34
-20.58
-20.59
-19.18
-16.49
-12.83
-8.60
-4.13
0.38
4.87
9.33
13.70
17.78
21.24
23.71
24.87
24.66
23.27
21.17
18.90
16.89
15.28
13.90
12.35
10.19
7.11
3.05
-1.74
-6.78
-11.38
-14.84
-16.60
-16.42
-14.48
-11.35
-7.80
-4.55
-2.05
-0.35
0.74
1.54
2.26
2.95
3.56
4.09
4.62
5.36
6.51
8.19
10.35
12.83
15.43
18.00
20.41
22.58
24.39
25.72
26.43
26.43
25.67
24.17
22.00
19.28
16.23
13.12
10.22
7.75
5.81
4.39
3.37
2.64
2.13
1.85
1.91
2.38
3.28
4.52
5.82
6.86
7.30
6.91
5.69
3.77
1.46
-0.94
-3.18
-5.20
-7.05
-8.93
-11.05
-13.57
-16.53
-19.82
-23.18
-26.27
-28.72
-30.15
-30.29
-28.98
-26.27
-22.39
-17.74
-12.78
-7.93
-3.49
0.37
3.57
6.07
7.88
9.01
9.54
9.61
9.34
8.83
8.14
7.26
6.19
4.94
3.57
2.14
0.71
-0.72
-2.10
-3.43
-4.62
-5.65
-6.49
-7.19
-7.86
-8.65
-9.74
-11.33
-13.64
-16.84
-20.95
-25.74
-30.70
-35.16
-38.48
-40.21
-40.21
-38.65
-35.84
-32.13
-27.77
-22.96
-17.91
-12.85
-8.05
-3.79
-0.29
2.37
4.25
5.53
6.45
7.28
8.21
9.33
10.62
11.93
13.13
14.08
14.73
15.07
15.14
15.02
14.75
14.34
13.73
12.72
11.09
8.60
5.15
0.86
-3.94
-8.73
-12.93
-16.04
-17.70
-17.74
-16.21
-13.32
-9.42
-4.89
-0.03
4.95
9.94
14.88
19.66
24.07
27.84
30.64
32.21
32.43
31.33
29.13
26.17
22.86
19.58
16.60
14.06
11.93
10.08
8.39
6.73
5.05
3.31
1.50
-0.43
-2.51
-4.76
-7.13
-9.54
-11.92
-14.21
-16.47
-18.79
-21.26
-23.83
-26.22
-27.97
-28.57
-27.67
-25.16
-21.29
-16.52
-11.40
-6.44
-1.96
1.88
5.08
7.68
9.73
11.24
12.14
12.32
11.69
10.26
8.20
5.88
3.83
2.60
2.56
3.78
5.83
7.91
9.00
8.25
5.27
0.19
-6.40
-13.67
-20.76
-26.84
-31.16
-33.15
-32.67
-30.22
-27.06
-24.79
-24.84
-27.87
-33.54
-40.80
-48.42
-55.46
-61.44
-66.12
-69.18
-70.16
-68.64
-64.54
-58.26
-50.54
-42.06
-33.11
-23.60
-13.33
-2.37
8.68
18.83
27.05
32.67
35.63
36.45
35.97
35.05
34.32
34.10
34.39
35.05
35.92
36.87
37.85
38.77
39.49
39.76
39.30
37.86
35.39
32.04
28.13
24.02
20.01
16.29
13.02
10.39
8.64
8.03
8.62
10.31
12.71
15.33
17.70
19.48
20.53
20.81
20.32
19.07
17.12
14.67
12.03
9.66
7.94
7.09
7.07
7.57
8.16
8.47
8.29
7.67
6.81
5.97
5.42
5.24
5.37
5.60
5.75
5.70
5.43
5.04
4.64
4.56
5.07
6.32
8.28
10.91
14.14
17.86
21.95
26.17
30.56
35.03
39.24
42.66
44.83
45.61
45.12
43.83
42.21
41.29
41.60
42.93
44.27
44.44
42.74
39.08
34.30
29.51
26.53
26.56
29.68
34.93
40.92
46.54
50.87
53.69
49.88
37.10
17.12
-4.73
-23.28
-36.39
-43.45
-47.20
-49.39
-50.75
-50.61
-48.53
-45.35
-42.65
-42.03
-44.23
-49.07
-55.23
-61.29
-65.56
-67.13
-66.14
-63.56
-60.53
-57.79
-55.78
-54.47
-53.76
-53.05
-51.62
-48.85
-44.40
-38.15
-30.06
-20.49
-9.93
0.96
11.78
22.33
32.57
42.38
50.66
56.13
57.72
55.44
50.41
44.39
38.93
35.50
33.26
30.86
27.16
21.68
14.73
7.23
0.43
-4.50
-7.01
-7.53
-7.10
-7.03
-8.48
-12.11
-17.82
-24.85
-31.91
-37.64
-41.08
-41.81
-40.08
-36.76
-33.00
-29.86
-28.00
-27.62
-28.55
-30.49
-33.06
-35.88
-38.58
-40.73
-41.87
-41.55
-39.46
-35.57
-30.21
-23.96
-17.48
-11.31
-5.69
-0.57
4.19
8.67
12.66
15.76
17.59
18.02
17.26
15.78
14.12
12.70
11.66
10.93
10.38
9.91
9.55
9.36
9.37
9.58
9.89
10.19
10.34
10.26
9.87
9.12
7.98
6.49
4.74
2.86
0.95
-0.99
-3.06
-5.38
-7.94
-10.53
-12.73
-14.03
-14.04
-12.62
-9.99
-6.63
-3.12
0.03
2.50
4.21
5.24
5.73
5.82
5.58
5.06
4.29
3.37
2.38
1.44
0.61
-0.11
-0.78
-1.43
-2.09
-2.73
-3.28
-3.63
-3.65
-3.26
-2.47
-1.34
-0.09
1.04
1.78
1.98
1.60
0.77
-0.28
-1.26
-1.89
-2.00
-1.56
-0.66
0.54
1.90
3.31
4.72
6.11
7.38
8.35
8.76
8.40
7.22
5.34
3.04
0.67
-1.46
-3.19
-4.48
-5.38
-5.98
-6.40
-6.74
-7.12
-7.58
-8.12
-8.70
-9.25
-9.76
-10.26
-10.84
-11.56
-12.42
-13.32
-14.09
-14.54
-14.51
-13.89
-12.60
-10.62
-7.95
-4.69
-1.02
2.79
6.44
9.68
12.39
14.57
16.27
17.60
18.60
19.27
19.61
19.60
19.34
18.90
18.38
17.80
17.13
16.36
15.51
14.64
13.81
13.03
12.21
11.23
10.00
8.55
6.98
5.45
4.03
2.65
1.11
-0.81
-3.21
-5.95
-8.69
-10.90
-12.12
-12.08
-10.78
-8.46
-5.50
-2.31
0.81
3.61
5.98
7.83
9.15
9.95
10.36
10.48
10.44
10.29
10.05
9.73
9.37
9.04
8.76
8.52
8.24
7.85
7.30
6.62
5.84
5.00
4.10
3.11
2.01
0.84
-0.34
-1.44
-2.48
-3.55
-4.82
-6.42
-8.35
-10.45
-12.36
-13.68
-14.05
-13.31
-11.54
-9.01
-6.10
-3.12
-0.26
2.38
4.78
6.89
8.60
9.83
10.52
10.70
10.47
9.96
9.27
8.49
7.68
6.97
6.47
6.25
6.31
6.54
6.75
6.79
6.56
6.06
5.34
4.48
3.53
2.52
1.46
0.37
-0.73
-1.86
-3.08
-4.44
-5.98
-7.60
-9.09
-10.15
-10.48
-9.92
-8.48
-6.35
-3.86
-1.33
0.99
2.98
4.62
5.93
6.94
7.59
7.78
7.38
6.38
4.92
3.31
1.92
1.01
0.66
0.68
0.80
0.75
0.47
-0.03
-0.61
-1.24
-1.97
-2.92
-4.16
-5.65
-7.24
-8.81
-10.34
-11.94
-13.73
-15.70
-17.64
-19.16
-19.83
-19.40
-17.84
-15.39
-12.37
-9.09
-5.73
-2.37
0.93
4.08
6.99
9.54
11.71
13.50
15.00
16.25
17.24
17.90
18.16
18.00
17.51
16.83
16.09
15.39
14.70
13.91
12.94
11.79
10.53
9.26
8.01
6.75
5.40
3.87
2.11
0.15
-1.98
-4.23
-6.50
-8.59
-10.19
-10.97
-10.71
-9.42
-7.33
-4.85
-2.37
-0.12
1.85
3.59
5.13
6.45
7.44
8.02
8.16
7.94
7.51
7.03
6.62
6.32
6.12
5.99
5.89
5.77
5.64
5.50
5.35
5.15
4.85
4.39
3.73
2.86
1.82
0.66
-0.52
-1.69
-2.83
-3.96
-5.15
-6.47
-7.95
-9.59
-11.28
-12.86
-14.08
-14.69
-14.47
-13.34
-11.35
-8.73
-5.81
-2.96
-0.43
1.67
3.34
4.71
5.83
6.75
7.40
7.73
7.74
7.50
7.17
6.89
6.74
6.71
6.71
6.69
6.62
6.54
6.50
6.49
6.42
6.18
5.67
4.87
3.87
2.82
1.83
0.89
-0.09
-1.21
-2.51
-3.95
-5.40
-6.72
-7.89
-8.98
-10.13
-11.46
-12.98
-14.53
-15.81
-16.52
-16.42
-15.40
-13.54
-11.02
-8.11
-5.08
-2.17
0.42
2.56
4.21
5.35
6.04
6.38
6.48
6.44
6.36
6.31
6.30
6.30
6.25
6.12
5.88
5.58
5.30
5.11
5.04
5.08
5.17
5.21
5.06
4.62
3.85
2.75
1.43
0.05
-1.24
-2.34
-3.21
-3.97
-4.72
-5.60
-6.71
-8.06
-9.60
-11.19
-12.60
-13.60
-13.96
-13.53
-12.30
-10.40
-8.07
-5.61
-3.27
-1.20
0.55
1.99
3.17
4.14
4.86
5.32
5.47
5.29
4.83
4.16
3.40
2.66
2.02
1.54
1.23
1.06
0.95
0.75
0.36
-0.33
-1.38
-2.80
-4.52
-6.41
-8.27
-9.89
-11.11
-11.91
-12.34
-12.51
-12.46
-12.07
-11.13
-9.43
-6.86
-3.54
0.26
4.21
8.01
11.51
14.66
17.43
19.75
21.49
22.49
22.64
21.94
20.52
18.64
16.60
14.66
12.97
11.58
10.44
9.50
8.70
8.07
7.64
7.46
7.57
7.98
8.66
9.49
10.32
10.96
11.25
11.10
10.52
9.63
8.65
7.79
7.30
7.33
8.01
9.32
11.16
13.33
15.53
17.49
18.96
19.84
20.07
19.63
18.50
16.60
13.86
10.23
5.80
0.75
-4.61
-9.95
-14.99
-19.52
-23.43
-26.67
-29.23
-31.12
-32.37
-33.02
-33.21
-33.10
-32.92
-32.85
-33.01
-33.40
-33.93
-34.44
-34.81
-34.93
-34.76
-34.19
-33.13
-31.47
-29.16
-26.25
-22.92
-19.43
-15.98
-12.71
-9.65
-6.74
-3.96
-1.30
1.14
3.24
4.89
6.07
6.89
7.56
8.27
9.13
10.10
10.99
11.61
11.84
11.68
11.25
10.71
10.15
9.60
9.03
8.46
7.93
7.51
7.20
6.89
6.37
5.46
4.07
2.32
0.54
-0.83
-1.32
-0.63
1.38
4.58
8.64
13.14
17.63
21.75
25.27
28.10
30.24
31.73
32.62
32.93
32.64
31.72
30.11
27.76
24.67
20.88
16.55
11.89
7.18
2.73
-1.25
-4.66
-7.53
-10.02
-12.36
-14.70
-17.12
-19.61
-22.06
-24.35
-26.37
-28.06
-29.34
-30.17
-30.52
-30.42
-29.98
-29.38
-28.80
-28.35
-27.96
-27.40
-26.34
-24.48
-21.70
-18.15
-14.15
-10.08
-6.27
-2.84
0.18
2.88
5.27
7.34
9.04
10.35
11.34
12.09
12.65
13.03
13.24
13.30
13.28
13.25
13.27
13.29
13.18
12.80
12.06
10.99
9.67
8.18
6.61
4.96
3.23
1.49
-0.18
-1.69
-2.98
-4.07
-4.97
-5.65
-6.00
-5.86
-5.06
-3.52
-1.34
1.23
3.85
6.22
8.13
9.50
10.35
10.66
10.41
9.58
8.20
6.39
4.36
2.32
0.43
-1.24
-2.71
-4.03
-5.23
-6.30
-7.21
-7.96
-8.55
-9.05
-9.53
-10.00
-10.45
-10.81
-11.06
-11.18
-11.24
-11.33
-11.50
-11.75
-12.04
-12.23
-12.23
-11.93
-11.31
-10.34
-9.05
-7.47
-5.71
-3.90
-2.25
-0.93
-0.07
0.28
0.13
-0.42
-1.23
-2.21
-3.23
-4.22
-5.11
-5.84
-6.39
-6.81
-7.15
-7.56
-8.12
-8.91
-9.88
-10.95
-11.97
-12.81
-13.40
-13.75
-13.93
-14.00
-13.99
-13.87
-13.55
-12.87
-11.73
-10.05
-7.85
-5.18
-2.09
1.31
4.90
8.51
11.94
14.95
17.37
19.09
20.15
20.66
20.75
20.50
19.93
19.02
17.78
16.29
14.69
13.10
11.56
10.01
8.29
6.31
4.07
1.69
-0.67
-2.89
-4.95
-6.91
-8.88
-10.87
-12.82
-14.54
-15.81
-16.43
-16.24
-15.19
-13.38
-10.99
-8.28
-5.48
-2.71
-0.02
2.61
5.19
7.67
9.95
11.96
13.69
15.19
16.57
17.96
19.41
20.95
22.56
24.17
25.70
27.03
28.04
28.66
28.87
28.75
28.39
27.89
27.27
26.49
25.42
23.96
22.03
19.63
16.85
13.86
10.93
8.34
6.38
5.22
4.90
5.32
6.30
7.66
9.27
11.05
12.93
14.77
16.36
17.45
17.88
17.63
16.85
15.84
14.83
13.94
13.02
11.80
10.00
7.51
4.46
1.12
-2.24
-5.45
-8.50
-11.45
-14.35
-17.12
-19.59
-21.51
-22.66
-22.77
-21.61
-19.02
-15.02
-9.92
-4.30
1.10
5.52
8.37
9.32
8.24
5.26
0.65
-5.07
-11.25
-17.11
-21.85
-24.83
-25.60
-23.92
-19.83
-13.64
-5.86
2.82
11.76
20.58
29.24
38.08
47.53
57.81
68.61
78.99
87.59
92.97
94.00
90.25
82.02
70.26
56.22
41.12
25.83
10.82
-3.78
-17.92
-31.49
-44.20
-55.61
-65.30
-73.01
-78.73
-82.62
-84.88
-85.62
-84.75
-82.12
-77.60
-71.26
-63.41
-54.60
-45.44
-36.53
-28.33
-21.11
-15.07
-10.30
-6.85
-4.76
-3.95
-4.23
-5.23
-6.45
-7.36
-7.51
-6.69
-4.96
-2.61
-0.05
2.40
4.55
6.41
8.10
9.77
11.58
13.68
16.21
19.25
22.77
26.64
30.54
34.07
36.76
38.12
37.72
35.23
30.60
24.11
16.38
8.26
0.58
-6.01
-11.21
-15.05
-17.78
-19.66
-20.89
-21.57
-21.74
-21.45
-20.74
-19.63
-18.05
-15.85
-12.82
-8.84
-3.92
1.71
7.64
13.37
18.54
22.95
26.64
29.75
32.30
34.11
34.75
33.69
30.50
25.04
17.57
8.69
-0.70
-9.61
-17.05
-22.19
-24.39
-23.40
-19.43
-13.14
-5.61
1.87
8.10
12.24
14.01
13.69
12.01
9.86
8.02
6.97
6.85
7.58
8.91
10.48
11.85
12.42
11.67
9.31
5.51
0.98
-3.28
-6.29
-7.55
-7.14
-5.68
-3.96
-2.66
-2.21
-2.75
-4.39
-7.20
-11.26
-16.49
-22.54
-28.76
-34.32
-38.48
-40.75
-41.05
-39.61
-36.81
-33.09
-28.85
-24.49
-20.45
-17.18
-15.02
-13.97
-13.60
-13.15
-11.81
-9.03
-4.80
0.47
6.08
11.39
15.93
19.36
21.37
21.62
19.86
16.16
11.12
5.77
1.25
-1.54
-2.34
-1.45
0.42
2.53
4.20
4.90
4.14
1.45
-3.39
-10.18
-18.15
-26.12
-32.88
-37.65
-40.31
-41.26
-41.16
-40.61
-40.00
-39.67
-40.02
-41.51
-44.58
-49.35
-55.52
-62.49
-69.61
-76.43
-82.70
-88.17
-92.29
-94.11
-92.50
-86.64
-76.46
-62.88
-47.56
-32.42
-19.02
-8.19
0.12
6.61
12.31
18.14
24.66
31.96
39.64
47.01
53.31
58.01
60.95
62.38
62.79
62.78
62.92
63.58
65.03
67.36
70.53
74.25
77.99
81.00
82.49
81.86
78.95
74.13
68.18
62.06
56.56
52.10
48.60
45.72
43.04
40.29
37.35
34.14
30.49
26.02
20.34
13.23
4.96
-3.71
-11.66
-17.85
-21.67
-23.23
-23.18
-22.48
-22.04
-22.43
-23.93
-26.61
-30.38
-35.03
-40.02
-44.51
-47.37
-47.57
-44.56
-38.53
-30.37
-21.39
-12.87
-5.80
-0.80
1.86
2.11
0.19
-3.26
-7.23
-10.50
-11.98
-11.20
-8.41
-4.56
-0.87
1.51
1.86
-0.06
-3.99
-9.30
-15.08
-20.27
-23.92
-25.43
-24.81
-22.70
-20.21
-18.56
-18.80
-21.56
-27.02
-34.89
-44.50
-54.88
-64.91
-73.60
-80.25
-84.57
-86.55
-86.30
-83.87
-79.25
-72.42
-63.46
-52.60
-40.11
-26.15
-10.77
6.00
23.97
42.62
61.05
78.12
92.63
103.58
110.25
112.29
109.62
102.44
91.10
76.09
58.02
37.61
15.70
-6.81
-29.04
-50.17
-69.62
-87.15
-102.82
-116.97
-129.88
-141.53
-151.30
-158.03
-160.25
-156.73
-146.89
-131.20
-111.07
-88.48
-65.48
-43.71
-24.20
-7.42
6.57
17.92
26.88
33.78
39.01
43.02
46.28
49.13
51.79
54.32
56.59
58.41
59.56
59.89
59.35
58.02
56.03
53.54
50.72
47.66
44.42
41.04
37.47
33.57
29.21
24.32
19.00
13.49
8.14
3.27
-0.89
-4.25
-6.85
-8.79
-10.27
-11.54
-12.82
-14.26
-15.75
-16.95
-17.35
-16.49
-14.10
-10.29
-5.43
-0.02
5.49
10.79
15.68
19.99
23.57
26.24
27.93
28.70
28.84
28.80
29.06
30.05
31.99
34.87
38.37
41.97
45.05
47.00
47.48
46.48
44.30
41.39
38.14
34.70
31.02
26.97
22.49
17.69
12.71
7.71
2.73
-2.17
-6.83
-10.87
-13.72
-14.90
-14.13
-11.56
-7.69
-3.19
1.27
5.20
8.33
10.58
11.99
12.67
12.74
12.35
11.62
10.64
9.57
8.53
7.70
7.20
7.01
7.02
7.01
6.78
6.27
5.57
4.88
4.35
3.99
3.64
3.04
1.95
0.26
-2.01
-4.75
-7.77
-10.87
-13.75
-16.02
-17.21
-16.90
-14.87
-11.23
-6.41
-1.04
4.27
9.07
13.14
16.42
18.92
20.67
21.68
21.97
21.69
21.05
20.29
19.62
19.18
19.03
19.21
19.73
20.62
21.85
23.30
24.80
26.11
27.02
27.38
27.12
26.21
24.69
22.65
20.21
17.58
14.96
12.58
10.69
9.49
9.16
9.78
11.35
13.67
16.45
19.24
21.57
23.03
23.30
22.27
19.98
16.67
12.68
8.38
4.19
0.57
-2.00
-3.15
-2.71
-0.93
1.62
4.11
5.82
6.32
5.60
3.99
1.89
-0.38
-2.66
-4.87
-6.96
-8.83
-10.39
-11.74
-13.21
-15.22
-18.10
-21.84
-25.95
-29.59
-31.86
-32.13
-30.26
-26.65
-22.02
-17.14
-12.53
-8.45
-4.91
-1.83
0.81
2.94
4.47
5.36
5.74
5.83
5.89
6.15
6.65
7.34
8.10
8.84
9.59
10.38
11.24
12.03
12.47
12.28
11.26
9.46
7.15
4.72
2.49
0.56
-1.21
-3.12
-5.49
-8.50
-12.09
-15.96
-19.61
-22.45
-23.98
-23.86
-21.99
-18.54
-13.93
-8.68
-3.35
1.57
5.77
9.11
11.58
13.27
14.29
14.70
14.55
13.92
12.94
11.84
10.83
10.11
9.75
9.74
9.97
10.34
10.73
11.05
11.20
11.07
10.55
9.59
8.20
6.49
4.64
2.84
1.22
-0.21
-1.60
-3.18
-5.21
-7.80
-10.86
-14.01
-16.73
-18.45
-18.78
-17.57
-14.95
-11.25
-6.90
-2.36
1.98
5.80
8.90
11.16
12.60
13.27
13.27
12.75
11.83
10.71
9.59
8.63
7.95
7.58
7.43
7.33
7.13
6.75
6.17
5.40
4.44
3.27
1.86
0.23
-1.57
-3.44
-5.37
-7.41
-9.72
-12.41
-15.43
-18.47
-21.03
-22.55
-22.64
-21.18
-18.39
-14.72
-10.64
-6.52
-2.59
0.99
4.10
6.57
8.25
9.04
9.00
8.31
7.21
5.97
4.77
3.75
3.00
2.59
2.52
2.64
2.76
2.64
2.13
1.26
0.23
-0.75
-1.60
-2.44
-3.54
-5.22
-7.63
-10.71
-14.14
-17.44
-20.07
-21.53
-21.47
-19.77
-16.58
-12.30
-7.47
-2.64
1.76
5.47
8.42
10.61
12.09
12.92
13.16
12.90
12.26
11.36
10.36
9.37
8.55
8.00
7.78
7.85
8.09
8.36
8.47
8.33
7.84
6.98
5.73
4.10
2.10
-0.24
-2.90
-5.88
-9.21
-12.85
-16.66
-20.31
-23.30
-25.04
-25.07
-23.22
-19.67
-14.91
-9.61
-4.43
0.15
3.92
6.84
9.03
10.62
11.65
12.08
11.83
10.88
9.37
7.58
5.84
4.44
3.50
2.92
2.49
2.00
1.33
0.48
-0.49
-1.52
-2.60
-3.73
-4.91
-6.14
-7.44
-8.91
-10.74
-13.15
-16.27
-19.97
-23.84
-27.24
-29.47
-29.92
-28.28
-24.58
-19.19
-12.74
-5.93
0.53
6.09
10.40
13.32
14.92
15.42
15.12
14.31
13.27
12.19
11.18
10.32
9.66
9.25
9.12
9.25
9.57
9.99
10.37
10.64
10.73
10.61
10.24
9.57
8.54
7.14
5.45
3.58
1.69
-0.17
-2.03
-4.03
-6.35
-9.01
-11.86
-14.46
-16.27
-16.77
-15.69
-13.07
-9.28
-4.83
-0.23
4.15
8.11
11.55
14.41
16.61
18.07
18.76
18.76
18.26
17.50
16.70
15.98
15.32
14.63
13.82
12.90
11.98
11.22
10.73
10.49
10.30
9.88
8.98
7.52
5.62
3.51
1.40
-0.61
-2.50
-4.36
-6.26
-8.21
-10.26
-12.44
-14.82
-17.46
-20.24
-22.86
-24.83
-25.64
-24.96
-22.78
-19.45
-15.54
-11.65
-8.21
-5.42
-3.26
-1.67
-0.61
-0.09
-0.20
-0.98
-2.35
-4.16
-6.16
-8.14
-9.95
-11.51
-12.82
-13.88
-14.71
-15.35
-15.82
-16.20
-16.53
-16.80
-16.98
-16.97
-16.76
-16.42
-16.13
-16.09
-16.39
-16.83
-17.01
-16.38
-14.51
-11.30
-7.02
-2.23
2.52
6.87
10.70
14.12
17.23
20.02
22.41
24.28
25.59
26.43
26.93
27.22
27.29
27.11
26.62
25.85
24.89
23.83
22.72
21.51
20.05
18.24
16.05
13.59
11.06
8.64
6.31
3.90
1.03
-2.64
-7.26
-12.70
-18.53
-24.11
-28.75
-31.87
-33.04
-32.14
-29.36
-25.25
-20.53
-15.98
-12.17
-9.29
-7.26
-5.80
-4.67
-3.83
-3.37
-3.44
-4.06
-5.08
-6.25
-7.31
-8.08
-8.54
-8.78
-8.94
-9.17
-9.53
-9.98
-10.31
-10.21
-9.35
-7.53
-4.78
-1.43
2.04
5.15
7.59
9.27
10.29
10.81
10.93
10.67
10.09
9.33
8.66
8.33
8.51
9.13
9.97
10.75
11.28
11.53
11.57
11.54
11.47
11.35
11.16
10.92
10.69
10.57
10.60
10.72
10.84
10.85
10.72
10.53
10.36
10.29
10.25
10.13
9.75
9.04
8.04
6.88
5.69
4.57
3.49
2.35
1.06
-0.40
-1.91
-3.29
-4.30
-4.82
-4.84
-4.46
-3.86
-3.19
-2.52
-1.85
-1.15
-0.36
0.52
1.41
2.22
2.85
3.25
3.43
3.49
3.49
3.50
3.54
3.58
3.51
3.25
2.73
1.95
0.96
-0.10
-1.09
-1.85
-2.30
-2.39
-2.17
-1.78
-1.37
-1.16
-1.30
-1.87
-2.86
-4.18
-5.68
-7.21
-8.60
-9.67
-10.26
-10.23
-9.57
-8.43
-7.09
-5.90
-5.17
-5.04
-5.50
-6.41
-7.55
-8.72
-9.74
-10.52
-11.08
-11.56
-12.18
-13.12
-14.43
-15.96
-17.41
-18.47
-18.93
-18.80
-18.25
-17.55
-16.91
-16.41
-16.04
-15.76
-15.59
-15.63
-16.02
-16.89
-18.29
-20.13
-22.20
-24.20
-25.81
-26.74
-26.77
-25.80
-23.79
-20.83
-17.09
-12.83
-8.34
-3.94
0.05
3.38
5.84
7.27
7.64
7.00
5.56
3.65
1.70
0.11
-0.81
-0.94
-0.38
0.58
1.62
2.50
3.15
3.68
4.22
4.88
5.56
6.06
6.11
5.53
4.33
2.60
0.52
-1.81
-4.32
-6.99
-9.68
-12.14
-13.97
-14.76
-14.20
-12.23
-9.04
-5.04
-0.73
3.46
7.25
10.52
13.27
15.51
17.24
18.41
19.02
19.10
18.74
18.10
17.34
16.60
15.99
15.57
15.38
15.36
15.42
15.38
15.07
14.33
13.10
11.39
9.28
6.85
4.24
1.55
-1.06
-3.43
-5.47
-7.24
-8.93
-10.81
-13.10
-15.81
-18.66
-21.13
-22.67
-22.84
-21.51
-18.84
-15.19
-10.99
-6.61
-2.32
1.71
5.35
8.51
11.10
13.05
14.30
14.82
14.66
13.93
12.87
11.77
10.94
10.56
10.67
11.16
11.84
12.53
13.05
13.29
13.15
12.52
11.38
9.77
7.81
5.72
3.68
1.75
-0.08
-1.96
-4.05
-6.49
-9.27
-12.22
-15.03
-17.24
-18.39
-18.13
-16.33
-13.12
-8.85
-4.00
0.90
5.46
9.39
12.54
14.87
16.39
17.18
17.32
16.98
16.33
15.54
14.76
14.12
13.66
13.43
13.44
13.70
14.17
14.79
15.41
15.85
15.97
15.70
15.10
14.28
13.40
12.57
11.83
11.15
10.45
9.62
8.58
7.24
5.58
3.62
1.48
-0.69
-2.77
-4.69
-6.52
-8.36
-10.35
-12.51
-14.75
-16.81
-18.36
-19.07
-18.69
-17.18
-14.70
-11.57
-8.20
-5.01
-2.30
-0.25
1.10
1.85
2.13
2.13
2.04
2.03
2.23
2.73
3.54
4.64
5.95
7.43
9.00
10.60
12.16
13.57
14.71
15.46
15.72
15.42
14.53
13.12
11.32
9.35
7.44
5.77
4.42
3.32
2.29
1.18
-0.11
-1.58
-3.12
-4.68
-6.25
-7.93
-9.81
-11.96
-14.37
-17.00
-19.83
-22.81
-25.80
-28.54
-30.60
-31.53
-30.99
-28.93
-25.59
-21.41
-16.88
-12.41
-8.23
-4.48
-1.25
1.38
3.33
4.57
5.15
5.20
4.89
4.39
3.83
3.29
2.85
2.57
2.50
2.66
3.01
3.46
3.90
4.24
4.51
4.85
5.45
6.51
8.10
10.06
12.11
13.88
15.08
15.58
15.36
14.52
13.19
11.65
10.30
9.71
10.49
13.09
17.57
23.63
30.63
37.93
45.03
51.68
57.67
62.77
66.57
68.61
68.55
66.29
62.05
56.29
49.57
42.43
35.33
28.62
22.47
16.93
11.83
6.99
2.22
-2.53
-7.18
-11.54
-15.42
-18.72
-21.46
-23.71
-25.62
-27.29
-28.83
-30.36
-31.96
-33.76
-35.90
-38.45
-41.38
-44.49
-47.43
-49.77
-51.12
-51.25
-50.17
-48.03
-45.12
-41.72
-38.03
-34.21
-30.34
-26.49
-22.79
-19.36
-16.35
-13.82
-11.74
-9.98
-8.42
-7.03
-5.94
-5.42
-5.71
-6.88
-8.75
-10.94
-12.95
-14.34
-14.80
-14.20
-12.66
-10.53
-8.38
-6.85
-6.38
-7.00
-8.29
-9.60
-10.44
-10.70
-10.72
-11.04
-12.00
-13.53
-15.17
-16.29
-16.42
-15.39
-13.30
-10.44
-7.06
-3.35
0.55
4.47
8.20
11.50
14.22
16.28
17.71
18.57
18.88
18.61
17.72
16.28
14.44
12.49
10.77
9.52
8.83
8.66
8.82
9.16
9.54
9.89
10.13
10.20
10.00
9.49
8.75
7.89
7.05
6.29
5.51
4.51
3.05
1.01
-1.56
-4.39
-7.16
-9.57
-11.56
-13.29
-15.09
-17.29
-20.01
-23.15
-26.29
-28.92
-30.49
-30.64
-29.23
-26.35
-22.28
-17.42
-12.20
-7.09
-2.50
1.30
4.22
6.40
8.12
9.65
11.09
12.38
13.29
13.66
13.49
12.97
12.42
12.13
12.22
12.62
13.13
13.52
13.67
13.55
13.21
12.72
12.09
11.28
10.22
8.87
7.25
5.47
3.64
1.85
0.12
-1.58
-3.33
-5.17
-7.07
-8.97
-10.82
-12.66
-14.59
-16.74
-19.14
-21.63
-23.88
-25.43
-25.83
-24.83
-22.40
-18.78
-14.38
-9.70
-5.13
-0.94
2.77
5.99
8.73
10.93
12.52
13.38
13.48
12.90
11.85
10.67
9.67
9.07
8.90
9.03
9.25
9.38
9.34
9.18
9.01
8.85
8.63
8.19
7.33
5.98
4.22
2.26
0.29
-1.54
-3.22
-4.82
-6.48
-8.28
-10.34
-12.69
-15.29
-17.90
-20.11
-21.39
-21.22
-19.35
-15.88
-11.25
-6.09
-0.96
3.75
7.90
11.51
14.67
17.50
20.09
22.53
24.85
26.98
28.77
30.05
30.72
30.83
30.65
30.46
30.54
31.01
31.90
33.17
34.86
37.02
39.68
42.71
45.83
48.59
50.61
51.66
51.74
51.01
49.67
47.82
45.35
41.96
37.30
31.11
23.30
14.10
3.94
-6.52
-16.57
-25.54
-32.90
-38.35
-41.84
-43.60
-44.06
-43.72
-43.10
-42.52
-42.11
-41.80
-41.36
-40.58
-39.26
-37.31
-34.74
-31.56
-27.82
-23.56
-18.82
-13.67
-8.22
-2.63
2.99
8.57
14.14
19.77
25.47
31.04
36.01
39.67
41.26
40.27
36.61
30.72
23.44
15.64
8.05
1.00
-5.51
-11.68
-17.71
-23.64
-29.26
-34.22
-38.09
-40.52
-41.31
-40.51
-38.30
-35.00
-30.92
-26.35
-21.48
-16.49
-11.51
-6.63
-1.93
2.64
7.21
11.99
17.17
22.81
28.81
34.87
40.63
45.77
50.11
53.67
56.58
58.96
60.81
62.03
62.42
61.80
60.05
57.10
52.98
47.79
41.64
34.68
26.93
18.39
8.94
-1.46
-12.62
-23.97
-34.63
-43.58
-49.94
-53.29
-53.68
-51.59
-47.71
-42.71
-37.15
-31.49
-26.14
-21.43
-17.61
-14.75
-12.76
-11.61
-11.45
-12.71
-15.93
-21.39
-28.82
-37.29
-45.47
-52.18
-56.88
-59.81
-61.79
-63.59
-65.54
-67.27
-68.07
-67.28
-64.77
-61.03
-56.87
-53.14
-50.43
-49.04
-48.97
-49.86
-50.87
-50.64
-47.51
-40.13
-28.20
-12.88
3.28
17.19
26.31
29.53
27.42
21.77
14.86
8.67
4.52
2.94
3.82
6.55
10.20
13.70
16.12
16.90
15.99
13.80
11.07
8.51
6.68
5.82
5.89
6.56
7.37
7.75
7.30
5.83
3.45
0.59
-2.30
-4.82
-6.85
-8.45
-9.77
-10.89
-11.70
-11.92
-11.25
-9.50
-6.68
-3.03
1.01
4.95
8.30
10.74
12.09
12.38
11.79
10.62
9.18
7.78
6.66
5.97
5.75
5.90
6.23
6.51
6.59
6.40
6.03
5.57
5.06
4.44
3.56
2.26
0.45
-1.79
-4.27
-6.71
-8.78
-10.19
-10.68
-10.12
-8.46
-5.83
-2.47
1.26
4.95
8.28
11.01
13.07
14.50
15.33
15.60
15.31
14.52
13.38
12.19
11.20
10.62
10.42
10.38
10.25
9.84
9.14
8.25
7.33
6.44
5.53
4.47
3.11
1.34
-0.86
-3.47
-6.33
-9.20
-11.71
-13.43
-14.03
-13.37
-11.51
-8.70
-5.29
-1.60
2.11
5.61
8.70
11.22
13.05
14.20
14.77
14.92
14.81
14.54
14.20
13.79
13.36
12.94
12.53
12.17
11.86
11.60
11.39
11.16
10.85
10.36
9.61
8.56
7.20
5.55
3.65
1.51
-0.82
-3.29
-5.80
-8.23
-10.48
-12.37
-13.70
-14.18
-13.54
-11.61
-8.45
-4.37
0.10
4.38
8.01
10.76
12.62
13.77
14.42
14.77
14.93
14.97
14.94
14.91
14.94
15.11
15.40
15.78
16.22
16.79
17.72
19.33
21.78
24.95
28.24
30.81
31.81
30.74
27.57
22.72
16.85
10.66
4.75
-0.33
-4.11
-6.29
-6.82
-6.05
-4.63
-3.31
-2.67
-2.94
-4.07
-5.86
-8.22
-11.15
-14.61
-18.28
-21.47
-23.35
-23.28
-21.15
-17.56
-13.60
-10.41
-8.75
-8.70
-9.78
-11.15
-11.88
-11.21
-8.52
-3.56
3.44
11.63
19.63
25.92
29.34
29.66
27.64
24.74
22.50
21.97
23.44
26.50
30.54
35.05
39.83
44.85
50.01
54.98
59.23
62.31
64.07
64.76
64.97
65.27
66.01
67.15
68.30
68.89
68.44
66.54
62.95
57.47
49.93
40.30
28.69
15.49
1.24
-13.45
-28.01
-41.96
-54.77
-65.76
-74.01
-78.52
-78.60
-74.25
-66.39
-56.81
-47.69
-40.87
-37.35
-37.02
-38.86
-41.47
-43.55
-44.33
-43.54
-41.27
-37.70
-33.05
-27.55
-21.50
-15.34
-9.63
-4.91
-1.59
0.10
0.15
-1.34
-4.19
-8.11
-12.80
-17.82
-22.73
-27.10
-30.63
-33.20
-34.82
-35.48
-35.18
-33.80
-31.35
-28.00
-24.23
-20.75
-18.17
-16.78
-16.33
-16.10
-15.18
-12.84
-8.82
-3.47
2.40
7.79
11.79
13.88
14.02
12.72
10.88
9.57
9.72
11.77
15.54
20.25
24.90
28.57
30.73
31.31
30.55
28.79
26.35
23.49
20.45
17.46
14.71
12.21
9.85
7.38
4.55
1.25
-2.49
-6.54
-10.75
-14.92
-18.80
-22.03
-24.21
-24.99
-24.24
-22.12
-19.03
-15.53
-12.16
-9.34
-7.32
-6.12
-5.63
-5.58
-5.67
-5.67
-5.46
-5.12
-4.79
-4.57
-4.43
-4.24
-3.80
-2.97
-1.75
-0.19
1.68
3.91
6.57
9.68
13.11
16.51
19.51
21.75
23.10
23.57
23.33
22.60
21.56
20.36
19.11
17.87
16.58
15.14
13.34
11.05
8.27
5.17
2.08
-0.64
-2.66
-3.79
-3.97
-3.30
-2.03
-0.49
0.95
1.94
2.23
1.78
0.66
-0.92
-2.70
-4.50
-6.22
-7.80
-9.21
-10.38
-11.25
-11.73
-11.78
-11.43
-10.78
-9.98
-9.17
-8.49
-8.01
-7.82
-7.95
-8.43
-9.25
-10.32
-11.55
-12.87
-14.25
-15.74
-17.40
-19.26
-21.22
-23.08
-24.53
-25.23
-24.93
-23.51
-21.02
-17.72
-14.00
-10.29
-6.98
-4.32
-2.39
-1.11
-0.35
0.07
0.27
0.37
0.52
0.87
1.59
2.71
4.18
5.77
7.20
8.21
8.63
8.41
7.56
6.14
4.22
1.89
-0.69
-3.33
-5.78
-7.82
-9.30
-10.19
-10.53
-10.48
-10.16
-9.69
-9.12
-8.45
-7.61
-6.51
-4.99
-2.95
-0.33
2.75
6.04
9.14
11.69
13.43
14.37
14.71
14.72
14.62
14.48
14.22
13.76
13.12
12.42
11.82
11.38
11.01
10.55
9.82
8.79
7.56
6.31
5.22
4.30
3.49
2.68
1.76
0.70
-0.48
-1.77
-3.15
-4.62
-6.14
-7.59
-8.82
-9.63
-9.85
-9.45
-8.49
-7.18
-5.73
-4.33
-3.09
-2.02
-1.10
-0.31
0.36
0.91
1.40
1.90
2.44
2.99
3.47
3.76
3.87
3.85
3.85
3.99
4.28
4.65
4.94
5.02
4.84
4.40
3.71
2.76
1.52
-0.03
-1.83
-3.78
-5.78
-7.75
-9.68
-11.53
-13.22
-14.63
-15.63
-16.19
-16.36
-16.23
-15.87
-15.29
-14.47
-13.39
-12.11
-10.75
-9.41
-8.15
-6.98
-5.92
-4.99
-4.25
-3.68
-3.20
-2.67
-1.97
-1.08
-0.14
0.65
1.17
1.42
1.54
1.65
1.78
1.84
1.70
1.28
0.65
-0.03
-0.61
-1.08
-1.50
-1.99
-2.61
-3.25
-3.73
-3.88
-3.61
-2.99
-2.12
-1.08
0.13
1.53
3.12
4.77
6.27
7.39
8.04
8.27
8.25
8.16
8.08
7.97
7.73
7.32
6.76
6.18
5.70
5.37
5.15
4.96
4.70
4.36
3.90
3.34
2.68
1.89
0.97
-0.02
-1.04
-2.02
-2.94
-3.84
-4.73
-5.62
-6.41
-6.94
-7.05
-6.61
-5.59
-4.05
-2.17
-0.19
1.67
3.26
4.53
5.54
6.37
7.08
7.69
8.13
8.35
8.35
8.22
8.09
8.10
8.27
8.57
8.90
9.15
9.30
9.36
9.42
9.57
9.89
10.37
10.94
11.45
11.74
11.73
11.40
10.82
10.10
9.36
8.69
8.21
8.03
8.23
8.84
9.78
10.90
12.05
13.11
14.03
14.79
15.34
15.61
15.51
15.01
14.10
12.83
11.22
9.28
6.97
4.30
1.36
-1.72
-4.74
-7.53
-10.02
-12.24
-14.33
-16.46
-18.74
-21.18
-23.63
-25.89
-27.78
-29.19
-30.16
-30.77
-31.10
-31.17
-30.96
-30.42
-29.56
-28.43
-27.10
-25.66
-24.09
-22.37
-20.40
-18.08
-15.32
-12.03
-8.19
-3.86
0.83
5.65
10.37
14.83
18.93
22.63
25.90
28.76
31.25
33.47
35.62
37.89
40.37
43.02
45.60
47.91
49.83
51.48
53.15
55.16
57.67
60.63
63.71
66.47
68.45
69.27
68.72
66.83
63.90
60.37
56.75
53.30
49.89
45.95
40.65
33.26
23.50
11.73
-1.14
-13.88
-25.31
-34.58
-41.32
-45.63
-47.96
-49.08
-49.85
-51.07
-53.27
-56.47
-60.16
-63.43
-65.28
-65.02
-62.44
-57.83
-51.76
-44.80
-37.45
-30.12
-23.26
-17.27
-12.47
-8.85
-6.03
-3.38
-0.24
3.77
8.55
13.63
18.36
22.10
24.36
24.74
22.87
18.44
11.31
1.69
-9.70
-21.57
-32.20
-39.69
-42.47
-39.71
-31.64
-19.57
-5.48
8.48
20.59
29.90
36.26
40.03
41.80
42.03
41.07
39.20
36.80
34.44
32.75
32.26
33.22
35.46
38.45
41.48
43.94
45.47
46.09
46.13
46.00
46.11
46.66
47.72
49.24
51.19
53.52
56.04
58.35
59.75
59.30
56.16
49.94
40.98
30.35
19.59
10.15
2.83
-2.39
-6.28
-9.90
-14.05
-18.98
-24.38
-29.59
-33.99
-37.30
-39.59
-41.20
-42.48
-43.59
-44.47
-44.95
-44.90
-44.38
-43.67
-43.15
-43.11
-43.66
-44.68
-45.92
-47.12
-48.16
-49.04
-49.90
-50.88
-52.09
-53.49
-54.93
-56.15
-56.87
-56.94
-56.37
-55.33
-54.06
-52.72
-51.33
-49.77
-47.88
-45.65
-43.24
-40.98
-39.22
-38.17
-37.78
-37.77
-37.83
-37.71
-37.37
-36.92
-36.57
-36.42
-36.50
-36.68
-36.80
-36.69
-36.27
-35.49
-34.34
-32.79
-30.87
-28.60
-26.07
-23.39
-20.69
-18.06
-15.54
-13.11
-10.74
-8.47
-6.40
-4.62
-3.21
-2.14
-1.25
-0.34
0.77
2.26
4.22
6.71
9.72
13.13
16.75
20.29
23.52
26.30
28.63
30.58
32.22
33.50
34.32
34.56
34.20
33.39
32.38
31.48
30.92
30.81
31.09
31.61
32.13
32.41
32.27
31.61
30.42
28.79
26.86
24.83
22.88
21.21
19.89
18.78
17.44
15.25
11.52
5.75
-2.13
-11.68
-22.05
-32.21
-41.23
-48.43
-53.49
-56.42
-57.40
-56.69
-54.53
-51.13
-46.73
-41.59
-36.04
-30.45
-25.18
-20.47
-16.43
-13.01
-10.07
-7.37
-4.69
-1.77
1.59
5.55
10.16
15.34
20.89
26.54
32.02
37.07
41.47
45.07
47.79
49.61
50.59
50.93
50.83
50.42
49.66
48.28
45.82
41.88
36.19
28.85
20.29
11.14
1.98
-6.80
-15.11
-23.05
-30.77
-38.32
-45.62
-52.40
-58.22
-62.34
-63.87
-61.91
-56.04
-46.63
-35.03
-23.21
-13.12
-6.02
-2.07
-0.57
-0.43
-0.83
-1.51
-2.67
-4.51
-6.98
-9.59
-11.73
-12.97
-13.34
-13.28
-13.47
-14.46
-16.43
-19.16
-22.13
-24.74
-26.52
-27.22
-26.77
-25.18
-22.50
-18.79
-14.17
-8.87
-3.21
2.46
7.79
12.55
16.58
19.82
22.32
24.24
25.87
27.56
29.59
32.06
34.80
37.49
39.76
41.43
42.55
43.31
43.94
44.51
44.93
45.03
44.65
43.79
42.54
41.08
39.58
38.15
36.88
35.79
34.85
33.93
32.72
30.83
27.88
23.64
18.16
11.74
4.88
-1.89
-8.06
-13.29
-17.34
-20.13
-21.65
-21.98
-21.26
-19.66
-17.35
-14.51
-11.27
-7.80
-4.29
-0.98
1.91
4.22
5.90
7.00
7.69
8.12
8.43
8.65
8.79
8.83
8.75
8.46
7.84
6.71
4.90
2.38
-0.74
-4.20
-7.72
-11.14
-14.53
-18.13
-22.23
-26.88
-31.79
-36.31
-39.55
-40.69
-39.14
-34.72
-27.66
-18.64
-8.66
1.08
9.37
15.25
18.14
17.98
15.21
10.60
5.13
-0.14
-4.14
-5.87
-4.66
-0.37
6.38
14.30
21.80
27.48
30.54
31.01
29.51
26.92
23.98
21.10
18.38
15.76
13.24
10.95
9.11
7.91
7.41
7.47
7.79
8.06
8.07
7.74
7.17
6.49
5.76
4.85
3.53
1.58
-1.02
-4.03
-6.95
-9.22
-10.45
-10.50
-9.54
-7.91
-5.92
-3.79
-1.58
0.72
3.06
5.30
7.18
8.46
8.99
8.79
8.10
7.24
6.56
6.29
6.42
6.75
7.00
6.96
6.60
6.10
5.67
5.48
5.50
5.56
5.42
4.93
4.07
2.95
1.68
0.34
-1.11
-2.76
-4.74
-7.20
-10.31
-14.29
-19.28
-25.26
-31.92
-38.61
-44.41
-48.33
-49.59
-47.81
-43.21
-36.47
-28.57
-20.50
-12.99
-6.49
-1.13
3.09
6.23
8.36
9.61
10.22
10.55
11.03
11.94
13.40
15.27
17.29
19.21
20.85
22.19
23.33
24.39
25.50
26.65
27.64
28.04
27.32
25.06
21.19
16.13
10.65
5.61
1.59
-1.31
-3.41
-5.16
-6.90
-8.69
-10.37
-11.68
-12.45
-12.64
-12.20
-11.09
-9.22
-6.59
-3.35
0.14
3.55
6.64
9.48
12.33
15.51
19.15
23.06
26.72
29.51
30.93
30.77
29.17
26.49
23.18
19.60
16.04
12.69
9.65
6.83
4.02
0.85
-3.02
-7.76
-13.21
-18.89
-24.07
-28.02
-30.16
-30.27
-28.45
-25.14
-20.96
-16.50
-12.23
-8.37
-4.93
-1.84
0.90
3.23
5.02
6.21
6.90
7.29
7.61
7.98
8.37
8.65
8.67
8.37
7.79
7.05
6.29
5.58
4.95
4.35
3.67
2.80
1.67
0.25
-1.35
-2.96
-4.39
-5.54
-6.45
-7.27
-8.16
-9.23
-10.43
-11.59
-12.49
-12.98
-12.95
-12.33
-11.03
-8.91
-5.81
-1.71
3.24
8.64
14.04
19.01
23.31
26.88
29.79
32.13
33.92
35.18
35.89
36.08
35.86
35.32
34.56
33.66
32.66
31.57
30.35
28.93
27.14
24.81
21.79
18.00
13.50
8.43
3.00
-2.50
-7.82
-12.67
-16.77
-19.92
-22.00
-23.00
-22.99
-22.09
-20.40
-18.12
-15.50
-12.85
-10.53
-8.82
-7.79
-7.34
-7.25
-7.28
-7.31
-7.37
-7.65
-8.38
-9.75
-11.84
-14.61
-17.88
-21.32
-24.55
-27.13
-28.67
-28.93
-27.89
-25.73
-22.80
-19.48
-16.08
-12.76
-9.51
-6.23
-2.83
0.72
4.35
7.94
11.31
14.29
16.77
18.64
19.83
20.35
20.24
19.66
18.81
17.95
17.28
16.88
16.66
16.36
15.59
13.99
11.34
7.68
3.35
-1.03
-4.80
-7.39
-8.44
-7.98
-6.27
-3.82
-1.15
1.23
2.97
3.88
3.87
2.98
1.32
-1.00
-3.84
-7.11
-10.67
-14.39
-18.01
-21.26
-23.88
-25.69
-26.69
-27.02
-26.94
-26.70
-26.54
-26.59
-26.91
-27.53
-28.40
-29.45
-30.52
-31.46
-32.12
-32.43
-32.43
-32.20
-31.81
-31.22
-30.33
-28.97
-27.00
-24.43
-21.41
-18.19
-15.03
-12.12
-9.52
-7.23
-5.20
-3.40
-1.80
-0.36
1.05
2.56
4.30
6.25
8.22
9.99
11.39
12.47
13.46
14.72
16.48
18.73
21.23
23.57
25.47
26.85
27.84
28.69
29.55
30.41
31.14
31.57
31.61
31.26
30.59
29.69
28.69
27.71
26.95
26.60
26.76
27.32
27.98
28.34
28.09
27.24
26.11
25.22
25.05
25.72
26.99
28.37
29.40
29.96
30.27
30.83
32.11
34.45
37.91
42.34
47.37
52.43
56.73
59.40
59.72
57.29
52.19
44.83
35.68
25.04
12.90
-0.90
-16.37
-33.19
-50.65
-67.89
-84.10
-98.75
-111.63
-122.72
-132.08
-139.64
-145.07
-147.79
-146.99
-141.92
-132.24
-118.28
-101.17
-82.59
-64.24
-47.37
-32.52
-19.55
-8.17
1.71
9.76
15.44
18.43
19.03
18.12
16.84
16.10
16.19
16.77
17.18
16.90
15.79
14.17
12.52
11.20
10.30
9.63
8.83
7.66
6.00
3.90
1.52
-1.00
-3.51
-5.93
-8.20
-10.27
-12.09
-13.63
-14.84
-15.69
-16.13
-16.11
-15.59
-14.54
-12.95
-10.84
-8.29
-5.43
-2.39
0.70
3.69
6.47
8.90
10.88
12.33
13.27
13.82
14.21
14.67
15.36
16.29
17.38
18.47
19.42
20.16
20.71
21.06
21.21
21.13
20.79
20.21
19.44
18.56
17.61
16.58
15.42
14.02
12.33
10.37
8.20
5.96
3.76
1.73
-0.04
-1.45
-2.40
-2.80
-2.60
-1.88
-0.77
0.52
1.78
2.83
3.62
4.16
4.51
4.71
4.80
4.78
4.66
4.44
4.10
3.68
3.20
2.73
2.36
2.15
2.13
2.22
2.29
2.20
1.86
1.24
0.40
-0.58
-1.64
-2.78
-4.06
-5.50
-7.11
-8.75
-10.17
-11.08
-11.19
-10.38
-8.74
-6.50
-3.99
-1.45
0.98
3.32
5.57
7.70
9.56
10.95
11.74
11.93
11.68
11.22
10.73
10.30
9.93
9.59
9.29
9.09
9.03
9.11
9.24
9.29
9.14
8.74
8.13
7.35
6.46
5.43
4.21
2.76
1.09
-0.74
-2.64
-4.57
-6.50
-8.45
-10.35
-12.02
-13.21
-13.62
-13.11
-11.67
-9.47
-6.81
-3.94
-1.06
1.70
4.24
6.44
8.19
9.42
10.17
10.55
10.72
10.81
10.88
10.96
11.03
11.07
11.08
11.06
11.06
11.13
11.30
11.62
12.11
12.66
13.14
13.37
13.25
12.75
11.97
11.05
10.13
9.31
8.61
7.99
7.33
6.49
5.33
3.81
1.96
-0.03
-2.03
-3.95
-5.87
-7.95
-10.31
-12.90
-15.47
-17.61
-18.95
-19.30
-18.70
-17.41
-15.80
-14.17
-12.71
-11.40
-10.16
-8.89
-7.56
-6.27
-5.24
-4.73
-5.00
-6.29
-8.79
-12.54
-17.31
-22.51
-27.13
-30.00
-30.22
-27.46
-22.26
-15.75
-9.27
-3.76
0.53
4.06
7.60
11.67
16.20
20.56
23.80
25.14
24.27
21.46
17.34
12.60
7.64
2.57
-2.78
-8.52
-14.52
-20.36
-25.41
-29.14
-31.34
-32.18
-32.08
-31.51
-30.72
-29.66
-28.07
-25.71
-22.52
-18.77
-14.95
-11.59
-9.04
-7.44
-6.59
-6.13
-5.69
-5.00
-3.97
-2.73
-1.46
-0.31
0.73
1.76
2.93
4.25
5.57
6.67
7.33
7.46
7.11
6.41
5.46
4.29
2.86
1.20
-0.58
-2.31
-3.85
-5.21
-6.49
-7.87
-9.39
-10.88
-12.00
-12.32
-11.51
-9.49
-6.45
-2.75
1.16
4.90
8.20
10.95
13.09
14.64
15.60
15.98
15.82
15.18
14.21
13.12
12.13
11.40
10.95
10.70
10.50
10.24
9.86
9.41
8.98
8.61
8.26
7.83
7.18
6.24
5.01
3.59
2.06
0.53
-0.89
-2.04
-2.71
-2.62
-1.54
0.66
3.90
7.96
12.51
17.18
21.64
25.63
28.99
31.60
33.43
34.50
34.84
34.48
33.53
32.20
30.85
29.93
29.74
30.26
31.05
31.35
30.38
27.64
23.11
17.24
10.75
4.36
-1.38
-6.16
-9.90
-12.68
-14.77
-16.55
-18.45
-20.82
-23.78
-27.08
-30.18
-32.33
-32.84
-31.27
-27.62
-22.31
-16.08
-9.77
-4.09
0.52
3.94
6.26
7.65
8.33
8.47
8.28
8.00
7.89
8.11
8.71
9.57
10.54
11.48
12.35
13.19
14.05
14.93
15.74
16.29
16.42
15.98
14.90
13.13
10.65
7.46
3.65
-0.58
-4.94
-9.14
-12.89
-15.99
-18.33
-19.83
-20.43
-20.16
-19.12
-17.47
-15.43
-13.20
-10.92
-8.67
-6.53
-4.62
-3.07
-1.95
-1.26
-0.96
-0.98
-1.34
-2.10
-3.34
-5.05
-7.14
-9.45
-11.82
-14.16
-16.51
-18.91
-21.44
-24.14
-27.03
-30.05
-33.06
-35.85
-38.10
-39.49
-39.78
-38.98
-37.39
-35.54
-33.97
-32.99
-32.54
-32.20
-31.35
-29.48
-26.35
-22.05
-16.92
-11.34
-5.66
-0.08
5.21
10.07
14.34
17.92
20.77
23.01
24.81
26.34
27.72
28.94
29.94
30.62
30.95
31.02
31.05
31.29
31.98
33.16
34.64
36.04
36.89
36.89
36.00
34.47
32.73
31.17
29.95
29.01
28.05
26.79
25.01
22.67
19.83
16.66
13.34
10.06
7.01
4.41
2.47
1.26
0.80
0.95
1.54
2.41
3.43
4.50
5.52
6.35
6.85
6.93
6.56
5.84
4.95
4.09
3.40
2.94
2.65
2.46
2.26
2.02
1.74
1.40
1.00
0.51
-0.09
-0.78
-1.51
-2.17
-2.67
-2.98
-3.09
-3.08
-3.06
-3.13
-3.37
-3.75
-4.17
-4.47
-4.41
-3.86
-2.74
-1.12
0.86
3.01
5.16
7.21
9.07
10.69
12.03
13.06
13.79
14.30
14.68
15.08
15.61
16.31
17.18
18.17
19.23
20.35
21.54
22.78
24.04
25.23
26.29
27.18
27.92
28.55
29.03
29.28
29.16
28.58
27.56
26.24
24.81
23.39
21.96
20.44
18.76
17.02
15.46
14.36
13.90
14.06
14.58
15.07
15.16
14.59
13.25
11.20
8.64
5.79
2.90
0.10
-2.60
-5.29
-8.12
-11.13
-14.25
-17.28
-19.99
-22.23
-23.97
-25.31
-26.46
-27.62
-28.93
-30.45
-32.13
-33.88
-35.61
-37.22
-38.70
-40.05
-41.30
-42.44
-43.40
-44.05
-44.25
-43.83
-42.64
-40.52
-37.31
-32.95
-27.46
-21.06
-14.19
-7.46
-1.57
2.88
5.46
6.02
4.69
1.80
-2.26
-7.06
-12.21
-17.33
-22.10
-26.19
-29.32
-31.28
-31.90
-31.11
-28.84
-25.07
-19.84
-13.33
-5.91
1.84
9.32
16.05
21.91
27.14
32.25
37.67
43.53
49.49
54.93
59.26
62.22
64.08
65.48
67.11
69.38
72.18
74.92
76.74
76.88
74.88
70.76
64.92
58.04
50.86
44.07
38.23
33.83
31.23
30.71
32.39
36.22
41.94
49.14
57.28
65.68
73.45
79.41
82.10
80.00
71.91
57.47
37.55
14.20
-9.82
-31.84
-50.10
-64.22
-75.09
-84.31
-93.38
-103.15
-113.56
-123.86
-133.02
-140.17
-144.78
-146.76
-146.34
-143.92
-139.87
-134.49
-127.92
-120.26
-111.71
-102.54
-93.15
-83.80
-74.56
-65.32
-55.90
-46.29
-36.88
-28.34
-21.39
-16.42
-13.31
-11.40
-9.84
-7.93
-5.41
-2.51
0.26
2.43
3.78
4.41
4.66
4.84
5.12
5.49
5.79
5.88
5.63
4.99
3.96
2.54
0.76
-1.27
-3.38
-5.32
-6.81
-7.66
-7.75
-7.05
-5.57
-3.42
-0.74
2.21
5.16
7.85
10.13
11.96
13.44
14.68
15.79
16.84
17.84
18.80
19.69
20.52
21.23
21.73
21.93
21.77
21.26
20.53
19.73
19.04
18.56
18.33
18.23
18.12
17.82
17.25
16.47
15.65
14.98
14.56
14.33
14.13
13.78
13.31
12.97
13.23
14.62
17.60
22.40
29.04
37.29
46.75
56.82
66.83
76.21
84.66
92.29
99.51
106.74
114.00
120.59
125.09
125.71
120.82
109.51
91.87
68.95
42.48
14.51
-12.93
-38.02
-59.28
-75.67
-86.74
-92.81
-94.93
-94.74
-94.05
-94.44
-96.80
-101.25
-107.15
-113.42
-118.80
-122.21
-122.99
-121.05
-116.77
-110.84
-103.98
-96.66
-89.04
-81.06
-72.65
-63.93
-55.21
-46.88
-39.23
-32.36
-26.17
-20.54
-15.39
-10.72
-6.52
-2.73
0.77
4.15
7.51
10.87
14.14
17.16
19.80
21.92
23.49
24.49
25.03
25.22
25.21
25.11
24.93
24.62
24.11
23.32
22.24
20.94
19.49
17.97
16.45
14.98
13.58
12.28
11.08
9.96
8.90
7.88
6.90
6.04
5.39
5.11
5.30
6.04
7.29
8.93
10.79
12.73
14.65
16.51
18.33
20.09
21.85
23.69
25.73
28.02
30.45
32.67
34.13
34.27
32.71
29.38
24.61
18.98
13.10
7.50
2.58
-1.44
-4.37
-6.14
-6.76
-6.40
-5.39
-4.16
-3.11
-2.54
-2.56
-3.12
-4.00
-4.91
-5.53
-5.61
-5.08
-4.10
-3.08
-2.51
-2.75
-3.86
-5.51
-7.11
-8.10
-8.17
-7.39
-6.10
-4.71
-3.50
-2.47
-1.43
-0.08
1.81
4.29
7.26
10.43
13.42
15.80
17.19
17.31
16.12
13.84
10.98
8.22
6.27
5.72
6.89
9.84
14.44
20.38
27.29
34.73
42.15
48.89
54.33
58.01
59.79
59.98
59.18
58.09
57.20
56.54
55.74
54.14
51.14
46.45
40.17
32.73
24.66
16.37
8.10
-0.07
-8.09
-15.81
-23.00
-29.39
-34.87
-39.46
-43.41
-47.03
-50.57
-54.06
-57.35
-60.16
-62.21
-63.37
-63.68
-63.31
-62.51
-61.43
-60.13
-58.58
-56.74
-54.70
-52.61
-50.77
-49.44
-48.78
-48.78
-49.25
-49.89
-50.35
-50.35
-49.72
-48.45
-46.59
-44.28
-41.56
-38.41
-34.62
-29.93
-24.12
-17.12
-9.16
-0.69
7.61
15.15
21.47
26.44
30.17
32.95
35.00
36.47
37.36
37.64
37.35
36.64
35.78
34.95
34.15
33.15
31.57
29.01
25.31
20.56
15.12
9.42
3.93
-1.08
-5.47
-9.22
-12.38
-14.98
-17.01
-18.39
-18.97
-18.55
-16.99
-14.28
-10.53
-6.07
-1.27
3.49
7.92
11.91
15.41
18.46
21.08
23.27
25.00
26.21
26.87
26.94
26.40
25.23
23.45
21.11
18.31
15.17
11.89
8.66
5.66
2.97
0.60
-1.57
-3.74
-6.05
-8.62
-11.37
-14.03
-16.27
-17.80
-18.56
-18.84
-19.21
-20.34
-22.82
-26.90
-32.42
-38.89
-45.64
-52.00
-57.43
-61.59
-64.42
-66.04
-66.69
-66.62
-65.97
-64.74
-62.75
-59.79
-55.66
-50.35
-44.06
-37.15
-30.09
-23.27
-16.91
-11.08
-5.73
-0.82
3.64
7.55
10.83
13.53
15.83
18.07
20.56
23.46
26.68
29.90
32.72
34.79
35.96
36.34
36.16
35.72
35.22
34.70
34.13
33.43
32.59
31.64
30.64
29.64
28.63
27.52
26.24
24.74
23.05
21.28
19.57
17.95
16.38
14.68
12.71
10.44
8.04
5.88
4.37
3.78
4.10
5.05
6.25
7.46
8.65
10.06
11.96
14.52
17.63
20.92
23.92
26.18
27.47
27.77
27.28
26.30
25.13
24.03
23.25
22.98
23.41
24.60
26.48
28.76
30.98
32.59
33.16
32.49
30.70
28.15
25.28
22.39
19.52
16.48
12.95
8.72
3.80
-1.48
-6.58
-10.85
-13.73
-14.83
-14.01
-11.45
-7.57
-3.05
1.31
4.80
6.98
7.72
7.25
5.96
4.23
2.28
0.19
-2.05
-4.46
-6.97
-9.46
-11.73
-13.60
-14.85
-15.27
-14.75
-13.36
-11.38
-9.28
-7.54
-6.53
-6.39
-7.01
-8.09
-9.33
-10.48
-11.44
-12.24
-13.04
-14.00
-15.19
-16.48
-17.52
-17.86
-17.04
-14.88
-11.52
-7.38
-3.01
1.13
4.79
7.90
10.49
12.59
14.18
15.23
15.79
15.97
15.96
15.90
15.87
15.86
15.84
15.76
15.64
15.52
15.46
15.51
15.68
15.98
16.28
16.44
16.23
15.45
13.97
11.79
8.98
5.60
1.70
-2.76
-7.76
-13.20
-18.89
-24.56
-29.92
-34.68
-38.46
-40.77
-41.05
-38.89
-34.21
-27.40
-19.22
-10.58
-2.22
5.40
12.16
18.06
23.14
27.33
30.57
32.87
34.40
35.43
36.30
37.31
38.71
40.59
42.89
45.37
47.60
49.07
49.31
48.07
45.36
41.39
36.44
30.76
24.45
17.62
10.47
3.36
-3.20
-8.77
-13.15
-16.48
-19.10
-21.43
-23.67
-25.83
-27.71
-29.14
-30.08
-30.69
-31.18
-31.70
-32.21
-32.51
-32.33
-31.45
-29.80
-27.48
-24.66
-21.54
-18.27
-14.93
-11.58
-8.33
-5.37
-2.91
-1.13
-0.07
0.35
0.40
0.41
0.77
1.77
3.65
6.45
10.02
14.05
18.00
21.25
23.22
23.52
22.05
19.03
14.91
10.24
5.58
1.42
-1.78
-3.60
-3.80
-2.35
0.45
4.03
7.70
10.84
13.09
14.36
14.76
14.40
13.30
11.37
8.45
4.41
-0.74
-6.81
-13.40
-19.98
-26.01
-31.03
-34.75
-37.10
-38.11
-37.90
-36.64
-34.47
-31.61
-28.29
-24.80
-21.38
-18.24
-15.45
-13.03
-10.93
-9.05
-7.26
-5.41
-3.36
-0.99
1.74
4.79
8.05
11.34
14.50
17.39
19.92
22.01
23.58
24.50
24.61
23.82
22.15
19.79
17.03
14.11
11.19
8.31
5.48
2.80
0.47
-1.24
-2.09
-1.95
-0.88
0.92
3.14
5.44
7.51
9.08
10.01
10.24
9.81
8.82
7.37
5.52
3.32
0.81
-1.91
-4.70
-7.39
-9.89
-12.17
-14.24
-16.16
-17.96
-19.66
-21.30
-22.89
-24.42
-25.83
-27.04
-27.96
-28.59
-29.07
-29.63
-30.45
-31.48
-32.37
-32.53
-31.33
-28.37
-23.64
-17.56
-10.82
-4.14
1.93
7.07
11.23
14.49
17.01
18.89
20.22
21.08
21.54
21.68
21.61
21.40
21.06
20.52
19.64
18.32
16.50
14.20
11.47
8.37
4.93
1.24
-2.63
-6.52
-10.30
-13.90
-17.40
-21.00
-24.95
-29.39
-34.26
-39.26
-43.83
-47.31
-49.08
-48.71
-46.07
-41.40
-35.19
-28.11
-20.79
-13.77
-7.37
-1.76
3.02
6.99
10.20
12.74
14.74
16.36
17.71
18.89
19.92
20.80
21.56
22.19
22.76
23.33
23.99
24.79
25.72
26.75
27.77
28.64
29.24
29.51
29.48
29.25
29.00
28.88
28.98
29.21
29.34
28.98
27.77
25.43
21.94
17.57
12.78
8.11
4.06
0.94
-1.18
-2.40
-2.93
-3.01
-2.83
-2.54
-2.31
-2.30
-2.69
-3.63
-5.13
-7.10
-9.28
-11.30
-12.72
-13.13
-12.27
-10.20
-7.26
-3.98
-0.82
2.02
4.72
7.71
11.40
16.01
21.42
27.33
33.42
39.55
45.79
52.42
59.68
67.73
76.51
85.68
94.61
102.40
107.99
110.39
108.82
102.96
92.92
79.31
63.05
45.21
26.86
8.87
-8.25
-24.34
-39.54
-54.10
-68.23
-81.90
-94.77
-106.23
-115.48
-121.73
-124.38
-123.17
-118.38
-110.82
-101.68
-92.32
-83.88
-77.03
-71.88
-68.00
-64.76
-61.52
-57.93
-53.95
-49.79
-45.73
-42.00
-38.71
-35.83
-33.28
-31.02
-29.03
-27.34
-25.96
-24.85
-23.93
-23.12
-22.41
-21.90
-21.65
-21.62
-21.54
-20.95
-19.33
-16.34
-11.97
-6.56
-0.70
5.04
10.26
14.83
18.79
22.24
25.23
27.72
29.67
31.06
31.92
32.40
32.63
32.77
32.85
32.90
32.86
32.70
32.41
32.00
31.53
30.98
30.29
29.31
27.89
25.94
23.50
20.71
17.76
14.75
11.69
8.54
5.32
2.24
-0.33
-1.90
-2.10
-0.80
1.85
5.45
9.47
13.42
16.88
19.57
21.30
22.05
21.88
21.01
19.67
18.07
16.32
14.43
12.35
10.07
7.63
5.24
3.16
1.64
0.87
0.89
1.56
2.64
3.78
4.65
4.97
4.56
3.39
1.58
-0.63
-2.94
-5.10
-7.02
-8.75
-10.42
-12.15
-13.87
-15.24
-15.76
-14.93
-12.42
-8.29
-2.89
3.20
9.39
15.27
20.60
25.26
29.10
31.91
33.46
33.63
32.52
30.51
28.09
25.72
23.66
21.91
20.24
18.35
16.03
13.20
9.87
6.08
1.92
-2.55
-7.15
-11.65
-15.73
-19.09
-21.49
-22.84
-23.22
-22.83
-21.96
-20.91
-19.96
-19.29
-19.02
-19.17
-19.73
-20.68
-21.98
-23.54
-25.17
-26.57
-27.33
-27.06
-25.52
-22.69
-18.83
-14.42
-10.01
-6.09
-2.93
-0.54
1.27
2.83
4.42
6.23
8.27
10.49
12.79
15.07
17.22
19.09
20.51
21.35
21.62
21.50
21.31
21.34
21.66
22.06
22.11
21.39
19.66
17.03
13.80
10.36
7.01
3.85
0.86
-2.01
-4.72
-7.14
-9.10
-10.50
-11.32
-11.69
-11.86
-12.11
-12.74
-14.01
-16.12
-19.19
-23.25
-28.09
-33.26
-38.03
-41.51
-42.92
-41.79
-38.14
-32.47
-25.50
-18.04
-10.69
-3.90
2.08
7.04
10.81
13.33
14.65
14.94
14.47
13.48
12.11
10.38
8.23
5.55
2.25
-1.65
-5.98
-10.43
-14.55
-17.83
-19.84
-20.31
-19.28
-17.05
-14.18
-11.32
-9.05
-7.72
-7.42
-7.89
-8.72
-9.43
-9.68
-9.38
-8.69
-8.02
-7.84
-8.56
-10.32
-12.91
-15.79
-18.26
-19.64
-19.54
-17.90
-14.97
-11.16
-6.85
-2.33
2.29
6.95
11.60
16.15
20.41
24.15
27.12
29.14
30.12
30.17
29.57
28.79
28.32
28.58
29.72
31.65
34.01
36.41
38.49
40.07
41.12
41.68
41.87
41.79
41.63
41.59
41.81
42.11
41.90
40.15
35.71
27.72
16.01
1.22
-15.28
-31.86
-46.93
-59.29
-68.19
-73.31
-74.66
-72.54
-67.53
-60.43
-52.18
-43.73
-35.90
-29.26
-24.12
-20.49
-18.19
-16.92
-16.35
-16.16
-16.14
-16.16
-16.12
-15.96
-15.62
-15.03
-14.17
-13.06
-11.80
-10.59
-9.66
-9.17
-9.23
-9.83
-10.89
-12.32
-13.98
-15.67
-17.04
-17.70
-17.24
-15.45
-12.45
-8.64
-4.58
-0.78
2.48
5.19
7.44
9.35
10.93
12.12
12.85
13.12
12.99
12.59
11.98
11.23
10.38
9.48
8.64
7.98
7.62
7.59
7.83
8.20
8.47
8.41
7.87
6.80
5.26
3.40
1.38
-0.74
-2.96
-5.37
-8.03
-10.84
-13.55
-15.72
-16.91
-16.78
-15.29
-12.63
-9.19
-5.40
-1.61
1.93
5.11
7.85
10.12
11.91
13.23
14.14
14.66
14.80
14.55
13.91
12.97
11.91
10.99
10.42
10.30
10.57
11.03
11.49
11.77
11.82
11.62
11.15
10.40
9.31
7.89
6.19
4.34
2.41
0.40
-1.78
-4.23
-6.92
-9.60
-11.84
-13.14
-13.10
-11.62
-8.91
-5.44
-1.75
1.72
4.72
7.22
9.34
11.18
12.75
13.96
14.66
14.78
14.37
13.60
12.71
11.88
11.23
10.76
10.40
10.10
9.81
9.51
9.17
8.73
8.14
7.32
6.27
4.99
3.54
1.90
0.07
-2.01
-4.35
-6.81
-9.12
-10.91
-11.79
-11.53
-10.16
-7.92
-5.20
-2.35
0.39
2.91
5.16
7.04
8.36
8.92
8.67
7.72
6.42
5.15
4.24
3.78
3.71
3.82
3.96
4.05
4.07
4.04
3.94
3.72
3.32
2.76
2.01
1.09
-0.09
-1.66
-3.69
-6.14
-8.73
-11.01
-12.47
-12.70
-11.57
-9.21
-6.01
-2.46
1.00
4.05
6.52
8.40
9.70
10.46
10.70
10.46
9.81
8.92
7.96
7.09
6.42
5.92
5.50
5.05
4.49
3.81
3.06
2.26
1.46
0.64
-0.22
-1.17
-2.23
-3.48
-4.92
-6.49
-7.98
-9.08
-9.42
-8.75
-7.02
-4.40
-1.27
2.04
5.24
8.24
11.02
13.62
16.02
18.14
19.84
21.00
21.56
21.53
21.03
20.21
19.24
18.27
17.31
16.32
15.19
13.82
12.18
10.36
8.49
6.71
5.07
3.53
1.94
0.15
-1.94
-4.35
-7.04
-9.93
-12.91
-15.80
-18.37
-20.29
-21.21
-20.90
-19.29
-16.58
-13.14
-9.42
-5.80
-2.54
0.25
2.52
4.28
5.53
6.27
6.53
6.40
6.06
5.71
5.53
5.56
5.73
5.88
5.88
5.66
5.31
4.92
4.57
4.20
3.64
2.74
1.43
-0.25
-2.11
-4.01
-5.90
-7.86
-10.01
-12.43
-15.05
-17.58
-19.65
-20.87
-21.00
-20.02
-18.17
-15.85
-13.47
-11.37
-9.73
-8.55
-7.75
-7.19
-6.70
-6.14
-5.34
-4.18
-2.59
-0.58
1.75
4.24
6.70
9.04
11.19
13.21
15.15
17.04
18.87
20.55
21.96
22.97
23.48
23.43
22.79
21.55
19.72
17.36
14.59
11.58
8.57
5.78
3.40
1.51
0.12
-0.81
-1.27
-1.24
-0.66
0.44
1.99
3.81
5.68
7.47
9.09
10.60
12.04
13.46
14.81
16.01
16.97
17.66
18.07
18.24
18.15
17.79
17.13
16.18
14.97
13.56
11.97
10.20
8.19
5.89
3.21
0.11
-3.46
-7.50
-11.94
-16.59
-21.21
-25.48
-29.16
-32.10
-34.33
-35.98
-37.19
-38.09
-38.69
-38.97
-38.81
-38.12
-36.84
-34.95
-32.46
-29.45
-25.99
-22.20
-18.13
-13.81
-9.20
-4.22
1.21
7.02
12.95
18.56
23.30
26.67
28.39
28.45
27.15
24.93
22.27
19.56
17.05
14.91
13.25
12.14
11.63
11.70
12.32
13.36
14.69
16.20
17.81
19.45
21.08
22.62
23.98
25.06
25.71
25.82
25.31
24.14
22.31
19.85
16.84
13.39
9.67
5.84
2.09
-1.43
-4.59
-7.30
-9.47
-11.08
-12.19
-12.95
-13.51
-14.02
-14.51
-14.93
-15.24
-15.46
-15.71
-16.07
-16.53
-16.84
-16.69
-15.78
-13.99
-11.43
-8.33
-4.85
-1.05
3.11
7.64
12.50
17.54
22.61
27.54
32.03
35.66
37.85
38.13
36.35
32.89
28.59
24.39
20.97
18.51
16.72
15.11
13.38
11.50
9.75
8.45
7.72
7.44
7.26
6.80
5.81
4.27
2.32
0.17
-2.04
-4.27
-6.58
-8.94
-11.24
-13.19
-14.45
-14.69
-13.75
-11.70
-8.84
-5.65
-2.67
-0.36
1.02
1.50
1.31
0.74
-0.06
-1.13
-2.67
-4.85
-7.63
-10.72
-13.66
-16.02
-17.57
-18.35
-18.64
-18.85
-19.42
-20.71
-22.89
-25.94
-29.58
-33.37
-36.74
-39.14
-40.27
-40.10
-39.01
-37.67
-36.80
-36.92
-38.08
-39.73
-40.87
-40.41
-37.52
-31.93
-23.94
-14.23
-3.63
7.08
17.20
26.12
33.35
38.58
41.83
43.53
44.43
45.40
47.13
49.89
53.47
57.20
60.16
61.39
60.18
56.26
49.84
41.56
32.26
22.66
13.15
3.77
-5.66
-15.29
-25.07
-34.65
-43.56
-51.32
-57.64
-62.41
-65.73
-67.76
-68.72
-68.79
-68.12
-66.76
-64.74
-62.04
-58.66
-54.68
-50.23
-45.46
-40.49
-35.40
-30.22
-25.02
-19.94
-15.21
-11.08
-7.76
-5.30
-3.56
-2.27
-1.09
0.27
2.00
4.14
6.59
9.11
11.36
12.96
13.61
13.20
11.77
9.59
7.01
4.39
2.03
0.16
-1.05
-1.50
-1.13
-0.05
1.53
3.31
4.98
6.34
7.34
8.01
8.37
8.36
7.86
6.75
5.04
2.92
0.75
-1.10
-2.36
-2.95
-2.96
-2.61
-2.16
-1.84
-1.83
-2.26
-3.19
-4.55
-6.11
-7.54
-8.52
-8.89
-8.77
-8.49
-8.44
-8.92
-9.92
-11.13
-12.06
-12.22
-11.30
-9.31
-6.53
-3.36
-0.11
3.09
6.34
9.92
14.08
18.92
24.33
30.01
35.61
40.91
45.84
50.55
55.35
60.56
66.38
72.76
79.27
85.11
89.17
90.24
87.42
80.46
70.04
57.68
45.38
35.01
27.70
23.53
21.60
20.39
18.36
14.48
8.47
0.77
-7.72
-15.95
-23.04
-28.41
-31.83
-33.34
-33.11
-31.30
-28.04
-23.41
-17.59
-10.93
-4.00
2.43
7.49
10.37
10.49
7.57
1.64
-6.87
-17.30
-28.78
-40.41
-51.37
-60.99
-68.80
-74.51
-78.01
-79.32
-78.61
-76.19
-72.51
-68.03
-63.25
-58.52
-54.12
-50.20
-46.85
-44.09
-41.85
-39.92
-37.99
-35.69
-32.73
-28.98
-24.51
-19.52
-14.31
-9.17
-4.38
-0.21
3.13
5.46
6.79
7.26
7.17
6.87
6.66
6.67
6.91
7.26
7.52
7.48
6.98
5.95
4.47
2.74
1.03
-0.41
-1.44
-2.07
-2.44
-2.75
-3.19
-3.87
-4.84
-6.05
-7.39
-8.69
-9.68
-10.08
-9.67
-8.33
-6.11
-3.20
0.14
3.67
7.13
10.34
13.12
15.35
16.94
17.88
18.27
18.27
18.05
17.77
17.47
17.13
16.65
15.91
14.85
13.45
11.79
9.94
7.96
5.85
3.49
0.74
-2.53
-6.38
-10.70
-15.26
-19.80
-24.02
-27.71
-30.64
-32.58
-33.26
-32.39
-29.78
-25.47
-19.79
-13.36
-6.85
-0.83
4.44
8.99
13.07
16.96
20.82
24.66
28.41
32.01
35.48
38.86
42.15
45.22
47.84
49.66
50.43
50.02
48.50
46.18
43.43
40.61
37.97
35.56
33.31
31.07
28.71
26.15
23.33
20.21
16.71
12.76
8.36
3.68
-0.99
-5.30
-8.99
-11.90
-13.99
-15.19
-15.35
-14.27
-11.81
-8.12
-3.71
0.56
3.71
5.01
4.23
1.83
-1.28
-4.02
-5.57
-5.65
-4.48
-2.57
-0.40
1.85
4.26
7.01
10.20
13.74
17.43
21.15
25.04
29.44
34.71
41.02
48.13
55.47
62.28
67.92
72.09
74.87
76.75
78.36
80.24
82.59
85.08
86.83
86.58
82.98
75.00
62.23
45.03
24.49
2.16
-20.20
-41.01
-58.98
-73.33
-83.80
-90.69
-94.71
-96.82
-97.89
-98.49
-98.73
-98.38
-97.00
-94.27
-90.05
-84.50
-77.94
-70.76
-63.28
-55.77
-48.44
-41.42
-34.77
-28.48
-22.52
-16.95
-11.95
-7.90
-5.20
-4.16
-4.74
-6.54
-8.88
-11.02
-12.34
-12.59
-11.84
-10.44
-8.83
-7.36
-6.26
-5.57
-5.27
-5.31
-5.71
-6.47
-7.62
-9.07
-10.64
-12.09
-13.23
-13.95
-14.29
-14.40
-14.39
-14.30
-14.06
-13.45
-12.16
-9.87
-6.39
-1.76
3.65
9.14
13.89
17.18
18.66
18.46
17.17
15.61
14.57
14.53
15.63
17.68
20.29
23.02
25.56
27.68
29.32
30.42
30.90
30.56
29.04
25.95
21.00
14.23
6.06
-2.65
-10.78
-17.18
-20.96
-21.75
-19.76
-15.78
-10.96
-6.51
-3.46
-2.36
-3.32
-5.98
-9.71
-13.81
-17.72
-21.06
-23.70
-25.64
-26.92
-27.56
-27.47
-26.57
-24.78
-22.18
-19.05
-15.75
-12.66
-9.94
-7.58
-5.34
-2.98
-0.39
2.36
4.99
7.12
8.47
8.89
8.48
7.50
6.34
5.37
4.82
4.73
4.95
5.19
5.21
4.92
4.37
3.72
3.11
2.58
2.06
1.43
0.59
-0.47
-1.70
-3.03
-4.48
-6.10
-8.02
-10.30
-12.83
-15.32
-17.30
-18.29
-17.88
-15.94
-12.60
-8.28
-3.54
1.05
5.08
8.38
10.95
12.93
14.52
15.85
17.04
18.14
19.21
20.25
21.32
22.45
23.79
25.50
27.77
30.72
34.34
38.45
42.69
46.59
49.59
51.12
50.74
48.30
44.07
38.72
33.15
28.15
24.16
21.17
18.87
16.83
14.76
12.57
10.28
7.92
5.54
3.20
1.08
-0.55
-1.44
-1.51
-0.94
-0.16
0.34
0.18
-0.74
-2.27
-4.10
-5.93
-7.57
-9.02
-10.34
-11.60
-12.74
-13.61
-13.99
-13.72
-12.80
-11.35
-9.56
-7.65
-5.77
-3.93
-2.08
-0.08
2.21
4.98
8.48
12.91
18.38
24.76
31.54
37.92
42.95
45.88
46.39
44.73
41.52
37.52
33.35
29.34
25.59
22.08
18.81
15.82
13.15
10.70
8.29
5.59
2.32
-1.67
-6.24
-10.95
-15.12
-17.99
-19.00
-18.02
-15.44
-12.06
-8.73
-6.06
-4.15
-2.64
-0.98
1.19
3.83
6.53
8.72
9.99
10.22
9.58
8.30
6.44
3.93
0.72
-2.92
-6.33
-8.54
-8.72
-6.57
-2.51
2.48
7.29
11.21
14.11
16.36
18.50
20.89
23.55
26.23
28.67
30.75
32.47
33.71
33.90
31.98
26.68
17.00
2.80
-15.08
-35.00
-55.10
-73.82
-90.25
-103.91
-114.47
-121.44
-124.23
-122.42
-116.20
-106.58
-95.21
-83.90
-74.10
-66.46
-60.79
-56.28
-51.98
-47.13
-41.40
-34.88
-27.83
-20.51
-13.04
-5.43
2.27
9.93
17.32
24.20
30.39
35.68
39.70
41.87
41.54
38.23
32.01
23.62
14.37
5.71
-1.22
-5.88
-8.38
-9.30
-9.37
-9.19
-9.23
-9.76
-10.97
-12.98
-15.80
-19.25
-22.90
-26.09
-28.14
-28.56
-27.24
-24.52
-21.08
-17.65
-14.71
-12.38
-10.36
-8.16
-5.32
-1.57
3.10
8.49
14.32
20.32
26.28
32.05
37.47
42.32
46.36
49.37
51.25
52.08
52.16
51.95
51.85
52.13
52.77
53.37
53.28
51.80
48.41
42.98
35.83
27.62
19.11
10.96
3.60
-2.80
-8.17
-12.51
-15.83
-18.19
-19.83
-21.11
-22.42
-24.00
-25.83
-27.66
-29.18
-30.15
-30.61
-30.77
-30.95
-31.38
-32.12
-33.04
-33.88
-34.31
-33.97
-32.59
-29.97
-26.06
-21.02
-15.19
-9.01
-2.94
2.72
7.88
12.57
16.85
20.66
23.74
25.79
26.54
26.02
24.55
22.69
20.97
19.73
18.98
18.49
17.94
17.14
16.10
14.98
14.00
13.25
12.63
11.91
10.74
8.85
6.05
2.32
-2.23
-7.28
-12.37
-16.92
-20.40
-22.39
-22.79
-21.78
-19.72
-16.99
-13.85
-10.36
-6.50
-2.26
2.22
6.75
11.14
15.34
19.47
23.64
27.85
31.88
35.31
37.67
38.61
37.97
35.88
32.70
28.98
25.40
22.68
21.39
21.77
23.65
26.43
29.31
31.59
32.85
33.08
32.50
31.42
30.02
28.31
26.16
23.37
19.85
15.60
10.83
5.82
0.93
-3.56
-7.46
-10.77
-13.61
-16.20
-18.81
-21.71
-25.11
-29.15
-33.80
-38.85
-43.92
-48.55
-52.31
-54.94
-56.31
-56.43
-55.31
-53.02
-49.66
-45.42
-40.54
-35.28
-29.84
-24.32
-18.76
-13.16
-7.58
-2.14
2.92
7.32
10.79
13.11
14.23
14.20
13.22
11.60
9.64
7.64
5.87
4.54
3.85
3.98
5.03
7.01
9.74
12.84
15.72
17.68
18.04
16.36
12.58
7.10
0.71
-5.59
-10.89
-14.56
-16.37
-16.46
-15.19
-13.02
-10.40
-7.70
-5.25
-3.31
-2.04
-1.51
-1.62
-2.22
-3.08
-4.07
-5.11
-6.23
-7.47
-8.90
-10.54
-12.42
-14.62
-17.22
-20.27
-23.62
-26.94
-29.73
-31.46
-31.82
-30.76
-28.52
-25.51
-22.10
-18.58
-15.09
-11.72
-8.60
-5.87
-3.65
-1.91
-0.53
0.71
2.05
3.59
5.34
7.17
8.94
10.53
11.91
13.20
14.59
16.36
18.68
21.61
24.98
28.42
31.50
33.89
35.47
36.46
37.26
38.31
39.87
41.93
44.25
46.50
48.49
50.29
52.21
54.71
58.16
62.70
68.22
74.35
80.60
86.53
91.81
96.31
100.08
103.35
106.40
109.43
112.40
114.90
116.15
115.14
111.02
103.39
92.55
79.46
65.43
51.62
38.73
26.87
15.68
4.59
-6.92
-19.21
-32.45
-46.61
-61.52
-76.83
-92.11
-106.89
-120.70
-133.18
-144.02
-152.98
-159.88
-164.63
-167.25
-167.88
-166.70
-163.87
-159.43
-153.40
-145.81
-136.83
-126.79
-116.21
-105.61
-95.54
-86.35
-78.18
-70.95
-64.39
-58.23
-52.27
-46.51
-41.08
-36.20
-31.96
-28.31
-25.09
-22.08
-19.15
-16.30
-13.61
-11.22
-9.20
-7.59
-6.37
-5.56
-5.09
-4.85
-4.57
-3.86
-2.31
0.36
4.20
8.93
14.09
19.16
23.75
27.67
31.00
33.95
36.71
39.41
42.03
44.51
46.85
49.11
51.39
53.68
55.79
57.30
57.68
56.54
53.71
49.41
44.10
38.35
32.60
27.11
21.92
17.03
12.40
8.06
4.00
0.08
-3.93
-8.23
-12.87
-17.50
-21.49
-24.00
-24.41
-22.50
-18.62
-13.52
-8.05
-2.89
1.64
5.58
9.09
12.30
15.14
17.40
18.91
19.65
19.81
19.69
19.56
19.56
19.68
19.82
19.89
19.89
19.79
19.50
18.87
17.68
15.80
13.28
10.36
7.38
4.71
2.58
1.02
-0.07
-0.88
-1.61
-2.41
-3.33
-4.33
-5.23
-5.75
-5.55
-4.35
-2.07
1.09
4.71
8.28
11.39
13.83
15.64
16.94
17.79
18.18
18.04
17.36
16.27
15.02
13.81
12.73
11.69
10.54
9.18
7.70
6.29
5.19
4.48
4.06
3.70
3.15
2.29
1.10
-0.31
-1.82
-3.35
-4.90
-6.50
-8.18
-9.99
-11.98
-14.24
-16.80
-19.65
-22.63
-25.40
-27.46
-28.30
-27.51
-24.90
-20.62
-15.07
-8.83
-2.47
3.58
9.03
13.73
17.64
20.72
23.01
24.61
25.70
26.47
27.10
27.67
28.15
28.43
28.48
28.34
28.17
28.15
28.42
28.94
29.56
29.99
29.94
29.14
27.48
24.99
21.90
18.58
15.47
12.93
11.16
10.16
9.83
10.00
10.58
11.55
12.92
14.61
16.42
18.06
19.28
19.98
20.29
20.48
20.80
21.30
21.81
22.04
21.71
20.78
19.44
17.93
16.41
14.73
12.53
9.42
5.24
0.17
-5.29
-10.52
-15.00
-18.51
-21.09
-23.03
-24.71
-26.52
-28.75
-31.52
-34.70
-37.92
-40.68
-42.50
-43.07
-42.33
-40.42
-37.55
-33.98
-29.96
-25.82
-21.92
-18.67
-16.34
-14.95
-14.22
-13.64
-12.66
-10.91
-8.30
-5.06
-1.58
1.70
4.42
6.36
7.47
7.80
7.49
6.75
5.78
4.73
3.73
2.82
1.98
1.13
0.09
-1.33
-3.33
-5.95
-8.97
-11.94
-14.28
-15.43
-15.13
-13.43
-10.65
-7.18
-3.33
0.82
5.28
10.11
15.23
20.34
24.98
28.67
31.02
31.84
31.29
29.78
27.90
26.29
25.41
25.48
26.40
27.86
29.45
30.72
31.31
30.92
29.33
26.42
22.17
16.67
10.07
2.49
-5.98
-15.37
-25.65
-36.63
-47.79
-58.32
-67.18
-73.35
-76.07
-75.04
-70.53
-63.24
-54.17
-44.39
-34.87
-26.38
-19.39
-14.03
-10.15
-7.36
-5.17
-3.14
-1.02
1.20
3.36
5.26
6.81
8.03
9.05
9.99
10.85
11.54
11.89
11.75
11.00
9.58
7.49
4.85
1.83
-1.33
-4.40
-7.28
-10.01
-12.72
-15.49
-18.28
-20.84
-22.78
-23.75
-23.54
-22.12
-19.66
-16.44
-12.75
-8.87
-4.97
-1.10
2.76
6.67
10.62
14.44
17.82
20.40
21.94
22.42
22.04
21.16
20.06
18.80
17.24
15.10
12.22
8.68
4.84
1.28
-1.41
-2.82
-2.82
-1.54
0.70
3.51
6.54
9.44
11.89
13.57
14.22
13.77
12.38
10.44
8.48
6.97
6.20
6.28
7.18
8.79
11.02
13.74
16.76
19.81
22.67
25.27
27.73
30.39
33.51
37.09
40.72
43.61
44.84
43.72
40.03
34.06
26.51
18.25
10.09
2.64
-3.64
-8.41
-11.41
-12.45
-11.53
-8.90
-5.09
-0.82
3.09
5.89
7.03
6.27
3.67
-0.47
-5.69
-11.43
-17.03
-21.83
-25.20
-26.70
-26.27
-24.32
-21.58
-18.88
-16.77
-15.26
-13.84
-11.74
-8.35
-3.59
2.10
7.96
13.33
17.97
22.17
26.63
32.16
39.38
48.60
59.74
72.46
86.07
99.61
111.75
120.93
125.59
124.51
117.17
103.89
85.78
64.38
41.33
17.96
-4.80
-26.34
-46.20
-63.92
-78.92
-90.64
-98.71
-103.11
-104.24
-102.91
-100.11
-96.80
-93.74
-91.36
-89.80
-88.97
-88.67
-88.68
-88.75
-88.65
-88.21
-87.25
-85.72
-83.64
-81.13
-78.36
-75.49
-72.63
-69.81
-66.96
-63.96
-60.70
-57.17
-53.47
-49.79
-46.41
-43.51
-41.20
-39.42
-38.01
-36.75
-35.41
-33.72
-31.47
-28.50
-24.74
-20.27
-15.22
-9.75
-3.98
1.98
7.95
13.70
18.91
23.28
26.62
28.94
30.43
31.32
31.84
32.06
32.03
31.80
31.48
31.24
31.22
31.47
31.89
32.32
32.59
32.60
32.33
31.81
31.02
29.92
28.44
26.60
24.48
22.25
20.07
17.97
15.86
13.50
10.64
7.20
3.29
-0.71
-4.29
-6.95
-8.41
-8.63
-7.82
-6.30
-4.34
-2.06
0.48
3.30
6.34
9.52
12.73
15.91
18.97
21.81
24.17
25.70
26.09
25.18
23.14
20.41
17.61
15.30
13.80
13.11
13.02
13.20
13.43
13.66
13.93
14.33
14.83
15.26
15.43
15.22
14.68
13.92
13.02
11.80
9.84
6.64
1.91
-4.18
-11.04
-17.80
-23.69
-28.23
-31.30
-33.03
-33.54
-32.82
-30.75
-27.26
-22.52
-17.00
-11.39
-6.36
-2.39
0.34
1.93
2.61
2.66
2.38
2.09
2.12
2.83
4.47
7.09
10.44
13.98
17.00
18.87
19.18
17.92
15.41
12.22
8.88
5.78
3.04
0.57
-1.83
-4.37
-7.19
-10.32
-13.63
-16.84
-19.40
-20.64
-19.91
-16.79
-11.35
-4.25
3.40
10.27
15.23
17.66
17.67
16.00
13.74
11.96
11.41
12.34
14.61
17.85
21.64
25.61
29.36
32.56
34.78
35.73
35.17
33.09
29.61
24.88
19.02
12.07
4.08
-4.86
-14.46
-24.30
-33.84
-42.54
-49.93
-55.70
-59.67
-61.81
-62.20
-60.98
-58.30
-54.35
-49.26
-43.25
-36.50
-29.30
-21.92
-14.71
-7.94
-1.85
3.42
7.87
11.51
14.40
16.60
18.18
19.23
19.92
20.49
21.18
22.16
23.47
25.03
26.58
27.84
28.55
28.57
27.91
26.65
24.93
22.83
20.39
17.60
14.45
11.00
7.35
3.61
-0.14
-3.88
-7.60
-11.17
-14.35
-16.77
-18.06
-18.03
-16.76
-14.62
-12.09
-9.65
-7.55
-5.79
-4.22
-2.62
-0.91
0.80
2.25
3.18
3.42
3.00
2.11
1.05
0.08
-0.54
-0.64
-0.12
1.05
2.80
4.89
6.94
8.46
8.96
8.05
5.56
1.57
-3.59
-9.31
-14.76
-18.96
-21.00
-20.24
-16.50
-10.23
-2.41
5.63
12.56
17.35
19.59
19.56
18.13
16.53
15.96
17.27
20.71
25.84
31.66
36.92
40.47
41.54
39.98
36.20
31.00
25.29
19.87
15.28
11.78
9.39
7.97
7.33
7.24
7.45
7.72
7.85
7.70
7.26
6.61
5.93
5.41
5.09
4.83
4.32
3.24
1.42
-1.07
-3.91
-6.78
-9.50
-12.11
