1523370327.00
64.000000
-0.00
-0.00
-0.00
-0.00
-0.00
-0.00
-0.00
-0.00
-0.00
-0.00
0.00
0.01
0.01
-0.00
-0.03
-0.05
-0.05
0.00
0.13
0.36
0.66
1.01
1.37
1.72
2.06
2.40
2.79
3.24
3.80
4.42
5.06
5.66
6.20
6.68
7.15
7.68
8.31
9.14
10.09
11.04
11.89
12.57
13.14
13.76
14.65
15.95
17.91
20.32
22.93
25.43
27.64
29.61
31.63
34.14
37.46
42.00
47.45
53.31
58.98
64.10
68.68
73.18
78.26
84.46
92.36
101.48
111.06
120.20
128.27
135.22
141.62
148.76
155.39
163.86
174.89
188.62
203.84
217.48
225.04
221.70
204.03
171.26
126.02
72.44
15.01
-43.07
-100.53
-157.51
-214.49
-271.29
-326.86
-379.25
-427.00
-469.06
-504.89
-534.07
-555.89
-569.18
-572.38
-564.07
-543.36
-510.67
-467.62
-416.82
-361.31
-304.03
-247.42
-193.44
-143.62
-98.88
-59.35
-23.91
9.79
44.61
82.62
123.98
166.49
206.30
239.44
263.29
277.32
282.80
281.76
275.96
266.49
253.98
239.14
223.04
207.00
192.07
178.66
166.41
154.51
142.19
129.20
115.88
103.01
91.31
81.18
72.49
64.72
57.25
49.72
42.17
34.97
28.71
23.63
19.64
16.39
13.43
10.44
7.28
4.07
1.01
-1.67
-3.85
-5.46
-6.51
-7.08
-7.30
-7.36
-7.44
-7.70
-8.22
-8.93
-9.63
-10.08
-10.06
-9.47
-8.39
-7.06
-5.78
-4.83
-4.36
-4.38
-4.67
-4.93
-4.82
-4.11
-2.83
-1.25
0.15
0.93
0.88
0.11
-1.00
-2.02
-2.70
-3.04
-3.24
-3.52
-3.99
-4.62
-5.27
-5.79
-6.06
-6.00
-5.58
-4.81
-3.85
-2.88
-2.15
-1.77
-1.79
-2.10
-2.57
-3.10
-3.60
-4.01
-4.26
-4.28
-4.05
-3.59
-3.00
-2.35
-1.66
-0.91
-0.07
0.87
1.80
2.60
3.21
3.65
4.03
4.46
5.07
5.91
6.97
8.17
9.38
10.44
11.13
11.31
10.86
9.84
8.39
6.68
4.92
3.17
1.44
-0.24
-1.82
-3.25
-4.50
-5.58
-6.55
-7.44
-8.19
-8.71
-8.85
-8.52
-7.80
-6.91
-6.12
-5.66
-5.57
-5.76
-5.99
-6.04
-5.78
-5.25
-4.56
-3.89
-3.36
-3.04
-2.96
-3.07
-3.28
-3.53
-3.72
-3.81
-3.80
-3.70
-3.58
-3.44
-3.27
-2.99
-2.56
-2.01
-1.43
-0.98
-0.79
-0.91
-1.26
-1.69
-2.05
-2.27
-2.39
-2.56
-2.90
-3.44
-4.13
-4.85
-5.49
-6.01
-6.43
-6.78
-7.06
-7.18
-7.02
-6.48
-5.48
-4.08
-2.39
-0.52
1.46
3.51
5.57
7.55
9.33
10.82
11.96
12.77
13.35
13.76
14.01
14.06
13.80
13.18
12.23
11.09
9.95
8.94
8.08
7.26
6.30
5.08
3.59
1.97
0.44
-0.79
-1.57
-1.87
-1.70
-1.16
-0.32
0.72
1.87
3.08
4.37
5.83
7.58
9.69
12.07
14.45
16.43
17.58
17.62
16.52
14.50
11.88
8.93
5.76
2.34
-1.37
-5.22
-8.84
-11.71
-13.40
-13.80
-13.30
-12.63
-12.59
-13.61
-15.58
-17.85
-19.52
-19.89
-18.68
-16.03
-12.37
-8.29
-4.56
-2.22
-2.46
-6.21
-13.46
-22.90
-32.06
-38.17
-39.36
-35.44
-27.92
-19.22
-11.52
-5.95
-2.45
-0.33
1.07
1.96
2.16
1.50
0.20
-1.13
-1.72
-1.05
0.87
3.46
5.85
7.29
7.43
6.41
4.80
3.30
2.48
2.60
3.58
5.10
6.80
8.40
9.73
10.75
11.45
11.78
11.70
11.16
10.23
9.10
8.02
7.21
6.71
6.37
5.93
5.19
4.11
2.84
1.67
0.83
0.42
0.32
0.32
0.26
0.08
-0.13
-0.28
-0.29
-0.27
-0.37
-0.72
-1.33
-2.02
-2.52
-2.63
-2.29
-1.64
-0.97
-0.50
-0.30
-0.31
-0.33
-0.20
0.14
0.64
1.18
1.66
2.02
2.28
2.49
2.64
2.71
2.62
2.32
1.82
1.23
0.73
0.53
0.77
1.44
2.40
3.44
4.36
5.04
5.48
5.76
5.93
6.04
6.07
5.98
5.78
5.48
5.16
4.87
4.63
4.40
4.10
3.67
3.11
2.47
1.89
1.46
1.28
1.32
1.50
1.65
1.63
1.37
0.89
0.25
-0.46
-1.18
-1.88
-2.52
-3.03
-3.34
-3.36
-3.10
-2.65
-2.14
-1.71
-1.40
-1.16
-0.90
-0.57
-0.19
0.13
0.28
0.21
-0.05
-0.38
-0.66
-0.81
-0.81
-0.65
-0.41
-0.11
0.15
0.28
0.18
-0.18
-0.78
-1.52
-2.24
-2.84
-3.21
-3.38
-3.42
-3.40
-3.38
-3.41
-3.47
-3.56
-3.63
-3.63
-3.49
-3.17
-2.69
-2.09
-1.48
-0.97
-0.63
-0.47
-0.45
-0.50
-0.56
-0.62
-0.65
-0.66
-0.65
-0.62
-0.59
-0.55
-0.54
-0.55
-0.55
-0.52
-0.45
-0.36
-0.33
-0.41
-0.64
-0.99
-1.35
-1.66
-1.90
-2.11
-2.37
-2.69
-3.04
-3.30
-3.41
-3.37
-3.28
-3.26
-3.36
-3.58
-3.89
-4.21
-4.53
-4.81
-5.00
-4.96
-4.58
-3.81
-2.73
-1.53
-0.42
0.46
1.11
1.62
2.10
2.69
3.38
4.11
4.72
5.02
4.86
4.15
2.95
1.43
-0.16
-1.56
-2.59
-3.14
-3.26
-3.08
-2.79
-2.63
-2.81
-3.39
-4.31
-5.35
-6.20
-6.62
-6.53
-5.98
-5.15
-4.19
-3.18
-2.08
-0.87
0.39
1.47
2.06
1.92
1.03
-0.38
-1.89
-3.07
-3.65
-3.60
-3.01
-2.03
-0.74
0.86
2.75
4.81
6.79
8.31
9.05
8.78
7.55
5.62
3.46
1.55
0.27
-0.27
-0.25
-0.06
-0.14
-0.76
-1.85
-3.05
-3.84
-3.68
-2.33
0.07
2.98
5.61
7.20
7.28
5.86
3.40
0.60
-1.84
-3.47
-4.19
-4.16
-3.69
-3.09
-2.67
-2.64
-3.15
-4.16
-5.38
-6.23
-5.98
-4.15
-0.70
3.90
8.89
13.60
17.66
21.00
23.59
25.16
25.16
23.03
18.70
12.87
6.89
2.23
-0.25
-0.74
-0.35
-0.45
-1.90
-4.54
-7.29
-8.79
-8.10
-5.21
-1.01
3.30
6.77
9.07
10.45
11.33
11.98
12.32
12.05
10.89
8.84
6.16
3.29
0.62
-1.63
-3.48
-5.12
-6.78
-8.58
-10.37
-11.82
-12.47
-12.00
-10.39
-8.02
-5.51
-3.48
-2.29
-1.97
-2.29
-2.91
-3.58
-4.23
-4.87
-5.55
-6.20
-6.65
-6.68
-6.12
-4.97
-3.42
-1.78
-0.41
0.44
0.69
0.46
0.03
-0.29
-0.23
0.34
1.33
2.58
3.83
4.94
5.81
6.48
6.99
7.39
7.65
7.73
7.61
7.31
6.91
6.51
6.19
5.98
5.90
5.93
6.05
6.21
6.35
6.39
6.28
5.97
5.48
4.84
4.06
3.16
2.17
1.14
0.13
-0.78
-1.55
-2.24
-2.92
-3.70
-4.65
-5.76
-6.93
-8.03
-8.90
-9.38
-9.40
-8.92
-7.96
-6.57
-4.80
-2.75
-0.62
1.31
2.65
3.08
2.48
1.08
-0.63
-2.04
-2.74
-2.66
-2.14
-1.63
-1.50
-1.78
-2.18
-2.31
-1.88
-0.84
0.67
2.46
4.44
6.50
8.48
10.01
10.62
9.94
7.99
5.20
2.29
-0.00
-1.25
-1.43
-0.86
0.06
0.97
1.66
1.99
1.86
1.24
0.18
-1.13
-2.34
-3.15
-3.34
-2.98
-2.30
-1.64
-1.31
-1.46
-2.01
-2.77
-3.46
-3.86
-3.90
-3.63
-3.17
-2.69
-2.31
-2.14
-2.28
-2.80
-3.68
-4.82
-6.01
-7.04
-7.75
-8.13
-8.29
-8.41
-8.67
-9.16
-9.96
-11.10
-12.60
-14.39
-16.26
-17.86
-18.84
-18.94
-18.23
-17.07
-16.00
-15.52
-15.81
-16.67
-17.53
-17.77
-16.91
-14.80
-11.64
-7.89
-4.05
-0.65
1.94
3.50
4.09
3.97
3.64
3.62
4.22
5.46
6.97
8.21
8.60
7.82
5.94
3.45
1.22
0.30
1.63
5.71
12.29
20.33
28.23
34.22
36.88
35.51
30.30
22.22
12.81
3.74
-3.54
-8.13
-9.88
-9.31
-7.38
-5.16
-3.49
-2.79
-3.10
-4.14
-5.46
-6.51
-6.69
-5.44
-2.39
2.45
8.57
14.96
20.35
23.57
24.01
21.82
17.91
13.63
10.21
8.41
8.26
9.09
9.82
9.43
7.21
3.11
-2.31
-8.00
-12.80
-15.70
-16.17
-14.19
-10.19
-4.88
0.82
6.01
9.84
11.73
11.49
9.43
6.25
2.87
0.08
-1.61
-2.11
-1.60
-0.41
1.08
2.54
3.76
4.57
4.94
4.92
4.68
4.36
4.06
3.79
3.47
2.99
2.27
1.30
0.24
-0.64
-1.05
-0.79
0.10
1.23
2.04
2.02
0.98
-0.82
-2.73
-4.02
-4.22
-3.38
-1.97
-0.66
0.05
0.02
-0.48
-0.97
-1.08
-0.66
0.15
1.08
1.84
2.25
2.27
1.99
1.52
0.97
0.37
-0.27
-0.97
-1.68
-2.32
-2.86
-3.41
-4.14
-5.25
-6.70
-8.16
-9.08
-8.91
-7.44
-4.93
-2.02
0.57
2.38
3.32
3.59
3.46
3.08
2.40
1.37
0.04
-1.38
-2.58
-3.30
-3.48
-3.26
-2.88
-2.54
-2.36
-2.33
-2.40
-2.52
-2.62
-2.68
-2.69
-2.62
-2.47
-2.23
-1.90
-1.48
-1.01
-0.55
-0.19
-0.00
0.01
-0.10
-0.22
-0.22
-0.07
0.19
0.48
0.69
0.79
0.79
0.72
0.64
0.55
0.43
0.27
0.10
-0.05
-0.15
-0.20
-0.25
-0.31
-0.40
-0.51
-0.60
-0.66
-0.72
-0.85
-1.08
-1.36
-1.55
-1.51
-1.17
-0.55
0.13
0.64
0.79
0.49
-0.16
-0.94
-1.64
-2.10
-2.27
-2.21
-2.09
-2.07
-2.25
-2.64
-3.12
-3.54
-3.75
-3.70
-3.46
-3.17
-2.98
-2.97
-3.12
-3.30
-3.36
-3.22
-2.85
-2.33
-1.76
-1.22
-0.76
-0.42
-0.25
-0.30
-0.61
-1.15
-1.79
-2.33
-2.57
-2.44
-2.04
-1.62
-1.46
-1.72
-2.41
-3.29
-4.08
-4.53
-4.59
-4.35
-3.96
-3.49
-2.89
-2.05
-0.90
0.45
1.72
2.62
2.98
2.85
2.47
2.13
2.00
2.08
2.17
2.08
1.69
1.01
0.17
-0.70
-1.48
-2.07
-2.39
-2.34
-1.89
-1.11
-0.16
0.73
1.37
1.71
1.81
1.80
1.79
1.83
1.91
2.01
2.17
2.44
2.91
3.56
4.34
5.07
5.57
5.71
5.44
4.84
4.08
3.32
2.67
2.14
1.67
1.19
0.70
0.24
-0.10
-0.28
-0.35
-0.40
-0.54
-0.82
-1.21
-1.65
-2.04
-2.32
-2.43
-2.36
-2.12
-1.75
-1.33
-0.93
-0.62
-0.46
-0.44
-0.55
-0.73
-0.96
-1.19
-1.38
-1.45
-1.35
-1.06
-0.63
-0.18
0.14
0.22
0.05
-0.30
-0.66
-0.86
-0.83
-0.57
-0.16
0.24
0.56
0.72
0.74
0.64
0.49
0.31
0.14
-0.01
-0.12
-0.24
-0.36
-0.50
-0.69
-0.88
-1.09
-1.29
-1.47
-1.63
-1.72
-1.68
-1.49
-1.12
-0.67
-0.21
0.14
0.36
0.48
0.57
0.73
0.99
1.31
1.63
1.86
2.01
2.09
2.17
2.26
2.31
2.28
2.15
1.95
1.76
1.64
1.60
1.59
1.52
1.34
1.05
0.69
0.34
0.05
-0.14
-0.26
-0.31
-0.34
-0.38
-0.48
-0.70
-1.05
-1.49
-1.94
-2.28
-2.41
-2.25
-1.83
-1.22
-0.54
0.07
0.50
0.68
0.65
0.41
0.02
-0.50
-1.13
-1.86
-2.67
-3.46
-4.13
-4.59
-4.78
-4.71
-4.40
-3.88
-3.13
-2.11
-0.78
0.76
2.31
3.59
4.36
4.50
4.08
3.30
2.43
1.67
1.10
0.70
0.43
0.27
0.25
0.38
0.66
1.02
1.35
1.56
1.61
1.52
1.37
1.23
1.15
1.15
1.26
1.46
1.76
2.12
2.47
2.74
2.89
2.94
2.97
3.03
3.18
3.34
3.45
3.43
3.29
3.09
2.89
2.68
2.45
2.11
1.64
1.03
0.32
-0.44
-1.26
-2.11
-2.93
-3.62
-4.01
-4.03
-3.69
-3.15
-2.63
-2.29
-2.16
-2.14
-2.08
-1.88
-1.52
-1.09
-0.69
-0.36
-0.09
0.18
0.51
0.88
1.23
1.53
1.72
1.83
1.82
1.71
1.45
1.05
0.56
0.07
-0.33
-0.61
-0.77
-0.90
-1.02
-1.15
-1.28
-1.39
-1.47
-1.55
-1.64
-1.75
-1.82
-1.77
-1.53
-1.08
-0.51
0.05
0.44
0.55
0.39
0.05
-0.32
-0.57
-0.64
-0.55
-0.38
-0.23
-0.12
-0.05
0.04
0.17
0.34
0.50
0.59
0.58
0.46
0.26
-0.00
-0.26
-0.49
-0.68
-0.85
-1.04
-1.28
-1.57
-1.87
-2.12
-2.23
-2.18
-2.02
-1.83
-1.72
-1.75
-1.89
-2.01
-1.97
-1.68
-1.15
-0.49
0.13
0.57
0.78
0.82
0.78
0.76
0.79
0.84
0.84
0.73
0.53
0.33
0.19
0.22
0.42
0.76
1.12
1.37
1.42
1.22
0.84
0.39
0.02
-0.17
-0.21
-0.18
-0.21
-0.40
-0.71
-1.05
-1.29
-1.36
-1.31
-1.23
-1.23
-1.31
-1.37
-1.26
-0.89
-0.27
0.49
1.21
1.76
2.11
2.28
2.35
2.32
2.21
1.99
1.70
1.44
1.29
1.30
1.41
1.49
1.40
1.06
0.51
-0.14
-0.69
-1.01
-1.05
-0.87
-0.62
-0.46
-0.51
-0.79
-1.23
-1.69
-2.08
-2.29
-2.30
-2.12
-1.79
-1.37
-0.93
-0.51
-0.18
0.03
0.15
0.21
0.29
0.47
0.77
1.18
1.63
2.04
2.34
2.50
2.53
2.45
2.28
2.01
1.67
1.28
0.96
0.78
0.81
1.03
1.34
1.59
1.64
1.48
1.16
0.83
0.61
0.52
0.51
0.44
0.20
-0.20
-0.65
-1.04
-1.27
-1.38
-1.44
-1.57
-1.79
-2.02
-2.13
-2.04
-1.75
-1.37
-1.04
-0.86
-0.81
-0.80
-0.66
-0.29
0.30
0.96
1.50
1.73
1.63
1.32
1.00
0.86
0.97
1.30
1.69
2.02
2.17
2.10
1.84
1.45
1.01
0.60
0.32
0.22
0.29
0.49
0.71
0.88
0.94
0.88
0.69
0.35
-0.19
-0.90
-1.68
-2.35
-2.75
-2.76
-2.43
-1.89
-1.36
-0.95
-0.68
-0.45
-0.12
0.35
0.93
1.51
1.97
2.20
2.21
2.05
1.81
1.61
1.48
1.44
1.43
1.39
1.26
1.07
0.83
0.62
0.47
0.37
0.29
0.18
0.01
-0.24
-0.56
-0.94
-1.33
-1.69
-1.99
-2.19
-2.27
-2.22
-2.02
-1.68
-1.26
-0.84
-0.49
-0.26
-0.10
0.08
0.34
0.72
1.12
1.44
1.57
1.50
1.33
1.21
1.23
1.42
1.68
1.89
1.96
1.87
1.67
1.41
1.17
0.93
0.69
0.44
0.18
-0.07
-0.30
-0.52
-0.73
-0.95
-1.20
-1.49
-1.81
-2.16
-2.49
-2.72
-2.77
-2.62
-2.32
-2.00
-1.83
-1.86
-2.00
-2.07
-1.92
-1.50
-0.94
-0.44
-0.20
-0.24
-0.44
-0.59
-0.53
-0.23
0.15
0.40
0.36
0.05
-0.38
-0.70
-0.76
-0.62
-0.49
-0.63
-1.18
-2.10
-3.19
-4.22
-5.03
-5.57
-5.89
-6.05
-6.07
-5.93
-5.64
-5.26
-4.89
-4.61
-4.43
-4.23
-3.88
-3.19
-2.05
-0.49
1.37
3.27
4.91
6.05
6.55
6.46
5.95
5.22
4.43
3.65
2.88
2.12
1.37
0.71
0.21
-0.06
-0.12
-0.05
0.05
0.10
0.03
-0.13
-0.35
-0.57
-0.77
-0.90
-0.93
-0.79
-0.41
0.24
1.14
2.17
3.20
4.10
4.83
5.42
5.91
6.35
6.77
7.18
7.61
8.08
8.56
8.98
9.21
9.12
8.67
7.90
6.91
5.87
4.91
4.11
3.47
2.93
2.42
1.84
1.17
0.44
-0.32
-1.01
-1.60
-2.07
-2.45
-2.73
-2.92
-3.00
-3.04
-3.11
-3.30
-3.61
-3.96
-4.18
-4.10
-3.65
-2.88
-1.92
-0.92
0.00
0.77
1.38
1.85
2.22
2.54
2.84
3.11
3.26
3.25
3.04
2.67
2.23
1.82
1.50
1.22
0.95
0.66
0.45
0.44
0.71
1.22
1.80
2.21
2.23
1.81
1.04
0.13
-0.71
-1.32
-1.63
-1.62
-1.33
-0.85
-0.29
0.20
0.51
0.57
0.41
0.09
-0.29
-0.67
-1.03
-1.33
-1.54
-1.58
-1.39
-1.00
-0.52
-0.12
0.01
-0.22
-0.77
-1.46
-2.08
-2.46
-2.49
-2.23
-1.79
-1.31
-0.89
-0.58
-0.43
-0.44
-0.65
-1.07
-1.68
-2.40
-3.10
-3.64
-3.91
-3.88
-3.60
-3.17
-2.70
-2.28
-1.95
-1.69
-1.50
-1.35
-1.26
-1.26
-1.35
-1.53
-1.72
-1.85
-1.86
-1.70
-1.39
-0.97
-0.46
0.05
0.51
0.83
0.98
0.97
0.94
1.04
1.39
1.97
2.63
3.11
3.20
2.82
2.07
1.17
0.38
-0.13
-0.30
-0.16
0.18
0.63
1.11
1.61
2.12
2.61
3.00
3.16
2.97
2.42
1.58
0.63
-0.26
-1.00
-1.57
-2.04
-2.46
-2.88
-3.33
-3.85
-4.44
-5.07
-5.59
-5.74
-5.20
-3.72
-1.27
1.92
5.37
8.54
10.95
12.33
12.72
12.33
11.46
10.38
9.21
7.93
6.48
4.86
3.16
1.55
0.20
-0.78
-1.43
-1.82
-2.09
-2.31
-2.51
-2.66
-2.74
-2.76
-2.78
-2.85
-3.01
-3.25
-3.52
-3.78
-3.99
-4.14
-4.25
-4.34
-4.46
-4.62
-4.80
-4.92
-4.87
-4.57
-4.01
-3.28
-2.53
-1.87
-1.39
-1.10
-0.99
-1.08
-1.41
-1.95
-2.61
-3.23
-3.62
-3.70
-3.47
-3.02
-2.45
-1.81
-1.12
-0.40
0.29
0.88
1.31
1.64
1.96
2.39
2.92
3.46
3.83
3.95
3.89
3.86
4.10
4.74
5.71
6.76
7.52
7.71
7.25
6.25
5.00
3.82
3.00
2.72
3.05
3.92
5.15
6.48
7.55
8.07
7.83
6.79
5.06
2.87
0.54
-1.64
-3.39
-4.54
-5.01
-4.85
-4.21
-3.32
-2.39
-1.56
-0.89
-0.30
0.35
1.22
2.34
3.60
4.76
5.53
5.78
5.57
5.16
4.90
5.01
5.54
6.31
7.09
7.70
8.07
8.22
8.14
7.74
6.88
5.45
3.47
1.17
-1.17
-3.24
-4.86
-6.03
-6.82
-7.32
-7.57
-7.57
-7.31
-6.84
-6.31
-5.92
-5.81
-5.98
-6.25
-6.38
-6.17
-5.59
-4.75
-3.86
-3.07
-2.47
-2.09
-1.93
-2.07
-2.56
-3.39
-4.41
-5.37
-5.94
-5.96
-5.45
-4.60
-3.71
-3.02
-2.65
-2.56
-2.66
-2.77
-2.77
-2.57
-2.18
-1.62
-1.01
-0.44
0.01
0.32
0.49
0.49
0.30
-0.13
-0.81
-1.62
-2.34
-2.79
-2.82
-2.45
-1.85
-1.20
-0.67
-0.36
-0.29
-0.46
-0.87
-1.51
-2.30
-3.08
-3.64
-3.83
-3.54
-2.81
-1.76
-0.59
0.55
1.49
2.15
2.49
2.52
2.35
2.08
1.79
1.52
1.25
0.94
0.55
0.07
-0.48
-1.07
-1.67
-2.25
-2.77
-3.18
-3.39
-3.42
-3.29
-3.16
-3.17
-3.45
-3.97
-4.62
-5.20
-5.56
-5.60
-5.36
-4.93
-4.42
-3.93
-3.49
-3.12
-2.81
-2.56
-2.34
-2.14
-1.91
-1.61
-1.26
-0.90
-0.66
-0.65
-0.93
-1.44
-2.04
-2.51
-2.72
-2.62
-2.28
-1.85
-1.49
-1.28
-1.24
-1.34
-1.53
-1.77
-2.03
-2.28
-2.54
-2.78
-2.99
-3.14
-3.12
-2.85
-2.28
-1.41
-0.40
0.59
1.39
1.91
2.21
2.39
2.59
2.86
3.16
3.37
3.39
3.19
2.85
2.52
2.34
2.36
2.54
2.77
2.94
2.99
2.94
2.80
2.61
2.34
1.93
1.38
0.74
0.13
-0.32
-0.49
-0.37
-0.01
0.48
0.99
1.47
1.89
2.24
2.53
2.72
2.76
2.65
2.40
2.06
1.68
1.30
0.96
0.71
0.62
0.75
1.05
1.43
1.73
1.82
1.64
1.22
0.67
0.09
-0.45
-0.92
-1.32
-1.60
-1.73
-1.66
-1.44
-1.14
-0.91
-0.85
-0.95
-1.14
-1.27
-1.24
-1.04
-0.76
-0.54
-0.48
-0.58
-0.78
-0.97
-1.05
-0.98
-0.79
-0.57
-0.38
-0.23
-0.09
0.10
0.36
0.67
0.92
1.02
0.91
0.64
0.36
0.22
0.30
0.57
0.89
1.09
1.10
0.91
0.64
0.41
0.29
0.30
0.37
0.44
0.48
0.51
0.61
0.80
1.08
1.35
1.53
1.57
1.50
1.40
1.37
1.42
1.48
1.49
1.40
1.25
1.12
1.09
1.16
1.26
1.29
1.17
0.91
0.54
0.13
-0.26
-0.60
-0.87
-1.04
-1.13
-1.13
-1.09
-1.01
-0.90
-0.75
-0.54
-0.26
0.05
0.34
0.59
0.77
0.91
1.02
1.14
1.30
1.49
1.66
1.76
1.74
1.57
1.26
0.86
0.49
0.23
0.14
0.22
0.39
0.59
0.72
0.73
0.61
0.33
-0.10
-0.66
-1.29
-1.89
-2.36
-2.61
-2.59
-2.35
-1.99
-1.65
-1.41
-1.30
-1.30
-1.35
-1.41
-1.45
-1.47
-1.45
-1.37
-1.19
-0.91
-0.56
-0.23
-0.01
0.08
0.07
0.08
0.20
0.45
0.77
1.06
1.24
1.29
1.27
1.25
1.24
1.15
0.89
0.43
-0.16
-0.69
-0.99
-0.98
-0.72
-0.37
-0.10
0.03
0.06
0.11
0.24
0.44
0.65
0.79
0.82
0.80
0.76
0.77
0.81
0.82
0.77
0.63
0.45
0.28
0.17
0.07
-0.06
-0.27
-0.57
-0.90
-1.16
-1.27
-1.21
-1.04
-0.82
-0.62
-0.42
-0.18
0.15
0.51
0.81
0.91
0.78
0.48
0.17
-0.01
0.02
0.23
0.50
0.74
0.88
0.92
0.88
0.78
0.65
0.53
0.47
0.51
0.67
0.92
1.20
1.47
1.67
1.75
1.67
1.38
0.89
0.24
-0.47
-1.13
-1.64
-1.95
-2.07
-2.00
-1.77
-1.42
-0.99
-0.54
-0.13
0.20
0.43
0.56
0.63
0.69
0.80
1.00
1.29
1.59
1.80
1.80
1.55
1.10
0.62
0.28
0.19
0.39
0.78
1.21
1.55
1.66
1.47
1.01
0.36
-0.35
-0.92
-1.22
-1.18
-0.83
-0.34
0.09
0.28
0.12
-0.33
-0.90
-1.33
-1.44
-1.19
-0.71
-0.22
0.08
0.14
0.05
-0.04
-0.02
0.07
0.12
-0.01
-0.34
-0.76
-1.09
-1.15
-0.96
-0.64
-0.38
-0.34
-0.57
-1.01
-1.54
-2.04
-2.44
-2.65
-2.67
-2.46
-2.07
-1.56
-1.06
-0.67
-0.46
-0.44
-0.54
-0.67
-0.75
-0.73
-0.60
-0.34
0.05
0.54
1.09
1.59
1.93
2.04
1.89
1.55
1.11
0.70
0.38
0.20
0.14
0.14
0.14
0.09
-0.08
-0.37
-0.77
-1.19
-1.56
-1.77
-1.75
-1.53
-1.15
-0.76
-0.50
-0.47
-0.65
-0.96
-1.24
-1.33
-1.16
-0.76
-0.22
0.32
0.77
1.12
1.38
1.59
1.73
1.75
1.61
1.30
0.90
0.56
0.39
0.45
0.69
0.97
1.13
1.09
0.88
0.59
0.34
0.20
0.17
0.19
0.22
0.26
0.36
0.56
0.90
1.37
1.94
2.49
2.94
3.16
3.05
2.57
1.77
0.83
0.00
-0.48
-0.51
-0.13
0.46
1.03
1.40
1.48
1.30
0.91
0.39
-0.20
-0.74
-1.10
-1.17
-0.92
-0.48
-0.09
0.00
-0.32
-0.98
-1.77
-2.42
-2.80
-2.89
-2.77
-2.50
-2.12
-1.59
-0.93
-0.21
0.39
0.70
0.64
0.30
-0.13
-0.42
-0.41
-0.08
0.47
1.04
1.45
1.57
1.37
0.95
0.48
0.14
0.01
0.04
0.10
0.06
-0.13
-0.37
-0.56
-0.64
-0.64
-0.70
-0.91
-1.29
-1.69
-1.92
-1.81
-1.38
-0.74
-0.12
0.32
0.52
0.55
0.54
0.59
0.73
0.89
0.99
0.94
0.74
0.48
0.29
0.25
0.36
0.56
0.73
0.78
0.71
0.61
0.58
0.68
0.86
1.00
0.95
0.63
0.09
-0.51
-0.98
-1.17
-1.08
-0.80
-0.50
-0.32
-0.33
-0.51
-0.74
-0.88
-0.79
-0.41
0.22
0.97
1.67
2.16
2.33
2.16
1.76
1.26
0.84
0.64
0.73
1.12
1.75
2.47
3.11
3.47
3.39
2.82
1.81
0.54
-0.77
-1.90
-2.70
-3.12
-3.17
-2.95
-2.57
-2.18
-1.94
-1.92
-2.13
-2.43
-2.65
-2.62
-2.26
-1.65
-0.95
-0.36
0.02
0.18
0.24
0.32
0.51
0.81
1.12
1.32
1.32
1.12
0.81
0.55
0.47
0.66
1.13
1.82
2.60
3.35
3.95
4.32
4.43
4.30
4.01
3.63
3.24
2.88
2.60
2.39
2.25
2.17
2.08
1.94
1.70
1.36
0.97
0.61
0.34
0.18
0.12
0.12
0.15
0.17
0.15
0.09
0.01
-0.05
-0.03
0.12
0.42
0.85
1.37
1.92
2.46
2.93
3.25
3.34
3.15
2.69
2.06
1.41
0.92
0.68
0.70
0.93
1.26
1.59
1.84
1.94
1.86
1.61
1.21
0.72
0.21
-0.28
-0.73
-1.08
-1.31
-1.36
-1.23
-0.99
-0.76
-0.67
-0.78
-1.05
-1.37
-1.59
-1.61
-1.40
-1.03
-0.58
-0.16
0.11
0.19
0.04
-0.33
-0.85
-1.41
-1.89
-2.15
-2.11
-1.79
-1.24
-0.59
-0.02
0.33
0.36
0.06
-0.50
-1.17
-1.78
-2.21
-2.43
-2.47
-2.42
-2.36
-2.35
-2.43
-2.60
-2.82
-3.04
-3.17
-3.12
-2.90
-2.56
-2.25
-2.13
-2.23
-2.48
-2.69
-2.64
-2.23
-1.51
-0.69
-0.07
0.15
-0.07
-0.65
-1.35
-1.98
-2.41
-2.64
-2.76
-2.83
-2.86
-2.81
-2.60
-2.20
-1.65
-1.10
-0.68
-0.49
-0.59
-0.95
-1.53
-2.28
-3.09
-3.83
-4.28
-4.30
-3.85
-3.08
-2.29
-1.75
-1.53
-1.47
-1.27
-0.67
0.34
1.51
2.43
2.81
2.60
2.02
1.45
1.27
1.70
2.80
4.48
6.52
8.69
10.66
12.13
12.86
12.77
11.96
10.69
9.23
7.78
6.37
4.90
3.27
1.50
-0.24
-1.66
-2.51
-2.76
-2.56
-2.22
-1.98
-1.91
-1.87
-1.70
-1.31
-0.79
-0.41
-0.38
-0.75
-1.38
-2.00
-2.36
-2.35
-2.03
-1.57
-1.15
-0.91
-0.87
-1.00
-1.18
-1.32
-1.36
-1.31
-1.26
-1.28
-1.40
-1.60
-1.74
-1.74
-1.59
-1.37
-1.22
-1.25
-1.43
-1.67
-1.83
-1.87
-1.79
-1.70
-1.65
-1.60
-1.48
-1.19
-0.71
-0.12
0.41
0.75
0.81
0.66
0.41
0.23
0.21
0.40
0.74
1.13
1.44
1.55
1.42
1.10
0.72
0.43
0.34
0.45
0.68
0.88
0.93
0.77
0.42
-0.06
-0.57
-1.03
-1.38
-1.55
-1.55
-1.43
-1.29
-1.21
-1.22
-1.26
-1.25
-1.12
-0.89
-0.62
-0.36
-0.12
0.16
0.56
1.10
1.70
2.25
2.64
2.82
2.80
2.60
2.19
1.59
0.83
0.06
-0.50
-0.69
-0.48
-0.04
0.39
0.59
0.48
0.18
-0.10
-0.21
-0.12
0.04
0.10
-0.07
-0.49
-1.04
-1.55
-1.94
-2.17
-2.30
-2.37
-2.35
-2.17
-1.75
-1.11
-0.42
0.08
0.17
-0.19
-0.85
-1.48
-1.81
-1.71
-1.24
-0.60
0.04
0.59
1.06
1.45
1.71
1.72
1.37
0.66
-0.24
-1.07
-1.57
-1.62
-1.27
-0.69
-0.14
0.19
0.19
-0.14
-0.70
-1.36
-1.93
-2.29
-2.34
-2.09
-1.63
-1.15
-0.85
-0.90
-1.29
-1.89
-2.48
-2.81
-2.75
-2.31
-1.62
-0.85
-0.15
0.38
0.65
0.62
0.30
-0.21
-0.73
-1.04
-1.01
-0.61
0.01
0.68
1.22
1.54
1.63
1.54
1.30
0.99
0.70
0.54
0.56
0.73
0.94
1.05
0.98
0.73
0.42
0.21
0.16
0.24
0.31
0.25
-0.02
-0.43
-0.81
-0.96
-0.75
-0.20
0.53
1.18
1.50
1.42
1.00
0.45
-0.02
-0.26
-0.29
-0.22
-0.21
-0.33
-0.56
-0.77
-0.81
-0.64
-0.35
-0.18
-0.43
-1.37
-3.05
-5.34
-7.87
-10.15
-11.63
-11.77
-10.17
-6.70
-1.65
4.24
9.84
13.94
15.64
14.68
11.61
7.55
3.85
1.56
1.10
2.27
4.41
6.74
8.67
9.87
10.27
9.91
8.90
7.41
5.66
3.99
2.72
2.08
2.12
2.68
3.44
4.12
4.48
4.46
4.10
3.51
2.80
2.09
1.50
1.08
0.85
0.73
0.61
0.44
0.24
0.12
0.16
0.32
0.50
0.51
0.22
-0.38
-1.16
-1.94
-2.61
-3.18
-3.72
-4.35
-5.06
-5.83
-6.58
-7.28
-7.90
-8.40
-8.72
-8.71
-8.29
-7.42
-6.19
-4.79
-3.43
-2.28
-1.42
-0.81
-0.40
-0.13
0.06
0.19
0.25
0.29
0.36
0.50
0.68
0.81
0.74
0.31
-0.51
-1.60
-2.71
-3.56
-3.97
-3.95
-3.66
-3.31
-3.04
-2.87
-2.71
-2.48
-2.15
-1.80
-1.52
-1.36
-1.28
-1.18
-0.97
-0.64
-0.31
-0.10
-0.10
-0.26
-0.48
-0.60
-0.58
-0.47
-0.37
-0.40
-0.54
-0.73
-0.85
-0.83
-0.68
-0.44
-0.15
0.19
0.56
0.93
1.25
1.40
1.33
1.02
0.54
0.02
-0.42
-0.69
-0.71
-0.49
-0.04
0.60
1.33
2.04
2.60
2.92
2.94
2.73
2.38
2.06
1.88
1.89
2.07
2.33
2.58
2.80
3.01
3.27
3.60
4.01
4.41
4.70
4.73
4.40
3.63
2.46
1.05
-0.36
-1.45
-1.99
-1.89
-1.25
-0.35
0.45
0.84
0.66
-0.05
-0.99
-1.78
-2.01
-1.49
-0.33
1.02
1.99
2.12
1.29
-0.21
-1.84
-3.09
-3.73
-3.86
-3.74
-3.66
-3.71
-3.85
-3.97
-3.97
-3.80
-3.47
-3.05
-2.70
-2.62
-3.04
-4.04
-5.47
-6.93
-7.93
-8.10
-7.40
-6.09
-4.62
-3.31
-2.34
-1.65
-1.16
-0.86
-0.84
-1.21
-1.97
-2.96
-3.89
-4.48
-4.54
-4.04
-3.11
-1.96
-0.83
0.08
0.67
0.90
0.83
0.58
0.27
-0.03
-0.31
-0.61
-1.00
-1.47
-1.96
-2.31
-2.42
-2.21
-1.72
-1.04
-0.28
0.47
1.11
1.59
1.89
2.02
2.08
2.19
2.44
2.90
3.51
4.15
4.64
4.87
4.82
4.58
4.31
4.12
4.06
4.07
4.07
4.01
3.89
3.75
3.65
3.61
3.61
3.61
3.54
3.35
3.01
2.52
1.91
1.28
0.77
0.50
0.46
0.58
0.68
0.61
0.30
-0.15
-0.61
-0.93
-1.07
-1.02
-0.86
-0.61
-0.30
0.05
0.42
0.73
0.94
1.04
1.06
1.11
1.23
1.41
1.58
1.65
1.56
1.33
1.03
0.72
0.45
0.19
-0.12
-0.56
-1.14
-1.82
-2.49
-3.05
-3.41
-3.56
-3.56
-3.51
-3.50
-3.56
-3.65
-3.70
-3.64
-3.45
-3.17
-2.86
-2.58
-2.35
-2.16
-1.96
-1.72
-1.40
-1.01
-0.55
-0.07
0.40
0.80
1.07
1.23
1.34
1.50
1.80
2.23
2.67
2.93
2.84
2.34
1.49
0.47
-0.55
-1.45
-2.17
-2.72
-3.10
-3.34
-3.43
-3.39
-3.27
-3.11
-2.95
-2.80
-2.65
-2.48
-2.29
-2.07
-1.85
-1.62
-1.40
-1.13
-0.81
-0.39
0.11
0.64
1.16
1.59
1.90
2.09
2.16
2.15
2.07
1.92
1.70
1.44
1.16
0.87
0.57
0.26
-0.09
-0.48
-0.87
-1.22
-1.47
-1.61
-1.66
-1.64
-1.59
-1.54
-1.48
-1.42
-1.37
-1.32
-1.29
-1.24
-1.12
-0.92
-0.60
-0.18
0.32
0.87
1.45
2.03
2.53
2.87
2.96
2.75
2.32
1.80
1.33
1.03
0.96
1.10
1.39
1.79
2.22
2.61
2.82
2.75
2.33
1.60
0.71
-0.11
-0.69
-0.95
-0.96
-0.88
-0.89
-1.11
-1.50
-1.93
-2.23
-2.29
-2.07
-1.61
-1.03
-0.47
-0.02
0.28
0.45
0.56
0.66
0.82
1.07
1.42
1.83
2.26
2.62
2.84
2.81
2.52
2.04
1.51
1.15
1.14
1.56
2.30
3.17
3.90
4.31
4.34
4.01
3.43
2.67
1.82
0.96
0.23
-0.24
-0.33
-0.02
0.57
1.24
1.78
2.08
2.11
1.94
1.64
1.26
0.81
0.33
-0.14
-0.52
-0.77
-0.90
-0.98
-1.11
-1.33
-1.67
-2.04
-2.37
-2.58
-2.58
-2.35
-1.89
-1.26
-0.57
0.02
0.40
0.53
0.48
0.42
0.50
0.78
1.21
1.64
1.95
2.06
2.02
1.90
1.77
1.64
1.48
1.25
0.96
0.69
0.52
0.51
0.62
0.75
0.73
0.47
-0.05
-0.76
-1.53
-2.24
-2.79
-3.13
-3.23
-3.12
-2.88
-2.67
-2.63
-2.85
-3.31
-3.83
-4.21
-4.29
-4.06
-3.64
-3.20
-2.89
-2.76
-2.73
-2.72
-2.63
-2.42
-2.12
-1.78
-1.43
-1.14
-0.94
-0.84
-0.88
-1.12
-1.57
-2.25
-3.12
-4.08
-5.03
-5.89
-6.67
-7.47
-8.41
-9.54
-10.83
-12.13
-13.31
-14.30
-15.13
-15.82
-16.29
-16.33
-15.61
-13.88
-11.15
-7.79
-4.41
-1.64
0.12
0.88
0.98
0.97
1.35
2.43
4.32
6.92
10.04
13.35
16.50
19.11
20.90
21.74
21.69
20.96
19.80
18.43
16.98
15.61
14.50
13.88
13.87
14.43
15.22
15.67
15.16
13.24
9.79
5.08
-0.24
-5.28
-9.03
-10.61
-9.50
-5.73
0.04
6.70
13.02
18.17
21.91
24.68
27.26
30.29
33.86
37.31
39.50
39.16
35.47
28.41
18.81
8.11
-2.04
-10.29
-15.87
-18.65
-18.96
-17.32
-14.25
-10.21
-5.72
-1.51
1.62
2.98
2.31
-0.06
-3.30
-6.41
-8.64
-9.75
-10.03
-9.94
-9.93
-10.18
-10.66
-11.26
-11.91
-12.64
-13.53
-14.62
-15.83
-16.94
-17.57
-17.28
-15.65
-12.52
-8.04
-2.75
2.58
7.19
10.60
12.76
13.92
14.45
14.61
14.50
14.08
13.36
12.43
11.50
10.78
10.39
10.32
10.46
10.70
10.93
11.04
10.92
10.40
9.33
7.68
5.57
3.23
0.95
-1.10
-2.83
-4.30
-5.54
-6.56
-7.28
-7.63
-7.62
-7.39
-7.15
-7.09
-7.34
-7.91
-8.71
-9.63
-10.55
-11.39
-12.08
-12.57
-12.81
-12.72
-12.26
-11.39
-10.20
-8.78
-7.32
-5.95
-4.75
-3.72
-2.84
-2.11
-1.56
-1.28
-1.29
-1.57
-2.00
-2.43
-2.71
-2.78
-2.67
-2.46
-2.22
-2.01
-1.83
-1.68
-1.54
-1.40
-1.26
-1.11
-0.94
-0.74
-0.54
-0.36
-0.25
-0.25
-0.34
-0.47
-0.51
-0.38
-0.08
0.30
0.58
0.62
0.35
-0.18
-0.83
-1.45
-1.93
-2.23
-2.35
-2.32
-2.16
-1.88
-1.53
-1.19
-0.95
-0.85
-0.87
-0.93
-0.92
-0.73
-0.33
0.28
1.00
1.74
2.37
2.81
3.02
3.02
2.89
2.71
2.56
2.43
2.27
2.01
1.62
1.14
0.68
0.36
0.22
0.23
0.31
0.37
0.38
0.37
0.39
0.41
0.38
0.16
-0.30
-0.99
-1.82
-2.65
-3.39
-4.02
-4.57
-5.08
-5.54
-5.88
-6.03
-5.92
-5.56
-4.99
-4.29
-3.57
-2.93
-2.43
-2.07
-1.77
-1.39
-0.82
-0.05
0.79
1.47
1.71
1.39
0.58
-0.47
-1.38
-1.85
-1.73
-1.08
-0.16
0.72
1.23
1.14
0.42
-0.84
-2.43
-4.08
-5.60
-6.83
-7.65
-7.98
-7.81
-7.15
-6.14
-4.88
-3.30
-1.24
1.51
4.92
8.53
11.46
12.79
11.97
9.19
5.37
1.83
-0.29
-0.49
0.96
3.24
5.37
6.60
6.70
5.82
4.41
2.88
1.49
0.26
-0.89
-2.03
-3.08
-3.83
-4.06
-3.74
-3.03
-2.29
-1.84
-1.85
-2.23
-2.75
-3.17
-3.36
-3.35
-3.27
-3.23
-3.27
-3.30
-3.20
-2.88
-2.30
-1.56
-0.82
-0.24
0.03
-0.05
-0.43
-0.97
-1.49
-1.84
-1.93
-1.73
-1.30
-0.71
-0.10
0.41
0.69
0.72
0.52
0.23
0.00
-0.04
0.12
0.40
0.70
0.97
1.20
1.45
1.74
2.03
2.21
2.16
1.87
1.46
1.09
0.93
1.03
1.30
1.57
1.70
1.64
1.45
1.30
1.31
1.53
1.89
2.26
2.46
2.43
2.18
1.83
1.51
1.32
1.31
1.41
1.49
1.44
1.20
0.82
0.41
0.17
0.25
0.71
1.57
2.75
4.12
5.46
6.53
7.04
6.78
5.65
3.72
1.27
-1.27
-3.47
-5.00
-5.76
-5.91
-5.78
-5.75
-6.06
-6.66
-7.25
-7.46
-7.05
-6.09
-5.04
-4.48
-4.87
-6.27
-8.27
-10.15
-11.23
-11.14
-9.97
-8.18
-6.33
-4.83
-3.80
-3.09
-2.47
-1.77
-0.94
-0.06
0.77
1.55
2.34
3.22
4.21
5.21
6.06
6.58
6.73
6.56
6.25
5.96
5.81
5.79
5.82
5.76
5.53
5.12
4.56
3.92
3.24
2.55
1.89
1.26
0.73
0.35
0.15
0.13
0.29
0.60
1.01
1.45
1.86
2.14
2.26
2.22
2.10
2.05
2.17
2.52
3.03
3.59
4.07
4.37
4.46
4.40
4.24
4.08
3.94
3.86
3.88
4.05
4.46
5.21
6.31
7.68
9.10
10.32
11.13
11.41
11.21
10.70
10.08
9.51
9.12
8.95
8.97
9.11
9.22
9.13
8.69
7.88
6.76
5.50
4.25
3.09
2.01
0.87
-0.42
-1.91
-3.53
-5.13
-6.56
-7.70
-8.56
-9.20
-9.72
-10.21
-10.71
-11.25
-11.83
-12.48
-13.15
-13.77
-14.15
-14.07
-13.37
-12.03
-10.18
-8.09
-6.07
-4.35
-3.08
-2.32
-2.05
-2.17
-2.55
-3.02
-3.43
-3.66
-3.66
-3.43
-3.03
-2.52
-1.97
-1.46
-1.06
-0.84
-0.78
-0.80
-0.78
-0.59
-0.21
0.26
0.65
0.76
0.48
-0.15
-0.98
-1.80
-2.45
-2.91
-3.29
-3.72
-4.25
-4.84
-5.35
-5.63
-5.62
-5.38
-5.04
-4.72
-4.49
-4.35
-4.30
-4.36
-4.54
-4.83
-5.13
-5.31
-5.21
-4.78
-4.08
-3.25
-2.49
-1.96
-1.72
-1.74
-1.90
-2.04
-2.05
-1.87
-1.51
-1.01
-0.38
0.37
1.25
2.22
3.18
3.94
4.33
4.28
3.83
3.18
2.51
1.98
1.60
1.32
1.04
0.70
0.31
-0.01
-0.14
0.04
0.55
1.32
2.21
3.07
3.78
4.31
4.69
4.96
5.20
5.44
5.72
6.00
6.22
6.29
6.13
5.69
4.96
3.97
2.81
1.55
0.33
-0.72
-1.46
-1.81
-1.80
-1.57
-1.28
-1.06
-0.93
-0.83
-0.62
-0.26
0.22
0.72
1.14
1.43
1.59
1.66
1.66
1.55
1.30
0.88
0.30
-0.43
-1.24
-2.10
-2.91
-3.57
-3.98
-4.04
-3.75
-3.20
-2.54
-1.96
-1.60
-1.53
-1.68
-1.93
-2.12
-2.13
-1.93
-1.59
-1.23
-0.95
-0.78
-0.69
-0.62
-0.55
-0.50
-0.51
-0.59
-0.70
-0.76
-0.70
-0.54
-0.32
-0.12
0.05
0.25
0.56
1.03
1.63
2.22
2.61
2.71
2.48
2.05
1.58
1.26
1.18
1.34
1.66
1.99
2.21
2.26
2.16
1.95
1.72
1.51
1.32
1.15
0.96
0.76
0.58
0.43
0.35
0.30
0.26
0.19
0.09
-0.01
-0.06
-0.08
-0.09
-0.15
-0.28
-0.41
-0.48
-0.40
-0.16
0.18
0.53
0.81
1.01
1.16
1.30
1.41
1.44
1.35
1.13
0.84
0.58
0.40
0.33
0.32
0.31
0.26
0.10
-0.17
-0.54
-0.92
-1.20
-1.29
-1.13
-0.79
-0.41
-0.14
-0.07
-0.16
-0.27
-0.26
-0.04
0.34
0.78
1.13
1.28
1.20
0.96
0.66
0.39
0.21
0.13
0.13
0.19
0.29
0.44
0.64
0.85
0.99
0.96
0.74
0.36
-0.05
-0.37
-0.49
-0.40
-0.18
0.05
0.17
0.09
-0.19
-0.60
-1.04
-1.37
-1.51
-1.41
-1.14
-0.80
-0.50
-0.34
-0.30
-0.34
-0.37
-0.34
-0.26
-0.14
-0.04
0.01
0.00
-0.09
-0.26
-0.51
-0.82
-1.12
-1.29
-1.22
-0.86
-0.25
0.44
1.00
1.24
1.09
0.63
0.01
-0.59
-1.03
-1.24
-1.24
-1.07
-0.84
-0.60
-0.39
-0.20
-0.00
0.24
0.51
0.78
0.97
1.04
0.98
0.86
0.78
0.81
0.95
1.10
1.13
0.94
0.55
0.08
-0.28
-0.41
-0.28
0.04
0.44
0.85
1.24
1.63
2.02
2.34
2.52
2.49
2.20
1.70
1.06
0.34
-0.36
-0.96
-1.34
-1.43
-1.21
-0.76
-0.22
0.19
0.33
0.12
-0.37
-0.98
-1.54
-1.91
-2.05
-1.96
-1.67
-1.24
-0.66
0.05
0.87
1.74
2.51
3.08
3.37
3.42
3.29
3.03
2.60
1.88
0.77
-0.71
-2.40
-3.98
-5.16
-5.82
-6.01
-5.92
-5.73
-5.44
-4.96
-4.15
-3.00
-1.69
-0.52
0.24
0.46
0.29
0.01
-0.06
0.23
0.82
1.48
1.95
2.04
1.76
1.27
0.83
0.64
0.77
1.11
1.42
1.47
1.10
0.29
-0.81
-2.00
-3.04
-3.74
-3.98
-3.69
-2.89
-1.67
-0.17
1.37
2.71
3.64
4.02
3.87
3.27
2.37
1.27
0.08
-1.09
-2.08
-2.69
-2.80
-2.43
-1.83
-1.37
-1.37
-1.95
-2.93
-4.00
-4.83
-5.20
-4.96
-3.97
-2.12
0.61
3.96
7.34
10.04
11.47
11.46
10.36
8.72
7.05
5.54
3.99
2.12
-0.20
-2.80
-5.29
-7.26
-8.55
-9.27
-9.67
-10.01
-10.36
-10.58
-10.41
-9.58
-7.94
-5.58
-2.79
0.05
2.54
4.47
5.84
6.81
7.51
7.88
7.60
6.22
3.59
-0.15
-4.30
-7.90
-10.17
-10.64
-9.29
-6.51
-3.10
-0.22
0.88
-0.69
-5.01
-11.09
-16.99
-20.45
-19.77
-14.56
-6.07
3.34
11.08
15.27
15.38
12.17
7.15
1.96
-2.20
-4.70
-5.33
-4.14
-1.28
2.93
7.98
13.00
17.05
19.55
20.51
20.43
19.98
19.59
19.14
18.12
16.05
12.87
9.18
5.98
4.27
4.65
7.13
11.20
15.97
20.35
23.20
23.55
20.86
15.31
7.84
0.03
-6.48
-10.51
-11.86
-11.23
-9.86
-8.87
-8.86
-9.77
-11.11
-12.37
-13.24
-13.64
-13.57
-13.01
-11.82
-9.87
-7.15
-3.88
-0.53
2.30
4.08
4.53
3.76
2.19
0.44
-1.02
-2.05
-3.01
-4.55
-7.46
-11.97
-17.75
-23.88
-29.08
-32.33
-33.19
-31.85
-28.95
-25.27
-21.68
-19.14
-18.60
-20.62
-24.79
-29.43
-32.01
-30.13
-22.89
-11.46
1.25
11.98
18.62
20.98
20.53
19.19
18.24
17.75
17.06
15.57
13.41
11.45
10.58
11.36
13.41
15.69
16.91
16.22
13.53
9.61
5.73
3.05
2.26
3.27
5.39
7.70
9.48
10.41
10.57
10.21
9.55
8.74
7.76
6.59
5.21
3.64
1.95
0.23
-1.43
-2.94
-4.24
-5.36
-6.39
-7.41
-8.47
-9.45
-10.18
-10.46
-10.18
-9.33
-8.06
-6.58
-5.10
-3.76
-2.61
-1.68
-1.01
-0.70
-0.90
-1.70
-3.10
-4.85
-6.56
-7.79
-8.20
-7.74
-6.63
-5.23
-3.89
-2.75
-1.76
-0.73
0.54
2.14
4.01
6.02
8.00
9.82
11.42
12.74
13.72
14.31
14.46
14.18
13.53
12.62
11.60
10.61
9.74
8.99
8.30
7.55
6.65
5.59
4.46
3.41
2.63
2.25
2.31
2.72
3.31
3.85
4.13
3.97
3.30
2.15
0.68
-0.88
-2.21
-3.06
-3.25
-2.81
-1.85
-0.58
0.75
1.96
2.91
3.50
3.72
3.59
3.17
2.54
1.78
1.03
0.40
0.03
0.02
0.38
1.00
1.69
2.21
2.42
2.31
2.01
1.74
1.63
1.71
1.87
1.93
1.69
1.03
-0.10
-1.65
-3.45
-5.26
-6.74
-7.52
-7.24
-5.71
-2.96
0.65
4.49
7.83
10.03
10.86
10.48
9.43
8.32
7.58
7.32
7.35
7.34
7.12
6.67
6.17
5.77
5.48
5.12
4.41
3.12
1.24
-1.02
-3.27
-5.14
-6.44
-7.23
-7.72
-8.16
-8.65
-9.13
-9.45
-9.49
-9.29
-9.05
-9.04
-9.43
-10.22
-11.15
-11.90
-12.17
-11.76
-10.56
-8.51
-5.54
-1.76
2.45
6.40
9.27
10.46
9.85
7.92
5.52
3.47
2.28
1.96
2.21
2.63
2.99
3.23
3.42
3.62
3.82
3.94
3.90
3.69
3.32
2.87
2.45
2.12
1.88
1.73
1.59
1.42
1.19
0.93
0.67
0.48
0.41
0.47
0.64
0.80
0.79
0.44
-0.30
-1.35
-2.48
-3.42
-3.99
-4.15
-3.97
-3.54
-2.92
-2.07
-1.01
0.10
0.96
1.18
0.56
-0.79
-2.41
-3.69
-4.14
-3.56
-2.18
-0.48
1.03
1.98
2.28
2.05
1.58
1.20
1.16
1.62
2.52
3.64
4.68
5.35
5.53
5.26
4.72
4.12
3.56
3.02
2.42
1.72
0.94
0.18
-0.50
-1.06
-1.51
-1.89
-2.17
-2.29
-2.21
-1.91
-1.44
-0.91
-0.41
-0.03
0.23
0.38
0.42
0.39
0.31
0.26
0.32
0.56
0.97
1.47
1.97
2.34
2.52
2.50
2.29
1.95
1.54
1.12
0.75
0.46
0.27
0.17
0.12
0.12
0.15
0.22
0.30
0.37
0.37
0.29
0.15
-0.02
-0.20
-0.43
-0.76
-1.19
-1.69
-2.12
-2.36
-2.33
-2.07
-1.75
-1.49
-1.40
-1.44
-1.51
-1.47
-1.23
-0.78
-0.21
0.32
0.68
0.76
0.56
0.20
-0.17
-0.40
-0.46
-0.43
-0.43
-0.58
-0.89
-1.23
-1.48
-1.53
-1.41
-1.25
-1.18
-1.29
-1.52
-1.75
-1.81
-1.63
-1.22
-0.71
-0.25
0.10
0.35
0.57
0.83
1.13
1.39
1.52
1.45
1.23
0.96
0.77
0.72
0.83
1.00
1.15
1.16
1.02
0.74
0.43
0.20
0.13
0.23
0.42
0.54
0.47
0.20
-0.22
-0.62
-0.86
-0.88
-0.69
-0.41
-0.17
-0.08
-0.18
-0.40
-0.67
-0.89
-1.03
-1.14
-1.30
-1.63
-2.14
-2.77
-3.38
-3.81
-3.93
-3.71
-3.22
-2.60
-1.97
-1.47
-1.19
-1.16
-1.37
-1.73
-2.09
-2.32
-2.29
-2.00
-1.51
-0.99
-0.62
-0.49
-0.60
-0.87
-1.11
-1.21
-1.09
-0.75
-0.26
0.34
0.96
1.55
2.05
2.42
2.68
2.86
3.04
3.25
3.44
3.55
3.49
3.26
2.92
2.58
2.26
1.92
1.48
0.87
0.18
-0.42
-0.77
-0.83
-0.71
-0.61
-0.65
-0.82
-0.94
-0.85
-0.48
0.07
0.58
0.88
0.96
0.95
0.99
1.14
1.33
1.37
1.16
0.70
0.18
-0.16
-0.16
0.17
0.69
1.19
1.50
1.58
1.50
1.35
1.21
1.12
1.04
0.93
0.74
0.46
0.08
-0.40
-1.00
-1.71
-2.46
-3.14
-3.60
-3.75
-3.58
-3.23
-2.85
-2.60
-2.51
-2.54
-2.57
-2.55
-2.45
-2.34
-2.27
-2.25
-2.25
-2.21
-2.04
-1.70
-1.16
-0.46
0.30
0.97
1.38
1.42
1.09
0.54
-0.03
-0.45
-0.65
-0.71
-0.74
-0.82
-0.94
-1.00
-0.91
-0.64
-0.21
0.25
0.67
0.97
1.18
1.30
1.34
1.27
1.09
0.85
0.64
0.56
0.65
0.84
1.02
1.08
0.95
0.63
0.16
-0.40
-0.96
-1.44
-1.79
-1.96
-1.93
-1.74
-1.43
-1.05
-0.61
-0.12
0.40
0.86
1.11
0.96
0.34
-0.67
-1.81
-2.68
-2.91
-2.33
-1.06
0.48
1.69
2.08
1.47
0.07
-1.62
-3.02
-3.71
-3.59
-2.82
-1.70
-0.58
0.32
0.86
1.00
0.80
0.33
-0.27
-0.89
-1.42
-1.84
-2.15
-2.35
-2.41
-2.29
-1.95
-1.48
-0.98
-0.61
-0.45
-0.45
-0.52
-0.57
-0.59
-0.63
-0.75
-0.94
-1.11
-1.13
-0.92
-0.49
0.04
0.48
0.71
0.68
0.44
0.15
-0.02
0.08
0.52
1.24
2.08
2.84
3.33
3.47
3.29
2.88
2.37
1.85
1.38
0.99
0.70
0.56
0.58
0.73
0.94
1.08
1.04
0.81
0.45
0.10
-0.14
-0.24
-0.27
-0.34
-0.53
-0.81
-1.07
-1.19
-1.14
-1.02
-0.97
-1.09
-1.35
-1.61
-1.69
-1.53
-1.17
-0.76
-0.47
-0.36
-0.40
-0.47
-0.46
-0.35
-0.16
0.04
0.21
0.32
0.39
0.40
0.36
0.26
0.11
-0.07
-0.22
-0.27
-0.16
0.11
0.51
0.95
1.30
1.45
1.32
0.93
0.35
-0.27
-0.76
-1.02
-1.01
-0.80
-0.50
-0.27
-0.19
-0.29
-0.51
-0.76
-0.94
-1.01
-0.96
-0.85
-0.74
-0.70
-0.77
-0.95
-1.16
-1.32
-1.29
-1.02
-0.50
0.17
0.84
1.39
1.78
2.05
2.26
2.45
2.54
2.45
2.13
1.65
1.18
0.93
1.00
1.33
1.72
1.92
1.79
1.32
0.66
0.02
-0.46
-0.72
-0.81
-0.80
-0.74
-0.64
-0.50
-0.34
-0.21
-0.14
-0.16
-0.24
-0.32
-0.31
-0.16
0.12
0.42
0.60
0.56
0.27
-0.18
-0.62
-0.91
-0.97
-0.85
-0.65
-0.52
-0.57
-0.82
-1.28
-1.88
-2.53
-3.09
-3.40
-3.27
-2.65
-1.60
-0.36
0.75
1.50
1.81
1.79
1.63
1.48
1.39
1.28
1.04
0.67
0.31
0.24
0.72
1.82
3.38
4.99
6.22
6.79
6.65
5.98
5.06
4.16
3.45
3.01
2.87
3.00
3.37
3.87
4.34
4.58
4.45
3.93
3.19
2.49
2.12
2.26
2.92
3.88
4.79
5.32
5.30
4.86
4.35
4.22
4.73
5.79
6.98
7.78
7.83
7.23
6.46
6.17
6.86
8.59
10.99
13.55
15.74
17.25
18.04
18.17
17.90
17.89
19.34
23.60
31.35
41.81
52.46
59.71
60.34
52.89
38.44
20.06
1.62
-13.74
-24.36
-30.05
-31.49
-29.51
-24.77
-17.84
-9.42
-0.44
7.97
14.72
19.00
20.45
19.18
15.90
11.55
6.94
2.48
-1.86
-6.46
-11.56
-16.91
-21.73
-24.86
-25.31
-22.65
-17.12
-9.49
-0.82
7.74
15.00
19.75
21.09
18.80
13.69
7.42
1.68
-2.71
-6.22
-10.20
-15.71
-22.52
-28.90
-32.47
-31.67
-26.74
-19.73
-13.33
-9.41
-8.16
-8.18
-7.59
-5.05
-0.33
5.62
11.18
14.61
14.61
10.69
3.53
-5.19
-13.25
-18.61
-20.39
-19.15
-16.69
-15.13
-15.84
-18.81
-22.75
-25.76
-26.23
-23.40
-17.61
-9.99
-2.15
4.08
7.02
5.35
-1.52
-13.22
-28.40
-44.97
-60.64
-73.35
-81.67
-84.91
-83.05
-76.74
-67.14
-55.71
-43.92
-32.84
-22.77
-13.33
-4.22
4.15
10.41
13.15
11.99
8.26
4.46
2.72
3.42
4.91
4.69
1.29
-4.59
-10.44
-13.53
-12.69
-8.88
-4.38
-1.02
0.95
2.84
6.29
11.89
18.59
24.35
27.12
25.96
21.34
14.86
8.44
3.56
0.84
0.01
0.31
0.95
1.59
2.38
3.86
6.54
10.58
15.58
20.58
24.38
25.93
24.76
21.19
16.20
11.06
6.81
3.91
2.27
1.46
1.07
0.94
1.21
2.07
3.55
5.41
7.20
8.50
9.03
8.82
8.12
7.25
6.43
5.66
4.81
3.72
2.32
0.78
-0.61
-1.50
-1.72
-1.35
-0.72
-0.25
-0.23
-0.67
-1.27
-1.60
-1.34
-0.42
0.85
2.05
2.77
2.87
2.50
1.94
1.48
1.21
1.08
0.93
0.70
0.42
0.21
0.19
0.39
0.73
1.07
1.29
1.36
1.33
1.34
1.45
1.65
1.83
1.83
1.54
0.99
0.33
-0.25
-0.59
-0.65
-0.46
-0.15
0.20
0.52
0.84
1.18
1.57
2.00
2.44
2.83
3.11
3.22
3.15
2.93
2.56
2.09
1.57
1.08
0.70
0.52
0.53
0.68
0.84
0.90
0.82
0.60
0.27
-0.12
-0.54
-0.97
-1.33
-1.55
-1.54
-1.34
-1.06
-0.89
-0.95
-1.26
-1.71
-2.11
-2.37
-2.47
-2.47
-2.42
-2.30
-2.08
-1.71
-1.21
-0.67
-0.19
0.17
0.39
0.50
0.51
0.46
0.36
0.28
0.31
0.48
0.75
1.01
1.14
1.14
1.16
1.45
2.24
3.54
5.17
6.73
7.79
8.03
7.35
5.89
3.91
1.78
-0.16
-1.62
-2.40
-2.42
-1.77
-0.68
0.49
1.38
1.75
1.52
0.80
-0.16
-1.09
-1.80
-2.22
-2.34
-2.21
-1.90
-1.46
-0.95
-0.47
-0.11
0.06
0.03
-0.12
-0.29
-0.36
-0.30
-0.16
-0.01
0.10
0.19
0.29
0.45
0.67
0.90
1.05
1.07
0.96
0.78
0.62
0.56
0.62
0.81
1.07
1.35
1.57
1.66
1.57
1.28
0.82
0.28
-0.25
-0.70
-1.05
-1.30
-1.49
-1.57
-1.47
-1.10
-0.44
0.39
1.08
1.25
0.58
-1.06
-3.55
-6.51
-9.50
-12.10
-14.01
-15.07
-15.22
-14.41
-12.71
-10.31
-7.65
-5.27
-3.66
-2.94
-2.79
-2.58
-1.73
0.01
2.35
4.72
6.49
7.32
7.21
6.46
5.39
4.24
3.14
2.17
1.48
1.25
1.65
2.71
4.24
5.87
7.13
7.62
7.23
6.10
4.65
3.33
2.45
2.05
1.96
1.97
1.96
1.98
2.13
2.40
2.62
2.55
2.01
1.06
-0.02
-0.95
-1.56
-1.85
-1.97
-1.96
-1.72
-1.01
0.33
2.26
4.40
6.25
7.36
7.60
7.19
6.61
6.33
6.66
7.61
8.94
10.28
11.29
11.77
11.69
11.14
10.24
9.15
8.06
7.23
6.99
7.63
9.19
11.42
13.68
15.20
15.37
14.05
11.65
9.03
7.06
6.25
6.46
6.99
6.87
5.35
2.26
-1.87
-6.04
-9.24
-10.84
-10.84
-9.77
-8.49
-7.92
-8.94
-12.18
-17.77
-24.94
-31.78
-35.51
-33.25
-23.30
-6.04
15.83
38.07
56.40
68.00
72.35
71.10
66.95
62.30
58.32
54.91
51.32
47.12
42.50
38.07
34.12
30.02
24.46
16.29
5.51
-6.20
-15.99
-21.16
-20.62
-15.66
-9.51
-5.92
-7.50
-14.61
-25.33
-36.50
-45.11
-49.53
-49.92
-47.78
-44.93
-42.51
-40.67
-38.71
-35.91
-32.07
-27.74
-23.83
-21.13
-19.83
-19.59
-19.75
-19.69
-19.16
-18.27
-17.32
-16.63
-16.27
-16.08
-15.72
-14.89
-13.46
-11.58
-9.65
-8.07
-7.11
-6.76
-6.78
-6.84
-6.68
-6.22
-5.57
-4.89
-4.33
-3.89
-3.47
-2.97
-2.40
-1.88
-1.61
-1.73
-2.23
-2.87
-3.35
-3.32
-2.59
-1.18
0.72
2.80
4.68
5.90
6.06
4.86
2.32
-1.09
-4.56
-7.16
-8.19
-7.48
-5.45
-2.86
-0.53
1.07
1.89
2.18
2.31
2.47
2.66
2.72
2.44
1.68
0.41
-1.25
-3.03
-4.51
-5.26
-4.94
-3.49
-1.23
1.18
2.92
3.29
2.00
-0.71
-4.16
-7.42
-9.72
-10.65
-10.40
-9.60
-9.04
-9.37
-10.78
-12.93
-15.15
-16.79
-17.51
-17.49
-17.35
-17.89
-19.86
-23.74
-29.63
-37.06
-44.68
-50.25
-51.01
-44.65
-30.55
-10.44
11.78
31.37
44.55
49.90
48.59
43.37
37.10
31.43
26.66
22.35
18.22
14.68
12.60
12.59
14.44
17.00
18.75
18.46
15.86
11.69
7.29
3.94
2.35
2.35
3.14
3.73
3.40
2.02
0.11
-1.55
-2.26
-1.75
-0.33
1.38
2.71
3.28
3.17
2.77
2.52
2.68
3.18
3.73
3.99
3.81
3.28
2.68
2.32
2.42
2.94
3.68
4.32
4.62
4.51
4.11
3.66
3.45
3.67
4.35
5.38
6.51
7.48
8.09
8.30
8.25
8.19
8.33
8.73
9.24
9.54
9.28
8.23
6.40
4.01
1.49
-0.59
-1.63
-1.13
1.09
4.69
8.83
12.40
14.38
14.29
12.35
9.35
6.18
3.45
1.31
-0.40
-1.92
-3.24
-4.16
-4.46
-4.10
-3.36
-2.66
-2.37
-2.60
-3.18
-3.75
-3.99
-3.81
-3.32
-2.77
-2.44
-2.48
-2.92
-3.69
-4.65
-5.69
-6.72
-7.63
-8.31
-8.64
-8.56
-8.07
-7.28
-6.34
-5.42
-4.68
-4.24
-4.13
-4.33
-4.73
-5.17
-5.53
-5.74
-5.83
-5.89
-6.00
-6.17
-6.34
-6.39
-6.24
-5.85
-5.23
-4.39
-3.38
-2.25
-1.09
-0.01
0.88
1.56
2.07
2.51
2.94
3.37
3.77
4.06
4.23
4.32
4.45
4.70
5.13
5.67
6.19
6.54
6.63
6.47
6.16
5.84
5.59
5.40
5.19
4.89
4.51
4.11
3.84
3.75
3.84
3.95
3.87
3.48
2.77
1.86
0.93
0.18
-0.30
-0.54
-0.61
-0.64
-0.65
-0.63
-0.56
-0.38
-0.12
0.14
0.34
0.46
0.52
0.55
0.59
0.62
0.64
0.68
0.78
1.02
1.40
1.88
2.37
2.75
2.97
3.05
3.07
3.11
3.23
3.41
3.56
3.55
3.26
2.64
1.75
0.74
-0.20
-0.88
-1.27
-1.43
-1.52
-1.68
-1.99
-2.42
-2.88
-3.32
-3.77
-4.28
-4.88
-5.52
-6.09
-6.49
-6.68
-6.75
-6.82
-6.98
-7.22
-7.43
-7.44
-7.15
-6.55
-5.72
-4.78
-3.79
-2.78
-1.72
-0.63
0.43
1.37
2.13
2.70
3.11
3.45
3.79
4.17
4.55
4.90
5.18
5.37
5.45
5.42
5.28
5.03
4.71
4.38
4.09
3.86
3.64
3.34
2.85
2.21
1.53
1.01
0.81
0.98
1.42
1.92
2.30
2.49
2.49
2.37
2.22
2.07
1.93
1.82
1.75
1.71
1.67
1.58
1.41
1.17
0.92
0.70
0.50
0.26
-0.08
-0.55
-1.02
-1.35
-1.42
-1.25
-0.97
-0.78
-0.83
-1.10
-1.48
-1.81
-1.98
-1.98
-1.85
-1.66
-1.42
-1.18
-0.95
-0.80
-0.75
-0.77
-0.79
-0.74
-0.62
-0.49
-0.43
-0.52
-0.69
-0.85
-0.88
-0.74
-0.49
-0.22
-0.03
0.04
0.00
-0.14
-0.39
-0.74
-1.14
-1.52
-1.78
-1.83
-1.67
-1.37
-1.02
-0.72
-0.54
-0.46
-0.47
-0.50
-0.47
-0.33
-0.09
0.21
0.50
0.67
0.70
0.58
0.37
0.17
0.07
0.13
0.40
0.84
1.38
1.90
2.31
2.57
2.71
2.81
2.94
3.13
3.36
3.59
3.81
4.02
4.23
4.42
4.53
4.52
4.40
4.25
4.17
4.27
4.52
4.80
5.00
5.06
5.03
5.03
5.17
5.46
5.79
5.97
5.88
5.52
5.00
4.49
4.15
4.00
3.96
3.92
3.80
3.55
3.20
2.79
2.36
1.93
1.52
1.12
0.73
0.31
-0.18
-0.76
-1.41
-2.06
-2.63
-3.09
-3.46
-3.85
-4.33
-4.86
-5.32
-5.49
-5.24
-4.55
-3.54
-2.43
-1.39
-0.60
-0.16
-0.19
-0.80
-2.01
-3.72
-5.64
-7.39
-8.62
-9.16
-9.04
-8.50
-7.87
-7.40
-7.19
-7.24
-7.43
-7.67
-7.89
-8.06
-8.13
-7.99
-7.51
-6.57
-5.12
-3.23
-1.07
1.11
3.10
4.80
6.24
7.60
9.05
10.66
12.41
14.11
15.54
16.53
17.05
17.24
17.31
17.43
17.69
18.09
18.56
19.04
19.41
19.47
18.89
17.23
14.17
9.72
4.32
-1.25
-6.13
-9.78
-12.12
-13.57
-14.76
-16.18
-17.95
-19.83
-21.35
-22.11
-21.89
-20.76
-19.00
-16.95
-14.98
-13.39
-12.43
-12.16
-12.38
-12.49
-11.61
-8.82
-3.70
3.31
10.82
16.90
19.89
19.00
14.68
8.28
1.40
-4.83
-9.93
-13.95
-17.01
-18.97
-19.52
-18.43
-15.94
-12.79
-9.94
-8.10
-7.45
-7.58
-7.72
-7.17
-5.55
-2.87
0.48
4.00
7.17
9.55
10.86
10.93
9.78
7.57
4.67
1.54
-1.36
-3.65
-5.14
-5.82
-5.88
-5.55
-5.10
-4.70
-4.46
-4.44
-4.66
-5.11
-5.71
-6.30
-6.70
-6.71
-6.25
-5.34
-4.09
-2.70
-1.33
-0.12
0.86
1.58
2.07
2.39
2.56
2.63
2.58
2.39
2.02
1.52
0.96
0.48
0.20
0.14
0.25
0.35
0.27
-0.12
-0.84
-1.75
-2.67
-3.41
-3.85
-4.00
-3.98
-3.95
-4.03
-4.27
-4.61
-4.95
-5.14
-5.08
-4.77
-4.28
-3.77
-3.41
-3.27
-3.31
-3.30
-2.98
-2.17
-0.90
0.58
1.95
2.90
3.34
3.35
3.11
2.74
2.25
1.57
0.61
-0.57
-1.85
-3.03
-3.92
-4.44
-4.55
-4.26
-3.63
-2.76
-1.82
-1.02
-0.57
-0.54
-0.88
-1.44
-2.03
-2.45
-2.57
-2.32
-1.72
-0.86
0.02
0.66
0.88
0.70
0.39
0.36
0.94
2.22
4.01
5.94
7.65
8.99
9.95
10.65
11.15
11.47
11.58
11.46
11.13
10.65
10.08
9.46
8.83
8.23
7.71
7.32
7.06
6.88
6.73
6.66
6.75
7.06
7.52
7.91
7.88
7.21
5.89
4.22
2.86
2.35
2.92
4.33
5.93
7.03
7.07
5.82
3.46
0.71
-1.54
-2.54
-1.86
0.45
3.68
6.80
8.53
8.21
6.45
4.69
4.37
6.37
10.59
15.93
21.00
24.54
25.79
24.40
19.78
11.29
-0.68
-14.00
-25.57
-31.17
-29.17
-23.07
-17.46
-14.89
-15.25
-16.36
-15.36
-10.78
-3.42
3.96
8.69
10.01
8.99
7.37
6.34
5.88
5.15
3.37
0.11
-4.27
-8.47
-11.33
-12.32
-11.66
-10.04
-8.38
-7.45
-7.77
-9.31
-11.47
-13.47
-14.79
-15.27
-15.12
-14.78
-14.70
-15.26
-16.49
-18.12
-19.76
-21.07
-21.89
-22.15
-21.87
-21.11
-19.97
-18.56
-17.01
-15.48
-14.11
-12.92
-11.80
-10.51
-8.78
-6.47
-3.56
-0.16
3.51
7.19
10.65
13.67
16.10
17.89
19.10
19.88
20.49
21.16
22.00
23.04
24.21
25.36
26.35
27.02
27.21
26.76
25.62
23.80
21.45
18.85
16.30
14.12
12.55
11.70
11.42
11.35
11.02
9.99
8.13
5.66
3.13
1.17
0.14
0.04
0.43
0.80
0.81
0.45
0.07
0.03
0.51
1.32
2.02
2.11
1.35
-0.12
-1.89
-3.40
-4.28
-4.52
-4.39
-4.30
-4.53
-5.10
-5.83
-6.39
-6.58
-6.35
-5.81
-5.10
-4.27
-3.32
-2.19
-0.95
0.25
1.20
1.80
2.13
2.45
2.97
3.80
4.80
5.68
6.12
6.00
5.40
4.56
3.77
3.24
3.09
3.24
3.49
3.56
3.19
2.26
0.83
-0.89
-2.58
-3.98
-4.90
-5.24
-4.94
-4.00
-2.47
-0.55
1.37
2.83
3.39
2.88
1.48
-0.37
-2.22
-3.73
-4.77
-5.35
-5.57
-5.47
-5.13
-4.63
-4.14
-3.85
-3.90
-4.28
-4.85
-5.40
-5.76
-5.87
-5.79
-5.57
-5.27
-4.91
-4.50
-4.11
-3.78
-3.52
-3.26
-2.90
-2.38
-1.69
-0.92
-0.19
0.37
0.69
0.76
0.59
0.22
-0.25
-0.70
-1.04
-1.27
-1.51
-1.95
-2.75
-3.88
-5.11
-6.06
-6.45
-6.23
-5.71
-5.40
-5.79
-7.07
-9.01
-10.98
-12.15
-11.73
-9.19
-4.55
1.61
8.10
13.48
16.54
16.82
14.82
11.83
9.28
8.09
8.28
9.09
9.48
8.72
6.67
3.74
0.47
-2.65
-5.30
-7.19
-7.99
-7.48
-5.64
-2.83
0.34
3.21
5.33
6.57
7.07
6.95
6.28
4.93
2.69
-0.43
-4.13
-7.74
-10.37
-11.01
-8.94
-4.20
2.07
7.87
10.98
9.98
4.92
-2.66
-10.42
-16.23
-19.00
-18.80
-16.45
-12.75
-8.15
-2.72
3.44
9.82
15.50
19.48
21.17
20.64
18.54
15.63
12.68
10.11
7.93
5.97
3.99
1.86
-0.33
-2.38
-4.01
-5.02
-5.36
-5.20
-4.75
-4.22
-3.68
-2.96
-1.79
0.09
2.77
6.00
9.25
11.92
13.52
13.86
13.07
11.54
9.68
7.94
6.59
5.80
5.66
6.05
6.70
7.17
6.97
5.83
3.85
1.60
-0.13
-0.58
0.47
2.56
4.59
5.29
3.77
-0.03
-5.24
-10.39
-13.93
-14.93
-13.34
-10.01
-6.33
-3.69
-3.02
-4.50
-7.51
-10.86
-13.08
-12.90
-9.78
-4.09
3.03
10.21
16.46
21.56
25.98
30.48
35.50
40.89
45.86
49.22
49.73
46.35
38.65
26.95
12.58
-2.35
-15.45
-24.74
-29.27
-29.32
-25.94
-20.32
-13.37
-5.58
2.56
10.30
16.62
20.63
21.96
20.99
18.48
15.08
10.94
5.80
-0.45
-7.28
-13.31
-16.75
-16.25
-11.61
-4.10
4.02
10.37
13.44
13.06
10.22
6.38
2.65
-0.61
-3.68
-6.98
-10.53
-13.78
-15.90
-16.36
-15.29
-13.47
-11.86
-11.01
-10.71
-10.19
-8.74
-6.30
-3.60
-1.79
-1.78
-3.76
-7.13
-10.90
-14.18
-16.56
-18.06
-18.89
-19.22
-19.00
-18.11
-16.47
-14.22
-11.80
-9.84
-9.03
-9.89
-12.54
-16.56
-21.11
-25.08
-27.60
-28.32
-27.60
-26.30
-25.39
-25.50
-26.76
-28.77
-30.91
-32.49
-33.03
-32.23
-29.96
-26.32
-21.61
-16.40
-11.38
-7.19
-4.13
-2.02
-0.33
1.50
3.70
6.00
7.76
8.34
7.56
5.79
3.86
2.65
2.73
4.15
6.47
8.97
10.94
11.95
11.94
11.20
10.22
9.47
9.19
9.39
9.89
10.43
10.79
10.79
10.19
8.69
5.97
1.92
-3.28
-9.09
-14.86
-20.08
-24.62
-28.58
-32.11
-35.11
-37.23
-37.96
-37.03
-34.59
-31.14
-27.35
-23.67
-20.26
-17.04
-13.87
-10.75
-7.85
-5.40
-3.53
-2.16
-1.03
0.20
1.91
4.31
7.44
11.17
15.18
19.04
22.27
24.43
25.20
24.46
22.32
19.11
15.40
11.92
9.40
8.36
8.95
10.87
13.48
16.08
18.10
19.36
20.02
20.42
20.88
21.43
21.86
21.89
21.34
20.19
18.63
16.96
15.46
14.34
13.66
13.35
13.25
13.07
12.50
11.29
9.50
7.35
5.05
2.62
0.05
-2.58
-5.00
-6.81
-7.62
-6.89
-4.42
-0.52
3.91
7.92
10.95
12.91
14.04
14.76
16.03
18.69
23.10
28.69
34.55
39.83
43.81
45.91
45.92
44.84
44.24
45.70
49.70
55.97
63.57
70.72
74.75
68.62
47.59
12.15
-31.21
-74.20
-109.57
-132.19
-139.44
-131.56
-111.77
-85.09
-58.74
-36.66
-22.28
-17.33
-20.76
-29.31
-38.81
-45.31
-45.77
-39.27
-26.90
-11.80
1.82
10.53
12.59
8.11
-1.20
-12.17
-21.23
-25.37
-23.59
-16.75
-7.00
3.02
11.31
17.29
22.13
27.56
34.73
42.98
50.39
55.18
56.81
56.18
54.63
52.64
49.48
43.95
35.42
24.97
15.14
8.39
5.60
5.52
5.60
3.69
-0.58
-5.80
-9.85
-11.38
-10.58
-8.86
-7.72
-7.74
-8.36
-8.56
-7.78
-6.32
-5.01
-4.72
-5.74
-7.58
-9.25
-9.83
-8.92
-6.82
-4.29
-2.16
-0.97
-0.82
-1.43
-2.35
-3.20
-3.74
-3.88
-3.63
-3.08
-2.43
-1.97
-1.98
-2.63
-3.84
-5.33
-6.69
-7.54
-7.76
-7.51
-7.11
-6.94
-7.17
-7.74
-8.35
-8.67
-8.45
-7.68
-6.46
-4.97
-3.33
-1.63
-0.01
1.37
2.27
2.52
2.10
1.23
0.26
-0.39
-0.45
0.18
1.40
2.97
4.59
6.00
7.07
7.72
7.95
7.77
7.17
6.17
4.86
3.46
2.22
1.33
0.84
0.62
0.42
0.05
-0.55
-1.29
-2.06
-2.78
-3.45
-4.11
-4.74
-5.25
-5.51
-5.44
-5.09
-4.64
-4.32
-4.27
-4.46
-4.66
-4.55
-3.90
-2.66
-1.11
0.38
1.42
1.88
1.86
1.65
1.52
1.55
1.62
1.49
1.03
0.30
-0.46
-0.97
-1.05
-0.69
-0.06
0.61
1.08
1.23
1.04
0.59
0.02
-0.55
-1.02
-1.36
-1.57
-1.68
-1.66
-1.50
-1.17
-0.72
-0.23
0.21
0.51
0.70
0.82
0.95
1.11
1.30
1.45
1.56
1.59
1.56
1.42
1.13
0.65
0.02
-0.63
-1.09
-1.18
-0.83
-0.12
0.72
1.43
1.81
1.76
1.25
0.35
-0.83
-2.06
-3.07
-3.56
-3.33
-2.36
-0.86
0.84
2.38
3.48
4.06
4.15
3.84
3.22
2.37
1.38
0.41
-0.37
-0.77
-0.67
-0.09
0.83
1.81
2.53
2.78
2.49
1.83
1.07
0.47
0.17
0.11
0.14
0.09
-0.12
-0.47
-0.82
-1.11
-1.28
-1.34
-1.33
-1.30
-1.26
-1.22
-1.16
-1.07
-0.91
-0.68
-0.41
-0.16
0.00
0.06
0.06
0.05
0.10
0.22
0.37
0.52
0.64
0.75
0.83
0.89
0.89
0.80
0.61
0.33
-0.00
-0.38
-0.78
-1.21
-1.65
-2.04
-2.33
-2.46
-2.43
-2.26
-1.99
-1.68
-1.36
-1.08
-0.85
-0.67
-0.55
-0.48
-0.47
-0.52
-0.60
-0.65
-0.58
-0.31
0.16
0.73
1.25
1.57
1.62
1.44
1.15
0.89
0.75
0.70
0.62
0.37
-0.16
-0.96
-1.88
-2.68
-3.11
-3.01
-2.43
-1.60
-0.87
-0.52
-0.63
-1.06
-1.48
-1.56
-1.16
-0.37
0.52
1.17
1.39
1.15
0.65
0.16
-0.07
0.04
0.42
0.93
1.46
1.97
2.55
3.29
4.17
4.92
5.15
4.49
2.93
1.04
-0.26
-0.24
0.96
2.03
1.14
-2.95
-9.91
-17.52
-22.71
-23.15
-18.57
-10.79
-2.54
4.19
9.11
13.35
18.27
24.29
30.84
37.20
43.60
51.52
62.65
77.00
91.72
101.45
100.59
86.13
59.60
26.82
-4.49
-27.94
-40.90
-44.87
-43.88
-42.17
-42.06
-43.56
-45.18
-45.53
-44.28
-42.30
-40.84
-40.67
-41.49
-42.18
-41.47
-38.65
-34.04
-28.76
-24.19
-21.28
-20.16
-20.13
-20.11
-19.24
-17.26
-14.62
-12.18
-10.74
-10.66
-11.70
-13.15
-14.15
-14.07
-12.72
-10.38
-7.58
-4.88
-2.57
-0.65
1.12
3.04
5.32
7.98
10.84
13.64
16.10
18.01
19.27
19.84
19.77
19.18
18.25
17.16
16.11
15.24
14.61
14.12
13.63
12.93
11.89
10.47
8.76
6.91
5.10
3.42
1.91
0.54
-0.73
-1.90
-2.95
-3.78
-4.34
-4.59
-4.58
-4.41
-4.23
-4.16
-4.24
-4.41
-4.58
-4.61
-4.43
-4.07
-3.62
-3.17
-2.81
-2.56
-2.35
-2.15
-1.92
-1.66
-1.39
-1.15
-0.92
-0.71
-0.53
-0.38
-0.30
-0.29
-0.34
-0.37
-0.32
-0.11
0.24
0.68
1.11
1.46
1.68
1.80
1.89
2.04
2.30
2.68
3.12
3.56
3.97
4.36
4.72
5.09
5.43
5.72
5.90
5.97
6.00
6.12
6.48
7.21
8.30
9.62
10.89
11.86
12.39
12.53
12.53
12.75
13.49
14.84
16.69
18.70
20.50
21.84
22.66
23.06
23.28
23.53
23.88
24.32
24.71
24.79
24.07
21.81
17.10
9.10
-2.49
-17.16
-33.51
-49.56
-63.37
-73.50
-79.41
-81.23
-79.56
-75.06
-68.44
-60.59
-52.70
-46.18
-42.19
-41.10
-42.28
-44.37
-46.12
-47.12
-48.10
-50.25
-54.07
-58.41
-60.50
-57.14
-46.35
-28.60
-6.75
15.11
33.27
45.48
51.02
50.18
43.86
33.80
22.87
14.91
13.50
20.17
33.23
48.06
59.16
62.81
58.74
49.85
40.27
33.08
28.90
26.33
23.46
19.41
14.80
11.17
9.68
10.30
11.88
12.83
12.14
9.88
7.11
5.16
4.93
6.45
8.94
11.34
12.80
13.10
12.57
11.77
11.11
10.63
10.08
9.14
7.62
5.54
3.02
0.30
-2.39
-4.75
-6.41
-7.09
-6.72
-5.52
-3.99
-2.66
-1.89
-1.71
-1.92
-2.27
-2.65
-3.09
-3.67
-4.40
-5.09
-5.47
-5.36
-4.71
-3.68
-2.53
-1.45
-0.52
0.35
1.27
2.28
3.32
4.20
4.74
4.81
4.43
3.72
2.90
2.17
1.72
1.63
1.86
2.23
2.46
2.32
1.71
0.77
-0.23
-0.95
-1.15
-0.80
-0.08
0.68
1.19
1.27
0.94
0.43
0.05
0.03
0.41
0.97
1.31
1.03
-0.07
-1.87
-3.97
-5.75
-6.54
-5.71
-2.80
2.29
9.13
16.60
23.03
26.59
25.95
20.91
12.60
3.19
-4.99
-10.27
-12.24
-11.56
-9.47
-7.11
-5.07
-3.42
-2.07
-1.03
-0.56
-0.97
-2.29
-4.17
-5.93
-6.88
-6.63
-5.29
-3.39
-1.65
-0.68
-0.72
-1.62
-2.90
-4.05
-4.69
-4.78
-4.53
-4.34
-4.45
-4.92
-5.53
-5.95
-5.95
-5.51
-4.85
-4.24
-3.91
-3.90
-4.09
-4.32
-4.48
-4.57
-4.68
-4.93
-5.33
-5.86
-6.43
-6.95
-7.39
-7.77
-8.21
-8.86
-9.87
-11.27
-12.91
-14.53
-15.84
-16.71
-17.23
-17.69
-18.39
-19.42
-20.61
-21.59
-22.03
-21.86
-21.27
-20.59
-20.11
-19.98
-20.26
-21.11
-22.86
-25.90
-30.29
-35.38
-39.83
-42.04
-40.78
-35.69
-27.45
-17.43
-7.09
2.48
10.75
17.64
23.30
27.93
31.68
34.76
37.39
39.78
41.98
43.86
45.13
45.48
44.76
43.02
40.51
37.64
34.87
32.64
31.15
30.39
30.10
29.86
29.28
28.10
26.35
24.23
22.02
19.96
18.10
16.35
14.53
12.52
10.30
8.02
5.88
4.08
2.72
1.79
1.17
0.73
0.32
-0.17
-0.81
-1.63
-2.63
-3.78
-4.92
-5.87
-6.41
-6.41
-5.88
-5.03
-4.17
-3.62
-3.57
-4.03
-4.85
-5.83
-6.79
-7.57
-8.09
-8.25
-8.01
-7.38
-6.41
-5.25
-4.06
-2.99
-2.11
-1.44
-0.92
-0.48
-0.05
0.45
1.06
1.82
2.76
3.84
5.01
6.14
7.09
7.74
8.00
7.86
7.40
6.78
6.14
5.58
5.11
4.66
4.17
3.62
3.03
2.47
2.02
1.69
1.48
1.35
1.26
1.18
1.08
0.94
0.73
0.44
0.07
-0.36
-0.74
-0.95
-0.86
-0.44
0.22
0.92
1.39
1.48
1.18
0.66
0.19
-0.02
0.09
0.43
0.81
1.06
1.14
1.10
1.03
1.07
1.26
1.63
2.14
2.70
3.18
3.47
3.49
3.26
2.95
2.77
2.92
3.41
4.06
4.60
4.83
4.77
4.72
5.06
6.04
7.60
9.31
10.55
10.88
10.27
9.14
8.18
7.94
8.58
9.75
10.81
11.16
10.64
9.54
8.48
8.06
8.59
10.03
12.25
15.20
18.86
22.89
26.26
27.30
24.36
16.71
5.26
-7.60
-18.90
-26.36
-29.23
-28.38
-25.42
-21.80
-18.17
-14.52
-10.74
-7.03
-4.02
-2.32
-2.03
-2.57
-2.92
-2.16
0.20
3.89
7.83
10.45
10.13
5.81
-2.49
-13.44
-24.77
-34.03
-39.53
-40.87
-38.96
-35.36
-31.48
-28.05
-25.05
-22.09
-18.89
-15.62
-12.75
-10.87
-10.22
-10.66
-11.70
-12.68
-13.07
-12.63
-11.52
-10.17
-9.09
-8.64
-8.82
-9.44
-10.15
-10.78
-11.35
-12.08
-13.15
-14.54
-15.93
-16.91
-17.14
-16.56
-15.39
-13.94
-12.39
-10.66
-8.57
-6.08
-3.45
-1.24
0.02
0.07
-0.79
-1.81
-2.08
-0.95
1.70
5.42
9.48
13.18
16.13
18.29
19.90
21.16
22.16
22.85
23.05
22.67
21.72
20.37
18.81
17.26
15.86
14.67
13.74
13.03
12.49
12.06
11.68
11.31
10.95
10.62
10.27
9.81
9.13
8.22
7.17
6.20
5.54
5.32
5.43
5.55
5.32
4.50
3.10
1.39
-0.22
-1.43
-2.14
-2.48
-2.69
-2.95
-3.34
-3.81
-4.28
-4.68
-4.99
-5.21
-5.35
-5.40
-5.35
-5.21
-5.03
-4.93
-4.92
-5.00
-5.05
-4.94
-4.57
-3.96
-3.20
-2.47
-1.91
-1.59
-1.49
-1.53
-1.60
-1.66
-1.71
-1.81
-1.94
-2.05
-2.03
-1.84
-1.44
-0.91
-0.38
0.05
0.30
0.39
0.40
0.43
0.55
0.78
1.05
1.28
1.35
1.20
0.81
0.26
-0.34
-0.89
-1.27
-1.46
-1.44
-1.28
-1.04
-0.80
-0.62
-0.55
-0.60
-0.73
-0.91
-1.09
-1.23
-1.30
-1.29
-1.21
-1.07
-0.85
-0.53
-0.10
0.43
1.00
1.54
1.97
2.27
2.48
2.65
2.84
3.07
3.27
3.40
3.45
3.47
3.53
3.69
3.94
4.21
4.43
4.50
4.40
4.15
3.83
3.52
3.25
2.99
2.57
1.77
0.35
-1.82
-4.64
-7.79
-10.80
-13.24
-14.86
-15.69
-16.01
-16.21
-16.61
-17.25
-17.88
-17.99
-17.00
-14.49
-10.31
-4.55
2.42
9.91
16.89
22.17
24.68
23.92
20.26
14.96
9.72
6.05
4.69
5.32
6.90
8.23
8.55
7.80
6.49
5.25
4.44
3.99
3.54
2.68
1.25
-0.54
-2.28
-3.54
-4.16
-4.28
-4.24
-4.37
-4.80
-5.42
-5.90
-5.93
-5.36
-4.27
-2.99
-1.96
-1.54
-1.90
-2.89
-4.14
-5.17
-5.64
-5.42
-4.70
-3.76
-2.90
-2.26
-1.81
-1.49
-1.30
-1.33
-1.65
-2.25
-2.89
-3.26
-3.09
-2.34
-1.26
-0.26
0.27
0.16
-0.49
-1.40
-2.24
-2.81
-3.06
-3.05
-2.86
-2.55
-2.15
-1.65
-1.09
-0.50
0.06
0.53
0.85
1.00
1.03
0.98
0.91
0.88
0.83
0.69
0.34
-0.27
-1.09
-1.93
-2.52
-2.62
-2.13
-1.15
0.06
1.22
2.05
2.45
2.42
2.04
1.45
0.75
0.08
-0.42
-0.63
-0.50
-0.10
0.35
0.58
0.39
-0.25
-1.10
-1.83
-2.11
-1.83
-1.10
-0.21
0.54
0.97
1.10
1.04
0.92
0.81
0.71
0.58
0.43
0.29
0.26
0.40
0.68
1.03
1.34
1.49
1.43
1.16
0.73
0.23
-0.25
-0.65
-0.97
-1.20
-1.33
-1.35
-1.21
-0.89
-0.44
0.01
0.31
0.32
0.04
-0.40
-0.81
-0.99
-0.85
-0.44
0.07
0.47
0.62
0.52
0.26
-0.00
-0.16
-0.16
-0.05
0.09
0.23
0.36
0.55
0.85
1.24
1.61
1.78
1.60
1.04
0.27
-0.46
-0.88
-0.92
-0.68
-0.42
-0.37
-0.62
-1.10
-1.63
-2.09
-2.43
-2.67
-2.78
-2.62
-2.05
-0.97
0.47
1.94
3.03
3.45
3.15
2.33
1.29
0.31
-0.43
-0.88
-1.02
-0.88
-0.44
0.29
1.25
2.30
3.25
3.87
3.93
3.40
2.39
1.24
0.29
-0.25
-0.41
-0.43
-0.59
-1.05
-1.73
-2.45
-2.96
-3.15
-3.03
-2.71
-2.31
-1.91
-1.57
-1.32
-1.17
-1.10
-1.07
-1.04
-0.94
-0.79
-0.61
-0.46
-0.41
-0.53
-0.87
-1.41
-2.08
-2.71
-3.09
-3.13
-2.85
-2.45
-2.17
-2.20
-2.56
-3.13
-3.77
-4.41
-5.09
-5.90
-6.91
-8.10
-9.39
-10.71
-12.06
-13.42
-14.74
-15.79
-16.26
-15.81
-14.26
-11.70
-8.46
-4.98
-1.60
1.45
4.11
6.41
8.33
9.82
10.77
11.06
10.63
9.55
8.01
6.31
4.76
3.54
2.67
2.00
1.40
0.87
0.65
1.09
2.43
4.66
7.42
10.15
12.32
13.68
14.24
14.27
14.06
13.82
13.60
13.36
13.00
12.50
11.87
11.15
10.40
9.60
8.72
7.76
6.71
5.65
4.70
3.95
3.46
3.22
3.16
3.20
3.28
3.36
3.41
3.41
3.28
2.96
2.47
1.86
1.28
0.86
0.63
0.50
0.30
-0.15
-0.90
-1.83
-2.70
-3.25
-3.36
-3.07
-2.63
-2.36
-2.58
-3.42
-4.77
-6.35
-7.76
-8.69
-9.03
-8.95
-8.78
-8.99
-9.95
-11.87
-14.71
-18.10
-21.40
-23.81
-24.52
-23.03
-19.27
-13.70
-7.17
-0.63
5.11
9.64
12.96
15.35
17.18
18.68
19.87
20.61
20.69
20.00
18.61
16.69
14.46
12.05
9.49
6.75
3.91
1.20
-1.04
-2.47
-2.96
-2.66
-1.97
-1.34
-1.06
-1.13
-1.29
-1.17
-0.58
0.41
1.41
1.95
1.75
0.81
-0.52
-1.79
-2.71
-3.24
-3.54
-3.82
-4.12
-4.30
-4.18
-3.67
-2.91
-2.16
-1.68
-1.54
-1.63
-1.76
-1.81
-1.81
-1.91
-2.23
-2.77
-3.40
-3.97
-4.40
-4.78
-5.30
-6.15
-7.38
-8.87
-10.33
-11.38
-11.70
-11.13
-9.76
-7.88
-5.87
-4.04
-2.42
-0.79
1.24
3.92
7.20
10.66
13.70
15.83
16.84
16.92
16.47
15.85
15.26
14.63
13.88
12.99
12.12
11.48
11.19
11.11
10.85
9.93
8.06
5.32
2.20
-0.65
-2.63
-3.50
-3.38
-2.69
-1.84
-1.14
-0.62
-0.23
0.12
0.43
0.61
0.56
0.24
-0.28
-0.91
-1.54
-2.14
-2.77
-3.54
-4.52
-5.70
-6.96
-8.05
-8.73
-8.82
-8.33
-7.43
-6.42
-5.55
-4.96
-4.64
-4.50
-4.43
-4.38
-4.33
-4.29
-4.18
-3.87
-3.23
-2.19
-0.83
0.66
2.01
2.97
3.40
3.28
2.72
1.95
1.18
0.56
0.15
-0.13
-0.40
-0.73
-1.11
-1.46
-1.70
-1.82
-1.89
-2.03
-2.30
-2.67
-3.06
-3.42
-3.78
-4.20
-4.70
-5.20
-5.51
-5.47
-4.99
-4.19
-3.31
-2.58
-2.15
-1.98
-1.96
-1.93
-1.79
-1.54
-1.20
-0.83
-0.46
-0.11
0.21
0.46
0.61
0.61
0.44
0.08
-0.50
-1.36
-2.55
-4.10
-5.95
-7.91
-9.66
-10.83
-11.09
-10.27
-8.37
-5.58
-2.25
1.24
4.49
7.15
8.99
9.94
10.08
9.63
8.81
7.80
6.69
5.53
4.40
3.49
3.03
3.18
3.96
5.12
6.27
7.00
7.04
6.36
5.05
3.35
1.45
-0.42
-2.07
-3.24
-3.68
-3.22
-1.84
0.28
2.86
5.59
8.22
10.58
12.51
13.82
14.25
13.59
11.80
9.11
6.00
3.03
0.70
-0.75
-1.42
-1.64
-1.92
-2.64
-3.98
-5.79
-7.68
-9.14
-9.85
-9.73
-9.01
-8.14
-7.50
-7.28
-7.41
-7.60
-7.47
-6.61
-4.63
-1.25
3.55
9.31
14.96
18.90
19.62
16.33
9.60
1.33
-5.93
-10.12
-10.67
-8.70
-6.44
-5.98
-8.23
-12.51
-17.08
-20.11
-20.61
-18.65
-15.06
-10.78
-6.32
-1.82
2.70
6.88
10.03
11.39
10.53
7.69
3.75
-0.14
-3.04
-4.46
-4.52
-3.78
-2.94
-2.58
-2.95
-3.88
-4.91
-5.50
-5.23
-4.01
-2.10
0.06
2.03
3.61
4.80
5.79
6.69
7.50
8.07
8.18
7.70
6.67
5.27
3.77
2.42
1.37
0.65
0.18
-0.13
-0.38
-0.60
-0.80
-0.96
-1.06
-1.09
-1.08
-1.06
-1.05
-1.09
-1.20
-1.36
-1.59
-1.89
-2.25
-2.67
-3.06
-3.30
-3.27
-2.96
-2.47
-2.00
-1.74
-1.83
-2.22
-2.77
-3.28
-3.61
-3.74
-3.79
-3.93
-4.35
-5.20
-6.51
-8.16
-9.89
-11.27
-11.76
-10.89
-8.43
-4.61
-0.02
4.46
8.07
10.40
11.50
11.76
11.63
11.37
10.98
10.27
9.08
7.40
5.43
3.50
1.90
0.78
0.15
-0.11
-0.16
-0.13
-0.04
0.16
0.57
1.22
2.07
2.98
3.75
4.24
4.40
4.27
3.96
3.59
3.22
2.88
2.54
2.18
1.78
1.35
0.98
0.74
0.65
0.67
0.68
0.52
0.14
-0.45
-1.09
-1.57
-1.72
-1.52
-1.08
-0.56
-0.16
0.03
0.04
-0.04
-0.11
-0.14
-0.16
-0.27
-0.52
-0.90
-1.30
-1.58
-1.63
-1.44
-1.09
-0.72
-0.43
-0.26
-0.16
-0.05
0.13
0.35
0.56
0.69
0.76
0.80
0.84
0.91
0.96
0.92
0.73
0.37
-0.10
-0.63
-1.12
-1.53
-1.81
-2.01
-2.18
-2.37
-2.59
-2.72
-2.58
-2.05
-1.10
0.09
1.24
2.05
2.36
2.15
1.56
0.76
-0.10
-0.90
-1.53
-1.91
-1.96
-1.65
-1.04
-0.31
0.35
0.80
0.96
0.84
0.53
0.12
-0.32
-0.77
-1.19
-1.55
-1.81
-1.87
-1.70
-1.26
-0.67
-0.10
0.25
0.27
-0.04
-0.51
-0.91
-1.05
-0.84
-0.33
0.33
0.98
1.51
1.88
2.07
2.09
1.95
1.65
1.23
0.79
0.41
0.18
0.13
0.19
0.30
0.34
0.27
0.13
0.00
-0.05
-0.01
0.06
0.01
-0.22
-0.61
-1.02
-1.27
-1.26
-1.04
-0.75
-0.57
-0.60
-0.78
-0.97
-1.04
-0.94
-0.69
-0.34
0.07
0.52
0.98
1.39
1.65
1.68
1.47
1.07
0.60
0.15
-0.25
-0.57
-0.77
-0.79
-0.56
-0.11
0.44
0.87
0.99
0.72
0.17
-0.42
-0.84
-0.96
-0.86
-0.70
-0.63
-0.68
-0.76
-0.77
-0.68
-0.60
-0.71
-1.09
-1.66
-2.15
-2.29
-1.93
-1.16
-0.22
0.62
1.24
1.65
1.94
2.18
2.32
2.26
1.94
1.44
0.92
0.59
0.57
0.82
1.20
1.50
1.61
1.54
1.41
1.35
1.40
1.47
1.41
1.09
0.57
0.02
-0.31
-0.28
0.05
0.43
0.57
0.32
-0.23
-0.77
-0.91
-0.40
0.78
2.39
3.96
5.03
5.29
4.70
3.57
2.43
1.88
2.27
3.48
4.89
5.59
4.74
2.05
-2.09
-6.66
-10.41
-12.39
-12.30
-10.60
-8.26
-6.35
-5.55
-5.88
-6.69
-7.05
-6.17
-3.88
-0.76
2.15
3.87
4.14
3.59
3.47
4.98
8.46
13.14
17.31
19.04
16.94
10.61
0.78
-10.75
-21.18
-27.01
-24.82
-12.78
7.76
31.47
50.29
56.45
46.30
22.67
-5.69
-27.62
-34.31
-22.74
3.80
37.89
71.27
97.13
110.96
110.49
95.96
70.66
40.87
14.35
-2.67
-8.24
-5.57
-1.07
-0.75
-7.07
-18.32
-30.40
-39.69
-45.01
-47.40
-48.51
-48.95
-47.89
-44.01
-36.96
-27.96
-19.44
-13.77
-12.13
-14.02
-17.64
-20.68
-21.43
-19.35
-15.23
-10.69
-7.41
-6.39
-7.52
-9.75
-11.66
-12.12
-10.77
-8.08
-5.08
-2.79
-1.80
-2.10
-3.14
-4.19
-4.67
-4.39
-3.50
-2.41
-1.51
-1.04
-1.02
-1.30
-1.64
-1.88
-1.94
-1.88
-1.76
-1.68
-1.62
-1.56
-1.48
-1.37
-1.30
-1.30
-1.38
-1.48
-1.49
-1.39
-1.23
-1.14
-1.21
-1.41
-1.57
-1.46
-0.90
0.09
1.28
2.34
2.94
2.94
2.38
1.45
0.38
-0.64
-1.47
-2.00
-2.18
-2.01
-1.56
-1.01
-0.55
-0.36
-0.50
-0.94
-1.52
-2.11
-2.59
-2.91
-3.06
-3.05
-2.89
-2.58
-2.09
-1.47
-0.77
-0.11
0.42
0.73
0.84
0.78
0.65
0.49
0.32
0.17
0.04
-0.02
-0.01
0.06
0.11
0.05
-0.21
-0.64
-1.10
-1.40
-1.37
-0.98
-0.39
0.05
-0.03
-0.93
-2.71
-5.13
-7.70
-9.79
-10.82
-10.41
-8.51
-5.36
-1.47
2.50
5.91
8.30
9.44
9.46
8.72
7.74
6.94
6.54
6.47
6.46
6.17
5.41
4.20
2.77
1.48
0.61
0.31
0.46
0.84
1.17
1.31
1.28
1.27
1.53
2.18
3.14
4.16
4.87
5.01
4.50
3.49
2.23
1.01
-0.00
-0.80
-1.45
-2.06
-2.68
-3.29
-3.81
-4.20
-4.44
-4.57
-4.66
-4.71
-4.69
-4.54
-4.22
-3.81
-3.45
-3.32
-3.54
-4.10
-4.86
-5.62
-6.16
-6.39
-6.34
-6.11
-5.84
-5.55
-5.15
-4.45
-3.28
-1.64
0.27
2.12
3.52
4.28
4.40
4.09
3.64
3.26
2.99
2.79
2.54
2.21
1.79
1.34
0.88
0.43
-0.01
-0.40
-0.68
-0.81
-0.81
-0.71
-0.59
-0.50
-0.46
-0.44
-0.40
-0.33
-0.24
-0.16
-0.10
-0.04
0.02
0.06
0.01
-0.22
-0.69
-1.37
-2.15
-2.86
-3.34
-3.56
-3.56
-3.48
-3.43
-3.52
-3.74
-4.04
-4.30
-4.38
-4.17
-3.65
-2.87
-1.95
-1.07
-0.36
0.12
0.34
0.39
0.40
0.59
1.21
2.47
4.43
6.92
9.56
11.87
13.44
14.05
13.71
12.60
10.96
8.99
6.88
4.78
2.91
1.42
0.45
0.01
0.03
0.36
0.84
1.33
1.71
1.91
1.92
1.76
1.47
1.09
0.62
0.05
-0.66
-1.49
-2.37
-3.18
-3.76
-3.97
-3.79
-3.27
-2.58
-1.90
-1.36
-1.04
-0.96
-1.09
-1.38
-1.76
-2.13
-2.39
-2.45
-2.28
-1.93
-1.54
-1.22
-1.04
-0.98
-0.92
-0.73
-0.36
0.15
0.68
1.08
1.27
1.21
0.95
0.56
0.15
-0.14
-0.16
0.21
0.97
1.96
2.87
3.32
3.07
2.15
0.85
-0.39
-1.17
-1.31
-0.92
-0.30
0.28
0.65
0.75
0.59
0.15
-0.64
-1.77
-3.09
-4.24
-4.73
-4.15
-2.37
0.40
3.64
6.79
9.37
11.16
12.14
12.40
12.01
11.05
9.59
7.81
5.95
4.24
2.84
1.77
0.94
0.22
-0.46
-1.10
-1.61
-1.88
-1.81
-1.35
-0.58
0.36
1.24
1.83
1.96
1.56
0.69
-0.49
-1.81
-3.09
-4.20
-5.01
-5.37
-5.22
-4.55
-3.52
-2.37
-1.41
-0.77
-0.46
-0.31
-0.12
0.23
0.73
1.19
1.43
1.34
0.96
0.44
-0.00
-0.24
-0.26
-0.15
-0.04
-0.08
-0.32
-0.70
-1.08
-1.28
-1.18
-0.78
-0.19
0.43
0.94
1.27
1.39
1.33
1.08
0.60
-0.12
-1.07
-2.17
-3.32
-4.38
-5.24
-5.80
-5.99
-5.80
-5.25
-4.46
-3.63
-2.94
-2.55
-2.48
-2.62
-2.78
-2.76
-2.42
-1.74
-0.83
0.09
0.81
1.19
1.19
0.92
0.57
0.35
0.35
0.54
0.75
0.74
0.35
-0.44
-1.49
-2.58
-3.50
-4.18
-4.69
-5.16
-5.65
-6.10
-6.33
-6.18
-5.59
-4.58
-3.29
-1.82
-0.27
1.32
2.87
4.25
5.33
6.02
6.31
6.34
6.26
6.19
6.16
6.07
5.83
5.38
4.77
4.10
3.53
3.13
2.88
2.69
2.40
1.89
1.12
0.14
-0.91
-1.86
-2.57
-3.01
-3.23
-3.33
-3.34
-3.25
-2.99
-2.57
-2.06
-1.63
-1.44
-1.53
-1.85
-2.25
-2.58
-2.76
-2.82
-2.79
-2.69
-2.53
-2.30
-2.09
-2.01
-2.19
-2.66
-3.41
-4.31
-5.18
-5.69
-5.53
-4.44
-2.50
-0.12
2.02
3.26
3.35
2.48
1.23
0.25
-0.11
0.13
0.64
1.14
1.50
1.85
2.36
3.10
3.94
4.67
5.08
5.06
4.63
3.84
2.80
1.64
0.47
-0.57
-1.36
-1.83
-1.92
-1.62
-0.97
-0.06
0.95
1.80
2.19
1.94
1.03
-0.30
-1.68
-2.64
-2.90
-2.35
-1.15
0.31
1.51
1.96
1.37
-0.23
-2.45
-4.65
-6.17
-6.55
-5.72
-3.98
-1.83
0.26
1.97
3.20
4.00
4.41
4.46
4.11
3.40
2.48
1.64
1.15
1.18
1.69
2.43
3.06
3.30
3.06
2.48
1.81
1.28
0.99
0.94
1.03
1.19
1.36
1.53
1.70
1.84
1.94
1.98
1.96
1.91
1.83
1.72
1.56
1.36
1.19
1.19
1.50
2.18
3.13
4.08
4.69
4.70
4.06
2.99
1.93
1.34
1.52
2.43
3.68
4.66
4.78
3.76
1.78
-0.59
-2.61
-3.74
-3.90
-3.51
-3.21
-3.59
-4.88
-6.84
-9.09
-11.26
-13.01
-13.77
-12.62
-8.62
-1.59
7.34
15.74
20.91
21.23
17.00
10.32
3.91
-0.35
-2.20
-2.80
-3.62
-5.42
-7.77
-9.50
-9.57
-7.79
-4.84
-1.88
0.09
0.64
-0.07
-1.36
-2.48
-2.92
-2.59
-1.78
-0.91
-0.35
-0.14
-0.08
0.12
0.65
1.44
2.15
2.39
1.95
0.98
-0.05
-0.56
-0.21
0.85
2.03
2.64
2.38
1.64
1.40
2.82
6.51
12.18
18.55
23.70
25.67
23.01
15.26
3.09
-11.60
-26.07
-37.27
-42.77
-41.64
-34.91
-25.41
-16.74
-11.88
-11.98
-15.96
-21.02
-24.01
-22.72
-16.78
-7.61
2.34
10.67
15.90
17.83
17.29
15.50
13.51
11.86
10.51
9.24
7.94
6.85
6.45
7.22
9.27
12.29
15.67
18.90
21.83
24.66
27.53
30.19
31.86
31.46
28.22
22.33
14.98
8.08
3.46
2.02
3.34
5.92
7.85
7.59
4.52
-1.10
-8.40
-16.35
-24.12
-31.14
-37.11
-42.12
-46.64
-51.36
-56.83
-62.93
-68.52
-71.64
-70.30
-63.47
-51.82
-37.73
-24.35
-14.39
-9.14
-8.23
-10.07
-12.68
-14.31
-13.93
-11.31
-7.09
-2.48
1.26
3.53
4.83
6.57
10.21
16.26
23.78
30.68
34.90
35.52
33.20
29.66
26.58
24.67
23.50
22.11
19.82
16.70
13.45
10.86
9.31
8.62
8.22
7.46
5.94
3.66
1.00
-1.33
-2.68
-2.64
-1.39
0.40
1.85
2.23
1.35
-0.33
-1.97
-2.75
-2.19
-0.36
2.29
5.15
7.76
9.84
11.40
12.56
13.54
14.58
15.82
17.29
18.86
20.27
21.26
21.74
21.79
21.58
21.31
21.06
20.85
20.70
20.66
20.79
21.05
21.28
21.31
21.04
20.55
19.99
19.41
18.57
16.98
14.13
9.78
4.15
-2.07
-8.03
-13.02
-16.67
-19.00
-20.28
-20.89
-21.20
-21.48
-21.91
-22.51
-23.11
-23.46
-23.27
-22.40
-20.84
-18.71
-16.17
-13.29
-10.08
-6.56
-2.85
0.76
3.93
6.36
7.93
8.69
8.77
8.29
7.33
5.93
4.18
2.28
0.47
-1.02
-2.09
-2.74
-3.06
-3.19
-3.19
-3.16
-3.13
-3.15
-3.22
-3.29
-3.28
-3.09
-2.68
-2.02
-1.17
-0.22
0.70
1.52
2.17
2.60
2.79
2.68
2.27
1.56
0.60
-0.52
-1.69
-2.79
-3.74
-4.46
-4.91
-5.08
-5.03
-4.85
-4.65
-4.49
-4.37
-4.20
-3.91
-3.43
-2.81
-2.15
-1.55
-1.09
-0.75
-0.50
-0.29
-0.12
0.01
0.07
0.07
0.07
0.11
0.21
0.35
0.48
0.52
0.47
0.33
0.14
-0.04
-0.17
-0.20
-0.13
0.05
0.33
0.72
1.17
1.60
1.91
1.96
1.69
1.12
0.37
-0.38
-0.96
-1.27
-1.31
-1.17
-0.97
-0.80
-0.72
-0.72
-0.78
-0.87
-0.98
-1.12
-1.29
-1.47
-1.61
-1.68
-1.65
-1.55
-1.44
-1.35
-1.32
-1.32
-1.31
-1.23
-1.04
-0.73
-0.30
0.22
0.79
1.36
1.90
2.35
2.68
2.84
2.81
2.58
2.20
1.78
1.44
1.30
1.39
1.62
1.80
1.75
1.39
0.80
0.18
-0.25
-0.37
-0.25
-0.06
-0.01
-0.17
-0.48
-0.79
-0.98
-1.07
-1.16
-1.40
-1.84
-2.37
-2.81
-2.97
-2.79
-2.32
-1.70
-1.05
-0.47
0.01
0.38
0.64
0.81
0.93
1.05
1.24
1.52
1.86
2.17
2.34
2.29
2.03
1.63
1.23
0.95
0.86
0.94
1.11
1.30
1.44
1.54
1.60
1.60
1.52
1.32
1.03
0.71
0.48
0.39
0.44
0.52
0.51
0.32
-0.05
-0.55
-1.07
-1.50
-1.78
-1.90
-1.91
-1.87
-1.85
-1.86
-1.87
-1.83
-1.67
-1.40
-1.06
-0.74
-0.49
-0.34
-0.22
-0.05
0.21
0.56
0.90
1.15
1.26
1.29
1.32
1.44
1.68
1.96
2.18
2.27
2.18
1.94
1.63
1.28
0.95
0.67
0.46
0.34
0.31
0.33
0.37
0.36
0.22
-0.08
-0.54
-1.11
-1.64
-1.94
-1.90
-1.51
-0.93
-0.43
-0.20
-0.25
-0.43
-0.53
-0.37
0.03
0.52
0.93
1.17
1.28
1.36
1.47
1.59
1.59
1.38
0.95
0.41
-0.04
-0.22
-0.07
0.31
0.74
1.02
1.07
0.89
0.58
0.26
-0.04
-0.31
-0.58
-0.86
-1.11
-1.27
-1.31
-1.27
-1.18
-1.07
-0.93
-0.72
-0.44
-0.18
-0.05
-0.17
-0.51
-0.89
-1.07
-0.89
-0.39
0.25
0.76
0.99
0.94
0.74
0.54
0.39
0.26
0.09
-0.11
-0.27
-0.28
-0.08
0.26
0.57
0.70
0.54
0.15
-0.37
-0.87
-1.28
-1.55
-1.69
-1.74
-1.68
-1.53
-1.31
-1.06
-0.81
-0.59
-0.39
-0.20
0.01
0.26
0.55
0.85
1.09
1.22
1.20
1.09
0.96
0.90
0.96
1.08
1.16
1.08
0.81
0.43
0.09
-0.05
0.01
0.20
0.38
0.46
0.39
0.20
-0.06
-0.35
-0.63
-0.85
-0.95
-0.85
-0.57
-0.17
0.23
0.53
0.68
0.74
0.77
0.82
0.87
0.89
0.86
0.84
0.90
1.09
1.37
1.63
1.76
1.71
1.48
1.18
0.89
0.68
0.60
0.67
0.89
1.21
1.55
1.77
1.80
1.62
1.32
1.04
0.89
0.89
0.96
0.98
0.84
0.52
0.08
-0.36
-0.69
-0.84
-0.84
-0.78
-0.73
-0.73
-0.78
-0.81
-0.79
-0.74
-0.73
-0.86
-1.20
-1.71
-2.25
-2.68
-2.85
-2.73
-2.36
-1.85
-1.32
-0.85
-0.50
-0.24
-0.05
0.09
0.18
0.20
0.16
0.12
0.17
0.42
0.90
1.53
2.15
2.56
2.63
2.37
1.85
1.24
0.65
0.16
-0.24
-0.58
-0.86
-1.08
-1.19
-1.12
-0.85
-0.41
0.12
0.61
0.95
1.09
1.04
0.84
0.58
0.28
-0.04
-0.40
-0.75
-1.00
-1.07
-0.93
-0.67
-0.45
-0.41
-0.60
-0.95
-1.29
-1.45
-1.35
-1.03
-0.58
-0.13
0.27
0.59
0.87
1.09
1.23
1.28
1.24
1.16
1.07
1.02
0.99
0.97
0.95
0.92
0.91
0.91
0.91
0.86
0.73
0.50
0.22
-0.04
-0.25
-0.41
-0.57
-0.75
-0.98
-1.23
-1.44
-1.57
-1.61
-1.59
-1.56
-1.56
-1.61
-1.65
-1.61
-1.40
-1.03
-0.56
-0.12
0.19
0.32
0.31
0.26
0.26
0.36
0.52
0.68
0.82
0.95
1.09
1.24
1.36
1.36
1.19
0.87
0.50
0.19
0.01
-0.10
-0.22
-0.40
-0.64
-0.85
-0.92
-0.81
-0.58
-0.33
-0.16
-0.11
-0.15
-0.24
-0.34
-0.43
-0.52
-0.57
-0.56
-0.48
-0.34
-0.16
0.02
0.18
0.35
0.57
0.83
1.10
1.33
1.42
1.36
1.15
0.82
0.46
0.15
-0.06
-0.15
-0.14
-0.06
0.04
0.14
0.25
0.40
0.57
0.71
0.79
0.74
0.58
0.31
-0.01
-0.34
-0.68
-1.00
-1.30
-1.54
-1.68
-1.70
-1.57
-1.36
-1.14
-0.97
-0.86
-0.77
-0.60
-0.30
0.13
0.60
1.01
1.30
1.47
1.57
1.62
1.62
1.48
1.17
0.71
0.19
-0.25
-0.50
-0.53
-0.37
-0.11
0.18
0.44
0.64
0.75
0.80
0.79
0.76
0.71
0.63
0.48
0.24
-0.07
-0.42
-0.74
-0.96
-1.05
-1.02
-0.92
-0.80
-0.72
-0.72
-0.81
-0.98
-1.20
-1.42
-1.57
-1.57
-1.36
-0.95
-0.42
0.07
0.40
0.49
0.42
0.34
0.39
0.64
1.05
1.47
1.77
1.88
1.84
1.75
1.69
1.70
1.76
1.80
1.74
1.53
1.17
0.72
0.30
0.03
-0.04
0.10
0.32
0.46
0.41
0.11
-0.35
-0.84
-1.21
-1.40
-1.45
-1.45
-1.51
-1.67
-1.90
-2.12
-2.23
-2.19
-2.03
-1.83
-1.67
-1.56
-1.43
-1.15
-0.63
0.11
0.92
1.56
1.84
1.71
1.31
0.86
0.62
0.67
0.94
1.24
1.42
1.42
1.30
1.17
1.11
1.09
1.05
0.96
0.80
0.62
0.44
0.23
-0.07
-0.46
-0.86
-1.14
-1.15
-0.88
-0.43
0.02
0.28
0.26
0.01
-0.37
-0.73
-1.02
-1.23
-1.42
-1.63
-1.85
-2.03
-2.08
-1.98
-1.73
-1.42
-1.13
-0.87
-0.64
-0.36
0.01
0.47
0.89
1.16
1.20
1.04
0.80
0.62
0.59
0.68
0.80
0.81
0.68
0.48
0.32
0.34
0.56
0.94
1.34
1.62
1.72
1.61
1.33
0.96
0.57
0.24
-0.02
-0.20
-0.36
-0.55
-0.84
-1.22
-1.61
-1.89
-1.97
-1.79
-1.42
-0.99
-0.64
-0.47
-0.50
-0.63
-0.75
-0.74
-0.58
-0.29
0.06
0.39
0.67
0.91
1.10
1.23
1.28
1.22
1.08
0.87
0.65
0.44
0.26
0.09
-0.08
-0.22
-0.32
-0.33
-0.26
-0.15
-0.07
-0.06
-0.16
-0.35
-0.56
-0.75
-0.89
-1.02
-1.20
-1.45
-1.76
-2.05
-2.20
-2.15
-1.89
-1.53
-1.17
-0.88
-0.67
-0.48
-0.30
-0.15
-0.07
-0.10
-0.19
-0.23
-0.10
0.26
0.76
1.21
1.45
1.42
1.19
0.92
0.75
0.69
0.69
0.64
0.48
0.23
-0.02
-0.21
-0.30
-0.35
-0.40
-0.52
-0.71
-0.95
-1.19
-1.38
-1.46
-1.40
-1.23
-1.01
-0.83
-0.73
-0.67
-0.55
-0.29
0.12
0.60
1.03
1.29
1.34
1.24
1.07
0.93
0.85
0.83
0.85
0.90
0.97
1.04
1.07
1.02
0.89
0.72
0.57
0.50
0.53
0.64
0.78
0.91
1.00
1.03
0.97
0.78
0.42
-0.10
-0.72
-1.32
-1.77
-1.99
-1.98
-1.81
-1.57
-1.36
-1.19
-1.07
-0.97
-0.91
-0.91
-0.98
-1.11
-1.23
-1.24
-1.05
-0.65
-0.11
0.44
0.84
1.00
0.90
0.59
0.15
-0.35
-0.85
-1.32
-1.74
-2.08
-2.30
-2.41
-2.44
-2.45
-2.48
-2.52
-2.52
-2.42
-2.14
-1.67
-1.04
-0.36
0.27
0.72
0.90
0.81
0.47
-0.00
-0.49
-0.88
-1.08
-1.02
-0.73
-0.24
0.38
1.05
1.68
2.20
2.55
2.72
2.71
2.59
2.44
2.34
2.38
2.57
2.85
3.14
3.34
3.40
3.33
3.22
3.14
3.10
2.98
2.65
1.97
1.00
-0.06
-0.93
-1.36
-1.30
-0.84
-0.24
0.30
0.65
0.83
0.90
0.94
0.95
0.94
0.93
0.95
1.09
1.39
1.82
2.30
2.73
3.04
3.20
3.25
3.24
3.21
3.21
3.25
3.34
3.50
3.71
3.96
4.19
4.33
4.32
4.15
3.85
3.49
3.18
2.98
2.85
2.68
2.31
1.60
0.55
-0.75
-2.11
-3.35
-4.36
-5.14
-5.75
-6.24
-6.63
-6.89
-6.97
-6.84
-6.55
-6.16
-5.78
-5.46
-5.21
-4.99
-4.71
-4.30
-3.76
-3.14
-2.52
-1.98
-1.57
-1.28
-1.11
-1.03
-1.04
-1.11
-1.20
-1.21
-1.09
-0.82
-0.46
-0.16
-0.04
-0.21
-0.65
-1.25
-1.83
-2.24
-2.37
-2.20
-1.80
-1.29
-0.80
-0.42
-0.23
-0.21
-0.31
-0.44
-0.49
-0.37
-0.05
0.42
0.95
1.43
1.74
1.86
1.80
1.59
1.32
1.04
0.79
0.60
0.51
0.49
0.49
0.43
0.26
-0.02
-0.34
-0.60
-0.72
-0.72
-0.65
-0.59
-0.55
-0.50
-0.36
-0.11
0.17
0.33
0.26
-0.06
-0.50
-0.84
-0.91
-0.65
-0.18
0.32
0.69
0.86
0.88
0.82
0.75
0.69
0.63
0.58
0.60
0.74
1.00
1.33
1.60
1.70
1.56
1.23
0.80
0.37
-0.00
-0.31
-0.61
-0.93
-1.29
-1.67
-1.99
-2.20
-2.27
-2.20
-2.04
-1.80
-1.54
-1.25
-0.95
-0.69
-0.47
-0.29
-0.07
0.26
0.72
1.27
1.79
2.15
2.26
2.17
1.98
1.83
1.82
1.96
2.19
2.44
2.67
2.83
2.90
2.85
2.66
2.35
1.96
1.59
1.31
1.18
1.16
1.21
1.24
1.15
0.93
0.60
0.24
-0.06
-0.17
-0.08
0.23
0.64
1.04
1.29
1.28
0.98
0.42
-0.27
-0.95
-1.46
-1.74
-1.81
-1.75
-1.70
-1.75
-1.95
-2.28
-2.65
-2.99
-3.24
-3.36
-3.33
-3.12
-2.73
-2.17
-1.49
-0.81
-0.24
0.14
0.30
0.34
0.37
0.55
0.91
1.39
1.83
2.06
2.04
1.80
1.48
1.23
1.13
1.14
1.19
1.18
1.09
0.95
0.83
0.76
0.72
0.65
0.53
0.36
0.22
0.16
0.21
0.33
0.46
0.51
0.43
0.23
-0.03
-0.32
-0.60
-0.87
-1.18
-1.49
-1.80
-2.00
-1.99
-1.73
-1.26
-0.69
-0.20
0.10
0.17
0.08
-0.08
-0.18
-0.16
-0.01
0.25
0.55
0.83
1.00
1.00
0.84
0.55
0.26
0.07
0.04
0.19
0.47
0.83
1.24
1.67
2.07
2.35
2.41
2.20
1.78
1.25
0.79
0.47
0.29
0.14
-0.09
-0.41
-0.76
-1.00
-1.05
-0.95
-0.80
-0.78
-0.94
-1.25
-1.58
-1.80
-1.89
-1.87
-1.83
-1.78
-1.67
-1.45
-1.09
-0.65
-0.25
-0.00
0.06
0.00
-0.06
-0.03
0.14
0.42
0.72
1.00
1.22
1.38
1.49
1.57
1.65
1.72
1.80
1.84
1.80
1.66
1.45
1.21
1.03
0.98
1.06
1.26
1.47
1.60
1.55
1.31
0.88
0.33
-0.21
-0.62
-0.80
-0.73
-0.51
-0.32
-0.30
-0.52
-0.95
-1.48
-1.96
-2.30
-2.48
-2.51
-2.41
-2.20
-1.86
-1.39
-0.82
-0.21
0.36
0.82
1.11
1.21
1.16
1.04
0.95
0.96
1.08
1.28
1.47
1.60
1.61
1.50
1.29
1.01
0.72
0.46
0.32
0.32
0.45
0.61
0.73
0.74
0.65
0.53
0.43
0.37
0.29
0.13
-0.14
-0.51
-0.88
-1.20
-1.40
-1.52
-1.58
-1.66
-1.80
-1.99
-2.18
-2.27
-2.18
-1.88
-1.42
-0.91
-0.49
-0.20
-0.03
0.11
0.27
0.45
0.57
0.54
0.36
0.11
-0.06
-0.05
0.14
0.42
0.65
0.77
0.81
0.85
0.91
0.96
0.93
0.75
0.49
0.27
0.21
0.33
0.54
0.64
0.48
0.03
-0.61
-1.23
-1.66
-1.88
-2.03
-2.28
-2.74
-3.38
-4.01
-4.45
-4.60
-4.53
-4.37
-4.29
-4.31
-4.33
-4.18
-3.77
-3.16
-2.52
-2.05
-1.86
-1.89
-2.02
-2.09
-2.03
-1.85
-1.62
-1.41
-1.21
-0.95
-0.54
0.07
0.89
1.85
2.82
3.68
4.35
4.80
5.05
5.13
5.12
5.04
4.93
4.78
4.58
4.29
3.94
3.53
3.12
2.72
2.35
1.99
1.63
1.28
1.01
0.89
0.98
1.23
1.54
1.77
1.83
1.72
1.54
1.41
1.42
1.60
1.90
2.26
2.61
2.87
2.98
2.90
2.63
2.26
1.93
1.76
1.81
2.03
2.30
2.48
2.49
2.32
2.02
1.63
1.23
0.84
0.54
0.40
0.48
0.80
1.27
1.74
2.06
2.10
1.85
1.41
0.90
0.44
0.09
-0.16
-0.37
-0.62
-0.99
-1.59
-2.52
-3.85
-5.56
-7.57
-9.62
-11.39
-12.55
-12.95
-12.62
-11.80
-10.83
-10.01
-9.46
-9.16
-9.01
-8.93
-8.96
-9.15
-9.47
-9.80
-9.89
-9.53
-8.63
-7.30
-5.75
-4.19
-2.77
-1.53
-0.44
0.50
1.27
1.85
2.25
2.57
2.95
3.50
4.22
5.02
5.69
6.06
6.00
5.52
4.76
3.93
3.23
2.81
2.67
2.76
3.00
3.29
3.56
3.79
3.97
4.11
4.24
4.37
4.51
4.66
4.80
4.89
4.92
4.90
4.83
4.75
4.67
4.58
4.47
4.32
4.12
3.91
3.72
3.62
3.58
3.57
3.49
3.24
2.76
2.06
1.25
0.50
-0.00
-0.21
-0.18
-0.06
-0.02
-0.12
-0.28
-0.38
-0.31
-0.10
0.11
0.09
-0.26
-0.91
-1.67
-2.26
-2.52
-2.44
-2.10
-1.65
-1.21
-0.86
-0.63
-0.54
-0.62
-0.81
-1.08
-1.32
-1.45
-1.43
-1.20
-0.77
-0.18
0.53
1.24
1.82
2.14
2.12
1.81
1.34
0.87
0.53
0.35
0.27
0.24
0.21
0.18
0.12
0.03
-0.15
-0.47
-0.93
-1.46
-1.90
-2.10
-1.99
-1.64
-1.26
-1.02
-1.03
-1.23
-1.43
-1.47
-1.26
-0.89
-0.51
-0.24
-0.09
0.02
0.19
0.43
0.66
0.74
0.60
0.31
0.04
-0.04
0.16
0.58
1.04
1.34
1.37
1.14
0.83
0.62
0.64
0.94
1.43
1.95
2.36
2.59
2.63
2.49
2.19
1.71
1.07
0.30
-0.46
-1.06
-1.36
-1.32
-1.03
-0.67
-0.45
-0.51
-0.83
-1.28
-1.65
-1.82
-1.74
-1.50
-1.27
-1.14
-1.14
-1.20
-1.22
-1.12
-0.90
-0.60
-0.28
0.06
0.42
0.82
1.24
1.62
1.87
1.94
1.79
1.48
1.11
0.75
0.48
0.28
0.15
0.09
0.09
0.17
0.31
0.44
0.47
0.35
0.05
-0.34
-0.71
-0.96
-1.08
-1.10
-1.12
-1.21
-1.36
-1.50
-1.55
-1.48
-1.33
-1.22
-1.24
-1.41
-1.65
-1.77
-1.65
-1.25
-0.71
-0.22
0.07
0.10
-0.00
-0.09
-0.01
0.22
0.55
0.87
1.12
1.33
1.54
1.75
1.92
1.98
1.89
1.72
1.57
1.50
1.52
1.56
1.53
1.37
1.10
0.78
0.47
0.19
-0.04
-0.24
-0.39
-0.47
-0.46
-0.40
-0.32
-0.28
-0.30
-0.40
-0.61
-0.94
-1.38
-1.89
-2.34
-2.61
-2.61
-2.32
-1.82
-1.24
-0.68
-0.24
0.04
0.17
0.19
0.14
0.13
0.23
0.48
0.88
1.32
1.68
1.84
1.76
1.48
1.11
0.81
0.67
0.73
0.97
1.26
1.52
1.63
1.54
1.28
0.92
0.55
0.27
0.12
0.10
0.16
0.23
0.29
0.31
0.28
0.15
-0.12
-0.61
-1.30
-2.08
-2.76
-3.18
-3.25
-3.00
-2.55
-2.01
-1.51
-1.07
-0.69
-0.36
-0.11
0.06
0.15
0.21
0.28
0.39
0.55
0.70
0.84
0.94
1.06
1.18
1.29
1.29
1.08
0.63
-0.03
-0.73
-1.29
-1.54
-1.43
-1.03
-0.51
-0.03
0.29
0.40
0.31
0.10
-0.20
-0.55
-0.95
-1.37
-1.78
-2.10
-2.29
-2.33
-2.26
-2.15
-2.02
-1.88
-1.71
-1.46
-1.15
-0.82
-0.50
-0.24
-0.07
0.01
0.00
-0.10
-0.26
-0.40
-0.43
-0.28
0.06
0.48
0.86
1.07
1.08
0.94
0.78
0.69
0.70
0.76
0.81
0.78
0.69
0.55
0.36
0.06
-0.41
-1.10
-1.95
-2.79
-3.44
-3.71
-3.54
-2.99
-2.21
-1.39
-0.69
-0.19
0.12
0.28
0.39
0.50
0.67
0.91
1.23
1.60
2.03
2.47
2.87
3.16
3.29
3.27
3.16
3.04
2.97
2.93
2.82
2.56
2.15
1.71
1.45
1.52
1.93
2.56
3.18
3.60
3.73
3.62
3.35
3.02
2.66
2.28
1.87
1.44
1.03
0.68
0.38
0.11
-0.13
-0.35
-0.54
-0.66
-0.72
-0.73
-0.70
-0.65
-0.65
-0.74
-1.00
-1.43
-1.98
-2.51
-2.87
-2.96
-2.86
-2.74
-2.84
-3.30
-4.08
-5.00
-5.79
-6.28
-6.50
-6.60
-6.79
-7.15
-7.64
-8.04
-8.20
-8.09
-7.84
-7.60
-7.43
-7.17
-6.56
-5.36
-3.56
-1.45
0.53
1.98
2.72
2.87
2.68
2.46
2.43
2.64
3.04
3.54
4.06
4.49
4.75
4.81
4.67
4.39
4.04
3.67
3.29
2.88
2.44
1.97
1.48
0.95
0.36
-0.26
-0.84
-1.27
-1.42
-1.20
-0.64
0.17
1.09
1.96
2.70
3.23
3.49
3.45
3.17
2.78
2.49
2.46
2.76
3.31
3.88
4.26
4.31
4.07
3.73
3.52
3.63
4.12
4.92
5.86
6.76
7.39
7.56
7.16
6.15
4.68
2.99
1.38
0.06
-0.89
-1.52
-1.96
-2.28
-2.46
-2.41
-2.05
-1.44
-0.75
-0.22
-0.04
-0.30
-0.91
-1.75
-2.67
-3.57
-4.34
-4.91
-5.19
-5.16
-4.88
-4.49
-4.16
-4.02
-4.07
-4.24
-4.41
-4.48
-4.43
-4.29
-4.10
-3.89
-3.65
-3.36
-3.07
-2.83
-2.66
-2.54
-2.40
-2.15
-1.76
-1.25
-0.66
-0.06
0.54
1.15
1.80
2.45
3.04
3.47
3.70
3.75
3.69
3.60
3.53
3.47
3.40
3.28
3.11
2.89
2.68
2.50
2.38
2.30
2.20
2.04
1.77
1.41
0.96
0.50
0.08
-0.25
-0.49
-0.63
-0.72
-0.77
-0.80
-0.82
-0.86
-0.93
-1.06
-1.28
-1.56
-1.87
-2.11
-2.21
-2.08
-1.73
-1.20
-0.61
-0.10
0.22
0.29
0.13
-0.17
-0.49
-0.72
-0.79
-0.74
-0.64
-0.58
-0.58
-0.59
-0.55
-0.40
-0.16
0.14
0.41
0.61
0.70
0.65
0.44
0.09
-0.34
-0.76
-1.06
-1.17
-1.10
-0.94
-0.79
-0.70
-0.67
-0.67
-0.66
-0.66
-0.70
-0.84
-1.06
-1.32
-1.55
-1.69
-1.71
-1.62
-1.41
-1.16
-0.94
-0.85
-0.92
-1.14
-1.38
-1.50
-1.44
-1.22
-0.95
-0.77
-0.73
-0.78
-0.77
-0.58
-0.17
0.40
0.99
1.48
1.80
1.94
1.91
1.75
1.54
1.32
1.16
1.07
1.05
1.08
1.15
1.26
1.41
1.58
1.73
1.79
1.75
1.62
1.44
1.26
1.07
0.86
0.57
0.22
-0.11
-0.32
-0.32
-0.14
0.10
0.25
0.20
-0.08
-0.52
-1.01
-1.45
-1.78
-1.99
-2.08
-2.03
-1.85
-1.57
-1.24
-0.94
-0.72
-0.57
-0.46
-0.33
-0.17
0.01
0.13
0.17
0.12
0.00
-0.12
-0.24
-0.33
-0.40
-0.46
-0.49
-0.46
-0.38
-0.25
-0.11
-0.02
-0.03
-0.13
-0.24
-0.27
-0.14
0.12
0.44
0.70
0.81
0.75
0.56
0.32
0.05
-0.24
-0.54
-0.84
-1.06
-1.11
-0.96
-0.62
-0.21
0.14
0.32
0.32
0.21
0.07
-0.00
0.05
0.20
0.41
0.61
0.74
0.77
0.69
0.53
0.34
0.17
0.06
0.03
0.08
0.18
0.29
0.36
0.36
0.29
0.19
0.09
0.03
0.00
-0.03
-0.13
-0.31
-0.56
-0.83
-1.04
-1.15
-1.17
-1.16
-1.21
-1.37
-1.64
-1.95
-2.19
-2.26
-2.12
-1.76
-1.29
-0.86
-0.59
-0.56
-0.73
-0.94
-1.04
-0.90
-0.53
-0.01
0.50
0.89
1.11
1.18
1.15
1.08
1.00
0.89
0.78
0.65
0.57
0.57
0.69
0.93
1.22
1.48
1.61
1.56
1.33
1.02
0.71
0.47
0.33
0.27
0.24
0.20
0.14
0.01
-0.22
-0.58
-1.05
-1.54
-1.96
-2.19
-2.19
-1.98
-1.62
-1.17
-0.70
-0.26
0.10
0.32
0.37
0.26
0.03
-0.21
-0.35
-0.34
-0.17
0.10
0.39
0.60
0.71
0.72
0.66
0.62
0.66
0.77
0.94
1.07
1.09
0.97
0.77
0.59
0.52
0.54
0.57
0.46
0.10
-0.49
-1.13
-1.61
-1.71
-1.39
-0.78
-0.12
0.37
0.56
0.47
0.22
-0.07
-0.33
-0.54
-0.72
-0.83
-0.83
-0.72
-0.54
-0.36
-0.28
-0.31
-0.36
-0.34
-0.16
0.11
0.33
0.36
0.17
-0.12
-0.33
-0.31
-0.03
0.39
0.77
0.99
0.99
0.84
0.60
0.33
0.01
-0.36
-0.77
-1.11
-1.27
-1.17
-0.84
-0.41
-0.09
-0.04
-0.32
-0.85
-1.47
-2.00
-2.35
-2.51
-2.56
-2.59
-2.69
-2.88
-3.13
-3.41
-3.68
-3.94
-4.17
-4.38
-4.59
-4.81
-5.08
-5.40
-5.77
-6.15
-6.46
-6.65
-6.74
-6.77
-6.85
-7.10
-7.59
-8.35
-9.31
-10.29
-11.08
-11.46
-11.30
-10.63
-9.61
-8.46
-7.37
-6.41
-5.52
-4.56
-3.38
-1.96
-0.37
1.24
2.67
3.74
4.30
4.28
3.76
2.90
2.04
1.50
1.52
2.18
3.31
4.67
6.06
7.37
8.64
9.93
11.22
12.34
13.02
13.06
12.42
11.31
10.06
9.02
8.37
8.07
7.90
7.61
7.05
6.30
5.56
5.09
5.07
5.50
6.26
7.15
8.04
8.86
9.63
10.33
10.94
11.37
11.53
11.42
11.08
10.60
10.06
9.50
8.93
8.34
7.75
7.20
6.70
6.23
5.67
4.91
3.86
2.56
1.16
-0.15
-1.22
-2.01
-2.60
-3.13
-3.75
-4.47
-5.21
-5.77
-6.00
-5.81
-5.31
-4.68
-4.16
-3.87
-3.81
-3.88
-3.91
-3.81
-3.57
-3.25
-2.92
-2.61
-2.28
-1.88
-1.41
-0.96
-0.65
-0.57
-0.73
-1.00
-1.23
-1.26
-1.04
-0.67
-0.33
-0.21
-0.42
-0.92
-1.54
-2.07
-2.33
-2.26
-1.94
-1.51
-1.11
-0.86
-0.75
-0.75
-0.79
-0.81
-0.81
-0.77
-0.71
-0.61
-0.47
-0.27
-0.01
0.27
0.51
0.65
0.63
0.48
0.27
0.14
0.20
0.46
0.84
1.18
1.35
1.28
1.02
0.67
0.38
0.25
0.34
0.63
1.03
1.42
1.66
1.67
1.43
0.99
0.46
-0.02
-0.35
-0.46
-0.39
-0.24
-0.11
-0.10
-0.26
-0.54
-0.88
-1.19
-1.43
-1.59
-1.67
-1.70
-1.67
-1.60
-1.50
-1.38
-1.25
-1.14
-1.05
-0.98
-0.94
-0.94
-1.00
-1.08
-1.12
-1.09
-1.00
-0.86
-0.73
-0.63
-0.53
-0.42
-0.28
-0.17
-0.12
-0.16
-0.26
-0.37
-0.40
-0.30
-0.13
0.04
0.10
0.01
-0.21
-0.50
-0.75
-0.88
-0.85
-0.66
-0.40
-0.19
-0.14
-0.30
-0.65
-1.05
-1.38
-1.51
-1.43
-1.19
-0.91
-0.67
-0.52
-0.42
-0.31
-0.14
0.11
0.39
0.62
0.75
0.71
0.53
0.27
0.02
-0.09
0.00
0.32
0.75
1.18
1.44
1.46
1.23
0.88
0.54
0.33
0.28
0.36
0.48
0.60
0.66
0.64
0.53
0.32
0.01
-0.38
-0.78
-1.15
-1.44
-1.65
-1.76
-1.77
-1.67
-1.44
-1.11
-0.74
-0.43
-0.26
-0.29
-0.48
-0.77
-1.10
-1.41
-1.67
-1.88
-2.02
-2.06
-1.93
-1.58
-1.02
-0.33
0.37
0.92
1.24
1.32
1.25
1.11
0.98
0.88
0.78
0.65
0.50
0.32
0.16
0.05
-0.01
-0.02
-0.01
-0.02
-0.07
-0.17
-0.30
-0.44
-0.55
-0.62
-0.65
-0.66
-0.67
-0.68
-0.71
-0.74
-0.78
-0.82
-0.89
-0.96
-1.01
-0.99
-0.83
-0.52
-0.10
0.35
0.74
1.00
1.12
1.17
1.21
1.32
1.51
1.75
1.95
2.06
2.01
1.82
1.56
1.32
1.21
1.25
1.45
1.71
1.95
2.12
2.22
2.25
2.23
2.15
1.99
1.78
1.56
1.38
1.31
1.35
1.49
1.69
1.88
2.04
2.16
2.24
2.32
2.41
2.50
2.58
2.60
2.56
2.44
2.27
2.06
1.84
1.59
1.30
0.99
0.68
0.40
0.17
-0.02
-0.21
-0.42
-0.66
-0.90
-1.12
-1.29
-1.39
-1.46
-1.55
-1.71
-1.98
-2.35
-2.77
-3.18
-3.53
-3.78
-3.93
-3.98
-3.94
-3.82
-3.65
-3.50
-3.46
-3.59
-3.85
-4.16
-4.35
-4.33
-4.08
-3.67
-3.21
-2.79
-2.42
-2.07
-1.72
-1.36
-1.03
-0.75
-0.55
-0.39
-0.23
-0.02
0.28
0.67
1.13
1.59
2.00
2.29
2.44
2.46
2.37
2.19
1.95
1.61
1.19
0.70
0.26
-0.01
-0.02
0.20
0.51
0.73
0.72
0.45
-0.00
-0.51
-0.95
-1.31
-1.59
-1.85
-2.14
-2.44
-2.73
-2.97
-3.11
-3.12
-3.02
-2.85
-2.66
-2.50
-2.35
-2.16
-1.86
-1.42
-0.91
-0.43
-0.07
0.16
0.33
0.54
0.83
1.13
1.36
1.42
1.34
1.20
1.12
1.16
1.30
1.48
1.58
1.57
1.41
1.16
0.87
0.60
0.43
0.38
0.45
0.56
0.63
0.58
0.38
0.07
-0.27
-0.53
-0.64
-0.58
-0.40
-0.23
-0.18
-0.32
-0.66
-1.06
-1.36
-1.41
-1.16
-0.71
-0.24
0.06
0.14
0.05
-0.06
-0.06
0.06
0.23
0.37
0.46
0.57
0.85
1.33
1.91
2.40
2.60
2.42
1.94
1.37
0.87
0.55
0.40
0.39
0.50
0.72
1.01
1.31
1.46
1.33
0.91
0.31
-0.28
-0.65
-0.70
-0.47
-0.12
0.17
0.26
0.09
-0.24
-0.62
-0.90
-1.03
-1.02
-0.95
-0.88
-0.82
-0.73
-0.61
-0.44
-0.30
-0.24
-0.32
-0.46
-0.55
-0.46
-0.11
0.46
1.12
1.65
1.91
1.79
1.32
0.65
-0.03
-0.54
-0.78
-0.75
-0.53
-0.26
-0.06
-0.01
-0.09
-0.25
-0.40
-0.47
-0.43
-0.35
-0.27
-0.29
-0.43
-0.67
-0.95
-1.24
-1.50
-1.73
-1.91
-2.00
-1.98
-1.81
-1.54
-1.24
-1.00
-0.84
-0.75
-0.65
-0.44
-0.08
0.42
1.00
1.53
1.90
2.02
1.90
1.62
1.29
1.00
0.77
0.58
0.38
0.19
0.06
0.05
0.22
0.55
0.93
1.22
1.34
1.27
1.05
0.75
0.45
0.22
0.08
0.04
0.10
0.20
0.28
0.28
0.13
-0.15
-0.51
-0.84
-1.06
-1.13
-1.06
-0.90
-0.74
-0.62
-0.52
-0.42
-0.29
-0.13
0.05
0.25
0.50
0.81
1.19
1.56
1.86
2.02
2.01
1.89
1.73
1.61
1.56
1.55
1.58
1.62
1.68
1.73
1.74
1.68
1.51
1.26
0.98
0.75
0.62
0.57
0.55
0.48
0.31
0.01
-0.38
-0.81
-1.22
-1.57
-1.85
-2.05
-2.17
-2.20
-2.15
-2.02
-1.81
-1.57
-1.33
-1.14
-1.02
-0.94
-0.89
-0.81
-0.67
-0.46
-0.18
0.14
0.49
0.86
1.19
1.41
1.44
1.20
0.75
0.23
-0.19
-0.35
-0.23
0.07
0.41
0.69
0.86
0.99
1.13
1.28
1.33
1.18
0.79
0.22
-0.35
-0.71
-0.75
-0.49
-0.11
0.18
0.21
-0.07
-0.56
-1.08
-1.44
-1.55
-1.40
-1.07
-0.71
-0.45
-0.34
-0.35
-0.39
-0.36
-0.18
0.13
0.48
0.78
0.94
0.98
0.95
0.91
0.89
0.84
0.73
0.55
0.37
0.29
0.40
0.68
1.02
1.23
1.16
0.77
0.13
-0.58
-1.18
-1.56
-1.72
-1.74
-1.75
-1.84
-2.03
-2.26
-2.47
-2.59
-2.62
-2.59
-2.52
-2.41
-2.21
-1.88
-1.40
-0.80
-0.20
0.30
0.61
0.75
0.77
0.77
0.79
0.83
0.80
0.60
0.19
-0.36
-0.93
-1.38
-1.65
-1.79
-1.91
-2.10
-2.39
-2.67
-2.79
-2.67
-2.27
-1.68
-1.02
-0.42
0.04
0.32
0.43
0.41
0.34
0.31
0.40
0.62
0.89
1.14
1.30
1.39
1.50
1.71
2.05
2.41
2.64
2.61
2.32
1.91
1.59
1.54
1.76
2.13
2.41
2.42
2.14
1.66
1.13
0.67
0.27
-0.12
-0.60
-1.16
-1.75
-2.22
-2.51
-2.60
-2.58
-2.55
-2.56
-2.60
-2.59
-2.46
-2.22
-1.94
-1.74
-1.69
-1.82
-2.05
-2.30
-2.47
-2.48
-2.32
-1.99
-1.54
-1.04
-0.58
-0.24
-0.03
0.09
0.24
0.53
1.00
1.56
1.99
2.12
1.86
1.30
0.67
0.21
0.09
0.32
0.73
1.15
1.43
1.51
1.44
1.28
1.09
0.88
0.63
0.34
0.04
-0.19
-0.28
-0.19
0.05
0.29
0.42
0.31
-0.02
-0.47
-0.89
-1.15
-1.22
-1.12
-0.98
-0.88
-0.84
-0.86
-0.84
-0.73
-0.46
-0.09
0.35
0.75
1.06
1.26
1.38
1.49
1.69
1.98
2.32
2.55
2.56
2.26
1.74
1.15
0.68
0.46
0.50
0.73
1.01
1.26
1.41
1.45
1.37
1.14
0.73
0.16
-0.49
-1.11
-1.61
-1.93
-2.07
-2.05
-1.90
-1.63
-1.30
-0.96
-0.67
-0.45
-0.24
0.02
0.39
0.85
1.30
1.62
1.71
1.56
1.26
0.94
0.69
0.59
0.61
0.69
0.77
0.81
0.81
0.79
0.77
0.78
0.86
0.98
1.13
1.28
1.40
1.45
1.40
1.24
0.94
0.55
0.10
-0.37
-0.81
-1.17
-1.42
-1.55
-1.56
-1.50
-1.40
-1.29
-1.18
-1.06
-0.91
-0.72
-0.52
-0.32
-0.10
0.11
0.33
0.51
0.63
0.66
0.61
0.54
0.48
0.42
0.35
0.26
0.16
0.13
0.22
0.45
0.76
1.04
1.19
1.17
1.03
0.84
0.69
0.58
0.53
0.50
0.47
0.39
0.20
-0.12
-0.56
-1.01
-1.33
-1.36
-1.07
-0.55
0.02
0.41
0.51
0.37
0.14
0.01
0.10
0.39
0.80
1.18
1.42
1.46
1.33
1.07
0.79
0.56
0.43
0.42
0.51
0.63
0.73
0.76
0.69
0.54
0.33
0.12
-0.04
-0.08
0.02
0.22
0.40
0.44
0.21
-0.31
-1.03
-1.82
-2.51
-2.98
-3.19
-3.16
-2.92
-2.51
-1.96
-1.33
-0.67
-0.09
0.33
0.53
0.49
0.29
0.01
-0.22
-0.31
-0.20
0.10
0.51
0.92
1.23
1.38
1.36
1.20
1.00
0.82
0.70
0.65
0.63
0.55
0.34
-0.05
-0.62
-1.33
-2.06
-2.67
-2.98
-2.91
-2.44
-1.67
-0.78
0.02
0.57
0.80
0.75
0.51
0.20
-0.08
-0.28
-0.40
-0.43
-0.37
-0.22
0.05
0.39
0.77
1.09
1.30
1.36
1.28
1.06
0.77
0.44
0.11
-0.17
-0.35
-0.40
-0.32
-0.13
0.12
0.35
0.46
0.38
0.07
-0.47
-1.17
-1.91
-2.49
-2.77
-2.65
-2.16
-1.48
-0.83
-0.44
-0.39
-0.59
-0.83
-0.92
-0.77
-0.42
0.00
0.39
0.71
1.03
1.41
1.83
2.17
2.28
2.10
1.70
1.25
0.94
0.84
0.91
1.04
1.10
1.07
0.97
0.88
0.85
0.88
0.93
0.94
0.87
0.71
0.47
0.19
-0.11
-0.40
-0.65
-0.85
-0.99
-1.07
-1.08
-1.05
-0.95
-0.80
-0.63
-0.47
-0.37
-0.37
-0.43
-0.48
-0.44
-0.25
0.08
0.49
0.88
1.19
1.35
1.35
1.20
0.92
0.56
0.23
-0.01
-0.07
0.04
0.30
0.65
1.04
1.43
1.75
1.88
1.70
1.16
0.34
-0.55
-1.25
-1.56
-1.47
-1.11
-0.72
-0.51
-0.56
-0.83
-1.19
-1.51
-1.71
-1.77
-1.69
-1.53
-1.33
-1.10
-0.85
-0.54
-0.17
0.25
0.66
0.96
1.11
1.10
1.02
0.94
0.93
0.99
1.02
0.93
0.68
0.31
-0.03
-0.22
-0.16
0.09
0.41
0.65
0.72
0.64
0.51
0.43
0.38
0.27
-0.03
-0.61
-1.41
-2.24
-2.88
-3.15
-3.05
-2.70
-2.26
-1.88
-1.56
-1.25
-0.84
-0.31
0.32
0.92
1.41
1.70
1.78
1.66
1.39
1.05
0.71
0.47
0.41
0.54
0.86
1.29
1.72
2.05
2.22
2.17
1.91
1.47
0.93
0.43
0.08
-0.01
0.13
0.44
0.77
1.00
1.04
0.86
0.54
0.16
-0.12
-0.22
-0.12
0.12
0.32
0.27
-0.16
-0.95
-1.94
-2.87
-3.48
-3.67
-3.45
-2.97
-2.38
-1.79
-1.23
-0.72
-0.28
0.04
0.21
0.24
0.23
0.29
0.53
0.95
1.44
1.88
2.14
2.18
2.09
1.98
1.98
2.09
2.25
2.31
2.17
1.83
1.37
0.98
0.79
0.83
1.01
1.17
1.21
1.08
0.81
0.44
0.03
-0.42
-0.85
-1.21
-1.43
-1.46
-1.35
-1.21
-1.20
-1.41
-1.81
-2.26
-2.58
-2.62
-2.33
-1.76
-1.07
-0.42
0.03
0.21
0.12
-0.15
-0.50
-0.81
-0.99
-0.98
-0.75
-0.34
0.18
0.71
1.14
1.40
1.48
1.39
1.21
1.02
0.91
0.90
0.97
1.08
1.14
1.11
0.94
0.67
0.34
0.03
-0.21
-0.35
-0.43
-0.52
-0.71
-1.07
-1.60
-2.19
-2.69
-2.94
-2.85
-2.46
-1.87
-1.25
-0.76
-0.45
-0.33
-0.31
-0.28
-0.19
-0.00
0.26
0.54
0.81
1.04
1.23
1.36
1.42
1.38
1.26
1.11
1.05
1.13
1.38
1.70
2.00
2.15
2.12
1.90
1.57
1.19
0.82
0.48
0.22
0.04
-0.04
-0.06
-0.07
-0.13
-0.29
-0.52
-0.78
-1.01
-1.17
-1.22
-1.17
-1.00
-0.74
-0.43
-0.14
0.07
0.17
0.17
0.10
0.01
-0.07
-0.12
-0.11
0.02
0.30
0.73
1.24
1.71
2.00
2.00
1.72
1.23
0.71
0.31
0.17
0.28
0.59
0.92
1.12
1.08
0.77
0.28
-0.26
-0.74
-1.07
-1.25
-1.29
-1.18
-0.97
-0.69
-0.43
-0.28
-0.30
-0.45
-0.68
-0.88
-0.99
-1.03
-1.01
-0.92
-0.74
-0.40
0.11
0.67
1.13
1.32
1.20
0.83
0.39
0.06
-0.09
-0.07
0.03
0.11
0.10
-0.00
-0.19
-0.44
-0.76
-1.08
-1.35
-1.49
-1.48
-1.35
-1.19
-1.12
-1.23
-1.53
-1.89
-2.16
-2.21
-1.94
-1.40
-0.72
-0.01
0.60
1.08
1.40
1.58
1.63
1.57
1.42
1.21
0.98
0.77
0.63
0.58
0.67
0.91
1.24
1.52
1.60
1.34
0.71
-0.15
-0.98
-1.54
-1.74
-1.65
-1.46
-1.37
-1.45
-1.64
-1.77
-1.69
-1.35
-0.82
-0.24
0.26
0.60
0.83
0.99
1.17
1.40
1.65
1.84
1.91
1.82
1.57
1.24
0.92
0.65
0.47
0.34
0.22
0.06
-0.17
-0.45
-0.75
-0.99
-1.08
-0.99
-0.73
-0.37
-0.02
0.22
0.28
0.17
-0.08
-0.42
-0.78
-1.08
-1.22
-1.11
-0.72
-0.12
0.57
1.19
1.60
1.77
1.73
1.57
1.38
1.20
1.07
1.01
1.03
1.16
1.39
1.65
1.86
1.95
1.89
1.71
1.48
1.29
1.19
1.20
1.27
1.34
1.40
1.42
1.40
1.33
1.22
1.05
0.82
0.52
0.14
-0.28
-0.73
-1.14
-1.44
-1.59
-1.61
-1.55
-1.48
-1.51
-1.69
-2.01
-2.39
-2.72
-2.86
-2.74
-2.39
-1.89
-1.41
-1.04
-0.84
-0.71
-0.59
-0.39
-0.10
0.19
0.42
0.54
0.57
0.56
0.57
0.63
0.72
0.81
0.84
0.81
0.75
0.70
0.74
0.86
1.04
1.16
1.12
0.86
0.42
-0.09
-0.56
-0.90
-1.13
-1.32
-1.53
-1.75
-1.93
-1.98
-1.90
-1.72
-1.52
-1.37
-1.25
-1.08
-0.76
-0.30
0.23
0.68
0.96
1.04
1.02
1.02
1.11
1.26
1.44
1.55
1.57
1.53
1.47
1.42
1.38
1.32
1.22
1.07
0.87
0.64
0.40
0.17
-0.04
-0.18
-0.25
-0.26
-0.23
-0.19
-0.18
-0.19
-0.21
-0.25
-0.36
-0.56
-0.89
-1.33
-1.79
-2.16
-2.33
-2.27
-1.99
-1.60
-1.20
-0.90
-0.73
-0.67
-0.66
-0.59
-0.41
-0.09
0.31
0.71
1.01
1.17
1.20
1.13
1.01
0.86
0.71
0.57
0.47
0.43
0.49
0.61
0.78
0.95
1.08
1.17
1.20
1.18
1.11
1.01
0.87
0.69
0.45
0.14
-0.22
-0.57
-0.86
-1.04
-1.14
-1.21
-1.32
-1.48
-1.65
-1.76
-1.79
-1.76
-1.71
-1.64
-1.47
-1.11
-0.54
0.17
0.82
1.23
1.33
1.16
0.87
0.62
0.48
0.46
0.47
0.47
0.46
0.46
0.51
0.60
0.74
0.88
1.04
1.22
1.40
1.55
1.61
1.51
1.22
0.78
0.25
-0.25
-0.66
-0.91
-0.98
-0.89
-0.68
-0.41
-0.14
0.08
0.21
0.20
0.05
-0.23
-0.60
-1.00
-1.32
-1.47
-1.36
-1.00
-0.44
0.17
0.71
1.07
1.18
1.07
0.76
0.34
-0.08
-0.41
-0.59
-0.57
-0.41
-0.16
0.07
0.23
0.28
0.25
0.17
0.07
-0.05
-0.19
-0.34
-0.45
-0.44
-0.28
-0.03
0.15
0.05
-0.46
-1.34
-2.37
-3.20
-3.55
-3.29
-2.56
-1.66
-0.90
-0.45
-0.29
-0.29
-0.28
-0.17
0.01
0.19
0.30
0.34
0.39
0.51
0.75
1.07
1.37
1.54
1.52
1.31
0.99
0.66
0.43
0.37
0.47
0.68
0.89
1.03
1.01
0.82
0.48
0.03
-0.45
-0.89
-1.23
-1.43
-1.50
-1.49
-1.46
-1.47
-1.53
-1.58
-1.53
-1.27
-0.78
-0.15
0.46
0.87
0.95
0.75
0.42
0.15
0.07
0.17
0.36
0.51
0.58
0.60
0.64
0.74
0.83
0.83
0.66
0.35
0.01
-0.22
-0.25
-0.06
0.26
0.62
0.92
1.13
1.17
1.03
0.67
0.12
-0.55
-1.22
-1.77
-2.12
-2.24
-2.18
-1.98
-1.72
-1.44
-1.17
-0.89
-0.57
-0.19
0.21
0.58
0.86
1.02
1.08
1.09
1.12
1.19
1.28
1.31
1.25
1.09
0.92
0.84
0.91
1.14
1.48
1.80
1.99
1.99
1.82
1.57
1.34
1.21
1.20
1.26
1.33
1.35
1.29
1.13
0.88
0.58
0.23
-0.11
-0.39
-0.56
-0.62
-0.61
-0.60
-0.67
-0.82
-1.02
-1.21
-1.34
-1.44
-1.58
-1.80
-2.10
-2.40
-2.60
-2.64
-2.54
-2.37
-2.17
-1.95
-1.63
-1.15
-0.55
0.04
0.48
0.63
0.52
0.25
0.01
-0.08
0.00
0.20
0.42
0.61
0.76
0.91
1.08
1.27
1.47
1.62
1.67
1.60
1.40
1.13
0.88
0.73
0.70
0.75
0.77
0.65
0.36
-0.06
-0.50
-0.82
-0.95
-0.91
-0.76
-0.57
-0.40
-0.29
-0.24
-0.30
-0.48
-0.77
-1.13
-1.48
-1.73
-1.84
-1.81
-1.66
-1.45
-1.19
-0.93
-0.70
-0.57
-0.59
-0.72
-0.89
-0.96
-0.82
-0.44
0.11
0.66
1.07
1.25
1.25
1.16
1.10
1.10
1.14
1.12
0.99
0.74
0.41
0.09
-0.16
-0.30
-0.32
-0.27
-0.21
-0.24
-0.39
-0.66
-0.97
-1.21
-1.31
-1.26
-1.15
-1.08
-1.11
-1.21
-1.29
-1.28
-1.14
-0.94
-0.75
-0.63
-0.52
-0.34
-0.02
0.41
0.86
1.23
1.49
1.65
1.74
1.81
1.83
1.78
1.64
1.46
1.30
1.22
1.20
1.18
1.08
0.86
0.53
0.20
-0.06
-0.21
-0.25
-0.21
-0.11
0.03
0.21
0.39
0.48
0.40
0.10
-0.38
-0.92
-1.39
-1.71
-1.88
-1.96
-2.04
-2.15
-2.26
-2.31
-2.25
-2.08
-1.83
-1.56
-1.27
-0.97
-0.63
-0.24
0.17
0.55
0.82
0.96
0.95
0.86
0.74
0.70
0.78
0.97
1.19
1.35
1.36
1.20
0.92
0.63
0.42
0.34
0.38
0.50
0.61
0.66
0.61
0.47
0.30
0.15
0.06
0.02
0.03
0.02
-0.07
-0.25
-0.53
-0.89
-1.28
-1.65
-1.95
-2.11
-2.08
-1.87
-1.52
-1.12
-0.76
-0.47
-0.25
-0.03
0.23
0.51
0.76
0.90
0.89
0.73
0.49
0.25
0.08
0.01
0.09
0.30
0.61
0.94
1.19
1.28
1.17
0.90
0.57
0.30
0.18
0.24
0.46
0.76
1.06
1.27
1.32
1.18
0.86
0.41
-0.06
-0.47
-0.74
-0.86
-0.88
-0.85
-0.82
-0.82
-0.84
-0.90
-1.03
-1.21
-1.44
-1.63
-1.71
-1.60
-1.31
-0.91
-0.53
-0.26
-0.16
-0.19
-0.28
-0.30
-0.18
0.08
0.44
0.82
1.14
1.34
1.44
1.43
1.36
1.23
1.03
0.79
0.53
0.34
0.26
0.31
0.46
0.62
0.69
0.63
0.41
0.06
-0.35
-0.73
-0.98
-1.03
-0.88
-0.59
-0.28
-0.08
-0.07
-0.24
-0.56
-0.93
-1.33
-1.76
-2.22
-2.68
-3.02
-3.11
-2.82
-2.16
-1.23
-0.22
0.67
1.30
1.65
1.75
1.70
1.56
1.39
1.21
1.04
0.89
0.78
0.73
0.73
0.78
0.83
0.85
0.83
0.83
0.91
1.12
1.45
1.78
1.99
1.98
1.73
1.35
0.95
0.65
0.46
0.38
0.35
0.34
0.30
0.19
-0.08
-0.53
-1.14
-1.83
-2.39
-2.66
-2.57
-2.18
-1.67
-1.21
-0.90
-0.71
-0.59
-0.47
-0.38
-0.40
-0.59
-0.91
-1.21
-1.31
-1.08
-0.56
0.11
0.70
1.06
1.14
1.05
0.92
0.88
0.93
1.04
1.12
1.13
1.05
0.90
0.72
0.55
0.41
0.34
0.37
0.49
0.65
0.78
0.80
0.67
0.39
0.05
-0.32
-0.67
-1.03
-1.44
-1.89
-2.31
-2.60
-2.68
-2.54
-2.22
-1.84
-1.51
-1.26
-1.10
-0.97
-0.82
-0.61
-0.31
0.07
0.50
0.91
1.20
1.30
1.17
0.93
0.74
0.73
0.95
1.32
1.67
1.81
1.68
1.30
0.81
0.37
0.15
0.20
0.51
0.96
1.38
1.58
1.45
1.00
0.36
-0.26
-0.69
-0.86
-0.87
-0.87
-1.03
-1.38
-1.88
-2.39
-2.79
-3.00
-3.02
-2.89
-2.62
-2.26
-1.80
-1.28
-0.74
-0.25
0.15
0.43
0.58
0.69
0.82
1.03
1.30
1.59
1.78
1.81
1.66
1.43
1.23
1.14
1.18
1.27
1.32
1.24
1.03
0.74
0.46
0.26
0.22
0.33
0.58
0.93
1.31
1.65
1.85
1.84
1.58
1.10
0.47
-0.16
-0.67
-0.97
-1.08
-1.07
-1.03
-1.04
-1.09
-1.15
-1.16
-1.12
-1.09
-1.11
-1.21
-1.35
-1.45
-1.43
-1.31
-1.10
-0.85
-0.58
-0.24
0.23
0.80
1.39
1.86
2.10
2.10
1.93
1.70
1.52
1.44
1.41
1.40
1.36
1.26
1.12
0.98
0.87
0.83
0.86
0.94
1.00
0.97
0.85
0.68
0.56
0.59
0.77
0.97
1.02
0.75
0.14
-0.69
-1.49
-2.05
-2.26
-2.19
-2.00
-1.83
-1.74
-1.67
-1.53
-1.30
-1.03
-0.82
-0.73
-0.75
-0.75
-0.62
-0.30
0.13
0.53
0.76
0.79
0.69
0.58
0.58
0.74
1.01
1.28
1.45
1.47
1.38
1.25
1.14
1.11
1.14
1.18
1.19
1.12
0.96
0.71
0.39
0.01
-0.38
-0.73
-0.96
-1.00
-0.85
-0.57
-0.32
-0.26
-0.50
-1.04
-1.76
-2.47
-2.96
-3.10
-2.84
-2.27
-1.52
-0.73
-0.05
0.45
0.74
0.86
0.87
0.81
0.74
0.67
0.59
0.50
0.40
0.31
0.23
0.16
0.11
0.13
0.25
0.50
0.83
1.14
1.32
1.32
1.17
0.98
0.86
0.88
1.05
1.29
1.54
1.71
1.72
1.49
0.99
0.26
-0.57
-1.30
-1.77
-1.91
-1.81
-1.61
-1.43
-1.37
-1.40
-1.48
-1.59
-1.72
-1.86
-1.94
-1.88
-1.59
-1.05
-0.34
0.39
0.98
1.30
1.33
1.10
0.72
0.33
0.04
-0.05
0.09
0.41
0.82
1.23
1.53
1.69
1.70
1.58
1.37
1.12
0.88
0.73
0.70
0.80
0.97
1.13
1.16
1.01
0.66
0.19
-0.32
-0.76
-1.07
-1.23
-1.25
-1.15
-0.98
-0.77
-0.58
-0.46
-0.43
-0.51
-0.68
-0.90
-1.13
-1.30
-1.37
-1.32
-1.17
-0.97
-0.78
-0.67
-0.65
-0.68
-0.70
-0.64
-0.50
-0.33
-0.22
-0.25
-0.39
-0.55
-0.61
-0.47
-0.16
0.22
0.50
0.55
0.34
-0.06
-0.51
-0.88
-1.10
-1.13
-0.97
-0.69
-0.39
-0.20
-0.23
-0.54
-1.10
-1.79
-2.44
-2.94
-3.25
-3.42
-3.51
-3.60
-3.70
-3.81
-3.91
-4.00
-4.06
-4.07
-4.02
-3.88
-3.67
-3.42
-3.19
-3.05
-3.01
-3.07
-3.17
-3.25
-3.23
-3.09
-2.83
-2.45
-1.96
-1.38
-0.72
0.01
0.79
1.57
2.35
3.13
3.91
4.69
5.40
5.95
6.23
6.20
5.90
5.42
4.89
4.40
4.00
3.74
3.61
3.61
3.70
3.82
3.94
4.02
4.09
4.15
4.25
4.36
4.44
4.46
4.41
4.31
4.19
4.06
3.90
3.69
3.42
3.07
2.61
2.01
1.25
0.33
-0.66
-1.60
-2.37
-2.86
-3.07
-3.02
-2.81
-2.51
-2.20
-1.92
-1.70
-1.54
-1.41
-1.30
-1.19
-1.09
-1.05
-1.09
-1.23
-1.45
-1.68
-1.87
-2.00
-2.11
-2.25
-2.45
-2.72
-2.96
-3.08
-3.00
-2.70
-2.24
-1.75
-1.35
-1.14
-1.13
-1.27
-1.43
-1.48
-1.32
-0.93
-0.41
0.13
0.53
0.73
0.76
0.72
0.74
0.91
1.21
1.58
1.92
2.15
2.24
2.22
2.12
2.00
1.90
1.87
1.94
2.09
2.29
2.48
2.59
2.60
2.48
2.26
2.00
1.75
1.50
1.26
1.01
0.77
0.58
0.52
0.63
0.91
1.31
1.74
2.15
2.52
2.87
3.19
3.49
3.71
3.85
3.90
3.93
4.00
4.14
4.36
4.62
4.88
5.06
5.11
4.98
4.65
4.16
3.56
2.96
2.41
1.94
1.49
1.01
0.48
-0.09
-0.66
-1.17
-1.61
-1.98
-2.30
-2.63
-3.01
-3.47
-3.99
-4.51
-4.96
-5.22
-5.26
-5.08
-4.77
-4.44
-4.17
-3.96
-3.76
-3.51
-3.18
-2.79
-2.40
-2.09
-1.93
-1.92
-2.01
-2.10
-2.09
-1.93
-1.66
-1.36
-1.14
-1.06
-1.12
-1.22
-1.27
-1.20
-1.05
-0.90
-0.89
-1.06
-1.39
-1.77
-2.09
-2.29
-2.35
-2.32
-2.25
-2.16
-2.06
-1.99
-1.97
-2.03
-2.21
-2.47
-2.74
-2.91
-2.86
-2.52
-1.92
-1.20
-0.59
-0.36
-0.76
-1.92
-3.82
-6.29
-9.00
-11.54
-13.49
-14.47
-14.24
-12.72
-10.06
-6.55
-2.60
1.33
4.82
7.53
9.32
10.19
10.29
9.91
9.29
8.66
8.11
7.65
7.25
6.82
6.32
5.76
5.16
4.57
4.07
3.68
3.39
3.14
2.89
2.64
2.44
2.35
2.40
2.53
2.63
2.60
2.40
2.10
1.77
1.52
1.31
1.08
0.74
0.26
-0.30
-0.80
-1.10
-1.17
-1.05
-0.89
-0.78
-0.75
-0.77
-0.75
-0.67
-0.56
-0.53
-0.68
-1.02
-1.50
-1.98
-2.32
-2.42
-2.28
-1.97
-1.60
-1.28
-1.07
-0.99
-1.00
-1.03
-1.01
-0.90
-0.74
-0.61
-0.61
-0.80
-1.15
-1.52
-1.75
-1.70
-1.37
-0.82
-0.22
0.31
0.73
1.06
1.31
1.46
1.47
1.30
0.95
0.53
0.14
-0.15
-0.36
-0.53
-0.76
-1.06
-1.40
-1.66
-1.77
-1.69
-1.49
-1.23
-0.99
-0.82
-0.69
-0.57
-0.43
-0.29
-0.15
-0.05
0.02
0.10
0.24
0.48
0.79
1.11
1.34
1.44
1.37
1.19
0.94
0.69
0.47
0.31
0.19
0.08
-0.05
-0.21
-0.36
-0.48
-0.54
-0.54
-0.54
-0.59
-0.73
-0.89
-0.98
-0.89
-0.60
-0.18
0.20
0.37
0.27
-0.03
-0.36
-0.57
-0.56
-0.38
-0.14
0.08
0.22
0.28
0.29
0.23
0.09
-0.18
-0.53
-0.89
-1.17
-1.28
-1.20
-0.97
-0.68
-0.41
-0.21
-0.08
-0.01
0.06
0.12
0.14
0.09
-0.09
-0.34
-0.57
-0.65
-0.51
-0.19
0.16
0.41
0.48
0.38
0.23
0.14
0.17
0.28
0.43
0.54
0.62
0.67
0.68
0.65
0.54
0.35
0.11
-0.14
-0.38
-0.59
-0.76
-0.89
-0.94
-0.90
-0.80
-0.68
-0.64
-0.73
-0.96
-1.26
-1.52
-1.61
-1.48
-1.10
-0.55
0.06
0.64
1.12
1.46
1.68
1.82
1.91
1.97
2.03
2.11
2.26
2.45
2.64
2.73
2.65
2.39
2.00
1.62
1.38
1.34
1.47
1.66
1.81
1.84
1.78
1.68
1.61
1.58
1.51
1.34
1.04
0.63
0.18
-0.21
-0.51
-0.73
-0.93
-1.13
-1.36
-1.59
-1.79
-1.96
-2.10
-2.21
-2.25
-2.17
-1.91
-1.47
-0.87
-0.20
0.41
0.86
1.07
1.03
0.83
0.57
0.33
0.18
0.11
0.13
0.20
0.35
0.58
0.88
1.19
1.45
1.56
1.50
1.32
1.14
1.05
1.10
1.25
1.40
1.43
1.30
1.04
0.75
0.52
0.39
0.30
0.16
-0.08
-0.43
-0.76
-0.99
-1.05
-0.98
-0.88
-0.81
-0.81
-0.85
-0.90
-0.94
-0.98
-1.03
-1.08
-1.09
-1.01
-0.85
-0.63
-0.40
-0.23
-0.13
-0.08
-0.05
-0.05
-0.08
-0.12
-0.14
-0.08
0.04
0.20
0.29
0.26
0.13
0.01
0.01
0.19
0.52
0.86
1.05
0.99
0.68
0.21
-0.28
-0.70
-0.98
-1.11
-1.07
-0.91
-0.70
-0.52
-0.46
-0.57
-0.85
-1.25
-1.72
-2.16
-2.48
-2.59
-2.38
-1.85
-1.04
-0.13
0.68
1.20
1.39
1.31
1.09
0.87
0.72
0.65
0.63
0.63
0.65
0.70
0.75
0.76
0.68
0.50
0.25
0.00
-0.16
-0.22
-0.18
-0.10
-0.01
0.09
0.23
0.41
0.59
0.68
0.62
0.40
0.12
-0.15
-0.31
-0.38
-0.45
-0.63
-0.95
-1.37
-1.76
-2.00
-2.05
-1.94
-1.77
-1.62
-1.49
-1.32
-1.05
-0.63
-0.15
0.27
0.51
0.51
0.30
0.00
-0.26
-0.40
-0.41
-0.35
-0.33
-0.39
-0.53
-0.69
-0.76
-0.71
-0.57
-0.40
-0.29
-0.29
-0.39
-0.51
-0.62
-0.68
-0.72
-0.82
-1.01
-1.30
-1.63
-1.88
-1.95
-1.80
-1.49
-1.15
-0.96
-0.99
-1.23
-1.54
-1.76
-1.74
-1.46
-1.01
-0.52
-0.11
0.15
0.27
0.27
0.21
0.13
0.07
0.07
0.16
0.31
0.50
0.68
0.83
0.93
1.02
1.14
1.29
1.46
1.60
1.65
1.58
1.42
1.25
1.16
1.22
1.42
1.68
1.86
1.83
1.58
1.18
0.76
0.43
0.24
0.10
-0.04
-0.24
-0.48
-0.67
-0.78
-0.78
-0.70
-0.58
-0.40
-0.13
0.25
0.76
1.33
1.91
2.43
2.85
3.17
3.40
3.54
3.64
3.70
3.75
3.79
3.80
3.78
3.71
3.60
3.45
3.23
2.93
2.54
2.11
1.68
1.34
1.15
1.11
1.19
1.29
1.37
1.40
1.38
1.34
1.30
1.26
1.21
1.11
0.93
0.65
0.28
-0.13
-0.56
-0.95
-1.27
-1.53
-1.70
-1.77
-1.73
-1.60
-1.41
-1.23
-1.11
-1.08
-1.12
-1.14
-1.11
-1.00
-0.85
-0.74
-0.70
-0.70
-0.69
-0.60
-0.40
-0.16
0.03
0.09
-0.02
-0.27
-0.53
-0.71
-0.71
-0.53
-0.26
0.04
0.28
0.44
0.54
0.61
0.67
0.72
0.76
0.77
0.76
0.70
0.60
0.41
0.12
-0.24
-0.56
-0.76
-0.76
-0.57
-0.28
-0.01
0.13
0.10
-0.07
-0.32
-0.55
-0.68
-0.69
-0.59
-0.45
-0.28
-0.12
0.05
0.25
0.48
0.71
0.87
0.92
0.86
0.77
0.75
0.88
1.17
1.51
1.72
1.68
1.35
0.87
0.43
0.24
0.38
0.75
1.17
1.44
1.42
1.14
0.70
0.22
-0.19
-0.50
-0.72
-0.90
-1.07
-1.25
-1.45
-1.66
-1.86
-2.01
-2.10
-2.14
-2.15
-2.15
-2.13
-2.07
-1.94
-1.73
-1.48
-1.26
-1.15
-1.17
-1.31
-1.49
-1.62
-1.66
-1.61
-1.49
-1.35
-1.18
-0.98
-0.70
-0.33
0.12
0.58
0.98
1.23
1.28
1.14
0.83
0.44
0.04
-0.29
-0.53
-0.72
-0.90
-1.10
-1.28
-1.37
-1.29
-1.04
-0.69
-0.37
-0.19
-0.17
-0.27
-0.40
-0.49
-0.54
-0.59
-0.65
-0.70
-0.68
-0.57
-0.39
-0.25
-0.22
-0.33
-0.52
-0.66
-0.69
-0.57
-0.38
-0.25
-0.26
-0.46
-0.83
-1.29
-1.79
-2.26
-2.70
-3.12
-3.52
-3.85
-4.06
-4.07
-3.88
-3.56
-3.23
-2.97
-2.83
-2.74
-2.60
-2.31
-1.83
-1.21
-0.57
0.03
0.55
0.98
1.34
1.63
1.84
1.96
2.00
2.00
2.01
2.10
2.28
2.53
2.80
2.98
3.05
2.96
2.75
2.47
2.16
1.87
1.60
1.37
1.18
1.04
0.95
0.90
0.89
0.89
0.90
0.92
0.97
1.12
1.45
1.98
2.68
3.41
3.97
4.20
4.02
3.54
2.93
2.39
2.03
1.83
1.72
1.56
1.32
1.03
0.76
0.57
0.48
0.48
0.53
0.61
0.65
0.64
0.51
0.25
-0.11
-0.51
-0.82
-0.95
-0.88
-0.65
-0.42
-0.31
-0.39
-0.63
-0.91
-1.12
-1.19
-1.17
-1.16
-1.28
-1.52
-1.82
-2.05
-2.13
-2.06
-1.88
-1.67
-1.42
-1.09
-0.65
-0.16
0.24
0.42
0.33
0.08
-0.12
-0.08
0.26
0.80
1.36
1.75
1.88
1.78
1.53
1.23
0.95
0.75
0.62
0.55
0.50
0.43
0.36
0.34
0.45
0.71
1.06
1.34
1.43
1.27
0.93
0.54
0.22
-0.00
-0.17
-0.37
-0.63
-0.94
-1.22
-1.43
-1.55
-1.61
-1.62
-1.59
-1.51
-1.36
-1.14
-0.92
-0.72
-0.61
-0.56
-0.55
-0.48
-0.27
0.13
0.71
1.40
2.07
2.58
2.84
2.81
2.58
2.26
1.98
1.82
1.77
1.76
1.72
1.61
1.41
1.18
0.96
0.80
0.68
0.56
0.39
0.13
-0.23
-0.65
-1.09
-1.49
-1.78
-1.93
-1.96
-1.91
-1.84
-1.81
-1.86
-1.94
-2.00
-1.99
-1.89
-1.70
-1.47
-1.23
-0.97
-0.70
-0.41
-0.14
0.04
0.07
-0.05
-0.28
-0.52
-0.67
-0.65
-0.45
-0.11
0.30
0.70
1.04
1.25
1.29
1.13
0.79
0.35
-0.09
-0.43
-0.63
-0.75
-0.87
-1.11
-1.47
-1.88
-2.20
-2.33
-2.26
-2.10
-2.00
-2.06
-2.29
-2.55
-2.66
-2.49
-2.02
-1.39
-0.83
-0.57
-0.70
-1.13
-1.64
-1.95
-1.86
-1.35
-0.56
0.27
0.95
1.40
1.63
1.72
1.71
1.61
1.43
1.19
0.94
0.74
0.65
0.70
0.89
1.17
1.45
1.66
1.70
1.57
1.29
0.98
0.77
0.77
0.97
1.27
1.49
1.48
1.17
0.64
0.01
-0.50
-0.74
-0.66
-0.33
0.10
0.43
0.57
0.48
0.23
-0.08
-0.40
-0.68
-0.91
-1.08
-1.18
-1.20
-1.15
-1.06
-0.92
-0.77
-0.58
-0.33
-0.04
0.25
0.47
0.60
0.65
0.72
0.88
1.16
1.53
1.89
2.11
2.15
2.06
1.95
1.96
2.18
2.55
2.89
2.98
2.66
1.88
0.74
-0.55
-1.78
-2.79
-3.51
-3.88
-3.93
-3.69
-3.27
-2.80
-2.44
-2.32
-2.41
-2.58
-2.69
-2.64
-2.48
-2.34
-2.33
-2.48
-2.66
-2.69
-2.45
-1.96
-1.37
-0.90
-0.72
-0.83
-1.09
-1.32
-1.35
-1.13
-0.71
-0.22
0.26
0.67
1.01
1.30
1.57
1.79
1.91
1.90
1.79
1.64
1.56
1.59
1.74
1.89
1.95
1.84
1.59
1.26
0.96
0.75
0.62
0.55
0.48
0.39
0.30
0.21
0.15
0.09
0.06
0.06
0.07
0.05
-0.09
-0.39
-0.86
-1.39
-1.81
-1.98
-1.82
-1.39
-0.83
-0.29
0.14
0.41
0.55
0.58
0.50
0.34
0.14
-0.01
-0.04
0.09
0.30
0.51
0.63
0.64
0.57
0.49
0.44
0.45
0.49
0.58
0.71
0.86
0.98
0.98
0.81
0.48
0.06
-0.33
-0.60
-0.67
-0.58
-0.41
-0.26
-0.23
-0.37
-0.65
-1.00
-1.31
-1.50
-1.58
-1.63
-1.74
-1.96
-2.20
-2.33
-2.21
-1.83
-1.28
-0.75
-0.35
-0.11
0.00
0.10
0.22
0.39
0.57
0.74
0.88
1.02
1.18
1.35
1.53
1.65
1.68
1.59
1.38
1.13
0.93
0.89
1.07
1.43
1.88
2.27
2.50
2.53
2.40
2.14
1.80
1.43
1.05
0.70
0.44
0.31
0.30
0.34
0.33
0.19
-0.13
-0.55
-0.96
-1.23
-1.23
-0.96
-0.48
0.07
0.52
0.76
0.75
0.58
0.39
0.34
0.52
0.87
1.26
1.51
1.52
1.29
0.93
0.58
0.34
0.23
0.18
0.11
-0.01
-0.17
-0.31
-0.38
-0.40
-0.41
-0.48
-0.62
-0.78
-0.89
-0.89
-0.79
-0.69
-0.70
-0.91
-1.32
-1.84
-2.35
-2.77
-3.04
-3.13
-3.05
-2.78
-2.32
-1.72
-1.07
-0.51
-0.15
0.00
0.01
0.01
0.14
0.47
0.93
1.42
1.76
1.88
1.81
1.68
1.64
1.80
2.16
2.62
3.01
3.21
3.19
2.99
2.70
2.41
2.15
1.96
1.80
1.64
1.43
1.15
0.76
0.28
-0.29
-0.91
-1.54
-2.14
-2.68
-3.12
-3.42
-3.52
-3.44
-3.20
-2.88
-2.56
-2.26
-1.93
-1.50
-0.94
-0.28
0.33
0.76
0.95
0.93
0.83
0.77
0.77
0.81
0.78
0.67
0.50
0.38
0.36
0.45
0.57
0.63
0.63
0.63
0.70
0.91
1.22
1.50
1.63
1.51
1.12
0.53
-0.14
-0.79
-1.31
-1.66
-1.85
-1.91
-1.91
-1.85
-1.75
-1.57
-1.27
-0.88
-0.46
-0.10
0.12
0.19
0.14
0.08
0.07
0.15
0.27
0.39
0.45
0.45
0.40
0.33
0.29
0.32
0.42
0.59
0.78
0.94
0.99
0.89
0.67
0.41
0.19
0.07
0.06
0.11
0.15
0.10
-0.02
-0.18
-0.28
-0.26
-0.12
0.04
0.06
-0.19
-0.71
-1.41
-2.07
-2.48
-2.55
-2.29
-1.83
-1.36
-0.97
-0.70
-0.49
-0.29
-0.06
0.17
0.40
0.61
0.82
1.05
1.28
1.51
1.70
1.83
1.87
1.83
1.74
1.66
1.60
1.58
1.57
1.53
1.42
1.22
0.93
0.60
0.24
-0.09
-0.38
-0.58
-0.61
-0.45
-0.13
0.21
0.39
0.26
-0.18
-0.80
-1.35
-1.63
-1.55
-1.20
-0.77
-0.49
-0.51
-0.85
-1.43
-2.08
-2.62
-2.94
-2.99
-2.82
-2.53
-2.23
-1.99
-1.82
-1.69
-1.57
-1.42
-1.22
-0.96
-0.62
-0.19
0.31
0.80
1.19
1.40
1.38
1.18
0.89
0.60
0.35
0.14
-0.04
-0.20
-0.26
-0.18
0.08
0.43
0.75
0.90
0.81
0.53
0.20
0.01
0.10
0.45
0.91
1.27
1.33
1.03
0.45
-0.24
-0.85
-1.29
-1.57
-1.77
-1.97
-2.17
-2.28
-2.20
-1.88
-1.36
-0.77
-0.26
0.07
0.19
0.17
0.10
0.09
0.18
0.36
0.61
0.88
1.15
1.41
1.68
1.93
2.15
2.29
2.37
2.38
2.36
2.31
2.23
2.09
1.88
1.60
1.29
0.98
0.68
0.42
0.20
0.03
-0.06
-0.07
-0.02
0.03
0.02
-0.06
-0.18
-0.29
-0.28
-0.13
0.14
0.44
0.68
0.79
0.80
0.77
0.82
1.00
1.29
1.62
1.93
2.19
2.45
2.79
3.24
3.79
4.35
4.86
5.27
5.61
5.93
6.28
6.66
6.99
7.18
7.16
6.98
6.73
6.58
6.59
6.77
7.00
7.17
7.19
7.06
6.82
6.53
6.16
5.58
4.66
3.26
1.40
-0.80
-3.12
-5.31
-7.14
-8.50
-9.36
-9.80
-9.95
-9.97
-9.99
-10.05
-10.16
-10.25
-10.23
-10.01
-9.55
-8.90
-8.11
-7.27
-6.49
-5.82
-5.27
-4.84
-4.50
-4.19
-3.89
-3.57
-3.23
-2.87
-2.55
-2.32
-2.23
-2.28
-2.44
-2.64
-2.81
-2.88
-2.84
-2.70
-2.53
-2.42
-2.41
-2.51
-2.63
-2.71
-2.67
-2.53
-2.33
-2.17
-2.07
-2.00
-1.89
-1.69
-1.41
-1.14
-0.97
-0.93
-0.92
-0.81
-0.48
0.08
0.77
1.45
1.97
2.25
2.30
2.20
2.06
1.96
1.95
2.02
2.12
2.18
2.15
1.99
1.73
1.41
1.10
0.83
0.62
0.47
0.40
0.40
0.45
0.48
0.40
0.12
-0.37
-0.99
-1.60
-2.09
-2.36
-2.44
-2.41
-2.34
-2.28
-2.22
-2.10
-1.88
-1.53
-1.11
-0.72
-0.46
-0.37
-0.41
-0.50
-0.53
-0.44
-0.26
-0.05
0.12
0.21
0.23
0.21
0.17
0.12
0.03
-0.10
-0.28
-0.53
-0.82
-1.16
-1.53
-1.91
-2.30
-2.74
-3.27
-3.97
-4.87
-5.90
-6.94
-7.80
-8.37
-8.57
-8.43
-8.04
-7.51
-6.96
-6.41
-5.86
-5.24
-4.50
-3.64
-2.70
-1.77
-0.93
-0.20
0.43
1.01
1.60
2.24
2.98
3.80
4.66
5.50
6.28
6.91
7.35
7.57
7.57
7.39
7.15
6.96
6.92
7.07
7.33
7.57
7.63
7.41
6.96
6.42
5.93
5.60
5.41
5.26
5.01
4.59
4.02
3.43
2.99
2.87
3.14
3.73
4.49
5.20
5.67
5.79
5.58
5.15
4.63
4.15
3.78
3.51
3.34
3.30
3.38
3.59
3.87
4.12
4.24
4.15
3.83
3.36
2.87
2.48
2.25
2.17
2.16
2.10
1.96
1.75
1.53
1.39
1.39
1.50
1.62
1.65
1.50
1.18
0.78
0.41
0.17
0.07
0.12
0.27
0.52
0.90
1.40
1.98
2.47
2.71
2.51
1.87
0.90
-0.14
-0.95
-1.33
-1.26
-0.85
-0.33
0.14
0.46
0.64
0.72
0.74
0.62
0.28
-0.40
-1.37
-2.43
-3.26
-3.57
-3.24
-2.39
-1.34
-0.39
0.28
0.73
1.16
1.78
2.66
3.71
4.74
5.59
6.19
6.59
6.91
7.31
7.96
9.02
10.55
12.45
14.37
15.75
15.98
14.56
11.35
6.58
0.76
-5.53
-11.74
-17.44
-22.17
-25.48
-26.90
-26.16
-23.36
-19.09
-14.31
-10.08
-7.26
-6.42
-7.81
-11.48
-17.24
-24.59
-32.48
-39.41
-43.79
-44.43
-41.08
-34.49
-26.10
-17.34
-9.21
-2.02
4.39
10.27
15.66
20.36
24.10
26.68
28.11
28.59
28.44
27.97
27.44
26.91
26.19
24.89
22.49
18.61
13.32
7.17
1.16
-3.59
-6.19
-6.29
-4.10
-0.36
3.94
7.72
10.07
10.36
8.42
4.67
0.06
-4.12
-6.66
-6.89
-5.05
-2.26
-0.04
0.30
-1.69
-5.46
-9.71
-13.02
-14.47
-13.95
-12.11
-9.92
-8.18
-7.33
-7.35
-8.04
-9.14
-10.47
-11.87
-13.12
-13.93
-14.01
-13.19
-11.49
-9.15
-6.51
-3.87
-1.49
0.50
2.05
3.16
3.87
4.24
4.28
3.92
3.07
1.59
-0.54
-3.23
-6.22
-9.16
-11.66
-13.41
-14.27
-14.30
-13.79
-13.30
-13.54
-15.16
-18.46
-23.10
-27.87
-30.80
-29.65
-22.81
-10.19
6.39
23.57
37.62
45.74
47.01
42.46
34.38
25.23
16.80
9.96
4.92
1.66
0.17
0.38
1.98
4.28
6.39
7.56
7.50
6.47
5.13
4.22
4.24
5.18
6.63
7.95
8.55
8.24
7.29
6.38
6.34
7.78
10.79
14.86
18.97
22.02
23.23
22.41
20.02
16.88
13.71
10.89
8.35
5.83
3.14
0.39
-2.09
-3.86
-4.68
-4.61
-3.96
-3.15
-2.52
-2.23
-2.27
-2.54
-2.88
-3.17
-3.38
-3.49
-3.57
-3.66
-3.78
-3.90
-4.00
-4.09
-4.20
-4.41
-4.73
-5.16
-5.58
-5.84
-5.81
-5.46
-4.84
-4.10
-3.44
-2.96
-2.76
-2.78
-2.87
-2.82
-2.47
-1.75
-0.75
0.29
1.15
1.63
1.67
1.35
0.82
0.23
-0.30
-0.73
-0.99
-1.05
-0.92
-0.63
-0.26
0.07
0.27
0.35
0.34
0.30
0.26
0.17
-0.03
-0.40
-0.92
-1.50
-2.00
-2.32
-2.42
-2.30
-2.05
-1.70
-1.32
-0.91
-0.49
-0.05
0.41
0.88
1.34
1.73
2.00
2.11
2.06
1.90
1.70
1.54
1.43
1.37
1.29
1.17
1.02
0.86
0.75
0.71
0.74
0.83
0.96
1.10
1.22
1.26
1.18
0.98
0.70
0.44
0.28
0.27
0.39
0.55
0.67
0.68
0.60
0.49
0.47
0.61
0.96
1.47
2.02
2.50
2.87
3.19
3.56
4.12
4.89
5.75
6.44
6.66
6.18
4.90
2.92
0.47
-2.11
-4.49
-6.41
-7.77
-8.64
-9.29
-10.15
-11.59
-13.78
-16.45
-18.83
-19.79
-18.40
-14.33
-8.17
-1.26
4.87
9.19
11.64
13.01
14.39
16.45
18.96
20.83
20.67
17.63
11.78
4.12
-3.93
-11.08
-16.32
-18.90
-18.28
-14.34
-7.69
0.07
6.69
10.16
9.60
5.73
0.46
-4.14
-6.77
-7.31
-6.40
-4.61
-2.00
1.80
7.14
13.78
20.93
27.48
32.46
35.16
35.07
31.94
25.84
17.49
8.29
0.02
-5.84
-8.65
-8.81
-7.38
-5.48
-3.80
-2.55
-1.74
-1.51
-2.19
-4.12
-7.28
-11.10
-14.67
-17.13
-18.02
-17.49
-16.08
-14.45
-13.05
-12.03
-11.27
-10.49
-9.44
-8.01
-6.21
-4.24
-2.35
-0.76
0.40
1.16
1.61
1.89
2.06
2.09
1.93
1.60
1.22
0.97
1.07
1.57
2.37
3.21
3.84
4.13
4.11
3.97
3.91
4.01
4.14
3.93
2.89
0.62
-3.06
-7.99
-13.61
-19.16
-23.78
-26.65
-27.23
-25.27
-21.06
-15.35
-9.30
-4.18
-0.97
-0.06
-1.16
-3.50
-6.20
-8.59
-10.46
-11.94
-13.30
-14.67
-15.96
-16.93
-17.26
-16.70
-15.14
-12.61
-9.23
-5.19
-0.74
3.85
8.30
12.36
15.77
18.30
19.75
20.02
19.19
17.53
15.48
13.54
12.08
11.21
10.78
10.48
10.02
9.30
8.47
7.81
7.58
7.89
8.61
9.46
10.17
10.55
10.57
10.30
9.81
9.18
8.41
7.54
6.61
5.72
4.95
4.38
4.01
3.80
3.64
3.43
3.08
2.55
1.84
1.03
0.23
-0.44
-0.91
-1.16
-1.24
-1.25
-1.23
-1.23
-1.23
-1.21
-1.17
-1.15
-1.25
-1.52
-1.97
-2.49
-2.94
-3.19
-3.20
-3.03
-2.85
-2.80
-2.95
-3.30
-3.73
-4.14
-4.43
-4.54
-4.46
-4.19
-3.82
-3.41
-3.07
-2.84
-2.72
-2.65
-2.57
-2.50
-2.46
-2.50
-2.65
-2.83
-2.96
-2.92
-2.70
-2.35
-1.97
-1.62
-1.28
-0.91
-0.48
-0.03
0.33
0.45
0.25
-0.22
-0.81
-1.34
-1.65
-1.70
-1.55
-1.33
-1.14
-1.05
-1.01
-0.99
-0.93
-0.84
-0.75
-0.75
-0.87
-1.09
-1.34
-1.46
-1.34
-0.95
-0.39
0.19
0.59
0.70
0.55
0.28
0.08
0.05
0.20
0.41
0.55
0.54
0.38
0.15
-0.05
-0.15
-0.15
-0.06
0.10
0.31
0.60
1.00
1.54
2.16
2.75
3.14
3.18
2.84
2.22
1.54
1.08
1.03
1.42
2.14
2.97
3.73
4.30
4.65
4.83
4.91
4.93
4.91
4.86
4.75
4.58
4.38
4.20
4.09
4.09
4.23
4.42
4.58
4.62
4.45
4.07
3.49
2.74
1.83
0.75
-0.45
-1.71
-2.89
-3.89
-4.65
-5.24
-5.90
-6.97
-8.73
-11.26
-14.32
-17.33
-19.54
-20.28
-19.18
-16.39
-12.60
-8.80
-6.01
-4.95
-5.83
-8.28
-11.51
-14.50
-16.32
-16.36
-14.50
-11.12
-7.02
-3.14
-0.27
1.19
1.32
0.58
-0.42
-1.14
-1.33
-0.98
-0.30
0.48
1.23
1.97
2.83
3.94
5.37
7.01
8.60
9.88
10.70
11.09
11.23
11.30
11.36
11.27
10.75
9.55
7.67
5.35
3.06
1.29
0.36
0.31
0.96
2.02
3.16
4.18
4.93
5.31
5.27
4.79
3.96
2.97
2.03
1.30
0.84
0.53
0.31
0.16
0.26
0.83
2.06
3.90
6.06
8.10
9.60
10.39
10.57
10.55
10.82
11.86
13.96
17.16
21.18
25.36
28.72
30.10
28.51
23.49
15.38
5.37
-4.89
-13.78
-20.24
-24.00
-25.43
-25.24
-24.11
-22.46
-20.43
-18.06
-15.36
-12.42
-9.35
-6.27
-3.29
-0.57
1.68
3.15
3.57
2.72
0.62
-2.47
-6.02
-9.34
-11.83
-13.14
-13.41
-13.16
-13.09
-13.78
-15.39
-17.57
-19.62
-20.78
-20.54
-18.84
-16.06
-12.87
-10.02
-8.08
-7.29
-7.46
-8.04
-8.31
-7.67
-5.86
-3.07
0.20
3.41
6.18
8.46
10.36
11.98
13.30
14.20
14.58
14.52
14.21
13.83
13.36
12.56
11.11
8.87
6.00
2.99
0.46
-1.11
-1.54
-0.95
0.30
1.86
3.41
4.74
5.72
6.24
6.25
5.72
4.75
3.51
2.24
1.19
0.51
0.21
0.11
-0.03
-0.45
-1.21
-2.16
-2.99
-3.38
-3.15
-2.36
-1.28
-0.28
0.35
0.50
0.30
-0.02
-0.22
-0.19
0.07
0.44
0.80
1.06
1.21
1.25
1.22
1.15
1.05
0.96
0.93
1.00
1.12
1.20
1.11
0.76
0.17
-0.58
-1.30
-1.84
-2.11
-2.08
-1.79
-1.28
-0.59
0.25
1.15
1.92
2.36
2.29
1.69
0.74
-0.24
-0.88
-0.99
-0.56
0.20
1.01
1.62
1.88
1.66
0.84
-0.75
-3.24
-6.59
-10.49
-14.28
-17.10
-18.10
-16.64
-12.51
-6.07
1.74
9.55
15.84
19.30
19.24
15.81
10.03
3.52
-1.96
-5.04
-5.15
-2.67
1.31
5.39
8.34
9.51
8.84
6.76
3.87
0.72
-2.29
-4.86
-6.72
-7.61
-7.35
-5.94
-3.72
-1.31
0.58
1.39
0.94
-0.49
-2.28
-3.73
-4.32
-3.96
-2.93
-1.71
-0.77
-0.32
-0.31
-0.48
-0.59
-0.56
-0.47
-0.52
-0.88
-1.52
-2.27
-2.85
-3.01
-2.65
-1.85
-0.83
0.23
1.21
2.15
3.12
4.16
5.19
6.00
6.31
5.90
4.69
2.84
0.67
-1.38
-2.93
-3.71
-3.66
-2.86
-1.50
0.16
1.89
3.41
4.49
4.96
4.80
4.10
3.11
2.13
1.37
0.93
0.72
0.62
0.53
0.48
0.61
1.09
2.02
3.33
4.76
5.97
6.62
6.53
5.73
4.50
3.28
2.55
2.68
3.80
5.71
7.94
9.90
11.01
10.83
9.12
5.97
1.74
-2.90
-7.13
-10.19
-11.59
-11.24
-9.43
-6.74
-3.89
-1.58
-0.34
-0.43
-1.72
-3.68
-5.55
-6.63
-6.59
-5.53
-3.95
-2.35
-1.05
-0.16
0.21
-0.17
-1.59
-4.18
-7.61
-11.11
-13.73
-14.73
-13.86
-11.34
-7.64
-3.24
1.50
6.22
10.47
13.65
15.26
15.10
13.39
10.69
7.63
4.66
1.93
-0.60
-2.92
-4.90
-6.24
-6.64
-6.00
-4.47
-2.44
-0.38
1.32
2.42
2.87
2.70
1.98
0.78
-0.75
-2.41
-3.87
-4.80
-4.89
-3.99
-2.19
0.12
2.35
3.93
4.50
4.06
2.94
1.58
0.29
-0.86
-2.04
-3.35
-4.70
-5.75
-6.07
-5.40
-3.88
-1.98
-0.37
0.48
0.45
-0.24
-1.14
-1.91
-2.39
-2.63
-2.78
-2.92
-2.98
-2.81
-2.28
-1.35
-0.14
1.12
2.21
2.95
3.30
3.30
3.11
2.93
2.91
3.09
3.34
3.39
3.01
2.13
0.92
-0.28
-1.10
-1.36
-1.10
-0.53
0.16
0.81
1.41
1.94
2.37
2.59
2.52
2.18
1.71
1.29
1.07
1.02
1.04
0.97
0.78
0.56
0.47
0.66
1.09
1.58
1.89
1.81
1.30
0.51
-0.34
-1.04
-1.48
-1.67
-1.73
-1.75
-1.81
-1.88
-1.93
-1.94
-1.97
-2.11
-2.42
-2.86
-3.22
-3.24
-2.71
-1.68
-0.44
0.53
0.82
0.35
-0.59
-1.40
-1.53
-0.67
1.03
3.12
5.05
6.41
7.06
7.10
6.76
6.22
5.60
4.95
4.29
3.62
2.93
2.19
1.39
0.57
-0.17
-0.71
-1.00
-1.11
-1.23
-1.56
-2.17
-2.97
-3.71
-4.09
-3.94
-3.26
-2.19
-0.89
0.51
1.89
3.09
3.85
3.85
2.93
1.22
-0.83
-2.59
-3.55
-3.55
-2.83
-1.89
-1.20
-0.93
-0.98
-1.07
-1.01
-0.79
-0.56
-0.53
-0.75
-1.11
-1.44
-1.56
-1.47
-1.32
-1.32
-1.59
-2.11
-2.69
-3.11
-3.19
-2.90
-2.37
-1.77
-1.27
-0.99
-0.94
-1.06
-1.25
-1.39
-1.39
-1.23
-0.91
-0.46
0.05
0.64
1.28
1.97
2.67
3.29
3.71
3.79
3.49
2.87
2.08
1.32
0.74
0.40
0.24
0.15
-0.00
-0.27
-0.64
-1.08
-1.54
-2.02
-2.48
-2.86
-3.05
-2.91
-2.39
-1.54
-0.54
0.38
1.03
1.38
1.47
1.46
1.45
1.51
1.62
1.72
1.76
1.71
1.58
1.44
1.31
1.15
0.89
0.47
-0.07
-0.58
-0.87
-0.75
-0.20
0.60
1.37
1.79
1.69
1.12
0.26
-0.62
-1.29
-1.67
-1.79
-1.75
-1.69
-1.68
-1.71
-1.72
-1.64
-1.44
-1.12
-0.72
-0.28
0.19
0.71
1.30
1.94
2.59
3.18
3.68
4.06
4.33
4.49
4.47
4.20
3.61
2.69
1.57
0.44
-0.47
-0.99
-1.10
-0.87
-0.46
-0.02
0.33
0.56
0.64
0.56
0.31
-0.12
-0.68
-1.25
-1.66
-1.80
-1.60
-1.17
-0.69
-0.40
-0.43
-0.78
-1.30
-1.77
-2.00
-1.91
-1.54
-1.04
-0.59
-0.32
-0.27
-0.40
-0.63
-0.85
-1.02
-1.10
-1.09
-1.01
-0.87
-0.70
-0.55
-0.49
-0.59
-0.88
-1.31
-1.78
-2.17
-2.41
-2.51
-2.52
-2.48
-2.42
-2.29
-2.07
-1.76
-1.40
-1.07
-0.83
-0.68
-0.57
-0.47
-0.34
-0.20
-0.12
-0.14
-0.29
-0.56
-0.91
-1.27
-1.56
-1.66
-1.50
-1.01
-0.22
0.75
1.69
2.41
2.76
2.72
2.35
1.78
1.08
0.36
-0.32
-0.85
-1.12
-1.02
-0.53
0.25
1.14
1.90
2.34
2.41
2.14
1.72
1.34
1.15
1.19
1.40
1.69
1.96
2.22
2.49
2.79
3.01
3.01
2.65
1.93
1.01
0.18
-0.31
-0.34
0.01
0.50
0.92
1.12
1.07
0.85
0.52
0.18
-0.12
-0.32
-0.37
-0.20
0.23
0.86
1.60
2.31
2.83
3.05
2.91
2.41
1.65
0.79
0.06
-0.35
-0.26
0.39
1.58
3.15
4.81
6.22
7.06
7.15
6.49
5.27
3.78
2.29
0.94
-0.26
-1.33
-2.26
-2.97
-3.33
-3.27
-2.82
-2.14
-1.38
-0.67
-0.03
0.54
0.99
1.26
1.24
0.91
0.36
-0.28
-0.88
-1.44
-2.04
-2.78
-3.66
-4.55
-5.23
-5.46
-5.15
-4.38
-3.37
-2.36
-1.51
-0.86
-0.33
0.17
0.69
1.16
1.46
1.50
1.28
0.89
0.46
0.02
-0.52
-1.34
-2.54
-4.04
-5.51
-6.52
-6.71
-6.02
-4.69
-3.13
-1.74
-0.70
0.03
0.57
0.99
1.22
1.14
0.65
-0.16
-1.05
-1.77
-2.13
-2.10
-1.76
-1.22
-0.59
0.10
0.81
1.47
2.00
2.35
2.55
2.65
2.73
2.78
2.74
2.54
2.14
1.58
0.99
0.49
0.22
0.25
0.57
1.10
1.70
2.22
2.54
2.64
2.59
2.52
2.52
2.66
2.88
3.10
3.22
3.23
3.12
2.99
2.87
2.80
2.73
2.55
2.18
1.59
0.83
0.08
-0.50
-0.79
-0.81
-0.71
-0.69
-0.88
-1.32
-1.88
-2.40
-2.72
-2.79
-2.59
-2.11
-1.34
-0.24
1.10
2.41
3.34
3.53
2.86
1.51
-0.08
-1.46
-2.36
-2.77
-2.90
-2.92
-2.89
-2.65
-2.03
-1.00
0.22
1.24
1.70
1.45
0.62
-0.50
-1.54
-2.27
-2.62
-2.67
-2.56
-2.39
-2.24
-2.08
-1.86
-1.52
-1.07
-0.58
-0.18
-0.03
-0.21
-0.71
-1.35
-1.97
-2.37
-2.50
-2.42
-2.21
-1.99
-1.81
-1.65
-1.50
-1.33
-1.15
-1.01
-0.93
-0.92
-0.94
-0.98
-1.01
-1.06
-1.13
-1.24
-1.37
-1.47
-1.49
-1.38
-1.14
-0.81
-0.45
-0.16
0.06
0.23
0.42
0.69
1.08
1.53
1.96
2.28
2.49
2.67
2.94
3.41
4.07
4.83
5.54
6.03
6.22
6.11
5.75
5.16
4.34
3.25
1.84
0.14
-1.69
-3.45
-4.88
-5.81
-6.20
-6.08
-5.54
-4.70
-3.66
-2.52
-1.43
-0.54
0.02
0.24
0.17
-0.06
-0.32
-0.56
-0.74
-0.84
-0.77
-0.40
0.41
1.65
3.12
4.53
5.50
5.78
5.30
4.16
2.64
1.05
-0.33
-1.32
-1.91
-2.16
-2.23
-2.24
-2.26
-2.34
-2.43
-2.48
-2.41
-2.20
-1.81
-1.29
-0.76
-0.37
-0.25
-0.41
-0.72
-0.96
-0.93
-0.53
0.15
0.87
1.42
1.65
1.60
1.41
1.22
1.12
1.06
0.96
0.76
0.51
0.31
0.24
0.34
0.52
0.70
0.79
0.78
0.68
0.56
0.44
0.35
0.30
0.31
0.38
0.50
0.59
0.59
0.46
0.22
-0.04
-0.25
-0.40
-0.52
-0.71
-1.04
-1.55
-2.22
-2.94
-3.62
-4.11
-4.33
-4.21
-3.77
-3.13
-2.50
-2.11
-2.15
-2.66
-3.51
-4.44
-5.17
-5.53
-5.57
-5.46
-5.47
-5.83
-6.65
-7.93
-9.56
-11.35
-12.99
-14.07
-14.18
-12.99
-10.49
-7.03
-3.26
0.08
2.39
3.44
3.33
2.46
1.33
0.37
-0.15
-0.12
0.42
1.36
2.52
3.71
4.68
5.24
5.27
4.80
4.01
3.21
2.71
2.70
3.19
4.02
4.94
5.76
6.42
6.97
7.48
8.01
8.49
8.84
9.01
9.06
9.13
9.36
9.80
10.31
10.69
10.76
10.49
10.00
9.51
9.21
9.17
9.36
9.63
9.83
9.84
9.60
9.08
8.32
7.33
6.09
4.62
2.92
1.04
-0.86
-2.57
-3.92
-4.74
-4.93
-4.38
-2.95
-0.54
2.76
6.51
9.89
11.88
11.72
9.28
5.24
0.85
-2.66
-4.59
-5.05
-4.73
-4.46
-4.72
-5.42
-6.10
-6.28
-5.83
-5.10
-4.69
-5.13
-6.53
-8.54
-10.55
-11.98
-12.50
-12.18
-11.37
-10.49
-9.82
-9.39
-9.03
-8.43
-7.40
-5.93
-4.23
-2.62
-1.40
-0.73
-0.52
-0.52
-0.42
-0.01
0.67
1.43
2.01
2.21
2.05
1.68
1.30
1.07
1.05
1.26
1.70
2.40
3.34
4.45
5.57
6.49
7.06
7.21
6.99
6.50
5.85
5.12
4.40
3.75
3.23
2.87
2.63
2.46
2.29
2.11
1.92
1.73
1.51
1.23
0.84
0.37
-0.13
-0.56
-0.91
-1.16
-1.39
-1.63
-1.93
-2.26
-2.61
-2.95
-3.30
-3.67
-4.06
-4.44
-4.76
-4.96
-5.01
-4.93
-4.74
-4.49
-4.20
-3.87
-3.50
-3.09
-2.69
-2.32
-2.01
-1.72
-1.41
-1.04
-0.64
-0.24
0.08
0.34
0.57
0.83
1.18
1.60
1.99
2.24
2.29
2.14
1.87
1.60
1.44
1.44
1.56
1.75
1.93
2.05
2.10
2.13
2.17
2.23
2.28
2.25
2.07
1.72
1.28
0.85
0.55
0.45
0.56
0.79
1.03
1.17
1.13
0.90
0.54
0.14
-0.20
-0.37
-0.32
-0.02
0.45
0.95
1.29
1.34
1.04
0.48
-0.16
-0.68
-0.98
-1.08
-1.13
-1.23
-1.44
-1.68
-1.85
-1.86
-1.73
-1.53
-1.37
-1.26
-1.20
-1.09
-0.90
-0.63
-0.34
-0.14
-0.11
-0.21
-0.33
-0.31
-0.04
0.47
1.11
1.64
1.88
1.79
1.48
1.16
1.00
1.06
1.25
1.41
1.41
1.21
0.89
0.59
0.40
0.40
0.57
0.85
1.19
1.55
1.93
2.34
2.73
3.03
3.17
3.06
2.70
2.17
1.61
1.20
1.03
1.14
1.42
1.74
1.98
2.06
1.99
1.79
1.47
1.00
0.31
-0.58
-1.59
-2.49
-3.03
-3.07
-2.62
-1.87
-1.10
-0.52
-0.22
-0.09
0.02
0.26
0.67
1.13
1.49
1.61
1.46
1.18
0.94
0.89
1.03
1.24
1.30
1.05
0.47
-0.29
-0.98
-1.40
-1.52
-1.46
-1.48
-1.80
-2.48
-3.37
-4.16
-4.55
-4.36
-3.62
-2.57
-1.54
-0.84
-0.59
-0.75
-1.19
-1.71
-2.08
-1.97
-1.03
0.91
3.69
6.66
8.90
9.54
8.27
5.54
2.37
-0.08
-1.09
-0.70
0.43
1.44
1.74
1.28
0.45
-0.31
-0.77
-1.05
-1.45
-2.21
-3.31
-4.44
-5.21
-5.36
-4.94
-4.28
-3.79
-3.78
-4.27
-5.03
-5.71
-5.98
-5.76
-5.15
-4.45
-3.94
-3.79
-3.98
-4.31
-4.55
-4.50
-4.17
-3.68
-3.21
-2.88
-2.74
-2.74
-2.78
-2.79
-2.75
-2.68
-2.58
-2.47
-2.38
-2.38
-2.56
-2.95
-3.45
-3.85
-3.89
-3.37
-2.28
-0.83
0.63
1.74
2.26
2.09
1.26
-0.11
-1.92
-4.01
-6.14
-7.92
-8.87
-8.56
-6.79
-3.73
0.08
3.92
7.17
9.45
10.75
11.28
11.32
11.06
10.57
9.86
8.96
8.00
7.18
6.69
6.58
6.78
7.05
7.13
6.82
6.08
5.00
3.77
2.58
1.54
0.65
-0.15
-0.91
-1.61
-2.19
-2.47
-2.24
-1.33
0.27
2.32
4.40
5.99
6.73
6.57
5.79
4.80
3.95
3.36
2.89
2.34
1.64
0.88
0.22
-0.21
-0.44
-0.63
-0.94
-1.41
-1.94
-2.39
-2.67
-2.77
-2.76
-2.71
-2.66
-2.63
-2.62
-2.66
-2.80
-3.00
-3.16
-3.11
-2.74
-2.06
-1.26
-0.59
-0.26
-0.32
-0.61
-0.93
-1.12
-1.16
-1.17
-1.29
-1.58
-1.96
-2.31
-2.50
-2.48
-2.29
-2.04
-1.85
-1.84
-2.07
-2.51
-3.07
-3.64
-4.09
-4.38
-4.52
-4.58
-4.59
-4.53
-4.34
-4.02
-3.63
-3.36
-3.37
-3.75
-4.42
-5.16
-5.75
-6.05
-6.10
-6.03
-6.05
-6.23
-6.51
-6.67
-6.45
-5.68
-4.36
-2.62
-0.69
1.23
3.00
4.54
5.80
6.72
7.23
7.29
6.95
6.35
5.63
4.97
4.46
4.12
3.94
3.86
3.78
3.61
3.28
2.74
2.06
1.35
0.79
0.51
0.58
0.93
1.43
1.90
2.18
2.23
2.12
2.01
2.05
2.31
2.70
3.07
3.27
3.20
2.88
2.42
1.93
1.50
1.19
1.04
1.10
1.37
1.79
2.25
2.59
2.76
2.83
2.98
3.34
3.90
4.46
4.67
4.30
3.31
1.95
0.56
-0.52
-1.19
-1.53
-1.74
-1.95
-2.14
-2.20
-2.01
-1.58
-1.05
-0.63
-0.45
-0.50
-0.66
-0.77
-0.76
-0.62
-0.45
-0.31
-0.20
-0.05
0.15
0.37
0.47
0.34
-0.09
-0.72
-1.41
-1.95
-2.25
-2.26
-2.03
-1.59
-1.00
-0.30
0.38
0.90
1.12
0.95
0.46
-0.20
-0.79
-1.08
-0.96
-0.41
0.45
1.40
2.18
2.56
2.40
1.74
0.72
-0.40
-1.37
-2.08
-2.53
-2.80
-2.99
-3.13
-3.16
-2.99
-2.58
-1.97
-1.34
-0.90
-0.79
-1.03
-1.50
-2.03
-2.46
-2.71
-2.78
-2.70
-2.50
-2.23
-1.92
-1.67
-1.55
-1.58
-1.68
-1.71
-1.53
-1.10
-0.51
0.02
0.35
0.42
0.33
0.27
0.35
0.59
0.89
1.11
1.14
0.98
0.70
0.44
0.29
0.27
0.36
0.48
0.56
0.55
0.44
0.25
-0.00
-0.26
-0.47
-0.64
-0.79
-0.95
-1.16
-1.41
-1.65
-1.78
-1.74
-1.54
-1.26
-1.05
-1.03
-1.21
-1.55
-1.90
-2.15
-2.23
-2.10
-1.84
-1.50
-1.15
-0.82
-0.56
-0.36
-0.22
-0.12
-0.02
0.14
0.42
0.84
1.33
1.79
2.10
2.16
1.98
1.64
1.25
0.92
0.68
0.52
0.42
0.33
0.25
0.18
0.10
-0.01
-0.15
-0.36
-0.59
-0.82
-0.97
-0.97
-0.78
-0.44
-0.01
0.34
0.47
0.33
-0.02
-0.46
-0.82
-0.99
-0.94
-0.71
-0.34
0.09
0.51
0.83
0.94
0.83
0.55
0.24
0.04
0.03
0.20
0.44
0.62
0.66
0.59
0.47
0.39
0.40
0.49
0.58
0.61
0.54
0.36
0.11
-0.14
-0.35
-0.49
-0.57
-0.62
-0.65
-0.67
-0.64
-0.60
-0.55
-0.56
-0.64
-0.79
-0.94
-1.03
-1.02
-0.92
-0.75
-0.55
-0.33
-0.11
0.10
0.27
0.39
0.46
0.50
0.56
0.68
0.80
0.88
0.85
0.70
0.51
0.41
0.46
0.65
0.91
1.07
1.06
0.89
0.66
0.52
0.53
0.65
0.75
0.67
0.38
-0.06
-0.48
-0.76
-0.84
-0.80
-0.77
-0.85
-1.07
-1.34
-1.55
-1.64
-1.57
-1.37
-1.08
-0.73
-0.33
0.10
0.49
0.78
0.91
0.91
0.82
0.72
0.68
0.68
0.69
0.64
0.53
0.40
0.34
0.39
0.56
0.74
0.82
0.72
0.49
0.23
0.09
0.15
0.37
0.62
0.76
0.69
0.42
0.02
-0.38
-0.67
-0.77
-0.67
-0.39
-0.01
0.42
0.78
1.00
1.02
0.84
0.49
0.06
-0.36
-0.71
-0.94
-1.05
-1.03
-0.90
-0.66
-0.36
-0.05
0.21
0.38
0.42
0.34
0.15
-0.11
-0.40
-0.67
-0.85
-0.91
-0.84
-0.69
-0.49
-0.30
-0.15
-0.05
-0.00
0.02
0.04
0.07
0.14
0.26
0.46
0.69
0.92
1.07
1.12
1.05
0.90
0.71
0.55
0.45
0.42
0.47
0.56
0.68
0.82
0.97
1.11
1.22
1.25
1.19
1.03
0.82
0.60
0.44
0.35
0.31
0.23
0.06
-0.23
-0.60
-0.96
-1.24
-1.37
-1.38
-1.29
-1.19
-1.11
-1.08
-1.08
-1.09
-1.06
-0.96
-0.78
-0.53
-0.26
-0.01
0.16
0.26
0.32
0.39
0.53
0.75
0.98
1.14
1.14
0.95
0.60
0.19
-0.16
-0.35
-0.31
-0.05
0.34
0.74
1.04
1.17
1.14
1.05
1.02
1.12
1.34
1.58
1.72
1.67
1.43
1.05
0.62
0.19
-0.19
-0.49
-0.67
-0.71
-0.62
-0.45
-0.30
-0.28
-0.44
-0.74
-1.14
-1.54
-1.90
-2.20
-2.40
-2.49
-2.39
-2.11
-1.65
-1.14
-0.68
-0.36
-0.23
-0.24
-0.29
-0.32
-0.29
-0.20
-0.07
0.08
0.27
0.49
0.74
0.96
1.08
1.06
0.86
0.56
0.27
0.11
0.16
0.43
0.83
1.24
1.56
1.71
1.69
1.53
1.30
1.04
0.79
0.55
0.35
0.20
0.11
0.10
0.13
0.13
0.02
-0.25
-0.67
-1.15
-1.57
-1.80
-1.82
-1.61
-1.24
-0.78
-0.30
0.15
0.54
0.85
1.04
1.11
1.05
0.90
0.71
0.56
0.48
0.52
0.62
0.74
0.78
0.71
0.56
0.43
0.40
0.49
0.66
0.82
0.89
0.85
0.72
0.55
0.33
0.00
-0.47
-1.08
-1.71
-2.19
-2.40
-2.32
-2.07
-1.81
-1.72
-1.83
-2.06
-2.25
-2.25
-1.99
-1.53
-0.96
-0.44
-0.02
0.26
0.42
0.53
0.63
0.76
0.93
1.19
1.50
1.82
2.07
2.22
2.24
2.16
2.01
1.84
1.67
1.51
1.40
1.38
1.46
1.59
1.73
1.77
1.68
1.43
1.08
0.71
0.40
0.20
0.10
0.06
-0.01
-0.19
-0.52
-0.97
-1.45
-1.83
-2.04
-2.11
-2.11
-2.16
-2.29
-2.48
-2.64
-2.71
-2.69
-2.57
-2.37
-2.05
-1.57
-0.90
-0.10
0.69
1.30
1.62
1.68
1.61
1.57
1.69
1.95
2.23
2.37
2.30
2.08
1.86
1.77
1.87
2.09
2.28
2.33
2.22
2.02
1.83
1.74
1.77
1.86
1.93
1.90
1.72
1.37
0.91
0.41
-0.04
-0.39
-0.62
-0.81
-1.00
-1.25
-1.54
-1.83
-2.08
-2.27
-2.41
-2.52
-2.58
-2.56
-2.40
-2.08
-1.62
-1.09
-0.58
-0.14
0.22
0.50
0.72
0.88
0.98
1.04
1.14
1.32
1.62
1.99
2.31
2.44
2.33
2.01
1.63
1.33
1.20
1.22
1.32
1.43
1.49
1.49
1.42
1.26
1.01
0.66
0.24
-0.18
-0.54
-0.83
-1.11
-1.45
-1.91
-2.43
-2.92
-3.26
-3.36
-3.24
-2.97
-2.64
-2.32
-2.03
-1.74
-1.42
-1.04
-0.59
-0.09
0.43
0.93
1.36
1.69
1.90
2.02
2.09
2.17
2.28
2.39
2.45
2.42
2.27
1.96
1.41
0.56
-0.66
-2.16
-3.72
-4.97
-5.54
-5.19
-3.96
-2.09
0.05
2.17
4.11
5.85
7.40
8.69
9.58
9.89
9.56
8.74
7.74
6.90
6.49
6.59
7.08
7.71
8.23
8.44
8.24
7.55
6.30
4.40
1.85
-1.16
-4.24
-6.83
-8.40
-8.67
-7.72
-5.95
-3.95
-2.24
-1.16
-0.79
-1.00
-1.55
-2.20
-2.74
-3.06
-3.20
-3.31
-3.60
-4.20
-5.07
-6.02
-6.73
-6.94
-6.54
-5.62
-4.41
-3.17
-2.09
-1.26
-0.68
-0.30
-0.11
-0.10
-0.28
-0.60
-0.94
-1.15
-1.06
-0.63
0.07
0.80
1.26
1.23
0.65
-0.34
-1.46
-2.41
-3.01
-3.22
-3.17
-3.03
-2.93
-2.92
-2.95
-2.97
-2.93
-2.83
-2.70
-2.52
-2.24
-1.75
-0.99
0.04
1.28
2.57
3.77
4.78
5.57
6.19
6.69
7.10
7.39
7.47
7.27
6.75
5.98
5.11
4.37
3.94
3.94
4.37
5.23
6.47
8.05
9.86
11.67
13.15
13.99
14.02
13.31
12.17
10.95
9.91
9.02
8.00
6.46
4.10
0.91
-2.80
-6.39
-9.22
-10.76
-10.82
-9.58
-7.49
-5.13
-3.04
-1.60
-0.97
-1.15
-1.97
-3.25
-4.69
-6.03
-6.96
-7.30
-6.94
-5.94
-4.51
-2.98
-1.71
-0.96
-0.80
-1.11
-1.61
-1.98
-2.04
-1.72
-1.14
-0.47
0.14
0.59
0.87
1.03
1.10
1.10
1.03
0.89
0.68
0.46
0.29
0.22
0.27
0.41
0.54
0.53
0.29
-0.17
-0.77
-1.35
-1.75
-1.87
-1.70
-1.35
-0.95
-0.64
-0.50
-0.52
-0.63
-0.72
