1545329002.00
64.000000
-0.00
-0.00
-0.00
-0.00
-0.00
-0.00
-0.00
-0.00
-0.00
-0.00
0.00
0.01
0.01
-0.00
-0.03
-0.05
-0.05
0.00
0.13
0.36
0.66
1.01
1.37
1.72
2.06
2.40
2.79
3.24
3.80
4.42
5.06
5.66
6.20
6.68
7.15
7.68
8.31
9.14
10.09
11.04
11.88
12.56
13.14
13.76
14.65
15.96
17.91
20.32
22.90
25.38
27.58
29.57
31.68
34.32
37.81
42.54
48.15
54.10
59.83
64.97
69.58
74.14
79.34
85.71
93.76
103.00
112.62
121.73
129.77
136.75
143.30
150.75
157.77
166.64
177.95
191.79
206.97
220.57
228.25
225.36
208.53
176.87
132.76
80.05
23.07
-34.94
-92.44
-149.16
-205.23
-260.37
-313.74
-363.87
-409.83
-450.91
-486.50
-515.74
-537.23
-549.22
-549.96
-538.37
-514.20
-478.67
-433.87
-382.43
-326.98
-269.78
-212.54
-156.54
-102.79
-52.17
-5.66
35.87
71.76
101.73
125.92
144.84
159.19
169.68
176.94
181.36
183.23
182.78
180.29
176.09
170.60
164.22
157.30
150.09
142.73
135.28
127.80
120.31
112.89
105.60
98.51
91.69
85.15
78.92
73.02
67.44
62.19
57.30
52.76
48.58
44.75
41.27
38.13
35.34
32.87
30.73
28.91
27.40
26.19
25.29
24.69
24.39
24.37
24.62
25.11
25.78
26.58
27.38
28.07
28.48
28.44
27.79
26.41
24.21
21.18
17.41
13.02
8.30
3.58
-0.77
-4.36
-6.84
-7.97
-7.63
-5.83
-2.77
1.24
5.79
10.40
14.63
18.13
20.65
22.08
22.49
22.04
21.01
19.66
18.27
17.06
16.22
15.83
15.91
16.39
17.19
18.19
19.21
20.09
20.76
21.20
21.44
21.58
21.77
22.22
23.17
24.68
26.85
29.80
33.58
38.20
43.60
49.70
56.42
63.73
71.34
79.04
86.72
94.27
101.59
108.60
115.28
121.65
127.86
133.67
138.93
143.49
147.08
149.26
149.42
146.77
140.31
131.87
122.26
112.09
101.86
91.79
81.81
71.70
61.25
50.45
39.72
29.43
20.25
12.84
7.51
4.06
1.97
0.63
-0.19
-0.15
1.23
4.59
10.16
17.26
24.24
28.76
28.53
22.06
9.11
-9.59
-32.64
-58.72
-87.24
-118.49
-153.48
-193.55
-240.18
-294.61
-357.27
-426.57
-497.99
-564.14
-616.28
-646.96
-652.70
-635.29
-600.88
-557.52
-512.12
-468.72
-428.38
-390.52
-354.37
-319.52
-285.70
-252.08
-217.08
-178.79
-136.04
-89.08
-39.57
9.96
57.24
101.20
142.22
181.84
222.27
265.55
312.84
363.65
415.47
464.04
504.29
532.00
545.23
544.84
533.87
515.97
493.78
468.16
438.78
405.29
368.53
330.73
294.71
262.67
235.38
212.23
192.01
173.96
158.25
145.83
137.84
134.77
136.18
140.69
146.41
151.50
154.54
154.76
151.90
146.05
137.41
126.27
112.86
97.53
80.84
63.50
46.26
29.77
14.46
0.48
-12.22
-23.74
-34.19
-43.63
-51.97
-59.04
-64.54
-68.15
-69.48
-68.23
-64.31
-57.98
-50.03
-41.68
-34.43
-29.67
-28.33
-30.66
-36.18
-44.02
-53.29
-63.53
-74.82
-87.64
-102.51
-119.47
-137.92
-156.71
-174.52
-190.42
-204.21
-216.48
-228.41
-241.51
-257.35
-277.29
-301.94
-330.39
-359.71
-385.12
-401.18
-403.69
-391.40
-366.73
-334.92
-301.99
-272.51
-248.39
-229.05
-212.77
-198.39
-186.21
-177.84
-175.27
-179.74
-191.08
-207.89
-228.07
-249.60
-271.09
-291.77
-311.23
-328.98
-344.34
-356.44
-364.39
-367.50
-365.23
-357.17
-342.84
-321.88
-294.43
-261.39
-224.39
-185.51
-146.49
-108.27
-70.87
-33.83
3.11
39.41
73.91
105.40
133.38
158.66
183.12
208.96
237.91
270.84
307.53
346.66
385.59
420.29
445.95
458.18
454.71
436.60
408.17
375.58
344.37
317.26
293.21
268.28
237.85
198.98
152.06
100.95
51.75
10.76
-17.29
-30.33
-29.29
-17.34
0.97
20.63
36.50
43.74
38.34
17.87
-17.60
-64.50
-115.47
-160.63
-190.38
-198.96
-187.06
-161.95
-134.68
-115.50
-109.50
-114.77
-124.13
-129.05
-123.78
-107.29
-82.54
-53.77
-23.97
6.26
38.14
72.88
109.64
144.14
168.57
173.85
153.05
105.12
36.46
-40.72
-112.91
-170.37
-210.39
-236.80
-256.24
-273.72
-290.01
-302.19
-306.49
-301.37
-288.62
-272.29
-256.23
-242.13
-229.11
-214.81
-197.04
-175.15
-150.46
-125.49
-102.72
-83.45
-67.34
-52.63
-37.04
-18.81
2.56
26.21
50.34
72.86
92.11
107.21
118.20
125.80
131.08
135.17
139.02
143.27
148.25
154.12
160.91
168.83
178.23
189.66
203.61
220.33
239.80
261.93
287.09
316.10
349.76
387.88
428.43
467.50
500.33
522.99
533.67
532.99
522.93
505.38
481.29
451.00
415.36
376.86
339.54
307.65
283.72
267.22
254.77
241.67
223.91
199.76
170.02
137.49
105.63
77.57
55.57
40.95
34.21
35.02
42.15
53.48
66.27
77.62
85.05
86.77
81.80
69.58
49.57
21.07
-17.02
-66.22
-128.41
-205.22
-296.71
-399.86
-507.69
-609.93
-695.58
-756.36
-789.37
-797.72
-788.54
-769.64
-746.40
-720.73
-691.85
-658.38
-620.01
-577.82
-533.55
-488.44
-442.73
-396.00
-348.01
-299.41
-251.75
-207.16
-167.44
-133.35
-104.47
-79.39
-56.40
-34.15
-12.06
9.59
29.97
48.24
64.00
77.45
89.38
100.81
112.60
125.16
138.30
151.43
163.92
175.63
187.03
199.06
212.35
226.53
239.97
250.34
255.71
255.70
251.84
247.12
244.84
247.52
256.52
272.08
293.49
319.08
346.05
370.49
388.10
395.34
390.54
374.46
349.91
320.78
290.89
263.10
238.70
217.18
196.61
174.52
149.06
120.01
89.03
58.83
31.91
9.40
-9.09
-24.73
-38.49
-50.66
-61.23
-70.50
-79.47
-89.47
-101.25
-114.12
-125.97
-134.03
-136.10
-131.44
-121.08
-107.44
-93.42
-81.47
-72.88
-67.50
-64.04
-60.90
-57.02
-52.40
-48.00
-44.98
-43.77
-43.51
-42.25
-37.80
-28.81
-15.51
0.33
16.24
30.05
40.66
48.09
53.15
56.88
60.33
64.46
70.17
78.08
88.02
98.87
108.84
116.47
121.76
126.74
134.81
148.90
169.45
193.38
215.03
228.48
230.27
220.85
203.93
184.29
165.47
148.42
132.03
114.81
96.41
78.11
62.03
49.72
41.13
34.67
28.12
19.86
9.57
-1.93
-13.33
-23.58
-32.27
-39.48
-45.49
-50.56
-54.84
-58.52
-61.86
-65.07
-68.17
-70.80
-72.41
-72.55
-71.27
-69.25
-67.61
-67.35
-68.85
-71.68
-74.74
-76.83
-77.18
-75.61
-72.48
-68.19
-63.03
-57.28
-51.66
-47.51
-46.24
-48.45
-52.94
-56.79
-56.52
-49.94
-37.65
-23.12
-11.16
-5.63
-7.65
-15.38
-25.33
-34.27
-40.75
-45.39
-50.04
-56.41
-65.08
-75.23
-85.08
-92.64
-96.54
-96.42
-92.85
-86.92
-79.72
-72.02
-64.25
-56.67
-49.67
-43.82
-39.69
-37.46
-36.67
-36.33
-35.14
-32.01
-26.43
-18.60
-9.27
0.41
9.43
17.08
23.11
27.61
30.76
32.67
33.39
33.05
31.98
30.67
29.53
28.70
27.91
26.69
24.49
20.92
15.73
8.69
-0.33
-11.17
-23.23
-35.32
-45.74
-52.62
-54.32
-49.91
-39.46
-23.93
-5.15
14.47
32.34
46.44
55.81
60.81
62.83
63.45
63.89
64.64
65.16
64.34
61.20
55.36
47.43
38.71
30.63
24.48
21.61
22.48
26.72
33.58
42.28
52.44
64.07
76.83
90.60
106.16
123.47
141.66
159.36
175.11
188.01
197.84
203.86
206.86
210.15
216.49
227.38
242.76
261.09
280.12
297.70
311.48
323.25
340.64
371.96
423.20
495.08
582.02
674.05
760.38
831.40
865.60
851.10
783.90
669.21
520.32
354.65
189.10
49.66
-60.84
-145.45
-205.91
-244.71
-265.28
-272.17
-271.58
-267.72
-263.36
-262.08
-264.14
-266.65
-267.21
-264.63
-259.03
-251.51
-243.21
-235.13
-229.34
-225.57
-221.53
-215.31
-205.92
-193.41
-178.67
-162.85
-147.18
-133.58
-122.39
-112.59
-103.16
-93.40
-83.09
-72.58
-62.46
-53.53
-46.92
-42.96
-41.21
-41.01
-41.78
-43.18
-45.32
-48.59
-53.71
-61.46
-72.05
-85.07
-99.60
-114.47
-128.66
-141.64
-153.61
-165.44
-178.27
-193.00
-209.79
-227.88
-245.80
-261.98
-275.51
-286.86
-298.15
-312.67
-333.68
-362.58
-397.59
-433.38
-462.31
-476.80
-471.97
-447.26
-406.46
-356.24
-303.73
-254.66
-212.35
-177.65
-149.51
-125.48
-102.61
-78.48
-52.44
-26.33
-4.08
10.07
14.24
10.93
6.83
10.19
26.53
55.25
88.87
115.87
125.66
113.14
80.79
37.11
-7.26
-43.85
-68.73
-82.49
-88.34
-89.73
-89.02
-87.58
-86.45
-86.93
-90.30
-96.94
-105.65
-113.72
-117.81
-115.35
-105.48
-89.07
-68.06
-44.54
-20.16
3.87
26.65
47.38
65.58
81.20
94.62
106.44
117.10
126.63
134.69
140.84
144.70
145.97
144.38
139.68
131.84
121.27
108.91
95.87
83.03
70.63
58.34
45.70
32.61
19.60
7.65
-2.24
-9.55
-14.43
-17.78
-20.80
-24.48
-29.28
-34.90
-40.42
-44.69
-46.62
-45.63
-41.94
-36.20
-29.23
-21.68
-13.99
-6.66
-0.23
4.63
7.62
8.78
9.00
9.82
12.67
18.08
25.37
32.83
38.53
40.99
38.37
29.31
13.30
-8.86
-34.58
-59.49
-78.45
-87.39
-84.96
-75.08
-64.51
-60.35
-66.93
-84.08
-107.70
-131.93
-152.22
-167.34
-181.62
-201.00
-229.42
-266.43
-307.05
-344.16
-371.33
-385.16
-372.48
-326.23
-245.55
-136.83
-12.37
113.69
229.14
325.91
399.79
449.79
475.31
477.75
460.81
429.96
392.62
353.33
314.62
277.27
240.72
201.93
157.32
104.99
46.37
-13.12
-65.29
-101.27
-114.93
-105.34
-74.35
-29.53
20.71
70.60
118.00
162.24
201.52
231.14
244.72
236.88
206.65
159.42
105.01
53.90
13.76
-11.13
-19.25
-10.81
12.14
44.25
76.51
97.25
95.54
65.93
11.90
-54.12
-114.49
-152.18
-156.68
-126.61
-69.42
1.41
70.60
124.80
155.09
157.95
134.58
89.05
26.33
-48.86
-131.80
-216.72
-295.86
-360.14
-401.53
-416.17
-406.45
-380.10
-346.81
-314.18
-285.24
-258.69
-231.62
-202.67
-173.75
-149.31
-133.88
-129.74
-135.83
-148.60
-163.87
-178.56
-191.34
-202.56
-212.94
-222.63
-230.65
-234.92
-233.17
-223.76
-206.41
-182.43
-154.23
-124.63
-95.97
-69.63
-45.92
-24.39
-4.35
14.66
32.59
48.99
63.31
75.25
85.00
93.37
101.49
110.49
121.16
133.62
147.39
161.65
175.56
188.69
201.13
213.42
226.41
241.08
258.46
279.38
303.99
331.16
358.22
381.21
395.98
399.65
391.68
374.02
350.31
324.30
298.68
274.59
252.04
230.77
210.88
192.86
177.21
163.88
152.16
140.95
129.31
116.91
104.10
91.86
81.18
72.69
66.41
61.71
57.52
52.59
45.73
35.97
22.78
6.25
-12.78
-32.70
-51.51
-67.21
-78.47
-84.86
-86.88
-85.57
-82.12
-77.49
-72.30
-66.98
-61.82
-57.03
-52.69
-48.60
-44.40
-39.66
-34.04
-27.41
-19.94
-11.98
-4.10
3.03
8.75
12.67
14.93
16.37
18.46
22.81
30.45
41.24
53.58
64.90
72.60
74.85
71.22
62.63
50.93
38.72
29.45
27.49
37.44
62.37
101.59
149.21
194.88
226.82
236.01
219.33
180.30
126.89
68.07
10.83
-40.98
-85.90
-123.37
-152.49
-171.77
-179.73
-175.84
-161.18
-138.71
-112.87
-88.75
-70.95
-62.33
-63.55
-72.95
-87.19
-102.10
-113.43
-117.16
-109.95
-90.00
-58.57
-20.94
14.25
37.78
43.80
32.69
11.22
-10.65
-24.49
-27.13
-21.56
-14.30
-11.14
-13.66
-18.68
-20.60
-15.29
-2.84
12.21
23.16
24.59
14.89
-3.46
-25.75
-47.96
-69.03
-90.98
-116.81
-147.71
-180.96
-210.14
-227.65
-228.28
-211.86
-183.60
-151.87
-124.74
-107.16
-99.71
-99.55
-102.55
-105.48
-107.29
-109.13
-113.27
-121.63
-134.40
-149.40
-162.42
-168.48
-163.75
-147.38
-122.32
-94.43
-70.13
-53.51
-44.52
-39.30
-32.47
-20.09
-1.62
20.18
41.08
57.92
70.22
80.10
90.75
104.62
122.58
143.95
167.19
190.49
211.90
229.25
240.18
242.91
237.16
224.78
209.38
195.08
184.82
179.30
176.94
174.97
170.75
162.90
151.35
136.97
120.77
103.61
86.21
69.41
54.28
41.96
33.14
27.69
24.51
21.87
18.13
12.34
4.55
-4.27
-12.74
-19.65
-24.39
-27.13
-28.62
-29.89
-31.85
-34.85
-38.42
-41.13
-41.05
-36.36
-26.32
-11.72
5.06
20.87
32.83
39.36
40.54
37.69
32.63
26.91
21.46
16.84
13.54
12.29
13.92
18.77
26.14
34.21
40.58
43.46
42.72
40.28
39.32
42.75
51.69
64.78
78.73
89.75
95.13
94.05
87.53
77.59
66.35
55.41
45.85
38.36
33.39
31.13
31.31
33.29
36.11
38.78
40.47
40.57
38.73
34.82
28.96
21.42
12.44
1.96
-10.58
-26.10
-45.29
-67.97
-92.49
-115.92
-134.84
-146.57
-150.24
-147.02
-139.48
-130.31
-121.29
-112.81
-104.31
-95.13
-85.28
-75.67
-67.67
-62.43
-60.26
-60.41
-61.48
-61.99
-60.97
-58.25
-54.28
-49.80
-45.44
-41.44
-37.74
-34.09
-30.32
-26.42
-22.61
-19.21
-16.59
-15.09
-14.90
-15.99
-18.04
-20.48
-22.55
-23.47
-22.71
-20.03
-15.49
-9.33
-1.84
6.60
15.50
24.20
31.95
38.09
42.23
44.35
44.78
43.99
42.56
41.00
39.77
39.27
39.69
40.98
42.79
44.56
45.80
46.26
46.01
45.34
44.53
43.66
42.58
41.04
38.87
36.10
32.94
29.67
26.44
23.21
19.85
16.21
12.26
8.13
4.07
0.38
-2.69
-5.02
-6.66
-7.83
-8.79
-9.74
-10.71
-11.54
-11.92
-11.47
-9.86
-6.77
-1.98
4.58
12.71
21.87
31.13
39.37
45.58
49.11
49.81
48.12
44.75
40.58
36.41
32.86
30.29
28.83
28.34
28.50
28.90
29.15
28.97
28.27
27.08
25.62
24.15
23.03
22.56
22.99
24.39
26.67
29.54
32.57
35.29
37.36
38.62
39.13
39.11
38.72
38.04
36.93
35.20
32.67
29.33
25.27
20.73
15.89
10.88
5.82
0.87
-3.84
-8.16
-12.10
-15.79
-19.41
-23.07
-26.75
-30.29
-33.40
-35.79
-37.20
-37.46
-36.56
-34.66
-32.06
-29.12
-26.08
-23.01
-19.83
-16.48
-12.98
-9.56
-6.53
-4.19
-2.75
-2.35
-3.12
-5.18
-8.65
-13.52
-19.71
-27.05
-35.23
-43.74
-51.88
-58.76
-63.59
-65.92
-65.86
-64.10
-61.63
-59.38
-57.94
-57.43
-57.61
-58.05
-58.30
-58.01
-56.98
-55.28
-53.22
-51.31
-50.08
-49.87
-50.70
-52.25
-53.85
-54.75
-54.17
-51.56
-46.77
-40.16
-32.63
-25.49
-20.12
-17.48
-17.81
-20.32
-23.55
-25.79
-25.88
-23.79
-20.66
-18.46
-19.00
-23.10
-30.03
-37.82
-44.15
-47.46
-47.61
-45.85
-44.16
-44.38
-47.53
-53.78
-62.65
-73.08
-83.25
-90.34
-90.93
-82.15
-63.47
-37.69
-10.54
11.38
23.43
24.88
19.00
11.16
6.11
6.01
10.03
15.71
20.75
24.25
26.79
29.57
33.29
37.74
41.98
45.07
46.71
47.42
48.24
50.00
52.78
55.74
57.50
56.86
53.39
47.75
41.39
36.01
32.83
32.25
33.71
36.15
38.35
39.47
39.29
38.11
36.54
35.16
34.18
33.45
32.53
31.02
28.75
25.93
23.00
20.42
18.45
17.08
16.02
14.92
13.52
11.78
9.86
8.07
6.71
5.99
5.95
6.49
7.41
8.43
9.31
9.85
9.99
9.79
9.40
9.03
8.84
8.88
9.07
9.28
9.37
9.27
8.97
8.54
8.03
7.45
6.73
5.77
4.53
3.05
1.44
-0.14
-1.66
-3.14
-4.70
-6.38
-8.03
-9.29
-9.77
-9.22
-7.69
-5.57
-3.41
-1.63
-0.33
0.67
1.70
3.01
4.61
6.38
8.21
10.14
12.48
15.54
19.49
24.18
29.15
33.84
37.83
41.04
43.68
46.16
48.78
51.64
54.60
57.42
59.89
61.98
63.87
65.84
68.18
71.09
74.60
78.63
82.97
87.45
91.96
96.71
102.20
109.22
118.62
131.00
146.45
164.28
183.02
200.51
214.27
222.02
222.24
214.84
201.20
183.79
164.97
146.11
127.16
107.14
84.97
60.26
33.86
7.59
-16.18
-35.33
-48.34
-54.73
-55.15
-51.52
-47.07
-45.36
-49.17
-59.18
-73.96
-90.47
-105.37
-116.27
-122.65
-126.53
-131.26
-140.44
-156.19
-179.56
-210.08
-245.82
-283.37
-318.61
-348.81
-372.38
-389.20
-399.01
-402.97
-402.57
-399.18
-392.78
-382.49
-369.30
-355.32
-343.85
-336.49
-335.23
-340.42
-350.30
-359.81
-362.59
-355.45
-337.50
-310.35
-274.10
-231.13
-184.91
-140.19
-100.71
-55.83
0.93
72.54
138.10
187.49
214.96
224.54
218.33
200.31
176.63
152.52
132.90
120.80
119.72
129.36
147.37
170.11
195.61
222.94
249.49
272.10
286.98
292.95
288.69
273.99
249.90
220.34
191.23
167.97
154.61
152.06
158.93
169.66
176.72
172.94
154.40
120.88
74.57
19.36
-39.74
-95.93
-141.97
-171.16
-179.37
-166.54
-137.44
-100.56
-65.19
-38.46
-23.17
-17.92
-18.74
-21.18
-22.11
-20.82
-18.63
-17.41
-17.70
-17.92
-15.03
-6.49
7.68
24.14
37.52
43.12
39.38
28.57
15.29
3.74
-4.44
-10.53
-17.36
-27.01
-39.35
-52.08
-61.91
-66.38
-65.19
-60.41
-55.69
-54.51
-58.64
-66.96
-76.33
-83.33
-86.41
-87.06
-89.03
-96.31
-111.01
-132.36
-157.62
-183.49
-207.17
-226.41
-238.53
-239.66
-225.34
-192.71
-143.26
-84.15
-26.77
17.37
41.36
45.58
37.22
26.69
23.24
32.11
54.46
89.22
134.79
189.46
249.87
309.60
359.08
388.43
391.38
368.43
326.81
277.38
230.02
189.95
156.24
123.26
84.21
34.74
-24.29
-86.11
-139.86
-173.86
-179.87
-156.14
-108.58
-49.06
8.26
50.96
71.59
68.98
47.73
16.28
-15.28
-37.36
-42.61
-26.69
10.77
66.07
131.69
197.74
253.37
289.02
298.96
283.00
246.40
197.28
142.83
86.34
27.50
-35.42
-102.59
-171.04
-235.68
-291.70
-335.54
-367.58
-392.13
-414.13
-435.35
-453.71
-465.20
-466.89
-458.46
-443.89
-425.41
-403.83
-379.06
-350.21
-316.61
-278.05
-235.14
-188.57
-138.31
-86.37
-34.87
14.37
60.27
102.25
140.22
174.07
204.06
231.53
257.99
284.82
312.75
341.04
367.06
386.73
395.67
392.36
380.56
366.71
357.66
357.65
366.80
381.52
396.61
407.09
411.27
411.82
411.55
411.71
411.17
407.29
397.50
380.48
355.51
311.20
242.65
149.75
37.97
-83.13
-202.91
-312.30
-399.88
-465.83
-512.83
-541.88
-554.42
-552.25
-537.64
-514.45
-485.78
-454.19
-422.54
-392.01
-361.53
-330.04
-296.70
-260.91
-222.42
-180.98
-136.72
-91.13
-45.44
-0.10
44.32
87.98
132.49
180.90
236.50
300.48
369.08
433.91
483.53
506.49
495.30
448.89
372.95
278.57
179.74
90.60
23.19
-15.38
-25.38
-15.20
0.53
5.45
-12.75
-57.79
-123.69
-197.28
-263.56
-311.04
-334.69
-336.15
-321.45
-298.09
-272.67
-249.76
-231.66
-218.92
-211.03
-206.66
-203.85
-199.92
-192.10
-178.38
-158.24
-132.94
-104.99
-77.06
-50.95
-27.04
-4.37
18.56
43.13
69.92
98.69
128.52
158.46
188.07
217.97
250.02
286.54
328.99
376.49
424.95
467.53
496.96
508.14
500.07
476.26
442.65
404.95
366.69
328.85
290.67
251.77
212.83
175.11
140.18
108.53
79.79
53.67
31.04
13.46
3.92
5.09
17.54
40.27
70.00
102.11
132.23
157.50
176.04
188.94
198.68
207.26
216.61
226.93
236.90
245.03
250.87
253.94
256.34
260.75
258.88
243.33
208.17
151.24
76.13
1.05
-65.24
-118.63
-158.78
-188.33
-212.52
-235.53
-261.30
-292.76
-331.00
-376.04
-423.12
-463.43
-485.91
-479.21
-436.70
-360.28
-260.79
-154.67
-59.86
12.05
57.94
82.21
93.93
102.20
112.98
126.16
139.06
148.66
155.35
160.37
164.40
166.94
166.13
159.93
147.47
130.20
110.91
93.16
79.39
70.08
63.91
58.43
51.15
40.61
27.17
12.48
-1.22
-12.25
-20.00
-25.03
-28.62
-32.20
-36.69
-41.99
-47.23
-51.19
-53.05
-52.59
-50.35
-47.49
-45.33
-45.04
-47.15
-51.51
-57.45
-64.13
-70.87
-77.40
-84.01
-91.38
-100.31
-111.37
-124.61
-139.58
-155.56
-171.79
-187.82
-203.60
-219.48
-236.12
-254.47
-275.69
-300.88
-330.32
-362.70
-394.60
-421.03
-436.76
-438.32
-425.48
-401.42
-371.62
-341.69
-315.61
-294.95
-279.43
-267.92
-259.19
-252.00
-244.65
-234.87
-220.24
-199.23
-172.12
-141.09
-109.47
-80.44
-55.78
-35.55
-18.51
-3.10
11.81
26.66
41.40
55.82
69.86
83.48
96.58
108.76
119.35
127.48
132.36
133.58
131.24
126.00
118.90
111.07
103.43
96.51
90.41
84.90
79.72
74.63
69.57
64.63
59.99
55.93
52.74
50.51
48.96
47.33
44.48
39.43
31.89
22.71
13.83
7.54
5.64
8.61
15.35
23.67
31.12
35.85
37.02
34.71
29.48
22.01
12.87
2.61
-8.19
-19.12
-30.24
-42.29
-56.29
-72.43
-88.99
-101.79
-105.16
-93.95
-65.91
-23.03
28.83
82.09
130.03
168.80
197.68
218.02
231.59
239.59
242.69
241.74
238.39
234.89
233.15
233.64
234.96
234.46
229.57
219.11
203.92
186.31
168.91
153.45
140.07
127.59
114.35
99.12
81.62
62.67
43.68
26.20
11.49
0.21
-7.61
-12.46
-15.26
-17.05
-18.84
-21.37
-25.01
-29.73
-35.06
-40.19
-44.02
-45.28
-42.88
-36.26
-25.77
-12.85
0.18
10.77
16.88
17.72
13.88
7.00
-0.95
-8.63
-15.81
-23.42
-33.16
-46.61
-64.48
-86.05
-109.07
-130.39
-146.74
-155.79
-156.77
-150.53
-139.09
-124.78
-109.54
-94.57
-80.36
-67.17
-55.35
-45.53
-38.44
-34.46
-33.17
-33.38
-33.38
-31.71
-27.73
-21.76
-14.83
-8.04
-2.15
2.46
5.60
6.95
6.01
2.51
-3.20
-9.97
-16.07
-19.82
-20.34
-17.79
-13.27
-8.23
-3.89
-0.78
1.22
2.57
3.67
4.54
4.91
4.43
2.95
0.72
-1.75
-4.00
-5.84
-7.46
-9.17
-11.11
-13.02
-14.37
-14.51
-13.18
-10.60
-7.45
-4.59
-2.66
-1.86
-1.89
-2.21
-2.30
-2.00
-1.51
-1.29
-1.75
-3.05
-5.04
-7.32
-9.49
-11.21
-12.37
-12.99
-13.11
-12.77
-11.98
-10.78
-9.29
-7.74
-6.43
-5.65
-5.55
-6.20
-7.53
-9.37
-11.54
-13.88
-16.25
-18.49
-20.38
-21.69
-22.20
-21.81
-20.59
-18.76
-16.64
-14.53
-12.58
-10.81
-9.12
-7.44
-5.71
-3.95
-2.22
-0.53
1.10
2.72
4.35
6.06
7.91
9.94
12.13
14.40
16.64
18.75
20.71
22.55
24.27
25.75
26.78
27.08
26.49
24.99
22.80
20.25
17.71
15.47
13.71
12.49
11.74
11.31
10.97
10.54
9.97
9.34
8.82
8.53
8.39
8.20
7.69
6.71
5.31
3.69
2.13
0.80
-0.26
-1.15
-2.07
-3.23
-4.84
-7.00
-9.69
-12.71
-15.77
-18.50
-20.67
-22.25
-23.40
-24.38
-25.33
-26.23
-26.91
-27.16
-26.96
-26.48
-26.03
-25.88
-26.04
-26.31
-26.27
-25.57
-23.96
-21.34
-17.61
-12.69
-6.71
-0.31
5.32
8.87
9.53
7.61
4.55
2.37
2.57
5.44
9.86
14.03
16.36
16.17
13.73
9.79
4.96
-0.58
-6.87
-13.78
-20.67
-26.60
-30.68
-32.56
-32.58
-31.70
-30.99
-31.13
-32.20
-33.71
-34.97
-35.47
-35.21
-34.73
-34.83
-36.29
-39.43
-43.99
-49.21
-54.18
-58.20
-60.98
-62.67
-63.65
-64.37
-65.11
-66.10
-67.64
-70.14
-73.81
-78.25
-82.41
-85.00
-85.44
-84.35
-83.90
-87.19
-96.80
-113.12
-133.61
-153.17
-166.08
-168.53
-159.66
-142.00
-120.43
-100.29
-85.43
-77.42
-75.11
-75.92
-77.19
-76.17
-70.77
-60.48
-46.73
-32.17
-20.10
-12.09
-7.61
-4.04
4.44
24.68
61.18
113.65
176.31
238.66
289.75
321.07
324.30
299.05
254.78
207.85
174.37
167.30
183.91
214.86
250.60
285.15
313.73
335.61
350.84
358.55
357.07
344.50
321.36
290.29
248.12
195.60
135.84
72.44
8.39
-54.24
-114.21
-169.35
-217.04
-255.06
-281.05
-294.00
-295.47
-289.04
-279.46
-270.04
-261.73
-253.81
-244.94
-233.25
-217.63
-198.66
-178.24
-158.56
-141.11
-125.84
-111.41
-95.76
-78.07
-57.73
-35.16
-11.53
11.80
33.93
54.74
74.75
94.86
116.34
140.55
168.25
199.02
230.86
260.27
282.83
294.57
293.41
280.09
257.94
231.51
204.98
181.00
160.52
143.31
128.74
116.31
105.73
96.77
88.94
81.66
74.59
67.84
61.92
57.45
54.73
53.56
53.37
53.48
53.50
53.46
53.74
54.89
57.40
61.62
67.59
74.97
82.76
89.24
92.19
89.46
79.67
62.61
39.05
9.95
-24.23
-63.50
-107.53
-154.28
-199.44
-237.02
-261.51
-270.22
-264.54
-249.48
-231.64
-216.65
-207.51
-204.52
-206.08
-209.85
-213.35
-214.13
-209.93
-198.96
-180.65
-156.00
-127.46
-97.96
-69.99
-44.91
-22.95
-3.83
12.78
26.93
38.66
48.24
56.26
63.41
70.12
76.37
81.65
85.45
87.56
88.23
88.16
88.22
88.97
90.38
91.90
92.70
92.01
89.50
85.38
80.32
75.10
70.28
66.00
62.06
58.02
53.56
48.58
43.28
38.06
33.31
29.34
26.28
24.03
22.39
21.12
19.99
18.91
17.84
16.80
15.72
14.49
12.96
11.11
9.05
7.03
5.36
4.26
3.80
3.86
4.19
4.42
4.18
3.15
1.14
-1.78
-5.18
-8.46
-10.95
-12.21
-12.24
-11.39
-10.20
-9.18
-8.50
-8.05
-7.50
-6.51
-4.85
-2.51
0.35
3.41
6.35
8.86
10.74
11.94
12.57
12.90
13.17
13.60
14.21
14.89
15.43
15.66
15.49
15.01
14.42
13.99
14.01
14.78
16.54
19.46
23.53
28.54
34.08
39.68
44.89
49.46
53.26
56.30
58.58
60.11
60.93
61.05
60.50
59.10
56.43
51.84
44.74
34.92
22.85
9.72
-2.74
-12.77
-18.92
-20.35
-17.01
-9.49
1.01
12.94
24.59
34.33
40.90
43.61
42.55
38.64
33.48
28.95
26.60
27.11
30.20
34.78
39.55
43.42
45.61
45.46
42.17
34.83
22.76
6.02
-14.41
-36.86
-59.64
-81.62
-102.32
-121.50
-138.67
-152.83
-162.90
-168.32
-169.52
-167.74
-164.37
-160.15
-154.84
-147.61
-137.80
-125.69
-112.62
-100.51
-90.92
-84.34
-79.94
-75.99
-70.63
-62.47
-51.04
-36.67
-20.24
-2.72
15.01
32.36
49.03
64.88
79.81
93.68
106.29
117.54
127.49
136.54
145.24
154.06
162.94
171.15
177.33
179.86
177.32
168.83
154.13
133.42
107.43
77.34
44.78
11.64
-20.60
-51.95
-84.67
-122.79
-170.23
-227.90
-291.46
-351.38
-395.41
-412.59
-396.94
-349.26
-276.69
-190.86
-105.33
-33.23
14.89
33.06
21.25
-14.24
-62.29
-109.99
-146.24
-164.49
-163.52
-146.10
-116.80
-80.02
-38.58
6.44
55.11
107.46
162.18
215.67
262.22
295.49
310.60
305.96
283.88
249.49
208.77
166.76
126.76
90.75
60.31
37.10
22.46
16.52
17.26
20.66
21.97
17.42
5.77
-11.23
-29.60
-44.83
-53.65
-55.21
-51.02
-44.06
-37.28
-32.38
-29.44
-27.37
-24.85
-21.20
-16.78
-12.66
-10.00
-9.35
-10.39
-12.06
-13.12
-12.75
-10.96
-8.70
-7.46
-8.73
-13.30
-20.95
-30.51
-40.37
-49.10
-55.90
-60.61
-63.43
-64.50
-63.70
-60.70
-55.31
-47.69
-38.47
-28.56
-18.88
-10.29
-3.53
0.65
1.65
-0.69
-5.78
-12.17
-17.79
-20.68
-19.52
-14.07
-5.04
6.24
18.30
29.87
39.99
48.06
53.82
57.35
58.99
59.08
57.73
54.78
49.93
43.22
35.32
27.72
22.49
21.72
27.03
39.03
57.25
80.10
105.24
129.95
151.49
167.39
175.48
173.84
160.87
135.49
97.83
49.85
-4.45
-59.47
-109.00
-147.53
-171.33
-178.99
-171.42
-151.40
-122.99
-90.73
-59.11
-31.92
-12.05
-1.27
-0.22
-8.47
-24.49
-45.82
-69.29
-91.44
-109.11
-120.11
-123.53
-119.83
-110.46
-97.46
-82.84
-68.29
-54.83
-42.87
-32.38
-23.24
-15.42
-9.20
-5.02
-3.27
-3.97
-6.61
-9.98
-12.47
-12.38
-8.47
-0.43
11.08
24.76
39.26
53.81
68.23
82.51
96.15
107.75
115.37
117.38
113.37
104.24
91.51
76.34
59.15
40.31
21.43
5.93
-1.71
1.65
15.49
34.76
51.50
58.28
51.55
33.13
8.96
-13.86
-30.16
-38.22
-39.34
-36.15
-30.95
-24.92
-18.46
-11.87
-5.64
-0.79
1.56
0.93
-2.03
-5.73
-8.24
-8.32
-5.94
-2.13
1.44
3.33
3.36
2.75
3.63
7.92
16.16
27.35
39.70
51.00
59.30
64.01
66.12
67.89
71.99
79.71
90.83
104.70
119.34
131.95
140.85
146.11
149.26
152.40
155.79
158.88
163.12
169.31
176.49
183.31
187.73
186.99
178.19
157.08
121.37
75.35
24.44
-28.07
-79.51
-128.28
-173.41
-213.87
-251.03
-285.74
-313.34
-330.89
-339.95
-342.95
-342.29
-339.48
-316.93
-261.18
-196.94
-140.31
-89.16
-44.79
-7.68
22.78
48.05
69.59
85.31
92.52
93.95
92.02
86.68
78.84
70.03
61.74
54.82
46.82
34.55
18.84
0.14
-22.83
-50.32
-81.08
-112.34
-140.23
-161.97
-175.54
-177.99
-169.22
-153.01
-134.36
-117.84
-106.17
-99.60
-97.05
-96.61
-95.46
-92.14
-87.07
-81.15
-75.04
-68.91
-62.66
-56.49
-51.05
-46.60
-43.23
-40.76
-38.54
-35.92
-32.59
-28.87
-25.35
-22.71
-21.44
-21.67
-23.15
-25.16
-26.44
-25.49
-21.28
-14.09
-5.93
0.02
0.95
-4.11
-13.58
-24.04
-32.05
-35.93
-36.44
-36.10
-37.59
-42.33
-50.06
-59.56
-69.64
-79.78
-89.99
-100.25
-110.14
-119.05
-126.56
-132.35
-135.83
-135.58
-129.63
-116.53
-96.59
-72.45
-48.27
-27.84
-12.86
-2.30
6.59
16.52
28.70
42.58
56.67
69.77
81.49
92.00
101.15
108.02
111.32
110.40
106.29
101.95
101.41
108.15
123.37
145.27
169.61
191.36
206.74
214.42
215.56
212.69
208.11
202.94
197.00
189.57
180.24
169.34
157.66
145.91
134.24
122.27
109.42
95.43
80.67
66.08
52.77
41.57
32.73
25.79
19.83
13.84
7.18
-0.21
-7.86
-15.00
-21.00
-25.69
-29.44
-32.97
-36.94
-41.62
-46.71
-51.49
-55.19
-57.37
-58.30
-58.87
-60.40
-64.15
-70.85
-80.43
-92.02
-104.23
-115.64
-125.21
-132.59
-138.04
-142.20
-145.83
-149.53
-153.72
-158.70
-164.65
-171.51
-178.76
-185.37
-190.27
-193.06
-194.57
-196.72
-201.41
-209.19
-218.37
-225.41
-226.55
-219.64
-205.24
-186.02
-165.27
-145.14
-125.87
-106.39
-85.49
-62.75
-38.64
-13.98
10.48
34.13
56.25
75.97
92.37
104.84
113.08
116.87
115.74
109.21
97.55
82.63
68.06
58.32
56.99
65.15
81.00
100.81
120.55
137.32
149.66
157.07
159.25
156.02
147.74
135.85
122.84
111.58
104.10
100.80
100.38
100.67
99.78
96.76
91.79
85.62
78.90
71.81
64.18
55.91
47.23
38.81
31.46
25.71
21.63
18.85
16.92
15.51
14.64
14.59
15.57
17.57
20.29
23.26
26.03
28.26
29.72
30.31
30.03
29.12
28.19
28.11
29.86
34.08
40.82
49.45
58.85
67.87
75.65
81.82
86.40
89.62
91.79
93.11
93.73
93.71
93.03
91.65
89.57
86.91
83.84
80.51
76.92
72.92
68.35
63.16
57.57
52.05
47.11
43.08
40.02
37.68
35.68
33.64
31.36
28.97
26.99
26.41
28.56
34.80
46.09
62.61
83.54
107.28
131.96
156.04
178.77
200.43
222.17
245.67
272.24
301.99
333.15
362.09
384.18
395.29
393.27
378.67
354.38
324.24
291.49
257.75
223.03
186.40
146.76
103.24
55.43
3.84
-49.51
-100.66
-144.00
-173.85
-186.73
-183.22
-168.32
-149.74
-134.58
-127.37
-129.24
-138.66
-152.92
-169.01
-183.48
-192.17
-190.70
-175.24
-145.74
-107.30
-68.97
-40.44
-27.99
-32.03
-47.64
-67.60
-83.75
-90.90
-87.65
-75.73
-58.83
-41.35
-27.40
-19.98
-20.25
-24.30
-25.62
-17.41
4.67
40.34
84.94
131.29
172.12
191.71
180.96
138.12
69.61
-12.69
-96.62
-173.43
-238.65
-288.00
-323.80
-347.28
-359.80
-364.41
-363.67
-360.39
-356.65
-353.06
-348.58
-341.50
-327.92
-304.56
-269.83
-223.98
-168.76
-106.20
-37.26
33.80
102.64
165.96
220.28
262.34
289.77
301.49
298.24
282.58
258.22
229.55
201.12
176.10
155.68
139.33
125.48
112.46
99.36
86.12
73.58
63.20
56.40
54.30
57.20
63.68
70.03
70.61
59.51
33.50
-6.02
-52.79
-97.75
-132.60
-152.98
-159.62
-156.97
-150.42
-143.65
-137.69
-131.79
-124.91
-116.90
-108.71
-101.63
-96.53
-93.41
-91.46
-89.37
-86.13
-81.30
-75.17
-68.61
-62.60
-57.89
-54.59
-52.28
-50.32
-48.61
-47.76
-48.34
-49.83
-49.69
-43.86
-28.51
-2.44
31.89
68.53
100.63
123.35
135.70
139.85
138.92
134.91
126.95
113.33
93.36
68.58
42.57
19.17
0.67
-12.83
-22.73
-30.61
-37.10
-41.70
-43.61
-42.63
-39.50
-35.64
-32.43
-30.58
-30.00
-30.02
-29.82
-28.75
-26.60
-23.58
-20.10
-16.67
-13.70
-11.34
-9.65
-8.38
-7.32
-6.32
-5.27
-4.22
-3.33
-2.70
-2.05
-0.70
2.48
8.45
17.28
27.85
38.04
45.76
49.90
51.00
50.55
50.49
52.00
55.14
59.03
62.76
65.97
69.03
72.64
76.84
81.19
84.92
87.36
88.26
87.69
85.84
82.37
78.67
74.62
69.77
63.69
56.34
48.14
39.75
31.76
24.49
17.91
11.42
4.54
-2.85
-10.40
-17.35
-22.59
-24.99
-23.77
-18.68
-10.44
-0.31
10.18
19.68
27.41
33.43
38.64
44.47
52.48
63.72
78.43
95.86
114.22
130.99
143.46
149.55
148.39
140.64
128.30
114.12
100.71
89.69
81.20
73.97
65.97
55.43
41.59
25.15
7.91
-8.09
-21.48
-32.18
-41.47
-51.48
-64.60
-83.16
-108.87
-141.94
-179.64
-215.74
-241.51
-248.75
-233.90
-200.72
-159.98
-125.73
-109.92
-118.13
-148.25
-192.38
-240.65
-284.36
-317.66
-337.34
-342.16
-332.57
-310.92
-281.35
-249.17
-219.40
-195.50
-178.86
-169.03
-164.22
-162.07
-160.03
-155.71
-147.37
-134.39
-117.50
-98.32
-78.68
-59.79
-41.56
-23.13
-3.52
17.28
38.10
57.05
72.50
83.87
91.81
97.52
101.82
104.59
104.87
101.59
94.28
83.41
70.21
56.02
41.90
28.28
15.28
2.79
-9.03
-19.97
-29.70
-37.74
-43.59
-46.65
-46.56
-43.35
-37.71
-30.89
-24.33
-19.15
-15.68
-13.38
-11.13
-7.80
-2.68
4.20
12.31
20.94
29.57
37.96
45.95
53.27
59.37
63.63
65.59
65.11
62.47
58.19
52.90
47.25
41.87
37.17
33.07
28.88
23.33
15.11
3.73
-10.00
-23.91
-35.10
-41.14
-41.00
-35.27
-25.90
-15.23
-5.14
3.29
9.75
14.15
16.36
16.20
13.58
8.95
3.20
-2.57
-7.49
-11.31
-14.38
-17.37
-20.98
-25.57
-31.15
-37.42
-43.82
-49.56
-53.65
-55.04
-52.91
-47.15
-38.54
-28.54
-18.88
-10.89
-5.14
-1.23
1.90
5.54
10.80
18.22
27.69
38.46
49.32
58.90
65.95
69.58
69.57
66.40
61.16
55.35
50.38
47.20
46.00
46.22
46.88
47.04
46.25
44.56
42.50
40.57
39.04
37.84
36.65
35.14
33.17
30.80
28.17
25.42
22.53
19.30
15.32
9.97
2.56
-7.55
-20.63
-36.35
-53.57
-70.54
-85.34
-96.50
-103.59
-107.36
-109.35
-111.28
-114.23
-118.29
-122.63
-126.24
-128.42
-129.28
-129.46
-129.77
-130.93
-133.58
-138.59
-147.04
-159.74
-176.20
-194.19
-209.69
-218.01
-215.42
-200.27
-173.13
-136.01
-91.39
-41.75
9.91
59.41
101.26
129.82
141.22
135.19
115.56
89.29
64.26
46.91
40.90
46.89
63.47
88.62
120.82
159.41
204.04
253.56
304.86
352.88
391.52
415.63
423.05
415.24
396.64
372.81
348.16
324.86
303.00
281.61
260.03
238.48
217.90
199.24
182.91
168.52
155.24
142.22
128.91
115.24
101.55
88.16
75.30
62.92
50.80
38.78
26.99
15.94
6.38
-0.89
-5.41
-7.17
-6.74
-5.03
-3.05
-1.62
-1.23
-1.94
-3.50
-5.57
-7.86
-10.25
-12.89
-15.92
-19.39
-23.14
-26.81
-30.03
-32.61
-34.67
-36.52
-38.53
-40.94
-43.81
-47.10
-50.71
-54.64
-58.96
-63.64
-68.49
-73.18
-77.40
-81.03
-84.15
-86.90
-89.21
-90.65
-90.49
-88.00
-82.83
-75.23
-66.03
-56.31
-47.02
-38.79
-31.83
-26.06
-21.34
-17.53
-14.54
-12.23
-10.38
-8.76
-7.13
-5.42
-3.74
-2.33
-1.43
-1.18
-1.52
-2.27
-3.32
-4.65
-6.34
-8.41
-10.69
-12.91
-14.87
-16.60
-18.38
-20.58
-23.35
-26.55
-29.82
-32.82
-35.36
-37.39
-38.78
-39.09
-37.74
-34.22
-28.60
-21.65
-14.63
-8.78
-4.75
-2.36
-0.82
0.78
3.00
5.76
8.52
10.56
11.41
10.99
9.68
8.03
6.55
5.52
4.87
4.35
3.67
2.66
1.48
0.37
-0.48
-1.16
-2.05
-3.62
-6.18
-9.63
-13.55
-17.43
-21.00
-24.34
-27.58
-30.61
-32.78
-33.10
-30.65
-25.19
-17.37
-8.56
-0.22
6.72
12.13
16.52
20.46
24.12
27.17
29.03
29.33
28.30
26.67
25.31
24.88
25.58
27.18
29.33
31.62
33.71
35.28
36.05
35.84
34.74
33.20
31.79
31.03
31.09
31.83
32.89
33.96
34.96
36.07
37.12
38.19
39.79
42.77
48.00
56.01
67.01
80.64
96.33
113.01
129.86
146.64
163.49
180.50
197.22
212.60
225.04
233.08
234.82
229.70
219.09
205.83
192.94
182.47
175.40
171.28
169.23
165.44
157.22
144.54
129.63
114.79
100.93
88.18
75.28
61.46
40.63
9.12
-31.55
-75.54
-117.05
-153.35
-183.71
-210.83
-236.80
-272.27
-323.87
-389.68
-460.61
-527.29
-584.84
-631.57
-671.19
-706.36
-750.37
-811.05
-885.03
-959.74
-1022.53
-1066.98
-1091.42
-1101.66
-1023.87
-822.47
-522.74
-197.63
87.61
305.92
444.98
533.38
588.42
619.51
619.36
582.27
515.07
431.83
345.80
273.81
228.11
209.20
211.69
217.89
214.76
200.10
181.30
166.55
160.42
164.01
173.24
185.31
192.72
191.32
177.72
159.59
143.55
133.11
129.27
129.74
132.95
134.44
131.08
121.90
108.31
91.30
71.36
48.51
21.02
-7.01
-35.50
-65.23
-97.04
-130.94
-167.35
-206.48
-248.21
-291.93
-335.39
-375.49
-407.57
-426.72
-428.89
-413.11
-381.46
-338.69
-290.81
-243.02
-199.06
-159.75
-124.14
-91.18
-61.38
-36.40
-17.59
-3.87
9.11
26.93
53.57
88.09
123.63
149.66
156.94
141.96
108.97
68.07
30.47
4.13
-8.74
-11.29
-9.33
-8.25
-11.31
-19.22
-31.01
-45.76
-63.23
-83.84
-107.73
-133.62
-158.22
-176.78
-184.62
-179.00
-160.39
-131.99
-98.72
-65.22
-34.47
-7.16
17.57
40.99
63.62
84.77
102.90
116.37
124.23
126.55
124.19
118.26
109.62
98.67
85.47
70.14
53.14
35.39
18.11
2.51
-10.53
-20.59
-27.62
-31.63
-32.55
-30.18
-24.32
-15.07
-3.00
10.88
25.40
39.66
53.41
67.10
81.68
98.08
116.74
137.38
159.15
180.91
201.86
221.75
241.09
261.09
283.58
310.70
344.26
384.51
429.14
472.77
507.88
526.91
524.76
500.62
458.10
403.82
345.02
287.52
234.74
188.00
147.33
112.26
82.14
56.04
32.80
11.30
-9.10
-28.19
-45.03
-58.35
-67.17
-71.30
-71.52
-69.31
-66.39
-64.20
-63.60
-64.92
-68.08
-72.91
-79.22
-86.74
-94.97
-103.10
-110.08
-114.88
-116.81
-115.89
-112.81
-108.86
-105.47
-103.86
-104.57
-107.36
-111.25
-114.77
-116.19
-113.85
-106.53
-93.71
-75.90
-54.60
-31.94
-9.82
10.78
30.41
50.38
71.25
92.54
112.45
128.28
137.74
140.32
137.72
133.42
131.07
132.63
138.43
147.39
157.44
166.19
171.40
171.16
164.49
150.88
129.41
100.62
66.88
31.35
-2.57
-31.85
-54.52
-68.37
-73.15
-73.24
-72.39
-72.03
-72.42
-72.59
-70.89
-65.98
-54.42
-35.41
-16.46
-3.27
3.16
3.29
-0.77
-5.66
-7.25
4.07
35.39
80.41
133.10
190.09
245.42
292.59
326.85
346.82
361.70
380.76
398.54
412.19
424.36
435.82
446.61
457.02
423.11
322.43
223.21
150.95
87.61
26.44
-36.49
-101.85
-167.16
-228.01
-272.74
-293.81
-302.10
-308.31
-318.16
-337.72
-370.22
-414.08
-463.23
-504.24
-527.06
-537.43
-542.76
-547.41
-555.54
-568.27
-582.70
-593.26
-590.69
-569.03
-533.01
-488.37
-438.73
-387.89
-338.54
-292.00
-248.62
-206.79
-165.62
-128.01
-95.94
-69.26
-47.11
-27.99
-10.06
8.26
28.41
50.90
74.63
99.07
124.96
153.19
183.83
215.18
243.53
264.06
272.79
268.30
252.54
230.03
205.88
183.87
165.30
149.42
134.59
119.67
104.59
90.07
76.83
64.95
53.78
42.39
30.18
17.47
5.67
-3.15
-6.92
-4.38
4.44
18.13
34.39
50.62
64.63
74.93
80.76
81.89
78.32
70.13
57.52
41.04
21.77
1.46
-17.56
-32.81
-42.33
-45.27
-42.15
-34.67
-24.99
-15.11
-6.40
0.42
4.96
6.88
5.90
1.99
-4.24
-11.48
-17.99
-22.17
-23.15
-21.13
-17.25
-13.29
-10.99
-11.65
-15.84
-23.46
-34.00
-46.79
-61.11
-76.16
-90.80
-103.46
-112.08
-114.64
-109.75
-97.27
-78.56
-55.84
-31.60
-7.70
15.08
36.94
58.39
79.26
98.38
113.87
124.35
129.43
129.92
127.14
122.13
114.98
104.87
90.76
72.39
51.56
31.17
14.07
1.91
-5.34
-9.23
-12.21
-16.90
-25.44
-37.35
-51.64
-67.62
-85.00
-103.17
-120.65
-135.40
-145.72
-150.96
-148.11
-136.09
-116.53
-93.14
-69.46
-47.12
-25.87
-4.57
17.76
47.33
88.12
139.69
197.33
255.05
308.53
355.91
397.10
432.78
471.45
519.34
576.85
638.37
696.06
743.79
778.57
799.94
761.69
640.53
445.16
214.07
-9.19
-197.51
-343.20
-450.08
-525.91
-578.36
-606.18
-607.79
-587.94
-555.58
-520.28
-488.84
-463.97
-445.27
-430.56
-411.41
-381.16
-337.98
-287.78
-237.43
-192.01
-153.45
-121.24
-93.54
-64.38
-28.85
14.75
64.59
116.66
165.74
206.28
233.04
242.39
235.36
215.91
189.34
160.57
133.28
109.29
88.87
71.45
56.44
44.23
35.27
29.27
24.97
20.81
15.42
8.30
-0.17
-8.91
-16.64
-22.46
-26.17
-28.29
-29.72
-31.46
-34.09
-37.69
-41.75
-45.57
-48.54
-50.46
-51.48
-52.03
-52.57
-53.46
-54.95
-57.10
-59.86
-63.02
-66.16
-68.73
-70.14
-69.95
-68.05
-64.62
-60.02
-54.67
-48.84
-42.72
-36.47
-30.37
-24.86
-20.37
-17.20
-15.31
-14.37
-13.84
-13.28
-12.42
-11.32
-10.17
-9.20
-8.52
-8.11
-7.85
-7.69
-7.67
-7.89
-8.51
-9.67
-11.48
-14.01
-17.16
-20.60
-23.79
-26.07
-26.87
-25.98
-23.58
-20.17
-16.34
-12.53
-8.92
-5.55
-2.35
0.67
3.42
5.83
7.91
9.77
11.54
13.26
14.88
16.31
17.51
18.53
19.45
20.44
21.58
22.89
24.32
25.79
27.26
28.60
29.63
30.19
30.35
30.69
32.22
36.13
43.40
54.34
68.20
83.20
97.07
107.77
114.24
116.56
115.86
114.00
113.20
115.31
121.31
131.06
143.33
156.18
166.94
172.59
170.69
160.23
142.14
119.18
95.26
74.24
58.67
48.44
40.67
31.43
17.83
-0.76
-22.71
-45.10
-66.11
-82.10
-89.71
-88.21
-79.82
-67.47
-53.27
-38.31
-23.34
-9.32
2.28
10.89
15.72
15.65
10.66
1.88
-9.02
-20.81
-33.40
-47.84
-62.73
-77.89
-94.90
-114.29
-135.19
-155.59
-173.54
-188.18
-199.59
-208.47
-216.21
-226.27
-240.68
-259.23
-279.45
-298.16
-312.99
-322.64
-326.55
-308.94
-262.31
-190.10
-105.97
-24.67
44.74
99.43
140.46
170.47
192.05
204.93
209.30
206.31
198.97
190.69
183.46
177.89
173.86
170.82
166.16
157.99
145.42
129.62
112.57
95.10
77.25
58.84
39.73
18.80
-0.69
-18.22
-32.85
-43.54
-50.58
-54.86
-56.98
-57.04
-55.29
-51.52
-45.64
-40.00
-33.17
-25.69
-19.06
-13.98
-10.05
-6.25
-1.09
6.43
17.10
29.73
41.12
47.84
48.48
43.96
36.63
29.26
23.38
18.96
11.82
-0.88
-23.31
-57.41
-102.56
-157.09
-219.33
-287.81
-345.60
-376.13
-368.89
-324.36
-251.94
-165.13
-77.67
-0.14
62.43
109.00
145.87
177.02
202.65
218.75
221.12
206.78
176.61
136.12
93.59
55.17
24.12
0.66
-17.52
-33.26
-48.34
-62.13
-72.09
-75.45
-72.03
-64.68
-57.41
-53.06
-51.63
-51.04
-48.61
-43.49
-37.80
-36.47
-44.95
-66.06
-97.93
-133.95
-165.18
-183.47
-184.09
-166.90
-135.74
-96.44
-54.33
-12.74
27.13
65.04
100.29
130.90
154.01
167.16
169.64
163.05
150.62
135.70
120.36
104.85
88.28
69.79
49.39
27.96
6.46
-14.91
-36.65
-59.14
-81.48
-101.26
-115.49
-122.47
-123.49
-123.10
-127.42
-141.43
-166.56
-199.93
-235.45
-265.99
-285.56
-290.28
-278.78
-251.49
-210.45
-159.06
-101.78
-43.28
12.47
62.64
105.63
140.64
167.36
186.06
198.00
205.51
211.35
218.13
227.37
239.61
255.54
276.56
304.79
341.70
386.32
434.15
477.60
508.06
518.73
506.93
474.34
426.17
368.99
309.07
250.71
195.61
142.90
90.09
35.27
-21.03
-74.86
-119.41
-147.62
-155.76
-146.10
-127.18
-110.92
-107.56
-123.14
-157.43
-204.29
-253.00
-291.08
-307.61
-296.50
-259.03
-202.76
-142.49
-96.65
-80.66
-99.68
-145.74
-200.59
-242.69
-255.49
-230.04
-170.24
-91.13
-12.24
50.68
91.06
111.80
121.94
132.68
157.68
205.04
274.38
357.31
441.85
516.56
573.24
608.03
594.25
521.65
402.31
265.92
141.09
43.01
-25.49
-68.34
-92.49
-104.25
-109.27
-113.37
-120.82
-133.47
-149.52
-165.18
-177.56
-187.24
-195.87
-204.70
-218.59
-242.88
-280.57
-329.48
-382.33
-429.27
-461.37
-473.59
-450.27
-390.91
-311.39
-234.88
-177.36
-141.67
-122.02
-111.26
-104.72
-100.31
-99.93
-104.65
-112.84
-120.78
-125.15
-124.82
-120.96
-116.21
-111.58
-109.24
-109.80
-111.86
-112.90
-111.15
-106.60
-100.83
-95.27
-91.04
-89.59
-90.83
-92.83
-92.61
-87.29
-74.49
-57.16
-36.91
-14.96
7.24
28.95
50.22
71.42
92.58
113.04
131.43
146.72
157.89
163.88
164.26
159.35
150.08
137.62
123.04
107.05
90.57
74.18
58.35
43.68
31.02
21.41
15.79
14.73
18.07
25.30
35.38
47.18
59.82
72.98
86.92
102.28
119.94
140.76
165.36
193.42
223.24
251.67
274.68
288.50
290.95
282.32
265.33
244.11
222.60
203.28
186.77
172.20
158.23
143.91
128.94
113.61
98.21
82.78
67.07
50.83
34.14
17.63
2.43
-10.25
-19.61
-25.60
-28.90
-30.71
-32.25
-34.35
-37.29
-40.82
-44.48
-47.75
-50.24
-51.69
-51.92
-50.82
-48.37
-44.67
-39.89
-34.35
-28.28
-21.92
-15.50
-9.34
-3.99
-0.23
1.04
-0.89
-6.20
-14.32
-23.82
-32.87
-39.71
-43.25
-43.39
-40.98
-37.41
-34.10
-32.02
-31.43
-31.95
-32.63
-32.29
-29.80
-24.46
-16.32
-6.32
3.80
12.06
16.85
17.52
14.55
9.33
3.58
-1.27
-4.41
-5.68
-5.32
-3.74
-1.28
1.74
4.97
7.97
10.31
11.68
12.10
11.88
11.48
11.29
11.37
11.38
10.70
8.69
5.06
0.00
-5.75
-11.19
-15.41
-17.95
-18.91
-18.87
-18.54
-18.41
-18.63
-18.97
-19.06
-18.56
-17.36
-15.48
-13.03
-10.10
-6.80
-3.23
0.47
4.20
7.92
11.68
15.57
19.55
23.48
27.07
30.16
32.78
35.23
37.95
41.33
45.48
50.22
55.22
60.32
65.67
71.75
79.14
88.15
98.53
109.46
119.64
127.77
132.76
134.06
131.66
126.01
117.92
108.33
98.23
88.53
80.08
73.66
70.03
69.96
74.09
82.84
96.15
113.24
132.43
151.26
166.87
176.75
179.53
175.44
166.25
154.61
143.03
133.04
124.74
117.02
108.06
96.07
79.97
60.06
38.29
18.12
3.74
-1.27
4.66
20.40
42.36
65.77
86.38
101.73
111.43
116.54
118.31
117.37
113.39
105.56
93.23
76.51
56.26
33.67
9.82
-14.70
-39.88
-65.91
-93.02
-121.50
-151.95
-185.22
-221.97
-261.59
-301.41
-336.66
-361.69
-372.00
-365.97
-345.46
-314.99
-280.31
-246.98
-219.59
-201.45
-194.44
-198.96
-213.37
-234.09
-256.28
-275.47
-289.09
-296.89
-300.25
-300.76
-299.54
-296.89
-292.93
-288.27
-284.35
-283.11
-285.66
-291.55
-298.45
-303.58
-304.70
-301.00
-293.17
-282.94
-272.99
-265.23
-260.08
-255.72
-250.10
-241.15
-227.31
-207.78
-183.12
-156.89
-133.24
-115.47
-103.71
-97.94
-97.25
-100.16
-104.39
-107.58
-110.02
-111.61
-111.00
-103.61
-87.65
-63.62
-34.44
-4.11
22.55
37.92
36.98
19.69
-6.12
-33.42
-56.83
-74.24
-85.82
-75.35
-37.38
22.44
72.43
106.49
127.34
144.54
161.49
179.38
198.18
214.70
227.09
236.03
247.04
262.45
282.36
305.19
330.10
357.04
384.05
409.43
431.57
450.70
463.71
466.65
456.77
434.79
404.27
368.48
330.62
293.21
259.37
229.89
204.51
182.46
163.23
146.07
129.32
111.76
93.59
77.34
65.72
60.86
63.10
70.63
79.63
85.18
83.38
72.88
55.72
36.17
19.39
9.93
10.42
20.64
37.30
54.70
66.26
66.73
54.30
31.47
4.35
-19.84
-35.76
-42.10
-41.82
-40.54
-43.83
-54.93
-73.86
-97.94
-122.96
-144.20
-157.21
-158.31
-145.30
-118.51
-81.52
-41.18
-5.97
16.85
24.42
20.04
12.27
11.37
24.63
53.01
90.60
127.67
155.20
168.48
168.30
159.02
145.05
127.68
105.60
78.26
48.35
22.64
10.20
17.51
44.00
81.15
114.97
132.52
127.71
102.73
65.99
27.73
-4.51
-27.46
-40.41
-43.02
-32.48
-3.38
46.66
113.62
187.75
256.72
310.08
343.05
355.11
350.83
340.05
328.77
317.06
302.85
283.66
257.75
224.23
177.40
113.62
39.90
-38.23
-118.68
-198.31
-274.06
-344.50
-410.20
-481.34
-566.23
-657.14
-749.27
-842.97
-934.72
-1017.39
-1082.17
-1121.13
-1140.32
-1147.51
-1134.63
-1101.44
-1056.72
-1004.98
-946.32
-878.80
-738.57
-499.98
-268.07
-91.72
40.21
129.18
180.93
204.85
211.49
210.01
196.01
165.05
130.42
98.62
66.77
34.80
5.84
-14.84
-21.86
-20.00
-15.38
-2.41
17.87
37.67
53.16
65.11
77.20
93.36
110.68
125.52
142.68
164.26
188.64
215.59
245.44
277.93
311.58
341.86
365.51
385.60
405.50
426.79
450.04
473.39
492.36
501.40
495.39
472.75
437.33
394.89
350.44
307.28
266.46
227.57
190.11
154.29
121.08
91.25
64.87
41.35
20.20
1.64
-13.52
-24.51
-31.19
-34.17
-34.28
-31.86
-26.76
-18.94
-9.10
1.09
9.99
17.02
23.37
31.49
43.64
59.94
77.45
90.88
94.71
85.92
65.24
36.93
6.80
-20.17
-41.69
-58.58
-73.64
-89.98
-108.87
-129.67
-150.59
-169.88
-186.75
-201.50
-215.01
-227.97
-240.54
-251.28
-258.92
-262.94
-263.52
-260.70
-253.53
-240.01
-218.10
-186.91
-145.34
-94.89
-39.71
14.32
61.56
98.35
123.50
137.79
143.26
146.15
152.34
165.55
186.56
214.04
246.18
281.50
318.94
357.55
401.07
452.10
510.27
571.46
629.63
679.23
716.63
740.16
720.95
643.05
508.84
340.33
166.84
10.77
-117.68
-217.71
-293.26
-349.60
-387.15
-406.45
-409.96
-402.75
-390.87
-379.23
-370.44
-365.14
-362.70
-358.59
-349.18
-333.33
-313.27
-292.10
-272.68
-256.60
-244.33
-235.42
-227.16
-217.46
-205.78
-193.32
-182.02
-173.39
-167.94
-165.36
-164.64
-163.85
-161.64
-157.52
-151.81
-144.90
-136.54
-125.49
-112.60
-97.78
-80.80
-61.99
-42.17
-22.40
-3.39
14.80
32.67
50.93
70.31
90.76
111.53
131.52
149.84
166.23
181.15
195.72
211.47
230.43
254.34
283.85
317.69
352.10
381.21
398.62
399.61
383.05
352.20
313.45
274.10
240.24
215.25
199.55
191.19
186.83
182.53
174.58
159.83
136.11
102.62
60.10
11.03
-40.55
-89.33
-129.75
-157.38
-170.40
-170.54
-162.74
-153.63
-149.54
-154.88
-171.51
-198.85
-234.26
-273.29
-309.91
-337.21
-348.71
-340.17
-311.10
-264.82
-207.25
-144.90
-83.35
-26.62
22.50
61.99
90.72
108.94
118.74
123.53
126.83
130.74
135.34
139.30
141.22
140.92
139.64
139.21
140.77
143.96
147.05
147.88
144.87
137.57
126.55
113.07
98.58
84.37
71.36
59.99
49.92
40.11
29.09
15.69
-0.28
-17.68
-34.39
-48.18
-57.60
-62.56
-64.05
-63.52
-62.23
-60.88
-59.84
-59.60
-60.87
-64.33
-70.02
-76.95
-83.22
-86.77
-86.22
-81.41
-73.29
-63.45
-53.42
-44.22
-36.35
-29.92
-24.94
-21.42
-19.42
-18.89
-19.64
-21.18
-22.83
-23.91
-23.97
-23.05
-21.62
-20.41
-19.87
-19.90
-19.78
-18.53
-15.57
-11.06
-5.89
-1.22
2.07
3.64
3.63
2.39
0.16
-2.92
-6.81
-11.36
-16.31
-21.36
-26.18
-30.46
-33.89
-36.19
-37.07
-36.41
-34.18
-30.52
-25.65
-19.89
-13.70
-7.60
-2.04
2.91
7.60
12.58
18.08
23.68
28.18
30.16
28.78
24.40
18.79
14.50
13.89
18.24
27.24
39.27
52.12
64.02
74.26
83.18
91.67
100.43
109.42
117.91
125.01
130.30
134.18
137.68
141.86
147.05
152.64
157.35
160.00
160.23
158.76
157.11
156.86
159.04
163.76
170.36
177.74
184.82
190.69
194.71
196.51
196.15
194.45
193.01
193.85
198.45
206.79
216.78
224.76
226.86
220.57
205.84
185.02
161.78
139.53
120.41
105.03
92.88
83.31
75.99
70.92
67.88
65.94
63.25
57.56
46.84
29.92
6.93
-20.77
-50.99
-81.38
-110.12
-136.47
-161.10
-186.11
-214.59
-249.18
-290.22
-334.68
-376.41
-408.06
-423.89
-421.99
-404.74
-378.17
-348.85
-321.80
-299.68
-283.64
-274.43
-272.74
-278.29
-288.89
-302.11
-315.39
-327.73
-340.29
-355.44
-374.34
-394.87
-411.30
-416.35
-407.20
-385.63
-357.01
-327.09
-298.87
-271.45
-241.51
-206.01
-165.02
-125.80
-98.14
-90.08
-104.16
-136.60
-179.30
-223.41
-262.17
-273.03
-242.03
-166.99
-60.23
57.38
167.00
258.73
330.27
383.11
419.34
437.66
436.53
417.60
384.54
341.58
292.81
241.31
190.23
143.90
105.27
76.91
60.10
58.07
69.81
91.33
117.07
141.79
161.67
172.76
172.04
158.04
131.49
95.32
54.59
14.94
-19.08
-44.82
-62.23
-72.14
-75.44
-72.62
-64.62
-52.81
-39.42
-27.24
-19.05
-17.26
-23.07
-36.34
-55.05
-75.62
-93.49
-105.16
-110.17
-111.70
-115.00
-124.08
-138.38
-151.92
-155.75
-142.19
-108.83
-59.53
-1.97
56.55
112.15
164.54
214.49
260.75
298.85
322.86
328.70
316.88
292.78
264.32
238.31
217.61
200.53
182.69
160.04
131.15
97.73
63.41
31.89
5.47
-15.20
-30.71
-42.08
-50.36
-56.64
-61.91
-66.86
-71.50
-74.90
-75.37
-71.22
-61.63
-47.20
-30.09
-13.29
0.40
9.36
13.63
14.70
14.79
16.00
19.85
26.92
37.38
51.23
68.34
88.12
109.60
131.57
153.46
175.64
198.33
220.83
240.43
252.41
251.14
232.56
196.08
146.47
93.69
49.34
23.58
21.62
41.68
75.27
110.53
135.27
141.85
129.26
100.57
61.11
16.26
-29.90
-74.49
-114.28
-147.28
-171.67
-186.63
-195.25
-202.77
-214.21
-231.89
-254.64
-277.25
-295.01
-304.17
-291.33
-249.75
-182.48
-102.14
-24.49
32.03
68.59
90.94
104.54
112.20
114.31
107.77
89.39
57.55
12.74
-40.72
-97.09
-147.74
-182.22
-192.45
-174.87
-131.47
-69.57
-0.88
63.21
112.69
142.37
152.21
144.87
124.46
95.89
64.14
32.17
2.88
-21.98
-40.96
-53.32
-59.94
-63.13
-65.35
-68.29
-74.86
-85.88
-100.19
-114.82
-126.85
-135.12
-140.39
-144.28
-148.25
-156.17
-170.03
-188.88
-208.97
-225.89
-236.59
-240.02
-236.63
-208.86
-149.06
-62.54
34.14
123.80
197.12
252.73
293.27
321.93
340.40
346.88
339.07
317.17
284.97
248.13
211.54
177.32
144.13
111.39
74.33
29.30
-23.77
-81.20
-137.97
-190.34
-236.84
-277.32
-310.97
-337.05
-352.52
-352.71
-333.69
-294.45
-237.68
-168.59
-93.00
-16.75
52.21
104.35
129.87
122.17
81.82
19.19
-47.06
-95.78
-111.63
-92.20
-49.16
-3.74
22.23
15.12
-25.48
-87.68
-153.28
-205.49
-235.01
-241.46
-230.94
-211.32
-188.18
-163.57
-137.34
-109.57
-82.47
-59.96
-45.53
-39.94
-40.35
-41.25
-37.31
-25.92
-8.44
10.65
25.79
32.95
31.14
22.52
11.05
0.55
-6.96
-11.81
-16.06
-22.24
-31.87
-44.65
-58.59
-70.81
-78.75
-81.08
-78.05
-71.23
-62.77
-54.77
-48.76
-45.53
-45.31
-48.12
-53.93
-62.76
-74.51
-88.82
-104.92
-121.59
-137.36
-150.72
-160.46
-165.73
-166.24
-162.24
-154.40
-143.74
-131.46
-118.89
-107.19
-97.37
-90.10
-85.62
-83.75
-83.95
-85.37
-86.97
-87.73
-86.72
-82.74
-74.86
-62.79
-46.92
-28.17
-7.62
13.72
34.85
55.28
75.21
94.88
114.42
133.62
152.09
169.42
185.30
199.37
211.56
223.07
234.81
247.00
258.89
269.01
275.94
278.64
276.12
268.46
259.54
252.92
250.49
251.58
253.69
254.22
251.50
243.76
231.76
223.93
227.62
246.43
278.44
317.74
358.03
394.80
423.30
444.01
469.80
511.93
575.83
658.38
750.45
842.52
928.05
1000.19
1060.52
1126.70
1214.08
1330.06
1470.69
1624.09
1778.37
1926.41
2061.25
2089.88
1947.91
1615.96
1138.53
600.22
81.31
-367.55
-696.00
-929.63
-1094.65
-1197.50
-1242.89
-1239.58
-1203.76
-1156.42
-1113.48
-1082.80
-1068.92
-1063.10
-1043.56
-993.63
-908.00
-795.39
-673.60
-560.45
-467.73
-403.68
-365.81
-343.06
-326.89
-313.70
-304.60
-301.86
-304.30
-306.30
-302.54
-286.21
-252.84
-205.82
-155.14
-113.35
-90.09
-87.70
-101.38
-124.16
-148.63
-170.57
-190.39
-210.83
-234.42
-262.28
-294.42
-331.10
-373.53
-421.53
-472.51
-520.59
-557.45
-575.03
-568.80
-539.49
-492.61
-436.07
-377.25
-321.23
-270.15
-224.03
-181.79
-141.99
-103.01
-63.07
-20.10
28.03
82.73
143.87
208.75
271.34
322.96
354.72
360.80
340.97
300.84
248.71
192.13
135.40
79.45
23.83
-30.29
-78.60
-114.77
-132.58
-129.87
-108.67
-73.46
-29.27
19.27
68.41
115.15
156.91
192.29
219.37
236.40
242.11
235.24
214.27
178.56
129.41
70.68
9.06
-49.94
-102.64
-147.18
-178.27
-191.64
-186.81
-169.01
-154.34
-149.95
-159.25
-182.91
-215.58
-250.33
-279.01
-294.23
-291.75
-272.02
-238.68
-198.76
-158.18
-119.62
-82.89
-46.88
-11.42
21.85
50.49
73.59
91.53
107.90
127.19
152.56
184.75
222.46
262.74
301.62
334.65
356.25
363.53
355.94
336.41
311.81
291.54
284.44
294.96
321.83
358.31
397.58
432.44
456.58
465.61
457.45
432.53
392.97
343.28
274.58
188.74
95.68
9.18
-60.23
-109.75
-143.27
-168.21
-190.34
-211.84
-229.46
-240.24
-243.72
-242.49
-241.14
-244.76
-259.22
-288.19
-331.71
-384.52
-435.62
-474.96
-495.06
-492.66
-460.91
-404.09
-336.00
-273.06
-224.97
-192.79
-172.47
-159.26
-150.60
-146.07
-146.92
-153.04
-161.60
-168.01
-168.79
-163.35
-153.22
-140.73
-127.16
-112.87
-98.78
-83.33
-64.07
-39.63
-10.84
19.81
49.49
75.97
97.40
113.10
123.78
130.46
133.62
132.87
127.53
117.57
104.14
89.11
74.90
64.22
59.12
60.38
67.40
78.74
93.20
110.30
130.09
153.08
180.26
213.14
252.20
295.92
339.72
377.72
403.89
413.85
406.38
384.26
354.70
325.43
302.01
285.06
273.48
265.15
258.24
251.52
244.74
240.11
238.89
240.44
240.55
237.09
229.88
220.71
211.71
204.64
202.55
205.51
210.35
209.41
198.75
178.27
151.26
121.74
76.73
11.42
-70.52
-142.15
-197.65
-238.99
-274.57
-309.14
-346.59
-389.27
-433.90
-474.37
-503.11
-515.74
-507.67
-477.68
-429.18
-370.46
-311.26
-257.47
-211.96
-175.23
-148.58
-130.61
-118.90
-110.50
-102.96
-94.04
-80.72
-61.51
-37.17
-11.64
11.68
30.55
44.47
54.08
60.81
66.60
72.22
76.72
77.29
72.01
60.65
45.06
28.30
13.53
3.06
-2.62
-4.66
-5.38
-6.75
-9.82
-14.51
-19.86
-24.45
-26.70
-25.19
-18.90
-7.63
8.00
26.68
46.69
66.37
84.26
99.40
111.30
120.03
125.87
129.10
130.31
130.03
128.82
126.73
123.14
117.06
107.81
95.17
79.51
62.48
46.06
32.20
21.51
12.79
3.46
-9.31
-27.96
-53.77
-85.48
-120.18
-151.55
-172.86
-180.44
-175.63
-163.41
-150.44
-145.17
-150.24
-165.09
-185.97
-207.38
-223.55
-229.98
-221.27
-193.58
-151.02
-103.46
-62.28
-33.70
-17.36
-7.25
2.24
13.99
28.09
43.65
61.35
80.87
103.29
128.40
153.32
173.43
183.75
180.52
163.12
135.18
102.83
73.46
52.64
42.74
44.08
55.65
71.83
86.92
95.27
91.74
73.78
47.28
18.01
-6.11
-16.61
-7.52
21.53
66.13
117.03
162.78
188.46
183.36
147.28
90.80
29.88
-21.95
-58.63
-81.26
-94.11
-100.96
-103.28
-100.17
-91.42
-79.00
-66.62
-57.91
-54.56
-55.65
-58.43
-59.48
-56.24
-48.30
-37.58
-27.19
-19.76
-16.35
-16.24
-17.46
-17.72
-15.27
-9.81
-2.48
4.86
10.61
14.12
15.77
16.53
17.57
19.66
22.80
26.24
28.79
29.35
27.73
24.38
19.94
15.28
11.20
8.35
6.97
7.10
8.80
12.21
17.47
24.41
32.62
41.50
50.49
58.66
65.15
69.60
72.16
73.38
73.42
72.23
69.77
66.26
61.44
54.74
46.47
37.80
30.63
25.47
22.11
20.10
19.40
19.30
17.99
14.98
11.01
8.25
5.83
1.33
-8.79
-21.18
-35.22
-52.91
-74.44
-97.60
-117.30
-132.33
-142.98
-150.18
-154.99
-160.41
-173.56
-198.59
-234.41
-271.80
-302.32
-317.51
-311.23
-281.39
-209.37
-97.92
31.85
137.34
213.22
262.36
290.11
297.14
284.93
257.37
217.84
173.02
128.40
90.15
58.15
31.46
10.30
-3.10
-6.50
-1.99
7.23
13.86
13.35
1.72
-20.08
-47.24
-73.70
-94.98
-111.25
-124.53
-142.19
-169.31
-208.84
-259.45
-317.99
-381.54
-447.34
-512.08
-539.08
-502.04
-400.26
-262.06
-122.93
-7.02
77.00
131.78
165.53
187.44
199.23
199.79
188.77
169.52
147.91
129.72
118.95
117.07
123.03
130.06
130.83
121.65
103.95
82.39
62.27
47.91
41.82
44.15
50.36
54.35
51.78
42.13
28.03
13.98
4.72
3.67
12.05
27.63
46.40
64.92
81.13
93.46
99.50
96.12
80.92
53.67
21.34
-5.41
-16.84
-9.47
11.45
34.59
49.17
51.21
45.38
42.15
48.01
62.78
79.78
90.08
88.15
74.85
56.29
39.91
28.84
22.99
18.38
10.89
-0.73
-14.01
-23.99
-26.58
-19.77
-4.55
15.24
34.28
47.39
50.80
43.16
25.86
2.54
-21.94
-43.22
-58.73
-68.30
-73.50
-76.54
-79.08
-81.58
-83.40
-83.39
-80.66
-74.90
-66.47
-56.04
-44.51
-33.07
-22.98
-15.54
-11.74
-11.90
-15.45
-21.29
-27.42
-31.58
-31.94
-27.65
-19.17
-8.31
2.12
8.99
9.91
4.17
-6.95
-20.48
-33.07
-42.53
-48.87
-54.22
-61.44
-72.08
-84.94
-96.11
-100.56
-94.56
-77.39
-51.58
-21.48
8.96
37.87
65.74
94.16
123.93
153.76
180.34
199.57
208.35
205.82
193.54
174.66
152.62
130.16
108.83
89.19
71.46
55.92
43.11
33.64
27.76
25.00
24.19
23.65
21.84
17.81
11.69
4.48
-2.32
-7.37
-10.09
-10.87
-10.86
-11.45
-13.67
-17.85
-23.51
-29.57
-34.77
-38.05
-38.95
-37.69
-35.02
-31.94
-29.18
-27.09
-25.38
-23.40
-20.48
-16.34
-11.28
-5.99
-1.32
2.24
4.55
6.18
8.13
11.42
16.63
23.55
31.46
39.28
46.08
51.08
54.15
55.57
55.54
53.94
50.51
45.17
38.00
28.96
17.01
0.96
-19.74
-44.49
-71.40
-97.71
-120.83
-139.26
-153.13
-164.29
-174.02
-181.86
-185.62
-182.53
-170.86
-150.82
-124.68
-92.18
-56.87
-24.21
1.15
17.56
26.22
29.32
28.64
25.40
20.60
14.98
9.99
7.27
7.83
11.53
17.20
23.41
29.49
35.59
42.16
50.37
61.78
77.42
96.96
118.11
136.92
149.00
150.78
140.76
120.53
94.22
66.75
41.94
21.42
4.54
-9.62
-21.74
-31.92
-39.54
-43.83
-44.70
-42.96
-40.09
-37.46
-35.76
-35.00
-34.56
-33.67
-31.82
-29.10
-26.11
-23.65
-22.24
-21.88
-22.14
-22.40
-22.28
-21.75
-21.19
-21.01
-21.40
-22.13
-22.53
-21.89
-19.70
-15.94
-11.05
-5.85
-1.17
2.35
4.53
5.58
5.93
6.11
6.44
6.99
7.62
8.10
8.25
8.04
7.59
6.99
6.24
5.26
3.91
2.17
0.18
-1.82
-3.53
-4.82
-5.79
-6.70
-7.88
-9.58
-11.83
-14.41
-17.03
-19.34
-21.10
-22.19
-22.59
-22.44
-21.94
-21.33
-20.72
-20.12
-19.38
-18.38
-17.20
-16.34
-16.69
-19.23
-24.45
-31.63
-38.44
-41.20
-35.86
-19.73
7.12
41.06
75.44
102.47
115.41
110.32
86.50
46.13
-6.44
-65.03
-122.06
-169.19
-198.91
-206.61
-192.22
-160.26
-118.06
-72.94
-29.98
8.66
42.69
72.04
95.86
112.88
122.58
126.10
126.19
126.14
128.25
133.07
139.48
145.39
148.88
148.92
145.47
139.29
131.39
122.70
113.78
104.82
95.72
86.37
76.79
67.13
57.60
48.29
39.16
30.01
20.71
11.34
2.29
-5.74
-11.98
-15.80
-17.00
-16.04
-14.06
-12.61
-13.21
-16.73
-22.99
-30.75
-38.13
-43.43
-45.78
-45.45
-43.70
-42.16
-42.17
-44.24
-47.91
-51.92
-54.65
-54.50
-50.42
-42.07
-30.04
-15.79
-1.47
10.42
17.59
18.75
14.17
5.77
-3.41
-10.30
-12.92
-11.01
-5.97
-0.18
3.95
4.49
0.25
-9.37
-24.43
-44.13
-65.97
-85.26
-95.91
-92.83
-74.89
-46.67
-17.54
2.11
5.57
-7.02
-29.17
-51.67
-67.37
-74.17
-74.65
-72.96
-71.46
-69.50
-64.82
-56.47
-46.57
-39.47
-38.89
-45.28
-55.10
-62.83
-63.90
-57.06
-44.65
-30.74
-18.64
-9.54
-2.60
3.74
10.44
17.44
24.08
29.97
35.17
39.93
44.10
46.85
47.05
44.04
38.08
30.37
22.64
16.51
13.08
12.80
15.61
21.18
29.15
39.18
50.87
63.57
76.25
87.56
96.25
101.56
103.32
101.87
97.75
91.62
84.30
77.01
71.23
68.34
68.89
72.15
76.25
78.79
78.04
73.71
67.08
60.46
56.11
55.34
58.15
63.45
69.63
75.21
79.14
80.91
80.38
77.71
73.42
68.55
64.65
63.05
64.03
66.25
66.80
62.40
51.26
34.47
16.04
1.41
-5.04
-2.08
7.54
17.98
22.33
14.52
-9.01
-48.39
-99.85
-156.04
-207.28
-243.86
-259.05
-251.40
-225.44
-189.99
-154.97
-128.04
-112.73
-108.49
-112.25
-120.38
-129.83
-138.57
-145.41
-149.49
-150.38
-147.96
-142.55
-134.76
-125.58
-116.16
-107.69
-100.98
-96.23
-93.07
-90.83
-89.11
-87.94
-87.21
-85.82
-81.54
-71.97
-56.27
-36.38
-16.60
-1.47
6.91
10.18
12.80
19.34
31.87
49.07
67.56
84.29
98.23
110.29
121.93
133.50
143.97
151.80
156.30
158.19
159.11
160.50
162.67
164.71
165.07
162.36
156.02
146.30
134.12
120.73
107.43
95.35
85.29
77.74
72.81
70.26
69.52
69.71
69.75
68.48
64.96
58.76
50.18
40.39
31.12
24.08
20.19
18.89
18.00
14.38
5.17
-10.69
-31.66
-53.81
-72.33
-83.37
-85.43
-79.71
-69.48
-58.98
-52.43
-53.32
-63.55
-82.62
-106.76
-129.26
-142.13
-139.17
-118.75
-84.96
-46.19
-11.72
11.90
22.86
23.68
19.12
13.66
9.84
8.22
7.98
7.97
7.34
5.62
2.68
-1.36
-5.89
-9.89
-11.98
-10.99
-6.70
-0.24
5.97
8.99
6.67
-1.30
-13.15
-25.77
-36.04
-42.17
-44.10
-43.27
-41.63
-40.91
-42.15
-45.76
-51.34
-57.15
-60.09
-56.45
-44.18
-24.69
-2.61
16.30
28.02
32.09
31.21
28.97
27.50
26.23
22.67
15.25
4.79
-5.86
-13.71
-17.73
-19.30
-20.60
-23.03
-26.78
-30.55
-33.27
-35.16
-37.80
-43.09
-52.14
-63.97
-76.62
-88.98
-100.05
-109.38
-116.67
-121.35
-123.05
-122.19
-119.61
-117.72
-120.22
-128.74
-142.17
-157.68
-172.04
-183.79
-193.67
-203.06
-202.18
-183.22
-141.35
-78.36
-3.76
70.43
134.69
179.76
209.64
229.45
240.97
243.68
236.33
217.17
188.56
154.34
119.53
89.12
64.61
43.88
22.66
-3.65
-40.54
-91.07
-154.72
-226.51
-297.34
-357.66
-399.66
-419.88
-408.62
-366.49
-303.74
-236.13
-176.75
-130.75
-100.31
-80.11
-66.55
-57.89
-54.59
-55.59
-58.21
-58.99
-55.16
-46.25
-33.26
-18.65
-4.02
9.10
20.79
32.43
45.82
62.07
80.76
100.82
120.57
139.22
156.35
172.81
190.09
209.41
230.46
250.90
267.09
275.10
272.81
260.59
241.81
221.86
206.48
199.81
202.95
213.67
226.94
236.75
237.89
227.76
207.09
179.50
150.10
123.74
103.77
91.53
86.76
88.27
94.29
102.57
110.55
115.58
115.57
109.73
98.87
85.08
70.94
58.60
49.09
42.21
36.90
31.85
26.14
19.53
12.52
5.97
0.68
-2.94
-5.09
-6.41
-7.66
-9.44
-12.01
-15.26
-18.89
-22.55
-26.01
-29.17
-32.01
-34.54
-36.72
-38.46
-39.65
-40.21
-40.17
-39.65
-38.86
-38.01
-37.22
-36.48
-35.66
-34.60
-33.23
-31.62
-29.99
-28.55
-27.43
-26.58
-25.86
-25.11
-24.27
-23.42
-22.70
-22.23
-22.02
-21.97
-21.91
-21.69
-21.24
-20.62
-19.98
-19.50
-19.33
-19.50
-19.86
-20.17
-20.16
-19.61
-18.47
-16.84
-14.90
-12.83
-10.74
-8.64
-6.52
-4.40
-2.42
-0.73
0.51
1.18
1.34
1.10
0.71
0.45
0.62
1.44
2.98
5.05
7.33
9.45
11.22
12.73
14.33
16.38
18.99
21.87
24.40
25.95
26.23
25.49
24.45
24.02
24.88
27.22
30.66
34.52
38.07
40.82
42.75
44.27
46.07
48.85
53.08
58.71
65.01
70.48
72.92
69.82
58.97
39.37
11.95
-20.35
-53.08
-81.58
-102.32
-113.86
-116.93
-113.74
-106.85
-98.26
-89.09
-79.80
-70.77
-62.56
-55.95
-51.54
-49.36
-48.82
-48.89
-48.69
-47.90
-46.99
-46.90
-48.50
-52.03
-56.86
-61.70
-65.18
-66.44
-65.45
-63.13
-61.12
-61.54
-66.50
-77.46
-94.30
-114.78
-134.48
-147.93
-150.22
-138.69
-113.89
-79.30
-40.10
-1.52
32.24
58.47
75.66
83.18
81.18
70.73
54.07
34.43
15.39
-0.06
-10.19
-14.83
-15.15
-12.86
-9.49
-5.89
-2.12
2.23
7.59
14.06
21.28
28.47
34.76
39.34
41.67
41.64
39.65
36.51
33.24
30.81
29.76
30.15
31.56
33.34
34.89
35.87
36.24
36.19
35.96
35.65
35.24
34.66
33.92
33.11
32.43
32.02
31.84
31.69
31.27
30.34
28.86
27.01
25.14
23.64
22.80
22.82
23.69
25.25
27.19
29.08
30.47
30.96
30.29
28.33
25.14
20.86
15.77
10.19
4.53
-0.83
-5.57
-9.46
-12.38
-14.24
-15.05
-14.87
-13.94
-12.65
-11.45
-10.70
-10.49
-10.61
-10.67
-10.28
-9.36
-8.08
-6.88
-6.11
-5.95
-6.24
-6.58
-6.56
-5.94
-4.83
-3.60
-2.82
-2.95
-4.14
-6.20
-8.67
-11.01
-12.86
-14.18
-15.20
-16.25
-17.59
-19.26
-21.16
-23.11
-24.91
-26.40
-27.36
-27.48
-26.40
-23.89
-19.99
-15.10
-9.89
-5.04
-1.01
2.17
4.79
7.27
9.88
12.54
14.91
16.55
17.19
16.89
15.99
14.92
14.01
13.29
12.55
11.55
10.14
8.41
6.66
5.22
4.23
3.62
3.10
2.31
0.95
-1.09
-3.77
-6.89
-10.12
-13.05
-15.19
-16.12
-15.58
-13.62
-10.54
-6.82
-2.93
0.78
4.11
7.02
9.51
11.58
13.28
14.70
15.95
17.11
18.16
18.98
19.44
19.48
19.15
18.60
17.97
17.30
16.53
15.49
14.09
12.34
10.36
8.37
6.51
4.87
3.40
2.00
0.54
-1.10
-3.07
-5.44
-8.26
-11.37
-14.39
-16.81
-18.08
-17.85
-16.18
-13.43
-10.14
-6.83
-3.77
-0.98
1.63
4.17
6.63
8.89
10.81
12.28
13.27
13.85
14.12
14.19
14.12
13.91
13.57
13.09
12.48
11.76
10.99
10.19
9.39
8.58
7.71
6.74
5.67
4.53
3.35
2.16
0.92
-0.49
-2.18
-4.21
-6.45
-8.53
-9.97
-10.30
-9.29
-7.01
-3.87
-0.41
2.87
5.63
7.79
9.45
10.73
11.73
12.44
12.80
12.74
12.31
11.62
10.89
10.28
9.89
9.66
9.47
9.21
8.86
8.50
8.22
8.11
8.11
8.14
8.05
7.75
7.23
6.57
5.86
5.18
4.52
3.79
2.90
1.79
0.65
-0.17
-0.17
0.99
3.35
6.56
10.08
13.45
16.50
19.47
22.89
27.35
33.22
40.43
48.43
56.36
63.22
68.24
71.11
72.12
72.11
72.04
72.49
73.35
73.77
72.57
68.70
61.83
52.54
42.35
33.10
26.53
23.90
25.79
31.81
40.38
48.73
53.45
51.95
43.38
29.41
14.06
2.43
-1.44
3.35
13.62
23.04
25.01
14.60
-9.51
-44.47
-84.17
-121.03
-147.80
-158.69
-150.06
-120.62
-73.27
-15.60
41.21
85.37
108.18
106.89
85.44
48.94
6.80
-31.35
-59.12
-75.09
-81.53
-81.61
-77.52
-70.44
-61.48
-51.66
-42.42
-35.06
-29.98
-26.40
-22.73
-17.57
-10.40
-1.75
7.47
15.99
22.79
27.46
30.50
32.86
35.36
38.11
40.37
40.96
38.62
32.55
22.75
10.16
-3.62
-16.91
-28.44
-37.51
-44.17
-48.67
-51.18
-51.53
-49.21
-43.67
-34.74
-23.12
-10.09
2.12
11.34
15.96
15.06
8.43
-3.77
-21.08
-43.25
-66.98
-90.81
-114.54
-138.82
-164.11
-189.05
-209.69
-220.36
-215.98
-194.24
-157.32
-110.52
-60.64
-14.16
23.61
48.79
59.14
54.78
39.05
18.02
-0.72
-10.95
-10.46
-1.17
12.44
26.21
38.28
49.06
59.44
69.33
77.18
80.80
78.79
71.74
62.11
53.27
48.02
47.38
50.55
55.54
60.23
63.27
64.51
64.78
65.17
66.40
68.32
70.04
70.42
68.59
64.30
58.02
50.65
43.33
37.06
32.55
30.14
29.77
31.02
33.20
35.46
36.94
36.89
34.88
30.99
26.03
21.61
19.78
22.24
29.35
39.31
48.00
50.18
41.37
19.99
-11.20
-45.51
-74.28
-90.12
-89.63
-74.52
-50.48
-24.86
-4.26
6.99
7.10
-3.53
-22.78
-47.04
-71.66
-91.88
-104.37
-108.30
-105.38
-98.72
-90.94
-83.04
-74.47
-64.62
-53.84
-43.94
-36.97
-33.74
-33.26
-33.51
-33.29
-33.55
-37.11
-46.77
-63.00
-82.83
-100.76
-111.15
-110.58
-98.87
-78.39
-52.42
-23.79
5.26
32.36
54.33
67.57
69.48
60.00
42.22
21.26
2.15
-12.20
-21.75
-28.67
-36.03
-46.14
-59.97
-77.00
-95.69
-113.79
-128.81
-138.56
-142.05
-140.16
-135.56
-131.63
-130.83
-133.36
-136.91
-137.61
-131.62
-116.43
-91.22
-56.52
-13.85
34.26
84.05
130.64
168.88
194.94
207.70
209.23
203.86
196.58
191.53
191.02
195.57
204.09
214.33
223.25
227.61
224.85
214.14
196.85
176.06
155.59
138.67
127.00
120.50
117.29
113.92
106.01
89.69
63.58
30.45
-2.92
-27.96
-38.13
-32.20
-15.13
4.27
17.48
20.01
12.67
-0.11
-13.42
-24.44
-33.05
-40.51
-47.65
-53.81
-57.22
-56.40
-51.41
-44.24
-38.03
-35.79
-39.03
-47.20
-58.09
-68.77
-76.72
-80.58
-80.35
-77.03
-72.08
-66.80
-62.16
-58.65
-56.31
-54.88
-53.78
-52.34
-49.89
-46.10
-41.02
-35.12
-29.14
-23.84
-19.87
-17.73
-17.77
-20.07
-24.30
-29.44
-33.94
-36.09
-34.79
-30.16
-23.73
-18.03
-15.54
-17.81
-25.03
-36.04
-49.22
-63.05
-76.57
-89.57
-102.24
-114.82
-127.27
-139.16
-149.80
-158.66
-165.57
-171.02
-175.94
-181.32
-187.90
-195.90
-204.97
-214.44
-223.61
-231.79
-238.39
-242.84
-244.62
-243.63
-240.53
-237.02
-235.40
-237.50
-243.36
-250.54
-254.56
-250.28
-234.26
-206.27
-169.40
-128.80
-89.69
-55.63
-27.93
-6.23
10.69
24.20
35.66
46.64
58.83
73.67
91.75
112.47
134.19
155.03
173.72
190.25
206.13
224.02
246.84
276.44
312.13
350.09
383.93
406.58
412.79
401.09
374.11
337.39
297.36
259.55
227.91
205.17
193.42
194.39
209.08
237.33
277.19
324.95
374.93
419.76
451.06
460.73
443.21
397.75
329.54
249.05
169.29
101.90
53.81
26.02
14.40
12.41
13.81
14.52
12.81
8.42
1.35
-8.76
-22.35
-39.19
-57.40
-73.76
-84.88
-88.91
-86.79
-82.02
-79.27
-82.06
-91.28
-104.61
-117.88
-126.98
-129.65
-126.34
-119.61
-112.73
-108.21
-107.11
-109.09
-113.12
-117.96
-122.50
-125.71
-126.69
-124.88
-120.28
-113.62
-105.99
-98.44
-91.36
-84.35
-76.60
-67.47
-57.08
-46.38
-36.76
-29.32
-24.58
-22.19
-21.52
-21.95
-23.06
-24.75
-26.91
-29.30
-31.57
-33.51
-34.94
-35.78
-35.76
-34.54
-32.21
-29.86
-29.82
-35.03
-47.51
-66.90
-89.94
-111.32
-125.72
-129.92
-123.82
-110.06
-92.61
-75.18
-60.24
-48.84
-40.87
-35.17
-29.77
-22.23
-11.00
2.94
15.43
20.32
12.54
-8.23
-35.84
-58.90
-64.90
-45.38
0.55
65.82
138.05
203.72
251.63
274.55
269.23
236.06
178.93
105.35
25.94
-47.25
-103.65
-136.91
-146.39
-136.62
-115.00
-88.71
-62.15
-36.19
-9.16
20.88
54.02
87.50
116.21
134.59
138.68
127.45
103.04
69.90
33.51
-0.83
-28.87
-47.98
-57.56
-59.11
-55.76
-51.28
-48.70
-49.36
-52.60
-56.64
-59.73
-61.09
-61.16
-61.12
-62.18
-65.12
-70.09
-76.94
-85.38
-95.19
-106.21
-118.16
-130.55
-142.65
-153.54
-162.28
-168.03
-170.02
-167.37
-158.84
-142.80
-117.69
-82.93
-39.89
7.60
53.86
92.90
120.35
134.86
138.28
134.61
128.25
122.34
118.09
115.06
112.12
108.47
104.16
99.90
96.56
94.41
92.87
90.66
86.47
79.73
71.04
62.03
54.66
50.27
48.91
49.15
48.57
44.56
35.19
19.83
-0.51
-23.28
-44.61
-60.02
-65.44
-58.19
-37.90
-6.74
30.97
69.84
104.66
131.56
148.62
155.93
155.15
148.79
139.53
129.53
120.13
111.74
103.98
95.98
86.89
76.31
64.48
52.38
41.31
32.56
26.89
24.35
24.26
25.48
26.69
26.70
24.61
19.89
12.32
2.06
-10.35
-23.97
-37.50
-49.45
-58.44
-63.55
-64.55
-61.92
-56.73
-50.30
-44.02
-39.23
-37.07
-38.15
-42.01
-46.83
-49.67
-47.47
-38.51
-23.36
-4.98
12.40
25.04
31.17
31.39
27.99
23.62
20.10
17.92
16.60
15.44
14.01
12.30
10.46
8.43
5.87
2.20
-2.93
-9.40
-16.47
-23.03
-28.07
-31.09
-32.29
-32.38
-32.13
-32.02
-31.94
-31.40
-29.84
-26.95
-22.85
-18.07
-13.25
-8.94
-5.46
-2.86
-0.99
0.38
1.52
2.71
4.17
5.99
8.09
10.19
11.88
12.71
12.39
10.84
8.23
4.95
1.45
-1.83
-4.60
-6.75
-8.39
-9.74
-11.11
-12.72
-14.69
-16.95
-19.34
-21.59
-23.48
-24.84
-25.61
-25.82
-25.52
-24.79
-23.71
-22.32
-20.74
-19.04
-17.31
-15.61
-13.92
-12.15
-10.27
-8.28
-6.28
-4.46
-2.96
-1.89
-1.23
-0.91
-0.81
-0.80
-0.70
-0.39
0.17
0.93
1.68
2.15
2.09
1.34
-0.06
-1.86
-3.69
-5.11
-5.72
-5.32
-3.97
-1.96
0.26
2.24
3.75
4.79
5.60
6.46
7.50
8.68
9.71
10.26
10.12
9.36
8.30
7.50
7.44
8.36
10.08
12.10
13.80
14.71
14.78
14.33
13.96
14.16
15.13
16.68
18.25
19.21
19.07
17.69
15.41
13.00
11.54
12.10
15.41
21.48
29.43
37.46
43.04
43.55
37.08
23.20
3.34
-19.46
-41.40
-59.10
-70.51
-75.23
-74.12
-68.51
-59.55
-48.07
-34.87
-21.12
-8.46
1.31
6.93
8.14
5.76
1.31
-3.68
-8.22
-12.17
-16.11
-21.07
-27.98
-37.29
-48.74
-61.17
-72.80
-81.67
-86.26
-86.03
-81.63
-74.60
-66.81
-59.69
-53.76
-48.64
-43.54
-38.04
-32.45
-28.01
-26.18
-28.00
-33.43
-41.47
-50.78
-60.29
-69.29
-76.90
-81.51
-81.11
-74.35
-61.83
-46.47
-32.31
-22.24
-16.17
-10.83
-1.71
14.19
36.30
60.74
82.43
97.91
106.84
111.50
114.84
118.46
121.98
123.63
121.63
115.46
105.97
95.05
84.59
75.82
69.00
63.68
59.05
54.51
49.77
44.96
40.42
36.40
32.88
29.49
25.68
20.96
15.18
8.59
1.71
-4.94
-11.20
-17.24
-23.43
-30.03
-36.99
-43.89
-50.18
-55.33
-59.01
-61.06
-61.34
-59.59
-55.47
-48.60
-38.81
-26.27
-11.61
3.99
18.83
30.67
37.15
36.27
27.24
11.11
-9.10
-29.01
-44.18
-51.64
-50.81
-43.62
-33.50
-23.94
-17.28
-14.16
-13.80
-14.90
-16.34
-17.56
-18.50
-19.15
-19.36
-18.78
-17.13
-14.31
-10.46
-5.85
-0.67
5.02
11.20
17.73
24.26
30.22
34.98
38.12
39.50
39.34
37.91
35.36
31.51
25.82
17.69
6.72
-6.91
-22.46
-38.67
-54.27
-68.23
-80.05
-89.62
-97.10
-102.74
-106.69
-108.90
-109.08
-106.72
-101.33
-92.70
-81.24
-67.92
-54.02
-40.72
-28.76
-18.35
-9.38
-1.72
4.54
9.14
11.89
12.96
13.07
13.38
15.12
19.20
25.85
34.48
43.91
52.77
60.06
65.52
69.54
72.74
75.51
77.71
78.87
78.64
77.16
75.15
73.49
72.76
72.90
73.17
72.64
70.73
67.65
64.38
62.37
62.88
66.52
73.02
81.33
90.15
98.29
105.04
110.13
113.65
115.79
116.95
117.72
118.93
121.26
124.90
128.96
131.30
128.90
118.63
98.25
67.03
26.09
-21.75
-72.44
-121.34
-164.05
-197.17
-218.99
-229.88
-232.31
-230.27
-228.12
-229.07
-233.79
-239.91
-242.67
-236.60
-217.55
-184.24
-138.63
-85.08
-28.92
25.05
73.33
113.92
145.73
168.38
182.19
188.29
188.71
186.07
182.97
181.24
181.40
182.60
182.94
180.30
173.21
161.44
146.04
128.95
112.07
96.65
83.03
70.79
59.31
48.27
37.90
28.82
21.69
16.81
13.92
12.32
11.13
9.64
7.52
4.83
1.87
-0.99
-3.48
-5.50
-7.06
-8.22
-9.03
-9.50
-9.58
-9.21
-8.39
-7.19
-5.76
-4.31
-3.05
-2.17
-1.83
-2.18
-3.41
-5.77
-9.46
-14.58
-21.03
-28.50
-36.42
-44.22
-51.31
-57.23
-61.61
-64.17
-64.62
-62.65
-58.12
-51.14
-42.35
-32.75
-23.44
-15.24
-8.41
-2.62
2.66
7.84
12.80
17.02
19.81
20.71
19.78
17.52
14.65
11.82
9.32
7.04
4.57
1.40
-2.83
-8.18
-14.26
-20.42
-25.95
-30.35
-33.52
-35.65
-37.07
-38.10
-38.86
-39.42
-39.86
-40.39
-41.22
-42.41
-43.68
-44.36
-43.53
-40.37
-34.48
-26.06
-15.99
-5.53
4.03
11.68
16.99
20.07
21.38
21.53
21.02
20.19
19.27
18.42
17.80
17.41
16.98
16.00
13.84
10.04
4.59
-1.96
-8.64
-14.43
-18.71
-21.43
-23.14
-24.67
-26.63
-29.09
-31.43
-32.61
-31.59
-27.78
-21.30
-12.95
-3.82
5.12
13.36
20.87
27.92
34.82
41.74
48.66
55.55
62.51
69.82
77.80
86.61
95.90
104.75
111.86
115.89
115.85
111.29
102.15
88.43
70.15
47.32
20.39
-9.54
-40.61
-70.57
-97.25
-119.00
-134.96
-144.91
-149.25
-148.79
-144.68
-138.30
-130.95
-123.59
-116.61
-109.87
-102.99
-95.71
-88.00
-80.04
-72.11
-64.40
-57.06
-50.20
-44.01
-38.69
-34.36
-30.99
-28.39
-26.27
-24.34
-22.45
-20.54
-18.67
-17.01
-15.77
-15.20
-15.53
-16.93
-19.35
-22.51
-25.84
-28.61
-30.10
-29.76
-27.36
-23.11
-17.62
-11.80
-6.63
-2.80
-0.53
0.54
1.12
1.92
3.26
4.90
6.17
6.34
5.06
2.54
-0.57
-3.58
-6.08
-8.18
-10.28
-12.85
-16.10
-19.92
-23.99
-28.12
-32.34
-37.01
-42.60
-49.48
-57.69
-66.74
-75.67
-83.16
-87.96
-89.22
-86.88
-81.73
-75.36
-69.74
-66.74
-67.48
-71.78
-77.93
-82.94
-83.47
-76.97
-62.93
-43.32
-22.15
-4.21
6.55
8.36
2.13
-8.79
-19.37
-24.17
-18.73
-0.89
28.28
64.55
101.76
133.73
156.24
168.04
170.53
166.47
158.46
148.12
136.21
123.33
110.42
98.82
89.58
82.91
77.91
73.00
66.73
58.51
48.78
38.73
29.74
22.68
17.71
14.32
11.70
9.24
6.77
4.58
3.18
2.96
3.90
5.53
7.13
8.07
8.03
7.15
5.94
4.98
4.73
5.30
6.48
7.89
9.12
9.94
10.36
10.62
11.09
12.08
13.68
15.69
17.64
18.96
19.24
18.39
16.72
14.83
13.33
12.63
12.76
13.50
14.45
15.28
15.77
15.75
15.08
13.50
10.74
6.64
1.30
-4.85
-11.24
-17.45
-23.35
-29.08
-34.77
-40.22
-44.82
-47.71
-48.21
-46.25
-42.61
-38.73
-36.21
-36.26
-39.18
-44.39
-50.66
-56.65
-61.36
-64.40
-65.91
-66.38
-66.23
-65.60
-64.24
-61.74
-57.80
-52.54
-46.52
-40.65
-35.83
-32.66
-31.21
-31.01
-31.29
-31.33
-30.76
-29.76
-28.93
-28.94
-30.24
-32.79
-36.13
-39.48
-41.95
-42.53
-40.22
-34.08
-23.68
-9.60
6.35
21.47
33.23
40.48
44.07
46.41
50.08
56.36
64.52
72.40
77.81
79.89
79.50
78.54
78.61
80.14
82.26
83.58
83.23
81.33
78.83
76.81
75.75
75.28
74.36
71.84
67.06
60.15
52.02
43.99
37.33
32.78
30.34
29.34
28.79
27.92
26.48
24.82
23.61
23.43
24.37
25.92
27.20
27.33
25.85
22.83
18.79
14.38
10.12
6.19
2.47
-1.34
-5.44
-9.89
-14.55
-19.21
-23.68
-27.86
-31.80
-35.58
-39.25
-42.77
-46.01
-48.80
-51.00
-52.47
-53.12
-52.83
-51.52
-49.17
-45.91
-42.05
-37.97
-34.02
-30.45
-27.31
-24.54
-22.02
-19.68
-17.52
-15.61
-14.00
-12.64
-11.42
-10.20
-8.86
-7.42
-5.97
-4.71
-3.80
-3.35
-3.37
-3.79
-4.49
-5.36
-6.30
-7.32
-8.51
-10.07
-12.19
-15.01
-18.44
-22.12
-25.46
-27.81
-28.72
-28.04
-26.02
-23.18
-20.07
-17.15
-14.68
-12.72
-11.25
-10.20
-9.51
-9.12
-8.95
-8.83
-8.57
-7.95
-6.83
-5.22
-3.26
-1.25
0.56
1.99
3.08
4.01
5.02
6.26
7.73
9.25
10.56
11.34
11.38
10.57
9.05
7.09
5.17
3.75
3.23
3.73
5.11
7.01
8.99
10.69
11.95
12.79
13.37
13.91
14.55
15.37
16.30
17.17
17.83
18.16
18.13
17.82
17.38
16.93
16.56
16.22
15.75
14.98
13.73
11.98
9.84
7.42
4.88
2.29
-0.34
-2.99
-5.67
-8.36
-11.07
-13.82
-16.65
-19.45
-21.97
-23.80
-24.50
-23.84
-21.87
-18.92
-15.49
-12.02
-8.79
-5.87
-3.22
-0.73
1.62
3.85
5.94
7.88
9.66
11.25
12.58
13.63
14.42
15.04
15.59
16.12
16.54
16.66
16.28
15.27
13.71
11.83
9.92
8.20
6.73
5.46
4.20
2.77
0.98
-1.32
-4.25
-7.84
-11.90
-16.01
-19.51
-21.72
-22.13
-20.61
-17.44
-13.24
-8.65
-4.17
-0.03
3.80
7.39
10.79
14.00
16.98
19.67
21.95
23.64
24.49
24.32
23.13
21.27
19.31
17.83
17.17
17.26
17.67
17.84
17.40
16.29
14.78
13.30
12.23
11.77
11.91
12.45
13.06
13.37
13.12
12.27
11.04
9.95
9.60
10.51
12.81
16.24
20.20
24.04
27.42
30.44
33.64
37.71
43.06
49.61
56.76
63.64
69.55
74.24
77.98
81.46
85.63
91.40
99.46
109.93
121.76
132.35
137.85
134.37
119.74
94.89
63.92
32.78
6.79
-11.47
-22.94
-31.18
-40.23
-52.56
-68.10
-84.57
-98.88
-108.71
-113.34
-113.80
-112.02
-109.96
-108.91
-109.24
-110.79
-113.10
-115.38
-115.93
-111.94
-100.14
-78.39
-47.22
-10.26
26.96
59.65
86.09
108.46
131.38
159.16
193.25
231.20
267.52
295.74
310.60
309.48
292.87
263.85
227.10
187.67
149.72
115.83
86.76
62.11
41.02
22.68
6.42
-8.48
-22.88
-37.66
-53.10
-68.59
-82.71
-93.86
-100.98
-103.86
-103.01
-99.15
-92.87
-84.48
-74.36
-63.42
-53.26
-45.82
-42.71
-44.48
-50.52
-59.40
-69.59
-79.93
-89.76
-98.74
-106.50
-112.57
-116.45
-118.07
-118.07
-117.57
-117.66
-118.83
-120.73
-122.47
-123.20
-122.23
-119.84
-117.27
-116.22
-118.10
-123.36
-131.34
-140.57
-149.50
-155.89
-158.50
-157.44
-154.14
-150.58
-148.04
-146.22
-143.05
-135.32
-118.00
-87.50
-43.06
12.84
75.40
139.24
199.84
254.12
300.42
340.74
377.58
412.53
445.09
472.75
492.11
500.61
497.55
472.77
422.85
351.05
267.01
182.32
105.16
38.44
-17.91
-62.86
-98.11
-122.63
-136.45
-142.41
-146.25
-154.84
-173.97
-204.68
-244.83
-289.50
-329.86
-356.60
-362.14
-342.47
-298.18
-234.78
-161.92
-91.94
-37.06
-4.78
3.10
-9.44
-34.41
-62.77
-87.11
-102.97
-108.57
-103.22
-85.27
-53.60
-9.97
39.09
82.65
108.82
109.92
86.39
47.18
6.51
-22.48
-33.14
-26.99
-11.04
7.21
23.98
40.18
59.20
83.39
111.31
137.77
156.14
161.61
153.35
134.52
110.33
85.35
61.82
39.47
16.78
-7.30
-32.11
-55.01
-72.33
-80.87
-79.08
-67.99
-50.99
-33.03
-19.04
-12.47
-14.40
-23.41
-36.44
-50.16
-62.22
-71.76
-79.10
-84.73
-88.45
-89.33
-86.35
-79.47
-70.09
-60.73
-53.86
-50.77
-51.08
-53.13
-54.79
-54.33
-50.94
-44.84
-37.13
-29.32
-22.86
-18.46
-15.69
-13.02
-8.38
-0.17
11.88
26.51
41.33
53.85
62.34
66.23
65.90
62.12
55.52
46.36
34.84
21.42
7.15
-6.35
-17.18
-23.86
-25.75
-23.22
-17.34
-9.20
0.64
12.42
26.75
44.04
63.84
84.63
104.14
119.86
129.63
132.10
126.96
114.97
97.82
77.72
56.85
36.91
18.84
2.86
-11.24
-23.79
-35.11
-45.51
-55.27
-64.40
-72.37
-78.04
-80.05
-77.59
-71.03
-61.99
-52.69
-44.97
-39.55
-35.94
-33.11
-30.28
-27.34
-24.81
-23.22
-22.72
-22.90
-23.13
-22.97
-22.40
-21.69
-21.19
-21.12
-21.58
-22.55
-24.03
-25.92
-28.10
-30.29
-32.21
-33.70
-34.80
-35.75
-36.96
-38.87
-41.84
-46.02
-51.30
-57.23
-63.07
-68.00
-71.32
-72.59
-71.77
-69.12
-65.09
-60.09
-54.27
-47.58
-39.77
-30.64
-20.25
-9.04
2.18
12.41
20.81
26.90
30.67
32.52
33.07
32.94
32.61
32.42
32.57
33.14
34.07
35.16
36.13
36.61
36.34
35.13
33.03
30.25
27.10
23.94
21.05
18.58
16.47
14.53
12.48
10.13
7.40
4.40
1.38
-1.40
-3.70
-5.39
-6.45
-6.93
-6.88
-6.36
-5.45
-4.24
-2.85
-1.39
-0.03
1.14
1.98
2.40
2.32
1.74
0.72
-0.49
-1.58
-2.20
-2.12
-1.33
-0.04
1.33
2.41
2.96
3.00
2.71
2.35
2.07
1.84
1.45
0.68
-0.62
-2.46
-4.72
-7.16
-9.52
-11.46
-12.62
-12.64
-11.33
-8.78
-5.34
-1.60
1.86
4.69
6.80
8.37
9.61
10.67
11.53
12.15
12.52
12.78
13.18
13.91
15.02
16.35
17.58
18.42
18.68
18.41
17.77
17.03
16.37
15.88
15.58
15.43
15.31
15.08
14.49
13.27
11.30
8.78
6.30
4.69
4.76
6.86
10.76
15.64
20.55
24.81
28.38
31.77
35.67
40.48
46.04
51.67
56.59
60.35
63.02
65.06
67.05
69.53
73.10
78.72
87.63
100.69
117.31
134.78
148.44
153.10
144.97
122.93
88.57
44.95
-4.94
-58.67
-113.71
-166.20
-210.47
-240.00
-249.51
-237.19
-205.70
-161.44
-112.53
-66.62
-29.35
-3.79
9.44
11.59
5.18
-6.70
-21.27
-36.72
-52.54
-69.18
-87.29
-106.89
-126.93
-145.28
-159.12
-165.58
-162.42
-148.76
-125.44
-95.13
-61.82
-29.78
-2.37
19.07
35.37
48.97
62.51
77.53
93.83
109.45
121.56
127.45
125.27
114.44
95.72
70.79
41.61
9.79
-23.73
-58.33
-92.94
-125.24
-151.79
-169.02
-174.97
-170.37
-158.49
-143.40
-127.82
-111.89
-93.54
-70.22
-40.85
-6.42
30.84
68.93
107.02
145.06
182.47
217.00
244.86
261.84
265.13
254.69
233.36
205.72
176.70
150.09
127.92
110.45
96.74
85.33
74.98
65.07
55.79
47.88
42.20
39.16
38.42
38.92
39.18
37.83
33.89
26.99
17.65
7.17
-2.44
-8.83
-10.08
-5.51
3.91
15.96
28.24
39.52
50.22
61.79
75.08
88.66
98.29
98.09
83.12
51.93
7.82
-41.92
-88.55
-124.91
-147.74
-158.32
-161.19
-162.07
-165.32
-172.14
-180.33
-185.17
-181.13
-163.74
-130.91
-83.91
-27.66
29.44
76.83
104.29
105.29
79.89
35.52
-15.14
-58.67
-85.67
-93.54
-85.91
-69.56
-50.64
-32.59
-16.39
-2.38
8.10
12.63
9.36
-1.46
-16.75
-31.55
-41.31
-43.95
-40.60
-34.75
-30.46
-30.45
-35.06
-42.38
-49.30
-52.96
-51.89
-46.51
-38.89
-31.79
-27.45
-26.76
-28.99
-32.35
-35.02
-36.03
-35.68
-35.08
-35.43
-37.25
-40.14
-43.13
-45.18
-45.67
-44.41
-41.44
-36.86
-30.73
-23.16
-14.47
-5.23
3.93
12.61
20.73
28.51
36.45
45.26
55.94
69.60
87.10
108.21
131.10
152.31
167.70
174.00
170.16
157.82
140.48
121.96
104.82
89.76
76.10
62.90
49.99
38.13
28.54
21.97
18.20
16.16
14.54
12.52
10.01
7.46
5.27
3.46
1.51
-1.30
-5.41
-10.67
-16.37
-21.53
-25.37
-27.54
-28.22
-28.00
-27.57
-27.60
-28.50
-30.39
-33.01
-35.84
-38.22
-39.54
-39.45
-37.84
-34.83
-30.67
-25.63
-19.93
-13.80
-7.45
-1.17
4.76
10.05
14.54
18.20
21.08
23.22
24.63
25.19
24.75
23.28
20.96
18.15
15.31
12.77
10.57
8.52
6.31
3.75
0.92
-1.91
-4.42
-6.42
-7.86
-8.84
-9.49
-9.94
-10.38
-11.01
-12.10
-13.80
-16.10
-18.78
-21.44
-23.62
-24.87
-24.88
-23.44
-20.56
-16.50
-11.71
-6.79
-2.34
1.24
3.76
5.31
6.06
6.20
5.87
5.22
4.41
3.65
3.14
3.03
3.41
4.32
5.75
7.72
10.21
13.21
16.69
20.52
24.42
28.01
30.82
32.41
32.54
31.17
28.50
24.82
20.37
15.25
9.40
2.73
-4.75
-12.73
-20.64
-27.72
-33.23
-36.67
-37.96
-37.41
-35.59
-33.14
-30.54
-28.10
-25.94
-24.14
-22.85
-22.22
-22.35
-23.16
-24.39
-25.64
-26.56
-27.01
-27.10
-27.10
-27.32
-27.88
-28.72
-29.63
-30.43
-31.04
-31.57
-32.19
-33.09
-34.29
-35.68
-37.08
-38.32
-39.36
-40.23
-41.01
-41.69
-42.14
-42.21
-41.77
-40.85
-39.61
-38.21
-36.74
-35.09
-32.99
-30.16
-26.44
-21.91
-16.86
-11.72
-6.86
-2.60
0.91
3.67
5.77
7.45
9.07
11.07
14.00
18.33
24.38
32.16
41.24
50.87
60.14
68.34
75.15
80.82
85.96
91.12
96.46
101.39
104.69
104.83
100.56
91.26
77.23
59.60
40.03
20.38
2.33
-12.83
-24.41
-32.36
-37.12
-39.46
-40.08
-39.48
-37.77
-34.83
-30.50
-24.81
-17.98
-10.36
-2.25
6.28
15.26
24.76
34.48
43.77
51.66
57.19
59.78
59.47
56.85
52.78
48.10
43.36
38.80
34.52
30.53
26.82
23.31
19.77
15.83
11.08
5.21
-1.90
-10.17
-19.30
-28.81
-38.10
-46.50
-53.44
-58.59
-61.87
-63.49
-63.86
-63.55
-63.21
-63.55
-65.10
-68.11
-72.41
-77.49
-82.70
-87.51
-91.62
-94.99
-97.56
-99.23
-99.77
-99.07
-97.22
-94.51
-91.29
-87.74
-83.77
-79.14
-73.69
-67.52
-60.97
-54.49
-48.44
-42.95
-37.97
-33.38
-29.11
-25.11
-21.31
-17.52
-13.40
-8.58
-2.76
4.10
11.81
19.98
28.20
36.10
43.50
50.44
57.06
63.42
69.45
74.77
78.93
81.51
82.40
81.83
80.28
78.34
76.49
75.00
74.01
73.57
73.67
74.16
74.54
74.01
71.50
66.06
57.23
45.24
31.07
16.18
2.10
-9.84
-18.71
-24.00
-25.55
-23.54
-18.50
-11.35
-3.28
4.58
11.35
16.64
20.45
23.02
24.59
25.33
25.24
24.19
21.90
17.94
11.86
3.42
-7.22
-19.37
-31.94
-43.80
-54.08
-62.42
-68.87
-73.62
-76.70
-77.94
-77.13
-74.29
-69.92
-64.98
-60.60
-57.72
-56.72
-57.33
-58.82
-60.37
-61.36
-61.49
-60.68
-58.80
-55.61
-50.82
-44.42
-36.89
-29.15
-22.29
-17.09
-13.70
-11.68
-10.27
-8.85
-7.22
-5.66
-4.65
-4.50
-5.13
-6.02
-6.40
-5.58
-3.15
0.97
6.58
13.44
21.23
29.71
38.49
47.07
54.73
60.71
64.47
65.86
65.22
63.20
60.46
57.42
54.01
49.90
44.68
38.14
30.47
22.11
13.62
5.45
-2.14
-8.96
-14.79
-19.29
-22.07
-22.89
-21.87
-19.54
-16.71
-14.27
-12.89
-12.90
-14.18
-16.35
-18.81
-21.02
-22.58
-23.33
-23.36
-22.95
-22.52
-22.54
-23.36
-25.16
-27.81
-30.79
-33.26
-34.26
-33.01
-29.19
-23.11
-15.53
-7.40
0.55
7.88
14.38
19.80
23.73
25.69
25.46
23.37
20.38
17.75
16.57
17.27
19.54
22.61
25.65
28.27
30.51
32.71
35.12
37.65
39.88
41.29
41.59
40.92
39.80
38.81
38.29
38.17
38.00
37.21
35.42
32.65
29.30
26.02
23.42
21.85
21.23
21.10
20.76
19.53
16.98
13.07
8.14
2.72
-2.63
-7.43
-11.31
-13.92
-14.94
-14.14
-11.56
-7.57
-2.92
1.57
5.18
7.65
9.17
10.26
11.46
13.09
15.11
17.17
18.79
19.57
19.39
18.41
17.10
16.01
15.54
15.86
16.71
17.64
18.08
17.65
16.24
14.09
11.51
8.78
5.99
3.06
-0.09
-3.42
-6.76
-9.87
-12.55
-14.66
-16.03
-16.41
-15.44
-12.83
-8.53
-2.91
3.33
9.38
14.60
18.76
22.06
24.94
27.85
31.11
34.79
38.82
43.03
47.23
51.25
54.95
58.17
60.73
62.51
63.43
63.51
62.81
61.42
59.40
56.77
53.50
49.55
44.94
39.71
33.92
27.57
20.56
12.66
3.66
-6.50
-17.60
-29.08
-40.10
-49.69
-56.91
-61.06
-61.79
-59.24
-54.04
-47.22
-39.96
-33.24
-27.57
-22.91
-18.82
-14.83
-10.77
-6.82
-3.39
-0.78
1.04
2.38
3.58
4.79
5.83
6.32
5.98
4.75
2.83
0.47
-2.19
-5.18
-8.57
-12.30
-16.07
-19.36
-21.64
-22.58
-22.07
-20.23
-17.28
-13.46
-8.96
-3.94
1.42
7.00
12.68
18.33
23.86
29.20
34.28
39.07
43.57
47.79
51.72
55.38
58.77
61.93
64.86
67.44
69.38
70.29
69.87
68.02
65.04
61.47
57.89
54.65
51.76
48.89
45.61
41.59
36.63
30.73
23.98
16.54
8.79
1.36
-4.85
-8.89
-10.09
-8.33
-4.19
1.23
6.72
11.36
14.75
16.98
18.40
19.25
19.48
18.82
16.97
13.84
9.67
5.00
0.45
-3.50
-6.64
-9.04
-10.90
-12.32
-13.23
-13.39
-12.58
-10.73
-8.05
-4.88
-1.46
2.15
6.16
10.81
16.18
22.14
28.44
34.95
41.87
49.62
58.60
68.86
79.95
91.18
102.00
112.42
123.08
134.87
148.23
162.70
176.83
188.61
196.15
198.16
193.98
183.31
165.94
141.77
111.25
75.93
38.58
2.72
-28.23
-51.94
-67.58
-75.70
-77.59
-74.57
-67.70
-57.82
-45.95
-33.49
-22.22
-13.84
-9.26
-8.25
-9.45
-11.01
-11.50
-10.56
-8.82
-7.22
-6.07
-4.35
0.06
9.60
26.14
50.54
82.56
120.95
163.31
205.84
243.60
271.41
285.43
284.39
270.27
247.10
219.19
189.51
158.88
126.50
91.30
53.48
15.18
-19.95
-48.14
-67.28
-77.82
-82.79
-86.48
-92.58
-102.48
-114.88
-126.64
-134.51
-136.63
-133.31
-126.64
-119.44
-114.20
-112.41
-114.44
-119.91
-128.13
-138.53
-151.06
-166.48
-185.51
-208.18
-233.17
-257.64
-278.04
-291.32
-296.06
-292.92
-284.11
-272.39
-259.99
-248.26
-237.71
-228.60
-221.38
-216.64
-214.92
-216.18
-219.68
-224.27
-228.95
-233.27
-237.22
-240.72
-242.74
-240.95
-232.03
-212.67
-180.74
-136.18
-81.09
-19.26
44.57
105.39
158.42
199.72
226.85
239.58
240.02
231.98
219.52
205.64
191.60
177.34
162.58
147.76
134.21
123.58
116.80
113.40
111.52
108.67
102.63
92.25
77.62
59.82
40.56
21.65
4.60
-9.69
-21.08
-30.06
-37.49
-44.29
-51.11
-58.30
-65.89
-73.77
-81.67
-89.22
-95.88
-100.95
-103.75
-103.83
-101.24
-96.53
-90.64
-84.52
-78.79
-73.54
-68.42
-62.94
-56.80
-50.10
-43.28
-36.91
-31.40
-26.90
-23.28
-20.27
-17.62
-15.15
-12.81
-10.65
-8.75
-7.27
-6.34
-6.04
-6.28
-6.81
-7.22
-7.18
-6.45
-5.09
-3.42
-1.89
-0.86
-0.49
-0.59
-0.63
0.07
2.11
5.83
11.13
17.58
24.47
31.06
36.74
41.17
44.26
46.13
47.04
47.26
47.04
46.57
46.01
45.37
44.53
43.21
41.02
37.68
33.09
27.51
21.46
15.51
10.08
5.24
0.79
-3.62
-8.23
-13.15
-18.32
-23.51
-28.20
-31.47
-32.09
-28.97
-21.79
-11.43
-0.01
9.82
15.86
17.17
14.23
8.44
1.35
-5.68
-11.45
-14.66
-13.89
-8.09
2.45
15.82
28.95
38.85
43.89
44.42
42.27
39.85
39.25
41.82
48.16
58.11
70.74
84.29
96.51
105.34
109.72
109.88
106.94
102.07
95.80
88.08
78.87
68.73
58.90
50.69
44.53
39.66
34.56
27.88
19.31
9.85
1.25
-4.85
-7.57
-7.16
-4.68
-1.47
1.30
2.85
2.95
1.86
0.32
-0.58
0.31
3.82
9.98
17.86
25.61
31.14
32.68
29.54
22.20
12.11
1.18
-8.88
-16.95
-22.68
-26.39
-28.91
-31.24
-34.21
-38.16
-42.78
-47.29
-50.73
-52.58
-53.01
-52.98
-53.89
-56.99
-62.93
-71.40
-81.09
-89.94
-95.74
-96.79
-92.55
-83.89
-72.74
-61.34
-51.34
-43.24
-36.59
-30.50
-24.33
-18.05
-11.95
-6.38
-1.30
3.58
8.46
13.12
16.94
19.13
19.20
17.22
13.78
9.69
5.62
1.95
-1.34
-4.36
-7.12
-9.42
-10.77
-10.61
-8.50
-4.33
1.63
8.67
15.69
21.39
24.48
24.08
19.96
12.73
3.62
-5.86
-14.39
-21.16
-26.08
-29.60
-32.46
-35.34
-38.56
-41.99
-45.06
-46.97
-47.09
-45.23
-41.96
-38.56
-36.68
-37.90
-43.06
-51.96
-63.42
-75.60
-86.57
-94.84
-99.60
-100.82
-99.15
-95.75
-91.98
-89.03
-87.47
-86.82
-85.59
-81.83
-74.04
-62.06
-47.34
-32.60
-20.90
-14.67
-14.90
-20.72
-29.32
-36.28
-36.75
-27.13
-6.88
20.60
48.75
70.20
79.69
76.08
62.45
44.19
26.37
11.76
0.59
-8.40
-16.22
-22.71
-26.63
-26.53
-21.76
-12.80
-1.06
11.73
24.15
35.31
44.75
52.20
57.38
59.90
59.52
56.35
51.14
45.17
39.98
36.82
36.16
37.46
39.45
40.75
40.48
38.67
36.06
33.56
31.68
30.24
28.51
25.71
21.46
15.90
9.53
2.91
-3.58
-9.69
-15.20
-19.83
-23.23
-25.13
-25.37
-24.00
-21.32
-17.84
-14.30
-11.51
-10.09
-10.19
-11.29
-12.39
-12.39
-10.65
-7.25
-2.95
1.18
4.24
5.80
5.90
4.87
3.25
1.64
0.69
0.97
2.66
5.24
7.30
6.93
2.32
-7.38
-21.63
-38.59
-55.84
-71.12
-83.00
-90.80
-94.34
-93.46
-87.88
-77.48
-62.80
-45.36
-27.42
-11.44
0.71
8.33
11.89
12.71
12.35
12.17
12.99
15.19
18.76
23.48
28.90
34.42
39.35
43.03
45.02
45.18
43.77
41.28
38.30
35.27
32.46
29.85
27.28
24.59
21.79
19.13
17.08
16.16
16.72
18.88
22.35
26.64
31.15
35.35
38.96
41.98
44.60
47.09
49.66
52.38
55.21
58.10
60.95
63.71
66.19
68.04
68.71
67.56
64.10
58.25
50.34
41.08
31.35
21.90
13.22
5.43
-1.59
-8.12
-14.37
-20.30
-25.58
-29.59
-31.69
-31.38
-28.58
-23.64
-17.33
-10.53
-4.02
1.75
6.66
10.89
14.66
18.08
21.03
23.30
24.65
25.09
24.82
24.20
23.56
23.03
22.51
21.78
20.69
19.24
17.59
15.95
14.39
12.87
11.19
9.13
6.45
3.02
-1.19
-6.01
-11.00
-15.49
-18.68
-19.92
-18.94
-15.92
-11.47
-6.36
-1.32
3.18
6.95
10.03
12.50
14.50
16.08
17.30
18.20
18.85
19.38
19.95
20.72
21.74
22.91
23.98
24.64
24.64
23.90
22.51
20.66
18.50
16.07
13.30
10.04
6.21
1.79
-3.14
-8.51
-14.21
-20.02
-25.55
-30.12
-32.92
-33.27
-30.94
-26.29
-20.24
-13.91
-8.26
-3.76
-0.38
2.23
4.44
6.48
8.41
10.17
11.72
13.07
14.21
15.10
15.62
15.73
15.43
14.89
14.37
14.07
14.12
14.46
14.94
15.37
15.62
15.60
15.25
14.56
13.47
11.97
10.06
7.77
5.25
2.68
0.44
-1.03
-1.20
0.30
3.58
8.32
13.84
19.31
23.94
27.25
29.12
29.67
29.14
27.76
25.64
22.91
19.75
16.46
13.38
10.78
8.69
6.86
4.83
2.13
-1.45
-5.79
-10.42
-14.80
-18.54
-21.58
-24.23
-27.02
-30.48
-35.00
-40.75
-47.58
-55.10
-62.66
-69.41
-74.40
-76.85
-76.30
-72.79
-66.91
-59.59
-51.85
-44.56
-38.23
-33.01
-28.82
-25.46
-22.71
-20.36
-18.21
-16.05
-13.66
-10.93
-7.87
-4.61
-1.42
1.42
3.65
5.11
5.77
5.70
5.09
4.09
2.79
1.14
-1.03
-3.90
-7.54
-11.91
-16.79
-21.90
-26.91
-31.44
-35.01
-37.04
-36.99
-34.49
-29.69
-23.20
-15.99
-9.08
-3.19
1.46
5.04
7.98
10.69
13.39
16.14
18.87
21.48
23.89
26.03
27.84
29.25
30.25
30.83
31.07
31.04
30.76
30.19
29.19
27.57
25.22
22.15
18.53
14.68
10.93
7.57
4.69
2.20
-0.13
-2.63
-5.63
-9.31
-13.61
-18.13
-22.16
-24.79
-25.28
-23.26
-18.90
-12.87
-6.08
0.59
6.55
11.58
15.73
19.21
22.25
24.97
27.42
29.56
31.33
32.75
33.81
34.61
35.20
35.64
35.86
35.83
35.49
34.85
33.90
32.58
30.78
28.35
25.22
21.48
17.37
13.21
9.27
5.60
2.08
-1.54
-5.57
-10.17
-15.27
-20.52
-25.30
-28.87
-30.64
-30.32
-28.06
-24.50
-20.44
-16.69
-13.76
-11.80
-10.66
-10.01
-9.58
-9.18
-8.76
-8.31
-7.89
-7.48
-7.11
-6.87
-6.90
-7.43
-8.63
-10.49
-12.81
-15.30
-17.74
-20.13
-22.74
-25.97
-30.11
-35.13
-40.68
-46.26
-51.40
-55.84
-59.60
-62.83
-65.83
-68.87
-72.20
-75.84
-79.48
-82.38
-83.55
-82.03
-77.38
-69.95
-60.86
-51.68
-43.79
-38.00
-34.28
-32.05
-30.53
-29.12
-27.52
-25.69
-23.60
-21.11
-18.02
-14.14
-9.48
-4.33
0.84
5.53
9.48
12.70
15.44
18.00
20.49
22.80
24.62
25.61
25.60
24.66
23.08
21.19
19.20
17.15
14.89
12.22
8.96
4.94
0.05
-5.80
-12.53
-19.72
-26.54
-31.79
-34.26
-33.08
-28.09
-19.94
-9.84
0.80
10.78
19.44
26.62
32.50
37.44
41.74
45.62
49.21
52.61
55.81
58.78
61.39
63.41
64.62
64.88
64.20
62.74
60.80
58.70
56.70
54.84
52.96
50.73
47.78
43.90
39.16
33.89
28.61
23.79
19.70
16.26
13.16
10.00
6.42
2.21
-2.71
-8.26
-14.10
-19.67
-24.11
-26.52
-26.15
-22.79
-16.78
-9.00
-0.55
7.58
14.71
20.59
25.30
29.08
32.20
34.91
37.38
39.71
41.94
44.00
45.82
47.25
48.11
48.20
47.24
45.03
41.45
36.59
30.75
24.39
17.96
11.81
6.10
0.92
-3.68
-7.58
-10.61
-12.66
-13.84
-14.44
-14.81
-15.18
-15.46
-15.22
-13.94
-11.23
-7.06
-1.83
3.83
9.17
13.56
16.56
17.96
17.88
16.92
16.16
16.88
20.09
25.85
32.84
38.54
39.81
33.90
19.15
-4.62
-36.06
-72.47
-109.93
-143.85
-169.79
-184.66
-187.76
-181.16
-169.01
-155.99
-145.62
-139.33
-136.53
-135.55
-134.77
-133.22
-130.58
-126.77
-121.69
-115.22
-107.51
-98.86
-89.19
-77.53
-61.80
-39.44
-8.76
29.80
73.21
116.45
154.23
182.74
201.03
211.26
217.79
225.30
237.05
253.72
273.14
291.10
302.46
302.34
286.97
254.45
205.56
144.25
77.53
13.90
-39.03
-77.23
-101.53
-116.84
-129.29
-143.06
-158.98
-174.90
-187.98
-196.40
-199.42
-195.96
-183.23
-157.19
-115.08
-58.58
4.52
61.86
100.50
111.34
92.02
47.05
-14.35
-81.08
-142.59
-190.34
-218.60
-225.06
-211.20
-181.84
-143.79
-104.00
-67.86
-38.43
-16.99
-4.08
-0.27
-6.17
-22.05
-46.87
-78.11
-112.30
-145.93
-176.24
-201.69
-221.69
-235.93
-243.74
-243.90
-234.82
-215.32
-185.69
-148.61
-109.36
-74.89
-51.38
-41.90
-44.94
-54.66
-63.18
-63.63
-52.29
-29.05
3.50
41.36
79.82
113.80
138.53
150.95
151.45
144.58
137.87
138.94
152.40
178.24
212.47
249.25
282.74
308.36
322.90
324.46
312.85
290.17
260.73
230.06
203.11
182.72
169.59
163.14
162.33
166.21
173.57
182.26
189.21
191.28
186.44
174.65
157.67
138.10
118.14
98.93
80.67
63.33
47.51
34.49
25.75
21.94
22.15
24.08
25.14
23.71
20.10
16.33
14.92
17.44
23.69
31.97
40.17
46.89
51.80
55.25
57.42
57.94
56.16
51.86
45.81
39.68
35.23
33.36
33.73
35.17
36.43
37.20
38.31
41.13
46.50
53.84
61.17
66.15
67.39
65.13
60.89
56.12
51.05
44.28
33.78
18.42
-0.95
-21.68
-40.57
-55.39
-65.66
-72.26
-76.34
-78.47
-78.59
-76.51
-72.58
-67.77
-63.13
-59.35
-56.36
-53.63
-50.63
-47.22
-43.73
-40.73
-38.67
-37.61
-37.35
-37.44
-37.47
-37.10
-36.15
-34.62
-32.67
-30.64
-28.92
-27.80
-27.32
-27.28
-27.40
-27.47
-27.43
-27.31
-27.14
-26.85
-26.41
-25.88
-25.56
-25.89
-27.22
-29.62
-32.67
-35.61
-37.57
-37.95
-36.68
-34.18
-31.19
-28.46
-26.55
-25.66
-25.68
-26.22
-26.87
-27.21
-26.96
-26.02
-24.43
-22.41
-20.31
-18.57
-17.62
-17.77
-19.11
-21.45
-24.38
-27.46
-30.40
-33.19
-36.04
-39.24
-42.99
-47.31
-52.07
-57.07
-62.09
-66.85
-71.04
-74.28
-76.30
-77.00
-76.49
-74.97
-72.42
-68.45
-62.41
-53.72
-42.34
-28.92
-14.78
-1.41
9.90
18.32
23.44
25.21
23.88
20.15
15.22
10.68
8.09
8.43
11.76
17.26
23.69
29.98
35.57
40.46
44.87
48.96
52.71
56.07
59.08
61.98
64.95
67.88
70.25
71.17
69.71
65.27
57.75
47.59
35.51
22.37
9.04
-3.58
-14.51
-22.81
-27.78
-29.31
-28.05
-25.30
-22.60
-21.16
-21.37
-22.77
-24.35
-25.08
-24.34
-22.11
-18.76
-14.67
-10.05
-4.88
0.78
6.59
11.79
15.43
16.68
15.22
11.31
5.74
-0.54
-6.72
-12.33
-17.21
-21.40
-24.90
-27.60
-29.30
-29.90
-29.54
-28.60
-27.72
-27.49
-28.36
-30.43
-33.36
-36.45
-38.79
-39.46
-37.84
-33.72
-27.47
-19.93
-12.16
-5.10
0.65
4.96
8.07
10.42
12.37
14.12
15.63
16.81
17.59
18.05
18.42
18.97
19.89
21.13
22.41
23.34
23.61
23.11
21.98
20.59
19.28
18.27
17.60
17.11
16.62
15.99
15.17
14.14
12.92
11.51
9.92
8.26
6.73
5.63
5.34
6.31
9.01
13.89
21.26
31.16
43.13
56.28
69.42
81.44
91.68
100.14
107.35
114.11
120.96
128.00
134.85
140.97
145.98
149.77
152.33
153.52
152.91
149.90
144.00
135.11
123.40
109.16
92.48
73.38
52.08
29.47
7.26
-12.37
-27.63
-37.95
-44.23
-48.46
-52.83
-58.73
-66.33
-74.71
-82.39
-88.01
-90.75
-90.47
-87.48
-82.37
-75.74
-68.14
-60.10
-52.12
-44.57
-37.65
-31.30
-25.29
-19.32
-13.11
-6.49
0.71
8.60
17.35
26.95
37.15
47.26
56.30
63.27
67.52
69.08
68.83
68.40
69.79
74.70
83.64
95.20
105.92
110.98
105.47
85.94
51.55
4.49
-50.46
-106.98
-158.43
-199.11
-225.24
-235.55
-231.44
-216.56
-195.71
-173.55
-153.44
-136.96
-124.09
-113.91
-105.34
-97.49
-89.84
-82.05
-73.95
-65.52
-56.96
-48.62
-41.00
-34.46
-29.07
-24.54
-20.39
-16.19
-11.72
-7.11
-2.72
1.00
3.71
5.26
5.69
5.17
3.94
2.29
0.45
-1.40
-3.23
-5.10
-7.13
-9.35
-11.73
-14.14
-16.54
-19.01
-21.83
-25.22
-29.15
-33.12
-36.19
-37.28
-35.58
-30.96
-24.00
-15.84
-7.74
-0.66
4.95
9.15
12.26
14.63
16.50
17.91
18.86
19.38
19.53
19.46
19.28
19.00
18.56
17.83
16.73
15.21
13.38
11.42
9.53
7.87
6.49
5.26
3.98
2.37
0.32
-2.15
-4.80
-7.33
-9.50
-11.29
-12.89
-14.58
-16.69
-19.42
-22.84
-26.84
-31.11
-35.05
-37.83
-38.60
-36.73
-32.11
-25.24
-17.10
-8.85
-1.50
4.28
8.15
10.03
9.97
8.17
5.06
1.38
-1.89
-3.80
-3.67
-1.43
2.34
6.63
10.32
12.58
13.10
12.07
10.05
7.64
5.25
3.03
0.89
-1.33
-3.67
-6.05
-8.27
-10.14
-11.69
-13.17
-15.05
-17.81
-21.72
-26.66
-32.02
-36.87
-40.13
-40.97
-38.93
-34.14
-27.19
-18.98
-10.42
-2.28
4.98
11.20
16.47
20.99
24.98
28.57
31.77
34.54
36.86
38.81
40.57
42.35
44.26
46.19
47.79
48.65
48.47
47.25
45.29
43.03
40.81
38.70
36.45
33.65
29.95
25.30
19.96
14.43
9.20
4.51
0.31
-3.75
-8.15
-13.30
-19.37
-26.23
-33.34
-39.87
-44.81
-47.19
-46.36
-42.24
-35.34
-26.68
-17.47
-8.81
-1.39
4.54
9.09
12.56
15.26
17.38
19.03
20.23
21.06
21.62
22.08
22.56
23.05
23.41
23.39
22.79
21.57
19.90
18.00
16.06
14.08
11.86
9.18
5.90
2.12
-1.91
-5.84
-9.47
-12.81
-16.10
-19.78
-24.28
-29.86
-36.34
-43.08
-48.97
-52.74
-53.36
-50.40
-44.19
-35.74
-26.35
-17.26
-9.25
-2.63
2.68
6.94
10.35
13.01
15.00
16.46
17.66
18.86
20.24
21.72
22.98
23.58
23.16
21.68
19.38
16.71
14.03
11.43
8.65
5.22
0.71
-5.02
-11.69
-18.70
-25.30
-30.89
-35.18
-38.27
-40.58
-42.67
-45.07
-48.17
-52.04
-56.34
-60.31
-62.86
-62.86
-59.50
-52.65
-42.90
-31.41
-19.47
-8.10
2.15
11.16
19.00
25.71
31.22
35.43
38.36
40.29
41.67
43.01
44.72
46.95
49.59
52.34
54.87
56.89
58.25
58.92
58.99
58.66
58.27
58.26
59.12
61.21
64.50
68.62
73.00
77.18
81.09
84.93
88.85
92.58
95.21
95.50
92.36
85.38
75.04
62.54
49.36
36.97
26.69
19.69
17.07
19.67
27.72
40.51
56.25
72.25
85.46
93.15
93.66
86.83
74.01
57.61
40.28
24.16
10.29
-1.38
-11.61
-21.35
-31.31
-41.87
-53.03
-64.44
-75.40
-84.88
-91.65
-94.79
-94.00
-89.90
-83.80
-77.29
-71.68
-67.78
-65.97
-66.35
-68.91
-73.38
-79.10
-84.96
-89.60
-91.93
-91.60
-89.16
-85.81
-82.77
-80.69
-79.37
-77.94
-75.35
-70.99
-64.80
-57.31
-49.25
-41.14
-33.17
-25.29
-17.42
-9.80
-2.87
2.81
7.02
10.03
12.59
15.57
19.49
24.10
28.34
30.70
29.94
25.76
19.13
11.95
6.24
3.15
2.28
1.77
-0.94
-7.98
-20.06
-36.01
-53.24
-68.77
-80.34
-87.41
-91.60
-96.50
-106.70
-126.35
-157.12
-196.82
-238.96
-274.06
-292.10
-285.43
-251.27
-193.07
-120.23
-46.04
15.91
55.81
71.00
66.68
53.83
44.73
48.47
68.25
101.79
144.03
190.27
237.77
285.11
330.25
369.19
396.49
407.40
400.32
377.88
346.08
312.13
281.69
257.36
238.34
221.58
203.42
181.02
152.88
118.70
78.83
34.03
-14.17
-63.16
-109.26
-148.54
-178.20
-197.71
-209.05
-215.77
-221.21
-226.90
-231.79
-232.74
-225.93
-208.49
-179.82
-141.99
-99.22
-56.78
-19.62
8.75
26.85
35.26
36.01
31.89
25.67
19.61
15.13
12.77
12.31
12.97
13.79
13.87
12.67
10.01
6.05
1.18
-4.10
-9.28
-14.00
-18.17
-21.97
-25.77
-29.96
-34.78
-40.24
-46.19
-52.42
-58.81
-65.26
-71.61
-77.49
-82.28
-85.26
-85.85
-83.84
-79.58
-74.02
-68.39
-63.92
-61.40
-60.95
-62.00
-63.56
-64.60
-64.45
-63.00
-60.57
-57.63
-54.49
-51.18
-47.49
-43.17
-38.17
-32.75
-27.40
-22.72
-19.13
-16.78
-15.55
-15.21
-15.54
-16.41
-17.74
-19.45
-21.37
-23.42
-25.77
-29.01
-34.07
-41.87
-52.68
-65.69
-78.86
-89.43
-94.71
-93.04
-84.29
-69.87
-52.18
-33.83
-16.92
-2.71
8.46
16.92
23.32
28.47
33.07
37.59
42.16
46.63
50.61
53.73
55.90
57.45
59.14
61.91
66.50
73.14
81.28
89.79
97.22
102.27
104.28
103.31
100.19
96.08
92.15
89.19
87.43
86.54
85.64
83.54
79.09
71.71
61.91
51.57
43.72
41.70
47.99
63.18
85.48
111.16
135.62
154.59
165.21
166.44
159.00
144.78
126.14
105.08
82.80
59.65
35.55
10.56
-14.75
-39.35
-62.12
-82.32
-99.52
-113.32
-122.74
-126.27
-122.44
-110.90
-93.24
-72.91
-54.12
-40.23
-32.44
-29.63
-29.22
-28.70
-26.72
-23.49
-20.16
-17.88
-17.19
-17.98
-20.25
-24.69
-33.01
-47.24
-68.65
-96.57
-127.99
-158.14
-181.81
-194.62
-193.66
-177.62
-146.74
-102.95
-50.42
4.32
53.19
88.63
106.12
105.95
93.18
75.52
60.31
51.91
50.96
55.35
62.12
69.10
75.39
80.92
85.63
89.13
90.77
90.23
87.91
84.84
82.00
79.60
76.54
70.77
60.38
44.95
26.44
8.97
-2.78
-5.67
0.31
11.81
23.58
30.80
31.04
25.00
15.60
6.32
-0.47
-4.24
-5.95
-7.18
-9.22
-12.58
-16.94
-21.52
-25.45
-28.16
-29.44
-29.41
-28.32
-26.30
-23.43
-19.90
-16.27
-13.52
-12.74
-14.64
-19.09
-25.08
-31.22
-36.40
-40.35
-43.75
-47.73
-53.25
-60.39
-68.24
-75.12
-79.17
-78.94
-73.90
-64.62
-52.62
-39.89
-28.22
-18.62
-11.06
-4.65
1.85
9.36
17.95
26.90
35.02
41.32
45.40
47.58
48.63
49.27
49.83
50.20
50.06
49.26
47.93
46.43
45.00
43.51
41.31
37.58
31.66
23.45
13.44
2.55
-8.30
-18.57
-28.14
-37.13
-45.59
-53.16
-59.05
-62.33
-62.30
-58.82
-52.41
-44.16
-35.31
-26.94
-19.72
-13.89
-9.38
-6.00
-3.54
-1.86
-0.82
-0.20
0.31
1.12
2.51
4.57
6.98
9.15
10.42
10.37
9.00
6.63
3.65
0.13
-4.19
-9.68
-16.34
-23.49
-29.94
-34.56
-36.83
-37.16
-36.61
-36.25
-36.59
-37.40
-37.83
-37.05
-34.60
-30.61
-25.69
-20.70
-16.54
-14.00
-13.69
-15.92
-20.71
-27.87
-37.13
-48.18
-60.49
-73.02
-84.16
-92.15
-95.82
-95.48
-93.13
-91.96
-95.10
-104.20
-119.25
-138.69
-160.73
-184.22
-208.69
-233.37
-256.16
-273.26
-280.10
-273.47
-252.85
-220.96
-182.58
-142.39
-103.17
-65.32
-28.05
9.12
44.44
75.07
98.37
113.55
122.22
127.55
132.34
137.37
141.76
142.09
136.47
125.42
112.04
100.60
94.51
94.76
99.67
107.47
113.85
117.58
119.30
120.81
123.49
127.29
130.47
130.40
127.11
117.71
103.80
88.75
76.87
72.15
77.30
93.06
118.26
153.16
191.65
231.02
269.62
306.94
343.38
379.84
417.14
437.03
459.63
477.71
485.85
478.78
453.68
411.72
358.14
300.32
244.79
197.61
154.92
113.42
70.05
24.30
-21.31
-62.54
-95.73
-119.40
-132.38
-139.50
-143.34
-145.63
-147.01
-147.65
-147.95
-148.84
-151.46
-155.06
-160.69
-166.80
-171.13
-171.54
-166.77
-156.87
-143.10
-127.45
-111.16
-96.23
-83.11
-71.61
-61.36
-52.40
-45.26
-40.72
-39.36
-40.80
-44.39
-48.79
-52.78
-55.76
-57.89
-59.81
-62.14
-65.17
-68.78
-72.58
-76.20
-79.30
-81.53
-82.34
-80.99
-76.74
-69.17
-58.40
-45.25
-31.03
-17.20
-4.92
5.32
13.69
20.85
27.43
33.52
38.50
41.30
41.11
37.87
32.50
26.38
20.51
14.84
8.25
-0.83
-13.39
-29.14
-46.43
-62.83
-76.01
-84.36
-87.11
-84.06
-75.34
-61.39
-43.20
-22.40
-1.11
18.62
35.40
48.97
60.17
70.55
81.74
94.97
110.80
129.21
149.84
172.27
196.06
220.44
243.83
263.53
275.87
277.14
264.77
238.53
200.85
155.95
108.36
61.44
16.47
-27.07
-70.20
-113.29
-155.38
-194.69
-229.56
-259.12
-283.38
-302.43
-315.71
-321.76
-319.05
-307.13
-287.83
-265.13
-243.97
-228.27
-219.42
-215.83
-213.99
-210.05
-201.30
-186.72
-166.63
-142.21
-115.60
-90.17
-70.43
-61.23
-65.84
-83.77
-110.20
-137.23
-156.95
-164.58
-160.12
-147.58
-132.49
-119.14
-109.06
-101.55
-95.22
-89.35
-84.21
-79.95
-75.33
-67.31
-51.83
-25.64
11.73
57.11
104.39
146.46
177.81
196.24
203.17
202.50
198.69
194.91
192.18
189.60
185.33
177.69
165.95
150.63
133.39
116.49
101.98
90.83
82.29
73.84
62.09
44.09
18.87
-11.92
-44.37
-73.71
-95.92
-108.97
-113.00
-109.81
-102.24
-93.76
-88.19
-88.96
-97.90
-113.92
-132.61
-147.50
-152.62
-145.33
-127.77
-106.03
-87.63
-78.42
-80.64
-92.72
-110.45
-128.72
-142.82
-149.24
-146.09
-133.40
-113.23
-89.22
-65.58
-46.30
-34.50
-32.31
-40.74
-59.25
-85.12
-113.21
-136.71
-149.06
-146.25
-128.30
-98.87
-63.31
-26.09
11.06
49.25
90.92
137.53
187.77
237.41
280.75
312.94
331.97
339.56
340.08
338.50
338.08
339.21
339.80
336.82
328.11
313.31
293.56
270.55
245.63
219.72
193.77
169.17
147.72
130.79
118.51
109.33
100.49
89.20
73.79
54.36
32.43
10.04
-11.20
-30.61
-48.40
-65.16
-81.33
-96.88
-111.54
-125.00
-136.99
-146.99
-153.79
-155.20
-148.90
-133.89
-111.84
-87.33
-66.62
-55.38
-56.61
-69.67
-91.00
-115.99
-140.78
-163.05
-181.66
-195.40
-202.20
-199.19
-183.82
-155.24
-115.26
-68.21
-19.72
24.82
61.77
89.81
109.54
122.34
129.18
130.29
125.71
116.17
103.55
90.72
80.52
74.64
73.08
74.34
76.33
77.28
76.36
73.79
70.53
67.72
66.31
66.75
68.94
72.36
76.21
79.68
82.04
82.72
81.18
76.80
68.97
57.23
41.75
23.51
4.35
-13.49
-28.04
-38.18
-43.87
-46.00
-45.86
-44.56
-42.74
-40.53
-37.82
-34.56
-30.93
-27.28
-23.96
-21.19
-18.91
-16.98
-15.24
-13.64
-12.30
-11.43
-11.27
-12.02
-13.83
-16.79
-20.87
-25.90
-31.53
-37.24
-42.55
-47.13
-50.98
-54.41
-57.89
-61.72
-65.65
-68.79
-69.82
-67.43
-60.93
-50.60
-37.66
-23.83
-10.74
0.59
9.90
17.54
24.06
29.89
35.15
39.70
43.36
46.02
47.72
48.62
48.90
48.65
47.90
46.58
44.58
41.80
38.19
33.81
28.79
23.31
17.51
11.50
5.35
-0.85
-6.97
-12.87
-18.43
-23.67
-28.74
-33.78
-38.78
-43.37
-46.83
-48.22
-46.81
-42.35
-35.28
-26.61
-17.60
-9.33
-2.40
3.13
7.63
11.59
15.40
19.17
22.83
26.24
29.30
32.02
34.48
36.70
38.59
40.00
40.77
40.90
40.56
40.03
39.51
39.01
38.32
37.07
34.99
32.02
28.40
24.59
21.02
17.98
15.47
13.25
10.90
7.96
4.11
-0.69
-6.02
-11.02
-14.59
-15.67
-13.68
-8.73
-1.60
6.53
14.50
21.52
27.26
31.78
35.30
37.98
39.94
41.20
41.78
41.74
41.19
40.29
39.19
38.03
36.86
35.62
34.18
32.40
30.20
27.70
25.08
22.55
20.21
17.98
15.67
13.12
10.30
7.37
4.59
2.23
0.42
-1.03
-2.56
-4.76
-8.21
-13.17
-19.34
-25.82
-31.29
-34.40
-34.28
-30.80
-24.67
-17.04
-9.14
-1.77
4.76
10.54
15.73
20.33
24.13
26.94
28.83
30.28
32.09
34.98
39.29
44.71
50.44
55.52
59.23
61.36
62.14
62.05
61.44
60.30
58.27
54.81
49.49
42.18
33.15
23.18
13.40
5.38
0.81
0.90
5.63
13.13
19.67
20.56
11.70
-8.69
-39.00
-74.47
-108.66
-135.59
-151.55
-155.84
-150.21
-137.55
-120.60
-101.31
-80.92
-60.45
-41.09
-24.07
-10.18
0.80
10.20
19.92
31.52
45.25
59.75
72.60
81.24
84.14
81.23
73.76
63.59
52.41
41.31
30.75
20.72
11.01
1.26
-8.93
-19.87
-31.65
-43.93
-56.04
-67.37
-77.71
-87.43
-97.17
-107.19
-116.87
-124.71
-128.82
-127.85
-121.63
-111.34
-99.11
-87.16
-77.13
-69.59
-64.04
-59.39
-54.40
-48.26
-40.85
-32.73
-24.96
-18.73
-14.94
-13.90
-15.22
-17.88
-20.61
-22.36
-22.73
-22.20
-21.96
-23.41
-27.50
-34.31
-42.95
-51.92
-59.56
-64.46
-65.61
-62.37
-54.62
-43.08
-29.47
-16.30
-5.98
0.29
3.26
5.32
9.29
16.78
27.22
38.15
46.68
51.07
51.72
50.90
51.47
55.56
63.82
75.57
89.51
104.55
120.11
135.96
151.77
166.77
179.81
189.69
195.72
198.07
197.81
196.51
195.63
195.96
197.27
198.45
197.94
194.29
186.67
175.04
160.10
142.97
124.88
106.85
89.52
73.23
58.13
44.39
32.33
22.39
14.97
10.19
7.78
7.02
6.91
6.45
4.79
1.38
-4.03
-11.37
-20.15
-29.43
-37.98
-44.57
-48.47
-49.79
-49.53
-49.13
-49.77
-51.84
-54.80
-57.56
-59.19
-59.42
-58.83
-58.38
-58.93
-60.77
-63.54
-66.57
-69.29
-71.48
-73.31
-75.13
-77.20
-79.55
-81.94
-84.05
-85.55
-86.17
-85.67
-83.84
-80.54
-75.77
-69.75
-62.87
-55.61
-48.47
-41.82
-35.93
-30.95
-27.02
-24.23
-22.59
-21.95
-21.94
-22.10
-21.96
-21.23
-19.86
-18.09
-16.28
-14.85
-14.01
-13.80
-14.08
-14.68
-15.56
-16.82
-18.70
-21.39
-24.90
-29.00
-33.27
-37.28
-40.73
-43.54
-45.86
-48.01
-50.38
-53.42
-57.49
-62.67
-68.67
-74.64
-79.28
-81.14
-79.09
-72.66
-62.21
-48.78
-33.70
-18.22
-3.27
10.56
22.93
33.52
42.09
48.46
52.69
55.07
56.03
55.98
55.17
53.67
51.48
48.66
45.43
42.07
38.78
35.55
32.20
28.51
24.54
20.67
17.57
15.96
16.25
18.30
21.49
24.86
27.43
28.52
28.06
26.68
25.63
26.45
30.43
38.23
49.61
63.59
78.77
93.95
108.44
122.17
135.36
148.36
161.46
174.71
187.67
199.19
207.27
209.31
202.96
186.99
162.08
130.56
95.42
58.73
20.65
-20.25
-64.94
-111.65
-155.07
-188.08
-204.71
-202.82
-185.06
-157.50
-127.00
-99.05
-77.09
-63.09
-58.40
-63.72
-78.10
-98.16
-118.48
-133.46
-139.79
-137.87
-131.55
-125.98
-125.06
-129.78
-137.99
-145.59
-147.83
-141.33
-125.14
-101.57
-75.62
-53.98
-42.98
-46.32
-63.45
-88.78
-112.91
-125.01
-116.94
-86.45
-38.55
16.18
65.32
98.48
110.83
103.75
83.80
58.40
33.32
11.27
-7.07
-22.01
-35.16
-48.04
-62.11
-76.93
-92.50
-108.81
-126.14
-144.15
-162.34
-181.90
-203.52
-227.27
-249.88
-269.32
-285.10
-298.42
-309.11
-314.28
-310.55
-293.70
-261.80
-214.57
-159.35
-108.36
-74.85
-66.59
-70.43
-71.62
-56.64
-38.83
-21.48
-3.90
24.95
70.20
132.21
205.70
278.57
337.26
370.75
377.39
360.93
329.52
292.28
257.91
231.60
211.92
193.50
169.90
139.78
105.20
71.36
43.30
24.89
17.50
19.71
30.37
49.24
77.96
115.64
156.87
192.26
212.71
212.24
190.93
155.97
118.55
89.54
76.83
84.90
113.65
158.10
209.75
255.46
281.89
280.26
249.83
197.38
133.49
67.49
4.10
-56.85
-117.72
-179.02
-237.05
-284.35
-312.11
-313.65
-287.65
-239.50
-180.30
-123.95
-82.60
-62.77
-63.99
-79.80
-101.10
-120.51
-134.78
-144.57
-152.38
-159.25
-163.86
-163.99
-158.75
-150.16
-143.67
-146.11
-162.48
-193.99
-235.83
-278.82
-312.53
-328.26
-320.76
-290.07
-240.93
-180.97
-119.07
-60.98
-8.96
37.09
78.45
116.89
152.94
186.02
214.87
237.34
253.56
265.00
273.26
272.55
257.96
227.61
184.38
142.55
106.95
79.23
60.42
48.50
43.13
45.06
54.95
73.14
99.29
130.86
165.28
198.90
226.67
243.70
247.39
238.11
219.21
195.49
170.33
146.25
123.90
102.40
80.94
59.86
40.43
24.05
11.37
1.42
-6.67
-13.41
-18.79
-22.27
-23.09
-20.98
-16.45
-10.67
-5.39
-1.74
-0.11
-0.24
-1.34
-2.52
-3.13
-2.96
-2.24
-1.59
-1.49
-2.16
-3.46
-5.00
-6.33
-7.14
-7.42
-7.44
-7.63
-8.46
-10.20
-12.85
-16.14
-19.63
-22.90
-25.70
-28.03
-30.07
-32.04
-33.95
-35.52
-36.25
-35.61
-33.30
-29.49
-24.81
-20.09
-16.13
-13.36
-11.77
-11.03
-10.72
-10.51
-10.24
-9.84
-9.20
-8.16
-6.59
-4.70
-3.04
-2.41
-3.55
-6.73
-11.54
-16.95
-21.69
-24.75
-25.68
-24.62
-22.22
-19.31
-16.61
-14.70
-13.90
-14.25
-15.41
-16.51
-16.12
-12.52
-4.16
9.68
28.45
50.30
72.70
93.21
110.38
124.13
135.49
145.93
156.46
167.14
177.07
184.81
189.07
189.16
185.22
177.98
168.27
156.35
141.68
123.18
99.87
71.98
41.50
12.09
-12.11
-27.95
-34.48
-33.16
-27.23
-20.61
-17.08
-20.07
-32.63
-56.93
-92.97
-137.24
-182.38
-218.74
-237.83
-235.68
-214.75
-182.73
-149.16
-121.33
-101.81
-88.58
-77.04
-62.61
-42.66
-17.23
11.35
39.29
62.21
76.29
79.38
72.17
58.44
44.50
37.45
42.79
62.26
92.61
126.12
152.54
162.04
148.19
110.25
53.59
-11.66
-73.89
-123.33
-154.73
-168.23
-168.23
-160.87
-151.60
-143.44
-136.85
-130.97
-124.91
-118.68
-113.12
-108.97
-105.95
-102.94
-98.53
-92.11
-84.95
-79.38
-77.21
-78.32
-80.17
-78.96
-72.17
-59.56
-42.71
-23.97
-3.42
21.17
52.10
88.28
123.92
148.93
153.88
134.94
93.79
38.07
-22.47
-80.41
-133.07
-181.06
-227.34
-273.09
-315.73
-353.14
-382.24
-400.77
-408.59
-408.00
-401.45
-393.50
-387.06
-382.83
-384.20
-393.57
-411.30
-434.86
-459.14
-475.84
-480.20
-470.29
-422.61
-329.68
-200.12
-55.27
81.49
182.47
252.18
302.09
343.67
385.78
431.54
479.20
525.54
566.67
598.40
618.65
624.17
615.02
595.61
569.66
540.81
510.76
478.26
439.63
392.49
335.47
272.73
214.66
172.70
156.15
167.88
201.77
243.78
277.58
288.83
271.68
230.37
175.14
117.48
65.58
22.54
-12.48
-41.16
-65.19
-85.64
-104.05
-123.57
-147.40
-176.14
-205.54
-227.05
-231.51
-214.28
-178.66
-135.64
-99.64
-82.59
-89.04
-115.04
-150.79
-185.16
-209.67
-220.22
-216.71
-201.43
-177.79
-149.65
-121.08
-96.06
-77.63
-67.27
-64.27
-66.11
-69.10
-69.53
-64.74
-53.79
-37.65
-18.89
-1.00
12.62
19.63
19.58
13.98
5.90
-1.14
-4.49
-3.39
0.85
5.55
7.96
6.60
1.87
-4.27
-9.38
-11.76
-11.15
-8.61
-5.70
-3.51
-2.18
-1.04
0.72
3.44
6.66
9.42
10.81
10.54
9.04
7.22
5.93
5.51
5.64
5.58
4.56
2.22
-1.20
-4.98
-8.23
-10.25
-10.74
-9.86
-8.01
-5.67
-3.17
-0.65
1.85
4.31
6.61
8.54
9.90
10.52
10.40
9.63
8.42
7.07
5.89
5.17
5.08
5.63
6.69
8.08
9.69
11.52
13.54
15.66
17.57
18.82
19.05
18.26
16.83
15.46
14.83
15.26
16.63
18.48
20.27
21.62
22.37
22.56
22.22
21.41
20.11
18.40
16.48
14.60
13.00
11.77
10.85
10.05
9.19
8.19
7.05
5.89
4.80
3.91
3.21
2.71
2.34
1.97
1.45
0.65
-0.52
-2.00
-3.65
-5.19
-6.31
-6.74
-6.40
-5.46
-4.34
-3.59
-3.67
-4.70
-6.44
-8.40
-10.03
-11.02
-11.31
-11.09
-10.57
-9.88
-9.04
-8.02
-6.87
-5.71
-4.71
-4.02
-3.69
-3.66
-3.77
-3.79
-3.47
-2.65
-1.32
0.33
2.01
3.44
4.54
5.41
6.23
7.16
8.17
9.10
9.76
10.07
10.08
9.87
9.49
8.85
7.83
6.35
4.47
2.43
0.50
-1.13
-2.42
-3.46
-4.35
-5.05
-5.45
-5.41
-4.93
-4.29
-3.84
-3.87
-4.41
-5.22
-5.99
-6.49
-6.68
-6.62
-6.25
-5.30
-3.33
-0.01
4.60
9.93
15.18
19.62
22.88
24.95
25.87
25.55
23.71
20.19
15.28
9.86
5.14
2.10
0.92
0.75
0.02
-2.90
-8.91
-17.82
-28.31
-38.58
-46.92
-52.35
-54.80
-54.93
-53.74
-52.09
-50.49
-49.04
-47.60
-46.06
-44.45
-43.05
-42.21
-42.26
-43.40
-45.65
-48.83
-52.63
-56.63
-60.43
-63.81
-66.80
-69.74
-73.19
-77.90
-84.68
-94.15
-106.06
-118.54
-127.81
-128.97
-117.58
-91.84
-53.93
-9.76
32.96
67.48
90.32
101.97
105.83
106.11
105.80
105.80
105.42
103.75
100.84
97.86
96.47
97.54
100.29
102.41
101.04
94.23
82.16
67.36
54.02
46.58
47.96
58.41
75.16
92.75
104.36
103.19
84.13
45.24
-11.52
-80.23
-151.71
-215.36
-261.35
-282.98
-278.05
-249.35
-203.28
-147.67
-89.60
-33.80
17.84
65.74
111.46
156.02
198.30
234.41
258.46
264.74
250.56
218.27
175.20
131.55
96.94
77.48
74.61
85.77
105.94
129.28
149.98
163.14
165.57
156.90
140.35
122.01
108.44
103.46
106.08
110.07
106.56
87.78
50.63
-1.77
-61.11
-116.80
-159.47
-183.24
-186.73
-172.96
-148.46
-121.93
-102.15
-95.59
-104.42
-125.81
-153.07
-178.54
-196.27
-203.55
-200.88
-190.59
-175.25
-156.88
-136.85
-116.24
-96.02
-76.90
-59.11
-42.33
-26.10
-10.33
4.70
18.51
30.64
40.70
48.47
53.97
57.64
60.54
64.25
70.41
79.88
92.26
105.80
117.91
125.96
128.13
123.81
113.68
99.25
82.36
64.60
47.07
30.25
14.28
-0.90
-15.23
-28.45
-40.21
-50.34
-59.08
-67.17
-75.58
-85.07
-95.80
-107.36
-118.96
-129.84
-139.57
-148.12
-155.84
-163.26
-170.98
-179.58
-189.47
-200.62
-212.25
-222.74
-229.93
-231.85
-227.48
-217.26
-202.82
-186.19
-168.63
-149.90
-128.35
-101.75
-68.74
-29.81
12.40
53.96
90.97
120.89
143.04
158.45
168.97
176.49
182.45
187.69
192.70
197.80
203.17
208.76
214.18
218.64
221.22
221.20
218.33
212.96
205.81
197.68
189.02
179.81
169.50
157.27
142.38
124.42
103.61
80.88
57.80
36.27
18.14
4.64
-3.99
-8.57
-10.71
-12.17
-14.30
-17.67
-22.12
-27.09
-31.98
-36.52
-40.78
-44.99
-49.36
-53.87
-58.22
-61.91
-64.47
-65.63
-65.43
-64.24
-62.52
-60.73
-59.08
-57.53
-55.85
-53.79
-51.30
-48.55
-45.97
-44.03
-43.04
-43.02
-43.60
-44.05
-43.55
-41.32
-36.93
-30.45
-22.37
-13.43
-4.38
4.31
12.52
20.30
27.73
34.61
40.43
44.40
45.80
44.24
39.84
33.20
25.01
15.75
5.37
-6.63
-20.80
-37.24
-55.28
-73.29
-88.97
-99.75
-103.32
-98.09
-83.81
-62.02
-36.19
-11.27
7.44
15.85
12.42
-1.28
-21.32
-42.91
-61.92
-75.84
-83.72
-85.24
-79.91
-66.87
-45.29
-15.23
21.76
62.49
102.67
137.80
164.27
180.16
185.55
182.29
173.28
161.41
148.78
136.33
124.12
111.96
100.00
88.93
79.60
72.46
67.16
62.66
57.82
52.06
45.61
39.21
33.53
28.56
23.49
17.10
8.47
-2.40
-14.48
-26.11
-35.73
-42.45
-46.45
-48.76
-50.77
-53.67
-57.97
-63.40
-69.00
-73.47
-75.59
-74.57
-70.20
-62.74
-52.83
-41.14
-28.33
-15.01
-1.83
10.47
21.13
29.54
35.47
39.16
41.34
43.02
45.10
48.14
52.14
56.59
60.67
63.61
64.88
64.44
62.63
60.11
57.76
56.53
57.37
60.90
67.21
75.58
84.47
91.83
95.78
95.18
90.14
81.88
72.37
63.57
56.88
52.85
51.19
51.07
51.51
51.67
51.06
49.64
47.64
45.52
43.77
42.86
43.25
45.43
49.96
57.24
67.12
78.36
88.59
94.67
93.70
84.14
66.54
43.39
18.12
-6.10
-27.43
-45.40
-60.47
-73.11
-83.29
-90.49
-94.24
-94.61
-92.45
-89.10
-85.97
-84.09
-83.85
-84.93
-86.33
-86.58
-84.19
-78.11
-68.27
-55.75
-42.68
-31.55
-24.45
-22.48
-25.54
-32.63
-42.31
-53.03
-63.42
-72.33
-78.95
-82.99
-84.86
-85.51
-86.10
-87.32
-88.90
-89.54
-87.47
-81.23
-70.38
-55.75
-39.02
-22.08
-6.40
7.12
18.02
25.95
30.57
31.57
28.91
23.01
14.65
4.67
-6.46
-18.85
-33.15
-50.32
-71.20
-96.04
-124.22
-154.09
-183.13
-208.11
-225.54
-232.19
-225.67
-204.81
-169.99
-123.31
-68.57
-11.00
43.41
89.07
122.16
141.62
149.40
149.63
147.03
145.25
145.92
148.70
152.09
154.49
154.84
152.76
148.29
141.66
133.27
123.71
113.77
104.26
95.74
88.49
82.38
76.99
71.70
65.84
58.77
50.20
40.40
30.22
20.91
13.63
8.91
6.44
5.27
4.24
2.53
-0.10
-3.42
-7.05
-10.78
-14.61
-18.70
-23.13
-27.72
-32.02
-35.49
-37.64
-38.31
-37.74
-36.52
-35.33
-34.67
-34.65
-34.91
-34.85
-33.87
-31.67
-28.36
-24.39
-20.29
-16.57
-13.51
-11.27
-9.91
-9.36
-9.50
-9.96
-10.31
-10.10
-9.06
-7.19
-4.76
-2.16
0.25
2.18
3.37
3.56
2.42
-0.22
-4.23
-9.02
-13.63
-17.01
-18.39
-17.61
-15.03
-11.40
-7.48
-3.81
-0.68
1.83
3.64
4.61
4.61
3.57
1.66
-0.77
-3.23
-5.26
-6.65
-7.45
-8.04
-8.89
-10.47
-13.04
-16.59
-20.85
-25.39
-29.75
-33.55
-36.50
-38.48
-39.49
-39.68
-39.37
-39.01
-39.02
-39.61
-40.69
-41.77
-42.11
-41.01
-38.05
-33.24
-27.03
-20.08
-13.08
-6.53
-0.77
4.03
7.69
10.02
10.89
10.27
8.36
5.54
2.28
-0.98
-4.03
-6.93
-9.94
-13.48
-17.96
-23.66
-30.64
-38.71
-47.47
-56.42
-65.17
-73.44
-81.17
-88.34
-94.75
-99.86
-102.77
-102.31
-97.30
-86.89
-70.78
-49.50
-24.34
2.74
29.56
54.19
75.40
92.82
106.68
117.35
124.84
128.72
128.25
122.94
112.94
99.26
83.56
67.67
53.24
41.45
32.93
27.82
25.75
25.90
27.11
28.08
27.70
25.22
20.44
13.55
5.08
-4.35
-14.05
-23.22
-31.01
-36.64
-39.59
-39.86
-37.96
-34.75
-31.15
-27.76
-24.77
-21.99
-19.12
-15.97
-12.59
-9.24
-6.25
-3.88
-2.19
-1.10
-0.40
0.12
0.61
1.17
1.80
2.48
3.23
4.09
5.09
6.08
6.78
6.77
5.60
2.99
-1.07
-6.33
-12.28
-18.23
-23.35
-26.78
-27.79
-25.94
-21.29
-14.35
-6.01
2.77
11.20
18.77
25.34
30.96
35.82
40.16
44.07
47.47
50.00
51.04
50.00
46.56
40.94
33.96
26.73
20.28
15.22
11.64
9.30
7.87
7.10
6.82
6.82
6.77
6.18
4.60
1.77
-2.30
-7.40
-13.23
-19.43
-25.63
-31.31
-35.81
-38.33
-38.22
-35.11
-29.13
-20.89
-11.32
-1.46
7.77
15.73
22.02
26.50
29.21
30.34
30.31
29.69
29.10
29.05
29.72
30.89
32.00
32.40
31.56
29.29
25.72
21.23
16.33
11.48
7.05
3.20
-0.12
-3.13
-6.13
-9.33
-12.73
-16.17
-19.41
-22.32
-24.94
-27.39
-29.64
-31.34
-31.86
-30.56
-27.16
-22.04
-16.22
-10.96
-7.29
-5.62
-5.70
-6.83
-8.31
-9.62
-10.52
-10.80
-10.24
-8.74
-6.59
-4.55
-3.73
-5.01
-8.47
-13.08
-16.92
-17.95
-14.92
-8.02
1.07
9.87
16.06
18.34
16.73
12.36
6.77
1.33
-3.16
-6.33
-7.83
-7.09
-3.40
3.65
13.54
24.46
33.47
36.96
31.40
14.47
-13.82
-50.31
-89.05
-122.73
-144.87
-151.55
-141.96
-117.61
-81.32
-36.78
11.03
55.49
89.10
105.52
102.33
82.56
53.67
24.32
0.69
-15.47
-26.25
-35.18
-44.83
-55.99
-68.19
-80.63
-92.37
-101.75
-105.79
-100.74
-83.99
-55.95
-21.05
13.38
39.77
53.30
53.66
44.67
32.35
22.38
18.11
19.94
25.87
32.84
38.20
40.63
40.35
38.64
37.03
36.62
37.78
40.42
44.46
50.07
57.44
66.33
75.71
83.83
88.88
89.76
86.53
80.33
72.78
65.23
58.28
51.65
44.40
35.42
23.99
10.23
-4.67
-18.75
-29.82
-36.27
-37.65
-34.79
-29.45
-23.63
-18.86
-15.77
-14.06
-12.83
-11.07
-8.15
-4.07
0.60
4.92
7.92
8.93
7.75
4.68
0.37
-4.34
-8.73
-12.33
-14.93
-16.60
-17.52
-17.93
-18.10
-18.33
-19.02
-20.52
-23.04
-26.41
-30.12
-33.56
-36.35
-38.57
-40.77
-43.51
-47.00
-50.73
-53.62
-54.44
-52.42
-47.62
-41.04
-34.27
-28.85
-25.77
-25.05
-25.72
-26.23
-25.03
-21.21
-14.87
-7.14
0.26
5.59
7.70
6.40
2.36
-3.16
-8.66
-12.72
-14.12
-12.05
-6.30
2.49
12.68
21.86
27.42
27.42
21.40
10.66
-2.12
-13.86
-22.14
-25.86
-25.22
-21.21
-14.96
-7.47
0.39
7.68
13.32
16.32
16.19
13.28
8.72
4.08
0.77
-0.41
0.57
3.02
5.80
7.63
7.47
4.94
0.44
-4.84
-9.47
-12.26
-12.92
-12.05
-10.83
-10.35
-11.21
-13.24
-15.74
-17.94
-19.31
-19.71
-19.51
-19.46
-20.63
-24.11
-30.56
-39.31
-47.62
-50.89
-44.51
-26.73
-0.57
26.32
44.65
47.82
35.20
12.36
-12.10
-30.52
-39.29
-39.07
-32.72
-23.01
-11.56
0.51
11.57
19.34
22.17
20.74
18.71
21.05
31.13
48.32
67.58
81.67
84.71
75.23
56.78
36.06
19.70
11.37
11.12
16.36
24.14
32.92
42.80
54.33
67.16
79.45
88.32
91.33
87.56
77.90
64.68
50.85
39.09
30.91
26.07
22.48
16.99
6.79
-9.00
-28.58
-48.06
-63.33
-71.94
-74.19
-72.64
-70.60
-70.33
-72.19
-74.86
-76.38
-75.22
-70.92
-63.97
-55.37
-46.13
-36.94
-28.11
-19.68
-11.66
-4.24
2.11
6.82
9.50
10.17
9.42
8.21
7.56
8.25
10.57
14.27
18.71
22.99
26.23
27.80
27.53
25.80
23.43
21.41
20.41
20.52
21.08
20.89
18.72
13.66
5.55
-4.94
-16.35
-26.67
-33.56
-34.82
-28.96
-15.65
3.85
26.83
49.62
68.53
80.91
85.91
84.70
79.97
74.89
72.01
72.27
74.88
77.83
78.90
76.79
71.56
64.43
56.99
50.33
44.65
39.45
34.21
28.87
23.96
20.20
17.83
16.30
14.25
10.14
2.93
-7.33
-19.47
-31.57
-41.70
-48.56
-51.82
-52.01
-50.16
-47.26
-44.01
-40.69
-37.37
-34.22
-31.61
-30.07
-29.96
-31.35
-33.78
-36.53
-38.90
-40.47
-41.28
-41.70
-42.13
-42.81
-43.66
-44.32
-44.61
-44.78
-45.67
-48.50
-54.25
-62.92
-73.17
-82.54
-88.37
-88.71
-83.04
-72.26
-58.16
-42.76
-27.90
-15.18
-6.07
-2.06
-4.52
-14.47
-32.24
-57.08
-86.79
-117.49
-143.91
-160.26
-161.68
-145.70
-113.03
-67.45
-14.68
39.08
88.36
129.10
158.83
176.70
183.28
180.44
171.05
158.25
144.81
132.58
122.32
113.89
106.66
99.76
92.46
84.33
75.38
66.07
57.14
49.38
43.36
39.32
37.03
35.99
35.47
34.75
33.24
30.66
27.13
23.12
19.24
16.01
13.73
12.45
12.07
12.55
13.93
16.30
19.57
23.41
27.25
30.47
32.60
33.47
33.26
32.33
31.09
29.84
28.73
27.73
26.72
25.59
24.35
23.17
22.31
21.96
22.10
22.37
22.18
20.94
18.34
14.55
10.20
6.25
3.74
3.57
6.32
12.18
20.71
30.81
40.65
48.02
50.84
47.88
39.19
26.26
11.46
-2.67
-14.29
-22.75
-28.58
-33.02
-37.43
-42.72
-49.18
-56.59
-64.48
-72.39
-80.11
-87.58
-94.82
-101.64
-107.60
-112.04
-114.27
-113.84
-110.66
-104.95
-97.10
-87.54
-76.69
-65.14
-53.70
-43.41
-35.29
-29.95
-27.31
-26.58
-26.61
-26.40
-25.45
-23.93
-22.44
-21.55
-21.49
-21.95
-22.25
-21.69
-19.87
-16.88
-13.34
-10.10
-7.95
-7.26
-7.92
-9.37
-10.94
-12.26
-13.44
-15.05
-17.79
-21.90
-26.81
-31.10
-33.07
-31.56
-26.54
-19.27
-11.63
-5.26
-0.83
2.05
4.03
5.33
5.58
4.78
4.37
7.56
18.07
37.82
65.15
94.65
119.30
133.71
136.46
130.17
119.36
107.35
94.44
78.66
58.09
33.32
8.27
-11.35
-21.28
-21.32
-16.09
-13.51
-21.11
-42.39
-74.74
-110.45
-140.29
-157.80
-162.01
-157.02
-148.59
-140.11
-130.73
-116.71
-95.30
-67.87
-40.17
-19.20
-8.89
-7.57
-8.98
-6.28
4.18
21.24
40.53
57.99
72.61
86.50
102.99
123.96
148.02
171.24
189.06
198.37
198.62
191.37
179.17
164.04
146.86
127.53
105.96
82.95
60.34
40.59
25.50
15.32
8.55
2.57
-5.09
-15.75
-29.16
-43.96
-58.40
-71.20
-81.92
-90.87
-98.79
-106.42
-114.20
-122.20
-130.24
-138.00
-145.16
-151.40
-156.24
-158.96
-158.59
-154.15
-145.23
-132.39
-117.27
-102.14
-89.00
-78.89
-71.60
-66.07
-61.18
-56.40
-51.76
-47.49
-43.38
-38.66
-32.26
-23.52
-12.68
-0.90
10.23
19.40
26.13
30.71
33.90
36.30
38.12
39.20
39.48
39.34
39.68
41.42
45.03
50.04
55.13
58.65
59.35
56.90
51.95
45.65
39.13
33.13
27.89
23.36
19.39
15.80
12.29
8.42
3.64
-2.43
-9.75
-17.73
-25.34
-31.40
-35.05
-35.95
-34.44
-31.37
-27.77
-24.58
-22.39
-21.43
-21.62
-22.80
-24.71
-27.04
-29.36
-31.22
-32.22
-32.26
-31.53
-30.45
-29.43
-28.69
-28.15
-27.48
-26.37
-24.61
-22.31
-19.84
-17.85
-17.23
-19.04
-24.36
-33.91
-47.75
-65.01
-83.87
-102.02
-117.41
-129.00
-137.36
-144.56
-153.49
-166.57
-184.46
-205.31
-225.07
-238.85
-242.80
-235.61
-218.97
-196.74
-173.29
-151.84
-133.60
-117.93
-103.30
-88.32
-72.37
-55.58
-38.33
-20.77
-2.61
16.76
37.88
60.99
86.03
112.98
142.18
174.28
209.47
246.59
282.56
312.74
332.39
338.50
331.30
314.22
292.58
271.40
253.69
239.81
228.25
216.96
204.52
190.39
174.47
156.51
135.99
112.66
87.25
61.91
39.81
24.08
16.26
15.55
18.85
21.93
21.05
14.22
1.75
-14.09
-30.16
-43.50
-52.16
-55.49
-54.15
-49.79
-44.78
-41.70
-42.91
-50.06
-63.63
-82.87
-105.95
-130.20
-152.62
-170.25
-180.74
-182.81
-176.67
-163.94
-147.24
-129.42
-112.83
-98.98
-88.60
-82.08
-79.62
-80.98
-84.96
-89.11
-90.10
-84.72
-71.19
-49.78
-22.56
7.75
39.28
71.73
106.02
143.17
182.80
222.34
257.52
283.71
297.63
298.53
288.23
270.22
248.23
225.12
202.41
180.55
159.62
139.79
121.52
105.33
91.39
79.48
68.97
59.23
49.90
41.14
33.63
28.30
26.13
27.85
33.72
43.52
56.56
71.76
87.82
103.36
117.17
128.35
136.38
141.04
142.21
139.78
133.76
124.35
111.99
97.21
80.56
62.58
43.79
24.91
6.92
-9.29
-23.53
-36.76
-50.79
-67.27
-86.31
-105.75
-121.76
-130.60
-130.57
-123.05
-111.78
-100.98
-93.32
-89.01
-86.19
-82.54
-76.80
-69.56
-62.73
-58.30
-57.13
-58.49
-60.44
-60.71
-57.85
-52.04
-45.14
-40.11
-40.06
-47.15
-61.57
-81.14
-101.41
-116.61
-120.94
-110.05
-82.49
-40.46
10.25
61.50
104.92
134.18
146.63
143.62
129.43
109.37
87.85
67.23
48.02
29.47
10.69
-8.59
-28.02
-47.11
-66.05
-86.10
-109.49
-138.56
-174.09
-213.95
-252.46
-281.59
-293.44
-283.18
-250.70
-200.10
-137.82
-70.78
-5.62
51.35
94.48
120.30
129.38
127.08
121.43
119.03
121.29
123.93
120.52
107.79
89.23
73.95
71.60
86.82
117.02
154.68
192.08
225.25
254.74
283.46
313.59
344.62
373.53
395.92
407.83
406.74
392.10
365.45
330.04
289.84
248.21
206.83
165.33
122.13
75.63
25.44
-27.28
-80.60
-132.65
-181.80
-226.17
-263.33
-290.65
-305.98
-308.36
-298.36
-278.22
-251.59
-222.90
-196.59
-176.33
-164.33
-160.96
-165.64
-175.07
-184.06
-187.48
-182.61
-169.87
-151.72
-130.91
-109.42
-88.65
-69.68
-53.88
-42.51
-35.92
-32.85
-30.81
-27.47
-21.60
-13.89
-6.43
-2.10
-3.25
-11.33
-26.24
-46.27
-68.05
-86.15
-93.87
-85.42
-59.46
-20.95
19.44
49.36
59.89
49.02
22.31
-10.41
-40.58
-65.24
-87.14
-111.63
-142.59
-177.05
-208.80
-230.49
-236.56
-225.77
-201.62
-170.35
-138.06
-108.82
-83.92
-61.70
-41.94
-24.49
-6.95
12.09
33.19
56.12
79.55
100.66
114.94
117.11
103.36
73.60
32.49
-10.47
-43.26
-55.59
-42.73
-7.09
43.20
98.24
149.93
193.14
225.71
246.80
255.88
253.29
241.31
224.10
206.23
190.12
174.32
154.73
127.31
90.60
46.79
0.31
-44.85
-86.90
-126.42
-164.90
-202.74
-238.40
-269.15
-292.56
-307.61
-314.55
-313.92
-306.25
-292.64
-275.53
-258.63
-245.46
-237.12
-231.03
-221.42
-201.89
-168.92
-123.90
-72.34
-21.16
24.82
64.84
101.47
137.94
175.31
211.36
241.92
263.44
274.59
276.01
268.98
254.00
230.68
199.00
161.08
121.75
87.57
63.97
52.90
52.37
57.80
64.14
66.96
62.46
47.10
19.11
-20.58
-66.99
-111.52
-144.78
-160.63
-159.73
-149.37
-139.84
-137.33
-141.32
-144.91
-138.74
-116.53
-78.86
-33.47
8.06
35.82
48.75
53.26
59.43
75.50
104.15
142.55
185.30
227.89
268.37
310.08
356.21
406.40
456.06
498.95
531.01
552.40
566.56
555.00
505.61
415.93
295.91
163.75
36.80
-74.57
-167.00
-241.19
-295.46
-329.23
-340.44
-328.66
-297.53
-254.40
-208.32
-167.37
-136.78
-121.07
-118.25
-122.25
-125.31
-120.57
-104.12
-76.66
-43.57
-13.35
5.66
10.84
5.76
-1.96
-4.64
1.90
16.94
36.30
55.27
71.22
85.43
100.82
118.72
136.80
149.59
151.19
138.40
112.39
77.55
40.09
5.41
-23.39
-45.40
-60.74
-69.22
-69.89
-61.34
-43.64
-17.73
14.38
49.81
84.66
113.92
131.78
132.89
114.47
76.38
22.94
-38.14
-97.76
-148.09
-184.68
-207.15
-218.54
-223.78
-230.01
-243.32
-267.30
-302.13
-344.89
-390.81
-434.98
-473.56
-492.31
-480.71
-434.18
-356.90
-260.48
-159.06
-64.27
17.13
82.86
133.89
171.06
195.77
209.95
216.10
216.80
214.52
211.03
207.20
203.53
198.79
191.63
181.23
167.61
150.82
131.25
109.52
87.00
66.09
48.88
36.94
30.61
28.60
27.93
25.52
19.03
7.21
-10.18
-33.36
-62.21
-96.18
-129.85
-158.37
-177.80
-186.63
-186.73
-182.35
-177.90
-175.29
-172.65
-165.25
-148.36
-119.31
-78.95
-31.37
17.49
61.30
94.49
113.10
115.77
104.26
84.21
63.77
50.81
49.67
59.17
73.09
82.90
81.34
64.89
34.65
-4.95
-48.38
-90.81
-129.16
-162.27
-190.59
-216.01
-241.21
-268.47
-298.47
-329.25
-356.12
-372.51
-371.90
-350.18
-307.77
-250.55
-189.07
-136.29
-104.17
-100.20
-124.92
-171.28
-226.30
-274.51
-302.09
-300.51
-268.30
-210.57
-136.60
-56.69
20.71
90.48
150.82
202.23
246.25
284.66
319.22
351.56
382.97
413.96
444.02
471.63
494.99
512.86
525.43
534.50
542.75
552.24
562.95
571.96
574.01
563.25
535.66
490.81
432.14
365.67
297.81
233.33
174.51
121.52
73.59
30.20
-8.51
-41.86
-69.24
-90.54
-106.23
-117.23
-124.68
-129.63
-132.96
-135.38
-137.31
-138.94
-140.22
-140.93
-140.67
-139.00
-135.57
-130.13
-122.64
-113.01
-100.98
-86.06
-67.94
-47.05
-25.07
-4.76
10.92
19.97
22.37
20.01
15.50
10.62
5.17
-3.17
-17.85
-41.97
-76.76
-120.67
-169.29
-216.12
-254.06
-277.29
-282.81
-271.08
-245.58
-211.39
-173.58
-136.02
-101.21
-70.65
-45.50
-26.40
-12.77
-2.21
9.17
25.11
47.18
73.65
100.16
121.67
135.21
141.43
144.04
147.68
155.56
168.11
183.22
197.79
208.69
214.18
214.25
210.48
205.59
202.80
205.00
213.60
227.54
242.31
251.48
248.84
230.67
196.80
150.43
96.68
40.94
-12.42
-61.49
-105.81
-145.31
-179.50
-207.69
-229.36
-244.80
-255.02
-255.29
-241.00
-209.62
-162.79
-105.90
-45.74
