1557757425.00
64.000000
-0.00
-0.00
-0.00
-0.00
-0.00
-0.00
-0.00
-0.00
-0.00
-0.00
0.00
0.01
0.01
-0.00
-0.03
-0.05
-0.05
0.00
0.13
0.36
0.66
1.01
1.37
1.72
2.06
2.40
2.79
3.24
3.80
4.42
5.06
5.66
6.20
6.68
7.15
7.68
8.31
9.14
10.09
11.04
11.88
12.56
13.14
13.76
14.65
15.96
17.91
20.32
22.90
25.38
27.58
29.57
31.68
34.32
37.81
42.54
48.15
54.10
59.83
64.97
69.58
74.14
79.34
85.71
93.76
103.00
112.62
121.73
129.77
136.75
143.30
150.75
157.77
166.64
177.95
191.79
206.97
220.57
228.25
225.36
208.53
176.87
132.76
80.05
23.07
-34.94
-92.44
-149.16
-205.23
-260.37
-313.74
-363.87
-409.83
-450.91
-486.50
-515.74
-537.23
-549.22
-549.96
-538.37
-514.21
-478.67
-433.88
-382.45
-327.02
-269.84
-212.63
-156.66
-102.95
-52.37
-5.90
35.58
71.43
101.35
125.50
144.38
158.69
169.15
176.37
180.75
182.57
182.07
179.51
175.23
169.65
163.18
156.15
148.81
141.30
133.69
126.02
118.33
110.69
103.16
95.80
88.68
81.83
75.25
68.95
62.95
57.25
51.86
46.78
42.03
37.59
33.45
29.61
26.07
22.81
19.83
17.12
14.67
12.48
10.53
8.82
7.34
6.08
5.02
4.13
3.34
2.62
1.93
1.29
0.72
0.30
0.07
0.02
0.10
0.20
0.22
0.12
-0.09
-0.33
-0.48
-0.49
-0.35
-0.15
-0.06
-0.20
-0.62
-1.25
-1.87
-2.22
-2.11
-1.53
-0.74
-0.13
-0.12
-0.91
-2.34
-3.92
-4.96
-4.98
-3.92
-2.28
-0.97
-0.89
-2.46
-5.31
-8.40
-10.40
-10.34
-8.17
-4.90
-2.20
-1.70
-4.11
-8.83
-14.05
-17.62
-18.00
-15.03
-10.05
-5.32
-3.01
-4.40
-9.64
-17.75
-26.72
-33.60
-34.69
-26.34
-6.56
23.19
57.20
86.76
103.32
102.13
84.46
56.87
27.86
3.76
-13.57
-26.12
-36.70
-45.94
-51.16
-47.96
-33.23
-7.55
24.47
55.83
79.84
92.06
90.75
76.46
51.28
18.85
-15.53
-45.25
-64.02
-68.05
-57.86
-38.20
-15.97
2.86
15.37
22.05
25.10
26.13
24.85
19.62
9.04
-6.30
-23.53
-38.54
-47.69
-49.24
-43.59
-32.66
-18.67
-3.44
11.77
25.67
36.20
40.54
36.01
21.83
0.43
-22.22
-38.19
-40.64
-27.07
-1.18
28.17
50.53
58.46
50.64
32.26
12.06
-2.05
-6.58
-3.15
3.69
9.95
14.64
19.69
27.58
38.39
48.44
51.67
42.86
20.61
-10.66
-41.98
-63.81
-70.53
-62.93
-47.44
-32.39
-23.89
-23.34
-27.94
-33.64
-38.19
-42.32
-48.46
-58.01
-69.09
-76.72
-75.05
-60.74
-35.17
-4.33
23.83
42.89
50.45
48.42
41.20
33.03
26.26
21.14
17.08
14.34
14.74
20.68
33.05
49.45
64.09
69.94
61.90
39.46
7.24
-26.82
-54.72
-71.37
-75.99
-71.55
-62.89
-54.49
-49.11
-47.50
-49.16
-53.50
-60.58
-70.88
-84.26
-98.97
-111.38
-116.95
-112.20
-96.49
-72.49
-45.12
-19.35
1.70
17.31
28.19
34.91
36.83
32.50
21.28
5.20
-10.33
-17.67
-9.98
15.18
53.56
94.68
125.41
135.19
120.55
86.60
44.79
8.08
-14.15
-19.16
-10.56
4.49
18.98
28.53
31.97
30.16
24.31
14.90
1.80
-14.65
-32.47
-47.89
-56.69
-56.36
-48.01
-36.42
-28.04
-27.65
-35.64
-47.42
-55.42
-52.74
-36.43
-8.71
24.17
54.88
77.68
89.89
91.68
84.96
72.22
56.22
40.32
28.77
26.24
36.26
59.09
90.28
121.08
141.08
142.21
122.35
86.36
44.15
6.54
-18.92
-30.29
-30.64
-25.44
-19.49
-15.18
-12.73
-11.67
-12.42
-16.74
-26.85
-43.91
-66.70
-91.59
-113.80
-129.11
-135.16
-131.93
-121.30
-106.36
-90.71
-77.90
-70.65
-69.97
-74.43
-80.13
-81.69
-74.29
-55.78
-27.91
4.04
33.14
53.20
60.74
55.68
40.71
19.78
-3.29
-25.57
-44.81
-58.81
-65.31
-62.69
-51.52
-35.90
-23.36
-22.72
-40.75
-78.98
-132.58
-191.99
-246.23
-286.82
-309.96
-316.44
-309.83
-294.82
-276.50
-260.56
-253.04
-259.09
-280.72
-314.96
-353.99
-387.70
-407.59
-409.99
-396.96
-374.23
-348.00
-322.20
-297.79
-273.87
-249.52
-224.89
-200.97
-178.58
-157.53
-136.68
-114.64
-90.63
-65.05
-39.48
-15.93
3.84
19.04
29.89
37.45
42.98
47.44
51.11
53.74
54.88
54.35
52.53
50.33
48.92
49.32
51.95
56.59
62.46
68.58
74.23
79.13
83.49
87.76
92.39
97.53
102.98
108.27
113.01
117.05
120.63
124.25
128.43
133.48
139.31
145.50
151.51
157.02
162.17
167.59
174.15
182.69
193.56
206.50
220.76
235.38
249.61
263.21
276.44
290.02
304.94
322.32
343.13
367.64
394.81
421.91
444.88
459.42
462.50
453.56
434.67
409.63
382.38
355.60
330.22
305.81
281.63
257.46
233.86
211.81
192.24
175.57
161.68
150.12
140.35
131.81
124.10
116.83
109.59
101.99
93.71
84.62
74.82
64.70
54.83
45.82
38.20
32.23
27.96
25.11
23.21
21.62
19.75
17.14
13.65
9.40
4.78
0.28
-3.65
-6.69
-8.71
-9.80
-10.21
-10.35
-10.71
-11.73
-13.76
-16.93
-21.10
-25.84
-30.45
-34.05
-35.74
-34.83
-31.12
-25.04
-17.55
-9.96
-3.53
0.90
3.00
2.86
0.84
-2.72
-7.50
-13.15
-19.10
-24.53
-28.45
-29.99
-28.75
-25.03
-19.79
-14.36
-10.03
-7.70
-7.68
-9.69
-13.06
-16.92
-20.42
-22.90
-23.93
-23.39
-21.46
-18.58
-15.40
-12.64
-10.98
-10.85
-12.24
-14.63
-17.01
-18.15
-16.93
-12.85
-6.18
1.93
9.86
15.98
19.15
18.99
15.86
10.56
4.05
-2.78
-9.08
-13.96
-16.51
-16.07
-12.64
-7.25
-1.80
1.49
1.08
-3.11
-9.54
-15.72
-19.28
-19.01
-15.41
-10.37
-6.32
-5.27
-8.15
-14.69
-23.74
-33.78
-43.24
-50.79
-55.31
-55.97
-52.44
-45.08
-35.17
-24.83
-16.54
-12.44
-13.43
-18.85
-26.64
-34.23
-39.58
-41.79
-41.18
-38.66
-35.08
-30.77
-25.61
-19.48
-12.50
-5.19
1.85
8.19
13.63
17.99
20.91
21.77
20.12
16.17
11.10
6.81
5.17
7.19
12.55
19.80
27.05
32.81
36.49
38.38
39.30
40.08
41.30
43.02
44.76
45.26
42.45
33.77
17.20
-7.43
-37.31
-66.80
-89.03
-98.50
-93.53
-77.11
-55.63
-36.18
-23.64
-19.14
-20.56
-24.45
-28.16
-31.02
-33.95
-38.20
-44.04
-50.16
-54.26
-54.21
-49.26
-40.55
-30.84
-23.41
-20.76
-23.70
-31.03
-40.17
-48.18
-52.87
-53.42
-50.30
-44.74
-38.08
-31.43
-25.57
-21.16
-18.63
-17.99
-18.68
-19.42
-18.67
-15.20
-8.71
-0.04
8.98
16.26
20.13
19.87
15.91
9.47
2.12
-4.76
-10.38
-14.54
-17.52
-19.76
-21.52
-22.70
-22.90
-21.59
-18.56
-14.24
-9.67
-6.24
-5.06
-6.42
-9.49
-12.61
-13.94
-12.28
-7.48
-0.46
7.36
14.65
20.69
25.34
28.80
31.10
32.00
31.08
28.14
23.63
18.71
14.94
13.68
15.45
19.69
24.91
29.38
31.70
31.22
28.05
22.81
16.41
9.93
4.67
2.22
4.35
12.44
26.76
45.66
65.16
79.37
81.98
68.25
37.10
-7.95
-59.46
-108.15
-145.58
-166.22
-168.17
-152.64
-122.59
-81.59
-33.23
18.58
69.55
114.93
150.04
171.18
176.08
163.91
134.76
89.37
29.74
-39.69
-111.13
-173.66
-215.19
-225.75
-201.19
-145.45
-70.37
7.18
69.69
103.57
102.21
67.29
7.95
-61.77
-126.28
-171.73
-188.59
-173.07
-127.50
-59.73
18.24
92.02
147.43
173.26
163.60
119.43
48.83
-34.36
-113.40
-172.11
-198.42
-186.91
-140.11
-68.15
13.21
86.47
136.80
156.01
144.54
110.84
68.43
31.93
12.77
16.32
40.87
78.60
118.31
148.88
162.47
156.38
133.18
98.92
60.38
22.64
-12.16
-44.22
-74.66
-104.12
-132.09
-157.23
-178.01
-193.02
-200.88
-200.18
-189.91
-170.34
-143.95
-115.46
-90.71
-74.66
-69.38
-73.20
-81.34
-87.96
-88.34
-80.35
-64.57
-43.23
-18.81
6.96
33.23
59.34
83.98
104.92
119.54
125.94
123.99
115.70
104.59
94.28
87.16
83.49
81.53
78.29
70.72
56.62
35.21
7.12
-25.55
-59.29
-89.37
-110.61
-118.68
-111.74
-91.19
-61.32
-27.59
5.40
35.15
60.98
82.58
98.59
106.16
102.14
84.91
56.17
21.10
-12.98
-39.05
-52.61
-52.84
-42.32
-25.66
-7.89
6.86
15.94
18.03
12.87
1.03
-15.95
-35.42
-53.79
-67.27
-72.91
-69.61
-58.49
-42.55
-25.76
-11.96
-3.94
-2.76
-7.52
-15.65
-23.62
-28.02
-26.63
-19.02
-6.59
8.07
22.17
33.51
40.98
44.64
45.47
45.05
45.15
47.27
52.24
59.93
69.27
78.38
85.11
87.60
84.90
77.38
66.74
55.56
46.40
40.97
39.46
40.69
42.71
43.72
42.80
39.91
35.39
29.10
20.07
6.79
-12.07
-36.68
-65.49
-95.27
-121.67
-140.21
-147.33
-141.48
-123.84
-98.41
-71.27
-49.01
-36.75
-36.59
-46.97
-63.38
-80.01
-91.54
-94.56
-88.19
-73.74
-53.94
-32.03
-11.02
6.60
18.84
24.10
21.30
10.30
-7.39
-28.26
-47.32
-59.51
-61.51
-53.09
-37.23
-18.78
-2.43
8.98
15.06
17.21
17.27
16.27
14.05
9.76
2.90
-6.01
-15.29
-22.66
-26.24
-25.22
-20.14
-12.40
-3.69
4.76
12.26
18.38
22.28
22.26
16.06
1.98
-19.85
-46.69
-73.55
-94.76
-105.95
-105.64
-95.50
-79.05
-59.74
-39.07
-16.14
11.55
46.08
87.38
132.28
175.23
209.95
231.41
237.20
227.97
206.89
178.65
148.27
120.20
97.68
82.35
74.03
70.77
69.42
66.35
58.48
44.19
23.72
-0.93
-26.64
-50.05
-68.38
-79.86
-83.91
-80.98
-72.39
-60.23
-47.19
-36.14
-29.54
-28.61
-32.82
-39.85
-46.40
-49.29
-46.60
-38.31
-26.22
-13.23
-2.48
3.48
3.25
-3.08
-13.87
-26.33
-37.21
-43.73
-44.39
-39.29
-29.97
-18.73
-7.92
0.70
6.16
8.28
7.31
3.78
-1.68
-8.34
-15.30
-21.60
-26.34
-29.04
-29.90
-29.89
-30.46
-32.96
-37.89
-44.39
-50.48
-53.91
-53.27
-48.79
-42.42
-36.90
-34.40
-35.47
-38.66
-41.39
-41.22
-37.09
-29.67
-20.89
-12.89
-7.11
-3.86
-2.58
-2.22
-1.59
0.56
5.43
13.86
25.75
39.69
53.05
62.86
66.95
64.89
58.17
49.66
42.57
39.58
42.15
50.18
62.01
74.51
83.85
86.51
80.65
66.86
48.02
27.98
9.80
-5.52
-19.13
-33.00
-48.12
-63.16
-74.62
-78.37
-71.81
-55.33
-32.42
-8.27
12.28
26.29
33.13
33.52
28.25
17.34
0.24
-22.91
-50.05
-76.77
-97.19
-106.06
-100.77
-82.49
-55.83
-26.99
-1.60
16.93
27.74
31.80
30.60
25.23
16.25
4.30
-9.20
-21.65
-29.92
-31.52
-25.91
-15.03
-2.61
7.44
12.81
13.78
12.80
13.04
16.56
23.17
30.51
35.26
34.80
28.37
17.35
4.49
-7.21
-15.60
-19.84
-20.30
-17.97
-13.87
-8.77
-3.28
1.77
5.29
6.02
3.19
-2.86
-10.41
-16.67
-18.72
-14.69
-4.60
9.49
24.10
35.55
41.27
40.63
34.97
26.92
19.23
13.83
11.39
11.53
13.45
16.46
20.10
23.93
27.17
28.69
27.44
23.06
16.27
8.73
2.35
-1.68
-3.37
-3.82
-4.38
-5.70
-7.18
-7.31
-4.66
0.90
7.54
11.81
10.07
0.35
-16.28
-35.40
-50.56
-55.41
-46.09
-22.85
9.85
44.67
73.67
90.65
92.94
81.81
61.65
38.25
16.77
0.45
-9.82
-14.94
-16.59
-16.27
-14.93
-13.17
-11.53
-10.67
-11.20
-13.42
-17.07
-21.56
-26.35
-31.26
-36.57
-42.71
-49.86
-57.54
-64.58
-69.41
-70.62
-67.53
-60.62
-51.42
-42.00
-34.20
-28.99
-26.25
-25.05
-24.26
-22.96
-20.69
-17.20
-12.26
-5.58
2.89
12.69
22.68
31.15
36.29
36.82
32.51
24.76
16.67
12.47
16.19
29.81
51.63
75.96
94.62
99.91
87.78
59.60
21.57
-17.85
-51.28
-74.58
-87.09
-90.21
-85.52
-73.81
-55.50
-31.92
-6.23
16.77
32.15
36.82
30.86
17.58
2.17
-10.13
-15.73
-13.45
-4.40
8.84
23.16
35.78
44.64
48.63
47.64
42.51
34.86
26.71
19.91
15.48
13.16
11.48
8.38
2.28
-7.02
-18.02
-28.10
-34.58
-35.99
-32.64
-26.38
-19.65
-14.50
-11.93
-11.98
-14.22
-18.19
-23.62
-30.17
-37.29
-44.13
-49.86
-53.87
-55.71
-54.92
-50.87
-42.92
-30.88
-15.48
1.55
17.98
31.85
41.99
48.00
49.83
47.50
41.23
32.01
22.03
14.53
12.82
18.91
32.47
50.68
68.90
82.10
86.19
79.26
62.03
37.75
11.40
-11.65
-27.14
-33.05
-30.09
-21.16
-10.27
-1.25
3.30
2.36
-3.67
-13.47
-25.38
-37.88
-49.80
-60.32
-68.85
-74.94
-78.29
-79.06
-77.94
-76.05
-74.54
-73.96
-73.93
-73.16
-70.01
-63.25
-52.58
-38.73
-23.13
-7.48
6.71
18.43
27.46
34.49
41.05
49.16
60.52
75.79
93.99
112.50
127.44
134.57
130.54
114.22
87.90
57.46
31.33
18.01
22.96
46.07
81.00
116.93
142.02
147.21
128.74
88.69
33.97
-25.74
-80.02
-119.64
-138.14
-133.17
-107.22
-67.34
-23.44
14.39
38.59
46.12
38.73
21.78
1.91
-15.07
-25.62
-28.78
-25.64
-18.26
-8.75
1.33
11.04
19.82
27.19
32.61
35.42
34.93
30.59
22.21
10.05
-4.96
-21.17
-36.37
-48.16
-54.62
-54.92
-49.70
-41.01
-31.72
-24.77
-22.23
-24.67
-30.86
-38.07
-42.80
-42.03
-34.35
-20.72
-4.38
10.25
19.17
20.37
14.70
5.49
-2.75
-6.19
-3.17
5.30
16.13
25.74
31.64
33.42
32.49
31.01
30.46
30.77
30.55
27.98
21.76
11.68
-1.67
-17.33
-34.32
-51.42
-66.78
-77.72
-81.23
-75.21
-59.71
-37.60
-13.96
5.49
16.45
17.42
10.02
-2.05
-14.69
-24.79
-30.85
-32.52
-29.81
-22.66
-11.13
3.91
20.42
35.54
46.74
52.92
54.84
54.39
53.41
52.58
51.28
48.17
42.18
33.33
22.89
13.08
6.38
4.73
8.89
18.11
30.32
42.80
52.91
58.62
58.57
51.75
37.20
14.28
-16.64
-53.35
-91.57
-125.64
-149.98
-160.64
-156.30
-138.39
-110.35
-76.79
-42.74
-13.10
7.81
16.90
13.12
-2.01
-24.37
-48.07
-66.87
-75.79
-72.29
-56.69
-31.64
-1.29
29.72
57.10
77.30
87.85
87.61
77.08
58.36
34.99
11.14
-9.26
-23.61
-31.32
-33.79
-33.77
-34.06
-36.30
-40.40
-44.82
-47.79
-48.49
-47.64
-46.78
-46.95
-47.54
-46.23
-40.29
-28.47
-12.25
4.58
17.64
24.10
23.85
18.87
11.65
3.64
-5.03
-14.61
-24.28
-31.51
-32.73
-25.07
-7.88
16.73
44.61
71.17
92.85
107.89
116.25
118.93
117.21
112.37
105.59
98.17
91.61
87.25
85.66
86.09
86.45
83.85
75.85
61.48
41.83
19.61
-1.77
-19.46
-31.89
-38.89
-41.30
-40.40
-37.38
-33.20
-28.58
-24.11
-20.29
-17.54
-16.18
-16.42
-18.33
-21.82
-26.67
-32.41
-38.23
-42.86
-44.56
-41.48
-32.21
-16.48
4.39
27.65
49.81
67.70
79.38
84.28
82.90
76.31
66.05
54.46
44.93
41.33
46.47
60.16
78.13
92.78
95.89
82.09
51.34
9.18
-35.54
-73.88
-99.76
-111.10
-109.23
-97.23
-78.31
-54.90
-28.61
-0.85
26.35
49.85
65.64
69.82
60.09
37.09
4.77
-30.46
-61.62
-83.40
-93.70
-93.91
-87.62
-78.83
-70.15
-62.25
-54.48
-46.16
-37.77
-31.05
-28.10
-30.02
-36.05
-43.84
-50.69
-54.94
-56.59
-56.67
-56.08
-54.59
-50.89
-43.66
-32.81
-19.98
-7.83
1.33
6.82
9.75
12.25
16.18
22.12
29.21
35.78
40.19
41.40
39.06
33.07
23.37
10.07
-6.07
-23.10
-37.86
-46.78
-47.22
-38.74
-23.57
-5.93
9.61
19.91
24.29
24.47
23.34
23.55
26.36
31.29
36.56
39.93
39.56
34.70
25.90
14.92
4.08
-4.49
-9.62
-11.52
-11.57
-11.67
-13.29
-16.90
-21.87
-26.86
-30.41
-31.43
-29.35
-24.11
-16.08
-6.11
4.45
13.90
20.61
23.67
23.34
21.17
19.60
21.17
27.57
38.87
53.33
67.66
77.85
80.25
72.82
55.79
31.94
5.89
-17.06
-32.31
-37.11
-31.10
-16.31
3.26
22.54
36.52
41.55
36.36
22.51
3.96
-14.09
-26.85
-31.43
-27.74
-18.32
-7.23
1.58
5.70
4.95
1.09
-3.36
-6.44
-7.63
-7.83
-8.67
-11.62
-17.34
-25.61
-35.65
-46.40
-56.59
-64.63
-68.71
-67.20
-59.43
-46.24
-30.02
-14.10
-1.75
4.85
5.13
0.19
-7.73
-15.87
-21.76
-23.84
-21.74
-16.28
-9.00
-1.44
5.38
11.28
16.75
22.50
28.94
35.95
42.95
49.26
54.40
58.17
60.48
60.96
58.85
53.11
43.02
28.81
12.12
-4.23
-17.18
-24.59
-26.17
-23.49
-19.24
-16.00
-15.27
-17.05
-20.21
-23.12
-24.19
-22.20
-16.45
-6.98
5.06
17.32
26.53
29.50
24.37
11.67
-5.71
-23.38
-36.89
-42.99
-40.20
-28.74
-10.05
13.64
39.42
63.74
82.78
93.14
92.90
82.33
63.96
41.82
20.15
2.23
-10.20
-16.87
-18.46
-16.01
-10.57
-3.10
5.33
13.39
19.49
22.08
20.20
14.11
5.47
-2.86
-7.67
-6.52
1.27
14.28
29.39
42.84
51.49
53.63
49.37
40.20
28.17
15.20
2.57
-9.10
-19.45
-28.04
-34.11
-36.74
-35.26
-29.75
-21.12
-10.97
-1.10
7.00
12.41
14.70
13.72
9.34
1.43
-9.89
-23.90
-39.12
-53.47
-64.82
-71.81
-74.51
-74.41
-73.78
-74.47
-76.83
-79.36
-79.37
-74.42
-63.67
-48.40
-31.49
-16.07
-4.19
3.69
8.34
10.82
11.72
11.01
8.59
4.98
1.67
0.68
3.59
10.48
19.61
27.86
31.98
29.98
21.95
10.11
-2.13
-11.49
-15.91
-15.06
-9.96
-2.28
6.41
15.05
23.00
29.62
34.09
35.45
33.01
26.82
17.72
7.05
-3.92
-14.36
-23.79
-31.72
-37.18
-38.72
-34.71
-24.07
-6.64
16.65
43.85
72.11
97.63
115.84
121.90
111.93
84.52
41.98
-9.52
-61.04
-103.17
-128.58
-133.92
-120.56
-93.82
-61.13
-29.84
-5.26
10.34
17.72
19.65
19.53
20.15
23.08
28.57
35.96
43.96
50.81
54.39
52.51
43.60
27.55
6.41
-15.80
-34.24
-44.99
-46.68
-40.96
-31.69
-23.13
-18.16
-17.38
-19.35
-21.59
-21.86
-18.84
-12.35
-3.14
7.15
16.27
21.61
20.92
13.18
-0.83
-18.36
-35.27
-47.16
-50.52
-43.66
-27.26
-4.22
21.06
43.84
60.33
68.67
69.21
64.00
55.70
46.47
37.29
28.09
18.33
7.79
-3.10
-13.35
-21.89
-28.12
-32.10
-34.37
-35.34
-34.84
-32.16
-26.53
-17.95
-7.67
2.02
8.72
11.11
9.67
6.45
4.00
3.99
6.42
9.69
11.64
10.73
6.95
1.78
-2.53
-4.02
-1.80
3.66
11.00
18.64
25.44
31.05
35.71
39.87
43.70
46.97
49.12
49.74
48.86
47.10
45.31
44.09
43.31
42.12
39.34
34.25
27.16
19.34
12.23
6.40
0.98
-5.84
-15.58
-28.04
-40.71
-49.59
-50.97
-43.36
-28.39
-10.11
6.71
18.56
24.26
24.86
22.41
18.72
14.48
9.48
3.38
-3.50
-9.80
-13.72
-13.91
-10.51
-5.31
-1.18
-0.71
-5.04
-13.36
-23.45
-32.77
-39.67
-43.92
-46.49
-48.69
-51.34
-54.31
-56.67
-57.32
-55.79
-52.62
-49.31
-47.54
-48.35
-51.45
-55.24
-57.45
-56.11
-50.35
-40.69
-28.62
-15.99
-4.35
5.31
12.48
16.92
18.57
17.53
14.19
9.34
4.02
-0.56
-3.42
-3.97
-2.19
1.42
6.10
11.13
16.07
20.75
25.03
28.54
30.53
30.21
27.11
21.57
14.78
8.42
4.07
2.62
3.94
6.93
9.72
10.14
6.20
-3.31
-18.21
-36.57
-54.87
-68.73
-74.09
-68.37
-51.26
-24.72
7.48
40.71
70.30
92.32
104.13
104.79
95.11
77.49
55.37
32.51
12.35
-2.63
-11.10
-13.07
-9.80
-3.61
2.69
6.56
6.57
2.91
-2.68
-7.64
-9.76
-8.17
-3.66
1.82
6.14
8.06
7.63
5.91
4.13
2.86
1.72
-0.17
-3.36
-7.44
-11.12
-12.90
-12.14
-9.62
-7.30
-7.33
-10.87
-17.33
-24.41
-29.08
-28.70
-22.12
-10.05
5.21
20.42
32.29
38.17
36.70
27.99
13.72
-3.06
-18.48
-28.54
-30.09
-21.83
-4.92
17.04
38.80
55.02
61.91
58.33
45.94
28.27
9.36
-7.52
-20.50
-28.95
-32.95
-32.77
-28.94
-22.43
-14.90
-8.52
-5.33
-6.48
-11.67
-19.26
-26.91
-32.44
-34.65
-33.65
-30.72
-27.73
-26.37
-27.30
-29.86
-32.11
-31.53
-26.07
-15.08
0.22
17.07
32.04
42.13
45.71
42.87
35.31
25.77
17.27
12.43
12.85
18.82
29.35
42.42
55.48
65.91
71.68
71.79
66.58
57.70
47.62
38.79
32.83
29.94
28.99
28.15
25.79
21.13
14.51
7.11
0.53
-3.67
-4.43
-1.58
3.82
9.59
12.88
11.25
3.70
-8.74
-23.12
-35.73
-43.40
-44.66
-40.07
-31.72
-22.16
-13.50
-6.78
-2.08
1.05
3.03
4.00
3.87
2.62
0.43
-2.27
-5.17
-8.29
-12.08
-17.05
-23.21
-29.68
-34.87
-37.03
-35.14
-29.65
-22.50
-16.47
-14.16
-16.87
-24.11
-33.75
-42.94
-49.29
-51.83
-51.29
-49.59
-48.73
-49.74
-52.02
-53.45
-51.22
-42.98
-27.83
-6.75
17.45
40.83
59.18
68.99
68.18
56.51
35.72
9.34
-17.73
-39.91
-51.91
-50.02
-33.36
-4.63
30.11
62.92
86.25
95.23
89.12
71.15
47.11
23.10
3.78
-8.62
-14.01
-13.78
-9.92
-4.52
0.48
3.41
3.13
-0.56
-6.82
-14.05
-20.66
-25.97
-30.54
-35.82
-43.19
-52.88
-63.44
-72.01
-75.43
-71.42
-59.46
-40.98
-19.05
2.48
19.79
29.88
31.24
24.21
11.09
-4.32
-17.65
-25.12
-24.48
-15.48
0.21
19.54
38.79
54.29
63.15
63.76
56.17
42.03
24.25
6.21
-8.99
-19.21
-23.47
-21.87
-15.30
-5.10
7.13
19.65
30.69
38.77
42.97
43.11
39.67
33.45
25.22
15.50
4.66
-6.72
-17.48
-25.85
-29.89
-28.26
-20.96
-9.68
2.53
12.15
16.29
13.62
4.80
-7.82
-20.92
-31.14
-35.96
-34.17
-25.92
-12.53
3.84
20.54
34.76
43.95
46.49
42.17
32.54
20.56
9.81
3.21
2.04
5.53
11.22
16.06
17.52
14.43
7.14
-2.82
-13.43
-22.74
-29.20
-31.81
-30.27
-25.20
-18.24
-11.89
-8.73
-10.40
-16.62
-25.03
-31.88
-33.63
-28.57
-17.62
-4.08
7.76
14.28
13.93
7.58
-2.05
-11.59
-18.20
-20.33
-17.79
-11.46
-2.78
6.68
15.45
22.35
26.63
28.08
27.18
24.90
22.35
20.41
19.39
19.09
19.05
18.99
19.03
19.64
21.46
25.02
30.50
37.51
44.85
50.65
52.69
49.23
39.98
26.63
12.66
2.30
-1.17
3.33
14.21
28.00
40.83
49.89
54.10
53.86
50.09
43.33
33.60
20.89
5.87
-9.59
-22.84
-31.24
-33.27
-29.05
-20.24
-9.32
1.21
9.34
13.66
13.22
7.46
-3.69
-19.52
-38.34
-57.55
-74.09
-85.12
-88.73
-84.66
-74.52
-61.50
-49.52
-41.94
-40.53
-44.99
-53.18
-62.07
-68.81
-71.47
-69.34
-62.63
-52.24
-39.44
-25.87
-13.37
-3.67
2.15
4.18
3.86
3.62
6.06
13.03
24.99
40.78
57.77
72.55
81.64
82.45
73.92
57.09
34.89
11.60
-8.38
-21.60
-26.42
-23.11
-13.42
0.13
14.84
28.19
37.98
42.47
40.73
32.96
20.50
5.48
-9.92
-24.04
-36.01
-45.32
-51.44
-53.48
-50.51
-42.36
-30.18
-16.40
-3.92
5.01
9.72
11.24
11.79
13.68
18.42
26.20
35.76
44.80
50.50
50.22
42.32
26.74
5.37
-18.21
-39.52
-54.27
-59.49
-54.27
-39.97
-19.88
1.69
20.45
33.26
38.79
37.77
32.56
26.25
21.47
19.26
18.56
16.64
10.27
-2.49
-21.14
-42.51
-61.84
-74.77
-79.02
-75.02
-64.99
-51.20
-34.42
-13.83
11.63
41.25
71.08
94.40
103.89
94.74
67.04
26.20
-18.77
-58.50
-86.20
-99.24
-98.69
-87.55
-68.89
-44.90
-17.25
11.88
39.05
59.87
70.28
68.25
54.86
34.03
11.19
-8.72
-22.68
-30.11
-32.21
-30.73
-26.95
-21.28
-13.60
-3.98
6.80
17.17
25.32
29.77
29.86
25.80
18.40
8.74
-1.88
-11.99
-19.84
-23.66
-22.11
-14.88
-2.93
11.65
26.32
38.72
47.29
51.37
51.14
47.30
40.82
32.85
24.68
17.70
13.14
11.80
13.78
18.40
24.43
30.51
35.67
39.49
41.96
43.04
42.29
38.77
31.42
19.88
5.19
-10.05
-22.22
-27.87
-25.11
-14.54
0.62
15.34
24.25
23.36
11.48
-9.13
-33.09
-53.32
-63.18
-58.65
-39.75
-10.67
21.44
48.63
64.46
65.54
52.08
27.37
-3.39
-34.33
-60.00
-76.31
-81.09
-74.53
-59.05
-38.78
-18.45
-2.13
7.78
11.00
9.08
4.53
-0.37
-4.38
-7.65
-11.22
-16.19
-22.92
-30.62
-37.58
-41.91
-42.40
-39.00
-32.65
-24.78
-16.51
-8.32
-0.14
8.22
16.58
24.16
29.83
32.51
31.59
27.14
19.82
10.70
1.05
-7.93
-15.17
-19.89
-21.74
-20.79
-17.53
-12.78
-7.49
-2.60
1.26
3.95
5.77
7.19
8.42
9.05
7.95
3.75
-4.52
-16.70
-31.17
-45.02
-54.81
-57.59
-51.90
-38.49
-20.46
-2.76
9.12
10.76
0.32
-20.57
-47.02
-72.18
-89.29
-93.51
-83.19
-60.02
-28.34
6.00
36.89
59.02
68.84
65.26
50.09
27.80
4.57
-13.27
-21.06
-17.04
-2.69
18.04
40.00
58.42
69.93
73.03
68.11
57.08
42.83
28.71
17.79
12.17
12.53
18.00
26.44
35.19
41.84
44.86
43.85
39.37
32.47
24.27
15.68
7.37
-0.14
-6.41
-11.07
-14.03
-15.54
-16.17
-16.59
-17.26
-18.25
-19.34
-20.15
-20.38
-19.98
-18.99
-17.50
-15.48
-12.90
-9.91
-6.95
-4.67
-3.69
-4.31
-6.24
-8.66
-10.44
-10.48
-8.12
-3.35
3.08
9.88
15.61
19.16
20.19
19.25
17.52
16.35
16.77
19.10
22.94
27.38
31.27
33.50
33.25
30.23
24.82
18.04
11.28
5.81
2.33
0.76
0.31
-0.24
-2.02
-5.74
-11.39
-18.08
-24.20
-27.68
-26.70
-20.40
-9.55
3.44
15.16
22.36
23.28
18.32
9.92
1.56
-3.61
-3.80
0.98
9.23
18.80
27.66
34.39
38.31
39.35
37.90
34.70
30.79
27.32
25.14
24.49
24.84
25.09
24.09
21.12
16.23
10.21
4.19
-0.73
-3.90
-5.43
-6.19
-7.63
-11.34
-18.34
-28.56
-40.48
-51.45
-58.43
-59.15
-52.90
-40.86
-25.76
-10.86
0.95
7.99
9.92
7.50
2.20
-4.26
-10.12
-13.87
-14.44
-11.65
-6.42
-0.67
3.23
3.34
-0.94
-8.56
-17.22
-24.23
-27.65
-26.97
-23.26
-18.63
-15.52
-15.91
-20.83
-30.09
-42.41
-55.81
-68.27
-78.27
-85.13
-88.77
-89.19
-85.88
-77.78
-63.68
-43.27
-17.88
9.46
34.88
55.07
68.50
75.81
79.13
80.92
82.75
84.73
85.69
83.86
77.67
66.50
50.99
32.89
14.49
-2.18
-16.01
-27.05
-36.10
-43.93
-50.59
-55.18
-56.38
-53.36
-46.52
-37.56
-28.66
-21.49
-16.36
-12.28
-7.71
-1.58
5.92
13.26
18.13
18.30
12.51
0.97
-14.48
-30.69
-43.86
-50.37
-47.74
-35.30
-14.56
11.17
37.50
60.02
75.19
80.93
76.75
63.66
43.97
20.99
-1.35
-19.04
-28.84
-29.06
-20.21
-5.05
12.09
26.62
35.06
36.10
30.77
21.72
12.01
4.05
-1.18
-4.06
-5.96
-8.56
-13.19
-20.22
-28.71
-36.50
-40.82
-39.32
-31.08
-17.19
-0.62
14.68
25.03
28.02
23.09
11.45
-4.33
-20.91
-34.79
-42.91
-43.31
-35.57
-21.09
-2.70
16.11
32.13
43.25
48.85
49.68
47.20
42.95
38.03
32.96
27.87
22.82
18.01
13.77
10.46
8.28
7.40
7.97
10.13
13.75
18.00
21.01
20.12
12.91
-1.36
-20.73
-40.52
-54.73
-58.22
-48.73
-27.97
-1.08
24.88
42.95
48.15
38.67
16.21
-14.31
-45.80
-70.71
-82.85
-79.14
-60.42
-31.17
1.89
31.78
53.11
63.40
63.32
56.08
46.21
38.16
35.03
37.86
45.42
54.55
61.07
61.01
51.92
33.98
10.21
-14.26
-33.80
-44.09
-43.40
-32.93
-16.12
2.53
18.62
28.77
30.97
24.80
11.35
-7.05
-27.41
-46.72
-62.58
-73.44
-78.38
-76.71
-67.73
-51.19
-28.03
-1.20
24.24
42.28
48.00
39.68
19.94
-4.95
-27.46
-41.76
-45.86
-41.94
-34.55
-28.14
-24.85
-24.05
-23.31
-20.17
-13.39
-3.22
9.23
22.81
36.56
49.32
59.13
63.15
58.51
43.79
20.39
-7.22
-32.63
-49.73
-55.05
-49.01
-35.47
-19.79
-6.35
3.03
9.35
15.17
22.78
32.81
43.82
53.05
57.53
55.20
45.36
28.80
7.51
-15.60
-37.09
-53.46
-61.91
-61.02
-51.26
-35.01
-16.12
1.04
12.73
16.71
12.90
3.27
-8.86
-19.90
-27.02
-28.92
-25.92
-19.53
-11.75
-4.40
1.15
4.07
3.98
0.81
-5.16
-13.22
-22.33
-31.22
-38.77
-44.19
-47.13
-47.47
-45.15
-40.02
-31.88
-20.79
-7.34
7.12
20.67
31.17
36.95
37.33
32.93
25.50
17.42
10.98
7.75
8.23
11.95
17.84
24.73
31.62
37.65
41.86
43.10
40.14
32.25
19.71
4.13
-11.77
-25.03
-33.44
-36.34
-34.75
-30.88
-27.30
-26.06
-28.21
-33.79
-42.10
-51.99
-61.97
-70.04
-73.84
-71.14
-60.78
-43.51
-22.15
-0.72
17.17
29.81
37.93
43.99
50.67
59.31
69.34
78.70
85.05
86.82
83.80
76.86
67.46
57.09
47.04
38.24
31.19
25.81
21.30
16.26
8.97
-1.96
-16.96
-35.07
-53.92
-70.27
-80.81
-83.02
-75.84
-59.98
-37.73
-12.45
12.07
32.13
44.81
48.37
42.66
29.14
10.64
-9.27
-27.06
-39.85
-45.82
-44.26
-35.58
-21.36
-4.36
11.76
23.21
27.25
23.29
13.30
1.22
-8.59
-13.18
-11.99
-6.48
1.17
9.50
18.52
29.19
42.22
56.98
71.36
82.54
88.32
88.05
82.86
75.10
67.43
62.01
60.01
61.54
65.67
70.64
74.22
74.32
69.54
59.34
43.79
23.11
-2.42
-31.86
-62.68
-90.29
-108.84
-113.27
-101.65
-76.65
-45.08
-15.45
5.12
13.32
10.41
0.92
-9.64
-17.08
-19.86
-19.07
-17.46
-17.82
-21.75
-29.09
-38.26
-47.24
-54.51
-59.56
-62.66
-64.40
-65.33
-65.87
-66.54
-67.97
-70.43
-73.21
-74.19
-70.27
-58.65
-38.45
-11.79
16.56
40.75
56.03
60.38
54.88
42.99
29.22
17.98
12.75
15.74
27.50
46.50
69.10
90.17
104.51
108.54
101.55
85.77
65.25
44.14
25.48
10.62
-0.16
-6.97
-9.81
-8.73
-4.30
1.97
7.63
9.86
6.32
-4.11
-20.98
-42.45
-65.74
-87.81
-105.73
-117.07
-120.07
-114.01
-99.59
-79.02
-55.65
-33.05
-14.03
-0.07
8.70
12.91
13.25
10.21
4.40
-2.96
-9.66
-12.89
-10.21
-0.75
14.12
30.79
44.36
50.18
45.41
30.17
7.54
-17.27
-38.77
-53.00
-58.73
-57.29
-51.26
-42.91
-33.19
-22.02
-9.47
3.14
13.05
17.18
13.77
3.50
-10.75
-25.26
-37.14
-45.22
-49.86
-51.80
-51.14
-47.38
-40.36
-31.29
-22.92
-18.09
-17.58
-18.67
-15.48
-1.72
25.66
63.75
103.84
134.46
146.03
134.67
103.55
61.20
18.01
-17.35
-39.95
-48.83
-45.83
-34.05
-16.65
3.60
24.19
42.48
55.66
61.17
57.55
45.32
27.35
8.32
-6.72
-13.99
-12.17
-2.51
12.06
28.06
42.36
52.65
57.61
56.93
51.63
43.97
37.05
33.88
36.18
43.80
54.78
66.20
75.43
81.04
83.17
83.21
83.06
84.28
87.45
91.71
94.77
93.36
84.16
64.91
35.28
-2.88
-45.81
-88.50
-125.55
-151.91
-163.80
-159.80
-141.69
-114.58
-85.79
-62.61
-49.92
-48.62
-55.80
-66.49
-75.86
-80.85
-80.44
-74.72
-63.82
-47.39
-25.15
2.06
31.34
57.72
75.18
78.66
66.19
40.28
7.67
-22.62
-42.33
-46.81
-36.40
-15.78
8.18
28.70
40.56
40.61
27.81
3.51
-28.25
-60.82
-86.22
-97.57
-91.69
-70.57
-40.63
-10.19
13.60
26.84
29.12
22.47
9.77
-6.19
-23.12
-38.98
-51.99
-60.82
-64.92
-64.49
-60.29
-53.07
-43.23
-30.65
-15.04
3.48
23.90
44.06
60.98
71.59
73.59
66.29
50.95
30.65
9.75
-7.00
-15.49
-13.29
-0.48
19.86
42.08
59.31
65.54
57.80
37.41
9.69
-17.77
-37.73
-45.38
-39.49
-22.23
1.69
26.32
45.64
54.76
51.13
35.44
11.92
-12.53
-30.28
-35.50
-26.24
-5.20
21.25
45.36
60.67
63.98
56.03
40.80
23.83
10.47
4.36
6.76
16.46
30.19
43.47
51.58
50.78
39.44
18.71
-7.55
-33.64
-53.66
-63.20
-60.72
-47.90
-28.97
-9.38
5.77
13.07
11.35
1.67
-13.27
-29.96
-44.89
-55.33
-59.95
-59.20
-55.14
-50.69
-48.45
-49.53
-52.97
-56.16
-56.11
-50.85
-40.32
-26.34
-11.75
0.68
9.11
12.87
12.38
8.87
4.20
0.69
0.62
5.65
16.03
30.23
45.22
57.45
64.09
64.05
58.25
49.24
40.28
34.46
33.97
39.47
49.87
62.35
73.00
77.98
74.86
63.64
46.87
28.85
14.08
5.72
4.55
8.94
15.53
20.39
20.33
14.08
2.89
-9.52
-18.02
-17.72
-5.90
16.66
45.57
73.89
94.19
100.71
91.06
66.74
32.68
-4.25
-36.97
-59.81
-69.71
-66.58
-53.05
-33.68
-13.76
2.00
10.37
10.26
2.65
-9.85
-23.66
-35.03
-40.76
-38.79
-28.82
-12.61
6.15
22.67
32.31
32.06
21.46
2.67
-20.18
-42.22
-58.89
-66.84
-64.41
-51.92
-31.67
-7.53
15.76
33.75
43.32
43.40
34.95
20.33
2.53
-15.47
-30.87
-40.77
-42.32
-33.31
-13.64
13.20
39.70
55.42
50.48
19.70
-34.06
-99.47
-159.69
-197.49
-201.03
-167.72
-105.08
-28.34
43.84
94.17
110.85
90.27
37.79
-33.49
-105.80
-160.92
-184.59
-170.06
-119.94
-45.75
34.76
101.61
137.68
133.57
90.69
21.48
-53.89
-113.36
-139.54
-125.06
-74.56
-2.76
70.39
125.92
150.90
141.55
103.36
48.78
-6.73
-49.15
-69.30
-64.74
-39.70
-3.27
33.45
60.37
70.66
62.27
38.11
5.04
-28.20
-53.64
-66.23
-65.10
-53.18
-35.64
-17.82
-3.55
5.59
10.02
11.29
11.32
11.80
13.98
18.41
24.81
31.99
38.05
41.05
39.81
34.59
27.17
20.25
16.44
17.06
21.57
27.71
32.56
33.78
30.78
24.89
18.69
14.70
14.20
16.61
19.94
21.85
20.85
16.95
11.60
6.82
4.25
4.30
5.98
7.20
5.34
-1.98
-16.11
-36.66
-60.98
-84.40
-101.25
-106.64
-98.28
-77.51
-48.94
-18.70
7.83
27.79
41.29
50.51
58.06
65.47
72.57
77.96
79.92
77.47
70.93
61.81
52.24
44.21
38.91
36.43
35.82
35.44
33.45
28.19
18.71
4.98
-11.89
-29.85
-46.33
-58.95
-66.17
-67.70
-64.35
-57.58
-48.96
-39.66
-30.53
-22.30
-15.83
-11.94
-11.00
-12.23
-13.67
-12.74
-7.47
2.36
14.90
26.96
35.43
38.59
36.74
31.73
26.02
21.56
19.17
18.45
18.13
16.57
12.37
4.92
-5.13
-15.92
-24.89
-29.78
-29.57
-24.90
-17.75
-10.43
-4.70
-1.24
0.23
0.42
-0.04
-0.80
-1.65
-2.33
-2.46
-1.81
-0.66
0.18
-0.25
-2.30
-5.12
-6.62
-4.35
3.17
15.32
29.25
40.93
46.94
46.05
39.68
31.07
23.48
18.61
16.10
14.24
11.43
7.36
3.26
0.94
1.54
4.65
8.51
11.01
10.91
8.49
5.15
2.48
1.06
0.12
-2.05
-6.98
-15.01
-24.95
-34.58
-41.80
-45.56
-46.26
-45.14
-43.38
-41.29
-38.19
-33.00
-25.11
-15.05
-4.38
4.96
11.42
14.38
14.09
11.23
6.41
-0.07
-7.97
-16.70
-25.01
-31.06
-33.02
-29.83
-21.99
-11.63
-1.93
4.11
4.86
0.66
-6.40
-13.56
-18.53
-20.43
-19.70
-17.51
-14.94
-12.57
-10.71
-9.91
-11.16
-15.53
-23.32
-33.35
-42.93
-48.79
-48.36
-40.88
-27.54
-10.89
6.28
21.67
33.74
41.48
44.17
41.42
33.51
21.68
8.07
-4.71
-14.15
-18.49
-17.06
-10.41
-0.22
11.10
21.10
27.91
30.80
30.26
27.54
23.89
19.93
15.51
10.16
3.73
-2.98
-8.33
-10.39
-7.90
-0.92
9.03
19.48
27.91
32.67
33.21
30.00
23.88
15.57
5.51
-5.79
-17.34
-27.57
-34.68
-37.48
-36.01
-31.60
-26.28
-21.77
-18.71
-16.44
-13.60
-8.88
-1.77
7.35
17.42
27.18
35.51
41.57
44.83
45.10
42.66
38.38
33.65
30.02
28.74
30.15
33.42
36.66
37.60
34.36
26.36
14.72
2.10
-8.06
-12.66
-9.98
-0.42
13.61
28.27
39.42
43.76
39.73
27.83
10.29
-9.66
-28.75
-44.45
-55.29
-60.83
-61.38
-57.69
-50.84
-42.31
-33.98
-27.87
-25.51
-27.20
-31.64
-36.16
-37.68
-33.94
-24.48
-10.85
4.03
16.95
25.50
28.62
26.51
20.12
10.66
-0.79
-13.08
-24.84
-34.32
-39.58
-39.03
-32.13
-19.73
-3.99
12.22
26.22
36.12
41.23
41.89
39.16
34.45
29.18
24.59
21.47
20.03
19.81
19.92
19.38
17.65
14.86
11.71
9.05
7.46
6.80
6.29
4.73
1.01
-5.39
-14.03
-23.38
-31.09
-34.51
-31.57
-21.58
-5.69
13.19
31.17
44.59
51.17
50.83
45.55
38.47
32.69
30.14
31.19
34.91
39.97
45.31
50.55
55.76
61.01
66.08
70.46
73.81
76.30
78.73
82.06
86.83
92.77
98.89
104.15
108.08
111.20
114.68
119.63
126.25
133.54
139.81
143.72
145.38
146.74
151.08
161.69
180.56
207.54
240.46
275.83
309.79
338.80
360.01
371.41
371.96
361.75
342.16
315.63
285.29
254.24
225.02
199.17
177.01
157.71
139.47
120.04
97.37
70.54
40.25
8.69
-21.33
-47.70
-70.16
-90.63
-112.49
-139.14
-172.27
-210.96
-252.01
-291.34
-325.88
-355.04
-381.07
-407.99
-440.20
-481.00
-531.59
-590.54
-653.41
-712.77
-758.95
-782.26
-776.55
-742.87
-690.86
-636.27
-595.14
-576.93
-580.59
-595.57
-607.41
-604.71
-583.68
-548.04
-505.02
-460.49
-416.20
-370.60
-321.77
-270.28
-219.84
-175.42
-140.12
-113.23
-90.37
-65.53
-34.06
5.22
49.57
93.84
132.94
164.13
188.12
208.38
229.64
255.95
289.46
329.99
375.11
420.43
460.03
487.39
496.98
486.16
456.45
413.43
364.80
317.76
276.97
243.96
218.19
198.58
184.56
175.93
172.16
171.79
172.84
173.83
174.62
176.39
180.60
187.64
195.82
201.52
200.36
188.76
165.17
130.77
89.29
46.30
8.18
-19.27
-32.20
-29.94
-15.63
4.25
21.67
29.64
24.83
8.97
-11.78
-29.30
-36.74
-30.93
-12.97
13.09
42.31
70.63
95.47
115.15
128.05
132.02
124.81
105.26
74.57
36.86
-1.47
-33.59
-54.65
-63.65
-63.82
-61.05
-60.95
-66.21
-75.18
-82.92
-83.92
-75.21
-57.99
-37.13
-18.75
-7.43
-4.28
-7.06
-11.85
-15.36
-16.30
-15.39
-14.07
-13.10
-11.89
-8.85
-2.54
7.43
20.20
34.29
48.25
60.85
70.42
74.18
68.37
49.70
17.77
-23.14
-64.20
-94.94
-107.68
-101.51
-83.46
-65.81
-60.51
-73.32
-100.67
-130.94
-149.46
-144.95
-114.24
-63.20
-3.87
50.61
90.65
112.41
117.29
109.45
93.41
72.77
50.53
29.98
14.95
8.87
13.18
25.99
42.35
56.20
63.05
62.06
56.14
50.16
48.32
51.98
58.98
64.90
65.36
58.16
44.34
27.64
12.56
2.20
-3.20
-6.28
-11.04
-20.77
-36.36
-55.83
-75.29
-90.79
-100.19
-104.01
-105.13
-107.24
-113.09
-123.05
-134.59
-142.95
-142.58
-129.00
-100.45
-58.83
-9.52
39.90
81.69
110.14
123.03
121.97
111.61
97.77
85.50
77.58
74.03
72.54
69.84
63.25
51.82
36.67
20.22
4.78
-8.55
-20.14
-30.97
-41.07
-48.64
-50.43
-43.44
-27.08
-4.21
19.44
37.54
45.57
42.46
30.45
13.67
-3.86
-19.50
-32.39
-42.85
-51.42
-57.98
-61.39
-59.68
-50.90
-34.10
-10.27
17.45
44.31
65.32
76.75
77.21
67.86
51.73
32.54
13.57
-2.84
-15.32
-22.96
-25.01
-20.92
-10.59
5.01
23.58
41.66
55.25
61.08
57.78
46.55
30.96
15.81
5.40
2.04
5.22
11.88
17.67
18.52
11.94
-2.29
-22.31
-45.00
-66.99
-85.36
-98.02
-103.55
-101.00
-89.90
-70.60
-44.78
-15.71
12.13
34.12
46.81
49.02
42.05
29.13
14.11
0.27
-10.48
-17.65
-21.64
-22.93
-21.66
-17.48
-10.00
0.57
12.99
24.90
33.37
35.80
30.87
19.11
2.86
-14.46
-29.48
-39.98
-45.40
-46.84
-46.31
-45.80
-46.33
-47.70
-48.70
-47.92
-44.45
-38.28
-30.25
-21.67
-13.90
-8.08
-4.91
-4.52
-6.17
-8.10
-7.77
-2.64
8.75
25.74
45.34
62.98
74.06
75.60
67.10
50.50
29.21
6.94
-13.05
-28.08
-35.94
-34.86
-24.02
-4.32
21.11
47.11
67.77
78.27
76.55
64.08
45.31
26.06
11.52
4.59
5.27
11.18
18.84
25.12
28.30
28.22
25.69
21.74
17.23
12.92
9.91
9.80
14.24
23.99
38.05
53.47
66.04
71.61
67.43
52.94
29.85
1.71
-26.77
-50.57
-65.46
-69.10
-61.88
-46.96
-29.42
-14.67
-6.87
-7.79
-16.68
-30.75
-46.24
-59.43
-67.40
-68.40
-61.88
-48.30
-28.91
-5.49
19.83
44.70
66.81
84.23
95.75
101.08
100.67
95.13
84.80
69.73
50.18
27.30
3.38
-18.55
-35.58
-45.88
-48.96
-45.67
-37.77
-27.72
-18.47
-13.21
-14.54
-23.41
-38.12
-54.03
-64.68
-64.09
-49.19
-21.58
12.69
45.10
67.82
76.31
70.32
52.98
28.78
1.69
-25.45
-50.38
-70.42
-82.41
-83.81
-74.44
-57.38
-38.20
-22.71
-14.44
-13.60
-17.72
-23.69
-29.69
-35.69
-42.64
-50.93
-59.40
-65.55
-66.57
-60.65
-47.87
-30.11
-10.33
8.49
24.37
36.96
47.47
57.92
69.87
83.08
95.06
101.63
98.66
84.24
60.08
31.59
6.24
-9.11
-10.70
0.86
20.81
41.83
56.27
58.02
43.68
12.98
-31.27
-83.40
-135.56
-178.77
-204.77
-208.05
-187.51
-146.91
-93.89
-37.67
13.46
54.05
82.16
98.67
105.77
105.45
98.72
85.78
67.05
44.24
20.88
1.74
-8.70
-8.11
2.42
18.55
34.18
43.85
44.77
37.62
25.79
13.59
4.35
-0.58
-1.54
0.34
4.28
10.02
17.33
25.08
30.82
31.38
24.38
9.76
-9.58
-28.57
-42.06
-46.91
-43.19
-33.84
-23.11
-14.78
-10.85
-11.38
-15.09
-20.13
-24.79
-27.63
-27.48
-23.52
-15.58
-4.38
8.32
20.26
29.35
34.52
36.02
35.09
33.20
31.33
29.75
28.38
27.47
27.89
30.78
36.48
43.52
48.52
47.28
36.83
17.15
-8.19
-33.31
-52.24
-61.29
-60.14
-51.50
-39.47
-27.72
-18.40
-11.88
-7.50
-4.31
-1.72
0.46
2.27
3.88
5.73
8.41
12.34
17.45
23.01
27.67
29.86
28.43
23.29
15.83
8.53
4.14
4.40
9.13
16.06
21.70
22.90
18.15
8.25
-4.17
-15.86
-24.25
-28.29
-28.41
-25.89
-22.05
-17.78
-13.44
-9.19
-5.30
-2.36
-1.10
-2.07
-5.29
-9.96
-14.56
-17.21
-16.31
-11.15
-2.35
8.28
18.23
25.15
27.73
26.08
21.78
17.16
14.44
14.92
18.52
23.84
28.77
31.25
30.01
25.06
17.54
9.28
2.10
-2.88
-5.43
-6.15
-5.89
-5.33
-4.69
-3.86
-2.80
-1.85
-1.79
-3.49
-7.50
-13.56
-20.66
-27.47
-32.92
-36.65
-38.97
-40.42
-41.21
-40.93
-38.57
-33.15
-24.31
-12.76
-0.28
10.77
18.20
20.74
18.33
12.01
3.37
-6.06
-15.05
-22.60
-27.80
-29.65
-27.38
-21.06
-12.05
-2.89
3.53
5.08
1.34
-6.18
-14.80
-21.82
-25.64
-26.20
-24.64
-22.51
-21.00
-20.51
-20.81
-21.38
-21.92
-22.43
-23.00
-23.51
-23.46
-22.16
-19.12
-14.44
-8.87
-3.42
1.17
4.94
8.68
13.39
19.56
26.65
33.14
37.24
37.69
34.48
28.93
23.09
18.86
17.23
18.04
20.32
23.02
25.53
27.91
30.46
33.15
35.22
35.12
31.09
21.99
8.22
-7.86
-21.97
-28.85
-23.91
-4.82
26.90
65.63
102.72
128.64
135.50
118.81
78.52
19.03
-51.34
-121.63
-179.83
-215.33
-221.47
-197.66
-149.85
-89.04
-27.91
23.15
58.68
78.62
86.52
86.67
81.82
72.67
58.90
40.96
21.26
3.84
-7.19
-9.67
-4.67
4.13
12.56
18.48
23.19
30.82
45.92
70.53
102.35
135.06
160.42
171.05
162.71
135.28
92.48
40.80
-11.59
-56.24
-85.77
-95.45
-84.50
-56.49
-18.51
20.69
52.98
72.60
76.98
66.57
44.11
13.86
-19.16
-49.84
-73.63
-87.44
-90.32
-83.81
-71.46
-57.63
-45.98
-38.15
-33.60
-30.31
-26.44
-21.68
-17.69
-17.20
-22.39
-33.35
-47.69
-61.37
-70.32
-72.12
-66.74
-56.28
-43.76
-31.92
-22.27
-15.08
-9.86
-6.02
-3.20
-1.17
0.35
1.82
3.56
5.26
5.67
2.99
-4.16
-15.55
-28.79
-40.01
-45.50
-43.47
-35.05
-23.66
-13.45
-7.27
-5.65
-6.95
-8.71
-8.97
-7.16
-4.14
-1.68
-1.99
-7.07
-18.12
-34.67
-54.06
-71.52
-81.40
-79.17
-63.23
-35.64
-1.29
34.04
65.58
90.45
107.27
115.22
113.46
101.55
80.56
53.99
27.39
6.75
-3.73
-3.46
4.23
13.39
17.77
13.19
-1.08
-22.42
-46.16
-67.42
-82.74
-90.90
-92.67
-90.00
-85.05
-79.55
-74.61
-70.68
-67.78
-65.44
-62.76
-58.42
-50.94
-39.15
-22.59
-1.77
21.78
45.66
67.13
83.68
93.78
97.23
95.24
89.92
83.58
78.02
74.21
72.35
72.16
73.06
74.35
75.30
75.25
73.72
70.52
65.66
59.19
51.03
41.07
29.35
16.48
3.66
-7.58
-15.88
-20.60
-22.14
-21.62
-20.33
-19.02
-17.40
-14.34
-8.49
0.86
13.08
26.22
37.53
44.39
45.21
39.94
29.88
17.19
4.14
-7.45
-16.48
-22.53
-25.65
-26.09
-24.17
-20.39
-15.52
-10.61
-6.75
-4.57
-3.94
-3.93
-3.30
-1.26
2.13
5.87
8.54
9.00
6.92
2.84
-2.20
-7.17
-11.53
-15.41
-19.43
-24.34
-30.62
-38.20
-46.35
-53.97
-59.97
-63.74
-65.35
-65.33
-64.18
-61.95
-58.05
-51.52
-41.66
-28.54
-13.15
2.88
17.75
30.06
38.86
43.63
43.98
39.61
30.49
17.36
2.07
-12.54
-23.31
-28.00
-26.32
-20.32
-13.62
-9.81
-10.59
-14.92
-19.35
-19.75
-13.39
-0.50
15.54
29.54
36.58
34.08
22.76
6.34
-10.11
-22.08
-27.29
-26.15
-21.06
-15.15
-10.96
-9.82
-11.86
-16.53
-23.14
-31.01
-39.41
-47.50
-54.37
-59.45
-62.80
-65.30
-68.34
-73.30
-80.99
-91.31
-103.44
-116.18
-128.48
-139.69
-149.66
-158.50
-166.38
-173.46
-180.18
-187.58
-197.46
-212.13
-233.45
-261.72
-294.83
-328.20
-355.89
-372.32
-374.12
-361.07
-335.85
-302.74
-265.94
-228.29
-190.99
-154.01
-117.07
-80.20
-43.86
-8.53
25.71
59.38
93.29
128.09
163.93
200.57
237.84
276.09
316.12
358.44
402.19
444.44
480.51
505.45
515.96
511.88
496.36
474.66
452.12
432.30
416.06
401.63
385.63
364.26
334.19
293.04
239.82
175.55
103.83
30.93
-35.29
-87.29
-120.22
-133.37
-130.16
-116.56
-98.79
-81.48
-66.98
-55.93
-48.25
-43.83
-42.47
-43.34
-44.69
-44.21
-39.84
-30.73
-17.58
-2.20
13.05
26.24
36.46
43.86
49.38
54.14
58.91
63.77
68.11
71.01
71.77
70.34
67.45
64.36
62.39
62.32
64.17
67.25
70.63
73.61
76.05
78.38
81.31
85.47
91.17
98.43
107.11
117.05
128.12
140.07
152.50
164.78
176.30
186.70
196.14
205.37
215.38
226.73
238.81
249.49
255.44
253.20
240.51
217.23
185.44
148.51
109.76
71.36
33.85
-3.33
-41.11
-80.15
-120.77
-163.26
-207.87
-254.47
-301.78
-346.84
-385.33
-412.65
-425.41
-422.66
-406.11
-379.34
-346.38
-310.56
-274.00
-238.01
-203.78
-172.89
-147.22
-128.31
-116.64
-111.30
-110.26
-111.17
-112.12
-112.12
-110.79
-107.73
-101.96
-91.93
-76.33
-55.12
-30.33
-5.84
13.72
24.75
26.07
19.42
8.80
-1.12
-6.58
-5.84
0.76
11.47
24.08
36.67
47.77
56.23
61.00
61.22
56.57
47.74
36.54
25.40
16.59
11.36
9.50
9.58
9.73
8.52
5.44
0.94
-4.06
-8.78
-12.91
-16.68
-20.47
-24.47
-28.56
-32.28
-35.07
-36.45
-36.06
-33.69
-29.18
-22.58
-14.26
-5.04
3.86
11.11
15.73
17.39
16.53
14.23
11.75
10.16
10.06
11.62
14.69
19.00
24.17
29.61
34.39
37.37
37.55
34.62
29.23
22.92
17.53
14.39
13.78
14.80
15.93
15.78
13.74
10.16
6.08
2.63
0.60
0.18
1.00
2.28
3.08
2.50
0.07
-4.00
-8.63
-12.09
-12.63
-9.23
-2.25
6.57
14.72
19.96
21.24
19.05
15.08
11.36
9.38
9.56
11.39
13.95
16.53
18.94
21.44
24.27
27.18
29.33
29.60
27.16
22.04
15.21
8.22
2.53
-1.11
-3.00
-4.14
-5.74
-8.50
-12.33
-16.55
-20.36
-23.36
-25.76
-28.11
-30.80
-33.54
-35.39
-35.14
-31.94
-25.89
-18.09
-10.24
-3.96
-0.21
1.02
0.48
-0.80
-1.88
-2.21
-1.54
0.17
2.91
6.49
10.38
13.68
15.31
14.60
11.75
7.92
4.75
3.51
4.37
6.16
6.96
5.10
0.01
-7.42
-15.25
-21.26
-23.67
-21.86
-16.85
-11.56
-10.45
-18.22
-37.71
-67.82
-102.79
-133.57
-151.11
-150.09
-131.19
-100.54
-66.91
-37.95
-17.52
-5.70
-0.51
0.14
-2.59
-8.17
-15.92
-24.65
-33.25
-41.52
-51.23
-65.91
-89.32
-123.36
-166.66
-214.66
-261.27
-301.23
-331.26
-351.18
-362.90
-368.56
-368.94
-363.12
-349.55
-327.51
-297.92
-261.42
-219.37
-173.35
-124.99
-75.70
-26.85
19.88
62.76
100.81
137.83
178.46
226.37
282.86
346.81
414.84
481.32
539.24
581.96
610.47
627.77
636.73
638.84
634.79
625.30
610.95
592.16
569.48
550.69
541.56
542.90
550.52
558.83
564.12
564.87
560.29
508.95
389.96
210.12
2.39
-194.73
-354.20
-463.21
-520.16
-532.17
-513.86
-474.06
-421.34
-365.55
-316.71
-281.65
-261.93
-254.85
-255.62
-261.31
-262.98
-254.92
-237.02
-214.00
-191.96
-175.26
-165.66
-162.85
-165.12
-166.22
-161.03
-147.44
-127.07
-104.20
-84.07
-71.31
-68.27
-73.74
-81.01
-82.31
-72.13
-49.52
-18.06
16.07
46.60
69.23
82.38
87.48
86.58
81.26
72.38
60.74
47.62
34.87
24.33
17.15
13.40
11.96
10.96
8.55
3.45
-4.69
-15.30
-27.13
-38.54
-47.88
-53.93
-56.19
-54.96
-51.21
-46.15
-40.84
-35.89
-31.64
-28.38
-26.51
-26.49
-28.33
-31.25
-33.64
-33.58
-29.60
-21.33
-9.53
4.38
19.00
33.31
46.70
58.59
68.15
74.48
76.93
75.55
71.20
65.17
58.72
52.64
47.18
42.22
37.61
33.34
29.48
26.02
22.76
19.34
15.41
10.82
5.73
0.60
-4.06
-7.87
-10.71
-12.75
-14.31
-15.69
-17.09
-18.50
-19.86
-21.08
-22.19
-23.33
-24.63
-26.15
-27.77
-29.22
-30.14
-30.31
-29.75
-28.81
-28.11
-28.32
-29.92
-33.02
-37.34
-42.21
-46.62
-49.43
-49.44
-45.78
-38.23
-27.43
-14.83
-2.31
8.45
16.43
21.42
23.83
24.29
23.33
21.32
18.64
15.84
13.62
12.67
13.32
15.41
18.40
21.64
24.65
27.29
29.60
31.67
33.36
34.36
34.30
32.99
30.54
27.40
24.14
21.26
18.97
17.13
15.45
13.58
11.34
8.71
5.78
2.69
-0.51
-3.81
-7.19
-10.59
-13.84
-16.67
-18.80
-20.07
-20.50
-20.35
-20.06
-20.10
-20.77
-21.99
-23.36
-24.24
-24.06
-22.59
-20.07
-17.17
-14.73
-13.49
-13.83
-15.70
-18.75
-22.44
-26.15
-29.26
-31.11
-31.15
-29.07
-25.09
-19.86
-14.28
-8.95
-3.85
1.58
8.04
15.58
23.29
29.41
32.07
30.10
23.61
13.96
3.15
-6.91
-14.92
-20.34
-23.21
-23.84
-22.71
-20.42
-17.71
-15.27
-13.47
-12.21
-10.89
-8.76
-5.35
-0.80
4.10
8.25
10.76
11.35
10.44
8.96
7.88
7.75
8.69
10.36
12.29
14.13
15.71
17.05
18.13
18.81
18.79
17.85
16.01
13.72
11.74
10.78
11.19
12.67
14.42
15.53
15.44
14.21
12.45
10.98
10.38
10.73
11.66
12.53
12.79
12.23
11.03
9.65
8.61
8.30
8.88
10.26
12.17
14.15
15.58
15.78
14.16
10.48
5.06
-1.24
-7.25
-11.84
-14.34
-14.71
-13.49
-11.51
-9.53
-8.09
-7.34
-7.20
-7.46
-7.89
-8.38
-8.91
-9.53
-10.29
-11.18
-12.11
-12.97
-13.73
-14.44
-15.19
-16.01
-16.78
-17.26
-17.18
-16.36
-14.83
-12.73
-10.33
-7.85
-5.43
-3.11
-0.89
1.21
3.12
4.66
5.70
6.16
6.16
5.95
5.77
5.77
5.84
5.66
4.89
3.36
1.19
-1.22
-3.41
-5.03
-5.98
-6.39
-6.52
-6.57
-6.65
-6.70
-6.64
-6.33
-5.68
-4.60
-3.04
-0.98
1.56
4.47
7.54
10.50
13.05
14.95
16.14
16.71
16.95
17.20
17.72
18.53
19.39
19.86
19.50
18.09
15.78
12.99
10.31
8.24
6.95
6.30
5.84
5.15
3.96
2.27
0.34
-1.42
-2.61
-2.94
-2.37
-1.21
0.05
0.87
0.92
0.23
-0.80
-1.62
-1.82
-1.33
-0.40
0.61
1.50
2.33
3.32
4.58
5.94
6.94
7.16
6.44
5.05
3.50
2.27
1.58
1.25
0.93
0.37
-0.40
-1.11
-1.48
-1.46
-1.28
-1.33
-1.96
-3.17
-4.69
-6.05
-6.88
-7.06
-6.81
-6.53
-6.65
-7.46
-9.00
-11.06
-13.24
-15.03
-16.01
-15.90
-14.69
-12.58
-9.95
-7.19
-4.60
-2.37
-0.60
0.65
1.31
1.32
0.68
-0.50
-1.99
-3.50
-4.78
-5.68
-6.21
-6.54
-6.89
-7.41
-8.17
-9.09
-10.04
-10.88
-11.54
-11.89
-11.75
-10.86
-9.06
-6.43
-3.47
-0.99
0.19
-0.40
-2.66
-5.92
-9.33
-12.18
-14.19
-15.44
-16.03
-15.83
-14.42
-11.34
-6.50
-0.36
6.14
11.90
16.14
18.66
19.88
20.41
20.72
20.92
20.87
20.48
19.88
19.43
19.49
20.18
21.14
21.70
21.25
19.71
17.58
15.71
14.79
15.04
16.34
18.10
19.61
20.30
20.05
19.07
17.72
16.16
14.46
12.90
11.40
9.43
6.24
1.55
-4.13
-9.56
-13.38
-14.57
-12.37
-7.41
-1.68
2.50
3.93
3.15
2.14
2.98
7.18
15.98
29.02
44.16
58.12
67.37
68.73
59.92
39.79
5.75
-37.38
-78.20
-104.89
-112.60
-104.98
-91.12
-77.24
-66.35
-58.98
-53.62
-49.04
-45.67
-44.04
-43.71
-42.67
-38.14
-28.28
-13.06
6.05
25.68
41.42
49.68
49.30
42.06
31.77
22.25
16.07
14.21
15.69
18.23
19.67
19.12
17.15
15.21
14.31
14.61
15.65
16.62
16.73
15.77
14.03
12.09
10.34
8.72
6.77
4.06
0.35
-4.31
-9.59
-14.98
-19.89
-23.73
-26.04
-26.48
-24.93
-21.61
-17.28
-13.16
-10.69
-11.10
-14.91
-21.66
-30.05
-38.40
-45.16
-49.33
-50.48
-48.69
-44.20
-37.38
-28.68
-18.76
-8.50
1.11
9.28
15.53
19.84
22.48
23.77
23.91
22.88
20.59
17.17
13.23
9.93
8.72
10.80
16.59
25.33
35.17
43.68
48.61
48.56
43.24
33.36
20.16
5.03
-10.78
-26.05
-39.56
-50.09
-56.65
-58.78
-56.71
-51.29
-43.73
-35.20
-26.64
-18.67
-11.71
-6.12
-2.16
0.02
0.54
-0.17
-1.41
-2.34
-2.20
-0.54
2.63
6.84
11.23
14.89
17.06
17.38
15.92
13.07
9.46
5.75
2.58
0.39
-0.57
-0.38
0.61
1.84
2.72
2.81
1.97
0.42
-1.33
-2.62
-2.85
-1.67
0.85
4.28
7.93
11.12
13.39
14.59
14.84
14.43
13.69
12.90
12.29
12.08
12.43
13.42
14.98
16.87
18.68
20.00
20.51
20.10
18.90
17.20
15.38
13.73
12.43
11.46
10.73
10.04
9.26
8.32
7.19
5.89
4.44
2.83
1.07
-0.80
-2.73
-4.60
-6.25
-7.54
-8.34
-8.57
-8.21
-7.26
-5.73
-3.69
-1.27
1.24
3.53
5.28
6.35
6.87
7.20
7.83
9.19
11.47
14.58
18.15
21.69
24.65
26.56
27.17
26.48
24.80
22.64
20.54
18.89
17.79
17.12
16.65
16.25
15.89
15.63
15.52
15.46
15.26
14.68
13.55
11.88
9.77
7.44
5.12
3.05
1.48
0.70
0.97
2.43
5.10
8.74
12.91
17.03
20.56
23.13
24.72
25.60
26.18
26.80
27.56
28.27
28.64
28.50
27.97
27.45
27.40
28.05
29.25
30.53
31.27
30.99
29.39
26.25
21.30
14.16
4.52
-7.64
-21.82
-37.10
-52.39
-66.78
-79.74
-91.06
-100.69
-108.62
-114.95
-120.14
-125.14
-131.20
-139.26
-149.30
-159.79
-167.89
-170.22
-164.17
-148.82
-125.31
-96.41
-65.54
-35.83
-9.52
12.16
28.81
40.58
48.00
51.98
53.64
54.25
54.85
56.09
58.01
60.13
61.64
61.73
59.81
55.75
49.87
42.93
35.87
29.58
24.72
21.60
20.21
20.26
21.36
23.07
25.00
26.84
28.36
29.41
29.83
29.55
28.56
26.96
24.93
22.73
20.61
18.77
17.36
16.38
15.71
15.12
14.29
12.97
11.06
8.66
6.08
3.66
1.73
0.38
-0.44
-0.99
-1.58
-2.48
-3.82
-5.52
-7.30
-8.74
-9.42
-9.11
-7.83
-5.86
-3.62
-1.54
0.11
1.20
1.77
1.95
1.88
1.65
1.33
0.98
0.69
0.63
1.00
1.99
3.63
5.75
7.98
9.84
10.93
11.01
10.08
8.35
6.15
3.83
1.68
-0.10
-1.43
-2.37
-3.06
-3.68
-4.35
-5.06
-5.68
-5.99
-5.80
-5.01
-3.72
-2.16
-0.62
0.65
1.55
2.14
2.56
3.01
3.57
4.23
4.87
5.36
5.60
5.60
5.43
5.18
4.90
4.60
4.20
3.64
2.93
2.11
1.29
0.57
0.01
-0.40
-0.73
-1.08
-1.53
-2.15
-2.93
-3.86
-4.92
-6.10
-7.34
-8.54
-9.45
-9.82
-9.38
-8.03
-5.90
-3.31
-0.69
1.57
3.20
4.17
4.58
4.64
4.57
4.55
4.72
5.11
5.66
6.24
6.71
6.93
6.87
6.60
6.26
5.95
5.75
5.60
5.41
5.06
4.47
3.65
2.68
1.70
0.82
0.12
-0.42
-0.85
-1.25
-1.68
-2.17
-2.71
-3.30
-3.94
-4.62
-5.34
-6.06
-6.72
-7.30
-7.89
-8.61
-9.60
-10.85
-12.19
-13.26
-13.65
-13.09
-11.51
-9.11
-6.21
-3.21
-0.46
1.77
3.31
4.09
4.20
3.88
3.46
3.24
3.38
3.85
4.46
5.01
5.36
5.51
5.53
5.47
5.36
5.13
4.72
4.07
3.25
2.36
1.55
0.92
0.51
0.26
0.05
-0.26
-0.77
-1.50
-2.36
-3.21
-3.94
-4.48
-4.87
-5.23
-5.69
-6.33
-7.19
-8.23
-9.38
-10.57
-11.68
-12.54
-12.94
-12.65
-11.51
-9.51
-6.85
-3.93
-1.19
0.93
2.22
2.72
2.66
2.38
2.17
2.17
2.35
2.58
2.70
2.64
2.42
2.12
1.85
1.67
1.61
1.61
1.54
1.18
0.36
-1.03
-2.88
-4.85
-6.56
-7.68
-8.23
-8.56
-9.27
-10.92
-13.71
-17.34
-21.05
-23.97
-25.54
-25.78
-25.43
-25.60
-27.30
-30.93
-36.02
-41.38
-45.60
-47.67
-47.37
-45.35
-42.94
-41.77
-43.43
-49.15
-59.16
-72.04
-84.36
-91.06
-86.96
-68.87
-37.44
2.51
43.42
77.69
100.38
110.55
110.65
104.77
96.52
88.01
79.96
72.58
66.28
61.73
59.42
59.04
59.52
59.47
57.96
55.07
51.76
49.25
48.20
48.13
47.42
43.81
35.18
20.30
-0.68
-26.02
-52.61
-76.66
-94.61
-104.16
-104.74
-97.53
-84.75
-68.85
-51.79
-34.76
-18.43
-3.13
10.88
23.44
34.52
44.19
52.44
58.95
63.07
64.09
61.77
56.84
51.27
47.94
49.73
58.26
72.62
88.80
100.39
100.24
82.80
46.25
-6.54
-68.33
-129.19
-178.83
-208.89
-214.76
-196.53
-158.86
-109.80
-58.78
-14.29
17.98
36.14
41.77
38.74
31.65
24.53
20.12
19.78
23.67
30.97
39.87
47.57
50.66
45.93
31.64
8.62
-19.38
-46.39
-65.82
-72.56
-64.49
-42.97
-12.24
21.94
53.85
79.04
94.95
101.04
98.46
89.48
76.69
62.12
46.62
29.79
10.46
-12.19
-37.58
-63.06
-84.10
-95.09
-91.06
-69.68
-32.83
12.78
56.61
86.67
93.01
71.17
24.42
-36.34
-95.51
-137.76
-153.20
-140.53
-106.78
-63.83
-23.43
6.83
25.01
33.41
35.85
35.15
32.45
27.99
22.64
18.45
17.94
22.62
31.80
42.75
51.73
55.83
54.21
48.28
40.87
34.80
31.67
31.44
32.86
34.42
35.38
36.22
38.22
42.41
48.47
54.25
56.31
51.37
37.90
17.17
-7.03
-29.77
-46.82
-56.12
-58.18
-55.51
-51.56
-49.75
-52.79
-62.03
-76.97
-95.03
-111.84
-122.39
-122.68
-111.15
-89.25
-60.85
-30.85
-3.63
17.85
32.35
40.02
41.91
39.66
35.18
30.33
26.49
24.30
23.56
23.59
23.58
23.03
21.79
20.01
17.97
15.79
13.43
10.78
7.82
4.86
2.51
1.63
3.00
7.06
13.68
21.96
30.23
36.08
36.89
30.63
16.92
-2.34
-23.20
-40.89
-51.54
-53.60
-48.22
-38.46
-27.81
-18.74
-12.21
-7.93
-5.14
-3.32
-2.30
-2.02
-2.18
-2.25
-1.63
-0.12
1.96
3.93
5.08
5.14
4.37
3.45
3.17
3.99
5.91
8.43
10.79
12.26
12.36
10.99
8.44
5.31
2.31
0.09
-0.96
-0.81
0.20
1.54
2.65
3.18
3.06
2.46
1.72
1.15
0.92
1.04
1.33
1.56
1.55
1.18
0.51
-0.34
-1.24
-2.10
-2.88
-3.58
-4.21
-4.79
-5.31
-5.78
-6.23
-6.69
-7.20
-7.76
-8.38
-9.06
-9.78
-10.49
-11.14
-11.70
-12.19
-12.80
-13.76
-15.28
-17.33
-19.49
-21.03
-21.10
-19.11
-14.98
-9.26
-2.96
2.84
7.34
10.21
11.69
12.40
13.09
14.38
16.58
19.56
22.82
25.67
27.43
27.68
26.36
23.76
20.40
16.90
13.81
11.59
10.52
10.68
11.87
13.70
15.66
17.26
18.19
18.31
17.67
16.43
14.75
12.77
10.61
8.37
6.16
4.12
2.39
1.13
0.46
0.41
0.93
1.82
2.78
3.47
3.55
2.80
1.14
-1.29
-4.15
-6.88
-8.85
-9.48
-8.31
-5.13
0.02
6.67
13.81
19.96
23.42
22.79
17.54
8.35
-3.00
-14.23
-23.22
-28.69
-30.36
-28.77
-24.92
-19.88
-14.66
-10.16
-7.16
-6.16
-7.24
-9.94
-13.35
-16.40
-18.12
-18.01
-16.08
-12.81
-8.87
-4.92
-1.41
1.37
3.37
4.66
5.42
5.87
6.19
6.49
6.75
6.85
6.65
6.10
5.28
4.34
3.42
2.58
1.76
0.86
-0.21
-1.45
-2.78
-4.10
-5.29
-6.24
-6.83
-7.01
-6.76
-6.18
-5.43
-4.66
-3.88
-2.95
-1.58
0.46
3.22
6.45
9.74
12.64
14.84
16.26
17.00
17.23
17.08
16.63
15.93
15.05
14.02
12.86
11.53
9.87
7.71
4.95
1.63
-2.04
-5.69
-8.92
-11.37
-12.85
-13.38
-13.12
-12.35
-11.34
-10.33
-9.43
-8.71
-8.13
-7.67
-7.30
-7.04
-6.96
-7.12
-7.59
-8.35
-9.26
-10.06
-10.46
-10.23
-9.26
-7.62
-5.51
-3.18
-0.87
1.21
2.93
4.22
5.05
5.48
5.60
5.53
5.39
5.25
5.09
4.88
4.59
4.25
3.99
3.98
4.26
4.75
5.22
5.34
4.85
3.65
1.86
-0.27
-2.40
-4.26
-5.71
-6.77
-7.58
-8.28
-8.98
-9.61
-10.00
-9.90
-9.14
-7.66
-5.64
-3.39
-1.26
0.49
1.74
2.49
2.81
2.80
2.53
2.09
1.59
1.16
0.91
0.93
1.22
1.70
2.20
2.54
2.59
2.32
1.80
1.19
0.66
0.27
0.00
-0.33
-0.90
-1.86
-3.22
-4.92
-6.80
-8.64
-10.15
-11.00
-10.88
-9.63
-7.33
-4.35
-1.23
1.47
3.38
4.41
4.77
4.78
4.81
5.07
5.61
6.37
7.17
7.86
8.33
8.52
8.45
8.18
7.78
7.26
6.63
5.87
4.98
4.00
3.02
2.15
1.45
0.91
0.44
-0.07
-0.79
-1.82
-3.22
-4.97
-6.92
-8.84
-10.37
-11.16
-10.98
-9.82
-7.87
-5.52
-3.17
-1.11
0.53
1.78
2.73
3.49
4.10
4.58
4.93
5.18
5.37
5.59
5.89
6.31
6.84
7.39
7.82
8.00
7.83
7.30
6.49
5.52
4.56
3.73
3.05
2.48
1.91
1.25
0.43
-0.51
-1.51
-2.47
-3.35
-4.19
-5.06
-6.08
-7.29
-8.65
-9.94
-10.84
-11.03
-10.25
-8.46
-5.82
-2.73
0.32
2.90
4.76
5.87
6.38
6.52
6.53
6.55
6.66
6.87
7.12
7.31
7.34
7.11
6.60
5.85
5.01
4.18
3.47
2.89
2.38
1.89
1.39
0.85
0.24
-0.51
-1.52
-2.88
-4.60
-6.56
-8.58
-10.46
-12.08
-13.43
-14.55
-15.48
-16.14
-16.36
-15.91
-14.66
-12.60
-9.90
-6.87
-3.88
-1.23
0.87
2.38
3.40
4.13
4.74
5.36
6.05
6.77
7.44
7.99
8.35
8.50
8.45
8.20
7.81
7.34
6.83
6.34
5.87
5.44
5.00
4.53
4.02
3.46
2.83
2.06
1.12
-0.03
-1.34
-2.67
-3.88
-4.81
-5.44
-5.84
-6.20
-6.74
-7.64
-8.94
-10.51
-12.03
-13.08
-13.27
-12.31
-10.18
-7.14
-3.70
-0.44
2.18
3.95
4.92
5.35
5.54
5.70
5.88
6.04
6.12
6.14
6.16
6.28
6.51
6.79
6.95
6.88
6.52
5.92
5.23
4.58
4.05
3.64
3.28
2.86
2.29
1.53
0.61
-0.43
-1.47
-2.45
-3.33
-4.12
-4.86
-5.59
-6.36
-7.17
-8.07
-9.11
-10.29
-11.55
-12.67
-13.31
-13.11
-11.85
-9.53
-6.47
-3.14
-0.04
2.46
4.21
5.23
5.66
5.67
5.43
5.11
4.87
4.85
5.12
5.68
6.40
7.12
7.67
7.95
7.88
7.48
6.80
5.95
5.08
4.30
3.72
3.33
3.04
2.67
2.07
1.13
-0.10
-1.45
-2.68
-3.60
-4.16
-4.47
-4.74
-5.20
-6.00
-7.14
-8.55
-10.06
-11.48
-12.59
-13.18
-12.97
-11.80
-9.65
-6.73
-3.47
-0.35
2.20
3.97
4.96
5.35
5.37
5.22
5.04
4.91
4.89
5.02
5.34
5.81
6.33
6.76
6.92
6.69
6.08
5.21
4.31
3.57
3.07
2.73
2.36
1.79
0.90
-0.25
-1.50
-2.64
-3.50
-4.01
-4.25
-4.37
-4.60
-5.16
-6.16
-7.63
-9.41
-11.18
-12.56
-13.19
-12.80
-11.29
-8.81
-5.66
-2.31
0.78
3.24
4.87
5.68
5.84
5.62
5.26
4.93
4.72
4.67
4.75
4.92
5.11
5.25
5.27
5.12
4.81
4.39
3.91
3.39
2.80
2.10
1.25
0.25
-0.81
-1.84
-2.74
-3.45
-4.04
-4.64
-5.40
-6.44
-7.73
-9.06
-10.11
-10.55
-10.16
-8.89
-6.90
-4.49
-2.01
0.24
2.02
3.24
3.90
4.12
4.06
3.94
3.90
4.01
4.22
4.45
4.61
4.65
4.61
4.52
4.40
4.23
3.93
3.44
2.75
1.88
0.89
-0.12
-1.10
-1.98
-2.76
-3.48
-4.19
-5.03
-6.07
-7.35
-8.81
-10.24
-11.31
-11.69
-11.13
-9.54
-7.04
-3.96
-0.77
2.04
4.09
5.23
5.53
5.31
4.95
4.82
5.14
5.88
6.84
7.71
8.19
8.17
7.68
6.93
6.14
5.48
4.97
4.57
4.15
3.62
2.95
2.16
1.26
0.28
-0.77
-1.86
-2.91
-3.83
-4.56
-5.14
-5.70
-6.42
-7.42
-8.66
-9.91
-10.81
-10.97
-10.17
-8.41
-5.94
-3.18
-0.56
1.56
3.04
3.91
4.33
4.55
4.77
5.10
5.58
6.16
6.77
7.32
7.76
8.06
8.22
8.22
8.04
7.63
7.01
6.24
5.44
4.78
4.33
4.05
3.81
3.38
2.64
1.60
0.42
-0.69
-1.58
-2.27
-2.88
-3.55
-4.38
-5.36
-6.45
-7.63
-8.90
-10.26
-11.60
-12.64
-13.01
-12.36
-10.57
-7.82
-4.59
-1.46
1.09
2.85
3.91
4.53
5.03
5.56
6.16
6.73
7.17
7.46
7.67
7.87
8.11
8.35
8.48
8.37
7.98
7.35
6.64
6.03
5.65
5.52
5.49
5.35
4.89
4.00
2.75
1.34
0.01
-1.08
-1.87
-2.44
-2.94
-3.55
-4.35
-5.38
-6.61
-7.91
-9.13
-10.05
-10.40
-10.00
-8.75
-6.73
-4.22
-1.60
0.74
2.53
3.69
4.29
4.56
4.72
4.91
5.13
5.29
5.29
5.05
4.66
4.25
3.95
3.83
3.87
3.95
3.97
3.85
3.60
3.21
2.67
1.97
1.06
-0.02
-1.18
-2.31
-3.35
-4.29
-5.22
-6.23
-7.39
-8.64
-9.83
-10.73
-11.09
-10.73
-9.62
-7.83
-5.60
-3.21
-0.99
0.80
2.04
2.70
2.91
2.91
2.92
3.11
3.54
4.16
4.83
5.40
5.78
5.94
5.89
5.68
5.35
4.92
4.40
3.79
3.14
2.47
1.84
1.28
0.80
0.39
-0.05
-0.66
-1.60
-2.96
-4.64
-6.35
-7.69
-8.29
-7.93
-6.68
-4.81
-2.68
-0.59
1.28
2.90
4.35
5.67
6.91
8.06
9.05
9.76
10.02
9.64
8.50
6.64
4.32
1.96
-0.04
-1.38
-2.01
-2.05
-1.78
-1.44
-1.25
-1.34
-1.79
-2.68
-4.02
-5.77
-7.78
-9.86
-11.81
-13.42
-14.49
-14.86
-14.40
-13.07
-11.01
-8.52
-5.95
-3.66
-1.83
-0.46
0.58
1.49
2.39
3.32
4.21
4.93
5.38
5.49
5.26
4.77
4.17
3.66
3.36
3.33
3.48
3.70
3.83
3.80
3.60
3.27
2.80
2.15
1.25
0.08
-1.31
-2.78
-4.16
-5.32
-6.19
-6.71
-6.83
-6.46
-5.52
-3.98
-1.97
0.26
2.39
4.15
5.41
6.22
6.71
7.03
7.28
7.48
7.64
7.75
7.83
7.88
7.88
7.77
7.49
7.03
6.45
5.87
5.40
5.10
4.91
4.69
4.25
3.45
2.26
0.78
-0.79
-2.20
-3.31
-4.09
-4.63
-5.14
-5.83
-6.88
-8.31
-10.03
-11.75
-13.11
-13.70
-13.24
-11.65
-9.13
-6.10
-3.07
-0.45
1.49
2.76
3.53
4.03
4.44
4.85
5.23
5.52
5.71
5.81
5.88
5.95
6.02
6.04
5.94
5.68
5.31
4.95
4.70
4.60
4.61
4.55
4.26
3.59
2.55
1.24
-0.10
-1.26
-2.10
-2.65
-3.01
-3.38
-3.91
-4.73
-5.85
-7.20
-8.63
-9.84
-10.53
-10.39
-9.26
-7.20
-4.49
-1.55
1.17
3.33
4.77
5.53
5.79
5.81
5.81
5.92
6.15
6.42
6.59
6.58
6.34
5.95
5.53
5.21
5.05
5.02
5.05
4.99
4.71
4.12
3.22
2.02
0.64
-0.80
-2.17
-3.34
-4.24
-4.84
-5.23
-5.56
-6.04
-6.85
-8.05
-9.54
-11.03
-12.15
-12.51
-11.88
-10.23
-7.78
-4.96
-2.23
0.02
1.58
2.48
2.87
2.96
2.96
2.97
3.04
3.19
3.39
3.63
3.90
4.16
4.37
4.50
4.54
4.49
4.34
4.08
3.68
3.13
2.43
1.58
0.66
-0.27
-1.16
-2.02
-2.91
-3.98
-5.30
-6.84
-8.36
-9.48
-9.79
-9.05
-7.28
-4.83
-2.22
0.05
1.68
2.62
3.03
3.16
3.19
3.24
3.27
3.26
3.19
3.09
3.03
3.06
3.22
3.48
3.74
3.88
3.75
3.27
2.44
1.39
0.31
-0.56
-1.13
-1.45
-1.72
-2.22
-3.15
-4.53
-6.24
-7.99
-9.50
-10.51
-10.80
-10.26
-8.85
-6.71
-4.11
-1.46
0.83
2.48
3.41
3.75
3.76
3.71
3.78
4.08
4.58
5.17
5.68
5.95
5.89
5.51
4.94
4.33
3.83
3.47
3.23
2.99
2.67
2.22
1.60
0.79
-0.24
-1.47
-2.83
-4.17
-5.37
-6.34
-7.13
-7.87
-8.74
-9.77
-10.83
-11.61
-11.74
-10.95
-9.16
-6.58
-3.61
-0.74
1.63
3.27
4.19
4.58
4.74
4.90
5.23
5.74
6.33
6.89
7.31
7.55
7.68
7.76
7.81
7.79
7.60
7.18
6.52
5.71
4.92
4.27
3.78
3.35
2.84
2.14
1.21
0.14
-0.96
-1.95
-2.78
-3.44
-3.97
-4.46
-5.02
-5.77
-6.81
-8.12
-9.58
-10.94
-11.88
-12.13
-11.52
-10.06
-7.90
-5.31
-2.55
0.12
2.44
4.22
5.35
5.85
5.93
5.91
6.08
6.57
7.29
7.97
8.34
8.28
7.94
7.55
7.31
7.22
7.10
6.70
5.95
4.97
4.05
3.44
3.20
3.12
2.91
2.34
1.37
0.19
-0.92
-1.79
-2.43
-2.98
-3.61
-4.40
-5.28
-6.12
-6.86
-7.55
-8.35
-9.42
-10.74
-12.08
-13.02
-13.09
-11.99
-9.74
-6.70
-3.42
-0.49
1.73
3.11
3.77
3.97
3.96
3.89
3.89
4.01
4.28
4.69
5.18
5.63
5.91
5.92
5.68
5.26
4.78
4.36
4.02
3.74
3.42
2.98
2.38
1.58
0.60
-0.54
-1.76
-2.96
-4.00
-4.80
-5.40
-5.96
-6.71
-7.83
-9.25
-10.67
-11.54
-11.37
-9.89
-7.26
-3.96
-0.68
1.97
3.64
4.35
4.35
4.01
3.66
3.47
3.47
3.61
3.83
4.06
4.26
4.38
4.38
4.26
4.05
3.78
3.49
3.17
2.73
2.12
1.34
0.46
-0.43
-1.29
-2.14
-3.06
-4.12
-5.35
-6.73
-8.18
-9.59
-10.85
-11.76
-12.05
-11.49
-9.95
-7.53
-4.60
-1.68
0.73
2.33
3.13
3.42
3.53
3.75
4.22
4.88
5.59
6.18
6.55
6.68
6.59
6.31
5.90
5.38
4.80
4.19
3.61
3.11
2.72
2.40
2.06
1.54
0.73
-0.41
-1.77
-3.14
-4.32
-5.20
-5.82
-6.38
-7.09
-8.10
-9.38
-10.69
-11.69
-12.01
-11.43
-9.91
-7.64
-4.95
-2.24
0.19
2.12
3.52
4.45
5.08
5.56
6.02
6.49
6.94
7.26
7.37
7.25
6.97
6.64
6.35
6.13
5.94
5.71
5.39
4.98
4.56
4.17
3.81
3.39
2.83
2.03
0.98
-0.23
-1.48
-2.61
-3.51
-4.15
-4.58
-4.94
-5.42
-6.21
-7.43
-9.01
-10.73
-12.15
-12.84
-12.47
-10.98
-8.63
-5.86
-3.12
-0.77
1.08
2.44
3.44
4.17
4.74
5.23
5.72
6.27
6.90
7.54
8.07
8.37
8.38
8.15
7.76
7.33
6.92
6.54
6.18
5.82
5.46
5.12
4.81
4.50
4.15
3.63
2.88
1.87
0.68
-0.53
-1.59
-2.39
-2.95
-3.39
-3.86
-4.53
-5.49
-6.76
-8.25
-9.80
-11.15
-11.97
-11.98
-10.98
-9.03
-6.41
-3.53
-0.86
1.29
2.76
3.61
4.04
4.28
4.55
4.95
5.49
6.06
6.54
6.85
7.00
7.05
7.06
7.03
6.92
6.65
6.23
5.73
5.28
4.97
4.78
4.56
4.11
3.32
2.17
0.79
-0.61
-1.84
-2.75
-3.31
-3.58
-3.73
-3.97
-4.53
-5.54
-6.99
-8.64
-10.13
-11.03
-11.01
-9.95
-8.00
-5.47
-2.81
-0.43
1.41
2.58
3.13
3.24
3.19
3.23
3.52
4.11
4.83
5.48
5.83
5.81
5.49
5.08
4.80
4.73
4.78
4.77
4.50
3.87
2.92
1.79
0.65
-0.37
-1.24
-1.98
-2.63
-3.24
-3.86
-4.54
-5.37
-6.46
-7.83
-9.37
-10.80
-11.69
-11.65
-10.43
-8.11
-5.09
-1.95
0.69
2.44
3.21
3.24
2.95
2.78
3.01
3.68
4.65
5.64
6.42
6.86
6.95
6.79
6.48
6.07
5.60
5.06
4.49
3.97
3.62
3.49
3.54
3.59
3.39
2.73
1.54
-0.04
-1.68
-3.03
-3.84
-4.10
-4.05
-4.05
-4.47
-5.47
-7.01
-8.84
-10.60
-11.89
-12.41
-11.95
-10.49
-8.17
-5.34
-2.41
0.17
2.10
3.28
3.83
4.02
4.16
4.47
5.00
5.66
6.27
6.69
6.85
6.81
6.65
6.48
6.36
6.27
6.16
5.96
5.66
5.29
4.92
4.62
4.38
4.10
3.64
2.85
1.68
0.24
-1.25
-2.54
-3.46
-4.00
-4.28
-4.45
-4.70
-5.10
-5.70
-6.54
-7.65
-9.05
-10.64
-12.14
-13.15
-13.21
-12.03
-9.57
-6.15
-2.38
1.09
3.74
5.33
5.97
5.99
5.81
5.77
5.98
6.38
6.83
7.20
7.48
7.76
8.13
8.60
9.00
9.09
8.67
7.71
6.38
4.99
3.82
3.02
2.54
2.17
1.71
0.98
-0.02
-1.21
-2.42
-3.44
-4.16
-4.58
-4.83
-5.11
-5.65
-6.64
-8.09
-9.84
-11.53
-12.73
-13.02
-12.18
-10.25
-7.55
-4.59
-1.86
0.29
1.74
2.57
2.98
3.17
3.30
3.43
3.61
3.83
4.10
4.39
4.65
4.86
5.00
5.07
5.07
5.01
4.90
4.70
4.39
3.92
3.26
2.40
1.37
0.24
-0.89
-1.91
-2.79
-3.55
-4.32
-5.23
-6.39
-7.78
-9.25
-10.47
-11.09
-10.82
-9.55
-7.44
-4.88
-2.31
-0.17
1.29
2.05
2.21
2.02
1.74
1.57
1.60
1.86
2.27
2.72
3.13
3.43
3.60
3.63
3.53
3.24
2.78
2.13
1.36
0.51
-0.34
-1.15
-1.91
-2.58
-3.15
-3.63
-4.10
-4.70
-5.59
-6.86
-8.41
-9.94
-11.04
-11.30
-10.50
-8.69
-6.13
-3.21
-0.34
2.16
4.06
5.28
5.88
6.03
6.06
6.27
6.82
7.62
8.39
8.77
8.59
7.93
7.09
6.39
6.02
5.91
5.80
5.45
4.76
3.81
2.82
1.94
1.19
0.51
-0.23
-1.07
-1.99
-2.92
-3.84
-4.77
-5.71
-6.61
-7.27
-7.43
-6.86
-5.50
-3.48
-1.11
1.25
3.31
4.91
6.03
6.74
7.18
7.53
7.95
8.46
8.98
9.31
9.24
8.68
7.69
6.51
5.38
4.49
3.85
3.36
2.91
2.46
2.03
1.65
1.27
0.70
-0.22
-1.57
-3.26
-5.04
-6.60
-7.74
-8.39
-8.70
-8.93
-9.37
-10.22
-11.56
-13.19
-14.72
-15.63
-15.48
-14.07
-11.57
-8.43
-5.22
-2.40
-0.18
1.48
2.70
3.63
4.30
4.77
5.12
5.47
5.97
6.63
7.38
8.02
8.44
8.57
8.47
8.22
7.87
7.42
6.88
6.30
5.77
5.39
5.14
4.93
4.58
3.89
2.79
1.36
-0.23
-1.78
-3.10
-4.13
-4.86
-5.37
-5.75
-6.15
-6.72
-7.59
-8.79
-10.23
-11.64
-12.61
-12.75
-11.81
-9.85
-7.17
-4.28
-1.65
0.43
1.90
2.90
3.67
4.39
5.17
5.97
6.70
7.26
7.57
7.65
7.58
7.48
7.44
7.47
7.48
7.35
6.96
6.35
5.62
4.96
4.45
4.06
3.64
3.01
2.08
0.92
-0.34
-1.51
-2.47
-3.23
-3.86
-4.47
-5.18
-6.10
-7.28
-8.74
-10.40
-12.03
-13.31
-13.83
-13.28
-11.57
-8.84
-5.53
-2.18
0.73
2.88
4.21
4.87
5.10
5.14
5.12
5.10
5.07
5.02
4.97
4.97
5.01
5.07
5.08
5.01
4.86
4.67
4.47
4.22
3.82
3.12
2.07
0.75
-0.61
-1.77
-2.58
-3.08
-3.45
-3.91
-4.68
-5.84
-7.37
-9.08
-10.70
-11.88
-12.24
-11.54
-9.72
-7.01
-3.83
-0.76
1.77
3.47
4.33
4.55
4.44
4.34
4.52
5.10
6.02
7.06
7.92
8.31
8.13
7.44
6.50
5.56
4.84
4.43
4.27
4.26
4.24
4.05
3.56
2.70
1.51
0.12
-1.26
-2.46
-3.41
-4.22
-5.07
-6.15
-7.57
-9.25
-10.96
-12.38
-13.14
-12.92
-11.58
-9.16
-5.98
-2.51
0.69
3.20
4.79
5.52
5.62
5.44
5.26
5.27
5.51
5.89
6.30
6.60
6.74
6.74
6.65
6.49
6.23
5.82
5.24
4.54
3.83
3.21
2.73
2.32
1.87
1.23
0.33
-0.81
-2.06
-3.26
-4.24
-4.93
-5.33
-5.59
-5.96
-6.68
-7.88
-9.44
-11.01
-12.08
-12.20
-11.14
-9.01
-6.15
-3.05
-0.11
2.45
4.55
6.24
7.56
8.49
9.02
9.17
9.07
8.92
8.94
9.30
10.02
11.02
12.12
13.08
13.75
13.98
13.73
13.00
11.85
10.41
8.85
7.30
5.84
4.44
2.98
1.35
-0.46
-2.34
-4.06
-5.41
-6.37
-7.11
-7.94
-9.19
-11.05
-13.40
-15.89
-18.01
-19.23
-19.18
-17.71
-15.02
-11.57
-7.95
-4.74
-2.32
-0.79
-0.02
0.27
0.38
0.52
0.79
1.16
1.53
1.83
1.97
2.00
1.99
2.08
2.33
2.72
3.12
3.35
3.26
2.78
1.97
0.92
-0.27
-1.50
-2.69
-3.78
-4.78
-5.73
-6.77
-8.03
-9.53
-11.09
-12.37
-12.95
-12.47
-10.82
-8.17
-4.90
-1.51
1.54
3.89
5.38
6.02
6.00
5.61
5.16
4.85
4.75
4.77
4.78
4.66
4.39
4.01
3.54
2.94
2.12
0.97
-0.48
-2.13
-3.73
-5.11
-6.20
-7.08
-7.96
-9.07
-10.56
-12.45
-14.66
-17.04
-19.38
-21.45
-22.97
-23.69
-23.43
-22.14
-20.00
-17.30
-14.41
-11.61
-9.01
-6.47
-3.76
-0.60
3.05
7.01
10.87
14.25
16.92
18.91
20.47
21.83
23.06
24.05
24.54
24.40
23.63
22.40
20.78
18.71
15.98
12.46
8.36
4.31
1.14
-0.55
-0.87
-0.69
-1.36
-3.93
-8.48
-13.78
-17.71
-18.15
-14.18
-6.71
1.70
8.06
10.48
9.38
7.52
8.95
17.26
34.00
57.92
85.18
110.16
126.74
129.36
114.46
81.79
35.49
-16.00
-61.63
-91.02
-98.03
-83.04
-52.55
-16.31
16.69
41.11
55.71
61.67
60.17
51.09
33.69
8.67
-20.23
-46.31
-62.03
-62.00
-45.27
-16.00
17.81
46.47
61.14
55.85
29.12
-15.21
-68.20
-117.54
-150.79
-159.07
-139.97
-98.22
-43.90
11.17
57.03
87.84
102.10
101.38
88.56
66.66
38.58
7.42
-23.23
-49.62
-68.67
-78.97
-81.20
-77.81
-71.89
-65.87
-60.64
-55.59
-49.29
-40.61
-29.51
-17.26
-5.92
2.55
7.04
7.68
5.72
2.90
0.83
0.46
1.91
4.60
7.65
10.21
11.80
12.40
12.36
12.19
12.32
12.92
13.90
14.98
15.89
16.49
16.85
17.18
17.70
18.47
19.35
20.06
20.29
19.83
18.67
16.97
14.95
12.85
10.85
9.03
7.42
5.96
4.54
3.04
1.39
-0.44
-2.37
-4.22
-5.80
-6.90
-7.41
-7.21
-6.26
-4.50
-1.96
1.18
4.65
8.08
11.18
13.77
15.85
17.44
18.54
19.02
18.66
17.30
14.98
11.98
8.78
5.90
3.70
2.32
1.65
1.45
1.45
1.40
1.13
0.57
-0.31
-1.46
-2.76
-4.06
-5.18
-6.00
-6.47
-6.65
-6.74
-7.02
-7.79
-9.19
-11.14
-13.21
-14.74
-15.06
-13.79
-11.06
-7.50
-4.01
-1.40
-0.07
0.03
-0.66
-1.56
-2.17
-2.22
-1.65
-0.59
0.66
1.81
2.56
2.80
2.58
2.11
1.66
1.42
1.43
1.59
1.71
1.59
1.12
0.26
-0.98
-2.50
-4.18
-5.85
-7.33
-8.49
-9.28
-9.80
-10.24
-10.77
-11.45
-12.11
-12.46
-12.18
-11.15
-9.52
-7.66
-5.97
-4.69
-3.86
-3.34
-2.90
-2.31
-1.39
0.02
2.01
4.56
7.44
10.18
12.20
13.03
12.54
11.00
9.05
7.36
6.41
6.31
6.82
7.49
7.94
7.92
7.40
6.50
5.43
4.42
3.69
3.30
3.19
3.06
2.45
0.93
-1.68
-5.21
-9.05
-12.39
-14.46
-14.78
-13.30
-10.35
-6.50
-2.39
1.39
4.43
6.52
7.62
7.82
7.31
6.33
5.14
4.04
3.28
3.05
3.37
4.08
4.89
5.51
5.74
5.58
5.17
4.67
4.17
3.65
2.99
2.08
0.91
-0.44
-1.80
-3.04
-4.10
-5.04
-6.00
-7.16
-8.64
-10.39
-12.14
-13.45
-13.88
-13.08
-11.00
-7.89
-4.26
-0.68
2.33
4.43
5.53
5.72
5.27
4.51
3.80
3.41
3.46
3.91
4.55
5.19
5.63
5.83
5.82
5.68
5.50
5.30
5.11
4.88
4.54
4.02
3.25
2.20
0.87
-0.64
-2.24
-3.81
-5.21
-6.33
-7.14
-7.71
-8.19
-8.78
-9.60
-10.56
-11.32
-11.43
-10.50
-8.43
-5.49
-2.22
0.79
3.10
4.55
5.21
5.31
5.12
4.85
4.64
4.59
4.73
5.04
5.50
6.02
6.51
6.84
6.90
6.62
6.03
5.24
4.39
3.64
3.07
2.63
2.18
1.53
0.53
-0.85
-2.50
-4.17
-5.59
-6.55
-7.00
-7.10
-7.13
-7.42
-8.21
-9.55
-11.26
-12.92
-13.99
-13.97
-12.56
-9.81
-6.11
-2.08
1.64
4.60
6.61
7.69
8.00
7.74
7.11
6.33
5.61
5.14
5.05
5.32
5.80
6.30
6.66
6.81
6.75
6.55
6.27
5.86
5.28
4.44
3.31
1.93
0.40
-1.14
-2.60
-3.92
-5.07
-6.03
-6.78
-7.32
-7.73
-8.21
-9.00
-10.21
-11.72
-13.09
-13.74
-13.14
-11.12
-7.96
-4.26
-0.72
2.16
4.21
5.50
6.23
6.56
6.56
6.27
5.74
5.14
4.66
4.44
4.53
4.83
5.16
5.35
5.27
4.84
4.09
3.06
1.88
0.68
-0.43
-1.35
-2.07
-2.64
-3.18
-3.82
-4.71
-5.93
-7.49
-9.29
-11.03
-12.31
-12.71
-11.91
-9.89
-6.90
-3.45
-0.11
2.64
4.56
5.60
5.95
5.82
5.45
4.98
4.51
4.09
3.77
3.54
3.45
3.51
3.72
4.02
4.31
4.38
4.09
3.35
2.24
0.93
-0.37
-1.52
-2.51
-3.47
-4.55
-5.93
-7.66
-9.65
-11.63
-13.22
-13.97
-13.54
-11.84
-9.04
-5.59
-2.03
1.12
3.60
5.34
6.43
7.05
7.30
7.28
7.06
6.73
6.38
6.07
5.82
5.65
5.54
5.50
5.47
5.37
5.09
4.53
3.69
2.65
1.55
0.51
-0.45
-1.39
-2.42
-3.58
-4.88
-6.27
-7.74
-9.23
-10.64
-11.74
-12.21
-11.71
-10.07
-7.39
-4.05
-0.62
2.35
4.51
5.78
6.36
6.55
6.67
6.91
7.29
7.72
8.09
8.32
8.45
8.55
8.69
8.86
8.95
8.85
8.47
7.85
7.13
6.47
5.94
5.49
4.95
4.09
2.81
1.12
-0.76
-2.57
-4.04
-5.03
-5.58
-5.85
-6.14
-6.71
-7.77
-9.40
-11.48
-13.70
-15.57
-16.56
-16.20
-14.32
-11.09
-7.01
-2.74
1.05
3.91
5.68
6.43
6.44
6.05
5.55
5.18
5.08
5.31
5.83
6.56
7.36
8.04
8.43
8.42
7.98
7.16
6.13
5.05
4.06
3.22
2.47
1.71
0.86
-0.09
-1.09
-2.02
-2.80
-3.39
-3.85
-4.32
-4.99
-5.99
-7.40
-9.14
-10.96
-12.48
-13.23
-12.86
-11.24
-8.55
-5.24
-1.86
1.09
3.33
4.81
5.64
6.02
6.11
6.07
6.00
5.93
5.87
5.75
5.51
5.16
4.76
4.44
4.27
4.23
4.20
3.99
3.47
2.66
1.67
0.70
-0.13
-0.82
-1.50
-2.38
-3.67
-5.43
-7.54
-9.71
-11.49
-12.43
-12.20
-10.71
-8.12
-4.82
-1.33
1.83
4.25
5.76
6.41
6.47
6.25
6.05
6.01
6.09
6.18
6.17
6.00
5.73
5.45
5.21
5.00
4.73
4.29
3.64
2.80
1.87
0.97
0.16
-0.56
-1.28
-2.13
-3.27
-4.76
-6.58
-8.59
-10.58
-12.25
-13.30
-13.46
-12.53
-10.50
-7.60
-4.23
-0.90
1.90
3.90
5.09
5.69
5.98
6.25
6.63
7.13
7.69
8.19
8.59
8.83
8.92
8.84
8.54
7.97
7.10
5.99
4.82
3.80
3.11
2.80
2.73
2.62
2.15
1.11
-0.45
-2.26
-3.91
-5.08
-5.64
-5.73
-5.66
-5.83
-6.52
-7.89
-9.86
-12.11
-14.15
-15.38
-15.29
-13.64
-10.57
-6.59
-2.48
1.08
3.63
5.08
5.68
5.77
5.71
5.69
5.82
6.09
6.48
6.96
7.46
7.90
8.18
8.22
8.00
7.55
6.95
6.28
5.63
5.03
4.48
3.93
3.30
2.52
1.52
0.28
-1.15
-2.62
-3.96
-5.00
-5.65
-5.95
-6.07
-6.27
-6.84
-7.97
-9.66
-11.68
-13.58
-14.82
-14.92
-13.61
-10.94
-7.27
-3.20
0.61
3.58
5.42
6.14
6.04
5.56
5.16
5.13
5.51
6.16
6.83
7.34
7.63
7.78
7.91
8.08
8.22
8.16
7.73
6.90
5.75
4.53
3.48
2.73
2.24
1.81
1.22
0.31
-0.91
-2.25
-3.45
-4.31
-4.78
-5.03
-5.31
-5.93
-7.07
-8.74
-10.76
-12.78
-14.33
-14.99
-14.45
-12.64
-9.75
-6.20
-2.53
0.76
3.35
5.11
6.09
6.47
6.46
6.29
6.13
6.12
6.33
6.73
7.23
7.72
8.12
8.37
8.44
8.30
7.90
7.23
6.33
5.31
4.34
3.54
2.92
2.37
1.66
0.66
-0.67
-2.18
-3.63
-4.83
-5.71
-6.31
-6.78
-7.29
-7.98
-8.95
-10.22
-11.64
-12.90
-13.59
-13.30
-11.82
-9.27
-6.06
-2.77
0.10
2.30
3.80
4.73
5.23
5.40
5.32
5.05
4.72
4.47
4.42
4.61
5.00
5.51
6.03
6.47
6.74
6.75
6.41
5.71
4.66
3.38
2.02
0.72
-0.47
-1.51
-2.43
-3.28
-4.11
-5.03
-6.16
-7.62
-9.39
-11.26
-12.75
-13.30
-12.47
-10.13
-6.56
-2.39
1.62
4.83
6.88
7.75
7.70
7.14
6.54
6.23
6.31
6.67
7.03
7.13
6.86
6.30
5.74
5.40
5.37
5.48
5.43
4.95
3.94
2.50
0.91
-0.58
-1.79
-2.71
-3.39
-3.96
-4.55
-5.27
-6.27
-7.61
-9.27
-11.03
-12.51
-13.22
-12.74
-10.86
-7.66
-3.59
0.70
4.50
7.22
8.62
8.80
8.20
7.36
6.75
6.58
6.80
7.13
7.30
7.17
6.80
6.36
6.02
5.85
5.75
5.54
5.06
4.26
3.22
2.10
1.05
0.14
-0.67
-1.46
-2.33
-3.35
-4.53
-5.90
-7.48
-9.24
-11.07
-12.64
-13.50
-13.20
-11.48
-8.43
-4.51
-0.48
2.95
5.27
6.35
6.44
6.00
5.50
5.28
5.44
5.91
6.49
7.01
7.31
7.35
7.11
6.67
6.11
5.53
5.02
4.56
4.12
3.60
2.93
2.04
0.95
-0.30
-1.61
-2.89
-4.04
-5.03
-5.86
-6.64
-7.50
-8.59
-9.93
-11.40
-12.70
-13.39
-13.09
-11.59
-8.96
-5.54
-1.87
1.49
4.09
5.74
6.48
6.58
6.38
6.20
6.20
6.40
6.67
6.86
6.85
6.59
6.11
5.47
4.73
3.96
3.22
2.59
2.15
1.91
1.85
1.82
1.63
1.07
0.01
-1.52
-3.32
-5.09
-6.53
-7.43
-7.85
-8.04
-8.39
-9.27
-10.84
-12.99
-15.29
-17.16
-17.99
-17.37
-15.22
-11.81
-7.67
-3.48
0.17
2.92
4.67
5.61
6.07
6.37
6.72
7.11
7.41
7.44
7.09
6.42
5.58
4.82
4.32
4.20
4.41
4.80
5.13
5.14
4.59
3.30
1.27
-1.38
-4.35
-7.23
-9.63
-11.19
-11.72
-11.22
-9.91
-8.24
-6.74
-5.87
-5.83
-6.43
-7.15
-7.32
-6.42
-4.23
-0.96
2.93
6.84
10.27
12.88
14.57
15.39
15.54
15.28
14.87
14.51
14.30
14.23
14.17
13.96
13.48
12.67
11.56
10.27
8.94
7.72
6.67
5.79
5.01
4.18
3.19
1.98
0.53
-1.08
-2.75
-4.38
-5.89
-7.27
-8.58
-9.97
-11.57
-13.37
-15.16
-16.52
-16.94
-16.04
-13.78
-10.50
-6.80
-3.33
-0.56
1.31
2.37
2.82
2.87
2.67
2.30
1.83
1.37
1.04
0.95
1.18
1.66
2.25
2.72
2.83
2.43
1.51
0.23
-1.14
-2.38
-3.35
-4.09
-4.71
-5.39
-6.25
-7.37
-8.75
-10.27
-11.71
-12.73
-12.99
-12.24
-10.45
-7.85
-4.90
-2.09
0.20
1.80
2.82
3.45
3.92
4.37
4.78
5.06
5.11
4.91
4.56
4.25
4.20
4.49
5.05
5.60
5.83
5.50
4.58
3.24
1.82
0.61
-0.23
-0.79
-1.37
-2.33
-3.94
-6.20
-8.78
-11.12
-12.62
-12.79
-11.48
-8.88
-5.46
-1.77
1.63
4.39
6.33
7.48
7.93
7.91
7.64
7.32
7.11
7.06
7.12
7.14
7.02
6.71
6.22
5.65
5.05
4.47
3.85
3.14
2.33
1.44
0.57
-0.23
-0.95
-1.68
-2.59
-3.82
-5.50
-7.54
-9.72
-11.65
-12.88
-12.97
-11.70
-9.11
-5.53
-1.56
2.16
5.07
6.86
7.55
7.45
7.01
6.67
6.74
7.24
8.05
8.90
9.57
9.94
9.99
9.78
9.38
8.81
8.10
7.29
6.46
5.72
5.10
4.56
3.97
3.16
2.04
0.64
-0.85
-2.24
-3.34
-4.16
-4.85
-5.66
-6.85
-8.51
-10.52
-12.46
-13.79
-13.95
-12.59
-9.73
-5.80
-1.50
2.36
5.18
6.66
6.88
6.24
5.23
4.32
3.78
3.68
3.91
4.29
4.67
4.96
5.14
5.25
5.30
5.32
5.26
5.10
4.79
4.30
3.59
2.66
1.53
0.25
-1.10
-2.40
-3.56
-4.54
-5.33
-6.01
-6.72
-7.62
-8.82
-10.25
-11.61
-12.44
-12.22
-10.65
-7.78
-4.02
-0.09
3.29
5.62
6.73
6.80
6.25
5.53
5.03
4.95
5.29
5.88
6.47
6.83
6.86
6.60
6.18
5.78
5.51
5.34
5.15
4.76
4.06
3.05
1.83
0.52
-0.76
-1.94
-3.00
-3.95
-4.82
-5.69
-6.69
-7.98
-9.69
-11.82
-14.13
-16.15
-17.28
-16.92
-14.82
-11.10
-6.35
-1.44
2.79
5.76
7.30
7.66
7.29
6.69
6.21
6.02
6.13
6.47
7.01
7.72
8.56
9.47
10.34
11.04
11.50
11.68
11.59
11.21
10.52
9.45
8.01
6.25
4.37
2.57
1.03
-0.15
-1.05
-1.82
-2.66
-3.76
-5.26
-7.15
-9.27
-11.29
-12.74
-13.14
-12.19
-9.87
-6.52
-2.75
0.76
3.46
5.08
5.69
5.58
5.14
4.71
4.44
4.32
4.22
4.03
3.68
3.27
2.98
2.97
3.29
3.85
4.41
4.75
4.69
4.21
3.34
2.14
0.68
-1.00
-2.81
-4.63
-6.32
-7.81
-9.13
-10.43
-11.88
-13.56
-15.35
-16.84
-17.52
-16.85
-14.52
-10.65
-5.81
-0.97
2.84
4.86
4.92
3.53
1.67
0.45
0.63
2.41
5.34
8.62
11.36
12.94
13.14
12.12
10.30
8.14
6.03
4.23
2.87
2.01
1.61
1.60
1.78
1.87
1.56
0.57
-1.16
-3.47
-5.99
-8.25
-9.97
-11.08
-11.78
-12.38
-13.02
-13.56
-13.60
-12.67
-10.49
-7.20
-3.26
0.63
3.86
6.09
7.25
7.53
7.21
6.58
5.88
5.28
4.87
4.66
4.58
4.51
4.36
4.10
3.77
3.43
3.09
2.75
2.33
1.79
1.12
0.32
-0.62
-1.66
-2.80
-3.94
-5.01
-5.92
-6.66
-7.35
-8.18
-9.33
-10.83
-12.46
-13.77
-14.22
-13.40
-11.22
-7.91
-4.00
-0.14
3.10
5.32
6.33
6.15
4.98
3.12
0.96
-1.09
-2.65
-3.45
-3.37
-2.48
-1.03
0.61
1.97
2.65
2.40
1.17
-0.87
-3.37
-5.98
-8.40
-10.48
-12.20
-13.62
-14.80
-15.74
-16.36
-16.51
-15.98
-14.61
-12.22
-8.76
-4.30
0.87
6.22
11.11
14.92
17.27
18.19
18.10
17.62
17.33
17.53
18.18
19.01
19.65
19.84
19.49
18.60
17.20
15.32
12.88
9.83
6.19
2.16
-1.91
-5.64
-8.66
-10.73
-11.76
-11.86
-11.33
-10.56
-9.92
-9.79
-10.36
-11.57
-13.05
-14.09
-13.99
-12.40
-9.30
-5.05
-0.36
3.97
7.40
9.82
11.77
13.98
16.79
20.42
24.77
29.32
33.42
36.61
38.82
40.71
42.94
45.47
48.18
50.79
52.84
53.92
54.00
53.41
53.18
54.19
56.38
59.68
63.73
67.42
68.96
66.16
54.86
33.73
7.53
-20.53
-47.77
-71.10
-88.29
-98.58
-102.53
-101.52
-96.65
-88.85
-79.27
-68.47
-56.82
-45.02
-34.09
-25.03
-18.49
-14.25
-11.69
-10.43
-9.82
-9.29
-8.71
-8.28
-8.26
-8.82
-9.72
-10.58
-11.37
-11.96
-12.26
-12.38
-12.58
-13.04
-13.87
-14.88
-15.85
-16.77
-17.58
-18.28
-18.80
-18.90
-18.14
-16.02
-12.27
-7.12
-1.39
3.86
7.73
9.84
10.42
10.16
9.87
10.09
10.95
12.20
13.41
14.18
14.29
13.75
12.70
11.37
9.96
8.64
7.53
6.64
5.92
5.25
4.48
3.51
2.31
0.95
-0.44
-1.75
-2.91
-3.92
-4.86
-5.83
-6.95
-8.29
-9.75
-11.08
-11.81
-11.44
-9.54
-6.04
-1.30
3.93
8.76
12.44
14.54
15.00
14.09
12.22
9.85
7.43
5.37
3.99
3.47
3.77
4.64
5.67
6.41
6.51
5.85
4.52
2.77
0.92
-0.72
-1.93
-2.60
-2.78
-2.68
-2.62
-2.99
-4.10
-6.08
-8.88
-12.22
-15.67
-18.76
-21.01
-21.99
-21.41
-19.14
-15.36
-10.51
-5.25
-0.37
3.54
6.12
7.39
7.63
7.24
6.58
5.94
5.50
5.38
5.68
6.40
7.48
8.77
10.02
10.96
11.36
11.11
10.22
8.85
7.20
5.50
3.88
2.43
1.12
-0.14
-1.49
-3.10
-5.08
-7.46
-10.06
-12.46
-14.10
-14.41
-13.04
-10.05
-5.89
-1.39
2.57
5.33
6.58
6.52
5.64
4.55
3.71
3.32
3.29
3.42
3.55
3.67
3.87
4.23
4.66
4.92
4.74
3.98
2.75
1.36
0.17
-0.64
-1.14
-1.65
-2.55
-4.15
-6.50
-9.41
-12.43
-15.00
-16.51
-16.51
-14.77
-11.47
-7.10
-2.40
1.90
5.31
7.67
9.14
10.03
10.59
10.95
11.10
10.97
10.56
9.96
9.31
8.75
8.33
7.98
7.54
6.79
5.56
3.83
1.74
-0.40
-2.22
-3.45
-4.03
-4.15
-4.18
-4.54
-5.56
-7.36
-9.81
-12.53
-14.91
-16.24
-15.96
-13.80
-9.99
-5.19
-0.29
3.89
6.89
8.69
9.55
9.82
9.73
9.37
8.77
7.99
7.26
6.84
7.00
7.79
8.99
10.20
10.95
10.86
9.85
8.12
6.05
4.05
2.40
1.12
-0.01
-1.32
-3.15
-5.61
-8.56
-11.53
-13.85
-14.93
-14.42
-12.39
-9.31
-5.85
-2.63
-0.01
1.92
3.31
4.39
5.34
6.29
7.25
8.19
9.04
9.69
10.00
9.93
9.47
8.70
7.68
6.46
5.08
3.59
2.15
0.91
0.01
-0.60
-1.15
-1.94
-3.27
-5.25
-7.82
-10.70
-13.54
-15.90
-17.30
-17.35
-15.78
-12.65
-8.32
-3.44
1.25
5.14
7.91
9.59
10.47
10.90
11.17
11.41
11.58
11.57
11.29
10.76
10.12
9.57
9.26
9.20
9.20
9.00
8.31
7.00
5.15
3.03
0.98
-0.70
-1.92
-2.75
-3.40
-4.11
-5.05
-6.32
-7.95
-9.90
-12.09
-14.32
-16.18
-17.13
-16.64
-14.38
-10.43
-5.35
-0.00
4.68
8.02
9.80
10.28
10.02
9.60
9.42
9.56
9.77
9.71
9.08
7.85
6.27
4.75
3.65
3.11
3.00
2.92
2.48
1.41
-0.23
-2.20
-4.15
-5.82
-7.12
-8.11
-8.92
-9.64
-10.35
-11.13
-12.07
-13.24
-14.54
-15.64
-15.96
-14.95
-12.35
-8.32
-3.52
1.17
4.94
7.33
8.30
8.17
7.43
6.53
5.76
5.25
4.95
4.79
4.69
4.61
4.56
4.52
4.47
4.34
4.03
3.49
2.75
1.86
0.96
0.13
-0.57
-1.17
-1.74
-2.44
-3.49
-5.10
-7.40
-10.35
-13.59
-16.51
-18.35
-18.45
-16.54
-12.85
-8.07
-3.16
1.03
3.96
5.53
5.98
5.68
5.01
4.25
3.57
3.09
2.88
2.93
3.17
3.49
3.81
4.12
4.44
4.78
5.07
5.17
4.93
4.31
3.44
2.57
1.93
1.61
1.47
1.19
0.36
-1.28
-3.77
-6.80
-9.79
-12.03
-12.89
-12.00
-9.37
-5.43
-0.89
3.37
6.60
8.37
8.73
8.19
7.58
7.67
8.87
11.01
13.44
15.28
15.87
15.03
13.15
10.90
8.90
7.43
6.35
5.29
3.92
2.11
0.03
-2.06
-3.90
-5.41
-6.70
-7.96
-9.43
-11.25
-13.44
-15.82
-18.01
-19.49
-19.79
-18.59
-15.97
-12.35
-8.37
-4.64
-1.53
0.92
2.91
4.65
6.23
7.56
8.42
8.67
8.32
7.61
6.93
6.58
6.72
7.23
7.79
8.02
7.63
6.55
4.96
3.17
1.50
0.15
-0.85
-1.63
-2.37
-3.27
-4.48
-6.12
-8.26
-10.85
-13.65
-16.18
-17.79
-17.84
-15.97
-12.28
-7.35
-2.09
2.58
5.96
7.80
8.25
7.76
6.88
6.03
5.44
5.13
4.96
4.73
4.32
3.71
3.07
2.62
2.61
3.13
4.07
5.08
5.74
5.66
4.65
2.75
0.25
-2.46
-4.95
-6.89
-8.11
-8.64
-8.69
-8.63
-8.84
-9.52
-10.58
-11.56
-11.77
-10.62
-7.84
-3.65
1.26
6.03
9.86
12.29
13.27
13.08
12.20
11.10
10.09
9.33
8.78
8.38
8.06
7.87
7.88
8.15
8.64
9.24
9.74
9.95
9.71
8.92
7.55
5.68
3.48
1.21
-0.88
-2.65
-4.09
-5.34
-6.63
-8.16
-10.03
-12.26
-14.71
-17.05
-18.79
-19.38
-18.36
-15.57
-11.31
-6.26
-1.27
2.89
5.80
7.44
8.07
8.03
7.59
6.93
6.12
5.29
4.62
4.31
4.51
5.20
6.15
6.99
7.35
7.05
6.13
4.83
3.44
2.16
0.98
-0.22
-1.63
-3.34
-5.37
-7.70
-10.24
-12.86
-15.28
-17.06
-17.62
-16.48
-13.49
-8.98
-3.69
1.43
5.64
8.53
10.15
10.81
10.88
10.55
9.87
8.81
7.42
5.95
4.71
4.02
3.98
4.42
4.95
5.14
4.66
3.49
1.88
0.21
-1.16
-2.08
-2.65
-3.12
-3.83
-5.00
-6.74
-8.98
-11.59
-14.26
-16.58
-18.02
-18.01
-16.15
-12.43
-7.32
-1.66
3.58
7.63
10.13
11.16
11.14
10.54
9.71
8.85
8.02
7.23
6.54
6.05
5.87
6.03
6.42
6.82
6.95
6.61
5.74
4.41
2.84
1.20
-0.38
-1.89
-3.37
-4.89
-6.48
-8.11
-9.81
-11.59
-13.47
-15.35
-16.95
-17.78
-17.33
-15.21
-11.45
-6.48
-1.08
3.92
7.86
10.39
11.54
11.56
10.81
9.70
8.61
7.84
7.53
7.66
8.02
8.36
8.45
8.20
7.69
7.05
6.41
5.78
5.09
4.23
3.11
1.73
0.16
-1.48
-3.04
-4.42
-5.62
-6.66
-7.65
-8.68
-9.84
-11.19
-12.75
-14.40
-15.84
-16.60
-16.18
-14.18
-10.58
-5.78
-0.54
4.24
7.85
9.93
10.60
10.27
9.50
8.78
8.37
8.32
8.54
8.86
9.16
9.39
9.55
9.66
9.66
9.48
9.02
8.22
7.09
5.68
4.10
2.41
0.65
-1.12
-2.87
-4.55
-6.12
-7.58
-9.02
-10.58
-12.37
-14.41
-16.43
-17.94
-18.27
-16.90
-13.64
-8.79
-3.11
2.41
6.88
9.72
10.85
10.61
9.56
8.33
7.37
6.92
6.94
7.24
7.54
7.62
7.36
6.77
5.96
5.10
4.35
3.83
3.59
3.55
3.53
3.25
2.46
0.98
-1.12
-3.58
-5.95
-7.80
-8.86
-9.19
-9.19
-9.43
-10.37
-12.13
-14.30
-16.03
-16.41
-14.78
-11.08
-5.89
-0.20
4.93
8.67
10.66
11.02
10.19
8.75
7.28
6.21
5.69
5.67
5.90
6.09
6.03
5.64
5.05
4.45
4.06
4.04
4.40
5.04
5.72
6.16
6.09
5.38
4.06
2.34
0.51
-1.19
-2.62
-3.84
-5.06
-6.59
-8.70
-11.51
-14.87
-18.26
-20.92
-21.97
-20.79
-17.22
-11.73
-5.29
0.90
5.75
8.58
9.27
8.24
6.28
4.32
3.14
3.13
4.22
5.98
7.79
9.10
9.65
9.43
8.68
7.67
6.65
5.74
4.99
4.36
3.73
2.98
1.95
0.60
-1.04
-2.81
-4.55
-6.13
-7.56
-8.90
-10.26
-11.75
-13.36
-14.98
-16.35
-17.07
-16.72
-14.93
-11.60
-6.96
-1.50
4.09
9.15
13.16
15.77
16.82
16.33
14.48
11.66
8.36
5.14
2.48
0.71
-0.05
0.12
1.00
2.24
3.44
4.23
4.32
3.66
2.40
0.85
-0.66
-1.90
-2.84
-3.65
-4.54
-5.71
-7.18
-8.89
-10.69
-12.49
-14.21
-15.75
-16.88
-17.17
-16.12
-13.34
-8.83
-3.06
3.08
8.54
12.49
14.50
14.67
13.44
11.41
9.16
7.17
5.72
5.00
5.04
5.75
6.94
8.33
9.61
10.48
10.69
10.09
8.67
6.57
4.02
1.37
-1.09
-3.19
-4.85
-6.14
-7.21
-8.23
-9.37
-10.81
-12.60
-14.62
-16.47
-17.52
-17.10
-14.79
-10.66
-5.39
-0.11
4.01
6.13
6.03
4.10
1.13
-1.98
-4.52
-6.01
-6.25
-5.28
-3.30
-0.65
2.24
4.94
7.14
8.67
9.49
9.64
9.18
8.14
6.56
4.59
2.43
0.34
-1.46
-2.85
-3.80
-4.41
-4.83
-5.29
-5.98
-7.08
-8.60
-10.32
-11.81
-12.44
-11.71
-9.33
-5.47
-0.66
4.36
8.85
12.25
14.26
14.86
14.23
12.68
10.64
8.53
6.80
5.78
5.62
6.26
7.50
8.93
10.16
10.82
10.66
9.67
7.97
5.82
3.52
1.29
-0.76
-2.67
-4.62
-6.85
-9.57
-12.82
-16.33
-19.54
-21.64
-21.89
-19.86
-15.70
-10.13
-4.23
0.89
4.48
6.30
6.64
6.11
5.39
4.96
5.04
5.55
6.26
6.91
7.32
7.45
7.33
7.00
6.50
5.85
5.10
4.36
3.77
3.42
3.27
3.11
2.64
1.60
-0.13
-2.50
-5.33
-8.38
-11.34
-13.82
-15.37
-15.52
-13.96
-10.74
-6.32
-1.47
2.98
6.39
8.55
9.63
10.04
10.20
10.40
10.68
10.94
11.02
10.79
10.27
9.53
8.75
8.02
7.38
6.77
6.10
5.27
4.28
3.18
2.04
0.96
-0.04
-0.97
-1.93
-3.01
-4.28
-5.81
-7.58
-9.56
-11.65
-13.67
-15.36
-16.36
-16.27
-14.81
-11.91
-7.82
-3.10
1.53
5.41
8.11
9.54
9.93
9.71
9.34
9.15
9.26
9.55
9.79
9.75
9.33
8.62
7.83
7.17
6.73
6.44
6.15
5.73
5.17
4.58
4.07
3.67
3.23
2.56
1.48
-0.02
-1.78
-3.51
-4.97
-6.03
-6.73
-7.23
-7.75
-8.47
-9.53
-11.05
-13.10
-15.65
-18.42
-20.90
-22.38
-22.19
-19.95
-15.75
-10.16
-4.09
1.51
5.94
8.89
10.44
11.00
11.04
10.97
11.03
11.25
11.56
11.85
12.03
12.08
12.06
11.99
11.88
11.71
11.43
11.04
10.56
10.03
9.45
8.78
7.88
6.63
4.93
2.79
0.39
-1.96
-3.98
-5.47
-6.46
-7.18
-7.99
-9.24
-11.04
-13.24
-15.44
-17.09
-17.68
-16.87
-14.59
-11.06
-6.79
-2.40
1.48
4.41
6.22
7.02
7.12
6.90
6.67
6.58
6.65
6.81
6.97
7.07
7.07
6.95
6.70
6.34
5.91
5.47
5.05
4.64
4.12
3.32
2.07
0.35
-1.65
-3.59
-5.14
-6.07
-6.47
-6.64
-7.04
-8.08
-9.95
-12.53
-15.35
-17.75
-19.01
-18.59
-16.30
-12.37
-7.45
-2.37
2.02
5.13
6.79
7.19
6.83
6.27
5.92
5.94
6.25
6.62
6.87
6.92
6.84
6.75
6.70
6.65
6.45
5.97
5.13
3.95
2.54
1.02
-0.45
-1.76
-2.86
-3.76
-4.59
-5.54
-6.86
-8.73
-11.16
-13.90
-16.44
-18.10
-18.25
-16.55
-13.04
-8.23
-2.94
1.95
5.75
8.10
9.07
9.03
8.49
7.87
7.45
7.23
7.09
6.83
6.37
5.76
5.14
4.63
4.24
3.82
3.18
2.20
0.93
-0.40
-1.56
-2.45
-3.16
-3.92
-5.00
-6.50
-8.37
-10.47
-12.62
-14.66
-16.37
-17.47
-17.54
-16.20
-13.29
-9.04
-4.09
0.73
4.66
7.31
8.70
9.19
9.26
9.27
9.38
9.55
9.65
9.58
9.31
8.90
8.47
8.13
7.89
7.68
7.37
6.78
5.85
4.59
3.15
1.71
0.41
-0.73
-1.81
-2.95
-4.29
-5.88
-7.73
-9.81
-12.03
-14.22
-16.04
-16.99
-16.58
-14.53
-10.93
-6.29
-1.39
2.99
6.35
8.56
9.81
10.47
10.88
11.24
11.59
11.89
12.06
12.10
12.07
12.04
12.04
11.97
11.67
10.99
9.96
8.78
7.75
7.10
6.83
6.64
6.16
5.06
3.26
0.94
-1.56
-3.89
-5.83
-7.30
-8.33
-9.06
-9.71
-10.56
-11.91
-13.92
-16.54
-19.35
-21.67
-22.67
-21.71
-18.59
-13.67
-7.77
-1.96
2.86
6.15
7.90
8.49
8.47
8.33
8.35
8.57
8.86
9.03
8.99
8.73
8.37
8.02
7.78
7.70
7.78
8.03
8.39
8.74
8.82
8.30
6.92
4.62
1.66
-1.45
-4.12
-5.95
-6.85
-7.06
-7.04
-7.28
-8.16
-9.86
-12.26
-14.99
-17.43
-18.80
-18.44
-16.01
-11.72
-6.30
-0.79
3.86
7.05
8.71
9.19
9.02
8.66
8.38
8.24
8.22
8.26
8.33
8.41
8.42
8.22
7.72
6.90
5.88
4.92
4.21
3.80
3.57
3.21
2.42
1.03
-0.88
-3.00
-4.99
-6.57
-7.64
-8.31
-8.78
-9.29
-10.02
-11.11
-12.63
-14.49
-16.44
-17.99
-18.53
-17.53
-14.77
-10.50
-5.41
-0.43
3.59
6.20
7.42
7.68
7.52
7.43
7.62
8.05
8.51
8.80
8.83
8.62
8.31
8.00
7.78
7.60
7.36
6.93
6.20
5.13
3.74
2.17
0.60
-0.76
-1.79
-2.52
-3.12
-3.87
-5.03
-6.75
-8.97
-11.40
-13.57
-14.94
-15.04
-13.59
-10.64
-6.56
-2.00
2.30
5.76
8.03
9.12
9.25
8.82
8.19
7.62
7.24
7.06
7.04
7.09
7.16
7.17
7.07
6.81
6.35
5.71
4.93
4.09
3.23
2.34
1.30
-0.09
-2.00
-4.54
-7.68
-11.24
-14.90
-18.25
-20.79
-22.06
-21.70
-19.62
-16.02
-11.40
-6.48
-1.93
1.76
4.39
6.02
6.92
7.36
7.61
7.80
8.02
8.28
8.58
8.92
9.33
9.86
10.52
11.28
11.93
12.15
11.59
9.99
7.41
4.26
1.20
-1.00
-1.86
-1.31
0.16
1.68
2.24
1.04
-2.23
-7.28
-13.22
-18.78
-22.67
-23.89
-22.07
-17.52
-11.15
-4.21
2.10
6.89
9.78
10.90
10.70
9.82
8.84
8.17
8.03
8.41
9.13
9.90
10.46
10.56
10.13
9.19
7.93
6.62
5.51
4.77
4.38
4.14
3.70
2.77
1.19
-0.96
-3.44
-5.91
-8.12
-9.92
-11.29
-12.36
-13.29
-14.26
-15.37
-16.53
-17.38
-17.36
-15.95
-12.86
-8.30
-2.94
2.28
6.50
9.23
10.50
10.70
10.36
9.94
9.66
9.56
9.60
9.75
10.03
10.42
10.84
11.06
10.85
10.06
8.76
7.24
5.83
4.78
4.07
3.47
2.64
1.34
-0.45
-2.58
-4.77
-6.75
-8.36
-9.54
-10.36
-10.99
-11.71
-12.83
-14.54
-16.78
-19.10
-20.73
-20.84
-18.91
-14.93
-9.52
-3.63
1.73
5.94
8.83
10.66
11.84
12.63
13.08
12.98
12.16
10.62
8.66
6.73
5.29
4.55
4.39
4.47
4.43
4.12
3.63
3.26
3.25
3.60
4.00
3.96
3.04
1.04
-1.86
-5.13
-8.13
-10.26
-11.25
-11.24
-10.75
-10.54
-11.29
-13.36
-16.54
-20.06
-22.82
-23.72
-22.09
-17.90
-11.76
-4.73
2.05
7.64
11.52
13.61
14.16
13.62
12.51
11.30
10.38
9.99
10.19
10.85
11.71
12.44
12.77
12.56
11.86
10.89
9.91
9.13
8.65
8.47
8.48
8.57
8.67
8.69
8.53
8.03
7.00
5.24
2.65
-0.74
-4.78
-9.20
-13.64
-17.67
-20.79
-22.52
-22.46
-20.43
-16.55
-11.35
-5.62
-0.26
3.99
6.76
8.09
8.33
8.01
7.64
7.54
7.88
8.60
9.54
10.47
11.18
11.50
11.31
10.63
9.54
8.26
6.99
5.87
4.91
3.96
2.75
1.04
-1.24
-3.97
-6.77
-9.20
-10.87
-11.64
-11.66
-11.30
-11.07
-11.44
-12.67
-14.73
-17.20
-19.44
-20.65
-20.25
-18.00
-14.16
-9.37
-4.43
-0.07
3.26
5.44
6.58
6.94
6.79
6.39
5.93
5.57
5.40
5.44
5.69
6.08
6.54
6.98
7.26
7.25
6.83
5.98
4.75
3.30
1.79
0.35
-0.94
-2.07
-3.09
-4.02
-4.95
-5.95
-7.17
-8.69
-10.49
-12.32
-13.75
-14.27
-13.42
-11.03
-7.33
-2.90
1.50
5.14
7.58
8.70
8.71
7.97
6.86
5.63
4.42
3.28
2.27
1.49
1.04
1.00
1.33
1.81
2.13
1.98
1.18
-0.29
-2.23
-4.37
-6.47
-8.39
-10.17
-11.98
-13.99
-16.34
-19.06
-21.96
-24.69
-26.71
-27.36
-26.07
-22.55
-16.97
-9.92
-2.30
4.98
11.18
15.85
18.75
19.72
18.71
15.78
11.29
5.94
0.64
-3.70
-6.48
-7.51
-7.01
-5.35
-2.91
0.00
3.04
5.69
7.26
7.21
5.52
2.99
1.03
1.04
3.66
8.27
13.20
16.46
16.65
13.57
8.16
1.85
-4.24
-9.78
-15.16
-20.93
-27.15
-33.03
-37.16
-38.00
-34.64
-27.15
-16.67
-4.99
6.06
15.11
21.51
25.26
26.78
26.60
25.26
23.25
21.04
19.04
17.58
16.76
16.41
16.13
15.43
13.92
11.47
8.27
4.79
1.49
-1.32
-3.65
-5.74
-7.82
-9.90
-11.64
-12.42
-11.67
-9.16
-5.16
-0.33
4.46
8.49
11.34
12.91
13.37
13.01
12.17
11.20
10.41
10.04
10.18
10.80
11.68
12.56
13.17
13.33
12.97
12.09
10.81
9.27
7.64
6.10
4.75
3.64
2.77
2.09
1.49
0.83
-0.12
-1.62
-3.82
-6.69
-9.95
-13.05
-15.41
-16.49
-16.03
-14.03
-10.78
-6.78
-2.66
0.93
3.41
4.46
4.12
2.89
1.55
0.84
1.19
2.52
4.27
5.75
6.37
5.96
4.74
3.18
1.78
0.88
0.59
0.89
1.63
2.67
3.83
4.90
5.73
6.24
6.50
6.68
6.88
7.04
6.83
5.76
3.41
-0.42
-5.51
-11.18
-16.50
-20.50
-22.40
-21.83
-18.89
-14.08
-8.24
-2.29
2.91
6.75
8.97
9.70
9.35
8.52
7.74
7.38
7.49
7.91
8.36
8.57
8.45
8.02
7.37
6.57
5.67
4.69
3.69
2.75
1.94
1.26
0.57
-0.31
-1.52
-3.09
-4.86
-6.63
-8.24
-9.70
-11.15
-12.80
-14.73
-16.78
-18.53
-19.39
-18.81
-16.55
-12.77
-8.07
-3.32
0.65
3.30
4.56
4.75
4.45
4.18
4.24
4.61
5.05
5.31
5.25
4.86
4.25
3.50
2.59
1.46
0.09
-1.45
-2.96
-4.15
-4.87
-5.09
-4.98
-4.79
-4.74
-4.92
-5.33
-5.99
-7.03
-8.68
-11.08
-14.12
-17.27
-19.62
-20.15
-18.17
-13.56
-6.97
0.48
7.52
13.17
16.89
18.63
18.71
17.56
15.70
13.58
11.61
10.06
9.03
8.45
8.11
7.83
7.49
7.15
6.93
6.93
7.14
7.41
7.53
7.28
6.53
5.29
3.67
1.87
0.08
-1.57
-3.06
-4.48
-6.02
-7.84
-10.01
-12.40
-14.66
-16.28
-16.71
-15.51
-12.52
-7.94
-2.40
3.21
7.94
10.98
11.98
11.10
9.02
6.66
4.95
4.43
5.15
6.69
8.34
9.46
9.71
9.08
7.87
6.48
5.21
4.17
3.27
2.31
1.04
-0.73
-3.04
-5.75
-8.48
-10.74
-12.00
-11.98
-10.68
-8.53
-6.22
-4.54
-4.18
-5.44
-8.13
-11.58
-14.83
-16.89
-17.09
-15.26
-11.80
-7.46
-3.11
0.61
3.36
5.14
6.14
6.71
7.18
7.92
9.19
11.17
13.86
17.05
20.36
23.33
25.52
26.70
26.90
26.34
25.33
24.03
22.37
20.07
16.86
12.71
8.01
3.47
-0.11
-2.28
-3.09
-3.18
-3.51
-4.93
-7.86
-12.13
-17.01
-21.53
-24.78
-26.16
-25.48
-22.96
-19.14
-14.76
-10.63
-7.46
-5.59
-4.93
-4.92
-4.78
-3.82
-1.74
1.21
4.41
7.10
8.72
9.07
8.34
6.93
5.28
3.77
2.58
1.74
1.13
0.63
0.11
-0.48
-1.15
-1.90
-2.74
-3.69
-4.75
-5.85
-6.90
-7.87
-8.85
-9.96
-11.32
-12.89
-14.36
-15.26
-15.12
-13.67
-10.96
-7.38
-3.46
0.23
3.34
5.62
7.01
7.53
7.25
6.34
5.06
3.77
2.77
2.27
2.28
2.64
3.09
3.42
3.47
3.23
2.77
2.16
1.43
0.52
-0.64
-2.15
-4.05
-6.30
-8.76
-11.17
-13.25
-14.73
-15.42
-15.22
-14.17
-12.44
-10.27
-7.92
-5.57
-3.25
-0.84
1.87
5.01
8.50
12.00
14.97
16.92
17.52
16.81
15.13
12.99
10.93
9.31
8.29
7.81
7.66
7.58
7.37
6.89
6.11
5.06
3.81
2.43
1.00
-0.45
-1.90
-3.36
-4.88
-6.50
-8.19
-9.80
-11.06
-11.60
-11.13
-9.54
-6.95
-3.76
-0.45
2.50
4.76
6.22
6.96
7.16
7.06
6.85
6.66
6.53
6.46
6.40
6.30
6.15
5.92
5.59
5.14
4.52
3.75
2.88
1.98
1.11
0.23
-0.79
-2.13
-3.93
-6.20
-8.78
-11.38
-13.65
-15.25
-15.95
-15.61
-14.28
-12.15
-9.50
-6.66
-3.90
-1.39
0.83
2.76
4.38
5.61
6.34
6.45
5.94
4.96
3.84
2.93
2.52
2.72
3.40
4.24
4.83
4.90
4.33
3.26
2.01
0.88
0.07
-0.44
-0.88
-1.55
-2.73
-4.55
-6.87
-9.34
-11.45
-12.63
-12.49
-10.83
-7.80
-3.78
0.64
4.82
8.23
10.56
11.72
11.83
11.16
10.08
8.98
8.17
7.87
8.07
8.55
8.96
8.93
8.28
7.00
5.31
3.50
1.84
0.49
-0.52
-1.27
-1.94
-2.79
-4.15
-6.36
-9.58
-13.69
-18.14
-22.01
-24.25
-24.02
-20.98
-15.51
-8.57
-1.46
4.58
8.73
10.75
10.93
9.91
8.41
7.03
6.11
5.73
5.78
6.04
6.27
6.33
6.17
5.82
5.39
4.96
4.65
4.50
4.51
4.61
4.69
4.58
4.15
3.30
2.04
0.45
-1.33
-3.16
-4.94
-6.62
-8.17
-9.53
-10.55
-11.01
-10.62
-9.14
-6.46
-2.76
1.50
5.69
9.15
11.44
12.48
12.50
11.96
11.32
10.84
10.53
10.19
9.56
8.50
7.10
5.65
4.52
3.94
3.91
4.13
4.15
3.57
2.22
0.17
-2.31
-4.85
-7.12
-8.87
-9.93
-10.25
-9.88
-9.05
-8.11
-7.52
-7.69
-8.78
-10.58
-12.54
-13.92
-14.02
-12.51
-9.46
-5.39
-1.01
2.99
6.12
8.15
9.06
8.94
7.97
6.36
4.39
2.38
0.64
-0.54
-0.99
-0.61
0.55
2.30
4.34
6.28
7.76
8.49
8.41
7.59
6.25
4.62
2.94
1.38
0.08
-0.90
-1.58
-2.04
-2.40
-2.84
-3.54
-4.64
-6.20
-8.14
-10.18
-11.86
-12.68
-12.25
-10.44
-7.45
-3.79
-0.09
3.05
5.28
6.52
6.99
7.02
6.98
7.08
7.40
7.80
8.13
8.30
8.33
8.35
8.44
8.53
8.40
7.74
6.35
4.25
1.71
-0.86
-3.05
-4.66
-5.74
-6.59
-7.54
-8.88
-10.64
-12.70
-14.77
-16.53
-17.63
-17.80
-16.82
-14.64
-11.44
-7.67
-3.96
-0.95
1.01
1.93
2.23
2.43
2.93
3.76
4.69
5.36
5.55
5.33
4.98
4.84
5.09
5.66
6.24
6.46
6.10
5.16
3.83
2.39
1.02
-0.23
-1.46
-2.79
-4.30
-5.99
-7.82
-9.73
-11.62
-13.26
-14.30
-14.32
-13.00
-10.33
-6.67
-2.66
1.02
3.88
5.76
6.78
7.21
7.27
7.09
6.67
6.06
5.37
4.81
4.57
4.74
5.23
5.83
6.23
6.18
5.57
4.46
3.05
1.62
0.40
-0.47
-1.08
-1.64
-2.49
-3.91
-6.03
-8.74
-11.69
-14.35
-16.17
-16.70
-15.70
-13.23
-9.61
-5.40
-1.26
2.23
4.68
6.06
6.60
6.71
6.80
7.09
7.61
8.22
8.79
9.26
9.63
9.92
10.09
10.05
9.66
8.86
7.74
6.55
5.51
4.78
4.34
4.00
3.51
2.69
1.49
0.00
-1.61
-3.19
-4.65
-5.98
-7.23
-8.41
-9.57
-10.75
-12.02
-13.42
-14.90
-16.20
-16.89
-16.55
-14.87
-11.90
-8.03
-3.90
-0.18
2.70
4.57
5.56
5.93
6.01
6.04
6.20
6.55
7.04
7.53
7.80
7.66
6.97
5.77
4.31
2.99
2.22
2.32
3.34
5.04
6.93
8.38
8.83
7.91
5.62
2.29
-1.51
-5.09
-7.96
-9.92
-11.11
-11.88
-12.56
-13.26
-13.85
-14.03
-13.50
-12.13
-9.97
-7.26
-4.28
-1.31
1.43
3.71
5.37
6.32
6.59
6.31
5.72
5.07
4.59
4.47
4.80
5.55
6.55
7.47
7.92
7.57
6.29
4.22
1.78
-0.50
-2.14
-2.92
-2.94
-2.61
-2.46
-2.96
-4.38
-6.63
-9.37
-12.03
-14.04
-14.93
-14.46
-12.65
-9.78
-6.38
-3.06
-0.33
1.53
2.57
3.09
3.55
4.27
5.36
6.69
7.99
8.98
9.51
9.60
9.36
8.90
8.29
7.52
6.51
5.22
3.68
2.01
0.40
-0.93
-1.87
-2.47
-2.92
-3.53
-4.60
-6.26
-8.47
-10.98
-13.38
-15.20
-16.00
-15.49
-13.60
-10.52
-6.67
-2.66
0.96
3.75
5.56
6.47
6.75
6.76
6.83
7.20
7.90
8.81
9.70
10.32
10.54
10.41
10.09
9.79
9.60
9.45
9.19
8.63
7.77
6.71
5.62
4.58
3.54
2.31
0.70
-1.34
-3.74
-6.24
-8.57
-10.55
-12.03
-12.95
-13.17
-12.54
-10.90
-8.25
-4.79
-0.96
2.70
5.75
7.99
9.48
10.44
11.11
11.59
11.76
11.39
10.29
8.50
6.31
4.22
2.78
2.35
3.01
4.48
6.31
7.92
8.84
8.76
7.60
5.55
2.96
0.32
-1.97
-3.68
-4.82
-5.59
-6.25
-6.98
-7.78
-8.58
-9.37
-10.28
-11.52
-13.23
-15.21
-16.93
-17.63
-16.67
-13.83
-9.46
-4.38
0.47
4.32
6.84
8.09
8.42
8.23
7.84
7.45
7.18
7.08
7.17
7.45
7.86
8.33
8.78
9.11
9.26
9.15
8.73
8.02
7.06
5.94
4.69
3.34
1.89
0.41
-0.98
-2.14
-3.01
-3.68
-4.38
-5.41
-6.97
-9.07
-11.47
-13.76
-15.43
-16.05
-15.36
-13.33
-10.19
-6.40
-2.54
0.85
3.47
5.26
6.43
7.26
7.98
8.69
9.33
9.80
10.00
9.99
9.84
9.67
9.50
9.20
8.61
7.58
6.14
4.51
3.06
2.14
1.89
2.15
2.49
2.39
1.48
-0.28
-2.59
-4.94
-6.86
-8.07
-8.58
-8.66
-8.68
-8.97
-9.76
-11.13
-12.99
-15.05
-16.83
-17.76
-17.35
-15.34
-11.87
-7.45
-2.84
1.24
4.27
6.08
6.82
6.86
6.63
6.47
6.54
6.82
7.19
7.48
7.62
7.60
7.48
7.35
7.23
7.05
6.75
6.25
5.50
4.49
3.21
1.68
-0.06
-1.92
-3.77
-5.50
-7.05
-8.49
-9.93
-11.47
-13.11
-14.63
-15.69
-15.90
-14.99
-12.94
-9.96
-6.44
-2.81
0.52
3.26
5.24
6.40
6.79
6.59
6.04
5.44
5.01
4.87
4.97
5.20
5.43
5.59
5.65
5.59
5.36
4.88
4.11
3.06
1.87
0.67
-0.47
-1.59
-2.81
-4.30
-6.12
-8.24
-10.49
-12.60
-14.23
-15.03
-14.69
-13.01
-10.09
-6.25
-2.08
1.78
4.81
6.75
7.64
7.73
7.38
6.91
6.53
6.31
6.27
6.37
6.55
6.79
7.00
7.06
6.85
6.24
5.22
3.94
2.62
1.52
0.76
0.33
0.04
-0.34
-1.04
-2.21
-3.89
-6.02
-8.38
-10.61
-12.24
-12.85
-12.15
-10.19
-7.31
-4.04
-0.89
1.76
3.80
5.29
6.41
7.34
8.18
8.93
9.55
10.00
10.24
10.21
9.89
9.26
8.33
7.14
5.79
4.46
3.31
2.49
2.03
1.81
1.61
1.13
0.15
-1.41
-3.50
-5.93
-8.48
-10.96
-13.19
-15.03
-16.32
-16.86
-16.48
-15.09
-12.77
-9.78
-6.51
-3.31
-0.43
2.01
4.05
5.78
7.31
8.68
9.90
10.86
11.42
11.37
10.54
8.89
6.59
4.03
1.76
0.31
0.07
1.07
2.96
5.10
6.71
7.10
5.88
3.11
-0.74
-4.92
-8.61
-11.20
-12.44
-12.45
-11.65
-10.57
-9.67
-9.25
-9.34
-9.70
-9.79
-8.90
-6.43
-2.12
3.78
10.47
16.94
22.24
25.89
27.85
28.45
28.08
27.05
25.53
23.68
21.72
19.92
18.55
17.65
17.06
16.47
15.57
14.20
12.39
10.27
8.04
5.89
3.95
2.28
0.85
-0.43
-1.73
-3.19
-4.87
-6.68
-8.44
-9.98
-11.17
-12.05
-12.79
-13.63
-14.79
-16.42
-18.52
-20.92
-23.31
-25.20
-26.08
-25.57
-23.53
-20.18
-16.05
-11.86
-8.25
-5.64
-4.07
-3.25
-2.75
-2.19
-1.36
-0.29
0.85
1.87
2.67
3.22
3.53
3.60
3.40
2.96
2.40
1.92
1.69
1.71
1.79
1.60
0.86
-0.47
-2.21
-3.96
-5.38
-6.29
-6.78
-7.13
-7.68
-8.67
-10.10
-11.71
-13.01
-13.46
-12.67
-10.56
-7.37
-3.65
0.01
3.10
5.35
6.73
7.37
7.43
7.05
6.36
5.48
4.61
4.03
3.98
4.59
5.81
7.36
8.80
9.68
9.64
8.59
6.68
4.26
1.77
-0.42
-2.13
-3.39
-4.40
-5.39
-6.59
-8.07
-9.77
-11.54
-13.14
-14.25
-14.54
-13.70
-11.55
-8.11
-3.76
0.89
5.12
8.34
10.29
11.13
11.33
11.45
11.97
13.07
14.68
16.47
18.10
19.23
19.63
19.18
17.81
15.62
12.85
9.94
7.39
5.59
4.63
4.25
3.95
3.21
1.80
-0.20
-2.42
-4.48
-6.20
-7.75
-9.46
-11.69
-14.54
-17.72
-20.57
-22.35
-22.40
-20.44
-16.62
-11.49
-5.81
-0.36
4.21
7.51
9.45
10.17
10.01
9.37
8.64
8.08
7.84
7.91
8.17
8.50
8.74
8.83
8.70
8.35
7.80
7.12
6.40
5.76
5.31
5.11
5.17
5.36
5.42
5.06
4.03
2.22
-0.19
-2.88
-5.46
-7.58
-9.17
-10.35
-11.40
-12.57
-13.93
-15.32
-16.34
-16.58
-15.74
-13.79
-10.95
-7.67
-4.37
-1.43
0.97
2.78
4.03
4.78
5.10
5.03
4.62
3.91
2.98
1.92
0.88
0.07
-0.29
-0.01
0.88
2.17
3.46
4.30
4.39
3.68
2.34
0.64
-1.15
-2.88
-4.45
-5.76
-6.67
-7.04
-6.86
-6.37
-5.98
-6.20
-7.38
-9.52
-12.19
-14.67
-16.16
-16.04
-14.11
-10.60
-6.09
-1.36
2.87
6.14
8.24
9.26
9.46
9.14
8.64
8.22
8.07
8.26
8.73
9.31
9.79
9.96
9.74
9.12
8.22
7.22
6.28
5.50
4.94
4.53
4.10
3.48
2.48
1.03
-0.78
-2.68
-4.41
-5.76
-6.71
-7.51
-8.51
-10.05
-12.20
-14.71
-16.99
-18.32
-18.11
-16.11
-12.55
-8.06
-3.47
0.45
3.25
4.87
5.54
5.69
5.68
5.75
5.97
6.25
6.44
6.40
6.06
5.48
4.84
4.36
4.16
4.23
4.34
4.17
3.44
2.03
0.06
-2.24
-4.50
-6.41
-7.77
-8.55
-8.92
-9.23
-9.87
-11.08
-12.76
-14.46
-15.47
-15.13
-13.19
-9.89
-5.91
-2.02
1.23
3.71
5.65
7.46
9.51
11.94
14.63
17.23
19.26
20.24
19.80
17.83
14.58
10.62
6.74
3.69
1.91
1.47
2.06
3.25
4.62
5.87
6.83
7.37
7.32
6.40
4.37
1.13
-3.16
-7.98
-12.56
-16.03
-17.71
-17.30
-14.97
-11.34
-7.24
-3.45
-0.49
1.47
2.56
3.13
3.54
4.08
4.94
6.15
7.59
9.04
10.22
10.89
10.93
10.37
9.39
8.20
7.02
5.93
4.93
3.95
2.90
1.75
0.47
-0.94
-2.46
-4.08
-5.80
-7.61
-9.52
-11.52
-13.56
-15.53
-17.14
-18.04
-17.87
-16.35
-13.47
-9.47
-4.81
-0.09
4.14
7.43
9.52
10.40
10.29
9.57
8.69
8.00
7.72
7.82
8.13
8.42
8.54
8.45
8.19
7.86
7.49
7.10
6.68
6.22
5.73
5.19
4.53
3.62
2.32
0.57
-1.50
-3.65
-5.55
-6.98
-7.85
-8.34
-8.78
-9.54
-10.87
-12.80
-15.05
-17.07
-18.20
-17.87
-15.82
-12.25
-7.73
-3.05
1.02
4.02
5.80
6.58
6.72
6.60
6.55
6.75
7.24
7.96
8.81
9.62
10.27
10.62
10.62
10.27
9.64
8.85
8.00
7.19
6.42
5.59
4.57
3.24
1.59
-0.25
-2.06
-3.62
-4.84
-5.76
-6.54
-7.38
-8.50
-10.01
-11.90
-13.97
-15.80
-16.87
-16.65
-14.88
-11.67
-7.52
-3.14
0.73
3.61
5.34
6.07
6.12
5.88
5.68
5.73
6.09
6.66
7.28
7.75
7.96
7.87
7.53
7.05
6.49
5.88
5.22
4.49
3.67
2.78
1.79
0.72
-0.40
-1.50
-2.50
-3.30
-3.91
-4.41
-5.02
-6.00
-7.52
-9.51
-11.58
-13.08
-13.30
-11.81
-8.64
-4.32
0.28
4.25
6.97
8.19
8.10
7.11
5.72
4.38
3.40
2.92
2.96
3.40
4.10
4.90
5.63
6.10
6.16
5.75
4.97
4.04
3.19
2.50
1.82
0.82
-0.85
-3.27
-6.22
-9.20
-11.74
-13.60
-14.90
-15.92
-16.89
-17.69
-17.94
-17.13
-14.91
-11.39
-7.08
-2.76
0.85
3.37
4.84
5.62
6.16
6.77
7.45
8.03
8.26
8.03
7.44
6.75
6.30
6.28
6.65
7.09
7.19
6.57
5.13
3.09
0.89
-0.96
-2.15
-2.67
-2.80
-2.98
-3.60
-4.89
-6.81
-9.16
-11.59
-13.71
-15.03
-15.13
-13.74
-10.86
-6.85
-2.35
1.90
5.33
7.68
9.05
9.78
10.25
10.78
11.47
12.26
12.93
13.24
13.00
12.14
10.78
9.21
7.77
6.76
6.27
6.18
6.21
6.02
5.39
4.27
2.78
1.08
-0.63
-2.24
-3.69
-5.00
-6.34
-7.95
-10.14
-13.03
-16.44
-19.71
-21.90
-22.09
-19.78
-15.19
-9.21
-3.10
1.99
5.38
7.02
7.40
7.22
7.14
7.55
8.54
9.90
11.26
12.30
12.79
12.75
12.34
11.79
11.31
10.99
10.86
10.88
10.93
10.84
10.37
9.25
7.31
4.62
1.52
-1.48
-3.87
-5.40
-6.12
-6.32
-6.37
-6.51
-6.84
-7.40
-8.25
-9.58
-11.60
-14.40
-17.73
-20.97
-23.25
-23.73
-21.91
-17.85
-12.14
-5.68
0.57
5.84
9.65
11.83
12.50
11.98
10.74
9.31
8.13
7.45
7.31
7.53
7.83
7.96
7.80
7.33
6.66
5.88
5.08
4.32
3.61
2.92
2.20
1.35
0.29
-1.03
-2.62
-4.38
-6.14
-7.71
-8.94
-9.82
-10.53
-11.37
-12.60
-14.32
-16.29
-18.00
-18.78
-18.10
-15.75
-11.96
-7.34
-2.65
1.39
4.33
6.06
6.78
6.88
6.80
6.93
7.51
8.68
10.44
12.66
15.06
17.23
18.81
19.55
19.53
19.06
18.56
18.31
18.25
18.00
17.09
15.18
12.28
8.73
5.01
1.46
-1.83
-5.01
-8.28
-11.76
-15.38
-18.96
-22.32
-25.34
-27.93
-29.97
-31.20
-31.25
-29.79
-26.67
-22.14
-16.82
-11.59
-7.33
-4.64
-3.70
-4.19
-5.49
-6.82
-7.42
-6.73
-4.44
-0.49
4.83
10.88
16.64
20.99
22.96
22.22
19.19
15.04
11.22
8.96
8.80
10.48
13.15
15.79
17.65
18.48
18.46
17.98
17.30
16.42
15.02
12.70
9.23
4.80
0.04
-4.16
-6.96
-7.90
-7.08
-5.00
-2.41
0.06
1.97
3.17
3.70
3.66
3.13
2.22
1.04
-0.18
-1.14
-1.48
-0.94
0.50
2.60
4.82
6.56
7.29
6.74
4.95
2.24
-0.96
-4.18
-7.02
-9.21
-10.63
-11.32
-11.53
-11.67
-12.17
-13.31
-15.05
-16.97
-18.38
-18.64
-17.36
-14.60
-10.79
-6.58
-2.61
0.70
3.13
4.70
5.48
5.66
5.43
5.02
4.63
4.40
4.36
4.45
4.58
4.64
4.55
4.22
3.60
2.67
1.49
0.21
-0.98
-1.92
-2.55
-2.97
-3.39
-4.06
-5.23
-7.09
-9.60
-12.52
-15.28
-17.21
-17.62
-16.18
-13.01
-8.69
-4.06
0.08
3.21
5.22
6.32
6.84
7.14
7.43
7.80
8.24
8.66
8.91
8.91
8.59
7.98
7.20
6.38
5.66
5.08
4.62
4.18
3.65
2.92
1.96
0.80
-0.48
-1.80
-3.10
-4.37
-5.68
-7.09
-8.70
-10.57
-12.67
-14.88
-16.86
-18.11
-18.06
-16.29
-12.76
-7.90
-2.57
2.28
5.93
8.13
9.11
9.43
9.70
10.29
11.23
12.30
13.13
13.49
13.32
12.77
12.10
11.52
11.03
10.53
9.84
8.91
7.86
6.93
6.32
6.05
5.93
5.66
4.99
3.83
2.26
0.47
-1.39
-3.21
-4.93
-6.47
-7.72
-8.60
-9.13
-9.50
-10.05
-11.17
-13.07
-15.70
-18.66
-21.27
-22.75
-22.52
-20.33
-16.42
-11.42
-6.16
-1.39
2.37
4.93
6.37
6.96
7.03
6.88
6.75
6.80
7.06
7.44
7.83
8.09
8.13
7.92
7.42
6.66
5.67
4.56
3.49
2.62
2.01
1.56
1.06
0.30
-0.82
-2.22
-3.72
-5.05
-6.04
-6.65
-6.97
-7.22
-7.64
-8.46
-9.80
-11.67
-13.87
-16.00
-17.56
-18.09
-17.24
-14.94
-11.30
-6.63
-1.37
3.83
8.11
10.36
9.48
4.71
-4.00
-15.69
-28.45
-39.89
-47.72
-50.50
-48.08
-41.47
-32.51
-23.17
-14.97
-8.54
-3.78
-0.14
2.89
5.49
7.52
8.58
8.36
6.89
4.59
2.27
0.76
0.68
2.09
4.49
6.61
6.50
2.04
-8.35
-24.87
-45.92
-67.89
-85.91
-94.73
-90.73
-73.41
-45.79
-13.49
17.31
41.83
58.11
66.72
70.25
71.04
69.97
66.67
60.66
52.47
43.45
35.40
29.08
24.92
22.28
20.03
17.48
15.01
14.19
16.58
23.59
35.47
52.88
75.49
101.53
127.96
151.43
169.47
180.69
185.55
176.09
148.50
105.50
56.03
10.04
-26.38
-49.44
-62.43
-68.48
-70.34
-69.01
-65.33
-61.08
-58.01
-57.34
-59.21
-63.27
-68.29
-73.26
-76.27
-75.81
-71.32
-63.38
-53.43
-43.13
-34.20
-27.41
-22.98
-20.00
-17.39
-14.56
-11.61
-8.97
-6.85
-5.16
-3.30
-0.82
2.47
6.07
8.90
9.74
7.88
3.46
-2.64
-9.00
-14.33
-17.69
-18.72
-17.57
-14.75
-10.91
-6.71
-2.78
0.41
2.57
3.64
3.82
3.50
3.16
3.16
3.67
4.58
5.59
6.30
6.41
5.90
5.02
4.24
3.98
4.50
5.68
7.12
8.33
8.89
8.66
7.74
6.33
4.64
2.77
0.72
-1.49
-3.76
-5.90
-7.67
-8.91
-9.59
-9.83
-9.81
-9.65
-9.44
-9.15
-8.77
-8.29
-7.68
-6.86
-5.68
-3.98
-1.72
0.91
3.47
5.44
6.38
6.21
5.21
3.90
2.87
2.49
2.84
3.71
4.80
5.84
6.71
7.42
8.05
8.66
9.28
9.86
10.36
10.73
10.95
10.94
10.57
9.67
8.09
5.86
3.16
0.41
-1.88
-3.24
-3.41
-2.40
-0.55
1.59
3.47
4.68
5.07
4.81
4.22
3.65
3.25
2.90
2.39
1.57
0.51
-0.48
-1.00
-0.80
0.07
1.31
2.47
3.26
3.58
3.57
3.41
3.22
2.96
2.48
1.65
0.39
-1.29
-3.33
-5.57
-7.82
-9.78
-11.17
-11.75
-11.45
-10.40
-8.85
-7.12
-5.41
-3.82
-2.36
-1.01
0.15
0.99
1.42
1.44
1.22
0.98
0.91
1.06
1.39
1.75
1.98
2.00
1.78
1.37
0.81
0.21
-0.37
-0.85
-1.19
-1.47
-1.78
-2.25
-2.96
-3.91
-5.01
-6.10
-7.00
-7.53
-7.55
-6.97
-5.76
-3.99
-1.78
0.66
3.04
5.05
6.39
6.91
6.64
5.82
4.82
4.01
3.60
3.57
3.68
3.61
3.11
2.13
0.82
-0.53
-1.63
-2.31
-2.54
-2.41
-2.13
-1.93
-2.09
-2.81
-4.20
-6.23
-8.71
-11.31
-13.64
-15.35
-16.14
-15.88
-14.58
-12.44
-9.73
-6.81
-4.01
-1.63
0.18
1.37
2.06
2.45
2.79
3.29
4.03
4.96
5.91
6.71
7.22
7.44
7.43
7.27
6.99
6.57
5.95
5.11
4.10
3.03
2.02
1.18
0.57
0.15
-0.21
-0.67
-1.43
-2.60
-4.18
-6.03
-7.89
-9.40
-10.23
-10.12
-8.99
-6.93
-4.20
-1.18
1.73
4.21
6.05
7.17
7.62
7.58
7.30
7.08
7.14
7.59
8.33
9.14
9.70
9.79
9.33
8.42
7.28
6.16
5.22
4.53
4.09
3.78
3.50
3.10
2.46
1.51
0.25
-1.19
-2.67
-4.00
-5.10
-5.98
-6.79
-7.73
-8.95
-10.44
-12.03
-13.37
-14.06
-13.78
-12.40
-10.07
-7.17
-4.19
-1.61
0.28
1.44
2.04
2.36
2.66
3.09
3.66
4.24
4.69
4.93
4.96
4.86
4.75
4.69
4.67
4.61
4.42
4.06
3.58
3.08
2.62
2.21
1.76
1.17
0.38
-0.55
-1.49
-2.31
-2.95
-3.44
-3.95
-4.64
-5.61
-6.84
-8.15
-9.28
-9.94
-9.93
-9.19
-7.83
-6.09
-4.23
-2.47
-0.93
0.40
1.53
2.48
3.24
3.77
4.06
4.16
4.16
4.17
4.26
4.47
4.80
5.25
5.81
6.38
6.81
6.80
6.12
4.67
2.67
0.61
-0.93
-1.55
-1.30
-0.60
-0.08
-0.27
-1.32
-2.99
-4.80
-6.29
-7.21
-7.49
-7.20
-6.36
-4.95
-2.95
-0.46
2.25
4.79
6.78
7.97
8.35
8.08
7.46
6.75
6.16
5.73
5.42
5.13
4.77
4.28
3.71
3.13
2.60
2.17
1.77
1.31
0.70
-0.10
-1.05
-2.09
-3.20
-4.40
-5.73
-7.24
-8.86
-10.44
-11.78
-12.72
-13.18
-13.18
-12.80
-12.10
-11.10
-9.80
-8.25
-6.59
-5.01
-3.67
-2.61
-1.71
-0.78
0.33
1.63
2.97
4.14
4.97
5.41
5.57
5.67
5.87
6.22
6.66
7.06
7.30
7.32
7.04
6.44
5.45
4.06
2.37
0.60
-0.98
-2.18
-3.03
-3.72
-4.49
-5.44
-6.43
-7.07
-6.96
-5.84
-3.79
-1.20
1.40
3.52
4.86
5.35
5.18
4.66
4.12
3.81
3.79
3.97
4.17
4.26
4.21
4.09
4.01
4.05
4.12
4.08
3.76
3.07
2.11
1.05
0.09
-0.64
-1.17
-1.65
-2.29
-3.25
-4.61
-6.33
-8.20
-9.95
-11.19
-11.58
-10.93
-9.26
-6.87
-4.20
-1.72
0.30
1.80
2.96
4.00
5.09
6.26
7.38
8.24
8.67
8.63
8.20
7.55
6.86
6.27
5.79
5.37
4.90
4.30
3.58
2.83
2.15
1.61
1.18
0.73
0.08
-0.91
-2.33
-4.17
-6.29
-8.43
-10.23
-11.33
-11.44
-10.47
-8.59
-6.17
-3.65
-1.40
0.43
1.88
3.07
4.10
4.97
5.62
5.96
5.96
5.68
5.25
4.81
4.47
4.30
4.28
4.33
4.31
4.11
3.62
2.85
1.88
0.88
0.02
-0.60
-1.04
-1.50
-2.20
-3.35
-4.98
-6.97
-9.11
-11.15
-12.93
-14.37
-15.39
-15.83
-15.42
-13.84
-10.91
-6.75
-1.85
3.03
7.17
10.10
11.78
12.49
12.67
12.73
12.86
13.07
13.25
13.28
12.98
12.08
10.25
7.25
3.12
-1.62
-5.97
-8.75
-9.06
-6.74
-2.57
1.96
5.18
5.95
4.06
0.29
-4.00
-7.46
-9.33
-9.63
-8.94
-8.07
-7.57
-7.58
-7.97
-8.52
-9.17
-10.01
-11.04
-12.07
-12.59
-12.02
-9.99
-6.58
-2.42
1.57
4.56
6.10
6.29
5.62
4.72
4.12
4.05
4.50
5.32
6.35
7.45
8.51
9.39
9.96
10.09
9.79
9.26
8.77
8.60
8.84
9.34
9.74
9.62
8.63
6.66
3.91
0.81
-2.00
-3.96
-4.71
-4.34
-3.41
-2.80
-3.38
-5.60
-9.25
-13.52
-17.26
-19.44
-19.49
-17.51
-14.09
-10.07
-6.24
-3.08
-0.74
0.87
1.97
2.78
3.40
3.91
4.37
4.86
5.51
6.42
7.53
8.57
9.17
8.95
7.75
5.73
3.33
1.06
-0.67
-1.72
-2.20
-2.38
-2.50
-2.67
-2.88
-3.04
-3.16
-3.35
-3.87
-4.94
-6.55
-8.32
-9.56
-9.48
-7.57
-3.85
1.01
5.96
9.94
12.32
13.04
12.52
11.36
10.06
8.86
7.80
6.84
6.07
5.60
5.56
5.93
6.52
6.98
6.98
6.29
4.94
3.14
1.26
-0.28
-1.21
-1.49
-1.31
-1.10
-1.31
-2.27
-4.00
-6.14
-8.10
-9.27
-9.25
-8.04
-5.99
-3.65
-1.52
0.09
1.15
1.83
2.33
2.80
3.28
3.73
4.07
4.29
4.41
4.48
4.55
4.57
4.49
4.22
3.77
3.19
2.60
2.08
1.63
1.18
0.65
-0.03
-0.84
-1.72
-2.63
-3.58
-4.71
-6.17
-8.05
-10.27
-12.52
-14.34
-15.22
-14.84
-13.14
-10.36
-7.03
-3.71
-0.90
1.14
2.41
3.12
3.58
4.04
4.63
5.36
6.11
6.77
7.22
7.44
7.42
7.19
6.78
6.23
5.60
4.99
4.48
4.13
3.89
3.62
3.18
2.45
1.41
0.12
-1.31
-2.73
-4.05
-5.20
-6.16
-6.99
-7.81
-8.72
-9.86
-11.24
-12.78
-14.31
-15.57
-16.29
-16.22
-15.16
-13.06
-10.06
-6.52
-2.92
0.23
2.60
4.17
5.16
5.90
6.67
7.52
8.35
8.96
9.23
9.22
9.14
9.16
9.34
9.57
9.64
9.33
8.55
7.37
6.01
4.69
3.58
2.71
1.98
1.24
0.38
-0.62
-1.68
-2.65
-3.38
-3.88
-4.31
-4.92
-5.93
-7.42
-9.17
-10.75
-11.56
-11.16
-9.37
-6.43
-2.90
0.53
3.32
5.13
5.95
5.94
5.39
4.61
3.90
3.54
3.70
4.38
5.35
6.20
6.53
6.11
5.01
3.59
2.30
1.49
1.20
1.26
1.31
1.08
0.47
-0.45
-1.51
-2.53
-3.50
-4.52
-5.73
-7.20
-8.87
-10.50
-11.76
-12.38
-12.18
-11.18
-9.56
-7.54
-5.29
-2.96
-0.62
1.60
3.53
4.94
5.63
5.57
4.92
4.00
3.18
2.74
2.76
3.17
3.77
4.32
4.61
4.54
4.07
3.29
2.31
1.30
0.36
-0.47
-1.21
-1.96
-2.83
-3.90
-5.23
-6.83
-8.65
-10.56
-12.34
-13.67
-14.22
-13.72
-12.08
-9.46
-6.26
-2.99
-0.13
2.04
3.49
4.40
4.97
5.38
5.68
5.84
5.86
5.77
5.69
5.70
5.80
5.92
5.91
5.70
5.27
4.72
4.17
3.75
3.49
3.35
3.26
3.06
2.58
1.61
0.02
-2.12
-4.56
-6.84
-8.53
-9.38
-9.46
-9.07
-8.59
-8.25
-7.99
-7.53
-6.57
-4.98
-2.92
-0.71
1.29
2.92
4.15
5.13
5.96
6.68
7.24
7.59
7.70
7.66
7.57
7.51
7.49
7.43
7.25
6.93
6.52
6.09
5.69
5.27
4.76
4.06
3.15
2.07
0.93
-0.17
-1.18
-2.10
-2.98
-3.85
-4.79
-5.85
-7.08
-8.47
-9.91
-11.18
-12.02
-12.15
-11.46
-9.99
-7.93
-5.57
-3.21
-1.07
0.74
2.23
3.47
4.58
5.65
6.71
7.68
8.43
8.85
8.88
8.57
8.05
7.50
7.04
6.74
6.60
6.55
6.51
6.40
6.13
5.66
4.94
4.00
2.90
1.74
0.65
-0.33
-1.16
-1.85
-2.47
-3.09
-3.83
-4.81
-6.09
-7.65
-9.33
-10.87
-11.94
-12.25
-11.61
-10.03
-7.66
-4.84
-2.02
0.41
2.14
3.13
3.52
3.64
3.78
4.12
4.67
5.32
5.90
6.30
6.49
6.50
6.37
6.13
5.80
5.44
5.09
4.79
4.52
4.20
3.73
3.04
2.11
0.97
-0.29
-1.50
-2.53
-3.30
-3.82
-4.24
-4.78
-5.65
-6.92
-8.47
-9.92
-10.82
-10.74
-9.50
-7.23
-4.35
-1.44
0.95
2.52
3.24
3.36
3.26
3.24
3.47
3.87
4.31
4.62
4.73
4.70
4.61
4.56
4.57
4.58
4.47
4.15
3.56
2.73
1.78
0.85
0.07
-0.53
-1.00
-1.47
-2.08
-2.93
-4.06
-5.42
-6.89
-8.32
-9.49
-10.20
-10.25
-9.53
-8.02
-5.90
-3.46
-1.04
1.07
2.70
3.86
4.69
5.36
5.98
6.59
7.12
7.49
7.66
7.63
7.48
7.27
7.04
6.81
6.52
6.15
5.71
5.26
4.87
4.62
4.51
4.48
4.41
4.18
3.73
3.07
2.31
1.59
1.00
0.53
0.04
-0.67
-1.78
-3.36
-5.27
-7.20
-8.80
-9.77
-9.99
-9.50
-8.44
-6.98
-5.25
-3.42
-1.61
0.00
1.30
2.24
2.91
3.45
3.98
4.55
5.13
5.66
6.08
6.38
6.54
6.54
6.26
5.60
4.51
3.13
1.72
0.63
0.09
0.10
0.36
0.45
0.02
-1.03
-2.48
-3.89
-4.89
-5.34
-5.38
-5.33
-5.48
-5.97
-6.78
-7.78
-8.87
-9.96
-10.97
-11.72
-11.99
-11.47
-9.97
-7.47
-4.22
-0.71
2.45
4.76
5.92
6.05
5.55
4.99
4.82
5.21
6.00
6.84
7.44
7.68
7.66
7.57
7.57
7.64
7.66
7.49
7.05
6.36
5.52
4.61
3.69
2.74
1.77
0.75
-0.29
-1.30
-2.21
-2.96
-3.52
-3.94
-4.35
-4.88
-5.66
-6.75
-8.09
-9.55
-10.96
-12.13
-12.83
-12.88
-12.14
-10.62
-8.47
-5.96
-3.44
-1.18
0.64
1.97
2.85
3.36
3.59
3.61
3.50
3.36
3.28
3.35
3.59
3.98
4.41
4.76
4.90
4.76
4.36
3.79
3.21
2.73
2.37
2.05
1.61
0.96
0.08
-0.94
-1.93
-2.81
-3.58
-4.38
-5.40
-6.73
-8.27
-9.70
-10.59
-10.56
-9.42
-7.30
-4.56
-1.66
0.93
2.90
4.13
4.69
4.75
4.59
4.44
4.45
4.62
4.83
4.89
4.67
4.19
3.58
3.05
2.80
2.85
3.08
3.26
3.21
2.82
2.14
1.30
0.45
-0.33
-1.09
-1.94
-2.97
-4.22
-5.62
-7.07
-8.47
-9.75
-10.88
-11.78
-12.26
-12.07
-11.00
-9.02
-6.37
-3.47
-0.80
1.31
2.77
3.72
4.37
4.94
5.51
6.02
6.38
6.52
6.43
6.20
5.95
5.77
5.69
5.64
5.55
5.34
5.01
4.64
4.29
4.02
3.77
3.40
2.74
1.70
0.35
-1.15
-2.55
-3.67
-4.47
-5.00
-5.47
-6.08
-6.99
-8.26
-9.81
-11.45
-12.87
-13.72
-13.68
-12.56
-10.43
-7.57
-4.46
-1.62
0.59
2.00
2.73
3.01
3.18
3.45
3.95
4.62
5.34
5.95
6.38
6.61
6.71
6.76
6.82
6.91
7.03
7.16
7.31
7.48
7.62
7.69
7.59
7.25
6.63
5.76
4.71
3.58
2.43
1.32
0.21
-0.91
-2.07
-3.26
-4.47
-5.68
-6.95
-8.32
-9.74
-11.08
-12.06
-12.38
-11.85
-10.44
-8.33
-5.83
-3.26
-0.87
1.16
2.75
3.84
4.49
4.83
5.05
5.37
5.85
6.45
6.97
7.24
7.19
6.88
6.49
6.18
6.03
5.96
5.86
5.63
5.28
4.91
4.60
4.35
4.03
3.47
2.56
1.33
-0.06
-1.37
-2.39
-3.04
-3.35
-3.44
-3.49
-3.68
-4.19
-5.16
-6.65
-8.54
-10.54
-12.18
-13.02
-12.74
-11.31
-8.98
-6.19
-3.39
-0.97
0.89
2.16
2.93
3.34
3.56
3.75
4.02
4.41
4.90
5.37
5.68
5.71
5.45
4.97
4.43
4.02
3.85
3.90
4.01
3.96
3.54
2.65
1.36
-0.11
-1.48
-2.54
-3.24
-3.68
-4.07
-4.62
-5.45
-6.56
-7.80
-8.95
-9.76
-9.97
-9.43
-8.07
-6.00
-3.46
-0.84
1.46
3.11
4.00
4.21
4.04
3.82
3.83
4.17
4.80
5.51
6.10
6.42
6.42
6.15
5.73
5.27
4.84
4.46
4.08
3.66
3.15
2.56
1.90
1.20
0.46
-0.38
-1.39
-2.63
-4.09
-5.69
-7.26
-8.62
-9.57
-9.97
-9.72
-8.83
-7.35
-5.43
-3.24
-0.97
1.19
3.09
4.62
5.71
6.39
6.73
6.87
6.96
7.11
7.30
7.44
7.39
7.07
6.50
5.80
5.13
4.59
4.23
4.05
4.01
4.08
4.16
4.11
3.75
2.97
1.80
0.42
-0.88
-1.90
-2.61
-3.20
-3.97
-5.14
-6.69
-8.33
-9.60
-9.97
-8.98
-6.40
-2.39
2.51
7.37
11.20
13.23
13.29
11.83
9.68
7.68
6.25
5.40
4.81
4.23
3.61
3.12
2.94
3.07
3.30
3.36
3.13
2.70
2.26
1.97
1.80
1.58
1.11
0.31
-0.74
-1.86
-2.91
-3.83
-4.65
-5.45
-6.26
-7.08
-7.93
-8.90
-10.12
-11.67
-13.43
-15.08
-16.10
-16.03
-14.60
-11.98
-8.65
-5.34
-2.68
-1.00
-0.21
0.11
0.52
1.43
2.95
4.85
6.70
8.13
8.94
9.17
9.03
8.72
8.35
7.96
7.54
7.12
6.78
6.59
6.56
6.63
6.62
6.38
5.77
4.78
3.47
2.02
0.58
-0.70
-1.77
-2.65
-3.44
-4.25
-5.13
-6.10
-7.16
-8.35
-9.73
-11.31
-13.04
-14.68
-15.85
-16.15
-15.30
-13.31
-10.48
-7.27
-4.21
-1.61
0.39
1.91
3.11
4.14
5.03
5.73
6.16
6.34
6.33
6.25
6.21
6.27
6.41
6.57
6.67
6.65
6.51
6.26
5.94
5.64
5.39
5.20
5.04
4.79
4.33
3.56
2.47
1.14
-0.28
-1.66
-2.89
-3.97
-4.93
-5.82
-6.70
-7.64
-8.74
-10.09
-11.72
-13.47
-15.02
-15.94
-15.82
-14.50
-12.08
-8.96
-5.62
-2.51
0.07
2.03
3.37
4.21
4.68
4.91
5.04
5.21
5.51
5.97
6.58
7.21
7.71
7.91
7.73
7.19
6.44
5.75
5.37
5.47
6.03
6.81
7.42
7.48
6.68
4.93
2.41
-0.42
-2.93
-4.49
-4.75
-3.81
-2.25
-0.93
-0.66
-1.84
-4.33
-7.57
-10.89
-13.85
-16.43
-18.91
-21.56
-24.37
-26.90
-28.39
-28.09
-25.64
-21.15
-15.33
-9.22
-3.84
0.06
2.17
2.68
2.17
1.50
1.55
2.98
6.04
10.30
14.79
18.26
19.72
18.87
16.21
12.80
9.77
7.73
6.67
6.08
5.34
4.17
2.73
1.44
0.71
0.58
0.71
0.55
-0.40
-2.26
-4.75
-7.24
-9.00
-9.50
-8.59
-6.51
-3.80
-1.03
1.35
3.16
4.43
5.28
5.85
6.20
6.31
6.15
5.76
5.22
4.71
4.38
4.31
4.48
4.73
4.93
4.93
4.68
4.16
3.40
2.46
1.43
0.47
-0.26
-0.66
-0.80
-0.90
-1.29
-2.20
-3.65
-5.41
-7.14
-8.59
-9.74
-10.76
-11.86
-13.08
-14.16
-14.63
-14.05
-12.23
-9.37
-5.95
-2.49
0.58
3.01
4.53
4.80
3.53
0.76
-2.91
-6.27
-7.93
-6.90
-3.09
2.61
8.79
14.16
18.05
20.55
22.08
22.99
23.20
22.35
20.11
16.61
12.47
8.62
5.90
4.64
4.49
4.60
4.00
2.03
-1.32
-5.44
-9.36
-12.07
-12.97
-11.93
-9.17
-5.09
-0.13
5.21
10.27
14.30
16.69
17.24
16.34
14.77
13.31
12.29
11.47
10.29
8.38
5.84
3.29
1.44
0.66
0.79
1.27
1.53
1.31
0.71
0.04
-0.52
-0.99
-1.58
-2.52
-3.83
-5.33
-6.75
-7.88
-8.74
-9.53
-10.50
-11.79
-13.25
-14.49
-14.98
-14.27
-12.22
-9.03
-5.22
-1.45
1.67
3.78
4.80
4.97
4.69
4.39
4.34
4.64
5.21
5.88
6.50
6.98
7.31
7.49
7.50
7.32
6.95
6.41
5.79
5.21
4.73
4.35
3.98
3.47
2.71
1.63
0.31
-1.12
-2.50
-3.67
-4.61
-5.36
-6.07
-6.95
-8.17
-9.86
-11.99
-14.41
-16.71
-18.39
-18.90
-17.88
-15.28
-11.45
-7.04
-2.83
0.53
2.69
3.64
3.69
3.28
2.87
2.79
3.16
3.91
4.82
5.63
6.10
6.11
5.65
4.83
3.84
2.90
2.19
1.82
1.78
1.97
2.22
2.34
2.25
1.94
1.54
1.19
1.10
1.41
2.19
3.40
4.80
5.96
6.34
5.40
2.88
-1.09
-5.98
-10.96
-15.15
-17.83
-18.61
-17.43
-14.58
-10.58
-6.12
-1.91
1.45
3.61
4.54
4.58
4.23
4.05
4.38
5.25
6.44
7.58
8.36
8.65
8.47
7.96
7.27
6.48
5.62
4.72
3.83
3.03
2.35
1.74
1.05
0.15
-1.03
-2.38
-3.73
-4.86
-5.67
-6.14
-6.38
-6.54
-6.74
-7.11
-7.74
-8.70
-9.93
-11.23
-12.21
-12.36
-11.26
-8.76
-5.09
-0.80
3.38
6.86
9.34
10.88
11.79
12.49
13.23
14.06
14.82
15.23
15.07
14.31
13.08
11.63
10.19
8.91
7.80
6.80
5.81
4.81
3.81
2.85
1.92
0.98
-0.03
-1.15
-2.31
-3.41
-4.31
-5.00
-5.55
-6.14
-6.96
-8.09
-9.53
-11.22
-13.06
-14.97
-16.87
-18.59
-19.84
-20.28
-19.59
-17.70
-14.77
-11.22
-7.58
-4.32
-1.78
-0.07
0.84
1.14
1.08
0.95
1.02
1.48
2.38
3.63
5.00
6.26
7.19
7.69
7.81
7.68
7.50
7.46
7.66
8.07
8.55
8.85
8.77
8.16
7.02
5.48
3.74
1.97
0.27
-1.38
-3.03
-4.73
-6.41
-7.92
-9.01
-9.46
-9.12
-7.99
-6.22
-4.08
-1.88
0.10
1.67
2.72
3.23
3.26
2.94
2.44
1.92
1.53
1.34
1.31
1.32
1.26
1.10
0.90
0.80
0.88
1.10
1.27
1.13
0.55
-0.46
-1.64
-2.71
-3.46
-3.89
-4.19
-4.65
-5.49
-6.78
-8.41
-10.15
-11.68
-12.66
-12.82
-12.00
-10.23
-7.73
-4.87
-2.02
0.49
2.53
4.06
5.15
5.86
6.26
6.39
6.31
6.12
5.92
5.80
5.76
5.75
5.68
5.49
5.17
4.76
4.35
4.01
3.74
3.45
3.00
2.29
1.35
0.30
-0.67
-1.42
-1.94
-2.35
-2.82
-3.46
-4.30
-5.28
-6.32
-7.35
-8.30
-9.10
-9.62
-9.66
-9.05
-7.72
-5.79
-3.55
-1.35
0.53
1.97
3.00
3.75
4.34
4.80
5.17
5.42
5.61
5.77
5.94
6.04
5.98
5.66
5.07
4.31
3.52
2.83
2.27
1.84
1.47
1.16
0.93
0.74
0.47
-0.04
-0.96
-2.32
-4.01
-5.82
-7.57
-9.14
-10.51
-11.66
-12.46
-12.70
-12.15
-10.67
-8.35
-5.49
-2.47
0.33
2.73
4.69
6.34
7.81
9.14
10.30
11.19
11.73
11.94
11.90
11.73
11.50
11.22
10.85
10.33
9.65
8.84
7.97
7.10
6.26
5.39
4.46
3.40
2.21
0.92
-0.39
-1.62
-2.66
-3.44
-3.99
-4.47
-5.12
-6.17
-7.74
-9.73
-11.84
-13.62
-14.58
-14.37
-12.88
-10.28
-6.97
-3.50
-0.38
2.01
3.52
4.27
4.56
4.72
5.02
5.53
6.13
6.64
6.90
6.89
6.70
6.48
6.36
6.30
6.19
5.84
5.12
4.06
2.82
1.64
0.71
0.07
-0.40
-0.94
-1.80
-3.19
-5.15
-7.57
-10.19
-12.63
-14.49
-15.38
-15.08
-13.57
-11.04
-7.87
-4.54
-1.50
0.92
2.59
3.59
4.16
4.59
5.08
5.72
6.47
7.16
7.66
7.84
7.66
7.14
6.36
5.48
4.71
4.25
4.18
4.42
4.74
4.85
4.54
3.72
2.50
1.05
-0.51
-2.07
-3.59
-5.03
-6.33
-7.50
-8.56
-9.62
-10.74
-11.82
-12.60
-12.67
-11.69
-9.57
-6.53
-3.06
0.27
2.97
4.84
5.93
6.45
6.71
6.95
7.30
7.84
8.52
9.28
10.00
10.55
10.83
10.77
10.38
9.75
9.03
8.35
7.83
7.47
7.20
6.88
6.36
5.52
4.31
2.78
1.08
-0.52
-1.81
-2.67
-3.17
-3.53
-4.03
-4.96
-6.43
-8.45
-10.85
-13.38
-15.66
-17.30
-17.88
-17.13
-14.99
-11.74
-7.88
-4.05
-0.82
1.54
3.06
4.04
4.86
5.79
6.89
8.04
9.04
9.71
10.03
10.04
9.85
9.53
9.12
8.62
8.03
7.39
6.75
6.15
5.60
5.07
4.50
3.84
3.06
2.12
1.02
-0.23
-1.59
-3.00
-4.33
-5.49
-6.45
-7.27
-8.14
-9.27
-10.78
-12.59
-14.41
-15.78
-16.27
-15.59
-13.73
-10.91
-7.55
-4.10
-0.95
1.64
3.57
4.91
5.79
6.39
6.83
7.19
7.48
7.66
7.72
7.69
7.61
7.55
7.56
7.63
7.70
7.70
7.50
7.08
6.47
5.76
5.08
4.50
3.96
3.37
2.60
1.59
0.39
-0.89
-2.17
-3.47
-4.88
-6.49
-8.35
-10.34
-12.27
-13.85
-14.82
-14.97
-14.19
-12.53
-10.17
-7.43
-4.68
-2.22
-0.18
1.46
2.82
3.99
4.95
5.64
6.00
6.10
6.08
6.12
6.30
6.60
6.92
7.10
7.08
6.86
6.52
6.15
5.83
5.57
5.34
5.05
4.61
3.94
3.03
1.90
0.65
-0.65
-1.90
-3.04
-4.03
-4.91
-5.74
-6.66
-7.79
-9.18
-10.77
-12.36
-13.66
-14.39
-14.33
-13.38
-11.55
-9.00
-5.96
-2.75
0.23
2.62
4.19
4.90
4.94
4.62
4.28
4.15
4.28
4.55
4.81
4.91
4.82
4.60
4.34
4.13
4.01
3.97
3.96
3.89
3.70
3.33
2.76
2.01
1.09
0.04
-1.13
-2.38
-3.68
-5.00
-6.32
-7.66
-9.00
-10.24
-11.16
-11.45
-10.85
-9.24
-6.77
-3.86
-1.03
1.26
2.79
3.61
3.97
4.15
4.34
4.61
4.86
4.98
4.89
4.65
4.36
4.17
4.14
4.24
4.34
4.29
3.96
3.36
2.53
1.60
0.69
-0.13
-0.86
-1.59
-2.44
-3.58
-5.11
-7.04
-9.26
-11.52
-13.49
-14.82
-15.22
-14.52
-12.72
-10.00
-6.75
-3.45
-0.56
1.60
2.95
3.68
4.13
4.62
5.36
6.30
7.31
8.18
8.75
8.99
8.93
8.62
8.12
7.49
6.79
6.17
5.72
5.49
5.41
5.31
4.99
4.28
3.13
1.64
0.00
-1.55
-2.84
-3.81
-4.58
-5.36
-6.41
-7.86
-9.67
-11.54
-13.03
-13.67
-13.13
-11.37
-8.67
-5.53
-2.55
-0.20
1.35
2.18
2.59
2.94
3.46
4.17
4.97
5.64
6.06
6.21
6.16
6.07
6.04
6.08
6.14
6.11
5.91
5.48
4.85
4.08
3.28
2.54
1.90
1.34
0.77
0.03
-1.04
-2.54
-4.46
-6.64
-8.77
-10.46
-11.34
-11.15
-9.84
-7.60
-4.82
-1.95
0.54
2.33
3.31
3.55
3.33
3.01
2.97
3.48
4.64
6.26
7.96
9.26
9.79
9.41
8.34
7.02
5.96
5.48
5.53
5.72
5.46
4.29
1.97
-1.38
-5.43
-9.66
-13.35
-15.68
-15.84
-13.42
-8.83
-3.41
0.95
2.58
0.81
-3.59
-8.73
-12.50
-13.51
-11.62
-7.81
-3.57
-0.14
1.92
2.75
2.91
2.97
3.26
3.82
4.43
4.85
4.95
4.81
4.73
5.02
5.87
7.22
8.75
10.06
10.86
11.12
11.02
10.76
10.39
9.66
8.20
5.79
2.53
-0.99
-4.02
-5.93
-6.62
-6.56
-6.57
-7.39
-9.26
-11.73
-13.90
-14.81
-13.91
-11.27
-7.52
-3.53
-0.22
1.76
2.06
0.77
-1.51
-3.80
-4.98
-4.16
-1.13
3.53
8.70
13.18
16.18
17.56
17.71
17.24
16.55
15.73
14.58
12.90
10.66
8.07
5.48
3.24
1.55
0.39
-0.44
-1.21
-2.13
-3.22
-4.37
-5.40
-6.18
-6.75
-7.28
-7.91
-8.69
-9.41
-9.73
-9.29
-7.93
-5.76
-3.16
-0.62
1.49
3.04
4.14
4.97
5.68
6.30
6.72
6.79
6.46
5.75
4.82
3.86
3.09
2.64
2.55
2.74
3.03
3.22
3.08
2.55
1.71
0.75
-0.15
-0.87
-1.46
-2.10
-2.98
-4.26
-5.94
-7.89
-9.86
-11.62
-12.93
-13.65
-13.66
-12.92
-11.41
-9.24
-6.63
-3.89
-1.34
0.82
2.51
3.80
4.83
5.65
6.27
6.60
6.58
6.26
5.80
5.45
5.43
5.78
6.38
6.97
7.25
7.02
6.29
5.27
4.22
3.34
2.68
2.07
1.28
0.10
-1.54
-3.57
-5.84
-8.12
-10.16
-11.68
-12.38
-12.00
-10.47
-7.95
-4.86
-1.74
0.94
2.92
4.23
5.12
5.86
6.67
7.55
8.40
9.14
9.78
10.43
11.26
12.30
13.43
14.39
14.95
15.09
14.99
14.99
15.39
16.35
17.88
19.82
21.80
23.25
23.40
21.49
17.10
10.40
2.25
-6.06
-13.24
-18.47
-21.59
-22.93
-23.01
-22.24
-20.80
-18.80
-16.38
-13.82
-11.41
-9.38
-7.76
-6.44
-5.28
-4.18
-3.19
-2.47
-2.19
-2.39
-2.97
-3.67
-4.14
-4.12
-3.55
-2.68
-1.99
-2.01
-3.06
-5.04
-7.42
-9.42
-10.36
-9.95
-8.51
-6.82
-5.71
-5.75
-6.93
-8.70
-10.32
-11.18
-11.08
-10.20
-9.02
-8.14
-8.14
-9.37
-11.80
-14.82
-17.25
-17.62
-14.84
-8.69
-0.17
8.85
16.27
20.64
21.68
20.20
17.58
15.02
13.11
11.77
10.70
9.75
9.15
9.32
10.45
12.22
13.73
13.92
12.10
8.39
3.65
-0.94
-4.42
-6.52
-7.64
-8.56
-9.94
-12.02
-14.51
-16.76
-18.02
-17.77
-15.86
-12.60
-8.67
-4.88
-1.92
-0.11
0.69
1.00
1.48
2.64
4.62
7.19
9.86
12.12
13.61
14.20
13.96
13.14
12.01
10.84
9.81
8.97
8.21
7.34
6.19
4.69
2.96
1.24
-0.24
-1.36
-2.19
-2.94
-3.88
-5.22
-7.03
-9.19
-11.41
-13.31
-14.47
-14.56
-13.46
-11.30
-8.39
-5.18
-2.12
0.42
2.19
3.13
3.31
2.98
2.51
2.29
2.61
3.55
4.95
6.50
7.91
8.99
9.62
9.67
8.97
7.38
5.01
2.33
0.15
-0.78
-0.07
1.93
4.32
5.94
6.00
4.41
1.72
-1.27
-3.96
-6.27
-8.53
-11.13
-14.14
-17.20
-19.61
-20.65
-19.95
-17.62
-14.23
-10.53
-7.19
-4.58
-2.79
-1.62
-0.78
0.00
0.91
2.01
3.24
4.50
5.68
6.65
7.34
7.69
7.63
7.20
6.46
5.59
4.80
4.26
4.01
3.96
3.91
3.66
3.12
2.34
1.44
0.60
-0.09
-0.64
-1.15
-1.67
-2.23
-2.80
-3.39
-4.14
-5.30
-7.10
-9.52
-12.25
-14.67
-16.09
-16.08
-14.61
-12.06
-9.05
-6.12
-3.61
-1.57
0.08
1.46
2.65
3.67
4.48
5.09
5.51
5.76
5.90
6.01
6.15
6.34
6.54
6.71
6.79
6.84
6.96
7.24
7.68
8.12
8.31
8.03
7.22
5.99
4.61
3.32
2.27
1.47
0.85
0.29
-0.33
-1.13
-2.26
-3.85
-5.90
-8.20
-10.35
-11.80
-12.11
-11.10
-8.92
-5.98
-2.79
0.15
2.53
4.18
5.11
5.47
5.48
5.38
5.37
5.54
5.83
6.10
6.24
6.22
6.14
6.14
6.30
6.58
6.81
6.76
6.28
5.33
4.05
2.62
1.24
0.03
-0.99
-1.91
-2.92
-4.19
-5.84
-7.86
-10.05
-12.03
-13.35
-13.63
-12.68
-10.61
-7.77
-4.63
-1.61
1.01
3.11
4.69
5.81
6.51
6.87
6.97
6.90
6.79
6.71
6.73
6.85
7.07
7.36
7.67
7.91
7.96
7.69
7.04
6.00
4.62
2.98
1.16
-0.78
-2.80
-4.81
-6.76
-8.62
-10.39
-12.11
-13.74
-15.15
-16.09
-16.25
-15.43
-13.62
-11.04
-8.13
-5.32
-2.94
-1.15
0.12
1.08
2.00
3.12
4.58
6.33
8.17
9.82
10.95
11.35
10.93
9.83
8.36
6.91
5.81
5.23
5.13
5.28
5.44
5.35
4.92
4.14
3.11
1.96
0.78
-0.37
-1.49
-2.60
-3.78
-5.11
-6.66
-8.37
-10.14
-11.74
-12.96
-13.62
-13.59
-12.83
-11.37
-9.27
-6.72
-3.97
-1.35
0.83
2.40
3.41
4.07
4.71
5.55
6.63
7.78
8.75
9.38
9.65
9.69
9.69
9.70
9.63
9.31
8.60
7.54
6.39
5.52
5.20
5.47
6.11
6.75
7.10
7.04
6.68
6.26
5.97
5.93
6.15
6.67
7.57
8.95
10.80
12.90
14.76
15.82
15.63
14.17
11.88
9.60
8.26
8.53
10.51
13.71
17.24
20.22
22.14
22.99
23.22
23.37
23.83
24.63
25.56
26.28
26.49
25.90
24.21
21.06
16.22
9.85
2.63
-4.37
-10.23
-14.75
-18.62
-23.24
-29.97
-39.45
-51.24
-64.06
-76.47
-87.54
-97.25
-106.27
-115.34
-124.42
-132.27
-136.60
-134.86
-125.28
-107.73
-84.01
-57.31
-31.11
-8.10
10.45
24.64
35.34
43.45
49.54
53.85
56.59
58.29
59.69
61.42
63.49
65.03
64.54
60.71
53.23
43.26
33.13
25.34
21.44
21.40
23.81
26.66
28.39
28.38
26.98
24.89
22.68
20.52
18.38
16.25
14.40
13.16
12.65
12.55
12.08
10.25
6.33
0.29
-6.94
-13.59
-17.51
-16.98
-11.38
-1.64
9.97
20.53
27.48
29.50
26.86
21.20
14.73
9.42
6.28
5.27
5.64
6.51
7.33
8.01
8.70
9.38
9.63
8.74
6.10
1.71
-3.59
-8.35
-11.04
-10.74
-7.57
-2.66
2.37
6.00
7.35
6.44
3.96
0.95
-1.65
-3.26
-3.78
-3.47
-2.81
-2.16
-1.59
-0.84
0.64
3.37
7.59
13.04
19.02
24.56
28.76
31.02
31.20
29.61
26.84
23.61
20.59
18.27
16.85
16.29
16.29
16.39
16.15
15.24
13.58
11.37
8.98
6.87
5.39
4.68
4.61
4.93
5.24
5.18
4.27
2.02
-2.08
-8.24
-16.16
-24.95
-33.29
-39.91
-44.05
-45.70
-45.45
-44.07
-42.09
-39.56
-36.24
-31.95
-26.95
-22.06
-18.39
-16.99
-18.30
-22.03
-27.26
-32.90
-37.97
-41.99
-44.84
-46.63
-47.47
-47.43
-46.64
-45.36
-44.12
-43.46
-43.77
-45.13
-47.30
-49.94
-52.94
-56.56
-61.30
-67.33
-73.96
-79.41
-81.06
-76.42
-64.09
-44.48
-19.81
6.60
31.28
51.43
65.29
72.24
72.70
67.99
60.18
51.70
44.76
40.62
39.28
39.62
40.06
39.35
37.03
33.40
29.11
24.69
20.37
16.18
12.22
8.84
6.41
5.09
4.58
4.12
2.89
0.47
-2.87
-6.20
-8.35
-8.45
-6.37
-2.73
1.30
4.60
6.58
7.44
8.12
9.91
13.89
20.43
28.92
38.00
45.95
51.30
53.24
51.77
47.63
41.98
36.06
30.90
27.17
25.09
24.40
24.51
24.63
24.06
22.40
19.66
16.17
12.33
8.40
4.36
-0.07
-5.15
-10.90
-16.98
-22.73
-27.47
-30.71
-32.47
-33.35
-34.42
-36.87
-41.53
-48.39
-56.35
-63.40
-67.20
-65.79
-58.42
-45.88
-30.34
-14.69
-1.49
7.82
13.22
15.87
17.38
18.93
20.87
22.67
23.52
22.86
20.82
18.13
15.68
14.05
13.26
12.91
12.55
11.97
11.34
10.99
11.10
11.55
11.87
11.49
10.09
7.75
4.91
2.14
-0.22
-2.21
-4.28
-7.01
-10.86
-15.87
-21.59
-27.10
-31.25
-32.87
-31.19
-26.13
-18.50
-9.90
-2.21
3.05
5.27
4.95
3.34
1.80
1.17
1.54
2.46
3.36
3.96
4.34
4.75
5.32
5.96
6.38
6.31
5.66
4.56
3.20
1.75
0.32
-1.02
-2.20
-3.14
-3.84
-4.45
-5.23
-6.54
-8.59
-11.36
-14.52
-17.53
-19.77
-20.73
-20.19
-18.28
-15.40
-12.13
-9.03
-6.54
-4.94
-4.29
-4.56
-5.60
-7.21
-9.09
-10.95
-12.51
-13.61
-14.30
-14.77
-15.40
-16.59
-18.64
-21.59
-25.19
-28.94
-32.28
-34.73
-35.95
-35.68
-33.64
-29.53
-23.26
-15.25
-6.53
1.55
7.84
11.94
14.41
16.39
18.96
22.51
26.61
30.36
32.96
34.19
34.41
34.26
34.19
34.28
34.33
34.10
33.59
33.05
32.85
33.21
34.03
34.88
35.12
34.25
32.11
29.01
25.57
22.44
20.03
18.29
16.85
15.17
12.87
9.92
6.55
3.17
0.08
-2.58
-4.89
-7.07
-9.34
-11.84
-14.59
-17.52
-20.45
-23.22
-25.58
-27.34
-28.25
-28.13
-26.87
-24.55
-21.50
-18.23
-15.23
-12.78
-10.81
-8.99
-6.86
-4.22
-1.19
1.78
4.16
5.63
6.18
6.13
5.82
5.51
5.20
4.74
3.96
2.77
1.24
-0.44
-2.09
-3.54
-4.71
-5.57
-6.17
-6.60
-6.97
-7.39
-7.95
-8.60
-9.27
-9.85
-10.34
-10.84
-11.48
-12.33
-13.32
-14.22
-14.77
-14.79
-14.31
-13.51
-12.60
-11.65
-10.46
-8.65
-5.86
-2.00
2.62
7.33
11.34
14.12
15.62
16.25
16.65
17.38
18.66
20.34
22.10
23.64
24.84
25.78
26.55
27.21
27.71
27.96
27.95
27.78
27.60
27.50
27.52
27.53
27.43
27.14
26.71
26.26
25.93
25.76
25.60
25.18
24.12
22.13
19.11
15.19
10.79
6.35
2.26
-1.31
-4.35
-6.94
-9.06
-10.54
-11.15
-10.75
-9.47
-7.77
-6.38
-6.00
-7.03
-9.33
-12.21
-14.65
-15.71
-14.88
-12.29
-8.69
-5.05
-2.28
-0.86
-0.76
-1.60
-2.92
-4.39
-5.89
-7.49
-9.26
-11.11
-12.83
-14.09
-14.67
-14.55
-13.98
-13.39
-13.24
-13.83
-15.23
-17.27
-19.61
-21.83
-23.48
-24.11
-23.33
-20.95
-17.07
-12.09
-6.69
-1.58
2.66
5.72
7.62
8.59
8.94
9.01
9.09
9.35
9.81
10.37
10.82
10.97
10.72
10.15
9.46
8.89
8.55
8.40
8.28
8.02
7.53
6.84
6.06
5.28
4.53
3.80
2.97
1.96
0.68
-0.93
-2.92
-5.26
-7.90
-10.58
-12.89
-14.24
-14.09
-12.16
-8.69
-4.37
-0.14
3.16
5.16
6.03
6.40
6.99
8.26
10.23
12.50
14.40
15.29
14.77
12.83
9.88
6.60
3.78
2.05
1.69
2.54
4.13
5.79
6.98
7.38
6.97
5.92
4.45
2.80
1.09
-0.61
-2.23
-3.71
-5.03
-6.22
-7.47
-9.05
-11.24
-14.14
-17.58
-21.09
-23.96
-25.48
-25.19
-23.01
-19.32
-14.85
-10.42
-6.65
-3.85
-1.94
-0.59
0.60
1.90
3.40
5.02
6.56
7.83
8.65
8.98
8.84
8.28
7.43
6.41
5.37
4.41
3.65
3.11
2.76
2.48
2.11
1.56
0.79
-0.10
-1.00
-1.87
-2.76
-3.80
-5.12
-6.72
-8.44
-10.00
-11.12
-11.68
-11.77
-11.66
-11.71
-12.22
-13.30
-14.68
-15.77
-15.80
-14.13
-10.63
-5.89
-1.02
2.78
4.78
5.06
4.47
4.21
5.26
8.11
12.53
17.78
22.73
26.12
26.80
24.03
17.81
8.99
-0.80
-9.68
-16.13
-19.42
-19.72
-17.87
-14.81
-11.20
-7.22
-2.61
2.92
9.31
15.81
20.99
23.20
21.26
15.11
6.08
-3.47
-11.09
-15.15
-15.46
-13.08
-9.62
-6.28
-3.44
-0.69
2.50
6.12
9.43
11.32
11.00
8.65
5.43
2.98
2.50
4.16
6.98
9.35
10.01
8.59
5.79
2.90
1.07
0.71
1.42
2.30
2.50
1.67
0.05
-1.75
-3.13
-3.80
-3.80
-3.47
-3.16
-3.06
-3.24
-3.67
-4.38
-5.49
-7.08
-9.07
-11.07
-12.42
-12.40
-10.48
-6.61
-1.28
4.52
9.71
13.40
15.21
15.34
14.37
13.03
11.91
11.26
11.02
10.92
10.66
10.01
8.87
7.32
5.53
3.82
2.51
1.95
2.37
3.79
5.84
7.68
8.13
6.09
1.13
-6.06
-13.66
-19.39
-21.46
-19.48
-14.65
-9.19
-5.32
-4.18
-5.51
-7.94
-9.93
-10.51
-9.66
-8.09
-6.65
-5.85
-5.60
-5.45
-4.93
-3.95
-2.85
-2.19
-2.28
-2.94
-3.51
-3.23
-1.77
0.56
2.87
4.23
4.15
2.93
1.44
0.66
1.17
2.80
4.78
6.14
6.12
4.57
1.95
-0.86
-2.96
-3.81
-3.42
-2.35
-1.47
-1.63
-3.25
-6.14
-9.61
-12.64
-14.30
-13.99
-11.55
-7.21
-1.64
4.04
8.28
9.52
6.86
0.74
-6.85
-13.02
-15.20
-12.44
-5.84
1.98
8.27
11.50
11.84
10.68
9.43
8.61
7.66
