1547954828.00
64.000000
-0.00
-0.00
-0.00
-0.00
-0.00
-0.00
-0.00
-0.00
-0.00
-0.01
-0.00
0.00
0.01
0.01
-0.00
-0.03
-0.05
-0.05
-0.00
0.13
0.36
0.66
1.01
1.37
1.72
2.06
2.40
2.77
3.24
3.80
4.42
5.06
5.67
6.21
6.69
7.15
7.64
8.31
9.13
10.08
11.05
11.92
12.62
13.20
13.78
14.48
15.68
17.42
19.60
22.01
24.37
26.50
28.46
30.50
32.90
36.35
40.87
46.30
52.14
57.84
63.01
67.63
72.11
76.91
83.02
90.59
99.38
108.72
117.76
125.85
132.84
140.12
145.70
151.76
159.26
169.27
182.20
196.96
210.50
218.09
214.61
196.19
162.42
115.57
60.23
1.34
-57.63
-115.35
-172.21
-229.11
-286.46
-343.07
-397.30
-447.24
-491.36
-528.67
-558.45
-579.90
-592.07
-594.06
-585.30
-566.30
-538.00
-501.18
-455.70
-400.45
-334.24
-257.19
-171.87
-83.20
2.53
79.60
144.39
195.79
234.66
262.65
281.31
291.80
295.24
292.99
286.81
278.44
269.08
259.14
248.34
235.99
221.67
205.43
187.97
170.38
153.66
138.40
124.59
111.71
99.07
86.42
73.64
61.11
49.47
39.40
31.23
24.84
19.73
15.28
11.03
6.80
2.74
-0.88
-3.85
-6.16
-7.98
-9.51
-10.90
-12.18
-13.33
-14.34
-15.20
-15.96
-16.63
-17.20
-17.59
-17.74
-17.63
-17.33
-16.96
-16.62
-16.40
-16.28
-16.23
-16.24
-16.33
-16.54
-16.93
-17.56
-18.43
-19.49
-20.60
-21.62
-22.39
-22.83
-22.89
-22.70
-22.45
-22.31
-22.36
-22.47
-22.36
-21.66
-20.47
-18.96
-17.43
-16.22
-15.59
-15.60
-16.10
-16.80
-17.40
-17.60
-17.17
-15.97
-14.03
-11.56
-8.91
-6.49
-4.59
-3.35
-2.63
-2.17
-1.70
-1.10
-0.37
0.36
0.98
1.45
1.74
1.85
1.76
1.40
0.75
-0.17
-1.27
-2.40
-3.38
-4.07
-4.40
-4.33
-3.87
-3.12
-2.25
-1.41
-0.70
-0.14
0.34
0.83
1.35
1.82
2.08
1.99
1.44
0.45
-0.97
-2.78
-4.95
-7.43
-10.11
-12.73
-14.98
-16.55
-17.24
-16.99
-15.89
-14.12
-11.90
-9.39
-6.75
-4.10
-1.54
0.87
3.12
5.26
7.36
9.46
11.53
13.45
15.09
16.38
17.34
18.14
19.01
20.16
21.71
23.61
25.71
27.78
29.67
31.28
32.66
33.91
35.18
36.56
38.04
39.59
41.11
42.51
43.77
44.88
45.89
46.85
47.80
48.79
49.81
50.79
51.62
52.18
52.33
52.04
51.35
50.35
49.15
47.74
46.04
43.94
41.35
38.32
35.01
31.62
28.29
25.06
21.88
18.70
15.55
12.55
9.80
7.39
5.25
3.27
1.34
-0.58
-2.43
-4.09
-5.47
-6.54
-7.37
-8.10
-8.85
-9.71
-10.67
-11.65
-12.54
-13.21
-13.57
-13.56
-13.22
-12.58
-11.75
-10.80
-9.83
-8.89
-8.00
-7.18
-6.41
-5.67
-4.97
-4.35
-3.86
-3.55
-3.44
-3.56
-3.88
-4.36
-4.95
-5.56
-6.10
-6.51
-6.75
-6.87
-6.95
-7.09
-7.34
-7.72
-8.15
-8.56
-8.89
-9.16
-9.43
-9.74
-10.11
-10.43
-10.56
-10.36
-9.78
-8.86
-7.78
-6.71
-5.75
-4.91
-4.15
-3.39
-2.60
-1.80
-1.00
-0.25
0.45
1.07
1.58
1.90
1.99
1.79
1.32
0.64
-0.17
-1.01
-1.81
-2.51
-3.08
-3.51
-3.85
-4.14
-4.43
-4.71
-4.98
-5.23
-5.46
-5.70
-6.01
-6.38
-6.79
-7.16
-7.45
-7.64
-7.71
-7.67
-7.45
-6.99
-6.26
-5.28
-4.14
-2.93
-1.76
-0.63
0.44
1.46
2.41
3.23
3.88
4.37
4.74
5.04
5.27
5.39
5.37
5.16
4.76
4.18
3.45
2.58
1.61
0.61
-0.31
-1.06
-1.58
-1.90
-2.11
-2.29
-2.54
-2.91
-3.42
-4.06
-4.84
-5.71
-6.62
-7.44
-8.05
-8.38
-8.39
-8.14
-7.71
-7.17
-6.58
-5.95
-5.26
-4.50
-3.64
-2.72
-1.78
-0.88
-0.04
0.71
1.35
1.85
2.21
2.41
2.45
2.35
2.11
1.71
1.17
0.52
-0.14
-0.69
-1.04
-1.19
-1.20
-1.20
-1.28
-1.46
-1.69
-1.89
-1.99
-2.01
-2.02
-2.14
-2.44
-2.93
-3.53
-4.09
-4.41
-4.36
-3.89
-3.08
-2.08
-1.05
-0.11
0.73
1.50
2.25
2.98
3.64
4.16
4.49
4.68
4.80
4.94
5.16
5.38
5.48
5.31
4.80
3.97
2.91
1.76
0.59
-0.56
-1.66
-2.68
-3.53
-4.13
-4.42
-4.42
-4.22
-3.96
-3.78
-3.74
-3.86
-4.12
-4.46
-4.79
-4.98
-4.92
-4.54
-3.88
-3.07
-2.30
-1.69
-1.24
-0.83
-0.31
0.45
1.44
2.52
3.55
4.43
5.14
5.67
6.01
6.07
5.78
5.12
4.22
3.32
2.61
2.18
1.98
1.83
1.58
1.14
0.54
-0.14
-0.84
-1.49
-2.05
-2.48
-2.73
-2.81
-2.78
-2.76
-2.82
-2.99
-3.21
-3.33
-3.21
-2.77
-1.99
-0.96
0.19
1.30
2.19
2.76
3.02
3.05
3.00
3.02
3.19
3.51
3.91
4.30
4.60
4.76
4.71
4.35
3.59
2.38
0.75
-1.16
-3.12
-4.91
-6.43
-7.66
-8.74
-9.89
-11.34
-13.29
-15.82
-18.83
-22.07
-25.09
-27.32
-28.23
-27.44
-24.92
-21.04
-16.44
-11.90
-8.04
-5.22
-3.42
-2.39
-1.78
-1.36
-1.00
-0.73
-0.60
-0.64
-0.77
-0.88
-0.83
-0.54
0.05
0.90
1.95
3.09
4.17
5.06
5.67
5.98
6.09
6.16
6.37
6.82
7.59
8.65
9.96
11.44
12.99
14.50
15.77
16.60
16.79
16.26
15.03
13.29
11.25
9.11
6.98
4.91
2.95
1.16
-0.33
-1.40
-1.95
-1.95
-1.51
-0.80
-0.06
0.56
0.97
1.20
1.39
1.69
2.22
2.97
3.84
4.60
5.01
4.90
4.23
3.09
1.70
0.32
-0.82
-1.59
-1.99
-2.11
-2.08
-2.04
-2.06
-2.16
-2.33
-2.54
-2.71
-2.81
-2.80
-2.68
-2.49
-2.30
-2.20
-2.25
-2.50
-2.94
-3.53
-4.19
-4.78
-5.14
-5.15
-4.74
-3.99
-3.03
-2.01
-1.02
-0.08
0.83
1.73
2.58
3.31
3.86
4.22
4.40
4.44
4.39
4.27
4.09
3.87
3.64
3.42
3.21
2.99
2.70
2.27
1.68
0.95
0.11
-0.74
-1.53
-2.20
-2.72
-3.13
-3.46
-3.76
-4.05
-4.36
-4.71
-5.15
-5.66
-6.22
-6.74
-7.14
-7.34
-7.35
-7.18
-6.85
-6.37
-5.69
-4.79
-3.70
-2.50
-1.31
-0.23
0.71
1.52
2.26
2.96
3.63
4.17
4.51
4.58
4.35
3.89
3.29
2.65
2.03
1.43
0.86
0.33
-0.15
-0.52
-0.73
-0.78
-0.72
-0.65
-0.68
-0.87
-1.22
-1.69
-2.17
-2.58
-2.89
-3.10
-3.22
-3.30
-3.36
-3.36
-3.24
-2.91
-2.33
-1.48
-0.47
0.58
1.52
2.24
2.74
3.07
3.35
3.69
4.13
4.69
5.32
5.94
6.48
6.82
6.90
6.64
6.06
5.21
4.22
3.21
2.25
1.40
0.65
0.00
-0.58
-1.11
-1.63
-2.17
-2.75
-3.36
-3.96
-4.54
-5.07
-5.55
-5.97
-6.31
-6.53
-6.59
-6.45
-6.08
-5.49
-4.68
-3.71
-2.64
-1.56
-0.53
0.43
1.34
2.27
3.26
4.28
5.23
5.95
6.32
6.29
5.95
5.40
4.77
4.12
3.47
2.80
2.12
1.44
0.78
0.19
-0.30
-0.68
-0.97
-1.22
-1.48
-1.85
-2.35
-2.98
-3.66
-4.33
-4.90
-5.36
-5.73
-6.03
-6.24
-6.32
-6.18
-5.76
-5.05
-4.08
-2.97
-1.84
-0.78
0.17
0.99
1.74
2.44
3.11
3.71
4.23
4.61
4.86
4.94
4.83
4.51
3.99
3.36
2.74
2.21
1.82
1.48
1.13
0.70
0.18
-0.38
-0.92
-1.43
-1.92
-2.41
-2.92
-3.40
-3.83
-4.19
-4.49
-4.78
-5.06
-5.33
-5.55
-5.69
-5.69
-5.48
-4.98
-4.15
-3.02
-1.69
-0.35
0.85
1.81
2.53
3.06
3.42
3.63
3.68
3.60
3.47
3.38
3.41
3.50
3.54
3.41
3.04
2.47
1.83
1.21
0.68
0.23
-0.21
-0.65
-1.10
-1.53
-1.91
-2.21
-2.43
-2.58
-2.70
-2.83
-3.02
-3.28
-3.56
-3.80
-3.93
-3.88
-3.67
-3.30
-2.79
-2.11
-1.25
-0.20
0.96
2.11
3.11
3.90
4.48
4.96
5.43
5.90
6.28
6.44
6.26
5.74
5.01
4.27
3.69
3.33
3.13
2.94
2.61
2.06
1.31
0.48
-0.28
-0.83
-1.12
-1.20
-1.19
-1.21
-1.36
-1.64
-2.02
-2.46
-2.90
-3.31
-3.65
-3.83
-3.78
-3.46
-2.87
-2.12
-1.36
-0.73
-0.31
-0.08
0.08
0.32
0.80
1.56
2.55
3.59
4.45
4.95
5.04
4.77
4.31
3.81
3.38
3.02
2.68
2.27
1.74
1.06
0.25
-0.63
-1.54
-2.43
-3.28
-4.10
-4.87
-5.55
-6.12
-6.54
-6.85
-7.09
-7.34
-7.68
-8.10
-8.52
-8.84
-8.92
-8.69
-8.13
-7.28
-6.23
-5.06
-3.85
-2.69
-1.62
-0.66
0.21
1.01
1.76
2.47
3.12
3.68
4.12
4.46
4.66
4.73
4.62
4.29
3.76
3.09
2.41
1.86
1.54
1.43
1.41
1.33
1.06
0.55
-0.11
-0.76
-1.25
-1.44
-1.33
-1.02
-0.66
-0.42
-0.38
-0.56
-0.88
-1.25
-1.52
-1.59
-1.35
-0.72
0.28
1.57
2.95
4.19
5.13
5.69
5.93
5.95
5.87
5.75
5.60
5.39
5.11
4.75
4.29
3.67
2.80
1.63
0.18
-1.42
-2.99
-4.32
-5.31
-5.94
-6.29
-6.46
-6.56
-6.63
-6.67
-6.66
-6.54
-6.27
-5.83
-5.23
-4.52
-3.82
-3.21
-2.75
-2.44
-2.18
-1.86
-1.38
-0.70
0.18
1.18
2.22
3.24
4.23
5.18
6.11
6.98
7.76
8.40
8.84
9.06
9.10
8.97
8.73
8.41
8.03
7.59
7.05
6.39
5.56
4.56
3.41
2.16
0.92
-0.22
-1.13
-1.75
-2.05
-2.09
-1.99
-1.86
-1.80
-1.85
-1.98
-2.13
-2.25
-2.35
-2.45
-2.58
-2.79
-3.10
-3.50
-3.94
-4.32
-4.50
-4.33
-3.75
-2.85
-1.80
-0.84
-0.12
0.32
0.57
0.74
0.92
1.10
1.18
1.08
0.80
0.46
0.19
0.07
0.05
-0.02
-0.28
-0.75
-1.31
-1.71
-1.80
-1.53
-1.06
-0.64
-0.47
-0.59
-0.90
-1.23
-1.47
-1.60
-1.71
-1.89
-2.17
-2.51
-2.83
-3.06
-3.18
-3.23
-3.23
-3.20
-3.09
-2.80
-2.26
-1.47
-0.46
0.64
1.72
2.67
3.46
4.10
4.63
5.08
5.45
5.73
5.87
5.83
5.57
5.05
4.28
3.27
2.13
1.03
0.11
-0.48
-0.69
-0.57
-0.24
0.12
0.33
0.25
-0.18
-0.93
-1.86
-2.80
-3.59
-4.10
-4.31
-4.30
-4.19
-4.12
-4.17
-4.32
-4.48
-4.55
-4.41
-3.97
-3.22
-2.20
-1.03
0.16
1.23
2.09
2.73
3.19
3.55
3.85
4.12
4.33
4.41
4.34
4.10
3.71
3.23
2.66
2.04
1.36
0.68
0.06
-0.42
-0.70
-0.79
-0.76
-0.74
-0.83
-1.10
-1.48
-1.88
-2.18
-2.34
-2.41
-2.50
-2.71
-3.09
-3.52
-3.85
-3.93
-3.66
-3.06
-2.21
-1.20
-0.13
0.93
1.89
2.69
3.29
3.66
3.89
4.06
4.27
4.51
4.72
4.80
4.63
4.19
3.51
2.67
1.74
0.79
-0.13
-0.98
-1.68
-2.21
-2.55
-2.79
-2.99
-3.22
-3.46
-3.67
-3.79
-3.82
-3.80
-3.83
-3.97
-4.26
-4.65
-5.06
-5.39
-5.56
-5.47
-5.06
-4.31
-3.25
-2.01
-0.76
0.33
1.15
1.72
2.12
2.47
2.87
3.37
3.93
4.50
5.01
5.37
5.49
5.29
4.75
3.94
3.03
2.23
1.68
1.44
1.40
1.41
1.36
1.19
0.91
0.56
0.18
-0.22
-0.63
-0.98
-1.21
-1.32
-1.33
-1.35
-1.44
-1.63
-1.87
-2.07
-2.16
-2.13
-1.96
-1.66
-1.24
-0.69
-0.01
0.73
1.47
2.17
2.84
3.53
4.26
5.01
5.64
6.02
6.06
5.76
5.24
4.65
4.10
3.61
3.13
2.58
1.94
1.24
0.55
-0.03
-0.46
-0.70
-0.77
-0.77
-0.77
-0.89
-1.21
-1.73
-2.44
-3.26
-4.15
-5.09
-6.03
-6.92
-7.67
-8.17
-8.33
-8.15
-7.71
-7.09
-6.38
-5.59
-4.71
-3.74
-2.72
-1.73
-0.84
-0.09
0.54
1.08
1.56
1.94
2.17
2.22
2.11
1.89
1.64
1.37
1.10
0.82
0.54
0.32
0.20
0.18
0.18
0.09
-0.19
-0.66
-1.21
-1.66
-1.86
-1.74
-1.33
-0.80
-0.34
-0.11
-0.19
-0.56
-1.06
-1.51
-1.76
-1.71
-1.38
-0.86
-0.24
0.39
0.96
1.43
1.77
1.95
2.04
2.10
2.21
2.43
2.70
2.92
2.98
2.87
2.61
2.30
1.99
1.66
1.27
0.77
0.23
-0.22
-0.43
-0.35
-0.03
0.38
0.72
0.95
1.07
1.20
1.38
1.63
1.90
2.15
2.34
2.49
2.64
2.75
2.79
2.73
2.60
2.47
2.48
2.69
3.01
3.23
2.98
2.02
0.23
-2.20
-4.88
-7.27
-8.83
-9.19
-8.21
-6.04
-3.07
0.16
3.20
5.77
7.99
10.19
12.76
15.90
19.36
22.50
24.44
24.33
21.65
16.34
8.90
0.20
-8.63
-16.47
-22.40
-25.91
-26.97
-25.96
-23.53
-20.39
-17.10
-14.03
-11.28
-8.76
-6.23
-3.44
-0.10
3.93
8.70
14.06
19.70
25.12
29.80
33.24
35.10
35.32
34.07
31.73
28.64
25.05
21.08
16.79
12.35
8.11
4.53
1.99
0.60
0.18
0.29
0.44
0.30
-0.30
-1.31
-2.55
-3.83
-5.00
-6.01
-6.95
-7.97
-9.20
-10.63
-12.05
-13.09
-13.37
-12.68
-11.07
-8.74
-5.94
-2.78
0.72
4.58
8.71
12.84
16.57
19.43
21.06
21.14
19.40
15.59
9.54
1.34
-8.64
-19.65
-30.71
-40.84
-49.30
-55.75
-60.22
-62.90
-63.92
-63.26
-60.81
-56.54
-50.72
-43.95
-36.95
-30.36
-24.53
-19.48
-15.11
-11.36
-8.25
-5.89
-4.33
-3.42
-2.85
-2.30
-1.48
-0.22
1.53
3.78
6.42
9.29
12.13
14.68
16.71
18.19
19.22
20.02
20.76
21.48
22.08
22.36
22.12
21.24
19.75
17.80
15.59
13.29
11.01
8.81
6.71
4.79
3.11
1.73
0.64
-0.22
-0.94
-1.61
-2.22
-2.75
-3.11
-3.23
-3.04
-2.51
-1.66
-0.55
0.71
1.93
2.96
3.69
4.14
4.39
4.59
4.85
5.20
5.59
5.87
5.87
5.46
4.58
3.29
1.76
0.16
-1.36
-2.72
-3.85
-4.70
-5.17
-5.21
-4.84
-4.21
-3.56
-3.08
-2.85
-2.74
-2.57
-2.18
-1.59
-0.98
-0.57
-0.50
-0.75
-1.13
-1.41
-1.43
-1.15
-0.62
0.06
0.78
1.45
2.02
2.43
2.63
2.61
2.39
2.05
1.70
1.47
1.41
1.52
1.70
1.84
1.82
1.64
1.40
1.27
1.39
1.82
2.55
3.48
4.56
5.68
6.78
7.71
8.37
8.64
8.52
8.05
7.34
6.45
5.41
4.21
2.85
1.35
-0.17
-1.60
-2.83
-3.78
-4.41
-4.72
-4.72
-4.44
-3.91
-3.17
-2.28
-1.34
-0.44
0.34
0.99
1.58
2.21
2.97
3.86
4.76
5.49
5.91
5.96
5.71
5.26
4.71
4.08
3.35
2.51
1.63
0.78
0.09
-0.38
-0.64
-0.81
-1.00
-1.34
-1.87
-2.53
-3.23
-3.83
-4.25
-4.48
-4.56
-4.60
-4.70
-4.92
-5.30
-5.74
-6.13
-6.30
-6.14
-5.59
-4.69
-3.51
-2.15
-0.73
0.64
1.87
2.85
3.56
4.01
4.30
4.51
4.72
4.90
4.97
4.87
4.57
4.13
3.62
3.09
2.53
1.93
1.24
0.50
-0.26
-0.94
-1.45
-1.71
-1.69
-1.40
-0.95
-0.49
-0.19
-0.14
-0.37
-0.78
-1.24
-1.64
-1.97
-2.30
-2.69
-3.18
-3.70
-4.14
-4.41
-4.46
-4.31
-4.00
-3.55
-2.98
-2.30
-1.57
-0.86
-0.24
0.25
0.63
0.93
1.17
1.34
1.40
1.34
1.13
0.82
0.47
0.13
-0.18
-0.46
-0.74
-1.05
-1.43
-1.87
-2.34
-2.73
-2.95
-2.92
-2.67
-2.31
-2.01
-1.89
-1.96
-2.11
-2.17
-2.00
-1.59
-1.02
-0.43
0.07
0.44
0.71
0.93
1.19
1.54
1.99
2.55
3.18
3.82
4.42
4.93
5.35
5.65
5.85
5.93
5.88
5.70
5.39
4.99
4.52
3.99
3.38
2.68
1.86
0.92
-0.12
-1.21
-2.24
-3.09
-3.68
-3.95
-3.94
-3.73
-3.43
-3.12
-2.81
-2.49
-2.13
-1.74
-1.36
-1.06
-0.87
-0.80
-0.83
-0.91
-0.97
-0.92
-0.68
-0.18
0.56
1.49
2.47
3.36
4.03
4.45
4.61
4.59
4.43
4.18
3.84
3.39
2.78
2.01
1.12
0.20
-0.69
-1.45
-2.06
-2.45
-2.61
-2.52
-2.26
-1.95
-1.76
-1.81
-2.08
-2.43
-2.70
-2.76
-2.61
-2.33
-2.02
-1.71
-1.38
-1.04
-0.73
-0.56
-0.63
-0.89
-1.18
-1.24
-0.90
-0.13
0.91
1.99
2.88
3.46
3.75
3.83
3.81
3.74
3.68
3.61
3.52
3.39
3.20
2.92
2.50
1.91
1.14
0.22
-0.72
-1.55
-2.11
-2.29
-2.11
-1.65
-1.09
-0.60
-0.32
-0.29
-0.46
-0.73
-1.00
-1.18
-1.26
-1.27
-1.25
-1.23
-1.21
-1.16
-0.99
-0.65
-0.09
0.67
1.58
2.55
3.48
4.28
4.90
5.39
5.82
6.29
6.89
7.60
8.31
8.82
9.00
8.76
8.14
7.22
6.09
4.78
3.29
1.64
-0.11
-1.83
-3.42
-4.82
-6.09
-7.34
-8.64
-9.95
-11.14
-12.01
-12.44
-12.42
-12.05
-11.52
-10.98
-10.54
-10.25
-10.07
-9.92
-9.67
-9.21
-8.43
-7.29
-5.81
-4.07
-2.21
-0.36
1.35
2.82
3.96
4.70
5.01
4.87
4.35
3.52
2.53
1.45
0.35
-0.74
-1.80
-2.77
-3.54
-3.99
-3.98
-3.48
-2.52
-1.24
0.13
1.39
2.39
3.06
3.39
3.45
3.34
3.14
2.97
2.89
2.90
2.96
2.95
2.80
2.46
1.97
1.45
1.06
0.89
0.96
1.24
1.62
2.03
2.41
2.72
2.93
3.02
3.02
2.99
2.99
3.09
3.28
3.47
3.54
3.34
2.82
1.97
0.90
-0.23
-1.27
-2.07
-2.51
-2.60
-2.42
-2.17
-2.08
-2.26
-2.73
-3.33
-3.85
-4.11
-4.02
-3.60
-2.93
-2.09
-1.14
-0.12
0.89
1.79
2.48
2.93
3.21
3.43
3.74
4.23
4.89
5.68
6.52
7.34
8.11
8.75
9.21
9.40
9.25
8.74
7.92
6.86
5.71
4.60
3.60
2.74
1.98
1.22
0.34
-0.70
-1.90
-3.17
-4.40
-5.49
-6.40
-7.12
-7.67
-8.02
-8.15
-8.00
-7.54
-6.81
-5.89
-4.92
-4.03
-3.29
-2.73
-2.34
-2.07
-1.86
-1.69
-1.51
-1.28
-0.97
-0.52
0.09
0.84
1.67
2.45
3.09
3.56
3.91
4.23
4.61
5.08
5.58
5.99
6.21
6.22
6.06
5.80
5.49
5.13
4.69
4.15
3.55
2.97
2.54
2.31
2.25
2.27
2.24
2.09
1.78
1.36
0.90
0.39
-0.19
-0.93
-1.90
-3.08
-4.38
-5.61
-6.58
-7.12
-7.17
-6.78
-6.06
-5.14
-4.13
-3.09
-2.06
-1.07
-0.17
0.58
1.15
1.56
1.88
2.20
2.52
2.82
2.96
2.83
2.38
1.64
0.73
-0.20
-1.02
-1.67
-2.15
-2.49
-2.73
-2.89
-2.95
-2.90
-2.76
-2.57
-2.41
-2.31
-2.30
-2.36
-2.44
-2.54
-2.67
-2.91
-3.31
-3.87
-4.46
-4.91
-5.04
-4.75
-4.13
-3.37
-2.67
-2.21
-1.98
-1.92
-1.88
-1.77
-1.59
-1.37
-1.17
-1.01
-0.87
-0.77
-0.73
-0.84
-1.17
-1.73
-2.42
-3.09
-3.55
-3.73
-3.68
-3.53
-3.44
-3.50
-3.68
-3.89
-4.05
-4.09
-4.04
-3.99
-4.01
-4.17
-4.46
-4.78
-5.00
-4.98
-4.63
-3.90
-2.84
-1.52
-0.04
1.52
3.10
4.63
6.07
7.35
8.47
9.47
10.43
11.34
12.14
12.69
12.83
12.48
11.68
10.55
9.29
8.04
6.90
5.90
5.06
4.36
3.83
3.48
3.30
3.26
3.28
3.33
3.36
3.36
3.35
3.32
3.26
3.15
2.94
2.59
2.08
1.42
0.64
-0.18
-0.98
-1.70
-2.25
-2.55
-2.55
-2.24
-1.64
-0.86
0.04
0.97
1.89
2.79
3.66
4.43
5.00
5.30
5.36
5.28
5.23
5.37
5.70
6.13
6.45
6.47
6.08
5.33
4.33
3.23
2.14
1.10
0.08
-0.97
-2.06
-3.14
-4.15
-5.06
-5.89
-6.68
-7.50
-8.36
-9.20
-9.88
-10.27
-10.25
-9.79
-8.92
-7.71
-6.23
-4.58
-2.90
-1.31
0.04
1.04
1.69
2.06
2.29
2.53
2.86
3.28
3.72
4.04
4.13
3.91
3.32
2.41
1.24
-0.03
-1.28
-2.39
-3.29
-4.02
-4.61
-5.12
-5.57
-5.98
-6.35
-6.70
-7.05
-7.40
-7.72
-7.98
-8.18
-8.34
-8.53
-8.80
-9.17
-9.62
-10.02
-10.25
-10.17
-9.69
-8.77
-7.47
-5.92
-4.25
-2.60
-1.08
0.32
1.63
2.93
4.23
5.54
6.82
8.02
9.08
10.00
10.77
11.39
11.83
12.03
11.94
11.51
10.74
9.70
8.47
7.12
5.72
4.27
2.79
1.26
-0.26
-1.69
-2.91
-3.85
-4.47
-4.82
-4.98
-5.05
-5.07
-5.08
-5.09
-5.07
-4.99
-4.78
-4.39
-3.77
-2.96
-2.07
-1.23
-0.57
-0.12
0.16
0.37
0.57
0.81
1.06
1.28
1.43
1.50
1.45
1.26
0.92
0.44
-0.11
-0.61
-0.95
-1.07
-0.97
-0.71
-0.39
-0.15
-0.11
-0.35
-0.87
-1.54
-2.19
-2.63
-2.77
-2.67
-2.48
-2.42
-2.64
-3.14
-3.76
-4.28
-4.46
-4.20
-3.52
-2.54
-1.42
-0.30
0.68
1.45
1.94
2.10
1.96
1.60
1.17
0.80
0.57
0.45
0.35
0.17
-0.21
-0.80
-1.56
-2.39
-3.12
-3.59
-3.65
-3.23
-2.36
-1.17
0.14
1.40
2.48
3.38
4.12
4.78
5.42
6.05
6.70
7.33
7.94
8.45
8.78
8.85
8.59
8.01
7.18
6.29
5.54
5.12
5.14
5.61
6.43
7.45
8.48
9.37
10.03
10.44
10.65
10.76
10.88
11.06
11.26
11.35
11.16
10.59
9.63
8.43
7.17
6.04
5.14
4.47
3.96
3.51
3.05
2.55
2.04
1.57
1.20
0.92
0.64
0.12
-0.93
-2.75
-5.38
-8.63
-12.15
-15.59
-18.73
-21.61
-24.49
-27.70
-31.54
-36.14
-41.37
-46.81
-51.72
-55.11
-55.93
-53.42
-47.45
-38.67
-28.37
-18.09
-9.08
-1.97
3.28
7.16
10.22
12.86
15.21
17.29
19.12
20.78
22.38
23.91
25.26
26.22
26.59
26.27
25.32
23.94
22.37
20.81
19.38
18.05
16.74
15.37
13.90
12.34
10.79
9.34
8.10
7.11
6.37
5.78
5.24
4.61
3.80
2.83
1.81
0.94
0.38
0.17
0.22
0.31
0.22
-0.16
-0.82
-1.67
-2.58
-3.50
-4.46
-5.48
-6.59
-7.69
-8.64
-9.32
-9.65
-9.71
-9.64
-9.59
-9.62
-9.68
-9.62
-9.28
-8.60
-7.62
-6.45
-5.20
-3.89
-2.46
-0.84
0.98
2.91
4.81
6.50
7.89
8.97
9.78
10.38
10.81
11.07
11.21
11.27
11.34
11.45
11.63
11.87
12.15
12.49
12.88
13.20
13.29
12.91
11.88
10.19
8.02
5.63
3.30
1.11
-1.05
-3.48
-6.53
-10.46
-15.39
-21.24
-27.72
-34.43
-40.85
-46.44
-50.69
-53.25
-53.97
-52.88
-50.16
-46.03
-40.77
-34.61
-27.86
-20.87
-14.07
-7.88
-2.64
1.53
4.72
7.18
9.27
11.27
13.37
15.59
17.83
19.92
21.65
22.85
23.44
23.48
23.13
22.60
22.06
21.63
21.26
20.88
20.34
19.55
18.41
16.88
14.97
12.76
10.42
8.14
6.13
4.49
3.20
2.14
1.15
0.14
-0.86
-1.72
-2.27
-2.40
-2.14
-1.61
-1.00
-0.48
-0.10
0.18
0.45
0.78
1.15
1.48
1.70
1.82
1.90
2.01
2.17
2.26
2.15
1.76
1.13
0.42
-0.19
-0.59
-0.80
-0.93
-1.07
-1.23
-1.33
-1.29
-1.10
-0.86
-0.70
-0.72
-0.91
-1.18
-1.42
-1.61
-1.80
-2.08
-2.47
-2.87
-3.13
-3.05
-2.55
-1.68
-0.61
0.47
1.38
2.05
2.49
2.73
2.81
2.81
2.76
2.72
2.73
2.77
2.80
2.76
2.63
2.43
2.25
2.17
2.19
2.26
2.25
2.02
1.56
0.97
0.44
0.13
0.09
0.24
0.40
0.39
0.15
-0.28
-0.83
-1.38
-1.90
-2.39
-2.84
-3.25
-3.56
-3.71
-3.70
-3.52
-3.23
-2.85
-2.37
-1.80
-1.17
-0.55
0.02
0.51
0.92
1.27
1.57
1.78
1.84
1.70
1.38
0.96
0.54
0.24
0.09
0.13
0.32
0.62
0.98
1.30
1.51
1.54
1.38
1.08
0.72
0.38
0.12
-0.06
-0.21
-0.39
-0.62
-0.92
-1.31
-1.79
-2.36
-2.96
-3.51
-3.87
-3.93
-3.65
-3.10
-2.42
-1.73
-1.09
-0.49
0.14
0.82
1.52
2.13
2.56
2.82
2.95
3.05
3.19
3.34
3.45
3.46
3.36
3.15
2.84
2.40
1.78
1.01
0.14
-0.64
-1.19
-1.40
-1.33
-1.14
-0.99
-1.05
-1.31
-1.71
-2.10
-2.36
-2.40
-2.22
-1.89
-1.50
-1.17
-1.01
-1.08
-1.40
-1.88
-2.39
-2.76
-2.85
-2.60
-2.08
-1.41
-0.75
-0.18
0.31
0.79
1.31
1.86
2.35
2.69
2.83
2.83
2.78
2.78
2.77
2.64
2.23
1.46
0.40
-0.77
-1.84
-2.64
-3.12
-3.39
-3.59
-3.88
-4.32
-4.90
-5.47
-5.87
-5.92
-5.55
-4.79
-3.70
-2.40
-1.01
0.35
1.56
2.51
3.14
3.49
3.69
3.95
4.45
5.28
6.37
7.59
8.79
9.89
10.86
11.72
12.47
13.08
13.50
13.69
13.58
13.12
12.25
10.95
9.26
7.30
5.21
3.13
1.13
-0.75
-2.47
-3.96
-5.19
-6.14
-6.93
-7.72
-8.70
-9.91
-11.21
-12.35
-13.05
-13.18
-12.76
-11.97
-11.01
-10.03
-9.08
-8.13
-7.14
-6.09
-5.00
-3.87
-2.67
-1.33
0.13
1.63
2.99
3.96
4.36
4.19
3.56
2.71
1.84
1.06
0.37
-0.26
-0.83
-1.26
-1.45
-1.33
-0.90
-0.28
0.33
0.79
1.01
1.03
0.96
0.91
0.97
1.16
1.45
1.76
1.99
2.05
1.86
1.38
0.62
-0.34
-1.35
-2.27
-2.97
-3.35
-3.40
-3.12
-2.57
-1.82
-1.02
-0.29
0.24
0.53
0.64
0.72
0.88
1.18
1.59
1.99
2.31
2.51
2.62
2.70
2.75
2.76
2.65
2.36
1.90
1.33
0.73
0.16
-0.35
-0.81
-1.21
-1.50
-1.64
-1.56
-1.27
-0.85
-0.42
-0.11
0.01
-0.10
-0.37
-0.72
-1.11
-1.52
-2.00
-2.60
-3.34
-4.11
-4.76
-5.12
-5.11
-4.73
-4.10
-3.37
-2.67
-2.04
-1.48
-0.92
-0.32
0.34
1.03
1.63
2.03
2.11
1.81
1.20
0.40
-0.41
-1.10
-1.61
-1.94
-2.13
-2.20
-2.17
-2.08
-1.98
-1.92
-1.92
-1.94
-1.88
-1.64
-1.16
-0.43
0.47
1.44
2.37
3.23
4.05
4.96
6.05
7.36
8.76
9.99
10.72
10.74
10.02
8.76
7.29
5.90
4.76
3.82
2.95
2.00
0.87
-0.38
-1.67
-2.88
-3.97
-4.92
-5.71
-6.31
-6.64
-6.62
-6.21
-5.43
-4.39
-3.17
-1.89
-0.55
0.83
2.26
3.65
4.89
5.83
6.32
6.32
5.89
5.10
4.08
2.90
1.62
0.31
-0.89
-1.83
-2.35
-2.36
-1.91
-1.15
-0.32
0.39
0.86
1.12
1.26
1.42
1.67
2.01
2.37
2.64
2.70
2.54
2.19
1.73
1.24
0.77
0.32
-0.13
-0.64
-1.20
-1.82
-2.46
-3.09
-3.74
-4.45
-5.34
-6.48
-7.87
-9.43
-10.95
-12.16
-12.79
-12.67
-11.74
-10.10
-7.95
-5.50
-2.99
-0.58
1.63
3.63
5.46
7.19
8.88
10.53
12.01
13.13
13.67
13.48
12.57
11.08
9.28
7.42
5.68
4.11
2.74
1.59
0.70
0.12
-0.13
-0.15
-0.10
-0.17
-0.47
-0.99
-1.59
-2.10
-2.37
-2.39
-2.25
-2.13
-2.22
-2.61
-3.28
-4.13
-5.03
-5.90
-6.71
-7.43
-8.06
-8.53
-8.78
-8.77
-8.52
-8.14
-7.76
-7.49
-7.27
-6.96
-6.38
-5.41
-4.08
-2.59
-1.16
0.03
0.98
1.77
2.56
3.44
4.38
5.28
6.03
6.58
6.96
7.23
7.44
7.58
7.57
7.33
6.81
6.02
5.04
4.00
3.02
2.16
1.48
0.95
0.52
0.14
-0.28
-0.76
-1.31
-1.92
-2.55
-3.16
-3.71
-4.21
-4.64
-5.01
-5.30
-5.53
-5.74
-5.99
-6.30
-6.64
-6.83
-6.68
-6.01
-4.80
-3.14
-1.23
0.71
2.56
4.28
5.85
7.30
8.56
9.58
10.34
10.87
11.20
11.36
11.29
10.91
10.15
9.02
7.60
6.04
4.46
2.94
1.52
0.23
-0.91
-1.87
-2.65
-3.31
-3.94
-4.66
-5.48
-6.36
-7.13
-7.67
-7.87
-7.74
-7.39
-6.89
-6.33
-5.72
-5.03
-4.26
-3.46
-2.68
-1.95
-1.21
-0.37
0.66
1.93
3.36
4.83
6.15
7.16
7.78
8.00
7.87
7.50
7.06
6.71
6.53
6.51
6.53
6.37
5.91
5.13
4.17
3.23
2.47
1.93
1.53
1.12
0.61
-0.05
-0.81
-1.59
-2.34
-3.03
-3.66
-4.21
-4.66
-4.97
-5.10
-5.02
-4.76
-4.41
-4.10
-3.96
-4.04
-4.35
-4.79
-5.27
-5.66
-5.89
-5.92
-5.72
-5.27
-4.59
-3.68
-2.61
-1.45
-0.27
0.83
1.77
2.50
3.00
3.29
3.43
3.49
3.46
3.31
2.98
2.48
1.89
1.32
0.88
0.62
0.47
0.36
0.17
-0.15
-0.56
-1.02
-1.46
-1.84
-2.14
-2.37
-2.55
-2.72
-2.87
-3.00
-3.07
-3.06
-2.99
-2.86
-2.68
-2.39
-1.93
-1.23
-0.28
0.80
1.83
2.63
3.08
3.16
2.97
2.63
2.30
2.06
1.99
2.13
2.49
3.02
3.68
4.37
4.99
5.42
5.60
5.49
5.14
4.59
3.93
3.18
2.37
1.49
0.56
-0.35
-1.18
-1.88
-2.45
-2.91
-3.29
-3.61
-3.86
-4.04
-4.19
-4.37
-4.66
-5.07
-5.52
-5.84
-5.86
-5.45
-4.59
-3.36
-1.95
-0.60
0.50
1.20
1.49
1.45
1.29
1.21
1.34
1.70
2.19
2.62
2.81
2.69
2.25
1.61
0.86
0.11
-0.58
-1.16
-1.61
-1.88
-1.94
-1.78
-1.41
-0.85
-0.13
0.71
1.62
2.53
3.38
4.12
4.68
4.99
4.94
4.48
3.60
2.41
1.10
-0.12
-1.09
-1.74
-2.06
-2.13
-2.00
-1.71
-1.30
-0.83
-0.35
0.10
0.56
1.06
1.65
2.29
2.88
3.33
3.56
3.58
3.46
3.27
3.03
2.73
2.35
1.90
1.45
1.04
0.69
0.38
0.02
-0.42
-0.91
-1.36
-1.69
-1.81
-1.72
-1.46
-1.10
-0.70
-0.34
-0.10
-0.06
-0.27
-0.66
-1.15
-1.62
-1.97
-2.16
-2.19
-2.10
-1.94
-1.75
-1.57
-1.44
-1.35
-1.25
-1.07
-0.76
-0.32
0.18
0.61
0.83
0.81
0.59
0.23
-0.17
-0.56
-0.97
-1.38
-1.77
-2.11
-2.34
-2.43
-2.43
-2.43
-2.51
-2.71
-3.00
-3.27
-3.45
-3.47
-3.37
-3.21
-3.10
-3.08
-3.18
-3.36
-3.55
-3.66
-3.60
-3.32
-2.76
-1.95
-0.94
0.13
1.10
1.81
2.18
2.25
2.16
2.08
2.17
2.44
2.80
3.11
3.24
3.12
2.79
2.29
1.68
1.00
0.32
-0.24
-0.56
-0.55
-0.24
0.20
0.54
0.62
0.42
0.09
-0.19
-0.26
-0.08
0.24
0.59
0.84
0.93
0.83
0.53
0.03
-0.59
-1.22
-1.67
-1.80
-1.54
-0.97
-0.22
0.55
1.21
1.72
2.08
2.32
2.46
2.57
2.68
2.85
3.09
3.37
3.59
3.68
3.61
3.40
3.13
2.88
2.69
2.52
2.31
1.98
1.50
0.90
0.26
-0.34
-0.83
-1.19
-1.47
-1.73
-1.99
-2.20
-2.27
-2.09
-1.66
-1.06
-0.44
0.06
0.37
0.52
0.55
0.52
0.45
0.35
0.28
0.37
0.72
1.37
2.24
3.12
3.79
4.10
4.02
3.67
3.19
2.72
2.32
1.98
1.65
1.27
0.79
0.20
-0.49
-1.18
-1.77
-2.16
-2.32
-2.29
-2.20
-2.20
-2.36
-2.67
-3.05
-3.40
-3.67
-3.86
-4.04
-4.25
-4.50
-4.77
-5.00
-5.16
-5.25
-5.25
-5.15
-4.89
-4.42
-3.67
-2.64
-1.44
-0.24
0.74
1.35
1.55
1.42
1.15
0.95
0.95
1.17
1.57
1.99
2.29
2.34
2.07
1.53
0.80
0.00
-0.73
-1.32
-1.73
-2.00
-2.19
-2.37
-2.57
-2.77
-2.93
-3.01
-3.02
-3.01
-3.07
-3.27
-3.60
-4.02
-4.40
-4.59
-4.50
-4.07
-3.33
-2.37
-1.34
-0.38
0.38
0.91
1.26
1.54
1.85
2.23
2.63
2.95
3.13
3.14
3.06
2.97
2.90
2.81
2.61
2.22
1.67
1.05
0.52
0.20
0.13
0.25
0.42
0.57
0.61
0.55
0.42
0.22
-0.04
-0.37
-0.80
-1.33
-1.91
-2.45
-2.85
-2.99
-2.83
-2.39
-1.75
-1.01
-0.26
0.42
1.00
1.50
1.91
2.23
2.44
2.53
2.53
2.45
2.33
2.20
2.04
1.83
1.58
1.30
1.03
0.82
0.70
0.67
0.70
0.76
0.83
0.92
1.04
1.15
1.24
1.26
1.19
1.07
0.94
0.85
0.85
0.95
1.15
1.46
1.87
2.37
2.93
3.48
3.92
4.15
4.13
3.90
3.55
3.18
2.89
2.62
2.24
1.61
0.64
-0.61
-1.94
-3.11
-3.93
-4.31
-4.28
-3.93
-3.30
-2.44
-1.32
0.03
1.53
3.05
4.45
5.64
6.62
7.49
8.37
9.32
10.33
11.25
11.86
12.00
11.59
10.66
9.35
7.79
6.08
4.28
2.41
0.56
-1.10
-2.37
-3.08
-3.16
-2.72
-1.96
-1.14
-0.44
0.03
0.28
0.35
0.31
0.15
-0.12
-0.51
-1.00
-1.52
-1.99
-2.40
-2.82
-3.35
-4.12
-5.16
-6.38
-7.56
-8.50
-9.03
-9.13
-8.90
-8.55
-8.30
-8.30
-8.62
-9.25
-10.06
-10.90
-11.58
-12.00
-12.08
-11.78
-11.05
-9.82
-8.02
-5.62
-2.72
0.48
3.72
6.79
9.55
11.92
13.85
15.22
15.85
15.59
14.42
12.47
10.01
7.38
4.88
2.71
0.92
-0.53
-1.68
-2.61
-3.31
-3.79
-4.01
-3.99
-3.78
-3.50
-3.28
-3.21
-3.32
-3.57
-3.87
-4.16
-4.43
-4.71
-4.97
-5.13
-5.08
-4.68
-3.94
-2.95
-1.90
-0.94
-0.12
0.64
1.48
2.49
3.61
4.72
5.62
6.15
6.21
5.81
4.94
3.68
2.13
0.44
-1.23
-2.74
-3.98
-4.94
-5.63
-6.07
-6.26
-6.16
-5.77
-5.15
-4.45
-3.90
-3.70
-3.97
-4.69
-5.70
-6.76
-7.62
-8.11
-8.17
-7.78
-6.98
-5.87
-4.55
-3.16
-1.84
-0.70
0.20
0.89
1.50
2.20
3.10
4.27
5.64
7.09
8.45
9.55
10.29
10.61
10.50
10.02
9.26
8.36
7.47
6.71
6.14
5.72
5.33
4.85
4.24
3.52
2.84
2.34
2.17
2.35
2.81
3.45
4.16
4.91
5.73
6.66
7.67
8.64
9.38
9.66
9.29
8.17
6.27
3.66
0.44
-3.21
-7.00
-10.59
-13.61
-15.83
-17.18
-17.81
-17.91
-17.67
-17.16
-16.35
-15.22
-13.83
-12.34
-10.93
-9.68
-8.56
-7.42
-6.11
-4.54
-2.75
-0.81
1.16
3.08
4.84
6.31
7.29
7.61
7.17
6.01
4.26
2.20
0.10
-1.79
-3.30
-4.38
-5.04
-5.38
-5.48
-5.37
-5.04
-4.44
-3.54
-2.42
-1.19
-0.00
1.02
1.88
2.63
3.34
4.04
4.67
5.13
5.30
5.14
4.68
4.04
3.36
2.74
2.23
1.81
1.46
1.15
0.89
0.71
0.68
0.78
0.97
1.10
1.06
0.78
0.31
-0.25
-0.79
-1.21
-1.50
-1.72
-1.92
-2.12
-2.21
-2.07
-1.54
-0.55
0.85
2.49
4.16
5.65
6.87
7.82
8.58
9.22
9.81
10.31
10.70
10.91
10.90
10.62
10.00
8.92
7.32
5.20
2.71
0.11
-2.30
-4.28
-5.72
-6.68
-7.32
-7.80
-8.19
-8.48
-8.62
-8.55
-8.30
-7.97
-7.74
-7.73
-7.98
-8.42
-8.86
-9.10
-8.98
-8.42
-7.42
-6.08
-4.49
-2.69
-0.70
1.46
3.79
6.17
8.43
10.31
11.61
12.18
12.00
11.17
9.89
8.36
6.77
5.23
3.83
2.57
1.48
0.59
-0.07
-0.44
-0.51
-0.27
0.23
0.89
1.56
2.06
2.21
1.87
0.98
-0.39
-2.09
-3.92
-5.70
-7.29
-8.64
-9.73
-10.52
-10.96
-11.03
-10.72
-10.08
-9.18
-8.10
-6.90
-5.60
-4.26
-2.93
-1.69
-0.59
0.38
1.23
1.98
2.61
3.10
3.46
3.78
4.18
4.79
5.68
6.80
8.04
9.26
10.38
11.36
12.21
12.89
13.33
13.45
13.15
12.43
11.30
9.85
8.17
6.38
4.60
2.92
1.40
0.08
-1.05
-2.04
-2.96
-3.90
-4.91
-6.05
-7.26
-8.44
-9.43
-10.09
-10.35
-10.25
-9.91
-9.43
-8.85
-8.13
-7.20
-5.96
-4.40
-2.55
-0.51
1.63
3.73
5.63
7.17
8.19
8.56
8.24
7.30
5.88
4.16
2.33
0.52
-1.15
-2.62
-3.84
-4.75
-5.35
-5.65
-5.75
-5.79
-5.88
-6.07
-6.28
-6.43
-6.42
-6.29
-6.15
-6.13
-6.26
-6.44
-6.46
-6.16
-5.42
-4.30
-2.92
-1.40
0.20
1.87
3.59
5.26
6.71
7.76
8.26
8.18
7.54
6.47
5.16
3.76
2.40
1.12
-0.09
-1.32
-2.60
-3.90
-5.12
-6.08
-6.66
-6.80
-6.53
-5.94
-5.08
-3.94
-2.50
-0.72
1.33
3.51
5.59
7.37
8.71
9.54
9.89
9.86
9.58
9.17
8.74
8.37
8.12
8.00
7.95
7.92
7.81
7.55
7.17
6.75
6.43
6.29
6.30
6.38
6.35
6.08
5.51
4.62
3.46
2.11
0.64
-0.86
-2.35
-3.76
-5.05
-6.17
-7.11
-7.82
-8.27
-8.47
-8.49
-8.48
-8.53
-8.72
-8.97
-9.16
-9.15
-8.85
-8.28
-7.52
-6.65
-5.77
-4.90
-4.03
-3.15
-2.20
-1.16
0.02
1.36
2.82
4.32
5.73
6.91
7.76
8.26
8.46
8.43
8.20
7.71
6.87
5.60
3.92
1.99
0.02
-1.77
-3.28
-4.54
-5.62
-6.57
-7.40
-8.07
-8.52
-8.73
-8.76
-8.66
-8.46
-8.12
-7.56
-6.66
-5.41
-3.89
-2.27
-0.77
0.45
1.32
1.90
2.32
2.72
3.13
3.51
3.76
3.80
3.58
3.14
2.58
2.03
1.59
1.32
1.20
1.15
1.03
0.74
0.22
-0.49
-1.29
-2.11
-2.88
-3.58
-4.17
-4.59
-4.76
-4.63
-4.21
-3.60
-2.94
-2.35
-1.88
-1.52
-1.22
-0.93
-0.65
-0.36
-0.09
0.16
0.34
0.39
0.20
-0.30
-1.16
-2.30
-3.52
-4.57
-5.19
-5.23
-4.67
-3.63
-2.30
-0.88
0.50
1.78
2.98
4.13
5.24
6.31
7.26
8.01
8.52
8.78
8.87
8.92
9.06
9.35
9.80
10.30
10.74
11.07
11.25
11.33
11.29
11.07
10.58
9.73
8.52
7.04
5.44
3.86
2.34
0.88
-0.58
-2.08
-3.63
-5.18
-6.70
-8.08
-9.19
-9.88
-10.00
-9.52
-8.50
-7.15
-5.68
-4.31
-3.12
-2.15
-1.39
-0.83
-0.48
-0.34
-0.39
-0.61
-0.95
-1.36
-1.80
-2.19
-2.50
-2.66
-2.70
-2.66
-2.62
-2.57
-2.46
-2.16
-1.51
-0.48
0.89
2.43
3.91
5.13
5.91
6.19
5.93
5.15
3.93
2.44
0.86
-0.60
-1.77
-2.56
-2.97
-3.05
-2.86
-2.48
-1.97
-1.42
-0.90
-0.43
-0.04
0.28
0.55
0.79
0.99
1.11
1.10
0.97
0.74
0.43
0.08
-0.29
-0.70
-1.15
-1.61
-2.04
-2.35
-2.48
-2.43
-2.23
-1.95
-1.68
-1.45
-1.25
-1.07
-0.88
-0.72
-0.63
-0.66
-0.81
-1.02
-1.19
-1.21
-1.01
-0.58
0.04
0.74
1.43
2.02
2.47
2.80
3.06
3.31
3.56
3.77
3.83
3.64
3.12
2.28
1.21
0.03
-1.16
-2.26
-3.25
-4.13
-4.91
-5.56
-6.04
-6.35
-6.51
-6.58
-6.66
-6.77
-6.89
-6.91
-6.76
-6.40
-5.88
-5.30
-4.80
-4.44
-4.19
-3.91
-3.43
-2.66
-1.57
-0.29
1.01
2.20
3.21
4.05
4.82
5.57
6.28
6.91
7.38
7.61
7.59
7.29
6.72
5.89
4.82
3.59
2.30
1.05
-0.05
-0.91
-1.50
-1.79
-1.82
-1.66
-1.43
-1.23
-1.12
-1.05
-0.94
-0.68
-0.26
0.25
0.69
0.91
0.83
0.44
-0.15
-0.80
-1.35
-1.70
-1.78
-1.57
-1.04
-0.23
0.75
1.77
2.64
3.22
3.49
3.51
3.45
3.49
3.74
4.20
4.77
5.28
5.60
5.68
5.54
5.27
4.97
4.68
4.40
4.08
3.67
3.14
2.49
1.75
0.93
0.03
-0.93
-1.89
-2.73
-3.33
-3.61
-3.62
-3.52
-3.51
-3.77
-4.35
-5.14
-5.93
-6.53
-6.82
-6.78
-6.49
-5.98
-5.32
-4.52
-3.62
-2.68
-1.80
-1.02
-0.32
0.35
1.06
1.81
2.53
3.10
3.42
3.44
3.22
2.85
2.42
2.00
1.61
1.26
0.96
0.70
0.50
0.37
0.34
0.42
0.60
0.82
0.99
1.03
0.89
0.62
0.27
-0.09
-0.46
-0.88
-1.39
-2.00
-2.64
-3.17
-3.44
-3.36
-2.97
-2.40
-1.81
-1.34
-1.05
-0.94
-0.94
-0.98
-1.01
-1.00
-0.92
-0.81
-0.68
-0.58
-0.58
-0.70
-0.91
-1.15
-1.32
-1.39
-1.38
-1.37
-1.41
-1.53
-1.68
-1.80
-1.88
-1.94
-2.03
-2.19
-2.40
-2.63
-2.82
-2.99
-3.15
-3.37
-3.63
-3.93
-4.20
-4.40
-4.45
-4.34
-4.04
-3.52
-2.78
-1.81
-0.59
0.90
2.69
4.73
6.90
9.00
10.80
12.17
13.05
13.53
13.69
13.60
13.23
12.52
11.41
9.99
8.40
6.86
5.54
4.46
3.54
2.62
1.59
0.47
-0.63
-1.53
-2.11
-2.35
-2.36
-2.27
-2.21
-2.20
-2.21
-2.12
-1.88
-1.47
-0.95
-0.47
-0.13
-0.05
-0.21
-0.50
-0.74
-0.77
-0.47
0.14
0.92
1.69
2.29
2.59
2.59
2.31
1.83
1.23
0.59
0.01
-0.40
-0.55
-0.43
-0.11
0.28
0.57
0.61
0.37
-0.09
-0.65
-1.17
-1.55
-1.81
-2.02
-2.27
-2.62
-3.08
-3.60
-4.13
-4.62
-5.04
-5.35
-5.50
-5.41
-5.05
-4.40
-3.55
-2.56
-1.52
-0.44
0.72
2.02
3.44
4.91
6.28
7.39
8.14
8.52
8.57
8.38
8.00
7.45
6.72
5.76
4.53
3.04
1.32
-0.55
-2.44
-4.18
-5.66
-6.80
-7.64
-8.23
-8.64
-8.89
-8.96
-8.85
-8.57
-8.18
-7.79
-7.48
-7.29
-7.17
-7.05
-6.80
-6.31
-5.49
-4.24
-2.55
-0.42
2.08
4.86
7.77
10.68
13.39
15.67
17.30
18.04
17.77
16.46
14.29
11.54
8.59
5.75
3.21
1.00
-0.95
-2.74
-4.41
-5.93
-7.18
-8.08
-8.62
-8.86
-8.87
-8.71
-8.41
-7.99
-7.49
-6.98
-6.56
-6.25
-6.07
-5.95
-5.85
-5.75
-5.63
-5.50
-5.27
-4.84
-4.09
-2.96
-1.47
0.30
2.25
4.31
6.42
8.53
10.52
12.28
13.64
14.49
14.76
14.46
13.66
12.43
10.88
9.06
7.03
4.87
2.70
0.75
-0.78
-1.66
-1.81
-1.29
-0.33
0.71
1.47
1.64
1.12
-0.02
-1.58
-3.31
-4.98
-6.45
-7.69
-8.75
-9.65
-10.41
-10.93
-11.07
-10.69
-9.74
-8.28
-6.52
-4.68
-2.96
-1.46
-0.17
0.97
2.02
3.00
3.85
4.50
4.86
4.83
4.37
3.50
2.37
1.20
0.19
-0.52
-0.94
-1.19
-1.43
-1.74
-2.08
-2.36
-2.49
-2.45
-2.35
-2.29
-2.40
-2.70
-3.18
-3.76
-4.40
-5.09
-5.78
-6.44
-6.98
-7.27
-7.20
-6.70
-5.75
-4.41
-2.75
-0.87
1.14
3.18
5.17
7.06
8.78
10.20
11.21
11.68
11.49
10.62
9.14
7.18
4.95
2.62
0.39
-1.59
-3.19
-4.28
-4.88
-5.06
-5.03
-5.01
-5.17
-5.55
-6.04
-6.47
-6.67
-6.57
-6.18
-5.64
-5.04
-4.50
-4.03
-3.68
-3.43
-3.29
-3.22
-3.15
-2.96
-2.57
-1.94
-1.12
-0.27
0.42
0.81
0.85
0.61
0.26
0.01
-0.01
0.22
0.58
0.93
1.13
1.16
1.06
0.92
0.78
0.63
0.45
0.26
0.08
-0.02
0.00
0.13
0.30
0.44
0.49
0.46
0.35
0.19
-0.04
-0.38
-0.83
-1.36
-1.86
-2.22
-2.31
-2.13
-1.70
-1.11
-0.43
0.28
1.01
1.75
2.46
3.10
3.60
3.95
4.15
4.21
4.15
3.93
3.55
2.98
2.25
1.43
0.56
-0.30
-1.15
-2.01
-2.89
-3.80
-4.70
-5.50
-6.14
-6.54
-6.74
-6.81
-6.86
-6.98
-7.15
-7.30
-7.32
-7.16
-6.81
-6.35
-5.86
-5.37
-4.85
-4.23
-3.44
-2.45
-1.27
0.07
1.52
3.07
4.79
6.81
9.27
12.24
15.67
19.35
23.00
26.38
29.31
31.71
33.50
34.53
34.59
33.47
31.11
27.63
23.34
18.64
13.92
9.45
5.41
1.88
-1.13
-3.66
-5.77
-7.53
-8.99
-10.24
-11.34
-12.36
-13.38
-14.45
-15.52
-16.46
-17.09
-17.26
-16.89
-16.02
-14.82
-13.45
-12.03
-10.61
-9.19
-7.77
-6.37
-5.02
-3.73
-2.45
-1.13
0.29
1.74
3.08
4.11
4.68
4.77
4.48
3.96
3.34
2.67
1.91
1.02
-0.00
-1.09
-2.14
-3.07
-3.82
-4.38
-4.76
-4.95
-4.95
-4.78
-4.54
-4.37
-4.40
-4.71
-5.22
-5.79
-6.24
-6.44
-6.37
-6.09
-5.69
-5.22
-4.72
-4.14
-3.49
-2.80
-2.16
-1.69
-1.42
-1.30
-1.21
-1.00
-0.54
0.14
0.95
1.74
2.40
2.90
3.31
3.72
4.17
4.69
5.21
5.68
6.06
6.37
6.64
6.85
6.95
6.85
6.45
5.71
4.70
3.55
2.40
1.36
0.47
-0.30
-0.97
-1.52
-1.85
-1.86
-1.50
-0.81
0.09
1.02
1.82
2.35
2.57
2.49
2.17
1.69
1.15
0.63
0.18
-0.23
-0.65
-1.11
-1.63
-2.19
-2.72
-3.17
-3.50
-3.72
-3.85
-3.93
-3.99
-4.06
-4.19
-4.37
-4.59
-4.83
-5.02
-5.15
-5.22
-5.24
-5.24
-5.18
-4.99
-4.61
-4.00
-3.16
-2.12
-0.94
0.32
1.61
2.86
3.95
4.79
5.26
5.33
5.01
4.34
3.41
2.30
1.14
0.02
-0.91
-1.56
-1.86
-1.83
-1.55
-1.11
-0.59
0.02
0.76
1.73
2.97
4.44
6.00
7.38
8.35
8.71
8.40
7.48
6.11
4.47
2.71
0.95
-0.71
-2.15
-3.22
-3.74
-3.55
-2.57
-0.85
1.46
4.08
6.69
8.97
10.65
11.55
11.56
10.70
9.09
6.90
4.34
1.60
-1.15
-3.76
-6.06
-7.90
-9.13
-9.71
-9.67
-9.14
-8.25
-7.15
-5.90
-4.53
-3.08
-1.57
-0.05
1.38
2.62
3.62
4.34
4.81
5.07
5.20
5.22
5.19
5.20
5.38
5.84
6.67
7.81
9.13
10.43
11.52
12.29
12.74
12.92
12.92
12.85
12.78
12.74
12.68
12.50
12.10
11.47
10.70
9.97
9.45
9.22
9.15
9.00
8.46
7.32
5.50
3.05
0.08
-3.31
-7.03
-10.99
-15.10
-19.24
-23.25
-26.97
-30.20
-32.71
-34.28
-34.69
-33.86
-31.84
-28.87
-25.30
-21.50
-17.80
-14.41
-11.44
-8.92
-6.81
-5.04
-3.52
-2.07
-0.50
1.33
3.51
6.01
8.63
11.12
13.16
14.50
15.01
14.73
13.79
12.39
10.67
8.71
6.49
4.03
1.41
-1.15
-3.42
-5.21
-6.48
-7.36
-8.07
-8.85
-9.84
-10.99
-12.07
-12.77
-12.73
-11.68
-9.51
-6.27
-2.18
2.41
7.11
11.56
15.48
18.66
20.94
22.18
22.33
21.39
19.52
16.92
13.85
10.57
7.26
4.08
1.14
-1.48
-3.67
-5.40
-6.62
-7.39
-7.78
-7.93
-7.97
-8.00
-8.04
-8.10
-8.17
-8.23
-8.30
-8.41
-8.56
-8.69
-8.74
-8.63
-8.29
-7.70
-6.78
-5.46
-3.61
-1.16
1.88
5.35
8.96
12.36
15.25
17.45
18.82
19.32
18.87
17.45
15.13
12.14
8.85
5.72
3.12
1.25
0.05
-0.67
-1.17
-1.65
-2.17
-2.70
-3.13
-3.42
-3.58
-3.72
-4.00
-4.59
-5.58
-6.94
-8.52
-10.11
-11.45
-12.37
-12.72
-12.46
-11.61
-10.23
-8.46
-6.47
-4.47
-2.65
-1.18
-0.15
0.44
0.66
0.63
0.46
0.26
0.05
-0.16
-0.42
-0.77
-1.24
-1.86
-2.62
-3.50
-4.48
-5.51
-6.57
-7.62
-8.60
-9.40
-9.91
-9.99
-9.55
-8.61
-7.23
-5.60
-3.92
-2.41
-1.25
-0.53
-0.26
-0.33
-0.58
-0.80
-0.83
-0.55
0.06
0.93
1.97
3.08
4.15
5.12
5.95
6.62
7.15
7.58
7.94
8.27
8.55
8.69
8.58
8.15
7.40
6.37
5.22
4.04
2.93
1.89
0.97
0.14
-0.56
-1.10
-1.50
-1.77
-1.93
-1.97
-1.82
-1.45
-0.88
-0.20
0.44
0.87
0.94
0.61
-0.15
-1.30
-2.77
-4.47
-6.27
-7.96
-9.30
-10.07
-10.13
-9.49
-8.28
-6.78
-5.23
-3.85
-2.71
-1.79
-0.99
-0.26
0.40
0.89
1.11
0.97
0.44
-0.47
-1.74
-3.37
-5.34
-7.54
-9.77
-11.73
-13.12
-13.71
-13.38
-12.21
-10.36
-8.04
-5.47
-2.77
-0.07
2.56
5.08
7.47
9.77
12.00
14.20
16.32
18.27
19.89
21.06
21.68
21.73
21.22
20.18
18.65
16.70
14.38
11.84
9.24
6.77
4.59
2.78
1.39
0.45
-0.02
-0.05
0.27
0.77
1.19
1.31
1.02
0.37
-0.44
-1.18
-1.67
-1.91
-2.04
-2.25
-2.67
-3.30
-4.02
-4.62
-4.99
-5.10
-5.05
-5.04
-5.23
-5.67
-6.29
-6.91
-7.35
-7.48
-7.29
-6.86
-6.29
-5.65
-4.91
-4.00
-2.87
-1.55
-0.14
1.21
2.37
3.29
4.00
4.58
5.05
5.43
5.71
5.89
6.02
6.10
6.12
5.98
5.60
4.89
3.89
2.75
1.64
0.73
0.11
-0.24
-0.40
-0.48
-0.58
-0.81
-1.22
-1.81
-2.54
-3.33
-4.08
-4.75
-5.33
-5.84
-6.30
-6.66
-6.86
-6.82
-6.52
-6.00
-5.32
-4.55
-3.69
-2.72
-1.63
-0.45
0.70
1.64
2.26
2.54
2.58
2.54
2.57
2.74
3.00
3.25
3.38
3.34
3.12
2.73
2.20
1.55
0.79
0.01
-0.71
-1.26
-1.59
-1.72
-1.75
-1.80
-1.95
-2.17
-2.39
-2.50
-2.43
-2.21
-1.97
-1.84
-1.93
-2.25
-2.71
-3.13
-3.35
-3.25
-2.79
-1.99
-0.92
0.36
1.76
3.23
4.65
5.88
6.79
7.31
7.44
7.27
6.93
6.52
6.07
5.56
4.93
4.19
3.36
2.53
1.76
1.07
0.43
-0.14
-0.61
-0.92
-1.00
-0.83
-0.52
-0.20
-0.02
-0.06
-0.29
-0.59
-0.84
-1.01
-1.14
-1.33
-1.65
-2.12
-2.66
-3.19
-3.63
-4.00
-4.33
-4.62
-4.84
-4.88
-4.63
-4.08
-3.28
-2.40
-1.54
-0.76
-0.02
0.72
1.48
2.20
2.78
3.17
3.36
3.41
3.38
3.27
3.05
2.68
2.17
1.57
0.95
0.37
-0.17
-0.67
-1.15
-1.56
-1.84
-1.95
-1.93
-1.85
-1.80
-1.84
-1.96
-2.09
-2.17
-2.13
-1.95
-1.61
-1.13
-0.53
0.16
0.87
1.58
2.23
2.82
3.36
3.85
4.29
4.64
4.89
5.03
5.07
5.03
4.91
4.69
4.32
3.76
3.01
2.08
1.04
-0.03
-1.08
-2.04
-2.88
-3.62
-4.26
-4.83
-5.32
-5.72
-6.00
-6.10
-6.05
-5.87
-5.63
-5.39
-5.18
-4.96
-4.66
-4.22
-3.58
-2.76
-1.79
-0.75
0.32
1.38
2.40
3.34
4.19
4.93
5.58
6.13
6.55
6.81
6.86
6.74
6.54
6.43
6.55
6.94
7.52
8.12
8.54
8.63
8.33
7.66
6.66
5.36
3.79
1.95
-0.11
-2.34
-4.68
-7.06
-9.38
-11.51
-13.28
-14.50
-15.06
-14.95
-14.24
-13.07
-11.56
-9.74
-7.62
-5.24
-2.72
-0.26
1.91
3.61
4.78
5.47
5.78
5.82
5.67
5.41
5.12
4.85
4.65
4.44
4.14
3.63
2.88
1.96
1.00
0.15
-0.52
-0.96
-1.20
-1.23
-1.07
-0.72
-0.24
0.28
0.67
0.84
0.74
0.47
0.13
-0.18
-0.40
-0.57
-0.78
-1.10
-1.54
-2.06
-2.58
-3.00
-3.24
-3.23
-2.94
-2.38
-1.58
-0.63
0.35
1.23
1.94
2.53
3.04
3.55
4.07
4.52
4.84
4.96
4.88
4.64
4.29
3.82
3.25
2.56
1.84
1.16
0.62
0.27
0.05
-0.12
-0.32
-0.61
-0.96
-1.35
-1.74
-2.14
-2.54
-2.97
-3.45
-3.99
-4.58
-5.20
-5.76
-6.12
-6.19
-5.89
-5.26
-4.42
-3.53
-2.71
-2.00
-1.36
-0.73
-0.07
0.57
1.11
1.43
1.50
1.32
0.98
0.54
0.07
-0.41
-0.93
-1.50
-2.12
-2.75
-3.32
-3.76
-4.03
-4.17
-4.24
-4.32
-4.42
-4.47
-4.36
-4.00
-3.38
-2.62
-1.90
-1.38
-1.09
-0.90
-0.58
0.10
1.24
2.76
4.45
6.05
7.40
8.40
9.03
9.29
9.13
8.52
7.48
6.17
4.87
3.91
3.52
3.70
4.26
4.83
5.04
4.68
3.75
2.43
0.99
-0.33
-1.42
-2.30
-3.06
-3.78
-4.45
-5.03
-5.46
-5.78
-6.10
-6.57
-7.34
-8.41
-9.71
-11.08
-12.38
-13.52
-14.44
-15.12
-15.54
-15.69
-15.58
-15.28
-14.82
-14.27
-13.64
-12.90
-12.04
-11.09
-10.12
-9.30
-8.77
-8.65
-8.99
-9.78
-11.01
-12.63
-14.59
-16.80
-19.09
-21.15
-22.63
-23.12
-22.27
-19.84
-15.72
-10.01
-2.98
4.94
13.16
21.05
27.99
33.49
37.26
39.29
39.78
39.07
37.53
35.41
32.84
29.84
26.41
22.66
18.77
14.98
11.53
8.60
6.24
4.45
3.18
2.35
1.86
1.62
1.52
1.47
1.42
1.36
1.32
1.29
1.29
1.30
1.32
1.33
1.35
1.36
1.32
1.18
0.91
0.51
-0.00
-0.57
-1.17
-1.75
-2.30
-2.80
-3.27
-3.68
-4.07
-4.43
-4.79
-5.14
-5.49
-5.80
-6.06
-6.23
-6.29
-6.20
-5.90
-5.37
-4.63
-3.70
-2.63
-1.49
-0.31
0.90
2.10
3.27
4.28
5.01
5.31
5.14
4.54
3.69
2.78
2.01
1.49
1.25
1.27
1.51
1.89
2.33
2.70
2.88
2.79
2.42
1.87
1.27
0.73
0.29
-0.09
-0.49
-0.96
-1.52
-2.12
-2.68
-3.08
-3.19
-2.94
-2.29
-1.27
0.01
1.38
2.71
3.88
4.84
5.58
6.13
6.48
6.64
6.59
6.33
5.92
5.45
5.00
4.59
4.20
3.75
3.18
2.48
1.73
1.05
0.56
0.28
0.17
0.13
0.12
0.15
0.27
0.50
0.77
0.97
0.94
0.62
0.05
-0.64
-1.26
-1.67
-1.76
-1.47
-0.81
0.18
1.45
2.89
4.33
5.61
6.58
7.14
7.28
7.09
6.69
6.18
5.65
5.12
4.57
3.99
3.38
2.81
2.32
1.94
1.62
1.29
0.90
0.43
-0.06
-0.52
-0.93
-1.29
-1.62
-1.92
-2.22
-2.50
-2.80
-3.17
-3.63
-4.18
-4.75
-5.24
-5.54
-5.60
-5.45
-5.14
-4.71
-4.16
-3.47
-2.64
-1.77
-0.97
-0.35
0.06
0.36
0.70
1.19
1.85
2.57
3.18
3.60
3.79
3.83
3.77
3.62
3.32
2.85
2.28
1.76
1.45
1.37
1.43
1.42
1.20
0.70
0.00
-0.76
-1.51
-2.25
-3.02
-3.83
-4.60
-5.22
-5.61
-5.75
-5.76
-5.80
-5.94
-6.15
-6.30
-6.19
-5.68
-4.77
-3.57
-2.26
-1.02
0.04
0.90
1.60
2.22
2.84
3.45
4.04
4.49
4.74
4.74
4.51
4.13
3.70
3.28
2.91
2.59
2.29
2.01
1.74
1.50
1.28
1.08
0.89
0.69
0.44
0.13
-0.29
-0.84
-1.48
-2.14
-2.71
-3.11
-3.35
-3.54
-3.79
-4.15
-4.57
-4.93
-5.07
-4.91
-4.45
-3.76
-2.94
-2.08
-1.22
-0.38
0.37
0.98
1.35
1.43
1.24
0.88
0.49
0.15
-0.11
-0.29
-0.42
-0.51
-0.51
-0.37
-0.04
0.44
1.00
1.52
1.91
2.11
2.14
2.02
1.76
1.40
0.99
0.62
0.35
0.24
0.26
0.29
0.24
0.01
-0.35
-0.72
-0.97
-1.00
-0.82
-0.49
-0.09
0.31
0.68
1.00
1.21
1.26
1.16
0.95
0.73
0.56
0.45
0.31
0.04
-0.39
-0.95
-1.49
-1.88
-2.06
-2.06
-1.99
-1.97
-2.05
-2.18
-2.25
-2.14
-1.79
-1.23
-0.56
0.07
0.50
0.64
0.51
0.21
-0.11
-0.31
-0.29
-0.05
0.39
0.99
1.71
2.54
3.47
4.46
5.44
6.34
7.04
7.44
7.51
7.25
6.78
6.23
5.75
5.40
5.17
4.97
4.74
4.49
4.30
4.26
4.42
4.71
4.99
5.11
5.00
4.68
4.19
3.58
2.85
1.94
0.86
-0.36
-1.63
-2.84
-3.95
-4.95
-5.89
-6.86
-7.89
-8.94
-9.90
-10.62
-11.00
-11.02
-10.75
-10.36
-10.01
-9.82
-9.79
-9.85
-9.89
-9.83
-9.67
-9.48
-9.27
-9.04
-8.69
-8.10
-7.17
-5.91
-4.39
-2.79
-1.26
0.12
1.34
2.45
3.47
4.40
5.17
5.70
6.00
6.09
6.03
5.84
5.52
5.03
4.35
3.54
2.75
2.13
1.82
1.84
2.15
2.69
3.39
4.21
5.11
6.01
6.83
7.48
7.91
8.11
8.09
7.87
7.47
6.91
6.23
5.45
4.60
3.69
2.70
1.66
0.59
-0.43
-1.32
-2.04
-2.60
-3.03
-3.38
-3.72
-4.09
-4.50
-4.98
-5.52
-6.09
-6.65
-7.14
-7.54
-7.81
-7.97
-7.99
-7.86
-7.59
-7.19
-6.68
-6.07
-5.33
-4.43
-3.31
-1.98
-0.49
1.04
2.47
3.68
4.58
5.18
5.52
5.66
5.65
5.51
5.22
4.76
4.13
3.33
2.40
1.42
0.47
-0.37
-1.07
-1.59
-1.93
-2.09
-2.07
-1.86
-1.50
-1.10
-0.77
-0.64
-0.76
-1.12
-1.61
-2.09
-2.48
-2.74
-2.88
-2.90
-2.76
-2.37
-1.64
-0.54
0.90
2.56
4.28
5.89
7.28
8.41
9.26
9.88
10.30
10.53
10.59
10.49
10.29
10.07
9.92
9.95
10.26
10.88
11.79
12.89
14.03
15.07
15.89
16.47
16.88
17.21
17.51
17.80
18.02
18.08
17.85
17.24
16.15
14.48
12.19
9.28
5.88
2.18
-1.52
-4.95
-7.87
-10.19
-12.00
-13.51
-15.01
-16.71
-18.66
-20.72
-22.63
-24.14
-25.11
-25.57
-25.67
-25.56
-25.33
-24.96
-24.42
-23.71
-22.89
-22.05
-21.28
-20.57
-19.84
-19.05
-18.17
-17.28
-16.50
-15.88
-15.42
-15.06
-14.67
-14.15
-13.43
-12.47
-11.26
-9.82
-8.23
-6.61
-5.09
-3.74
-2.53
-1.34
-0.08
1.30
2.69
3.88
4.64
4.83
4.43
3.55
2.38
1.12
-0.10
-1.17
-2.05
-2.69
-3.01
-2.87
-2.11
-0.50
2.19
6.17
11.55
18.27
26.04
34.34
42.48
49.63
55.04
58.11
58.54
56.33
51.74
45.10
36.79
27.11
16.36
4.89
-6.80
-18.10
-28.35
-36.99
-43.67
-48.23
-50.69
-51.10
-49.50
-45.92
-40.44
-33.26
-24.80
-15.63
-6.47
2.00
9.20
14.78
18.60
20.74
21.34
20.63
18.83
16.19
13.08
9.93
7.21
5.29
4.29
4.06
4.25
4.40
4.13
3.24
1.72
-0.30
-2.60
-4.88
-6.82
-8.09
-8.40
-7.63
-5.87
-3.47
-0.91
1.32
2.85
3.55
3.45
2.72
1.57
0.14
-1.46
-3.14
-4.79
-6.31
-7.63
-8.72
-9.66
-10.51
-11.31
-12.02
-12.55
-12.83
-12.83
-12.64
-12.37
-12.12
-11.88
-11.56
-11.01
-10.17
-9.07
-7.87
-6.74
-5.79
-5.04
-4.45
-3.94
-3.46
-2.97
-2.49
-2.03
-1.57
-1.00
-0.18
1.11
3.07
5.86
9.52
13.95
18.93
24.09
29.00
33.21
36.35
38.17
38.57
37.67
35.69
32.97
29.81
26.45
23.06
19.69
16.36
13.04
9.73
6.47
3.33
0.46
-1.96
-3.77
-4.89
-5.36
-5.38
-5.20
-5.10
-5.24
-5.69
-6.36
-7.08
-7.55
-7.43
-6.36
-4.15
-0.89
3.00
6.81
9.77
11.23
10.86
8.69
5.01
0.23
-5.17
-10.82
-16.34
-21.39
-25.65
-28.83
-30.78
-31.42
-30.86
-29.31
-27.05
-24.37
-21.48
-18.56
-15.67
-12.87
-10.21
-7.76
-5.60
-3.79
-2.32
-1.14
-0.18
0.59
1.09
1.18
0.71
-0.42
-2.13
-4.23
-6.44
-8.50
-10.24
-11.61
-12.64
-13.38
-13.88
-14.19
-14.33
-14.31
-14.03
-13.31
-11.92
-9.69
-6.61
-2.89
1.13
5.08
8.71
11.92
14.72
17.17
19.24
20.86
21.96
22.51
22.57
22.26
21.68
20.89
19.87
18.57
17.00
15.22
13.30
11.36
9.45
7.55
5.67
3.83
2.12
0.67
-0.47
-1.30
-1.93
-2.44
-2.91
-3.26
-3.43
-3.32
-2.96
-2.40
-1.76
-1.09
-0.39
0.39
1.27
2.20
3.07
3.71
4.01
3.91
3.47
2.85
2.22
1.70
1.32
1.05
0.77
0.42
-0.01
-0.48
-0.93
-1.36
-1.82
-2.40
-3.12
-3.89
-4.53
-4.85
-4.80
-4.50
-4.25
-4.28
-4.71
-5.38
-6.00
-6.22
-5.85
-4.90
-3.55
-2.07
-0.66
0.55
1.54
2.34
2.98
3.49
3.89
4.17
4.34
4.43
4.43
4.32
4.07
3.69
3.17
2.55
1.85
1.08
0.26
-0.59
-1.40
-2.09
-2.59
-2.86
-2.94
-2.91
-2.86
-2.87
-2.94
-3.09
-3.29
-3.50
-3.65
-3.63
-3.30
-2.56
-1.39
0.09
1.68
3.19
4.45
5.39
6.00
6.32
6.37
6.20
5.84
5.40
4.97
4.60
4.28
3.93
3.45
2.76
1.85
0.82
-0.19
-1.06
-1.69
-2.08
-2.26
-2.32
-2.35
-2.44
-2.63
-2.94
-3.34
-3.79
-4.21
-4.53
-4.69
-4.68
-4.49
-4.20
-3.89
-3.60
-3.37
-3.16
-2.92
-2.59
-2.13
-1.55
-0.86
-0.10
0.69
1.43
2.03
2.43
2.57
2.51
2.36
2.24
2.25
2.37
2.53
2.62
2.59
2.47
2.30
2.12
1.93
1.64
1.22
0.68
0.09
-0.45
-0.85
-1.13
-1.33
-1.52
-1.76
-2.04
-2.27
-2.37
-2.26
-1.95
-1.49
-1.02
-0.70
-0.60
-0.74
-1.01
-1.30
-1.50
-1.57
-1.54
-1.49
-1.46
-1.49
-1.63
-1.93
-2.46
-3.24
-4.19
-5.14
-5.89
-6.30
-6.33
-6.08
-5.67
-5.20
-4.70
-4.16
-3.61
-3.08
-2.65
-2.35
-2.16
-1.99
-1.76
-1.46
-1.11
-0.75
-0.38
0.03
0.53
1.13
1.81
2.48
3.09
3.62
4.11
4.59
5.06
5.53
5.95
6.29
6.50
6.56
6.43
6.12
5.64
5.00
4.26
3.44
2.56
1.62
0.64
-0.35
-1.33
-2.25
-3.09
-3.81
-4.38
-4.76
-4.93
-4.90
-4.74
-4.52
-4.29
-4.05
-3.73
-3.29
-2.66
-1.85
-0.88
0.20
1.35
2.49
3.55
4.44
5.10
5.53
5.81
6.02
6.23
6.41
6.46
6.25
5.70
4.87
3.89
2.92
2.10
1.49
1.11
0.94
0.95
1.08
1.27
1.45
1.60
1.72
1.87
2.08
2.32
2.51
2.54
2.36
2.03
1.64
1.32
1.09
0.90
0.69
0.40
0.08
-0.19
-0.30
-0.14
0.31
1.02
1.92
2.89
3.78
4.42
4.70
4.60
4.17
3.58
2.96
2.41
1.95
1.54
1.13
0.73
0.37
0.08
-0.14
-0.34
-0.56
-0.85
-1.20
-1.55
-1.83
-1.99
-2.03
-1.97
-1.86
-1.73
-1.61
-1.54
-1.57
-1.76
-2.16
-2.77
-3.54
-4.34
-4.99
-5.32
-5.22
-4.70
-3.86
-2.87
-1.88
-0.99
-0.22
0.49
1.18
1.89
2.58
3.19
3.72
4.15
4.52
4.84
5.07
5.15
5.01
4.65
4.15
3.60
3.07
2.58
2.05
1.41
0.64
-0.23
-1.08
-1.81
-2.34
-2.68
-2.92
-3.15
-3.44
-3.81
-4.25
-4.73
-5.19
-5.59
-5.85
-5.88
-5.61
-5.01
-4.17
-3.24
-2.39
-1.74
-1.31
-1.02
-0.79
-0.58
-0.40
-0.31
-0.34
-0.46
-0.60
-0.70
-0.70
-0.61
-0.48
-0.34
-0.24
-0.17
-0.12
-0.03
0.12
0.34
0.62
0.87
1.00
0.92
0.62
0.14
-0.47
-1.14
-1.84
-2.54
-3.17
-3.59
-3.65
-3.24
-2.36
-1.13
0.21
1.45
2.44
3.13
3.58
3.90
4.15
4.39
4.66
4.96
5.26
5.53
5.75
5.85
5.83
5.68
5.45
5.18
4.95
4.80
4.72
4.66
4.50
4.11
3.41
2.35
0.96
-0.67
-2.43
-4.18
-5.79
-7.19
-8.32
-9.16
-9.75
-10.14
-10.36
-10.39
-10.16
-9.57
-8.60
-7.30
-5.79
-4.24
-2.78
-1.48
-0.35
0.62
1.45
2.16
2.73
3.16
3.43
3.56
3.51
3.28
2.91
2.42
1.90
1.42
1.03
0.75
0.57
0.43
0.26
0.01
-0.38
-0.90
-1.46
-1.97
-2.35
-2.59
-2.74
-2.92
-3.25
-3.79
-4.51
-5.31
-6.03
-6.50
-6.58
-6.17
-5.26
-3.93
-2.32
-0.62
0.98
2.33
3.35
4.04
4.46
4.71
4.87
4.99
5.10
5.20
5.25
5.20
4.97
4.46
3.65
2.55
1.24
-0.16
-1.55
-2.86
-4.03
-4.97
-5.58
-5.81
-5.67
-5.28
-4.75
-4.15
-3.46
-2.58
-1.49
-0.28
0.84
1.64
1.98
1.89
1.51
1.04
0.63
0.34
0.15
0.01
-0.09
-0.10
0.05
0.42
1.01
1.71
2.34
2.73
2.76
2.47
2.01
1.53
1.12
0.79
0.42
-0.07
-0.69
-1.37
-1.99
-2.45
-2.67
-2.67
-2.43
-1.97
-1.30
-0.50
0.27
0.86
1.13
1.07
0.80
0.50
0.35
0.41
0.67
1.06
1.50
1.99
2.53
3.18
3.91
4.66
5.30
5.70
5.81
5.68
5.39
5.04
4.67
4.21
3.55
2.63
1.49
0.28
-0.80
-1.60
-2.12
-2.45
-2.71
-3.00
-3.37
-3.81
-4.30
-4.79
-5.24
-5.58
-5.74
-5.69
-5.47
-5.20
-4.99
-4.88
-4.82
-4.72
-4.46
-4.00
-3.36
-2.57
-1.68
-0.68
0.43
1.62
2.83
3.96
4.91
5.62
6.11
6.41
6.57
6.60
6.49
6.20
5.68
4.94
4.01
3.00
1.96
0.97
0.06
-0.74
-1.38
-1.82
-2.03
-2.02
-1.89
-1.75
-1.70
-1.78
-1.97
-2.19
-2.38
-2.53
-2.61
-2.65
-2.67
-2.65
-2.53
-2.28
-1.81
-1.09
-0.13
1.02
2.25
3.42
4.42
5.17
5.65
5.86
5.84
5.62
5.22
4.64
3.87
2.93
1.86
0.71
-0.44
-1.53
-2.50
-3.29
-3.86
-4.18
-4.25
-4.15
-3.93
-3.69
-3.46
-3.25
-3.03
-2.81
-2.62
-2.52
-2.54
-2.65
-2.79
-2.88
-2.89
-2.84
-2.81
-2.83
-2.85
-2.76
-2.37
-1.57
-0.36
1.12
2.65
3.97
4.90
5.37
5.45
5.22
4.80
4.28
3.71
3.14
2.57
2.01
1.44
0.84
0.16
-0.55
-1.24
-1.79
-2.10
-2.10
-1.82
-1.35
-0.81
-0.32
0.06
0.30
0.41
0.43
0.39
0.33
0.30
0.29
0.27
0.17
-0.09
-0.53
-1.10
-1.65
-1.98
-1.90
-1.30
-0.15
1.45
3.29
5.08
6.55
7.49
7.83
7.64
7.07
6.33
5.53
4.72
3.87
2.93
1.90
0.80
-0.29
-1.26
-2.04
-2.60
-3.00
-3.28
-3.54
-3.81
-4.07
-4.29
-4.40
-4.36
-4.20
-3.97
-3.79
-3.71
-3.73
-3.79
-3.76
-3.54
-3.08
-2.39
-1.56
-0.67
0.25
1.19
2.15
3.08
3.90
4.49
4.78
4.81
4.66
4.46
4.32
4.24
4.17
4.05
3.80
3.39
2.83
2.15
1.41
0.65
-0.07
-0.71
-1.25
-1.68
-2.03
-2.29
-2.46
-2.51
-2.46
-2.37
-2.34
-2.44
-2.70
-3.07
-3.44
-3.72
-3.84
-3.86
-3.84
-3.78
-3.64
-3.27
-2.59
-1.59
-0.41
0.76
1.73
2.44
2.93
3.30
3.66
4.04
4.40
4.62
4.59
4.22
3.52
2.57
1.49
0.43
-0.53
-1.35
-2.05
-2.62
-3.05
-3.28
-3.25
-2.97
-2.50
-1.98
-1.56
-1.36
-1.42
-1.68
-2.03
-2.35
-2.57
-2.66
-2.66
-2.66
-2.72
-2.88
-3.09
-3.28
-3.33
-3.12
-2.58
-1.74
-0.69
0.44
1.51
2.42
3.12
3.62
3.95
4.18
4.33
4.38
4.26
3.93
3.38
2.63
1.75
0.84
-0.07
-0.92
-1.71
-2.40
-2.92
-3.19
-3.18
-2.90
-2.48
-2.09
-1.85
-1.79
-1.81
-1.78
-1.56
-1.14
-0.62
-0.17
0.07
0.08
-0.03
-0.07
0.11
0.56
1.22
1.94
2.63
3.25
3.84
4.45
5.13
5.81
6.41
6.77
6.79
6.39
5.57
4.40
2.99
1.50
0.06
-1.19
-2.21
-2.99
-3.60
-4.11
-4.58
-4.98
-5.25
-5.30
-5.12
-4.77
-4.38
-4.11
-3.99
-3.98
-3.94
-3.73
-3.32
-2.83
-2.44
-2.26
-2.32
-2.51
-2.63
-2.55
-2.18
-1.55
-0.71
0.28
1.36
2.49
3.59
4.61
5.55
6.42
7.29
8.18
9.06
9.82
10.33
10.49
10.24
9.58
8.56
7.27
5.80
4.28
2.83
1.54
0.41
-0.60
-1.59
-2.58
-3.51
-4.30
-4.84
-5.16
-5.37
-5.57
-5.81
-6.04
-6.11
-5.96
-5.58
-5.06
-4.51
-3.96
-3.34
-2.53
-1.47
-0.23
1.04
2.16
3.03
3.62
3.99
4.18
4.23
4.11
3.81
3.33
2.72
2.06
1.39
0.74
0.11
-0.51
-1.12
-1.67
-2.13
-2.47
-2.70
-2.81
-2.79
-2.61
-2.27
-1.79
-1.26
-0.78
-0.42
-0.20
-0.08
-0.00
0.01
-0.10
-0.38
-0.85
-1.39
-1.85
-2.06
-1.92
-1.45
-0.74
0.09
0.94
1.73
2.40
2.87
3.08
2.99
2.64
2.14
1.65
1.30
1.12
1.02
0.84
0.47
-0.11
-0.86
-1.67
-2.44
-3.13
-3.69
-4.06
-4.20
-4.06
-3.69
-3.16
-2.63
-2.22
-2.03
-2.04
-2.20
-2.42
-2.63
-2.79
-2.90
-2.96
-3.01
-3.05
-3.07
-3.00
-2.79
-2.35
-1.67
-0.76
0.28
1.36
2.35
3.16
3.72
4.01
4.06
3.94
3.73
3.44
3.09
2.62
1.98
1.18
0.28
-0.60
-1.30
-1.73
-1.85
-1.73
-1.50
-1.27
-1.07
-0.90
-0.70
-0.46
-0.18
0.09
0.31
0.45
0.53
0.59
0.63
0.65
0.63
0.58
0.52
0.52
0.62
0.88
1.33
1.96
2.74
3.62
4.50
5.27
5.81
6.01
5.79
5.16
4.18
2.95
1.63
0.38
-0.68
-1.50
-2.08
-2.50
-2.84
-3.17
-3.52
-3.87
-4.18
-4.42
-4.56
-4.56
-4.39
-4.05
-3.54
-2.97
-2.44
-2.09
-1.96
-2.02
-2.15
-2.21
-2.14
-1.90
-1.54
-1.09
-0.56
0.07
0.81
1.61
2.39
3.07
3.57
3.91
4.11
4.22
4.25
4.18
3.97
3.62
3.21
2.77
2.36
1.98
1.56
1.07
0.51
-0.02
-0.44
-0.67
-0.71
-0.66
-0.62
-0.71
-0.94
-1.28
-1.62
-1.86
-1.96
-1.88
-1.64
-1.31
-0.95
-0.67
-0.55
-0.61
-0.85
-1.15
-1.38
-1.39
-1.08
-0.44
0.47
1.50
2.46
3.21
3.63
3.71
3.48
3.05
2.56
2.10
1.70
1.36
1.01
0.60
0.15
-0.33
-0.79
-1.20
-1.54
-1.81
-1.98
-2.03
-1.93
-1.67
-1.29
-0.83
-0.35
0.11
0.51
0.83
1.07
1.20
1.23
1.13
0.91
0.56
0.10
-0.45
-0.96
-1.30
-1.34
-1.04
-0.43
0.36
1.17
1.84
2.34
2.62
2.69
2.55
2.18
1.64
1.03
0.51
0.21
0.17
0.27
0.35
0.25
-0.07
-0.50
-0.89
-1.07
-1.01
-0.75
-0.38
-0.00
0.33
0.60
0.78
0.84
0.75
0.53
0.22
-0.11
-0.38
-0.61
-0.84
-1.13
-1.55
-2.06
-2.57
-2.98
-3.20
-3.20
-3.02
-2.76
-2.47
-2.21
-1.99
-1.80
-1.65
-1.57
-1.57
-1.61
-1.65
-1.60
-1.46
-1.26
-1.10
-1.08
-1.24
-1.54
-1.85
-2.01
-1.91
-1.52
-0.93
-0.28
0.26
0.63
0.83
0.97
1.15
1.44
1.81
2.16
2.38
2.40
2.23
1.92
1.55
1.17
0.85
0.63
0.60
0.82
1.30
1.97
2.72
3.38
3.84
4.02
3.92
3.54
2.95
2.20
1.36
0.50
-0.32
-1.07
-1.74
-2.32
-2.81
-3.21
-3.52
-3.81
-4.12
-4.50
-4.93
-5.33
-5.57
-5.54
-5.24
-4.73
-4.17
-3.69
-3.36
-3.17
-3.07
-2.99
-2.94
-2.92
-2.93
-2.91
-2.76
-2.39
-1.75
-0.90
0.08
1.06
1.94
2.69
3.30
3.77
4.09
4.22
4.16
3.88
3.41
2.78
2.09
1.41
0.83
0.41
0.20
0.21
0.44
0.84
1.39
1.98
2.49
2.83
2.93
2.84
2.65
2.48
2.36
2.26
2.10
1.87
1.63
1.49
1.56
1.81
2.13
2.38
2.52
2.62
2.79
3.10
3.51
3.85
3.90
3.57
2.91
2.08
1.23
0.46
-0.25
-0.93
-1.58
-2.15
-2.59
-2.86
-3.00
-3.07
-3.09
-3.04
-2.86
-2.50
-1.97
-1.34
-0.73
-0.25
0.02
0.07
-0.08
-0.36
-0.70
-0.98
-1.12
-1.07
-0.83
-0.52
-0.24
-0.06
-0.02
-0.02
0.03
0.24
0.65
1.25
1.91
2.52
2.94
3.10
3.01
2.74
2.39
2.03
1.71
1.38
1.01
0.56
0.03
-0.58
-1.25
-1.96
-2.70
-3.44
-4.16
-4.86
-5.50
-6.07
-6.52
-6.86
-7.10
-7.35
-7.70
-8.23
-8.97
-9.87
-10.84
-11.82
-12.80
-13.83
-14.97
-16.23
-17.56
-18.84
-19.97
-20.86
-21.53
-22.08
-22.64
-23.35
-24.26
-25.37
-26.56
-27.62
-28.29
-28.28
-27.33
-25.25
-22.04
-17.97
-13.51
-9.28
-5.82
-3.40
-1.89
-0.81
0.56
2.94
6.85
12.51
19.93
28.88
39.01
49.84
60.80
71.26
80.60
88.32
94.13
97.92
99.71
99.52
97.45
93.66
88.50
82.52
76.37
70.53
65.08
59.64
53.53
46.06
36.88
26.11
14.33
2.34
-9.06
-19.19
-27.50
-33.50
-36.79
-37.09
-34.38
-29.04
-21.81
-13.70
-5.84
0.70
5.12
6.97
6.23
3.26
-1.21
-6.32
-11.21
-15.21
-17.99
-19.56
-20.25
-20.65
-21.38
-22.95
-25.58
-29.07
-32.92
-36.46
-39.11
-40.54
-40.75
-39.94
-38.38
-36.28
-33.73
-30.85
-27.76
-24.70
-21.92
-19.65
-17.95
-16.77
-15.94
-15.30
-14.74
-14.24
-13.81
-13.51
-13.32
-13.13
-12.84
-12.33
-11.58
-10.64
-9.63
-8.60
-7.56
-6.41
-5.08
-3.54
-1.81
0.03
1.96
4.01
6.26
8.74
11.37
13.97
16.24
17.90
18.77
18.76
17.99
16.64
14.96
13.20
11.48
9.86
8.33
6.82
5.26
3.63
1.92
0.20
-1.47
-2.94
-4.05
-4.64
-4.57
-3.83
-2.48
-0.66
1.47
3.74
6.01
8.13
9.93
11.21
11.77
11.47
10.22
8.06
5.19
1.92
-1.30
-4.08
-6.15
-7.48
-8.28
-8.92
-9.75
-10.97
-12.60
-14.45
-16.31
-17.93
-19.17
-19.91
-20.07
-19.60
-18.46
-16.62
-14.15
-11.12
-7.65
-3.92
-0.13
3.51
6.74
9.36
11.20
12.15
12.19
11.40
9.98
8.18
6.30
4.54
2.96
1.49
-0.07
-1.86
-3.93
-6.20
-8.45
-10.46
-12.04
-13.10
-13.65
-13.81
-13.75
-13.67
-13.73
-14.02
-14.54
-15.20
-15.93
-16.70
-17.60
-18.71
-20.09
-21.63
-23.07
-24.10
-24.46
-23.99
-22.67
-20.51
-17.53
-13.77
-9.33
-4.48
0.30
4.42
7.31
8.63
8.36
6.76
4.18
1.08
-2.21
-5.49
-8.75
-12.09
-15.60
-19.32
-23.24
-27.37
-31.59
-35.75
-39.66
-43.20
-46.19
-48.40
-49.54
-49.24
-47.22
-43.03
-36.21
-26.35
-13.32
2.59
20.69
39.92
59.21
76.48
89.48
96.62
97.66
93.59
85.93
76.24
65.88
55.97
47.33
40.46
35.39
31.59
28.20
24.31
19.60
14.13
8.38
2.96
-1.60
-5.03
-7.44
-9.23
-10.96
-13.01
-15.41
-17.86
-19.92
-21.15
-21.30
-20.43
-18.38
-15.39
-11.71
-7.53
-2.85
2.37
8.28
15.02
22.62
30.94
39.48
47.60
54.56
59.76
62.88
63.88
62.90
60.13
55.67
49.56
41.89
32.94
23.23
13.42
4.25
-3.62
-9.63
-13.46
-15.05
-14.67
-12.87
-10.50
-8.58
-8.09
-9.70
-13.65
-19.65
-27.04
-34.95
-42.54
-49.07
-53.87
-56.29
-55.69
-51.69
-44.39
-34.59
-23.70
-13.33
-4.79
1.32
5.23
7.72
9.64
11.52
13.38
14.90
15.66
15.43
14.29
12.50
10.32
7.85
5.13
2.19
-0.75
-3.26
-4.74
-4.69
-2.98
0.10
3.83
7.34
9.85
10.90
10.42
8.69
6.13
3.20
0.25
-2.51
-5.00
-7.24
-9.28
-11.13
-12.75
-14.06
-14.91
-15.20
-14.87
-13.89
-12.31
-10.25
-7.89
-5.55
-3.58
-2.35
-2.03
-2.58
-3.67
-4.86
-5.76
-6.20
-6.23
-6.09
-6.05
-6.28
-6.84
-7.64
-8.51
-9.27
-9.71
-9.67
-9.09
-7.99
-6.55
-4.94
-3.32
-1.68
0.11
2.24
4.81
7.72
10.59
12.93
14.25
14.33
13.26
11.43
9.40
7.65
6.47
5.85
5.51
5.05
4.12
2.49
0.17
-2.68
-5.76
-8.72
-11.25
-13.07
-14.02
-13.98
-12.97
-11.10
-8.63
-5.87
-3.20
-0.91
0.83
1.99
2.67
3.04
3.26
3.43
3.53
3.44
2.97
1.97
0.39
-1.60
-3.74
-5.74
-7.45
-8.96
-10.53
-12.48
-14.98
-17.90
-20.84
-23.28
-24.83
-25.41
-25.26
-24.92
-24.87
-25.41
-26.67
-28.46
-30.57
-32.66
-34.40
-35.38
-35.38
-34.56
-33.68
-33.92
-36.39
-41.47
-48.39
-55.35
-60.14
-61.03
-57.42
-49.97
-40.11
-29.31
-18.61
-8.46
1.04
9.76
17.38
23.49
27.86
30.58
32.14
33.11
33.94
34.80
35.45
35.60
35.01
33.81
32.38
31.37
31.25
32.17
33.79
35.43
36.36
36.19
35.12
33.92
33.67
35.27
39.05
44.51
50.42
55.25
57.67
57.01
53.39
47.66
40.98
34.58
29.41
25.88
23.91
23.01
22.57
21.93
20.68
18.55
15.62
12.10
8.22
4.15
-0.05
-4.32
-8.73
-13.29
-18.14
-23.06
-27.60
-31.05
-32.61
-31.67
-27.91
-21.67
-13.39
-3.77
7.06
19.41
33.89
50.87
70.18
90.99
111.63
130.57
142.46
142.72
129.42
104.86
74.55
44.30
19.95
1.13
-13.97
-27.35
-39.99
-52.26
-63.76
-74.14
-83.33
-91.27
-97.72
-101.47
-101.44
-97.41
-91.01
-85.39
-84.08
-88.91
-98.73
-109.89
-117.36
-117.53
-109.44
-94.76
-76.47
-57.20
-38.40
-20.46
-3.69
11.31
23.47
31.93
36.69
38.72
39.56
40.60
42.59
45.43
48.40
50.43
50.57
48.30
43.74
37.64
31.21
25.68
21.83
19.84
19.20
19.05
18.63
17.59
16.07
14.49
13.26
12.52
12.13
11.84
11.46
11.01
10.66
10.56
10.78
11.10
11.21
10.76
9.57
7.72
5.52
3.40
1.78
0.89
0.77
1.27
2.14
3.15
4.19
5.21
6.22
7.20
8.11
8.84
9.26
9.25
8.75
7.82
6.63
5.47
4.65
4.37
4.62
5.18
5.65
5.61
4.77
3.03
0.45
-2.76
-6.38
-10.20
-14.02
-17.67
-21.07
-24.17
-26.95
-29.43
-31.51
-33.05
-33.84
-33.76
-32.81
-31.16
-29.09
-26.88
-24.67
-22.44
-20.07
-17.41
-14.40
-11.09
-7.64
-4.29
-1.23
1.37
3.43
4.93
5.91
6.44
6.64
6.62
6.48
6.25
5.90
5.34
4.49
3.32
1.95
0.56
-0.64
-1.46
-1.83
-1.72
-1.16
-0.21
1.04
2.45
3.81
4.89
5.55
5.75
5.59
5.21
4.73
4.19
3.54
2.70
1.67
0.51
-0.62
-1.55
-2.14
-2.31
-2.09
-1.53
-0.74
0.13
0.94
1.55
1.89
1.97
1.90
1.81
1.80
1.91
2.13
2.39
2.66
2.94
3.30
3.77
4.34
4.94
5.44
5.73
5.79
5.66
5.46
5.28
5.17
5.09
4.96
4.71
4.30
3.76
3.15
2.54
1.96
1.43
0.93
0.47
0.05
-0.28
-0.48
-0.50
-0.32
0.02
0.45
0.90
1.32
1.70
2.02
2.28
2.45
2.50
2.39
2.13
1.78
1.40
1.09
0.89
0.83
0.89
1.02
1.18
1.31
1.37
1.37
1.35
1.36
1.41
1.48
1.50
1.36
0.98
0.35
-0.47
-1.31
-1.98
-2.33
-2.34
-2.03
-1.52
-0.91
-0.25
0.43
1.13
1.85
2.58
3.26
3.82
4.14
4.16
3.83
3.21
2.45
1.75
1.24
0.98
0.90
0.87
0.79
0.62
0.40
0.19
-0.02
-0.30
-0.76
-1.48
-2.43
-3.49
-4.48
-5.26
-5.74
-5.96
-5.95
-5.77
-5.44
-4.96
-4.30
-3.49
-2.57
-1.59
-0.64
0.27
1.08
1.79
2.36
2.75
2.92
2.89
2.69
2.42
2.17
2.03
2.02
2.07
2.08
1.92
1.56
1.03
0.48
0.06
-0.14
-0.17
-0.18
-0.35
-0.76
-1.41
-2.14
-2.78
-3.20
-3.38
-3.35
-3.19
-2.93
-2.55
-2.01
-1.28
-0.43
0.43
1.16
1.64
1.83
1.76
1.49
1.12
0.73
0.37
0.11
-0.04
-0.07
-0.04
0.00
-0.01
-0.09
-0.22
-0.37
-0.51
-0.66
-0.80
-0.91
-0.99
-1.00
-0.98
-1.05
-1.33
-1.87
-2.64
-3.43
-3.99
-4.10
-3.66
-2.74
-1.55
-0.32
0.74
1.54
2.08
2.42
2.62
2.73
2.77
2.76
2.71
2.68
2.70
2.81
2.98
3.15
3.24
3.15
2.88
2.47
2.02
1.68
1.52
1.55
1.68
1.77
1.69
1.42
1.03
0.62
0.25
-0.08
-0.45
-0.95
-1.55
-2.14
-2.54
-2.63
-2.36
-1.79
-1.03
-0.17
0.70
1.55
2.30
2.88
3.23
3.35
3.29
3.14
2.98
2.84
2.70
2.53
2.32
2.13
1.99
1.94
1.96
1.95
1.83
1.55
1.12
0.63
0.21
-0.05
-0.13
-0.08
-0.04
-0.13
-0.45
-1.01
-1.73
-2.47
-3.03
-3.31
-3.25
-2.89
-2.32
-1.66
-0.99
-0.37
0.23
0.80
1.33
1.80
2.16
2.41
2.51
2.47
2.30
2.00
1.58
1.11
0.67
0.35
0.20
0.21
0.31
0.40
0.39
0.28
0.07
-0.20
-0.49
-0.79
-1.12
-1.48
-1.89
-2.32
-2.72
-2.98
-3.01
-2.72
-2.13
-1.34
-0.49
0.27
0.84
1.20
1.44
1.61
1.76
1.88
1.89
1.75
1.45
1.05
0.65
0.32
0.11
0.01
-0.04
-0.10
-0.23
-0.48
-0.84
-1.27
-1.70
-2.05
-2.26
-2.34
-2.33
-2.33
-2.38
-2.54
-2.78
-3.04
-3.24
-3.27
-3.06
-2.59
-1.87
-0.99
-0.08
0.75
1.42
1.93
2.34
2.72
3.11
3.50
3.85
4.07
4.13
4.06
3.91
3.75
3.59
3.40
3.10
2.65
2.08
1.47
0.98
0.67
0.54
0.47
0.30
-0.09
-0.72
-1.47
-2.19
-2.76
-3.17
-3.45
-3.70
-3.90
-3.98
-3.83
-3.34
-2.53
-1.53
-0.55
0.23
0.75
1.05
1.27
1.54
1.90
2.33
2.73
2.99
3.04
2.88
2.57
2.21
1.91
1.73
1.63
1.55
1.37
1.06
0.62
0.10
-0.42
-0.92
-1.42
-1.94
-2.46
-2.92
-3.22
-3.32
-3.25
-3.14
-3.11
-3.27
-3.60
-3.99
-4.24
-4.21
-3.80
-3.04
-2.04
-0.97
0.02
0.77
1.24
1.42
1.41
1.32
1.24
1.21
1.23
1.23
1.18
1.07
0.92
0.77
0.65
0.55
0.46
0.38
0.34
0.42
0.62
0.90
1.12
1.16
0.91
0.39
-0.30
-1.01
-1.60
-1.99
-2.21
-2.33
-2.43
-2.55
-2.66
-2.68
-2.54
-2.22
-1.76
-1.25
-0.77
-0.32
0.11
0.52
0.87
1.11
1.15
1.00
0.74
0.51
0.41
0.50
0.75
1.13
1.54
1.94
2.27
2.45
2.45
2.26
1.94
1.54
1.11
0.62
0.05
-0.67
-1.51
-2.41
-3.26
-3.93
-4.35
-4.47
-4.29
-3.86
-3.26
-2.57
-1.90
-1.30
-0.79
-0.35
0.04
0.41
0.79
1.17
1.55
1.90
2.20
2.40
2.53
2.60
2.68
2.83
3.04
3.24
3.33
3.21
2.85
2.27
1.52
0.69
-0.17
-0.98
-1.65
-2.13
-2.43
-2.65
-2.88
-3.22
-3.62
-3.99
-4.17
-4.05
-3.62
-2.93
-2.09
-1.18
-0.25
0.62
1.34
1.86
2.18
2.37
2.51
2.70
2.91
3.04
2.99
2.73
2.35
2.01
1.86
1.91
2.04
2.07
1.86
1.36
0.70
0.03
-0.45
-0.68
-0.70
-0.62
-0.61
-0.80
-1.26
-1.93
-2.72
-3.50
-4.12
-4.49
-4.59
-4.42
-3.98
-3.30
-2.37
-1.23
0.04
1.29
2.37
3.14
3.55
3.65
3.54
3.35
3.21
3.17
3.23
3.34
3.40
3.31
3.00
2.47
1.80
1.10
0.50
0.06
-0.22
-0.40
-0.58
-0.79
-1.05
-1.36
-1.70
-2.09
-2.53
-3.02
-3.54
-4.03
-4.45
-4.75
-4.89
-4.85
-4.58
-4.06
-3.28
-2.27
-1.11
0.10
1.22
2.13
2.74
3.04
3.10
3.06
3.04
3.09
3.14
3.06
2.74
2.16
1.42
0.72
0.21
-0.09
-0.26
-0.44
-0.71
-1.04
-1.37
-1.64
-1.86
-2.09
-2.44
-2.87
-3.32
-3.65
-3.77
-3.69
-3.51
-3.35
-3.26
-3.20
-3.07
-2.75
-2.12
-1.17
0.03
1.34
2.56
3.52
4.11
4.32
4.25
4.00
3.69
3.36
2.98
2.53
2.04
1.56
1.20
1.03
1.02
1.07
1.03
0.78
0.29
-0.41
-1.20
-1.98
-2.67
-3.25
-3.71
-4.09
-4.41
-4.68
-4.89
-5.03
-5.06
-4.97
-4.75
-4.42
-3.96
-3.36
-2.60
-1.66
-0.56
0.64
1.81
2.82
3.58
4.02
4.16
4.09
3.93
3.78
3.70
3.69
3.65
3.51
3.20
2.77
2.30
1.91
1.61
1.37
1.11
0.78
0.36
-0.09
-0.54
-1.02
-1.61
-2.36
-3.25
-4.16
-4.98
-5.65
-6.21
-6.77
-7.37
-7.91
-8.21
-8.06
-7.35
-6.19
-4.84
-3.59
-2.64
-2.06
-1.75
-1.55
-1.38
-1.21
-1.16
-1.35
-1.84
-2.52
-3.23
-3.78
-4.12
-4.31
-4.56
-5.10
-6.12
-7.55
-9.09
-10.36
-11.06
-11.08
-10.48
-9.46
-8.23
-7.02
-5.69
-3.94
-1.50
1.68
5.30
8.90
12.03
14.46
16.34
18.50
22.11
28.22
37.35
49.32
63.39
78.59
93.98
106.51
113.08
111.24
100.19
81.27
57.29
31.66
7.52
-12.68
-27.65
-37.49
-43.24
-46.15
-47.34
-47.63
-47.52
-47.15
-46.54
-45.74
-44.63
-42.10
-37.60
-31.11
-23.10
-14.46
-6.23
0.65
5.51
8.40
9.90
10.82
11.91
13.64
16.08
18.96
21.79
23.99
25.08
24.84
23.16
20.17
16.16
11.48
6.40
1.02
-4.78
-11.23
-18.36
-26.02
-33.58
-40.19
-44.94
-47.19
-46.74
-43.85
-39.03
-32.82
-25.77
-18.40
-11.32
-5.30
-1.20
0.27
-1.17
-5.20
-10.93
-17.21
-22.97
-27.45
-30.36
-31.76
-31.89
-31.00
-29.26
-26.81
-23.89
-20.86
-18.13
-16.04
-14.67
-13.79
-13.00
-11.88
-10.30
-8.43
-6.65
-5.28
-4.40
-3.77
-2.95
-1.54
0.55
3.10
5.70
8.00
9.90
11.54
13.17
14.93
16.66
17.99
18.47
17.85
16.18
13.86
11.42
9.32
7.79
6.77
6.02
5.32
4.63
4.09
3.98
4.47
5.51
6.75
7.68
7.89
7.23
5.93
4.46
3.28
2.59
2.25
1.86
1.05
-0.32
-2.02
-3.57
-4.52
-4.64
-4.12
-3.35
-2.74
-2.42
-2.17
-1.56
-0.31
1.48
3.25
4.25
3.99
2.55
0.65
-0.66
-0.54
1.15
3.78
6.31
7.81
8.02
7.44
6.97
7.36
8.80
10.74
12.31
12.83
12.17
10.82
9.59
9.00
9.04
9.12
8.49
6.67
3.82
0.67
-1.85
-3.14
-3.23
-2.74
-2.51
-3.09
-4.49
-6.13
-7.30
-7.56
-7.00
-6.20
-5.83
-6.23
-7.18
-7.96
-7.80
-6.29
-3.65
-0.64
1.81
3.09
3.19
2.66
2.29
2.65
3.77
5.12
5.93
5.67
4.31
2.44
0.87
0.19
0.46
1.14
1.48
0.92
-0.54
-2.35
-3.74
-4.21
-3.81
-3.14
-2.99
-3.89
-5.83
-8.21
-10.24
-11.33
-11.44
-11.10
-11.04
-11.81
-13.36
-15.15
-16.41
-16.65
-16.01
-15.20
-15.08
-16.20
-18.42
-20.96
-22.83
-23.38
-22.73
-21.63
-21.03
-21.46
-22.70
-23.82
-23.64
-21.30
-16.62
-10.04
-2.28
6.13
14.91
23.99
33.09
41.52
48.27
52.36
53.25
51.06
46.49
40.49
33.97
27.67
22.17
18.04
15.87
16.11
18.90
23.87
30.11
36.37
41.34
43.97
43.80
41.05
36.50
31.28
26.46
22.80
20.59
19.67
19.63
19.89
19.89
19.15
17.39
14.62
11.13
7.48
4.27
1.94
0.62
0.10
-0.04
-0.23
-0.83
-2.00
-3.75
-5.98
-8.49
-11.09
-13.58
-15.90
-18.13
-20.45
-23.04
-25.88
-28.63
-30.65
-31.24
-29.93
-26.68
-21.99
-16.65
-11.51
-7.13
-3.73
-1.22
0.64
2.04
3.12
4.01
4.91
6.02
7.51
9.32
11.18
12.67
13.40
13.16
12.04
10.36
8.56
7.09
6.23
6.06
6.41
6.83
6.68
5.33
2.36
-2.25
-8.00
-14.10
-19.66
-24.00
-26.81
-28.11
-28.15
-27.24
-25.67
-23.71
-21.66
-19.79
-18.33
-17.35
-16.74
-16.26
-15.67
-14.81
-13.73
-12.62
-11.70
-11.10
-10.77
-10.52
-10.09
-9.28
-8.10
-6.67
-5.24
-3.99
-2.99
-2.18
-1.45
-0.69
0.10
0.86
1.49
1.95
2.25
2.52
2.84
3.26
3.71
4.03
4.09
3.90
3.57
3.32
3.32
3.56
3.88
4.04
3.85
3.36
2.80
2.47
2.54
2.98
3.48
3.72
3.46
2.71
1.69
0.75
0.13
-0.09
-0.03
0.11
0.18
0.14
0.08
0.06
0.09
0.08
-0.09
-0.49
-1.10
-1.78
-2.37
-2.74
-2.90
-2.91
-2.86
-2.76
-2.55
-2.14
-1.44
-0.43
0.84
2.23
3.53
4.58
5.27
5.59
5.67
5.67
5.71
5.81
5.80
5.51
4.84
3.85
2.79
1.93
1.43
1.20
0.97
0.47
-0.44
-1.67
-2.92
-3.89
-4.40
-4.50
-4.38
-4.29
-4.37
-4.61
-4.81
-4.77
-4.33
-3.49
-2.35
-1.08
0.21
1.46
2.68
3.89
5.06
6.07
6.79
7.11
7.04
6.67
6.17
5.71
5.32
4.96
4.48
3.72
2.62
1.26
-0.16
-1.38
-2.18
-2.54
-2.61
-2.64
-2.84
-3.27
-3.81
-4.25
-4.42
-4.31
-4.08
-3.94
-4.02
-4.27
-4.48
-4.36
-3.72
-2.56
-1.06
0.46
1.73
2.62
3.18
3.57
3.96
4.43
4.90
5.23
5.29
5.08
4.69
4.29
3.94
3.62
3.14
2.37
1.28
-0.02
-1.26
-2.18
-2.65
-2.68
-2.44
-2.18
-2.04
-2.09
-2.24
-2.38
-2.41
-2.34
-2.25
-2.27
-2.44
-2.71
-2.89
-2.75
-2.16
-1.14
0.12
1.38
2.43
3.23
3.90
4.61
5.45
6.34
7.01
7.17
6.64
5.47
3.95
2.45
1.27
0.49
-0.00
-0.44
-0.98
-1.66
-2.36
-2.91
-3.19
-3.22
-3.14
-3.15
-3.34
-3.70
-4.11
-4.41
-4.48
-4.32
-4.04
-3.79
-3.68
-3.72
-3.79
-3.69
-3.23
-2.32
-1.04
0.43
1.84
2.97
3.73
4.19
4.48
4.73
4.95
5.05
4.88
4.33
3.43
2.33
1.27
0.40
-0.24
-0.75
-1.28
-1.94
-2.65
-3.23
-3.49
-3.31
-2.80
-2.20
-1.77
-1.67
-1.80
-1.97
-1.97
-1.73
-1.37
-1.12
-1.11
-1.28
-1.42
-1.22
-0.52
0.62
1.96
3.19
4.05
4.49
4.61
4.63
4.71
4.93
5.22
5.44
5.44
5.16
4.63
3.96
3.25
2.55
1.84
1.05
0.13
-0.88
-1.87
-2.71
-3.28
-3.59
-3.72
-3.78
-3.85
-3.96
-4.02
-3.98
-3.83
-3.66
-3.60
-3.76
-4.09
-4.40
-4.44
-3.97
-2.93
-1.47
0.11
1.53
2.60
3.30
3.73
4.05
4.37
4.68
4.91
4.93
4.69
4.23
3.69
3.22
2.87
2.62
2.32
1.83
1.11
0.26
-0.54
-1.12
-1.41
-1.50
-1.58
-1.82
-2.27
-2.86
-3.41
-3.73
-3.74
-3.47
-3.07
-2.74
-2.63
-2.81
-3.20
-3.64
-3.97
-4.04
-3.81
-3.32
-2.61
-1.74
-0.71
0.49
1.84
3.30
4.69
5.85
6.62
6.96
6.96
6.82
6.71
6.70
6.69
6.49
5.92
4.93
3.63
2.24
0.98
-0.06
-0.90
-1.65
-2.37
-3.07
-3.66
-4.05
-4.24
-4.26
-4.24
-4.27
-4.40
-4.62
-4.88
-5.13
-5.33
-5.46
-5.58
-5.74
-5.97
-6.22
-6.31
-6.03
-5.17
-3.69
-1.76
0.30
2.12
3.47
4.33
4.84
5.19
5.47
5.65
5.65
5.38
4.86
4.20
3.48
2.75
1.97
1.05
-0.03
-1.22
-2.33
-3.16
-3.54
-3.45
-3.03
-2.53
-2.21
-2.21
-2.50
-2.89
-3.16
-3.22
-3.10
-2.97
-3.02
-3.32
-3.77
-4.20
-4.39
-4.23
-3.69
-2.81
-1.70
-0.45
0.84
2.10
3.26
4.27
5.09
5.67
5.99
6.05
5.90
5.67
5.47
5.32
5.12
4.70
3.91
2.76
1.42
0.20
-0.64
-1.00
-0.96
-0.75
-0.62
-0.65
-0.82
-1.00
-1.09
-1.09
-1.12
-1.28
-1.57
-1.92
-2.14
-2.09
-1.76
-1.23
-0.67
-0.22
0.11
0.38
0.72
1.20
1.85
2.59
3.32
3.93
4.35
4.58
4.62
4.55
4.41
4.19
3.87
3.41
2.77
1.99
1.16
0.39
-0.25
-0.71
-1.04
-1.31
-1.58
-1.88
-2.21
-2.53
-2.82
-3.06
-3.27
-3.47
-3.69
-3.92
-4.09
-4.15
-4.00
-3.64
-3.13
-2.62
-2.25
-2.06
-1.98
-1.78
-1.22
-0.15
1.31
2.89
4.22
5.01
5.28
5.24
5.22
5.41
5.75
5.98
5.81
5.10
3.95
2.63
1.41
0.45
-0.31
-1.03
-1.83
-2.73
-3.57
-4.15
-4.33
-4.08
-3.58
-3.08
-2.82
-2.89
-3.22
-3.56
-3.70
-3.53
-3.12
-2.71
-2.54
-2.72
-3.14
-3.53
-3.55
-3.01
-1.93
-0.54
0.87
2.04
2.91
3.60
4.29
5.10
5.95
6.65
6.95
6.74
6.09
5.24
4.46
3.85
3.32
2.61
1.53
0.03
-1.68
-3.24
-4.33
-4.83
-4.86
-4.69
-4.58
-4.63
-4.80
-4.93
-4.86
-4.62
-4.34
-4.20
-4.34
-4.71
-5.14
-5.37
-5.19
-4.56
-3.60
-2.52
-1.53
-0.71
0.00
0.76
1.68
2.77
3.87
4.79
5.35
5.51
5.38
5.14
4.93
4.80
4.63
4.27
3.58
2.57
1.39
0.28
-0.56
-1.08
-1.34
-1.49
-1.68
-1.91
-2.06
-1.96
-1.50
-0.69
0.29
1.21
1.87
2.19
2.26
2.22
2.25
2.43
2.75
3.16
3.60
4.08
4.64
5.35
6.19
7.04
7.73
8.06
7.95
7.44
6.70
5.92
5.22
4.55
3.74
2.61
1.09
-0.68
-2.45
-3.90
-4.85
-5.28
-5.32
-5.12
-4.79
-4.34
-3.76
-3.08
-2.41
-1.91
-1.76
-2.06
-2.82
-3.97
-5.36
-6.81
-8.14
-9.19
-9.85
-10.05
-9.80
-9.13
-8.14
-6.90
-5.51
-4.07
-2.65
-1.34
-0.19
0.78
1.55
2.10
2.43
2.52
2.38
2.05
1.58
1.05
0.54
0.12
-0.19
-0.38
-0.49
-0.61
-0.81
-1.14
-1.59
-2.09
-2.54
-2.92
-3.29
-3.76
-4.40
-5.15
-5.86
-6.31
-6.33
-5.93
-5.19
-4.27
-3.26
-2.14
-0.85
0.66
2.34
4.04
5.53
6.65
7.33
7.60
7.63
7.54
7.43
7.22
6.77
5.93
4.65
3.07
1.45
0.08
-0.94
-1.69
-2.39
-3.25
-4.35
-5.57
-6.66
-7.38
-7.60
-7.38
-6.89
-6.40
-6.12
-6.15
-6.44
-6.82
-7.06
-6.98
-6.50
-5.65
-4.53
-3.24
-1.88
-0.46
0.99
2.42
3.78
5.03
6.26
7.59
9.18
11.12
13.39
15.77
17.93
19.49
20.18
19.88
18.70
16.87
14.63
12.15
9.42
6.43
3.19
-0.15
-3.32
-6.08
-8.33
-10.20
-12.04
-14.22
-16.93
-20.07
-23.34
-26.34
-28.87
-30.94
-32.79
-34.70
-36.81
-39.03
-41.10
-42.69
-43.58
-43.63
-42.79
-40.91
-37.70
-32.81
-26.01
-17.31
-7.12
3.86
14.78
24.90
33.67
40.79
46.15
49.76
51.66
52.00
50.98
48.93
46.19
43.11
39.96
36.91
34.00
31.23
28.56
25.96
23.44
21.00
18.68
16.48
14.36
12.29
10.21
8.20
6.43
5.17
4.78
5.59
7.78
11.37
16.09
21.45
26.82
31.51
34.96
36.79
36.83
35.11
31.72
26.82
20.59
13.31
5.38
-2.74
-10.58
-17.87
-24.45
-30.24
-35.07
-38.61
-40.47
-40.41
-38.59
-35.58
-32.24
-29.33
-27.25
-25.91
-24.93
-23.84
-22.44
-20.76
-19.04
-17.52
-16.27
-15.20
-14.09
-12.74
-11.13
-9.41
-7.81
-6.56
-5.68
-5.00
-4.17
-2.88
-1.06
1.08
3.12
4.62
5.41
5.61
5.58
5.69
6.09
6.66
7.06
6.94
6.17
4.88
3.44
2.23
1.46
1.10
0.91
0.61
0.07
-0.70
-1.49
-2.12
-2.50
-2.74
-3.05
-3.63
-4.58
-5.75
-6.90
-7.73
-8.06
-7.91
-7.44
-6.89
-6.39
-5.89
-5.20
-4.09
-2.47
-0.51
1.48
3.13
4.24
4.86
5.26
5.72
6.39
7.18
7.81
7.98
7.57
6.69
5.68
4.86
4.38
4.11
3.74
2.92
1.53
-0.22
-1.88
-2.98
-3.30
-2.94
-2.32
-1.88
-1.91
-2.38
-3.04
-3.58
-3.84
-3.86
-3.85
-3.96
-4.18
-4.27
-3.90
-2.86
-1.15
0.94
2.99
4.58
5.50
5.79
5.73
5.67
5.86
6.34
6.91
7.29
7.23
6.68
5.78
4.78
3.91
3.26
2.71
2.14
1.43
0.63
-0.10
-0.55
-0.65
-0.47
-0.23
-0.15
-0.35
-0.78
-1.23
-1.46
-1.37
-1.03
-0.69
-0.63
-0.97
-1.61
-2.21
-2.44
-2.09
-1.21
-0.10
0.94
1.68
2.14
2.49
2.90
3.42
3.93
4.18
3.96
3.22
2.16
1.06
0.23
-0.18
-0.23
-0.11
-0.08
-0.26
-0.63
-1.04
-1.29
-1.28
-1.04
-0.75
-0.60
-0.72
-1.06
-1.50
-1.85
-2.03
-2.07
-2.18
-2.51
-3.15
-3.99
-4.80
-5.34
-5.50
-5.32
-4.95
-4.52
-4.05
-3.45
-2.58
-1.40
-0.04
1.23
2.11
2.44
2.27
1.84
1.47
1.40
1.65
2.05
2.30
2.18
1.64
0.87
0.18
-0.17
-0.10
0.27
0.66
0.82
0.72
0.49
0.39
0.62
1.19
1.89
2.39
2.43
1.95
1.07
0.07
-0.79
-1.41
-1.86
-2.30
-2.87
-3.54
-4.10
-4.25
-3.76
-2.60
-1.05
0.49
1.59
2.05
1.95
1.59
1.32
1.33
1.59
1.91
2.06
1.88
1.40
0.75
0.09
-0.45
-0.86
-1.17
-1.45
-1.70
-1.92
-2.02
-1.98
-1.81
-1.58
-1.42
-1.38
-1.45
-1.53
-1.48
-1.27
-1.00
-0.90
-1.16
-1.89
-2.93
-3.96
-4.56
-4.44
-3.57
-2.14
-0.56
0.81
1.73
2.18
2.34
2.44
2.64
2.96
3.30
3.54
3.57
3.44
3.26
3.15
3.13
3.09
2.90
2.39
1.57
0.60
-0.27
-0.81
-0.96
-0.85
-0.77
-0.93
-1.43
-2.10
-2.68
-2.93
-2.83
-2.55
-2.40
-2.61
-3.20
-3.97
-4.61
-4.90
-4.77
-4.39
-3.93
-3.51
-3.08
-2.49
-1.66
-0.66
0.28
0.88
1.00
0.71
0.27
0.04
0.29
1.06
2.16
3.26
4.04
4.31
4.14
3.79
3.59
3.79
4.40
5.23
5.96
6.33
6.28
5.92
5.49
5.14
4.87
4.52
3.90
2.93
1.67
0.33
-0.85
-1.74
-2.39
-2.95
-3.58
-4.30
-4.97
-5.31
-5.07
-4.17
-2.78
-1.26
-0.05
0.61
0.70
0.49
0.32
0.47
0.98
1.69
2.37
2.83
3.05
3.13
3.24
3.45
3.69
3.82
3.69
3.28
2.72
2.22
1.98
2.03
2.25
2.39
2.24
1.75
1.03
0.32
-0.18
-0.42
-0.51
-0.69
-1.17
-1.98
-2.95
-3.75
-4.06
-3.70
-2.68
-1.24
0.31
1.71
2.76
3.46
3.85
4.00
3.94
3.68
3.21
2.59
1.89
1.24
0.70
0.24
-0.26
-0.93
-1.86
-2.97
-4.07
-4.88
-5.22
-5.06
-4.58
-4.02
-3.62
-3.48
-3.53
-3.63
-3.64
-3.50
-3.26
-3.00
-2.81
-2.70
-2.67
-2.64
-2.60
-2.51
-2.33
-1.96
-1.32
-0.36
0.86
2.22
3.53
4.63
5.39
5.77
5.76
5.39
4.71
3.81
2.84
1.95
1.22
0.65
0.15
-0.40
-1.00
-1.54
-1.82
-1.73
-1.26
-0.65
-0.16
-0.01
-0.24
-0.67
-1.07
-1.27
-1.27
-1.19
-1.23
-1.47
-1.87
-2.29
-2.60
-2.75
-2.77
-2.77
-2.78
-2.75
-2.57
-2.11
-1.34
-0.32
0.75
1.67
2.27
2.55
2.62
2.68
2.89
3.27
3.68
3.89
3.71
3.09
2.14
1.16
0.42
0.09
0.14
0.37
0.52
0.43
0.08
-0.37
-0.73
-0.86
-0.78
-0.66
-0.69
-0.98
-1.48
-2.03
-2.46
-2.68
-2.75
-2.78
-2.85
-2.87
-2.63
-1.89
-0.54
1.29
3.22
4.79
5.64
5.70
5.19
4.48
3.94
3.72
3.71
3.69
3.40
2.77
1.88
0.98
0.26
-0.19
-0.44
-0.65
-0.93
-1.33
-1.74
-2.01
-2.04
-1.80
-1.41
-1.06
-0.93
-1.12
-1.59
-2.16
-2.61
-2.81
-2.75
-2.63
-2.66
-2.99
-3.55
-4.04
-4.13
-3.61
-2.50
-1.10
0.22
1.19
1.78
2.19
2.68
3.38
4.19
4.83
5.05
4.73
3.96
2.97
2.02
1.21
0.52
-0.15
-0.87
-1.58
-2.12
-2.29
-2.03
-1.44
-0.77
-0.29
-0.17
-0.42
-0.88
-1.32
-1.61
-1.75
-1.87
-2.12
-2.57
-3.20
-3.83
-4.24
-4.23
-3.73
-2.79
-1.58
-0.30
0.81
1.65
2.17
2.46
2.63
2.72
2.74
2.65
2.42
2.11
1.84
1.71
1.72
1.73
1.52
0.94
0.05
-0.90
-1.57
-1.72
-1.33
-0.64
-0.02
0.27
0.19
-0.04
-0.10
0.23
0.94
1.78
2.42
2.59
2.22
1.46
0.56
-0.26
-0.90
-1.38
-1.75
-1.98
-1.94
-1.50
-0.60
0.62
1.84
2.66
2.81
2.25
1.23
0.17
-0.51
-0.60
-0.16
0.49
1.01
1.12
0.79
0.18
-0.45
-0.89
-1.11
-1.18
-1.26
-1.43
-1.65
-1.78
-1.69
-1.36
-0.93
-0.65
-0.74
-1.23
-2.01
-2.80
-3.35
-3.56
-3.50
-3.37
-3.33
-3.33
-3.20
-2.69
-1.68
-0.25
1.28
2.55
3.32
3.61
3.63
3.71
4.07
4.70
5.38
5.80
5.71
5.07
4.07
3.02
2.22
1.77
1.56
1.37
1.01
0.47
-0.05
-0.33
-0.22
0.16
0.52
0.56
0.09
-0.80
-1.82
-2.64
-3.04
-3.04
-2.90
-2.93
-3.38
-4.22
-5.18
-5.83
-5.80
-4.97
-3.54
-1.90
-0.48
0.49
1.05
1.43
1.87
2.42
2.97
3.29
3.17
2.63
1.83
1.05
0.48
0.18
0.02
-0.19
-0.61
-1.19
-1.75
-2.03
-1.86
-1.26
-0.50
0.10
0.28
-0.00
-0.58
-1.18
-1.56
-1.66
-1.58
-1.54
-1.73
-2.20
-2.82
-3.36
-3.60
-3.40
-2.80
-1.91
-0.90
0.10
1.02
1.84
2.52
3.06
3.39
3.49
3.35
3.04
2.64
2.30
2.09
2.04
2.02
1.84
1.37
0.58
-0.36
-1.17
-1.58
-1.50
-1.06
-0.54
-0.20
-0.14
-0.23
-0.23
0.05
0.60
1.20
1.55
1.41
0.73
-0.29
-1.38
-2.25
-2.76
-2.93
-2.84
-2.57
-2.15
-1.52
-0.66
0.39
1.46
2.33
2.84
2.93
2.74
2.52
2.51
2.80
3.29
3.69
3.72
3.23
2.34
1.36
0.62
0.31
0.35
0.47
0.40
0.02
-0.56
-1.08
-1.31
-1.21
-0.93
-0.74
-0.89
-1.47
-2.39
-3.45
-4.38
-5.01
-5.26
-5.19
-4.87
-4.38
-3.75
-2.93
-1.87
-0.56
0.86
2.21
3.27
3.95
4.29
4.45
4.62
4.87
5.16
5.33
5.22
4.78
4.13
3.42
2.83
2.43
2.16
1.93
1.64
1.28
0.88
0.56
0.36
0.29
0.25
0.07
-0.40
-1.21
-2.27
-3.36
-4.22
-4.67
-4.74
-4.63
-4.67
-5.06
-5.75
-6.43
-6.63
-6.01
-4.57
-2.67
-0.83
0.50
1.22
1.51
1.73
2.11
2.60
2.97
2.94
2.42
1.61
0.84
0.40
0.34
0.47
0.46
0.10
-0.62
-1.41
-1.94
-1.95
-1.44
-0.63
0.11
0.52
0.47
0.08
-0.42
-0.86
-1.12
-1.25
-1.37
-1.59
-1.97
-2.44
-2.87
-3.12
-3.06
-2.64
-1.93
-1.05
-0.14
0.72
1.56
2.41
3.31
4.16
4.78
5.00
4.75
4.11
3.29
2.50
1.86
1.33
0.82
0.22
-0.48
-1.17
-1.71
-1.95
-1.82
-1.38
-0.77
-0.19
0.17
0.25
0.14
-0.00
-0.01
0.14
0.32
0.29
-0.09
-0.78
-1.54
-2.06
-2.12
-1.74
-1.11
-0.48
-0.01
0.33
0.67
1.15
1.79
2.51
3.14
3.56
3.75
3.78
3.73
3.70
3.69
3.62
3.38
2.89
2.10
1.13
0.13
-0.70
-1.29
-1.65
-1.92
-2.26
-2.68
-3.09
-3.30
-3.15
-2.65
-2.02
-1.54
-1.42
-1.70
-2.24
-2.79
-3.16
-3.26
-3.16
-2.93
-2.62
-2.17
-1.50
-0.51
0.76
2.12
3.29
3.99
4.10
3.71
3.11
2.64
2.53
2.78
3.19
3.44
3.29
2.70
1.82
0.92
0.21
-0.21
-0.38
-0.42
-0.43
-0.43
-0.37
-0.23
-0.01
0.16
0.12
-0.27
-1.02
-1.95
-2.75
-3.16
-3.09
-2.67
-2.25
-2.15
-2.55
-3.33
-4.09
-4.41
-3.97
-2.76
-1.04
0.79
2.33
3.39
4.02
4.39
4.69
4.98
5.18
5.11
4.66
3.85
2.85
1.92
1.27
0.96
0.84
0.68
0.24
-0.52
-1.45
-2.23
-2.56
-2.36
-1.78
-1.14
-0.78
-0.84
-1.20
-1.58
-1.74
-1.62
-1.36
-1.25
-1.45
-1.94
-2.51
-2.90
-3.02
-2.96
-2.97
-3.25
-3.81
-4.41
-4.68
-4.32
-3.25
-1.72
-0.18
0.95
1.46
1.43
1.17
1.04
1.28
1.86
2.53
2.95
2.89
2.34
1.51
0.68
0.10
-0.21
-0.37
-0.57
-0.91
-1.31
-1.56
-1.44
-0.83
0.11
1.05
1.61
1.57
0.99
0.18
-0.49
-0.75
-0.61
-0.36
-0.32
-0.73
-1.55
-2.47
-3.08
-3.09
-2.46
-1.41
-0.30
0.59
1.16
1.53
1.88
2.38
3.05
3.75
4.27
4.44
4.22
3.73
3.18
2.73
2.42
2.16
1.78
1.17
0.35
-0.51
-1.17
-1.46
-1.39
-1.12
-0.91
-0.91
-1.14
-1.46
-1.67
-1.66
-1.45
-1.22
-1.13
-1.30
-1.70
-2.23
-2.76
-3.24
-3.67
-4.08
-4.46
-4.70
-4.62
-4.11
-3.15
-1.91
-0.67
0.29
0.81
0.94
0.95
1.13
1.70
2.63
3.66
4.41
4.60
4.17
3.29
2.30
1.51
1.04
0.82
0.68
0.46
0.17
-0.09
-0.09
0.28
1.02
1.94
2.74
3.18
3.17
2.82
2.34
1.96
1.72
1.52
1.14
0.40
-0.70
-1.96
-3.06
-3.65
-3.55
-2.79
-1.58
-0.25
0.93
1.78
2.29
2.56
2.68
2.73
2.68
2.48
2.13
1.73
1.46
1.47
1.81
2.33
2.80
2.95
2.66
2.03
1.27
0.64
0.30
0.22
0.25
0.21
0.00
-0.33
-0.66
-0.90
-1.07
-1.31
-1.78
-2.60
-3.69
-4.86
-5.87
-6.55
-6.86
-6.94
-6.93
-6.90
-6.78
-6.38
-5.51
-4.10
-2.29
-0.41
1.19
2.24
2.74
2.90
3.02
3.33
3.81
4.21
4.18
3.51
2.25
0.74
-0.54
-1.21
-1.23
-0.83
-0.41
-0.29
-0.51
-0.85
-0.99
-0.71
-0.06
0.67
1.07
0.89
0.14
-0.92
-1.86
-2.36
-2.32
-1.95
-1.55
-1.39
-1.51
-1.68
-1.59
-0.96
0.19
1.61
2.89
3.71
3.95
3.77
3.46
3.29
3.32
3.47
3.51
3.28
2.74
2.07
1.49
1.18
1.13
1.15
0.95
0.33
-0.69
-1.87
-2.81
-3.22
-3.01
-2.38
-1.71
-1.35
-1.44
-1.90
-2.50
-3.02
-3.37
-3.60
-3.84
-4.17
-4.52
-4.70
-4.47
-3.71
-2.47
-0.98
0.42
1.49
2.14
2.50
2.84
3.42
4.33
5.47
6.52
7.18
7.27
6.84
6.12
5.37
4.75
4.23
3.66
2.92
2.02
1.13
0.50
0.25
0.32
0.45
0.35
-0.12
-0.87
-1.60
-2.04
-2.08
-1.90
-1.84
-2.24
-3.20
-4.49
-5.67
-6.25
-5.95
-4.82
-3.20
-1.54
-0.24
0.54
0.88
1.01
1.21
1.62
2.23
2.88
3.37
3.57
3.50
3.28
3.09
3.01
2.99
2.91
2.65
2.21
1.76
1.48
1.50
1.75
2.00
1.99
1.55
0.75
-0.19
-1.00
-1.53
-1.81
-2.03
-2.40
-3.04
-3.92
-4.85
-5.62
-6.10
-6.29
-6.28
-6.17
-5.97
-5.58
-4.84
-3.70
-2.21
-0.63
0.74
1.62
1.95
1.82
1.50
1.20
1.06
1.02
0.96
0.76
0.41
0.03
-0.19
-0.11
0.24
0.73
1.14
1.34
1.31
1.16
1.01
0.97
1.02
1.06
0.94
0.53
-0.17
-1.07
-1.93
-2.56
-2.84
-2.83
-2.70
-2.67
-2.84
-3.13
-3.27
-2.92
-1.95
-0.44
1.25
2.69
3.56
3.81
3.64
3.38
3.29
3.44
3.72
3.91
3.84
3.53
3.11
2.83
2.81
3.01
3.24
3.24
2.82
2.04
1.13
0.39
0.01
-0.05
-0.01
-0.13
-0.55
-1.22
-1.90
-2.36
-2.54
-2.57
-2.70
-3.12
-3.84
-4.63
-5.18
-5.22
-4.67
-3.67
-2.49
-1.43
-0.66
-0.16
0.23
0.75
1.53
2.56
3.63
4.49
4.96
5.03
4.85
4.64
4.55
4.56
4.49
4.18
3.56
2.73
1.94
1.40
1.22
1.24
1.19
0.79
-0.03
-1.14
-2.18
-2.81
-2.88
-2.54
-2.19
-2.25
-2.95
-4.15
-5.43
-6.28
-6.35
-5.63
-4.40
-3.07
-1.94
-1.10
-0.38
0.43
1.45
2.58
3.57
4.18
4.33
4.16
3.96
3.99
4.30
4.72
4.95
4.72
4.02
3.07
2.20
1.69
1.55
1.58
1.49
1.06
0.28
-0.64
-1.46
-2.01
-2.27
-2.42
-2.64
-3.06
-3.62
-4.21
-4.67
-4.92
-5.04
-5.15
-5.39
-5.75
-6.10
-6.21
-5.87
-4.99
-3.71
-2.29
-1.03
-0.16
0.31
0.52
0.71
1.09
1.72
2.47
3.14
3.53
3.55
3.31
2.99
2.77
2.70
2.70
2.59
2.22
1.62
0.97
0.53
0.47
0.78
1.24
1.54
1.39
0.74
-0.23
-1.20
-1.89
-2.19
-2.24
-2.34
-2.73
-3.47
-4.39
-5.14
-5.38
-4.98
-4.01
-2.73
-1.45
-0.38
0.44
1.10
1.74
2.45
3.21
3.91
4.46
4.81
5.02
5.19
5.40
5.57
5.54
5.14
4.30
3.13
1.91
0.97
0.47
0.38
0.45
0.39
0.01
-0.69
-1.50
-2.15
-2.47
-2.48
-2.37
-2.42
-2.83
-3.59
-4.50
-5.29
-5.73
-5.79
-5.57
-5.22
-4.77
-4.16
-3.21
-1.88
-0.27
1.34
2.68
3.56
4.01
4.21
4.34
4.54
4.78
4.97
5.02
4.90
4.60
4.20
3.75
3.32
2.93
2.61
2.30
1.93
1.44
0.81
0.11
-0.54
-1.04
-1.35
-1.60
-1.91
-2.40
-3.07
-3.80
-4.42
-4.84
-5.11
-5.38
-5.75
-6.22
-6.56
-6.47
-5.72
-4.33
-2.59
-0.91
0.36
1.12
1.55
2.01
2.81
4.01
5.43
6.69
7.42
7.46
6.90
6.02
5.15
4.48
4.00
3.54
2.88
1.97
0.91
-0.07
-0.76
-1.14
-1.36
-1.71
-2.39
-3.41
-4.58
-5.57
-6.16
-6.26
-6.04
-5.77
-5.66
-5.78
-5.98
-6.03
-5.75
-5.09
-4.20
-3.29
-2.56
-2.03
-1.61
-1.08
-0.31
0.70
1.79
2.76
3.47
3.88
4.10
4.27
4.51
4.81
5.02
4.98
4.55
3.76
2.76
1.83
1.17
0.87
0.80
0.73
0.47
-0.08
-0.79
-1.44
-1.77
-1.68
-1.21
-0.54
0.16
0.76
1.23
1.57
1.77
1.76
1.45
0.84
0.04
-0.69
-1.00
-0.65
0.39
1.90
3.46
4.63
5.17
5.10
4.74
4.51
4.72
5.38
6.21
6.73
6.53
5.44
3.63
1.52
-0.48
-2.12
-3.41
-4.53
-5.68
-6.90
-8.01
-8.75
-8.93
-8.57
-7.92
-7.34
-7.08
-7.15
-7.31
-7.22
-6.65
-5.63
-4.41
-3.32
-2.57
-2.09
-1.62
-0.91
0.14
1.36
2.42
3.00
2.99
2.51
1.87
1.41
1.33
1.67
2.29
3.00
3.66
4.24
4.80
5.42
6.13
6.80
7.26
7.31
6.86
6.02
5.01
4.11
3.48
3.11
2.80
2.33
1.57
0.62
-0.29
-0.89
-1.03
-0.77
-0.37
-0.13
-0.20
-0.50
-0.70
-0.43
0.52
2.05
3.76
5.17
5.90
5.86
5.28
4.45
3.64
2.87
2.04
1.00
-0.30
-1.70
-2.96
-3.90
-4.53
-5.00
-5.53
-6.22
-6.97
-7.55
-7.68
-7.29
-6.50
-5.63
-5.05
-4.99
-5.46
-6.28
-7.15
-7.79
-8.06
-7.96
-7.63
-7.26
-6.99
-6.81
-6.61
-6.17
-5.28
-3.92
-2.21
-0.39
1.30
2.79
4.11
5.38
6.70
7.99
9.11
9.84
10.12
10.03
9.76
9.49
9.27
9.02
8.56
7.75
6.61
5.24
3.85
2.61
1.56
0.68
-0.15
-1.03
-2.02
-3.06
-4.06
-4.90
-5.53
-5.96
-6.33
-6.81
-7.52
-8.46
-9.45
-10.23
-10.54
-10.23
-9.33
-8.00
-6.46
-4.87
-3.30
-1.72
-0.10
1.52
3.00
4.15
4.86
5.14
5.15
5.08
5.07
5.08
4.98
4.61
3.96
3.17
2.53
2.26
2.41
2.86
3.31
3.52
3.34
2.81
2.11
1.46
1.01
0.77
0.64
0.44
0.01
-0.68
-1.50
-2.20
-2.54
-2.39
-1.79
-0.95
-0.06
0.74
1.43
2.03
2.56
2.96
3.15
3.08
2.80
2.45
2.20
2.14
2.28
2.48
2.59
2.45
2.04
1.40
0.70
0.11
-0.24
-0.36
-0.38
-0.52
-0.95
-1.71
-2.64
-3.53
-4.15
-4.45
-4.55
-4.65
-4.90
-5.30
-5.70
-5.87
-5.62
-4.92
-3.86
-2.61
-1.32
-0.06
1.15
2.33
3.43
4.43
5.25
5.88
6.33
6.67
6.99
7.30
7.55
7.55
7.14
6.21
4.84
3.27
1.87
0.93
0.53
0.50
0.48
0.12
-0.72
-1.91
-3.10
-3.90
-4.10
-3.74
-3.14
-2.67
-2.61
-3.03
-3.74
-4.51
-5.09
-5.37
-5.33
-5.03
-4.46
-3.59
-2.44
-1.08
0.32
1.55
2.46
3.01
3.33
3.58
3.94
4.48
5.12
5.69
5.98
5.86
5.25
4.28
3.10
1.96
1.00
0.29
-0.24
-0.73
-1.26
-1.85
-2.44
-2.92
-3.27
-3.52
-3.79
-4.17
-4.65
-5.12
-5.44
-5.52
-5.37
-5.15
-5.00
-4.96
-4.95
-4.77
-4.24
-3.30
-2.03
-0.67
0.54
1.43
1.98
2.33
2.70
3.25
4.01
4.88
5.62
6.03
6.02
5.65
5.09
4.54
4.10
3.76
3.42
3.00
2.47
1.86
1.24
0.68
0.20
-0.21
-0.60
-1.02
-1.49
-2.01
-2.50
-2.90
-3.19
-3.40
-3.63
-3.97
-4.44
-4.91
-5.20
-5.11
-4.53
-3.57
-2.44
-1.41
-0.62
-0.02
0.58
1.39
2.52
3.85
5.08
5.91
6.18
5.99
5.59
5.27
5.15
5.11
4.88
4.24
3.15
1.80
0.51
-0.46
-1.06
-1.46
-1.88
-2.47
-3.15
-3.68
-3.82
-3.51
-2.92
-2.42
-2.34
-2.84
-3.83
-5.01
-6.05
-6.68
-6.80
-6.40
-5.54
-4.31
-2.78
-1.09
0.60
2.14
3.42
4.40
5.11
5.66
6.12
6.56
6.97
7.32
7.50
7.42
7.01
6.22
5.13
3.86
2.58
1.44
0.53
-0.18
-0.77
-1.36
-2.00
-2.65
-3.18
-3.50
-3.59
-3.56
-3.60
-3.88
-4.41
-5.08
-5.71
-6.17
-6.46
-6.70
-7.03
-7.46
-7.82
-7.80
-7.15
-5.80
-3.96
-2.00
-0.27
1.03
1.97
2.81
3.79
5.03
6.40
7.63
8.43
8.68
8.44
7.89
7.23
6.56
5.87
5.04
3.98
2.70
1.30
-0.00
-1.02
-1.63
-1.87
-1.91
-1.99
-2.29
-2.88
-3.67
-4.46
-5.07
-5.41
-5.52
-5.54
-5.60
-5.75
-5.95
-6.09
-6.08
-5.88
-5.53
-5.09
-4.55
-3.87
-2.98
-1.79
-0.37
1.16
2.58
3.71
4.49
4.99
5.37
5.78
6.24
6.63
6.75
6.45
5.72
4.72
3.72
2.96
2.53
2.36
2.24
1.97
1.43
0.67
-0.13
-0.80
-1.22
-1.43
-1.54
-1.76
-2.18
-2.83
-3.58
-4.29
-4.83
-5.14
-5.25
-5.17
-4.91
-4.42
-3.63
-2.53
-1.19
0.22
1.51
2.51
3.16
3.51
3.74
4.06
4.59
5.30
5.98
6.34
6.15
5.41
4.32
3.20
2.31
1.72
1.33
0.93
0.37
-0.32
-1.02
-1.56
-1.85
-1.97
-2.07
-2.30
-2.71
-3.24
-3.79
-4.27
-4.69
-5.12
-5.66
-6.27
-6.79
-6.91
-6.38
-5.07
-3.17
-1.03
0.89
2.27
3.07
3.47
3.77
4.23
4.92
5.72
6.41
6.80
6.85
6.61
6.20
5.72
5.19
4.57
3.80
2.87
1.82
0.79
-0.08
-0.70
-1.06
-1.26
-1.42
-1.68
-2.09
-2.59
-3.07
-3.43
-3.64
-3.79
-4.04
-4.52
-5.25
-6.09
-6.78
-7.06
-6.81
-6.10
-5.14
-4.15
-3.23
-2.33
-1.26
0.13
1.83
3.64
5.25
6.37
6.88
6.89
6.60
6.23
5.90
5.55
5.06
4.29
3.21
1.90
0.56
-0.58
-1.39
-1.83
-2.01
-2.10
-2.24
-2.49
-2.82
-3.12
-3.31
-3.42
-3.55
-3.83
-4.36
-5.06
-5.81
-6.43
-6.85
-7.09
-7.21
-7.27
-7.17
-6.76
-5.83
-4.29
-2.23
0.08
2.30
4.12
5.42
6.26
6.82
7.32
7.86
8.38
8.71
8.66
8.14
7.21
6.10
5.04
4.22
3.64
3.20
2.70
2.03
1.23
0.43
-0.18
-0.48
-0.54
-0.53
-0.65
-1.00
-1.54
-2.13
-2.60
-2.94
-3.21
-3.54
-4.01
-4.51
-4.84
-4.77
-4.14
-2.98
-1.47
0.11
1.50
2.51
3.11
3.40
3.61
3.92
4.44
5.11
5.71
6.02
5.92
5.44
4.77
4.12
3.57
3.06
2.41
1.52
0.42
-0.67
-1.49
-1.92
-2.04
-2.09
-2.33
-2.86
-3.57
-4.25
-4.69
-4.87
-4.93
-5.07
-5.44
-5.98
-6.49
-6.67
-6.28
-5.27
-3.76
-2.03
-0.34
1.10
2.24
3.14
3.93
4.68
5.39
6.00
6.41
6.57
6.50
6.25
5.88
5.38
4.73
3.85
2.76
1.52
0.32
-0.65
-1.22
-1.40
-1.34
-1.25
-1.33
-1.67
-2.15
-2.61
-2.87
-2.86
-2.71
-2.62
-2.82
-3.42
-4.37
-5.47
-6.46
-7.10
-7.28
-6.97
-6.26
-5.21
-3.89
-2.30
-0.48
1.47
3.33
4.88
5.92
6.42
6.56
6.59
6.75
7.11
7.54
7.79
7.62
6.95
5.91
4.75
3.70
2.85
2.13
1.39
0.53
-0.43
-1.34
-2.02
-2.37
-2.46
-2.49
-2.68
-3.15
-3.87
-4.68
-5.42
-5.98
-6.38
-6.72
-7.11
-7.61
-8.12
-8.47
-8.39
-7.69
-6.37
-4.58
-2.62
-0.78
0.77
2.01
3.09
4.13
5.17
6.09
6.72
6.94
6.74
6.25
5.65
5.03
4.40
3.69
2.85
1.92
1.03
0.34
-0.04
-0.09
0.07
0.27
0.33
0.16
-0.23
-0.69
-1.06
-1.24
-1.25
-1.22
-1.37
-1.85
-2.70
-3.74
-4.71
-5.34
-5.46
-5.06
-4.26
-3.20
-2.00
-0.75
0.52
1.75
2.89
3.82
4.48
4.82
4.91
4.91
4.99
5.29
5.76
6.21
6.37
6.00
5.08
3.78
2.41
1.26
0.44
-0.10
-0.55
-1.06
-1.71
-2.44
-3.10
-3.58
-3.83
-3.92
-3.96
-4.10
-4.41
-4.88
-5.40
-5.86
-6.16
-6.28
-6.18
-5.82
-5.09
-3.90
-2.21
-0.15
2.00
3.88
5.22
5.93
6.14
6.12
6.15
6.42
6.94
7.56
8.07
8.25
7.93
7.12
5.91
4.50
3.06
1.71
0.48
-0.60
-1.51
-2.21
-2.65
-2.85
-2.93
-3.07
-3.43
-4.02
-4.74
-5.37
-5.75
-5.83
-5.73
-5.67
-5.86
-6.39
-7.12
-7.78
-8.04
-7.61
-6.40
-4.56
-2.40
-0.32
1.43
2.75
3.75
4.63
5.56
6.54
7.47
8.18
8.59
8.71
8.60
8.32
7.83
7.05
5.93
4.51
2.97
1.56
0.47
-0.23
-0.64
-0.97
-1.38
-1.97
-2.70
-3.44
-4.08
-4.58
-5.00
-5.45
-6.01
-6.71
-7.46
-8.13
-8.59
-8.74
-8.55
-8.05
-7.27
-6.27
-5.06
-3.64
-2.06
-0.36
1.35
2.94
4.31
5.39
6.16
6.65
6.90
6.95
6.82
6.52
6.04
5.37
4.52
3.54
2.52
1.60
0.90
0.46
0.22
0.07
-0.13
-0.43
-0.74
-0.97
-1.02
-0.94
-0.86
-0.96
-1.37
-2.10
-3.06
-4.08
-4.99
-5.67
-6.03
-6.01
-5.55
-4.60
-3.17
-1.33
0.73
2.70
4.28
5.25
5.57
5.45
5.22
5.21
5.55
6.11
6.60
6.71
6.30
5.44
4.40
3.44
2.72
2.20
1.70
1.05
0.17
-0.84
-1.81
-2.52
-2.92
-3.12
-3.32
-3.72
-4.38
-5.20
-5.94
-6.39
-6.48
-6.26
-5.90
-5.51
-5.11
-4.56
-3.66
-2.31
-0.59
1.24
2.86
4.01
4.66
4.97
5.22
5.64
6.28
6.96
7.43
7.48
7.06
6.32
5.47
4.69
4.02
3.34
2.49
1.41
0.14
-1.11
-2.14
-2.81
-3.16
-3.34
-3.53
-3.83
-4.21
-4.57
-4.80
-4.90
-4.99
-5.21
-5.67
-6.32
-6.95
-7.27
-7.04
-6.23
-4.97
-3.60
-2.43
-1.65
-1.19
-0.78
-0.07
1.16
2.93
4.97
6.89
8.29
8.92
8.72
7.77
6.27
4.45
2.50
0.56
-1.27
-2.95
-4.42
-5.61
-6.45
-6.90
-6.95
-6.66
-6.14
-5.48
-4.76
-4.00
-3.25
-2.54
-1.91
-1.37
-0.90
-0.48
-0.13
0.07
0.06
-0.17
-0.53
-0.88
-1.10
-1.11
-0.91
-0.55
-0.07
0.49
1.10
1.71
2.23
2.57
2.70
2.64
2.44
2.16
1.80
1.38
0.91
0.44
0.07
-0.11
-0.07
0.12
0.36
0.49
0.42
0.16
-0.22
-0.59
-0.85
-0.98
-1.03
-1.14
-1.45
-2.04
-2.89
-3.87
-4.77
-5.43
-5.74
-5.73
-5.51
-5.23
-5.00
-4.82
-4.67
-4.55
-4.54
-4.72
-5.15
-5.69
-6.11
-6.17
-5.77
-5.09
-4.50
-4.40
-4.96
-6.09
-7.46
-8.73
-9.72
-10.55
-11.51
-12.92
-14.85
-17.09
-19.22
-20.71
-21.19
-20.54
-18.81
-16.07
-12.30
-7.30
-0.76
7.55
17.61
29.09
41.38
53.71
65.24
75.16
82.76
87.45
88.93
87.22
82.67
75.89
67.63
58.60
49.40
40.42
31.93
24.10
17.06
10.89
5.58
1.04
-2.97
-6.73
-10.47
-14.23
-17.76
-20.63
-22.38
-22.69
-21.43
-18.64
-14.37
-8.73
-1.99
5.20
11.82
16.70
18.92
18.27
15.35
11.27
7.17
3.68
0.80
-1.94
-5.05
-8.80
-13.12
-17.73
-22.38
-26.90
-31.15
-34.89
-37.76
-39.33
-39.33
-37.72
-34.79
-30.99
-26.83
-22.69
-18.82
-15.29
-12.14
-9.41
-7.20
-5.65
-4.88
-4.95
-5.83
-7.38
-9.42
-11.73
-14.06
-16.22
-18.04
-19.36
-20.11
-20.20
-19.62
-18.37
-16.47
-13.94
-10.99
-7.91
-4.95
-2.22
0.37
3.02
5.94
9.32
13.19
17.21
20.90
23.71
25.22
25.15
23.43
20.13
15.56
10.21
4.31
-1.81
-7.69
-12.70
-16.17
-17.74
-17.65
-16.74
-16.19
-17.72
-22.74
-32.02
-45.39
-61.87
-79.93
-97.80
-113.72
-123.37
-123.67
-113.80
-95.77
-73.47
-50.67
-29.69
-11.25
4.75
18.50
29.53
37.42
42.25
44.90
46.89
49.41
52.83
56.62
59.77
60.91
59.14
54.41
47.49
39.71
32.34
26.25
21.61
18.31
15.86
13.75
11.60
9.28
6.83
4.37
2.07
0.17
-1.02
-1.32
-0.63
0.98
3.28
5.90
8.41
10.42
11.71
12.24
12.08
11.40
10.40
9.23
8.06
7.00
6.20
5.77
5.79
6.25
7.08
8.11
9.15
10.00
10.40
10.14
9.07
7.21
4.81
2.29
0.15
-1.19
-1.49
-0.79
0.69
2.67
4.87
7.07
9.09
10.74
11.86
12.37
12.28
11.76
11.08
10.49
10.13
9.95
9.80
9.41
8.62
7.37
5.77
4.02
2.28
0.69
-0.75
-2.06
-3.25
-4.29
-5.11
-5.64
-5.85
-5.80
-5.57
-5.27
-4.96
-4.67
-4.41
-4.23
-4.15
-4.22
-4.40
-4.63
-4.82
-4.89
-4.79
-4.55
-4.26
-3.98
-3.79
-3.73
-3.83
-4.09
-4.48
-4.96
-5.44
-5.82
-6.06
-6.17
-6.21
-6.28
-6.46
-6.77
-7.17
-7.58
-7.92
-8.11
-8.10
-7.84
-7.30
-6.49
-5.39
-4.04
-2.46
-0.69
1.23
3.24
5.26
7.19
8.91
10.29
11.22
11.66
11.65
11.37
10.99
10.73
10.71
10.96
11.41
11.92
12.35
12.63
12.75
12.73
12.60
12.34
11.92
11.28
10.34
9.04
7.37
5.40
3.24
1.09
-0.91
-2.60
-3.93
-4.89
-5.53
-5.90
-6.04
-5.99
-5.76
-5.37
-4.85
-4.22
-3.54
-2.92
-2.52
-2.56
-3.16
-4.39
-6.11
-8.07
-9.94
-11.47
-12.53
-13.15
-13.47
-13.63
-13.69
-13.67
-13.55
-13.24
-12.70
-11.87
-10.71
-9.19
-7.31
-5.17
-2.96
-0.90
0.84
2.11
2.87
3.08
2.74
1.85
0.45
-1.35
-3.35
-5.25
-6.86
-8.07
-8.92
-9.47
-9.77
-9.77
-9.43
-8.61
-7.28
-5.59
-3.86
-2.51
-1.89
-2.18
-3.30
-4.98
-6.66
-7.75
-7.88
-7.04
-5.51
-3.68
-1.78
0.27
2.72
6.24
11.46
18.78
28.21
39.40
51.71
64.51
77.16
87.18
92.16
90.41
81.85
68.20
51.99
35.49
20.14
6.51
-5.37
-15.41
-23.43
-29.17
-32.52
-33.77
-33.55
-32.59
-31.62
-31.18
-31.33
-31.76
-31.97
-31.53
-30.35
-28.57
-26.50
-24.44
-22.63
-20.91
-19.19
-17.44
-15.73
-14.26
-13.16
-12.43
-11.84
-11.06
-9.68
-7.48
-4.49
-1.07
2.24
4.87
6.54
7.27
7.40
7.39
7.64
8.34
9.44
10.70
11.81
12.49
12.62
12.15
11.16
9.80
8.28
6.85
5.73
5.10
5.04
5.52
6.40
7.44
8.39
9.07
9.42
9.42
9.12
8.60
7.96
7.23
6.41
5.49
4.51
3.54
2.67
2.01
1.64
1.63
1.91
2.30
2.62
2.83
3.07
3.62
4.75
6.53
8.73
10.62
11.13
9.16
3.96
-4.63
-16.24
-30.09
-45.38
-60.07
-71.89
-78.89
-80.26
-76.49
-68.89
-59.04
-48.34
-37.94
-28.57
-20.60
-14.08
-8.78
-4.35
-0.50
2.73
5.39
7.46
8.98
10.03
10.78
11.40
12.15
13.27
14.86
16.92
19.33
21.99
24.77
27.60
30.01
31.77
32.67
32.61
31.59
29.70
27.24
24.55
21.97
19.71
17.86
16.31
14.88
13.33
11.52
9.42
7.13
4.77
2.47
0.29
-1.78
-3.78
-5.74
-7.67
-9.52
-11.24
-12.82
-14.26
-15.59
-16.77
-17.70
-18.23
-18.16
-17.35
-15.83
-13.70
-11.23
-8.69
-6.35
-4.37
-2.83
-1.70
-0.95
-0.57
-0.57
-0.98
-1.80
-2.91
-4.10
-5.10
-5.67
-5.68
-5.09
-4.00
-2.51
-0.73
1.23
3.28
5.30
7.18
8.79
10.06
10.95
11.48
11.73
11.74
11.54
11.12
10.48
9.63
8.66
7.72
7.00
6.62
6.63
6.94
7.43
7.99
8.54
9.08
9.60
10.08
10.43
10.54
10.29
9.60
8.47
6.96
5.19
3.31
1.44
-0.40
-2.19
-3.93
-5.58
-7.01
-8.08
-8.70
-8.93
-8.98
-9.11
-9.52
-10.26
-11.22
-12.19
-12.92
-13.27
-13.19
-12.74
-12.02
-11.13
-10.16
-9.16
-8.19
-7.31
-6.57
-6.00
-5.56
-5.17
-4.76
-4.35
-4.04
-4.02
-4.48
-5.48
-6.94
-8.69
-10.52
-12.24
-13.68
-14.63
-14.86
-14.18
-12.52
-10.00
-6.85
-3.33
0.39
4.23
8.14
11.94
15.35
17.96
19.47
19.76
18.96
17.40
15.47
13.47
11.61
9.98
8.58
7.42
6.47
5.72
5.18
4.85
4.70
4.71
4.82
4.97
5.07
5.08
5.00
4.88
4.78
4.72
4.74
4.81
4.92
5.03
5.13
5.19
5.19
5.08
4.88
4.61
4.34
4.09
3.87
3.63
3.29
2.81
2.23
1.70
1.43
1.64
2.38
3.60
5.11
6.70
8.23
9.64
10.91
12.05
13.08
14.00
14.87
15.81
16.98
18.53
20.50
22.82
25.30
27.71
29.85
31.65
33.15
34.50
35.85
37.28
38.71
39.98
40.94
41.49
41.56
41.13
40.03
37.99
34.70
29.93
23.68
16.18
7.79
-1.10
-10.18
-19.24
-28.08
-36.48
-44.13
-50.74
-56.07
-60.02
-62.50
-63.47
-62.88
-60.65
-56.81
-51.58
-45.34
-38.63
-32.01
-25.97
-20.82
-16.73
-13.64
-11.40
-9.82
-8.69
-7.86
-7.22
-6.72
-6.36
-6.12
-6.02
-6.03
-6.12
-6.20
-6.21
-6.05
-5.65
-4.88
-3.61
-1.70
0.88
4.02
7.39
10.52
12.96
14.42
14.85
14.40
13.30
11.77
9.93
7.86
5.62
3.27
0.93
-1.26
-3.16
-4.64
-5.60
-6.05
-6.04
-5.75
-5.35
-5.00
-4.80
-4.77
-4.92
-5.28
-5.84
-6.57
-7.33
-7.95
-8.25
-8.08
-7.44
-6.39
-5.08
-3.66
-2.28
-1.03
0.02
0.83
1.35
1.56
1.47
1.12
0.62
0.11
-0.24
-0.31
-0.08
0.36
0.89
1.38
1.74
1.95
1.92
1.52
0.50
-1.46
-4.59
-9.00
-14.58
-21.10
-28.21
-35.49
-42.46
-48.51
-52.99
-55.33
-55.34
-53.25
-49.77
-45.86
-42.39
-39.85
-38.27
-37.25
-36.25
-34.82
-32.78
-30.17
-27.18
-24.05
-20.93
-17.92
-15.02
-12.18
-9.24
-5.97
-1.99
3.05
9.44
17.21
26.05
35.30
44.08
51.52
57.00
60.30
61.66
61.64
60.88
59.89
58.93
57.97
56.84
55.36
53.41
51.02
48.31
45.44
42.49
39.54
36.61
33.77
31.08
28.61
26.35
24.24
22.12
19.75
16.93
13.50
9.48
5.03
0.45
-3.95
-7.94
-11.47
-14.64
-17.58
-20.35
-22.87
-24.93
-26.24
-26.63
-26.10
-24.80
-22.95
-20.79
-18.48
-16.14
-13.88
-11.87
-10.29
-9.31
-8.95
-9.08
-9.39
-9.54
-9.21
-8.25
-6.68
-4.65
-2.39
-0.15
1.88
3.51
4.64
5.18
5.15
4.68
3.94
3.14
2.42
1.81
1.26
0.71
0.12
-0.45
-0.90
-1.16
-1.24
-1.21
-1.15
-1.14
-1.22
-1.40
-1.66
-2.01
-2.47
-3.04
-3.68
-4.38
-5.11
-5.85
-6.60
-7.36
-8.10
-8.74
-9.21
-9.43
-9.34
-8.92
-8.18
-7.20
-6.05
-4.87
-3.75
-2.76
-1.89
-1.12
-0.43
0.24
0.89
1.55
2.21
2.89
3.59
4.35
5.15
6.00
6.92
7.91
8.99
10.09
11.12
11.87
12.11
11.63
10.32
8.16
5.25
1.74
-2.14
-6.12
-9.88
-13.00
-15.07
-15.75
-14.91
-12.66
-9.37
-5.56
-1.79
1.53
4.17
6.14
7.56
8.61
9.41
10.01
10.38
10.53
10.49
10.33
10.09
9.70
9.07
8.15
6.96
5.69
4.60
3.92
3.79
4.19
4.99
6.01
7.08
8.02
8.67
8.88
8.57
7.72
6.51
5.19
4.09
3.48
3.50
4.14
5.22
6.50
7.72
8.70
9.34
9.58
9.41
8.84
7.81
6.20
3.84
0.56
-3.68
-8.63
-13.78
-18.39
-21.78
-23.51
-23.55
-22.26
-20.12
-17.63
-15.08
-12.57
-10.15
-7.91
-6.02
-4.65
-3.89
-3.67
-3.77
-3.89
-3.80
-3.39
-2.63
-1.62
-0.43
0.90
2.32
3.76
5.08
6.09
6.61
6.52
5.84
4.74
3.45
2.21
1.20
0.47
0.00
-0.29
-0.53
-0.81
-1.18
-1.66
-2.22
-2.84
-3.50
-4.18
-4.87
-5.50
-6.00
-6.32
-6.43
-6.40
-6.29
-6.16
-6.01
-5.79
-5.48
-5.08
-4.65
-4.20
-3.70
-3.02
-2.01
-0.65
0.95
2.53
3.80
4.53
4.70
4.44
3.99
3.52
3.10
2.67
2.08
1.25
0.17
-1.08
-2.37
-3.55
-4.47
-5.00
-5.00
-4.30
-2.81
-0.46
2.61
6.13
9.64
12.60
14.57
15.26
14.64
12.91
10.35
7.24
3.82
0.29
-3.14
-6.22
-8.68
-10.34
-11.14
-11.13
-10.45
-9.20
-7.49
-5.42
-3.16
-0.90
1.15
2.85
4.16
5.12
5.79
6.20
6.38
6.29
5.99
5.55
5.08
4.65
4.24
3.77
3.13
2.27
1.24
0.23
-0.58
-1.06
-1.19
-1.02
-0.71
-0.36
-0.02
0.33
0.72
1.21
1.81
2.56
3.49
4.61
5.94
7.37
8.79
10.03
10.99
11.62
11.96
12.10
12.15
12.23
12.44
12.88
13.57
14.52
15.63
16.80
17.91
18.88
19.67
20.28
20.70
20.92
20.91
20.64
20.13
19.40
18.53
17.65
16.98
16.73
17.13
18.31
20.26
22.77
25.47
27.85
29.34
29.51
28.15
25.35
21.49
17.12
12.74
8.65
4.91
1.37
-2.15
-5.73
-9.32
-12.78
-16.01
-19.02
-21.98
-25.10
-28.54
-32.26
-36.06
-39.62
-42.64
-44.90
-46.30
-46.78
-46.32
-44.88
-42.50
-39.33
-35.60
-31.63
-27.73
-24.13
-20.99
-18.43
-16.63
-15.76
-15.95
-17.17
-19.23
-21.82
-24.63
-27.43
-30.16
-32.75
-35.11
-37.03
-38.28
-38.72
-38.35
-37.36
-36.00
-34.45
-32.75
-30.81
-28.51
-25.73
-22.40
-18.40
-13.58
-7.74
-0.78
7.22
15.92
24.73
32.99
40.10
45.68
49.62
52.03
53.22
53.48
53.08
52.19
50.90
49.24
47.22
44.83
42.06
38.89
35.31
31.28
26.76
21.75
16.31
10.60
4.91
-0.42
-4.99
-8.58
-11.12
-12.78
-13.81
-14.43
-14.72
-14.66
-14.17
-13.25
-12.09
-10.96
-10.14
-9.75
-9.72
-9.80
-9.71
-9.30
-8.56
-7.67
-6.84
-6.24
-5.93
-5.87
-5.94
-6.05
-6.13
-6.16
-6.11
-5.98
-5.77
-5.52
-5.23
-4.92
-4.60
-4.28
-3.96
-3.62
-3.24
-2.75
-2.08
-1.20
-0.12
1.03
2.11
3.00
3.65
4.14
4.56
5.04
5.59
6.18
6.71
7.08
7.25
7.20
7.00
6.72
6.49
6.39
6.48
6.78
7.23
7.78
8.33
8.82
9.18
9.37
9.33
9.00
8.33
7.31
5.99
4.49
2.97
1.60
0.50
-0.26
-0.64
-0.68
-0.38
0.23
1.16
2.41
3.95
5.69
7.51
9.23
10.74
11.97
12.88
13.48
13.75
13.67
13.28
12.63
11.83
10.99
10.15
9.28
8.30
7.13
5.77
4.31
2.83
1.38
-0.10
-1.74
-3.62
-5.76
-8.03
-10.22
-12.11
-13.52
-14.35
-14.57
-14.19
-13.25
-11.83
-10.06
-8.05
-5.93
-3.81
-1.81
-0.04
1.39
2.38
2.88
2.90
2.49
1.76
0.83
-0.11
-0.85
-1.22
-1.14
-0.64
0.06
0.73
1.18
1.32
1.21
0.97
0.65
0.25
-0.32
-1.14
-2.22
-3.52
-4.93
-6.35
-7.74
-9.10
-10.42
-11.67
-12.76
-13.60
-14.10
-14.24
-14.07
-13.68
-13.18
-12.62
-12.02
-11.37
-10.64
-9.86
-9.08
-8.34
-7.64
-6.95
-6.19
-5.33
-4.41
-3.52
-2.80
-2.35
-2.18
-2.29
-2.60
-3.05
-3.59
-4.14
-4.58
-4.79
-4.66
-4.12
-3.22
-2.04
-0.69
0.79
2.38
4.10
5.98
8.00
10.08
12.06
13.78
15.07
15.82
16.01
15.73
15.12
14.33
13.48
12.59
11.63
10.53
9.24
7.76
6.10
4.33
2.53
0.77
-0.86
-2.33
-3.61
-4.73
-5.72
-6.63
-7.49
-8.25
-8.81
-9.07
-8.99
-8.62
-8.12
-7.67
-7.41
-7.37
-7.51
-7.72
-7.91
-8.00
-7.95
-7.73
-7.29
-6.61
-5.68
-4.62
-3.58
-2.74
-2.25
-2.11
-2.23
-2.49
-2.75
-2.98
-3.19
-3.39
-3.57
-3.61
-3.35
-2.63
-1.39
0.32
2.37
4.57
6.79
8.90
10.80
12.37
13.44
13.86
13.57
12.62
11.23
9.68
8.24
7.04
6.07
5.22
4.36
3.45
2.50
1.61
0.84
0.21
-0.33
-0.83
-1.34
-1.86
-2.33
-2.72
-3.01
-3.24
-3.47
-3.72
-3.99
-4.19
-4.27
-4.19
-3.99
-3.73
-3.46
-3.22
-2.97
-2.67
-2.31
-1.93
-1.58
-1.29
-1.04
-0.82
-0.65
-0.61
-0.81
-1.30
-2.00
-2.74
-3.32
-3.60
-3.58
-3.35
-3.05
-2.73
-2.39
-2.00
-1.56
-1.08
-0.61
-0.13
0.37
0.88
1.37
1.76
1.97
2.00
1.94
1.94
2.09
2.37
2.69
2.90
2.93
2.76
2.46
2.12
1.79
1.51
1.23
0.91
0.49
-0.04
-0.66
-1.27
-1.74
-1.95
-1.84
-1.43
-0.81
-0.13
0.53
1.10
1.61
2.10
2.62
3.23
3.90
4.58
5.14
5.44
5.39
4.99
4.37
3.69
3.16
2.90
2.91
3.09
3.23
3.17
2.81
2.17
1.35
0.51
-0.18
-0.63
-0.80
-0.74
-0.62
-0.61
-0.87
-1.48
-2.36
-3.33
-4.13
-4.54
-4.44
-3.86
-2.94
-1.86
-0.84
-0.01
0.53
0.79
0.84
0.80
0.81
0.93
1.20
1.53
1.81
1.94
1.90
1.70
1.41
1.09
0.81
0.60
0.48
0.44
0.50
0.60
0.70
0.75
0.73
0.65
0.54
0.43
0.32
0.17
-0.08
-0.47
-1.00
-1.57
-2.08
-2.43
-2.56
-2.48
-2.19
-1.73
-1.09
-0.29
0.60
1.44
2.07
2.39
2.40
2.22
2.03
1.98
2.08
2.22
2.28
2.15
1.81
1.36
0.92
0.62
0.51
0.54
0.66
0.78
0.83
0.79
0.64
0.41
0.13
-0.18
-0.47
-0.70
-0.81
-0.81
-0.73
-0.69
-0.82
-1.20
-1.83
-2.58
-3.28
-3.75
-3.88
-3.63
-3.06
-2.29
-1.42
-0.58
0.14
0.70
1.08
1.24
1.21
0.99
0.60
0.12
-0.38
-0.79
-1.04
-1.09
-0.98
-0.76
-0.50
-0.28
-0.13
-0.08
-0.13
-0.25
-0.39
-0.52
-0.63
-0.78
-1.03
-1.42
-1.94
-2.50
-2.99
-3.30
-3.41
-3.34
-3.14
-2.84
-2.44
-1.91
-1.26
-0.53
0.18
0.80
1.29
1.66
1.99
2.29
2.54
2.67
2.61
2.33
1.91
1.47
1.17
1.07
1.17
1.34
1.43
1.32
0.99
0.48
-0.09
-0.64
-1.09
-1.42
-1.66
-1.83
-2.02
-2.30
-2.71
-3.25
-3.80
-4.21
-4.28
-3.91
-3.11
-1.99
-0.74
0.47
1.48
2.25
2.76
3.04
3.16
3.22
3.30
3.45
3.67
3.88
4.01
4.03
3.91
3.70
3.40
3.05
2.64
2.19
1.75
1.39
1.15
1.00
0.88
0.72
0.48
0.19
-0.12
-0.40
-0.69
-1.03
-1.45
-1.91
-2.31
-2.53
-2.52
-2.27
-1.86
-1.35
-0.82
-0.26
0.29
0.80
1.20
1.45
1.54
1.52
1.48
1.45
1.44
1.39
1.22
0.93
0.58
0.29
0.15
0.21
0.40
0.64
0.83
0.90
0.85
0.70
0.51
0.30
0.11
-0.12
-0.42
-0.87
-1.52
-2.35
-3.25
-4.07
-4.63
-4.87
-4.82
-4.57
-4.23
-3.84
-3.36
-2.74
-2.03
-1.33
-0.78
-0.49
-0.41
-0.42
-0.41
-0.31
-0.19
-0.15
-0.26
-0.53
-0.89
-1.27
-1.65
-2.00
-2.29
-2.47
-2.43
-2.17
-1.77
-1.42
-1.29
-1.43
-1.75
-2.05
-2.18
-2.10
-1.94
-1.84
-1.89
-2.00
-2.01
-1.75
-1.17
-0.35
0.57
1.47
2.33
3.22
4.21
5.30
6.35
7.21
7.71
7.81
7.57
7.11
6.57
6.01
5.46
4.91
4.34
3.74
3.10
2.41
1.66
0.87
0.09
-0.60
-1.10
-1.37
-1.45
-1.43
-1.47
-1.69
-2.11
-2.69
-3.28
-3.73
-3.90
-3.73
-3.21
-2.46
-1.60
-0.75
-0.02
0.56
0.98
1.26
1.43
1.53
1.62
1.73
1.90
2.08
2.21
2.22
2.07
1.74
1.26
0.65
-0.02
-0.69
-1.26
-1.64
-1.74
-1.52
-1.03
-0.37
0.30
0.86
1.25
1.47
1.56
1.59
1.62
1.62
1.52
1.21
0.62
-0.28
-1.40
-2.56
-3.60
-4.37
-4.80
-4.87
-4.63
-4.15
-3.54
-2.88
-2.23
-1.62
-1.03
-0.44
0.12
0.64
1.06
1.39
1.69
2.04
2.54
3.15
3.81
4.41
4.88
5.19
5.36
5.37
5.21
4.82
4.16
3.26
2.19
1.07
-0.01
-0.97
-1.76
-2.35
-2.71
-2.89
-2.97
-3.04
-3.20
-3.41
-3.61
-3.68
-3.52
-3.09
-2.40
-1.48
-0.40
0.74
1.85
2.79
3.46
3.81
3.86
3.70
3.41
3.05
2.63
2.14
1.60
1.03
0.52
0.12
-0.17
-0.36
-0.52
-0.69
-0.86
-1.03
-1.17
-1.29
-1.44
-1.69
-2.03
-2.43
-2.79
-3.04
-3.18
-3.27
-3.41
-3.69
-4.16
-4.77
-5.44
-6.09
-6.62
-6.96
-7.06
-6.89
-6.44
-5.75
-4.86
-3.85
-2.76
-1.66
-0.60
0.33
1.08
1.60
1.85
1.88
1.74
1.53
1.35
1.31
1.49
1.94
2.64
3.52
4.42
5.16
5.53
5.45
4.92
4.10
3.20
2.42
1.90
1.63
1.49
1.34
1.05
0.54
-0.15
-0.96
-1.78
-2.47
-2.95
-3.15
-3.06
-2.69
-2.07
-1.27
-0.34
0.63
1.60
2.50
3.30
3.96
4.50
4.90
5.17
5.28
5.20
4.93
4.50
3.99
3.50
3.10
2.81
2.57
2.29
1.90
1.39
0.81
0.26
-0.22
-0.64
-1.10
-1.71
-2.53
-3.55
-4.67
-5.75
-6.64
-7.22
-7.41
-7.22
-6.70
-5.96
-5.14
-4.37
-3.70
-3.12
-2.56
-1.92
-1.15
-0.29
0.58
1.34
1.93
2.36
2.70
3.01
3.32
3.61
3.87
4.11
4.39
4.72
5.08
5.34
5.34
5.01
4.38
3.61
2.93
2.46
2.19
1.96
1.57
0.92
0.00
-1.02
-1.96
-2.66
-3.04
-3.10
-2.87
-2.36
-1.61
-0.66
0.39
1.40
2.22
2.75
3.00
3.07
3.08
3.09
3.11
3.12
3.08
2.99
2.89
2.81
2.74
2.65
2.47
2.20
1.88
1.58
1.35
1.16
0.93
0.58
0.08
-0.50
-1.05
-1.47
-1.75
-1.96
-2.21
-2.60
-3.19
-3.93
-4.73
-5.46
-6.00
-6.26
-6.23
-5.95
-5.54
-5.15
-4.90
-4.85
-4.97
-5.19
-5.38
-5.44
-5.35
-5.09
-4.73
-4.30
-3.87
-3.50
-3.24
-3.08
-3.01
-2.96
-2.83
-2.53
-2.03
-1.39
-0.71
-0.13
0.25
0.40
0.38
0.27
0.13
-0.02
-0.21
-0.47
-0.78
-1.12
-1.41
-1.62
-1.70
-1.64
-1.44
-1.09
-0.63
-0.10
0.43
0.89
1.28
1.63
2.01
2.47
3.01
3.55
4.03
4.38
4.60
4.71
4.75
4.73
4.70
4.67
4.67
4.74
4.88
5.06
5.26
5.41
5.50
5.51
5.43
5.24
4.93
4.51
4.01
3.48
2.93
2.37
1.76
1.08
0.36
-0.26
-0.62
-0.62
-0.27
0.32
0.97
1.54
1.97
2.24
2.37
2.38
2.27
2.07
1.83
1.59
1.37
1.15
0.90
0.60
0.27
-0.05
-0.31
-0.51
-0.68
-0.80
-0.86
-0.78
-0.54
-0.17
0.19
0.40
0.35
0.03
-0.48
-1.03
-1.51
-1.86
-2.09
-2.25
-2.40
-2.56
-2.73
-2.90
-3.03
-3.10
-3.03
-2.75
-2.23
-1.50
-0.65
0.11
0.63
0.82
0.67
0.31
-0.13
-0.53
-0.85
-1.07
-1.23
-1.36
-1.47
-1.60
-1.76
-1.93
-2.08
-2.15
-2.06
-1.77
-1.28
-0.66
-0.03
0.47
0.75
0.76
0.53
0.10
-0.46
-1.06
-1.65
-2.19
-2.64
-2.98
-3.20
-3.30
-3.26
-3.06
-2.69
-2.16
-1.53
-0.86
-0.21
0.40
0.94
1.39
1.70
1.84
1.79
1.60
1.36
1.18
1.08
1.04
0.99
0.89
0.76
0.67
0.74
1.03
1.59
2.37
3.34
4.46
5.70
7.07
8.56
10.15
11.78
13.33
14.65
15.55
15.83
15.34
13.97
11.78
8.96
5.84
2.78
0.15
-1.83
-3.09
-3.69
-3.80
-3.61
-3.26
-2.85
-2.44
-2.10
-1.88
-1.81
-1.91
-2.11
-2.33
-2.46
-2.44
-2.24
-1.86
-1.36
-0.78
-0.17
0.43
1.00
1.55
2.14
2.82
3.63
4.51
5.31
5.79
5.78
5.24
4.30
3.21
2.23
1.51
1.07
0.77
0.45
-0.02
-0.67
-1.43
-2.19
-2.84
-3.28
-3.44
-3.31
-2.94
-2.43
-1.90
-1.46
-1.15
-0.90
-0.63
-0.28
0.18
0.68
1.13
1.47
1.67
1.74
1.66
1.32
0.55
-0.90
-3.22
-6.52
-10.77
-15.82
-21.42
-27.19
-32.70
-37.42
-40.78
-42.30
-41.73
-39.15
-34.98
-29.89
-24.63
-19.80
-15.79
-12.67
-10.31
-8.45
-6.80
-5.15
-3.39
-1.52
0.35
2.05
3.38
4.17
4.28
3.69
2.48
0.89
-0.71
-1.93
-2.38
-1.84
-0.32
1.98
4.74
7.58
10.24
12.50
14.27
15.52
16.23
16.36
15.87
14.75
12.98
10.63
7.83
4.76
1.62
-1.34
-3.94
-6.00
-7.41
-8.13
-8.19
-7.79
-7.20
-6.72
-6.59
-6.89
-7.47
-8.02
-8.21
-7.77
-6.57
-4.58
-1.86
1.48
5.24
9.15
12.85
15.98
18.27
19.62
20.11
19.95
19.48
18.97
18.62
18.45
18.26
17.73
16.51
14.42
11.54
8.24
5.05
2.43
0.67
-0.17
-0.22
0.34
1.32
2.55
3.88
5.14
6.16
6.83
7.18
7.36
7.61
8.14
9.02
10.14
11.29
12.27
12.98
13.53
14.12
14.91
15.86
16.75
17.19
16.78
15.23
12.45
8.49
3.52
-2.25
-8.55
-15.09
-21.50
-27.25
-31.78
-34.56
-35.25
-33.81
-30.53
-25.90
-20.50
-14.83
-9.30
-4.20
0.17
3.54
5.67
6.42
5.82
4.02
1.21
-2.42
-6.74
-11.58
-16.72
-21.80
-26.42
-30.20
-32.85
-34.28
-34.51
-33.65
-31.79
-29.01
-25.36
-20.92
-15.81
-10.26
-4.57
0.93
5.87
9.92
12.87
14.66
15.51
15.78
15.94
16.33
17.05
17.92
18.62
18.86
18.51
17.71
16.77
16.00
15.58
15.54
15.74
16.02
16.25
16.35
16.27
15.94
15.30
14.27
12.87
11.21
9.47
7.84
6.44
5.31
4.48
3.98
3.88
4.18
4.78
5.40
5.71
5.43
4.53
3.19
1.75
0.49
-0.58
-1.62
-2.91
-4.59
-6.56
-8.57
-10.35
-11.77
-12.90
-13.85
-14.74
-15.54
-16.20
-16.63
-16.87
-17.03
-17.22
-17.42
-17.49
-17.12
-16.03
-14.03
-11.13
-7.49
-3.42
0.81
4.96
8.93
12.76
16.58
20.55
24.78
29.31
33.98
38.50
42.38
44.99
45.73
44.18
40.27
34.41
27.34
19.98
13.13
7.27
2.49
-1.38
-4.59
-7.24
-9.19
-10.21
-10.06
-8.71
-6.46
-3.80
-1.32
0.52
1.49
1.57
0.86
-0.49
-2.44
-4.95
-7.94
-11.22
-14.44
-17.27
-19.47
-21.03
-22.14
-23.07
-23.96
-24.73
-25.09
-24.69
-23.32
-21.03
-18.12
-15.01
-12.07
-9.49
-7.28
-5.34
-3.60
-2.09
-0.89
-0.14
0.10
-0.16
-0.78
-1.57
-2.41
-3.23
-4.05
-4.90
-5.77
-6.57
-7.10
-7.15
-6.52
-5.10
-2.88
0.09
3.68
7.71
11.97
16.22
20.24
23.78
26.61
28.56
29.58
29.78
29.40
28.75
28.12
27.75
27.65
27.73
27.83
27.93
28.11
28.48
29.02
29.63
30.18
30.43
30.18
29.40
28.25
26.99
25.84
24.88
24.02
23.06
21.27
17.53
10.68
-0.08
-14.84
-32.87
-52.80
-72.98
-90.96
-104.21
-110.88
-110.46
-103.86
-92.82
-79.08
-64.11
-49.76
-36.29
-23.90
-12.90
-3.58
4.00
10.07
15.06
19.19
22.72
25.99
29.07
31.85
34.12
35.70
36.43
36.22
34.94
32.57
29.21
24.89
19.69
13.87
7.92
2.46
-1.96
-4.99
-6.60
-6.98
-6.60
-6.02
-5.67
-5.82
-6.54
-7.72
-9.17
-10.61
-11.74
-12.45
-12.78
-12.93
-13.17
-13.74
-14.77
-16.26
-18.09
-20.05
-21.93
-23.49
-24.51
-24.85
-24.39
-23.11
-21.01
-18.03
-14.09
-9.12
-3.16
3.53
10.52
17.27
23.28
28.23
32.03
34.74
36.47
37.32
37.37
36.66
35.25
33.23
30.67
27.63
24.13
20.24
16.07
11.83
7.79
4.24
1.43
-0.50
-1.55
-1.83
-1.59
-1.11
-0.62
-0.21
0.21
0.81
1.78
3.12
4.61
5.86
6.39
5.92
4.41
2.15
-0.38
-2.65
-4.31
-5.17
-5.30
-4.88
-4.20
-3.52
-3.08
-3.07
-3.67
-4.97
-7.05
-9.88
-13.29
-16.99
-20.61
-23.75
-26.10
-27.50
-27.92
-27.40
-25.99
-23.62
-20.21
-15.62
-9.88
-3.21
3.95
11.00
17.27
22.15
25.25
26.47
26.08
24.53
22.40
20.12
17.90
15.69
13.30
10.60
7.62
4.62
1.95
-0.02
-1.06
-1.11
-0.28
1.24
3.25
5.52
7.82
9.94
11.64
12.70
12.93
12.29
10.89
9.01
7.04
5.37
4.33
4.08
4.63
5.83
7.46
9.22
10.78
11.89
12.35
12.02
10.79
8.58
5.32
0.96
-4.40
-10.52
-16.90
-22.90
-27.85
-31.23
-32.82
-32.79
-31.59
-29.80
-27.94
-26.28
-24.88
-23.65
-22.48
-21.37
-20.37
-19.53
-18.78
-17.95
-16.81
-15.20
-13.09
-10.58
-7.83
-4.99
-2.13
0.69
3.43
6.03
8.37
10.34
11.89
13.02
13.83
14.40
14.78
14.96
14.88
14.47
13.68
12.49
10.92
8.99
6.75
4.29
1.72
-0.83
-3.23
-5.38
-7.25
-8.87
-10.31
-11.65
-12.94
-14.22
-15.47
-16.67
-17.71
-18.53
-19.07
-19.31
-19.36
-19.29
-19.21
-19.13
-19.00
-18.69
-18.12
-17.28
-16.21
-15.03
-13.85
-12.75
-11.79
-10.99
-10.35
-9.85
-9.43
-9.03
-8.63
-8.23
-7.87
-7.61
-7.52
-7.58
-7.78
-8.08
-8.46
-8.89
-9.31
-9.65
-9.80
-9.68
-9.25
-8.52
-7.55
-6.37
-5.01
-3.46
-1.70
0.22
2.24
4.22
6.05
7.67
9.13
10.58
12.23
14.23
16.65
19.43
22.41
25.41
28.23
30.68
32.58
33.78
34.21
33.95
33.18
32.09
30.86
29.53
28.11
26.57
24.94
23.35
21.94
20.80
19.91
19.13
18.26
17.12
15.63
13.85
11.91
9.96
8.06
6.20
4.30
2.34
0.34
-1.56
-3.21
-4.55
-5.59
-6.40
-7.12
-7.80
-8.44
-8.97
-9.32
-9.41
-9.19
-8.64
-7.77
-6.66
-5.45
-4.31
-3.41
-2.84
-2.62
-2.66
-2.83
-3.02
-3.20
-3.40
-3.71
-4.18
-4.82
-5.55
-6.24
-6.79
-7.12
-7.25
-7.22
-7.11
-6.95
-6.73
-6.40
-5.90
-5.20
-4.37
-3.49
-2.68
-2.00
-1.45
-0.98
-0.53
-0.06
0.41
0.79
1.00
1.01
0.83
0.62
0.56
0.81
1.44
2.37
3.40
4.26
4.81
5.00
4.97
4.91
4.97
5.20
5.50
5.72
5.68
5.29
4.57
3.61
2.57
1.60
0.77
0.12
-0.44
-0.97
-1.55
-2.21
-2.94
-3.66
-4.33
-4.91
-5.41
-5.89
-6.37
-6.84
-7.23
-7.45
-7.44
-7.21
-6.78
-6.24
-5.58
-4.72
-3.56
-2.00
-0.07
2.11
4.29
6.24
7.81
8.99
9.87
10.59
11.27
11.98
12.69
13.36
13.89
14.21
14.27
14.06
13.59
12.91
12.08
11.17
10.28
9.48
8.82
8.31
7.93
7.65
7.44
7.33
7.33
7.45
7.66
7.88
7.98
7.83
7.30
6.33
4.95
3.26
1.46
-0.27
-1.78
-3.00
-3.96
-4.69
-5.25
-5.69
-6.01
-6.21
-6.31
-6.32
-6.28
-6.20
-6.05
-5.76
-5.30
-4.69
-4.03
-3.51
-3.31
-3.57
-4.27
-5.25
-6.27
-7.13
-7.73
-8.12
-8.47
-8.94
-9.64
-10.58
-11.67
-12.81
-13.92
-14.98
-16.07
-17.30
-18.79
-20.60
-22.75
-25.12
-27.49
-29.55
-30.97
-31.47
-30.87
-29.15
-26.47
-23.08
-19.30
-15.45
-11.80
-8.52
-5.69
-3.31
-1.29
0.50
2.23
4.06
6.03
8.13
10.26
12.29
14.16
15.86
17.46
18.98
20.44
21.78
22.97
24.06
25.16
26.37
27.69
28.95
29.80
29.79
28.58
26.00
22.15
17.36
12.06
6.74
1.76
-2.67
-6.53
-9.88
-12.76
-15.06
-16.48
-16.63
-15.22
-12.23
-7.98
-3.07
1.81
6.05
9.32
11.58
13.10
14.40
16.14
18.79
22.33
26.09
28.83
29.20
26.25
19.84
10.74
0.29
-10.03
-19.06
-26.09
-30.75
-32.94
-32.68
-30.11
-25.57
-19.61
-12.88
-6.03
0.39
5.97
10.54
14.21
17.35
20.49
24.04
28.03
31.98
34.95
35.93
34.27
29.95
23.64
16.39
9.26
2.94
-2.30
-6.55
-9.98
-12.67
-14.46
-15.11
-14.39
-12.24
-8.81
-4.43
0.46
5.43
10.09
14.08
17.04
18.55
18.25
15.94
11.71
5.93
-0.77
-7.64
-14.03
-19.56
-24.15
-27.94
-31.08
-33.72
-35.95
-37.87
-39.44
-40.63
-41.41
-41.71
-41.33
-39.92
-37.28
-33.50
-29.08
-24.57
-20.57
-17.49
-15.31
-13.44
-10.84
-6.52
0.07
8.87
19.54
31.33
43.39
55.01
65.92
76.48
87.16
98.49
108.21
113.98
113.78
106.36
91.14
67.88
37.26
1.29
-35.91
-68.66
-91.12
-99.68
-94.38
-78.85
-59.73
-41.25
-26.14
-15.45
-9.01
-5.77
-4.73
-5.19
-6.66
-8.63
-10.24
-10.88
-10.24
-8.64
-6.72
-5.50
-5.99
-8.58
-12.80
-17.27
-20.68
-22.23
-21.90
-20.21
-17.94
-15.67
-13.51
-11.20
-8.28
-4.64
-0.55
3.46
6.83
9.18
10.34
10.50
10.09
9.71
9.89
10.82
12.50
14.77
17.46
20.38
23.47
26.82
30.53
34.63
38.68
42.06
44.19
44.83
43.84
41.53
38.56
35.71
33.87
33.00
32.54
31.74
29.97
26.41
20.65
12.76
3.24
-6.74
-16.68
-26.44
-36.08
-45.85
-56.78
-69.82
-85.41
-103.09
-120.94
-137.46
-151.46
-162.06
-164.57
-156.11
-136.70
-109.63
-83.64
-60.74
-40.69
-22.76
-5.61
10.76
25.24
36.73
44.71
49.42
52.29
53.94
54.53
54.07
52.52
49.60
45.28
39.94
34.29
29.56
26.09
23.67
21.90
20.38
18.61
16.40
13.87
11.43
9.85
9.35
9.73
10.69
11.83
12.75
13.21
13.13
12.63
12.14
11.83
11.78
11.98
12.33
12.68
12.89
12.89
12.70
12.46
12.16
11.80
11.29
10.58
9.68
8.66
7.62
6.65
5.75
4.86
3.84
2.64
1.26
-0.19
-1.55
-2.76
-3.86
-4.95
-6.11
-7.27
-8.20
-8.63
-8.36
-7.39
-5.92
-4.18
-2.41
-0.70
0.90
2.42
3.81
5.08
6.21
7.29
8.42
9.72
11.23
12.89
14.61
16.23
17.53
18.28
18.27
17.39
15.65
13.25
10.49
7.71
5.20
3.14
1.57
0.39
-0.61
-1.69
-3.06
-4.77
-6.69
-8.54
-9.95
-10.72
-10.80
-10.37
-9.71
-9.03
-8.46
-7.97
-7.49
-6.95
-6.37
-5.84
-5.46
-5.31
-5.37
-5.55
-5.76
-5.92
-6.03
-6.17
-6.44
-6.88
-7.45
-7.97
-8.25
-8.13
-7.57
-6.64
-5.45
-4.17
-2.91
-1.81
-1.02
-0.69
-0.99
-1.94
-3.42
-5.13
-6.69
-7.73
-8.04
-7.57
-6.45
-4.90
-3.14
-1.30
0.59
2.56
4.64
6.73
8.64
10.11
10.93
11.09
10.76
10.25
9.84
9.64
9.61
9.58
9.42
9.11
8.82
8.74
9.02
9.65
10.47
11.20
11.59
11.43
10.62
9.12
6.93
4.16
0.98
-2.26
-5.15
-7.21
-8.15
-7.86
-6.55
-4.60
-2.45
-0.48
1.08
2.13
2.64
2.64
2.15
1.30
0.26
-0.70
-1.36
-1.56
-1.33
-0.85
-0.34
-0.02
-0.00
-0.27
-0.74
-1.30
-1.85
-2.30
-2.60
-2.76
-2.78
-2.76
-2.77
-2.92
-3.24
-3.70
-4.21
-4.62
-4.83
-4.77
-4.46
-3.92
-3.22
-2.39
-1.49
-0.58
0.26
0.97
1.55
2.01
2.39
2.71
2.95
3.06
2.98
2.69
2.24
1.71
1.16
0.65
0.17
-0.24
-0.55
-0.70
-0.64
-0.45
-0.25
-0.23
-0.48
-0.97
-1.51
-1.85
-1.79
-1.31
-0.51
0.42
1.35
2.26
3.19
4.17
5.17
6.11
6.89
7.44
7.80
8.01
8.09
8.01
7.70
7.13
6.31
5.30
4.20
3.10
2.08
1.19
0.47
-0.08
-0.50
-0.83
-1.12
-1.43
-1.83
-2.39
-3.18
-4.19
-5.34
-6.47
-7.40
-8.00
-8.22
-8.06
-7.54
-6.72
-5.66
-4.48
-3.31
-2.27
-1.42
-0.75
-0.21
0.23
0.56
0.75
0.81
0.78
0.72
0.64
0.49
0.23
-0.16
-0.62
-1.02
-1.26
-1.30
-1.19
-1.00
-0.79
-0.60
-0.47
-0.47
-0.70
-1.20
-1.94
-2.72
-3.31
-3.49
-3.13
-2.27
-1.05
0.35
1.80
3.18
4.43
5.52
6.41
7.04
7.38
7.41
7.16
6.68
6.07
5.39
4.70
4.01
3.27
2.41
1.40
0.24
-0.97
-2.10
-3.02
-3.64
-3.98
-4.08
-4.05
-3.96
-3.83
-3.64
-3.36
-2.92
-2.30
-1.46
-0.42
0.80
2.14
3.50
4.76
5.87
6.78
7.51
8.11
8.61
9.01
9.24
9.27
9.07
8.67
8.13
7.53
6.96
6.49
6.17
6.01
5.96
5.89
5.65
5.10
4.23
3.12
1.95
0.82
-0.26
-1.43
-2.84
-4.55
-6.39
-8.04
-9.10
-9.31
-8.60
-7.11
-5.12
-2.93
-0.80
1.02
2.36
3.05
3.03
2.36
1.21
-0.21
-1.79
-3.49
-5.40
-7.63
-10.14
-12.77
-15.22
-17.19
-18.41
-18.72
-18.09
-16.52
-14.13
-11.06
-7.57
-3.91
-0.37
2.81
5.46
7.49
8.86
9.54
9.55
8.91
7.74
6.15
4.32
2.41
0.55
-1.17
-2.65
-3.75
-4.35
-4.34
-3.75
-2.74
-1.56
-0.51
0.25
0.69
0.89
0.99
1.08
1.14
1.10
0.84
0.28
-0.65
-1.94
-3.56
-5.43
-7.46
-9.52
-11.56
-13.55
-15.48
-17.29
-18.84
-19.97
-20.48
-20.30
-19.47
-18.14
-16.45
-14.53
-12.41
-10.15
-7.84
-5.68
-3.88
-2.59
-1.81
-1.35
-0.95
-0.37
0.44
1.39
2.28
2.93
3.26
3.35
3.29
3.20
3.11
3.01
2.91
2.92
3.21
3.96
5.27
7.04
9.05
10.99
12.61
13.78
14.57
15.11
15.55
15.96
16.27
16.41
16.29
15.91
15.34
14.61
13.71
12.57
11.12
9.36
7.43
5.52
3.84
2.50
1.52
0.81
0.28
-0.12
-0.40
-0.54
-0.57
-0.57
-0.59
-0.71
-0.90
-1.12
-1.34
-1.58
-1.93
-2.49
-3.27
-4.17
-4.97
-5.41
-5.29
-4.58
-3.39
-1.96
-0.54
0.69
1.67
2.40
2.94
3.32
3.58
3.74
3.81
3.80
3.69
3.42
2.96
2.30
1.50
0.66
-0.07
-0.62
-0.95
-1.10
-1.17
-1.21
-1.24
-1.26
-1.25
-1.22
-1.17
-1.21
-1.39
-1.75
-2.24
-2.69
-2.89
-2.66
-1.91
-0.75
0.64
2.03
3.26
4.25
5.00
5.46
5.57
5.22
4.39
3.15
1.72
0.33
-0.79
-1.56
-2.01
-2.25
-2.39
-2.51
-2.68
-2.92
-3.25
-3.68
-4.16
-4.65
-5.06
-5.37
-5.59
-5.78
-6.02
-6.35
-6.77
-7.23
-7.67
-7.97
-8.02
-7.70
-6.94
-5.72
-4.09
-2.19
-0.22
1.67
3.30
4.60
5.54
6.16
6.56
6.82
7.00
7.12
7.15
7.06
6.85
6.56
6.24
5.89
5.47
4.89
4.12
3.18
2.18
1.22
0.39
-0.28
-0.82
-1.27
-1.68
-2.08
-2.50
-2.98
-3.51
-4.03
-4.44
-4.62
-4.48
-4.00
-3.28
-2.46
-1.71
-1.14
-0.79
-0.61
-0.51
-0.41
-0.29
-0.20
-0.20
-0.37
-0.74
-1.28
-1.92
-2.56
-3.09
-3.42
-3.53
-3.44
-3.20
-2.88
-2.57
-2.31
-2.13
-2.06
-2.08
-2.20
-2.38
-2.57
-2.70
-2.74
-2.63
-2.36
-1.91
-1.25
-0.36
0.70
1.85
2.95
3.87
4.54
5.02
5.39
5.73
6.06
6.33
6.47
6.47
6.38
6.30
6.29
6.33
6.31
6.11
5.63
4.89
3.92
2.80
1.58
0.30
-0.98
-2.24
-3.42
-4.49
-5.43
-6.20
-6.76
-7.07
-7.13
-6.93
-6.49
-5.82
-4.95
-3.86
-2.60
-1.25
0.06
1.17
1.99
2.48
2.72
2.81
2.87
2.95
3.04
3.10
3.07
2.92
2.71
2.52
2.44
2.48
2.60
2.72
2.78
2.78
2.77
2.82
2.96
3.14
3.30
3.35
3.24
2.94
2.46
1.80
0.96
0.00
-1.02
-1.98
-2.79
-3.34
-3.55
-3.37
-2.83
-1.98
-1.01
-0.15
0.37
0.45
0.13
-0.37
-0.79
-0.92
-0.71
-0.23
0.36
0.93
1.41
1.78
2.03
2.19
2.26
2.28
2.33
2.45
2.63
2.78
2.75
2.42
1.78
0.89
-0.08
-0.96
-1.68
-2.19
-2.57
-2.87
-3.13
-3.35
-3.49
-3.46
-3.19
-2.63
-1.75
-0.62
0.64
1.89
2.94
3.66
4.00
3.99
3.74
3.44
3.20
3.09
3.05
2.96
2.69
2.15
1.38
0.47
-0.42
-1.17
-1.74
-2.17
-2.52
-2.85
-3.16
-3.48
-3.82
-4.20
-4.72
-5.41
-6.25
-7.10
-7.71
-7.81
-7.25
-5.99
-4.21
-2.22
-0.32
1.27
2.48
3.41
4.16
4.82
5.39
5.79
5.93
5.80
5.40
4.82
4.11
3.33
2.50
1.64
0.73
-0.23
-1.23
-2.28
-3.36
-4.43
-5.44
-6.33
-7.03
-7.55
-7.93
-8.25
-8.56
-8.84
-9.00
-8.89
-8.35
-7.30
-5.78
-3.93
-1.94
0.01
1.80
3.37
4.69
5.74
6.51
7.01
7.28
7.40
7.43
7.34
7.08
6.54
5.65
4.42
2.94
1.37
-0.18
-1.61
-2.87
-3.95
-4.84
-5.51
-5.98
-6.27
-6.47
-6.62
-6.76
-6.82
-6.67
-6.17
-5.25
-3.93
-2.34
-0.64
1.06
2.68
4.21
5.62
6.87
7.83
8.39
8.49
8.17
7.52
6.65
5.64
4.51
3.25
1.86
0.41
-0.98
-2.20
-3.17
-3.88
-4.39
-4.76
-5.09
-5.40
-5.71
-6.01
-6.26
-6.44
-6.43
-6.14
-5.46
-4.32
-2.80
-1.04
0.70
2.20
3.32
4.05
4.49
4.78
5.03
5.29
5.55
5.75
5.86
5.82
5.60
5.16
4.49
3.58
2.49
1.32
0.18
-0.83
-1.64
-2.22
-2.61
-2.83
-2.94
-2.98
-2.98
-2.94
-2.87
-2.77
-2.62
-2.44
-2.23
-2.00
-1.67
-1.17
-0.45
0.49
1.55
2.56
3.33
3.70
3.68
3.35
2.90
2.47
2.15
1.87
1.55
1.12
0.56
-0.06
-0.64
-1.13
-1.50
-1.77
-1.97
-2.11
-2.14
-2.01
-1.70
-1.24
-0.74
-0.31
-0.05
0.06
0.10
0.16
0.29
0.44
0.47
0.28
-0.15
-0.76
-1.40
-1.92
-2.28
-2.43
-2.40
-2.15
-1.67
-0.95
-0.07
0.83
1.60
2.10
2.29
2.24
2.03
1.78
1.56
1.39
1.28
1.23
1.23
1.27
1.35
1.41
1.44
1.39
1.26
1.08
0.91
0.80
0.80
0.86
0.89
0.80
0.52
0.06
-0.54
-1.18
-1.83
-2.47
-3.12
-3.82
-4.55
-5.28
-5.90
-6.24
-6.19
-5.66
-4.69
-3.41
-2.02
-0.74
0.29
1.03
1.49
1.70
1.67
1.36
0.79
0.02
-0.79
-1.46
-1.83
-1.88
-1.67
-1.34
-1.02
-0.78
-0.65
-0.60
-0.57
-0.53
-0.42
-0.23
0.04
0.34
0.63
0.84
0.91
0.78
0.43
-0.15
-0.90
-1.68
-2.33
-2.64
-2.50
-1.85
-0.77
0.54
1.88
3.03
3.86
4.30
4.39
4.22
3.91
3.60
3.38
3.27
3.24
3.24
3.20
3.08
2.87
2.64
2.43
2.31
2.29
2.34
2.39
2.37
2.23
1.97
1.63
1.29
1.04
0.90
0.86
0.81
0.64
0.19
-0.61
-1.76
-3.12
-4.40
-5.28
-5.54
-5.11
-4.11
-2.82
-1.55
-0.54
0.18
0.65
1.01
1.40
1.86
2.38
2.84
3.16
3.26
3.17
2.96
2.76
2.65
2.66
2.70
2.66
2.48
2.13
1.66
1.13
0.60
0.09
-0.40
-0.90
-1.46
-2.09
-2.83
-3.67
-4.56
-5.40
-6.06
-6.47
-6.57
-6.38
-5.90
-5.17
-4.24
-3.14
-1.98
-0.83
0.17
0.95
1.46
1.70
1.73
1.59
1.35
1.04
0.71
0.38
0.07
-0.16
-0.25
-0.17
0.07
0.42
0.74
0.93
0.93
0.80
0.66
0.63
0.77
1.00
1.20
1.18
0.86
0.28
-0.43
-1.07
-1.46
-1.48
-1.09
-0.36
0.60
1.60
2.48
3.12
3.46
3.54
3.47
3.35
3.26
3.19
3.10
2.94
2.67
2.32
1.94
1.62
1.38
1.22
1.09
0.94
0.75
0.52
0.31
0.16
0.08
0.08
0.13
0.18
0.23
0.24
0.17
-0.03
-0.39
-0.84
-1.25
-1.39
-1.07
-0.22
1.04
2.48
3.80
4.85
5.60
6.17
6.67
7.15
7.56
7.81
7.89
7.88
7.96
8.30
8.95
9.82
10.75
11.56
12.18
12.66
13.17
13.88
14.91
16.27
17.84
19.41
20.79
21.81
22.41
22.59
22.43
22.07
21.63
21.22
20.83
20.35
19.57
18.29
16.33
13.68
10.46
6.86
3.08
-0.71
-4.46
-8.15
-11.81
-15.42
-18.91
-22.15
-25.00
-27.30
-28.98
-30.06
-30.62
-30.76
-30.46
-29.57
-27.81
-24.91
-20.76
-15.51
-9.59
-3.57
1.96
6.61
10.23
12.92
14.92
16.49
17.85
19.00
19.76
19.77
18.62
16.10
12.46
8.39
5.05
3.63
4.98
9.21
15.65
23.04
29.92
34.99
37.44
36.93
33.58
27.77
20.00
10.77
0.55
-10.19
-21.03
-31.52
-41.22
-49.84
-57.18
-63.18
-67.85
-71.18
-73.02
-73.17
-71.47
-67.93
-62.83
-56.71
-50.16
-43.70
-37.64
-32.06
-26.87
-21.89
-16.98
-12.11
-7.39
-3.07
0.58
3.33
5.06
5.83
5.79
5.17
4.18
3.00
1.81
0.76
-0.01
-0.40
-0.35
0.10
0.87
1.83
2.85
3.82
4.72
5.57
6.51
7.63
8.97
10.46
11.85
12.81
13.02
12.28
10.63
8.32
5.77
3.43
1.64
0.58
0.26
0.52
1.12
1.79
2.29
2.43
2.12
1.41
0.41
-0.69
-1.72
-2.61
-3.38
-4.17
-5.12
-6.34
-7.81
-9.36
-10.71
-11.58
-11.74
-11.10
-9.67
-7.60
-5.02
-2.04
1.23
4.62
7.90
10.75
12.91
14.31
15.07
15.55
16.17
17.23
18.81
20.79
22.91
24.93
26.74
28.34
29.75
30.88
31.51
31.30
29.97
27.39
23.67
19.18
14.32
9.48
4.92
0.77
-2.88
-5.94
-8.35
-10.10
-11.29
-12.10
-12.75
-13.35
-13.90
-14.29
-14.44
-14.33
-14.08
-13.84
-13.75
-13.78
-13.74
-13.35
-12.31
-10.46
-7.86
-4.76
-1.55
1.35
3.65
5.21
6.06
6.39
6.42
6.34
6.20
5.93
5.39
4.42
2.93
0.95
-1.41
-3.99
-6.63
-9.16
-11.44
-13.35
-14.77
-15.64
-15.99
-15.86
-15.35
-14.52
-13.39
-11.94
-10.13
-7.90
-5.29
-2.35
0.78
3.92
6.88
9.46
11.56
13.15
14.35
15.30
16.18
17.13
18.15
19.14
19.89
20.11
19.53
18.00
15.57
12.49
9.16
6.00
3.29
1.13
-0.63
-2.22
-3.85
-5.54
-7.16
-8.48
-9.33
-9.70
-9.70
-9.54
-9.35
-9.17
-8.88
-8.36
-7.49
-6.27
-4.78
-3.14
-1.55
-0.22
0.63
0.81
0.22
-1.10
-2.99
-5.23
-7.57
-9.78
-11.70
-13.16
-14.10
-14.48
-14.37
-13.89
-13.20
-12.43
-11.69
-11.06
-10.57
-10.23
-9.96
-9.66
-9.20
-8.49
-7.57
-6.54
-5.56
-4.72
-3.98
-3.12
-1.84
0.14
2.96
6.54
10.60
14.67
18.31
21.15
23.00
23.91
24.06
23.75
23.25
22.75
22.32
21.90
21.39
20.71
19.85
18.87
17.93
17.18
16.72
16.56
16.58
16.62
16.51
16.13
15.48
14.66
13.81
13.13
12.76
12.82
13.33
14.12
14.89
15.21
14.72
13.22
10.79
7.78
4.63
1.74
-0.69
-2.69
-4.39
-5.91
-7.31
-8.55
-9.62
-10.57
-11.52
-12.61
-13.92
-15.40
-16.87
-18.08
-18.81
-18.95
-18.55
-17.81
-16.98
-16.27
-15.82
-15.64
-15.62
-15.64
-15.58
-15.40
-15.14
-14.85
-14.59
-14.38
-14.21
-14.06
-13.90
-13.75
-13.66
-13.65
-13.78
-14.06
-14.46
-14.98
-15.56
-16.13
-16.58
-16.83
-16.83
-16.62
-16.34
-16.07
-15.89
-15.75
-15.49
-14.94
-14.00
-12.64
-10.99
-9.22
-7.49
-5.86
-4.32
-2.78
-1.21
0.35
1.79
2.98
3.86
4.46
4.87
5.19
5.47
5.65
5.68
5.56
5.43
5.40
5.59
5.92
6.23
6.36
6.27
6.10
6.06
6.36
7.02
7.86
8.64
9.13
9.22
8.93
8.34
7.53
6.56
5.52
4.55
3.83
3.53
3.75
4.44
5.48
6.70
7.95
9.19
10.44
11.77
13.23
14.83
16.52
18.21
19.79
21.09
21.92
22.07
21.39
19.76
17.20
13.86
10.03
6.02
2.14
-1.41
-4.50
-7.09
-9.14
-10.58
-11.33
-11.34
-10.66
-9.47
-8.01
-6.51
-5.14
-3.95
-2.97
-2.18
-1.60
-1.25
-1.08
-0.97
-0.74
-0.25
0.56
1.66
2.95
4.31
5.67
7.02
8.37
9.68
10.92
12.00
12.81
13.31
13.47
13.24
12.62
11.56
10.03
8.03
5.64
2.96
0.15
-2.65
-5.34
-7.88
-10.28
-12.55
-14.67
-16.58
-18.16
-19.32
-20.00
-20.16
-19.85
-19.10
-17.96
-16.49
-14.77
-12.89
-10.99
-9.17
-7.51
-6.01
-4.58
-3.14
-1.64
-0.11
1.36
2.62
3.61
4.35
4.90
5.35
5.65
5.67
5.28
4.41
3.15
1.71
0.33
-0.87
-1.97
-3.11
-4.46
-6.03
-7.71
-9.29
-10.65
-11.72
-12.55
-13.15
-13.44
-13.28
-12.49
-10.98
-8.78
-6.05
-3.02
0.09
3.13
6.08
8.93
11.70
14.32
16.67
18.61
20.01
20.88
21.25
21.23
20.85
20.10
18.90
17.21
15.05
12.54
9.85
7.15
4.53
2.04
-0.28
-2.41
-4.28
-5.84
-7.06
-7.96
-8.59
-9.05
-9.39
-9.65
-9.88
-10.14
-10.46
-10.83
-11.24
-11.62
-11.87
-11.91
-11.65
-11.02
-9.98
-8.48
-6.53
-4.17
-1.46
1.49
4.56
7.61
10.47
12.91
14.69
15.64
15.68
14.91
13.57
11.96
10.33
8.80
7.42
6.16
5.00
3.97
3.15
2.60
2.39
2.54
3.11
4.16
5.70
7.67
9.87
11.97
13.60
14.42
14.23
13.05
11.01
8.31
5.19
1.84
-1.57
-4.86
-7.87
-10.48
-12.63
-14.37
-15.78
-16.95
-17.94
-18.74
-19.30
-19.62
-19.70
-19.61
-19.39
-19.07
-18.64
-18.08
-17.39
-16.57
-15.65
-14.64
-13.55
-12.43
-11.31
-10.23
-9.20
-8.12
-6.89
-5.46
-3.90
-2.40
-1.16
-0.26
0.44
1.18
2.23
3.71
5.45
7.13
8.42
9.16
9.45
9.57
9.85
10.50
11.60
13.05
14.71
16.41
17.98
19.24
19.93
19.83
18.81
16.93
14.46
11.78
9.27
7.20
5.67
4.63
4.03
3.83
4.10
4.92
6.32
8.21
10.35
12.42
14.05
14.93
14.88
13.90
12.11
9.76
7.18
4.69
2.62
1.19
0.55
0.67
1.40
2.49
3.62
4.54
5.00
4.91
4.26
3.11
1.64
0.04
-1.50
-2.85
-3.93
-4.74
-5.35
-5.78
-6.05
-6.14
-6.04
-5.77
-5.45
-5.20
-5.09
-5.14
-5.30
-5.47
-5.68
-5.96
-6.45
-7.21
-8.20
-9.28
-10.23
-10.86
-11.06
-10.84
-10.29
-9.55
-8.74
-7.94
-7.18
-6.47
-5.80
-5.15
-4.49
-3.78
-3.00
-2.13
-1.21
-0.29
0.56
1.31
1.95
2.52
3.06
3.56
3.99
4.31
4.47
4.47
4.32
4.05
3.70
3.30
2.91
2.54
2.19
1.83
1.42
0.91
0.31
-0.37
-1.05
-1.66
-2.15
-2.46
-2.54
-2.32
-1.75
-0.84
0.30
1.50
2.59
3.46
4.09
4.57
4.98
5.33
5.55
5.57
5.33
4.88
4.38
3.97
3.73
3.59
3.42
3.12
2.66
2.13
1.67
1.39
1.27
1.24
1.17
0.96
0.60
0.14
-0.38
-0.92
-1.47
-2.03
-2.58
-3.07
-3.43
-3.63
-3.63
-3.40
-2.93
-2.18
-1.19
-0.06
1.07
2.04
2.77
3.29
3.72
4.19
4.75
5.36
5.86
6.08
5.93
5.41
4.61
3.66
2.67
1.77
1.05
0.56
0.32
0.27
0.31
0.30
0.18
-0.06
-0.37
-0.69
-1.03
-1.42
-1.90
-2.48
-3.09
-3.61
-3.89
-3.82
-3.35
-2.51
-1.41
-0.19
1.01
2.09
2.99
3.68
4.20
4.59
4.89
5.12
5.27
5.32
5.20
4.86
4.28
3.48
2.54
1.59
0.75
0.10
-0.36
-0.64
-0.82
-0.96
-1.14
-1.41
-1.79
-2.22
-2.63
-2.93
-3.07
-3.08
-3.07
-3.17
-3.45
-3.83
-4.14
-4.19
-3.82
-3.02
-1.90
-0.64
0.60
1.69
2.63
3.43
4.14
4.79
5.37
5.84
6.18
6.37
6.42
6.35
6.16
5.83
5.36
4.73
4.01
3.27
2.61
2.12
1.78
1.57
1.36
1.07
0.63
0.05
-0.62
-1.28
-1.88
-2.39
-2.89
-3.50
-4.34
-5.42
-6.59
-7.62
-8.19
-8.12
-7.37
-6.14
-4.73
-3.42
-2.37
-1.54
-0.79
0.02
0.96
1.96
2.90
3.67
4.18
4.43
4.44
4.21
3.73
2.98
1.99
0.88
-0.18
-1.01
-1.48
-1.62
-1.53
-1.39
-1.32
-1.38
-1.55
-1.79
-2.09
-2.48
-2.99
-3.61
-4.27
-4.87
-5.35
-5.67
-5.86
-5.92
-5.80
-5.38
-4.57
-3.35
-1.86
-0.34
0.94
1.81
2.29
2.53
2.72
2.96
3.22
3.37
3.29
2.95
2.46
1.95
1.54
1.24
0.98
0.69
0.30
-0.14
-0.57
-0.92
-1.19
-1.38
-1.52
-1.59
-1.56
-1.39
-1.09
-0.77
-0.57
-0.63
-0.97
-1.50
-2.07
-2.55
-2.86
-2.99
-2.96
-2.71
-2.20
-1.36
-0.26
0.94
1.99
2.69
2.99
2.96
2.79
2.61
2.51
2.50
2.54
2.59
2.65
2.69
2.65
2.48
2.14
1.62
0.98
0.33
-0.23
-0.58
-0.69
-0.56
-0.24
0.16
0.49
0.59
0.33
-0.33
-1.31
-2.43
-3.48
-4.26
-4.65
-4.65
-4.29
-3.65
-2.79
-1.78
-0.73
0.25
1.04
1.63
2.07
2.49
3.00
3.60
4.17
4.55
4.59
4.27
3.72
3.08
2.49
1.99
1.56
1.14
0.71
0.28
-0.12
-0.49
-0.85
-1.25
-1.72
-2.24
-2.76
-3.18
-3.47
-3.62
-3.69
-3.80
-4.02
-4.38
-4.87
-5.35
-5.67
-5.67
-5.27
-4.45
-3.31
-2.00
-0.66
0.59
1.70
2.62
3.36
3.92
4.32
4.60
4.77
4.86
4.87
4.84
4.77
4.66
4.54
4.38
4.20
3.97
3.71
3.43
3.16
2.94
2.75
2.57
2.31
1.89
1.29
0.56
-0.19
-0.79
-1.13
-1.17
-0.98
-0.69
-0.45
-0.32
-0.26
-0.20
-0.05
0.24
0.59
0.91
1.10
1.14
1.06
0.92
0.78
0.62
0.41
0.13
-0.22
-0.57
-0.85
-1.06
-1.18
-1.29
-1.41
-1.57
-1.77
-1.98
-2.17
-2.31
-2.39
-2.40
-2.37
-2.33
-2.35
-2.44
-2.60
-2.76
-2.85
-2.86
-2.83
-2.80
-2.79
-2.75
-2.55
-2.11
-1.40
-0.51
0.38
1.12
1.60
1.86
2.02
2.17
2.40
2.70
3.03
3.33
3.58
3.78
3.94
4.04
4.03
3.85
3.45
2.83
2.04
1.14
0.23
-0.60
-1.29
-1.84
-2.30
-2.76
-3.28
-3.92
-4.63
-5.34
-5.96
-6.40
-6.64
-6.70
-6.66
-6.58
-6.46
-6.25
-5.85
-5.20
-4.28
-3.17
-1.98
-0.83
0.19
1.01
1.62
1.99
2.18
2.26
2.35
2.56
2.94
3.43
3.91
4.20
4.23
3.98
3.53
3.01
2.53
2.14
1.86
1.66
1.47
1.23
0.85
0.29
-0.42
-1.16
-1.83
-2.34
-2.69
-2.95
-3.21
-3.51
-3.80
-3.94
-3.81
-3.32
-2.51
-1.50
-0.46
0.47
1.21
1.76
2.16
2.46
2.68
2.81
2.78
2.58
2.20
1.70
1.15
0.64
0.23
-0.06
-0.24
-0.35
-0.40
-0.42
-0.42
-0.39
-0.35
-0.30
-0.24
-0.22
-0.29
-0.45
-0.71
-1.01
-1.29
-1.51
-1.65
-1.75
-1.81
-1.85
-1.80
-1.59
-1.13
-0.41
0.53
1.55
2.50
3.26
3.79
4.11
4.28
4.34
4.33
4.22
3.98
3.61
3.12
2.52
1.82
0.98
0.02
-1.03
-2.07
-2.98
-3.66
-4.08
-4.28
-4.39
-4.51
-4.70
-4.95
-5.17
-5.29
-5.26
-5.13
-4.98
-4.87
-4.80
-4.64
-4.24
-3.50
-2.42
-1.13
0.15
1.25
2.06
2.61
2.99
3.32
3.66
3.99
4.26
4.39
4.34
4.11
3.76
3.39
3.05
2.79
2.61
2.49
2.40
2.33
2.28
2.23
2.12
1.86
1.39
0.70
-0.15
-1.04
-1.87
-2.60
-3.28
-3.99
-4.80
-5.68
-6.52
-7.14
-7.39
-7.19
-6.53
-5.49
-4.18
-2.73
-1.27
0.06
1.17
2.03
2.69
3.25
3.80
4.38
4.92
5.28
5.37
5.13
4.62
3.98
3.36
2.84
2.41
2.01
1.55
0.99
0.29
-0.51
-1.37
-2.23
-3.07
-3.86
-4.60
-5.35
-6.17
-7.09
-8.13
-9.20
-10.22
-11.05
-11.63
-11.88
-11.77
-11.24
-10.19
-8.54
-6.29
-3.54
-0.54
2.44
5.11
7.32
9.05
10.36
11.34
12.04
12.51
12.75
12.75
12.51
12.00
11.21
10.16
8.93
7.69
6.61
5.81
5.27
4.87
4.41
3.75
2.89
1.93
1.02
0.26
-0.34
-0.84
-1.31
-1.79
-2.22
-2.53
-2.61
-2.44
-2.04
-1.51
-0.98
-0.57
-0.32
-0.17
0.02
0.34
0.80
1.26
1.52
1.38
0.77
-0.23
-1.46
-2.74
-3.96
-5.03
-5.91
-6.52
-6.82
-6.80
-6.56
-6.26
-6.04
-5.97
