1542117214.00
64.000000
-0.00
-0.00
-0.00
-0.00
-0.00
-0.00
-0.00
-0.00
-0.00
-0.01
-0.00
0.00
0.01
0.01
-0.00
-0.03
-0.05
-0.05
-0.00
0.13
0.36
0.66
1.01
1.37
1.72
2.06
2.40
2.77
3.24
3.80
4.42
5.06
5.66
6.20
6.68
7.15
7.64
8.31
9.14
10.09
11.04
11.88
12.56
13.14
13.76
14.58
15.96
17.91
20.32
22.90
25.38
27.58
29.57
31.67
34.19
37.81
42.54
48.14
54.11
59.85
65.02
69.66
74.28
79.39
86.00
94.16
103.53
113.30
122.58
130.82
138.02
145.80
152.34
159.80
168.96
180.56
194.72
210.24
224.20
232.28
229.82
213.29
182.27
138.70
86.59
30.30
-26.92
-83.53
-139.29
-194.38
-248.67
-300.97
-350.14
-395.06
-434.94
-469.10
-496.64
-516.21
-526.10
-524.72
-510.77
-484.23
-446.12
-398.43
-343.70
-284.56
-223.33
-161.86
-101.62
-43.59
11.33
62.41
109.05
150.76
187.24
218.37
244.24
265.05
281.24
293.34
301.92
307.39
309.83
308.94
304.03
294.23
278.87
257.90
232.05
202.65
171.26
139.09
106.60
73.42
39.45
4.33
-31.80
-67.94
-102.53
-134.05
-161.60
-185.43
-206.82
-227.56
-249.60
-274.65
-303.95
-337.79
-374.69
-410.63
-439.47
-454.35
-450.01
-425.09
-382.81
-329.86
-273.85
-221.30
-174.97
-134.77
-99.20
-66.70
-36.30
-7.29
21.24
50.42
81.03
112.95
144.74
174.13
199.11
218.78
233.69
245.75
257.82
273.20
294.90
324.15
359.03
393.98
420.78
431.14
420.06
388.25
341.87
291.02
245.65
212.08
191.49
180.95
175.60
170.96
164.08
153.20
136.69
112.63
78.59
33.46
-20.78
-78.30
-130.58
-169.46
-190.13
-193.38
-185.06
-172.89
-162.42
-154.85
-147.87
-138.95
-128.71
-121.49
-123.22
-137.39
-161.82
-188.32
-205.82
-205.20
-182.71
-141.15
-87.83
-30.66
24.64
75.23
120.04
158.10
187.54
205.95
211.29
203.47
184.05
156.09
122.98
87.50
51.29
14.95
-21.40
-57.31
-91.38
-121.16
-143.58
-155.79
-155.91
-143.49
-119.58
-86.23
-45.72
-0.90
45.41
90.63
132.37
168.43
197.01
216.96
228.37
232.10
229.66
222.88
213.48
202.69
191.09
178.65
165.01
149.74
132.39
112.60
90.03
64.26
34.74
1.11
-36.51
-77.00
-118.26
-157.65
-192.42
-220.46
-240.79
-253.76
-260.37
-261.70
-258.07
-249.07
-234.39
-214.63
-192.27
-171.22
-155.42
-147.00
-145.41
-147.91
-150.06
-148.89
-143.04
-132.00
-115.12
-91.56
-61.44
-27.16
6.20
32.55
47.35
50.34
45.73
40.32
39.83
46.31
57.22
67.01
70.01
63.04
47.53
28.80
14.01
8.65
13.57
24.55
34.60
38.19
34.56
28.08
24.71
27.39
33.24
34.83
25.16
2.70
-26.72
-52.77
-65.89
-62.34
-45.38
-22.70
-2.04
12.75
22.71
32.53
47.52
70.86
101.52
134.10
160.21
171.55
163.33
136.19
95.86
50.75
8.43
-26.54
-52.78
-70.45
-79.68
-79.91
-71.06
-54.86
-35.22
-17.24
-5.09
-0.39
-1.95
-7.04
-12.71
-17.09
-19.53
-20.10
-19.26
-17.38
-14.75
-11.65
-8.28
-4.84
-1.60
0.92
2.07
1.22
-1.64
-5.75
-9.66
-11.92
-11.82
-9.76
-7.02
-4.79
-3.55
-2.71
-1.27
1.33
4.63
7.23
7.69
5.43
1.23
-3.16
-5.96
-6.33
-4.77
-2.67
-1.45
-1.73
-3.27
-5.51
-8.24
-11.73
-16.33
-21.74
-26.65
-29.26
-28.29
-23.93
-17.78
-12.04
-8.16
-6.18
-4.95
-3.32
-1.06
0.93
1.44
0.15
-1.85
-2.54
-0.05
6.10
14.77
23.76
30.81
34.50
34.51
31.41
26.17
19.85
13.49
8.06
4.39
2.95
3.63
5.83
8.61
10.97
12.12
11.58
9.25
5.47
1.08
-2.77
-4.88
-4.51
-1.75
2.49
6.67
9.42
9.90
8.20
5.10
1.75
-0.88
-2.27
-2.36
-1.58
-0.54
-0.01
-0.48
-2.10
-4.40
-6.51
-7.48
-6.74
-4.50
-1.71
0.28
0.42
-1.54
-4.95
-8.55
-11.21
-12.40
-12.34
-11.76
-11.32
-11.36
-11.88
-12.68
-13.58
-14.53
-15.42
-16.06
-16.24
-15.96
-15.69
-16.27
-18.65
-23.25
-29.56
-36.05
-40.50
-40.84
-36.03
-26.49
-13.98
-0.94
10.53
19.27
25.13
28.64
30.30
30.37
28.85
25.98
22.44
19.40
18.03
18.98
21.95
25.77
28.78
29.43
26.90
21.39
14.08
6.77
1.33
-0.97
0.06
3.57
7.97
11.75
14.15
15.60
17.43
21.24
27.92
37.07
47.05
55.71
61.68
65.22
68.42
74.27
85.25
102.05
122.90
144.06
161.04
170.21
170.37
163.64
155.31
152.80
163.05
189.35
229.06
273.05
307.90
320.63
303.79
258.80
196.39
133.59
87.92
71.65
87.29
126.78
174.10
210.47
219.80
193.71
133.55
48.89
-46.20
-138.73
-220.74
-290.42
-348.92
-399.94
-447.08
-492.56
-537.23
-580.97
-623.94
-666.11
-706.23
-741.10
-765.96
-775.71
-766.89
-742.04
-704.96
-660.50
-613.11
-565.28
-517.18
-467.57
-414.88
-358.65
-300.23
-242.25
-188.22
-141.33
-102.83
-72.41
-48.49
-28.87
-11.63
4.29
19.36
33.23
45.36
55.49
63.83
70.91
77.42
83.90
90.60
97.68
105.01
112.32
119.31
125.68
131.10
135.36
138.36
140.25
141.55
142.96
145.11
148.36
152.56
157.20
161.55
165.07
167.65
169.82
172.38
176.12
181.37
187.79
194.56
200.65
205.57
209.43
213.16
217.99
225.15
235.39
249.07
266.25
286.65
309.23
331.57
349.93
360.02
358.72
345.55
323.01
295.36
266.50
238.44
211.17
184.30
158.65
136.41
119.89
109.28
102.29
95.08
84.78
70.67
54.21
37.27
20.68
4.31
-11.99
-27.39
-40.36
-49.71
-55.76
-60.04
-64.13
-68.43
-72.04
-73.92
-74.24
-74.88
-78.48
-86.78
-99.17
-112.35
-121.48
-121.89
-111.65
-92.77
-70.86
-52.43
-40.98
-34.40
-25.34
-5.53
28.65
72.72
115.69
145.80
156.98
151.81
138.94
127.04
119.82
115.20
108.78
98.44
86.60
78.31
77.16
81.93
87.06
86.26
76.79
61.49
46.96
39.39
40.44
46.44
50.93
48.75
39.24
26.05
13.93
5.10
-2.35
-12.62
-28.40
-47.82
-65.19
-74.87
-75.96
-73.86
-77.23
-92.21
-117.61
-144.71
-162.09
-162.48
-147.18
-125.30
-108.41
-104.53
-114.56
-132.97
-151.73
-164.01
-165.75
-155.09
-131.40
-95.13
-49.12
0.56
45.52
77.89
93.70
94.63
87.14
79.02
75.88
78.93
84.72
87.37
80.98
61.80
29.53
-11.78
-53.88
-85.29
-94.82
-75.68
-28.65
38.02
112.03
182.63
245.08
299.55
350.82
403.44
458.02
510.42
553.68
581.35
589.87
578.84
549.68
504.27
443.99
370.15
285.33
194.14
102.81
18.04
-54.95
-113.74
-158.84
-193.09
-220.21
-243.19
-263.34
-280.22
-292.36
-298.42
-298.12
-292.36
-283.12
-272.64
-262.65
-253.86
-245.93
-237.92
-228.87
-218.31
-206.38
-193.76
-181.31
-169.71
-159.27
-149.83
-141.01
-132.37
-123.70
-114.94
-106.27
-97.93
-90.06
-82.78
-76.07
-69.83
-64.01
-58.50
-53.31
-48.43
-43.88
-39.67
-35.80
-32.28
-29.10
-26.28
-23.77
-21.43
-19.31
-17.44
-15.78
-14.33
-13.05
-11.91
-10.92
-10.03
-9.24
-8.55
-7.94
-7.39
-6.90
-6.45
-6.04
-5.66
-5.31
-4.98
-4.69
-4.43
-4.18
-3.95
-3.73
-3.50
-3.28
-3.06
-2.84
-2.62
-2.40
-2.19
-1.97
-1.76
-1.55
-1.35
-1.15
-0.92
-0.70
-0.47
-0.25
-0.09
0.01
0.05
0.06
0.12
0.25
0.50
0.83
1.22
1.59
1.91
2.18
2.45
2.80
3.30
3.98
4.80
5.68
6.51
7.21
7.78
8.33
9.05
10.09
11.54
13.27
15.06
16.61
17.71
18.37
18.86
19.64
21.07
23.35
26.24
29.18
31.57
32.92
33.27
33.15
33.37
34.50
36.64
39.09
40.55
39.64
35.27
27.26
16.36
3.95
-8.79
-21.11
-33.05
-45.18
-57.61
-70.85
-84.90
-99.61
-114.45
-128.00
-137.53
-139.42
-130.81
-110.40
-80.71
-47.26
-16.78
5.53
17.79
21.59
20.32
17.16
13.78
10.15
5.95
1.50
-2.02
-3.31
-2.06
0.58
2.57
2.13
-1.58
-7.62
-13.94
-18.38
-19.70
-18.29
-15.89
-14.54
-15.68
-19.39
-24.26
-28.10
-28.61
-23.92
-13.13
3.60
24.40
45.50
61.83
68.69
63.78
48.36
28.08
9.95
-0.65
-2.14
3.19
10.99
17.53
21.33
23.12
24.53
26.41
28.31
28.98
27.49
24.06
19.96
16.77
15.79
17.17
20.00
22.85
24.44
24.18
22.46
20.26
18.78
18.78
20.41
23.03
25.76
27.79
28.76
28.91
28.80
29.10
30.24
32.24
34.73
37.23
39.29
40.56
40.94
40.45
39.03
36.49
32.54
26.67
18.65
8.45
-3.69
-17.29
-31.52
-45.53
-58.40
-69.20
-77.15
-81.31
-80.94
-75.61
-65.32
-50.47
-32.03
-11.38
10.28
30.72
48.56
62.96
73.44
79.76
81.95
79.86
73.36
62.45
47.43
29.41
9.90
-8.73
-25.10
-38.30
-48.28
-55.72
-61.72
-67.30
-72.66
-77.31
-80.36
-81.24
-79.80
-76.69
-73.09
-70.25
-69.22
-70.54
-74.57
-81.05
-88.65
-94.41
-94.69
-85.36
-64.93
-35.58
-2.82
26.56
47.23
57.34
58.80
55.50
51.18
47.56
44.48
41.07
36.94
32.79
29.84
28.97
29.97
31.68
32.63
31.61
28.59
24.39
20.36
17.62
16.67
17.14
18.11
18.48
17.53
15.24
12.18
9.21
7.05
6.01
5.89
6.18
6.28
5.80
4.69
3.21
1.74
0.56
-0.22
-0.69
-1.07
-1.55
-2.31
-3.33
-4.56
-5.90
-7.35
-8.89
-10.55
-12.32
-14.16
-16.01
-17.87
-19.84
-22.02
-24.67
-27.91
-31.72
-35.90
-40.12
-44.13
-47.84
-51.42
-55.24
-59.83
-65.51
-72.24
-79.54
-86.68
-93.06
-98.53
-103.36
-108.25
-114.00
-120.98
-128.60
-135.39
-139.34
-138.47
-131.57
-118.54
-99.74
-76.10
-48.75
-18.47
14.31
49.21
85.75
122.70
159.43
195.13
227.72
253.19
265.98
260.87
235.73
194.27
144.11
95.66
57.92
34.96
24.99
22.29
20.67
16.55
10.02
3.46
-0.27
-0.22
2.32
4.61
4.17
0.04
-7.02
-15.05
-22.40
-28.06
-31.49
-31.88
-27.56
-16.15
3.80
31.45
63.29
94.18
119.69
138.08
150.46
159.53
166.67
170.18
165.59
148.27
116.65
74.24
29.10
-8.91
-33.20
-42.20
-40.00
-34.32
-32.37
-37.38
-47.60
-57.89
-62.75
-59.62
-49.81
-37.33
-27.07
-22.45
-24.04
-30.27
-38.54
-46.05
-50.28
-49.40
-42.73
-31.03
-17.69
-6.47
-0.27
0.25
-3.39
-8.70
-13.72
-17.94
-22.00
-26.46
-30.75
-33.31
-32.56
-27.98
-20.76
-13.18
-7.51
-5.44
-6.59
-9.33
-11.63
-11.92
-9.71
-5.66
-1.18
2.29
3.84
3.51
2.07
0.65
0.15
0.96
2.81
5.04
6.88
7.85
7.89
7.31
6.61
6.23
6.38
6.98
7.79
8.50
8.91
9.00
8.86
8.68
8.61
8.71
8.98
9.33
9.66
9.91
10.05
10.07
9.96
9.72
9.34
8.80
8.08
7.16
6.03
4.68
3.07
1.19
-0.97
-3.43
-6.21
-9.32
-12.75
-16.53
-20.67
-25.21
-30.17
-35.57
-41.42
-47.74
-54.55
-61.82
-69.61
-77.94
-86.89
-96.47
-106.70
-117.54
-128.90
-140.62
-152.39
-163.78
-174.31
-183.27
-189.93
-193.28
-192.41
-186.34
-174.75
-156.91
-132.42
-101.27
-63.92
-21.37
24.79
72.58
119.61
163.27
201.02
230.41
249.39
256.37
250.55
231.93
201.42
160.70
112.32
59.18
4.41
-48.69
-97.20
-138.75
-171.49
-194.25
-206.59
-208.87
-202.16
-188.09
-168.66
-145.95
-121.89
-98.14
-75.85
-55.84
-38.46
-23.64
-11.21
-0.83
7.71
14.61
19.82
23.34
24.96
24.59
22.13
17.63
11.13
2.68
-7.62
-19.65
-33.07
-47.42
-61.93
-75.78
-88.20
-98.77
-107.34
-114.21
-119.72
-124.16
-127.12
-127.78
-124.72
-116.62
-103.05
-84.53
-62.31
-38.28
-14.17
8.93
30.89
52.32
73.96
96.09
118.00
138.20
154.68
165.91
171.53
172.87
172.80
175.40
185.00
205.16
236.71
276.84
318.52
352.19
367.99
359.40
325.48
271.85
209.17
149.96
105.03
80.73
78.21
94.00
122.07
155.35
187.20
211.45
222.88
217.41
193.45
152.65
100.59
45.35
-4.24
-41.73
-64.24
-72.61
-70.04
-60.64
-48.29
-36.23
-26.86
-21.25
-18.37
-14.92
-6.46
10.32
35.14
63.41
87.81
101.17
99.87
85.30
62.89
39.50
20.54
8.53
2.47
0.70
2.25
7.03
15.32
26.66
39.41
50.76
58.01
59.42
54.98
46.17
35.17
23.77
12.91
2.36
-8.71
-21.22
-35.33
-50.35
-64.87
-77.48
-87.17
-93.81
-97.90
-100.50
-102.55
-104.56
-106.37
-107.46
-107.27
-105.61
-102.74
-99.32
-96.03
-93.29
-90.99
-88.61
-85.51
-81.32
-76.23
-70.98
-66.50
-63.42
-61.70
-60.59
-58.91
-55.66
-50.45
-44.01
-37.83
-33.50
-31.87
-32.64
-34.34
-34.87
-32.74
-27.42
-19.95
-12.19
-5.78
-1.37
1.18
2.53
3.74
5.87
10.73
20.60
37.47
61.60
90.52
118.91
140.01
148.64
142.22
123.97
99.29
72.76
45.27
13.93
-25.50
-75.06
-131.71
-187.66
-232.84
-259.52
-264.97
-251.81
-226.16
-193.19
-157.94
-122.31
-86.57
-51.09
-17.99
9.58
28.95
39.46
42.63
41.30
39.02
38.20
39.55
42.04
43.93
43.78
41.16
36.82
31.99
28.21
26.34
26.31
27.17
27.77
27.21
25.28
22.39
19.23
16.65
15.05
14.37
14.16
13.87
13.16
11.93
10.39
8.78
7.44
6.45
5.81
5.30
4.80
4.19
3.47
2.70
1.94
1.28
0.75
0.35
0.05
-0.17
-0.31
-0.40
-0.43
-0.42
-0.36
-0.28
-0.18
-0.06
0.06
0.19
0.32
0.45
0.58
0.71
0.85
1.02
1.23
1.47
1.74
2.03
2.28
2.52
2.73
2.98
3.30
3.76
4.36
5.09
5.90
6.72
7.55
8.39
9.27
10.30
11.52
12.94
14.53
16.19
17.74
19.14
20.42
21.73
23.38
25.61
28.64
32.55
37.27
42.52
48.10
53.87
59.73
65.58
71.04
75.28
77.17
75.43
69.00
57.46
41.27
21.79
1.12
-18.71
-36.25
-50.91
-62.98
-73.21
-82.26
-90.24
-96.88
-100.91
-101.74
-99.39
-94.81
-89.62
-85.52
-83.81
-85.25
-89.91
-96.59
-103.08
-105.81
-100.90
-85.70
-60.41
-28.79
3.02
28.88
45.16
52.02
52.62
50.91
49.32
47.99
45.54
40.58
33.26
25.29
18.92
15.61
15.39
17.16
19.37
19.82
15.96
5.12
-14.68
-43.08
-76.55
-109.00
-133.48
-144.76
-141.22
-125.01
-99.75
-71.12
-42.55
-15.58
9.06
30.46
47.23
58.09
62.75
62.35
58.80
54.40
50.82
48.43
46.72
44.89
42.41
39.28
35.92
32.50
29.25
25.97
22.25
17.97
13.54
9.79
7.56
7.10
7.60
7.69
5.75
0.90
-6.41
-14.36
-20.62
-23.20
-21.64
-17.30
-12.75
-10.95
-14.02
-22.62
-35.22
-48.17
-56.57
-55.31
-41.03
-13.59
23.00
60.88
90.14
101.98
92.12
63.24
24.71
-10.57
-31.12
-31.30
-13.20
15.05
43.64
65.43
78.39
84.89
88.85
92.71
96.32
98.03
97.00
93.76
90.49
89.33
90.88
93.14
92.60
86.00
71.64
49.99
24.86
0.45
-19.81
-34.17
-42.97
-47.99
-51.39
-54.74
-58.39
-61.52
-63.05
-62.15
-58.72
-53.56
-48.00
-43.24
-40.05
-38.41
-37.56
-36.73
-35.29
-33.00
-30.04
-26.89
-24.01
-21.71
-19.99
-18.63
-17.43
-16.17
-14.79
-13.30
-11.83
-10.46
-9.23
-8.17
-7.18
-6.28
-5.43
-4.63
-3.88
-3.20
-2.58
-2.04
-1.56
-1.15
-0.79
-0.49
-0.22
0.05
0.31
0.57
0.78
0.92
0.97
0.93
0.83
0.74
0.69
0.69
0.75
0.81
0.81
0.75
0.63
0.51
0.47
0.53
0.72
1.01
1.26
1.38
1.26
0.91
0.44
0.06
-0.04
0.27
0.92
1.67
2.13
1.97
1.05
-0.44
-1.95
-2.82
-2.54
-1.12
0.72
1.79
0.97
-2.18
-7.05
-11.98
-15.19
-15.47
-12.90
-8.91
-5.62
-4.79
-7.40
-13.15
-20.77
-28.92
-36.41
-42.18
-45.09
-44.23
-39.38
-32.17
-26.03
-24.97
-31.51
-44.74
-59.77
-70.06
-70.15
-58.35
-37.50
-13.19
8.96
25.62
36.44
42.80
46.29
47.87
47.77
45.99
42.86
39.07
35.28
32.06
29.51
27.37
25.57
24.22
23.49
23.33
23.32
22.73
20.87
17.47
13.07
8.92
6.43
6.61
9.37
13.63
17.84
20.63
20.94
18.34
13.26
7.54
4.46
8.32
22.92
49.07
82.53
113.89
131.41
125.49
93.41
40.83
-20.22
-76.10
-116.66
-138.14
-142.84
-135.41
-121.60
-104.48
-84.90
-63.14
-40.48
-19.45
-3.16
6.36
9.02
6.53
1.90
-1.79
-2.43
0.28
5.04
9.87
12.78
12.78
10.05
6.10
2.65
0.79
0.69
2.30
6.51
15.21
30.69
53.77
82.41
111.71
135.43
148.34
148.54
138.01
120.52
99.15
73.57
42.61
3.54
-43.09
-92.40
-136.18
-166.12
-177.50
-170.85
-150.44
-124.44
-98.97
-76.45
-56.30
-36.96
-17.83
-0.22
13.67
22.22
25.30
24.52
22.07
19.75
18.99
21.58
29.67
45.25
68.68
97.26
126.01
149.18
162.62
165.21
158.35
142.92
119.95
88.20
46.61
-2.79
-54.33
-100.37
-134.93
-155.78
-164.63
-164.59
-157.70
-143.82
-121.60
-91.36
-56.69
-23.81
1.15
14.95
18.69
16.16
11.72
8.41
6.82
6.06
5.12
3.77
2.63
2.55
3.70
5.67
7.64
8.68
8.37
6.95
5.09
3.65
3.26
4.00
5.50
7.07
7.99
7.87
6.73
4.99
3.32
2.34
2.35
3.32
4.81
6.18
6.82
6.32
4.77
2.64
0.70
-0.38
-0.17
1.15
2.90
4.13
3.97
2.09
-1.04
-4.38
-6.73
-7.14
-5.57
-2.90
-0.60
-0.06
-2.08
-6.48
-12.38
-18.71
-24.37
-28.59
-30.68
-30.33
-28.21
-26.47
-28.21
-36.59
-52.85
-74.78
-96.79
-111.77
-113.53
-100.87
-77.04
-47.99
-19.62
4.43
23.31
37.82
48.84
56.35
59.58
58.34
53.56
47.13
41.21
37.50
36.38
37.00
37.85
37.22
34.45
29.89
24.74
20.41
17.87
17.22
17.68
18.00
17.02
14.36
10.45
6.29
3.01
1.29
1.00
1.34
1.16
-0.43
-3.61
-7.74
-11.74
-14.48
-15.48
-15.07
-14.33
-14.54
-16.60
-20.51
-25.36
-29.77
-32.60
-33.32
-32.36
-30.79
-29.75
-30.12
-32.46
-37.04
-43.66
-50.96
-56.06
-54.98
-44.14
-22.30
8.10
41.28
70.38
90.22
99.31
99.94
96.27
92.19
89.60
88.50
87.97
87.68
88.20
90.78
95.46
101.07
105.54
106.62
102.59
93.12
79.15
62.37
43.97
26.06
9.40
-5.88
-19.93
-32.73
-43.88
-52.73
-58.63
-61.30
-60.90
-58.34
-54.69
-50.98
-47.90
-45.59
-43.81
-42.17
-40.33
-37.96
-35.24
-32.41
-29.79
-27.54
-25.68
-24.09
-22.60
-21.07
-19.38
-17.65
-15.91
-14.26
-12.76
-11.40
-10.17
-9.05
-8.02
-7.04
-6.13
-5.30
-4.54
-3.85
-3.22
-2.65
-2.14
-1.68
-1.25
-0.86
-0.52
-0.23
-0.02
0.14
0.28
0.44
0.68
1.01
1.40
1.77
2.02
2.06
1.89
1.59
1.31
1.23
1.44
1.95
2.59
3.18
3.50
3.49
3.21
2.86
2.73
2.99
3.66
4.56
5.32
5.61
5.30
4.57
3.92
3.94
5.03
7.14
9.69
11.78
12.57
11.77
9.89
8.13
7.90
10.14
14.74
20.42
25.21
27.27
25.83
21.72
17.17
14.90
16.91
23.42
32.60
41.37
46.50
46.11
40.53
32.15
24.52
21.48
25.74
37.81
55.06
71.56
78.84
68.39
35.43
-17.81
-80.72
-136.72
-168.86
-166.85
-132.11
-77.91
-24.50
9.11
12.10
-15.03
-62.51
-116.38
-163.36
-193.77
-201.91
-185.95
-148.19
-95.24
-38.16
10.15
39.39
46.02
34.72
16.84
5.39
9.62
31.49
65.28
100.13
124.30
129.24
111.67
74.22
23.99
-29.32
-75.03
-103.07
-105.51
-78.66
-25.10
44.61
113.17
160.65
171.72
142.41
82.73
13.60
-41.20
-64.13
-49.91
-6.59
48.77
96.81
122.55
118.60
85.63
30.45
-35.99
-100.08
-147.68
-166.91
-152.10
-106.48
-42.94
19.69
62.70
73.80
51.39
4.96
-48.43
-90.14
-106.19
-91.83
-52.49
-1.86
42.88
65.75
57.31
18.22
-41.09
-103.79
-152.34
-174.46
-167.08
-137.17
-98.74
-67.47
-54.82
-64.47
-91.73
-125.66
-153.76
-166.34
-159.38
-133.97
-94.07
-44.21
11.22
67.39
118.76
159.72
186.04
196.50
193.50
182.09
168.19
156.23
147.99
142.58
137.34
129.54
117.74
102.44
85.78
70.54
58.84
51.37
47.27
44.69
41.63
36.82
30.12
22.36
14.93
8.99
5.08
2.99
1.97
1.10
-0.26
-2.33
-4.91
-7.53
-9.75
-11.31
-12.19
-12.57
-12.69
-12.76
-12.90
-13.11
-13.35
-13.56
-13.68
-13.69
-13.59
-13.40
-13.12
-12.75
-12.32
-11.84
-11.34
-10.82
-10.33
-9.71
-9.10
-8.50
-7.95
-7.42
-6.93
-6.47
-6.05
-5.65
-5.28
-4.95
-4.66
-4.38
-4.13
-3.90
-3.67
-3.46
-3.27
-3.08
-2.92
-2.78
-2.65
-2.53
-2.40
-2.30
-2.19
-2.09
-1.99
-1.91
-1.84
-1.77
-1.71
-1.65
-1.59
-1.54
-1.49
-1.44
-1.40
-1.35
-1.32
-1.28
-1.25
-1.21
-1.18
-1.15
-1.11
-1.09
-1.07
-1.05
-1.04
-1.02
-1.00
-0.96
-0.92
-0.92
-0.96
-1.07
-1.23
-1.41
-1.56
-1.63
-1.60
-1.49
-1.37
-1.27
-1.26
-1.33
-1.43
-1.50
-1.50
-1.38
-1.20
-1.05
-1.03
-1.20
-1.56
-1.99
-2.34
-2.44
-2.27
-1.91
-1.63
-1.67
-2.22
-3.22
-4.40
-5.36
-5.72
-5.36
-4.51
-3.73
-3.59
-4.47
-6.28
-8.48
-10.25
-10.89
-10.17
-8.49
-6.80
-6.08
-7.03
-9.50
-12.64
-15.16
-16.20
-15.32
-13.01
-10.25
-7.96
-6.91
-7.48
-9.74
-13.29
-16.83
-17.53
-11.84
3.21
28.16
59.70
91.64
116.88
130.27
130.37
119.48
101.88
81.13
60.37
40.26
20.90
2.80
-12.69
-24.05
-30.53
-32.69
-32.21
-30.83
-30.21
-30.78
-31.97
-32.78
-32.27
-30.15
-26.88
-23.42
-20.61
-19.12
-18.91
-19.40
-19.79
-19.40
-18.02
-15.91
-13.62
-11.64
-10.41
-9.91
-9.82
-9.75
-9.34
-8.52
-7.36
-6.13
-5.05
-4.30
-3.89
-3.67
-3.49
-3.23
-2.84
-2.35
-1.84
-1.35
-0.95
-0.63
-0.38
-0.17
0.01
0.16
0.28
0.36
0.42
0.45
0.47
0.49
0.49
0.50
0.50
0.51
0.52
0.53
0.55
0.56
0.57
0.58
0.60
0.61
0.63
0.65
0.66
0.68
0.69
0.71
0.73
0.74
0.76
0.78
0.82
0.85
0.88
0.89
0.88
0.87
0.87
0.94
1.08
1.33
1.62
1.94
2.19
2.34
2.41
2.43
2.49
2.64
2.91
3.24
3.57
3.81
3.90
3.87
3.79
3.80
4.02
4.50
5.17
5.85
6.33
6.45
6.25
5.94
5.85
6.33
7.52
9.28
11.17
12.67
13.38
13.31
12.92
12.89
13.92
16.26
19.67
23.31
26.24
27.73
27.72
26.89
26.37
27.30
30.26
34.98
40.32
44.93
47.56
47.78
45.96
43.17
40.88
40.74
44.33
52.21
63.11
73.12
76.29
66.51
40.39
-0.47
-49.21
-96.10
-132.50
-154.35
-163.32
-165.18
-166.50
-171.23
-179.26
-187.69
-191.94
-188.95
-178.44
-162.44
-144.16
-126.75
-112.42
-102.10
-95.32
-89.93
-81.90
-66.13
-38.74
0.39
45.82
87.50
114.81
121.39
107.99
81.98
53.76
32.51
23.37
26.65
39.17
55.25
67.77
69.67
56.61
29.23
-5.40
-35.33
-49.10
-41.70
-18.00
9.68
27.97
29.40
15.42
-6.17
-26.55
-41.04
-50.18
-57.11
-63.21
-66.37
-61.44
-44.02
-14.09
22.99
58.48
84.51
97.51
99.11
94.33
88.60
85.52
85.69
87.33
87.38
83.70
75.78
65.03
53.93
44.78
38.96
36.32
35.55
34.84
32.84
29.07
24.00
18.59
13.90
10.61
8.72
7.74
6.98
5.91
4.30
2.22
-0.13
-2.40
-4.28
-5.57
-6.24
-6.42
-6.34
-6.41
-6.78
-7.85
-9.55
-11.41
-12.75
-12.96
-11.86
-9.87
-7.94
-7.14
-8.16
-10.83
-14.13
-16.55
-16.81
-14.52
-10.54
-6.68
-4.89
-6.37
-10.80
-16.40
-20.66
-21.69
-18.92
-13.61
-8.19
-4.99
-5.43
-9.58
-16.58
-24.94
-32.52
-36.22
-32.10
-16.80
10.31
45.12
79.12
102.03
106.28
90.46
60.05
24.70
-6.30
-27.66
-39.14
-43.58
-44.42
-43.18
-39.67
-33.50
-25.45
-17.91
-13.99
-16.19
-24.45
-35.72
-44.19
-43.21
-28.03
1.65
41.10
82.03
115.64
136.68
144.00
140.93
132.51
122.52
111.97
99.44
83.07
61.79
37.98
14.70
-5.12
-19.97
-30.14
-37.03
-42.39
-47.26
-51.61
-54.53
-55.29
-53.52
-49.64
-44.77
-40.22
-36.97
-35.27
-34.70
-34.22
-33.14
-31.10
-28.24
-25.10
-22.33
-20.32
-19.13
-18.42
-17.71
-16.69
-15.23
-13.43
-11.56
-9.90
-8.60
-7.69
-7.03
-6.42
-5.76
-4.99
-4.12
-3.25
-2.43
-1.71
-1.11
-0.59
-0.11
0.31
0.70
1.04
1.34
1.61
1.83
2.01
2.17
2.30
2.41
2.48
2.53
2.55
2.55
2.55
2.57
2.62
2.71
2.84
2.97
3.09
3.18
3.23
3.25
3.26
3.29
3.35
3.42
3.49
3.53
3.51
3.44
3.34
3.28
3.30
3.45
3.67
3.89
3.95
3.76
3.28
2.60
1.92
1.48
1.43
1.74
2.18
2.41
2.11
1.19
-0.22
-1.72
-2.86
-3.32
-3.14
-2.72
-2.69
-3.57
-5.61
-8.54
-11.68
-14.23
-15.61
-15.81
-15.49
-15.76
-17.74
-22.10
-28.56
-35.99
-42.40
-45.49
-43.37
-35.48
-23.38
-9.98
1.05
6.70
5.92
0.01
-8.14
-15.47
-20.18
-22.40
-23.37
-24.34
-25.24
-24.42
-19.54
-8.98
6.95
25.84
43.62
56.40
61.28
57.22
44.99
27.21
7.88
-7.48
-12.41
-1.53
26.74
67.86
111.16
142.84
151.41
132.96
93.56
46.72
7.30
-15.11
-19.84
-13.82
-6.47
-4.53
-9.08
-16.55
-22.03
-22.59
-18.50
-11.97
-4.77
3.61
15.05
30.96
49.92
67.35
77.30
75.75
63.08
44.51
27.86
19.69
22.07
31.54
40.89
42.69
33.79
15.82
-5.10
-21.14
-26.28
-18.76
-1.66
18.54
34.32
39.69
31.99
12.83
-12.50
-37.06
-54.92
-63.60
-65.10
-64.54
-67.16
-75.38
-87.11
-97.06
-99.96
-94.06
-82.48
-71.75
-68.12
-74.05
-86.78
-99.77
-106.20
-102.55
-90.24
-74.68
-62.25
-57.02
-58.99
-64.68
-69.57
-70.71
-68.09
-63.86
-60.25
-57.83
-55.29
-50.95
-44.71
-38.94
-37.28
-41.99
-51.62
-60.92
-63.47
-55.57
-39.11
-21.06
-10.00
-11.18
-23.29
-38.81
-47.73
-42.44
-21.32
10.80
45.36
74.13
92.68
101.88
107.08
115.21
131.54
156.95
186.80
212.48
224.52
216.38
186.98
141.24
88.23
38.21
-0.54
-23.91
-32.06
-28.35
-17.20
-2.13
15.36
35.62
59.69
87.54
116.59
141.81
156.94
156.98
140.02
108.10
66.64
23.46
-12.64
-33.74
-35.15
-18.20
9.03
33.98
44.76
35.77
10.86
-18.10
-36.80
-35.04
-11.39
26.82
67.67
99.85
116.41
115.73
99.90
72.88
39.32
4.12
-27.68
-51.42
-63.67
-62.85
-49.96
-28.33
-3.76
16.72
26.40
20.64
-1.77
-38.14
-82.95
-129.43
-171.19
-203.71
-224.47
-233.29
-232.54
-226.83
-221.57
-220.51
-223.24
-224.97
-219.59
-203.46
-179.06
-155.16
-142.87
-149.83
-176.09
-213.76
-251.23
-279.50
-295.42
-301.50
-302.99
-303.64
-303.50
-299.61
-288.11
-262.71
-221.52
-166.20
-100.92
-30.88
39.31
106.59
169.22
226.14
276.03
316.34
344.65
359.48
361.17
352.02
335.74
316.26
296.72
278.70
261.80
244.86
226.79
207.22
186.74
166.58
148.03
131.97
118.60
107.17
96.72
86.43
75.94
65.37
55.19
45.95
37.97
31.35
25.78
20.86
16.27
11.84
7.58
3.58
0.00
-3.06
-5.58
-7.62
-9.32
-10.76
-12.00
-13.07
-13.95
-14.65
-15.14
-15.43
-15.56
-15.58
-15.50
-15.32
-15.05
-14.68
-14.21
-13.67
-13.12
-12.39
-11.70
-11.09
-10.54
-9.99
-9.39
-8.72
-8.01
-7.34
-6.77
-6.40
-6.20
-6.11
-6.01
-5.77
-5.34
-4.80
-4.28
-3.96
-4.02
-4.42
-5.01
-5.47
-5.57
-5.15
-4.37
-3.57
-3.17
-3.52
-4.57
-5.96
-7.11
-7.43
-6.70
-5.18
-3.54
-2.58
-2.88
-4.42
-6.57
-8.29
-8.70
-7.49
-4.95
-2.04
0.20
0.98
0.13
-2.10
-4.98
-7.41
-8.01
-5.08
2.74
15.90
33.05
51.46
67.52
78.31
83.19
83.35
81.71
81.04
82.41
84.42
84.16
78.71
66.33
48.60
28.26
8.40
-8.89
-22.96
-34.26
-43.40
-50.54
-55.18
-56.60
-54.89
-50.88
-45.97
-41.61
-38.80
-37.63
-37.46
-37.37
-36.31
-34.08
-30.92
-27.53
-24.65
-22.74
-21.81
-21.50
-21.28
-20.63
-19.49
-17.97
-16.36
-14.99
-14.03
-13.51
-13.33
-13.38
-13.60
-14.00
-14.54
-15.11
-15.57
-15.78
-15.79
-15.79
-16.18
-17.31
-19.41
-22.22
-25.18
-27.63
-29.11
-29.56
-29.58
-30.11
-32.02
-35.75
-40.95
-46.65
-51.75
-55.46
-57.65
-59.06
-60.77
-63.42
-66.87
-69.94
-70.38
-66.05
-55.38
-37.52
-12.46
18.82
53.83
87.80
114.69
128.81
127.18
111.22
86.62
61.09
41.23
30.12
26.44
26.81
27.91
28.13
27.79
27.87
28.72
29.55
28.94
25.87
20.74
15.05
10.55
8.53
8.99
10.79
12.27
12.05
9.63
5.73
1.73
-0.97
-1.67
-0.64
0.95
1.72
0.73
-2.02
-5.53
-8.37
-9.38
-8.32
-6.07
-4.23
-4.36
-7.11
-11.87
-16.87
-20.03
-20.03
-17.00
-12.69
-9.67
-10.19
-14.94
-22.64
-30.44
-35.36
-35.47
-31.04
-24.44
-19.03
-17.73
-22.19
-32.11
-45.30
-58.02
-65.60
-63.18
-47.46
-18.59
18.52
54.52
78.28
81.03
60.51
22.79
-19.54
-52.33
-65.50
-56.88
-32.15
-1.33
26.09
44.84
54.67
58.49
59.40
58.74
55.74
49.34
39.84
29.51
21.65
19.02
21.98
28.29
34.28
36.75
34.22
27.74
20.08
14.29
12.42
14.64
19.32
23.98
26.46
25.89
22.86
19.04
16.33
16.12
18.71
23.38
28.75
33.54
36.96
38.80
39.67
39.69
39.09
37.64
34.81
29.96
22.75
13.38
2.49
-8.67
-18.79
-26.60
-31.35
-32.96
-31.92
-29.04
-25.23
-21.36
-17.65
-14.02
-10.07
-5.50
-0.37
4.99
10.07
14.59
17.92
20.46
22.73
25.38
28.89
33.43
39.17
46.00
53.15
58.02
58.30
52.24
39.81
22.97
4.73
-11.42
-23.00
-29.08
-31.66
-31.85
-29.96
-25.89
-19.50
-12.26
-6.53
-5.06
-9.95
-23.60
-44.68
-69.46
-93.76
-113.49
-127.12
-134.22
-135.73
-121.91
-96.72
-66.12
-34.50
-7.88
16.12
37.21
53.79
63.44
63.91
51.50
25.21
-11.89
-53.77
-93.26
-125.30
-145.09
-148.16
-132.11
-100.31
-59.21
-17.31
17.36
40.44
51.39
53.58
51.59
48.62
44.78
39.81
34.08
28.63
25.07
24.06
25.39
27.85
29.79
29.33
26.15
21.34
16.57
13.38
12.33
13.17
14.86
16.17
15.94
13.95
10.83
7.61
5.26
4.20
4.31
5.02
5.62
5.52
4.55
2.98
1.31
-0.02
-0.78
-1.00
-0.94
-0.95
-1.29
-2.03
-3.10
-4.31
-5.46
-6.44
-7.23
-7.92
-8.61
-9.36
-10.17
-11.07
-12.05
-13.10
-14.23
-15.48
-16.93
-18.68
-20.81
-23.32
-26.22
-29.46
-32.84
-36.13
-39.02
-41.11
-42.06
-41.60
-39.48
-35.62
-30.07
-23.06
-15.01
-6.43
2.14
10.17
17.22
22.98
27.25
29.99
31.21
31.01
29.53
27.06
23.89
20.44
17.15
14.45
12.71
12.14
12.66
14.05
15.99
18.06
19.98
21.48
22.48
22.91
22.61
21.34
18.86
15.04
9.98
4.09
-2.00
-7.35
-11.32
-13.76
-15.00
-15.74
-16.69
-18.26
-20.34
-22.42
-23.31
-22.19
-18.97
-14.27
-9.11
-4.60
-1.35
0.62
1.86
3.92
8.23
15.99
27.83
43.58
62.06
81.38
99.60
110.79
112.12
103.17
85.85
63.45
39.11
14.68
-9.56
-34.11
-59.00
-81.95
-99.41
-107.77
-105.27
-93.19
-75.63
-57.94
-44.66
-37.80
-35.99
-36.14
-35.11
-31.05
-23.59
-13.24
-0.60
13.98
30.15
47.44
64.67
80.23
92.61
100.85
104.63
104.19
100.16
93.58
86.00
79.12
74.51
73.02
74.73
78.76
83.68
87.76
89.34
87.33
81.86
74.49
67.85
64.18
63.34
61.71
52.99
30.91
-7.15
-57.71
-111.36
-155.87
-180.79
-180.94
-157.17
-114.64
-59.98
0.52
61.36
117.19
162.59
192.52
203.63
195.42
170.69
134.67
93.60
52.88
15.90
-16.41
-45.14
-72.14
-98.62
-124.19
-146.82
-163.47
-171.42
-169.60
-159.19
-143.31
-126.04
-111.50
-102.98
-102.45
-110.22
-124.78
-143.17
-161.67
-176.43
-184.05
-181.87
-168.49
-144.25
-111.62
-74.92
-39.47
-10.06
10.33
21.09
23.78
21.62
18.69
19.34
27.33
44.93
72.15
106.30
142.23
173.62
194.49
200.68
191.12
168.46
138.90
111.13
93.82
92.43
106.97
131.60
156.62
171.98
170.52
150.10
113.51
66.60
15.91
-33.07
-76.52
-111.77
-136.74
-149.77
-149.81
-137.10
-113.74
-83.67
-51.83
-22.68
1.35
20.70
37.74
55.33
74.81
94.67
110.63
117.39
111.07
91.37
62.45
31.28
6.57
-4.00
3.69
28.14
62.36
96.22
119.87
126.94
114.68
86.08
48.45
10.35
-21.96
-46.20
-63.09
-74.59
-82.49
-91.00
-103.12
-119.95
-140.41
-162.85
-186.38
-211.15
-238.28
-269.62
-310.88
-365.32
-430.76
-499.06
-558.90
-599.63
-613.99
-599.65
-536.54
-422.24
-274.04
-122.02
7.31
101.67
161.65
193.74
205.20
202.56
187.74
164.44
138.94
119.02
110.73
116.21
133.61
158.21
184.02
202.73
207.35
195.49
170.44
138.80
106.76
77.35
49.72
20.86
-13.05
-51.42
-87.85
-112.74
-118.81
-105.44
-79.09
-49.77
-26.06
-12.48
-7.61
-5.64
0.14
13.66
34.95
61.56
91.14
123.32
159.42
201.46
250.26
304.39
358.95
407.18
442.97
462.91
466.74
456.11
432.84
398.14
353.50
300.66
242.35
182.09
123.28
68.03
16.55
-32.39
-82.77
-133.14
-177.94
-210.34
-226.55
-227.13
-215.28
-194.71
-168.78
-140.64
-113.12
-90.20
-74.36
-67.30
-68.94
-77.09
-88.42
-100.06
-110.94
-122.35
-138.37
-164.33
-202.63
-251.94
-305.68
-353.14
-382.53
-384.98
-357.39
-304.33
-236.03
-166.82
-111.87
-83.13
-85.87
-116.65
-163.91
-211.14
-242.51
-245.95
-218.74
-167.88
-106.31
-46.97
2.04
38.68
65.37
85.75
105.96
130.14
159.61
193.64
231.02
271.07
313.22
356.21
397.30
437.72
479.08
522.43
567.20
611.01
649.63
676.83
685.48
645.08
541.44
384.45
206.58
45.04
-76.65
-153.31
-192.43
-204.75
-203.04
-192.44
-176.74
-161.17
-152.63
-156.79
-174.54
-202.14
-228.76
-242.41
-233.00
-200.54
-155.00
-110.85
-79.66
-65.03
-62.96
-66.20
-69.91
-71.40
-71.53
-72.67
-76.41
-82.21
-87.64
-89.39
-84.88
-73.53
-55.45
-32.19
-6.79
16.25
30.94
32.16
18.94
-4.62
-31.19
-52.98
-65.19
-67.19
-61.40
-51.12
-38.54
-23.99
-7.15
11.38
29.64
44.78
54.28
56.69
51.62
40.31
25.77
12.12
3.64
3.33
11.11
23.23
34.52
40.85
41.49
37.54
29.71
16.81
-3.94
-34.75
-74.19
-114.20
-144.10
-154.97
-144.07
-116.14
-80.83
-47.86
-23.43
-8.32
0.82
7.96
15.45
22.77
27.15
25.65
16.58
0.07
-22.28
-48.08
-74.61
-97.88
-112.59
-112.94
-95.73
-63.18
-23.61
11.21
30.92
31.02
14.63
-9.96
-33.51
-50.91
-62.42
-69.99
-74.30
-72.87
-61.16
-35.04
5.67
57.00
111.01
158.82
194.80
218.33
232.69
241.93
249.41
256.69
265.35
275.23
283.98
287.54
281.27
261.23
224.71
173.00
105.66
33.68
-26.34
-61.98
-71.54
-61.74
-41.34
-19.86
-0.55
15.23
27.44
34.50
33.28
20.81
-3.38
-37.00
-78.39
-125.28
-175.48
-225.84
-274.49
-321.29
-366.59
-409.40
-431.87
-420.72
-372.93
-298.40
-212.71
-129.61
-57.38
1.00
46.62
82.71
110.42
130.57
144.43
154.14
161.89
169.42
176.70
182.82
186.60
185.01
175.51
157.31
131.31
100.06
67.68
37.31
10.87
-10.76
-28.66
-44.11
-57.32
-68.10
-75.60
-79.26
-79.76
-78.61
-77.75
-79.21
-86.70
-97.91
-109.93
-119.31
-123.05
-120.15
-111.19
-98.15
-83.41
-68.39
-52.86
-36.10
-17.22
4.33
27.08
48.09
63.67
70.49
66.27
50.12
21.56
-19.30
-66.41
-110.65
-140.71
-147.95
-130.84
-95.94
-54.53
-18.18
5.81
16.30
16.28
10.09
0.68
-11.22
-25.81
-42.42
-58.79
-72.53
-80.23
-80.14
-72.59
-59.33
-42.30
-22.23
1.59
29.93
62.00
95.99
129.07
157.77
178.97
191.05
194.60
192.10
186.83
181.73
178.37
176.89
176.31
175.24
172.88
169.49
166.00
163.53
165.52
171.50
180.71
191.15
198.95
198.75
185.36
156.08
112.58
61.18
10.59
-31.01
-58.83
-72.56
-75.50
-72.16
-66.07
-58.99
-51.30
-43.41
-36.22
-30.36
-25.65
-20.93
-14.39
-4.56
9.01
25.30
45.86
69.33
93.27
114.66
130.42
138.17
137.00
128.05
114.30
99.60
87.17
79.74
79.35
87.46
104.66
129.92
159.74
188.40
209.45
217.62
211.36
193.12
167.95
141.06
115.94
93.79
74.40
57.48
43.07
31.91
24.39
19.68
15.76
10.10
0.48
-14.22
-33.69
-56.03
-77.77
-94.48
-102.12
-98.67
-85.40
-66.96
-49.88
-40.13
-40.83
-51.18
-67.40
-84.89
-100.42
-113.18
-124.50
-136.53
-150.82
-167.48
-185.01
-200.79
-211.39
-213.32
-203.85
-181.91
-148.80
-108.41
-66.41
-28.77
-0.35
16.38
21.63
17.81
8.93
-0.57
-6.74
-7.02
-1.07
8.91
18.65
23.31
19.56
7.21
-10.63
-29.38
-45.29
-57.36
-67.32
-77.90
-90.58
-104.69
-118.16
-129.68
-140.04
-151.82
-167.13
-185.25
-201.59
-209.41
-202.89
-180.29
-145.13
-105.24
-70.06
-47.84
-42.87
-54.73
-78.48
-106.08
-128.57
-138.05
-129.03
-98.88
-47.70
21.84
104.25
190.79
270.19
330.65
362.94
363.17
333.67
281.27
213.82
137.58
56.44
-26.24
-105.18
-171.97
-216.35
-229.77
-209.47
-160.87
-96.49
-32.11
18.59
47.94
55.88
47.80
30.57
9.11
-14.83
-40.79
-66.86
-88.16
-98.46
-94.04
-77.38
-57.89
-48.11
-57.74
-88.72
-134.60
-184.04
-226.01
-253.79
-265.53
-262.19
-245.17
-215.85
-176.81
-133.20
-92.42
-61.48
-43.94
-38.17
-38.08
-36.30
-27.98
-13.04
4.10
16.58
18.39
6.59
-18.44
-53.85
-95.65
-139.52
-180.69
-213.53
-231.55
-228.79
-202.59
-156.11
-98.48
-41.99
2.86
32.31
50.65
67.76
94.22
136.26
193.76
261.94
335.09
409.58
484.24
558.01
627.26
684.66
720.94
729.08
707.90
662.75
603.27
539.54
478.54
422.82
371.64
323.14
276.16
230.56
186.49
143.39
99.95
54.88
8.08
-38.89
-83.31
-122.24
-154.06
-178.91
-198.71
-216.46
-235.58
-259.22
-289.16
-324.44
-360.13
-387.64
-397.18
-381.89
-341.84
-285.29
-226.10
-178.15
-149.89
-141.79
-148.11
-161.53
-177.42
-195.13
-215.91
-239.55
-262.35
-278.19
-281.91
-272.43
-253.68
-232.71
-216.26
-207.62
-205.93
-207.08
-206.30
-200.34
-188.47
-172.30
-154.53
-137.72
-123.23
-110.93
-99.55
-87.39
-73.19
-56.68
-38.70
-20.80
-4.45
9.44
20.78
30.04
37.83
44.40
49.57
52.95
54.20
53.39
50.99
47.80
44.57
41.70
39.15
36.57
33.53
29.77
25.30
20.33
15.14
9.93
4.88
0.09
-4.39
-8.63
-12.83
-17.29
-22.43
-28.55
-35.77
-43.85
-52.29
-60.26
-66.89
-71.36
-73.01
-71.57
-67.15
-60.18
-51.28
-41.16
-30.48
-19.76
-9.41
0.41
9.64
18.38
26.72
34.69
42.16
48.86
54.49
58.74
61.48
62.68
62.51
61.18
59.01
56.34
53.50
50.79
48.28
45.81
42.99
39.42
34.87
29.40
23.37
17.22
11.26
5.60
0.14
-5.35
-11.05
-17.07
-23.38
-29.87
-36.34
-42.54
-48.23
-53.18
-57.19
-60.01
-61.35
-60.82
-58.08
-52.97
-45.67
-36.71
-26.82
-16.75
-6.99
2.29
11.20
19.95
28.57
36.76
44.06
49.80
53.54
55.14
54.91
53.40
51.30
49.16
47.33
45.94
44.95
44.22
43.48
42.40
40.68
38.20
35.04
31.49
27.86
24.37
21.02
17.65
14.08
10.28
6.32
2.42
-1.23
-4.59
-7.80
-11.04
-14.54
-18.46
-22.85
-27.74
-33.08
-38.67
-44.09
-48.66
-51.51
-51.80
-48.98
-42.89
-33.97
-23.01
-11.09
0.80
11.93
21.87
30.49
37.89
44.17
49.36
53.47
56.46
58.38
59.33
59.37
58.50
56.70
54.10
51.02
48.04
45.75
44.38
43.73
43.15
41.87
39.39
35.69
31.17
26.39
21.90
18.06
15.18
13.50
13.14
13.87
14.99
15.44
14.14
10.37
4.03
-4.32
-13.84
-23.69
-33.31
-42.34
-50.39
-56.87
-61.05
-62.27
-60.27
-55.38
-48.43
-40.46
-32.38
-24.74
-17.70
-11.13
-4.84
1.31
7.27
12.78
17.52
21.11
23.26
23.87
23.04
20.99
18.15
15.01
12.03
9.54
7.62
5.93
3.78
0.46
-4.26
-9.72
-14.39
-16.23
-13.37
-4.86
9.02
26.52
44.71
59.81
67.98
66.27
53.54
31.22
3.32
-24.16
-44.65
-52.47
-44.21
-19.41
19.44
67.54
118.82
166.94
206.54
234.17
248.84
252.16
247.90
241.03
236.47
237.85
246.49
261.18
278.58
294.44
304.88
307.39
301.44
288.27
270.45
251.03
232.82
217.70
206.26
197.63
189.79
180.20
166.55
147.47
122.88
93.83
61.96
28.81
-4.66
-38.03
-71.08
-103.37
-133.56
-159.42
-178.50
-189.36
-192.43
-190.17
-186.48
-185.46
-190.41
-202.62
-220.77
-240.91
-257.03
-262.27
-251.09
-221.74
-178.11
-130.48
-91.99
-73.87
-80.92
-109.76
-150.31
-189.88
-217.85
-228.84
-225.22
-212.78
-196.84
-179.81
-161.59
-141.56
-119.91
-97.99
-77.77
-64.73
-62.61
-70.83
-84.62
-97.98
-107.06
-111.09
-111.61
-111.04
-117.53
-137.13
-170.20
-210.96
-251.42
-285.40
-309.56
-322.11
-322.44
-319.05
-321.24
-335.12
-361.69
-399.20
-445.58
-498.23
-552.19
-554.08
-469.89
-303.39
-97.03
100.72
262.73
384.21
471.44
533.77
578.86
603.88
605.87
587.04
555.95
523.06
497.14
478.80
465.74
454.44
435.54
401.66
351.23
289.10
223.12
161.64
108.94
66.33
33.06
3.99
-24.50
-51.76
-72.69
-81.30
-75.16
-57.23
-33.71
-11.47
2.92
6.93
2.59
-5.33
-12.53
-17.58
-21.61
-25.47
-28.07
-27.03
-19.59
-4.53
16.54
39.26
57.98
67.97
68.00
60.33
49.62
40.66
36.75
38.74
45.53
55.08
64.90
72.22
73.27
64.09
42.48
10.34
-25.13
-53.04
-63.23
-51.39
-22.12
12.21
36.50
39.62
19.19
-18.22
-61.14
-98.85
-125.67
-142.47
-152.77
-160.64
-168.37
-175.71
-180.96
-183.12
-182.64
-181.95
-182.31
-183.27
-182.54
-176.74
-162.69
-138.79
-105.80
-66.22
-22.19
23.11
68.28
112.68
155.23
194.25
227.32
251.92
266.45
271.95
270.58
266.24
263.11
262.38
263.14
262.45
256.46
242.11
218.20
185.54
146.13
104.21
62.70
23.73
-11.20
-40.89
-64.35
-81.10
-91.89
-97.83
-100.48
-101.89
-103.40
-105.49
-107.87
-109.92
-111.20
-111.72
-111.89
-112.07
-113.01
-115.03
-118.11
-121.85
-125.66
-129.07
-131.76
-133.52
-134.02
-133.00
-130.21
-125.38
-118.58
-109.29
-96.97
-81.04
-61.01
-36.47
-7.71
24.07
56.63
86.80
111.13
126.45
130.72
123.43
105.74
79.79
48.28
13.91
-20.88
-53.51
-81.34
-101.38
-110.73
-106.98
-88.86
-56.46
-11.17
43.51
101.72
155.67
196.47
216.31
211.65
185.06
145.04
103.03
69.00
47.98
39.20
37.96
38.77
38.10
34.79
29.42
23.39
18.65
17.76
23.43
37.82
59.27
83.21
103.25
113.24
109.78
93.16
66.66
34.68
1.12
-31.49
-61.30
-86.64
-105.89
-117.81
-122.23
-120.33
-114.24
-106.12
-97.68
-89.38
-80.81
-71.42
-60.94
-49.93
-39.53
-31.13
-25.82
-23.94
-24.84
-27.23
-29.69
-31.01
-30.60
-28.54
-25.33
-21.46
-17.35
-13.08
-8.66
-4.22
0.00
3.47
5.45
5.33
2.85
-1.86
-8.33
-16.06
-24.74
-34.02
-43.70
-53.53
-62.88
-70.60
-75.22
-75.32
-69.94
-60.19
-47.17
-32.02
-15.67
1.72
20.91
43.22
69.67
100.16
133.22
166.59
197.66
223.88
243.44
255.65
260.84
260.24
255.66
249.13
242.18
234.48
222.40
199.75
160.27
100.74
23.41
-63.64
-148.45
-219.63
-266.30
-283.19
-272.59
-242.40
-202.18
-159.94
-121.06
-88.59
-63.86
-46.81
-36.80
-32.69
-32.89
-35.49
-38.86
-42.14
-45.39
-49.56
-55.86
-64.52
-73.39
-77.30
-69.83
-47.14
-11.07
30.63
67.28
90.31
97.14
91.84
82.52
76.99
78.60
85.53
93.46
98.62
100.03
101.03
102.28
103.19
102.02
96.08
82.95
61.95
34.18
2.07
-32.77
-65.62
-95.36
-121.03
-141.83
-156.17
-161.56
-155.37
-136.31
-105.87
-68.74
-31.69
-0.35
22.76
39.09
52.89
68.31
86.66
105.53
119.78
124.14
116.06
96.33
68.40
36.92
6.32
-19.61
-37.53
-44.69
-39.55
-22.36
2.69
27.08
40.75
36.44
14.32
-17.78
-48.55
-69.01
-75.85
-71.48
-61.36
-49.96
-39.65
-30.72
-23.09
-17.13
-13.17
-10.32
-5.54
3.41
17.69
35.68
53.30
65.28
67.53
58.83
41.59
20.93
2.44
-9.14
-11.54
-4.38
10.72
31.33
53.72
73.68
87.48
92.86
92.50
87.95
80.73
72.26
62.67
50.62
34.01
10.76
-20.25
-56.80
-91.48
-114.35
-118.53
-105.67
-85.42
-69.70
-66.80
-78.03
-97.85
-117.88
-134.46
-144.98
-149.54
-149.40
-144.70
-134.12
-116.18
-90.75
-60.00
-28.34
-0.55
20.53
32.52
36.00
34.51
33.45
37.47
48.08
62.61
75.95
82.91
80.27
68.40
50.21
29.33
8.65
-10.32
-26.84
-40.53
-49.25
-50.66
-43.27
-28.16
-9.61
5.87
12.15
6.41
-9.47
-28.12
-40.79
-41.54
-30.02
-10.76
9.64
26.06
36.37
41.60
44.14
45.57
46.27
45.87
44.33
42.13
40.14
38.95
39.03
40.52
43.04
46.01
48.58
50.33
51.06
51.11
50.13
47.75
43.18
34.86
21.12
1.38
-22.28
-44.93
-59.46
-60.67
-47.56
-24.28
1.45
21.71
31.41
30.32
21.80
10.41
-0.56
-9.77
-17.35
-23.40
-26.88
-26.40
-21.84
-14.97
-10.20
-12.53
-24.98
-46.07
-69.74
-86.56
-89.55
-76.20
-49.61
-16.62
15.80
43.24
64.81
81.76
95.63
106.62
114.16
117.68
116.55
111.22
102.69
91.95
79.10
63.50
43.98
20.27
-6.63
-34.85
-62.02
-85.85
-105.00
-119.56
-130.63
-141.14
-150.77
-158.42
-162.08
-159.63
-149.21
-130.42
-104.48
-73.93
-42.27
-13.11
9.73
23.19
26.13
20.54
11.16
4.15
5.16
15.15
30.70
45.13
52.01
48.20
34.99
16.51
-2.32
-18.37
-31.04
-40.65
-47.24
-50.04
-49.04
-44.42
-38.53
-34.77
-35.54
-41.40
-49.58
-55.31
-52.76
-38.79
-12.97
21.75
59.97
95.28
122.36
138.49
144.19
142.63
137.69
132.41
127.77
123.45
119.08
115.30
113.36
113.60
114.76
113.83
108.32
96.34
78.79
58.21
37.31
17.07
-3.82
-27.86
-56.48
-88.51
-119.33
-141.95
-149.98
-140.80
-116.98
-85.47
-54.90
-32.21
-19.95
-16.44
-17.43
-18.99
-19.42
-19.41
-20.53
-23.67
-27.92
-31.44
-32.55
-30.78
-27.29
-23.86
-22.45
-24.01
-28.24
-33.72
-38.74
-41.92
-42.75
-41.81
-40.48
-40.41
-42.89
-48.46
-56.53
-65.83
-74.68
-81.41
-84.89
-84.81
-81.18
-74.23
-64.03
-50.34
-32.66
-10.54
15.94
45.98
78.05
110.69
142.48
171.23
193.28
203.83
198.54
175.95
139.15
96.15
56.00
26.39
10.52
6.46
8.98
12.59
14.19
13.62
12.72
13.54
16.80
21.57
25.98
28.34
28.02
25.66
23.20
22.78
26.10
33.55
43.80
54.13
61.47
63.31
58.46
46.94
29.28
6.29
-20.38
-47.60
-70.37
-83.22
-82.89
-70.67
-52.94
-38.62
-34.68
-42.36
-56.54
-68.19
-69.36
-57.01
-33.74
-5.68
20.97
42.47
57.60
66.09
67.34
59.55
40.80
10.77
-27.91
-69.38
-105.49
-127.79
-130.67
-113.58
-81.81
-44.76
-12.13
9.54
19.02
19.77
17.24
15.63
16.22
17.58
17.44
14.88
10.71
7.03
5.79
7.58
11.40
15.33
17.50
17.09
14.66
11.58
9.26
8.78
10.17
12.54
14.61
15.41
14.63
12.79
10.77
9.42
9.21
9.97
11.16
12.08
12.30
11.76
10.79
9.84
9.32
9.40
9.99
10.79
11.50
11.92
12.02
11.89
11.72
11.63
11.69
11.87
12.07
12.21
12.22
12.08
11.79
11.38
10.84
10.17
9.38
8.43
7.34
6.08
4.65
3.04
1.24
-0.79
-3.06
-5.60
-8.39
-11.45
-14.79
-18.42
-22.33
-26.54
-31.09
-36.00
-41.31
-47.09
-53.37
-60.26
-67.84
-76.18
-85.32
-95.11
-105.23
-115.01
-123.67
-129.96
-132.54
-130.25
-121.79
-106.03
-82.70
-52.25
-15.95
24.05
64.97
103.63
136.82
161.66
175.77
177.52
166.19
142.23
107.19
63.37
13.84
-38.13
-88.97
-135.39
-174.42
-204.32
-223.67
-232.02
-229.89
-218.80
-200.94
-178.72
-154.74
-131.32
-110.37
-92.98
-79.80
-70.67
-65.01
-61.87
-60.16
-58.80
-56.95
-54.00
-49.62
-43.79
-36.71
-28.73
-20.28
-11.82
-3.75
3.55
9.83
14.96
18.86
21.53
23.01
23.35
22.61
20.89
18.27
14.83
10.71
6.05
1.11
-3.95
-8.95
-13.87
-18.65
-23.39
-28.17
-32.98
-37.70
-42.08
-45.89
-48.94
-51.28
-53.06
-54.61
-56.16
-57.74
-59.03
-59.40
-58.14
-54.65
-49.08
-41.91
-33.82
-25.45
-17.04
-8.31
1.51
13.27
27.56
44.31
62.90
82.35
101.75
120.73
139.59
159.22
180.73
205.30
233.74
266.32
302.13
338.66
371.78
396.51
408.38
404.96
386.84
357.48
321.85
284.79
249.43
217.03
187.41
160.16
135.25
113.23
94.67
79.68
67.48
56.80
46.35
35.36
23.96
12.99
3.64
-3.25
-7.72
-10.87
-14.53
-20.36
-29.18
-40.31
-51.78
-61.25
-66.97
-68.64
-67.50
-65.68
-65.22
-67.17
-71.12
-75.54
-78.49
-78.54
-75.47
-70.34
-65.16
-62.04
-62.67
-67.80
-77.26
-89.93
-103.60
-115.02
-120.26
-115.72
-99.43
-72.27
-38.07
-2.46
28.72
51.69
65.10
70.05
68.78
63.63
56.32
48.20
40.31
33.80
29.63
28.21
29.50
32.84
37.35
42.06
46.30
49.80
52.67
55.42
58.58
62.57
67.38
72.50
77.09
80.25
81.57
81.13
79.86
79.17
80.41
84.38
90.31
96.13
98.29
93.12
77.99
52.37
17.86
-22.46
-65.08
-106.54
-143.83
-174.72
-197.87
-213.29
-222.33
-227.23
-230.18
-231.95
-231.26
-225.13
-210.38
-185.07
-149.14
-104.34
-53.26
1.10
55.98
108.67
156.55
197.01
227.78
247.46
255.60
254.16
245.21
230.91
213.36
194.42
175.68
158.54
144.04
132.79
124.89
119.51
115.26
110.39
103.11
91.92
76.06
55.45
30.73
3.27
-25.43
-53.78
-80.43
-104.42
-125.37
-143.23
-158.52
-172.24
-185.49
-199.16
-213.21
-226.72
-237.68
-243.58
-242.15
-232.32
-214.92
-192.52
-169.00
-148.18
-133.23
-125.58
-124.89
-129.52
-137.38
-146.51
-155.20
-162.26
-166.80
-169.24
-170.69
-172.19
-173.48
-172.20
-164.12
-144.88
-112.86
-68.73
-19.13
25.73
56.28
67.26
59.46
38.52
12.06
-14.93
-38.88
-58.20
-71.76
-78.05
-75.07
-61.12
-35.90
-0.72
39.65
78.64
109.18
126.28
128.29
116.82
95.40
68.00
38.07
8.56
-17.14
-35.57
-43.82
-40.73
-27.66
-8.30
12.82
32.39
49.62
66.31
84.86
105.97
126.64
140.12
137.99
114.10
68.39
8.72
-50.47
-92.83
-105.73
-84.69
-34.82
31.23
97.48
149.04
175.51
172.51
142.07
92.12
34.66
-16.66
-49.49
-55.45
-32.33
15.41
77.72
141.20
192.39
220.76
220.93
193.15
142.56
77.63
8.64
-53.45
-98.21
-117.20
-105.99
-65.97
-5.43
61.64
118.99
152.50
154.02
122.98
65.72
-6.38
-79.07
-137.82
-170.45
-170.03
-137.48
-81.82
-18.17
36.55
68.48
70.53
44.06
-2.32
-55.27
-100.59
-126.35
-126.28
-101.23
-58.79
-10.73
30.69
55.99
60.22
43.16
8.55
-37.50
-87.31
-132.16
-163.94
-177.28
-172.53
-156.65
-141.41
-138.30
-153.89
-186.67
-227.41
-263.59
-283.89
-283.49
-264.80
-236.43
-204.79
-170.14
-126.44
-66.49
12.42
105.61
200.91
283.07
339.13
363.01
356.73
328.88
291.15
254.28
224.82
203.04
183.79
159.43
123.98
76.41
21.81
-30.15
-69.09
-87.84
-85.18
-65.75
-37.50
-8.73
14.34
28.59
33.96
32.23
25.81
16.82
6.71
-3.15
-11.32
-16.00
-15.67
-9.54
1.80
16.56
32.25
46.30
56.59
61.43
59.68
50.77
35.21
14.93
-6.57
-24.88
-35.88
-37.02
-28.46
-12.85
5.33
21.25
31.18
33.36
28.26
18.01
5.46
-6.75
-16.54
-22.63
-24.31
-21.48
-14.81
-5.77
3.37
10.21
13.06
11.79
7.89
3.81
1.96
3.61
8.69
15.91
23.48
29.75
33.74
35.21
34.55
32.67
30.45
28.61
27.23
25.95
24.36
22.67
22.05
24.35
31.27
43.25
59.07
76.09
91.63
104.58
116.23
129.87
149.00
175.49
207.18
238.82
263.12
272.94
263.66
234.30
187.40
127.59
60.21
-9.68
-77.42
-138.48
-189.03
-226.63
-251.37
-266.70
-279.05
-295.33
-319.50
-350.02
-380.23
-401.60
-408.06
-399.08
-379.02
-354.19
-329.54
-305.75
-279.32
-245.38
-201.13
-147.56
-88.75
-29.54
26.54
78.02
124.94
167.30
204.04
233.06
252.12
260.23
258.39
249.48
237.32
225.44
215.98
209.14
203.45
196.75
187.31
174.74
160.03
144.98
131.50
121.05
114.23
111.52
111.46
111.49
108.37
98.82
81.12
56.60
30.08
8.39
-2.80
-1.46
9.01
21.53
28.48
25.08
10.36
-14.25
-47.12
-87.36
-133.73
-183.45
-230.40
-266.83
-286.51
-287.77
-274.23
-252.69
-229.52
-207.91
-187.60
-166.45
-143.21
-118.74
-95.45
-75.25
-57.79
-40.54
-20.64
2.38
25.23
41.79
46.45
37.89
21.09
5.90
2.87
18.04
49.64
88.71
122.79
140.93
137.42
113.12
74.32
29.97
-10.19
-38.10
-49.15
-43.29
-24.94
-1.68
18.13
27.98
25.20
11.72
-7.10
-24.44
-34.58
-34.84
-26.39
-13.94
-4.30
-3.77
-15.99
-40.69
-73.90
-110.06
-143.98
-172.14
-192.91
-205.19
-207.40
-197.97
-176.95
-147.79
-117.08
-91.66
-74.04
-60.10
-39.74
-1.20
62.79
150.21
249.39
342.95
414.60
455.41
465.84
454.20
432.31
411.04
397.34
393.61
398.44
405.45
408.53
402.35
383.33
349.80
301.98
241.71
172.12
97.50
22.96
-45.98
-104.89
-151.29
-185.22
-208.95
-225.84
-239.28
-251.43
-263.04
-273.27
-281.21
-286.44
-289.65
-292.31
-295.98
-302.01
-310.53
-320.71
-330.67
-338.43
-342.32
-341.88
-336.53
-325.29
-307.30
-281.47
-247.34
-205.21
-156.94
-105.46
-54.48
-7.52
32.97
65.78
91.27
111.03
127.48
143.22
160.25
179.07
198.28
214.86
225.32
227.61
222.48
213.18
204.36
199.50
199.35
201.28
200.72
192.70
173.96
144.26
106.38
65.47
27.38
-2.47
-20.93
-27.78
-26.40
-22.55
-22.76
-32.42
-53.97
-86.17
-124.19
-160.69
-187.16
-195.77
-180.93
-140.94
-79.23
-4.24
71.51
134.25
171.90
177.37
150.48
98.16
32.96
-30.51
-78.58
-102.24
-98.02
-68.50
-20.49
36.50
92.21
137.22
164.08
168.76
151.48
116.97
73.39
30.18
-4.69
-26.81
-35.74
-34.36
-26.90
-17.58
-9.60
-4.88
-4.40
-8.04
-15.06
-23.81
-32.56
-40.33
-47.27
-54.92
-65.36
-80.53
-101.01
-125.45
-150.19
-169.85
-178.69
-172.22
-148.84
-109.75
-58.54
0.26
62.00
121.50
172.26
206.15
214.96
192.69
139.02
60.56
-29.58
-114.87
-179.58
-212.51
-209.86
-176.12
-123.42
-68.02
-25.13
-3.70
-2.82
-12.65
-18.59
-8.87
19.81
60.23
98.15
119.14
114.81
86.77
44.42
1.21
-31.67
-48.42
-49.44
-38.88
-21.82
-2.01
18.83
39.54
58.59
73.11
79.81
76.52
63.46
43.80
22.37
4.47
-6.45
-9.62
-7.15
-2.91
-0.78
-3.49
-11.05
-21.56
-31.41
-37.56
-38.19
-33.64
-25.87
-17.20
-9.60
-3.30
2.29
8.57
16.21
25.06
33.97
41.16
45.14
44.80
40.20
32.14
22.27
12.43
4.20
-1.34
-4.42
-5.60
-6.00
-6.04
-5.77
-4.39
-1.10
4.55
12.36
21.27
30.27
38.26
44.82
49.75
52.95
54.26
53.44
50.77
46.91
43.08
40.16
37.70
33.37
23.31
3.81
-26.85
-66.88
-111.17
-152.40
-183.19
-198.11
-194.50
-172.70
-134.82
-84.20
-24.33
40.61
106.57
169.36
225.37
271.94
307.68
332.43
346.75
352.80
351.82
344.34
330.42
310.15
284.08
253.33
219.73
185.35
152.33
122.24
96.29
75.13
58.77
46.41
36.54
27.50
17.52
5.09
-10.82
-30.14
-51.82
-74.39
-96.60
-118.15
-139.47
-161.54
-185.35
-211.43
-239.04
-266.30
-290.74
-309.99
-322.57
-327.76
-325.67
-317.17
-304.30
-289.57
-274.95
-260.66
-244.44
-222.05
-189.16
-144.04
-87.15
-24.71
33.83
79.54
107.38
117.47
113.75
101.31
84.18
64.52
43.21
21.18
0.02
-18.38
-32.86
-43.76
-52.92
-63.05
-76.51
-94.64
-117.31
-143.25
-170.79
-198.70
-226.80
-255.99
-287.48
-321.87
-358.62
-395.54
-429.14
-456.29
-473.77
-479.35
-472.15
-452.42
-421.03
-378.95
-327.05
-266.12
-197.54
-123.52
-47.58
26.04
93.13
150.71
197.57
234.19
262.12
283.13
298.61
309.64
317.70
325.06
334.13
345.92
358.76
368.12
368.56
356.69
333.55
304.65
277.46
258.22
249.07
247.68
249.37
250.40
250.09
250.03
250.64
249.81
240.89
216.60
173.77
116.77
56.49
5.49
-28.49
-46.16
-55.33
-65.26
-80.50
-97.97
-109.01
-104.87
-82.00
-43.88
1.40
45.58
83.51
113.96
137.65
154.42
161.83
155.85
133.17
94.30
45.07
-4.29
-42.25
-60.33
-56.29
-34.68
-4.53
24.67
46.67
60.17
68.23
75.82
86.55
100.33
112.91
117.80
109.53
86.81
53.66
17.89
-12.42
-32.55
-42.74
-46.88
-49.60
-53.27
-57.26
-59.30
-57.75
-52.98
-47.24
-43.08
-42.05
-44.24
-48.67
-53.80
-57.85
-58.69
-54.30
-43.62
-27.39
-8.11
11.00
27.60
41.16
52.44
62.09
69.03
70.26
62.16
42.82
13.93
-18.83
-47.46
-64.55
-65.93
-51.97
-27.04
2.29
29.42
49.15
58.41
56.30
43.90
24.03
0.89
-20.50
-35.36
-40.23
-33.97
-18.07
3.73
26.42
45.00
55.31
54.69
42.15
18.52
-13.46
-49.33
-83.58
-110.93
-127.77
-133.27
-129.43
-119.96
-108.65
-97.93
-88.35
-79.27
-70.12
-61.43
-54.81
-52.16
-54.26
-60.04
-66.71
-70.89
-70.00
-63.41
-52.60
-40.56
-30.65
-25.61
-26.89
-34.39
-46.51
-60.52
-73.08
-81.08
-82.65
-77.60
-67.48
-54.82
-42.12
-31.09
-22.55
-16.65
-13.45
-13.18
-16.11
-22.29
-31.61
-43.88
-59.13
-77.29
-97.36
-116.78
-131.30
-136.21
-128.18
-106.94
-75.68
-39.77
-4.25
28.47
59.35
91.08
125.11
159.32
187.84
203.72
202.62
185.23
157.08
125.62
96.95
73.98
57.32
47.20
45.13
52.88
70.35
93.56
115.69
130.83
137.75
140.95
147.59
162.01
181.67
197.43
198.57
179.33
142.67
98.65
59.17
31.54
15.81
5.99
-5.11
-21.20
-40.59
-57.64
-66.58
-64.79
-54.50
-41.86
-34.33
-37.22
-51.64
-74.25
-98.62
-118.04
-127.42
-125.05
-112.66
-94.65
-76.88
-65.02
-63.28
-72.79
-91.36
-114.26
-136.70
-155.47
-169.90
-180.95
-188.97
-192.83
-189.58
-177.04
-155.09
-126.59
-95.78
-66.59
-42.09
-24.86
-17.63
-22.58
-39.54
-63.80
-86.75
-98.81
-94.02
-73.08
-42.45
-10.24
18.67
44.50
70.12
96.82
121.16
136.06
135.32
118.78
93.69
71.78
63.37
72.47
95.75
124.96
151.58
169.43
175.22
167.19
144.96
110.15
67.85
26.04
-7.45
-29.15
-42.47
-55.95
-78.42
-113.31
-156.31
-197.53
-226.76
-238.59
-233.91
-217.85
-195.72
-169.96
-139.86
-103.70
-61.45
-16.16
26.98
62.67
87.75
102.38
109.20
111.72
112.54
112.50
111.00
107.06
100.62
92.86
85.67
80.40
77.06
74.41
70.96
66.18
60.90
56.82
55.20
56.12
58.35
60.21
60.56
59.34
57.35
55.63
54.84
55.08
56.12
57.59
59.11
60.03
59.33
55.78
48.44
37.27
23.45
9.13
-3.40
-12.53
-17.94
-20.45
-21.26
-21.07
-19.45
-15.09
-6.72
5.72
20.48
34.35
44.03
47.68
45.75
40.81
36.15
34.26
35.64
38.85
41.38
41.14
37.58
31.80
26.21
23.11
24.03
29.00
36.69
45.11
51.90
54.46
49.76
34.71
7.35
-31.00
-74.28
-112.44
-134.82
-134.97
-113.83
-79.28
-41.70
-8.51
18.97
44.31
71.25
99.29
122.70
134.08
129.63
112.73
92.56
78.76
75.94
81.14
86.45
84.11
71.53
52.17
32.75
19.06
12.82
11.83
12.63
13.05
13.35
14.54
16.47
16.77
12.13
1.03
-14.62
-29.66
-38.76
-39.22
-32.79
-24.05
-17.62
-15.35
-15.76
-15.40
-11.19
-1.65
12.91
31.00
50.60
69.21
83.63
90.40
86.59
70.96
44.42
10.09
-27.77
-64.48
-95.95
-119.64
-134.93
-144.04
-150.89
-159.67
-172.27
-186.37
-195.69
-192.51
-172.09
-135.87
-92.11
-52.65
-27.93
-22.24
-32.18
-48.53
-60.92
-62.14
-50.62
-29.83
-5.50
17.29
35.41
47.68
53.22
50.86
39.39
19.14
-7.14
-34.08
-55.35
-65.88
-63.67
-50.75
-31.99
-13.36
0.51
7.68
9.43
9.20
11.04
17.54
28.53
40.73
48.99
48.29
35.95
12.97
-16.29
-45.73
-69.79
-85.23
-91.68
-91.00
-85.85
-78.72
-71.23
-64.44
-58.89
-54.63
-50.53
-44.00
-31.39
-9.68
21.51
58.49
93.70
118.21
125.02
112.01
82.62
44.24
4.78
-30.57
-60.52
-86.23
-108.06
-123.62
-128.58
-120.37
-102.00
-82.78
-74.68
-85.93
-116.06
-155.09
-188.44
-204.05
-198.26
-176.14
-147.63
-121.17
-100.03
-82.17
-63.64
-42.44
-20.05
-0.14
14.06
22.12
27.48
36.50
56.02
90.46
139.09
195.59
249.30
288.48
304.46
294.48
262.64
218.07
171.54
131.94
104.35
89.63
85.56
88.07
92.44
94.18
89.20
75.47
52.75
23.96
-6.47
-33.08
-50.88
-56.14
-47.23
-24.81
8.40
47.64
86.81
119.22
138.26
138.94
118.48
77.60
20.61
-44.76
-109.02
-162.81
-199.11
-215.06
-211.98
-194.55
-168.56
-139.00
-108.49
-77.64
-45.32
-10.12
28.42
68.92
107.37
138.07
154.95
153.53
132.67
95.61
49.44
3.19
-34.85
-59.86
-71.71
-74.11
-72.61
-71.71
-73.35
-76.84
-80.77
-84.58
-90.12
-100.50
-117.87
-140.68
-162.81
-175.07
-169.01
-140.89
-93.72
-36.67
18.57
62.01
88.95
100.35
101.13
96.54
89.73
81.22
70.33
57.05
43.20
31.46
23.61
19.40
17.07
14.75
12.14
10.18
9.81
10.54
10.47
7.87
2.78
-2.58
-5.22
-3.54
1.58
7.64
12.72
16.95
22.47
31.36
43.83
57.66
69.59
77.40
81.00
82.25
83.14
85.00
87.94
91.65
95.71
100.16
104.70
108.71
111.32
111.64
109.48
105.28
100.01
94.56
89.38
84.39
78.91
72.08
63.14
51.95
38.88
24.81
11.08
-0.97
-9.87
-14.62
-14.50
-9.73
-1.22
9.21
19.61
28.27
34.16
37.13
37.49
35.89
32.97
29.40
25.84
22.78
20.35
17.86
13.89
6.51
-5.81
-23.38
-45.11
-68.59
-91.20
-110.95
-127.57
-142.00
-155.98
-170.34
-184.10
-194.29
-197.20
-190.54
-174.74
-153.66
-132.97
-118.16
-112.35
-115.30
-123.87
-133.80
-141.31
-144.13
-141.48
-133.09
-118.45
-96.58
-66.69
-29.69
11.23
50.55
82.31
102.55
111.26
112.11
110.64
110.81
113.07
114.80
112.45
104.79
93.96
84.21
78.82
77.71
77.21
72.39
60.47
42.79
24.39
11.22
7.20
11.98
21.97
32.30
39.17
41.40
39.75
35.68
29.84
21.61
9.81
-5.80
-23.85
-41.36
-54.63
-61.06
-59.68
-51.58
-38.79
-23.57
-7.03
10.84
30.82
53.82
80.04
108.85
138.68
167.39
192.79
212.88
226.35
232.37
230.94
222.24
206.96
186.01
160.66
132.46
103.02
73.89
46.30
21.10
-1.38
-21.08
-38.18
-52.87
-65.30
-75.53
-83.63
-89.71
-93.97
-96.71
-98.22
-98.79
-98.59
-97.76
-96.36
-94.45
-92.07
-89.30
-86.25
-83.01
-79.66
-76.27
-72.87
-69.48
-66.12
-62.78
-59.47
-56.19
-52.97
-49.81
-46.75
-43.79
-40.96
-38.26
-35.70
-33.25
-30.92
-28.70
-26.59
-24.60
-22.72
-20.87
-19.11
-17.46
-15.94
-14.55
-13.29
-12.16
-11.12
-10.19
-9.36
-8.62
-7.96
-7.37
-6.83
-6.35
-5.91
-5.51
-5.13
-4.80
-4.50
-4.23
-3.99
-3.76
-3.55
-3.36
-3.18
-3.01
-2.86
-2.71
-2.59
-2.47
-2.36
-2.26
-2.17
-2.07
-1.99
-1.91
-1.83
-1.76
-1.70
-1.64
-1.59
-1.53
-1.48
-1.44
-1.39
-1.34
-1.31
-1.26
-1.23
-1.19
-1.16
-1.13
-1.09
-1.06
