1520351592.00
64.000000
-0.00
-0.00
-0.00
-0.00
-0.00
-0.00
-0.00
-0.00
-0.00
-0.00
0.00
0.01
0.01
-0.00
-0.03
-0.05
-0.05
0.00
0.13
0.36
0.66
1.01
1.37
1.72
2.06
2.40
2.79
3.24
3.80
4.42
5.06
5.66
6.20
6.68
7.15
7.68
8.31
9.14
10.09
11.04
11.88
12.56
13.14
13.76
14.65
15.96
17.91
20.32
22.90
25.38
27.58
29.57
31.68
34.32
37.81
42.54
48.15
54.10
59.83
64.97
69.58
74.14
79.34
85.71
93.76
103.00
112.62
121.73
129.77
136.75
143.30
150.75
157.77
166.64
177.95
191.79
206.97
220.57
228.25
225.36
208.53
176.87
132.76
80.05
23.07
-34.94
-92.44
-149.16
-205.23
-260.37
-313.74
-363.87
-409.83
-450.91
-486.50
-515.74
-537.23
-549.22
-549.96
-538.37
-514.21
-478.67
-433.88
-382.45
-327.02
-269.84
-212.63
-156.66
-102.95
-52.37
-5.90
35.58
71.43
101.35
125.50
144.38
158.69
169.15
176.37
180.75
182.57
182.07
179.51
175.23
169.65
163.18
156.15
148.81
141.30
133.69
126.02
118.33
110.69
103.16
95.80
88.68
81.83
75.25
68.95
62.95
57.25
51.86
46.78
42.03
37.59
33.45
29.61
26.07
22.81
19.83
17.11
14.67
12.48
10.54
8.83
7.35
6.07
4.97
4.05
3.27
2.62
2.09
1.65
1.30
1.01
0.79
0.61
0.47
0.37
0.28
0.22
0.18
0.14
0.12
0.11
0.10
0.11
0.11
0.13
0.15
0.17
0.20
0.23
0.27
0.30
0.34
0.37
0.41
0.45
0.49
0.53
0.58
0.62
0.68
0.74
0.81
0.89
0.98
1.08
1.18
1.31
1.44
1.59
1.76
1.94
2.14
2.36
2.61
2.88
3.17
3.49
3.84
4.21
4.62
5.06
5.53
6.04
6.59
7.17
7.80
8.47
9.17
9.92
10.72
11.56
12.44
13.40
14.41
15.48
16.62
17.80
19.00
20.15
21.20
22.04
22.57
22.66
22.24
21.20
19.51
17.18
14.30
10.96
7.36
3.71
0.20
-2.93
-5.52
-7.44
-8.63
-9.13
-8.99
-8.37
-7.43
-6.38
-5.40
-4.63
-4.19
-4.09
-4.28
-4.67
-5.09
-5.44
-5.64
-5.63
-5.38
-4.87
-4.11
-3.05
-1.64
0.24
2.50
5.08
7.93
10.98
14.14
17.41
20.82
24.50
28.68
33.19
37.88
42.60
47.10
51.17
54.69
57.72
60.54
63.60
66.72
69.78
72.54
74.63
75.73
75.71
74.77
73.45
72.58
72.07
71.77
71.16
69.36
65.33
58.01
46.40
29.15
10.16
-9.19
-28.26
-46.91
-65.55
-84.94
-106.06
-129.90
-156.91
-186.33
-216.58
-244.29
-265.25
-275.87
-274.51
-262.17
-241.98
-217.96
-193.48
-171.12
-151.75
-135.34
-121.73
-110.93
-102.92
-97.28
-93.04
-88.89
-84.01
-78.00
-70.83
-62.64
-53.37
-42.65
-29.99
-15.16
1.65
19.53
37.47
54.54
70.11
83.76
95.13
103.79
109.29
111.36
110.01
105.66
99.11
91.21
82.79
74.41
66.44
59.01
52.11
45.63
39.48
33.56
27.81
22.15
16.47
10.57
4.13
-3.22
-11.86
-21.99
-33.59
-46.32
-59.48
-71.98
-82.37
-89.13
-90.96
-87.27
-78.56
-66.30
-52.56
-39.18
-27.20
-16.72
-7.31
1.34
9.01
14.90
18.19
18.60
16.68
13.62
10.71
8.81
8.12
8.39
9.15
9.98
10.58
10.63
9.79
7.72
4.29
-0.26
-5.44
-10.66
-15.54
-20.24
-25.50
-32.35
-41.51
-52.79
-64.71
-74.68
-79.82
-77.91
-68.30
-52.18
-32.03
-10.73
9.45
27.33
42.79
56.23
67.90
77.69
85.09
89.64
91.27
90.44
88.02
84.92
81.82
79.03
76.57
74.28
71.98
69.52
66.87
64.07
61.22
58.40
55.57
52.53
48.95
44.43
38.72
31.69
23.33
13.58
2.40
-10.11
-23.31
-35.87
-45.79
-50.93
-49.65
-41.52
-27.40
-9.30
10.27
28.99
45.10
57.65
66.28
71.05
72.26
70.36
66.00
59.93
52.99
45.97
39.42
33.58
28.44
23.88
19.76
16.04
12.70
9.65
6.67
3.42
-0.38
-4.85
-9.86
-15.12
-20.30
-25.25
-30.03
-34.97
-40.54
-47.22
-55.23
-64.15
-72.72
-78.88
-80.24
-74.90
-62.28
-43.42
-20.77
2.66
24.28
42.54
56.92
67.58
74.78
78.69
79.43
77.36
73.28
68.33
63.64
59.97
57.53
56.07
55.23
54.86
55.07
56.17
58.34
61.47
65.06
68.43
71.09
72.87
74.05
75.21
76.90
79.37
82.50
85.83
88.78
90.87
92.04
92.83
94.45
98.64
107.28
121.85
142.86
169.55
199.86
230.91
259.63
283.44
300.62
310.31
312.25
306.40
292.78
271.49
242.96
208.18
168.89
127.47
86.71
49.29
17.29
-8.15
-26.89
-39.67
-47.77
-52.68
-55.97
-59.03
-62.94
-68.12
-74.13
-79.56
-82.33
-80.36
-72.29
-58.05
-38.98
-17.47
3.68
21.88
35.19
42.52
43.84
40.07
33.01
24.93
17.81
12.64
9.03
5.29
-0.76
-10.71
-24.71
-41.31
-58.10
-72.75
-83.97
-91.84
-97.47
-102.40
-108.09
-115.91
-127.15
-142.96
-163.73
-188.36
-213.91
-236.02
-250.28
-253.80
-246.31
-230.01
-208.50
-185.22
-162.40
-140.89
-120.76
-102.12
-85.55
-72.00
-62.25
-56.54
-54.64
-56.28
-61.63
-71.34
-86.06
-105.53
-128.00
-150.10
-167.72
-177.19
-176.55
-166.10
-148.11
-125.91
-102.73
-80.93
-61.81
-45.83
-33.07
-23.46
-16.85
-12.79
-10.52
-9.01
-7.29
-4.76
-1.41
2.18
5.05
6.11
4.43
-0.53
-8.76
-19.55
-31.53
-42.83
-51.56
-56.28
-56.37
-52.26
-45.16
-36.70
-28.53
-21.97
-17.86
-16.33
-16.60
-17.10
-15.85
-11.24
-2.82
8.35
20.10
30.05
36.76
40.28
42.00
43.76
46.91
51.72
57.47
63.05
67.50
70.50
72.27
73.36
74.36
75.67
77.34
79.13
80.61
81.36
81.21
80.24
78.70
76.65
73.69
68.70
60.04
45.95
25.09
-2.88
-37.01
-75.12
-114.07
-150.42
-181.18
-204.44
-219.75
-228.05
-231.15
-230.89
-228.41
-223.77
-216.10
-204.25
-187.59
-166.58
-142.84
-118.66
-96.28
-77.22
-61.99
-50.22
-41.05
-33.61
-27.17
-21.23
-15.27
-8.75
-1.12
7.85
17.85
27.96
36.86
43.35
46.77
47.44
46.39
45.05
44.60
45.46
47.17
48.57
48.35
45.42
39.30
30.14
18.95
7.53
-1.49
-4.95
0.01
14.90
38.98
69.21
101.08
130.22
153.83
171.40
184.37
194.87
204.44
213.36
220.77
225.43
226.51
223.89
218.00
209.31
198.09
184.59
169.52
154.45
141.59
133.01
129.63
130.30
131.92
130.48
122.61
106.96
84.58
58.31
31.50
6.88
-14.09
-31.06
-44.56
-55.83
-66.95
-80.76
-100.12
-126.52
-158.67
-192.11
-220.18
-236.27
-236.28
-219.96
-190.75
-154.19
-116.00
-80.65
-51.02
-28.60
-13.99
-7.04
-6.80
-11.46
-18.59
-25.67
-30.63
-32.29
-30.43
-25.69
-19.24
-12.56
-7.20
-4.46
-5.23
-9.75
-17.50
-27.19
-36.98
-44.96
-49.67
-50.53
-48.01
-43.36
-38.07
-33.17
-28.84
-24.45
-18.98
-11.45
-1.40
11.08
25.25
39.63
51.92
59.11
58.24
47.52
27.60
1.95
-23.87
-44.08
-54.68
-54.70
-46.07
-32.26
-16.55
-0.86
14.28
28.95
42.86
54.74
62.68
64.72
59.69
47.38
28.40
3.72
-25.79
-59.38
-96.00
-133.85
-170.04
-200.84
-222.69
-233.44
-233.40
-225.32
-213.27
-200.59
-188.15
-173.61
-152.42
-120.28
-75.78
-21.96
34.14
83.82
119.70
138.11
139.84
129.05
111.34
91.72
73.64
58.86
48.19
42.07
41.07
45.71
56.07
71.47
90.35
110.55
129.64
145.54
156.92
163.44
165.71
165.05
163.00
160.90
159.61
159.31
159.65
159.83
159.02
156.58
152.32
146.48
139.52
131.92
123.85
115.13
105.15
93.21
78.58
60.60
38.76
12.76
-17.26
-50.38
-84.56
-116.70
-143.19
-160.92
-168.32
-165.89
-155.80
-140.88
-123.39
-104.49
-84.55
-64.01
-44.07
-26.56
-12.94
-3.05
5.21
14.95
28.25
44.32
59.13
66.75
61.80
41.58
6.82
-39.01
-91.13
-144.68
-195.25
-238.87
-272.13
-292.70
-300.07
-296.04
-284.39
-269.92
-257.14
-249.21
-247.31
-250.43
-255.60
-258.44
-254.27
-239.24
-211.55
-172.01
-123.91
-72.06
-21.72
22.60
57.89
82.98
98.56
106.62
109.91
111.10
112.20
114.31
117.81
122.75
129.07
136.61
144.99
153.45
160.96
166.66
170.12
171.60
171.98
172.42
173.97
177.13
181.71
186.84
191.32
194.08
194.61
193.30
191.43
190.73
192.67
197.69
204.65
211.02
213.61
209.85
198.76
181.51
160.84
140.06
121.79
107.29
96.33
87.68
79.60
70.40
58.66
43.73
26.08
7.64
-8.55
-19.40
-23.23
-20.77
-15.00
-9.83
-8.22
-10.95
-16.86
-24.14
-32.08
-41.86
-56.10
-77.49
-107.04
-143.24
-182.27
-219.14
-249.22
-269.39
-278.51
-277.24
-267.30
-250.72
-229.24
-204.13
-176.45
-147.40
-118.62
-91.97
-69.07
-50.87
-37.44
-28.38
-23.29
-22.10
-24.96
-31.61
-40.68
-49.44
-54.36
-52.27
-41.78
-24.04
-2.62
17.66
32.44
39.29
38.45
32.58
25.70
21.80
23.58
31.71
44.86
60.18
74.31
84.46
89.19
88.85
85.28
81.10
78.74
79.53
83.22
88.06
91.40
90.74
84.82
74.33
61.73
50.35
42.95
40.56
41.99
44.45
44.79
40.87
32.37
20.68
8.10
-3.26
-12.35
-19.41
-25.65
-32.55
-41.09
-51.27
-62.05
-71.69
-78.45
-81.08
-79.34
-73.81
-65.72
-56.48
-47.32
-39.05
-32.04
-26.29
-21.60
-17.79
-14.92
-13.19
-12.87
-13.99
-16.16
-18.68
-20.64
-21.48
-20.99
-19.45
-17.25
-14.61
-11.44
-7.51
-2.76
2.48
7.54
11.72
14.67
16.53
17.60
17.89
16.79
13.31
6.80
-2.33
-12.24
-20.31
-24.27
-23.59
-20.10
-17.57
-20.15
-30.34
-47.60
-68.15
-86.31
-96.72
-96.54
-86.35
-69.67
-51.16
-34.67
-21.93
-12.61
-5.30
1.21
7.17
12.06
15.25
16.71
17.19
17.88
19.71
23.05
27.62
32.87
38.29
43.42
47.61
49.65
47.81
40.36
26.42
6.52
-17.31
-42.13
-65.14
-84.38
-99.00
-108.94
-114.47
-116.00
-114.11
-109.86
-104.77
-100.51
-98.18
-97.89
-98.62
-98.73
-96.61
-91.33
-82.75
-71.29
-57.58
-42.17
-25.47
-8.00
9.62
26.66
42.56
57.28
71.27
85.32
100.02
115.43
130.92
145.48
158.26
169.06
178.54
187.97
198.55
210.77
223.79
235.47
242.79
242.75
233.45
214.84
188.97
159.49
130.65
105.99
87.36
74.38
64.77
54.99
41.32
20.83
-7.76
-43.64
-83.89
-124.16
-159.72
-186.86
-203.96
-211.58
-211.95
-207.68
-200.50
-190.83
-178.05
-161.52
-141.37
-118.94
-96.28
-75.38
-57.44
-42.59
-30.28
-19.82
-10.86
-3.42
2.42
7.01
11.26
16.43
23.60
33.08
44.04
54.81
63.46
68.56
69.61
66.95
61.29
53.16
42.60
29.19
12.47
-7.77
-31.33
-57.58
-85.64
-114.43
-142.67
-168.93
-191.91
-210.97
-226.52
-239.68
-251.68
-262.64
-271.04
-274.03
-268.57
-252.91
-227.26
-193.70
-155.11
-114.31
-73.58
-34.97
-0.77
26.52
44.71
52.93
52.28
45.68
36.90
29.27
24.76
23.71
25.17
27.64
29.89
31.19
31.55
31.34
31.03
30.88
30.93
31.17
31.56
31.96
31.93
30.67
27.18
20.85
11.83
1.10
-9.99
-20.56
-30.79
-41.87
-55.05
-70.56
-86.81
-100.54
-107.95
-106.11
-94.01
-72.76
-44.96
-13.76
17.99
48.12
75.23
98.31
116.70
130.10
138.67
143.13
144.66
144.58
143.98
143.39
142.78
141.59
139.11
134.85
128.80
121.61
114.38
108.35
104.33
102.25
101.07
99.05
94.49
86.44
75.21
62.23
49.43
38.44
29.89
23.25
17.15
9.97
0.34
-12.47
-28.30
-45.93
-63.00
-76.33
-82.48
-78.95
-65.06
-42.35
-14.18
15.53
43.56
68.27
89.54
107.92
123.64
136.06
144.02
146.63
144.10
137.92
130.21
122.76
116.23
110.00
102.82
93.65
82.38
69.82
57.21
45.49
34.90
24.98
15.02
4.47
-6.67
-17.90
-28.33
-37.16
-43.92
-48.69
-52.11
-55.21
-59.17
-65.08
-73.72
-85.28
-99.16
-113.63
-125.98
-132.80
-130.97
-118.60
-95.86
-64.87
-29.09
7.84
42.99
74.39
100.87
121.63
136.09
144.12
146.41
144.60
140.93
137.55
135.77
135.76
136.76
137.60
137.43
136.02
133.85
131.77
130.63
130.90
132.46
134.58
136.10
135.83
132.83
126.65
117.43
105.74
92.32
77.91
62.98
47.74
32.14
15.89
-1.38
-19.98
-39.70
-59.36
-76.62
-88.18
-90.66
-81.77
-61.38
-31.89
2.29
35.93
64.27
83.98
93.51
92.82
82.98
65.72
43.29
18.28
-6.57
-28.77
-46.57
-59.27
-67.33
-71.98
-74.71
-76.66
-78.25
-79.22
-78.96
-76.91
-72.96
-67.50
-61.29
-55.17
-49.90
-45.97
-43.65
-42.94
-43.56
-45.02
-46.74
-48.22
-49.23
-49.94
-50.85
-52.66
-56.07
-61.45
-68.59
-76.46
-83.07
-85.76
-81.80
-69.20
-47.50
-18.01
16.47
52.53
87.11
118.19
144.91
167.30
185.71
200.53
212.03
220.64
227.02
232.14
236.91
241.96
247.40
252.83
257.72
261.70
264.90
267.79
270.81
273.79
275.65
274.51
268.29
255.54
236.07
211.09
182.75
153.41
124.89
98.13
73.26
49.96
27.67
5.73
-16.54
-39.69
-63.86
-88.40
-111.88
-132.38
-147.97
-157.29
-159.80
-155.81
-146.33
-132.88
-117.44
-102.29
-89.69
-81.41
-78.21
-79.59
-83.98
-89.37
-94.07
-97.36
-99.51
-101.41
-103.99
-107.76
-112.73
-118.62
-125.13
-132.03
-139.17
-146.26
-152.90
-158.69
-163.34
-166.76
-168.89
-169.51
-168.08
-163.87
-156.28
-145.20
-131.22
-115.48
-99.38
-84.36
-71.63
-62.09
-56.13
-53.44
-52.97
-53.05
-51.76
-47.58
-39.81
-28.84
-15.93
-2.83
8.77
17.45
22.25
22.56
18.15
9.19
-3.63
-19.13
-35.84
-52.33
-67.74
-82.18
-96.68
-112.93
-132.46
-155.95
-182.65
-210.33
-235.86
-256.14
-269.03
-273.94
-271.74
-264.19
-253.20
-240.17
-225.84
-210.58
-194.75
-179.06
-164.56
-152.39
-143.36
-137.47
-133.98
-131.56
-128.78
-124.65
-118.93
-111.99
-104.58
-97.55
-91.73
-87.80
-86.10
-86.21
-86.66
-84.88
-77.76
-62.69
-38.66
-6.90
29.42
66.27
100.08
128.60
151.02
167.47
178.31
183.93
184.78
181.77
176.36
170.36
165.44
162.71
162.42
164.17
167.21
170.80
174.34
177.42
179.78
181.35
182.28
182.94
183.76
184.92
186.28
187.28
187.19
185.34
181.35
174.99
165.95
153.64
137.20
115.78
88.97
57.07
20.99
-17.81
-57.41
-95.32
-128.30
-152.57
-164.68
-162.70
-147.21
-121.60
-91.07
-60.90
-34.82
-14.16
1.79
14.52
25.08
33.49
38.94
40.74
38.97
34.75
29.86
26.06
24.40
24.97
27.07
29.61
31.58
32.37
31.86
30.35
28.30
26.07
23.73
21.03
17.54
12.95
7.25
0.92
-5.24
-10.36
-13.86
-15.71
-16.50
-17.28
-19.26
-23.48
-30.43
-39.59
-49.36
-57.05
-59.59
-54.35
-40.10
-17.47
11.25
42.98
74.80
104.64
131.40
154.42
173.07
186.52
194.15
196.10
193.63
188.96
184.43
181.90
182.26
185.60
191.56
199.48
208.35
216.48
221.44
220.48
211.35
193.14
166.62
133.73
96.70
57.14
15.96
-26.03
-67.27
-104.96
-135.69
-156.61
-166.77
-167.60
-162.38
-154.84
-147.86
-142.87
-140.15
-139.75
-142.25
-148.84
-160.69
-178.01
-199.47
-222.32
-243.27
-259.45
-269.17
-272.16
-269.11
-261.10
-249.03
-233.46
-214.80
-193.65
-171.08
-148.57
-127.66
-109.27
-93.34
-78.76
-63.89
-47.29
-28.35
-7.57
13.85
34.51
53.40
70.08
84.60
97.06
107.41
115.49
121.14
124.48
125.96
126.19
125.73
124.84
123.56
121.82
119.51
116.46
112.17
105.68
95.67
81.01
61.36
37.49
11.06
-16.02
-42.36
-67.26
-90.33
-110.87
-127.47
-138.37
-142.36
-139.64
-132.00
-122.23
-112.84
-105.14
-98.84
-92.60
-84.93
-75.09
-63.42
-51.14
-39.85
-30.86
-24.78
-21.40
-19.89
-19.18
-18.44
-17.34
-16.05
-14.98
-14.34
-13.92
-13.16
-11.42
-8.50
-4.77
-1.15
1.31
1.82
-0.03
-4.44
-11.52
-21.27
-33.17
-45.59
-55.63
-59.63
-54.32
-38.20
-12.28
20.13
54.64
87.29
115.71
139.35
158.90
175.35
189.34
201.01
210.36
217.55
223.05
227.50
231.42
235.12
238.86
243.22
249.16
257.63
268.81
281.31
292.09
297.11
292.68
276.70
249.31
212.60
169.90
124.99
81.57
43.02
12.21
-8.90
-19.70
-21.24
-16.02
-7.31
1.74
8.89
13.24
15.12
15.64
15.95
16.49
16.58
14.50
8.10
-4.46
-23.93
-49.95
-81.39
-116.57
-153.41
-189.12
-220.18
-242.94
-254.71
-254.98
-245.83
-231.25
-215.67
-202.45
-193.19
-187.92
-186.06
-187.22
-191.40
-198.62
-208.32
-219.12
-229.08
-236.54
-240.74
-242.11
-242.17
-242.76
-245.30
-250.24
-257.02
-264.35
-270.87
-275.65
-278.49
-279.97
-281.22
-283.49
-287.52
-293.00
-298.25
-300.51
-296.78
-284.95
-264.68
-237.55
-206.32
-173.83
-141.93
-111.18
-81.19
-51.37
-21.44
8.51
38.35
68.12
97.91
127.46
155.73
181.00
201.37
215.51
223.24
225.59
224.29
221.11
217.26
213.24
208.94
204.01
198.09
191.00
182.71
173.44
163.59
153.75
144.49
136.16
128.77
121.90
114.99
107.65
99.76
91.52
83.30
75.58
69.22
65.67
67.13
76.31
95.56
125.97
166.84
215.67
268.93
322.90
374.21
419.84
456.81
482.02
492.80
487.80
467.84
436.03
396.81
354.48
311.72
269.24
226.43
182.83
139.56
99.66
67.37
46.52
38.80
42.90
54.66
68.41
78.67
81.64
75.98
62.58
43.74
22.05
-0.35
-22.02
-42.12
-60.02
-75.17
-86.94
-94.86
-98.76
-98.92
-96.31
-92.62
-90.14
-91.47
-99.00
-114.24
-137.15
-165.80
-196.54
-224.73
-245.99
-257.39
-258.23
-250.00
-235.71
-218.69
-201.55
-185.64
-171.18
-157.77
-144.97
-132.52
-120.31
-108.14
-95.60
-82.15
-67.32
-51.03
-33.63
-15.95
0.91
15.96
28.69
39.26
48.42
57.11
65.83
74.22
81.09
84.90
84.38
79.01
69.15
55.89
40.87
26.02
13.41
4.91
1.72
3.83
9.86
17.52
24.36
28.56
29.08
25.30
16.41
1.17
-21.60
-51.98
-88.04
-125.77
-159.96
-185.70
-199.94
-202.16
-194.18
-179.08
-159.95
-139.04
-117.52
-95.84
-74.13
-52.76
-32.35
-13.65
2.86
17.13
29.51
40.37
49.64
56.56
59.85
58.21
51.11
39.28
24.60
9.53
-3.78
-14.22
-21.84
-27.50
-32.16
-36.33
-39.89
-42.34
-43.20
-42.32
-40.05
-37.10
-34.32
-32.51
-32.22
-33.52
-36.03
-38.92
-41.23
-42.33
-42.12
-41.08
-40.08
-39.86
-40.74
-42.52
-44.58
-46.38
-47.72
-48.93
-50.83
-54.35
-60.25
-68.84
-79.90
-92.85
-106.87
-121.25
-135.53
-149.73
-164.22
-179.62
-196.44
-214.65
-233.43
-251.08
-265.43
-274.37
-276.53
-271.75
-261.24
-247.35
-233.04
-221.14
-213.52
-210.51
-210.68
-211.22
-208.90
-201.12
-186.78
-166.38
-141.60
-114.42
-86.31
-57.90
-29.13
0.34
30.53
60.85
90.04
116.44
138.44
155.05
166.22
172.82
176.22
177.65
177.80
176.71
174.11
169.92
164.59
158.88
153.49
148.58
143.64
137.70
129.95
120.18
108.95
97.29
86.13
75.80
65.87
55.41
43.41
29.27
12.86
-5.65
-26.00
-47.74
-69.79
-90.13
-105.63
-112.83
-109.15
-93.95
-68.93
-37.36
-2.96
31.15
62.87
90.83
114.04
131.72
143.54
150.00
152.53
152.98
152.91
153.07
153.28
152.89
151.26
148.20
143.96
138.97
133.67
128.35
123.18
118.25
113.49
108.69
103.63
98.02
91.65
84.39
76.21
67.25
57.78
48.22
39.04
30.55
22.81
15.42
7.69
-1.17
-11.69
-23.79
-36.54
-48.15
-56.37
-59.05
-54.90
-43.88
-27.35
-7.51
13.26
33.08
50.84
66.12
78.87
89.08
96.80
102.09
105.26
106.80
107.22
106.92
105.95
104.14
101.27
97.21
92.09
86.18
79.87
73.46
67.15
61.00
54.93
48.79
42.31
35.19
27.17
18.22
8.54
-1.33
-10.78
-19.29
-26.69
-33.18
-39.27
-45.52
-52.38
-60.03
-68.24
-76.30
-82.96
-86.60
-85.52
-78.44
-65.04
-46.12
-23.52
0.45
23.59
44.34
61.90
76.11
87.16
95.32
100.85
104.01
105.00
104.03
101.25
96.72
90.49
82.68
73.59
63.72
53.67
44.05
35.26
27.54
20.84
14.94
9.43
3.79
-2.54
-9.99
-18.69
-28.40
-38.48
-48.13
-56.69
-63.88
-69.91
-75.38
-81.11
-87.91
-96.39
-106.79
-118.73
-130.98
-141.50
-147.62
-146.82
-137.47
-119.57
-94.82
-66.17
-36.96
-9.98
13.06
31.54
45.55
55.47
61.65
64.44
64.33
62.11
58.77
55.35
52.61
50.89
50.08
49.86
49.86
49.85
49.79
49.79
49.92
50.21
50.56
50.73
50.33
48.89
45.98
41.31
34.92
27.17
18.66
9.99
1.54
-6.62
-14.72
-23.10
-32.01
-41.49
-51.24
-60.54
-68.30
-73.13
-73.56
-68.50
-57.53
-41.17
-20.78
1.82
24.83
46.83
66.93
84.72
100.11
113.20
124.25
133.64
141.81
149.09
155.56
160.99
164.86
166.61
165.85
162.56
157.16
150.41
143.29
136.87
132.16
130.07
131.28
136.11
144.34
155.01
166.50
176.82
184.08
187.12
185.88
181.37
175.09
168.25
161.17
153.11
142.67
128.52
109.93
87.15
61.28
34.05
7.60
-15.97
-34.91
-48.35
-56.65
-61.46
-65.17
-69.98
-77.08
-86.36
-96.84
-107.68
-118.86
-131.27
-146.13
-164.06
-184.81
-207.57
-231.94
-258.54
-288.75
-323.49
-361.78
-400.18
-433.37
-456.08
-465.01
-459.91
-443.30
-419.11
-391.28
-362.76
-335.43
-310.38
-288.30
-269.47
-253.67
-240.09
-227.69
-215.80
-204.54
-194.88
-187.98
-184.37
-183.03
-181.29
-175.43
-161.94
-138.93
-106.87
-68.37
-27.13
13.33
50.47
82.78
109.31
129.20
141.71
146.80
145.65
140.77
135.33
132.07
132.35
135.80
140.84
145.55
148.63
149.78
149.56
148.93
148.68
149.11
149.96
150.51
149.96
147.83
144.12
139.39
134.59
130.71
128.36
127.59
127.84
128.26
128.03
126.61
123.88
120.10
116.05
113.03
112.89
117.67
128.95
147.14
171.10
198.32
225.89
251.52
274.18
293.91
310.81
324.06
331.61
330.80
319.74
298.38
268.87
234.70
199.32
164.89
131.87
99.47
66.62
32.90
-1.19
-34.49
-65.83
-94.62
-120.89
-145.01
-167.18
-187.05
-203.73
-216.21
-224.01
-227.66
-228.81
-229.76
-232.75
-239.19
-249.11
-261.32
-273.82
-284.49
-291.71
-294.55
-292.69
-286.14
-275.08
-259.70
-240.24
-216.91
-189.60
-157.62
-119.73
-74.52
-21.31
39.12
104.26
170.24
232.73
287.67
331.73
362.37
377.90
377.71
362.78
335.84
301.12
263.26
226.05
191.55
159.85
129.72
99.44
67.68
33.95
-1.28
-36.68
-70.29
-99.91
-123.70
-140.85
-151.90
-158.64
-163.28
-167.40
-171.17
-173.25
-171.58
-164.41
-151.31
-133.27
-112.18
-90.00
-68.03
-46.89
-26.75
-7.81
9.44
24.43
36.76
46.25
52.70
55.44
53.10
43.89
26.44
0.87
-30.67
-63.98
-93.95
-116.04
-127.66
-128.85
-121.97
-110.61
-98.29
-87.48
-79.21
-73.32
-69.09
-65.79
-63.16
-61.57
-61.80
-64.75
-70.87
-79.86
-90.35
-100.25
-107.27
-109.62
-106.65
-99.10
-88.89
-78.59
-70.53
-66.07
-65.01
-65.76
-65.83
-62.86
-55.45
-43.70
-28.97
-13.19
1.73
14.38
23.76
29.13
29.92
25.94
17.78
6.87
-4.72
-15.05
-23.02
-28.78
-33.51
-38.97
-46.74
-57.76
-72.25
-89.76
-109.35
-129.73
-149.41
-166.93
-181.00
-190.88
-196.55
-198.66
-198.29
-196.55
-194.23
-191.59
-188.40
-184.19
-178.59
-171.60
-163.73
-156.00
-149.58
-145.41
-143.61
-143.28
-142.46
-138.71
-129.86
-114.58
-92.71
-65.09
-33.17
1.18
35.88
68.59
96.93
118.90
133.49
141.04
143.21
142.30
140.44
138.84
137.58
136.03
133.31
128.93
122.90
115.65
107.75
99.73
91.89
84.42
77.45
71.06
65.22
59.69
54.06
47.87
40.87
33.13
25.00
16.88
8.84
0.41
-9.31
-21.34
-36.16
-53.12
-70.16
-84.08
-91.35
-89.24
-76.75
-54.89
-26.28
5.73
37.94
67.86
93.77
114.56
129.60
138.81
142.68
142.32
139.14
134.45
129.09
123.45
117.65
111.80
106.12
100.88
96.20
91.94
87.82
83.57
79.07
74.35
69.49
64.46
59.00
52.77
45.52
37.29
28.48
19.72
11.49
3.91
-3.38
-11.12
-20.01
-30.56
-42.87
-56.68
-71.41
-86.05
-99.09
-108.44
-111.77
-107.11
-93.60
-71.97
-44.37
-13.83
16.75
45.17
70.18
91.18
107.88
119.99
127.44
130.58
130.32
128.09
125.29
122.92
121.24
119.91
118.26
115.77
112.30
108.02
103.39
98.71
94.08
89.41
84.44
78.97
72.86
66.08
58.68
50.81
42.64
34.46
26.48
18.81
11.39
3.90
-4.09
-12.96
-22.87
-33.57
-44.40
-54.30
-61.94
-66.02
-65.48
-59.86
-49.34
-34.77
-17.40
1.43
20.57
39.25
57.02
73.66
88.94
102.66
114.66
125.01
134.12
142.62
151.23
160.47
170.41
180.74
190.89
200.44
209.36
218.15
227.56
238.27
250.34
263.16
275.51
285.99
293.32
296.57
295.09
288.46
276.40
258.92
236.52
210.23
181.53
152.05
123.16
95.77
70.27
46.64
24.55
3.43
-17.57
-39.63
-64.19
-92.50
-124.89
-160.04
-194.78
-224.61
-245.14
-253.67
-250.34
-238.21
-222.11
-206.99
-196.36
-191.56
-191.94
-195.67
-200.54
-204.46
-205.74
-203.18
-196.15
-184.78
-169.90
-152.80
-134.70
-116.53
-98.64
-81.07
-63.89
-47.57
-33.11
-21.84
-15.07
-13.67
-17.78
-26.78
-39.50
-54.45
-70.12
-85.11
-98.23
-108.57
-115.51
-118.75
-118.19
-113.98
-106.55
-96.81
-86.40
-77.63
-73.16
-75.34
-85.39
-102.77
-125.15
-149.09
-171.02
-188.31
-199.88
-206.11
-208.25
-207.62
-204.95
-200.11
-192.36
-180.83
-165.11
-145.55
-123.30
-99.97
-77.27
-56.56
-38.76
-24.45
-13.90
-7.29
-4.52
-5.19
-8.55
-13.50
-18.95
-24.01
-28.21
-31.45
-33.97
-36.18
-38.67
-42.24
-47.81
-56.22
-67.67
-81.35
-95.25
-106.56
-112.33
-110.42
-100.03
-81.80
-57.43
-29.10
1.08
31.17
59.51
84.49
104.62
118.78
126.65
128.96
127.57
124.88
123.11
123.47
125.85
128.98
131.17
131.19
128.76
124.60
119.98
116.02
113.25
111.42
109.68
106.93
102.15
94.75
84.69
72.56
59.36
46.26
34.23
23.72
14.75
6.86
-0.61
-8.57
-18.02
-29.85
-44.34
-60.62
-76.35
-88.10
-92.38
-86.93
-71.65
-48.68
-21.47
6.52
32.87
56.48
77.05
94.36
107.76
116.38
119.73
118.25
113.44
107.41
102.09
98.57
96.79
95.87
94.66
92.37
88.89
84.69
80.47
76.68
73.29
69.73
65.20
58.93
50.56
40.30
28.78
16.93
5.55
-4.82
-14.15
-22.86
-31.66
-41.38
-52.81
-66.55
-82.74
-100.72
-118.79
-134.12
-143.39
-143.68
-133.55
-113.72
-86.86
-56.69
-26.82
0.28
23.46
42.57
57.71
68.76
75.37
77.34
75.05
69.77
63.35
57.70
54.18
53.18
54.13
55.85
57.12
57.16
55.80
53.33
50.21
46.60
42.29
36.79
29.60
20.56
9.98
-1.42
-12.80
-23.52
-33.46
-42.97
-52.80
-63.83
-76.81
-92.16
-109.79
-128.75
-147.09
-162.04
-170.48
-169.88
-159.08
-138.81
-111.36
-79.94
-47.71
-17.10
10.36
33.81
52.73
66.81
76.06
81.01
82.82
83.05
83.19
84.19
86.25
88.82
91.00
91.97
91.38
89.43
86.73
83.85
80.94
77.65
73.17
66.71
57.93
47.16
35.32
23.52
12.61
2.85
-6.20
-15.41
-25.85
-38.43
-53.66
-71.28
-90.00
-107.28
-119.70
-123.79
-117.16
-99.50
-72.82
-40.79
-7.51
23.75
51.21
74.40
93.39
108.14
118.18
122.97
122.47
117.45
109.51
100.49
91.91
84.50
78.21
72.50
66.86
61.09
55.43
50.25
45.75
41.68
37.26
31.51
23.62
13.41
1.50
-10.95
-22.62
-32.63
-40.81
-47.85
-54.93
-63.40
-74.33
-88.27
-104.87
-122.72
-139.26
-151.14
-154.88
-147.98
-129.84
-102.04
-67.94
-31.54
3.70
35.63
63.33
86.60
105.26
118.90
127.06
129.73
127.72
122.60
116.24
110.17
105.16
101.11
97.36
93.24
88.45
83.17
77.82
72.74
67.78
62.29
55.36
46.27
34.88
21.82
8.17
-4.94
-16.77
-27.29
-37.04
-47.01
-58.28
-71.78
-87.87
-105.94
-124.17
-139.48
-148.22
-147.24
-135.07
-112.55
-82.63
-49.38
-16.63
13.00
38.33
59.17
75.62
87.59
94.92
97.72
96.80
93.54
89.53
85.93
83.07
80.55
77.56
73.47
68.19
62.14
56.03
50.39
45.32
40.42
35.02
28.59
20.90
12.24
3.18
-5.66
-13.88
-21.46
-28.77
-36.37
-44.85
-54.67
-66.02
-78.69
-91.94
-104.30
-113.69
-117.78
-114.67
-103.61
-85.35
-62.05
-36.65
-11.95
10.02
28.34
42.88
53.92
61.74
66.51
68.39
67.69
64.95
60.78
55.70
50.10
44.19
38.13
32.09
26.26
20.68
15.20
9.45
2.98
-4.49
-12.90
-21.90
-30.90
-39.47
-47.46
-55.20
-63.32
-72.69
-84.11
-98.03
-114.04
-130.69
-145.31
-154.58
-155.37
-145.86
-126.28
-98.93
-67.51
-35.86
-6.99
17.47
37.01
51.81
62.15
68.28
70.55
69.58
66.33
61.87
57.09
52.54
48.43
44.78
41.65
39.17
37.43
36.31
35.39
33.97
31.30
26.88
20.55
12.59
3.55
-6.07
-15.94
-26.11
-36.95
-49.11
-63.25
-79.71
-98.00
-116.34
-131.77
-140.67
-139.97
-128.22
-106.30
-77.12
-44.68
-12.72
16.15
40.69
60.60
75.86
86.36
91.96
92.90
90.07
84.99
79.42
74.77
71.70
69.98
68.81
67.29
64.88
61.58
57.80
54.01
50.32
46.35
41.30
34.38
25.22
14.14
2.03
-10.02
-21.20
-31.29
-40.77
-50.56
-61.62
-74.66
-89.71
-105.98
-121.74
-134.52
-141.50
-140.26
-129.55
-109.77
-83.01
-52.45
-21.43
7.34
32.31
52.88
69.08
81.11
89.17
93.54
94.74
93.60
91.10
88.14
85.21
82.38
79.35
75.72
71.25
66.01
60.34
54.75
49.64
45.15
40.94
36.36
30.63
23.15
13.82
3.11
-8.09
-18.81
-28.39
-36.77
-44.44
-52.28
-61.26
-72.15
-85.31
-100.43
-116.29
-130.62
-140.38
-142.39
-134.45
-116.22
-89.55
-57.98
-25.56
4.47
30.30
51.59
68.64
81.76
90.91
95.86
96.77
94.47
90.34
85.96
82.48
80.35
79.25
78.45
77.16
74.91
71.63
67.65
63.47
59.44
55.60
51.56
46.67
40.20
31.67
21.10
8.94
-4.07
-17.17
-29.81
-41.81
-53.21
-64.30
-75.44
-87.05
-99.49
-112.84
-126.55
-139.08
-148.00
-150.42
-144.04
-128.03
-103.63
-73.79
-42.26
-12.39
13.65
35.08
52.02
64.86
73.79
78.84
80.11
78.18
74.12
69.24
64.67
60.95
57.96
55.10
51.68
47.25
41.88
36.05
30.44
25.62
21.78
18.64
15.55
11.71
6.46
-0.46
-8.85
-18.07
-27.37
-36.16
-44.28
-52.07
-60.18
-69.32
-80.04
-92.59
-106.83
-122.05
-136.77
-148.67
-154.94
-152.98
-141.37
-120.53
-92.75
-61.57
-30.55
-2.36
21.69
41.44
57.22
69.28
77.66
82.37
83.72
82.52
79.95
77.18
75.03
73.72
72.97
72.14
70.66
68.17
64.71
60.60
56.25
51.95
47.76
43.45
38.63
32.95
26.20
18.41
9.79
0.66
-8.63
-17.83
-26.69
-35.06
-42.88
-50.28
-57.68
-65.76
-75.29
-86.81
-100.02
-113.47
-124.52
-129.91
-126.88
-114.17
-92.67
-65.25
-35.73
-7.72
16.43
35.81
50.69
61.71
69.43
74.09
75.91
75.35
73.19
70.45
67.99
66.22
65.00
63.83
62.07
59.26
55.27
50.32
44.84
39.31
34.09
29.29
24.72
20.02
14.72
8.47
1.14
-7.15
-16.01
-25.00
-33.74
-42.06
-50.07
-57.99
-66.19
-75.03
-84.89
-96.08
-108.60
-121.72
-133.74
-142.05
-143.68
-136.42
-119.70
-95.03
-65.67
-35.46
-7.65
15.91
34.78
49.37
60.20
67.50
71.29
71.72
69.49
65.82
62.14
59.57
58.53
58.70
59.25
59.31
58.38
56.47
54.00
51.48
49.17
46.87
43.96
39.65
33.35
24.93
14.86
4.11
-6.30
-15.58
-23.50
-30.49
-37.35
-44.97
-54.00
-64.76
-77.11
-90.51
-103.83
-115.29
-122.58
-123.27
-115.61
-99.08
-74.81
-45.13
-12.93
19.18
49.31
76.18
98.79
116.14
127.34
132.14
131.35
126.97
121.61
117.58
115.79
115.36
113.75
107.64
94.16
71.80
40.93
3.73
-36.53
-76.24
-112.37
-143.07
-167.91
-187.60
-203.42
-216.44
-227.10
-235.24
-240.48
-242.78
-242.81
-241.78
-241.11
-241.79
-244.05
-247.12
-249.37
-248.66
-242.66
-229.39
-207.59
-176.98
-138.31
-93.27
-44.26
5.76
53.55
95.95
130.36
155.22
170.37
176.96
177.02
172.87
166.64
159.98
154.14
150.05
148.35
149.26
152.44
156.93
161.30
163.93
163.39
158.67
149.32
135.35
117.09
95.08
70.06
42.94
14.82
-13.24
-40.49
-66.63
-91.84
-116.45
-140.59
-163.99
-185.95
-205.51
-221.69
-233.60
-240.72
-243.05
-241.23
-236.37
-229.65
-221.62
-211.82
-198.74
-180.51
-155.85
-124.92
-89.58
-52.87
-18.10
12.02
35.88
53.04
64.04
70.20
73.48
76.25
80.75
88.43
99.37
112.17
124.39
133.49
137.72
136.57
130.76
121.75
111.13
100.08
89.23
78.64
68.04
57.01
45.23
32.58
18.99
4.32
-11.80
-29.79
-49.56
-69.85
-87.87
-99.59
-100.72
-87.92
-59.68
-16.60
38.86
103.03
171.73
240.84
306.83
366.98
419.44
463.23
498.14
524.50
542.92
554.00
558.15
555.56
546.43
531.23
510.97
487.17
461.60
435.76
410.45
385.65
360.75
335.16
308.68
281.67
254.73
228.44
203.11
178.78
155.42
133.02
111.73
91.70
73.01
55.50
38.74
22.12
4.99
-13.19
-32.81
-54.10
-77.12
-101.51
-126.27
-149.67
-169.61
-184.26
-192.72
-195.35
-193.59
-189.39
-184.60
-180.58
-177.98
-176.91
-177.03
-177.61
-177.66
-176.06
-171.94
-164.96
-155.49
-144.54
-133.44
-123.57
-116.02
-111.49
-110.11
-111.46
-114.76
-119.02
-123.36
-127.14
-129.95
-131.50
-131.56
-129.94
-126.55
-121.49
-115.02
-107.47
-99.16
-90.37
-81.39
-72.61
-64.50
-57.51
-51.90
-47.64
-44.50
-42.26
-40.96
-40.90
-42.47
-45.83
-50.65
-56.16
-61.49
-66.07
-69.83
-73.05
-76.04
-78.77
-80.78
-81.46
-80.45
-77.81
-74.02
-69.67
-65.24
-60.92
-56.74
-52.67
-48.80
-45.26
-42.13
-39.33
-36.65
-33.84
-30.80
-27.62
-24.51
-21.68
-19.26
-17.17
-15.29
-13.46
-11.58
-9.64
-7.75
-6.09
-4.83
-4.18
-4.28
-5.26
-7.17
-9.92
-13.30
-16.95
-20.45
-23.39
-25.55
-26.92
-27.80
-28.63
-29.83
-31.62
-33.94
-36.46
-38.78
-40.54
-41.53
-41.71
-41.06
-39.58
-37.33
-34.42
-31.18
-28.08
-25.63
-24.18
-23.74
-24.05
-24.64
-25.08
-25.15
-24.86
-24.38
-23.84
-23.25
-22.51
-21.50
-20.14
-18.46
-16.48
-14.24
-11.72
-8.93
-5.97
-3.06
-0.46
1.60
2.98
3.72
3.97
3.90
3.69
3.48
3.37
3.43
3.70
4.14
4.61
4.88
4.71
3.94
2.63
1.02
-0.56
-1.82
-2.67
-3.26
-3.83
-4.61
-5.63
-6.79
-7.94
-8.97
-9.92
-10.88
-11.94
-13.09
-14.22
-15.21
-15.92
-16.36
-16.55
-16.55
-16.33
-15.88
-15.15
-14.18
-13.05
-11.89
-10.79
-9.86
-9.07
-8.40
-7.79
-7.16
-6.48
-5.67
-4.72
-3.59
-2.34
-1.05
0.15
1.16
1.98
2.66
3.27
3.82
4.18
4.23
3.89
3.36
3.10
3.62
5.20
7.71
10.51
12.78
13.84
13.50
12.13
10.49
9.43
9.59
11.16
13.86
17.04
19.92
21.89
22.83
23.20
23.89
25.86
29.60
34.86
40.70
45.94
49.71
51.87
53.10
54.61
57.86
64.44
75.89
93.40
117.06
145.18
174.06
198.63
213.81
216.23
205.12
182.28
150.94
114.50
75.58
35.89
-3.38
-41.27
-77.14
-111.12
-144.49
-179.82
-220.43
-269.27
-327.46
-392.91
-459.91
-519.87
-563.73
-584.68
-580.62
-554.64
-513.58
-465.16
-415.24
-366.31
-317.87
-268.22
-216.62
-164.55
-115.56
-73.96
-43.16
-24.43
-16.87
-18.10
-25.52
-37.26
-52.21
-69.43
-87.27
-102.95
-113.02
-114.48
-106.00
-88.38
-64.11
-36.29
-7.50
20.70
47.57
72.71
95.50
115.02
130.31
140.82
146.81
149.33
149.84
149.72
149.79
150.23
150.78
151.06
150.83
150.04
148.56
146.10
142.11
136.10
127.83
117.70
106.57
95.45
84.96
75.05
65.12
54.33
42.21
28.91
15.17
1.92
-10.09
-20.66
-30.22
-39.63
-49.92
-61.98
-76.31
-92.78
-110.38
-127.07
-140.00
-146.08
-142.80
-129.10
-105.74
-75.00
-39.99
-3.70
31.53
64.09
92.79
116.66
134.86
146.99
153.42
155.31
154.37
152.36
150.57
149.62
149.39
149.27
148.50
146.52
143.18
138.81
134.02
129.43
125.29
121.36
117.05
111.76
105.29
97.93
90.34
83.13
76.42
69.75
62.34
53.46
42.93
31.22
19.28
8.28
-1.07
-8.82
-15.70
-22.84
-31.40
-42.20
-55.56
-71.07
-87.40
-102.40
-113.46
-118.00
-114.18
-101.49
-80.96
-54.94
-26.36
2.43
29.73
54.55
76.27
94.46
108.69
118.71
124.63
127.06
127.99
129.22
131.73
135.42
139.55
143.29
146.18
148.16
149.56
152.80
159.54
169.97
182.71
195.65
206.96
215.55
221.11
224.09
228.40
236.88
250.11
265.79
280.16
289.62
291.56
284.52
268.18
246.85
223.94
201.03
177.70
153.56
129.81
108.95
93.37
60.31
-1.37
-89.00
-186.91
-278.27
-353.21
-409.06
-447.25
-470.85
-483.39
-483.64
-472.40
-451.37
-424.29
-395.25
-367.08
-340.86
-316.19
-291.62
-261.93
-226.24
-185.05
-141.16
-98.14
-58.57
-23.69
6.49
32.60
57.48
83.28
111.42
141.55
172.04
200.37
223.39
237.76
240.92
233.02
215.99
193.25
168.04
142.62
118.12
94.88
73.15
53.66
37.92
27.11
21.52
19.95
20.12
19.69
17.14
12.11
5.35
-1.88
-8.51
-13.90
-18.06
-21.45
-24.54
-27.56
-30.37
-32.60
-33.89
-34.18
-33.71
-32.99
-32.54
-32.56
-32.88
-33.03
-32.51
-31.08
-28.88
-26.36
-24.00
-22.15
-20.88
-20.01
-19.25
-18.39
-17.32
-16.07
-14.69
-13.29
-11.91
-10.59
-9.34
-8.14
-6.94
-5.74
-4.55
-3.44
-2.45
-1.58
-0.76
0.14
1.23
2.52
3.91
5.20
6.15
6.58
6.43
5.74
4.66
3.39
2.14
1.12
0.45
0.20
0.34
0.72
1.19
1.56
1.73
1.69
1.56
1.48
1.54
1.77
2.09
2.33
2.37
2.20
1.91
1.64
1.53
1.60
1.76
1.85
1.76
1.48
1.13
0.85
0.74
0.81
0.97
1.13
1.26
1.48
1.91
2.63
3.56
4.50
5.14
5.27
4.88
4.06
3.03
1.95
0.87
-0.23
-1.39
-2.58
-3.66
-4.46
-4.82
-4.73
-4.30
-3.75
-3.28
-3.03
-3.02
-3.17
-3.35
-3.46
-3.41
-3.22
-2.92
-2.60
-2.36
-2.27
-2.40
-2.75
-3.28
-3.93
-4.61
-5.21
-5.63
-5.78
-5.59
-5.08
-4.29
-3.37
-2.43
-1.54
-0.71
0.13
1.04
2.04
3.03
3.85
4.35
4.47
4.25
3.80
3.26
2.69
2.09
1.38
0.53
-0.45
-1.45
-2.35
-3.07
-3.58
-3.91
-4.13
-4.31
-4.46
-4.60
-4.72
-4.78
-4.82
-4.84
-4.90
-5.06
-5.36
-5.80
-6.31
-6.82
-7.22
-7.48
-7.58
-7.57
-7.49
-7.35
-7.15
-6.83
-6.33
-5.58
-4.60
-3.44
-2.19
-0.98
0.08
0.84
1.23
1.24
0.94
0.45
-0.08
-0.52
-0.84
-1.08
-1.34
-1.69
-2.14
-2.65
-3.20
-3.71
-4.20
-4.68
-5.15
-5.60
-5.99
-6.31
-6.56
-6.76
-6.92
-7.03
-7.03
-6.88
-6.60
-6.27
-6.06
-6.09
-6.40
-6.90
-7.34
-7.43
-6.92
-5.74
-4.02
-2.02
-0.06
1.59
2.80
3.58
4.09
4.50
4.99
5.65
6.46
7.26
7.89
8.21
8.11
7.63
6.85
5.94
5.02
4.18
3.42
2.65
1.78
0.81
-0.22
-1.22
-2.07
-2.74
-3.26
-3.68
-4.11
-4.61
-5.20
-5.84
-6.47
-7.04
-7.50
-7.88
-8.17
-8.37
-8.46
-8.39
-8.14
-7.73
-7.22
-6.73
-6.33
-6.08
-5.98
-6.03
-6.19
-6.41
-6.58
-6.59
-6.36
-5.84
-5.11
-4.26
-3.44
-2.70
-2.08
-1.57
-1.14
-0.78
-0.47
-0.15
0.22
0.65
1.09
1.42
1.50
1.28
0.82
0.32
-0.02
-0.05
0.22
0.64
1.03
1.23
1.21
1.00
0.69
0.33
-0.07
-0.53
-1.05
-1.59
-2.12
-2.58
-2.99
-3.34
-3.68
-4.01
-4.32
-4.66
-5.05
-5.49
-6.01
-6.55
-7.06
-7.46
-7.78
-8.07
-8.41
-8.87
-9.40
-9.88
-10.08
-9.81
-8.93
-7.49
-5.68
-3.79
-2.07
-0.67
0.41
1.29
2.14
2.99
3.80
4.43
4.74
4.72
4.42
3.98
3.47
2.93
2.34
1.72
1.11
0.58
0.21
0.02
-0.05
-0.04
0.01
0.06
0.10
0.04
-0.22
-0.77
-1.58
-2.52
-3.39
-4.04
-4.46
-4.72
-4.97
-5.34
-5.85
-6.50
-7.25
-8.14
-9.16
-10.23
-11.14
-11.60
-11.37
-10.36
-8.75
-6.89
-5.17
-3.85
-2.97
-2.42
-2.00
-1.51
-0.89
-0.17
0.60
1.32
1.94
2.43
2.77
2.93
2.96
2.91
2.83
2.79
2.84
2.99
3.19
3.38
3.52
3.56
3.47
3.23
2.84
2.30
1.65
0.95
0.33
-0.13
-0.35
-0.37
-0.29
-0.26
-0.39
-0.74
-1.29
-1.94
-2.61
-3.26
-3.90
-4.54
-5.20
-5.85
-6.42
-6.86
-7.14
-7.25
-7.24
-7.14
-7.00
-6.81
-6.56
-6.18
-5.66
-4.99
-4.17
-3.29
-2.36
-1.42
-0.50
0.37
1.12
1.63
1.83
1.71
1.40
1.08
0.96
1.13
1.49
1.87
2.07
1.99
1.71
1.38
1.15
1.07
1.10
1.15
1.17
1.20
1.30
1.51
1.81
2.08
2.21
2.10
1.73
1.18
0.56
-0.02
-0.47
-0.78
-0.95
-1.03
-1.08
-1.15
-1.29
-1.52
-1.89
-2.41
-3.07
-3.82
-4.49
-4.90
-4.87
-4.27
-3.15
-1.65
-0.01
1.54
2.83
3.78
4.38
4.70
4.82
4.84
4.84
4.86
4.92
4.98
5.02
5.01
4.94
4.80
4.61
4.33
3.97
3.58
3.22
2.98
2.88
2.87
2.83
2.71
2.45
2.12
1.79
1.48
1.18
0.83
0.37
-0.19
-0.81
-1.44
-2.04
-2.62
-3.16
-3.66
-4.08
-4.40
-4.61
-4.75
-4.91
-5.15
-5.50
-5.92
-6.32
-6.58
-6.55
-6.10
-5.21
-3.90
-2.33
-0.69
0.83
2.10
3.11
3.86
4.40
4.74
4.86
4.75
4.43
4.00
3.58
3.29
3.17
3.13
3.04
2.76
2.27
1.65
1.07
0.69
0.55
0.59
0.65
0.59
0.35
-0.04
-0.48
-0.87
-1.16
-1.34
-1.45
-1.54
-1.64
-1.79
-2.02
-2.32
-2.71
-3.15
-3.58
-3.93
-4.17
-4.26
-4.27
-4.29
-4.43
-4.71
-5.10
-5.45
-5.62
-5.46
-4.92
-4.05
-2.91
-1.60
-0.27
0.98
2.06
2.93
3.58
4.08
4.50
4.89
5.23
5.48
5.62
5.67
5.69
5.77
5.91
6.11
6.28
6.38
6.41
6.41
6.42
6.46
6.49
6.43
6.22
5.82
5.22
4.44
3.52
2.48
1.39
0.34
-0.57
-1.26
-1.71
-1.97
-2.14
-2.35
-2.68
-3.17
-3.82
-4.60
-5.44
-6.27
-6.97
-7.41
-7.45
-7.08
-6.35
-5.40
-4.37
-3.39
-2.48
-1.61
-0.74
0.14
1.04
1.92
2.81
3.72
4.67
5.61
6.40
6.90
6.99
6.70
6.16
5.59
5.19
5.07
5.16
5.34
5.43
5.31
4.93
4.30
3.50
2.60
1.69
0.81
-0.00
-0.73
-1.37
-1.90
-2.31
-2.60
-2.82
-3.07
-3.46
-4.06
-4.85
-5.73
-6.56
-7.22
-7.67
-7.93
-8.09
-8.15
-8.08
-7.77
-7.15
-6.19
-5.01
-3.74
-2.54
-1.50
-0.61
0.18
0.95
1.71
2.47
3.18
3.84
4.44
5.00
5.52
5.98
6.35
6.59
6.71
6.70
6.63
6.53
6.43
6.34
6.23
6.04
5.69
5.12
4.30
3.27
2.12
0.97
-0.03
-0.80
-1.35
-1.79
-2.24
-2.86
-3.69
-4.67
-5.69
-6.60
-7.33
-7.91
-8.40
-8.90
-9.43
-9.99
-10.50
-10.88
-11.05
-10.97
-10.61
-9.98
-9.11
-8.05
-6.85
-5.53
-4.12
-2.62
-1.07
0.49
1.98
3.36
4.59
5.63
6.46
7.03
7.32
7.35
7.20
6.97
6.76
6.59
6.48
6.34
6.09
5.65
4.99
4.11
3.10
2.06
1.15
0.45
-0.02
-0.36
-0.73
-1.26
-2.02
-2.97
-4.00
-4.98
-5.86
-6.64
-7.32
-7.91
-8.37
-8.63
-8.67
-8.52
-8.22
-7.82
-7.34
-6.74
-5.97
-5.01
-3.91
-2.75
-1.61
-0.53
0.54
1.62
2.67
3.63
4.42
5.01
5.45
5.85
6.31
6.83
7.35
7.79
8.07
8.20
8.22
8.19
8.12
7.99
7.77
7.41
6.92
6.28
5.52
4.66
3.76
2.91
2.16
1.52
0.92
0.26
-0.53
-1.44
-2.38
-3.25
-3.98
-4.60
-5.18
-5.84
-6.63
-7.51
-8.39
-9.13
-9.63
-9.83
-9.67
-9.14
-8.25
-7.01
-5.49
-3.78
-2.03
-0.36
1.17
2.57
3.90
5.19
6.45
7.56
8.36
8.74
8.69
8.35
7.91
7.53
7.30
7.17
7.06
6.87
6.58
6.19
5.73
5.22
4.60
3.84
2.88
1.73
0.48
-0.75
-1.85
-2.75
-3.48
-4.10
-4.73
-5.44
-6.30
-7.29
-8.34
-9.39
-10.35
-11.16
-11.83
-12.36
-12.72
-12.86
-12.68
-12.04
-10.85
-9.11
-6.87
-4.31
-1.61
1.05
3.49
5.61
7.35
8.71
9.73
10.44
10.89
11.15
11.27
11.37
11.52
11.77
12.04
12.16
11.95
11.28
10.23
8.94
7.63
6.44
5.41
4.50
3.61
2.64
1.52
0.34
-0.84
-1.91
-2.78
-3.42
-3.86
-4.19
-4.66
-5.43
-6.50
-7.71
-8.80
-9.50
-9.70
-9.48
-9.11
-9.04
-9.45
-10.11
-10.62
-10.56
-9.52
-7.03
-2.55
4.34
13.07
22.46
30.50
34.75
33.07
24.64
10.43
-7.11
-25.18
-42.28
-57.58
-70.92
-82.65
-93.37
-103.51
-113.14
-121.81
-128.37
-131.80
-129.60
-118.58
-96.28
-62.23
-18.36
31.56
82.82
134.87
182.33
219.01
241.40
250.70
251.12
247.10
241.64
236.22
231.33
225.76
219.25
212.09
204.44
195.90
185.58
172.56
155.87
137.46
117.98
98.42
79.63
61.87
44.49
26.27
6.09
-16.39
-40.13
-63.41
-83.02
-95.46
-98.24
-90.94
-75.39
-54.94
-33.34
-13.67
1.86
12.64
19.29
22.95
24.69
25.38
25.81
26.86
29.43
33.92
40.15
47.07
52.83
55.69
54.91
51.32
47.04
44.35
44.22
45.71
46.36
43.32
34.83
20.89
2.94
-17.11
-37.91
-58.88
-79.69
-99.55
-116.99
-130.22
-138.13
-140.84
-139.57
-135.85
-130.66
-124.07
-115.62
-105.41
-94.85
-86.67
-83.93
-88.58
-100.34
-116.52
-132.82
-144.87
-149.64
-146.23
-135.87
-121.08
-104.58
-88.47
-73.85
-60.86
-49.14
-38.26
-28.12
-19.21
-12.53
-9.20
-9.88
-14.16
-20.44
-26.26
-29.19
-27.64
-21.49
-12.07
-1.53
7.98
14.93
18.70
19.38
17.47
13.65
8.69
3.44
-1.17
-4.41
-5.92
-5.99
-5.72
-7.00
-12.32
-24.16
-44.10
-71.79
-104.28
-136.30
-161.54
-174.69
-173.20
-157.97
-132.67
-101.85
-69.06
-35.84
-2.22
32.03
66.01
97.36
122.91
140.06
147.83
147.27
140.84
131.39
121.18
111.50
102.88
95.77
90.77
88.58
89.44
92.71
96.89
100.04
100.51
97.31
90.06
78.60
62.95
43.53
21.83
0.64
-16.44
-26.38
-28.22
-23.76
-16.97
-12.42
-13.44
-21.18
-34.63
-51.54
-69.54
-86.74
-101.84
-113.85
-121.94
-125.89
-126.66
-126.73
-129.87
-140.04
-160.10
-190.62
-229.53
-272.53
-314.21
-349.30
-373.77
-385.47
-384.32
-371.97
-351.19
-325.08
-296.47
-267.62
-240.13
-215.18
-193.57
-175.45
-160.14
-146.08
-131.20
-113.80
-93.44
-71.46
-50.76
-34.80
-26.34
-26.45
-34.09
-46.58
-60.49
-72.67
-80.95
-84.26
-82.38
-75.55
-64.09
-48.40
-29.11
-7.11
16.60
41.13
66.02
91.06
115.96
139.99
161.87
180.09
193.48
201.82
205.97
207.39
207.46
206.85
205.44
202.69
198.31
192.66
186.62
181.10
176.52
172.66
168.92
164.97
160.89
157.14
153.90
150.58
145.81
138.02
126.28
110.97
93.72
76.65
61.58
49.03
38.19
27.38
14.85
-0.43
-18.31
-37.43
-55.69
-70.72
-80.54
-83.82
-80.08
-69.74
-53.91
-34.26
-12.65
9.15
29.75
48.24
64.14
77.08
86.66
92.30
93.50
90.23
83.26
74.26
65.33
58.44
54.69
54.04
55.44
57.38
58.61
58.49
57.16
55.14
52.88
50.38
47.19
42.64
36.31
28.31
19.36
10.51
2.74
-3.44
-8.18
-12.17
-16.51
-22.17
-29.80
-39.46
-50.66
-62.30
-72.76
-80.06
-82.21
-77.72
-66.04
-47.80
-24.62
1.42
28.35
54.68
79.33
101.32
119.54
132.75
139.93
140.70
135.63
126.12
114.08
101.47
90.01
80.89
74.88
72.18
72.53
75.32
79.65
84.58
89.11
92.42
93.87
93.10
90.10
85.22
79.08
72.38
65.74
59.50
53.74
48.36
43.27
38.56
34.57
31.87
31.03
32.46
36.17
41.63
47.90
53.82
58.40
61.23
62.67
63.83
66.11
70.59
77.47
85.68
93.03
96.63
93.63
81.88
60.46
29.94
-7.70
-49.27
-90.86
-128.40
-158.38
-178.46
-187.93
-187.75
-180.29
-168.58
-155.58
-143.42
-133.05
-124.36
-116.67
-109.19
-101.46
-93.45
-85.39
-77.56
-70.18
-63.35
-57.21
-51.94
-47.83
-45.09
-43.76
-43.72
-44.67
-46.29
-48.27
-50.37
-52.37
-54.06
-55.26
-55.91
-56.16
-56.43
-57.40
-59.65
-63.26
-67.45
-70.41
-69.67
-62.86
-48.56
-26.93
0.20
29.86
58.76
84.08
103.90
117.26
123.95
124.27
118.93
109.03
96.05
81.79
68.05
56.29
47.32
41.23
37.59
35.71
35.03
35.30
36.51
38.62
41.27
43.62
44.55
42.98
38.34
30.82
21.32
11.05
1.13
-7.82
-15.73
-22.95
-29.96
-37.09
-44.39
-51.71
-58.91
-66.00
-73.26
-81.16
-90.10
-99.99
-110.04
-118.67
-123.81
-123.44
-116.21
-101.90
-81.47
-56.82
-30.17
-3.61
21.22
43.20
61.62
76.05
86.26
92.34
94.70
94.12
91.57
88.03
84.29
80.88
78.08
75.94
74.35
73.09
71.90
70.46
68.47
65.63
61.69
56.44
49.80
41.82
32.69
22.71
12.25
1.61
-8.95
-19.26
-29.09
-38.18
-46.30
-53.37
-59.66
-65.83
-72.77
-81.32
-91.82
-103.83
-116.02
-126.41
-132.69
-132.95
-126.11
-112.26
-92.60
-69.06
-43.72
-18.35
5.81
27.98
47.56
63.96
76.58
84.99
89.23
89.93
88.23
85.46
82.77
80.85
79.93
79.91
80.60
81.86
83.60
85.60
87.51
88.74
88.72
87.08
83.77
79.13
73.63
67.70
61.45
54.71
47.05
38.11
27.80
16.36
4.37
-7.47
-18.58
-28.71
-38.05
-47.17
-56.88
-67.97
-80.92
-95.58
-111.00
-125.30
-135.95
-140.33
-136.46
-123.68
-102.95
-76.67
-47.96
-19.79
5.70
27.47
45.39
59.78
70.98
79.14
84.31
86.70
86.74
85.13
82.60
79.77
77.00
74.45
72.23
70.48
69.35
68.87
68.84
68.79
68.12
66.27
62.92
58.02
51.80
44.61
36.81
28.67
20.35
11.89
3.32
-5.32
-13.89
-22.24
-30.21
-37.74
-44.97
-52.19
-59.82
-68.32
-78.10
-89.25
-101.38
-113.45
-123.71
-129.98
-130.19
-122.99
-108.28
-87.35
-62.48
-36.36
-11.38
10.80
29.30
43.82
54.40
61.20
64.54
65.01
63.44
60.86
58.27
56.37
55.48
55.57
56.36
57.50
58.65
59.49
59.71
59.00
57.12
53.93
49.47
43.86
37.27
29.78
21.45
12.29
2.44
-7.83
-18.11
-28.00
-37.14
-45.38
-52.74
-59.49
-66.00
-72.78
-80.40
-89.38
-99.93
-111.60
-123.13
-132.38
-136.82
-134.14
-123.16
-104.23
-79.31
-51.38
-23.56
1.66
22.92
39.83
52.68
61.92
67.96
71.11
71.76
70.52
68.18
65.57
63.28
61.57
60.38
59.49
58.76
58.18
57.81
57.56
57.13
55.95
53.42
49.12
43.08
35.84
28.21
20.97
14.53
8.75
3.09
-3.06
-10.07
-17.81
-25.79
-33.39
-40.20
-46.20
-51.83
-57.82
-64.95
-73.81
-84.51
-96.43
-108.15
-117.54
-122.19
-120.04
-110.05
-92.58
-69.36
-42.96
-16.10
8.98
30.90
49.07
63.42
74.12
81.35
85.36
86.50
85.37
82.78
79.62
76.64
74.32
72.78
71.88
71.37
71.00
70.58
69.91
68.71
66.64
63.28
58.41
52.10
44.70
36.82
29.02
21.64
14.71
7.95
0.98
-6.46
-14.39
-22.56
-30.54
-37.89
-44.34
-49.87
-54.86
-59.99
-66.14
-74.06
-84.00
-95.38
-106.66
-115.48
-119.34
-116.24
-105.41
-87.58
-64.78
-39.70
-14.98
7.39
26.25
41.18
52.12
59.20
62.62
62.75
60.34
56.42
52.20
48.73
46.64
45.97
46.30
46.99
47.41
47.15
46.07
44.18
41.54
38.18
34.07
29.21
23.67
17.54
10.92
3.83
-3.78
-11.91
-20.41
-28.96
-37.15
-44.57
-51.01
-56.56
-61.63
-66.78
-72.68
-79.86
-88.50
-98.21
-107.94
-115.94
-120.14
-118.62
-110.25
-95.09
-74.49
-50.70
-26.28
-3.45
16.30
32.28
44.40
52.93
58.25
60.78
61.07
59.76
57.61
55.38
53.65
52.69
52.49
52.77
53.16
53.30
52.91
51.81
49.93
47.23
43.74
39.52
34.69
29.33
23.46
16.97
9.70
1.54
-7.42
-16.88
-26.38
-35.44
-43.78
-51.40
-58.60
-65.90
-73.86
-82.99
-93.40
-104.69
-115.70
-124.56
-129.07
-127.27
-118.10
-101.84
-80.09
-55.32
-30.12
-6.57
14.07
31.34
45.31
56.14
64.01
69.02
71.37
71.46
69.90
67.43
64.80
62.57
61.03
60.22
59.96
59.94
59.81
59.26
58.02
55.94
52.91
48.89
43.91
37.96
31.04
23.15
14.40
5.02
-4.54
-13.80
-22.32
-29.97
-36.94
-43.75
-51.03
-59.35
-69.04
-80.07
-91.95
-103.66
-113.63
-119.93
-120.61
-114.30
-100.74
-80.98
-57.12
-31.78
-7.30
14.81
33.84
49.71
62.48
72.10
78.39
81.33
81.30
79.13
75.91
72.71
70.25
68.75
67.99
67.46
66.65
65.17
62.91
59.94
56.42
52.46
48.00
42.81
36.65
29.37
20.99
11.77
2.10
-7.55
-16.82
-25.46
-33.51
-41.22
-49.03
-57.48
-67.04
-77.94
-90.03
-102.63
-114.43
-123.64
-128.20
-126.38
-117.31
-101.30
-79.88
-55.33
-30.04
-5.88
15.96
34.82
50.21
61.59
68.43
70.50
68.23
62.79
55.89
49.29
44.28
41.38
40.33
40.35
40.57
40.39
39.56
38.20
36.57
34.85
33.00
30.75
27.71
23.56
18.17
11.75
4.68
-2.52
-9.47
-16.02
-22.30
-28.69
-35.69
-43.80
-53.38
-64.55
-77.03
-89.98
-101.94
-110.91
-114.77
-111.81
-101.39
-84.20
-62.15
-37.80
-13.60
8.65
28.04
44.29
57.44
67.42
74.06
77.25
77.23
74.71
70.82
66.73
63.30
60.91
59.43
58.47
57.57
56.43
54.85
52.70
49.89
46.31
41.93
36.82
31.07
24.73
17.75
10.03
1.51
-7.69
-17.21
-26.60
-35.42
-43.52
-51.02
-58.36
-66.16
-75.00
-85.29
-96.95
-109.20
-120.56
-128.92
-132.03
-128.14
-116.53
-97.86
-73.96
-47.37
-20.65
4.20
25.92
43.97
58.22
68.74
75.69
79.37
80.26
79.11
76.77
74.10
71.73
70.00
68.96
68.40
67.96
67.29
66.10
64.20
61.56
58.17
54.03
49.09
43.23
36.36
28.43
19.59
10.13
0.45
-9.10
-18.20
-26.73
-34.70
-42.23
-49.58
-57.10
-65.25
-74.51
-85.17
-97.15
-109.65
-121.07
-129.16
-131.58
-126.56
-113.58
-93.60
-68.83
-42.02
-15.74
8.20
28.91
46.20
60.18
70.92
78.41
82.67
83.96
82.90
80.44
77.61
75.25
73.79
73.21
73.12
73.01
72.42
71.06
68.81
65.61
61.48
56.47
50.70
44.37
37.64
30.64
23.35
15.68
7.52
-1.12
-10.03
-18.90
-27.41
-35.38
-42.90
-50.39
-58.52
-67.95
-79.08
-91.62
-104.35
-115.17
-121.47
-120.97
-112.41
-96.11
-73.88
-48.43
-22.55
1.63
22.89
40.79
55.22
66.06
73.10
76.19
75.52
71.72
65.90
59.41
53.56
49.43
47.62
48.18
50.62
54.05
57.38
59.62
60.07
58.42
54.66
48.99
41.61
32.73
22.58
11.47
-0.15
-11.73
-22.73
-32.75
-41.70
-49.75
-57.37
-65.10
-73.53
-83.05
-93.81
-105.46
-117.11
-127.23
-133.92
-135.26
-129.93
-117.60
-99.12
-76.30
-51.35
-26.42
-3.11
17.51
34.79
48.32
57.86
63.45
65.52
64.95
62.90
60.51
58.56
57.28
56.43
55.49
54.06
52.02
49.64
47.39
45.64
44.37
43.11
41.02
37.20
31.11
22.76
12.73
2.00
-8.38
-17.60
-25.32
-31.68
-37.24
-42.77
-49.12
-56.94
-66.47
-77.23
-87.89
-96.38
-100.33
-97.78
-87.80
-70.97
-49.19
-25.11
-1.35
20.15
38.36
52.97
64.06
71.78
76.28
77.82
76.87
74.18
70.59
66.87
63.46
60.49
57.81
55.23
52.62
49.97
47.38
44.89
42.43
39.76
36.46
32.04
26.12
18.55
9.60
-0.11
-9.78
-18.63
-26.23
-32.66
-38.43
-44.32
-51.10
-59.30
-69.07
-80.05
-91.32
-101.36
-108.24
-109.97
-105.14
-93.37
-75.63
-53.96
-30.89
-8.73
10.92
27.26
40.04
49.20
54.70
56.60
55.31
51.71
47.03
42.50
38.95
36.62
35.15
33.96
32.51
30.59
28.31
25.95
23.76
21.70
19.42
16.37
11.97
5.91
-1.69
-10.32
-19.18
-27.53
-34.89
-41.29
-47.18
-53.35
-60.58
-69.45
-80.07
-91.91
-103.70
-113.55
-119.25
-118.83
-111.17
-96.41
-76.00
-52.36
-28.11
-5.43
14.42
31.04
44.60
55.30
63.14
67.93
69.59
68.41
65.26
61.33
57.85
55.60
54.73
54.81
55.07
54.80
53.59
51.43
48.56
45.25
41.60
37.41
32.32
25.94
18.13
9.11
-0.55
-10.17
-19.17
-27.35
-34.89
-42.24
-49.97
-58.55
-68.30
-79.29
-91.21
-103.21
-113.78
-120.87
-122.31
-116.47
-102.90
-82.60
-57.78
-31.22
-5.51
17.53
36.99
52.65
64.68
73.31
78.81
81.53
81.99
80.91
79.03
77.01
75.26
73.91
72.89
71.93
70.76
69.14
66.92
64.07
60.65
56.79
52.52
47.84
42.57
36.51
29.47
21.41
12.50
3.06
-6.54
-15.94
-24.88
-33.30
-41.28
-49.11
-57.22
-66.12
-76.22
-87.51
-99.30
-109.96
-117.25
-118.74
-112.72
-98.84
-78.30
-53.63
-27.87
-3.76
16.85
33.13
45.07
53.07
57.61
59.16
58.22
55.46
51.72
47.89
44.74
42.65
41.59
41.13
40.66
39.68
37.93
35.47
32.56
29.42
26.04
22.13
17.19
10.75
2.57
-7.16
-17.77
-28.26
-37.59
-45.01
-50.33
-54.07
-57.20
-60.94
-66.29
-73.81
-83.47
-94.64
-106.16
-116.35
-123.22
-124.72
-119.26
-106.27
-86.54
-62.13
-35.83
-10.35
12.38
31.47
46.91
59.10
68.36
74.75
78.23
78.91
77.29
74.28
70.93
68.15
66.46
65.89
66.06
66.42
66.44
65.72
64.12
61.68
58.51
54.75
50.43
45.51
39.87
33.41
26.13
18.17
9.77
1.27
-7.02
-14.87
-22.15
-28.86
-35.26
-41.76
-48.97
-57.48
-67.54
-78.68
-89.48
-97.65
-100.57
-96.12
-83.47
-63.48
-38.53
-11.71
14.03
36.68
55.28
69.72
80.23
86.97
90.00
89.49
85.92
80.26
73.77
67.65
62.72
59.25
57.01
55.55
54.41
53.34
52.17
50.77
48.91
46.34
42.80
38.24
32.79
26.67
20.11
13.15
5.71
-2.36
-11.04
-20.11
-29.07
-37.35
-44.53
-50.46
-55.48
-60.34
-66.08
-73.67
-83.62
-95.56
-107.98
-118.41
-123.91
-122.06
-111.67
-93.34
-69.34
-42.89
-17.23
5.22
23.24
36.72
46.18
52.33
55.74
56.80
55.86
53.38
49.99
46.43
43.40
41.36
40.41
40.30
40.49
40.39
39.55
37.81
35.26
32.17
28.74
25.03
20.79
15.65
9.26
1.48
-7.51
-17.19
-26.91
-36.04
-44.18
-51.24
-57.49
-63.45
-69.80
-77.22
-86.19
-96.73
-108.14
-118.89
-126.72
-129.17
-124.27
-111.23
-90.90
-65.53
-38.22
-11.98
10.97
29.55
43.69
53.81
60.45
63.99
64.78
63.29
60.31
56.81
53.75
51.75
50.94
51.05
51.56
51.98
51.92
51.18
49.62
47.14
43.73
39.36
34.08
27.94
20.96
13.18
4.69
-4.24
-13.21
-21.74
-29.51
-36.50
-43.08
-49.89
-57.67
-66.97
-77.96
-90.18
-102.47
-112.96
-119.35
-119.45
-111.86
-96.50
-74.78
-49.23
-22.76
2.17
23.98
42.01
56.23
66.76
73.73
77.28
77.79
75.96
72.75
69.14
65.91
63.42
61.70
60.48
59.42
58.17
56.47
54.17
51.22
47.68
43.59
38.94
33.59
27.35
20.10
11.84
2.83
-6.56
-15.88
-24.80
-33.19
-41.06
-48.63
-56.21
-64.24
-73.22
-83.54
-95.26
-107.71
-119.36
-127.95
-131.06
-126.78
-114.46
-94.96
-70.41
-43.62
-17.26
6.70
27.22
44.00
57.17
66.93
73.46
76.96
77.83
76.72
74.54
72.20
70.34
69.23
68.67
68.27
67.66
66.63
65.19
63.39
61.21
58.49
54.94
50.35
44.64
37.94
30.42
22.27
13.59
4.50
-4.81
-14.05
-22.83
-30.84
-38.01
-44.61
-51.21
-58.56
-67.28
-77.53
-88.78
-99.65
-108.06
-111.67
-108.55
-97.80
-80.01
-57.10
-31.82
-6.96
15.30
33.78
48.17
58.69
65.72
69.61
70.74
69.60
66.91
63.54
60.38
58.06
56.84
56.63
56.99
57.39
57.30
56.39
54.51
51.72
48.14
43.85
38.87
33.14
26.62
19.34
11.48
3.26
-5.12
-13.50
-21.77
-29.79
-37.41
-44.48
-51.07
-57.57
-64.69
-73.26
-83.76
-95.89
-108.26
-118.51
-123.88
-122.03
-111.85
-93.87
-70.17
-43.76
-17.66
5.80
25.38
40.80
52.39
60.67
66.10
69.08
70.07
69.67
68.54
67.27
66.21
65.48
64.96
64.55
64.18
63.86
63.54
62.99
61.85
59.67
56.10
51.02
44.64
37.37
29.64
21.78
13.96
6.15
-1.67
-9.51
-17.25
-24.71
-31.80
-38.54
-45.16
-52.08
-59.81
-68.78
-79.27
-91.09
-103.45
-114.79
-122.98
-125.73
-121.27
-109.03
-89.87
-65.92
-39.95
-14.55
8.44
28.11
44.28
57.09
66.69
73.18
76.73
77.75
76.96
75.22
73.36
71.95
71.20
71.08
71.40
71.96
72.62
73.25
73.66
73.49
72.32
69.72
65.50
59.73
52.86
45.48
38.11
31.00
24.05
16.91
9.20
0.78
-8.13
-17.05
-25.42
-32.83
-39.28
-45.14
-51.09
-58.01
-66.58
-77.08
-89.06
-101.18
-111.38
-117.22
-116.58
-108.36
-92.84
-71.68
-47.40
-22.62
0.52
20.76
37.56
50.82
60.59
66.92
69.97
70.15
68.28
65.37
62.43
60.11
58.64
57.78
57.20
56.66
56.12
55.68
55.38
54.95
53.91
51.64
47.75
42.21
35.38
27.88
20.26
12.79
5.43
-2.12
-10.12
-18.58
-27.19
-35.38
-42.64
-48.70
-53.79
-58.49
-63.67
-70.17
-78.61
-89.20
-101.50
-114.26
-125.41
-132.33
-132.52
-124.39
-107.98
-85.04
-58.54
-31.74
-7.24
13.52
30.22
43.19
52.83
59.38
62.95
63.79
62.50
59.98
57.27
55.15
53.99
53.70
53.93
54.28
54.51
54.51
54.24
53.50
51.95
49.17
44.88
39.12
32.30
25.01
17.80
10.93
4.32
-2.36
-9.43
-17.02
-24.94
-32.81
-40.20
-46.87
-52.89
-58.68
-64.89
-72.21
-81.09
-91.38
-102.18
-111.74
-117.81
-118.21
-111.49
-97.46
-77.31
-53.37
-28.34
-4.67
16.00
32.97
46.25
56.20
63.16
67.45
69.35
69.35
68.11
66.35
64.70
63.42
62.42
61.41
60.16
58.63
57.04
55.64
54.51
53.36
51.70
48.94
44.77
39.18
32.52
25.23
17.68
10.04
2.29
-5.64
-13.71
-21.82
-29.77
-37.39
-44.59
-51.44
-58.15
-65.07
-72.65
-81.34
-91.29
-102.07
-112.40
-120.23
-123.24
-119.53
-108.36
-90.49
-67.99
-43.55
-19.65
2.04
20.82
36.64
49.61
59.68
66.65
70.29
70.80
68.82
65.43
61.78
58.73
56.71
55.65
55.22
55.03
54.76
54.21
53.21
51.51
48.82
44.88
39.62
33.16
25.88
18.25
10.65
3.31
-3.79
-10.79
-17.85
-25.03
-32.29
-39.50
-46.55
-53.43
-60.32
-67.57
-75.64
-84.91
-95.41
-106.51
-116.80
-124.19
-126.41
-121.67
-109.41
-90.50
-67.08
-41.91
-17.47
4.50
23.28
38.82
51.36
60.98
67.66
71.37
72.34
71.23
68.97
66.53
64.55
63.29
62.56
62.01
61.30
60.22
58.73
56.83
54.47
51.50
47.78
43.19
37.72
31.42
24.38
16.65
8.29
-0.61
-9.80
-18.91
-27.50
-35.24
-42.08
-48.31
-54.61
-61.82
-70.69
-81.61
-94.28
-107.57
-119.53
-127.67
-129.59
-123.62
-109.42
-88.23
-62.52
-35.33
-9.39
13.48
32.55
47.86
59.77
68.52
74.16
76.74
76.57
74.36
71.20
68.16
66.02
65.06
65.03
65.36
65.41
64.70
63.00
60.33
56.84
52.69
47.96
42.61
36.56
29.74
22.17
14.04
5.57
-2.95
-11.30
-19.33
-26.95
-34.16
-41.06
-47.88
-55.00
-62.96
-72.27
-83.12
-95.03
-106.63
-115.77
-120.01
-117.35
-106.94
-89.46
-66.90
-41.93
-17.09
5.79
25.77
42.51
55.97
66.05
72.63
75.78
75.93
73.93
70.90
67.93
65.77
64.69
64.50
64.76
65.02
64.96
64.45
63.52
62.18
60.38
57.87
54.28
49.21
42.46
34.08
24.49
14.34
4.39
-4.79
-12.97
-20.29
-27.24
-34.49
-42.71
-52.44
-63.84
-76.48
-89.19
-100.00
-106.50
-106.48
-98.69
-83.38
-62.40
-38.62
-15.03
6.13
23.78
37.85
48.78
56.92
62.30
64.82
64.53
61.99
58.18
54.28
51.22
49.46
48.87
48.95
49.09
48.84
48.00
46.62
44.84
42.82
40.51
37.66
33.82
28.56
21.62
13.09
3.42
-6.69
-16.55
-25.73
-34.19
-42.30
-50.62
-59.76
-70.13
-81.78
-94.21
-106.30
-116.30
-122.12
-121.79
-114.22
-99.53
-79.30
-56.00
-32.35
-10.50
8.33
23.75
35.85
44.77
50.54
53.27
53.34
51.50
48.78
46.15
44.21
43.13
42.66
42.39
41.98
41.23
40.10
38.68
37.06
35.28
33.20
30.53
26.81
21.60
14.67
6.15
-3.42
-13.25
-22.62
-31.13
-38.84
-46.20
-53.90
-62.57
-72.61
-83.94
-95.89
-107.14
-115.76
-119.65
-117.04
-107.12
-90.39
-68.57
-44.20
-19.83
2.49
21.63
37.22
49.40
58.44
64.55
67.93
68.87
67.90
65.76
63.23
60.99
59.39
58.45
57.92
57.45
56.73
55.58
53.89
51.66
48.85
45.40
41.22
36.14
29.97
22.62
14.10
4.71
-5.09
-14.68
-23.55
-31.36
-38.16
-44.28
-50.35
-57.13
-65.35
-75.42
-87.26
-99.98
-111.91
-120.73
-124.10
-120.25
-108.61
-90.02
-66.52
-40.73
-15.17
8.24
28.36
44.73
57.33
66.38
72.24
75.44
76.59
76.33
75.24
73.77
72.25
70.92
69.89
69.20
68.67
68.08
67.10
65.51
63.15
59.97
55.98
51.20
45.67
39.40
32.42
24.72
16.31
7.24
-2.29
-11.93
-21.25
-29.86
-37.58
-44.55
-51.21
-58.26
-66.38
-76.09
-87.34
-99.30
-110.22
-117.67
-119.16
-112.93
-98.61
-77.47
-52.12
-25.64
-0.78
20.69
38.04
51.32
60.88
66.99
69.79
69.45
66.43
61.61
56.15
51.25
47.75
45.93
45.51
45.81
46.10
45.84
44.73
42.74
39.91
36.30
31.87
26.55
20.26
13.01
4.94
-3.67
-12.44
-20.93
-28.75
-35.69
-41.75
-47.24
-52.63
-58.52
-65.47
-73.93
-84.08
-95.62
-107.58
-118.23
-125.30
-126.49
-120.20
-106.17
-85.59
-60.84
-34.70
-9.59
12.90
32.04
47.69
59.92
68.77
74.34
76.86
76.88
75.21
72.79
70.46
68.76
67.86
67.62
67.65
67.54
66.91
65.54
63.31
60.18
56.20
51.42
45.96
39.93
33.36
26.22
18.41
9.90
0.77
-8.63
-17.87
-26.53
-34.40
-41.56
-48.35
-55.31
-63.04
-72.08
-82.68
-94.52
-106.45
-116.45
-122.02
-120.90
-111.83
-95.15
-72.68
-47.18
-21.44
2.37
23.10
40.37
54.17
64.64
71.84
75.99
77.52
77.19
75.83
74.22
72.81
71.68
70.74
69.88
69.14
68.71
68.79
69.35
70.06
70.28
69.25
66.46
61.69
55.21
47.57
39.34
30.94
22.54
14.11
5.50
-3.25
-12.02
-20.49
-28.34
-35.40
-41.67
-47.48
-53.42
-60.20
-68.52
-78.70
-90.44
-102.57
-113.10
-119.54
-119.56
-111.69
-95.83
-73.39
-46.90
-19.38
6.42
28.53
45.93
58.41
66.31
70.20
70.74
68.63
64.62
59.32
53.10
46.00
37.72
28.09
17.44
6.98
-1.32
-5.31
-3.60
3.79
15.25
28.01
39.01
45.75
46.78
41.78
31.39
17.03
0.69
-15.09
-27.57
-34.13
-32.71
-22.21
-2.76
24.12
55.49
87.10
114.04
131.57
136.37
127.39
106.21
76.53
43.06
10.15
-19.24
-44.10
-65.24
-84.64
-104.55
-126.54
-150.73
-175.57
-198.32
-216.31
-228.28
-235.05
-239.15
-243.37
-249.32
-256.60
-263.31
-267.38
-267.83
-265.11
-260.36
-254.14
-245.63
-232.96
-214.48
-190.24
-162.54
-135.17
-111.76
-93.93
-80.52
-67.91
-51.53
-27.63
5.17
45.32
88.86
130.59
165.46
189.69
201.29
200.34
188.77
170.19
149.28
130.94
119.02
115.41
119.45
128.36
138.38
146.17
149.88
149.39
145.77
140.34
133.96
126.87
119.02
110.60
102.25
94.91
89.37
85.82
83.68
81.87
79.31
75.44
70.45
65.12
60.30
56.47
53.44
50.40
46.16
39.60
29.86
16.48
-0.64
-21.45
-45.90
-74.13
-106.24
-142.07
-180.71
-220.22
-257.64
-289.40
-312.30
-324.34
-325.42
-317.27
-302.79
-285.02
-266.14
-247.09
-227.68
-207.28
-185.40
-162.10
-137.84
-113.06
-87.83
-61.60
-33.39
-2.06
33.12
72.21
114.13
156.88
197.61
233.22
261.21
280.22
290.75
294.74
294.99
294.44
295.62
299.96
307.21
315.40
321.01
320.21
309.87
288.33
255.64
213.43
163.97
109.83
54.07
0.20
-47.55
-85.72
-113.14
-131.05
-141.16
-144.79
-141.69
-130.04
-108.18
-74.06
-27.15
31.14
98.21
172.25
249.67
323.94
385.98
425.46
438.12
425.98
396.03
358.18
324.29
302.02
292.58
291.22
288.11
277.67
257.00
224.20
178.70
124.79
68.12
14.89
-29.24
-62.40
-79.70
-78.81
-62.71
-63.85
-105.25
-191.11
-303.43
-395.21
-457.95
-493.75
-506.87
-507.52
-500.12
-483.11
-454.64
-415.08
-368.14
-322.48
-281.75
-247.25
-219.63
-198.30
-179.70
-160.66
-139.72
-117.71
-98.96
-83.84
-71.25
-60.31
-49.93
-37.93
-22.84
-4.52
15.68
34.34
51.18
67.80
86.58
109.91
139.01
171.84
202.88
224.63
229.94
216.58
187.37
148.38
106.66
67.76
34.34
6.46
-16.99
-36.99
-52.97
-63.22
-65.83
-59.23
-42.52
-15.40
21.93
68.49
122.23
179.40
234.58
281.30
313.39
326.52
319.41
294.14
255.61
210.26
164.61
124.14
92.46
70.97
58.91
53.87
52.62
52.09
50.09
45.50
38.00
27.56
14.15
-2.15
-20.88
-41.04
-61.26
-80.23
-97.26
-112.39
-126.33
-140.03
-154.34
-169.61
-185.50
-200.90
-213.97
-222.45
-224.18
-217.67
-202.44
-179.07
-148.90
-113.63
-75.08
-35.18
3.87
39.47
68.69
88.70
97.34
93.71
78.47
53.86
23.33
-9.07
-39.53
-65.25
-84.94
-98.91
-108.58
-115.80
-122.00
-127.79
-132.84
-136.35
-137.55
-136.21
-132.80
-128.33
-124.03
-120.90
-119.42
-119.21
-119.02
-116.73
-109.81
-95.98
-73.97
-44.13
-8.46
29.96
67.80
102.33
131.95
156.20
175.35
189.99
200.53
206.94
208.66
204.89
195.07
179.35
158.86
135.50
111.36
88.05
66.39
46.66
29.11
14.45
3.83
-1.59
-1.33
4.07
13.24
24.54
36.55
48.28
58.86
66.99
70.64
67.29
54.83
32.72
2.94
-29.94
-59.80
-80.91
-89.81
-86.42
-73.92
-57.23
-41.19
-29.00
-21.75
-18.90
-19.31
-22.09
-26.86
-33.45
-41.51
-50.25
-58.55
-65.46
-70.51
-73.90
-76.31
-78.40
-80.49
-82.37
-83.32
-82.47
-79.16
-73.30
-65.44
-56.57
-47.78
-39.83
-32.93
-26.77
-20.77
-14.33
-6.84
2.42
14.44
30.40
51.28
77.26
107.44
139.87
172.19
202.21
228.26
248.99
263.13
269.30
266.33
253.93
233.17
206.51
177.14
148.01
121.09
97.10
75.93
57.24
40.97
27.40
16.90
9.43
4.40
0.61
-3.49
-9.51
-18.92
-32.85
-51.93
-76.07
-104.13
-133.87
-162.09
-185.29
-200.43
-205.68
-200.71
-186.60
-165.26
-138.83
-109.29
-78.35
-47.56
-18.47
7.39
28.61
44.00
52.80
54.73
50.01
39.37
24.09
5.77
-13.82
-33.07
-50.72
-65.96
-78.31
-87.54
-93.57
-96.41
-96.29
-93.61
-88.91
-82.74
-75.54
-67.58
-58.97
-49.67
-39.40
-27.67
-13.86
2.53
21.54
42.57
64.41
85.56
104.58
120.45
132.55
140.66
144.75
144.96
141.67
135.48
127.15
117.37
106.51
94.56
81.26
66.37
49.88
32.17
13.85
-4.31
-21.59
-37.42
-51.40
-63.45
-73.79
-83.02
-92.04
-101.86
-113.31
-126.71
-141.71
-157.15
-171.04
-180.85
-183.88
-177.83
-161.48
-135.15
-100.84
-61.91
-22.42
13.79
43.72
65.72
79.44
85.58
85.46
80.51
71.99
60.76
47.34
32.08
15.34
-2.36
-20.35
-37.94
-54.51
-69.55
-82.59
-93.14
-100.63
-104.56
-104.65
-100.96
-93.94
-84.33
-73.06
-61.02
-49.04
-37.70
-27.17
-17.04
-6.26
6.67
23.14
43.79
67.97
93.70
118.12
138.51
153.07
161.47
164.62
163.98
160.84
155.85
149.12
140.59
130.49
119.45
108.26
97.47
87.12
76.71
65.65
53.69
41.18
29.03
18.22
9.23
1.64
-5.99
-15.76
-29.87
-49.84
-76.01
-107.25
-141.05
-173.84
-201.46
-219.76
-225.26
-215.93
-191.79
-155.22
-110.79
-64.40
-21.96
11.90
34.79
46.70
49.40
45.49
37.43
27.01
15.29
2.89
-9.80
-22.48
-34.91
-47.05
-59.02
-70.93
-82.64
-93.65
-103.01
-109.69
-112.76
-111.77
-106.88
-98.81
-88.61
-77.35
-65.84
-54.38
-42.80
-30.40
-16.14
1.23
22.87
49.43
80.62
114.81
149.14
180.16
204.80
221.18
229.04
229.39
223.77
213.52
199.52
182.41
163.01
142.66
123.01
105.58
91.19
79.76
70.53
62.47
54.78
47.02
39.04
30.69
21.63
11.34
-0.80
-15.23
-32.02
-50.68
-70.17
-88.98
-105.36
-117.63
-124.57
-125.68
-121.40
-112.94
-102.00
-90.35
-79.47
-70.39
-63.73
-59.84
-58.96
-61.19
-66.37
-73.89
-82.72
-91.53
-99.10
-104.68
-108.15
-109.93
-110.55
-110.33
-109.03
-106.03
-100.53
-91.99
-80.47
-66.70
-51.92
-37.63
-25.11
-15.10
-7.38
-0.62
7.49
19.77
38.60
65.00
97.87
134.10
169.32
199.35
221.47
235.04
241.19
241.79
238.38
231.61
221.38
207.55
190.57
171.75
152.83
135.42
120.39
107.70
96.71
86.66
77.04
67.68
58.47
49.00
38.28
24.76
6.72
-17.18
-47.46
-83.52
-123.63
-165.02
-204.10
-236.80
-259.09
-267.78
-261.40
-240.89
-209.57
-172.58
-135.57
-103.33
-78.81
-62.77
-54.20
-51.19
-51.74
-54.29
-57.84
-61.71
-65.36
-68.29
-70.19
-71.08
-71.37
-71.71
-72.59
-74.02
-75.38
-75.56
-73.38
-68.11
-59.78
-49.30
-38.26
-28.38
-20.97
-16.33
-13.40
-9.95
-3.05
10.00
30.80
59.30
93.69
130.81
166.94
198.50
222.76
238.15
244.34
242.08
232.82
218.37
200.62
181.29
161.83
143.41
126.86
112.68
100.98
91.62
84.32
78.85
75.14
73.12
72.54
72.62
71.94
68.67
60.91
47.17
26.83
0.39
-30.41
-62.71
-92.93
-117.48
-133.64
-140.29
-138.33
-130.39
-119.92
-110.13
-103.09
-99.47
-98.87
-100.45
-103.56
-107.95
-113.63
-120.53
-128.24
-135.96
-142.71
-147.60
-150.13
-150.26
-148.32
-144.80
-140.13
-134.51
-127.94
-120.22
-111.16
-100.75
-89.24
-77.17
-65.27
-54.17
-44.13
-34.69
-24.65
-12.21
4.56
27.19
56.30
91.22
129.94
169.41
206.09
236.70
258.90
271.69
275.42
271.40
261.33
246.93
229.66
210.83
191.73
173.59
157.42
143.68
132.19
122.16
112.62
102.78
92.36
81.47
70.15
57.96
43.71
25.53
1.35
-30.50
-70.60
-117.75
-168.78
-218.88
-262.40
-293.95
-309.77
-308.72
-292.61
-265.71
-233.19
-199.86
-169.16
-142.81
-120.90
-102.71
-87.55
-75.20
-66.00
-59.80
-55.82
-52.89
-49.80
-45.23
-38.47
-29.83
-20.54
-12.65
-6.82
-2.50
1.45
6.25
13.36
23.53
36.41
50.39
62.41
71.07
76.31
79.01
81.01
85.94
98.05
120.75
154.90
197.06
243.06
288.22
328.22
353.16
355.21
332.48
290.65
246.82
204.42
162.40
119.62
75.18
31.64
-6.77
-36.81
-57.66
-71.31
-82.36
-93.38
-105.19
-117.55
-129.67
-140.12
-147.71
-152.00
-153.81
-155.89
-159.88
-166.65
-176.52
-188.99
-202.46
-214.60
-222.64
-223.86
-216.46
-198.48
-169.09
-129.75
-84.30
-38.28
2.57
33.84
53.44
61.46
60.21
52.75
41.74
29.02
15.72
2.55
-9.91
-21.23
-31.29
-40.03
-47.52
-53.88
-59.18
-63.47
-66.70
-68.81
-69.73
-69.39
-67.67
-64.56
-60.13
-54.66
-48.62
-42.68
-37.49
-33.53
-30.82
-28.70
-25.73
-19.84
-8.85
8.84
33.46
63.50
95.85
126.62
152.17
170.15
179.94
182.42
179.30
172.35
162.79
151.30
138.24
124.03
109.35
95.08
82.12
71.12
62.43
56.18
52.33
50.82
51.49
54.07
58.07
62.85
67.62
71.60
74.04
74.30
71.93
66.72
58.72
48.29
36.06
22.91
9.86
-2.03
-11.84
-19.03
-23.53
-25.79
-26.63
-27.12
-28.31
-31.05
-35.90
-43.08
-52.42
-63.49
-75.69
-88.40
-101.09
-113.33
-124.73
-134.82
-143.06
-148.89
-151.89
-151.94
-149.32
-144.52
-138.14
-130.62
-122.24
-113.03
-103.05
-92.40
-81.40
-70.56
-60.39
-51.28
-43.33
-36.27
-29.44
-21.80
-11.89
1.98
21.28
46.81
77.98
112.73
147.71
179.14
203.79
219.84
227.16
227.04
221.60
212.93
202.67
191.71
180.37
168.63
156.48
144.10
131.86
120.22
109.48
99.53
89.88
79.64
67.82
53.60
36.58
16.97
-4.40
-26.13
-46.51
-63.85
-77.04
-85.88
-91.43
-96.02
-102.71
-114.34
-132.38
-155.84
-181.16
-202.94
-215.68
-215.78
-202.88
-180.03
-152.58
-126.19
-105.03
-90.85
-83.10
-79.95
-79.49
-80.51
-82.55
-85.54
-89.21
-92.87
-95.42
-95.74
-93.10
-87.37
-79.04
-68.99
-58.15
-47.27
-36.75
-26.56
-16.34
-5.37
7.35
23.08
43.09
68.10
97.58
129.24
159.10
182.43
195.36
196.39
187.17
172.01
156.36
144.94
140.39
142.87
150.63
161.12
171.84
180.94
187.23
190.04
189.00
183.95
174.88
161.85
144.90
123.97
98.89
69.55
36.12
-0.53
-38.77
-76.17
-109.94
-137.53
-157.34
-169.23
-174.63
-176.16
-176.86
-179.35
-185.04
-193.88
-204.63
-215.42
-224.51
-230.64
-233.14
-231.67
-225.94
-215.57
-200.37
-180.63
-157.36
-132.32
-107.56
-84.99
-65.80
-50.29
-37.97
-27.87
-19.02
-10.73
-2.80
4.64
11.28
17.05
22.22
27.48
33.89
42.60
54.77
71.43
93.23
120.14
150.89
182.73
211.75
233.73
245.44
245.68
235.53
217.80
195.68
171.65
146.95
121.95
97.05
73.46
53.28
38.83
31.74
32.17
38.69
48.86
60.08
70.31
78.31
83.43
85.11
82.58
74.94
61.53
42.58
19.53
-5.11
-28.31
-47.46
-61.15
-69.61
-74.65
-79.13
-86.02
-97.40
-113.84
-134.12
-155.61
-175.14
-190.06
-198.97
-202.43
-202.30
-201.11
-201.09
-203.37
-207.61
-212.21
-214.84
-212.91
-205.05
-190.75
-170.60
-146.08
-118.96
-90.98
-63.49
-37.52
-13.44
7.70
25.39
39.45
50.21
58.64
66.24
74.80
86.14
102.31
123.83
150.70
181.60
213.73
243.15
265.67
277.90
274.92
260.27
234.96
201.11
161.17
117.72
73.58
31.66
-5.29
-35.10
-55.88
-67.42
-69.56
-62.59
-47.42
-25.85
-0.60
25.04
48.01
66.40
78.54
83.83
81.99
72.85
56.50
33.62
5.71
-24.99
-55.76
-84.74
-110.70
-133.31
-152.84
-169.64
-183.64
-194.26
-200.61
-201.81
-197.89
-189.62
-178.64
-167.03
-156.80
-149.41
-145.39
-144.18
-144.14
-143.03
-138.35
-128.08
-111.28
-88.40
-61.15
-32.05
-3.67
21.97
43.72
61.19
74.52
84.01
90.01
92.99
93.58
92.64
91.11
89.83
89.42
90.26
92.55
96.40
101.92
109.18
118.24
129.29
142.74
159.18
178.97
201.54
224.84
245.26
258.42
260.42
249.05
224.40
188.63
145.33
98.64
52.83
11.90
-20.77
-42.98
-54.23
-55.96
-51.00
-42.60
-33.34
-24.53
-16.31
-8.25
-0.01
8.33
16.29
23.31
28.94
32.90
34.96
34.79
31.94
26.01
16.78
4.56
-9.78
-24.76
-38.58
-49.58
-56.65
-59.63
-59.47
-58.16
-58.42
-62.96
-73.46
-89.77
-109.57
-128.81
-142.90
-148.08
-142.65
-127.30
-104.61
-77.66
-49.16
-20.92
5.94
30.63
52.34
70.16
83.39
91.61
95.46
96.17
95.29
94.06
93.00
91.81
89.48
84.81
76.74
65.39
52.64
41.87
36.21
36.67
41.86
49.30
56.93
62.16
65.56
68.39
71.60
75.58
80.28
85.62
91.65
100.63
113.73
131.62
153.82
178.66
203.45
224.90
240.00
246.77
244.76
234.84
219.28
200.63
181.03
161.71
143.13
125.28
108.13
91.76
75.99
60.71
45.52
29.83
13.22
-4.25
-21.80
-38.00
-51.10
-59.73
-63.09
-61.40
-55.75
-47.82
-39.34
-31.57
-24.98
-19.34
-14.10
-8.80
-3.47
1.30
4.61
5.65
4.11
0.27
-5.21
-11.57
-18.34
-25.28
-32.33
-39.37
-46.19
-52.56
-58.39
-63.86
-69.28
-74.95
-80.94
-87.00
-92.73
-97.85
-102.42
-106.89
-111.94
-118.16
-125.72
-134.32
-143.36
-152.40
-161.38
-170.88
-181.77
-194.88
-210.65
-229.19
-250.59
-275.04
-302.71
-333.17
-364.75
-394.52
-418.85
-434.51
-439.57
-433.63
-417.15
-390.60
-354.07
-307.73
-252.92
-193.00
-133.10
-78.81
-34.34
-1.21
21.74
37.17
47.57
54.24
57.41
57.25
55.02
53.30
54.97
61.55
71.84
81.86
86.05
79.34
59.22
26.99
-12.13
-50.27
-79.07
-92.31
-87.97
-68.99
-42.20
-15.77
3.82
13.93
16.07
14.42
13.42
15.80
21.99
30.77
40.51
50.08
59.05
67.02
73.29
76.67
75.93
70.47
60.87
48.92
37.09
27.80
22.59
21.85
24.91
30.57
37.60
44.88
51.53
56.71
59.68
59.91
57.27
52.05
44.86
36.33
26.97
17.13
7.14
-2.50
-11.03
-17.56
-21.30
-21.83
-19.23
-14.01
-6.96
1.06
9.32
17.32
24.71
31.19
36.43
40.10
41.93
41.98
40.58
38.30
35.82
33.59
31.81
30.36
28.93
27.19
24.79
21.48
17.14
11.76
5.39
-2.08
-11.08
-22.34
-36.53
-53.90
-73.87
-94.96
-115.21
-132.66
-145.76
-153.54
-155.47
-151.31
-141.06
-125.15
-104.66
-81.28
-57.15
-34.37
-14.54
1.48
13.64
22.41
28.44
32.22
33.93
33.48
30.77
25.98
19.69
12.84
6.45
1.35
-2.05
-3.79
-4.24
-3.94
-3.51
-3.60
-4.72
-7.27
-11.47
-17.46
-25.38
-35.44
-47.76
-62.07
-77.37
-91.66
-102.20
-106.07
-101.09
-86.61
-63.79
-35.26
-4.34
25.85
53.14
76.35
95.15
109.59
119.87
126.19
128.96
128.81
126.51
122.87
118.39
113.30
107.56
101.03
93.68
85.55
76.78
67.49
57.80
47.81
37.67
27.59
17.76
8.33
-0.68
-9.29
-17.61
-25.80
-34.17
-43.20
-53.41
-64.95
-77.25
-88.72
-96.93
-99.18
-93.32
-78.42
-55.08
-25.23
8.36
42.73
75.22
103.67
126.57
143.11
153.15
157.26
156.57
152.43
146.19
138.88
131.11
123.12
114.88
106.39
97.71
89.06
80.66
72.65
64.95
57.27
49.15
40.24
30.37
19.68
8.54
-2.51
-13.05
-22.87
-32.03
-40.88
-49.94
-59.69
-70.33
-81.42
-91.80
-99.57
-102.57
-98.96
-87.81
-69.44
-45.27
-17.46
11.72
40.20
66.30
88.68
106.37
118.76
125.82
128.09
126.64
122.68
117.23
110.90
103.84
95.97
87.24
77.87
68.37
59.35
51.24
44.12
37.63
31.18
24.15
16.20
7.40
-1.85
-10.99
-19.51
-27.13
-33.93
-40.27
-46.81
-54.25
-63.17
-73.67
-85.07
-95.77
-103.44
-105.60
-100.37
-87.03
-66.30
-40.09
-10.92
18.68
46.56
71.14
91.35
106.59
116.71
122.02
123.23
121.33
117.29
111.96
105.92
99.52
92.94
86.18
79.22
72.03
64.76
57.69
51.17
45.43
40.40
35.68
30.66
24.79
17.81
9.84
1.32
-7.22
-15.32
-22.77
-29.63
-36.19
-42.96
-50.48
-59.16
-68.99
-79.28
-88.57
-94.93
-96.40
-91.59
-80.12
-62.77
-41.16
-17.42
6.34
28.25
46.87
61.22
70.78
75.60
76.20
73.54
68.73
62.83
56.59
50.40
44.35
38.40
32.50
26.73
21.25
16.32
12.13
8.75
6.02
3.66
1.25
-1.60
-5.14
-9.47
-14.52
-20.12
-26.00
-31.91
-37.60
-42.93
-47.91
-52.70
-57.64
-62.97
-68.71
-74.33
-78.77
-80.60
-78.39
-71.17
-58.78
-41.91
-21.95
-0.72
19.98
38.54
53.75
64.90
71.75
74.58
74.05
71.04
66.46
61.12
55.59
50.15
44.87
39.66
34.36
28.86
23.20
17.55
12.20
7.37
3.16
-0.52
-3.89
-7.18
-10.61
-14.25
-18.09
-22.00
-25.84
-29.46
-32.78
-35.86
-38.93
-42.37
-46.61
-51.91
-58.09
-64.40
-69.53
-71.89
-70.07
-63.28
-51.60
-36.02
-18.13
0.28
17.54
32.34
43.75
51.21
54.59
54.13
50.49
44.72
37.97
31.32
25.56
21.00
17.54
14.71
11.98
8.88
5.17
0.93
-3.63
-8.22
-12.64
-16.89
-21.04
-25.25
-29.56
-33.92
-38.22
-42.31
-46.14
-49.77
-53.40
-57.38
-62.01
-67.46
-73.44
-79.15
-83.25
-84.23
-80.86
-72.57
-59.64
-43.14
-24.60
-5.64
12.29
27.98
40.54
49.34
54.15
55.17
53.08
48.89
43.71
38.47
33.73
29.65
26.05
22.60
19.01
15.06
10.74
6.19
1.62
-2.78
-6.96
-10.98
-14.99
-19.07
-23.19
-27.16
-30.70
-33.66
-36.05
-38.17
-40.50
-43.58
-47.78
-53.08
-58.86
-63.93
-66.66
-65.39
-58.95
-47.00
-30.22
-10.16
11.09
31.35
48.73
61.86
70.11
73.53
72.83
69.13
63.76
57.84
52.17
47.01
42.27
37.65
32.84
27.70
22.31
16.87
11.69
6.96
2.69
-1.26
-5.18
-9.34
-13.86
-18.73
-23.80
-28.91
-33.93
-38.85
-43.67
-48.37
-52.93
-57.32
-61.55
-65.55
-69.05
-71.37
-71.45
-68.03
-60.03
-47.02
-29.38
-8.33
14.39
36.84
57.22
74.05
86.29
93.44
95.63
93.54
88.29
81.18
73.33
65.56
58.29
51.68
45.79
40.70
36.48
33.21
30.85
29.24
28.13
27.18
26.03
24.40
22.16
19.34
16.21
13.09
10.25
7.62
4.70
0.60
-5.63
-14.71
-26.73
-40.93
-55.74
-69.09
-78.91
-83.69
-82.82
-76.70
-66.40
-53.15
-37.86
-20.96
-2.52
17.33
38.08
58.87
78.76
97.15
114.02
129.95
145.76
162.11
178.91
195.05
208.39
216.16
215.64
204.90
183.44
152.64
115.84
77.92
44.25
19.28
5.28
1.86
6.47
15.77
27.08
39.12
51.63
64.42
76.36
85.29
88.95
86.38
78.94
70.23
64.71
65.80
74.35
88.33
103.59
115.52
120.74
117.99
108.03
92.71
73.61
51.24
24.85
-7.18
-46.67
-94.84
-151.35
-213.46
-275.60
-329.97
-368.51
-385.68
-380.69
-358.00
-325.59
-291.76
-262.11
-238.02
-217.47
-197.32
-175.49
-152.04
-128.69
-107.47
-89.66
-75.59
-65.39
-59.75
-60.01
-67.32
-81.20
-98.50
-113.82
-121.36
-117.39
-102.31
-80.93
-60.82
-49.43
-51.40
-67.07
-92.77
-122.56
-150.23
-171.05
-182.66
-185.36
-181.73
-175.78
-171.77
-172.98
-180.67
-193.56
-208.16
-219.85
-224.52
-219.91
-206.20
-185.65
-161.44
-136.44
-112.34
-89.70
-68.61
-49.44
-33.34
-21.91
-16.50
-17.28
-22.60
-29.27
-33.54
-32.33
-24.11
-9.30
10.37
32.90
57.13
83.11
111.75
143.77
178.73
214.72
248.93
278.89
303.65
324.13
342.48
361.00
381.19
403.27
426.32
448.48
467.10
478.90
480.48
469.37
445.27
410.63
370.14
328.95
290.76
256.84
226.56
198.76
172.95
149.38
128.08
107.90
86.40
60.93
30.23
-4.48
-39.64
-70.73
-94.07
-108.17
-114.09
-114.85
-114.20
-115.41
-120.24
-128.73
-139.56
-151.06
-162.22
-173.24
-185.26
-199.54
-216.45
-234.79
-252.04
-265.37
-272.71
-273.57
-268.64
-259.37
-247.25
-233.50
-218.55
-202.12
-183.52
-161.92
-137.15
-109.84
-81.98
-57.01
-39.25
-32.05
-36.40
-50.33
-69.25
-87.87
-101.31
-106.58
-103.11
-92.60
-77.40
-59.70
-41.20
-21.92
-4.31
8.82
15.84
18.28
17.12
12.92
6.78
-1.15
-9.08
-14.75
-15.84
-11.23
-1.95
8.73
16.96
19.96
17.05
10.10
2.21
-3.37
-4.74
-2.12
2.21
5.35
4.82
-0.84
-11.74
-27.11
-45.15
-63.13
-77.70
-85.34
-82.89
-68.24
-40.93
-2.06
45.89
99.95
157.18
214.94
270.88
322.82
368.69
406.41
434.09
450.39
454.98
448.91
434.52
414.79
392.49
369.18
344.86
318.31
288.00
253.15
214.38
173.58
133.27
95.72
62.38
33.77
9.78
-9.93
-25.78
-38.35
-48.65
-58.01
-67.81
-78.73
-90.18
-100.16
-105.95
-105.25
-97.31
-83.46
-66.76
-50.80
-38.40
-30.71
-27.25
-26.78
-28.27
-31.53
-37.08
-45.45
-56.36
-68.30
-78.97
-86.05
-88.28
-85.98
-80.89
-75.50
-72.05
-71.61
-73.68
-76.19
-76.19
-71.02
-59.63
-43.46
-26.42
-13.80
-10.35
-18.35
-36.57
-60.59
-84.39
-102.54
-112.08
-112.93
-107.64
-100.04
-93.74
-90.98
-91.46
-91.83
-85.95
-66.57
-28.43
28.67
98.16
168.06
224.81
258.34
265.39
249.83
219.68
182.90
144.26
104.68
62.68
16.65
-33.63
-86.71
-140.10
-191.03
-236.92
-275.56
-305.24
-325.09
-335.34
-337.11
-332.21
-322.61
-310.02
-295.57
-279.53
-261.17
-238.79
-209.99
-172.48
-125.18
-69.03
-7.36
54.80
111.89
159.21
194.13
216.55
228.65
233.94
235.98
237.31
238.81
239.81
238.73
233.96
224.67
211.12
194.52
176.54
158.66
141.77
125.98
110.92
96.08
81.21
66.49
52.33
39.23
27.48
17.06
7.72
-0.91
-9.22
-17.58
-26.35
-35.84
-46.10
-56.67
-66.34
-73.37
-75.96
-72.96
-64.53
-52.19
-38.38
-25.59
-15.51
-8.69
-4.68
-2.63
-1.86
-2.08
-3.31
-5.49
-8.32
-11.26
-13.82
-15.88
-17.70
-19.77
-22.43
-25.60
-28.70
-30.96
-31.86
-31.41
-30.27
-29.45
-29.83
-31.77
-34.94
-38.59
-41.91
-44.55
-46.71
-49.06
-52.34
-57.01
-63.06
-70.04
-77.16
-83.34
-87.32
-87.80
-83.71
-74.61
-61.05
-44.55
-27.22
-11.11
2.31
12.46
19.48
23.89
26.18
26.72
25.78
23.69
20.89
17.87
15.09
12.89
11.46
10.78
10.71
10.92
10.98
10.50
9.29
7.45
5.37
3.45
1.98
0.90
-0.12
-1.53
-3.64
-6.45
-9.68
-12.89
-15.69
-17.89
-19.58
-21.06
-22.75
-24.99
-28.06
-32.13
-37.27
-43.33
-49.81
-55.68
-59.48
-59.67
-55.13
-45.66
-32.19
-16.56
-0.96
12.71
23.35
30.68
35.09
37.18
37.53
36.58
34.65
32.04
29.07
26.08
23.39
21.21
19.60
18.52
17.84
17.39
17.07
16.74
16.31
15.62
14.49
12.72
10.24
7.03
3.31
-0.66
-4.61
-8.37
-11.98
-15.61
-19.48
-23.76
-28.39
-33.20
-37.94
-42.48
-46.94
-51.68
-57.23
-64.05
-72.09
-80.63
-88.18
-92.81
-92.80
-87.24
-76.39
-61.68
-45.10
-28.61
-13.64
-0.93
9.28
16.94
22.07
24.75
25.31
24.37
22.71
21.01
19.65
18.60
17.61
16.42
14.96
13.47
12.31
11.77
11.92
12.47
12.99
13.03
12.30
10.73
8.34
5.14
1.04
-3.95
-9.68
-15.60
-20.84
-24.47
-25.82
-24.86
-22.31
-19.43
-17.77
-18.75
-23.36
-32.00
-44.30
-59.11
-74.48
-87.92
-96.84
-99.22
-94.20
-82.31
-65.35
-45.71
-25.69
-6.98
9.45
23.24
34.32
42.65
48.21
51.04
51.32
49.51
46.23
42.29
38.47
35.41
33.45
32.54
32.27
31.98
31.05
29.10
26.12
22.49
18.76
15.44
12.70
10.37
7.94
4.84
0.69
-4.51
-10.46
-16.67
-22.71
-28.37
-33.69
-38.93
-44.36
-50.30
-57.02
-64.71
-73.21
-81.86
-89.36
-93.91
-93.65
-87.25
-74.45
-56.17
-34.35
-11.35
10.66
30.16
46.46
59.50
69.59
77.10
82.23
85.03
85.44
83.55
79.77
74.96
70.30
66.91
65.34
65.37
65.98
65.79
63.65
59.13
52.58
44.79
36.51
28.08
19.40
10.27
0.80
-8.46
-16.74
-23.49
-28.76
-33.31
-38.28
-44.71
-53.16
-63.58
-75.44
-87.95
-100.19
-110.98
-118.86
-122.14
-119.23
-109.20
-92.18
-69.54
-43.54
-16.77
8.44
30.47
48.43
62.10
71.61
77.28
79.56
78.97
76.15
71.87
66.90
61.90
57.31
53.23
49.48
45.79
41.94
37.94
34.10
30.75
28.13
26.21
24.60
22.81
20.49
17.63
14.60
11.99
10.33
9.83
10.31
11.30
12.17
12.28
10.96
7.51
1.32
-7.83
-19.34
-31.54
-41.92
-47.68
-46.77
-38.58
-24.21
-6.01
13.26
31.22
46.35
57.93
65.77
69.88
70.33
67.48
62.01
54.95
47.46
40.46
34.43
29.38
25.00
20.96
17.03
13.17
9.36
5.56
1.61
-2.72
-7.68
-13.44
-20.13
-27.68
-35.98
-44.74
-53.56
-62.12
-70.28
-78.26
-86.64
-96.07
-106.78
-118.13
-128.47
-135.32
-136.18
-129.33
-114.48
-92.91
-67.07
-39.71
-13.21
10.88
31.88
49.56
63.89
74.83
82.42
86.89
88.77
88.73
87.39
85.19
82.29
78.79
74.93
71.15
67.94
65.52
63.64
61.58
58.39
53.32
46.19
37.39
27.67
17.81
8.20
-1.22
-10.90
-21.38
-33.15
-46.38
-60.80
-75.55
-89.08
-99.30
-103.92
-101.13
-90.14
-71.61
-47.52
-20.63
6.19
30.67
51.40
67.77
79.69
87.27
90.73
90.44
86.93
80.99
73.49
65.31
57.18
49.63
43.04
37.58
33.27
29.88
26.98
24.07
20.73
16.82
12.52
8.14
3.93
-0.12
-4.30
-9.12
-15.16
-22.99
-33.21
-46.45
-63.19
-83.35
-105.88
-128.40
-147.48
-159.43
-161.37
-152.24
-133.05
-106.43
-75.69
-43.86
-13.22
14.65
38.64
57.93
72.19
81.87
88.21
92.91
97.46
102.63
108.36
114.10
119.31
123.81
127.58
130.45
131.83
130.73
126.10
117.24
104.15
87.61
69.00
50.08
32.54
17.68
6.01
-2.81
-9.84
-16.38
-23.44
-31.31
-39.36
-46.11
-49.42
-46.94
-36.58
-17.22
10.60
44.36
79.75
111.48
134.72
146.35
145.77
134.83
116.96
96.03
75.25
56.70
41.28
29.03
19.51
11.98
5.52
-0.88
-8.04
-16.25
-25.00
-33.16
-39.43
-43.13
-44.66
-45.47
-47.42
-51.89
-59.06
-67.85
-76.40
-82.97
-86.66
-87.60
-86.66
-84.93
-83.29
-82.16
-81.54
-81.05
-79.93
-77.05
-71.01
-60.46
-44.53
-23.16
2.77
31.62
61.38
89.88
115.00
134.92
148.40
155.16
156.16
153.39
149.22
145.55
143.16
141.71
140.26
137.98
134.68
130.66
126.32
121.75
116.59
110.32
102.61
93.49
83.10
71.45
58.15
42.59
24.35
3.63
-18.54
-40.42
-59.93
-75.12
-84.69
-88.39
-87.14
-82.90
-78.08
-74.80
-74.06
-75.29
-76.40
-74.52
-66.92
-51.98
-29.66
-1.48
30.10
62.39
93.08
120.59
143.91
162.37
175.37
182.42
183.27
178.15
167.87
153.60
136.57
117.84
98.13
78.03
58.18
39.41
22.63
8.51
-2.88
-12.20
-20.73
-29.93
-40.87
-53.85
-68.24
-82.79
-96.18
-107.49
-116.61
-124.13
-131.11
-138.61
-147.41
-157.88
-170.07
-183.73
-198.24
-212.44
-224.49
-232.03
-232.80
-225.37
-209.80
-187.81
-162.26
-136.24
-112.17
-91.24
-73.58
-58.71
-46.25
-36.13
-28.59
-23.86
-21.75
-21.59
-22.38
-23.08
-22.92
-21.51
-18.83
-15.13
-10.77
-6.19
-1.88
1.67
4.01
4.88
4.24
2.37
-0.36
-3.50
-6.74
-9.95
-13.12
-16.29
-19.43
-22.39
-24.95
-26.95
-28.44
-29.72
-31.36
-34.00
-38.11
-43.70
-50.21
-56.46
-60.96
-62.23
-59.21
-51.44
-39.07
-22.83
-3.81
16.60
36.89
55.52
71.14
82.80
90.04
92.93
91.92
87.62
80.67
71.68
61.32
50.31
39.43
29.43
20.87
14.04
8.91
5.24
2.69
0.91
-0.34
-1.24
-1.91
-2.46
-3.01
-3.64
-4.37
-5.14
-5.80
-6.22
-6.32
-6.19
-6.08
-6.39
-7.57
-10.07
-14.24
-20.31
-28.30
-37.97
-48.73
-59.51
-68.87
-75.22
-77.14
-73.84
-65.36
-52.71
-37.49
-21.50
-6.25
7.24
18.48
27.35
33.84
37.98
39.81
39.55
37.61
34.64
31.38
28.45
26.29
25.01
24.50
24.48
24.72
25.04
25.39
25.74
25.99
25.92
25.22
23.59
20.93
17.42
13.48
9.58
6.03
2.86
-0.19
-3.46
-7.12
-11.11
-15.20
-19.14
-22.90
-26.54
-30.33
-34.70
-40.09
-46.70
-54.33
-62.38
-69.75
-75.16
-77.21
-74.93
-68.14
-57.58
-44.53
-30.59
-17.35
-5.92
3.04
9.78
14.93
18.97
21.97
24.12
25.28
25.10
23.37
19.90
15.85
12.83
12.01
13.77
18.71
26.53
36.14
46.16
54.81
62.96
72.94
87.12
107.25
135.34
170.94
210.35
247.26
273.31
284.89
283.02
272.34
259.96
255.15
264.06
287.58
321.31
356.16
386.98
412.15
432.39
432.77
404.26
347.09
272.00
207.49
157.06
118.05
87.51
59.77
33.14
9.21
-10.82
-27.18
-41.60
-58.43
-77.90
-98.35
-118.11
-135.94
-150.26
-161.00
-169.50
-178.01
-190.43
-206.73
-224.80
-242.45
-258.04
-270.60
-280.64
-289.66
-299.71
-314.23
-333.63
-356.31
-379.91
-401.69
-419.58
-432.72
-441.54
-447.62
-454.51
-463.29
-472.31
-477.96
-475.80
-463.08
-439.28
-405.33
-362.86
-314.96
-262.81
-206.36
-145.69
-81.70
-17.51
42.63
95.30
148.46
202.51
251.73
287.99
304.10
304.50
294.39
275.76
249.71
216.69
175.96
128.69
78.22
29.56
-11.10
-32.42
-27.72
1.12
43.20
83.99
114.87
135.81
152.04
169.62
190.90
212.73
229.39
236.52
232.92
221.90
209.25
200.92
199.48
207.65
224.46
244.88
261.00
265.17
254.07
232.48
205.54
178.74
155.87
136.82
118.79
98.77
75.11
50.60
28.41
10.13
-4.32
-16.93
-31.52
-51.53
-78.37
-110.85
-146.18
-181.92
-217.12
-251.54
-284.93
-316.80
-346.06
-371.42
-392.00
-407.68
-419.04
-426.44
-428.97
-424.69
-412.08
-391.08
-363.36
-331.63
-298.13
-263.69
-227.50
-187.84
-143.74
-96.16
-48.16
-3.99
32.38
58.69
74.84
82.61
84.79
84.09
82.41
80.61
78.77
76.70
74.64
73.65
75.40
81.42
92.26
106.87
122.87
137.28
147.43
152.39
153.35
152.90
153.47
156.30
161.28
167.92
176.42
187.87
204.83
230.52
266.82
311.90
359.48
400.07
424.21
425.72
403.09
360.47
306.23
249.52
196.55
149.04
105.11
61.49
15.04
-37.76
-99.28
-169.42
-244.98
-320.16
-387.40
-439.27
-470.48
-471.44
-440.48
-387.40
-329.00
-278.96
-242.27
-217.00
-199.39
-185.42
-173.13
-162.77
-154.24
-145.79
-134.45
-119.48
-101.37
-81.76
-62.25
-43.61
-26.35
-9.89
7.18
26.12
46.46
65.99
81.49
90.49
92.26
87.48
78.18
67.06
56.42
47.17
38.90
30.30
20.14
7.77
-6.75
-22.26
-36.47
-46.36
-49.14
-43.07
-28.08
-5.74
21.19
49.52
76.47
100.28
120.21
136.25
148.70
157.87
164.02
167.34
168.14
166.87
164.14
160.65
157.02
153.73
151.05
149.05
147.63
146.56
145.37
143.29
139.10
131.27
118.36
99.53
75.10
46.70
17.00
-11.01
-34.80
-53.01
-65.67
-74.01
-79.91
-85.37
-91.97
-100.43
-110.35
-120.05
-126.84
-127.55
-119.48
-101.26
-73.40
-38.27
0.59
39.34
74.78
104.77
128.29
145.11
155.49
159.81
158.52
152.13
141.26
126.71
109.53
90.88
71.93
53.58
36.37
20.38
5.42
-8.74
-22.14
-34.54
-45.57
-54.92
-62.58
-68.83
-74.18
-78.98
-83.36
-87.07
-89.74
-91.08
-91.14
-90.29
-89.21
-88.65
-89.27
-91.51
-95.37
-100.23
-104.75
-106.94
-104.59
-95.89
-80.11
-57.94
-31.34
-3.01
24.32
48.54
68.37
83.37
93.70
99.84
102.48
102.37
100.35
97.21
93.67
90.23
87.16
84.44
81.88
79.21
76.22
72.87
69.32
65.78
62.41
59.08
55.37
50.61
44.11
35.43
24.53
11.92
-1.46
-14.39
-25.66
-34.33
-39.92
-42.47
-42.58
-41.25
-39.62
-38.70
-39.05
-40.54
-42.35
-43.20
-41.83
-37.39
-29.81
-19.77
-8.47
2.79
12.99
21.55
28.41
33.80
38.15
41.84
45.06
47.71
49.43
49.72
48.25
45.13
40.99
36.78
33.38
31.18
29.89
28.75
26.83
23.48
18.48
11.91
3.91
-5.46
-16.20
-28.13
-40.70
-52.89
-63.55
-71.74
-77.15
-80.16
-81.60
-82.33
-82.82
-83.05
-82.67
-81.37
-79.17
-76.51
-74.08
-72.51
-72.12
-72.72
-73.56
-73.37
-70.54
-63.39
-50.59
-31.64
-7.11
21.46
51.94
82.24
110.68
136.13
157.74
174.78
186.55
192.52
192.64
187.42
177.85
164.98
149.65
132.33
113.40
93.46
73.60
55.41
40.60
30.51
25.57
25.10
27.41
30.15
30.97
28.12
20.79
9.19
-5.71
-22.58
-40.13
-57.34
-73.44
-87.86
-100.00
-109.28
-115.19
-117.45
-116.18
-111.93
-105.73
-98.91
-92.90
-88.89
-87.64
-89.28
-93.32
-98.90
-104.92
-110.32
-114.11
-115.42
-113.62
-108.42
-100.04
-89.24
-77.17
-65.01
-53.66
-43.47
-34.37
-26.02
-18.18
-10.80
-4.00
2.11
7.57
12.67
17.80
23.29
29.19
35.29
41.06
45.89
49.23
50.77
50.51
48.76
46.00
42.71
39.29
35.87
32.30
28.20
22.96
15.91
6.45
-5.70
-20.30
-36.51
-53.03
-68.37
-81.21
-90.68
-96.43
-98.53
-97.25
-92.89
-85.80
-76.49
-65.67
-54.30
-43.33
-33.46
-24.96
-17.63
-11.00
-4.54
2.12
9.18
16.65
24.46
32.43
40.29
47.73
54.51
60.51
65.83
70.65
75.13
79.20
82.65
85.21
86.68
87.05
86.34
84.48
81.22
76.22
69.23
60.27
49.66
37.98
25.74
13.39
1.13
-11.04
-23.26
-35.74
-48.53
-61.30
-73.12
-82.41
-87.30
-86.20
-78.37
-64.23
-45.27
-23.60
-1.36
19.63
37.96
52.52
62.39
66.93
66.00
60.10
50.39
38.46
25.90
13.94
3.32
-5.70
-13.19
-19.29
-24.11
-27.66
-29.85
-30.56
-29.70
-27.32
-23.61
-18.93
-13.73
-8.45
-3.47
1.03
5.08
8.88
12.78
17.10
22.11
27.86
34.20
40.84
47.44
53.71
59.46
64.69
69.65
74.93
81.40
89.93
100.97
113.96
127.18
138.01
143.64
142.07
132.73
116.62
95.73
72.32
48.31
25.07
3.55
-15.47
-31.40
-43.96
-53.37
-60.33
-65.69
-70.15
-73.99
-77.02
-78.82
-79.03
-77.55
-74.66
-71.00
-67.45
-64.93
-64.17
-65.55
-69.02
-74.23
-80.68
-87.98
-95.83
-104.05
-112.31
-120.09
-126.80
-131.96
-135.46
-137.53
-138.53
-138.59
-137.35
-133.94
-127.37
-116.97
-102.83
-85.94
-67.92
-50.50
-35.02
-22.11
-11.79
-3.77
2.25
6.35
8.46
8.62
7.13
4.71
2.27
0.66
0.38
1.42
3.41
5.78
8.12
10.27
12.29
14.31
16.37
18.23
19.51
19.72
18.49
15.72
11.60
6.58
1.23
-3.99
-8.77
-13.04
-16.93
-20.68
-24.62
-29.09
-34.32
-40.21
-46.18
-51.05
-53.26
-51.35
-44.52
-33.00
-18.13
-1.85
13.90
27.77
39.28
48.69
56.55
63.36
69.29
74.15
77.62
79.46
79.61
78.28
75.81
72.64
69.16
65.77
62.77
60.44
58.93
58.19
58.02
58.04
57.83
56.99
55.26
52.50
48.67
43.80
37.98
31.40
24.35
17.25
10.57
4.67
-0.25
-4.30
-7.89
-11.62
-16.09
-21.52
-27.50
-32.86
-35.85
-34.60
-27.78
-15.09
2.51
23.06
44.22
63.92
80.84
94.53
105.27
113.72
120.55
126.19
130.68
133.67
134.56
132.92
128.76
122.69
115.67
108.50
101.39
93.70
84.24
71.69
55.15
34.43
9.96
-17.30
-46.04
-74.62
-101.26
-124.23
-142.37
-155.44
-164.27
-170.37
-175.32
-180.15
-185.10
-189.80
-193.71
-196.52
-198.29
-199.17
-199.05
-197.13
-191.96
-181.83
-165.45
-142.62
-114.51
-83.41
-52.02
-22.74
2.94
24.45
41.91
55.64
65.87
72.75
76.57
78.04
78.27
78.43
79.30
80.96
82.86
84.13
84.15
82.74
80.19
76.93
73.20
68.88
63.64
57.12
49.26
40.28
30.55
20.42
10.02
-0.68
-11.76
-23.13
-34.56
-45.68
-56.23
-66.26
-76.11
-86.31
-97.08
-108.01
-117.83
-124.59
-126.26
-121.48
-110.07
-93.13
-72.68
-50.94
-29.72
-10.11
7.50
23.04
36.49
47.60
56.10
61.80
64.86
65.82
65.46
64.59
63.83
63.45
63.44
63.63
63.84
63.99
64.03
63.90
63.43
62.38
60.50
57.68
54.04
49.89
45.61
41.50
37.65
33.93
30.16
26.17
22.01
17.81
13.78
10.06
6.60
3.19
-0.49
-4.78
-9.89
-15.77
-21.92
-27.43
-31.05
-31.54
-28.12
-20.78
-10.41
1.49
13.25
23.61
31.94
38.19
42.67
45.61
47.09
47.02
45.40
42.52
38.95
35.37
32.31
29.96
28.18
26.65
25.15
23.63
22.24
21.10
20.22
19.41
18.35
16.78
14.64
12.09
9.37
6.66
4.02
1.31
-1.59
-4.75
-8.08
-11.39
-14.44
-17.14
-19.53
-21.77
-24.12
-26.86
-30.15
-33.97
-38.03
-41.69
-44.07
-44.24
-41.51
-35.67
-27.16
-16.93
-6.19
3.94
12.67
19.61
24.75
28.25
30.30
31.06
30.68
29.36
27.41
25.18
22.99
21.02
19.31
17.78
16.36
15.06
13.94
13.05
12.34
11.61
10.56
8.99
6.83
4.22
1.44
-1.27
-3.75
-6.00
-8.11
-10.23
-12.42
-14.71
-17.09
-19.50
-21.88
-24.18
-26.32
-28.26
-29.99
-31.50
-32.83
-33.95
-34.73
-34.84
-33.80
-31.14
-26.52
-19.95
-11.83
-2.89
5.94
13.84
20.28
25.10
28.43
30.54
31.67
31.94
31.47
30.39
28.89
27.24
25.65
24.23
22.92
21.63
20.29
18.95
17.80
17.01
16.64
16.61
16.62
16.34
15.47
13.90
11.74
9.23
6.65
4.18
1.84
-0.48
-2.93
-5.57
-8.33
-10.96
-13.22
-14.94
-16.19
-17.25
-18.54
-20.54
-23.59
-27.75
-32.66
-37.52
-41.23
-42.61
-40.82
-35.61
-27.47
-17.45
-6.88
3.06
11.61
18.50
23.82
27.80
30.62
32.28
32.68
31.75
29.53
26.28
22.44
18.54
15.04
12.18
9.94
8.07
6.27
4.33
2.30
0.36
-1.24
-2.39
-3.18
-3.84
-4.60
-5.60
-6.85
-8.29
-9.86
-11.53
-13.27
-15.01
-16.64
-18.02
-19.11
-19.97
-20.75
-21.62
-22.72
-24.12
-25.73
-27.25
-28.15
-27.73
-25.26
-20.27
-12.78
-3.35
6.99
17.04
25.79
32.69
37.77
41.52
44.68
47.88
51.40
55.09
58.49
61.13
62.84
63.97
65.28
67.68
71.87
78.14
86.35
96.00
106.32
116.24
124.42
129.31
129.52
124.23
113.55
98.41
80.12
59.75
37.64
13.46
-13.21
-42.10
-71.74
-99.63
-123.07
-140.14
-150.44
-155.05
-155.86
-154.56
-152.02
-148.18
-142.59
-135.04
-125.87
-115.86
-105.66
-95.45
-84.87
-73.43
-60.98
-48.02
-35.54
-24.63
-15.93
-9.44
-4.51
-0.24
4.19
9.22
14.85
20.74
26.35
31.17
34.84
37.27
38.59
39.11
39.20
39.13
38.95
38.40
37.01
34.27
29.85
23.77
16.48
8.67
1.14
-5.46
-10.79
-14.83
-17.81
-20.08
-21.98
-23.79
-25.68
-27.75
-29.96
-32.11
-33.82
-34.51
-33.56
-30.44
-24.92
-17.20
-7.91
2.05
11.73
20.38
27.61
33.39
37.92
41.48
44.25
46.31
47.68
48.50
49.04
49.77
51.11
53.26
56.05
58.93
61.13
61.94
60.91
57.97
53.35
47.47
40.71
33.26
25.13
16.12
6.03
-5.31
-17.88
-31.48
-45.67
-59.89
-73.43
-85.54
-95.49
-102.69
-106.83
-107.97
-106.55
-103.37
-99.32
-95.19
-91.39
-87.81
-83.90
-78.87
-72.05
-63.15
-52.45
-40.64
-28.61
-17.15
-6.81
2.13
9.58
15.50
19.90
22.86
24.54
25.16
24.97
24.20
23.04
21.69
20.41
19.49
19.13
19.30
19.78
20.19
20.20
19.61
18.44
16.82
14.90
12.75
10.39
7.85
5.19
2.51
-0.09
-2.57
-4.93
-7.20
-9.39
-11.51
-13.57
-15.64
-17.93
-20.70
-24.10
-28.09
-32.23
-35.78
-37.83
-37.57
-34.57
-28.95
-21.29
-12.53
-3.62
4.65
11.88
17.99
23.11
27.38
30.84
33.39
34.90
35.35
34.93
34.04
33.20
32.78
32.98
33.73
34.81
35.96
37.01
37.91
38.66
39.27
39.69
39.87
39.73
39.31
38.75
38.28
38.18
38.62
39.67
41.25
43.18
45.29
47.42
49.51
51.56
53.60
55.62
57.60
59.56
61.61
63.99
67.09
71.30
76.78
83.35
90.36
96.70
101.01
101.93
98.39
89.82
76.26
58.43
37.69
15.94
-4.60
-21.80
-34.03
-40.68
-42.24
-40.26
-36.78
-33.84
-32.87
-34.43
-38.25
-43.49
-49.04
-53.84
-57.05
-58.18
-57.33
-55.14
-52.73
-51.48
-52.55
-56.53
-63.08
-71.03
-78.67
-84.35
-86.97
-86.37
-83.22
-78.70
-74.06
-70.22
-67.68
-66.45
-66.26
-66.56
-66.67
-65.77
-63.16
-58.39
-51.48
-42.89
-33.37
-23.65
-14.27
-5.49
2.58
9.83
16.01
20.77
23.80
24.99
24.56
23.02
21.00
19.08
17.59
16.57
15.80
14.98
13.86
12.34
10.43
8.24
5.92
3.55
1.23
-0.99
-3.08
-5.01
-6.81
-8.55
-10.32
-12.21
-14.31
-16.68
-19.35
-22.28
-25.36
-28.46
-31.50
-34.46
-37.35
-40.11
-42.43
-43.79
-43.49
-40.99
-36.09
-29.11
-20.78
-11.97
-3.46
4.27
11.05
16.92
21.91
25.98
28.97
30.76
31.39
31.04
30.07
28.85
27.65
26.57
25.61
24.70
23.83
23.02
22.33
21.76
21.26
20.68
19.86
18.72
17.24
15.50
13.60
11.63
9.61
7.57
5.50
3.48
1.57
-0.12
-1.57
-2.85
-4.14
-5.67
-7.65
-10.20
-13.35
-16.99
-20.84
-24.45
-27.19
-28.33
-27.23
-23.61
-17.65
-10.06
-1.81
6.08
12.91
18.40
22.65
25.96
28.54
30.43
31.45
31.47
30.46
28.66
26.49
24.37
22.59
21.15
19.91
18.63
17.18
15.54
13.80
12.09
10.49
9.07
7.81
6.67
5.54
4.26
2.65
0.58
-1.97
-4.86
-7.82
-10.56
-12.81
-14.48
-15.68
-16.65
-17.72
-19.22
-21.28
-23.80
-26.36
-28.28
-28.82
-27.41
-23.87
-18.45
-11.78
-4.62
2.30
8.45
13.56
17.52
20.35
22.13
22.95
22.97
22.40
21.48
20.48
19.61
18.98
18.57
18.25
17.91
17.47
17.00
16.69
16.70
17.03
17.44
17.55
16.92
15.29
12.62
9.12
5.15
1.06
-2.93
-6.77
-10.55
-14.49
-18.80
-23.62
-28.96
-34.73
-40.70
-46.48
-51.54
-55.19
-56.71
-55.56
-51.59
-45.18
-37.15
-28.50
-20.13
-12.54
-5.84
0.10
5.46
10.31
14.59
18.17
20.98
22.94
24.07
24.39
24.01
23.09
21.92
20.78
19.90
19.35
19.05
18.84
18.61
18.30
17.96
17.66
17.40
17.15
16.77
16.14
15.17
13.84
12.16
10.22
8.10
5.91
3.80
1.87
0.17
-1.34
-2.82
-4.49
-6.57
-9.12
-11.98
-14.76
-16.87
-17.68
-16.71
-13.83
-9.27
-3.61
2.39
7.98
12.61
16.02
18.21
19.34
19.62
19.31
18.61
17.72
16.81
15.96
15.17
14.35
13.38
12.19
10.81
9.42
8.23
7.40
6.93
6.67
6.33
5.64
4.41
2.61
0.37
-2.07
-4.47
-6.66
-8.57
-10.28
-11.90
-13.54
-15.22
-16.90
-18.49
-19.98
-21.45
-23.10
-25.16
-27.76
-30.75
-33.70
-35.92
-36.66
-35.34
-31.71
-25.98
-18.73
-10.77
-2.93
4.14
10.02
14.54
17.68
19.54
20.27
20.07
19.18
17.85
16.31
14.77
13.35
12.13
11.13
10.34
9.68
9.05
8.34
7.49
6.49
5.36
4.11
2.73
1.16
-0.65
-2.73
-5.07
-7.58
-10.17
-12.76
-15.30
-17.76
-20.09
-22.31
-24.45
-26.61
-28.92
-31.36
-33.68
-35.29
-35.44
-33.38
-28.70
-21.52
-12.56
-2.94
6.15
13.75
19.33
22.73
24.03
23.42
21.11
17.39
12.63
7.43
2.48
-1.57
-4.23
-5.41
-5.39
-4.73
-4.06
-3.81
-3.99
-4.13
-3.46
-1.17
3.24
9.71
17.57
25.68
32.73
37.55
39.35
37.94
33.70
27.44
20.17
12.81
5.94
-0.27
-5.96
-11.36
-16.58
-21.42
-25.39
-27.81
-27.98
-25.42
-19.91
-11.65
-1.13
10.95
23.88
37.11
50.36
63.52
76.56
89.38
101.71
113.22
123.66
133.01
141.50
149.53
157.41
165.17
172.48
178.73
183.19
185.11
183.84
178.77
169.34
155.10
135.83
111.74
83.57
52.64
20.72
-10.26
-38.48
-62.54
-81.63
-95.58
-104.77
-109.94
-111.91
-111.43
-109.07
-105.25
-100.30
-94.56
-88.35
-82.03
-75.89
-70.14
-64.91
-60.31
-56.42
-53.35
-51.22
-50.19
-50.67
-53.06
-57.67
-64.52
-73.11
-82.52
-91.61
-99.38
-105.21
-109.39
-112.53
-115.35
-118.32
-121.58
-124.96
-128.08
-130.36
-131.21
-130.87
-129.75
-128.46
-127.47
-127.04
-127.01
-126.78
-125.34
-121.55
-115.60
-108.07
-99.99
-92.62
-87.34
-85.38
-87.34
-92.52
-98.74
-104.28
-107.14
-105.95
-100.54
-92.25
-83.67
-77.83
-77.11
-73.08
-59.33
-32.16
6.87
51.99
96.13
134.08
163.55
184.99
200.61
211.57
218.76
222.08
221.28
215.72
205.43
191.49
176.21
162.53
151.42
143.32
137.00
130.86
122.37
109.76
92.89
73.68
55.35
40.23
29.59
22.33
16.37
7.70
-7.55
-32.13
-67.07
-111.74
-165.24
-220.64
-271.30
-301.01
-297.63
-258.29
-192.47
-117.67
-50.89
-2.48
25.98
38.75
42.70
42.07
38.36
31.55
21.31
10.42
2.82
1.82
8.15
20.29
33.95
44.75
50.23
50.99
50.21
51.66
58.27
70.84
88.50
108.79
129.05
147.09
161.34
170.69
173.87
169.77
157.74
138.25
112.55
82.54
50.49
18.61
-11.02
-36.87
-58.10
-74.82
-88.00
-99.45
-111.26
-125.02
-141.25
-159.10
-176.60
-191.29
-200.86
-203.79
-199.63
-189.06
-173.59
-155.12
-135.39
-115.70
-96.84
-79.20
-63.11
-48.97
-37.28
-28.43
-22.35
-18.43
-15.54
-12.34
-7.75
-1.20
7.30
17.21
27.79
38.34
48.31
57.31
65.11
71.58
76.71
80.56
83.26
84.83
85.19
84.12
81.55
77.59
72.66
67.32
62.01
56.72
50.94
43.78
34.34
22.12
7.19
-9.74
-27.51
-44.71
-59.87
-71.58
-78.64
-80.21
-76.13
-66.94
-53.84
-38.45
-22.30
-6.60
7.89
20.62
30.91
37.84
40.53
38.62
32.79
24.83
17.17
11.98
10.48
12.56
17.12
22.74
28.29
33.24
37.49
41.02
43.66
45.10
45.13
43.81
41.47
38.56
35.36
31.93
28.13
23.89
19.33
14.79
10.66
7.07
3.76
0.17
-4.41
-10.49
-18.11
-26.69
-35.11
-41.85
-45.33
-44.30
-38.19
-27.34
-12.97
3.17
19.21
33.68
45.66
54.79
61.05
64.52
65.38
63.92
60.72
56.55
52.27
48.55
45.70
43.63
42.00
40.44
38.69
36.67
34.44
32.04
29.54
26.87
23.97
20.68
16.85
12.39
7.32
1.86
-3.63
-8.73
-13.13
-16.81
-20.01
-23.19
-26.89
-31.47
-37.01
-43.15
-49.09
-53.66
-55.61
-53.87
-47.96
-38.10
-25.26
-10.89
3.50
16.59
27.54
35.98
41.88
45.38
46.69
46.02
43.65
39.95
35.42
30.60
26.00
21.98
18.72
16.24
14.41
13.10
12.15
11.38
10.54
9.30
7.35
4.49
0.76
-3.52
-7.92
-12.02
-15.65
-18.93
-22.28
-26.24
-31.28
-37.64
-45.24
-53.65
-62.04
-69.22
-73.88
-74.79
-71.15
-62.86
-50.52
-35.28
-18.51
-1.53
14.60
29.08
41.26
50.66
56.96
60.08
60.28
58.21
54.71
50.75
47.13
44.37
42.59
41.60
40.95
40.20
39.07
37.49
35.60
33.58
31.51
29.28
26.66
23.37
19.33
14.67
9.68
4.74
0.14
-4.05
-7.92
-11.69
-15.64
-20.00
-24.86
-30.13
-35.42
-39.94
-42.62
-42.36
-38.36
-30.50
-19.43
-6.40
7.11
19.80
30.78
39.51
45.73
49.29
50.21
48.76
45.48
41.11
36.38
31.80
27.60
23.83
20.43
17.39
14.75
12.51
10.61
8.89
7.17
5.27
3.07
0.49
-2.48
-5.78
-9.22
-12.55
-15.49
-17.83
-19.52
-20.69
-21.63
-22.71
-24.26
-26.52
-29.49
-32.86
-36.00
-37.99
-37.83
-34.80
-28.63
-19.75
-9.14
1.94
12.33
21.28
28.46
33.88
37.63
39.78
40.32
39.28
36.87
33.49
29.65
25.85
22.42
19.49
17.00
14.78
12.68
10.57
8.42
6.21
3.98
1.68
-0.81
-3.64
-6.95
-10.73
-14.76
-18.68
-22.13
-24.90
-27.05
-28.83
-30.64
-32.81
-35.51
-38.75
-42.25
-45.49
-47.70
-47.97
-45.52
-39.94
-31.48
-21.02
-9.81
0.89
10.17
17.65
23.38
27.55
30.31
31.66
31.54
30.03
27.43
24.27
21.17
18.64
16.96
16.13
15.94
16.08
16.27
16.29
16.02
15.43
14.50
13.23
11.53
9.29
6.42
2.93
-1.01
-5.06
-8.86
-12.07
-14.59
-16.53
-18.18
-19.94
-22.11
-24.90
-28.31
-32.07
-35.68
-38.36
-39.26
-37.69
-33.32
-26.38
-17.59
-7.92
1.63
10.34
17.79
23.90
28.73
32.35
34.75
35.89
35.73
34.36
32.04
29.20
26.36
23.94
22.14
20.84
19.67
18.22
16.20
13.66
10.88
8.23
5.99
4.13
2.41
0.44
-2.07
-5.20
-8.80
-12.51
-15.96
-18.87
-21.12
-22.82
-24.17
-25.49
-27.08
-29.18
-31.91
-35.17
-38.61
-41.55
-43.17
-42.66
-39.50
-33.68
-25.72
-16.51
-7.02
1.89
9.70
16.17
21.20
24.75
26.76
27.20
26.16
23.95
21.05
18.01
15.31
13.23
11.81
10.90
10.25
9.63
8.90
7.98
6.83
5.39
3.61
1.44
-1.14
-4.03
-7.07
-9.98
-12.47
-14.34
-15.51
-16.17
-16.67
-17.46
-18.93
-21.29
-24.48
-28.10
-31.55
-34.01
-34.67
-32.92
-28.53
-21.79
-13.43
-4.47
4.07
11.43
17.19
21.28
23.79
24.90
24.81
23.75
22.03
20.03
18.12
16.59
15.55
14.95
14.59
14.24
13.73
13.03
12.18
11.31
10.47
9.58
8.45
6.81
4.52
1.58
-1.79
-5.29
-8.63
-11.65
-14.40
-17.05
-19.81
-22.90
-26.41
-30.26
-34.17
-37.61
-39.86
-40.21
-38.17
-33.62
-26.97
-19.00
-10.63
-2.70
4.24
9.95
14.42
17.75
20.08
21.47
21.97
21.67
20.68
19.20
17.50
15.88
14.61
13.84
13.54
13.56
13.68
13.70
13.55
13.18
12.60
11.81
10.74
9.32
7.54
5.45
3.19
0.94
-1.15
-3.03
-4.76
-6.48
-8.35
-10.49
-12.97
-15.78
-18.90
-22.26
-25.66
-28.72
-30.84
-31.33
-29.58
-25.33
-18.84
-10.80
-2.22
5.95
12.99
18.60
22.74
25.54
27.11
27.51
26.76
24.97
22.44
19.60
16.90
14.70
13.14
12.15
11.56
11.16
10.81
10.43
9.95
9.34
8.57
7.62
6.50
5.23
3.82
2.29
0.71
-0.79
-2.07
-3.09
-3.91
-4.75
-5.91
-7.56
-9.79
-12.49
-15.57
-18.90
-22.41
-25.87
-28.87
-30.74
-30.74
-28.29
-23.27
-16.14
-7.78
0.76
8.58
15.12
20.18
23.74
25.85
26.57
26.02
24.41
22.13
19.63
17.32
15.50
14.20
13.34
12.74
12.24
11.75
11.24
10.69
10.10
9.40
8.51
7.28
5.57
3.31
0.51
-2.70
-6.03
-9.19
-11.93
-14.17
-16.02
-17.73
-19.68
-22.17
-25.44
-29.49
-34.09
-38.66
-42.38
-44.31
-43.68
-40.14
-33.91
-25.73
-16.65
-7.71
0.33
7.06
12.42
16.51
19.48
21.46
22.56
22.94
22.77
22.23
21.53
20.78
20.05
19.36
18.69
18.08
17.53
17.12
16.84
16.64
16.38
15.85
14.89
13.39
11.43
9.21
6.95
4.78
2.71
0.67
-1.45
-3.70
-6.03
-8.35
-10.59
-12.71
-14.76
-16.89
-19.25
-21.99
-25.16
-28.57
-31.74
-34.00
-34.54
-32.76
-28.47
-21.96
-13.92
-5.25
3.18
10.68
16.82
21.35
24.22
25.45
25.26
23.96
21.98
19.80
17.83
16.36
15.48
15.15
15.17
15.32
15.38
15.22
14.75
13.96
12.91
11.66
10.26
8.77
7.17
5.44
3.52
1.36
-1.09
-3.86
-6.88
-10.01
-13.03
-15.72
-17.94
-19.71
-21.24
-22.87
-24.93
-27.65
-31.00
-34.60
-37.77
-39.65
-39.41
-36.49
-30.91
-23.21
-14.42
-5.71
1.96
8.05
12.48
15.46
17.32
18.32
18.58
18.18
17.28
16.09
14.92
14.00
13.40
13.04
12.75
12.33
11.66
10.74
9.63
8.44
7.25
6.11
4.97
3.73
2.23
0.29
-2.20
-5.14
-8.30
-11.36
-14.02
-16.15
-17.86
-19.41
-21.16
-23.40
-26.24
-29.53
-32.86
-35.53
-36.80
-36.00
-32.83
-27.44
-20.46
-12.73
-5.13
1.70
7.41
11.90
15.17
17.27
18.21
18.09
17.14
15.69
14.11
12.72
11.64
10.89
10.37
10.00
9.72
9.53
9.41
9.29
9.12
8.82
8.39
7.85
7.23
6.49
5.53
4.22
2.51
0.48
-1.66
-3.67
-5.40
-6.85
-8.19
-9.69
-11.60
-14.02
-16.90
-20.04
-23.08
-25.55
-26.90
-26.58
-24.19
-19.62
-13.09
-5.19
3.29
11.57
19.02
25.19
29.87
32.98
34.57
34.80
33.99
32.54
30.85
29.23
27.78
26.44
25.09
23.68
22.27
20.97
19.96
19.36
19.29
19.88
21.21
23.20
25.53
27.68
29.08
29.39
28.61
27.12
25.34
23.57
21.72
19.51
16.65
13.16
9.42
6.01
3.43
1.73
0.64
-0.26
-1.02
-1.05
0.91
6.35
16.38
31.19
49.74
70.04
89.66
106.40
118.68
125.73
127.45
124.15
116.44
105.11
91.14
75.61
59.58
43.97
29.38
16.06
3.91
-7.46
-18.51
-29.71
-41.34
-53.46
-65.85
-78.13
-89.83
-100.51
-109.86
-117.66
-123.81
-128.24
-130.97
-132.07
-131.73
-130.19
-127.72
-124.60
-121.14
-117.68
-114.56
-112.07
-110.33
-109.11
-107.89
-105.89
-102.30
-96.52
-88.35
-78.03
-66.16
-53.51
-40.83
-28.76
-17.74
-8.12
-0.10
6.16
10.61
13.37
14.75
15.23
15.38
15.73
16.57
17.92
19.55
21.11
22.27
22.87
22.94
22.63
22.12
21.49
20.74
19.77
18.50
16.90
15.04
13.07
11.13
9.34
7.73
6.23
4.71
3.01
1.02
-1.36
-4.17
-7.41
-10.98
-14.63
-17.92
-20.24
-20.92
-19.49
-15.82
-10.18
-3.20
4.39
11.93
18.95
25.17
30.43
34.62
37.68
39.60
40.49
40.55
40.04
39.24
38.36
37.54
36.79
36.13
35.55
35.08
34.72
34.46
34.17
33.70
32.84
31.46
29.58
27.34
24.90
22.39
19.80
17.03
13.98
10.61
6.98
3.22
-0.52
-4.12
-7.54
-10.80
-13.98
-17.21
-20.61
-24.26
-28.06
-31.70
-34.61
-36.10
-35.54
-32.59
-27.34
-20.30
-12.27
-4.11
3.47
10.02
15.37
19.45
22.34
24.09
24.81
24.66
23.84
22.60
21.17
19.76
18.47
17.35
16.37
15.47
14.54
13.52
12.35
11.04
9.60
8.03
6.30
4.39
2.25
-0.11
-2.67
-5.39
-8.22
-11.17
-14.29
-17.59
-21.02
-24.43
-27.51
-30.01
-31.78
-32.94
-33.80
-34.83
-36.44
-38.82
-41.82
-44.93
-47.34
-48.11
-46.46
-41.92
-34.57
-25.01
-14.18
-3.13
7.25
16.40
24.06
30.19
34.79
37.91
39.64
40.18
39.82
38.88
37.59
36.05
34.24
32.15
29.84
27.52
25.49
24.00
23.10
22.65
22.29
21.66
20.49
18.72
16.49
14.04
11.63
9.42
7.43
5.56
3.70
1.76
-0.27
-2.34
-4.35
-6.21
-7.86
-9.28
-10.52
-11.73
-13.15
-15.12
-17.93
-21.69
-26.19
-30.77
-34.43
-36.08
-34.87
-30.50
-23.37
-14.41
-4.86
4.14
11.77
17.64
21.69
24.11
25.16
25.16
24.45
23.40
22.31
21.43
20.84
20.48
20.20
19.85
19.36
18.74
18.15
17.76
17.68
17.91
18.27
18.44
18.08
16.93
14.96
12.37
9.54
6.85
4.55
2.66
1.02
-0.57
-2.29
-4.14
-6.07
-7.98
-9.82
-11.60
-13.34
-15.06
-16.81
-18.67
-20.80
-23.36
-26.37
-29.62
-32.56
-34.44
-34.53
-32.39
-28.01
-21.86
-14.71
-7.42
-0.72
4.97
9.50
12.93
15.43
17.14
18.16
18.51
18.19
17.28
15.90
14.21
12.41
10.65
9.05
7.67
6.55
5.68
5.04
4.53
4.02
3.34
2.32
0.86
-1.06
-3.34
-5.77
-8.12
-10.20
-11.90
-13.24
-14.36
-15.40
-16.47
-17.59
-18.65
-19.53
-20.08
-20.25
-20.09
-19.78
-19.55
-19.62
-20.16
-21.16
-22.38
-23.37
-23.54
-22.27
-19.16
-14.11
-7.44
0.21
8.09
15.48
21.89
27.09
31.02
33.73
35.30
35.85
35.50
34.46
32.92
31.09
29.09
27.02
24.93
22.90
21.01
19.34
17.98
16.96
16.28
15.88
15.65
15.40
14.97
14.23
13.12
11.73
10.18
8.60
7.06
5.57
4.05
2.45
0.74
-1.04
-2.83
-4.60
-6.38
-8.26
-10.42
-13.01
-16.12
-19.63
-23.21
-26.28
-28.22
-28.54
-27.07
-24.06
-20.06
-15.70
-11.53
-7.83
-4.66
-1.95
0.32
2.09
3.25
3.67
3.36
2.43
1.08
-0.45
-1.91
-3.14
-4.06
-4.69
-5.11
-5.41
-5.65
-5.84
-5.98
-6.13
-6.41
-6.96
-7.93
-9.33
-11.08
-13.03
-15.01
-16.93
-18.74
-20.45
-22.08
-23.64
-25.14
-26.58
-27.97
-29.35
-30.85
-32.64
-34.87
-37.61
-40.62
-43.38
-45.16
-45.23
-43.16
-38.98
-33.09
-26.15
-18.81
-11.59
-4.86
1.04
5.85
9.37
11.55
12.58
12.79
12.55
12.16
11.77
11.44
11.18
10.94
10.72
10.45
10.07
9.60
9.15
8.97
9.31
10.36
12.11
14.33
16.68
18.80
20.42
21.37
21.56
20.99
19.69
17.74
15.29
12.52
9.66
6.86
4.17
1.48
-1.40
-4.61
-8.12
-11.57
-14.28
-15.34
-13.90
-9.49
-2.19
7.28
17.82
28.18
37.35
44.70
50.05
53.49
55.25
55.63
54.90
53.40
51.46
49.41
47.41
45.48
43.44
41.09
38.32
35.20
32.01
29.14
26.96
25.67
25.27
25.56
26.22
26.92
27.46
27.69
27.56
27.05
26.15
24.98
23.86
23.28
23.79
25.72
28.93
32.66
35.63
36.32
33.45
26.24
14.62
-0.92
-19.48
-39.91
-60.85
-80.82
-98.16
-111.32
-119.10
-120.98
-117.34
-109.32
-98.56
-86.78
-75.34
-65.07
-56.27
-48.88
-42.75
-37.69
-33.58
-30.30
-27.67
-25.38
-23.14
-20.64
-17.73
-14.41
-10.79
-7.06
-3.40
0.05
3.18
5.95
8.29
10.19
11.58
12.41
12.63
12.21
11.13
9.43
7.18
4.52
1.66
-1.20
-3.84
-6.15
-8.19
-10.13
-12.24
-14.75
-17.69
-20.86
-23.79
-25.85
-26.40
-24.99
-21.47
-16.14
-9.61
-2.71
3.77
9.34
13.80
17.27
19.96
21.99
23.29
23.69
23.06
21.48
19.25
16.84
14.71
13.18
12.33
12.06
12.16
12.43
12.68
12.77
12.58
12.04
11.15
10.05
8.91
7.89
7.06
6.36
5.72
5.08
4.50
4.15
4.22
4.79
5.77
6.94
8.00
8.70
8.96
8.78
8.36
8.02
8.30
9.87
13.40
19.34
27.60
37.53
47.98
57.70
65.66
71.40
74.99
76.76
77.06
76.00
73.43
69.14
63.03
55.21
46.04
36.04
25.75
15.60
5.89
-3.34
-12.19
-20.90
-29.67
-38.54
-47.31
-55.53
-62.69
-68.32
-72.15
-74.15
-74.49
-73.46
-71.41
-68.73
-65.74
-62.75
-59.96
-57.43
-55.11
-52.83
-50.39
-47.70
-44.82
-42.02
-39.60
-37.77
-36.40
-34.92
-32.36
-27.66
-20.00
-9.14
4.44
19.69
35.35
50.39
64.26
76.98
88.92
100.50
111.98
123.36
134.43
144.94
154.76
163.86
172.30
180.22
187.79
195.15
202.37
209.21
214.94
218.29
217.64
211.31
198.12
177.64
150.45
117.98
82.17
45.06
8.38
-26.63
-59.12
-88.42
-113.80
-134.45
-149.74
-159.62
-164.89
-167.15
-168.33
-169.94
-172.54
-175.58
-177.73
-177.53
-173.94
-166.64
-155.94
-142.48
-126.83
-109.29
-89.85
-68.39
-44.96
-19.92
5.98
31.70
55.94
77.29
94.26
105.43
109.74
106.93
97.71
83.81
67.50
50.90
35.40
21.48
8.85
-3.05
-14.63
-25.98
-36.98
-47.43
-57.31
-66.67
-75.60
-84.07
-91.96
-99.14
-105.61
-111.48
-116.88
-121.85
-126.19
-129.53
-131.42
-131.58
-129.95
-126.74
-122.30
-117.06
-111.38
-105.61
-99.92
-94.19
-87.93
-80.22
-69.96
-56.30
-38.97
-18.43
4.31
28.06
51.83
74.86
96.41
115.51
130.92
141.38
146.10
145.04
138.96
129.11
116.86
103.33
89.41
75.82
63.20
52.17
43.16
36.43
31.99
29.67
29.23
30.39
32.77
35.97
39.61
43.49
47.72
52.62
58.63
66.01
74.73
84.38
94.28
103.66
111.80
118.12
122.17
123.64
122.38
118.47
112.32
104.52
95.69
86.20
76.08
65.14
53.31
40.97
29.05
18.69
10.69
5.04
0.81
-3.49
-9.22
-16.94
-26.27
-36.05
-45.00
-52.20
-57.35
-60.72
-62.92
-64.65
-66.52
-69.04
-72.55
-77.11
-82.39
-87.71
-92.21
-95.18
-96.36
-96.00
-94.76
-93.30
-92.06
-91.16
-90.44
-89.68
-88.69
-87.26
-85.04
-81.55
-76.31
-69.07
-60.07
-50.04
-40.04
-31.06
-23.77
-18.40
-14.88
-13.01
-12.66
-13.67
-15.82
-18.70
-21.74
-24.34
-26.09
-26.87
-26.81
-26.22
-25.36
-24.41
-23.45
-22.52
-21.74
-21.41
-21.93
-23.79
-27.38
-32.84
-39.89
-47.88
-55.87
-62.85
-68.10
-71.23
-72.32
-71.79
-70.21
-68.12
-65.98
-64.09
-62.60
-61.55
-60.83
-60.24
-59.57
-58.63
-57.38
-55.96
-54.58
-53.45
-52.68
-52.21
-51.89
-51.55
-51.15
-50.85
-50.95
-51.83
-53.77
-56.87
-60.79
-64.74
-67.57
-67.96
-64.84
-57.76
-47.08
-33.90
-19.72
-5.94
6.49
17.21
26.28
33.94
40.34
45.42
49.02
51.02
51.38
50.23
47.77
44.27
39.97
35.15
30.10
25.09
20.37
16.08
12.25
8.83
5.73
2.84
0.03
-2.86
-6.00
-9.52
-13.45
-17.71
-22.07
-26.35
-30.38
-34.10
-37.52
-40.67
-43.63
-46.46
-49.29
-52.24
-55.33
-58.31
-60.59
-61.24
-59.24
-53.84
-44.86
-32.84
-18.87
-4.29
9.70
22.31
33.14
42.13
49.28
54.63
58.13
59.82
59.87
58.59
56.45
53.94
51.51
49.49
48.02
47.05
46.37
45.68
44.72
43.28
41.37
39.14
36.75
34.32
31.77
28.87
25.36
21.11
16.21
10.97
5.75
0.83
-3.73
-8.09
-12.60
-17.60
-23.41
-30.12
-37.55
-45.13
-51.85
-56.50
-57.92
-55.41
-48.98
-39.41
-27.91
-15.75
-3.84
7.43
18.04
28.10
37.58
46.20
53.53
59.17
62.89
64.71
64.93
64.00
62.41
60.62
58.95
57.58
56.44
55.35
54.11
52.59
50.85
49.03
47.19
45.16
42.64
39.28
34.89
29.61
23.86
18.24
13.19
8.81
4.83
0.84
-3.59
-8.69
-14.44
-20.46
-26.07
-30.24
-31.85
-29.98
-23.88
-13.67
-0.58
13.28
25.53
34.47
39.61
41.59
41.74
42.10
44.15
48.37
54.26
60.87
67.46
73.67
79.17
83.35
86.41
88.57
90.13
91.35
92.71
95.08
99.61
107.11
117.90
133.08
153.52
179.26
208.91
239.76
268.54
292.39
308.92
306.34
277.19
221.96
150.48
77.14
13.79
-34.29
-67.48
-90.15
-107.74
-124.04
-141.42
-160.18
-179.83
-199.38
-217.50
-232.42
-243.61
-246.12
-238.62
-223.07
-203.14
-182.46
-162.43
-145.01
-128.11
-111.12
-95.46
-83.60
-76.95
-74.79
-74.93
-72.74
-64.15
-46.04
-18.27
16.91
55.51
93.47
127.76
153.68
167.29
167.35
156.86
140.48
121.86
101.88
79.56
54.14
25.63
-3.11
-28.78
-47.76
-58.20
-60.63
-57.79
-53.46
-48.36
-45.51
-46.68
-51.38
-57.32
-62.35
-65.50
-66.96
-68.97
-71.17
-72.92
-73.11
-70.90
-66.10
-59.37
-51.74
-43.97
-36.27
-28.13
-18.84
-8.54
2.12
12.08
20.07
24.99
26.28
24.08
19.36
12.98
5.92
-0.92
-6.93
-12.04
-16.63
-21.33
-26.71
-32.99
-40.29
-48.44
-57.02
-65.55
-73.60
-80.74
-86.47
-90.09
-90.74
-87.78
-81.00
-70.69
-57.65
-43.04
-28.05
-13.71
-0.76
10.36
19.43
26.30
31.02
33.75
34.83
34.70
33.89
32.92
32.23
32.11
32.64
33.74
35.19
36.75
38.18
39.29
39.95
40.05
39.48
38.13
35.91
32.75
28.70
24.01
19.07
14.43
10.54
7.65
5.61
3.95
2.04
-0.56
-3.82
-7.13
-9.37
-9.28
-5.81
1.50
12.33
25.77
40.57
55.51
69.72
82.67
94.12
103.98
112.22
118.91
124.23
128.46
131.95
134.92
137.41
139.31
140.45
140.79
140.40
139.49
138.34
137.32
136.86
137.35
138.92
141.32
144.03
146.46
148.36
149.89
151.37
152.93
154.02
153.41
149.62
141.42
128.21
110.04
87.42
61.00
31.61
0.51
-30.49
-59.09
-83.07
-101.00
-112.76
-119.68
-123.94
-127.74
-132.41
-137.92
-143.04
-146.06
-145.58
-141.18
-133.46
-123.48
-112.06
-99.15
-83.73
-64.27
-39.58
-9.58
24.31
59.30
91.93
118.87
137.70
147.26
147.70
140.18
126.55
108.92
89.25
69.08
49.23
29.79
10.29
-9.91
-31.17
-53.36
-75.91
-98.25
-120.17
-142.08
-164.72
-188.61
-213.27
-236.89
-256.47
-268.63
-270.90
-262.65
-245.46
-222.61
-197.92
-174.53
-154.16
-137.20
-123.20
-111.67
-102.38
-95.30
-90.24
-86.57
-83.28
-79.43
-74.71
-69.67
-65.51
-63.41
-63.71
-65.48
-66.62
-64.66
-57.71
-45.32
-28.60
-9.79
8.62
24.74
37.68
47.51
54.86
60.40
64.47
66.96
67.38
65.05
59.35
49.86
36.57
20.05
1.49
-17.32
-34.26
-47.26
-54.83
-56.42
-52.55
-44.69
-34.73
-24.49
-15.26
-7.67
-1.76
2.68
5.90
8.07
9.32
9.84
9.91
9.90
10.14
10.87
12.22
14.24
16.94
20.37
24.49
29.20
34.29
39.41
44.16
48.18
51.22
53.21
54.29
54.81
55.19
55.89
57.22
59.28
61.96
64.95
68.01
71.14
74.61
78.89
84.40
91.11
98.37
105.02
109.72
111.37
109.50
104.27
96.34
86.66
76.26
66.27
57.88
52.21
49.95
51.02
54.29
57.82
59.49
57.77
52.30
44.02
34.76
26.48
20.61
17.67
17.33
18.74
20.88
22.86
24.00
23.74
21.65
17.46
11.19
3.21
-5.82
-15.08
-23.86
-31.69
-38.41
-44.06
-48.79
-52.66
-55.69
-57.91
-59.47
-60.80
-62.59
-65.65
-70.65
-77.84
-86.80
-96.41
-105.02
-110.91
-112.71
-109.85
-102.69
-92.29
-80.11
-67.47
-55.29
-44.04
-33.90
-24.93
-17.27
-11.09
-6.49
-3.39
-1.48
-0.37
0.33
0.83
1.19
1.44
1.67
2.03
2.68
3.65
4.71
5.49
5.61
4.85
3.24
1.09
-1.23
-3.41
-5.31
-6.99
-8.65
-10.51
-12.70
-15.25
-18.10
-21.11
-24.18
-27.28
-30.43
-33.71
-37.29
-41.28
-45.80
-50.74
-55.66
-59.70
-61.72
-60.59
-55.64
-46.90
-35.16
-21.71
-7.96
5.02
16.56
26.46
34.69
41.30
46.31
49.73
51.61
52.09
51.43
49.91
47.85
45.55
43.24
41.07
39.16
37.58
36.38
35.54
34.93
34.27
33.24
31.52
28.95
25.61
21.74
17.70
13.75
9.96
6.23
2.36
-1.82
-6.34
-11.08
-15.77
-20.16
-24.08
-27.53
-30.73
-34.03
-37.88
-42.61
-48.34
-54.72
-60.90
-65.61
-67.51
-65.58
-59.48
-49.70
-37.39
-24.00
-10.85
1.12
11.49
20.16
27.19
32.63
36.52
38.91
39.92
39.78
38.78
37.25
35.49
33.77
32.26
31.12
30.44
30.24
30.44
30.89
31.29
31.31
30.59
28.90
26.20
22.64
18.55
14.30
10.15
6.17
2.27
-1.70
-5.85
-10.09
-14.23
-18.02
-21.29
-24.01
-26.34
-28.52
-30.85
-33.59
-37.00
-41.21
-46.08
-51.05
-55.20
-57.30
-56.21
-51.25
-42.40
-30.35
-16.31
-1.64
12.44
25.06
35.81
44.66
51.96
58.29
64.34
70.68
77.52
84.51
90.88
95.80
98.92
100.81
103.05
107.78
117.07
132.12
152.62
176.51
200.19
219.16
228.95
226.31
210.03
181.43
143.98
102.33
61.00
23.26
-9.36
-36.93
-60.55
-81.56
-101.07
-119.66
-137.42
-154.06
-169.24
-182.72
-194.54
-204.74
-213.24
-219.48
-222.46
-221.04
-214.45
-202.75
-186.91
-168.55
-149.29
-130.31
-112.15
-94.89
-78.56
-63.46
-50.13
-39.20
-30.99
-25.29
-21.39
-18.39
-15.46
-12.13
-8.32
-4.23
-0.16
3.62
7.00
9.98
12.59
14.85
16.72
18.10
18.87
19.01
18.57
17.73
16.68
15.54
14.29
12.78
10.85
8.44
5.64
2.64
-0.44
-3.64
-7.18
-11.29
-16.03
-21.11
-25.81
-29.13
-30.03
-27.77
-22.14
-13.53
-2.93
8.40
19.20
28.53
35.91
41.34
45.07
47.45
48.77
49.20
48.86
47.90
46.52
44.89
43.13
41.25
39.17
36.83
34.33
31.87
29.73
28.07
26.82
25.69
24.23
22.04
18.96
15.11
10.85
6.64
2.84
-0.37
-3.03
-5.32
-7.47
-9.66
-11.98
-14.40
-16.83
-19.01
-20.58
-21.09
-20.01
-16.91
-11.54
-3.95
5.47
16.07
26.99
37.32
46.27
53.28
58.16
61.10
62.72
63.88
65.55
68.53
73.20
79.40
86.43
93.32
99.26
104.07
108.49
114.13
122.96
136.62
155.61
178.90
203.91
227.09
244.97
255.03
256.43
249.99
237.69
221.79
204.05
185.23
165.10
142.83
117.71
89.81
60.30
31.38
5.56
-15.12
-29.87
-39.35
-45.28
-49.64
-53.83
-58.38
-63.06
-67.35
-70.92
-73.67
-75.60
-76.49
-75.97
-73.72
-69.90
-65.20
-60.61
-56.84
-53.98
-51.27
-47.54
-41.77
-33.66
-23.78
-13.40
-4.17
2.41
5.17
3.35
-3.33
-14.63
-29.67
-46.96
-64.63
-80.93
-94.82
-106.22
-115.89
-124.83
-133.63
-142.18
-149.74
-155.50
-158.98
-160.23
-159.58
-157.30
-153.40
-147.79
-140.65
-132.69
-125.08
-118.98
-115.04
-113.11
-112.25
-111.24
-108.96
-104.83
-98.86
-91.59
-83.86
-76.59
-70.53
-66.04
-63.08
-61.24
-59.89
-58.42
-56.39
-53.62
-50.19
-46.43
-42.81
-39.95
-38.43
-38.68
-40.77
-44.21
-47.94
-50.46
-50.25
-46.22
-38.13
-26.69
-13.33
0.30
12.87
23.72
32.85
40.70
47.68
53.94
59.29
63.37
65.84
66.58
65.65
63.23
59.64
55.24
50.48
45.84
41.80
38.65
36.41
34.78
33.24
31.28
28.65
25.35
21.68
18.01
14.65
11.70
9.02
6.28
3.01
-1.28
-6.93
-13.88
-21.53
-28.71
-33.85
-35.46
-32.65
-25.41
-14.69
-2.08
10.68
22.16
31.54
38.57
43.40
46.31
47.50
47.11
45.20
41.99
37.82
33.20
28.68
24.65
21.26
18.43
15.95
13.62
11.30
8.91
6.33
3.40
-0.05
-4.06
-8.45
-12.78
-16.44
-18.92
-19.95
-19.64
-18.47
-17.14
-16.26
-16.12
-16.53
-16.77
-15.86
-12.90
-7.48
0.21
9.33
18.73
27.27
34.16
39.00
41.78
42.69
41.97
39.85
36.55
32.27
27.28
21.91
16.57
11.64
7.46
4.17
1.78
0.13
-0.98
-1.75
-2.35
-2.95
-3.59
-4.18
-4.42
-3.81
-1.82
1.81
6.84
12.54
17.85
21.82
23.94
24.31
23.52
22.38
21.63
21.77
22.98
25.15
27.93
30.75
32.99
34.24
34.41
33.81
32.96
32.25
31.71
31.02
29.69
27.45
24.38
20.94
17.61
14.66
12.02
9.37
6.49
3.41
0.40
-2.18
-4.18
-5.75
-7.25
-9.08
-11.42
-14.17
-17.06
-19.81
-22.29
-24.60
-26.99
-29.76
-33.15
-37.27
-42.01
-47.05
-51.79
-55.35
-56.80
-55.31
-50.54
-42.72
-32.71
-21.68
-10.83
-1.06
7.18
13.79
18.85
22.47
24.69
25.53
25.12
23.71
21.66
19.39
17.24
15.47
14.20
13.42
12.94
12.48
11.69
10.30
8.28
5.80
3.22
0.82
-1.32
-3.33
-5.49
-7.87
-10.21
-11.99
-12.61
-11.83
-9.78
-6.91
-3.69
-0.37
3.02
6.57
10.14
13.27
15.45
16.53
17.07
18.17
20.99
25.96
32.55
39.31
44.53
46.88
46.01
42.48
37.32
31.43
25.22
19.00
12.96
7.23
1.84
-3.31
-8.30
-13.12
-17.59
-21.48
-23.88
-24.03
-21.82
-18.10
-14.19
-11.12
-9.04
-7.36
-5.18
-0.78
6.85
17.36
28.87
38.81
45.30
47.95
47.66
46.20
46.96
53.27
67.49
90.23
120.45
156.02
194.15
231.45
255.60
256.74
232.34
190.28
144.24
105.20
76.57
55.33
35.95
14.61
-7.73
-27.39
-40.88
-47.41
-49.16
-49.43
-50.63
-53.98
-58.94
-63.67
-67.14
-70.06
-74.86
-84.46
-100.23
-120.60
-141.45
-156.63
-159.92
-148.11
-122.81
-90.24
-58.95
-36.49
-24.17
-21.57
-25.51
-31.70
-37.10
-40.98
-44.50
-49.26
-55.87
-63.44
-70.62
-75.83
-78.23
-78.04
-76.32
-74.22
-72.40
-70.63
-67.92
-63.34
-56.11
-46.20
-34.49
-22.32
-10.97
-1.17
6.96
13.78
19.58
24.64
29.13
33.16
37.04
41.33
46.66
53.48
61.79
70.98
80.20
88.60
95.64
101.22
105.68
109.55
113.30
116.94
119.86
121.00
119.12
113.41
103.84
91.49
78.19
65.92
56.05
48.83
43.49
38.87
34.17
29.60
26.13
24.88
26.29
29.66
33.33
35.51
35.12
32.35
28.33
24.39
21.23
18.51
15.26
10.58
4.36
-2.49
-8.50
-12.43
-13.90
-13.53
-12.68
-12.71
-14.46
-18.05
-22.98
-28.58
-34.29
-39.83
-45.11
-50.13
-54.84
-59.06
-62.52
-64.95
-66.08
-65.69
-63.70
-60.16
-55.38
-49.78
-43.92
-38.38
-33.59
-29.82
-27.09
-25.27
-24.13
-23.45
-23.11
-23.12
-23.60
-24.62
-26.19
-28.17
-30.37
-32.48
-34.24
-35.39
-35.69
-35.00
-33.41
-31.33
-29.39
-28.12
-27.70
-27.74
-27.42
-25.88
-22.76
-18.35
-13.41
-8.73
-4.75
-1.35
1.85
5.18
8.67
12.08
15.18
17.96
20.71
23.73
27.06
30.36
32.92
34.06
33.34
30.82
26.97
22.51
18.10
14.18
10.79
7.68
4.43
0.80
-3.12
-6.90
-9.93
-11.81
-12.61
-12.97
-13.88
-16.21
-20.40
-26.26
-33.16
-40.26
-46.87
-52.60
-57.31
-60.99
-63.64
-65.19
-65.54
-64.67
-62.67
-59.74
-56.21
-52.39
-48.60
-45.16
-42.39
-40.58
-39.91
-40.36
-41.63
-43.12
-44.11
-43.96
-42.32
-39.25
-35.13
-30.47
-25.62
-20.62
-15.21
-9.08
-2.12
5.31
12.44
18.38
22.51
24.82
25.91
26.73
28.07
30.30
33.19
36.16
38.50
39.71
39.59
38.12
35.46
31.76
27.20
22.00
16.44
10.84
5.42
0.16
-5.25
-11.27
-18.21
-26.01
-33.98
-40.97
-45.72
-47.46
-46.18
-42.75
-38.49
-34.73
-32.30
-31.44
-31.85
-33.10
-34.79
-36.68
-38.63
-40.42
-41.73
-42.20
-41.68
-40.44
-39.15
-38.83
-40.46
-44.60
-51.12
-59.07
-66.76
-72.20
-73.50
-69.58
-60.60
-48.21
-35.26
-24.94
-19.77
-20.76
-27.06
-36.38
-45.78
-52.51
-54.62
-51.07
-41.72
-27.19
-8.83
11.39
31.27
48.93
63.34
74.71
84.12
92.91
101.83
110.58
117.86
121.77
120.49
112.88
98.71
78.68
54.26
27.50
0.81
-23.23
-42.24
-54.52
-59.45
-57.80
-51.58
-43.50
-36.18
-31.52
-30.27
-32.13
-36.10
-41.00
-45.88
-50.13
-53.52
-56.02
-57.71
-58.65
-58.97
-58.92
-58.82
-59.08
-59.94
-61.26
-62.46
-62.52
-60.39
-55.36
-47.49
-37.58
-26.92
-16.76
-7.81
-0.06
7.08
14.32
21.93
29.55
36.33
41.39
44.34
45.64
46.48
48.25
51.99
57.88
65.25
72.90
79.56
84.32
86.69
86.51
83.79
78.58
71.08
61.81
51.60
41.41
31.97
23.56
16.03
9.17
3.23
-0.80
-1.27
3.47
14.17
29.86
47.53
62.59
69.84
64.95
45.78
13.18
-28.98
-74.78
-117.80
-152.72
-176.45
-188.46
-190.26
-184.45
-173.65
-159.90
-144.27
-126.99
-107.68
-85.67
-60.45
-32.20
-2.11
27.79
55.45
79.70
101.03
121.14
141.82
163.26
183.24
197.59
202.02
194.20
175.06
148.47
119.49
92.26
68.69
48.54
30.49
13.59
-2.14
-15.95
-27.20
-36.18
-44.28
-53.44
-65.04
-79.12
-94.06
-107.12
-115.44
-117.16
-112.04
-101.45
-87.61
-72.78
-58.41
-44.95
-32.10
-19.41
-6.82
5.13
15.47
23.20
27.77
29.30
28.48
26.36
23.90
21.80
20.36
19.54
19.21
19.23
19.53
20.03
20.64
21.16
21.32
20.84
19.52
17.22
13.93
9.73
4.80
-0.55
-5.97
-11.15
-15.93
-20.43
-25.09
-30.55
-37.45
-46.17
-56.42
-67.14
-76.55
-82.51
-83.13
-77.23
-64.80
-46.87
-25.28
-2.08
20.83
42.03
60.56
75.86
87.67
95.89
100.62
102.15
101.02
97.92
93.63
88.92
84.31
80.07
76.17
72.40
68.54
64.46
60.14
55.68
51.15
46.51
41.59
36.08
29.67
22.20
13.74
4.67
-4.44
-12.96
-20.48
-26.95
-32.79
-38.72
-45.57
-53.87
-63.54
-73.70
-82.77
-88.86
-90.38
-86.52
-77.49
-64.30
-48.27
-30.53
-11.76
7.65
27.25
46.18
63.17
76.84
86.16
90.78
91.11
88.04
82.64
75.86
68.48
61.12
54.29
48.39
43.56
39.68
36.36
33.13
29.59
25.52
20.94
15.94
10.61
4.96
-1.05
-7.42
-14.03
-20.60
-26.92
-32.89
-38.73
-44.91
-51.96
-60.23
-69.51
-78.88
-86.74
-91.15
-90.41
-83.52
-70.59
-52.71
-31.70
-9.49
12.25
32.31
49.93
64.56
75.77
83.29
87.09
87.59
85.62
82.24
78.42
74.81
71.59
68.69
65.90
63.14
60.44
57.92
55.52
52.95
49.70
45.23
39.24
31.80
23.31
14.32
5.29
-3.56
-12.27
-20.97
-29.75
-38.66
-47.73
-57.13
-67.03
-77.43
-87.84
-97.02
-103.19
-104.47
-99.54
-88.12
-71.16
-50.48
-28.22
-6.23
14.18
32.22
47.32
59.04
66.93
70.89
71.25
68.97
65.34
61.67
58.85
57.13
56.25
55.64
54.78
53.41
51.59
49.59
47.70
46.06
44.59
42.91
40.44
36.55
30.78
23.05
13.76
3.72
-6.11
-14.95
-22.49
-28.97
-35.03
-41.46
-48.88
-57.54
-67.17
-77.01
-85.89
-92.31
-94.79
-92.14
-83.83
-70.15
-52.22
-31.70
-10.39
10.07
28.45
43.96
56.17
64.93
70.35
72.77
72.73
70.98
68.35
65.57
63.18
61.37
60.09
59.07
58.04
56.85
55.51
54.10
52.66
51.06
48.98
45.98
41.74
36.15
29.46
22.17
14.87
8.04
1.88
-3.69
-8.99
-14.38
-20.13
-26.32
-32.87
-39.70
-46.80
-54.32
-62.41
-70.96
-79.37
-86.46
-90.63
-90.38
-84.76
-73.73
-58.24
-39.94
-20.73
-2.31
14.04
27.50
37.61
44.20
47.38
47.53
45.39
41.88
37.99
34.48
31.78
29.86
28.43
27.04
25.33
23.10
20.35
17.19
13.81
10.37
7.01
3.84
0.97
-1.47
-3.36
-4.72
-5.72
-6.73
-8.25
-10.76
-14.57
-19.65
-25.69
-32.15
-38.47
-44.17
-49.05
-53.15
-56.77
-60.29
-63.86
-67.23
-69.54
-69.36
-65.09
-55.48
-40.23
-20.38
1.80
23.34
41.38
53.99
60.62
62.05
59.87
55.85
51.45
47.57
44.55
42.37
40.70
39.19
37.70
36.72
37.56
42.04
51.66
66.64
85.26
104.11
119.12
127.00
126.21
117.07
101.22
80.65
57.16
32.21
7.18
-16.59
-37.82
-55.76
-70.36
-82.32
-92.72
-102.60
-112.65
-123.00
-133.28
-142.57
-149.57
-152.84
-151.29
-144.54
-133.14
-118.26
-101.17
-82.72
-63.21
-42.69
-21.52
-0.79
17.83
32.63
42.63
47.92
49.63
49.27
48.08
46.69
45.16
43.26
40.88
37.98
34.59
30.55
25.51
19.20
11.62
3.23
-5.18
-12.86
-19.37
-24.83
-29.71
-34.53
-39.56
-44.75
-49.79
-54.37
-58.33
-61.66
-64.41
-66.64
-68.36
-69.62
-70.47
-70.98
-71.08
-70.48
-68.66
-65.04
-59.26
-51.39
-41.89
-31.49
-20.80
-10.07
0.88
12.41
24.72
37.51
49.93
60.85
69.37
75.16
78.78
81.31
83.99
87.61
92.26
97.36
101.99
105.30
106.86
106.70
105.14
102.54
99.12
94.82
89.47
82.91
75.18
66.60
57.68
48.94
40.71
33.02
25.60
18.04
10.04
1.60
-6.99
-15.22
-22.75
-29.52
-35.86
-42.29
-49.34
-57.23
-65.71
-74.05
-80.99
-85.15
-85.29
-80.59
-70.84
-56.65
-39.32
-20.58
-2.21
14.38
28.14
38.51
45.45
49.39
51.09
51.31
50.73
49.62
48.10
45.86
42.50
37.93
32.56
27.13
22.30
18.54
15.83
13.98
12.20
9.44
4.78
-2.15
-10.88
-20.25
-28.37
-35.39
-40.47
-43.34
-44.99
-47.63
-53.35
-62.17
-73.94
-87.12
-99.06
-106.46
-106.76
-97.92
-79.72
-53.55
-21.98
11.66
43.97
71.71
92.35
104.32
107.63
104.06
96.75
88.98
82.66
77.98
73.62
68.12
60.73
51.91
42.87
34.78
28.12
22.57
17.50
12.44
7.38
2.56
-1.81
-5.81
-9.72
-13.90
-18.66
-24.12
-30.17
-36.61
-43.14
-49.51
-55.54
-61.07
-66.07
-70.59
-74.77
-78.81
-82.99
-87.60
-92.79
-98.53
-104.44
-109.92
-114.20
-116.53
-116.28
-112.81
-105.63
-94.42
-79.35
-61.27
-41.78
-22.90
-6.52
6.15
14.87
20.25
23.24
24.72
25.14
24.65
23.33
21.36
19.05
16.66
14.15
11.19
7.26
2.02
-4.53
-12.03
-19.90
-27.72
-35.33
-42.79
-50.12
-57.05
-63.04
-67.54
-70.39
-72.10
-73.69
-76.20
-80.13
-85.15
-90.28
-94.53
-97.42
-99.07
-99.56
-98.06
-92.29
-79.01
-55.34
-20.44
23.73
72.78
121.19
163.62
195.63
213.84
216.09
202.11
174.62
139.99
107.38
85.97
81.39
93.18
114.90
136.96
150.82
152.22
142.04
124.59
104.76
85.81
68.82
53.55
39.79
28.14
19.73
15.36
14.67
16.09
17.57
17.45
15.12
11.04
6.28
1.85
-1.70
-4.37
-6.49
-8.30
-9.69
-10.09
-8.77
-5.28
0.03
5.76
9.79
9.95
4.92
-5.25
-19.49
-36.59
-55.92
-77.61
-101.71
-127.00
-150.34
-167.05
-172.28
-162.44
-136.30
-95.24
-43.16
13.80
67.63
109.30
130.71
127.33
100.47
57.85
11.59
-25.76
-45.52
-45.46
-29.64
-5.94
17.38
34.32
42.14
40.82
31.73
16.67
-2.56
-24.02
-45.48
-64.53
-79.23
-88.75
-93.66
-95.62
-96.72
-98.71
-102.49
-107.91
-114.02
-119.38
-122.46
-121.92
-116.94
-107.35
-93.47
-75.84
-54.80
-30.53
-3.34
25.68
54.42
79.93
99.35
111.02
115.15
113.66
109.27
104.38
100.35
97.39
95.11
93.03
90.97
88.87
86.65
84.03
80.60
76.14
70.67
64.41
57.62
50.38
42.63
34.28
25.45
16.43
7.59
-0.87
-9.06
-17.29
-25.87
-34.89
-44.14
-53.30
-62.26
-71.32
-80.94
-91.37
-102.38
-113.00
-121.68
-126.62
-126.34
-120.15
-108.39
-92.14
-72.85
-51.97
-30.72
-10.02
9.59
27.68
43.72
56.95
66.90
73.52
77.20
78.69
78.93
79.30
80.80
83.56
86.27
87.59
86.58
83.07
77.64
71.51
66.82
65.05
66.03
66.91
65.21
59.48
49.76
37.08
23.18
11.17
3.28
-0.32
-3.20
-8.09
-16.31
-27.36
-39.59
-50.37
-54.80
-48.55
-29.79
-2.22
29.92
61.74
87.95
103.00
92.51
49.78
-18.63
-80.65
-117.59
-121.08
-94.64
-46.47
10.38
61.95
99.50
120.21
125.99
118.77
102.64
81.54
58.65
36.10
16.23
3.27
0.72
9.13
23.68
38.70
49.22
52.75
49.27
41.09
32.40
26.64
24.91
24.75
23.49
19.37
12.17
2.77
-7.30
-16.20
-22.94
-27.77
-32.45
-38.47
-46.46
-56.10
-66.47
-76.30
-84.19
-89.11
-90.56
-88.77
-84.09
-76.81
-67.12
-55.21
-41.38
-26.08
-9.92
6.34
21.94
36.22
48.63
58.83
66.58
71.83
74.79
75.90
75.79
75.09
74.14
72.94
71.17
68.47
64.65
59.94
54.89
50.20
46.31
43.20
40.37
37.01
32.33
25.89
17.63
7.88
-3.00
-14.74
-27.40
-41.32
-56.90
-74.31
-93.22
-112.82
-131.93
-149.37
-164.24
-176.05
-184.53
-189.44
-190.55
-187.68
-181.08
-171.57
-160.39
-148.84
-137.78
-127.37
-117.13
-106.36
-94.53
-81.55
-67.69
-53.38
-39.06
-25.15
-12.04
-0.30
9.40
16.47
20.62
22.03
21.37
19.63
17.82
16.68
16.48
17.01
17.73
18.00
17.33
15.56
12.77
9.20
5.02
0.26
-5.14
-11.17
-17.55
-23.64
-28.59
-31.63
-32.37
-30.85
-27.48
-22.75
-17.00
-10.27
-2.42
6.68
16.89
27.80
38.73
48.95
57.90
65.33
71.26
75.93
79.51
82.04
83.32
83.00
80.76
76.50
70.41
62.96
54.81
46.68
39.34
33.60
30.33
30.22
33.51
39.67
47.28
54.27
58.56
58.67
54.12
45.41
33.60
19.79
4.74
-11.11
-27.34
-43.21
-57.55
-68.94
-76.03
-77.84
-73.99
-64.68
-50.64
-32.95
-12.98
7.83
28.07
46.49
61.98
73.63
80.67
82.66
79.57
71.87
60.52
46.70
31.71
16.83
3.34
-7.53
-14.88
-18.44
-18.93
-17.96
-17.49
-19.12
-23.40
-29.67
-36.47
-42.33
-46.32
-48.33
-48.85
-48.51
-47.81
-47.06
-46.49
-46.53
-47.69
-50.36
-54.58
-59.82
-65.21
-69.88
-73.38
-75.78
-77.56
-79.12
-80.41
-80.72
-78.79
-73.10
-62.04
-44.19
-18.85
13.40
50.12
86.97
118.62
140.26
149.19
145.68
132.66
114.30
94.42
75.42
58.12
42.43
28.21
15.73
5.57
-1.76
-6.27
-8.55
-9.48
-9.86
-10.11
-10.17
-9.73
-8.58
-6.88
-5.22
-4.44
-5.21
-7.77
-11.81
-16.61
-21.45
-25.88
-29.90
-33.93
-38.49
-43.94
-50.10
-56.13
-60.49
-61.34
-57.15
-47.32
-32.68
-15.38
1.72
15.99
25.86
31.24
33.23
33.45
33.33
33.69
34.70
36.18
37.88
39.72
41.74
43.94
46.19
48.23
49.75
50.51
50.38
49.39
47.62
45.17
42.10
38.43
34.13
29.24
23.80
17.99
11.97
5.90
-0.17
-6.24
-12.36
-18.57
-24.88
-31.26
-37.64
-44.00
-50.25
-56.21
-61.42
