1520351591.00
64.000000
-0.00
-0.00
-0.00
-0.00
-0.00
-0.00
-0.00
-0.00
-0.00
-0.00
0.00
0.01
0.01
-0.00
-0.03
-0.05
-0.05
0.00
0.13
0.36
0.66
1.01
1.37
1.72
2.06
2.40
2.79
3.24
3.80
4.42
5.06
5.66
6.20
6.68
7.15
7.68
8.31
9.14
10.09
11.04
11.88
12.56
13.14
13.76
14.65
15.96
17.91
20.32
22.90
25.38
27.58
29.57
31.68
34.32
37.81
42.54
48.15
54.10
59.83
64.97
69.58
74.14
79.34
85.71
93.76
103.00
112.62
121.73
129.77
136.75
143.30
150.75
157.77
166.64
177.95
191.79
206.97
220.57
228.25
225.36
208.53
176.87
132.76
80.05
23.07
-34.94
-92.44
-149.16
-205.23
-260.37
-313.74
-363.87
-409.83
-450.91
-486.50
-515.74
-537.23
-549.22
-549.96
-538.37
-514.21
-478.67
-433.88
-382.45
-327.02
-269.84
-212.63
-156.66
-102.95
-52.37
-5.90
35.58
71.43
101.35
125.50
144.38
158.69
169.15
176.37
180.75
182.57
182.07
179.51
175.23
169.65
163.18
156.15
148.81
141.30
133.69
126.02
118.33
110.69
103.16
95.80
88.68
81.83
75.25
68.95
62.95
57.25
51.86
46.78
42.03
37.59
33.45
29.61
26.07
22.81
19.83
17.11
14.67
12.48
10.54
8.83
7.35
6.07
4.97
4.05
3.27
2.62
2.09
1.65
1.30
1.01
0.79
0.61
0.47
0.37
0.28
0.22
0.18
0.14
0.12
0.10
0.10
0.10
0.11
0.12
0.14
0.16
0.19
0.22
0.26
0.30
0.34
0.38
0.42
0.46
0.51
0.55
0.60
0.66
0.72
0.79
0.86
0.94
1.03
1.14
1.25
1.37
1.50
1.65
1.82
2.01
2.24
2.51
2.79
3.05
3.26
3.43
3.56
3.72
3.95
4.31
4.78
5.34
5.93
6.50
7.00
7.48
7.99
8.60
9.37
10.30
11.31
12.31
13.18
13.88
14.46
15.05
15.81
16.85
18.12
19.38
20.26
20.35
19.37
17.29
14.37
11.03
7.66
4.41
1.03
-2.86
-7.68
-13.54
-20.07
-26.48
-31.79
-35.29
-36.85
-37.09
-37.15
-38.23
-41.09
-45.66
-51.11
-56.20
-59.83
-61.48
-61.43
-60.56
-60.17
-61.62
-66.19
-74.42
-85.41
-96.09
-101.55
-96.46
-77.47
-45.37
-5.47
34.02
65.24
83.85
90.44
89.51
86.72
86.01
88.00
90.75
91.65
89.21
84.03
78.35
74.76
75.13
80.20
89.52
102.00
115.61
127.08
131.93
125.37
104.17
68.79
24.26
-21.09
-58.15
-80.64
-87.30
-81.65
-69.59
-56.47
-45.11
-34.21
-22.54
-8.96
6.41
22.13
36.07
46.48
52.68
55.36
56.08
56.41
57.53
59.61
61.44
60.77
55.27
43.63
26.37
5.78
-15.06
-33.39
-47.95
-59.14
-68.29
-76.69
-84.79
-92.39
-99.08
-104.81
-109.76
-114.00
-117.18
-118.39
-116.48
-110.60
-100.65
-87.25
-71.57
-54.97
-38.87
-24.59
-13.26
-5.52
-1.47
-0.68
-2.56
-6.73
-13.11
-21.70
-32.19
-43.70
-54.87
-64.32
-71.21
-75.48
-77.73
-78.92
-79.95
-81.53
-84.28
-88.83
-95.76
-105.31
-117.10
-130.02
-142.36
-152.20
-157.81
-157.89
-151.87
-139.90
-122.96
-102.69
-80.99
-59.49
-38.94
-19.10
0.87
21.58
42.63
62.38
78.45
88.66
92.00
88.85
80.52
68.56
54.21
38.48
22.57
8.19
-2.66
-8.51
-9.12
-5.78
-0.61
4.52
9.03
13.76
20.27
29.73
42.09
56.04
69.56
80.80
88.72
93.22
95.06
95.42
95.74
97.39
101.46
108.41
117.83
128.45
138.41
145.88
149.64
149.36
145.53
139.02
130.62
120.78
109.69
97.59
85.02
72.86
62.01
53.01
45.79
39.75
34.09
28.20
21.87
15.21
8.35
1.27
-6.19
-14.13
-22.35
-30.34
-37.53
-43.70
-49.36
-55.64
-63.82
-74.48
-86.99
-99.37
-108.78
-112.61
-109.32
-99.06
-83.45
-65.02
-46.23
-28.88
-13.72
-0.64
10.85
21.10
29.96
36.77
40.76
41.56
39.66
36.45
33.80
33.23
35.25
39.12
43.33
46.31
47.27
46.40
44.55
42.47
40.25
37.26
32.60
25.79
17.30
8.56
1.39
-2.98
-4.63
-5.13
-6.69
-10.85
-17.30
-23.53
-25.70
-20.42
-6.52
14.08
36.90
56.55
68.74
71.64
66.08
54.69
40.64
26.78
15.23
7.40
4.16
5.70
11.30
19.28
27.19
32.54
33.56
29.90
22.62
13.74
5.40
-0.88
-4.43
-5.31
-3.96
-1.03
2.58
5.70
6.84
4.64
-1.67
-11.78
-24.25
-36.93
-47.63
-54.83
-58.16
-58.52
-57.66
-57.42
-58.56
-59.86
-57.79
-47.47
-24.68
11.82
59.13
110.71
158.69
196.71
221.85
234.98
239.47
239.23
237.25
235.06
233.25
232.18
232.38
234.51
238.87
244.92
251.16
255.43
255.55
250.20
239.59
225.59
211.06
198.52
188.88
180.93
171.73
157.99
137.46
109.89
77.05
42.09
8.45
-21.11
-45.18
-63.93
-78.80
-91.94
-105.35
-120.16
-136.19
-152.08
-165.84
-175.69
-180.71
-181.13
-178.25
-173.88
-169.67
-166.58
-164.57
-162.63
-159.23
-152.90
-142.80
-129.06
-112.71
-95.56
-79.82
-67.91
-62.11
-64.14
-74.64
-92.62
-115.22
-137.92
-155.52
-163.57
-159.76
-144.88
-122.63
-98.31
-76.89
-61.14
-50.93
-43.75
-36.35
-26.55
-14.33
-1.69
8.46
13.65
12.82
6.49
-3.69
-15.60
-27.27
-37.27
-44.81
-49.73
-52.23
-52.48
-50.47
-46.02
-39.18
-30.70
-22.20
-15.92
-13.97
-17.43
-25.88
-37.34
-49.01
-58.11
-62.69
-62.04
-56.63
-47.74
-37.04
-26.13
-16.34
-8.66
-3.72
-1.85
-3.01
-6.75
-12.23
-18.37
-24.26
-29.40
-33.81
-37.76
-41.36
-44.21
-45.40
-43.94
-39.21
-31.48
-21.83
-11.73
-2.59
4.83
10.40
14.46
17.44
19.60
20.96
21.47
21.28
20.82
20.71
21.59
23.87
27.51
32.06
36.76
40.75
43.43
44.57
44.39
43.49
42.68
42.83
44.81
49.18
55.94
64.15
71.71
75.63
72.56
59.82
36.32
2.84
-38.18
-83.44
-129.43
-172.75
-209.96
-237.37
-251.34
-249.29
-231.00
-199.45
-160.58
-121.65
-89.00
-65.84
-51.42
-41.62
-30.75
-13.78
12.04
46.50
86.70
127.86
164.41
191.14
204.31
202.65
187.80
164.00
136.76
111.16
90.13
73.90
60.47
47.01
31.29
12.41
-9.36
-33.23
-58.48
-84.29
-109.32
-131.15
-146.58
-152.72
-148.41
-135.21
-117.14
-99.14
-85.11
-76.39
-71.72
-68.44
-64.27
-58.69
-52.93
-49.11
-48.76
-51.96
-57.30
-62.67
-66.32
-67.38
-66.07
-63.29
-60.15
-57.59
-56.20
-56.15
-57.25
-59.03
-60.99
-62.75
-64.24
-65.71
-67.61
-70.42
-74.49
-80.03
-86.98
-95.03
-103.39
-110.64
-114.73
-113.40
-104.85
-88.64
-66.06
-40.00
-13.96
9.12
27.78
42.26
53.88
64.19
74.22
84.26
94.01
102.96
110.64
116.67
120.71
122.52
122.01
119.44
115.41
110.76
106.27
102.48
99.43
96.71
93.56
89.23
83.45
76.90
71.50
70.32
76.83
93.70
121.38
157.18
195.31
228.17
248.46
251.32
235.71
204.37
162.54
116.18
70.27
28.11
-8.70
-39.80
-65.62
-87.07
-105.18
-120.47
-132.36
-138.99
-137.87
-127.20
-107.26
-80.92
-53.02
-28.54
-10.85
-0.66
3.60
4.49
4.12
3.51
2.83
2.28
2.49
4.25
7.58
10.91
11.28
5.60
-7.48
-26.19
-45.89
-60.86
-66.96
-63.64
-54.18
-44.06
-38.27
-39.12
-45.53
-53.91
-60.03
-60.76
-54.91
-43.03
-26.61
-7.33
13.39
34.34
54.23
71.42
83.99
90.03
88.33
78.88
63.34
44.71
26.67
12.48
4.04
1.38
2.82
5.78
7.74
7.11
3.61
-1.87
-7.91
-13.11
-16.59
-17.97
-17.19
-14.32
-9.52
-3.19
3.70
9.55
12.43
10.65
3.54
-8.15
-22.34
-36.16
-46.71
-51.84
-50.48
-42.79
-30.05
-14.38
1.69
15.76
26.19
32.45
35.22
35.97
36.45
37.95
41.02
45.29
49.66
52.70
52.90
49.01
40.29
26.67
8.86
-11.69
-32.96
-52.66
-68.71
-79.59
-84.62
-84.08
-78.98
-70.74
-60.89
-50.86
-41.97
-35.46
-32.43
-33.43
-38.24
-45.64
-53.73
-60.55
-64.90
-66.78
-67.23
-67.67
-68.96
-70.79
-71.62
-69.17
-61.21
-46.38
-24.74
2.06
30.90
57.84
78.93
91.26
93.70
87.24
74.68
59.83
46.34
36.89
32.67
33.41
37.87
44.50
52.10
60.19
69.09
79.69
92.94
109.29
128.24
148.04
165.80
177.95
181.29
174.03
156.60
131.71
103.53
76.34
53.20
35.28
21.97
11.76
3.14
-4.87
-12.54
-19.78
-26.38
-32.14
-36.94
-40.77
-43.77
-46.31
-48.95
-52.25
-56.49
-61.54
-66.78
-71.26
-73.86
-73.47
-69.21
-60.76
-48.47
-33.48
-17.49
-2.45
9.88
18.19
21.79
20.61
15.18
6.63
-3.27
-12.37
-18.42
-19.83
-16.17
-8.67
-0.05
6.08
6.20
-1.94
-18.48
-41.19
-66.01
-88.40
-104.84
-113.98
-117.02
-117.06
-117.82
-122.14
-130.99
-143.19
-155.85
-165.52
-169.21
-165.33
-153.90
-136.28
-114.53
-90.72
-66.63
-43.73
-23.45
-7.16
3.94
9.21
9.00
4.67
-1.61
-7.50
-11.09
-11.30
-8.06
-2.00
5.87
14.71
24.02
33.65
43.58
53.56
62.97
70.76
75.80
77.18
74.52
68.27
59.55
49.98
41.18
34.30
29.64
26.49
23.50
19.17
12.33
2.43
-10.54
-26.07
-43.10
-59.77
-73.46
-81.13
-80.19
-69.40
-49.36
-22.17
9.49
43.38
78.27
113.60
148.86
182.79
213.27
237.72
253.80
260.08
256.30
243.38
223.17
198.26
171.46
145.37
121.90
101.88
85.09
70.47
56.65
42.35
26.65
9.21
-9.72
-29.21
-47.86
-64.09
-76.65
-85.06
-89.85
-92.23
-93.65
-95.08
-96.80
-98.49
-99.56
-99.72
-99.18
-98.56
-98.57
-99.74
-102.28
-106.09
-110.80
-115.59
-119.17
-119.82
-115.84
-106.22
-91.13
-72.00
-50.91
-29.88
-10.14
7.86
24.06
38.29
49.91
58.14
62.49
63.19
61.36
58.65
56.75
56.96
59.86
65.15
71.78
78.10
82.33
82.99
79.41
71.91
61.81
51.09
41.87
35.73
33.21
33.62
35.29
36.40
35.74
33.42
30.82
30.11
33.44
42.28
57.03
76.76
99.18
120.67
136.79
143.22
137.25
119.10
92.26
62.52
36.05
17.23
7.37
4.89
6.59
9.32
11.10
11.33
10.22
8.09
4.96
0.58
-5.27
-12.58
-21.21
-31.04
-42.14
-54.50
-67.61
-80.12
-89.92
-94.66
-92.70
-83.86
-69.85
-53.85
-39.62
-30.31
-27.53
-30.82
-37.99
-45.98
-51.99
-54.43
-53.32
-50.04
-46.64
-44.86
-45.50
-48.15
-51.48
-53.81
-53.72
-50.50
-44.31
-35.97
-26.65
-17.50
-9.45
-3.09
1.31
3.82
4.85
5.24
6.04
8.20
12.32
18.46
26.22
34.99
44.02
52.30
58.45
60.70
57.20
46.65
29.03
5.85
-20.04
-45.13
-66.04
-80.15
-85.99
-83.45
-73.80
-59.65
-44.52
-32.15
-25.53
-26.11
-33.51
-45.74
-59.87
-72.92
-82.51
-87.21
-86.75
-81.84
-73.89
-64.54
-55.09
-46.04
-37.13
-27.63
-16.98
-5.05
7.82
21.18
34.77
48.57
62.50
76.06
88.18
97.49
102.77
103.32
99.10
90.52
78.26
63.19
46.50
29.75
14.73
3.00
-4.60
-8.22
-8.89
-8.14
-7.49
-8.05
-10.47
-14.83
-20.85
-27.95
-35.35
-42.17
-47.65
-51.30
-53.14
-53.71
-53.94
-54.99
-57.87
-63.19
-70.85
-79.92
-88.75
-95.27
-97.51
-94.06
-84.49
-69.30
-49.77
-27.47
-3.97
19.42
41.80
62.63
81.79
99.49
116.16
132.43
148.88
165.92
183.57
201.26
217.75
231.26
239.90
242.27
237.98
227.99
214.42
199.99
187.27
177.84
171.88
168.00
163.49
154.92
138.97
113.38
77.95
35.07
-10.58
-53.12
-87.29
-110.20
-122.43
-127.61
-130.85
-136.56
-146.70
-160.35
-174.73
-187.01
-195.87
-202.00
-207.25
-213.20
-220.15
-226.94
-231.93
-234.07
-233.80
-232.74
-232.87
-235.44
-240.43
-246.67
-252.32
-255.41
-254.16
-247.19
-233.61
-213.33
-187.20
-157.09
-125.49
-95.02
-68.00
-46.15
-30.55
-21.72
-19.54
-23.22
-31.23
-41.52
-52.03
-61.30
-68.86
-75.37
-82.31
-91.46
-104.19
-120.71
-139.54
-157.56
-170.78
-175.50
-169.59
-153.21
-128.52
-98.68
-66.47
-33.35
0.48
35.27
70.61
104.91
135.51
159.84
176.45
185.72
189.61
190.79
191.62
193.48
196.73
201.09
206.23
212.04
218.56
225.69
232.91
239.33
244.01
246.37
246.39
244.54
241.49
237.67
233.01
227.06
219.03
208.19
193.97
176.19
155.10
131.47
106.59
82.09
59.58
40.12
24.05
11.06
0.70
-7.04
-11.59
-12.03
-7.82
0.70
12.20
24.81
36.84
47.25
55.68
62.12
66.51
68.74
68.84
67.21
64.60
61.71
58.72
55.09
49.88
42.32
32.36
20.86
9.18
-1.34
-9.91
-16.48
-21.52
-25.75
-29.83
-34.23
-39.28
-45.17
-52.00
-59.71
-68.05
-76.60
-84.95
-92.87
-100.41
-107.96
-116.09
-125.33
-135.80
-146.77
-156.49
-162.23
-161.00
-150.41
-129.69
-100.17
-65.02
-28.30
6.19
35.97
60.15
79.08
93.71
104.89
113.13
118.72
121.97
123.53
124.28
125.13
126.71
129.18
132.11
134.75
136.22
135.81
133.19
128.52
122.40
115.66
109.12
103.21
97.92
92.67
86.55
78.47
67.44
52.83
34.64
13.82
-7.76
-27.66
-43.69
-54.73
-61.29
-65.28
-69.15
-74.50
-81.13
-86.83
-88.15
-81.91
-66.57
-43.14
-14.94
13.32
37.19
53.94
63.32
67.45
69.64
72.77
77.92
83.80
87.44
85.47
75.70
57.91
33.90
6.60
-20.90
-46.19
-67.73
-84.72
-96.81
-104.01
-106.79
-106.23
-103.92
-101.56
-100.44
-100.93
-102.44
-103.73
-103.52
-101.12
-96.60
-90.76
-84.72
-79.42
-75.31
-72.40
-70.47
-69.21
-68.30
-67.29
-65.49
-62.27
-57.30
-50.92
-44.08
-38.02
-33.68
-31.24
-30.16
-29.70
-29.55
-30.21
-32.77
-38.15
-46.17
-55.30
-62.99
-66.77
-65.31
-58.95
-49.49
-39.32
-30.38
-23.56
-18.65
-14.86
-11.41
-7.98
-4.75
-2.14
-0.52
-0.03
-0.62
-2.21
-4.79
-8.44
-13.12
-18.49
-23.88
-28.43
-31.38
-32.48
-32.24
-31.90
-33.22
-37.89
-46.92
-59.88
-74.54
-87.12
-93.27
-89.46
-74.25
-48.68
-15.65
21.43
60.02
98.92
137.92
176.87
214.83
249.86
279.46
301.19
313.17
314.30
304.41
284.45
256.77
225.05
193.55
165.93
144.04
127.42
113.76
100.22
84.80
67.21
48.73
31.31
16.57
5.00
-3.88
-11.01
-17.01
-21.82
-24.92
-25.87
-24.98
-23.49
-23.08
-25.10
-29.67
-35.54
-40.58
-42.91
-41.91
-38.48
-34.59
-32.14
-31.98
-33.58
-35.41
-35.99
-34.67
-31.89
-28.81
-26.47
-25.16
-24.36
-23.13
-20.76
-17.35
-13.75
-11.12
-10.33
-11.49
-13.91
-16.46
-18.18
-18.78
-18.74
-18.98
-20.26
-22.62
-25.28
-27.04
-26.97
-24.99
-22.00
-19.42
-18.45
-19.34
-21.27
-22.83
-22.80
-20.88
-17.95
-15.51
-14.91
-16.58
-19.77
-22.94
-24.55
-23.86
-21.29
-18.09
-15.64
-14.74
-15.36
-16.83
-18.37
-19.59
-20.60
-21.74
-23.28
-25.21
-27.29
-29.39
-31.66
-34.60
-38.72
-44.18
-50.62
-57.09
-62.28
-64.85
-63.79
-58.63
-49.73
-38.22
-25.69
-13.84
-3.94
3.50
8.72
12.42
15.30
17.71
19.56
20.60
20.68
20.08
19.55
19.92
21.79
25.12
29.14
32.57
34.07
32.79
28.64
22.33
14.91
7.33
0.03
-7.10
-14.52
-22.61
-31.49
-40.98
-50.73
-60.33
-69.27
-76.87
-82.26
-84.58
-83.26
-78.33
-70.43
-60.59
-49.88
-38.99
-28.30
-17.94
-8.14
0.63
7.62
12.08
13.55
12.03
8.10
2.71
-2.96
-7.83
-11.08
-12.24
-11.22
-8.32
-4.18
0.29
3.97
5.82
5.07
1.64
-3.77
-9.72
-14.48
-16.54
-15.17
-10.61
-3.89
3.66
11.03
17.83
24.25
30.70
37.28
43.62
48.97
52.54
54.05
53.93
53.27
53.47
55.77
60.94
69.01
79.16
89.77
98.65
103.31
101.47
91.69
73.92
49.81
22.37
-4.76
-28.43
-46.82
-59.84
-68.83
-75.49
-80.97
-85.20
-87.09
-85.38
-79.55
-70.46
-60.19
-51.29
-45.85
-44.90
-48.36
-55.52
-65.42
-76.99
-88.76
-98.44
-103.02
-99.39
-85.63
-61.99
-31.30
1.69
31.80
54.91
69.02
74.26
72.18
64.70
53.49
39.93
25.41
11.56
0.24
-7.09
-9.90
-8.76
-5.15
-0.62
3.82
8.00
12.24
16.79
21.43
25.42
28.02
28.98
28.84
28.76
29.98
33.36
39.05
46.57
54.89
62.66
68.28
70.20
67.51
60.39
50.39
39.85
31.00
24.66
19.79
13.85
4.17
-10.57
-29.58
-50.13
-68.80
-82.95
-91.65
-95.77
-97.20
-97.64
-97.72
-96.67
-92.92
-85.18
-73.40
-59.31
-46.04
-36.91
-34.17
-37.88
-45.78
-54.05
-58.81
-57.53
-49.90
-37.68
-23.78
-11.00
-1.03
5.87
10.52
14.04
17.21
20.16
22.46
23.55
23.08
21.23
18.77
17.00
17.51
21.84
31.05
45.27
63.46
83.32
101.71
115.18
120.71
116.45
102.28
80.08
53.47
27.03
5.11
-9.42
-15.93
-16.04
-12.86
-9.84
-9.59
-13.23
-20.21
-28.79
-36.88
-42.73
-45.48
-45.33
-43.35
-41.13
-40.31
-42.16
-47.35
-55.82
-66.81
-79.11
-91.27
-101.99
-110.39
-116.20
-119.71
-121.49
-122.23
-122.49
-122.77
-123.45
-124.87
-127.20
-130.45
-134.60
-139.57
-145.27
-151.10
-155.57
-155.96
-148.88
-131.39
-102.36
-63.45
-18.79
26.19
66.61
99.47
124.13
141.69
153.92
162.47
168.49
172.76
175.93
178.47
180.39
181.09
179.48
174.49
165.72
153.76
140.21
127.06
116.11
108.34
103.72
101.24
99.30
96.02
89.66
78.94
63.35
43.42
20.88
-1.59
-20.90
-34.36
-40.55
-39.69
-33.61
-25.00
-16.57
-10.35
-7.27
-7.36
-10.01
-14.41
-19.68
-24.93
-29.32
-32.19
-33.12
-32.07
-29.30
-25.43
-21.34
-18.15
-16.94
-18.47
-22.68
-28.66
-34.79
-39.37
-41.29
-40.36
-37.19
-32.72
-27.64
-22.20
-16.37
-10.24
-4.38
0.20
2.42
1.66
-1.90
-7.39
-13.51
-19.16
-23.77
-27.36
-30.31
-33.09
-36.02
-39.45
-43.82
-49.86
-58.39
-70.02
-84.70
-101.60
-119.37
-136.55
-152.04
-165.04
-174.73
-179.81
-178.33
-168.13
-147.65
-116.91
-77.93
-34.45
9.09
48.82
82.37
109.20
130.23
147.08
161.40
174.38
186.64
198.22
208.61
216.99
222.44
224.36
222.73
218.36
212.64
207.08
202.80
200.23
199.06
198.49
197.56
195.47
191.77
186.42
179.86
172.86
166.24
160.43
155.12
149.10
140.51
127.38
108.34
83.27
53.57
22.04
-7.74
-32.25
-49.00
-57.29
-58.51
-55.91
-53.64
-55.45
-63.54
-77.87
-96.30
-115.51
-132.12
-143.78
-149.65
-150.33
-147.29
-142.20
-136.51
-131.09
-126.39
-122.56
-119.60
-117.40
-115.60
-113.50
-110.05
-104.18
-95.26
-83.54
-70.24
-57.10
-45.64
-36.40
-28.74
-21.23
-12.52
-2.07
9.56
21.11
31.40
39.97
47.26
54.18
61.53
69.42
77.13
83.26
86.17
84.43
77.12
64.16
46.42
25.67
4.23
-15.60
-32.12
-44.56
-53.01
-57.98
-59.88
-58.73
-54.29
-46.47
-35.67
-22.84
-9.30
3.70
15.16
24.34
30.58
33.27
31.93
26.53
17.76
7.09
-3.54
-12.33
-18.17
-21.00
-21.77
-22.03
-23.29
-26.63
-32.40
-40.30
-49.59
-59.33
-68.53
-76.29
-81.80
-84.47
-84.07
-80.77
-75.16
-68.14
-60.70
-53.80
-48.22
-44.53
-43.05
-43.83
-46.74
-51.49
-57.59
-64.17
-69.88
-72.81
-70.91
-62.67
-47.90
-28.17
-6.44
13.86
30.13
41.36
48.19
52.21
54.86
56.81
57.89
57.63
55.88
53.15
50.49
48.95
49.07
50.73
53.29
56.17
59.26
63.11
68.75
77.19
88.94
103.59
119.84
135.63
148.55
156.31
157.09
149.97
135.18
114.27
90.01
65.98
45.70
31.64
24.56
23.26
25.16
27.30
27.35
24.35
18.63
11.28
3.37
-4.47
-12.16
-19.77
-27.27
-34.23
-40.07
-44.47
-47.56
-50.00
-52.60
-55.85
-59.52
-62.68
-64.02
-62.49
-57.97
-51.42
-44.64
-39.58
-37.54
-38.67
-42.08
-46.36
-50.34
-53.62
-56.51
-59.57
-63.07
-66.63
-69.35
-70.28
-68.96
-65.59
-60.90
-55.75
-50.69
-45.89
-41.17
-36.26
-30.97
-25.27
-19.21
-12.86
-6.31
0.31
6.83
13.05
18.86
24.22
29.14
33.52
37.13
39.66
40.94
41.12
40.58
39.69
38.41
36.13
31.86
24.78
14.82
2.89
-9.24
-19.62
-26.73
-30.03
-30.04
-28.18
-26.28
-26.17
-29.18
-36.01
-46.47
-59.67
-74.19
-88.31
-100.26
-108.28
-110.76
-106.47
-95.03
-77.17
-54.74
-30.33
-6.46
15.01
33.24
48.05
59.61
68.13
73.99
78.22
82.75
90.24
103.21
122.94
148.82
178.27
207.57
232.94
251.32
260.81
260.48
250.10
229.95
200.95
164.77
124.01
82.05
42.68
9.36
-15.46
-31.06
-38.52
-40.47
-40.07
-39.97
-41.38
-43.91
-46.23
-46.98
-45.87
-43.90
-42.92
-44.78
-50.36
-59.04
-69.04
-78.13
-84.53
-87.60
-88.02
-87.37
-87.43
-89.45
-93.77
-99.88
-106.72
-113.14
-118.20
-121.25
-121.96
-120.38
-116.93
-112.34
-107.32
-102.13
-96.37
-89.11
-79.25
-66.19
-50.25
-32.67
-15.45
-0.83
9.24
13.57
12.15
6.33
-1.46
-8.52
-12.96
-14.63
-15.13
-17.05
-22.64
-32.83
-46.85
-62.93
-79.18
-94.29
-107.49
-118.10
-125.00
-126.64
-121.52
-108.99
-89.84
-66.24
-41.27
-18.00
1.19
15.03
23.35
26.79
26.41
23.48
19.27
15.07
12.00
10.89
12.09
15.42
20.24
25.79
31.42
36.86
42.13
47.33
52.47
57.25
61.24
63.99
65.29
65.18
63.99
62.12
59.80
57.09
53.70
49.21
43.15
35.08
24.73
12.06
-2.49
-17.79
-31.87
-42.17
-46.23
-42.49
-31.01
-13.57
6.85
27.10
44.79
58.77
68.96
75.80
79.77
81.24
80.62
78.59
76.10
74.07
73.00
72.77
72.76
72.32
71.23
70.00
69.68
71.34
75.51
81.70
88.48
93.96
96.49
95.53
92.15
89.02
89.73
97.68
114.79
140.43
171.19
201.35
224.23
234.05
227.70
205.80
172.60
134.62
98.49
68.86
47.17
31.75
19.06
5.39
-11.78
-33.29
-58.62
-86.50
-115.36
-143.28
-167.86
-186.30
-195.94
-195.22
-184.46
-166.15
-144.27
-123.05
-105.58
-92.95
-84.08
-76.61
-68.11
-57.10
-43.53
-28.60
-13.94
-0.93
9.77
18.18
24.73
29.88
34.03
37.54
40.81
44.23
48.08
52.34
56.64
60.52
63.68
66.16
68.21
70.12
72.01
73.92
76.06
78.86
82.96
88.69
95.55
101.90
105.15
102.46
91.64
71.96
44.28
10.70
-26.02
-63.09
-98.00
-128.60
-153.11
-170.19
-179.11
-180.02
-173.99
-162.90
-149.03
-134.56
-121.01
-108.90
-97.75
-86.52
-74.34
-61.18
-48.20
-37.36
-30.50
-28.32
-29.82
-32.66
-34.17
-32.66
-28.15
-22.27
-17.31
-15.09
-16.17
-19.86
-24.67
-29.07
-31.87
-32.37
-30.23
-25.31
-17.68
-7.74
3.79
15.88
27.51
37.88
46.76
54.39
61.32
68.14
75.12
82.08
88.24
92.43
93.35
90.19
83.02
73.20
63.14
55.61
52.66
54.70
60.05
65.31
66.50
60.48
46.09
24.55
-0.94
-26.39
-48.14
-63.90
-73.06
-76.48
-75.86
-73.07
-69.62
-66.51
-64.23
-62.98
-62.61
-62.71
-62.49
-61.00
-57.39
-51.35
-43.31
-34.43
-26.17
-19.77
-15.79
-14.01
-13.66
-13.82
-13.77
-13.24
-12.40
-11.59
-11.17
-11.28
-11.82
-12.54
-13.18
-13.61
-13.85
-14.07
-14.47
-15.09
-15.75
-16.01
-15.27
-12.91
-8.43
-1.65
7.30
17.82
29.05
39.94
49.55
57.18
62.53
65.64
66.76
66.17
64.01
60.28
54.99
48.23
40.31
31.71
22.95
14.52
6.81
0.08
-5.41
-9.49
-12.00
-12.94
-12.55
-11.31
-9.87
-8.88
-8.83
-9.86
-11.69
-13.78
-15.49
-16.40
-16.38
-15.70
-14.75
-13.83
-13.01
-12.09
-10.78
-8.89
-6.46
-3.78
-1.22
0.83
2.14
2.59
2.18
0.93
-1.08
-3.74
-6.94
-10.49
-14.21
-17.85
-21.11
-23.61
-25.03
-25.17
-24.12
-22.26
-20.08
-18.07
-16.40
-14.95
-13.37
-11.39
-8.94
-6.20
-3.56
-1.36
0.18
1.04
1.36
1.34
1.22
1.24
1.58
2.36
3.52
4.87
6.08
6.83
6.93
6.41
5.53
4.65
4.05
3.78
3.62
3.13
1.90
-0.24
-3.00
-5.78
-7.80
-8.48
-7.64
-5.56
-2.91
-0.43
1.28
1.97
1.76
1.19
1.05
2.03
4.40
7.74
10.96
12.62
11.57
7.60
1.67
-4.25
-7.92
-7.67
-3.06
4.97
14.51
23.42
29.98
33.37
33.72
31.93
29.20
26.64
24.87
23.92
23.41
22.67
21.19
18.81
15.75
12.53
9.56
7.00
4.67
2.28
-0.25
-2.58
-4.04
-4.02
-2.38
0.32
2.97
4.43
4.15
2.55
0.81
0.34
1.89
5.14
8.74
10.93
10.47
7.29
2.52
-1.99
-4.60
-4.63
-2.67
-0.25
0.89
-0.35
-3.94
-8.71
-12.99
-15.40
-15.54
-14.20
-12.95
-13.34
-16.15
-20.97
-26.46
-30.97
-33.29
-33.21
-31.49
-29.48
-28.51
-29.39
-32.28
-36.80
-42.37
-48.43
-54.58
-60.39
-65.27
-68.44
-69.03
-66.47
-60.80
-52.88
-44.06
-35.79
-29.02
-24.04
-20.56
-18.18
-16.77
-16.65
-18.47
-22.72
-29.35
-37.52
-45.80
-52.58
-56.59
-57.21
-54.46
-48.74
-40.58
-30.46
-18.84
-6.38
5.98
17.08
25.91
31.92
35.27
36.74
37.43
38.29
39.88
42.21
45.03
47.93
50.62
52.90
54.55
55.32
54.87
52.92
49.39
44.46
38.45
31.63
23.91
14.76
3.31
-11.26
-29.16
-49.59
-70.64
-89.62
-103.82
-111.30
-111.66
-106.09
-97.00
-87.15
-78.81
-73.14
-70.12
-68.85
-68.11
-66.88
-64.50
-60.84
-56.19
-51.21
-46.84
-44.12
-43.83
-46.20
-50.74
-56.42
-62.06
-66.76
-70.31
-73.09
-75.92
-79.58
-84.58
-90.96
-98.23
-105.42
-111.19
-114.19
-113.48
-109.05
-101.96
-94.22
-88.13
-85.61
-87.60
-93.92
-103.54
-114.96
-126.78
-137.85
-147.41
-155.01
-160.51
-164.08
-166.07
-166.83
-166.40
-164.26
-159.39
-150.65
-137.42
-120.18
-100.74
-81.87
-66.40
-56.36
-52.39
-53.73
-58.55
-64.62
-69.71
-71.88
-69.62
-61.99
-48.93
-31.52
-12.03
6.40
20.63
28.65
30.38
27.82
24.36
23.50
27.53
36.83
49.95
64.42
77.79
88.31
95.01
97.42
95.18
87.90
75.48
58.33
37.61
15.03
-7.50
-28.22
-45.72
-58.95
-67.22
-70.27
-68.32
-62.14
-52.90
-41.94
-30.49
-19.41
-9.04
0.65
9.93
19.21
28.80
38.92
49.64
60.86
72.41
84.09
95.81
107.55
119.45
131.77
144.92
159.36
175.32
192.40
209.30
223.91
233.80
237.05
232.97
222.22
206.53
187.91
168.05
148.05
128.50
109.81
92.34
76.35
61.77
48.12
34.70
21.09
7.62
-4.29
-12.34
-13.89
-6.86
9.46
34.00
64.07
96.05
126.36
152.36
172.76
187.46
197.04
202.09
202.90
199.50
192.05
181.14
167.98
154.09
140.93
129.43
119.77
111.49
103.88
96.33
88.64
80.98
73.68
66.93
60.47
53.66
45.66
35.78
23.83
10.28
-3.99
-17.98
-31.01
-42.93
-54.04
-64.89
-75.94
-87.31
-98.57
-108.53
-115.38
-116.90
-111.08
-96.79
-74.30
-45.34
-12.69
20.66
52.25
80.63
105.20
125.84
142.43
154.65
162.16
165.01
163.84
159.86
154.50
148.90
143.58
138.38
132.79
126.38
119.07
111.22
103.31
95.65
88.07
80.05
70.90
60.31
48.52
36.37
25.04
15.51
8.19
2.69
-2.04
-7.40
-14.66
-24.52
-36.79
-50.34
-63.19
-72.90
-77.11
-74.23
-63.90
-47.16
-26.15
-3.47
18.54
38.34
55.28
69.37
80.82
89.56
95.10
96.66
93.61
85.94
74.55
61.12
47.72
36.13
27.38
21.58
18.26
16.71
16.37
16.91
17.92
18.74
18.38
15.83
10.52
2.62
-6.88
-16.66
-25.50
-32.89
-39.03
-44.81
-51.29
-59.33
-69.25
-80.60
-92.25
-102.38
-108.83
-109.61
-103.47
-90.45
-72.01
-50.67
-29.26
-10.03
5.92
18.63
28.79
37.10
43.76
48.45
50.68
50.26
47.50
43.10
37.82
32.14
26.18
19.84
13.17
6.57
0.74
-3.62
-6.25
-7.52
-8.39
-9.88
-12.65
-16.65
-21.12
-25.03
-27.55
-28.44
-28.13
-27.61
-27.99
-30.31
-35.20
-42.73
-52.28
-62.38
-70.86
-75.21
-73.26
-63.89
-47.43
-25.62
-1.06
23.63
46.39
65.98
81.74
93.27
100.24
102.49
100.33
94.75
87.25
79.41
72.39
66.63
61.88
57.62
53.39
49.02
44.54
39.91
34.86
28.85
21.28
11.81
0.52
-12.06
-25.06
-37.62
-49.15
-59.48
-68.91
-78.07
-87.73
-98.46
-110.62
-124.11
-138.37
-152.29
-164.37
-172.91
-176.47
-174.29
-166.42
-153.64
-137.07
-117.77
-96.46
-73.69
-50.19
-27.24
-6.75
9.14
18.81
21.79
19.05
12.74
5.46
-0.50
-3.69
-3.57
-0.34
5.50
13.26
22.11
31.03
38.82
44.40
47.12
47.02
44.77
41.33
37.56
33.93
30.53
27.20
23.66
19.65
14.99
9.75
4.51
0.59
-0.05
4.70
16.37
35.26
60.15
88.59
117.65
144.64
167.58
185.28
197.03
202.38
201.04
192.95
178.59
159.09
136.10
111.58
87.30
64.45
43.53
24.37
6.47
-10.68
-27.40
-43.72
-59.46
-74.38
-88.21
-100.70
-111.59
-120.60
-127.53
-132.28
-135.02
-136.20
-136.53
-136.87
-137.93
-139.97
-142.45
-143.92
-142.33
-135.60
-122.47
-103.04
-78.95
-52.73
-27.12
-4.20
14.95
30.19
41.81
50.12
55.22
57.16
56.22
53.09
48.82
44.48
40.83
38.14
36.24
34.80
33.61
32.67
32.10
31.85
31.54
30.49
27.98
23.56
17.32
9.88
2.13
-5.12
-11.45
-16.91
-22.01
-27.44
-33.91
-41.85
-51.27
-61.45
-70.87
-77.42
-78.94
-73.99
-62.42
-45.62
-26.07
-6.51
10.90
25.11
36.10
44.41
50.58
54.78
56.86
56.65
54.34
50.58
46.39
42.75
40.20
38.66
37.53
36.03
33.67
30.46
26.90
23.62
20.98
18.85
16.64
13.59
9.18
3.45
-3.03
-9.33
-14.47
-17.78
-19.11
-18.81
-17.69
-16.78
-17.08
-19.36
-23.82
-30.03
-36.80
-42.45
-45.18
-43.66
-37.50
-27.39
-14.88
-1.80
10.39
21.00
30.01
37.75
44.39
49.63
52.80
53.22
50.59
45.24
38.14
30.52
23.54
17.99
14.11
11.66
10.14
8.92
7.53
5.61
3.05
-0.16
-3.94
-8.31
-13.30
-19.03
-25.51
-32.64
-40.20
-47.96
-55.80
-63.71
-71.74
-79.79
-87.66
-95.10
-102.02
-108.61
-115.07
-121.25
-126.20
-128.11
-124.84
-114.82
-97.85
-75.41
-50.18
-25.00
-1.87
18.55
36.77
53.76
70.19
86.03
100.72
113.57
124.21
132.78
139.64
145.00
148.61
149.76
147.56
141.48
131.65
118.83
104.17
88.70
73.05
57.27
41.13
24.33
6.85
-11.04
-28.81
-45.91
-61.84
-76.24
-88.80
-99.20
-107.14
-112.55
-115.77
-117.72
-119.71
-122.95
-127.98
-134.04
-139.06
-140.22
-134.95
-122.07
-102.35
-78.28
-53.21
-30.13
-10.81
4.43
16.28
25.66
33.15
38.78
42.27
43.58
43.22
42.28
42.02
43.36
46.46
50.63
54.68
57.42
58.19
57.08
54.75
51.99
49.30
46.59
43.33
38.82
32.66
24.97
16.33
7.50
-0.89
-8.61
-15.75
-22.62
-29.55
-36.80
-44.68
-53.67
-64.31
-76.94
-91.17
-105.51
-117.42
-123.88
-122.24
-111.25
-91.48
-65.33
-36.26
-7.85
17.12
37.17
52.09
62.46
69.11
72.60
73.19
71.02
66.43
60.13
53.15
46.54
41.03
36.85
33.85
31.66
29.94
28.51
27.28
26.18
25.11
23.83
22.13
19.78
16.59
12.38
7.05
0.61
-6.77
-14.66
-22.49
-29.72
-36.04
-41.47
-46.37
-51.30
-56.73
-62.94
-69.81
-76.88
-83.28
-87.83
-89.15
-85.96
-77.51
-63.97
-46.54
-27.23
-8.27
8.58
22.42
33.20
41.37
47.29
50.97
52.05
50.27
45.81
39.60
33.09
27.76
24.60
23.77
24.64
26.17
27.40
27.82
27.43
26.52
25.30
23.67
21.16
17.15
11.19
3.24
-6.22
-16.35
-26.26
-35.27
-43.15
-50.07
-56.46
-62.85
-69.73
-77.52
-86.51
-96.69
-107.47
-117.51
-124.78
-127.12
-122.96
-112.05
-95.70
-76.46
-57.22
-40.26
-26.67
-16.33
-8.42
-2.14
2.83
6.19
7.41
6.15
2.68
-2.02
-6.56
-9.65
-10.59
-9.54
-7.29
-4.67
-1.95
1.36
6.17
13.20
22.42
33.05
44.11
55.13
66.26
77.98
90.34
102.79
114.56
125.63
137.22
151.37
169.45
190.64
211.40
226.57
231.65
225.02
208.80
188.00
168.46
154.65
148.52
149.66
156.24
166.24
178.05
190.44
202.34
212.48
219.39
221.68
218.52
209.83
196.23
178.70
158.12
134.87
108.77
79.32
46.16
9.57
-29.24
-68.28
-105.24
-138.12
-165.91
-188.81
-207.93
-224.59
-239.47
-252.18
-261.35
-265.39
-263.31
-255.35
-242.94
-228.03
-212.31
-196.53
-180.56
-163.87
-146.21
-127.96
-110.02
-93.28
-78.07
-64.09
-50.80
-38.11
-26.76
-18.21
-13.77
-13.68
-16.51
-19.46
-19.47
-14.40
-3.93
10.47
26.29
40.96
52.74
60.90
65.49
66.86
65.21
60.46
52.32
40.56
25.29
7.28
-12.08
-30.86
-47.01
-58.84
-65.47
-67.04
-64.72
-60.33
-55.90
-53.15
-53.11
-55.86
-60.62
-66.12
-71.12
-75.08
-78.59
-83.27
-91.18
-103.90
-121.62
-142.88
-164.84
-184.27
-198.52
-206.41
-208.60
-207.32
-205.69
-206.59
-211.52
-219.72
-228.12
-232.17
-227.35
-210.83
-182.39
-144.38
-100.51
-54.55
-9.29
33.67
73.79
111.38
147.68
184.63
224.31
267.87
314.51
361.33
404.12
438.86
463.05
476.16
479.15
473.41
459.96
439.30
411.71
377.75
338.40
294.79
248.04
199.36
150.27
102.95
60.07
24.13
-3.24
-21.81
-32.78
-38.39
-41.38
-44.30
-49.07
-56.69
-67.07
-79.20
-91.50
-102.29
-110.40
-115.58
-118.46
-120.22
-121.99
-124.32
-127.01
-129.51
-131.26
-132.18
-132.66
-133.33
-134.74
-137.08
-140.18
-143.55
-146.67
-149.10
-150.52
-150.78
-149.91
-148.13
-145.94
-143.97
-142.82
-142.84
-143.92
-145.48
-146.58
-146.16
-143.28
-137.27
-127.87
-115.22
-99.83
-82.56
-64.41
-46.44
-29.63
-14.80
-2.47
7.13
14.05
18.62
21.29
22.53
22.79
22.40
21.65
20.74
19.86
19.13
18.58
18.10
17.47
16.32
14.33
11.24
6.94
1.53
-4.74
-11.48
-18.33
-24.97
-31.31
-37.47
-43.77
-50.61
-58.26
-66.61
-75.00
-82.25
-86.84
-87.41
-83.19
-74.24
-61.44
-46.14
-29.65
-13.00
3.16
18.43
32.33
44.28
53.69
60.19
63.82
65.04
64.50
62.83
60.45
57.60
54.37
50.85
47.22
43.69
40.49
37.73
35.28
32.80
29.78
25.68
20.22
13.44
5.73
-2.34
-10.24
-17.74
-24.95
-32.32
-40.39
-49.59
-59.94
-70.89
-81.29
-89.66
-94.46
-94.54
-89.43
-79.44
-65.49
-48.79
-30.57
-11.79
6.78
24.51
40.77
54.90
66.28
74.55
79.73
82.20
82.59
81.64
79.96
77.91
75.68
73.27
70.62
67.69
64.50
61.14
57.68
54.09
50.22
45.76
40.39
33.88
26.18
17.58
8.54
-0.41
-8.83
-16.57
-23.77
-30.84
-38.31
-46.68
-56.17
-66.59
-77.28
-87.10
-94.70
-98.71
-98.13
-92.54
-82.19
-67.91
-50.85
-32.21
-13.05
5.78
23.58
39.65
53.34
64.10
71.61
75.96
77.63
77.37
75.95
73.99
71.85
69.63
67.40
65.20
63.11
61.18
59.28
57.14
54.38
50.71
46.02
40.47
34.39
28.15
21.99
15.95
9.88
3.57
-3.25
-10.72
-18.82
-27.37
-36.01
-44.39
-52.25
-59.56
-66.61
-73.97
-82.31
-92.12
-103.34
-115.09
-125.72
-133.12
-135.34
-131.23
-120.91
-105.76
-88.10
-70.54
-55.33
-43.85
-36.46
-32.59
-30.95
-29.89
-27.79
-23.44
-16.53
-7.94
0.33
5.74
6.07
0.38
-10.46
-24.00
-36.93
-46.18
-49.90
-47.89
-41.45
-32.78
-24.11
-16.89
-11.52
-7.36
-3.36
1.28
6.59
11.79
15.72
17.50
16.95
14.52
11.06
7.44
4.53
3.31
4.90
10.20
19.31
30.88
42.22
50.04
51.82
46.97
37.15
25.62
15.88
10.31
9.59
12.96
19.13
27.03
36.17
46.40
57.35
68.20
77.79
85.16
90.06
92.94
94.62
95.73
96.28
95.61
92.65
86.44
76.59
63.62
48.92
34.50
22.33
13.72
8.86
6.77
5.80
4.43
1.96
-1.38
-4.66
-6.96
-7.94
-7.92
-7.75
-8.29
-10.07
-13.13
-17.10
-21.48
-25.95
-30.54
-35.69
-42.17
-50.77
-61.81
-74.68
-87.64
-97.97
-102.64
-99.28
-87.05
-66.97
-41.63
-14.33
12.03
35.68
56.12
73.66
88.70
101.33
111.22
118.06
121.88
123.21
122.91
121.75
120.07
117.77
114.49
109.88
103.92
96.96
89.65
82.64
76.37
70.94
66.00
60.96
55.21
48.46
40.86
32.89
25.10
17.76
10.68
3.35
-4.75
-13.79
-23.42
-32.93
-41.66
-49.36
-56.31
-63.22
-70.88
-79.86
-90.44
-102.53
-115.74
-129.31
-141.97
-152.18
-158.32
-159.28
-154.73
-145.00
-130.57
-111.37
-86.64
-55.43
-17.53
25.61
70.83
114.05
151.64
181.56
203.76
219.63
231.02
239.20
244.47
246.35
244.11
237.35
226.23
211.42
193.89
174.66
154.71
134.94
116.22
99.26
84.46
71.64
59.98
48.14
34.68
18.60
-0.27
-21.11
-42.36
-62.24
-79.35
-93.05
-103.63
-112.12
-119.90
-128.19
-137.62
-147.92
-157.81
-165.24
-167.85
-163.69
-151.85
-132.80
-108.42
-81.41
-54.62
-30.31
-9.78
6.60
19.09
28.16
34.26
37.75
38.99
38.52
37.06
35.42
34.34
34.28
35.38
37.34
39.61
41.50
42.32
41.59
39.12
35.01
29.62
23.36
16.63
9.66
2.51
-4.89
-12.64
-20.79
-29.26
-37.79
-45.97
-53.41
-59.79
-65.10
-69.70
-74.36
-80.06
-87.72
-97.79
-109.92
-122.66
-133.68
-140.19
-139.77
-131.16
-114.67
-92.22
-66.68
-41.07
-17.75
1.98
17.86
30.28
39.80
46.87
51.75
54.60
55.74
55.67
55.05
54.50
54.35
54.47
54.42
53.65
51.87
49.26
46.41
44.01
42.46
41.61
40.80
39.09
35.73
30.43
23.49
15.59
7.55
-0.04
-6.98
-13.48
-20.01
-27.16
-35.45
-45.20
-56.46
-68.86
-81.44
-92.54
-100.02
-101.79
-96.45
-83.95
-65.66
-44.04
-21.76
-0.90
17.50
33.28
46.67
57.77
66.23
71.51
73.28
71.81
68.03
63.22
58.56
54.69
51.64
48.99
46.26
43.26
40.08
37.07
34.46
32.15
29.61
26.05
20.73
13.36
4.25
-5.70
-15.38
-23.90
-30.98
-36.99
-42.77
-49.23
-57.06
-66.58
-77.62
-89.60
-101.36
-111.19
-116.98
-116.69
-109.05
-94.13
-73.51
-49.85
-25.98
-4.14
14.57
30.02
42.51
52.29
59.27
63.23
64.15
62.55
59.47
56.09
53.32
51.45
50.17
48.91
47.19
44.94
42.46
40.13
38.12
36.18
33.64
29.74
23.92
16.09
6.72
-3.40
-13.36
-22.54
-30.71
-38.14
-45.45
-53.38
-62.58
-73.23
-84.88
-96.25
-105.31
-109.76
-107.64
-98.08
-81.70
-60.47
-37.06
-14.03
6.91
25.06
40.44
53.21
63.27
70.18
73.51
73.21
69.94
64.90
59.46
54.69
51.04
48.40
46.33
44.44
42.65
41.12
40.05
39.46
38.96
37.89
35.48
31.22
24.99
17.15
8.34
-0.70
-9.42
-17.59
-25.31
-32.98
-41.09
-50.12
-60.35
-71.60
-83.08
-93.29
-100.22
-101.85
-96.78
-84.79
-67.05
-45.78
-23.54
-2.42
16.36
32.53
46.33
57.98
67.34
73.95
77.38
77.61
75.27
71.53
67.72
64.89
63.42
63.03
62.95
62.35
60.71
57.96
54.48
50.73
47.03
43.28
39.01
33.59
26.50
17.65
7.45
-3.29
-13.64
-22.93
-30.92
-37.84
-44.22
-50.70
-57.80
-65.84
-74.87
-84.57
-94.00
-101.62
-105.36
-103.25
-94.09
-78.06
-56.91
-33.44
-10.62
9.36
25.65
38.52
48.88
57.49
64.54
69.68
72.40
72.50
70.40
67.00
63.36
60.25
57.95
56.25
54.74
53.07
51.09
48.80
46.21
43.26
39.80
35.67
30.91
25.73
20.52
15.62
11.18
6.98
2.62
-2.38
-8.28
-15.01
-22.13
-29.04
-35.31
-40.82
-45.96
-51.51
-58.36
-67.03
-77.33
-88.08
-97.21
-102.27
-101.22
-93.14
-78.70
-59.88
-39.28
-19.27
-1.27
14.33
27.76
39.29
48.84
55.94
60.13
61.33
60.08
57.38
54.33
51.77
50.05
49.16
48.88
49.00
49.37
49.81
50.07
49.76
48.41
45.65
41.36
35.72
29.26
22.59
16.25
10.49
5.17
-0.11
-5.79
-12.11
-19.00
-26.07
-32.80
-38.78
-43.90
-48.46
-53.05
-58.45
-65.33
-73.88
-83.53
-92.79
-99.46
-101.27
-96.67
-85.47
-68.93
-49.31
-29.00
-9.78
7.51
22.77
36.18
47.72
57.04
63.72
67.48
68.54
67.49
65.18
62.36
59.57
57.10
55.02
53.32
52.01
51.15
50.74
50.66
50.61
50.04
48.35
45.04
39.98
33.52
26.40
19.47
13.35
8.14
3.39
-1.64
-7.60
-14.68
-22.53
-30.36
-37.38
-43.12
-47.65
-51.51
-55.48
-60.35
-66.64
-74.57
-83.85
-93.61
-102.30
-107.89
-108.36
-102.37
-89.87
-72.17
-51.62
-30.73
-11.40
5.52
20.04
32.61
43.49
52.53
59.26
63.29
64.63
63.80
61.71
59.36
57.44
56.23
55.57
55.04
54.26
53.07
51.57
49.99
48.49
46.95
44.97
42.03
37.77
32.15
25.58
18.71
12.18
6.36
1.28
-3.41
-8.19
-13.52
-19.58
-26.16
-32.80
-38.93
-44.14
-48.41
-52.05
-55.68
-59.97
-65.47
-72.45
-80.82
-89.98
-98.69
-105.20
-107.58
-104.30
-94.81
-79.93
-61.53
-42.00
-23.36
-6.79
7.42
19.52
29.86
38.48
45.08
49.30
51.01
50.54
48.69
46.46
44.72
43.88
43.84
44.08
44.08
43.55
42.59
41.53
40.61
39.74
38.44
36.08
32.28
27.12
21.23
15.44
10.42
6.37
2.93
-0.54
-4.64
-9.62
-15.28
-21.08
-26.40
-30.82
-34.31
-37.16
-40.00
-43.59
-48.61
-55.47
-64.03
-73.40
-81.97
-87.66
-88.53
-83.41
-72.36
-56.66
-38.40
-19.74
-2.31
13.05
26.20
37.27
46.28
53.06
57.35
59.10
58.67
56.78
54.32
52.05
50.42
49.48
49.06
48.93
48.91
48.97
49.17
49.48
49.74
49.55
48.39
45.80
41.60
35.99
29.59
23.17
17.31
12.13
7.25
1.94
-4.43
-12.02
-20.42
-28.79
-36.26
-42.28
-46.87
-50.55
-54.15
-58.55
-64.42
-72.05
-81.17
-90.78
-99.19
-104.30
-104.19
-97.81
-85.46
-68.72
-49.95
-31.43
-14.68
-0.23
12.14
22.87
32.16
39.80
45.37
48.61
49.74
49.42
48.55
47.92
47.89
48.40
49.07
49.57
49.71
49.59
49.46
49.44
49.39
48.93
47.47
44.53
39.96
34.01
27.27
20.43
14.00
8.13
2.55
-3.28
-9.84
-17.35
-25.57
-33.88
-41.61
-48.26
-53.78
-58.51
-63.08
-68.16
-74.33
-81.87
-90.60
-99.76
-107.92
-113.13
-113.42
-107.50
-95.26
-77.97
-57.90
-37.58
-18.95
-2.94
10.51
21.91
31.72
39.99
46.41
50.64
52.64
52.84
52.01
50.88
49.92
49.18
48.49
47.65
46.71
45.94
45.67
46.01
46.63
46.84
45.82
43.06
38.60
33.06
27.34
22.20
17.91
14.15
10.23
5.49
-0.42
-7.38
-14.91
-22.41
-29.39
-35.69
-41.40
-46.90
-52.75
-59.55
-67.68
-77.02
-86.69
-95.03
-99.94
-99.53
-92.79
-79.94
-62.50
-42.70
-22.81
-4.47
11.53
25.17
36.72
46.41
54.25
60.04
63.66
65.20
65.04
63.78
62.03
60.32
58.93
57.95
57.37
57.11
57.06
57.03
56.69
55.61
53.28
49.38
43.90
37.23
30.05
23.05
16.65
10.79
5.09
-0.99
-7.67
-14.77
-21.77
-28.05
-33.25
-37.45
-41.22
-45.36
-50.68
-57.69
-66.44
-76.22
-85.63
-92.64
-95.14
-91.56
-81.50
-66.04
-47.33
-27.90
-9.85
5.75
18.85
29.95
39.57
47.80
54.34
58.76
60.89
60.98
59.66
57.67
55.63
53.87
52.48
51.46
50.81
50.60
50.81
51.21
51.36
50.64
48.53
44.84
39.77
33.82
27.59
21.48
15.59
9.69
3.40
-3.50
-11.02
-18.80
-26.30
-33.03
-38.76
-43.69
-48.37
-53.57
-60.01
-68.07
-77.53
-87.44
-96.16
-101.64
-101.99
-96.15
-84.31
-67.90
-49.18
-30.43
-13.28
1.66
14.61
26.09
36.42
45.42
52.57
57.34
59.55
59.55
58.04
55.85
53.60
51.62
49.96
48.58
47.45
46.61
46.03
45.55
44.74
43.04
40.02
35.56
30.04
24.11
18.42
13.24
8.31
3.02
-3.28
-10.78
-19.13
-27.58
-35.32
-41.86
-47.25
-52.00
-56.90
-62.68
-69.91
-78.72
-88.65
-98.44
-106.18
-109.66
-107.08
-97.76
-82.51
-63.36
-42.94
-23.51
-6.41
8.11
20.49
31.25
40.59
48.22
53.68
56.59
57.05
55.61
53.12
50.49
48.35
47.00
46.39
46.28
46.37
46.38
46.06
45.18
43.53
40.97
37.45
33.11
28.14
22.79
17.21
11.48
5.63
-0.29
-6.19
-11.91
-17.32
-22.26
-26.68
-30.62
-34.31
-38.24
-43.09
-49.52
-57.70
-67.07
-76.12
-82.70
-84.67
-80.66
-70.62
-55.84
-38.46
-20.72
-4.22
10.35
23.09
34.41
44.56
53.38
60.37
65.02
67.12
67.02
65.46
63.33
61.35
59.82
58.62
57.44
56.01
54.27
52.32
50.28
48.10
45.53
42.24
37.98
32.73
26.71
20.24
13.54
6.70
-0.32
-7.52
-14.80
-21.93
-28.63
-34.73
-40.27
-45.56
-51.12
-57.50
-65.16
-74.11
-83.74
-92.69
-99.08
-100.97
-97.10
-87.37
-72.92
-55.73
-37.84
-20.77
-5.16
8.96
21.74
33.14
42.83
50.30
55.22
57.67
58.13
57.28
55.86
54.34
52.91
51.51
49.98
48.22
46.30
44.46
42.91
41.67
40.42
38.53
35.34
30.45
23.93
16.33
8.46
0.96
-5.89
-12.36
-19.05
-26.57
-35.27
-45.04
-55.39
-65.66
-75.27
-83.98
-91.98
-99.88
-108.57
-118.85
-130.89
-143.93
-156.13
-164.93
-167.93
-163.73
-152.51
-136.05
-117.07
-98.23
-81.40
-67.20
-55.12
-43.88
-31.67
-16.51
3.52
29.78
62.35
99.57
138.09
173.90
203.78
226.62
243.71
257.88
272.00
287.60
304.50
321.23
335.96
347.11
353.37
353.39
345.64
328.64
301.82
266.18
224.53
180.85
139.21
102.65
72.43
47.99
27.41
8.26
-11.33
-31.98
-52.68
-71.16
-84.76
-91.40
-90.41
-82.66
-70.19
-55.49
-40.68
-27.22
-15.86
-6.95
-0.87
1.99
1.36
-2.35
-7.95
-13.47
-16.79
-16.25
-11.22
-2.14
9.76
22.78
35.04
44.57
49.67
49.43
44.42
36.88
30.04
26.58
27.03
29.07
28.22
19.81
0.98
-28.04
-64.31
-103.59
-141.91
-176.38
-205.15
-226.75
-239.82
-243.27
-236.87
-221.64
-199.57
-172.99
-143.70
-112.82
-81.23
-50.27
-22.39
-1.02
10.27
9.09
-4.59
-27.86
-55.34
-80.46
-97.20
-101.72
-93.34
-74.35
-49.06
-22.25
2.09
21.43
34.71
41.83
43.13
39.18
30.85
19.44
6.75
-5.19
-14.56
-20.21
-21.86
-20.13
-16.20
-11.42
-6.99
-3.71
-1.96
-1.93
-3.70
-7.44
-13.27
-21.06
-30.26
-39.90
-48.76
-55.77
-60.23
-62.14
-62.04
-60.93
-59.92
-59.95
-61.54
-64.67
-68.88
-73.45
-77.66
-80.87
-82.58
-82.26
-79.25
-72.86
-62.54
-48.24
-30.56
-10.65
10.16
30.74
50.27
68.01
82.97
93.69
98.66
97.14
89.92
79.50
69.43
63.00
61.97
65.96
72.89
80.07
85.42
88.02
87.96
85.65
81.17
74.11
63.89
50.30
33.96
16.22
-1.16
-16.62
-29.21
-38.75
-45.69
-50.70
-54.41
-57.15
-59.08
-60.40
-61.57
-63.52
-67.34
-73.90
-83.35
-94.68
-105.85
-114.25
-117.57
-114.63
-105.68
-92.35
-76.92
-61.45
-47.27
-34.89
-24.31
-15.59
-9.25
-6.13
-7.07
-12.32
-21.24
-32.28
-43.28
-52.12
-57.07
-57.25
-52.81
-44.89
-35.44
-26.81
-21.28
-20.49
-25.05
-34.46
-47.34
-61.87
-76.31
-89.38
-100.31
-108.72
-114.33
-116.80
-115.85
-111.40
-103.86
-94.22
-83.90
-74.59
-67.95
-65.38
-67.74
-74.78
-84.81
-94.64
-100.11
-97.30
-83.78
-59.49
-26.56
11.57
51.40
90.22
126.25
158.20
184.86
204.96
217.56
222.41
220.22
212.48
201.05
187.79
174.38
162.36
152.99
147.13
144.98
145.93
148.47
150.63
150.47
146.67
138.89
127.84
114.92
101.68
89.33
78.34
68.54
59.23
49.63
39.13
27.51
14.96
2.02
-10.60
-22.28
-32.75
-42.19
-51.21
-60.62
-70.95
-82.07
-93.01
-102.00
-106.87
-105.69
-97.45
-82.54
-62.81
-41.07
-20.37
-3.10
9.55
17.63
22.12
24.32
25.37
25.98
26.42
26.77
27.07
27.38
27.76
28.16
28.35
27.91
26.44
23.67
19.70
14.93
9.90
5.09
0.66
-3.52
-7.81
-12.51
-17.79
-23.62
-29.83
-36.27
-42.77
-49.22
-55.48
-61.49
-67.24
-72.86
-78.62
-84.85
-91.75
-99.30
-106.95
-113.59
-117.61
-117.32
-111.50
-99.97
-83.77
-64.86
-45.42
-27.21
-11.12
2.69
14.38
24.01
31.43
36.54
39.55
41.22
42.57
44.49
47.34
50.85
54.19
56.43
56.78
54.85
50.70
44.66
37.27
29.09
20.57
12.09
3.87
-4.00
-11.61
-19.15
-26.87
-34.92
-43.17
-51.19
-58.41
-64.36
-68.97
-72.67
-76.34
-81.10
-87.96
-97.48
-109.52
-122.97
-135.65
-144.68
-147.09
-140.72
-124.98
-101.12
-71.84
-40.48
-10.03
17.51
41.13
60.58
75.85
86.93
93.92
97.25
97.93
97.52
97.85
100.53
106.53
115.74
126.87
137.79
146.12
150.11
149.39
145.26
140.21
136.97
137.39
141.64
148.28
155.01
159.71
161.17
159.25
154.41
147.10
137.36
124.75
108.79
89.33
66.79
42.19
16.84
-8.06
-31.79
-54.27
-75.83
-96.96
-117.90
-138.44
-158.32
-177.61
-196.93
-217.19
-239.02
-261.94
-284.23
-303.40
-317.16
-324.22
-324.57
-319.03
-308.57
-293.80
-275.12
-253.16
-229.25
-205.35
-183.40
-164.63
-149.04
-135.44
-122.12
-107.55
-90.92
-72.40
-52.95
-33.93
-16.59
-1.77
10.25
19.63
26.71
31.78
35.05
36.86
37.70
38.12
38.39
38.23
36.87
33.42
27.52
19.64
10.96
2.68
-4.73
-11.78
-19.59
-28.99
-39.63
-49.77
-56.84
-58.53
-53.79
-43.20
-28.56
-11.96
5.00
21.79
38.60
55.76
72.98
89.16
102.74
112.39
117.70
119.44
119.28
119.11
120.24
123.04
126.94
130.86
133.78
135.19
135.09
133.88
132.00
129.69
126.99
123.83
120.19
116.09
111.53
106.27
99.80
91.46
80.78
67.83
53.38
38.76
25.35
14.11
5.10
-2.40
-9.71
-18.10
-28.34
-40.37
-53.29
-65.39
-74.55
-78.66
-76.10
-66.25
-49.62
-27.80
-2.96
22.62
47.03
68.95
87.53
102.27
112.86
119.22
121.64
120.85
117.92
113.99
110.05
106.62
103.80
101.37
99.12
96.96
95.01
93.48
92.43
91.58
90.37
88.05
83.97
77.84
69.81
60.46
50.59
40.98
32.18
24.30
17.18
10.45
3.73
-3.13
-10.10
-17.00
-23.66
-30.16
-36.86
-44.34
-53.19
-63.61
-75.08
-86.16
-94.67
-98.16
-94.68
-83.44
-65.22
-42.10
-16.82
8.04
30.65
50.11
66.17
78.77
87.82
93.21
94.93
93.39
89.46
84.24
78.83
74.00
70.10
67.09
64.76
62.93
61.53
60.57
60.00
59.51
58.50
56.17
51.90
45.59
37.83
29.72
22.46
16.71
12.36
8.56
4.24
-1.36
-8.35
-16.13
-23.79
-30.63
-36.43
-41.60
-46.94
-53.36
-61.50
-71.53
-82.95
-94.54
-104.44
-110.51
-110.85
-104.33
-91.06
-72.36
-50.55
-28.27
-7.94
8.69
20.71
28.01
31.07
30.79
28.29
24.75
21.23
18.56
17.24
17.51
19.41
22.77
27.33
32.69
38.39
43.90
48.73
52.42
54.66
55.24
54.12
51.46
47.63
43.17
38.67
34.60
31.15
28.20
25.35
22.09
18.00
12.77
6.37
-1.07
-9.28
-17.90
-26.61
-35.27
-43.88
-52.48
-60.83
-68.23
-73.47
-75.08
-71.90
-63.59
-50.84
-35.17
-18.43
-2.23
12.33
24.74
34.74
42.21
46.98
49.00
48.47
45.95
42.24
38.27
34.85
32.52
31.47
31.59
32.56
33.93
35.23
36.03
35.98
34.77
32.26
28.48
23.62
18.03
12.08
6.07
0.08
-5.97
-12.22
-18.69
-25.22
-31.49
-37.11
-41.84
-45.66
-48.84
-51.91
-55.51
-60.35
-66.95
-75.50
-85.53
-95.80
-104.33
-108.83
-107.29
-98.66
-83.23
-62.62
-39.34
-16.08
4.98
22.53
36.18
46.21
53.14
57.51
59.69
60.00
58.81
56.58
53.86
51.15
48.78
46.88
45.42
44.42
44.06
44.58
46.12
48.49
51.04
52.80
52.73
50.21
45.21
38.37
30.70
23.18
16.39
10.37
4.78
-0.86
-6.88
-13.24
-19.64
-25.67
-31.04
-35.64
-39.60
-43.10
-46.36
-49.46
-52.38
-54.91
-56.55
-56.56
-54.09
-48.43
-39.31
-27.14
-12.97
1.80
15.73
27.68
36.98
43.41
47.06
48.22
47.25
44.64
40.89
36.55
32.18
28.31
25.31
23.43
22.69
22.95
23.84
24.99
26.01
26.61
26.53
25.60
23.64
20.49
16.09
10.57
4.31
-2.17
-8.27
-13.49
-17.59
-20.60
-22.79
-24.65
-26.73
-29.65
-33.92
-39.86
-47.58
-56.91
-67.52
-78.84
-90.06
-100.09
-107.54
-111.06
-109.67
-103.16
-92.35
-78.86
-64.65
-51.50
-40.48
-31.97
-25.78
-21.47
-18.67
-17.05
-16.26
-15.85
-15.28
-14.06
-11.95
-8.94
-5.25
-1.05
3.62
8.94
15.13
22.27
30.20
38.51
46.66
54.11
60.44
65.28
68.27
69.05
67.32
62.94
56.10
47.37
37.67
27.99
19.15
11.48
4.65
-2.21
-10.27
-20.49
-33.19
-47.70
-62.42
-75.18
-83.87
-87.01
-84.20
-76.04
-63.86
-49.28
-33.81
-18.68
-4.80
7.20
16.94
24.27
29.38
32.69
34.78
36.15
37.11
37.75
38.05
38.06
38.09
38.62
40.10
42.71
46.12
49.49
51.77
52.13
50.26
46.45
41.44
35.95
30.41
24.81
18.85
12.23
4.83
-3.18
-11.49
-19.74
-27.67
-35.16
-42.16
-48.74
-55.09
-61.50
-68.23
-75.24
-82.07
-87.69
-90.84
-90.33
-85.54
-76.64
-64.53
-50.52
-35.95
-21.86
-8.90
2.58
12.34
20.12
25.67
28.82
29.72
28.86
27.00
25.08
23.92
24.07
25.65
28.38
31.68
34.82
37.12
38.09
37.57
35.66
32.66
28.88
24.52
19.63
14.15
8.09
1.59
-4.98
-11.17
-16.62
-21.21
-25.12
-28.78
-32.71
-37.37
-43.02
-49.75
-57.39
-65.45
-73.04
-78.96
-81.93
-81.01
-75.91
-67.13
-55.66
-42.57
-28.61
-14.17
0.48
14.77
27.67
37.78
43.87
45.43
43.05
38.20
32.81
28.63
26.72
27.33
30.04
34.11
38.76
43.40
47.61
51.11
53.69
55.12
55.20
53.69
50.44
45.43
38.86
31.22
23.24
15.68
9.10
3.65
-0.90
-5.07
-9.44
-14.45
-20.34
-27.11
-34.46
-41.63
-47.44
-50.42
-49.23
-43.21
-32.76
-19.28
-4.71
9.18
21.31
31.48
40.07
47.59
54.22
59.70
63.45
64.95
64.05
61.18
57.25
53.40
50.61
49.40
49.75
51.13
52.78
53.86
53.71
51.88
48.17
42.57
35.25
26.55
16.89
6.69
-3.63
-13.77
-23.51
-32.74
-41.38
-49.41
-56.86
-63.82
-70.42
-76.89
-83.50
-90.62
-98.51
-107.11
-115.81
-123.30
-127.86
-127.85
-122.27
-111.21
-95.81
-77.87
-59.32
-41.71
-26.06
-12.88
-2.37
5.44
10.73
13.89
15.56
16.48
17.32
18.52
20.27
22.56
25.31
28.42
31.81
35.36
38.94
42.35
45.37
47.82
49.57
50.56
50.72
49.89
47.82
44.20
38.93
32.28
24.92
17.83
11.86
7.36
4.03
1.00
-2.76
-8.05
-15.11
-23.68
-33.05
-42.30
-50.36
-56.11
-58.50
-56.76
-50.67
-40.71
-27.96
-13.80
0.52
14.11
26.58
37.80
47.62
55.72
61.54
64.50
64.28
60.97
55.20
48.01
40.63
34.17
29.40
26.63
25.75
26.33
27.83
29.76
31.68
33.26
34.21
34.22
33.09
30.69
27.02
22.22
16.50
10.17
3.57
-2.92
-8.98
-14.43
-19.26
-23.70
-28.15
-33.05
-38.84
-45.78
-53.72
-61.98
-69.26
-73.86
-74.16
-69.18
-59.01
-44.80
-28.39
-11.63
4.11
18.19
30.44
40.82
49.10
54.80
57.47
56.95
53.60
48.31
42.22
36.46
31.90
28.93
27.47
27.09
27.20
27.30
27.00
26.13
24.66
22.59
19.82
16.18
11.49
5.61
-1.38
-9.19
-17.40
-25.63
-33.62
-41.27
-48.69
-56.09
-63.80
-72.21
-81.65
-92.23
-103.52
-114.43
-123.22
-127.91
-126.90
-119.43
-105.89
-87.66
-66.66
-44.81
-23.67
-4.24
12.88
27.36
38.94
47.42
52.70
54.94
54.63
52.59
49.75
46.97
44.80
43.40
42.61
42.17
41.84
41.46
40.99
40.31
39.23
37.42
34.53
30.27
24.52
17.41
9.32
0.81
-7.52
-15.22
-22.08
-28.26
-34.15
-40.24
-46.93
-54.43
-62.72
-71.48
-80.05
-87.43
-92.32
-93.49
-90.14
-82.18
-70.36
-55.99
-40.52
-25.12
-10.54
2.84
14.70
24.60
31.99
36.40
37.80
36.76
34.41
32.07
30.82
31.18
32.99
35.70
38.61
41.17
43.05
44.06
44.05
42.87
40.40
36.61
31.69
25.94
19.76
13.56
7.62
2.16
-2.79
-7.31
-11.58
-15.83
-20.30
-25.26
-30.93
-37.36
-44.26
-50.85
-55.78
-57.43
-54.41
-46.09
-32.93
-16.48
1.06
17.53
31.36
41.78
48.80
52.81
54.29
53.62
51.12
47.23
42.58
37.98
34.27
31.99
31.25
31.72
32.78
33.85
34.54
34.74
34.52
33.88
32.65
30.49
27.11
22.44
16.77
10.67
4.78
-0.44
-4.89
-8.82
-12.74
-17.25
-22.80
-29.62
-37.55
-45.98
-53.92
-60.04
-62.98
-61.71
-55.88
-46.05
-33.60
-20.35
-8.00
2.38
10.62
17.22
22.92
28.15
32.77
36.12
37.48
36.51
33.49
29.28
24.89
21.11
18.21
15.93
13.71
11.05
7.79
4.14
0.62
-2.25
-4.20
-5.37
-6.31
-7.78
-10.39
-14.38
-19.45
-24.90
-29.97
-34.10
-37.14
-39.33
-41.15
-43.14
-45.73
-49.19
-53.47
-58.11
-62.18
-64.34
-63.20
-57.74
-47.76
-33.96
-17.77
-0.84
15.35
29.84
42.19
52.33
60.33
66.26
70.14
72.09
72.31
71.21
69.37
67.39
65.76
64.77
64.33
64.09
63.62
62.57
60.84
58.58
56.04
53.39
50.60
47.40
43.52
38.78
33.28
27.33
21.32
15.48
9.87
4.33
-1.38
-7.43
-13.87
-20.63
-27.69
-35.10
-43.04
-51.60
-60.53
-69.00
-75.61
-78.71
-76.97
-69.89
-58.18
-43.55
-28.17
-13.93
-1.96
7.51
14.81
20.39
24.38
26.53
26.52
24.23
20.05
14.83
9.64
5.39
2.55
1.12
0.80
1.19
1.99
3.02
4.17
5.29
6.17
6.52
6.08
4.71
2.40
-0.71
-4.41
-8.42
-12.51
-16.51
-20.41
-24.27
-28.25
-32.50
-37.19
-42.43
-48.26
-54.57
-60.95
-66.56
-70.18
-70.48
-66.54
-58.24
-46.44
-32.74
-18.91
-6.29
4.50
13.53
21.14
27.59
32.77
36.32
37.91
37.56
35.68
32.96
30.09
27.52
25.32
23.38
21.48
19.53
17.56
15.66
13.79
11.72
9.11
5.67
1.23
-4.06
-9.89
-15.86
-21.56
-26.73
-31.19
-34.96
-38.18
-41.18
-44.34
-48.02
-52.35
-57.16
-61.99
-66.24
-69.30
-70.63
-69.66
-65.76
-58.17
-46.19
-29.50
-8.43
15.90
41.80
67.33
90.82
111.06
127.42
139.60
147.42
150.69
149.32
143.50
133.95
121.92
109.06
96.87
86.27
77.44
69.85
62.71
55.50
48.29
41.67
36.37
32.77
30.60
29.03
27.06
23.95
19.59
14.40
9.09
4.21
0.01
-3.63
-7.02
-10.49
-14.22
-18.37
-23.15
-28.93
-36.21
-45.45
-56.76
-69.56
-82.48
-93.43
-100.20
-101.10
-95.65
-84.75
-70.45
-55.17
-40.99
-29.12
-19.92
-13.29
-9.03
-7.10
-7.57
-10.27
-14.62
-19.49
-23.48
-25.21
-23.75
-18.83
-10.97
-1.34
8.54
17.24
23.72
27.63
29.23
29.19
28.24
26.85
25.21
23.20
20.65
17.48
13.75
9.61
5.13
0.29
-4.97
-10.67
-16.65
-22.63
-28.36
-33.81
-39.23
-45.00
-51.24
-57.49
-62.52
-64.62
-62.17
-54.41
-41.77
-25.85
-8.86
7.19
20.97
32.09
40.74
47.27
51.87
54.46
54.97
53.56
50.80
47.53
44.62
42.62
41.62
41.20
40.71
39.50
37.19
33.75
29.45
24.70
19.81
14.80
9.45
3.34
-3.83
-12.10
-21.11
-30.17
-38.55
-45.69
-51.40
-55.90
-59.69
-63.37
-67.52
-72.56
-78.61
-85.39
-92.08
-97.33
-99.58
-97.45
-90.24
-78.26
-62.83
-45.77
-28.91
-13.52
-0.16
11.18
20.70
28.46
34.26
37.78
38.83
37.64
34.84
31.40
28.20
25.89
24.66
24.25
24.18
23.89
22.99
21.34
19.02
16.29
13.41
10.55
7.76
4.90
1.81
-1.72
-5.82
-10.52
-15.75
-21.36
-27.13
-32.88
-38.39
-43.58
-48.49
-53.35
-58.55
-64.44
-70.94
-77.34
-82.25
-83.92
-80.85
-72.37
-58.95
-42.07
-23.65
-5.50
11.16
25.72
37.96
47.77
54.96
59.35
60.97
60.20
57.74
54.45
51.08
48.12
45.72
43.80
42.17
40.64
39.08
37.37
35.46
33.23
30.61
27.49
23.84
19.66
15.03
10.03
4.71
-0.90
-6.75
-12.80
-18.96
-25.11
-31.17
-37.08
-42.89
-48.72
-54.76
-61.24
-68.32
-75.87
-83.31
-89.50
-92.91
-91.96
-85.58
-73.57
-56.68
-36.39
-14.51
7.28
27.60
45.40
59.90
70.46
76.72
78.73
77.05
72.69
66.89
60.81
55.31
50.74
47.06
43.97
41.13
38.24
35.14
31.73
27.99
23.91
19.53
14.93
10.22
5.41
0.44
-4.86
-10.65
-16.97
-23.66
-30.36
-36.65
-42.21
-46.96
-51.14
-55.27
-59.98
-65.85
-73.26
-82.08
-91.48
-100.01
-105.79
-107.02
-102.54
-92.27
-77.24
-59.24
-40.32
-22.14
-5.79
8.26
19.88
29.04
35.74
40.08
42.39
43.29
43.58
44.01
45.11
47.06
49.68
52.65
55.63
58.35
60.67
62.44
63.44
63.42
62.15
59.60
56.00
51.72
47.13
42.40
37.42
31.92
25.71
18.84
11.66
4.63
-1.88
-7.75
-13.17
-18.48
-24.02
-30.13
-37.05
-44.81
-53.08
-60.86
-66.59
-68.43
-64.89
-55.55
-41.26
-23.95
-5.91
10.91
25.43
37.44
47.28
55.32
61.70
66.25
68.72
69.07
67.62
65.03
62.11
59.58
57.78
56.74
56.21
55.88
55.62
55.45
55.40
55.32
54.79
53.19
49.97
44.97
38.56
31.51
24.69
18.66
13.45
8.63
3.58
-1.98
-7.88
-13.47
-18.03
-21.18
-23.21
-25.00
-27.65
-32.11
-38.81
-47.51
-57.34
-66.86
-74.30
-77.85
-76.09
-68.48
-55.62
-39.16
-21.32
-4.24
10.60
22.58
31.73
38.38
42.79
45.11
45.51
44.34
42.25
40.00
38.19
37.05
36.44
35.94
35.12
33.85
32.29
30.81
29.74
29.19
28.89
28.35
27.04
24.64
21.17
16.99
12.57
8.32
4.36
0.52
-3.55
-8.12
-13.22
-18.59
-23.76
-28.29
-31.98
-34.94
-37.59
-40.57
-44.57
-50.21
-57.67
-66.48
-75.34
-82.24
-85.01
-81.97
-72.64
-57.82
-39.39
-19.58
-0.37
16.88
31.47
43.07
51.53
56.75
58.77
57.96
54.99
50.76
46.19
41.99
38.53
35.92
34.00
32.57
31.44
30.50
29.70
28.99
28.26
27.26
25.70
23.31
19.96
15.74
10.93
5.85
0.70
-4.52
-9.97
-15.81
-22.03
-28.43
-34.65
-40.35
-45.42
-50.00
-54.57
-59.71
-65.95
-73.45
-81.74
-89.59
-95.27
-96.90
-93.16
-83.79
-69.66
-52.53
-34.38
-16.79
-0.67
13.65
26.14
36.66
44.89
50.53
53.49
54.12
53.12
51.33
49.43
47.80
46.51
45.54
44.87
44.59
44.78
45.37
46.01
46.06
44.86
41.91
37.16
31.04
24.27
17.53
11.24
5.42
-0.18
-5.87
-11.84
-18.06
-24.38
-30.63
-36.70
-42.54
-48.21
-53.79
-59.45
-65.47
-72.07
-79.17
-86.09
-91.52
-93.78
-91.39
-83.65
-71.03
-54.98
-37.50
-20.41
-4.90
8.56
19.99
29.50
36.97
42.10
44.55
44.30
41.73
37.70
33.18
29.02
25.65
23.04
20.79
18.49
15.88
13.05
10.27
7.88
6.08
4.90
4.25
4.03
4.18
4.62
5.16
5.44
5.01
3.47
0.68
-3.18
-7.66
-12.30
-16.77
-21.05
-25.39
-30.19
-35.92
-42.98
-51.55
-61.43
-71.79
-81.13
-87.59
-89.42
-85.58
-76.22
-62.61
-46.73
-30.59
-15.64
-2.55
8.63
18.12
26.08
32.49
37.26
40.42
42.29
43.48
44.66
46.40
48.98
52.30
56.07
59.92
63.55
66.71
69.17
70.62
70.70
69.11
65.70
60.56
54.02
46.51
38.51
30.40
22.46
14.82
7.54
0.59
-6.16
-12.81
-19.47
-26.14
-32.87
-39.78
-47.03
-54.78
-62.78
-70.22
-75.71
-77.61
-74.62
-66.26
-53.18
-36.90
-19.37
-2.30
13.16
26.52
37.64
46.55
53.21
57.54
59.51
59.33
57.49
54.74
51.97
49.94
49.06
49.26
50.03
50.70
50.72
49.86
48.24
46.13
43.78
41.22
38.36
35.01
31.08
26.50
21.26
15.33
8.70
1.42
-6.27
-13.98
-21.26
-27.83
-33.68
-39.13
-44.75
-51.09
-58.50
-66.82
-75.30
-82.64
-87.18
-87.40
-82.34
-71.93
-57.13
-39.55
-21.11
-3.44
12.37
25.79
36.67
45.01
50.74
53.86
54.47
52.94
49.98
46.47
43.22
40.81
39.38
38.73
38.42
38.01
37.18
35.79
33.87
31.52
28.80
25.66
21.95
17.45
12.02
5.70
-1.25
-8.40
-15.31
-21.69
-27.51
-32.91
-38.17
-43.62
-49.58
-56.31
-63.77
-71.47
-78.16
-82.05
-81.25
-74.45
-61.57
-43.91
-23.76
-3.62
14.52
29.69
41.75
51.00
57.70
61.83
63.17
61.63
57.57
51.83
45.60
40.01
35.75
32.91
31.04
29.46
27.56
25.12
22.25
19.28
16.46
13.80
11.01
7.57
3.04
-2.80
-9.80
-17.48
-25.18
-32.30
-38.46
-43.68
-48.28
-52.75
-57.62
-63.27
-69.86
-77.26
-84.91
-91.77
-96.40
-97.25
-93.12
-83.62
-69.44
-52.14
-33.75
-16.10
-0.38
12.86
23.59
31.86
37.54
40.47
40.59
38.30
34.47
30.23
26.63
24.18
22.83
22.05
21.18
19.77
17.73
15.29
12.76
10.27
7.67
4.57
0.51
-4.78
-11.19
-18.26
-25.30
-31.59
-36.67
-40.40
-42.93
-44.64
-45.97
-47.37
-49.26
-51.94
-55.44
-59.34
-62.60
-63.79
-61.40
-54.49
-43.07
-28.13
-11.38
5.42
20.91
34.42
45.76
54.95
61.94
66.45
68.28
67.46
64.49
60.24
55.79
52.10
49.74
48.78
48.88
49.45
49.89
49.74
48.73
46.82
44.04
40.52
36.39
31.75
26.67
21.12
15.03
8.39
1.31
-5.95
-13.00
-19.48
-25.19
-30.13
-34.49
-38.61
-42.91
-47.79
-53.53
-59.96
-66.31
-71.18
-72.73
-69.37
-60.32
-46.04
-28.18
-9.03
9.20
24.97
37.63
47.31
54.47
59.53
62.70
64.06
63.78
62.22
59.98
57.72
55.99
55.03
54.76
54.85
54.91
54.60
53.73
52.24
50.11
47.32
43.79
39.49
34.41
28.64
22.39
15.85
9.14
2.29
-4.75
-12.04
-19.50
-26.91
-33.93
-40.34
-46.17
-51.81
-57.94
-65.21
-73.95
-83.82
-93.65
-101.60
-105.70
-104.39
-97.12
-84.50
-68.11
-49.98
-32.01
-15.56
-1.39
10.23
19.21
25.55
29.41
31.16
31.47
31.17
31.01
31.51
32.79
34.69
36.86
38.98
40.77
42.07
42.76
42.72
41.83
39.98
37.15
33.38
28.76
23.37
17.27
10.53
3.35
-3.96
-10.94
-17.19
-22.49
-26.95
-31.01
-35.27
-40.31
-46.48
-53.81
-61.87
-69.85
-76.52
-80.38
-79.96
-74.18
-62.83
-46.75
-27.72
-7.94
10.55
26.40
39.12
48.86
56.04
61.00
63.88
64.72
63.67
61.17
57.89
54.62
51.95
50.08
48.86
47.87
46.72
45.18
43.23
40.97
38.45
35.59
32.22
28.14
23.30
17.76
11.65
5.13
-1.75
-8.88
-16.16
-23.30
-29.99
-35.90
-40.89
-45.02
-48.58
-52.01
-55.84
-60.46
-65.97
-71.91
-77.10
-79.92
-78.69
-72.28
-60.66
-44.94
-27.00
-8.90
7.73
22.03
33.77
43.05
49.96
54.44
56.45
56.10
53.85
50.43
46.69
43.37
40.90
39.43
38.89
39.10
39.83
40.81
41.74
42.29
42.21
41.41
40.00
38.26
36.46
34.73
33.01
30.99
28.28
24.45
19.27
12.72
5.04
-3.28
-11.62
-19.41
-26.29
-32.26
-37.70
-43.24
-49.55
-57.03
-65.57
-74.41
-82.15
-87.08
-87.66
-82.98
-73.12
-59.09
-42.60
-25.58
-9.70
3.89
14.61
22.32
27.16
29.33
29.13
26.92
23.25
18.76
14.21
10.21
7.16
5.16
4.05
3.58
3.54
3.79
4.24
4.77
5.18
5.22
4.72
3.63
2.07
0.29
-1.44
-2.97
-4.24
-5.29
-6.11
-6.54
-6.23
-4.66
-1.23
4.43
12.25
21.53
30.84
38.26
41.77
39.93
32.49
20.66
6.96
-5.57
-14.36
-18.17
-17.33
-13.44
-8.46
-3.98
-0.77
1.11
1.87
1.57
-0.05
-3.26
-7.97
-13.46
-18.56
-22.05
-23.17
-21.82
-18.39
-13.23
-6.19
3.47
16.60
33.44
53.08
73.51
92.25
107.16
116.95
121.14
119.70
112.67
100.16
82.62
61.19
37.64
14.00
-8.04
-27.62
-44.68
-59.67
-73.11
-85.38
-96.59
-106.79
-115.99
-124.19
-131.34
-137.46
-142.53
-146.54
-149.32
-150.52
-149.72
-146.79
-142.14
-136.75
-131.91
-128.62
-127.22
-127.40
-128.55
-130.24
-132.33
-134.72
-136.82
-137.31
-134.43
-126.64
-113.42
-95.51
-74.75
-53.35
-33.40
-16.60
-4.30
2.24
2.03
-5.50
-19.97
-39.99
-63.28
-87.23
-109.54
-128.66
-144.05
-155.89
-164.79
-171.28
-175.57
-177.38
-176.08
-170.94
-161.46
-147.52
-129.54
-108.34
-84.92
-60.18
-34.74
-8.97
16.86
42.29
66.52
88.60
107.72
123.63
136.90
148.76
160.72
174.03
189.28
206.21
223.88
241.09
256.74
270.18
281.21
289.95
296.58
301.36
304.72
307.63
311.71
318.87
330.33
345.66
362.20
375.44
380.44
373.50
353.29
320.93
279.33
232.48
184.97
141.82
107.94
87.07
80.48
86.11
98.93
112.55
121.54
123.07
117.30
106.30
92.32
76.48
58.36
36.74
10.78
-19.06
-50.63
-80.49
-104.60
-118.96
-120.27
-106.24
-75.92
-30.31
27.00
89.58
148.80
195.68
223.20
228.37
212.93
182.38
143.74
103.21
64.70
29.54
-2.87
-34.00
-65.54
-99.27
-137.00
-180.36
-229.90
-283.97
-338.11
-385.42
-418.28
-430.83
-421.04
-391.48
-348.29
-298.93
-249.72
-204.49
-164.68
-130.70
-103.29
-83.94
-74.24
-74.46
-82.47
-93.84
-103.04
-105.25
-97.95
-81.64
-59.28
-34.93
-12.42
5.62
17.92
24.11
24.17
18.25
6.99
-8.08
-24.39
-38.91
-49.33
-55.14
-58.07
-61.33
-68.00
-79.54
-94.98
-111.50
-125.74
-135.12
-138.52
-136.02
-128.31
-116.10
-100.06
-80.97
-59.98
-38.52
-18.05
0.17
15.19
26.33
33.25
36.15
36.06
34.89
35.11
38.78
46.71
58.00
70.35
81.13
88.58
92.54
94.27
95.58
97.75
100.71
103.11
102.97
98.62
89.49
76.22
60.28
43.17
25.83
8.28
-10.12
-30.01
-51.34
-72.85
-92.04
-105.76
-111.10
-106.37
-91.84
-69.78
-43.98
-18.55
3.18
19.62
31.24
40.10
49.00
60.34
75.31
93.45
112.78
130.39
143.21
148.77
145.87
134.82
117.42
96.37
74.62
54.69
38.12
25.41
16.18
9.50
4.22
-0.86
-6.77
-14.32
-23.81
-34.88
-46.49
-57.08
-64.91
-68.54
-67.09
-60.44
-49.17
-34.46
-17.93
-1.33
13.82
26.69
37.40
46.99
56.97
68.54
81.79
95.29
106.38
112.05
110.08
99.85
82.61
60.85
37.39
14.40
-7.04
-26.67
-44.55
-60.55
-74.24
-85.27
-93.84
-101.01
-108.37
-117.38
-128.60
-141.25
-153.41
-162.77
-167.56
-167.34
-163.11
-156.94
-150.94
-146.40
-143.07
-138.99
-130.97
-115.34
-88.95
-50.21
0.16
58.70
119.47
175.10
218.56
244.96
252.89
244.64
225.05
199.78
173.46
148.71
126.23
105.58
86.22
68.10
51.58
37.16
25.02
14.91
6.29
-1.34
-8.13
-13.88
-18.10
-20.24
-19.92
-17.20
-12.72
-7.71
-3.91
-3.11
-6.70
-14.97
-26.79
-39.65
-50.27
-55.53
-53.52
-44.13
-29.03
-10.98
7.04
22.69
34.54
41.94
44.74
43.03
37.13
27.73
15.94
3.15
-9.38
-20.85
-31.17
-40.76
-50.27
-60.19
-70.63
-81.30
-91.66
-100.97
-108.51
-113.65
-116.11
-116.11
-114.42
-112.15
-110.33
-109.21
-107.80
-103.87
-94.37
-76.25
-47.44
-7.63
41.43
96.13
151.68
203.19
246.64
279.66
301.74
313.99
318.51
317.55
312.93
305.61
295.77
283.06
267.08
247.68
225.21
200.45
174.51
148.66
124.27
102.81
86.14
76.44
75.86
85.80
106.09
134.47
166.73
197.55
221.70
235.26
236.36
225.20
203.42
173.53
138.36
100.86
64.02
30.54
2.29
-20.43
-38.98
-55.83
-73.23
-92.01
-111.20
-128.80
-143.25
-154.66
-164.92
-176.47
-190.62
-206.40
-220.83
-230.43
-233.20
-229.78
-223.11
-216.95
-213.94
-214.49
-216.88
-218.35
-216.47
-210.03
-199.42
-186.26
-172.98
-162.34
-156.94
-158.62
-167.63
-182.16
-198.30
-211.05
-215.83
-209.87
-192.90
-166.82
-134.67
-99.63
-64.51
-31.62
-3.09
19.08
33.16
37.96
33.05
18.86
-3.21
-30.72
-60.19
-87.53
-108.76
-121.13
-123.95
-118.60
-107.85
-94.59
-80.79
-67.34
-54.57
-43.15
-34.69
-31.44
-35.39
-47.10
-65.04
-85.75
-104.74
-117.74
-121.67
-115.23
-98.75
-73.80
-42.72
-8.25
26.76
59.56
87.73
109.31
122.93
127.87
124.21
112.97
96.13
76.45
56.80
39.53
25.90
16.02
9.38
5.50
4.57
7.80
17.11
34.64
62.04
99.69
146.06
197.43
248.31
292.71
325.95
346.26
355.25
357.00
355.90
354.51
352.60
347.65
336.65
318.04
292.77
264.00
235.61
210.55
189.80
172.52
156.89
141.21
124.66
107.21
89.19
70.59
50.82
28.85
3.65
-25.22
-57.27
-91.11
-124.79
-156.29
-183.87
-206.33
-222.90
-233.26
-237.60
-236.77
-232.45
-226.98
-222.65
-220.62
-220.10
-218.31
-211.59
-197.01
-173.70
-142.99
-107.24
-68.38
-27.37
15.17
57.52
96.20
126.62
144.83
149.45
142.32
127.41
108.84
88.90
67.48
42.74
12.47
-24.33
-66.86
-112.42
-157.13
-196.91
-228.48
-249.83
-260.35
-260.48
-251.41
-235.08
-214.28
-192.61
-173.69
-159.87
-151.23
-145.53
-139.48
-130.62
-118.66
-105.31
-92.65
-81.26
-69.43
-53.98
-32.23
-3.80
28.71
60.62
86.90
103.92
110.35
107.02
96.21
80.84
63.72
47.23
33.22
23.01
17.58
17.73
24.09
36.78
54.85
75.81
95.63
109.67
114.20
107.91
92.73
73.38
55.55
43.70
39.33
40.75
44.24
46.05
44.18
38.95
32.23
26.02
21.31
17.90
15.13
12.71
10.93
10.07
9.44
7.10
0.65
-11.22
-27.42
-44.43
-57.91
-64.79
-64.86
-60.66
-56.03
-54.18
-56.44
-62.28
-70.08
-78.11
-84.93
-89.40
-90.44
-87.24
-79.73
-68.97
-56.98
-45.88
-36.92
-29.98
-23.85
-17.18
-9.59
-2.02
3.73
6.18
5.24
2.69
1.62
5.09
14.54
28.90
44.84
58.12
65.40
65.75
60.88
54.15
48.82
46.49
46.38
46.04
42.79
35.24
23.95
11.13
-0.62
-9.57
-15.55
-19.66
-23.35
-27.50
-31.96
-35.85
-38.29
-38.97
-38.34
-37.30
-36.65
-36.70
-37.16
-37.33
-36.39
-33.72
-29.23
-23.48
-17.58
-12.93
-10.60
-11.02
-13.67
-17.49
-21.28
-24.27
-26.34
-27.80
-29.07
-30.30
-31.34
-31.78
-31.29
-29.85
-27.77
-25.59
-23.83
-22.77
-22.37
-22.42
-22.70
-23.16
-23.89
-24.85
-25.58
-25.11
-22.28
-16.28
-7.27
3.40
13.57
21.06
24.57
24.17
21.20
17.53
14.67
13.14
12.38
11.23
8.77
4.89
0.59
-2.38
-2.15
2.58
12.11
25.71
41.92
59.03
75.57
90.54
103.62
115.01
125.26
134.95
144.32
153.12
160.51
165.32
166.44
163.21
155.53
143.83
128.78
111.01
90.98
69.10
45.94
22.34
-0.43
-20.95
-37.90
-50.50
-58.79
-63.83
-67.66
-72.94
-82.21
-96.93
-116.74
-139.25
-160.60
-176.63
-184.23
-182.39
-172.53
-158.16
-143.97
-134.55
-133.16
-140.68
-155.27
-172.99
-189.30
-200.93
-207.28
-210.49
-214.11
-221.12
-232.21
-245.53
-257.64
-264.99
-265.05
-256.66
-239.48
-213.55
-179.19
-137.43
-90.35
-40.91
7.88
54.25
98.45
142.53
188.90
238.41
288.91
335.19
370.71
390.01
390.95
375.33
347.79
313.46
275.75
235.45
191.24
141.02
83.21
17.43
-55.14
-131.38
-206.05
-271.91
-320.99
-346.69
-346.21
-321.74
-279.88
-229.42
-178.42
-132.26
-93.22
-61.44
-36.34
-17.54
-4.92
1.90
3.95
2.89
0.56
-1.73
-3.46
-5.01
-7.18
-10.68
-15.75
-21.99
-28.41
-33.62
-36.23
-35.21
-30.14
-21.31
-9.58
4.18
19.35
35.88
54.23
75.10
99.13
127.00
159.70
198.34
243.33
292.91
342.01
382.33
404.49
401.34
371.00
318.06
252.07
184.03
122.66
72.34
33.31
3.54
-18.97
-35.14
-45.05
-48.94
-48.09
-44.75
-41.27
-39.08
-38.22
-37.37
-34.78
-29.21
-20.51
-9.73
1.11
9.65
13.82
12.64
6.78
-1.29
-7.81
-8.85
-1.84
13.38
34.51
57.71
79.19
96.56
109.22
117.74
122.70
123.93
120.40
111.02
95.56
75.20
52.15
28.87
7.14
-12.31
-29.65
-45.44
-60.05
-73.53
-85.85
-97.12
-107.66
-117.66
-126.81
-134.15
-138.37
-138.48
-134.57
-127.86
-120.11
-112.55
-104.95
-95.37
-80.82
-58.44
-26.39
15.85
67.54
126.60
189.12
248.95
298.14
328.71
335.34
317.53
280.20
231.85
181.31
134.86
94.98
61.36
32.89
9.43
-7.98
-18.10
-20.74
-17.40
-10.66
-2.86
4.82
12.62
21.65
32.71
45.35
57.70
66.86
69.78
64.15
49.14
25.63
-3.82
-35.27
-64.01
-85.37
-95.85
-93.98
-80.84
-59.62
-34.60
-9.66
12.73
31.80
47.87
61.32
71.78
77.95
78.23
71.53
58.02
39.27
17.73
-4.12
-24.55
-43.02
-60.00
-76.53
-93.41
-110.67
-127.34
-141.74
-152.18
-157.89
-159.57
-159.37
-160.07
-163.95
-171.58
-181.20
-189.00
-190.06
-179.64
-154.41
-113.36
-58.55
4.58
67.49
119.86
152.02
158.00
137.94
98.50
50.87
6.98
-24.44
-40.11
-41.98
-34.84
-23.46
-10.68
2.99
18.49
36.98
59.37
86.41
119.06
158.60
205.95
260.47
318.89
375.35
422.62
454.37
467.33
462.44
444.36
419.50
393.54
369.60
347.75
325.87
301.32
272.33
238.69
201.51
162.45
123.01
84.14
46.28
9.72
-25.07
-57.36
-86.28
-111.36
-132.97
-152.57
-172.52
-195.58
-224.13
-259.12
-299.22
-340.53
-377.29
-403.41
-414.78
-410.87
-395.07
-373.29
-351.40
-332.88
-317.74
-303.15
-285.42
-262.07
-232.93
-200.10
-166.78
-135.94
-109.43
-87.68
-69.90
-54.56
-39.89
-24.24
-6.34
14.59
38.69
65.40
93.49
120.96
145.27
163.70
174.00
175.05
167.43
153.32
135.88
118.17
102.16
88.20
75.31
61.93
46.82
29.47
10.10
-10.74
-32.39
-54.01
-74.21
-90.94
-101.85
-105.19
-100.87
-91.03
-79.67
-71.44
-69.89
-76.20
-88.95
-104.96
-120.91
-134.77
-146.37
-156.96
-168.03
-180.26
-193.10
-205.05
-214.47
-220.21
-221.92
-219.76
-214.01
-204.71
-191.52
-174.00
-151.98
-125.94
-97.25
-67.96
-40.21
-15.43
6.23
25.94
45.51
66.42
88.90
111.64
132.31
148.38
158.14
161.19
158.42
151.66
143.05
134.43
126.91
120.51
114.17
106.17
94.87
79.59
61.10
41.73
24.70
13.16
9.24
13.50
24.82
40.95
59.11
76.71
91.68
102.79
109.58
112.27
111.43
107.57
100.77
90.43
75.49
55.02
28.94
-1.38
-33.09
-62.42
-85.66
-100.23
-105.26
-101.70
-91.78
-78.35
-64.26
-51.91
-43.16
-39.20
-40.53
-46.84
-56.98
-69.13
-81.09
-90.80
-96.74
-98.31
-95.87
-90.51
-83.65
-76.52
-69.69
-62.96
-55.45
-46.19
-34.70
-21.44
-7.72
4.73
14.45
20.67
23.44
23.35
21.05
16.97
11.23
4.02
-4.08
-11.67
-16.59
-16.16
-7.98
9.12
34.18
63.78
92.55
114.44
124.61
120.89
104.54
79.77
52.29
27.61
9.55
-0.31
-2.48
1.16
8.20
16.31
23.47
28.10
29.23
26.66
21.17
14.30
7.97
3.64
1.70
1.36
1.07
-0.51
-3.70
-7.47
-9.78
-8.48
-2.21
8.74
22.41
35.48
44.34
46.21
40.26
28.09
13.42
0.75
-6.37
-6.74
-2.02
4.10
7.70
6.37
0.33
-7.83
-14.47
-16.52
-12.63
-3.43
9.02
22.12
33.46
41.20
44.09
41.36
32.75
18.64
0.06
-21.32
-43.57
-64.78
-83.54
-98.98
-110.79
-119.01
-123.88
-125.73
-125.03
-122.17
-117.42
-110.61
-100.87
-86.68
-66.07
-36.93
2.54
53.32
114.68
183.12
251.94
311.90
353.15
368.02
353.53
312.45
252.43
183.68
116.13
57.26
11.19
-21.04
-40.66
-50.24
-52.86
-51.49
-48.38
-44.74
-40.63
-35.39
-28.14
-18.21
-5.65
8.70
23.27
36.24
46.09
52.26
55.26
56.43
57.24
58.39
59.37
58.45
53.33
42.14
24.30
1.12
-24.41
-48.21
-66.29
-75.78
-75.76
-67.36
-53.35
-37.16
-21.98
-10.06
-2.52
0.45
-0.80
-5.69
-13.60
-23.80
-35.41
-47.39
-58.67
-68.40
-76.19
-82.12
-86.62
-90.17
-93.16
-95.60
-97.28
-97.85
-97.01
-94.63
-90.83
-85.94
-80.43
-74.94
-70.17
-66.74
-64.92
-64.29
-63.58
-60.82
-53.85
-41.11
-22.30
1.27
26.97
51.57
72.30
87.60
97.49
103.40
107.46
111.76
117.50
124.61
131.63
136.22
135.80
128.44
113.50
91.84
65.54
37.32
9.88
-14.66
-34.89
-50.14
-60.37
-66.12
-68.50
-69.14
-69.90
-72.56
-78.29
-87.49
-99.62
-113.39
-126.93
-138.16
-145.00
-145.75
-139.39
-125.85
-106.07
-81.78
-55.05
-27.81
-1.50
22.99
45.14
64.51
80.62
93.00
101.39
105.93
107.24
106.22
103.74
100.17
94.99
86.67
72.92
51.49
21.16
-17.32
-60.97
-105.23
-145.41
-178.18
-202.53
-219.68
-232.11
-242.41
-252.36
-262.77
-273.60
-284.22
-293.42
-299.44
-300.05
-293.20
-277.68
-253.75
-223.14
-188.51
-152.63
-117.53
-84.26
-52.88
-22.79
6.92
37.28
69.42
104.37
142.83
184.62
228.33
271.36
310.45
342.54
365.62
379.15
383.86
381.04
371.89
357.12
337.13
312.42
284.04
253.60
223.01
193.81
166.81
141.93
118.58
96.14
74.42
53.83
35.31
19.90
8.42
1.24
-1.70
-0.75
3.54
10.47
19.20
28.76
38.19
46.66
53.64
58.83
62.12
63.45
62.77
60.09
55.54
49.41
42.12
34.19
26.16
18.49
11.54
5.56
0.68
-3.05
-5.65
-7.19
-7.84
-7.90
-7.79
-8.03
-9.13
-11.49
-15.25
-20.20
-25.77
-30.99
-34.72
-35.93
-33.96
-28.79
-21.06
-11.84
-2.30
6.66
14.47
20.91
25.86
29.22
30.86
30.63
28.58
24.93
20.09
14.60
9.08
4.10
0.10
-2.76
-4.67
-6.16
-7.91
-10.61
-14.76
-20.55
-27.90
-36.53
-46.04
-55.98
-65.94
-75.66
-85.08
-94.33
-103.47
-112.17
-119.46
-123.74
-123.16
-116.29
-102.76
-83.52
-60.72
-37.04
-15.02
3.56
17.87
27.95
34.39
37.93
39.18
38.54
36.22
32.48
27.73
22.65
18.01
14.52
12.63
12.34
13.29
14.91
16.63
17.96
18.61
18.44
17.44
15.73
13.61
11.43
9.54
8.06
6.89
5.60
3.71
0.79
-3.24
-7.99
-12.64
-16.13
-17.46
-16.00
-11.68
-5.01
3.07
11.52
19.38
26.03
31.20
34.86
37.19
38.38
38.61
38.02
36.78
35.05
33.01
30.86
28.76
26.80
25.01
23.34
21.70
20.01
18.23
16.27
14.06
11.50
8.53
5.18
1.64
-1.82
-4.84
-7.14
-8.56
-9.16
-9.27
-9.42
-10.20
-12.05
-15.00
-18.55
-21.75
-23.54
-23.08
-20.12
-14.98
-8.47
-1.56
4.92
10.42
14.69
17.73
19.69
20.80
21.35
21.55
21.54
21.33
20.84
20.00
18.80
17.27
15.43
13.27
10.80
8.03
5.12
2.27
-0.28
-2.45
-4.30
-6.06
-7.98
-10.17
-12.57
-14.93
-16.97
-18.54
-19.73
-20.82
-22.17
-24.03
-26.46
-29.25
-32.03
-34.32
-35.64
-35.56
-33.78
-30.20
-25.02
-18.68
-11.80
-5.04
1.14
6.45
10.83
14.30
16.89
18.61
19.51
19.67
19.23
18.35
17.13
15.65
13.92
11.96
9.82
7.60
5.41
3.36
1.51
-0.10
-1.52
-2.83
-4.16
-5.65
-7.37
-9.41
-11.75
-14.32
-16.98
-19.57
-21.94
-24.05
-25.98
-27.93
-30.09
-32.56
-35.16
-37.45
-38.79
-38.53
-36.27
-32.00
-26.11
-19.30
-12.28
-5.61
0.39
5.54
9.72
12.80
14.60
15.11
14.48
13.07
11.30
9.50
7.88
6.52
5.52
5.09
5.50
6.90
9.13
11.69
13.82
14.84
14.40
12.57
9.78
6.59
3.47
0.61
-2.04
-4.63
-7.36
-10.31
-13.55
-17.14
-21.18
-25.78
-30.93
-36.51
-42.13
-47.21
-51.03
-52.96
-52.64
-50.07
-45.70
-40.22
-34.40
-28.87
-24.05
-20.06
-16.87
-14.40
-12.57
-11.31
-10.54
-10.10
-9.79
-9.46
-9.01
-8.47
-7.95
-7.60
-7.48
-7.59
-7.82
-7.98
-7.94
-7.65
-7.22
-6.90
-6.94
-7.57
-8.83
-10.59
-12.57
-14.46
-16.01
-17.20
-18.19
-19.25
-20.71
-22.72
-25.21
-27.80
-29.92
-30.95
-30.40
-28.09
-24.19
-19.12
-13.41
-7.54
-1.78
3.68
8.74
13.30
17.19
20.30
22.59
24.19
25.28
26.02
26.43
26.34
25.54
23.87
21.38
18.35
15.14
12.05
9.20
6.54
3.97
1.43
-1.04
-3.36
-5.47
-7.37
-9.09
-10.65
-11.99
-13.04
-13.85
-14.65
-15.83
-17.77
-20.68
-24.42
-28.53
-32.30
-34.97
-35.94
-34.89
-31.86
-27.24
-21.64
-15.74
-10.11
-5.12
-0.93
2.44
5.00
6.74
7.67
7.87
7.56
7.06
6.74
6.77
7.13
7.57
7.82
7.68
7.14
6.37
5.52
4.67
3.68
2.27
0.18
-2.71
-6.28
-10.17
-13.94
-17.22
-19.83
-21.79
-23.34
-24.85
-26.67
-29.01
-31.87
-34.93
-37.63
-39.25
-39.07
-36.68
-32.11
-25.90
-18.96
-12.34
-6.89
-3.07
-0.93
-0.10
-0.03
-0.12
0.09
0.83
2.11
3.76
5.52
7.12
8.44
9.44
10.18
10.73
11.18
11.53
11.69
11.51
10.78
9.35
7.20
4.51
1.69
-0.79
-2.53
-3.37
-3.44
-3.10
-2.75
-2.77
-3.39
-4.73
-6.81
-9.53
-12.52
-15.10
-16.28
-14.99
-10.42
-2.39
8.49
20.87
33.05
43.43
50.91
55.09
56.17
54.76
51.62
47.51
43.08
38.87
35.28
32.51
30.57
29.29
28.41
27.77
27.38
27.40
28.05
29.35
31.01
32.47
33.11
32.60
31.07
29.14
27.65
27.19
27.87
29.17
30.25
30.34
29.10
26.98
25.01
24.53
26.72
32.19
40.86
52.13
65.26
79.71
95.29
112.04
129.96
148.72
167.71
186.10
202.96
217.23
227.39
231.46
227.29
213.20
188.79
155.36
115.49
72.07
27.14
-18.64
-65.54
-113.65
-161.78
-207.13
-245.92
-274.74
-291.90
-297.91
-295.08
-285.97
-271.75
-251.32
-222.26
-183.29
-136.55
-88.42
-47.64
-21.76
-13.49
-19.26
-30.87
-39.10
-37.28
-23.18
1.67
33.70
68.93
103.38
132.82
152.96
160.47
154.45
137.16
113.21
87.69
64.18
43.98
26.51
10.26
-5.98
-22.73
-39.89
-56.91
-72.94
-86.83
-97.33
-103.36
-104.17
-99.19
-87.92
-69.72
-44.15
-11.46
26.63
66.79
104.56
135.20
154.88
161.45
154.89
137.24
112.10
83.85
56.53
32.84
13.43
-2.85
-18.18
-34.40
-52.03
-69.80
-85.27
-95.88
-100.00
-97.47
-89.44
-77.77
-64.24
-50.07
-35.84
-21.58
-6.96
8.58
25.39
43.14
60.17
73.45
79.38
75.22
60.47
37.50
10.58
-15.97
-39.55
-60.15
-79.52
-99.68
-121.57
-144.83
-168.37
-191.33
-213.32
-233.89
-251.66
-263.99
-267.53
-259.50
-238.84
-206.67
-166.00
-120.75
-75.00
-32.45
3.69
30.83
46.99
51.03
42.70
22.91
-6.14
-40.72
-75.83
-105.98
-126.43
-134.64
-130.95
-118.06
-99.41
-77.07
-50.52
-17.07
26.13
79.46
139.40
199.02
250.36
287.27
306.89
309.35
296.09
268.70
229.32
182.34
135.68
99.84
84.28
92.82
120.93
156.91
186.62
199.15
190.14
161.43
118.03
65.28
8.06
-47.98
-95.08
-124.30
-128.77
-107.58
-67.59
-21.47
16.84
36.99
34.61
10.83
-29.97
-81.86
-137.66
-188.54
-224.50
-236.82
-221.65
-182.58
-130.29
-78.91
-41.02
-23.66
-27.30
-47.33
-76.81
-108.57
-135.95
-153.11
-155.60
-141.62
-113.20
-76.17
-38.37
-6.70
15.23
27.79
33.92
36.63
37.02
34.02
25.66
11.03
-8.54
-29.59
-47.96
-60.40
-65.76
-65.03
-60.53
-54.92
-50.33
-48.02
-48.40
-51.20
-55.47
-59.78
-62.45
-62.19
-58.65
-52.78
-46.67
-42.77
-42.98
-47.83
-56.18
-65.52
-72.56
-74.12
-67.84
-52.69
-29.22
0.58
33.64
66.40
95.47
118.25
133.39
140.89
141.80
137.74
130.27
120.37
108.28
93.74
76.59
57.29
37.19
18.19
2.07
-10.35
-19.53
-27.00
-34.47
-42.92
-52.05
-60.47
-66.53
-69.31
-69.16
-67.69
-66.81
-67.58
-69.34
-69.53
-64.24
-49.43
-22.12
18.48
70.36
128.66
186.20
234.74
266.78
277.57
266.56
237.69
198.17
156.15
118.45
89.25
69.92
60.11
58.79
64.83
76.83
92.72
109.77
125.05
136.40
142.94
145.07
143.62
139.06
131.08
118.76
101.35
78.91
52.60
24.41
-3.36
-28.62
-49.77
-65.78
-75.99
-80.02
-77.80
-69.64
-56.31
-38.99
-19.05
2.17
23.70
44.92
65.31
84.10
100.06
111.53
117.04
116.04
109.37
99.16
88.12
78.49
71.18
65.59
60.12
53.07
43.50
31.61
18.66
6.39
-3.57
-10.15
-13.19
-13.47
-12.56
-12.65
-16.19
-25.51
-42.15
-66.21
-95.98
-128.07
-158.16
-182.13
-197.22
-202.55
-198.96
-188.30
-172.57
-153.48
-132.42
-110.82
-90.29
-72.43
-58.48
-48.91
-43.42
-41.07
-40.54
-40.31
-38.87
-34.98
-28.06
-18.46
-7.45
3.33
12.55
19.82
25.76
31.50
37.95
45.24
52.76
59.56
64.82
68.12
69.31
68.30
64.92
59.00
50.63
40.38
29.30
18.81
10.35
5.18
4.05
7.15
13.97
23.42
34.00
44.17
52.67
58.70
61.95
62.41
60.14
55.24
47.86
38.43
27.83
17.33
8.24
1.52
-2.57
-4.41
-4.88
-4.85
-4.85
-4.97
-5.04
-4.81
-4.20
-3.40
-2.72
-2.55
-3.21
-4.85
-7.48
-10.91
-14.75
-18.48
-21.59
-23.82
-25.28
-26.41
-27.78
-29.76
-32.31
-34.92
-36.81
-37.13
-35.24
-30.87
-24.15
-15.55
-5.80
4.21
13.54
21.35
27.00
30.22
31.11
30.08
27.68
24.47
20.91
17.38
14.13
11.30
9.01
7.23
5.86
4.69
3.55
2.28
0.83
-0.75
-2.29
-3.61
-4.56
-5.07
-5.23
-5.31
-5.68
-6.68
-8.44
-10.87
-13.65
-16.46
-19.12
-21.65
-24.28
-27.27
-30.78
-34.72
-38.83
-42.63
-45.61
-47.23
-47.00
-44.62
-39.94
-33.15
-24.68
-15.23
-5.63
3.29
10.88
16.76
20.92
23.56
24.99
25.50
25.24
24.28
22.67
20.54
18.18
15.94
14.14
12.92
12.19
11.62
10.83
9.63
8.12
6.72
6.01
6.37
7.81
9.83
11.62
12.36
11.68
9.70
7.02
4.37
2.28
0.89
-0.08
-1.18
-3.11
-6.57
-12.19
-20.33
-30.82
-42.80
-54.67
-64.30
-69.62
-69.19
-62.68
-50.97
-35.84
-19.46
-3.91
9.29
19.18
25.31
27.60
26.25
21.68
14.63
6.15
-2.51
-10.06
-15.55
-18.58
-19.35
-18.49
-16.77
-14.82
-12.98
-11.28
-9.60
-7.79
-5.76
-3.48
-0.99
1.59
4.03
5.89
6.51
5.17
1.36
-5.00
-13.37
-22.73
-31.79
-39.32
-44.50
-47.01
-46.98
-44.95
-41.64
-37.95
-34.75
-32.75
-32.32
-33.35
-35.17
-36.74
-36.94
-34.98
-30.65
-24.38
-17.04
-9.64
-3.00
2.42
6.51
9.43
11.42
12.73
13.60
14.17
14.58
14.84
14.89
14.62
13.94
12.88
11.56
10.18
8.94
7.91
7.06
6.29
5.52
4.70
3.88
3.12
2.43
1.73
0.88
-0.30
-1.92
-3.95
-6.23
-8.59
-10.86
-13.04
-15.24
-17.69
-20.58
-23.96
-27.72
-31.55
-35.02
-37.64
-39.00
-38.76
-36.70
-32.78
-27.14
-20.14
-12.28
-4.21
3.47
10.30
16.02
20.58
24.07
26.65
28.49
29.72
30.44
30.68
30.42
29.61
28.26
26.44
24.32
22.08
19.85
17.63
15.30
12.75
9.91
6.86
3.76
0.72
-2.24
-5.28
-8.60
-12.28
-16.20
-20.05
-23.49
-26.27
-28.43
-30.19
-31.93
-33.97
-36.55
-39.78
-43.53
-47.45
-50.92
-53.06
-52.88
-49.62
-43.00
-33.41
-21.87
-9.73
1.75
11.69
19.76
26.03
30.79
34.27
36.58
37.66
37.54
36.44
34.78
33.16
32.05
31.63
31.67
31.71
31.21
29.97
28.13
26.19
24.69
23.89
23.58
23.20
22.07
19.67
15.97
11.26
6.02
0.61
-4.88
-10.61
-16.76
-23.41
-30.40
-37.39
-44.04
-50.03
-55.04
-58.68
-60.40
-59.56
-55.61
-48.39
-38.30
-26.28
-13.66
-1.80
8.23
15.80
20.78
23.46
24.31
23.83
22.48
20.56
18.28
15.78
13.19
10.61
8.16
5.91
3.87
1.93
-0.07
-2.36
-5.14
-8.42
-12.13
-16.07
-20.04
-23.99
-27.99
-32.20
-36.79
-41.82
-47.32
-53.29
-59.77
-66.80
-74.17
-81.20
-86.66
-88.95
-86.61
-78.89
-66.06
-49.41
-30.87
-12.32
4.81
19.74
32.20
42.18
49.70
54.81
57.69
58.68
58.26
56.91
54.98
52.58
49.76
46.49
42.92
39.26
35.76
32.60
29.72
26.90
23.76
19.94
15.24
9.68
3.52
-2.91
-9.33
-15.63
-22.01
-28.84
-36.59
-45.58
-55.69
-66.22
-75.82
-82.69
-85.01
-81.47
-71.66
-56.29
-36.95
-15.60
5.83
25.81
43.28
57.52
68.10
74.84
77.93
78.06
76.30
73.82
71.44
69.43
67.49
65.05
61.74
57.71
53.66
50.47
48.82
48.72
49.55
50.22
49.75
47.52
43.48
38.00
31.57
24.48
16.80
8.35
-1.08
-11.62
-23.24
-35.63
-48.06
-59.39
-68.03
-72.32
-70.89
-63.24
-49.93
-32.46
-12.90
6.70
24.75
40.24
52.68
61.93
67.91
70.57
69.76
65.45
57.73
47.11
34.59
21.73
10.38
2.20
-1.86
-2.04
0.21
2.65
3.00
-0.37
-8.02
-19.62
-34.30
-51.17
-69.53
-88.75
-108.12
-126.91
-144.57
-161.04
-176.61
-191.42
-204.54
-213.49
-214.53
-203.80
-178.97
-140.44
-91.51
-37.39
16.39
65.38
106.93
140.06
164.95
182.52
194.11
201.36
205.92
208.91
210.54
210.01
205.92
197.06
183.10
164.83
143.93
122.39
101.84
83.27
66.97
52.70
39.83
27.49
14.76
0.79
-14.89
-32.16
-50.26
-67.92
-83.65
-96.15
-104.70
-109.39
-110.99
-110.65
-109.37
-107.60
-105.10
-101.08
-94.67
-85.27
-72.78
-57.60
-40.39
-21.90
-2.80
16.28
34.67
51.76
66.94
79.64
89.28
95.30
97.35
95.62
91.04
85.22
79.78
75.76
73.15
71.34
70.21
71.23
77.60
93.09
119.79
156.08
196.24
231.93
255.28
261.85
251.89
229.74
201.49
172.59
146.47
124.69
107.87
96.69
92.06
94.51
103.16
115.06
125.54
129.52
123.28
106.01
80.21
50.76
23.07
1.09
-13.68
-21.87
-24.98
-24.16
-19.85
-12.41
-3.08
5.72
11.17
11.47
6.80
-1.03
-10.04
-19.40
-29.77
-42.17
-56.30
-69.89
-79.57
-82.98
-80.54
-75.46
-71.87
-72.24
-76.04
-80.48
-83.03
-83.48
-84.22
-88.27
-96.71
-107.27
-115.59
-118.01
-114.08
-106.97
-101.62
-101.50
-106.59
-113.54
-117.94
-117.21
-111.88
-104.65
-98.02
-92.33
-85.62
-75.29
-60.23
-42.02
-24.14
-9.89
-0.57
4.86
8.35
10.90
11.70
8.91
1.46
-9.55
-20.98
-29.29
-32.57
-31.41
-28.26
-25.93
-26.12
-28.96
-33.56
-38.80
-43.88
-48.31
-51.66
-53.40
-53.21
-51.17
-47.83
-43.90
-40.00
-36.47
-33.46
-31.07
-29.55
-29.16
-29.97
-31.67
-33.63
-35.17
-35.81
-35.36
-33.85
-31.32
-27.62
-22.47
-15.70
-7.52
1.39
10.04
17.45
23.14
27.13
29.93
32.18
34.31
36.39
38.11
39.01
38.66
36.89
33.96
30.42
26.90
23.94
21.80
20.39
19.46
18.69
17.90
17.03
16.01
14.72
12.97
10.61
7.62
4.20
0.70
-2.52
-5.20
-7.23
-8.65
-9.69
-10.59
-11.62
-12.87
-14.22
-15.41
-16.14
-16.30
-16.09
-15.95
-16.26
-17.06
-17.94
-18.15
-16.98
-14.01
-9.45
-3.95
1.59
6.35
9.86
11.97
12.76
12.42
11.13
9.09
6.55
3.91
1.68
0.28
-0.09
0.42
1.37
2.21
2.55
2.35
1.86
1.38
1.13
1.02
0.81
0.21
-0.90
-2.38
-3.90
-5.14
-5.86
-6.00
-5.70
-5.22
-4.82
-4.71
-4.97
-5.62
-6.59
-7.81
-9.26
-10.92
-12.71
-14.45
-15.89
-16.78
-17.01
-16.70
-16.02
-15.13
-13.95
-12.20
-9.54
-5.94
-1.75
2.26
5.15
6.26
5.43
3.16
0.34
-2.20
-4.10
-5.71
-7.98
-11.98
-18.25
-26.56
-35.94
-45.30
-54.14
-62.93
-72.99
-85.74
-101.90
-120.86
-140.83
-159.25
-173.39
-181.01
-180.84
-173.17
-160.27
-146.65
-138.48
-142.17
-162.21
-199.28
-249.25
-304.02
-353.73
-389.77
-407.03
-405.05
-387.17
-358.81
-325.41
-291.02
-257.79
-226.36
-196.57
-168.10
-140.66
-113.99
-87.65
-61.10
-33.79
-5.39
24.00
54.00
84.19
114.56
145.54
177.71
211.11
244.62
275.76
301.34
318.65
326.43
325.31
317.28
304.69
289.30
271.94
252.80
232.06
210.19
187.97
166.04
144.35
121.86
96.56
65.82
26.87
-22.33
-82.09
-150.17
-221.69
-290.08
-348.83
-393.25
-421.42
-434.02
-433.17
-421.34
-400.69
-373.14
-340.93
-306.68
-273.03
-241.79
-213.37
-186.81
-160.46
-133.10
-104.62
-75.99
-48.68
-23.90
-2.03
17.46
35.54
53.06
70.20
86.50
101.01
112.95
122.09
129.03
135.06
141.86
151.08
163.81
180.19
198.83
216.89
230.63
236.58
233.03
220.71
202.59
182.56
163.72
147.17
131.83
115.37
95.52
71.20
42.93
12.59
-17.16
-43.57
-64.34
-78.15
-84.87
-85.64
-82.40
-77.19
-71.44
-65.58
-58.99
-50.53
-39.06
-24.02
-5.75
14.56
35.10
53.80
68.84
79.14
84.89
87.64
90.00
94.96
104.95
121.13
143.04
169.03
197.04
225.47
253.76
282.59
313.40
347.57
385.31
424.83
462.31
492.66
511.05
514.51
502.98
479.05
446.84
410.37
372.47
334.58
297.41
261.68
228.45
198.84
173.31
151.26
131.19
111.48
91.15
70.31
50.06
31.92
17.16
6.36
-0.66
-4.76
-7.19
-9.29
-12.23
-16.71
-22.77
-29.85
-37.15
-44.16
-51.04
-58.51
-67.29
-77.32
-87.34
-95.12
-98.26
-95.31
-86.30
-72.90
-57.92
-44.49
-34.95
-29.85
-27.43
-23.87
-14.57
3.94
32.00
65.89
98.39
120.79
125.67
109.43
73.76
25.29
-26.14
-70.32
-99.40
-109.73
-102.23
-81.49
-53.80
-25.27
-0.61
17.16
26.44
26.78
18.78
4.22
-13.96
-32.06
-46.28
-53.63
-52.50
-43.01
-26.91
-7.20
12.70
29.94
43.05
52.16
58.47
63.18
66.52
67.47
64.35
55.93
42.44
25.81
8.98
-5.32
-15.63
-22.25
-26.92
-31.93
-39.13
-49.29
-62.01
-75.99
-89.52
-100.93
-109.01
-113.23
-113.95
-112.39
-110.44
-110.06
-112.56
-118.02
-124.99
-131.01
-133.50
-130.75
-122.50
-110.00
-95.42
-81.10
-68.90
-59.97
-54.79
-53.35
-55.30
-60.01
-66.65
-74.34
-82.36
-90.49
-99.05
-108.71
-120.07
-133.07
-146.64
-158.82
-167.33
-170.42
-167.69
-160.37
-150.94
-142.18
-136.10
-133.14
-132.04
-130.36
-125.47
-115.46
-99.76
-79.15
-55.24
-29.88
-4.62
19.28
40.68
58.23
70.51
76.48
76.23
71.38
64.98
60.63
61.41
68.86
82.65
100.76
120.17
137.65
150.43
156.76
156.18
149.60
139.11
127.37
116.83
108.96
103.75
99.77
94.70
86.32
73.37
56.07
36.02
15.55
-3.18
-18.97
-31.85
-42.76
-52.90
-63.06
-73.23
-82.73
-90.56
-95.88
-98.23
-97.57
-94.16
-88.38
-80.71
-71.60
-61.49
-50.76
-39.86
-29.26
-19.53
-11.20
-4.60
0.31
4.07
7.46
11.36
16.34
22.64
30.10
38.47
47.50
56.94
66.53
75.68
83.49
88.86
90.83
88.97
83.67
76.09
67.80
60.16
53.88
48.80
44.14
39.00
32.82
25.70
18.26
11.33
5.49
0.84
-3.02
-6.73
-10.68
-14.67
-17.79
-18.70
-16.18
-9.65
0.64
13.76
28.50
43.76
58.73
72.77
85.24
95.42
102.80
107.38
109.85
111.34
112.89
114.89
116.75
117.34
115.55
110.80
103.23
93.36
81.77
68.76
54.57
39.53
24.14
8.96
-5.81
-20.43
-35.46
-51.20
-67.18
-82.06
-94.04
-101.60
-104.07
-101.86
-96.17
-88.51
-80.29
-72.65
-66.43
-62.26
-60.62
-61.74
-65.52
-71.32
-77.91
-83.59
-86.54
-85.30
-79.35
-69.24
-56.47
-42.96
-30.38
-19.76
-11.26
-4.49
1.05
5.71
9.46
12.05
13.20
12.82
11.10
8.43
5.37
2.48
0.20
-1.15
-1.47
-0.83
0.48
2.02
3.26
3.75
3.17
1.43
-1.27
-4.52
-7.86
-10.87
-13.31
-15.18
-16.66
-17.99
-19.44
-21.15
-23.17
-25.45
-27.90
-30.45
-33.12
-36.06
-39.55
-43.80
-48.67
-53.47
-57.01
-57.82
-54.73
-47.28
-35.95
-22.04
-7.23
6.93
19.33
29.38
36.96
42.11
44.91
45.45
43.94
40.78
36.64
32.36
28.73
26.24
24.97
24.57
24.47
24.12
23.17
21.56
19.42
16.98
14.39
11.71
8.90
5.89
2.61
-0.89
-4.53
-8.13
-11.53
-14.58
-17.30
-19.84
-22.46
-25.45
-29.05
-33.41
-38.53
-44.21
-49.95
-54.90
-57.87
-57.61
-53.22
-44.54
-32.36
-18.22
-3.97
8.81
19.17
26.87
32.15
35.46
37.24
37.85
37.59
36.75
35.58
34.19
32.55
30.52
28.03
25.10
21.91
18.75
15.85
13.38
11.38
9.79
8.46
7.23
5.92
4.32
2.19
-0.62
-4.14
-8.15
-12.22
-15.80
-18.41
-19.80
-20.15
-19.93
-19.78
-20.33
-21.93
-24.59
-27.82
-30.55
-31.17
-27.82
-18.90
-3.78
16.81
40.68
64.83
86.37
103.33
115.06
122.11
125.58
126.54
125.57
122.80
118.11
111.54
103.51
94.79
86.35
79.03
73.22
68.80
65.19
61.69
57.73
53.16
48.22
43.37
39.01
35.19
31.50
27.13
21.01
12.10
-0.36
-16.67
-36.57
-59.26
-83.51
-107.99
-131.41
-152.78
-171.46
-187.19
-199.91
-209.56
-215.94
-218.62
-217.08
-210.95
-200.20
-185.29
-167.03
-146.28
-123.69
-99.59
-74.21
-48.01
-21.89
3.05
26.06
47.32
68.19
90.78
117.36
149.73
188.90
234.75
285.62
337.92
386.12
423.60
444.45
445.43
427.24
394.17
352.22
306.77
260.81
214.79
167.64
118.47
67.76
17.51
-29.53
-71.01
-105.97
-135.16
-160.51
-184.09
-206.85
-227.95
-244.98
-254.95
-255.69
-246.89
-230.26
-208.82
-185.83
-163.76
-143.98
-126.87
-112.29
-100.04
-90.10
-82.71
-78.26
-77.23
-79.96
-86.43
-96.06
-107.49
-118.75
-127.54
-131.77
-129.96
-121.55
-106.92
-87.11
-63.59
-37.97
-11.92
12.95
35.18
53.61
67.57
76.93
81.93
83.00
80.57
74.92
66.29
54.93
41.16
25.36
7.68
-11.99
-34.08
-59.11
-87.28
-117.95
-149.25
-178.23
-201.30
-215.15
-217.71
-208.80
-190.13
-164.76
-136.15
-107.35
-80.51
-56.82
-36.71
-20.12
-6.70
4.14
13.14
20.91
27.75
33.39
37.08
37.90
35.27
29.34
21.10
12.15
4.21
-1.42
-4.24
-4.61
-3.52
-2.18
-1.64
-2.54
-5.07
-9.04
-14.03
-19.38
-24.29
-27.96
-29.78
-29.59
-27.73
-24.99
-22.30
-20.57
-20.47
-22.34
-26.06
-30.85
-35.23
-37.25
-34.98
-27.29
-14.40
2.10
19.77
36.20
49.82
60.17
67.61
72.75
76.01
77.39
76.77
74.20
70.27
65.98
62.48
60.61
60.54
61.71
63.07
63.53
62.52
60.33
58.03
57.00
58.25
61.76
66.37
70.14
71.10
68.07
61.01
50.90
39.11
26.74
14.14
0.93
-13.56
-29.81
-47.72
-66.56
-85.04
-101.47
-113.91
-120.42
-119.42
-110.21
-93.38
-70.93
-45.79
-20.89
1.68
21.30
38.61
54.71
70.19
84.51
96.05
102.87
103.74
98.79
89.74
79.26
70.04
63.91
61.37
61.72
63.56
65.40
65.99
64.43
60.04
52.31
41.04
26.58
10.02
-6.81
-21.75
-32.80
-38.59
-38.59
-33.15
-23.32
-10.61
3.20
16.49
28.12
37.81
46.03
53.66
61.36
69.04
75.81
80.36
81.76
80.07
76.34
72.19
68.92
66.89
65.39
63.14
59.01
52.54
44.01
34.06
23.16
11.33
-1.72
-16.17
-31.67
-47.30
-61.81
-74.13
-83.77
-90.82
-95.73
-98.95
-100.62
-100.55
-98.41
-94.05
-87.68
-80.02
-72.00
-64.51
-58.11
-52.85
-48.46
-44.57
-41.13
-38.54
-37.48
-38.65
-42.34
-48.31
-55.83
-63.96
-71.85
-78.98
-85.12
-90.13
-93.75
-95.50
-94.74
-90.93
-83.85
-73.74
-61.19
-46.79
-30.99
-13.92
4.34
23.51
42.87
61.32
77.70
91.27
101.98
110.42
117.47
123.82
129.69
134.70
138.19
139.56
138.58
135.43
130.40
123.56
114.43
102.05
85.30
63.45
36.63
6.06
-26.15
-57.44
-85.31
-108.00
-124.78
-136.18
-143.73
-149.45
-155.20
-162.02
-169.84
-177.58
-183.71
-186.89
-186.47
-182.67
-176.21
-167.94
-158.32
-147.37
-134.81
-120.42
-104.22
-86.37
-66.99
-45.90
-22.77
2.54
29.38
56.06
80.05
98.80
110.66
115.57
115.16
112.06
108.91
107.41
107.99
109.78
111.28
110.97
107.91
102.02
94.08
85.37
77.19
70.42
65.28
61.33
57.74
53.71
48.80
43.18
37.52
32.69
29.40
27.94
28.06
29.17
30.49
31.38
31.42
30.67
29.80
30.12
33.53
41.98
56.80
77.96
103.89
131.86
158.95
183.03
203.36
220.21
234.22
245.44
253.08
255.80
252.51
243.15
228.91
211.89
194.25
177.32
161.16
144.60
125.81
103.07
75.47
43.37
8.33
-27.22
-60.70
-90.04
-114.17
-133.13
-147.86
-159.82
-170.46
-180.86
-191.58
-202.54
-213.13
-222.26
-228.46
-230.23
-226.35
-216.33
-200.53
-180.13
-156.68
-131.72
-106.54
-82.23
-59.90
-40.91
-26.77
-18.74
-17.27
-21.41
-28.77
-35.79
-38.71
-34.64
-22.49
-3.38
19.51
41.78
58.93
67.58
66.28
55.92
39.50
21.30
5.83
-3.37
-4.50
2.15
14.51
29.37
43.31
53.37
57.74
56.00
49.25
39.78
30.36
23.36
19.82
19.12
19.17
17.28
11.16
-0.16
-16.12
-34.90
-54.10
-71.50
-85.63
-95.96
-102.79
-106.91
-109.07
-109.59
-108.22
-104.41
-97.72
-88.30
-76.98
-65.17
-54.42
-46.12
-41.08
-39.41
-40.53
-43.26
-45.95
-46.82
-44.30
-37.51
-26.62
-12.95
1.30
13.55
21.63
24.51
22.72
18.34
14.38
13.72
18.00
26.95
38.70
50.68
60.76
68.03
72.75
75.75
77.73
78.88
79.07
78.31
76.96
75.46
73.82
71.16
65.99
56.95
43.81
27.89
11.70
-2.13
-12.00
-17.98
-21.47
-24.31
-27.74
-31.79
-35.28
-36.56
-34.36
-28.37
-19.41
-8.97
1.38
10.56
18.18
24.31
29.16
32.70
34.57
34.24
31.37
25.98
18.49
9.53
-0.27
-10.43
-20.65
-30.68
-40.34
-49.49
-58.16
-66.45
-74.38
-81.67
-87.78
-91.98
-93.79
-93.26
-90.90
-87.51
-83.65
-79.34
-74.13
-67.34
-58.55
-47.75
-35.35
-21.93
-8.03
5.85
19.07
30.64
39.20
43.39
42.37
36.32
26.66
15.75
6.17
-0.08
-2.19
-0.56
3.52
8.53
13.16
16.62
18.62
19.13
18.29
16.35
13.54
10.15
6.33
2.13
-2.43
-7.14
-11.48
-14.60
-15.56
-13.72
-8.94
-1.59
7.76
18.53
30.29
42.66
55.10
66.83
76.88
84.30
88.18
87.76
82.31
71.27
54.45
32.40
6.64
-20.43
-46.04
-67.71
-83.87
-94.10
-99.12
-100.45
-100.00
-99.61
-100.62
-103.45
-107.31
-110.20
-109.41
-102.34
-87.58
-65.60
-38.66
-10.09
17.04
40.94
61.37
79.03
94.47
107.29
116.12
119.41
116.53
108.35
97.02
85.01
74.17
65.14
57.63
50.94
44.47
37.94
31.15
23.74
15.24
5.32
-5.79
-17.26
-27.89
-36.53
-42.61
-46.25
-48.08
-48.82
-48.90
-48.23
-46.31
-42.68
-37.23
-30.52
-23.59
-17.56
-12.97
-9.33
-5.14
1.63
12.76
28.97
49.68
73.18
97.38
120.52
141.67
160.76
178.18
194.27
208.88
221.29
230.47
235.53
236.04
232.12
224.17
212.49
197.12
177.98
155.32
130.02
103.63
77.99
54.57
34.06
16.28
0.57
-13.67
-26.64
-38.15
-47.97
-56.23
-63.68
-71.59
-81.39
-94.15
-110.29
-129.33
-149.98
-170.51
-189.19
-204.74
-216.65
-225.12
-230.86
-234.61
-236.80
-237.33
-235.63
-230.95
-222.73
-210.88
-195.84
-178.46
-159.75
-140.68
-122.09
-104.69
-89.13
-76.00
-65.75
-58.54
-53.99
-51.09
-48.41
-44.43
-38.08
-29.02
-17.84
-5.70
5.98
15.98
23.51
28.34
30.69
31.04
30.02
28.19
25.98
23.58
20.97
17.99
14.47
10.41
6.01
1.63
-2.32
-5.65
-8.42
-10.96
-13.72
-17.01
-20.87
-25.06
-29.21
-33.04
-36.49
-39.64
-42.47
-44.61
-45.31
-43.62
-38.76
-30.51
-19.39
-6.52
6.70
19.04
29.75
38.63
45.84
51.68
56.30
59.72
61.97
63.28
64.14
65.15
66.73
68.77
70.73
71.87
71.71
70.24
68.00
65.78
64.18
63.38
62.99
62.13
59.68
54.66
46.56
35.64
23.00
10.25
-1.02
-9.90
-16.56
-22.04
-27.59
-33.80
-40.14
-45.16
-47.29
-45.66
-40.52
-32.96
-24.17
-14.78
-4.67
6.54
18.86
31.46
42.92
51.92
57.97
61.68
64.32
66.96
69.84
72.20
72.76
70.53
65.44
58.57
51.63
46.30
43.52
43.18
44.25
45.23
44.69
41.67
35.86
27.57
17.47
6.30
-5.27
-16.84
-28.12
-38.85
-48.64
-57.06
-63.73
-68.58
-72.02
-74.85
-77.95
-81.90
-86.73
-92.02
-97.15
-101.77
-105.95
-110.04
-114.23
-118.20
-121.10
-121.82
-119.48
-113.83
-105.34
-94.94
-83.70
-72.42
-61.57
-51.33
-41.79
-32.98
-24.98
-17.83
-11.49
-5.79
-0.48
4.75
10.17
15.94
22.08
28.45
34.88
41.24
47.56
53.90
60.28
66.46
71.99
76.36
79.22
80.62
80.99
80.93
80.89
80.90
80.56
79.13
75.92
70.49
62.86
53.47
43.04
32.30
21.85
11.99
2.68
-6.20
-14.66
-22.37
-28.57
-32.32
-32.75
-29.50
-22.90
-13.96
-4.11
5.16
12.65
17.63
19.98
20.17
19.27
18.70
19.89
23.84
30.70
39.63
49.08
57.46
63.68
67.59
69.85
71.46
73.23
75.36
77.44
78.76
78.60
76.57
72.53
66.48
58.42
48.30
36.17
22.37
7.62
-7.16
-21.12
-33.80
-45.30
-56.05
-66.46
-76.44
-85.20
-91.43
-93.71
-91.05
-83.19
-70.67
-54.67
-36.62
-17.95
0.19
17.09
32.48
46.44
59.19
70.82
81.10
89.55
95.65
99.21
100.61
100.71
100.47
100.55
101.08
101.70
101.91
101.28
99.64
96.90
92.93
87.50
80.44
71.83
62.11
51.92
41.84
32.10
22.57
12.96
3.12
-6.75
-16.07
-24.05
-29.95
-33.34
-34.28
-33.39
-31.70
-30.37
-30.33
-31.88
-34.59
-37.40
-39.10
-38.73
-36.05
-31.59
-26.46
-22.06
-19.65
-20.08
-23.61
-29.81
-37.67
-45.85
-53.08
-58.48
-61.72
-62.86
-61.94
-58.72
-52.71
-43.55
-31.49
-17.63
-3.71
8.53
17.97
24.50
28.88
32.21
35.46
39.17
43.47
48.32
53.67
59.46
65.42
70.95
75.15
77.06
76.05
72.06
65.63
57.61
48.68
38.99
28.04
14.95
-1.05
-20.14
-41.76
-64.72
-87.55
-108.89
-127.64
-142.98
-154.28
-161.14
-163.53
-161.98
-157.45
-151.10
-143.80
-135.69
-126.23
-114.67
-100.62
-84.55
-67.70
-51.58
-37.23
-24.69
-12.98
-0.57
13.85
30.77
49.62
68.92
86.82
101.64
112.19
118.00
119.15
116.09
109.44
99.84
87.90
74.19
59.26
43.65
27.86
12.36
-2.40
-15.95
-27.92
-38.09
-46.49
-53.40
-59.27
-64.58
-69.74
-74.94
-80.19
-85.26
-89.88
-93.71
-96.47
-97.81
-97.34
-94.64
-89.44
-81.84
-72.46
-62.42
-53.11
-45.75
-41.04
-38.98
-39.04
-40.42
-42.36
-44.25
-45.64
-46.17
-45.55
-43.68
-40.71
-37.18
-33.88
-31.63
-31.04
-32.29
-35.07
-38.67
-42.15
-44.58
-45.29
-44.08
-41.24
-37.58
-34.23
-32.36
-32.83
-36.01
-41.51
-48.21
-54.49
-58.59
-59.10
-55.30
-47.35
-36.16
-23.04
-9.33
3.96
16.23
27.16
36.59
44.35
50.26
54.21
56.27
56.73
56.06
54.79
53.41
52.20
51.24
50.40
49.54
48.51
47.26
45.83
44.32
42.80
41.23
39.53
37.51
35.01
31.93
28.31
24.29
20.10
15.96
12.02
8.27
4.58
0.76
-3.39
-8.00
-13.17
-18.93
-25.18
-31.63
-37.60
-42.12
-44.12
-42.73
-37.70
-29.50
-19.26
-8.37
1.95
11.01
18.65
25.08
30.54
35.06
38.51
40.65
41.51
41.38
40.89
40.70
41.21
42.37
43.68
44.41
43.99
42.30
39.79
37.24
35.47
34.89
35.33
36.06
36.14
34.69
31.33
26.25
20.17
14.12
9.15
6.10
5.39
6.95
10.06
13.48
15.50
14.43
9.21
-0.03
-11.62
-22.65
-29.88
-30.99
-25.52
-15.06
-2.58
8.92
17.63
23.42
27.46
31.26
35.67
40.48
44.70
47.20
47.44
45.64
42.70
39.71
37.48
36.37
36.28
36.83
37.60
38.23
38.52
38.35
37.61
36.12
33.61
29.75
24.28
17.10
8.41
-1.32
-11.41
-21.05
-29.43
-35.70
-39.16
-39.40
-36.63
-31.96
-27.36
-25.25
-27.66
-35.34
-47.17
-60.29
-70.83
-75.12
-70.75
-57.29
-36.16
-10.11
17.69
44.48
68.47
89.02
106.39
121.33
134.59
146.69
157.94
168.63
179.13
189.86
201.11
212.89
224.93
236.86
248.33
258.84
267.60
273.36
274.55
269.59
257.46
237.94
211.64
179.67
143.22
103.20
60.14
14.37
-33.68
-83.05
-132.26
-179.45
-222.84
-261.06
-293.34
-319.40
-339.06
-352.06
-358.19
-357.50
-350.62
-338.66
-322.82
-303.94
-282.28
-257.84
-230.89
-202.38
-173.84
-146.85
-122.46
-100.88
-81.74
-64.51
-49.04
-35.70
-25.15
-17.93
-13.99
-12.72
-13.07
-13.95
-14.43
-13.89
-11.85
-7.92
-1.75
6.76
17.25
28.81
40.06
49.59
56.31
59.73
59.95
57.48
53.08
47.55
41.77
36.61
32.77
30.54
29.60
28.97
27.35
23.59
17.18
8.51
-1.13
-10.04
-16.50
-19.28
-17.99
-13.07
-5.65
2.84
11.08
18.15
23.68
27.72
30.51
32.27
33.21
33.51
33.45
33.39
33.58
33.97
34.20
33.71
32.02
29.00
25.00
20.67
16.70
13.50
11.09
9.17
7.26
4.87
1.61
-2.75
-8.24
-14.61
-21.38
-27.88
-33.51
-37.92
-41.12
-43.41
-45.26
-47.06
-49.12
-51.59
-54.58
-58.03
-61.71
-65.06
-67.25
-67.39
-64.86
-59.57
-52.01
-43.07
-33.62
-24.19
-14.84
-5.38
4.34
14.16
23.59
32.07
39.24
45.18
50.28
54.98
59.48
63.59
66.93
69.15
70.14
70.06
69.13
67.47
65.07
61.88
58.03
53.92
50.11
47.01
44.59
42.33
39.34
34.76
28.14
19.62
9.78
-0.62
-11.00
-21.05
-30.69
-39.85
-48.27
-55.43
-60.67
-63.39
-63.27
-60.31
-54.83
-47.36
-38.51
-28.90
-19.08
-9.49
-0.33
8.45
17.22
26.47
36.64
47.94
60.18
72.77
84.91
95.70
104.45
110.64
113.98
114.34
111.73
106.31
98.53
89.08
78.91
68.98
60.12
52.85
47.34
43.48
40.92
39.19
37.76
36.02
33.32
29.03
22.75
14.40
4.38
-6.49
-17.22
-26.98
-35.49
-43.14
-50.75
-59.03
-67.93
-76.40
-82.64
-84.87
-82.08
-74.58
-63.76
-51.55
-39.63
-28.99
-19.83
-11.93
-4.98
1.21
6.76
11.79
16.46
20.81
24.63
27.33
28.18
26.56
22.38
16.08
8.54
0.65
-6.96
-14.09
-20.65
-26.47
-31.01
-33.56
-33.46
-30.52
-25.13
-18.18
-10.76
-3.91
1.59
5.37
7.49
8.48
9.22
10.71
13.69
18.26
23.84
29.33
33.59
35.78
35.62
33.23
28.97
23.23
16.47
9.32
2.59
-2.83
-6.31
-7.72
-7.51
-6.60
-6.00
-6.45
-8.26
-11.29
-15.09
-19.09
-22.78
-25.79
-27.93
-29.21
-29.81
-29.98
-29.92
-29.73
-29.36
-28.74
-27.96
-27.25
-27.02
-27.63
-29.26
-31.78
-34.70
-37.32
-38.83
-38.59
-36.26
-31.92
-26.02
-19.25
-12.30
-5.66
0.45
6.00
10.98
15.26
18.65
20.93
22.02
22.05
21.26
19.96
18.39
16.69
14.96
13.23
11.60
10.13
8.85
7.76
6.82
5.91
4.88
3.52
1.62
-0.94
-4.09
-7.51
-10.80
-13.57
-15.64
-17.19
-18.64
-20.51
-23.21
-26.90
-31.35
-36.06
-40.31
-43.38
-44.69
-43.93
-41.12
-36.60
-30.92
-24.68
-18.46
-12.67
-7.52
-3.09
0.67
3.82
6.41
8.40
9.73
10.41
10.58
10.49
10.46
10.70
11.30
12.12
13.00
13.73
14.24
14.51
14.61
14.54
14.28
13.68
12.58
10.88
8.57
5.77
2.75
-0.17
-2.73
-4.81
-6.46
-7.91
-9.48
-11.48
-14.17
-17.60
-21.58
-25.63
-29.06
-31.11
-31.15
-28.86
-24.35
-18.12
-10.92
-3.54
3.34
9.35
14.34
18.41
21.62
23.96
25.30
25.50
24.59
22.86
20.84
19.07
17.90
17.34
17.12
16.84
16.25
15.30
14.22
13.23
12.45
11.79
11.01
9.77
7.89
5.34
2.30
-0.94
-4.09
-6.95
-9.44
-11.56
-13.35
-14.89
-16.32
-17.86
-19.78
-22.25
-25.20
-28.19
-30.50
-31.28
-29.93
-26.30
-20.76
-14.08
-7.13
-0.61
5.08
9.89
13.94
17.36
20.23
22.50
24.10
24.92
24.97
24.29
23.04
21.42
19.61
17.80
16.11
14.69
13.64
13.05
12.91
13.14
13.53
13.77
13.59
12.76
11.27
9.32
7.32
5.79
5.17
5.64
6.97
8.53
9.47
8.98
6.67
2.67
-2.29
-7.18
-10.90
-12.60
-11.92
-8.94
-4.22
1.48
7.32
12.57
16.72
19.58
21.16
21.61
21.12
19.89
18.12
16.05
14.02
12.35
11.29
10.89
10.93
11.05
10.90
10.35
9.47
8.52
7.71
7.10
6.53
5.72
4.39
2.49
0.17
-2.23
-4.35
-5.94
-6.94
-7.53
-8.01
-8.76
-10.10
-12.21
-15.05
-18.35
-21.56
-24.00
-25.01
-24.16
-21.35
-16.90
-11.41
-5.58
-0.01
4.91
9.03
12.39
15.09
17.23
18.82
19.80
20.15
19.87
19.05
17.88
16.55
15.16
13.76
12.35
10.94
9.62
8.49
7.64
7.06
6.56
5.93
4.91
3.39
1.37
-1.04
-3.64
-6.21
-8.59
-10.67
-12.44
-13.96
-15.39
-16.92
-18.78
-21.11
-23.94
-27.08
-30.14
-32.58
-33.82
-33.42
-31.21
-27.32
-22.21
-16.48
-10.74
-5.45
-0.85
3.01
6.18
8.72
10.65
11.97
12.71
12.93
12.80
12.49
12.12
11.71
11.21
10.51
9.55
8.32
6.90
5.42
4.02
2.78
1.77
0.97
0.31
-0.34
-1.11
-2.10
-3.35
-4.83
-6.47
-8.16
-9.82
-11.39
-12.86
-14.25
-15.58
-16.89
-18.26
-19.76
-21.41
-23.10
-24.52
-25.19
-24.59
-22.32
-18.29
-12.78
-6.39
0.17
6.26
11.47
15.67
18.88
21.21
22.75
23.55
23.68
23.24
22.37
21.26
20.04
18.80
17.55
16.24
14.85
13.40
11.99
10.74
9.76
9.02
8.36
7.47
6.07
4.01
1.41
-1.33
-3.74
-5.46
-6.40
-6.82
-7.15
-7.80
-9.03
-10.84
-13.09
-15.55
-17.95
-19.99
-21.27
-21.38
-19.98
-16.97
-12.59
-7.33
-1.81
3.40
7.92
11.57
14.38
16.44
17.90
18.88
19.41
19.47
19.04
18.11
16.80
15.34
13.93
12.75
11.84
11.08
10.34
9.51
8.54
7.45
6.27
5.02
3.71
2.33
0.90
-0.57
-2.07
-3.59
-5.13
-6.67
-8.23
-9.80
-11.41
-13.05
-14.71
-16.40
-18.14
-20.02
-22.18
-24.72
-27.54
-30.36
-32.68
-33.99
-33.91
-32.39
-29.63
-26.08
-22.23
-18.49
-15.09
-12.12
-9.55
-7.36
-5.63
-4.52
-4.27
-5.07
-6.93
-9.61
-12.70
-15.70
-18.14
-19.68
-20.17
-19.69
-18.44
-16.71
-14.71
-12.53
-10.07
-7.11
-3.46
0.92
5.83
10.86
15.54
19.47
22.44
24.47
25.71
26.34
26.48
26.11
25.13
23.45
21.04
17.96
14.38
10.49
6.55
2.91
0.00
-1.67
-1.69
0.10
3.48
7.87
12.49
16.62
19.82
22.03
23.41
24.24
24.69
24.78
24.40
23.47
22.02
20.23
18.40
16.81
15.59
14.73
14.06
13.42
12.69
11.86
10.96
10.03
9.10
8.10
6.96
5.63
4.05
2.26
0.30
-1.75
-3.77
-5.69
-7.44
-9.04
-10.52
-12.00
-13.58
-15.33
-17.25
-19.28
-21.19
-22.68
-23.31
-22.68
-20.49
-16.75
-11.80
-6.23
-0.78
3.98
7.72
10.46
12.39
13.76
14.65
15.03
14.80
13.98
12.77
11.45
10.30
9.39
8.63
7.81
6.78
5.56
4.32
3.26
2.53
2.07
1.68
1.13
0.27
-0.95
-2.43
-4.00
-5.53
-6.90
-8.09
-9.09
-9.94
-10.67
-11.33
-12.03
-12.92
-14.15
-15.81
-17.85
-19.96
-21.68
-22.43
-21.76
-19.47
-15.73
-10.98
-5.81
-0.78
3.79
7.72
11.00
13.59
15.43
16.41
16.51
15.86
14.70
13.33
12.04
10.96
10.11
9.40
8.75
8.09
7.34
6.50
5.56
4.53
3.44
2.32
1.20
0.09
-1.04
-2.19
-3.40
-4.66
-6.01
-7.41
-8.85
-10.29
-11.70
-13.10
-14.51
-15.96
-17.49
-19.07
-20.69
-22.26
-23.66
-24.69
-25.02
-24.31
-22.28
-18.87
-14.34
-9.20
-4.03
0.66
4.66
7.96
10.77
13.22
15.39
17.16
18.39
19.00
19.05
18.69
18.15
17.57
17.01
16.48
15.96
15.40
14.79
14.10
13.30
12.38
11.37
10.32
9.25
8.13
6.85
5.29
3.40
1.26
-0.96
-3.04
-4.87
-6.46
-7.92
-9.40
-11.01
-12.83
-14.89
-17.17
-19.55
-21.79
-23.47
-24.10
-23.27
-20.81
-16.85
-11.80
-6.22
-0.60
4.69
9.44
13.56
16.96
19.55
21.23
21.99
21.93
21.25
20.21
19.00
17.71
16.33
14.81
13.14
11.35
9.56
7.86
6.32
4.90
3.49
1.93
0.07
-2.20
-4.81
-7.61
-10.38
-12.92
-15.11
-16.90
-18.35
-19.53
-20.53
-21.48
-22.53
-23.85
-25.56
-27.62
-29.72
-31.34
-31.81
-30.63
-27.54
-22.72
-16.67
-10.10
-3.72
1.91
6.44
9.78
11.96
13.15
13.55
13.43
13.06
12.69
12.47
12.45
12.50
12.47
12.24
11.81
11.29
10.85
10.64
10.67
10.84
10.99
10.97
10.72
10.22
9.47
8.50
7.31
5.91
4.36
2.74
1.15
-0.36
-1.79
-3.18
-4.56
-5.95
-7.34
-8.79
-10.36
-12.16
-14.26
-16.55
-18.70
-20.23
-20.61
-19.44
-16.61
-12.37
-7.22
-1.77
3.43
8.03
11.90
15.08
17.65
19.65
21.03
21.73
21.69
21.01
19.89
18.60
17.34
16.19
15.15
14.15
13.22
12.41
11.82
11.48
11.26
10.94
10.28
9.16
7.63
5.89
4.16
2.54
1.01
-0.62
-2.49
-4.70
-7.14
-9.59
-11.79
-13.57
-14.89
-15.85
-16.63
-17.43
-18.49
-19.98
-21.99
-24.44
-27.01
-29.10
-30.02
-29.11
-26.05
-20.98
-14.42
-7.19
-0.05
6.47
12.13
16.93
20.95
24.24
26.79
28.51
29.35
29.32
28.53
27.14
25.36
23.39
21.40
19.52
17.85
16.43
15.24
14.20
13.20
12.09
10.72
8.94
6.69
3.99
1.01
-1.99
-4.77
-7.21
-9.36
-11.38
-13.43
-15.52
-17.52
-19.15
-20.23
-20.71
-20.76
-20.72
-20.96
-21.76
-23.24
-25.39
-28.06
-30.92
-33.56
-35.41
-35.95
-34.79
-31.82
-27.28
-21.68
-15.69
-9.91
-4.75
-0.39
3.18
6.02
8.14
9.53
10.21
10.30
10.11
9.98
10.21
10.88
11.86
12.84
13.50
13.65
13.30
12.65
11.94
11.37
11.00
10.77
10.52
10.17
9.67
9.05
8.43
7.86
7.35
6.85
6.25
5.51
4.65
3.76
2.97
2.37
1.99
1.77
1.58
1.24
0.49
-0.91
-3.12
-6.09
-9.45
-12.60
-14.83
-15.51
-14.33
-11.36
-7.01
-1.91
3.34
8.24
12.51
16.00
18.72
20.71
22.02
22.70
22.83
22.47
21.78
20.92
20.07
19.36
18.77
18.17
17.41
16.43
15.27
14.09
13.09
12.34
11.81
11.31
10.62
9.57
8.11
6.32
4.35
2.41
0.70
-0.71
-1.84
-2.87
-4.06
-5.59
-7.49
-9.61
-11.66
-13.39
-14.67
-15.56
-16.32
-17.30
-18.82
-21.06
-24.03
-27.42
-30.72
-33.19
-34.18
-33.22
-30.29
-25.78
-20.35
-14.73
-9.48
-4.88
-0.98
2.30
5.02
7.16
8.66
9.44
9.59
9.30
8.86
8.53
8.43
8.52
8.60
8.47
8.05
7.42
6.78
6.35
6.23
6.37
6.60
6.70
6.52
5.99
5.16
4.07
2.79
1.36
-0.16
-1.63
-2.86
-3.61
-3.72
-3.18
-2.22
-1.25
-0.80
-1.39
-3.33
-6.65
-11.01
-15.73
-19.94
-22.78
-23.68
-22.52
-19.65
-15.69
-11.34
-7.15
-3.38
-0.14
2.52
4.50
5.62
5.75
4.94
3.42
1.62
-0.01
-1.21
-1.87
-2.13
-2.20
-2.31
-2.58
-3.06
-3.68
-4.36
-5.05
-5.71
-6.32
-6.87
-7.36
-7.80
-8.24
-8.77
-9.47
-10.38
-11.48
-12.67
-13.80
-14.79
-15.59
-16.32
-17.13
-18.24
-19.80
-21.88
-24.44
-27.22
-29.85
-31.79
-32.47
-31.41
-28.35
-23.42
-17.13
-10.24
-3.55
2.33
7.15
10.98
14.03
16.57
18.71
20.50
21.94
23.04
23.88
24.55
25.08
25.44
25.56
25.42
25.07
24.68
24.39
24.30
24.37
24.43
24.31
23.90
23.16
22.14
20.95
19.65
18.30
16.84
15.18
13.23
10.90
8.16
5.06
1.70
-1.80
-5.35
-8.93
-12.61
-16.45
-20.48
-24.55
-28.32
-31.25
-32.79
-32.43
-29.98
-25.58
-19.75
-13.19
-6.59
-0.42
5.13
10.14
14.75
19.02
22.83
25.95
28.15
29.26
29.29
28.45
27.03
25.34
23.62
22.00
20.53
19.18
17.92
16.75
15.66
14.62
13.54
12.28
10.66
8.59
6.06
3.18
0.18
-2.76
-5.51
-8.06
-10.47
-12.85
-15.26
-17.63
-19.84
-21.70
-23.14
-24.21
-25.14
-26.26
-27.88
-30.07
-32.63
-35.02
-36.54
-36.55
-34.65
-30.80
-25.36
-18.90
-12.11
-5.58
0.25
5.20
9.22
12.37
14.70
16.28
17.14
17.33
16.97
16.24
15.41
14.74
14.43
14.54
14.96
15.50
15.91
16.06
15.92
15.56
15.06
14.43
13.55
12.27
10.50
8.31
5.91
3.54
1.40
-0.43
-1.98
-3.30
-4.47
-5.54
-6.63
-7.87
-9.50
-11.66
-14.36
-17.33
-20.10
-22.02
-22.55
-21.32
-18.32
-13.84
-8.37
-2.49
3.23
8.38
12.65
15.87
17.96
18.97
18.97
18.14
16.73
15.05
13.42
12.09
11.17
10.61
10.21
9.75
9.12
8.31
7.44
6.60
5.76
4.82
3.62
2.11
0.36
-1.48
-3.33
-5.15
-7.06
-9.13
-11.41
-13.79
-16.11
-18.17
-19.87
-21.22
-22.36
-23.49
-24.78
-26.30
-28.01
-29.75
-31.30
-32.39
-32.72
-32.02
-30.05
-26.66
-21.90
-16.04
-9.54
-2.96
3.20
8.57
12.94
16.25
18.46
19.58
19.68
18.95
17.65
16.11
14.56
13.16
11.98
11.09
10.57
10.51
10.88
11.51
12.07
12.24
11.79
10.67
8.95
6.78
4.28
1.55
-1.34
-4.27
-7.07
-9.55
-11.56
-13.00
-13.95
-14.57
-15.18
-16.12
-17.71
-20.13
-23.31
-26.94
-30.48
-33.29
-34.73
-34.35
-31.94
-27.68
-22.03
-15.70
-9.39
-3.66
1.24
5.29
8.65
11.47
13.77
15.42
16.23
16.14
15.33
14.27
13.60
13.95
15.63
18.55
22.24
26.08
29.54
32.37
34.61
36.55
38.57
40.98
44.00
47.66
51.74
55.66
58.60
59.62
58.00
53.48
46.39
37.55
27.97
18.55
9.86
2.10
-4.77
-10.87
-16.30
-21.08
-25.18
-28.56
-31.14
-32.87
-33.73
-33.77
-33.17
-32.20
-31.16
-30.25
-29.49
-28.67
-27.42
-25.39
-22.30
-18.15
-13.14
-7.63
-2.01
3.46
8.71
13.75
18.62
23.18
27.12
30.07
31.77
32.22
31.68
30.53
29.02
27.22
25.00
22.18
18.74
14.87
10.95
7.47
4.86
3.37
3.04
3.65
4.73
5.73
6.20
5.91
5.00
3.79
2.67
1.82
1.20
0.68
0.28
0.34
1.55
4.65
10.06
17.64
26.62
35.80
43.98
50.18
53.92
55.07
53.82
50.48
45.51
39.54
33.31
27.61
23.04
19.81
17.66
15.95
14.03
11.45
8.26
4.98
2.46
1.58
2.97
6.83
12.87
20.49
29.01
37.89
46.93
56.16
65.71
75.50
85.12
93.79
100.68
105.17
107.14
106.95
105.21
102.39
98.51
93.14
85.67
75.67
63.15
48.57
32.64
15.98
-0.98
-17.98
-34.78
-50.96
-65.85
-78.67
-88.70
-95.44
-98.81
-99.09
-96.80
-92.60
-87.17
-81.14
-75.05
-69.36
-64.36
-60.12
-56.41
-52.79
-48.66
-43.60
-37.59
-31.15
-25.34
-21.43
-20.58
-23.42
-29.86
-39.12
-49.96
-61.02
-71.16
-79.77
-86.76
-92.44
-97.23
-101.46
-105.15
-108.15
-110.20
-111.12
-110.87
-109.60
-107.57
-105.09
-102.45
-99.90
-97.62
-95.70
-94.09
-92.54
-90.59
-87.65
-83.22
-77.02
-69.11
-59.95
-50.29
-40.94
-32.63
-25.78
-20.48
-16.54
-13.57
-11.21
-9.23
-7.54
-6.14
-4.96
-3.75
-2.15
0.22
3.50
7.61
12.26
17.15
22.06
26.82
31.30
35.24
38.31
40.23
40.92
40.59
39.60
38.31
36.95
35.46
33.56
30.91
27.36
23.20
19.16
16.25
15.32
16.65
19.71
23.37
26.37
27.92
28.04
27.41
27.00
27.57
29.47
32.64
36.86
41.85
47.27
52.62
57.28
60.64
62.42
62.84
62.51
62.21
62.48
63.42
64.71
65.79
66.05
65.03
62.41
58.09
52.13
44.76
36.35
27.37
18.40
10.09
3.20
-1.60
-3.92
-3.92
-2.47
-0.90
-0.64
-2.58
-6.84
-12.76
-19.41
-26.06
-32.49
-38.90
-45.52
-52.30
-58.81
-64.50
-69.06
-72.56
-75.45
-78.12
-80.68
-82.79
-83.84
-83.16
-80.24
-74.73
-66.41
-55.17
-41.17
-25.00
-7.80
8.92
23.64
35.37
44.10
50.92
57.75
66.69
79.29
96.11
116.65
139.73
164.01
188.34
211.76
233.20
251.26
264.27
270.69
269.65
261.20
246.22
225.94
201.57
174.09
144.46
113.80
83.46
54.69
28.34
4.64
-16.63
-35.85
-53.13
-68.35
-81.35
-92.23
-101.50
-109.94
-118.09
-125.95
-132.88
-137.95
-140.46
-140.37
-138.34
-135.41
-132.49
-130.05
-127.96
-125.80
-123.08
-119.57
-115.26
-110.33
-105.01
-99.56
-94.26
-89.38
-85.14
-81.53
-78.36
-75.24
-71.79
-67.74
-63.09
-58.10
-53.34
-49.59
-47.72
-48.39
-51.71
-57.07
-63.18
-68.44
-71.48
-71.63
-69.16
-65.08
-60.67
-57.05
-54.73
-53.62
-53.16
-52.59
-51.31
-48.98
-45.51
-41.04
-35.76
-29.83
-23.38
-16.58
-9.71
-3.16
2.64
7.36
10.84
13.18
14.68
15.77
16.88
18.42
20.67
23.76
27.51
31.47
34.86
36.78
36.48
33.65
28.59
22.17
15.56
9.87
5.79
3.32
1.70
-0.34
-4.16
-10.61
-19.42
-28.90
-36.18
-37.99
-31.87
-17.23
4.22
28.89
52.40
70.99
82.57
87.01
85.90
81.71
76.97
73.47
71.82
71.30
70.14
66.23
58.01
45.33
29.72
14.03
1.45
-5.62
-6.20
-0.87
8.85
21.16
34.53
47.83
60.19
70.90
79.40
85.56
89.71
92.60
94.95
97.05
98.56
98.69
96.58
91.78
84.40
75.06
64.42
52.87
40.34
26.28
9.90
-9.58
-32.69
-59.36
-88.53
-117.83
-143.59
-161.59
-168.32
-162.33
-145.03
-120.41
-93.64
-69.26
-49.82
-35.61
-25.41
-17.80
-12.07
-8.33
-6.90
-7.66
-9.64
-11.50
-12.17
-11.52
-10.41
-10.12
-11.68
-15.28
-20.24
-25.31
-29.35
-31.68
-32.36
-32.02
-31.54
-31.71
-32.98
-35.36
-38.60
-42.36
-46.45
-50.95
-56.21
-62.73
-70.91
-80.95
-92.78
-106.01
-119.93
-133.51
-145.31
-153.66
-156.99
-154.31
-145.65
-132.17
-115.80
-98.64
-82.24
-67.22
-53.29
-39.73
-26.01
-12.11
1.36
13.50
23.58
31.30
36.99
41.49
45.92
51.54
59.36
69.93
82.99
97.41
111.27
122.40
129.02
130.26
126.41
118.56
108.11
96.29
83.96
71.61
59.70
48.80
39.51
32.27
27.14
23.75
21.54
20.14
19.69
20.90
24.68
31.63
41.57
53.47
65.73
76.82
85.78
92.47
97.38
101.21
104.43
107.02
108.48
108.09
105.31
99.99
92.58
83.92
74.94
66.25
57.79
48.95
38.90
27.13
13.81
-0.12
-13.36
-24.73
-33.68
-40.40
-45.71
-50.63
-56.01
-62.33
-69.48
-76.93
-83.89
-89.69
-94.04
-97.17
-99.79
-102.79
-106.77
-111.68
-116.66
-120.33
-121.23
-118.33
-111.38
-100.86
-87.68
-72.83
-57.09
-41.01
-25.04
-9.75
4.17
15.94
24.98
31.11
34.68
36.41
37.22
37.86
38.69
39.63
40.29
40.27
39.42
37.95
36.37
35.22
34.81
34.98
35.14
34.53
32.53
28.92
23.94
18.25
12.61
7.64
3.63
0.48
-2.19
-4.90
-8.17
-12.35
-17.62
-23.85
-30.56
-36.94
-41.87
-44.26
-43.21
-38.35
-29.99
-19.00
-6.57
6.08
17.96
28.46
37.25
44.22
49.29
52.42
53.58
52.87
50.64
47.45
44.00
40.94
38.66
37.21
36.36
35.69
34.89
33.77
32.39
30.81
29.08
27.07
24.54
21.28
17.24
12.52
7.45
2.44
-2.12
-5.96
-9.03
-11.49
-13.71
-16.18
-19.39
-23.64
-28.82
-34.35
-39.20
-42.16
-42.18
-38.66
-31.72
-22.09
-10.90
0.60
11.36
20.72
28.44
34.53
39.20
42.64
44.95
46.17
46.24
45.18
43.09
40.24
37.00
33.80
30.94
28.60
26.78
25.35
24.19
23.18
22.26
21.38
20.44
19.28
17.72
15.60
12.82
9.44
5.64
1.71
-2.05
-5.45
-8.43
-11.08
-13.57
-16.09
-18.77
-21.77
-25.21
-29.11
-33.30
-37.25
-40.08
-40.76
-38.44
-32.86
-24.49
-14.44
-4.11
5.33
13.19
19.39
24.22
28.04
31.04
33.17
34.23
34.07
32.72
30.46
27.77
25.08
22.72
20.78
19.20
17.85
16.62
15.52
14.56
13.74
12.94
11.96
10.53
8.50
5.81
2.61
-0.86
-4.24
-7.29
-9.85
-11.94
-13.78
-15.60
-17.60
-19.82
-22.13
-24.32
-26.22
-27.65
-28.32
-27.59
-24.46
-17.87
-7.12
7.65
25.43
44.57
63.40
80.61
95.34
107.00
114.98
118.59
117.30
111.20
101.18
88.80
75.77
63.37
52.15
41.95
32.34
23.03
14.03
5.68
-1.67
-7.84
-12.96
-17.40
-21.55
-25.70
-29.90
-33.92
-37.31
-39.47
-39.80
-37.86
-33.54
-27.15
-19.38
-11.09
-3.16
3.70
8.99
12.42
13.87
13.30
10.89
6.94
1.92
-3.64
-9.18
-14.13
-17.95
-20.15
-20.39
-18.60
-15.09
-10.46
-5.41
-0.49
4.12
8.53
13.01
17.73
22.58
27.12
30.71
32.73
32.72
30.41
25.70
18.55
8.90
-3.27
-17.72
-33.76
-50.10
-65.01
-76.68
-83.77
-85.87
-83.63
-78.48
-72.23
-66.48
-62.33
-60.26
-60.27
-61.93
-64.46
-66.69
-67.15
-64.41
-57.55
-46.63
-32.92
-18.60
-6.25
2.02
5.08
3.01
-3.04
-11.36
-20.14
-27.89
-33.65
-36.94
-37.67
-35.99
-32.21
-26.71
-20.04
-12.80
-5.56
1.22
7.35
12.82
17.75
22.17
25.88
28.51
29.72
29.43
28.06
26.47
25.74
26.84
30.29
36.03
43.40
51.32
58.57
64.02
66.85
66.74
63.81
58.61
51.88
44.39
36.68
29.00
21.31
13.44
5.25
-3.16
-11.53
-19.43
-26.49
-32.59
-37.93
-42.94
-48.02
-53.24
-58.10
-61.57
-62.27
-58.89
-50.65
-37.64
-20.98
-2.71
14.56
28.29
36.68
39.19
36.69
31.21
25.18
20.67
18.81
19.52
21.86
24.42
25.88
25.37
22.61
18.04
12.67
7.89
5.14
5.47
9.09
15.30
22.53
28.89
32.65
32.82
29.45
23.66
17.40
12.91
11.97
15.24
21.95
30.14
37.48
42.18
43.70
42.56
39.64
35.18
28.39
17.77
2.20
-18.00
-40.66
-62.24
-79.05
-88.34
-88.96
-81.21
-66.23
-45.47
-20.41
7.47
37.07
68.25
102.34
141.83
188.90
243.41
301.44
355.63
397.51
420.86
424.22
411.25
388.53
362.23
335.63
308.54
279.11
246.21
210.92
176.27
145.46
119.73
97.38
74.48
46.62
10.96
-32.51
-80.79
-128.45
-168.44
-193.01
-195.12
-170.38
-119.30
-48.64
29.50
100.77
153.27
181.26
186.49
176.07
158.64
140.65
124.89
111.37
99.44
89.50
82.99
81.04
83.13
86.47
86.91
80.75
66.07
43.07
13.46
-20.42
-55.96
-90.24
-119.87
-141.37
-152.21
-152.00
-142.91
-129.05
-115.17
-105.10
-101.05
-103.66
-112.47
-126.47
-144.13
-163.44
-182.09
-198.07
-210.38
-219.39
-226.44
-233.08
-240.26
-248.13
-256.20
-263.79
-270.44
-276.13
-281.19
-286.08
-291.18
-296.51
-301.46
-304.74
-304.52
-298.90
-286.57
-267.39
-242.53
-214.01
-183.74
-152.64
-119.95
-83.59
-41.32
7.74
61.78
116.17
164.57
201.03
222.03
227.60
220.97
206.90
189.82
172.40
155.27
137.81
119.17
99.08
77.87
56.13
34.16
11.89
-10.76
-33.42
-55.00
-73.90
-88.60
-98.34
-103.43
-105.21
-105.45
-105.66
-106.54
-107.84
-108.62
-107.85
-104.97
-100.12
-94.13
-88.13
-83.14
-79.63
-77.55
-76.40
-75.57
-74.60
-73.26
-71.50
-69.42
-67.13
-64.76
-62.49
-60.53
-59.08
-58.28
-58.17
-58.65
-59.53
-60.53
-61.34
-61.75
-61.66
-61.19
-60.58
-60.09
-59.93
-60.16
-60.72
-61.55
-62.57
-63.69
-64.68
-65.34
-65.45
-65.03
-64.35
-63.89
-64.10
-65.11
-66.55
-67.68
-67.67
-65.98
-62.59
-57.98
-52.80
-47.59
-42.55
-37.63
-32.74
-28.09
-24.24
-22.01
-22.03
-24.38
-28.41
-32.96
-36.80
-39.10
-39.70
-39.11
-38.25
-38.04
-39.08
-41.48
-44.96
-49.01
-53.12
-56.99
-60.68
-64.59
-69.35
-75.53
-83.23
-91.90
-100.39
-107.24
-111.22
-111.60
-108.34
-101.82
-92.54
-80.80
-66.67
-50.06
-30.96
-9.56
13.69
37.86
61.32
81.57
95.51
100.21
94.03
77.63
54.39
29.90
10.52
1.75
6.79
25.85
56.43
94.21
134.04
170.76
199.76
217.27
220.63
208.79
182.70
145.66
103.11
61.76
28.19
7.39
1.59
9.99
29.15
53.90
78.31
96.62
104.13
97.96
77.75
45.88
7.26
-31.68
-64.25
-84.70
-89.23
-76.37
-47.22
-5.38
43.38
92.02
133.44
161.83
173.72
168.29
147.09
113.51
72.08
27.90
-14.21
-50.56
-79.45
-101.62
-119.80
-137.59
-157.95
-182.02
-208.87
-236.01
-260.64
-280.60
-294.89
-303.53
-306.88
-305.06
-297.67
-283.96
-263.43
-236.31
-203.84
-167.86
-130.21
-92.12
-54.04
-15.84
22.69
61.68
101.08
140.93
181.32
222.16
262.71
301.21
334.98
360.81
375.74
377.62
365.60
340.33
303.95
260.02
213.12
168.12
129.26
99.23
78.65
66.17
59.05
54.09
48.34
39.59
26.52
8.59
-14.10
-40.95
-70.89
-102.42
-133.51
-161.71
-184.28
-198.57
-202.56
-195.34
-177.41
-150.72
-118.33
-83.84
-50.67
-21.39
2.60
21.13
34.90
45.01
52.48
58.23
62.95
67.32
72.04
77.87
85.59
96.16
110.91
131.43
159.18
194.44
235.43
278.10
316.94
346.69
364.13
368.93
363.23
350.20
332.55
311.93
289.21
265.29
241.52
219.36
199.50
181.23
162.72
142.26
119.59
96.39
75.54
59.58
49.19
42.61
36.22
25.87
8.27
-17.96
-52.16
-91.89
-133.56
-173.23
-207.29
-233.06
-249.14
-255.45
-253.12
-244.10
-230.73
-215.26
-199.43
-184.14
-169.36
-154.36
-138.25
-120.61
-101.78
-82.80
-64.93
-48.99
-35.00
-22.20
-9.42
4.45
20.10
37.72
57.03
77.51
98.44
118.95
138.03
154.64
167.87
177.19
182.53
184.19
182.71
178.57
172.17
163.91
154.34
144.29
134.70
126.32
119.37
113.38
107.42
100.50
92.09
82.28
71.62
60.74
50.09
39.79
29.82
20.28
11.45
3.60
-3.16
-9.08
-14.51
-19.84
-24.86
-29.15
-32.28
-34.16
-35.20
-36.20
-37.95
-40.87
-44.90
-49.32
-53.39
-56.59
-58.78
-60.26
-61.62
-63.60
-66.89
-72.17
-78.97
-86.32
-92.49
-95.37
-93.15
-84.87
-70.82
-52.42
-32.34
-11.62
8.58
27.89
46.44
64.42
81.85
98.50
114.10
127.02
138.92
150.11
160.92
171.68
182.66
193.99
205.56
216.81
224.15
228.22
226.75
217.50
199.00
170.98
134.77
92.95
48.83
2.39
-40.84
-79.76
-114.35
-145.06
-172.38
-196.40
-217.07
-214.56
-213.26
-210.89
-209.17
-210.00
-215.25
-226.60
-245.14
-270.60
-300.56
-333.28
-358.92
-371.04
-365.63
-342.66
-306.15
-262.52
-218.29
-178.11
-146.50
-121.08
-101.18
-86.24
-76.00
-70.06
-67.33
-65.93
-63.67
-60.25
-53.24
-42.92
-30.48
-17.23
-3.87
9.98
25.52
44.07
65.35
89.13
112.98
133.96
149.71
159.26
163.18
162.97
160.21
155.75
150.39
144.46
138.42
132.98
128.82
126.10
124.24
122.02
118.03
111.21
101.28
88.90
75.44
62.48
51.27
42.34
35.45
29.84
24.71
19.59
14.48
9.65
5.24
1.14
-3.00
-7.49
-12.35
-17.29
-21.93
-26.01
-29.62
-33.08
-36.73
-40.67
-44.62
-47.98
-50.08
-50.48
-49.18
-46.71
-43.91
-41.58
-40.23
-39.84
-40.06
-40.43
-40.64
-40.69
-40.76
-40.99
-41.34
-41.58
-41.38
-40.54
-39.13
-37.44
-35.89
-34.79
-34.24
-34.10
-34.10
-33.94
-33.38
-32.20
-30.16
-26.85
-21.83
-14.82
-5.88
4.43
15.18
25.31
33.88
40.34
44.49
46.47
46.63
45.37
43.12
40.22
36.97
33.62
30.48
27.84
25.92
24.69
23.81
22.67
20.69
17.53
13.35
8.70
4.28
0.63
-2.07
-4.04
-5.68
-7.34
-9.21
-11.22
-13.24
-15.19
-17.02
-18.80
-20.55
-22.17
-23.46
-24.22
-24.28
-23.68
-22.61
-21.37
-20.24
-19.36
-18.64
-17.87
-16.72
-14.89
-12.15
-8.39
-3.66
1.95
8.22
14.95
21.89
28.83
35.54
41.71
47.03
51.23
54.12
55.66
55.91
54.93
52.69
49.10
44.09
37.79
30.64
23.32
16.53
10.75
5.97
1.75
-2.52
-7.31
-12.64
-18.18
-23.37
-27.82
-31.55
-34.95
-38.58
-42.80
-47.65
-52.75
-57.74
-62.41
-66.96
-71.82
-77.33
-83.46
-89.73
-95.33
-99.45
-101.50
-101.31
-98.91
-94.46
-88.02
-79.55
-69.04
-56.69
-42.98
-28.77
-15.09
-2.97
6.88
14.23
19.32
22.77
25.20
27.04
28.35
28.96
28.72
27.66
26.09
24.47
23.19
22.41
21.98
21.42
20.24
18.03
14.63
10.13
4.84
-0.89
-6.74
-12.58
-18.47
-24.66
-31.55
-39.52
-48.79
-59.18
-69.99
-80.12
-88.43
-94.31
-98.12
-101.25
-105.86
-114.11
-127.36
-145.40
-166.01
-185.08
-197.41
-198.02
-183.71
-154.23
-112.56
-64.19
-15.39
28.55
64.63
92.21
112.33
126.55
136.04
141.44
143.10
141.63
137.99
133.35
128.56
123.84
118.75
112.56
104.87
96.02
87.05
79.25
73.45
69.55
66.39
62.30
55.87
46.59
35.10
22.90
11.66
2.59
-3.88
-8.09
-10.74
-12.71
-14.63
-16.99
-19.93
-23.25
-26.42
-28.65
-29.17
-27.58
-24.02
-19.07
-13.48
-7.82
-2.38
2.69
7.24
10.98
13.70
15.42
16.54
17.64
19.18
21.35
24.13
27.50
31.62
36.82
43.26
50.61
57.94
63.94
67.34
67.32
63.80
57.26
48.45
37.97
26.03
12.43
-3.02
-20.03
-37.48
-53.27
-64.85
-70.06
-67.92
-59.11
-45.71
-30.47
-15.96
-3.88
4.92
10.22
11.98
10.21
5.00
-3.18
-13.29
-23.82
-33.13
-39.98
-43.95
-45.58
-46.23
-47.53
-50.83
-56.66
-64.41
-72.20
-77.15
-75.78
-64.60
-40.95
-3.93
44.78
100.70
157.14
206.70
243.26
263.61
268.02
259.60
242.60
220.84
196.68
171.12
144.58
117.68
91.53
67.46
46.32
28.02
11.50
-4.64
-21.53
-39.38
-57.39
-74.09
-87.81
-97.24
-101.80
-101.59
-97.18
-89.28
-78.46
-65.14
-49.72
-32.87
-15.56
0.93
15.43
27.24
36.28
43.14
48.64
53.46
57.83
61.57
64.31
65.93
66.67
67.12
67.95
69.53
71.78
74.09
75.66
75.77
74.04
70.48
65.35
58.90
51.32
42.65
33.03
22.82
12.61
3.07
-5.30
-12.37
-18.40
-23.85
-29.18
-34.56
-39.93
-44.95
-49.29
-52.74
-55.22
-56.78
-57.44
-57.09
-55.48
-52.35
-47.64
-41.64
-35.05
-28.83
-23.83
-20.52
-18.80
-18.15
-17.80
-17.18
-16.07
-14.62
-13.18
-12.04
-11.32
-10.93
-10.66
-10.33
-9.93
-9.60
-9.52
-9.82
-10.51
-11.47
-12.58
-13.83
-15.37
-17.43
-20.18
-23.55
-27.29
-31.01
-34.44
-37.58
-40.69
-44.16
-48.21
-52.73
-57.31
-61.36
-64.40
-66.05
-66.04
-63.97
-59.28
-51.41
-40.11
-25.80
-9.71
6.34
20.37
30.79
36.74
38.21
35.87
30.72
23.82
16.09
8.20
0.61
-6.37
-12.53
-17.71
-21.88
-25.13
-27.79
-30.33
-33.31
-37.12
-41.85
-47.18
-52.56
-57.35
-61.14
-63.91
-65.98
-67.93
-70.43
-74.10
-79.37
-86.44
-95.06
-104.46
-113.30
-119.90
-122.67
-120.55
-113.44
-102.12
-88.00
-72.57
-56.99
-41.92
-27.55
-14.02
-1.56
9.36
18.20
24.55
28.44
30.32
30.93
31.10
31.35
31.85
32.44
32.87
33.06
33.18
33.48
34.14
34.99
35.46
34.81
32.42
28.15
22.42
16.05
9.90
4.50
-0.16
-4.59
-9.47
-15.45
-22.84
-31.56
-41.23
-51.21
-60.58
-68.20
-72.82
-73.41
-69.40
-60.97
-48.92
-34.39
-18.47
-2.10
13.94
28.87
41.94
52.49
60.19
65.19
67.99
69.26
69.50
68.99
67.87
66.33
64.78
63.68
63.32
63.53
63.67
62.85
60.42
56.20
50.61
44.47
38.60
33.46
29.07
25.04
20.88
16.14
10.59
4.19
-2.97
-10.74
-18.98
-27.69
-36.98
-47.00
-57.69
-68.62
-78.79
-86.85
-91.32
-91.09
-85.75
-75.60
-61.58
-44.86
-26.73
-8.37
9.10
24.59
37.13
46.03
51.02
52.34
50.69
47.04
42.38
37.46
32.83
28.84
25.72
23.65
22.75
22.94
24.01
25.64
27.58
29.76
32.22
35.02
37.99
40.69
42.41
42.45
40.37
36.23
30.61
24.40
18.47
13.33
9.00
5.00
0.62
-4.84
-11.83
-20.46
-30.48
-41.25
-51.73
-60.53
-66.10
-67.05
-62.65
-53.00
-39.05
-22.32
-4.42
13.22
29.59
43.97
55.84
64.78
70.58
73.30
73.37
71.53
68.73
65.84
63.53
62.07
61.31
60.78
59.83
57.90
54.70
50.29
45.11
39.75
34.76
30.46
26.87
23.74
20.76
17.67
14.26
10.40
5.93
0.71
-5.29
-11.86
-18.67
-25.46
-32.51
-40.75
-51.66
-66.66
-86.28
-109.47
-133.41
-154.13
-167.56
-170.77
-162.78
-144.72
-119.32
-90.06
-60.31
-32.85
-9.80
7.43
17.91
21.34
18.13
9.46
-2.81
-16.46
-29.22
-39.21
-45.06
-46.16
-42.61
-35.17
-25.03
-13.54
-1.91
8.95
18.55
26.61
32.97
37.40
39.62
39.39
36.61
31.41
24.16
15.26
5.09
-6.01
-17.71
-29.52
-40.82
-50.98
-59.68
-67.08
-74.00
-81.53
-90.59
-101.26
-112.43
-122.02
-127.49
-126.73
-118.69
-103.66
-83.04
-58.81
-33.03
-7.49
16.24
36.80
52.98
63.87
69.17
69.43
65.98
60.63
55.19
50.98
48.60
47.99
48.68
50.15
51.98
53.89
55.63
56.94
57.52
57.24
56.17
54.57
52.75
50.84
48.69
45.92
42.13
37.13
30.98
23.95
16.46
8.91
1.69
-4.98
-11.18
-17.38
-24.46
-33.49
-45.15
-59.25
-74.38
-88.07
-97.31
-99.41
-92.78
-77.34
-54.51
-26.74
3.01
31.94
57.78
78.96
94.68
104.84
109.95
110.97
109.13
105.67
101.65
97.77
94.43
91.79
89.85
88.64
88.10
88.13
88.51
88.88
88.83
87.97
85.97
82.70
78.12
72.32
65.37
57.34
48.35
38.63
28.54
18.56
9.17
0.78
-6.43
-12.55
-17.81
-22.66
-27.63
-33.31
-40.19
-48.44
-57.61
-66.55
-73.45
-76.34
-73.66
-64.79
-50.31
-31.78
-11.32
9.04
27.70
43.67
56.45
65.77
71.52
73.78
72.89
69.55
64.83
59.95
55.96
53.61
53.07
54.00
55.70
57.37
58.41
58.45
57.47
55.55
52.79
49.15
44.52
38.79
32.04
24.56
16.83
9.37
2.60
-3.34
-8.54
-13.32
-18.12
-23.40
-29.61
-37.12
-46.04
-56.16
-66.66
-76.17
-82.92
-85.20
-81.87
-72.75
-58.71
-41.31
-22.39
-3.56
14.03
29.63
42.74
52.95
59.88
63.39
63.59
61.07
56.77
51.82
47.31
44.07
42.42
42.17
42.71
43.33
43.46
42.83
41.49
39.58
37.11
33.90
29.60
23.92
16.78
8.45
-0.56
-9.55
-17.85
-24.91
-30.42
-34.31
-36.81
-38.45
-40.01
-42.37
-46.33
-52.33
-60.16
-68.86
-76.75
-81.84
-82.33
-77.16
-66.37
-51.04
-32.94
-13.97
4.28
20.79
35.00
46.64
55.56
61.63
64.85
65.48
64.05
61.38
58.39
55.81
54.07
53.13
52.61
52.03
51.04
49.52
47.59
45.41
43.00
40.22
36.82
32.63
27.66
22.08
16.14
9.98
3.67
-2.83
-9.45
-16.12
-22.65
-28.96
-35.11
-41.34
-48.04
-55.57
-64.08
-73.25
-82.22
-89.56
-93.62
-92.98
-86.90
-75.67
-60.50
-43.21
-25.68
-9.45
4.55
15.96
24.81
31.30
35.68
38.16
38.99
38.54
37.31
35.82
34.47
33.49
32.86
32.44
32.09
31.78
31.48
31.02
30.02
28.00
24.45
19.15
12.24
4.20
-4.38
-12.94
-21.06
-28.43
-34.85
-40.18
-44.37
-47.55
-50.00
-52.02
-53.93
-55.93
-58.18
-60.75
-63.65
-66.54
-68.69
-69.06
-66.51
-60.33
-50.56
-38.03
-24.12
-10.31
2.25
12.95
21.54
28.02
32.39
34.67
34.97
33.68
31.42
29.06
27.47
27.39
29.22
32.94
38.13
43.99
49.50
53.63
55.53
54.70
51.14
45.35
38.14
30.49
23.22
16.83
11.46
6.93
2.85
-1.18
-5.57
-10.62
-16.54
-23.36
-30.91
-38.86
-46.85
-54.62
-62.01
-68.87
-74.77
-78.90
-80.11
-77.33
-70.00
-58.38
-43.55
-27.05
-10.44
5.14
18.98
30.64
39.79
46.09
49.31
49.56
47.38
43.66
39.45
35.62
32.67
30.74
29.67
29.26
29.29
29.56
29.87
29.94
29.51
28.40
26.57
24.12
21.17
17.75
13.75
8.96
3.25
-3.34
-10.57
-18.05
-25.41
-32.40
-39.00
-45.43
-51.96
-58.90
-66.47
-74.81
-83.80
-93.03
-101.65
-108.36
-111.63
-110.09
-102.95
-90.42
-73.68
-54.60
-35.13
-16.85
-0.61
13.39
25.31
35.45
43.96
50.86
56.14
59.77
61.80
62.43
61.99
60.97
59.96
59.54
60.12
61.69
63.92
66.17
67.87
68.61
68.36
67.26
65.57
63.40
60.79
57.74
54.27
50.37
45.71
39.51
30.50
17.52
0.16
-20.70
-42.92
-63.93
-81.86
-96.37
-108.69
-120.60
-133.24
-146.21
-157.60
-164.99
-166.65
-162.35
-153.03
-139.87
-123.28
-102.91
-78.32
-50.08
-20.18
8.49
33.53
54.12
71.15
86.25
100.22
112.00
119.06
118.81
110.37
95.52
78.11
62.46
51.45
45.62
43.38
42.30
40.41
37.01
32.56
28.00
23.87
19.95
15.46
9.63
2.21
-6.35
-15.05
-22.97
-29.58
-34.94
-39.56
-44.11
-49.11
-54.80
-61.09
-67.48
-73.13
-76.98
-77.91
-75.18
-68.72
-59.30
-48.39
-37.73
-28.95
-23.27
-21.43
-23.67
-29.68
-38.53
-48.65
-58.01
-64.55
-66.77
-64.10
-56.98
-46.62
-34.55
-22.22
-10.78
-1.02
6.68
12.22
15.83
17.94
19.04
19.63
20.10
20.67
21.43
22.32
23.09
23.36
22.75
21.01
18.23
14.84
11.48
8.67
6.51
4.55
1.97
-2.10
-8.15
-15.97
-24.62
-32.64
-38.42
-40.53
-38.16
-31.14
-20.09
-6.22
8.95
23.89
37.39
48.71
57.56
63.93
67.90
69.61
69.26
67.24
64.18
60.79
57.76
55.49
54.10
53.53
53.69
54.58
56.28
58.79
61.93
65.25
68.23
70.41
71.59
71.80
71.19
69.87
67.81
64.84
60.76
55.51
49.21
42.20
34.93
27.81
21.15
15.09
9.64
4.80
0.65
-2.54
-4.40
-4.55
-2.81
0.71
5.60
11.24
17.00
22.46
27.38
31.70
35.33
37.97
39.07
37.87
33.65
26.00
15.03
1.48
-13.43
-28.28
-41.82
-53.13
-61.71
-67.45
-70.49
-71.21
-70.06
-67.56
-64.14
-60.07
-55.47
-50.35
-44.87
-39.40
-34.64
-31.41
-30.43
-32.14
-36.59
-43.60
-52.91
-64.36
-77.82
-92.91
-108.61
-122.93
-133.10
-136.08
-129.50
-112.54
-86.36
-53.78
-18.54
15.75
46.27
71.37
90.21
102.43
107.70
105.73
96.52
80.70
59.76
35.95
11.86
-10.11
-28.24
-41.73
-50.64
-55.57
-57.29
-56.47
-53.60
-49.09
-43.40
-37.20
-31.35
-26.81
-24.34
-24.33
-26.57
-30.26
-34.31
-37.76
-40.25
-42.22
-44.71
-48.67
-54.09
-59.35
-61.24
-55.80
-39.36
-9.60
33.89
89.38
153.05
219.18
280.69
330.10
361.06
369.78
355.96
322.63
275.05
219.05
159.86
101.52
47.00
-1.42
-42.11
-74.25
-98.10
-114.95
-126.60
-134.78
-140.54
-144.16
-145.18
-142.97
-137.20
-128.20
-117.04
-105.33
-94.72
-86.51
-81.37
-79.44
-80.50
-84.19
-90.01
-97.12
-104.28
-110.09
-113.40
-113.77
-111.58
-107.73
-102.95
-97.25
-89.97
-80.15
-67.26
-51.65
-34.53
-17.39
-1.33
13.43
27.64
42.48
58.99
77.49
97.27
116.77
133.90
146.61
153.25
152.93
145.52
131.62
112.36
89.28
64.13
38.66
14.47
-7.27
-25.93
-41.45
-54.29
-65.09
-74.41
-82.53
-89.33
-94.46
-97.42
-97.77
-95.17
-89.52
-80.97
-70.12
-58.06
-46.34
-36.71
-30.64
-28.97
-31.55
-37.34
-44.54
-50.90
-54.11
-52.09
-43.32
-27.14
-3.91
25.08
57.80
91.85
124.63
153.51
175.93
189.71
193.49
187.16
172.14
151.02
126.90
102.41
79.14
57.53
37.27
18.02
-0.11
-16.56
-30.61
-41.91
-50.76
-58.01
-64.56
-70.87
-76.64
-81.00
-82.98
-82.10
-78.60
-73.26
-67.00
-60.43
-53.86
-47.54
-41.91
-37.69
-35.56
-35.72
-37.62
-40.04
-41.59
-41.18
-38.30
-32.96
-25.44
-16.08
-5.36
6.11
17.56
