1525970253.00
64.000000
-0.00
-0.00
-0.00
-0.00
-0.00
-0.00
-0.00
-0.00
-0.00
-0.00
0.00
0.01
0.01
-0.00
-0.03
-0.05
-0.05
0.00
0.13
0.36
0.66
1.01
1.37
1.72
2.06
2.40
2.79
3.24
3.80
4.42
5.06
5.66
6.20
6.68
7.15
7.68
8.31
9.14
10.09
11.04
11.88
12.56
13.14
13.76
14.65
15.96
17.91
20.32
22.90
25.38
27.58
29.57
31.68
34.32
37.81
42.54
48.15
54.11
59.84
64.97
69.58
74.14
79.34
85.71
93.78
103.04
112.67
121.77
129.75
136.63
143.04
150.34
157.25
166.05
177.34
191.19
206.37
219.94
227.53
224.52
207.56
175.81
131.67
78.99
22.06
-35.96
-93.56
-150.51
-206.91
-262.38
-315.99
-366.19
-412.07
-453.03
-488.66
-518.21
-540.36
-553.25
-554.92
-544.01
-520.13
-484.51
-439.50
-388.09
-333.26
-277.36
-221.94
-167.81
-115.52
-65.61
-19.08
22.77
58.67
87.77
110.03
126.20
137.67
145.83
151.80
155.97
158.21
158.11
155.30
149.60
141.00
129.85
117.09
104.52
94.74
90.51
93.55
103.56
117.97
132.78
144.03
149.33
148.42
142.72
134.22
124.52
114.34
103.83
93.14
82.72
73.27
65.48
59.32
54.28
49.58
44.49
38.74
32.55
26.55
21.49
17.89
15.79
14.76
14.08
13.06
11.34
8.96
6.32
3.91
2.05
0.82
0.09
-0.38
-0.84
-1.42
-2.16
-3.05
-3.99
-4.85
-5.54
-6.03
-6.30
-6.30
-5.91
-4.99
-3.51
-1.65
0.14
1.33
1.49
0.54
-1.21
-3.19
-4.85
-5.85
-6.18
-6.01
-5.57
-4.96
-4.22
-3.33
-2.37
-1.53
-1.00
-0.90
-1.22
-1.68
-1.99
-1.91
-1.44
-0.81
-0.31
-0.16
-0.35
-0.66
-0.83
-0.73
-0.40
0.00
0.29
0.39
0.35
0.28
0.24
0.22
0.18
0.14
0.17
0.40
0.94
1.79
2.84
3.99
5.15
6.35
7.58
8.84
10.01
10.88
11.27
11.05
10.23
8.91
7.22
5.15
2.71
-0.03
-2.93
-5.71
-8.15
-10.12
-11.59
-12.66
-13.42
-13.83
-13.81
-13.31
-12.33
-11.08
-9.77
-8.61
-7.69
-7.03
-6.57
-6.29
-6.12
-5.96
-5.63
-4.89
-3.56
-1.70
0.42
2.34
3.63
4.07
3.68
2.77
1.71
0.80
0.11
-0.45
-1.07
-1.87
-2.88
-4.02
-5.22
-6.32
-7.17
-7.54
-7.14
-5.79
-3.55
-0.73
2.12
4.47
5.98
6.62
6.59
6.20
5.74
5.39
5.32
5.63
6.38
7.49
8.71
9.66
9.91
9.30
7.97
6.35
4.97
4.27
4.57
5.89
8.06
10.66
13.17
15.08
16.08
16.17
15.70
15.19
15.03
15.29
15.67
15.64
14.80
13.13
11.01
9.03
7.65
6.91
6.46
5.69
4.05
1.31
-2.33
-6.37
-10.23
-13.45
-15.83
-17.38
-18.20
-18.39
-17.99
-16.99
-15.42
-13.43
-11.30
-9.36
-7.95
-7.26
-7.39
-8.32
-9.92
-11.96
-14.16
-16.21
-17.92
-19.24
-20.26
-21.08
-21.66
-21.83
-21.38
-20.29
-18.83
-17.49
-16.69
-16.51
-16.54
-16.10
-14.56
-11.77
-8.14
-4.47
-1.50
0.38
1.27
1.60
1.80
2.09
2.43
2.61
2.51
2.16
1.74
1.47
1.43
1.56
1.71
1.79
1.83
1.94
2.25
2.78
3.38
3.81
3.87
3.43
2.57
1.50
0.47
-0.24
-0.54
-0.46
-0.16
0.10
0.08
-0.33
-1.11
-2.09
-3.07
-3.84
-4.33
-4.56
-4.66
-4.79
-5.13
-5.74
-6.61
-7.64
-8.64
-9.40
-9.73
-9.54
-8.85
-7.83
-6.76
-5.99
-5.76
-6.20
-7.22
-8.48
-9.58
-10.10
-9.80
-8.67
-6.89
-4.80
-2.77
-1.07
0.16
0.91
1.26
1.34
1.30
1.26
1.30
1.42
1.60
1.75
1.83
1.78
1.59
1.27
0.88
0.57
0.51
0.92
1.97
3.66
5.79
7.97
9.75
10.79
11.00
10.55
9.82
9.24
9.11
9.58
10.56
11.84
13.16
14.26
14.96
15.16
14.89
14.26
13.48
12.73
12.15
11.74
11.43
11.08
10.58
9.93
9.22
8.62
8.29
8.26
8.45
8.66
8.65
8.17
7.09
5.38
3.24
1.00
-0.90
-2.08
-2.33
-1.74
-0.62
0.57
1.48
1.93
2.00
1.89
1.78
1.74
1.66
1.38
0.79
-0.01
-0.70
-0.86
-0.11
1.68
4.33
7.35
10.10
12.04
12.87
12.68
11.83
10.82
10.09
9.84
10.03
10.43
10.69
10.47
9.52
7.80
5.54
3.30
1.81
1.74
3.39
6.58
10.66
14.77
18.20
20.57
21.94
22.57
22.77
22.71
22.35
21.51
19.98
17.60
14.38
10.51
6.32
2.23
-1.41
-4.41
-6.79
-8.71
-10.36
-11.87
-13.27
-14.56
-15.66
-16.51
-17.01
-17.01
-16.33
-14.88
-12.72
-10.15
-7.67
-5.78
-4.86
-4.90
-5.56
-6.30
-6.58
-6.20
-5.37
-4.60
-4.49
-5.41
-7.27
-9.62
-11.81
-13.29
-13.81
-13.45
-12.48
-11.23
-9.94
-8.68
-7.52
-6.47
-5.57
-4.79
-3.94
-2.77
-1.00
1.50
4.60
7.90
10.92
13.24
14.65
15.16
14.97
14.32
13.42
12.49
11.77
11.53
12.10
13.73
16.47
20.11
24.16
28.03
31.17
33.26
34.36
34.82
35.12
35.60
36.29
36.88
36.95
36.20
34.73
33.00
31.64
31.18
31.77
33.21
35.03
36.73
37.85
38.05
37.01
34.52
30.56
25.36
19.51
13.79
8.92
5.34
3.08
1.79
0.94
0.01
-1.41
-3.54
-6.52
-10.37
-15.00
-20.26
-25.89
-31.62
-37.17
-42.32
-46.87
-50.64
-53.42
-55.01
-55.32
-54.34
-52.26
-49.34
-45.83
-41.96
-37.90
-33.77
-29.78
-26.23
-23.44
-21.64
-20.89
-20.93
-21.26
-21.29
-20.53
-18.79
-16.22
-13.23
-10.33
-7.91
-6.19
-5.14
-4.63
-4.48
-4.54
-4.72
-4.93
-5.04
-4.82
-4.06
-2.67
-0.71
1.53
3.63
5.26
6.18
6.38
5.95
5.11
4.04
2.89
1.78
0.73
-0.28
-1.37
-2.62
-4.07
-5.63
-7.17
-8.59
-9.92
-11.31
-12.91
-14.78
-16.76
-18.54
-19.83
-20.45
-20.40
-19.83
-18.86
-17.49
-15.67
-13.39
-10.82
-8.32
-6.24
-4.76
-3.66
-2.46
-0.64
2.01
5.24
8.44
10.93
12.29
12.55
12.07
11.32
10.55
9.75
8.71
7.19
5.16
2.74
0.16
-2.39
-4.84
-7.19
-9.51
-11.77
-13.96
-16.06
-18.07
-20.05
-22.01
-23.90
-25.65
-27.14
-28.27
-28.97
-29.17
-28.78
-27.73
-26.05
-23.85
-21.38
-18.92
-16.68
-14.80
-13.26
-11.99
-10.86
-9.82
-8.80
-7.83
-6.94
-6.21
-5.73
-5.57
-5.72
-6.15
-6.71
-7.23
-7.49
-7.29
-6.52
-5.13
-3.25
-1.10
1.02
2.84
4.24
5.22
5.92
6.50
7.00
7.36
7.47
7.22
6.67
5.96
5.29
4.78
4.41
4.06
3.56
2.85
1.98
1.09
0.31
-0.32
-0.81
-1.26
-1.75
-2.28
-2.78
-3.12
-3.15
-2.82
-2.12
-1.14
-0.04
1.03
1.95
2.67
3.16
3.47
3.62
3.61
3.46
3.18
2.81
2.41
2.05
1.76
1.55
1.41
1.34
1.38
1.51
1.71
1.91
1.97
1.82
1.45
0.89
0.25
-0.40
-0.98
-1.43
-1.65
-1.54
-1.00
-0.01
1.31
2.73
4.02
4.95
5.44
5.51
5.28
4.88
4.45
4.10
3.87
3.71
3.49
3.05
2.27
1.14
-0.22
-1.66
-2.99
-4.17
-5.19
-6.16
-7.14
-8.11
-9.00
-9.66
-9.94
-9.68
-8.82
-7.36
-5.40
-3.14
-0.81
1.40
3.35
5.05
6.54
7.84
8.93
9.72
10.12
10.06
9.55
8.68
7.57
6.37
5.18
4.07
3.07
2.19
1.41
0.73
0.06
-0.64
-1.45
-2.39
-3.44
-4.49
-5.41
-6.07
-6.36
-6.25
-5.78
-5.01
-4.05
-3.00
-1.93
-0.88
0.20
1.34
2.57
3.82
4.95
5.76
6.07
5.81
5.05
4.04
3.06
2.34
1.94
1.77
1.65
1.43
1.04
0.59
0.16
-0.18
-0.47
-0.79
-1.18
-1.56
-1.73
-1.48
-0.63
0.83
2.77
5.04
7.44
9.88
12.28
14.63
16.96
19.31
21.74
24.23
26.63
28.62
29.72
29.47
27.56
24.01
19.18
13.72
8.34
3.60
-0.23
-3.15
-5.35
-7.07
-8.53
-9.91
-11.38
-13.04
-14.94
-16.94
-18.65
-19.62
-19.48
-18.08
-15.62
-12.51
-9.20
-6.06
-3.30
-1.05
0.65
1.75
2.29
2.43
2.37
2.29
2.23
2.08
1.64
0.82
-0.31
-1.52
-2.54
-3.21
-3.56
-3.68
-3.69
-3.65
-3.59
-3.55
-3.61
-3.88
-4.38
-5.04
-5.63
-5.88
-5.62
-4.79
-3.50
-1.93
-0.24
1.49
3.19
4.84
6.33
7.55
8.36
8.72
8.66
8.31
7.80
7.21
6.56
5.77
4.81
3.69
2.46
1.27
0.21
-0.68
-1.42
-2.08
-2.76
-3.51
-4.32
-5.14
-5.91
-6.53
-6.95
-7.10
-6.91
-6.29
-5.18
-3.61
-1.72
0.25
2.01
3.34
4.15
4.52
4.59
4.54
4.47
4.42
4.38
4.33
4.29
4.28
4.29
4.34
4.38
4.36
4.25
4.06
3.79
3.47
3.08
2.55
1.77
0.72
-0.53
-1.72
-2.48
-2.48
-1.58
0.04
1.96
3.71
4.98
5.75
6.21
6.65
7.24
7.96
8.59
8.94
8.89
8.52
8.03
7.60
7.29
7.06
6.77
6.33
5.74
5.11
4.60
4.29
4.14
4.01
3.73
3.16
2.31
1.30
0.36
-0.29
-0.53
-0.29
0.36
1.30
2.39
3.50
4.53
5.37
5.93
6.15
6.05
5.70
5.22
4.73
4.32
4.00
3.71
3.36
2.85
2.15
1.26
0.27
-0.70
-1.54
-2.17
-2.59
-2.87
-3.14
-3.53
-4.13
-4.91
-5.76
-6.46
-6.80
-6.57
-5.69
-4.19
-2.25
-0.10
2.00
3.87
5.37
6.46
7.15
7.50
7.56
7.39
7.02
6.44
5.64
4.62
3.46
2.29
1.27
0.55
0.14
-0.03
-0.14
-0.38
-0.82
-1.46
-2.16
-2.74
-3.07
-3.06
-2.68
-2.00
-1.08
-0.03
1.03
1.99
2.71
3.11
3.11
2.64
1.64
0.06
-2.11
-4.79
-7.77
-10.74
-13.35
-15.25
-16.22
-16.18
-15.20
-13.49
-11.35
-9.12
-7.14
-5.65
-4.73
-4.37
-4.39
-4.59
-4.75
-4.73
-4.46
-3.99
-3.44
-2.90
-2.39
-1.78
-0.85
0.55
2.40
4.49
6.47
8.05
9.11
9.73
10.08
10.30
10.44
10.42
10.20
9.81
9.41
9.16
9.13
9.30
9.47
9.47
9.20
8.74
8.38
8.47
9.32
11.06
13.54
16.42
19.23
21.59
23.33
24.55
25.59
26.83
28.51
30.60
32.77
34.51
35.38
35.12
33.86
31.96
29.91
28.03
26.33
24.50
22.04
18.43
13.40
7.03
-0.24
-7.69
-14.46
-19.77
-23.09
-24.27
-23.49
-21.22
-18.07
-14.65
-11.44
-8.76
-6.72
-5.29
-4.34
-3.72
-3.35
-3.20
-3.33
-3.81
-4.63
-5.70
-6.83
-7.81
-8.45
-8.62
-8.20
-7.14
-5.42
-3.18
-0.73
1.43
2.76
2.86
1.69
-0.43
-2.85
-4.96
-6.32
-6.85
-6.72
-6.15
-5.28
-4.09
-2.47
-0.41
1.94
4.27
6.20
7.45
7.92
7.71
7.05
6.21
5.46
4.96
4.82
5.03
5.51
6.12
6.69
7.05
7.09
6.74
6.03
5.01
3.78
2.41
0.99
-0.40
-1.73
-3.00
-4.25
-5.54
-6.88
-8.15
-9.18
-9.71
-9.60
-8.82
-7.48
-5.81
-4.04
-2.36
-0.91
0.16
0.71
0.67
0.07
-0.90
-1.95
-2.78
-3.23
-3.32
-3.21
-3.12
-3.21
-3.55
-4.12
-4.84
-5.60
-6.36
-7.05
-7.66
-8.21
-8.77
-9.41
-10.21
-11.19
-12.28
-13.36
-14.30
-14.92
-15.12
-14.81
-13.97
-12.66
-10.96
-9.04
-7.05
-5.14
-3.43
-1.99
-0.82
0.04
0.61
0.89
0.90
0.66
0.19
-0.46
-1.18
-1.81
-2.23
-2.32
-2.12
-1.81
-1.63
-1.78
-2.30
-3.08
-3.88
-4.52
-4.98
-5.36
-5.81
-6.40
-7.08
-7.66
-7.95
-7.86
-7.33
-6.40
-5.11
-3.51
-1.68
0.23
2.01
3.42
4.30
4.61
4.39
3.81
3.06
2.36
1.87
1.69
1.80
2.08
2.33
2.34
2.01
1.38
0.61
-0.09
-0.54
-0.72
-0.77
-0.88
-1.21
-1.75
-2.38
-2.89
-3.13
-3.06
-2.77
-2.32
-1.73
-0.89
0.31
1.88
3.70
5.48
6.97
8.02
8.68
9.10
9.45
9.82
10.18
10.40
10.35
9.96
9.25
8.33
7.31
6.32
5.43
4.64
3.91
3.21
2.51
1.82
1.14
0.43
-0.38
-1.40
-2.63
-3.98
-5.22
-6.07
-6.29
-5.78
-4.64
-3.11
-1.45
0.12
1.48
2.58
3.35
3.77
3.83
3.62
3.29
3.00
2.83
2.76
2.66
2.38
1.86
1.15
0.39
-0.24
-0.66
-0.85
-0.93
-1.05
-1.35
-1.93
-2.79
-3.89
-5.17
-6.55
-8.00
-9.50
-10.99
-12.39
-13.56
-14.40
-14.88
-14.98
-14.74
-14.16
-13.20
-11.87
-10.21
-8.37
-6.53
-4.87
-3.48
-2.41
-1.63
-1.13
-0.91
-0.94
-1.19
-1.56
-1.96
-2.34
-2.64
-2.82
-2.84
-2.65
-2.25
-1.73
-1.27
-1.06
-1.20
-1.70
-2.45
-3.28
-4.11
-4.90
-5.69
-6.51
-7.32
-8.05
-8.61
-8.91
-8.93
-8.65
-8.10
-7.31
-6.33
-5.26
-4.22
-3.34
-2.70
-2.28
-2.03
-1.91
-1.92
-2.11
-2.53
-3.16
-3.91
-4.58
-5.03
-5.17
-5.05
-4.80
-4.58
-4.52
-4.70
-5.09
-5.61
-6.06
-6.20
-5.75
-4.53
-2.45
0.36
3.67
7.18
10.58
13.61
16.12
18.01
19.30
20.06
20.37
20.34
19.96
19.18
17.94
16.24
14.21
12.11
10.25
8.87
8.07
7.78
7.81
7.95
8.01
7.86
7.43
6.67
5.52
3.93
1.90
-0.45
-2.83
-4.90
-6.28
-6.73
-6.20
-4.86
-2.99
-0.93
1.03
2.64
3.72
4.16
4.00
3.42
2.79
2.47
2.73
3.52
4.56
5.47
6.01
6.19
6.28
6.60
7.27
8.12
8.72
8.58
7.41
5.20
2.21
-1.20
-4.68
-7.96
-10.89
-13.28
-14.94
-15.67
-15.42
-14.29
-12.66
-11.02
-9.86
-9.50
-9.96
-11.02
-12.31
-13.46
-14.18
-14.29
-13.74
-12.53
-10.75
-8.58
-6.23
-3.92
-1.82
0.02
1.60
2.99
4.22
5.26
6.03
6.45
6.45
6.09
5.51
4.94
4.63
4.84
5.66
7.03
8.72
10.37
11.66
12.41
12.63
12.50
12.27
12.12
12.08
12.01
11.66
10.78
9.24
7.05
4.39
1.57
-1.02
-2.98
-4.02
-3.98
-2.93
-1.12
1.03
3.12
4.82
5.89
6.21
5.75
4.49
2.52
-0.02
-2.88
-5.80
-8.56
-11.01
-13.06
-14.61
-15.56
-15.81
-15.36
-14.33
-12.98
-11.56
-10.25
-9.12
-8.12
-7.24
-6.55
-6.20
-6.37
-7.12
-8.37
-9.84
-11.18
-12.04
-12.11
-11.23
-9.42
-6.84
-3.84
-0.83
1.78
3.73
5.00
5.77
6.31
6.88
7.61
8.51
9.50
10.49
11.43
12.24
12.83
13.02
12.66
11.62
9.93
7.78
5.46
3.28
1.45
0.10
-0.76
-1.21
-1.30
-1.12
-0.76
-0.35
-0.04
0.01
-0.29
-0.90
-1.66
-2.33
-2.69
-2.59
-1.99
-1.02
0.15
1.32
2.27
2.86
2.99
2.66
1.92
0.92
-0.16
-1.11
-1.78
-2.08
-2.06
-1.86
-1.67
-1.65
-1.88
-2.26
-2.60
-2.71
-2.50
-2.02
-1.47
-1.06
-0.98
-1.27
-1.89
-2.70
-3.52
-4.11
-4.30
-4.00
-3.23
-2.17
-1.03
0.03
0.97
1.86
2.82
3.85
4.88
5.73
6.26
6.42
6.26
5.87
5.27
4.41
3.22
1.70
0.01
-1.57
-2.79
-3.48
-3.70
-3.63
-3.51
-3.49
-3.61
-3.78
-3.92
-4.00
-4.08
-4.24
-4.51
-4.80
-4.99
-4.91
-4.45
-3.62
-2.57
-1.49
-0.56
0.10
0.51
0.80
1.11
1.54
2.11
2.77
3.42
3.97
4.40
4.67
4.78
4.70
4.45
4.11
3.78
3.54
3.42
3.35
3.23
2.95
2.51
2.00
1.63
1.63
2.17
3.29
4.85
6.63
8.37
9.87
11.00
11.72
12.02
11.93
11.51
10.84
10.03
9.22
8.49
7.87
7.30
6.68
5.91
4.94
3.82
2.64
1.51
0.51
-0.37
-1.19
-2.05
-3.03
-4.15
-5.34
-6.55
-7.65
-8.56
-9.17
-9.36
-9.06
-8.23
-6.96
-5.37
-3.69
-2.06
-0.63
0.58
1.55
2.27
2.73
2.93
2.91
2.73
2.50
2.25
2.01
1.76
1.49
1.24
1.05
0.99
1.07
1.26
1.43
1.45
1.21
0.62
-0.35
-1.64
-3.15
-4.72
-6.17
-7.37
-8.20
-8.57
-8.43
-7.78
-6.68
-5.27
-3.76
-2.38
-1.31
-0.60
-0.23
-0.10
-0.14
-0.33
-0.64
-1.02
-1.38
-1.61
-1.69
-1.69
-1.78
-2.08
-2.59
-3.15
-3.55
-3.61
-3.31
-2.78
-2.22
-1.84
-1.79
-2.13
-2.78
-3.63
-4.44
-4.90
-4.80
-4.01
-2.66
-1.05
0.44
1.51
2.06
2.20
2.16
2.15
2.27
2.49
2.73
2.93
3.06
3.16
3.22
3.20
3.01
2.53
1.76
0.79
-0.22
-1.05
-1.58
-1.83
-1.91
-2.02
-2.30
-2.86
-3.69
-4.74
-5.92
-7.12
-8.22
-9.04
-9.41
-9.20
-8.39
-7.09
-5.50
-3.87
-2.38
-1.07
0.09
1.19
2.26
3.24
4.05
4.57
4.79
4.75
4.59
4.42
4.33
4.33
4.36
4.37
4.30
4.11
3.79
3.31
2.67
1.89
1.01
0.12
-0.73
-1.53
-2.35
-3.23
-4.20
-5.15
-5.90
-6.23
-6.02
-5.23
-4.00
-2.52
-1.00
0.41
1.63
2.66
3.54
4.32
5.01
5.57
5.95
6.07
5.91
5.51
5.02
4.54
4.14
3.78
3.41
2.92
2.27
1.48
0.60
-0.31
-1.21
-2.07
-2.88
-3.58
-4.18
-4.71
-5.22
-5.79
-6.42
-7.01
-7.41
-7.45
-7.08
-6.33
-5.27
-4.01
-2.60
-1.06
0.55
2.11
3.46
4.41
4.87
4.85
4.49
3.96
3.45
3.05
2.80
2.67
2.53
2.29
1.84
1.12
0.15
-0.94
-2.03
-3.00
-3.74
-4.25
-4.55
-4.72
-4.88
-5.13
-5.53
-6.07
-6.62
-7.02
-7.14
-6.90
-6.33
-5.47
-4.34
-2.94
-1.21
0.83
3.05
5.17
6.90
7.98
8.33
8.10
7.55
6.99
6.58
6.33
6.12
5.81
5.32
4.67
3.95
3.27
2.72
2.34
2.06
1.77
1.32
0.57
-0.51
-1.82
-3.15
-4.25
-5.00
-5.40
-5.57
-5.64
-5.59
-5.29
-4.59
-3.43
-1.89
-0.20
1.43
2.84
3.97
4.89
5.65
6.29
6.79
7.10
7.16
6.94
6.44
5.72
4.85
3.95
3.09
2.32
1.63
1.01
0.47
0.04
-0.24
-0.40
-0.53
-0.80
-1.38
-2.35
-3.70
-5.23
-6.61
-7.49
-7.60
-6.82
-5.28
-3.25
-1.03
1.11
3.06
4.79
6.34
7.75
9.04
10.25
11.38
12.43
13.29
13.83
13.86
13.34
12.35
11.13
9.98
9.02
8.20
7.26
5.91
3.97
1.48
-1.31
-4.05
-6.42
-8.26
-9.56
-10.44
-11.07
-11.58
-12.02
-12.32
-12.35
-12.00
-11.20
-9.98
-8.43
-6.65
-4.73
-2.72
-0.69
1.28
3.01
4.35
5.18
5.49
5.39
5.09
4.76
4.50
4.28
4.01
3.59
2.96
2.14
1.20
0.25
-0.62
-1.33
-1.88
-2.30
-2.63
-2.99
-3.44
-4.07
-4.91
-5.98
-7.24
-8.60
-9.88
-10.84
-11.23
-10.91
-9.83
-8.17
-6.19
-4.21
-2.48
-1.09
0.01
0.99
2.00
3.07
4.12
4.97
5.40
5.31
4.74
3.85
2.86
1.95
1.21
0.63
0.20
-0.11
-0.26
-0.19
0.09
0.48
0.79
0.79
0.32
-0.65
-1.98
-3.44
-4.77
-5.77
-6.29
-6.29
-5.73
-4.63
-3.05
-1.13
0.90
2.80
4.37
5.50
6.24
6.69
6.96
7.12
7.16
7.02
6.67
6.13
5.49
4.87
4.39
4.04
3.72
3.30
2.67
1.89
1.07
0.42
0.03
-0.14
-0.27
-0.56
-1.12
-1.94
-2.90
-3.84
-4.64
-5.18
-5.40
-5.20
-4.51
-3.33
-1.75
0.04
1.81
3.43
4.83
6.00
6.94
7.54
7.70
7.36
6.58
5.57
4.56
3.74
3.14
2.69
2.25
1.75
1.18
0.57
-0.02
-0.57
-1.10
-1.64
-2.23
-2.87
-3.58
-4.33
-5.14
-5.93
-6.62
-7.01
-6.89
-6.09
-4.61
-2.60
-0.38
1.70
3.38
4.56
5.29
5.72
5.93
5.95
5.72
5.18
4.35
3.33
2.26
1.29
0.47
-0.19
-0.77
-1.33
-1.94
-2.63
-3.43
-4.31
-5.25
-6.19
-7.13
-8.09
-9.09
-10.13
-11.18
-12.09
-12.72
-12.89
-12.51
-11.53
-10.00
-8.02
-5.72
-3.28
-0.86
1.34
3.17
4.52
5.34
5.68
5.61
5.25
4.70
4.10
3.53
3.03
2.63
2.34
2.16
2.09
2.09
2.08
1.95
1.62
1.07
0.29
-0.64
-1.66
-2.64
-3.43
-3.90
-3.88
-3.28
-2.12
-0.54
1.26
3.04
4.62
5.90
6.88
7.57
8.00
8.17
8.05
7.63
6.92
6.03
5.13
4.40
3.92
3.63
3.33
2.82
2.02
1.02
0.08
-0.57
-0.85
-0.95
-1.19
-1.85
-3.03
-4.57
-6.08
-7.18
-7.58
-7.22
-6.17
-4.59
-2.65
-0.47
1.84
4.14
6.25
7.89
8.83
8.98
8.45
7.54
6.63
6.02
5.76
5.68
5.48
4.95
4.03
2.86
1.67
0.70
0.01
-0.42
-0.76
-1.16
-1.78
-2.72
-4.01
-5.58
-7.29
-8.92
-10.20
-10.90
-10.88
-10.11
-8.69
-6.81
-4.75
-2.75
-0.99
0.45
1.58
2.41
2.90
3.00
2.70
2.06
1.26
0.55
0.14
0.09
0.32
0.61
0.79
0.81
0.72
0.66
0.72
0.89
1.08
1.18
1.09
0.84
0.54
0.32
0.32
0.60
1.12
1.83
2.63
3.47
4.31
5.09
5.72
6.08
6.13
5.89
5.48
5.00
4.51
3.97
3.32
2.54
1.71
0.99
0.50
0.29
0.23
0.16
-0.04
-0.40
-0.88
-1.39
-1.93
-2.52
-3.27
-4.19
-5.25
-6.28
-7.07
-7.40
-7.15
-6.29
-4.93
-3.22
-1.35
0.55
2.40
4.13
5.62
6.72
7.29
7.27
6.75
5.94
5.10
4.40
3.89
3.47
3.00
2.42
1.76
1.12
0.60
0.22
-0.11
-0.52
-1.09
-1.89
-2.88
-4.01
-5.19
-6.31
-7.21
-7.70
-7.66
-7.04
-5.96
-4.60
-3.14
-1.72
-0.38
0.89
2.08
3.15
4.03
4.66
5.05
5.20
5.11
4.74
4.05
3.03
1.77
0.42
-0.85
-1.90
-2.68
-3.20
-3.51
-3.67
-3.77
-3.87
-4.10
-4.53
-5.26
-6.31
-7.64
-9.09
-10.36
-11.14
-11.18
-10.39
-8.91
-7.03
-5.06
-3.20
-1.49
0.10
1.58
2.89
3.86
4.39
4.47
4.26
3.97
3.72
3.52
3.30
3.02
2.71
2.48
2.41
2.49
2.57
2.52
2.27
1.87
1.44
1.02
0.53
-0.16
-1.14
-2.33
-3.46
-4.17
-4.17
-3.34
-1.80
0.21
2.42
4.55
6.44
7.97
9.07
9.71
9.86
9.54
8.83
7.85
6.78
5.78
4.93
4.23
3.61
3.00
2.35
1.69
1.05
0.44
-0.12
-0.66
-1.19
-1.75
-2.41
-3.23
-4.26
-5.44
-6.57
-7.34
-7.49
-6.92
-5.72
-4.13
-2.45
-0.89
0.46
1.63
2.67
3.61
4.40
4.96
5.22
5.17
4.90
4.49
4.03
3.54
2.95
2.18
1.17
-0.06
-1.37
-2.59
-3.59
-4.30
-4.78
-5.14
-5.50
-5.96
-6.58
-7.38
-8.29
-9.16
-9.77
-9.94
-9.58
-8.76
-7.66
-6.43
-5.16
-3.85
-2.51
-1.19
-0.06
0.70
0.98
0.85
0.51
0.22
0.14
0.30
0.57
0.75
0.68
0.32
-0.26
-0.88
-1.38
-1.64
-1.64
-1.44
-1.15
-0.84
-0.55
-0.23
0.14
0.58
1.03
1.44
1.81
2.23
2.79
3.57
4.54
5.54
6.40
7.00
7.32
7.47
7.61
7.83
8.03
7.98
7.42
6.24
4.54
2.58
0.67
-0.97
-2.30
-3.36
-4.26
-4.99
-5.50
-5.76
-5.76
-5.59
-5.37
-5.12
-4.81
-4.33
-3.62
-2.69
-1.65
-0.56
0.60
1.91
3.54
5.52
7.75
9.99
11.93
13.36
14.24
14.77
15.24
15.91
16.78
17.63
18.06
17.71
16.44
14.43
12.04
9.63
7.42
5.39
3.47
1.56
-0.28
-1.92
-3.23
-4.20
-4.97
-5.71
-6.59
-7.66
-8.84
-10.02
-10.98
-11.52
-11.45
-10.62
-9.10
-7.07
-4.89
-2.92
-1.41
-0.37
0.33
0.92
1.54
2.24
2.94
3.56
4.10
4.58
5.05
5.46
5.70
5.64
5.18
4.35
3.33
2.38
1.84
2.00
2.98
4.57
6.26
7.30
7.04
5.22
2.17
-1.36
-4.46
-6.52
-7.38
-7.34
-6.90
-6.54
-6.64
-7.43
-9.12
-11.83
-15.44
-19.48
-23.22
-25.76
-26.44
-25.02
-21.78
-17.34
-12.46
-7.82
-3.85
-0.73
1.61
3.36
4.82
6.26
7.89
9.79
11.86
13.85
15.40
16.12
15.82
14.48
12.39
10.04
7.98
6.69
6.44
7.29
9.10
11.59
14.45
17.31
19.87
21.90
23.31
24.15
24.49
24.38
23.73
22.37
20.15
17.08
13.46
9.80
6.67
4.55
3.56
3.53
4.03
4.57
4.73
4.32
3.36
2.03
0.59
-0.74
-1.85
-2.75
-3.56
-4.37
-5.15
-5.74
-5.90
-5.42
-4.22
-2.42
-0.26
1.97
4.04
5.74
6.93
7.51
7.53
7.16
6.72
6.54
6.82
7.47
8.05
7.87
6.20
2.45
-3.55
-11.49
-20.62
-29.89
-38.24
-44.93
-49.63
-52.44
-53.73
-53.80
-52.77
-50.61
-47.27
-42.94
-38.13
-33.53
-29.74
-26.89
-24.62
-22.25
-19.16
-15.20
-10.84
-6.95
-4.28
-3.07
-2.82
-2.64
-1.76
0.05
2.31
4.15
4.79
3.98
2.03
-0.32
-2.35
-3.66
-4.23
-4.38
-4.51
-4.88
-5.58
-6.48
-7.39
-8.10
-8.46
-8.42
-8.01
-7.27
-6.24
-4.93
-3.40
-1.78
-0.23
1.10
2.10
2.73
3.03
3.02
2.72
2.19
1.49
0.82
0.35
0.24
0.50
1.00
1.48
1.67
1.42
0.77
-0.15
-1.14
-2.02
-2.72
-3.20
-3.48
-3.54
-3.30
-2.69
-1.68
-0.34
1.15
2.62
3.91
5.00
5.94
6.79
7.52
8.02
8.17
7.91
7.35
6.70
6.25
6.17
6.47
6.98
7.44
7.63
7.42
6.79
5.82
4.64
3.39
2.21
1.22
0.47
-0.15
-0.82
-1.78
-3.14
-4.81
-6.46
-7.64
-7.91
-7.05
-5.11
-2.43
0.51
3.21
5.33
6.69
7.33
7.39
7.06
6.56
6.03
5.61
5.37
5.35
5.47
5.53
5.29
4.57
3.33
1.74
0.07
-1.38
-2.50
-3.33
-4.03
-4.73
-5.46
-6.15
-6.64
-6.77
-6.44
-5.63
-4.42
-2.97
-1.45
-0.03
1.22
2.33
3.35
4.35
5.27
5.98
6.36
6.39
6.19
6.02
6.08
6.41
6.84
7.05
6.77
5.89
4.62
3.29
2.28
1.80
1.78
2.02
2.21
2.17
1.80
1.16
0.32
-0.65
-1.70
-2.76
-3.64
-4.12
-3.99
-3.13
-1.66
0.11
1.75
2.93
3.51
3.60
3.49
3.49
3.77
4.36
5.14
5.98
6.78
7.49
8.00
8.20
7.95
7.21
6.14
5.04
4.27
4.06
4.34
4.80
4.98
4.49
3.18
1.22
-0.99
-3.01
-4.43
-5.05
-4.82
-3.79
-2.05
0.22
2.83
5.52
8.00
10.01
11.38
12.08
12.20
11.93
11.47
10.99
10.60
10.36
10.30
10.41
10.63
10.90
11.08
11.04
10.69
10.00
9.07
8.09
7.27
6.77
6.55
6.39
5.97
4.99
3.31
1.06
-1.43
-3.71
-5.39
-6.20
-6.10
-5.20
-3.78
-2.12
-0.49
0.92
2.01
2.77
3.23
3.46
3.50
3.35
3.01
2.45
1.66
0.63
-0.60
-1.94
-3.25
-4.29
-4.89
-4.95
-4.57
-4.00
-3.55
-3.49
-3.91
-4.77
-5.89
-7.11
-8.28
-9.29
-10.03
-10.34
-10.11
-9.26
-7.83
-5.99
-3.95
-1.95
-0.19
1.19
2.11
2.55
2.59
2.37
2.03
1.70
1.42
1.15
0.80
0.33
-0.27
-0.92
-1.45
-1.74
-1.73
-1.45
-1.07
-0.80
-0.82
-1.27
-2.16
-3.37
-4.69
-5.85
-6.62
-6.87
-6.57
-5.85
-4.93
-4.09
-3.49
-3.23
-3.22
-3.27
-3.14
-2.58
-1.46
0.24
2.36
4.67
6.84
8.63
9.89
10.64
11.02
11.21
11.31
11.30
11.05
10.40
9.27
7.68
5.81
3.83
1.94
0.23
-1.24
-2.47
-3.45
-4.17
-4.63
-4.86
-4.89
-4.78
-4.53
-4.15
-3.65
-3.08
-2.52
-2.09
-1.85
-1.82
-1.94
-2.11
-2.18
-2.04
-1.61
-0.88
0.08
1.11
1.99
2.54
2.65
2.35
1.74
0.90
-0.09
-1.20
-2.44
-3.72
-4.93
-5.87
-6.40
-6.45
-6.05
-5.30
-4.32
-3.21
-2.04
-0.88
0.20
1.14
1.90
2.51
3.04
3.63
4.34
5.14
5.91
6.45
6.60
6.36
5.83
5.23
4.77
4.56
4.60
4.78
4.96
5.01
4.84
4.44
3.86
3.20
2.55
1.97
1.47
0.97
0.38
-0.38
-1.42
-2.76
-4.42
-6.30
-8.19
-9.75
-10.60
-10.41
-9.09
-6.80
-3.94
-1.01
1.51
3.35
4.37
4.62
4.21
3.30
2.06
0.66
-0.70
-1.90
-2.83
-3.42
-3.67
-3.56
-3.14
-2.50
-1.79
-1.22
-0.90
-0.87
-1.04
-1.28
-1.52
-1.82
-2.34
-3.22
-4.49
-6.03
-7.51
-8.60
-8.93
-8.29
-6.60
-3.99
-0.77
2.60
5.64
7.92
9.27
9.68
9.40
8.72
7.88
7.06
6.23
5.33
4.33
3.32
2.53
2.26
2.78
4.15
6.21
8.57
10.64
11.82
11.64
9.89
6.77
2.84
-1.09
-4.21
-5.92
-6.06
-4.84
-2.78
-0.50
1.50
2.81
3.24
2.70
1.37
-0.38
-1.98
-2.85
-2.55
-0.96
1.71
4.96
8.23
10.97
12.78
13.43
12.86
11.18
8.70
5.87
3.22
1.21
0.10
-0.17
0.08
0.39
0.33
-0.30
-1.43
-2.78
-4.00
-4.85
-5.22
-5.12
-4.57
-3.61
-2.33
-1.00
-0.16
-0.44
-2.30
-5.68
-9.84
-13.57
-15.55
-14.91
-11.57
-6.22
-0.10
5.50
9.60
11.72
11.94
10.71
8.72
6.65
5.11
4.49
4.97
6.40
8.43
10.53
12.12
12.79
12.32
10.84
8.68
6.30
4.02
1.97
0.04
-1.96
-4.14
-6.40
-8.45
-9.95
-10.70
-10.73
-10.31
-9.82
-9.57
-9.68
-10.10
-10.61
-11.00
-11.09
-10.81
-10.16
-9.17
-7.91
-6.48
-5.06
-3.90
-3.25
-3.28
-3.99
-5.21
-6.64
-8.01
-9.21
-10.30
-11.38
-12.51
-13.50
-14.02
-13.75
-12.63
-10.95
-9.31
-8.26
-8.08
-8.50
-8.92
-8.62
-7.14
-4.45
-0.89
3.07
7.01
10.69
14.01
16.93
19.38
21.24
22.38
22.75
22.34
21.22
19.55
17.59
15.68
14.16
13.27
12.97
12.99
12.96
12.56
11.70
10.50
9.17
7.85
6.57
5.25
3.83
2.34
0.87
-0.46
-1.62
-2.70
-3.80
-4.98
-6.20
-7.38
-8.40
-9.15
-9.49
-9.29
-8.43
-6.91
-4.96
-2.98
-1.43
-0.52
-0.15
0.11
0.77
2.18
4.30
6.73
8.91
10.37
10.86
10.40
9.14
7.27
4.99
2.47
-0.08
-2.43
-4.34
-5.72
-6.61
-7.17
-7.66
-8.25
-9.00
-9.81
-10.51
-10.90
-10.88
-10.43
-9.61
-8.53
-7.28
-5.93
-4.63
-3.52
-2.83
-2.69
-3.10
-3.93
-4.90
-5.75
-6.29
-6.46
-6.27
-5.77
-5.04
-4.18
-3.39
-2.88
-2.87
-3.47
-4.61
-6.10
-7.65
-9.08
-10.34
-11.51
-12.71
-13.98
-15.21
-16.16
-16.59
-16.35
-15.45
-14.05
-12.39
-10.69
-9.09
-7.60
-6.17
-4.77
-3.37
-2.02
-0.75
0.37
1.31
2.06
2.59
2.87
2.90
2.68
2.26
1.79
1.38
1.15
1.14
1.34
1.69
2.15
2.71
3.34
3.95
4.26
3.91
2.48
-0.28
-4.26
-8.95
-13.51
-17.03
-18.78
-18.53
-16.50
-13.30
-9.61
-5.98
-2.74
0.03
2.30
4.01
5.04
5.33
4.93
4.04
3.00
2.13
1.61
1.46
1.58
1.83
2.15
2.52
2.95
3.38
3.66
3.55
2.82
1.31
-1.01
-4.01
-7.40
-10.73
-13.51
-15.29
-15.82
-15.15
-13.62
-11.80
-10.24
-9.26
-8.86
-8.69
-8.27
-7.25
-5.56
-3.50
-1.63
-0.53
-0.66
-2.13
-4.77
-8.11
-11.55
-14.49
-16.42
-17.07
-16.45
-14.83
-12.72
-10.68
-9.15
-8.38
-8.36
-8.91
-9.79
-10.82
-11.88
-12.86
-13.68
-14.13
-14.01
-13.10
-11.40
-9.07
-6.47
-4.01
-2.00
-0.57
0.35
0.99
1.60
2.33
3.20
4.10
4.84
5.30
5.44
5.34
5.11
4.83
4.48
4.02
3.41
2.69
2.01
1.50
1.22
1.02
0.71
0.07
-0.94
-2.23
-3.60
-4.86
-5.92
-6.71
-7.21
-7.32
-6.91
-5.90
-4.30
-2.28
-0.12
1.89
3.50
4.58
5.11
5.20
5.00
4.74
4.61
4.72
5.06
5.50
5.87
6.03
5.92
5.62
5.22
4.80
4.34
3.70
2.73
1.33
-0.47
-2.50
-4.51
-6.22
-7.46
-8.19
-8.50
-8.49
-8.26
-7.79
-7.05
-6.06
-4.94
-3.84
-2.88
-1.97
-0.86
0.79
3.19
6.24
9.55
12.53
14.70
15.81
15.92
15.31
14.33
13.23
12.13
11.03
9.88
8.63
7.32
6.02
4.79
3.63
2.45
1.09
-0.52
-2.28
-3.89
-4.96
-5.13
-4.25
-2.52
-0.35
1.79
3.56
4.82
5.72
6.44
7.16
7.93
8.66
9.25
9.58
9.62
9.42
9.02
8.44
7.70
6.78
5.76
4.79
4.07
3.77
3.92
4.41
5.03
5.56
5.84
5.89
5.81
5.75
5.80
5.89
5.87
5.57
4.96
4.19
3.58
3.48
4.10
5.41
7.14
8.86
10.20
11.00
11.31
11.38
11.43
11.56
11.72
11.75
11.53
11.04
10.42
9.88
9.60
9.61
9.89
10.34
10.87
11.45
11.98
12.30
12.12
11.10
9.01
5.92
2.22
-1.40
-4.21
-5.59
-5.26
-3.35
-0.22
3.55
7.40
10.87
13.69
15.78
17.23
18.25
19.12
20.14
21.51
23.37
25.67
28.27
30.89
33.20
34.87
35.65
35.48
34.41
32.67
30.55
28.27
25.99
23.72
21.33
18.62
15.43
11.70
7.52
3.16
-1.05
-4.77
-7.79
-10.04
-11.52
-12.30
-12.43
-11.91
-10.73
-8.94
-6.72
-4.35
-2.21
-0.68
0.01
-0.19
-1.15
-2.61
-4.25
-5.80
-7.02
-7.81
-8.18
-8.31
-8.52
-9.19
-10.60
-12.75
-15.41
-18.13
-20.51
-22.38
-23.88
-25.34
-27.09
-29.29
-31.82
-34.36
-36.57
-38.17
-39.03
-39.11
-38.46
-37.11
-35.12
-32.59
-29.72
-26.79
-24.14
-21.99
-20.44
-19.37
-18.49
-17.47
-16.05
-14.16
-11.90
-9.54
-7.36
-5.58
-4.28
-3.44
-2.94
-2.65
-2.46
-2.31
-2.18
-2.07
-1.98
-1.81
-1.44
-0.71
0.48
2.10
3.99
5.91
7.59
8.88
9.79
10.51
11.26
12.27
13.60
15.16
16.69
17.89
18.53
18.51
17.90
16.81
15.35
13.55
11.43
9.09
6.76
4.69
3.11
1.99
1.10
0.09
-1.38
-3.42
-5.89
-8.47
-10.80
-12.59
-13.82
-14.64
-15.34
-16.22
-17.44
-18.87
-20.23
-21.17
-21.45
-21.09
-20.27
-19.26
-18.20
-17.09
-15.83
-14.37
-12.83
-11.50
-10.70
-10.61
-11.19
-12.20
-13.24
-13.91
-13.90
-13.05
-11.37
-9.05
-6.35
-3.54
-0.80
1.85
4.48
7.20
10.04
12.95
15.76
18.31
20.45
22.14
23.42
24.38
25.10
25.64
26.02
26.25
26.34
26.30
26.22
26.25
26.56
27.27
28.41
29.84
31.30
32.46
33.01
32.78
31.77
30.16
28.24
26.30
24.53
22.98
21.52
19.98
18.18
16.09
13.83
11.68
9.94
8.90
8.72
9.37
10.62
12.14
13.57
14.73
15.62
16.48
17.65
19.40
21.77
24.50
27.10
29.05
29.90
29.47
27.85
25.32
22.30
19.28
16.75
15.10
14.54
14.95
15.91
16.80
16.96
16.00
13.91
11.01
7.84
4.85
2.33
0.33
-1.21
-2.29
-2.87
-2.97
-2.68
-2.29
-2.10
-2.30
-2.81
-3.32
-3.41
-2.75
-1.33
0.69
3.11
6.01
9.91
15.67
24.17
35.72
49.75
64.60
77.81
86.79
89.51
85.20
74.57
59.61
43.10
27.87
16.15
9.18
6.98
8.52
12.02
15.59
17.66
17.42
14.86
10.67
5.83
1.28
-2.35
-4.82
-6.23
-6.80
-6.87
-6.76
-6.78
-7.28
-8.55
-10.79
-14.03
-18.12
-22.76
-27.58
-32.30
-36.80
-41.15
-45.52
-50.07
-54.83
-59.67
-64.39
-68.82
-72.93
-76.82
-80.68
-84.62
-88.61
-92.34
-95.37
-97.23
-97.60
-96.51
-94.29
-91.40
-88.22
-84.92
-81.36
-77.26
-72.46
-66.96
-60.98
-54.79
-48.53
-42.12
-35.23
-27.51
-18.74
-9.01
1.27
11.50
21.06
29.58
36.96
43.38
49.03
53.99
58.13
61.29
63.52
65.20
66.88
68.85
70.80
71.81
70.72
66.77
59.99
51.24
41.78
32.64
24.27
16.60
9.37
2.65
-3.12
-7.26
-9.33
-9.40
-8.11
-6.36
-4.90
-4.06
-3.69
-3.41
-2.84
-1.83
-0.49
0.97
2.33
3.48
4.42
5.17
5.65
5.73
5.21
3.99
2.06
-0.40
-3.11
-5.72
-7.79
-8.94
-8.83
-7.30
-4.49
-0.77
3.26
7.02
10.14
12.59
14.62
16.57
18.67
20.84
22.77
24.08
24.60
24.43
23.91
23.51
23.49
23.89
24.45
24.82
24.64
23.69
21.93
19.50
16.65
13.67
10.81
8.18
5.74
3.29
0.60
-2.51
-6.08
-10.02
-14.17
-18.36
-22.46
-26.37
-30.01
-33.31
-36.16
-38.47
-40.18
-41.22
-41.48
-40.80
-39.06
-36.25
-32.60
-28.60
-24.87
-22.05
-20.55
-20.55
-22.03
-24.89
-29.03
-34.42
-41.01
-48.70
-57.26
-66.31
-75.25
-83.27
-89.40
-92.67
-92.47
-88.84
-82.53
-74.78
-66.97
-60.13
-54.78
-51.03
-48.65
-47.37
-46.91
-46.91
-46.92
-46.45
-45.10
-42.76
-39.69
-36.37
-33.30
-30.73
-28.43
-25.69
-21.49
-14.92
-5.57
6.11
18.91
31.18
41.44
48.91
53.66
56.40
58.02
59.15
60.04
60.67
60.96
61.01
61.08
61.45
62.35
63.83
65.90
68.47
71.43
74.60
77.73
80.49
82.55
83.59
83.31
81.49
77.99
72.83
66.23
58.56
50.24
41.70
33.33
25.48
18.45
12.49
7.70
3.96
0.97
-1.66
-4.25
-6.95
-9.72
-12.43
-14.94
-17.11
-18.82
-19.94
-20.34
-19.96
-18.92
-17.47
-15.97
-14.71
-13.79
-13.06
-12.18
-10.80
-8.74
-6.09
-3.27
-0.85
0.67
1.07
0.49
-0.61
-1.68
-2.27
-2.27
-1.88
-1.47
-1.40
-1.83
-2.69
-3.73
-4.66
-5.31
-5.66
-5.78
-5.74
-5.50
-4.95
-4.00
-2.72
-1.43
-0.62
-0.76
-2.08
-4.40
-7.10
-9.28
-10.05
-8.76
-5.16
0.58
7.96
16.24
24.61
32.24
38.52
43.09
46.00
47.71
48.93
50.44
52.79
56.11
60.04
63.75
66.21
66.33
63.27
56.57
46.34
33.32
18.82
4.51
-8.04
-17.78
-24.48
-28.81
-31.97
-35.21
-39.44
-44.90
-51.22
-57.55
-62.81
-66.00
-66.53
-64.36
-60.15
-55.09
-50.62
-47.95
-47.69
-49.68
-53.13
-56.78
-59.34
-59.74
-57.33
-51.96
-44.16
-35.00
-25.98
-18.66
-14.21
-13.02
-14.57
-17.62
-20.65
-22.34
-22.01
-19.51
-15.11
-9.12
-1.81
6.49
15.15
23.11
29.09
32.05
31.70
28.66
24.32
20.32
17.87
17.45
18.74
20.90
22.99
24.20
24.05
22.35
19.15
14.73
9.55
4.29
-0.34
-3.66
-5.25
-5.10
-3.61
-1.50
0.46
1.66
1.83
1.04
-0.41
-2.16
-3.91
-5.46
-6.68
-7.44
-7.70
-7.50
-7.01
-6.41
-5.86
-5.34
-4.69
-3.75
-2.42
-0.75
1.06
2.85
4.52
6.00
7.18
7.81
7.56
6.23
3.86
0.81
-2.44
-5.55
-8.46
-11.37
-14.50
-17.86
-21.12
-23.67
-24.96
-24.69
-23.02
-20.43
-17.56
-14.94
-12.92
-11.66
-11.16
-11.38
-12.21
-13.50
-14.95
-16.22
-16.95
-16.87
-15.88
-14.20
-12.20
-10.42
-9.30
-9.04
-9.51
-10.26
-10.74
-10.54
-9.54
-7.92
-5.88
-3.47
-0.52
3.22
7.83
13.08
18.39
23.13
26.74
28.81
28.94
26.71
21.77
14.24
5.01
-4.21
-11.39
-14.93
-14.37
-10.54
-5.20
-0.17
3.30
4.86
4.85
3.80
2.08
-0.24
-3.21
-6.77
-10.57
-14.08
-16.73
-18.15
-18.29
-17.39
-15.94
-14.43
-13.26
-12.58
-12.33
-12.22
-11.91
-11.19
-10.04
-8.63
-7.16
-5.78
-4.48
-3.13
-1.66
-0.14
1.19
2.01
2.11
1.49
0.42
-0.72
-1.57
-1.89
-1.69
-1.14
-0.53
-0.16
-0.18
-0.60
-1.28
-2.05
-2.80
-3.49
-4.11
-4.64
-4.99
-5.03
-4.68
-4.01
-3.21
-2.60
-2.35
-2.50
-2.91
-3.40
-3.87
-4.39
-5.11
-6.10
-7.25
-8.29
-8.81
-8.55
-7.43
-5.68
-3.64
-1.64
0.11
1.53
2.65
3.44
3.82
3.73
3.23
2.54
1.95
1.71
1.90
2.37
2.88
3.23
3.47
3.78
4.51
5.86
7.80
10.05
12.20
13.84
14.78
15.09
15.11
15.32
16.22
18.16
21.23
25.15
29.34
33.18
36.35
39.06
42.11
46.44
52.68
60.75
69.85
78.93
87.19
94.61
101.89
110.06
120.01
132.26
146.85
163.34
180.75
197.33
210.67
217.96
216.82
206.11
186.37
159.62
128.72
96.28
64.06
32.69
1.98
-28.44
-58.55
-87.52
-113.79
-135.40
-150.68
-158.81
-160.28
-156.81
-150.88
-144.83
-140.18
-137.21
-135.04
-132.19
-127.25
-119.24
-107.90
-93.67
-77.60
-61.33
-46.88
-36.22
-30.71
-30.45
-34.16
-39.49
-43.80
-45.15
-42.76
-37.07
-29.21
-20.47
-11.94
-4.40
1.54
5.45
7.16
6.88
5.27
3.22
1.66
1.21
2.19
4.48
7.64
10.99
13.62
14.70
13.60
10.25
5.14
-0.78
-6.45
-10.97
-13.92
-15.58
-16.43
-16.84
-17.06
-17.50
-18.51
-20.27
-22.50
-24.47
-25.67
-25.51
-23.73
-20.58
-17.15
-14.93
-15.29
-18.87
-25.37
-34.50
-45.13
-55.43
-63.68
-69.05
-71.77
-72.57
-72.27
-71.47
-72.76
-77.41
-84.42
-91.62
-97.45
-101.45
-103.75
-104.57
-104.04
-107.01
-116.01
-129.39
-143.07
-154.25
-162.27
-167.49
-170.48
-171.45
-178.05
-194.04
-216.34
-238.05
-254.43
-264.54
-269.55
-271.11
-270.17
-276.92
-295.89
-322.07
-345.61
-360.02
-364.71
-362.65
-357.89
-294.69
-157.74
18.44
179.64
296.16
367.41
405.54
423.97
430.46
434.06
429.17
412.21
386.95
361.49
341.16
326.83
317.44
310.97
306.24
294.73
272.38
242.54
212.79
188.69
171.88
161.50
155.75
153.10
147.27
135.03
118.02
100.71
86.30
75.60
67.93
62.19
57.76
51.85
43.28
33.20
24.01
17.27
13.13
10.88
9.52
8.36
6.11
2.32
-2.26
-6.48
-9.50
-11.29
-12.35
-13.46
-15.18
-17.76
-20.98
-24.27
-26.88
-28.17
-27.70
-25.41
-21.56
-16.61
-11.13
-5.68
-0.64
3.69
7.12
9.52
10.84
11.16
10.68
9.67
8.36
6.88
5.28
3.55
1.74
-0.06
-1.64
-2.82
-3.46
-3.56
-3.21
-2.63
-2.07
-1.71
-1.59
-1.62
-1.66
-1.72
-1.97
-2.71
-4.15
-6.11
-7.97
-8.87
-8.09
-5.38
-1.18
3.54
7.72
10.53
11.67
11.38
10.27
9.02
8.19
8.03
8.38
8.72
8.40
6.74
3.36
-1.71
-7.98
-14.44
-19.71
-22.41
-21.52
-16.94
-9.67
-1.65
4.87
8.20
7.85
4.61
0.08
-4.12
-7.07
-8.74
-9.69
-10.46
-11.15
-11.36
-10.46
-8.08
-4.33
0.15
4.46
7.80
9.66
9.96
9.02
7.39
5.63
4.16
3.07
2.10
0.84
-1.04
-3.52
-6.16
-8.27
-9.26
-8.93
-7.60
-5.86
-4.26
-3.09
-2.24
-1.40
-0.23
1.43
3.47
5.60
7.42
8.58
8.89
8.46
7.61
6.74
6.15
5.88
5.79
5.67
5.40
5.11
5.02
5.28
5.81
6.24
6.05
4.82
2.42
-0.92
-4.67
-8.26
-11.31
-13.67
-15.49
-17.04
-18.60
-20.28
-22.03
-23.68
-25.07
-25.99
-26.31
-25.87
-24.56
-22.33
-19.31
-15.85
-12.44
-9.59
-7.68
-6.78
-6.62
-6.69
-6.41
-5.31
-3.30
-0.62
2.26
4.85
6.84
8.19
9.12
9.89
10.65
11.33
11.73
11.67
11.09
10.11
8.87
7.48
5.88
3.99
1.80
-0.56
-2.94
-5.28
-7.84
-11.12
-15.68
-21.97
-29.96
-39.21
-48.81
-57.68
-64.76
-69.22
-70.74
-69.56
-66.43
-62.33
-58.24
-54.95
-52.98
-52.62
-54.05
-57.23
-61.85
-67.21
-72.30
-76.03
-77.58
-76.59
-73.28
-68.29
-62.44
-56.42
-50.74
-45.61
-41.13
-37.32
-34.23
-31.98
-30.65
-30.22
-30.50
-31.22
-32.00
-32.56
-32.72
-32.34
-31.37
-29.70
-27.18
-23.69
-19.19
-13.75
-7.53
-0.75
6.25
13.08
19.25
24.26
27.71
29.40
29.51
28.43
26.67
24.65
22.59
20.56
18.56
16.65
14.95
13.64
12.94
13.02
14.02
15.88
18.33
20.84
22.64
22.97
21.31
17.63
12.47
6.80
1.76
-1.66
-2.92
-1.91
0.99
5.21
10.22
15.72
21.70
28.29
35.59
43.50
51.68
59.66
66.91
73.06
77.90
81.53
84.27
86.64
89.18
92.19
95.70
99.26
102.12
103.35
102.20
98.27
91.62
82.76
72.60
62.26
52.82
45.08
39.37
35.57
33.25
31.88
31.10
30.81
31.10
32.11
33.84
36.08
38.52
40.73
42.35
43.04
42.57
40.82
37.84
33.87
29.41
24.98
21.08
17.98
15.68
13.88
12.22
10.44
8.52
6.61
4.94
3.57
2.34
0.88
-1.24
-4.33
-8.42
-13.27
-18.39
-23.16
-26.96
-29.36
-30.15
-29.42
-27.46
-24.67
-21.36
-17.65
-13.54
-9.04
-4.33
0.20
4.03
6.78
8.38
9.11
9.50
9.96
10.67
11.46
11.96
11.89
11.19
10.14
9.16
8.63
8.65
9.00
9.25
8.93
7.68
5.35
2.02
-2.00
-6.29
-10.26
-13.37
-15.16
-15.46
-14.43
-12.45
-10.03
-7.57
-5.24
-3.00
-0.73
1.58
3.79
5.58
6.66
6.89
6.40
5.51
4.60
3.93
3.54
3.31
3.06
2.75
2.43
2.26
2.29
2.40
2.32
1.70
0.37
-1.63
-4.07
-6.65
-9.21
-11.72
-14.28
-16.97
-19.66
-22.06
-23.76
-24.45
-23.94
-22.27
-19.56
-16.02
-11.88
-7.43
-3.00
1.08
4.57
7.43
9.77
11.76
13.45
14.79
15.63
15.91
15.67
15.11
14.42
13.70
12.95
12.11
11.21
10.36
9.70
9.28
9.00
8.63
7.91
6.73
5.11
3.25
1.37
-0.39
-2.08
-3.91
-6.19
-9.08
-12.56
-16.26
-19.64
-22.12
-23.29
-23.07
-21.71
-19.54
-16.91
-13.97
-10.76
-7.31
-3.72
-0.26
2.82
5.30
7.19
8.66
9.85
10.79
11.36
11.36
10.72
9.59
8.27
7.10
6.21
5.52
4.86
4.07
3.16
2.25
1.45
0.76
0.05
-0.86
-1.98
-3.21
-4.33
-5.20
-5.85
-6.42
-7.05
-7.71
-8.18
-8.07
-7.09
-5.16
-2.46
0.66
3.81
6.74
9.34
11.61
13.49
14.84
15.49
15.36
14.58
13.44
12.30
11.38
10.73
10.19
9.58
8.77
7.77
6.64
5.44
4.16
2.77
1.20
-0.54
-2.45
-4.53
-6.78
-9.18
-11.67
-14.14
-16.48
-18.57
-20.29
-21.54
-22.17
-22.03
-21.04
-19.20
-16.63
-13.52
-10.05
-6.38
-2.65
0.98
4.25
6.90
8.67
9.43
9.30
8.60
7.72
7.03
6.70
6.65
6.68
6.50
5.94
4.99
3.79
2.54
1.44
0.56
-0.11
-0.65
-1.17
-1.80
-2.66
-3.79
-5.15
-6.54
-7.66
-8.20
-7.93
-6.80
-4.97
-2.70
-0.31
2.02
4.22
6.36
8.54
10.71
12.72
14.32
15.28
15.53
15.19
14.56
13.91
13.39
12.90
12.19
11.04
9.37
7.31
5.20
3.35
1.92
0.82
-0.22
-1.52
-3.30
-5.64
-8.40
-11.29
-13.97
-16.16
-17.63
-18.31
-18.18
-17.27
-15.64
-13.40
-10.67
-7.66
-4.63
-1.85
0.43
2.07
3.08
3.57
3.72
3.72
3.73
3.78
3.83
3.73
3.40
2.80
2.04
1.29
0.67
0.18
-0.30
-0.95
-1.94
-3.30
-5.01
-6.99
-9.18
-11.51
-13.83
-15.91
-17.46
-18.23
-18.11
-17.16
-15.56
-13.58
-11.46
-9.39
-7.51
-5.95
-4.76
-3.99
-3.63
-3.62
-3.90
-4.35
-4.84
-5.27
-5.52
-5.53
-5.24
-4.61
-3.57
-2.06
-0.14
2.03
4.17
6.01
7.43
8.48
9.39
10.36
11.45
12.53
13.38
13.82
13.91
13.83
13.76
13.69
13.44
12.72
11.40
9.64
7.84
6.46
5.73
5.58
5.68
5.64
5.24
4.49
3.62
2.87
2.42
2.28
2.38
2.54
2.59
2.35
1.75
0.77
-0.55
-2.20
-4.21
-6.61
-9.45
-12.59
-15.65
-18.17
-19.65
-19.82
-18.67
-16.50
-13.67
-10.56
-7.36
-4.18
-1.09
1.77
4.22
6.12
7.43
8.23
8.65
8.77
8.56
7.93
6.79
5.18
3.25
1.22
-0.76
-2.63
-4.46
-6.35
-8.34
-10.42
-12.47
-14.30
-15.69
-16.42
-16.30
-15.27
-13.39
-10.83
-7.85
-4.70
-1.60
1.28
3.79
5.83
7.32
8.32
8.96
9.41
9.73
9.92
9.87
9.50
8.78
7.85
6.91
6.13
5.59
5.28
5.12
4.99
4.78
4.38
3.61
2.34
0.55
-1.52
-3.39
-4.44
-4.21
-2.53
0.30
3.71
7.07
9.94
12.21
14.01
15.51
16.77
17.70
18.11
17.86
16.99
15.67
14.16
12.67
11.27
9.96
8.69
7.40
6.14
4.99
4.03
3.27
2.64
1.95
1.02
-0.28
-1.96
-3.88
-5.74
-7.23
-8.05
-8.04
-7.19
-5.62
-3.55
-1.18
1.29
3.73
5.97
7.88
9.30
10.16
10.48
10.40
10.10
9.79
9.54
9.39
9.31
9.26
9.19
9.05
8.76
8.29
7.71
7.15
6.78
6.69
6.78
6.80
6.44
5.52
4.11
2.51
1.14
0.39
0.45
1.33
2.85
4.74
6.77
8.73
10.52
12.12
13.56
14.87
16.02
16.89
17.35
17.30
16.74
15.76
14.52
13.13
11.63
10.05
8.40
6.82
5.45
4.48
3.90
3.54
3.09
2.22
0.72
-1.34
-3.68
-5.87
-7.51
-8.34
-8.37
-7.77
-6.78
-5.55
-4.14
-2.57
-0.87
0.76
1.98
2.50
2.20
1.25
0.03
-1.04
-1.72
-2.06
-2.28
-2.61
-3.15
-3.79
-4.35
-4.68
-4.81
-4.91
-5.18
-5.79
-6.79
-8.09
-9.56
-11.01
-12.24
-13.03
-13.21
-12.64
-11.31
-9.39
-7.17
-4.98
-3.07
-1.54
-0.32
0.68
1.48
1.99
2.05
1.51
0.40
-1.04
-2.52
-3.73
-4.49
-4.83
-4.84
-4.66
-4.34
-3.94
-3.52
-3.26
-3.36
-3.99
-5.17
-6.73
-8.39
-9.78
-10.67
-10.86
-10.29
-8.90
-6.75
-3.98
-0.88
2.16
4.81
6.94
8.62
10.07
11.40
12.57
13.38
13.61
13.18
12.23
10.99
9.71
8.47
7.26
5.99
4.64
3.26
1.85
0.37
-1.40
-3.62
-6.30
-9.20
-11.89
-13.97
-15.27
-15.94
-16.33
-16.81
-17.52
-18.32
-18.89
-18.91
-18.27
-16.95
-15.02
-12.60
-9.81
-6.92
-4.30
-2.40
-1.48
-1.41
-1.60
-1.13
0.84
4.70
10.20
16.43
22.28
26.91
30.07
32.07
33.51
34.78
35.80
36.09
35.12
32.71
29.36
25.97
23.51
22.59
23.28
25.22
27.79
30.46
32.78
34.43
35.13
34.67
32.93
29.95
25.90
21.14
16.07
11.14
6.77
3.25
0.65
-1.22
-2.72
-4.19
-5.81
-7.50
-9.07
-10.37
-11.47
-12.65
-14.29
-16.58
-19.43
-22.49
-25.31
-27.52
-28.99
-29.81
-30.17
-30.25
-30.14
-29.79
-29.10
-27.98
-26.36
-24.32
-22.03
-19.75
-17.72
-16.15
-15.08
-14.45
-14.14
-14.08
-14.23
-14.63
-15.32
-16.24
-17.26
-18.16
-18.77
-19.06
-19.14
-19.22
-19.44
-19.87
-20.44
-21.02
-21.50
-21.87
-22.18
-22.44
-22.57
-22.34
-21.49
-19.89
-17.59
-14.89
-12.18
-9.80
-7.91
-6.50
-5.45
-4.66
-4.13
-3.95
-4.26
-5.13
-6.47
-8.07
-9.70
-11.18
-12.43
-13.48
-14.43
-15.31
-16.12
-16.77
-17.19
-17.42
-17.56
-17.74
-18.06
-18.53
-19.09
-19.63
-20.09
-20.41
-20.49
-20.20
-19.36
-17.85
-15.65
-12.94
-9.97
-7.03
-4.35
-2.03
-0.12
1.33
2.26
2.68
2.71
2.63
2.81
3.56
4.98
6.92
9.06
11.02
12.56
13.60
14.19
14.44
14.47
14.40
14.33
14.34
14.51
14.81
15.15
15.40
15.51
15.53
15.62
15.90
16.43
17.09
17.73
18.20
18.39
18.27
17.80
16.88
15.42
13.37
10.83
8.04
5.25
2.72
0.51
-1.43
-3.28
-5.18
-7.20
-9.38
-11.67
-14.01
-16.37
-18.69
-20.90
-22.86
-24.41
-25.34
-25.49
-24.81
-23.38
-21.41
-19.20
-17.03
-15.15
-13.67
-12.66
-12.15
-12.09
-12.38
-12.81
-13.10
-12.92
-12.07
-10.54
-8.52
-6.34
-4.32
-2.65
-1.32
-0.15
1.05
2.36
3.76
5.07
6.14
6.91
7.44
7.88
8.36
8.87
9.27
9.35
8.95
8.02
6.69
5.14
3.56
1.98
0.34
-1.43
-3.38
-5.45
-7.50
-9.43
-11.14
-12.61
-13.85
-14.80
-15.31
-15.27
-14.58
-13.24
-11.39
-9.21
-6.92
-4.62
-2.36
-0.12
2.10
4.21
6.05
7.38
8.06
8.07
7.57
6.87
6.24
5.83
5.58
5.26
4.65
3.58
2.08
0.34
-1.39
-2.88
-4.01
-4.74
-5.14
-5.30
-5.30
-5.27
-5.26
-5.26
-5.18
-4.88
-4.25
-3.23
-1.86
-0.30
1.29
2.74
3.96
4.93
5.63
6.04
6.16
6.07
5.86
5.69
5.71
6.01
6.63
7.57
8.81
10.31
11.96
13.59
15.05
16.21
17.05
17.68
18.15
18.42
18.32
17.62
16.16
13.94
11.12
8.03
5.08
2.73
1.34
1.04
1.72
2.97
4.34
5.40
5.99
6.19
6.16
6.07
5.89
5.50
4.74
3.52
1.90
-0.02
-2.13
-4.40
-6.81
-9.34
-11.92
-14.35
-16.40
-17.80
-18.39
-18.18
-17.32
-16.17
-15.08
-14.33
-14.01
-14.04
-14.28
-14.64
-15.15
-15.92
-17.03
-18.48
-20.03
-21.34
-22.06
-21.98
-21.13
-19.75
-18.09
-16.38
-14.71
-13.09
-11.50
-9.95
-8.47
-7.10
-5.86
-4.73
-3.68
-2.66
-1.67
-0.73
0.07
0.61
0.78
0.48
-0.23
-1.17
-2.10
-2.84
-3.41
-4.04
-5.07
-6.82
-9.35
-12.41
-15.54
-18.18
-19.89
-20.46
-19.84
-18.12
-15.46
-11.97
-7.83
-3.29
1.29
5.54
9.07
11.69
13.33
14.16
14.44
14.46
14.46
14.58
14.84
15.18
15.46
15.56
15.35
14.75
13.81
12.61
11.28
9.90
8.51
7.01
5.26
3.14
0.57
-2.38
-5.54
-8.60
-11.25
-13.21
-14.27
-14.29
-13.22
-11.11
-8.13
-4.53
-0.63
3.26
6.92
10.24
13.20
15.80
18.07
19.97
21.48
22.55
23.14
23.22
22.73
21.67
20.11
18.22
16.23
14.33
12.59
10.90
9.05
6.86
4.27
1.45
-1.30
-3.60
-5.10
-5.59
-5.02
-3.48
-1.16
1.67
4.72
7.70
10.38
12.64
14.42
15.77
16.80
17.55
18.08
18.38
18.45
18.34
18.11
17.86
17.66
17.46
17.12
16.42
15.16
13.12
10.12
5.99
0.57
-6.26
-14.42
-23.62
-33.38
-43.11
-52.28
-60.50
-67.47
-72.90
-76.41
-77.58
-76.11
-72.03
-65.70
-57.78
-49.07
-40.36
-32.36
-25.68
-20.79
-17.84
-16.61
-16.50
-16.67
-16.43
-15.35
-13.39
-10.67
-7.28
-3.03
2.46
9.66
18.89
30.02
42.46
55.18
66.96
76.75
84.04
88.99
92.40
95.34
98.81
103.32
108.92
115.27
121.97
128.66
134.99
140.44
144.21
145.30
142.81
136.40
126.49
114.19
100.99
88.19
76.57
66.26
56.97
48.29
39.92
31.83
24.12
16.83
9.91
3.22
-3.40
-9.93
-16.12
-21.58
-25.90
-28.91
-30.75
-31.87
-32.85
-34.18
-36.07
-38.44
-41.02
-43.49
-45.65
-47.34
-48.42
-48.68
-47.86
-45.80
-42.63
-38.81
-35.00
-31.80
-29.50
-28.01
-26.92
-25.77
-24.25
-22.37
-20.28
-18.18
-16.11
-13.95
-11.45
-8.41
-4.68
-0.14
5.33
11.83
19.30
27.43
35.56
42.88
48.57
52.09
53.29
52.34
49.64
45.59
40.56
34.94
29.15
23.67
18.92
15.16
12.38
10.37
8.82
7.52
6.41
5.61
5.28
5.46
6.05
6.73
7.12
6.80
5.47
2.97
-0.65
-5.15
-10.20
-15.45
-20.67
-25.78
-30.85
-36.10
-41.78
-48.09
-55.13
-62.77
-70.70
-78.52
-85.83
-92.47
-98.54
-104.36
-110.21
-116.14
-121.84
-126.67
-129.98
-131.31
-130.70
-128.68
-126.11
-123.95
-123.03
-123.82
-126.29
-129.86
-133.44
-135.70
-135.39
-131.82
-125.05
-115.89
-105.60
-95.45
-86.26
-78.37
-71.71
-66.06
-61.29
-57.46
-54.64
-52.84
-51.80
-51.04
-49.95
-47.97
-44.73
-40.17
-34.49
-28.08
-21.29
-14.38
-7.41
-0.40
6.59
13.34
19.49
24.68
28.73
31.77
34.08
35.93
37.35
38.08
37.70
35.86
32.58
28.28
23.64
19.39
15.94
13.32
11.24
9.27
7.01
4.34
1.48
-1.14
-2.94
-3.33
-1.97
1.24
6.05
11.98
18.50
25.16
31.68
37.91
43.74
49.04
53.59
57.15
59.55
60.73
60.72
59.69
57.88
55.59
53.19
50.98
49.20
47.92
47.02
46.27
45.39
44.13
42.25
39.59
36.03
31.57
26.35
20.72
15.18
10.33
6.76
4.88
4.89
6.65
9.82
13.85
18.24
22.53
26.46
29.80
32.36
33.94
34.29
33.31
31.10
27.93
24.22
20.38
16.69
13.27
10.11
7.20
4.56
2.23
0.16
-1.76
-3.74
-6.03
-8.75
-11.82
-14.92
-17.57
-19.23
-19.50
-18.22
-15.48
-11.58
-6.91
-1.94
2.94
7.36
11.00
13.60
15.05
15.33
14.63
13.24
11.54
9.90
8.57
7.71
7.31
7.26
7.36
7.45
7.44
7.42
7.54
7.93
8.56
9.25
9.70
9.60
8.83
7.38
5.50
3.53
1.94
1.25
1.85
3.96
7.50
12.10
17.18
22.18
26.71
30.56
33.69
36.04
37.51
38.03
37.60
36.40
34.73
32.94
31.20
29.49
27.66
25.54
23.11
20.58
18.20
16.20
14.63
13.29
11.85
9.96
7.42
4.16
0.31
-3.83
-7.91
-11.51
-14.21
-15.70
-15.80
-14.57
-12.26
-9.26
-5.97
-2.67
0.53
3.60
6.49
9.10
11.17
12.43
12.74
12.17
11.04
9.72
8.54
7.61
6.81
5.95
4.87
3.57
2.17
0.78
-0.53
-1.83
-3.23
-4.83
-6.72
-8.94
-11.54
-14.49
-17.62
-20.59
-22.88
-23.98
-23.56
-21.59
-18.36
-14.32
-9.89
-5.34
-0.80
3.65
7.81
11.43
14.24
16.09
17.05
17.33
17.24
17.01
16.72
16.36
15.91
15.44
15.12
15.10
15.46
16.04
16.56
16.71
16.28
15.26
13.80
12.13
10.39
8.60
6.65
4.42
1.85
-1.00
-3.94
-6.69
-8.96
-10.43
-10.86
-10.17
-8.43
-5.91
-2.97
0.02
2.78
5.18
7.21
8.97
10.53
11.88
12.88
13.30
12.97
11.82
10.03
7.91
5.87
4.18
2.97
2.13
1.45
0.73
-0.17
-1.30
-2.68
-4.33
-6.25
-8.42
-10.78
-13.22
-15.62
-17.83
-19.70
-21.04
-21.63
-21.34
-20.09
-17.97
-15.23
-12.15
-8.96
-5.83
-2.87
-0.17
2.12
3.85
4.95
5.44
5.51
5.36
5.14
4.89
4.55
4.03
3.29
2.31
1.12
-0.25
-1.74
-3.32
-4.87
-6.32
-7.64
-8.92
-10.35
-12.15
-14.49
-17.33
-20.50
-23.67
-26.40
-28.22
-28.69
-27.54
-24.79
-20.77
-16.05
-11.21
-6.65
-2.51
1.29
4.76
7.77
10.03
11.19
11.18
10.22
8.81
7.47
6.55
6.06
5.78
5.46
4.98
4.36
3.73
3.15
2.59
1.97
1.22
0.36
-0.57
-1.59
-2.83
-4.53
-6.82
-9.56
-12.26
-14.20
-14.71
-13.43
-10.49
-6.41
-1.88
2.52
6.44
9.74
12.38
14.29
15.45
15.90
15.83
15.46
15.01
14.56
14.01
13.25
12.28
11.23
10.33
9.75
9.47
9.26
8.80
7.90
6.51
4.83
3.04
1.19
-0.80
-3.12
-5.81
-8.66
-11.26
-13.08
-13.76
-13.21
-11.59
-9.17
-6.23
-2.94
0.60
4.17
7.54
10.37
12.34
13.31
13.28
12.45
11.14
9.71
8.43
7.46
6.78
6.17
5.38
4.18
2.52
0.51
-1.61
-3.57
-5.20
-6.51
-7.65
-8.90
-10.56
-12.86
-15.93
-19.59
-23.41
-26.73
-28.86
-29.25
-27.70
-24.46
-20.08
-15.29
-10.67
-6.58
-3.07
0.01
2.79
5.36
7.65
9.53
10.88
11.66
11.91
11.69
11.03
10.03
8.74
7.30
5.90
4.74
3.99
3.72
3.89
4.35
4.84
4.99
4.41
2.84
0.17
-3.38
-7.28
-10.84
-13.29
-14.12
-13.11
-10.43
-6.57
-2.17
2.13
5.81
8.61
10.47
11.50
11.79
11.41
10.35
8.67
6.52
4.16
1.92
-0.00
-1.61
-3.05
-4.50
-6.04
-7.62
-9.09
-10.35
-11.42
-12.47
-13.68
-15.21
-17.09
-19.20
-21.33
-23.17
-24.39
-24.67
-23.74
-21.49
-18.05
-13.74
-9.05
-4.46
-0.36
3.04
5.72
7.82
9.56
11.12
12.59
13.93
15.04
15.82
16.25
16.40
16.41
16.33
16.17
15.82
15.20
14.26
13.04
11.59
9.87
7.69
4.79
1.02
-3.51
-8.34
-12.78
-16.10
-17.85
-17.94
-16.56
-14.04
-10.67
-6.61
-1.96
3.11
8.22
12.87
16.59
19.20
20.89
22.21
23.79
26.09
29.23
32.94
36.69
39.85
41.76
41.98
40.30
36.94
32.47
27.66
23.25
19.77
17.45
16.19
15.63
15.27
14.48
12.71
9.65
5.55
1.23
-2.02
-2.92
-0.67
4.72
12.43
21.06
29.15
35.55
39.56
41.00
40.05
37.10
32.54
26.73
19.96
12.53
4.82
-2.75
-9.82
-16.23
-22.06
-27.60
-33.14
-38.79
-44.40
-49.73
-54.59
-59.00
-63.14
-67.14
-70.92
-74.13
-76.22
-76.75
-75.54
-72.73
-68.73
-64.01
-58.93
-53.74
-48.61
-43.71
-39.24
-35.40
-32.30
-29.95
-28.19
-26.78
-25.45
-24.00
-22.39
-20.70
-19.12
-17.83
-16.93
-16.43
-16.29
-16.49
-17.02
-17.89
-19.05
-20.35
-21.52
-22.17
-21.88
-20.33
-17.38
-13.17
-8.08
-2.65
2.59
7.26
11.20
14.43
17.01
18.99
20.27
20.78
20.49
19.53
18.16
16.70
15.37
14.21
13.13
11.94
10.51
8.82
6.96
5.09
3.28
1.43
-0.72
-3.45
-6.86
-10.65
-14.17
-16.57
-17.11
-15.48
-11.91
-7.06
-1.76
3.31
7.74
11.36
14.16
16.13
17.26
17.57
17.19
16.33
15.26
14.18
13.13
12.07
10.93
9.70
8.46
7.34
6.43
5.69
4.98
4.11
2.91
1.25
-0.90
-3.56
-6.63
-9.86
-12.82
-14.93
-15.63
-14.55
-11.71
-7.49
-2.49
2.64
7.44
11.61
15.00
17.49
19.03
19.64
19.48
18.89
18.19
17.60
17.11
16.53
15.68
14.49
13.04
11.51
10.00
8.48
6.80
4.76
2.31
-0.49
-3.45
-6.41
-9.19
-11.59
-13.37
-14.19
-13.74
-11.88
-8.73
-4.69
-0.33
3.79
7.29
9.95
11.72
12.67
12.88
12.50
11.69
10.61
9.41
8.19
6.99
5.79
4.54
3.28
2.04
0.96
0.11
-0.50
-1.01
-1.71
-2.88
-4.64
-6.89
-9.17
-10.87
-11.39
-10.39
-7.88
-4.23
0.04
4.37
8.37
11.84
14.68
16.86
18.35
19.09
19.06
18.39
17.24
15.88
14.54
13.36
12.39
11.62
11.05
10.68
10.45
10.10
9.17
7.16
3.72
-1.09
-6.76
-12.36
-16.90
-19.53
-19.90
-18.07
-14.51
-9.85
-4.69
0.42
5.08
8.91
11.70
13.34
13.95
13.81
13.24
12.49
11.61
10.51
9.09
7.36
5.55
3.90
2.61
1.72
1.06
0.48
-0.18
-0.97
-1.99
-3.37
-5.25
-7.60
-10.13
-12.27
-13.38
-13.01
-11.06
-7.83
-3.85
0.27
4.11
7.43
10.17
12.35
14.00
15.10
15.61
15.54
14.99
14.15
13.27
12.54
12.03
11.61
11.09
10.30
9.17
7.85
6.54
5.45
4.62
3.95
3.18
2.04
0.31
-2.03
-4.87
-7.87
-10.57
-12.47
-13.11
-12.28
-10.02
-6.65
-2.64
1.49
5.34
8.67
11.38
13.45
14.86
15.56
15.56
14.90
13.75
12.36
11.01
9.87
8.94
8.08
7.10
5.84
4.31
2.65
1.10
-0.10
-0.86
-1.27
-1.57
-2.04
-2.93
-4.32
-6.08
-7.89
-9.33
-10.00
-9.65
-8.17
-5.65
-2.35
1.42
5.33
9.08
12.45
15.32
17.56
19.09
19.82
19.77
19.10
18.11
17.11
16.32
15.75
15.26
14.61
13.71
12.64
11.65
10.96
10.65
10.58
10.41
9.80
8.50
6.42
3.69
0.55
-2.62
-5.42
-7.44
-8.39
-8.23
-7.12
-5.41
-3.47
-1.59
0.09
1.60
2.97
4.27
5.48
6.55
7.38
7.91
8.12
8.03
7.73
7.35
6.95
6.52
5.97
5.19
4.14
2.88
1.60
0.50
-0.29
-0.78
-1.13
-1.62
-2.55
-4.14
-6.36
-9.02
-11.67
-13.84
-15.12
-15.32
-14.53
-13.01
-11.04
-8.80
-6.34
-3.62
-0.66
2.40
5.31
7.76
9.58
10.77
11.46
11.86
12.05
12.04
11.75
11.12
10.24
9.30
8.50
7.97
7.67
7.41
6.95
6.11
4.85
3.21
1.28
-0.83
-3.06
-5.35
-7.58
-9.49
-10.78
-11.07
-10.14
-7.99
-4.91
-1.34
2.25
5.50
8.32
10.75
12.89
14.73
16.13
16.94
17.05
16.55
15.67
14.68
13.77
12.93
12.04
10.92
9.49
7.83
6.14
4.67
3.50
2.54
1.49
0.03
-2.04
-4.71
-7.78
-10.92
-13.79
-16.11
-17.62
-18.08
-17.29
-15.15
-11.79
-7.61
-3.22
0.76
3.87
5.99
7.18
7.69
7.72
7.44
6.93
6.26
5.52
4.75
3.93
2.98
1.79
0.29
-1.47
-3.37
-5.26
-7.03
-8.64
-10.15
-11.63
-13.15
-14.75
-16.40
-17.99
-19.27
-19.99
-19.88
-18.84
-16.95
-14.43
-11.51
-8.41
-5.25
-2.11
0.88
3.50
5.51
6.79
7.32
7.27
6.89
6.38
5.86
5.31
4.69
3.95
3.07
2.13
1.25
0.57
0.13
-0.08
-0.29
-0.75
-1.73
-3.32
-5.37
-7.55
-9.45
-10.78
-11.45
-11.49
-11.02
-10.12
-8.79
-7.03
-4.84
-2.28
0.55
3.59
6.80
10.15
13.53
16.71
19.39
21.24
22.13
22.11
21.48
20.54
19.47
18.24
16.65
14.52
11.86
8.89
6.00
3.57
1.81
0.70
0.07
-0.28
-0.54
-0.79
-1.15
-1.68
-2.38
-3.08
-3.54
-3.43
-2.50
-0.74
1.68
4.42
7.06
9.27
10.82
11.54
11.39
10.40
8.73
6.60
4.34
2.22
0.50
-0.74
-1.50
-1.85
-1.91
-1.78
-1.48
-1.04
-0.44
0.30
1.16
2.01
2.61
2.62
1.69
-0.38
-3.53
-7.33
-11.12
-14.20
-16.05
-16.42
-15.38
-13.17
-10.08
-6.40
-2.41
1.60
5.26
8.19
10.07
10.68
10.00
8.16
5.52
2.58
-0.12
-2.14
-3.28
-3.65
-3.52
-3.23
-2.96
-2.69
-2.32
-1.79
-1.25
-1.08
-1.78
-3.77
-7.16
-11.66
-16.65
-21.34
-25.04
-27.31
-28.03
-27.36
-25.57
-22.89
-19.51
-15.58
-11.34
-7.15
-3.48
-0.76
0.76
1.15
0.70
-0.15
-1.03
-1.73
-2.23
-2.60
-2.95
-3.30
-3.62
-3.85
-3.97
-4.08
-4.28
-4.73
-5.47
-6.50
-7.81
-9.40
-11.36
-13.81
-16.74
-19.94
-22.93
-25.06
-25.73
-24.63
-21.85
-17.84
-13.21
-8.49
-3.99
0.17
4.01
7.51
10.53
12.90
14.52
15.39
15.64
15.41
14.83
13.92
12.68
11.13
9.34
7.49
5.69
4.00
2.40
0.77
-0.94
-2.74
-4.51
-6.10
-7.33
-8.11
-8.48
-8.68
-9.04
-9.90
-11.40
-13.42
-15.54
-17.23
-18.03
-17.69
-16.27
-14.06
-11.43
-8.73
-6.21
-4.05
-2.38
-1.25
-0.60
-0.30
-0.06
0.39
1.30
2.78
4.79
7.13
9.53
11.66
13.21
13.97
13.81
12.77
11.03
8.83
6.44
4.07
1.81
-0.32
-2.34
-4.29
-6.19
-7.95
-9.46
-10.49
-10.82
-10.28
-8.85
-6.71
-4.18
-1.62
0.72
2.76
4.57
6.29
7.95
9.43
10.48
10.86
10.46
9.39
7.90
6.30
4.87
3.71
2.81
2.09
1.44
0.78
0.09
-0.66
-1.46
-2.33
-3.29
-4.39
-5.72
-7.35
-9.37
-11.79
-14.57
-17.50
-20.28
-22.45
-23.54
-23.22
-21.40
-18.27
-14.25
-9.81
-5.34
-1.09
2.82
6.32
9.32
11.62
13.03
13.41
12.81
11.48
9.86
8.45
7.61
7.48
7.90
8.46
8.71
8.39
7.46
6.14
4.69
3.30
1.99
0.64
-0.83
-2.50
-4.35
-6.41
-8.73
-11.35
-14.22
-17.07
-19.45
-20.85
-20.91
-19.50
-16.81
-13.24
-9.25
-5.25
-1.51
1.82
4.64
6.89
8.48
9.36
9.55
9.17
8.48
7.75
7.23
6.99
6.89
6.69
6.14
5.18
3.97
2.82
2.00
1.60
1.45
1.20
0.47
-0.92
-2.97
-5.44
-8.03
-10.42
-12.31
-13.46
-13.64
-12.73
-10.76
-7.88
-4.35
-0.48
3.45
7.22
10.57
13.27
15.16
16.19
16.48
16.22
15.64
14.85
13.85
12.55
10.90
8.89
6.64
4.27
1.88
-0.50
-2.85
-5.13
-7.25
-9.12
-10.76
-12.29
-13.99
-16.13
-18.78
-21.78
-24.67
-26.85
-27.74
-26.99
-24.58
-20.75
-16.00
-10.86
-5.78
-1.01
3.36
7.35
10.96
14.03
16.30
17.49
17.48
16.39
14.58
12.51
10.55
8.87
7.47
6.27
5.18
4.17
3.23
2.35
1.39
0.19
-1.45
-3.64
-6.39
-9.60
-13.05
-16.47
-19.53
-21.90
-23.25
-23.28
-21.82
-18.87
-14.67
-9.67
-4.43
0.49
4.69
7.94
10.15
11.38
11.77
11.48
10.67
9.49
8.06
6.46
4.78
3.13
1.63
0.32
-0.85
-2.02
-3.41
-5.12
-7.11
-9.19
-11.13
-12.81
-14.36
-16.06
-18.21
-20.82
-23.49
-25.46
-25.78
-23.70
-18.88
-11.51
-2.17
8.29
18.94
28.88
37.28
43.53
47.34
48.79
48.38
46.77
44.59
42.25
39.86
37.33
34.53
31.43
28.12
24.74
21.38
18.07
14.75
11.31
7.64
3.65
-0.65
-5.16
-9.62
-13.64
-16.73
-18.42
-18.38
-16.56
-13.19
-8.80
-4.04
0.41
4.06
6.58
7.85
7.94
7.11
5.76
4.38
3.42
3.20
3.71
4.66
5.55
5.83
5.11
3.27
0.46
-2.95
-6.57
-10.06
-13.24
-16.04
-18.51
-20.78
-22.98
-25.16
-27.24
-28.93
-29.77
-29.22
-26.92
-22.86
-17.43
-11.36
-5.42
-0.22
3.98
7.15
9.45
11.03
12.03
12.56
12.78
12.84
12.84
12.70
12.24
11.24
9.58
7.37
4.88
2.41
0.16
-1.88
-3.83
-5.83
-7.96
-10.28
-12.80
-15.61
-18.75
-22.19
-25.64
-28.64
-30.60
-31.04
-29.76
-26.91
-22.92
-18.33
-13.68
-9.34
-5.58
-2.53
-0.28
1.13
1.81
1.89
1.60
1.15
0.73
0.37
0.03
-0.39
-0.99
-1.72
-2.50
-3.14
-3.49
-3.51
-3.29
-3.06
-3.13
-3.81
-5.28
-7.46
-9.96
-12.16
-13.35
-12.98
-10.87
-7.23
-2.57
2.45
7.32
11.70
15.39
18.29
20.34
21.47
21.71
21.18
20.09
18.65
17.06
15.41
13.76
12.13
10.55
9.01
7.47
5.82
3.99
1.96
-0.23
-2.51
-4.90
-7.46
-10.31
-13.42
-16.52
-19.12
-20.58
-20.44
-18.53
-15.08
-10.62
-5.70
-0.78
3.91
8.24
12.07
15.19
17.33
18.34
18.26
17.38
16.08
14.71
13.48
12.38
11.33
10.20
8.96
7.62
6.19
4.70
3.15
1.54
-0.16
-2.04
-4.25
-6.91
-9.95
-13.03
-15.50
-16.62
-15.84
-13.09
-8.79
-3.75
1.15
5.31
8.53
10.96
12.89
14.55
15.94
16.92
17.30
16.98
16.03
14.65
13.08
11.45
9.82
8.17
6.56
5.13
4.07
3.50
3.37
3.39
3.15
2.29
0.59
-1.92
-5.03
-8.46
-11.97
-15.28
-18.15
-20.23
-21.14
-20.63
-18.66
-15.46
-11.48
-7.23
-3.16
0.38
3.19
5.17
6.29
6.65
6.44
5.93
5.39
5.00
4.89
5.07
5.44
5.86
6.12
5.98
5.32
4.14
2.61
1.00
-0.42
-1.58
-2.61
-3.78
-5.34
-7.35
-9.66
-11.86
-13.48
-14.08
-13.41
-11.48
-8.51
-4.95
-1.32
1.91
4.32
5.69
6.00
5.41
4.21
2.76
1.41
0.47
0.10
0.32
0.88
1.44
1.57
1.06
-0.05
-1.36
-2.33
-2.48
-1.72
-0.30
1.19
2.17
2.18
1.08
-1.04
-3.83
-6.74
-9.08
-10.07
-9.06
-5.81
-0.60
5.74
12.11
17.52
21.44
23.81
24.94
25.20
24.84
24.03
22.89
21.62
20.46
19.62
19.13
18.80
18.29
17.29
15.67
13.49
11.03
8.66
6.71
5.39
4.72
4.47
4.24
3.51
1.89
-0.71
-4.02
-7.49
-10.52
-12.63
-13.60
-13.47
-12.39
-10.57
-8.14
-5.25
-2.12
0.96
3.63
5.62
6.77
7.14
6.89
6.22
5.27
4.11
2.82
1.46
0.14
-0.99
-1.88
-2.54
-3.09
-3.68
-4.40
-5.28
-6.27
-7.29
-8.32
-9.44
-10.77
-12.44
-14.44
-16.56
-18.37
-19.35
-19.03
-17.25
-14.17
-10.25
-6.02
-1.91
1.91
5.39
8.53
11.14
12.97
13.76
13.49
12.38
10.86
9.33
7.99
6.83
5.67
4.36
2.87
1.30
-0.19
-1.45
-2.50
-3.44
-4.46
-5.71
-7.34
-9.41
-11.93
-14.82
-17.91
-20.86
-23.15
-24.25
-23.73
-21.48
-17.76
-13.09
-8.10
-3.27
1.10
4.89
8.01
10.38
11.89
12.50
12.33
11.65
10.80
10.02
9.38
8.76
8.01
6.98
5.68
4.23
2.82
1.58
0.52
-0.50
-1.68
-3.24
-5.31
-7.91
-10.92
-14.11
-17.14
-19.57
-20.97
-20.97
-19.39
-16.39
-12.37
-7.93
-3.65
0.05
2.98
5.11
6.42
6.87
6.38
4.88
2.43
-0.76
-4.39
-8.13
-11.76
-15.17
-18.27
-20.91
-22.81
-23.61
-23.04
-21.11
-18.09
-14.52
-11.02
-8.14
-6.23
-5.46
-5.83
-7.16
-9.17
-11.44
-13.53
-15.04
-15.74
-15.52
-14.40
-12.36
-9.41
-5.59
-1.13
3.59
8.08
11.85
14.64
16.46
17.51
18.03
18.17
17.94
17.25
16.03
14.29
12.14
9.68
7.00
4.13
1.10
-2.01
-5.15
-8.28
-11.43
-14.71
-18.10
-21.45
-24.46
-26.75
-28.01
-28.14
-27.17
-25.15
-22.07
-17.83
-12.41
-6.12
0.40
6.16
10.12
11.55
10.32
6.98
2.76
-0.80
-2.18
-0.35
5.02
13.39
23.63
34.35
44.40
53.28
61.15
68.74
76.83
85.87
95.89
106.59
117.64
128.92
140.45
152.23
164.00
175.24
185.31
193.70
200.02
203.81
204.30
200.38
191.00
175.69
155.13
131.08
105.92
81.80
60.00
40.71
23.37
7.20
-8.26
-22.83
-35.70
-45.66
-51.45
-52.19
-47.69
-38.64
-26.50
-13.17
-0.49
10.14
17.94
22.75
24.68
24.03
21.05
16.08
9.55
2.04
-5.86
-13.67
-21.23
-28.67
-36.38
-44.67
-53.56
-62.61
-70.98
-77.76
-82.33
-84.68
-85.31
-85.02
-84.49
-84.03
-83.59
-82.92
-81.87
-80.52
-79.01
-77.44
-75.67
-73.40
-70.36
-66.52
-62.11
-57.57
-53.32
-49.59
-46.41
-43.71
-41.48
-39.81
-38.80
-38.46
-38.52
-38.57
-38.16
-37.02
-35.14
-32.74
-30.08
-27.44
-24.92
-22.59
-20.48
-18.65
-17.23
-16.26
-15.72
-15.43
-15.16
-14.65
-13.73
-12.37
-10.64
-8.74
-6.84
-5.13
-3.77
-2.87
-2.55
-2.91
-4.00
-5.75
-7.93
-10.15
-12.01
-13.16
-13.43
-12.88
-11.71
-10.19
-8.57
-7.01
-5.63
-4.51
-3.69
-3.20
-3.04
-3.11
-3.35
-3.70
-4.17
-4.80
-5.58
-6.40
-6.97
-7.02
-6.34
-4.97
-3.17
-1.38
-0.05
0.55
0.34
-0.54
-1.89
-3.56
-5.57
-8.06
-11.22
-15.21
-20.01
-25.43
-31.13
-36.69
-41.65
-45.66
-48.43
-49.82
-49.81
-48.50
-46.06
-42.65
-38.36
-33.13
-26.85
-19.33
-10.49
-0.42
10.56
21.94
33.05
43.08
51.25
56.84
59.36
58.65
54.94
48.80
40.98
32.29
23.44
14.97
7.24
0.46
-5.24
-9.82
-13.21
-15.36
-16.27
-16.01
-14.78
-12.91
-10.73
-8.52
-6.44
-4.51
-2.66
-0.85
0.96
2.78
4.65
6.61
8.72
10.90
12.94
14.48
15.04
14.20
11.68
7.46
1.81
-4.65
-11.09
-16.64
-20.67
-22.87
-23.33
-22.41
-20.50
-17.90
-14.66
-10.63
-5.55
0.73
8.12
16.18
24.11
30.90
35.57
37.43
36.33
32.59
26.89
20.00
12.56
5.06
-2.12
-8.58
-13.88
-17.63
-19.67
-20.22
-19.82
-19.17
-18.81
-18.91
-19.23
-19.32
-18.75
-17.43
-15.61
-13.82
-12.60
-12.24
-12.80
-14.10
-15.92
-18.11
-20.54
-23.08
-25.49
-27.53
-29.08
-30.20
-31.21
-32.46
-34.21
-36.32
-38.39
-39.88
-40.45
-40.11
-39.25
-38.42
-38.10
-38.53
-39.62
-41.04
-42.28
-42.80
-42.06
-39.69
-35.56
-29.89
-23.17
-16.05
-9.15
-2.92
2.37
6.62
9.76
11.85
13.03
13.62
14.04
14.68
15.70
17.00
18.24
19.05
19.24
18.87
18.17
17.39
16.66
15.84
14.63
12.68
9.82
6.16
2.15
-1.68
-4.75
-6.76
-7.59
-7.32
-6.16
-4.27
-1.87
0.89
3.82
6.71
9.40
11.76
13.75
15.36
16.66
17.66
18.40
18.91
19.18
19.22
19.04
18.62
17.92
16.97
15.81
14.53
13.28
12.17
11.25
10.50
9.83
9.13
8.31
7.33
6.16
4.80
3.23
1.50
-0.25
-1.77
-2.75
-2.93
-2.22
-0.78
1.11
3.08
4.88
6.38
7.58
8.56
9.35
9.98
10.38
10.51
10.35
9.94
9.36
8.67
7.95
7.22
6.42
5.50
4.41
3.19
1.96
0.85
-0.04
-0.76
-1.50
-2.41
-3.55
-4.83
-6.04
-6.99
-7.63
-8.13
-8.74
-9.61
-10.67
-11.61
-12.02
-11.53
-10.02
-7.61
-4.57
-1.19
2.28
5.68
8.84
11.63
13.94
15.72
16.99
17.85
18.39
18.65
18.65
18.41
17.94
17.22
16.19
14.74
12.79
10.44
7.92
5.60
3.78
2.58
1.88
1.40
0.88
0.11
-0.95
-2.33
-4.01
-5.93
-8.01
-10.03
-11.69
-12.63
-12.59
-11.43
-9.22
-6.23
-2.85
0.53
3.59
6.18
8.29
9.96
11.19
11.89
11.95
11.32
10.18
8.86
7.77
7.20
7.19
7.59
8.02
8.22
8.02
7.47
6.67
5.71
4.63
3.40
2.04
0.62
-0.80
-2.18
-3.62
-5.23
-7.06
-9.00
-10.71
-11.81
-11.99
-11.22
-9.69
-7.68
-5.46
-3.11
-0.63
1.95
4.47
6.68
8.30
9.22
9.50
9.35
8.95
8.47
7.99
7.61
7.41
7.43
7.62
7.78
7.67
7.09
6.01
4.60
3.05
1.54
0.08
-1.52
-3.48
-5.92
-8.77
-11.74
-14.34
-16.06
-16.41
-15.18
-12.42
-8.51
-4.00
0.50
4.55
7.94
10.64
12.74
14.31
15.37
15.89
15.87
15.40
14.63
13.71
12.75
11.78
10.78
9.75
8.72
7.75
6.87
6.03
5.12
4.02
2.69
1.15
-0.52
-2.23
-3.92
-5.59
-7.24
-8.87
-10.43
-11.87
-13.09
-14.01
-14.53
-14.53
-13.88
-12.49
-10.32
-7.46
-4.11
-0.60
2.74
5.58
7.69
8.98
9.54
9.58
9.35
9.00
8.59
8.07
7.44
6.72
5.99
5.34
4.73
4.09
3.28
2.27
1.13
-0.03
-1.13
-2.23
-3.43
-4.81
-6.37
-8.00
-9.61
-11.18
-12.77
-14.39
-15.93
-17.14
-17.65
-17.14
-15.47
-12.80
-9.47
-5.94
-2.65
0.13
2.29
3.87
4.96
5.64
5.91
5.73
5.10
4.17
3.15
2.34
1.90
1.81
1.86
1.76
1.32
0.57
-0.28
-0.95
-1.26
-1.26
-1.21
-1.40
-2.08
-3.25
-4.80
-6.52
-8.21
-9.79
-11.17
-12.22
-12.69
-12.26
-10.66
-7.84
-4.09
0.08
4.05
7.36
9.85
11.67
13.15
14.56
15.89
16.86
17.11
16.37
14.73
12.66
10.81
9.73
9.59
10.16
10.87
11.12
10.54
9.11
7.12
4.93
2.74
0.57
-1.73
-4.33
-7.25
-10.41
-13.63
-16.79
-19.86
-22.79
-25.39
-27.28
-27.92
-26.87
-23.96
-19.48
-14.02
-8.35
-3.05
1.61
5.67
9.32
12.67
15.64
18.00
19.48
20.01
19.76
19.10
18.44
18.00
17.72
17.35
16.59
15.31
13.60
11.78
10.13
8.81
7.74
6.67
5.37
3.78
2.04
0.36
-1.14
-2.50
-3.95
-5.70
-7.84
-10.19
-12.31
-13.70
-13.93
-12.88
-10.71
-7.77
-4.49
-1.20
1.89
4.66
7.01
8.89
10.25
11.04
11.29
11.09
10.54
9.80
8.99
8.25
7.70
7.36
7.22
7.16
7.08
6.87
6.51
5.99
5.27
4.28
2.93
1.25
-0.59
-2.32
-3.71
-4.72
-5.58
-6.69
-8.43
-10.88
-13.80
-16.65
-18.80
-19.81
-19.51
-18.04
-15.69
-12.74
-9.49
-6.16
-2.98
-0.19
2.09
3.84
5.17
6.22
7.09
7.73
7.99
7.80
7.14
6.22
5.27
4.45
3.80
3.21
2.57
1.90
1.29
0.88
0.72
0.70
0.63
0.26
-0.54
-1.84
-3.59
-5.74
-8.20
-10.83
-13.41
-15.57
-16.92
-17.17
-16.25
-14.34
-11.79
-8.97
-6.16
-3.45
-0.79
1.85
4.45
6.90
9.01
10.63
11.69
12.23
12.40
12.36
12.29
12.31
12.48
12.78
13.18
13.60
13.99
14.27
14.35
14.14
13.59
12.73
11.65
10.50
9.36
8.23
7.06
5.74
4.19
2.39
0.33
-1.92
-4.21
-6.29
-7.84
-8.53
-8.23
-6.99
-5.06
-2.72
-0.19
2.43
5.08
7.67
10.04
12.04
13.64
14.92
16.03
17.07
18.03
18.80
19.33
19.66
19.99
20.58
21.54
22.77
23.95
24.74
24.90
24.44
23.54
22.39
21.13
19.74
18.14
16.27
14.14
11.89
9.66
7.52
5.49
3.50
1.45
-0.71
-3.01
-5.42
-7.85
-10.19
-12.31
-14.12
-15.57
-16.67
-17.42
-17.76
-17.57
-16.71
-15.09
-12.74
-9.91
-6.92
-4.12
-1.71
0.27
1.95
3.49
4.97
6.37
7.56
8.41
8.91
9.17
9.44
9.94
10.82
12.11
13.71
15.49
17.29
18.99
20.47
21.65
22.52
23.05
23.30
23.33
23.27
23.25
23.37
23.67
24.10
24.56
25.00
25.53
26.43
28.13
31.09
35.60
41.60
48.73
56.37
63.83
70.58
76.31
80.99
84.69
87.55
89.54
90.57
90.42
88.95
86.10
81.90
76.49
69.99
62.53
54.27
45.38
36.11
26.77
17.71
9.24
1.52
-5.44
-11.88
-18.10
-24.44
-31.06
-37.97
-44.92
-51.58
-57.68
-63.06
-67.77
-71.98
-75.84
-79.48
-82.90
-85.96
-88.40
-89.82
-89.81
-88.07
-84.46
-79.20
-72.78
-65.79
-58.71
-51.72
-44.62
-37.00
-28.44
-18.66
-7.64
4.38
16.90
29.09
39.76
47.44
50.63
48.14
39.45
24.84
5.31
-17.64
-42.35
-67.16
-90.55
-111.27
-128.35
-141.24
-149.77
-154.11
-154.67
-152.01
-146.83
-139.87
-131.88
-123.47
-114.96
-106.48
-98.09
-90.09
-83.13
-78.04
-75.43
-75.24
-76.55
-77.78
-77.25
-73.77
-67.10
-57.94
-47.52
-37.06
-27.39
-18.77
-11.11
-4.18
2.01
7.26
11.34
14.11
15.73
16.61
17.28
18.09
19.13
20.16
20.76
20.55
19.33
17.20
14.44
11.39
8.37
5.59
3.24
1.54
0.82
1.41
3.50
7.05
11.68
16.81
21.85
26.37
30.16
33.15
35.33
36.70
37.22
36.94
35.98
34.55
32.84
31.00
29.15
27.35
25.68
24.21
22.90
21.65
20.26
18.53
16.39
13.99
11.58
9.42
7.64
6.17
4.77
3.19
1.25
-0.95
-3.09
-4.71
-5.30
-4.59
-2.53
0.60
4.36
8.30
12.10
15.59
18.67
21.27
23.27
24.52
24.92
24.53
23.53
22.14
20.55
18.84
17.04
15.19
13.36
11.74
10.47
9.59
9.04
8.59
8.01
7.04
5.56
3.61
1.36
-0.95
-3.13
-5.11
-6.94
-8.65
-10.16
-11.22
-11.49
-10.69
-8.72
-5.68
-1.85
2.43
6.83
11.03
14.72
17.65
19.67
20.73
20.94
20.49
19.61
18.52
17.42
16.40
15.57
14.89
14.32
13.72
12.90
11.73
10.15
8.18
5.94
3.57
1.22
-1.07
-3.34
-5.70
-8.25
-10.96
-13.62
-15.85
-17.21
-17.33
-16.03
-13.32
-9.45
-4.83
0.03
4.65
8.63
11.75
13.97
15.36
16.08
16.24
15.90
15.15
14.13
13.04
12.10
11.38
10.90
10.50
10.05
9.48
8.82
8.10
7.35
6.48
5.36
3.78
1.68
-0.91
-3.75
-6.44
-8.52
-9.58
-9.37
-7.92
-5.47
-2.41
0.86
4.05
6.95
9.44
11.42
12.81
13.53
13.57
13.02
11.97
10.60
9.04
7.48
6.03
4.82
3.92
3.34
3.03
2.83
2.51
1.81
0.53
-1.44
-4.03
-7.01
-10.00
-12.58
-14.34
-14.94
-14.25
-12.28
-9.27
-5.58
-1.63
2.22
5.68
8.57
10.76
12.15
12.72
12.54
11.78
10.69
9.46
8.17
6.87
5.53
4.17
2.89
1.79
0.87
0.07
-0.79
-1.90
-3.41
-5.42
-7.95
-10.89
-14.06
-17.11
-19.57
-20.95
-20.93
-19.37
-16.42
-12.45
-7.93
-3.35
0.85
4.34
6.90
8.49
9.21
9.29
8.99
8.48
7.85
7.06
6.04
4.78
3.34
1.89
0.57
-0.48
-1.27
-1.88
-2.43
-3.11
-4.09
-5.52
-7.46
-9.85
-12.40
-14.64
-15.98
-15.91
-14.18
-10.90
-6.53
-1.71
2.97
7.12
10.62
13.48
15.75
17.41
18.34
18.47
17.83
16.59
15.05
13.49
12.09
10.91
9.91
9.00
8.14
7.34
6.58
5.84
5.02
3.95
2.46
0.44
-2.15
-5.21
-8.47
-11.54
-13.95
-15.26
-15.19
-13.72
-11.06
-7.62
-3.83
-0.03
3.57
6.85
9.67
11.90
13.34
13.88
13.55
12.53
11.11
9.59
8.20
7.08
6.28
5.77
5.45
5.18
4.80
4.24
3.53
2.74
1.93
1.00
-0.31
-2.31
-5.14
-8.58
-12.04
-14.71
-15.85
-15.04
-12.36
-8.27
-3.43
1.48
5.97
9.70
12.50
14.31
15.12
15.01
14.17
12.84
11.35
9.99
8.92
8.18
7.63
7.15
6.63
6.05
5.42
4.78
4.08
3.17
1.91
0.15
-2.16
-5.00
-8.22
-11.60
-14.74
-17.18
-18.40
-18.05
-16.02
-12.57
-8.21
-3.55
0.87
4.74
7.91
10.36
12.10
13.10
13.38
13.03
12.24
11.30
10.49
9.99
9.76
9.60
9.22
8.40
7.11
5.54
3.97
2.67
1.78
1.19
0.67
-0.08
-1.32
-3.23
-5.83
-8.94
-12.19
-15.05
-16.95
-17.36
-16.06
-13.16
-9.13
-4.58
-0.05
4.06
7.57
10.42
12.57
13.96
14.58
14.47
13.82
12.89
11.92
11.08
10.43
9.92
9.49
9.05
8.50
7.77
6.83
5.71
4.50
3.31
2.20
1.14
-0.01
-1.40
-3.16
-5.32
-7.78
-10.27
-12.42
-13.79
-13.96
-12.65
-9.86
-5.91
-1.39
3.05
6.92
9.97
12.27
14.02
15.41
16.49
17.21
17.52
17.39
16.87
15.98
14.71
12.97
10.76
8.21
5.61
3.29
1.53
0.43
-0.13
-0.38
-0.52
-0.70
-1.01
-1.52
-2.38
-3.77
-5.74
-8.16
-10.67
-12.76
-13.92
-13.82
-12.39
-9.85
-6.58
-3.00
0.55
3.83
6.71
9.07
10.79
11.77
11.98
11.52
10.59
9.41
8.18
7.04
6.02
5.13
4.40
3.87
3.58
3.57
3.74
3.96
4.03
3.74
2.90
1.38
-0.84
-3.67
-6.81
-9.84
-12.19
-13.36
-13.04
-11.18
-8.10
-4.33
-0.43
3.11
6.06
8.36
10.07
11.24
11.85
11.83
11.15
9.90
8.29
6.62
5.13
4.00
3.27
2.90
2.80
2.81
2.78
2.56
2.01
1.07
-0.25
-1.89
-3.77
-5.79
-7.88
-9.94
-11.80
-13.22
-13.90
-13.64
-12.36
-10.18
-7.39
-4.32
-1.30
1.45
3.86
5.91
7.61
8.91
9.71
9.96
9.66
8.94
8.00
7.05
6.21
5.51
4.88
4.27
3.65
3.09
2.69
2.47
2.31
2.02
1.34
0.09
-1.71
-3.84
-5.94
-7.60
-8.43
-8.23
-6.95
-4.68
-1.59
2.07
6.07
10.14
14.01
17.44
20.25
22.35
23.71
24.37
24.36
23.76
22.67
21.22
19.58
17.89
16.17
14.37
12.41
10.25
7.94
5.64
3.54
1.74
0.15
-1.50
-3.52
-6.17
-9.47
-13.19
-16.87
-19.99
-22.09
-22.94
-22.49
-20.91
-18.43
-15.30
-11.79
-8.12
-4.56
-1.31
1.43
3.58
5.12
6.05
6.39
6.22
5.61
4.71
3.67
2.64
1.70
0.87
0.10
-0.65
-1.39
-2.07
-2.62
-3.01
-3.28
-3.56
-4.01
-4.80
-6.00
-7.58
-9.37
-11.13
-12.54
-13.28
-13.09
-11.79
-9.41
-6.15
-2.44
1.24
4.48
7.07
8.99
10.34
11.22
11.63
11.56
11.02
10.12
9.02
7.82
6.51
5.03
3.30
1.38
-0.55
-2.24
-3.56
-4.49
-5.23
-5.99
-6.99
-8.31
-9.90
-11.57
-13.05
-14.05
-14.33
-13.81
-12.58
-10.92
-9.13
-7.50
-6.19
-5.26
-4.76
-4.71
-5.17
-6.14
-7.48
-8.96
-10.28
-11.21
-11.67
-11.77
-11.72
-11.78
-12.08
-12.62
-13.29
-13.95
-14.55
-15.21
-16.13
-17.65
-20.10
-23.81
-29.05
-36.05
-44.80
-54.98
-65.74
-75.76
-83.52
-87.75
-87.91
-84.34
-78.10
-70.50
-62.63
-55.16
-48.45
-42.77
-38.44
-35.80
-34.94
-35.61
-37.17
-38.90
-40.20
-40.70
-40.21
-38.46
-34.97
-29.11
-20.20
-7.88
7.71
25.74
44.82
63.10
78.72
90.13
96.42
97.51
93.99
87.00
77.89
67.95
58.19
49.31
41.60
35.05
29.40
24.30
19.45
14.72
10.28
6.46
3.78
2.63
3.12
4.91
7.22
9.04
9.55
8.39
5.85
2.71
-0.22
-2.44
-3.94
-5.13
-6.51
-8.36
-10.67
-13.15
-15.50
-17.56
-19.28
-20.61
-21.33
-21.03
-19.27
-15.75
-10.59
-4.28
2.41
8.66
13.81
17.50
19.69
20.60
20.62
20.15
19.52
18.90
18.27
17.54
16.63
15.56
14.53
13.77
13.46
13.59
13.99
14.45
14.76
14.87
14.77
14.42
13.67
12.33
10.31
7.72
4.88
2.28
0.36
-0.62
-0.66
0.12
1.52
3.43
5.78
8.51
11.50
14.53
17.37
19.80
21.74
23.16
24.12
24.68
24.87
24.68
24.03
22.82
21.00
18.57
15.69
12.63
9.71
7.21
5.25
3.77
2.54
1.25
-0.38
-2.50
-5.05
-7.76
-10.19
-11.88
-12.50
-11.93
-10.35
-8.11
-5.67
-3.38
-1.51
-0.23
0.35
0.16
-0.84
-2.55
-4.80
-7.28
-9.68
-11.74
-13.21
-13.97
-13.94
-13.20
-12.00
-10.75
-9.93
-9.87
-10.62
-11.81
-12.80
-12.90
-11.57
-8.67
-4.40
0.80
6.41
11.96
17.02
21.28
24.51
26.68
27.88
28.41
28.62
28.80
29.14
29.64
30.16
30.51
30.48
29.87
28.60
26.66
24.19
21.46
18.82
16.61
15.01
13.99
13.37
12.87
12.27
11.44
10.38
9.15
7.89
6.66
5.53
4.50
3.53
2.59
1.70
0.91
0.33
0.07
0.22
0.78
1.70
2.86
4.17
5.61
7.21
9.04
11.09
13.30
15.55
17.76
19.86
21.84
23.71
25.45
27.04
28.40
29.46
30.16
30.51
30.52
30.21
29.61
28.77
27.73
26.60
25.45
24.37
23.31
22.17
20.81
19.10
17.01
14.63
12.15
9.83
7.88
6.51
5.79
5.68
6.04
6.66
7.35
7.95
8.35
8.54
8.52
8.33
8.05
7.72
7.40
7.10
6.77
6.30
5.60
4.63
3.43
2.14
0.88
-0.24
-1.24
-2.18
-3.16
-4.23
-5.37
-6.53
-7.66
-8.72
-9.73
-10.65
-11.45
-12.05
-12.38
-12.38
-12.05
-11.46
-10.71
-9.91
-9.15
-8.50
-7.99
-7.63
-7.38
-7.19
-6.99
-6.73
-6.42
-6.08
-5.78
-5.59
-5.59
-5.83
-6.31
-6.97
-7.71
-8.37
-8.80
-8.97
-8.92
-8.81
-8.81
-9.06
-9.60
-10.33
-11.10
-11.72
-12.06
-12.03
-11.62
-10.88
-9.91
-8.87
-7.94
-7.27
-6.97
-7.01
-7.27
-7.60
-7.87
-8.04
-8.18
-8.38
-8.71
-9.21
-9.83
-10.53
-11.27
-12.01
-12.69
-13.22
-13.53
-13.61
-13.52
-13.40
-13.35
-13.43
-13.58
-13.66
-13.56
-13.22
-12.67
-11.97
-11.17
-10.30
-9.30
-8.15
-6.85
-5.45
-4.07
-2.85
-1.88
-1.16
-0.60
-0.08
0.53
1.26
2.04
2.74
3.21
3.39
3.29
2.98
2.55
2.07
1.59
1.09
0.60
0.13
-0.32
-0.74
-1.18
-1.67
-2.25
-2.91
-3.57
-4.11
-4.35
-4.17
-3.52
-2.45
-1.12
0.25
1.49
2.44
3.06
3.38
3.50
3.53
3.54
3.55
3.54
3.46
3.26
2.94
2.55
2.14
1.75
1.38
1.02
0.66
0.33
0.08
-0.10
-0.22
-0.38
-0.60
-0.93
-1.35
-1.81
-2.25
-2.55
-2.61
-2.33
-1.64
-0.60
0.66
1.93
3.06
3.99
4.76
5.43
6.07
6.62
6.98
7.06
6.80
6.27
5.61
4.96
4.44
4.05
3.72
3.34
2.78
1.97
0.96
-0.12
-1.07
-1.74
-2.06
-2.15
-2.22
-2.53
-3.25
-4.43
-5.96
-7.67
-9.35
-10.84
-12.02
-12.77
-13.04
-12.81
-12.14
-11.14
-9.97
-8.81
-7.84
-7.19
-6.91
-6.94
-7.13
-7.28
-7.21
-6.86
-6.30
-5.70
-5.22
-4.95
-4.87
-4.93
-5.10
-5.41
-5.90
-6.59
-7.40
-8.16
-8.70
-8.96
-8.96
-8.86
-8.77
-8.77
-8.81
-8.81
-8.72
-8.54
-8.29
-7.96
-7.50
-6.79
-5.74
-4.30
-2.51
-0.53
1.47
3.28
4.76
5.81
6.40
6.57
6.46
6.23
6.01
5.87
5.79
5.71
5.61
5.47
5.34
5.20
5.04
4.79
4.41
3.92
3.37
2.87
2.47
2.17
1.89
1.56
1.12
0.59
0.01
-0.57
-1.14
-1.75
-2.44
-3.24
-4.06
-4.75
-5.12
-5.04
-4.48
-3.58
-2.57
-1.69
-1.06
-0.72
-0.60
-0.64
-0.82
-1.14
-1.59
-2.11
-2.60
-2.98
-3.22
-3.37
-3.54
-3.81
-4.19
-4.57
-4.83
-4.86
-4.67
-4.36
-4.07
-3.91
-3.96
-4.18
-4.52
-4.91
-5.28
-5.56
-5.72
-5.78
-5.80
-5.89
-6.14
-6.53
-6.96
-7.21
-7.07
-6.43
-5.32
-3.90
-2.42
-1.03
0.16
1.10
1.81
2.30
2.55
2.56
2.33
1.91
1.34
0.70
0.08
-0.44
-0.82
-1.00
-0.97
-0.77
-0.48
-0.18
0.02
0.03
-0.17
-0.57
-1.08
-1.62
-2.11
-2.56
-3.01
-3.54
-4.20
-4.94
-5.66
-6.20
-6.39
-6.17
-5.53
-4.55
-3.38
-2.16
-1.04
-0.10
0.62
1.15
1.53
1.78
1.98
2.17
2.41
2.76
3.27
3.95
4.71
5.42
5.93
6.15
6.09
5.82
5.50
5.20
5.03
4.95
4.91
4.83
4.56
4.01
3.09
1.86
0.42
-1.00
-2.19
-3.01
-3.40
-3.42
-3.16
-2.66
-1.95
-1.02
0.10
1.31
2.41
3.17
3.39
2.99
2.05
0.79
-0.51
-1.57
-2.26
-2.59
-2.74
-2.91
-3.23
-3.73
-4.30
-4.79
-5.10
-5.22
-5.23
-5.19
-5.12
-5.03
-4.91
-4.85
-4.96
-5.34
-6.02
-6.85
-7.58
-7.98
-7.88
-7.29
-6.34
-5.22
-4.08
-3.00
-1.99
-1.00
-0.04
0.87
1.64
2.21
2.54
2.67
2.64
2.51
2.28
1.97
1.61
1.24
0.93
0.66
0.37
-0.07
-0.70
-1.49
-2.30
-2.95
-3.36
-3.60
-3.84
-4.22
-4.82
-5.54
-6.26
-6.84
-7.25
-7.60
-8.00
-8.59
-9.35
-10.18
-10.83
-11.04
-10.60
-9.49
-7.89
-6.08
-4.32
-2.75
-1.33
0.03
1.41
2.70
3.72
4.30
4.41
4.19
3.86
3.63
3.58
3.62
3.61
3.45
3.13
2.75
2.42
2.23
2.14
1.99
1.63
0.94
-0.04
-1.14
-2.05
-2.56
-2.60
-2.32
-2.06
-2.14
-2.75
-3.88
-5.28
-6.66
-7.73
-8.29
-8.28
-7.73
-6.74
-5.45
-3.96
-2.39
-0.82
0.66
1.94
2.97
3.71
4.21
4.60
4.99
5.49
6.10
6.73
7.25
7.62
7.82
7.93
8.04
8.18
8.34
8.46
8.46
8.31
8.02
7.63
7.19
6.72
6.21
5.64
4.97
4.16
3.18
1.98
0.52
-1.25
-3.27
-5.40
-7.41
-8.98
-9.87
-9.90
-9.11
-7.71
-6.06
-4.49
-3.28
-2.52
-2.14
-1.99
-1.91
-1.81
-1.67
-1.55
-1.45
-1.36
-1.20
-0.88
-0.36
0.35
1.16
1.96
2.63
3.08
3.20
2.96
2.37
1.50
0.43
-0.75
-1.98
-3.23
-4.51
-5.79
-7.07
-8.37
-9.68
-11.00
-12.23
-13.17
-13.57
-13.23
-12.09
-10.28
-8.09
-5.80
-3.63
-1.69
0.01
1.51
2.85
4.05
5.10
5.98
6.66
7.14
7.42
7.53
7.53
7.48
7.44
7.42
7.42
7.38
7.21
6.84
6.20
5.26
4.09
2.84
1.70
0.84
0.28
-0.10
-0.49
-1.12
-2.10
-3.38
-4.78
-6.07
-7.01
-7.48
-7.44
-6.94
-6.04
-4.82
-3.36
-1.77
-0.19
1.23
2.35
3.10
3.51
3.66
3.65
3.55
3.36
3.04
2.60
2.11
1.70
1.47
1.38
1.34
1.19
0.85
0.34
-0.20
-0.64
-0.91
-1.06
-1.25
-1.64
-2.31
-3.26
-4.39
-5.57
-6.71
-7.75
-8.66
-9.38
-9.77
-9.71
-9.08
-7.86
-6.14
-4.13
-2.05
-0.11
1.55
2.91
4.01
4.87
5.50
5.86
5.90
5.62
5.07
4.44
3.91
3.66
3.73
4.02
4.38
4.62
4.68
4.51
4.19
3.77
3.29
2.79
2.30
1.84
1.41
0.98
0.52
-0.03
-0.66
-1.36
-2.07
-2.68
-3.05
-3.01
-2.36
-1.03
0.94
3.31
5.76
7.97
9.78
11.23
12.49
13.77
15.13
16.52
17.83
18.93
19.80
20.48
21.03
21.42
21.47
20.95
19.62
17.40
14.34
10.64
6.51
2.21
-2.03
-5.99
-9.46
-12.28
-14.42
-15.96
-17.07
-17.92
-18.63
-19.21
-19.60
-19.74
-19.61
-19.23
-18.65
-17.90
-17.01
-15.99
-14.83
-13.55
-12.13
-10.59
-8.90
-7.12
-5.35
-3.72
-2.36
-1.31
-0.55
0.05
0.60
1.20
1.85
2.49
3.05
3.42
3.52
3.37
3.00
2.50
1.95
1.40
0.83
0.18
-0.64
-1.71
-3.05
-4.65
-6.49
-8.49
-10.56
-12.53
-14.19
-15.35
-15.86
-15.70
-14.92
-13.70
-12.22
-10.75
-9.53
-8.77
-8.55
-8.85
-9.47
-10.18
-10.80
-11.27
-11.67
-12.10
-12.58
-13.05
-13.33
-13.26
-12.79
-11.98
-10.92
-9.71
-8.38
-6.96
-5.49
-4.03
-2.73
-1.70
-1.01
-0.68
-0.68
-0.95
-1.41
-1.98
-2.55
-3.00
-3.21
-3.08
-2.57
-1.68
-0.40
1.23
3.13
5.17
7.11
8.69
9.72
10.09
9.89
9.35
8.71
8.19
7.88
7.75
7.76
7.84
7.97
8.12
8.21
8.12
7.76
7.14
6.39
5.68
5.17
4.80
4.42
3.81
2.84
1.57
0.20
-0.99
-1.79
-2.12
-1.99
-1.50
-0.75
0.16
1.09
1.87
2.33
2.41
2.17
1.77
1.41
1.19
1.15
1.18
1.18
1.06
0.79
0.35
-0.25
-0.96
-1.73
-2.45
-2.99
-3.34
-3.58
-3.88
-4.39
-5.19
-6.16
-7.07
-7.72
-7.96
-7.83
-7.44
-6.87
-6.16
-5.21
-3.94
-2.31
-0.46
1.40
3.00
4.15
4.83
5.16
5.37
5.64
6.04
6.49
6.80
6.78
6.41
5.77
5.11
4.59
4.30
4.17
4.04
3.75
3.24
2.51
1.60
0.50
-0.78
-2.21
-3.66
-4.92
-5.74
-6.00
-5.70
-4.95
-3.91
-2.72
-1.43
-0.08
1.29
2.59
3.74
4.66
5.32
5.73
5.90
5.89
5.75
5.51
5.17
4.72
4.13
3.42
2.65
1.96
1.45
1.15
1.00
0.91
0.74
0.40
-0.14
-0.88
-1.77
-2.76
-3.72
-4.51
-4.99
-5.03
-4.57
-3.60
-2.19
-0.44
1.53
3.55
5.49
7.23
8.67
9.84
10.77
11.48
11.95
12.10
11.87
11.30
10.48
9.62
8.91
8.48
8.30
8.25
8.17
7.92
7.49
6.92
6.27
5.60
4.87
4.05
3.11
2.06
0.95
-0.20
-1.35
-2.50
-3.61
-4.61
-5.35
-5.68
-5.47
-4.72
-3.51
-1.99
-0.34
1.30
2.79
4.03
4.94
5.46
5.60
5.45
5.13
4.76
4.42
4.13
3.84
3.51
3.09
2.60
2.04
1.47
0.88
0.29
-0.32
-0.96
-1.62
-2.25
-2.82
-3.25
-3.49
-3.52
-3.33
-2.93
-2.35
-1.59
-0.70
0.25
1.16
1.92
2.43
2.68
2.73
2.68
2.58
2.42
2.16
1.69
1.03
0.32
-0.22
-0.31
0.19
1.24
2.63
4.07
5.23
5.90
6.01
5.59
4.71
3.50
2.09
0.61
-0.82
-2.13
-3.28
-4.31
-5.31
-6.33
-7.39
-8.37
-9.10
-9.40
-9.16
-8.36
-7.10
-5.54
-3.82
-2.03
-0.24
1.52
3.18
4.66
5.87
6.70
7.13
7.22
7.06
6.77
6.42
6.04
5.65
5.27
4.95
4.75
4.68
4.65
4.59
4.39
4.04
3.57
2.99
2.35
1.65
0.90
0.14
-0.62
-1.36
-2.19
-3.20
-4.43
-5.79
-7.07
-7.98
-8.33
-8.07
-7.33
-6.25
-4.98
-3.56
-2.01
-0.40
1.14
2.46
3.42
4.00
4.28
4.37
4.36
4.24
3.98
3.56
3.05
2.59
2.35
2.40
2.64
2.92
3.07
3.01
2.78
2.46
2.11
1.73
1.28
0.75
0.20
-0.28
-0.63
-0.89
-1.23
-1.86
-2.95
-4.46
-6.21
-7.91
-9.30
-10.24
-10.66
-10.56
-9.90
-8.61
-6.66
-4.16
-1.35
1.46
4.01
6.15
7.88
9.23
10.20
10.67
10.51
9.68
8.31
6.69
5.16
3.99
3.29
3.00
2.96
3.06
3.19
3.29
3.32
3.22
2.95
2.50
1.98
1.49
1.14
0.96
0.87
0.76
0.54
0.19
-0.24
-0.67
-1.07
-1.50
-2.06
-2.80
-3.64
-4.40
-4.80
-4.66
-3.93
-2.73
-1.24
0.36
1.98
3.62
5.30
6.98
8.57
10.01
11.23
12.27
13.16
13.95
14.62
15.15
15.50
15.68
15.68
15.48
15.02
14.28
13.24
11.97
10.60
9.25
7.99
6.82
5.67
4.48
3.26
2.05
0.95
-0.00
-0.85
-1.72
-2.78
-4.11
-5.64
-7.18
-8.50
-9.42
-9.90
-10.01
-9.88
-9.60
-9.14
-8.47
-7.55
-6.44
-5.26
-4.13
-3.08
-2.10
-1.09
-0.04
0.98
1.85
2.44
2.70
2.64
2.38
2.05
1.74
1.49
1.29
1.10
0.91
0.74
0.63
0.58
0.57
0.45
0.11
-0.55
-1.47
-2.46
-3.22
-3.47
-3.11
-2.21
-1.04
0.10
0.95
1.42
1.55
1.46
1.28
1.08
0.86
0.60
0.23
-0.30
-1.02
-1.96
-3.08
-4.31
-5.55
-6.66
-7.54
-8.17
-8.58
-8.91
-9.26
-9.71
-10.21
-10.71
-11.14
-11.51
-11.93
-12.51
-13.31
-14.33
-15.45
-16.55
-17.49
-18.19
-18.61
-18.73
-18.52
-17.94
-16.90
-15.38
-13.36
-10.94
-8.25
-5.50
-2.86
-0.43
1.75
3.74
5.62
7.50
9.42
11.37
13.28
15.07
16.65
17.95
18.93
19.55
19.76
19.51
18.76
17.51
15.82
13.83
11.64
9.34
6.93
4.41
1.81
-0.80
-3.24
-5.31
-6.84
-7.76
-8.06
-7.80
-7.14
-6.22
-5.24
-4.36
-3.72
-3.41
-3.44
-3.76
-4.30
-4.95
-5.64
-6.27
-6.75
-6.98
-6.92
-6.56
-6.00
-5.34
-4.72
-4.16
-3.64
-3.15
-2.69
-2.34
-2.21
-2.35
-2.67
-3.00
-3.12
-2.83
-2.07
-0.88
0.62
2.23
3.77
5.05
5.91
6.25
6.03
5.34
4.30
3.10
1.94
0.95
0.22
-0.21
-0.35
-0.24
0.07
0.51
0.99
1.38
1.58
1.48
1.08
0.48
-0.11
-0.53
-0.67
-0.57
-0.37
-0.25
-0.26
-0.32
-0.29
0.02
0.69
1.65
2.75
3.83
4.79
5.67
6.52
7.40
8.30
9.13
9.80
10.29
10.65
11.02
11.57
12.42
13.60
15.10
16.85
18.75
20.63
22.25
23.35
23.67
23.10
21.73
19.84
17.83
16.05
14.73
13.88
13.37
12.93
12.24
11.09
9.36
7.11
4.51
1.85
-0.65
-2.91
-4.98
-7.02
-9.15
-11.39
-13.59
-15.50
-16.89
-17.56
-17.46
-16.65
-15.27
-13.54
-11.70
-9.97
-8.48
-7.28
-6.24
-5.16
-3.79
-1.97
0.30
2.80
5.16
6.95
7.84
7.73
6.75
5.28
3.72
2.37
1.33
0.46
-0.49
-1.72
-3.33
-5.25
-7.33
-9.43
-11.49
-13.52
-15.60
-17.76
-20.01
-22.22
-24.17
-25.63
-26.41
-26.44
-25.88
-24.98
-24.07
-23.36
-22.90
-22.56
-22.15
-21.49
-20.56
-19.41
-18.16
-16.89
-15.58
-14.16
-12.55
-10.77
-8.95
-7.31
-6.04
-5.23
-4.80
-4.57
-4.32
-3.92
-3.39
-2.86
-2.53
-2.52
-2.81
-3.31
-3.81
-4.18
-4.35
-4.37
-4.34
-4.36
-4.48
-4.66
-4.79
-4.77
-4.49
-3.90
-2.94
-1.64
-0.06
1.64
3.26
4.57
5.43
5.81
5.80
5.58
5.34
5.19
5.16
5.21
5.29
5.33
5.32
5.25
5.15
5.04
4.95
4.93
5.02
5.19
5.38
5.46
5.30
4.89
4.27
3.57
2.94
2.44
2.11
1.91
1.81
1.79
1.86
2.02
2.24
2.50
2.77
3.04
3.32
3.61
3.93
4.31
4.82
5.51
6.41
7.44
8.48
9.41
10.15
10.68
11.07
11.40
11.68
11.92
12.01
11.91
11.55
10.96
10.21
9.41
8.67
8.03
7.44
6.80
6.05
5.21
4.39
3.76
3.43
3.35
3.37
3.25
2.88
2.27
1.63
1.15
0.98
1.10
1.38
1.65
1.80
1.83
1.72
1.48
1.09
0.51
-0.23
-1.02
-1.72
-2.23
-2.54
-2.70
-2.75
-2.71
-2.54
-2.20
-1.75
-1.32
-1.08
-1.16
-1.58
-2.25
-3.07
-3.91
-4.72
-5.41
-5.87
-5.96
-5.52
-4.48
-2.93
-1.08
0.76
2.35
3.54
4.35
4.85
5.13
5.24
5.15
4.85
4.34
3.74
3.21
2.88
2.80
2.88
2.93
2.74
2.24
1.44
0.48
-0.50
-1.42
-2.29
-3.18
-4.11
-5.05
-5.86
-6.44
-6.77
-6.97
-7.18
-7.55
-8.05
-8.49
-8.65
-8.32
-7.49
-6.31
-5.03
-3.89
-3.00
-2.33
-1.76
-1.21
-0.66
-0.17
0.21
0.44
0.60
0.73
0.87
0.99
1.04
1.02
0.99
1.05
1.26
1.61
2.03
2.42
2.71
2.85
2.84
2.62
2.14
1.39
0.44
-0.54
-1.41
-2.05
-2.48
-2.75
-2.91
-2.92
-2.69
-2.15
-1.33
-0.40
0.42
0.95
1.18
1.22
1.25
1.37
1.56
1.72
1.72
1.53
1.22
0.89
0.66
0.54
0.42
0.16
-0.34
-1.10
-2.01
-2.90
-3.62
-4.12
-4.47
-4.79
-5.19
-5.68
-6.21
-6.68
-7.08
-7.48
-7.92
-8.39
-8.79
-8.90
-8.59
-7.88
-6.92
-5.92
-5.04
-4.29
-3.54
-2.64
-1.49
-0.13
1.29
2.61
3.73
4.64
5.40
6.09
6.74
7.33
7.82
8.12
8.18
8.00
7.60
7.04
6.39
5.68
4.86
3.85
2.56
0.95
-0.89
-2.77
-4.46
-5.80
-6.75
-7.35
-7.66
-7.71
-7.46
-6.82
-5.79
-4.43
-2.89
-1.33
0.17
1.60
2.97
4.29
5.48
6.44
7.09
7.46
7.68
7.90
8.20
8.57
8.85
8.87
8.48
7.66
6.48
5.12
3.72
2.37
1.11
-0.10
-1.32
-2.57
-3.85
-5.11
-6.29
-7.33
-8.21
-8.94
-9.45
-9.64
-9.40
-8.62
-7.36
-5.79
-4.17
-2.70
-1.45
-0.34
0.81
2.09
3.51
4.94
6.18
7.10
7.64
7.83
7.72
7.36
6.75
5.94
5.02
4.16
3.51
3.15
3.05
3.07
3.06
2.92
2.64
2.30
1.98
1.68
1.35
0.91
0.34
-0.31
-0.89
-1.18
-1.03
-0.37
0.75
2.17
3.68
5.07
6.21
7.06
7.63
7.98
8.13
8.08
7.77
7.20
6.42
5.51
4.55
3.58
2.55
1.44
0.18
-1.22
-2.69
-4.15
-5.51
-6.64
-7.48
-8.01
-8.26
-8.36
-8.47
-8.67
-8.99
-9.30
-9.46
-9.35
-8.93
-8.25
-7.35
-6.28
-5.04
-3.64
-2.16
-0.69
0.64
1.71
2.43
2.80
2.87
2.78
2.67
2.69
2.86
3.15
3.45
3.67
3.78
3.79
3.74
3.58
3.25
2.65
1.77
0.67
-0.53
-1.77
-3.02
-4.27
-5.52
-6.68
-7.61
-8.17
-8.29
-7.98
-7.31
-6.38
-5.26
-4.01
-2.67
-1.28
0.13
1.49
2.68
3.56
4.03
4.06
3.75
3.28
2.85
2.55
2.36
2.14
1.76
1.19
0.52
-0.07
-0.43
-0.49
-0.33
-0.07
0.10
0.06
-0.27
-0.90
-1.72
-2.63
-3.45
-4.00
-4.15
-3.79
-2.93
-1.65
-0.10
1.53
3.06
4.39
5.50
6.44
7.27
7.98
8.44
8.52
8.09
7.17
5.88
4.46
3.14
2.09
1.38
0.98
0.80
0.78
0.80
0.74
0.52
0.05
-0.70
-1.72
-3.00
-4.52
-6.31
-8.35
-10.56
-12.75
-14.69
-16.14
-16.96
-17.16
-16.85
-16.15
-15.17
-13.93
-12.49
-10.93
-9.44
-8.22
-7.44
-7.15
-7.23
-7.53
-7.85
-8.06
-8.03
-7.73
-7.12
-6.22
-5.09
-3.79
-2.40
-0.98
0.41
1.66
2.63
3.16
3.16
2.66
1.79
0.77
-0.16
-0.79
-0.97
-0.63
0.24
1.56
3.21
5.04
6.89
8.60
10.02
11.00
11.45
11.32
10.70
9.79
8.85
8.12
7.68
7.50
7.43
7.35
7.17
6.92
6.64
6.35
6.01
5.51
4.75
3.67
2.31
0.77
-0.81
-2.30
-3.60
-4.63
-5.32
-5.60
-5.39
-4.66
-3.45
-1.88
-0.15
1.48
2.77
3.52
3.64
3.08
1.92
0.26
-1.71
-3.78
-5.66
-7.13
-8.04
-8.39
-8.34
-8.11
-7.92
-7.87
-7.98
-8.20
-8.47
-8.75
-9.08
-9.53
-10.21
-11.17
-12.39
-13.77
-15.09
-16.06
-16.46
-16.14
-15.07
-13.30
-10.99
-8.33
-5.54
-2.88
-0.59
1.18
2.39
3.17
3.77
4.44
5.32
6.39
7.53
8.55
9.37
9.98
10.47
10.87
11.15
11.18
10.87
10.18
9.19
8.02
6.72
5.26
3.52
1.49
-0.65
-2.58
-3.87
-4.25
-3.60
-2.06
0.14
2.75
5.56
8.40
11.13
13.61
15.68
17.26
18.28
18.76
18.72
18.22
17.34
16.13
14.68
13.04
11.31
9.54
7.85
6.29
4.89
3.61
2.35
1.01
-0.49
-2.13
-3.91
-5.73
-7.51
-9.15
-10.53
-11.53
-12.09
-12.23
-12.06
-11.71
-11.27
-10.72
-9.94
-8.83
-7.29
-5.37
-3.17
-0.84
1.50
3.74
5.79
7.57
8.99
9.95
10.39
10.29
9.70
8.77
7.67
6.62
5.76
5.10
4.52
3.77
2.61
0.90
-1.35
-3.96
-6.66
-9.16
-11.23
-12.69
-13.47
-13.53
-12.91
-11.68
-9.92
-7.76
-5.32
-2.69
0.03
2.79
5.49
7.98
10.10
11.66
12.54
12.75
12.40
11.68
10.78
9.83
8.88
7.92
6.91
5.87
4.88
4.05
3.47
3.13
2.94
2.74
2.41
1.89
1.24
0.55
-0.06
-0.49
-0.67
-0.56
-0.13
0.62
1.62
2.73
3.81
4.68
5.26
5.54
5.60
5.58
5.59
5.68
5.85
6.03
6.13
6.06
5.77
5.26
4.51
3.57
2.49
1.35
0.27
-0.71
-1.59
-2.49
-3.53
-4.78
-6.20
-7.62
-8.77
-9.39
-9.30
-8.47
-7.00
-5.11
-3.04
-1.03
0.73
2.12
3.09
3.63
3.80
3.68
3.37
2.97
2.57
2.23
1.94
1.71
1.50
1.28
1.05
0.80
0.52
0.16
-0.36
-1.15
-2.29
-3.79
-5.56
-7.44
-9.16
-10.45
-11.03
-10.73
-9.50
-7.43
-4.78
-1.93
0.73
2.89
4.41
5.33
5.83
6.10
6.27
6.33
6.20
5.82
5.24
4.60
4.07
3.77
3.63
3.46
3.08
2.39
1.46
0.44
-0.47
-1.24
-1.96
-2.79
-3.87
-5.22
-6.69
-8.01
-8.93
-9.24
-8.88
-7.91
-6.48
-4.78
-2.96
-1.18
0.47
1.86
2.90
3.52
3.70
3.50
3.05
2.47
1.86
1.26
0.72
0.27
-0.06
-0.22
-0.22
-0.09
0.09
0.27
0.41
0.47
0.45
0.35
0.16
-0.11
-0.44
-0.81
-1.19
-1.57
-1.89
-2.07
-1.96
-1.43
-0.36
1.25
3.26
5.42
7.44
9.09
10.28
11.02
11.44
11.67
11.80
11.84
11.71
11.34
10.68
9.76
8.67
7.56
6.56
5.73
5.05
4.39
3.59
2.49
1.00
-0.89
-3.07
-5.37
-7.61
-9.56
-11.01
-11.77
-11.69
-10.72
-8.95
-6.63
-4.10
-1.74
0.18
1.55
2.42
2.95
3.30
3.53
3.60
3.43
2.91
2.07
1.00
-0.15
-1.23
-2.15
-2.85
-3.27
-3.38
-3.19
-2.81
-2.48
-2.49
-3.08
-4.30
-5.98
-7.82
-9.47
-10.68
-11.37
-11.56
-11.30
-10.58
-9.37
-7.69
-5.67
-3.55
-1.61
-0.02
1.17
2.00
2.52
2.76
2.71
2.43
2.05
1.82
1.93
2.45
3.28
4.19
4.93
5.38
5.53
5.49
5.35
5.17
4.90
4.42
3.63
2.42
0.75
-1.30
-3.55
-5.73
-7.58
-8.90
-9.63
-9.82
-9.62
-9.13
-8.45
-7.61
-6.63
-5.59
-4.54
-3.58
-2.77
-2.13
-1.66
-1.31
-1.05
-0.85
-0.68
-0.57
-0.57
-0.71
-0.98
-1.32
-1.58
-1.59
-1.27
-0.61
0.25
1.11
1.80
2.21
2.31
2.16
1.84
1.42
1.00
0.68
0.57
0.75
1.26
2.06
3.01
4.00
4.91
5.64
6.11
6.27
6.07
5.53
4.71
3.77
2.85
2.16
1.79
1.81
2.12
2.55
2.88
2.88
2.45
1.62
0.53
-0.59
-1.57
-2.35
-2.98
-3.55
-4.18
-4.93
-5.81
-6.79
-7.77
-8.60
-9.10
-9.09
-8.49
-7.29
-5.64
-3.71
-1.68
0.33
2.26
4.01
5.48
6.58
7.19
7.29
6.93
6.22
5.32
4.41
3.65
3.09
2.73
2.48
2.17
1.66
0.84
-0.34
-1.84
-3.58
-5.40
-7.12
-8.52
-9.45
-9.78
-9.53
-8.79
-7.73
-6.51
-5.23
-3.98
-2.79
-1.65
-0.59
0.39
1.26
1.93
2.33
2.40
2.20
1.88
1.67
1.72
2.05
2.51
2.82
2.75
2.22
1.37
0.46
-0.23
-0.54
-0.49
-0.25
-0.04
-0.05
-0.39
-1.07
-2.06
-3.28
-4.63
-5.94
-7.00
-7.58
-7.52
-6.75
-5.38
-3.63
-1.81
-0.19
1.10
2.03
2.65
3.06
3.30
3.38
3.26
2.98
2.60
2.26
2.08
2.11
2.28
2.42
2.35
2.01
1.43
0.78
0.24
-0.09
-0.23
-0.33
-0.58
-1.11
-1.95
-2.97
-3.97
-4.75
-5.17
-5.22
-4.94
-4.38
-3.55
-2.37
-0.78
1.24
3.51
5.74
7.54
8.59
8.77
8.20
7.18
6.06
5.18
4.66
4.47
4.48
4.51
4.40
4.10
3.58
2.89
2.04
1.09
0.07
-0.93
-1.84
-2.63
-3.36
-4.16
-5.21
-6.60
-8.27
-9.94
-11.30
-12.10
-12.21
-11.73
-10.79
-9.55
-8.07
-6.36
-4.44
-2.41
-0.47
1.18
2.41
3.19
3.59
3.69
3.57
3.32
2.99
2.70
2.53
2.53
2.67
2.88
3.06
3.15
3.12
2.93
2.55
1.94
1.04
-0.12
-1.46
-2.77
-3.82
-4.38
-4.31
-3.53
-2.03
0.12
2.85
6.02
9.40
12.68
15.50
17.52
18.54
18.61
17.95
16.96
16.02
15.38
15.10
15.09
15.17
15.20
15.12
14.94
14.75
14.62
14.57
14.51
14.28
13.63
12.39
10.51
8.14
5.61
3.37
1.85
1.38
2.04
3.72
6.08
8.69
11.16
13.20
14.66
15.55
15.93
15.87
15.34
14.28
12.58
10.19
7.20
3.80
0.27
-3.14
-6.21
-8.83
-10.88
-12.15
-12.41
-11.37
-8.92
-5.17
-0.54
4.35
8.89
12.75
16.03
19.24
23.12
28.25
34.80
42.30
49.83
56.36
61.20
64.27
66.14
67.73
69.90
73.03
76.82
80.45
82.89
83.30
81.34
77.32
72.18
67.34
64.46
65.08
70.10
79.30
91.21
103.30
112.82
117.79
117.70
113.63
107.50
101.00
94.56
87.19
77.08
62.79
44.22
22.95
1.78
-16.34
-29.28
-36.33
-38.12
-36.04
-31.70
-26.41
-21.07
-16.25
-12.35
-9.65
-8.26
-8.10
-8.85
-10.18
-11.82
-13.80
-16.34
-19.72
-24.04
-29.07
-34.25
-38.86
-42.36
-44.49
-45.50
-45.98
-46.72
-48.52
-51.88
-56.93
-63.32
-70.34
-77.07
-82.64
-86.49
-88.43
-88.71
-87.84
-86.36
-84.68
-82.92
-81.00
-78.74
-75.91
-72.44
-68.37
-63.88
-59.17
-54.48
-50.00
-45.88
-42.21
-38.99
-36.19
-33.74
-31.58
-29.72
-28.22
-27.14
-26.55
-26.51
-26.99
-27.78
-28.55
-28.81
-28.07
-26.04
-22.81
-18.94
-15.29
-12.69
-11.64
-12.08
-13.48
-15.13
-16.45
-17.17
-17.37
-17.30
-17.21
-17.25
-17.47
-17.87
-18.44
-19.07
-19.56
-19.59
-18.83
-17.10
-14.51
-11.51
-8.71
-6.65
-5.62
-5.54
-6.08
-6.82
-7.45
-7.84
-8.02
-8.07
-8.04
-7.99
-7.98
-8.10
-8.48
-9.23
-10.35
-11.68
-12.98
-13.90
-14.14
-13.46
-11.74
-8.97
-5.29
-0.92
3.79
8.51
12.93
16.91
20.43
23.59
26.47
29.05
31.23
32.79
33.60
33.66
33.19
32.44
31.68
31.01
30.42
29.93
29.63
29.74
30.41
31.58
32.86
33.64
33.36
31.84
29.38
26.59
24.04
21.92
19.99
17.77
14.83
11.04
6.63
1.93
-2.80
-7.49
-12.29
-17.31
-22.47
-27.42
-31.67
-34.72
-36.28
-36.41
-35.39
-33.71
-31.83
-30.08
-28.63
-27.50
-26.68
-26.13
-25.85
-25.81
-25.94
-26.13
-26.23
-26.11
-25.74
-25.25
-24.87
-24.93
-25.62
-26.91
-28.47
-29.76
-30.20
-29.44
-27.51
-24.81
-21.97
-19.59
-18.12
-17.83
-18.88
-21.39
-25.37
-30.61
-36.56
-42.45
-47.61
-51.77
-55.26
-58.85
-63.33
-69.02
-75.53
-81.86
-86.76
-89.20
-88.57
-84.72
-77.75
-67.85
-55.28
-40.40
-23.86
-6.65
9.99
24.66
36.08
43.29
45.81
43.62
37.11
27.00
14.29
0.35
-13.18
-24.51
-32.14
-35.31
-34.35
-30.62
-25.93
-21.90
-19.25
-17.73
-16.43
-14.44
-11.35
-7.47
-3.56
-0.31
1.91
3.26
4.13
4.91
5.74
6.52
7.13
7.53
7.86
8.37
9.25
10.44
11.65
12.44
12.33
11.06
8.62
5.28
1.52
-2.13
-5.20
-7.35
-8.44
-8.53
-7.80
-6.41
-4.44
-1.90
1.23
4.89
8.92
13.03
16.94
20.47
23.53
26.09
28.06
29.26
29.52
28.79
27.29
25.56
24.22
23.78
24.35
25.62
26.98
27.76
27.46
25.94
23.38
20.15
16.71
13.47
10.73
8.62
7.07
5.82
4.54
2.87
0.66
-2.07
-5.07
-8.00
-10.51
-12.28
-13.06
-12.64
-10.91
-7.93
-3.99
0.39
4.57
7.98
10.27
11.41
11.60
11.18
10.43
9.50
8.34
6.85
4.96
2.74
0.39
-1.80
-3.58
-4.85
-5.61
-5.98
-6.07
-5.98
-5.83
-5.81
-6.13
-6.97
-8.31
-9.92
-11.35
-12.15
-12.06
-11.08
-9.39
-7.27
-4.89
-2.35
0.34
3.14
5.93
8.53
10.78
12.59
13.92
14.74
15.04
14.84
14.28
13.60
13.07
12.85
12.88
12.92
12.64
11.85
10.56
9.07
7.72
6.69
5.91
5.05
3.61
1.22
-2.20
-6.40
-10.83
-14.80
-17.74
-19.34
-19.58
-18.71
-17.10
-15.15
-13.24
-11.70
-10.67
-10.05
-9.41
-8.12
-5.57
-1.44
4.04
10.12
15.80
20.16
22.70
23.50
23.00
21.90
20.75
19.87
19.29
18.84
18.31
17.59
16.70
15.72
14.73
13.70
12.48
10.87
8.73
6.06
2.91
-0.55
-4.15
-7.71
-10.99
-13.77
-15.81
-16.90
-16.94
-15.83
-13.42
-9.57
-4.03
3.32
12.39
22.70
33.43
43.52
52.00
58.23
62.00
63.57
63.39
61.93
59.54
56.40
52.58
48.09
42.85
36.80
29.89
22.27
14.38
6.98
1.05
-2.60
-3.71
-2.86
-1.39
-0.93
-2.77
-7.23
-13.44
-19.64
-23.92
-24.94
-22.45
-17.33
-11.06
-5.23
-0.94
1.26
1.31
-0.61
-4.13
-8.65
-13.36
-17.30
-19.67
-20.14
-18.97
-16.86
-14.58
-12.68
-11.38
-10.63
-10.27
-10.14
-10.10
-10.06
-9.92
-9.73
-9.68
-10.11
-11.32
-13.27
-15.66
-17.94
-19.64
-20.51
-20.49
-19.54
-17.48
-13.99
-8.81
-2.06
5.54
12.82
18.48
21.63
22.13
20.72
18.59
16.78
15.68
14.92
13.61
10.93
6.62
1.14
-4.63
-9.91
-14.37
-18.24
-22.03
-26.10
-30.36
-34.26
-37.14
-38.57
-38.66
-38.00
-37.36
-37.28
-37.77
-38.32
-38.11
-36.40
-32.81
-27.46
-20.82
-13.55
-6.24
0.57
6.48
11.16
14.38
16.11
16.50
15.90
14.70
13.24
11.72
10.25
8.86
7.56
6.35
5.16
3.86
2.32
0.46
-1.63
-3.75
-5.61
-7.06
-8.13
-9.08
-10.25
-11.88
-13.98
-16.24
-18.14
-19.02
-18.38
-15.98
-11.89
-6.51
-0.38
5.94
11.96
17.31
21.68
24.79
26.47
26.65
25.46
23.29
20.70
18.24
16.29
14.96
14.02
13.13
11.95
10.33
8.33
6.15
3.98
1.81
-0.54
-3.35
-6.81
-10.82
-14.97
-18.63
-21.16
-22.11
-21.24
-18.64
-14.54
-9.34
-3.51
2.45
8.05
12.84
16.52
18.99
20.35
20.81
20.59
19.81
18.55
16.83
14.70
12.27
9.73
7.33
5.27
3.69
2.62
1.98
1.61
1.29
0.75
-0.27
-1.98
-4.43
-7.50
-10.89
-14.11
-16.64
-17.99
-17.82
-16.00
-12.65
-8.09
-2.80
2.74
8.03
12.68
16.41
19.12
20.81
21.68
21.93
21.79
21.41
20.88
20.20
19.38
18.41
17.35
16.22
15.10
14.01
12.97
11.98
10.96
9.78
8.29
6.29
3.71
0.59
-2.85
-6.21
-8.99
-10.70
-10.93
-9.55
-6.71
-2.76
1.82
6.58
11.20
15.48
19.25
22.32
24.48
25.61
25.77
25.20
24.28
23.33
22.49
21.74
20.97
20.11
19.23
18.50
18.13
18.20
18.65
19.27
19.76
19.83
19.23
17.82
15.53
12.48
8.89
5.13
1.65
-1.08
-2.69
-2.95
-1.87
0.32
3.18
6.14
8.69
10.47
11.38
11.48
11.04
10.31
9.55
8.90
8.41
8.02
7.62
7.06
6.16
4.84
3.11
1.08
-1.03
-2.97
-4.55
-5.71
-6.59
-7.49
-8.80
-10.89
-13.86
-17.49
-21.24
-24.34
-26.08
-26.01
-24.10
-20.76
-16.65
-12.41
-8.50
-5.06
-1.99
0.83
3.48
5.84
7.77
9.16
10.09
10.75
11.35
12.01
12.67
13.14
13.20
12.81
12.08
11.25
10.59
10.23
10.14
10.10
9.79
8.94
7.36
5.02
2.01
-1.47
-5.15
-8.67
-11.57
-13.38
-13.68
-12.27
-9.25
-4.97
0.08
5.39
10.62
15.52
19.84
23.38
25.89
27.22
27.40
26.65
25.30
23.67
21.96
20.31
18.78
17.42
16.32
15.51
14.92
14.39
13.75
12.89
11.80
10.57
9.25
7.84
6.20
4.19
1.63
-1.55
-5.32
-9.49
-13.71
-17.52
-20.37
-21.85
-21.79
-20.29
-17.75
-14.69
-11.56
-8.68
-6.22
-4.20
-2.57
-1.25
-0.18
0.70
1.39
1.84
1.91
1.49
0.55
-0.78
-2.28
-3.70
-4.83
-5.56
-5.90
-5.93
-5.81
-5.74
-5.92
-6.50
-7.50
-8.85
-10.31
-11.68
-12.76
-13.46
-13.70
-13.36
-12.27
-10.23
-7.16
-3.18
1.30
5.73
9.59
12.58
14.72
16.25
17.44
18.47
19.28
19.68
19.49
18.64
17.24
15.54
13.79
12.17
10.73
9.50
8.43
7.56
6.95
6.65
6.68
6.92
7.26
7.54
7.63
7.45
6.96
6.08
4.72
2.83
0.49
-2.06
-4.39
-6.02
-6.52
-5.66
-3.48
-0.21
3.74
7.91
11.94
15.54
18.58
21.07
23.10
24.78
26.15
27.18
27.81
27.99
27.75
27.25
26.66
26.17
25.82
25.53
25.09
24.29
23.02
21.29
19.26
17.11
14.92
12.68
10.28
7.59
4.53
1.09
-2.68
-6.73
-11.01
-15.45
-19.87
-23.99
-27.42
-29.87
-31.22
-31.60
-31.35
-30.89
-30.50
-30.25
-29.95
-29.32
-28.17
-26.51
-24.54
-22.56
-20.81
-19.36
-18.13
-17.04
-16.07
-15.34
-14.95
-14.92
-15.08
-15.13
-14.82
-14.04
-12.96
-11.93
-11.30
-11.34
-12.14
-13.57
-15.40
-17.36
-19.18
-20.65
-21.56
-21.76
-21.15
-19.70
-17.51
-14.75
-11.66
-8.42
-5.16
-1.90
1.36
4.53
7.44
9.82
11.48
12.34
12.48
12.09
11.38
10.53
9.68
8.92
8.27
7.72
7.17
6.51
5.64
4.52
3.18
1.73
0.30
-1.05
-2.30
-3.50
-4.74
-6.08
-7.54
-9.03
-10.35
-11.22
-11.34
-10.56
-8.90
-6.61
-4.03
-1.48
0.80
2.75
4.36
5.69
6.75
7.59
8.24
8.80
9.37
10.02
10.76
11.50
12.11
12.44
12.39
11.94
11.11
10.00
8.68
7.25
5.78
4.30
2.78
1.15
-0.70
-2.86
-5.37
-8.13
-10.93
-13.48
-15.45
-16.56
-16.63
-15.61
-13.62
-10.89
-7.72
-4.43
-1.30
1.44
3.67
5.32
6.38
6.85
6.74
6.11
5.07
3.77
2.39
1.11
0.03
-0.79
-1.40
-1.88
-2.38
-3.03
-3.83
-4.69
-5.43
-5.85
-5.86
-5.50
-5.00
-4.66
-4.75
-5.43
-6.68
-8.26
-9.77
-10.72
-10.62
-9.15
-6.27
-2.25
2.38
7.01
11.08
14.25
16.36
17.44
17.68
17.35
16.82
16.50
16.71
17.67
19.45
22.01
25.27
29.14
33.40
37.66
41.32
43.72
44.36
43.14
40.39
36.76
32.87
29.18
25.75
22.40
18.76
14.41
8.93
2.00
-6.47
-16.10
-25.89
-34.42
-40.21
-42.35
-40.95
-37.10
-32.50
-28.76
-26.73
-26.34
-26.73
-26.87
-26.05
-24.12
-21.39
-18.33
-15.18
-11.88
-8.19
-4.03
0.38
4.43
7.44
8.92
8.83
7.49
5.43
3.06
0.61
-1.91
-4.46
-6.88
-8.91
-10.25
-10.75
-10.49
-9.73
-8.72
-7.61
-6.32
-4.65
-2.44
0.37
3.60
6.91
9.89
12.23
13.76
14.51
14.75
14.78
14.90
15.28
15.85
16.45
16.85
16.91
16.68
16.37
16.30
16.73
17.77
19.34
21.17
22.92
24.26
24.96
24.96
24.31
23.17
21.70
20.00
18.13
16.10
13.97
11.88
10.00
8.49
7.47
7.00
7.04
7.54
8.37
9.39
10.39
11.17
11.52
11.33
10.65
9.62
8.49
7.48
6.67
5.96
5.14
3.91
2.08
-0.44
-3.60
-7.31
-11.51
-16.26
-21.69
-27.89
-34.80
-42.11
-49.26
-55.52
-60.17
-62.69
-62.84
-60.80
-57.05
-52.15
-46.61
-40.66
-34.33
-27.55
-20.37
-13.10
-6.23
-0.28
4.47
8.10
10.97
13.54
16.08
18.57
20.78
22.37
23.18
23.18
22.46
21.02
18.78
15.61
11.51
6.72
1.77
-2.69
-6.15
-8.36
-9.41
-9.56
-9.02
-7.89
-6.07
-3.49
-0.18
3.63
7.58
11.20
14.17
16.27
17.52
18.06
18.09
17.76
17.18
16.42
15.49
14.41
13.12
11.56
9.73
7.73
5.87
4.51
3.98
4.39
5.59
7.28
9.15
11.09
13.18
15.49
18.00
20.49
22.59
24.02
24.76
25.05
25.29
25.87
26.97
28.50
30.13
31.39
31.84
31.18
29.33
26.39
22.61
18.19
13.28
8.00
2.42
-3.31
-9.03
-14.56
-19.82
-24.81
-29.57
-34.16
-38.60
-42.87
-46.85
-50.38
-53.28
-55.35
-56.52
-56.84
-56.49
-55.71
-54.68
-53.49
-52.11
-50.45
-48.49
-46.26
-43.80
-41.09
-37.99
-34.36
-30.12
-25.38
-20.42
-15.58
-11.12
-7.16
-3.64
-0.45
2.46
4.98
6.89
7.98
8.18
7.62
6.61
5.49
4.48
3.58
2.59
1.26
-0.55
-2.68
-4.71
-6.11
-6.49
-5.74
-4.05
-1.84
0.49
2.67
4.63
6.47
8.36
10.36
12.40
14.31
15.87
16.91
17.35
17.28
16.88
16.41
16.05
15.89
15.88
15.90
15.81
15.59
15.29
14.99
14.68
14.22
13.34
11.73
9.21
5.82
1.92
-1.89
-4.92
-6.62
-6.79
-5.61
-3.56
-1.27
0.76
2.27
3.28
3.99
4.56
5.02
5.14
4.57
2.94
0.06
-4.04
-9.09
-14.67
-20.32
-25.61
-30.27
-34.22
-37.53
-40.43
-43.15
-45.87
-48.71
-51.68
-54.78
-57.91
-60.91
-63.42
-64.96
-65.01
-63.18
-59.44
-54.08
-47.64
-40.66
-33.49
-26.22
-18.81
-11.27
-3.81
3.16
9.15
13.82
17.12
19.39
21.22
23.28
25.97
29.30
32.88
36.14
38.68
40.46
41.83
43.33
45.32
47.82
50.51
53.01
55.04
56.56
57.59
57.98
57.29
54.92
50.50
44.20
36.82
29.62
23.86
20.43
19.58
21.03
24.05
27.80
31.45
34.32
35.96
36.16
34.91
32.34
28.67
24.17
19.20
14.23
9.80
6.35
4.08
2.82
2.11
1.38
0.20
-1.52
-3.57
-5.58
-7.23
-8.40
-9.21
-9.88
-10.58
-11.32
-11.95
-12.27
-12.11
-11.46
-10.41
-9.12
-7.68
-6.08
-4.25
-2.05
0.54
3.43
6.37
8.99
10.93
11.89
11.76
10.62
8.68
6.27
3.73
1.40
-0.44
-1.67
-2.35
-2.77
-3.27
-4.13
-5.44
-7.09
-8.91
-10.83
-13.00
-15.63
-18.80
-22.32
-25.60
-27.91
-28.59
-27.38
-24.53
-20.67
-16.63
-13.06
-10.29
-8.24
-6.64
-5.22
-3.88
-2.78
-2.17
-2.18
-2.76
-3.61
-4.42
-5.03
-5.49
-6.02
-6.80
-7.78
-8.66
-8.99
-8.38
-6.71
-4.14
-1.05
2.16
5.24
8.18
11.07
14.03
17.03
19.90
22.47
24.60
26.36
27.92
29.49
31.18
32.98
34.70
36.11
37.00
37.25
36.82
35.69
33.82
31.19
27.80
23.83
19.64
15.73
12.54
10.33
9.15
8.83
9.14
9.88
10.93
12.16
13.40
14.38
14.85
14.66
13.84
12.57
11.09
9.59
8.12
6.67
5.16
3.55
1.79
-0.18
-2.47
-5.25
-8.66
-12.72
-17.24
-21.84
-26.04
-29.43
-31.80
-33.17
-33.75
-33.82
-33.61
-33.29
-32.97
-32.73
-32.63
-32.77
-33.24
-34.09
-35.29
-36.78
-38.42
-40.10
-41.73
-43.27
-44.65
-45.80
-46.64
-47.09
-47.14
-46.89
-46.45
-45.96
-45.47
-44.97
-44.44
-43.86
-43.21
-42.41
-41.31
-39.67
-37.34
-34.35
-30.99
-27.72
-25.06
-23.37
-22.77
-23.08
-23.94
-24.93
-25.71
-26.01
-25.73
-24.89
-23.62
-22.14
-20.64
-19.21
-17.74
-15.99
-13.65
-10.50
-6.55
-2.01
2.75
7.37
11.53
14.99
17.59
19.24
19.90
19.71
18.93
17.92
17.06
16.56
16.42
16.48
16.50
16.28
15.77
15.02
14.13
13.11
11.86
10.28
8.28
5.94
3.42
0.87
-1.71
-4.47
-7.66
-11.43
-15.76
-20.40
-24.98
-29.10
-32.45
-34.78
-35.94
-35.80
-34.32
-31.56
-27.73
-23.14
-18.13
-12.97
-7.83
-2.76
2.21
7.09
11.85
16.53
21.23
26.07
31.17
36.44
41.48
45.66
48.19
48.43
46.24
42.05
36.89
32.00
28.47
26.83
26.98
28.23
29.69
30.59
30.57
29.73
28.58
27.80
28.11
30.11
34.07
39.81
46.60
53.26
58.45
61.18
61.11
58.77
55.28
51.90
49.51
48.27
47.68
46.86
44.95
41.44
36.19
29.55
22.38
15.44
9.21
3.89
-0.58
-4.46
-8.05
-11.72
-15.73
-19.99
-24.45
-29.17
-34.02
-38.69
-42.70
-45.52
-47.11
-47.62
-46.84
-44.91
-42.27
-39.20
-35.88
-32.55
-29.57
-28.26
-29.49
-32.09
-35.15
-38.42
-41.55
-44.24
-46.40
-48.08
-51.23
-57.21
-63.74
-69.91
-76.62
-84.41
-93.31
-102.74
-111.64
-121.53
-132.90
-140.79
-142.91
-140.60
-135.49
-129.27
-123.42
-118.96
-120.08
-128.96
-139.88
-149.57
-158.59
-167.13
-175.00
-181.66
-163.09
-109.10
-56.70
-19.04
11.21
35.01
52.84
65.36
73.64
78.95
78.83
72.14
65.16
61.44
60.66
62.59
66.86
72.79
79.56
83.64
82.97
81.66
81.87
82.71
83.47
83.88
84.35
86.01
88.29
90.57
94.53
99.27
101.60
99.32
92.18
81.78
70.90
61.29
53.91
50.10
49.39
49.83
49.49
46.76
40.60
30.85
18.10
4.15
-7.96
-15.72
-18.09
-15.59
-10.00
-3.54
1.98
5.75
7.88
8.96
9.55
9.88
9.92
9.59
9.00
8.46
8.29
8.63
9.29
9.79
9.59
8.32
5.98
2.96
-0.12
-2.67
-4.40
-5.44
-6.32
-7.71
-10.08
-13.42
-17.21
-20.53
-22.44
-22.30
-19.98
-15.87
-10.70
-5.27
-0.27
3.95
7.39
10.28
12.99
15.78
18.64
21.29
23.28
24.22
23.95
22.64
20.62
18.29
15.88
13.45
10.97
8.37
5.64
2.81
-0.19
-3.42
-7.00
-10.97
-15.15
-19.09
-22.11
-23.54
-22.91
-20.12
-15.54
-9.82
-3.74
2.01
6.97
10.84
13.53
15.06
15.55
15.21
14.26
12.93
11.40
9.75
7.99
6.03
3.80
1.27
-1.44
-4.11
-6.47
-8.36
-9.85
-11.19
-12.82
-15.13
-18.25
-21.94
-25.60
-28.41
-29.59
-28.63
-25.36
-19.98
-12.97
-5.05
2.92
10.04
15.54
18.99
20.44
20.38
19.56
18.71
18.24
18.17
18.21
18.00
17.35
16.29
15.03
13.78
12.68
11.69
10.70
9.58
8.26
6.70
4.97
3.15
1.30
-0.50
-2.17
-3.56
-4.41
-4.35
-3.09
-0.47
3.34
7.91
12.64
16.95
20.42
22.88
24.32
24.82
24.53
23.59
22.21
20.64
19.09
17.67
16.39
15.20
14.01
12.82
11.63
10.42
9.12
7.66
5.96
4.06
2.02
-0.09
-2.30
-4.64
-7.08
-9.33
-10.92
-11.26
-9.93
-6.88
-2.47
2.66
7.82
12.46
16.30
19.25
21.34
22.56
22.91
22.42
21.26
19.74
18.22
16.99
16.17
15.63
15.12
14.39
13.36
12.08
10.72
9.44
8.26
7.08
5.72
3.96
1.71
-0.97
-3.81
-6.38
-8.14
-8.62
-7.55
-4.95
-1.12
3.41
8.06
12.34
15.93
18.66
20.48
21.41
21.53
20.99
20.04
18.93
17.89
17.07
16.48
16.03
15.62
15.15
14.58
13.92
13.18
12.38
11.53
10.63
9.64
8.49
7.08
5.24
2.87
-0.05
-3.34
-6.59
-9.24
-10.72
-10.62
-8.82
-5.52
-1.23
3.40
7.71
11.27
13.97
15.97
17.58
19.04
20.35
21.23
21.30
20.34
18.48
16.19
14.13
12.77
12.22
12.15
12.00
11.29
9.80
7.65
5.15
2.69
0.54
-1.15
-2.40
-3.33
-4.15
-5.18
-6.75
-9.11
-12.25
-15.75
-18.76
-20.22
-19.21
-15.40
-9.22
-1.86
5.18
10.59
13.66
14.48
13.71
12.27
10.96
10.24
10.24
10.88
11.96
13.30
14.73
16.10
17.26
18.03
18.25
17.82
16.80
15.43
14.06
13.05
12.57
12.50
12.50
12.14
11.13
9.44
7.32
5.14
3.22
1.71
0.57
-0.28
-0.86
-1.09
-0.75
0.38
2.39
5.18
8.47
11.79
14.66
16.62
17.36
16.75
14.93
12.24
9.19
6.33
4.08
2.67
2.09
2.15
2.60
3.26
3.96
4.59
5.01
5.03
4.51
3.38
1.68
-0.39
-2.62
-4.76
-6.66
-8.24
-9.46
-10.28
-10.67
-10.55
-9.88
-8.68
-7.06
-5.21
-3.31
-1.56
-0.02
1.37
2.67
3.90
4.89
5.38
5.12
4.03
2.31
0.37
-1.38
-2.68
-3.52
-4.09
-4.63
-5.29
-6.09
-7.00
-8.03
-9.18
-10.45
-11.75
-12.93
-13.89
-14.65
-15.41
-16.45
-17.87
-19.53
-21.07
-22.03
-22.13
-21.33
-19.81
-17.78
-15.40
-12.73
-9.80
-6.76
-3.87
-1.50
0.08
0.82
0.87
0.54
0.18
-0.02
0.01
0.19
0.40
0.49
0.36
-0.01
-0.60
-1.30
-2.00
-2.55
-2.88
-3.00
-3.04
-3.20
-3.73
-4.80
-6.42
-8.40
-10.34
-11.79
-12.40
-12.00
-10.69
-8.75
-6.52
-4.30
-2.23
-0.35
1.37
2.91
4.22
5.22
5.85
6.14
6.14
5.94
5.56
4.98
4.17
3.12
1.87
0.49
-0.92
-2.31
-3.62
-4.81
-5.82
-6.64
-7.32
-7.99
-8.81
-9.91
-11.33
-12.95
-14.59
-16.02
-17.05
-17.53
-17.41
-16.69
-15.39
-13.60
-11.42
-8.96
-6.33
-3.64
-0.99
1.49
3.64
5.33
6.44
6.92
6.84
6.34
5.63
4.94
4.41
4.07
3.83
3.54
3.07
2.36
1.45
0.42
-0.64
-1.69
-2.77
-3.93
-5.24
-6.72
-8.32
-9.95
-11.46
-12.68
-13.35
-13.29
-12.36
-10.62
-8.29
-5.69
-3.13
-0.86
1.05
2.61
3.88
4.92
5.74
6.29
6.53
6.46
6.11
5.56
4.87
4.13
3.38
2.67
2.02
1.45
0.99
0.61
0.27
-0.12
-0.67
-1.47
-2.54
-3.89
-5.44
-7.10
-8.74
-10.20
-11.30
-11.88
-11.83
-11.13
-9.88
-8.19
-6.19
-3.96
-1.57
0.90
3.32
5.49
7.22
8.37
8.94
9.01
8.74
8.27
7.72
7.12
6.48
5.79
5.04
4.27
3.52
2.85
2.27
1.74
1.17
0.44
-0.49
-1.61
-2.86
-4.22
-5.69
-7.32
-9.12
-10.92
-12.45
-13.40
-13.57
-13.00
-11.92
-10.59
-9.16
-7.64
-5.92
-4.01
-2.06
-0.31
1.01
1.86
2.38
2.77
3.16
3.51
3.65
3.40
2.73
1.77
0.76
-0.05
-0.57
-0.82
-0.94
-1.09
-1.33
-1.69
-2.11
-2.58
-3.12
-3.82
-4.73
-5.80
-6.86
-7.63
-7.82
-7.24
-5.91
-3.99
-1.77
0.53
2.75
4.83
6.76
8.43
9.70
10.44
10.53
10.02
9.07
7.94
6.88
6.04
5.42
4.93
4.42
3.77
2.95
2.01
1.07
0.20
-0.60
-1.36
-2.15
-3.07
-4.18
-5.59
-7.36
-9.46
-11.71
-13.76
-15.16
-15.50
-14.61
-12.60
-9.83
-6.72
-3.68
-0.92
1.47
3.49
5.14
6.42
7.29
7.73
7.76
7.49
7.03
6.50
5.98
5.42
4.73
3.82
2.69
1.46
0.36
-0.42
-0.83
-1.00
-1.21
-1.73
-2.68
-4.05
-5.69
-7.43
-9.11
-10.58
-11.66
-12.12
-11.77
-10.56
-8.63
-6.29
-3.87
-1.63
0.38
2.22
3.96
5.57
6.88
7.69
7.89
7.55
6.89
6.17
5.54
5.00
4.41
3.68
2.82
1.97
1.28
0.80
0.41
-0.08
-0.83
-1.89
-3.16
-4.50
-5.83
-7.18
-8.64
-10.19
-11.74
-13.03
-13.79
-13.88
-13.27
-12.12
-10.62
-8.90
-7.00
-4.89
-2.53
0.01
2.54
4.83
6.62
7.77
8.29
8.30
7.98
7.55
7.15
6.88
6.71
6.60
6.44
6.11
5.53
4.69
3.62
2.43
1.17
-0.17
-1.62
-3.22
-4.95
-6.65
-8.10
-9.07
-9.43
-9.18
-8.40
-7.20
-5.67
-3.87
-1.89
0.18
2.17
3.95
5.43
6.59
7.45
8.03
8.27
8.17
7.73
7.06
6.31
5.61
4.99
4.43
3.82
3.12
2.36
1.63
0.98
0.41
-0.20
-1.01
-2.14
-3.61
-5.38
-7.33
-9.30
-11.12
-12.58
-13.47
-13.60
-12.92
-11.46
-9.41
-6.96
-4.32
-1.62
0.99
3.44
5.62
7.42
8.75
9.55
9.80
9.57
8.99
8.24
7.46
6.74
6.09
5.46
4.81
4.11
3.35
2.56
1.74
0.88
0.02
-0.82
-1.63
-2.45
-3.40
-4.64
-6.27
-8.25
-10.42
-12.51
-14.22
-15.28
-15.56
-15.01
-13.71
-11.81
-9.54
-7.13
-4.80
-2.73
-0.99
0.41
1.52
2.39
3.05
3.49
3.69
3.65
3.42
3.10
2.82
2.64
2.60
2.66
2.76
2.87
2.93
2.94
2.88
2.71
2.41
1.92
1.21
0.23
-1.00
-2.43
-3.88
-5.11
-5.89
-5.97
-5.25
-3.78
-1.73
0.66
3.13
5.47
7.56
9.31
10.68
11.63
12.14
12.22
11.91
11.25
10.34
9.25
8.07
6.87
5.70
4.62
3.60
2.62
1.62
0.55
-0.57
-1.66
-2.64
-3.48
-4.21
-4.95
-5.86
-7.07
-8.63
-10.51
-12.58
-14.63
-16.36
-17.48
-17.72
-16.97
-15.31
-13.00
-10.40
-7.85
-5.56
-3.57
-1.80
-0.15
1.40
2.72
3.68
4.18
4.25
4.08
3.85
3.70
3.60
3.45
3.14
2.63
2.03
1.46
0.98
0.49
-0.15
-1.10
-2.36
-3.82
-5.32
-6.77
-8.19
-9.66
-11.25
-12.91
-14.46
-15.67
-16.38
-16.49
-16.01
-14.97
-13.40
-11.35
-8.92
-6.26
-3.59
-1.09
1.08
2.84
4.18
5.10
5.64
5.88
6.00
6.20
6.70
7.57
8.74
9.98
10.99
11.54
11.52
11.02
10.19
9.19
8.11
6.93
5.57
3.99
2.14
0.11
-2.04
-4.16
-6.06
-7.52
-8.28
-8.19
-7.17
-5.34
-2.94
-0.28
2.37
4.79
6.89
8.61
9.88
10.61
10.73
10.21
9.12
7.64
6.04
4.61
3.55
2.91
2.57
2.28
1.80
0.98
-0.13
-1.38
-2.57
-3.54
-4.33
-5.06
-5.91
-7.05
-8.53
-10.27
-12.07
-13.68
-14.80
-15.16
-14.56
-12.94
-10.40
-7.17
-3.64
-0.14
3.02
5.68
7.81
9.50
10.86
11.93
12.70
13.05
12.90
12.22
11.09
9.69
8.20
6.77
5.47
4.31
3.27
2.32
1.45
0.62
-0.26
-1.27
-2.48
-3.92
-5.55
-7.33
-9.27
-11.45
-13.92
-16.60
-19.18
-21.15
-21.97
-21.28
-19.11
-15.82
-12.02
-8.29
-5.03
-2.37
-0.27
1.46
2.94
4.23
5.29
5.98
6.14
5.62
4.44
2.77
0.93
-0.66
-1.71
-2.12
-1.96
-1.45
-0.75
0.09
1.14
2.47
4.12
5.99
7.89
9.55
10.74
11.35
11.37
10.92
10.20
9.43
8.83
8.55
8.66
9.14
9.87
10.73
11.60
12.48
13.39
14.32
15.16
15.71
15.75
15.14
13.97
12.50
11.08
9.98
9.25
8.81
8.47
8.09
7.65
7.26
7.04
7.09
7.37
7.75
8.00
7.91
7.35
6.27
4.72
2.77
0.56
-1.75
-3.95
-5.75
-6.86
-7.02
-6.16
-4.40
-2.08
0.40
2.73
4.75
6.51
8.17
9.86
11.58
13.21
14.55
15.46
15.97
16.20
16.31
16.35
16.22
15.71
14.62
12.89
10.68
8.29
6.08
4.25
2.81
1.56
0.27
-1.26
-3.02
-4.95
-6.95
-9.02
-11.19
-13.44
-15.57
-17.22
-17.99
-17.58
-15.99
-13.49
-10.48
-7.39
-4.53
-2.08
-0.13
1.26
2.08
2.38
2.28
1.91
1.40
0.79
0.08
-0.70
-1.55
-2.39
-3.12
-3.64
-3.87
-3.80
-3.48
-3.03
-2.65
-2.56
-2.99
-4.10
-5.90
-8.30
-10.98
-13.57
-15.63
-16.81
-16.92
-16.02
-14.33
-12.24
-10.12
-8.28
-6.84
-5.82
-5.14
-4.75
-4.67
-4.90
-5.47
-6.33
-7.36
-8.41
-9.35
-10.11
-10.69
-11.14
-11.52
-11.89
-12.25
-12.56
-12.79
-12.88
-12.82
-12.71
-12.67
-12.84
-13.28
-13.99
-14.85
-15.67
-16.26
-16.43
-16.06
-15.07
-13.42
-11.13
-8.25
-4.85
-1.04
3.04
7.15
11.02
14.31
16.73
18.12
18.54
18.17
17.30
16.20
15.08
14.04
13.11
12.22
11.26
10.06
8.54
6.69
4.66
2.65
0.83
-0.75
-2.23
-3.84
-5.80
-8.16
-10.75
-13.21
-15.11
-16.07
-15.90
-14.61
-12.35
-9.36
-5.94
-2.42
0.91
3.74
5.91
7.39
8.29
8.82
9.17
9.45
9.59
9.46
8.96
8.05
6.82
5.40
3.95
2.57
1.32
0.23
-0.68
-1.40
-2.04
-2.76
-3.82
-5.49
-7.86
-10.80
-13.91
-16.62
-18.36
-18.74
-17.63
-15.19
-11.77
-7.84
-3.81
-0.03
3.32
6.13
8.43
10.25
11.63
12.58
13.07
13.09
12.64
11.85
10.87
9.90
9.05
8.29
7.50
6.53
5.29
3.83
2.27
0.75
-0.64
-1.95
-3.27
-4.69
-6.26
-8.04
-10.06
-12.40
-15.05
-17.82
-20.30
-21.90
-22.02
-20.34
-16.92
-12.21
-6.92
-1.74
2.80
6.46
9.20
11.04
12.03
12.13
11.31
9.67
7.40
4.89
2.53
0.65
-0.66
-1.48
-2.05
-2.65
-3.47
-4.57
-5.85
-7.14
-8.26
-9.09
-9.66
-10.10
-10.61
-11.38
-12.49
-13.82
-15.04
-15.68
-15.31
-13.70
-10.91
-7.25
-3.18
0.86
4.57
7.85
10.68
13.05
14.86
15.95
16.17
15.51
14.10
12.31
10.51
9.01
7.93
7.19
6.55
5.69
4.44
2.75
0.81
-1.09
-2.70
-3.91
-4.86
-5.80
-7.08
-8.87
-11.17
-13.69
-15.99
-17.54
-17.81
-16.44
-13.33
-8.65
-2.91
3.20
8.94
13.70
17.17
19.35
20.42
20.70
20.40
19.67
18.59
17.24
15.80
14.47
13.45
12.77
12.30
11.80
11.01
9.81
8.27
6.63
5.10
3.76
2.48
1.01
-0.91
-3.40
-6.36
-9.57
-12.68
-15.38
-17.37
-18.46
-18.51
-17.51
-15.48
-12.59
-9.05
-5.16
-1.17
2.67
6.16
9.13
11.42
12.89
13.52
13.38
12.70
11.75
10.82
10.03
9.31
8.43
7.10
5.15
2.62
-0.27
-3.20
-5.82
-7.95
-9.53
-10.66
-11.53
-12.32
-13.17
-14.09
-15.02
-15.85
-16.47
-16.75
-16.61
-15.95
-14.69
-12.85
-10.60
-8.16
-5.74
-3.43
-1.12
1.44
4.43
7.84
11.36
14.55
17.00
18.50
19.13
19.18
18.95
18.64
18.29
17.83
17.16
16.25
15.07
13.63
11.87
9.73
7.15
4.15
0.85
-2.61
-6.10
-9.58
-13.10
-16.71
-20.29
-23.54
-25.92
-26.82
-25.78
-22.62
-17.53
-11.03
-3.87
3.17
9.37
14.19
17.35
18.82
18.83
17.81
16.23
14.53
12.97
11.74
10.82
10.17
9.66
9.17
8.61
7.91
7.05
6.03
4.86
3.56
2.11
0.54
-1.15
-2.99
-5.04
-7.39
-10.05
-12.85
-15.42
-17.22
-17.76
-16.77
-14.34
-10.89
-6.93
-2.95
0.71
3.88
6.50
8.57
10.08
11.06
11.55
11.63
11.34
10.73
9.88
8.87
7.82
6.82
5.94
5.13
4.33
3.50
2.65
1.87
1.21
0.68
0.20
-0.37
-1.16
-2.23
-3.61
-5.26
-7.11
-8.97
-10.58
-11.61
-11.81
-11.03
-9.29
-6.82
-3.88
-0.76
2.33
5.29
8.02
10.41
12.33
13.61
14.14
13.89
13.01
11.74
10.35
9.06
7.92
6.87
5.76
4.50
3.08
1.60
0.15
-1.18
-2.39
-3.54
-4.69
-5.94
-7.40
-9.20
-11.44
-14.09
-16.90
-19.40
-21.08
-21.50
-20.53
-18.36
-15.36
-11.95
-8.41
-4.84
-1.27
2.27
5.60
8.46
10.58
11.83
12.26
12.05
11.46
10.69
9.83
8.92
7.95
6.96
6.03
5.22
4.54
3.94
3.33
2.58
1.65
0.54
-0.74
-2.18
-3.84
-5.80
-8.12
-10.79
-13.63
-16.28
-18.28
-19.18
-18.71
-16.86
-13.90
-10.27
-6.48
-2.89
0.29
3.02
5.32
7.26
8.84
10.08
10.96
11.50
11.72
11.66
11.38
10.95
10.43
9.84
9.15
8.37
7.52
6.64
5.79
4.99
4.16
3.16
1.88
0.27
-1.63
-3.63
-5.61
-7.50
-9.39
-11.38
-13.56
-15.81
-17.78
-19.02
-19.08
-17.71
-14.94
-11.12
-6.79
-2.49
1.34
4.47
6.86
8.61
9.87
10.76
11.40
11.83
12.09
12.19
12.10
11.80
11.29
10.60
9.86
9.25
8.95
9.06
9.47
9.91
9.99
9.39
7.98
5.92
3.54
1.19
-0.95
-2.85
-4.63
-6.41
-8.20
-9.83
-11.00
-11.39
-10.78
-9.10
-6.56
-3.55
-0.54
2.08
4.10
5.53
6.48
7.07
7.28
7.02
6.21
4.88
3.27
1.74
0.60
-0.05
-0.31
-0.41
-0.60
-1.01
-1.63
-2.37
-3.13
-3.86
-4.51
-5.10
-5.63
-6.15
-6.72
-7.45
-8.45
-9.74
-11.22
-12.58
-13.43
-13.35
-12.11
-9.74
-6.62
-3.33
-0.46
1.62
2.91
3.73
4.54
5.69
7.18
8.71
9.79
10.01
9.21
7.59
5.55
3.55
1.91
0.74
0.02
-0.36
-0.44
-0.26
0.14
0.61
0.92
0.78
0.01
-1.42
-3.36
-5.58
-7.90
-10.23
-12.54
-14.79
-16.79
-18.24
-18.74
-18.00
-15.89
-12.55
-8.31
-3.60
1.16
5.54
9.17
11.77
13.18
13.48
12.98
12.17
11.55
11.51
12.20
13.54
15.31
17.22
19.00
20.44
21.35
21.62
21.14
19.89
17.81
14.92
11.31
7.15
2.80
-1.36
-4.96
-7.81
-9.96
-11.62
-13.05
-14.37
-15.49
-16.17
-16.18
-15.40
-13.90
-11.92
-9.70
-7.45
-5.27
-3.14
-1.02
1.06
3.02
4.67
5.89
6.59
6.83
6.78
6.64
6.61
6.77
7.05
7.28
7.27
6.90
6.15
5.07
3.78
2.34
0.80
-0.77
-2.33
-3.84
-5.30
-6.80
-8.51
-10.55
-12.93
-15.46
-17.81
-19.61
-20.53
-20.39
-19.14
-16.90
-13.87
-10.34
-6.68
-3.22
-0.21
2.27
4.28
5.93
7.33
8.48
9.31
9.75
9.78
9.50
9.05
8.57
8.16
7.81
7.49
7.15
6.77
6.39
6.04
5.70
5.29
4.71
3.88
2.83
1.64
0.41
-0.79
-1.99
-3.28
-4.73
-6.32
-7.89
-9.22
-9.99
-9.98
-9.04
-7.20
-4.59
-1.49
1.79
4.92
7.65
9.88
11.62
12.98
14.05
14.86
15.33
15.36
14.86
13.89
12.68
11.53
10.71
10.35
10.37
10.57
10.74
10.73
10.49
10.05
9.37
8.44
7.17
5.58
3.68
1.58
-0.62
-2.87
-5.14
-7.44
-9.74
-11.93
-13.81
-15.10
-15.51
-14.86
-13.14
-10.55
-7.47
-4.34
-1.54
0.73
2.36
3.38
3.83
3.75
3.24
2.46
1.58
0.78
0.16
-0.27
-0.59
-0.89
-1.28
-1.81
-2.53
-3.44
-4.46
-5.47
-6.29
-6.83
-7.09
-7.25
-7.56
-8.28
-9.55
-11.31
-13.31
-15.19
-16.56
-17.09
-16.64
-15.22
-13.03
-10.34
-7.44
-4.55
-1.78
0.77
3.04
4.93
6.32
7.06
7.05
6.30
4.91
3.17
1.54
0.48
0.29
1.03
2.40
3.89
4.99
5.38
5.00
4.05
2.84
1.60
0.42
-0.75
-2.08
-3.73
-5.85
-8.42
-11.28
-14.09
-16.45
-17.93
-18.26
-17.38
-15.44
-12.73
-9.56
-6.24
-2.98
0.02
2.58
4.48
5.52
5.63
4.87
3.51
2.00
0.77
0.18
0.32
0.98
1.78
2.30
2.25
1.64
0.67
-0.29
-0.89
-0.98
-0.66
-0.12
0.36
0.68
0.87
1.15
1.76
2.86
4.46
6.38
8.40
10.26
11.81
13.05
14.04
14.89
15.67
16.41
17.05
17.54
17.85
18.00
18.08
18.21
18.50
18.98
19.58
20.07
20.17
19.57
18.12
15.91
13.21
10.43
7.90
5.76
3.97
2.29
0.52
-1.48
-3.71
-6.11
-8.59
-11.08
-13.50
-15.70
-17.48
-18.64
-19.00
-18.46
-17.00
-14.63
-11.43
-7.56
-3.32
0.93
4.73
7.69
9.52
10.16
9.73
8.50
6.82
5.03
3.33
1.81
0.41
-0.95
-2.32
-3.67
-4.91
-5.91
-6.57
-6.86
-6.82
-6.57
-6.27
-6.14
-6.44
-7.39
-9.09
-11.43
-14.06
-16.47
-18.11
-18.57
-17.69
-15.60
-12.69
-9.49
-6.54
-4.23
-2.74
-2.01
-1.86
-2.08
-2.56
-3.35
-4.56
-6.29
-8.50
-11.02
-13.52
-15.68
-17.26
-18.18
-18.48
-18.31
-17.90
-17.50
-17.35
-17.69
-18.62
-20.11
-21.87
-23.46
-24.38
-24.24
-22.93
-20.60
-17.59
-14.29
-10.95
-7.62
-4.23
-0.65
3.20
7.36
11.81
16.50
21.28
25.84
29.76
32.55
33.90
33.89
32.98
31.94
31.49
32.02
33.42
35.07
36.18
36.10
34.55
31.74
28.20
24.61
21.51
19.18
17.63
16.63
15.82
14.81
13.31
11.18
8.51
5.63
3.01
1.12
0.31
0.65
1.96
3.87
5.91
7.73
9.17
10.21
10.95
11.49
11.80
11.75
11.25
10.25
8.84
7.28
5.82
4.71
4.04
3.79
3.82
4.00
4.17
4.21
3.97
3.31
2.09
0.20
-2.43
-5.72
-9.51
-13.54
-17.45
-20.87
-23.44
-24.86
-24.95
-23.75
-21.54
-18.80
-16.11
-13.88
-12.29
-11.26
-10.52
-9.82
-9.02
-8.20
-7.47
-6.96
-6.64
-6.45
-6.28
-6.13
-6.05
-6.14
-6.37
-6.61
-6.61
-6.13
-5.05
-3.44
-1.53
0.36
2.01
3.32
4.34
5.14
5.75
6.11
6.06
5.51
4.48
3.20
1.99
1.22
1.13
1.75
2.90
4.22
5.36
6.06
6.27
6.04
5.49
4.71
3.73
2.58
1.30
-0.03
-1.30
-2.44
-3.45
-4.37
-5.29
-6.24
-7.26
-8.38
-9.60
-10.94
-12.34
-13.67
-14.79
-15.54
-15.86
-15.78
-15.47
-15.17
-15.14
-15.53
-16.38
-17.48
-18.50
-19.00
-18.58
-17.05
-14.44
-10.98
-7.02
-2.89
1.19
5.07
8.68
11.91
14.58
16.46
17.35
17.16
16.01
14.25
12.34
10.75
9.79
9.55
9.86
10.38
10.71
10.50
9.59
7.96
5.81
3.42
1.09
-0.90
-2.42
-3.42
-3.96
-4.24
-4.52
-5.04
-5.98
-7.32
-8.80
-10.04
-10.59
-10.11
-8.48
-5.77
-2.27
1.64
5.49
8.82
11.23
12.49
12.58
11.76
10.45
9.15
8.26
7.97
8.25
8.85
9.47
9.80
9.66
8.98
7.75
6.07
4.09
2.00
-0.00
-1.74
-3.11
-4.17
-5.11
-6.22
-7.82
-10.03
-12.75
-15.63
-18.14
-19.81
-20.29
-19.54
-17.77
-15.32
-12.58
-9.86
-7.34
-5.06
-3.02
-1.20
0.37
1.60
2.38
2.64
2.33
1.54
0.42
-0.80
-1.88
-2.60
-2.87
-2.74
-2.38
-2.06
-2.00
-2.28
-2.82
-3.41
-3.76
-3.67
-3.05
-2.01
-0.84
0.04
0.15
-0.83
-2.90
-5.64
-8.31
-10.08
-10.36
-9.02
-6.40
-3.15
0.12
2.99
5.40
7.46
9.29
10.95
12.34
13.35
13.87
13.91
13.47
12.60
11.35
9.83
8.19
6.64
5.39
4.53
4.06
3.87
3.80
3.63
3.19
2.35
1.07
-0.56
-2.35
-4.09
-5.61
-6.92
-8.17
-9.56
-11.20
-12.99
-14.62
-15.68
-15.79
-14.73
-12.55
-9.47
-5.90
-2.25
1.07
3.79
5.76
7.01
7.72
8.14
8.53
9.05
9.70
10.32
10.64
10.44
9.68
8.50
7.21
6.15
5.54
5.38
5.51
5.64
5.50
4.92
3.83
2.24
0.23
-2.14
-4.75
-7.43
-9.94
-11.94
-13.12
-13.22
-12.16
-10.11
-7.47
-4.68
-2.09
0.15
2.15
4.04
5.90
7.66
9.09
9.97
10.17
9.77
8.94
7.91
6.83
5.80
4.86
4.04
3.31
2.66
2.05
1.42
0.75
-0.02
-0.90
-1.98
-3.32
-4.97
-6.92
-9.17
-11.62
-14.21
-16.78
-19.03
-20.56
-20.96
-19.95
-17.59
-14.24
-10.46
-6.71
-3.25
-0.12
2.74
5.28
7.37
8.81
9.51
9.60
9.37
9.11
8.97
8.93
8.87
8.66
8.21
7.49
6.48
5.23
3.87
2.61
1.69
1.29
1.38
1.68
1.74
1.10
-0.54
-3.19
-6.58
-10.18
-13.39
-15.61
-16.43
-15.64
-13.34
-9.83
-5.56
-1.03
3.31
7.08
10.06
12.12
13.27
13.57
13.13
12.11
10.65
8.98
7.33
5.96
5.09
4.81
5.05
5.58
6.09
6.30
6.06
5.35
4.28
2.98
1.57
0.09
-1.46
-3.08
-4.83
-6.74
-8.88
-11.23
-13.71
-16.09
-18.00
-19.03
-18.80
-17.13
-14.11
-10.12
-5.72
-1.50
2.12
4.99
7.20
8.98
10.49
11.81
12.83
13.52
13.90
14.17
14.56
15.19
16.00
16.72
17.03
16.70
15.67
14.11
12.27
10.43
8.76
7.30
6.00
4.70
3.18
1.22
-1.38
-4.71
-8.59
-12.61
-16.13
-18.45
-19.03
-17.58
-14.26
-9.53
-4.16
1.06
5.36
8.23
9.48
9.29
8.16
6.75
5.67
5.26
5.56
6.36
7.32
8.20
8.82
9.13
9.07
8.54
7.42
5.61
3.14
0.29
-2.49
-4.74
-6.16
-6.76
-6.93
-7.24
-8.24
-10.14
-12.76
-15.55
-17.86
-19.21
-19.41
-18.59
-17.00
-14.82
-12.15
-8.99
-5.34
-1.34
2.75
6.60
9.84
12.13
13.21
12.94
11.35
8.68
5.40
2.06
-0.88
-3.19
-4.92
-6.30
-7.60
-8.92
-10.25
-11.47
-12.53
-13.48
-14.41
-15.47
-16.77
-18.42
-20.46
-22.95
-25.81
-28.80
-31.46
-33.17
-33.32
-31.50
-27.62
-21.97
-15.18
-7.97
-1.03
5.15
10.32
14.37
17.33
19.23
20.17
20.32
19.95
19.42
19.02
18.91
19.05
19.29
19.55
19.90
20.53
21.68
23.38
25.43
27.38
28.73
29.05
28.17
26.14
23.18
19.63
15.87
12.33
9.49
7.72
7.19
7.76
9.01
10.43
11.59
12.30
12.63
12.81
13.03
13.37
13.78
14.17
14.45
14.56
14.40
13.81
12.60
10.61
7.90
4.78
1.79
-0.48
-1.58
-1.36
-0.02
1.98
4.07
5.69
6.40
5.96
4.36
1.82
-1.28
-4.38
-6.97
-8.67
-9.33
-9.04
-8.04
-6.60
-4.91
-3.06
-1.09
0.86
2.53
3.58
3.74
2.93
1.35
-0.61
-2.50
-3.99
-4.96
-5.49
-5.84
-6.25
-6.91
-7.83
-8.88
-9.85
-10.57
-10.97
-11.22
-11.55
-12.26
-13.48
-15.17
-17.11
-19.02
-20.55
-21.42
-21.38
-20.26
-18.02
-14.80
-10.92
-6.81
-2.88
0.57
3.40
5.59
7.23
8.39
9.13
9.46
9.34
8.75
7.75
6.47
5.13
3.93
2.97
2.20
1.49
0.70
-0.25
-1.29
-2.35
-3.38
-4.43
-5.65
-7.15
-8.95
-10.99
-13.07
-14.98
-16.46
-17.27
-17.19
-16.10
-13.96
-10.93
-7.31
-3.46
0.29
3.68
6.58
8.92
10.67
11.81
12.34
12.35
11.96
11.33
10.62
9.96
9.40
8.92
8.46
7.93
7.28
6.49
5.62
4.70
3.77
2.77
1.59
0.08
-1.83
-4.09
-6.52
-8.87
-10.90
-12.41
-13.28
-13.39
-12.61
-10.91
-8.32
-5.10
-1.65
1.61
4.33
6.38
7.77
8.62
9.00
8.94
8.47
7.64
6.57
5.42
4.30
3.22
2.08
0.75
-0.80
-2.51
-4.21
-5.73
-7.02
-8.13
-9.26
-10.59
-12.30
-14.40
-16.85
-19.44
-21.88
-23.81
-24.83
-24.61
-22.99
-20.00
-15.88
-11.03
-5.91
-0.90
3.68
7.62
10.82
13.25
14.95
16.01
16.52
16.58
16.26
15.64
14.81
13.85
12.80
11.62
10.26
8.67
6.86
4.95
3.10
1.48
0.16
-0.92
-1.91
-3.02
-4.47
-6.37
-8.72
-11.40
-14.13
-16.60
-18.47
-19.46
-19.39
-18.20
-15.91
-12.70
-8.85
-4.74
-0.77
2.74
5.64
7.95
9.80
11.28
12.38
13.01
13.07
12.58
11.73
10.79
9.97
9.40
9.04
8.74
8.36
7.76
6.88
5.72
4.33
2.77
1.17
-0.30
-1.52
-2.50
-3.38
-4.43
-5.91
-7.92
-10.31
-12.67
-14.46
-15.20
-14.68
-12.97
-10.39
-7.36
-4.24
-1.28
1.39
3.70
5.54
6.82
7.51
7.63
7.31
6.76
6.18
5.70
5.35
5.08
4.80
4.39
3.84
3.16
2.47
1.89
1.46
1.14
0.79
0.17
-0.92
-2.61
-4.87
-7.50
-10.11
-12.27
-13.58
-13.79
-12.88
-11.02
-8.53
-5.78
-3.04
-0.47
1.86
3.91
5.63
6.95
7.78
8.11
7.97
7.44
6.62
5.58
4.40
3.20
2.11
1.28
0.79
0.61
0.61
0.56
0.21
-0.62
-1.99
-3.85
-6.10
-8.64
-11.47
-14.57
-17.88
-21.19
-24.09
-26.12
-26.83
-25.93
-23.29
-18.92
-12.94
-5.69
2.27
10.08
16.78
21.49
23.82
23.96
22.58
20.53
18.53
16.93
15.73
14.76
13.83
12.85
11.78
10.64
9.36
7.93
6.36
4.77
3.30
2.08
1.10
0.21
-0.81
-2.18
-4.06
-6.42
-9.06
-11.64
-13.76
-15.03
-15.21
-14.19
-11.98
-8.76
-4.76
-0.33
4.14
8.24
11.64
14.15
15.73
16.45
16.40
15.65
14.31
12.53
10.57
8.73
7.23
6.02
4.88
3.48
1.65
-0.45
-2.39
-3.67
-3.97
-3.38
-2.37
-1.57
-1.54
-2.54
-4.48
-6.98
-9.53
-11.61
-12.81
-12.87
-11.73
-9.46
-6.33
-2.68
1.06
4.49
7.31
9.32
10.49
10.91
10.73
10.13
9.29
8.36
7.48
6.74
6.20
5.87
5.68
5.54
5.35
5.07
4.72
4.35
3.98
3.53
2.88
1.95
0.76
-0.52
-1.70
-2.64
-3.32
-3.81
-4.17
-4.33
-4.10
-3.20
-1.48
1.03
4.06
7.19
10.00
12.17
13.58
14.31
14.58
14.62
14.54
14.25
13.56
12.30
10.50
8.42
6.43
4.85
3.78
3.00
2.19
1.07
-0.46
-2.27
-4.16
-5.97
-7.67
-9.28
-10.82
-12.24
-13.42
-14.28
-14.82
-15.14
-15.39
-15.59
-15.62
-15.19
-14.01
-11.87
-8.81
-5.11
-1.13
2.71
6.13
8.92
10.94
12.13
12.46
12.01
10.95
9.58
8.19
7.06
6.30
5.92
5.83
5.90
6.02
6.08
5.97
5.57
4.77
3.51
1.76
-0.43
-3.03
-5.96
-9.12
-12.28
-15.09
-17.12
-17.93
-17.28
-15.20
-11.98
-8.08
-3.94
0.10
3.87
7.32
10.38
12.90
14.64
15.39
15.04
13.73
11.76
9.55
7.47
5.70
4.28
3.06
1.88
0.61
-0.84
-2.50
-4.33
-6.25
-8.12
-9.79
-11.15
-12.20
-13.07
-14.03
-15.33
-17.08
-19.22
-21.46
-23.37
-24.50
-24.49
-23.16
-20.56
-16.92
-12.55
-7.77
-2.80
2.16
6.89
11.08
14.33
16.23
16.60
15.55
13.54
11.24
9.29
8.12
7.80
8.16
8.84
9.50
9.85
9.67
8.81
7.18
4.87
2.12
-0.71
-3.21
-5.08
-6.19
-6.65
-6.69
-6.57
-6.48
-6.45
-6.39
-6.13
-5.51
-4.46
-3.07
-1.60
-0.36
0.44
0.89
1.41
2.64
5.15
9.17
14.46
20.35
25.97
30.58
33.70
35.21
35.23
34.01
31.82
28.98
25.88
22.92
20.48
18.81
17.90
17.50
17.16
16.35
14.58
11.62
7.44
2.32
-3.31
-8.95
-14.12
-18.45
-21.68
-23.66
-24.36
-23.89
-22.48
-20.41
-17.98
-15.46
-13.07
-11.02
-9.50
-8.70
-8.68
-9.34
-10.37
-11.35
-11.90
-11.83
-11.16
-10.12
-8.97
-7.93
-7.13
-6.61
-6.47
-6.85
-7.90
-9.72
-12.24
-15.23
-18.32
-21.18
-23.60
-25.49
-26.90
-27.82
-28.18
-27.83
-26.60
-24.42
-21.33
-17.54
-13.30
-8.88
-4.52
-0.39
3.38
6.71
9.49
11.63
13.05
13.76
13.83
13.48
12.96
12.53
12.35
12.40
12.57
12.68
12.66
12.50
12.28
12.00
11.61
10.98
10.01
8.72
7.22
5.66
4.09
2.41
0.51
-1.66
-3.92
-5.88
-7.07
-7.07
-5.72
-3.11
0.44
4.47
8.53
12.14
14.97
16.78
17.47
17.09
15.81
13.90
11.70
9.56
7.79
6.57
5.92
5.67
5.56
5.35
4.88
4.09
2.99
1.65
0.13
-1.49
-3.07
-4.51
-5.75
-6.80
-7.81
-8.95
-10.41
-12.24
-14.35
-16.50
-18.30
-19.44
-19.66
-18.88
-17.17
-14.71
-11.74
-8.52
-5.27
-2.21
0.45
2.58
4.04
4.80
4.90
4.43
3.56
2.48
1.40
0.47
-0.26
-0.82
-1.35
-2.00
-2.82
-3.82
-4.90
-5.95
-6.92
-7.79
-8.64
-9.56
-10.64
-11.96
-13.61
-15.60
-17.89
-20.27
-22.40
-23.86
-24.24
-23.29
-21.05
-17.78
-13.94
-9.99
-6.33
-3.17
-0.58
1.42
2.86
3.78
4.24
4.41
4.49
4.68
5.11
5.70
6.30
6.72
6.88
6.86
6.83
6.88
6.95
6.85
6.33
5.26
3.71
1.90
0.04
-1.78
-3.64
-5.66
-7.85
-10.07
-11.94
-13.05
-13.03
-11.76
-9.35
-6.13
-2.49
1.19
4.67
7.80
10.53
12.79
14.48
15.50
15.75
15.24
14.11
12.58
10.95
9.44
8.20
7.27
6.61
6.09
5.62
5.03
4.18
2.93
1.24
-0.82
-2.94
-4.77
-5.97
-6.41
-6.24
-5.80
-5.48
-5.49
-5.77
-5.98
-5.70
-4.60
-2.57
0.26
3.59
7.03
10.20
12.79
14.58
15.44
15.39
14.55
13.10
11.28
9.34
7.45
5.76
4.34
3.21
2.30
1.53
0.81
0.14
-0.45
-0.93
-1.34
-1.83
-2.67
-4.15
-6.42
-9.43
-12.85
-16.18
-18.85
-20.37
-20.53
-19.35
-17.11
-14.18
-10.96
-7.70
-4.55
-1.62
1.02
3.26
5.04
6.39
7.43
8.33
9.15
9.79
10.01
9.56
8.37
6.61
4.69
2.99
1.76
1.01
0.52
0.04
-0.59
-1.31
-2.00
-2.54
-2.91
-3.26
-3.78
-4.59
-5.66
-6.79
-7.69
-8.06
-7.67
-6.44
-4.39
-1.63
1.65
5.23
8.81
12.08
14.73
16.58
17.58
17.88
17.79
17.62
17.62
17.85
18.20
18.52
18.67
18.64
18.52
18.37
18.17
17.78
16.96
15.48
13.29
10.50
7.46
4.59
2.28
0.70
-0.22
-0.79
-1.42
-2.38
-3.70
-5.11
-6.19
-6.57
-6.06
-4.81
-3.14
-1.43
0.10
1.40
2.55
3.65
4.73
5.69
6.39
6.72
6.63
6.09
5.08
3.58
1.66
-0.53
-2.67
-4.44
-5.64
-6.32
-6.79
-7.44
-8.58
-10.30
-12.45
-14.77
-16.96
-18.78
-20.04
-20.56
-20.22
-18.92
-16.70
-13.62
-9.75
-5.11
0.21
5.97
11.73
16.86
20.71
22.87
23.29
22.32
20.53
18.54
16.82
15.64
15.09
15.07
15.29
15.34
14.72
13.02
10.15
6.50
2.84
0.11
-1.05
-0.59
0.80
1.96
1.81
-0.16
-3.54
-7.21
-9.87
-10.75
-9.98
-8.43
-7.19
-6.89
-7.37
-7.85
-7.50
-5.97
-3.66
-1.41
-0.02
0.24
-0.38
-1.39
-2.41
-3.47
-4.89
-6.99
-9.76
-12.76
-15.26
-16.54
-16.24
-14.55
-12.11
-9.85
-8.54
-8.62
-10.03
-12.37
-15.05
-17.60
-19.73
-21.40
-22.59
-23.19
-22.92
-21.43
-18.53
-14.33
-9.40
-4.54
-0.57
1.97
3.00
2.87
2.15
1.37
0.94
1.02
1.67
2.93
4.77
7.10
9.68
12.14
14.05
15.09
15.14
14.33
12.95
11.43
10.14
9.25
8.68
8.12
7.21
5.72
3.72
1.62
0.03
-0.49
0.37
2.56
5.73
9.37
12.99
16.12
18.32
19.20
18.46
15.99
12.03
7.10
1.89
-2.94
-6.98
-10.07
-12.30
-13.85
-14.93
-15.64
-16.04
-16.11
-15.80
-15.07
-13.90
-12.37
-10.61
-8.79
-7.03
-5.32
-3.53
-1.51
0.81
3.36
5.91
8.24
10.21
11.89
13.53
15.55
18.42
22.55
28.22
35.54
44.36
54.25
64.55
74.45
83.12
89.83
94.06
95.61
94.61
91.53
87.10
82.16
77.51
73.73
71.17
69.88
69.71
70.30
71.24
72.01
72.18
71.47
69.85
67.61
65.18
62.99
61.25
59.88
58.51
56.63
53.74
49.47
43.64
36.31
27.71
18.27
8.54
-0.89
-9.57
-17.21
-23.86
-29.80
-35.40
-40.99
-46.69
-52.38
-57.75
-62.46
-66.24
-68.94
-70.57
-71.31
-71.42
-71.28
-71.25
-71.54
-72.20
-73.05
-73.83
-74.26
-74.19
-73.53
-72.27
-70.38
-67.77
-64.43
-60.46
-56.17
-52.01
-48.48
-45.89
-44.27
-43.36
-42.70
-41.82
-40.41
-38.45
-36.17
-33.88
-31.85
-30.13
-28.54
-26.82
-24.77
-22.37
-19.83
-17.45
-15.45
-13.86
-12.42
-10.74
-8.45
-5.40
-1.65
2.56
6.99
11.53
16.25
21.33
27.02
33.43
40.53
48.16
56.13
64.19
72.02
79.06
84.55
87.71
88.13
86.06
82.48
78.82
76.30
75.56
76.38
77.97
79.37
79.91
79.29
77.50
74.60
70.55
65.37
59.26
52.68
46.24
40.46
35.59
31.56
28.04
24.61
20.95
16.77
11.92
6.32
-0.04
-7.12
-14.78
-22.78
-30.81
-38.50
-45.51
-51.60
-56.64
-60.68
-63.89
-66.49
-68.66
-70.55
-72.26
-73.90
-75.55
-77.28
-79.07
-80.76
-82.17
-83.17
-83.80
-84.21
-84.62
-85.13
-85.69
-86.15
-86.30
-86.06
-85.41
-84.44
-83.17
-81.62
-79.71
-77.38
-74.53
-71.05
-66.84
-61.87
-56.22
-50.16
-44.13
-38.60
-33.93
-30.24
-27.36
-24.92
-22.50
-19.85
-16.94
-13.97
-11.24
-8.99
-7.31
-6.10
-5.17
-4.34
-3.61
-3.13
-3.10
-3.82
-5.47
-8.09
-11.46
-15.07
-18.16
-19.91
-19.65
-17.12
-12.55
-6.56
0.06
6.57
12.37
16.94
19.86
20.78
19.69
17.05
13.73
10.87
9.37
9.60
11.26
13.62
15.83
17.28
17.77
17.45
16.59
15.38
13.91
12.14
10.08
7.81
5.50
3.31
1.30
-0.62
-2.61
-4.80
-7.17
-9.49
-11.48
-12.86
-13.54
-13.55
-13.04
-12.16
-10.98
-9.54
-7.91
-6.26
-4.81
-3.76
-3.19
-3.01
-3.03
-3.04
-2.91
-2.62
-2.16
-1.53
-0.67
0.51
2.04
3.82
5.62
7.14
8.16
8.57
8.41
7.83
7.02
6.17
5.40
4.86
4.64
4.85
5.55
6.70
8.22
9.94
11.71
13.36
14.81
16.02
17.01
17.79
18.35
18.66
18.68
18.36
17.69
16.73
15.60
14.41
13.21
11.93
10.43
8.64
6.63
4.62
2.97
1.84
1.25
0.88
0.32
-0.72
-2.33
-4.30
-6.33
-8.15
-9.57
-10.45
-10.61
-9.86
-8.11
-5.46
-2.26
0.91
3.54
5.26
6.00
5.90
5.20
4.14
2.87
1.46
-0.09
-1.82
-3.76
-5.98
-8.44
-11.03
-13.65
-16.30
-19.05
-22.08
-25.55
-29.45
-33.62
-37.76
-41.64
-45.16
-48.44
-51.61
-54.72
-57.56
-59.71
-60.69
-60.08
-57.69
-53.53
-47.69
-40.24
-31.29
-21.09
-10.18
0.59
10.22
17.89
23.34
26.92
29.47
31.92
34.93
38.68
42.93
47.20
50.92
53.51
54.33
52.84
48.65
41.79
32.85
22.80
12.78
3.63
-4.31
-11.22
-17.64
-24.11
-30.97
-38.20
-45.44
-52.08
-57.34
-60.57
-61.33
-59.62
-55.87
-50.80
-45.15
-39.47
-33.93
-28.36
-22.52
-16.33
-10.05
-4.32
0.20
3.14
4.69
5.65
7.00
9.51
13.24
17.61
21.63
24.51
26.06
26.72
27.24
28.24
29.85
31.68
33.18
33.91
33.82
33.16
32.31
31.52
30.89
30.39
30.01
29.85
30.01
30.56
31.44
32.41
33.16
33.44
33.11
32.14
30.58
28.49
25.90
22.87
19.48
15.86
12.14
8.42
4.74
1.10
-2.43
-5.74
-8.67
-11.14
-13.20
-15.09
-17.12
-19.47
-22.08
-24.55
-26.30
-26.72
-25.43
-22.36
-17.75
-12.07
-5.90
0.30
6.13
11.39
15.96
19.77
22.80
25.06
26.58
27.45
27.67
27.17
25.78
23.35
19.90
15.72
11.39
7.55
4.61
2.63
1.23
-0.16
-2.08
-4.75
-8.05
-11.58
-14.83
-17.31
-18.63
-18.56
-17.02
-14.08
-9.97
-4.97
0.51
6.07
11.30
15.84
19.44
21.93
23.30
23.61
23.02
21.75
20.07
18.16
16.20
14.26
12.37
10.48
8.56
6.56
4.47
2.29
0.02
-2.34
-4.88
-7.70
-10.84
-14.24
-17.62
-20.54
-22.40
-22.68
-21.06
-17.58
-12.62
-6.80
-0.84
4.66
9.26
12.73
15.03
16.25
16.60
16.38
15.93
15.53
15.36
15.40
15.46
15.27
14.56
13.25
11.46
9.48
7.59
5.94
4.47
2.93
1.03
-1.43
-4.49
-8.02
-11.69
-15.16
-18.00
-19.85
-20.34
-19.24
-16.50
-12.31
-7.10
-1.43
4.11
9.01
12.89
15.55
16.93
17.16
16.53
15.40
14.14
12.96
11.91
10.93
9.91
8.80
7.63
6.41
5.14
3.72
2.06
0.15
-1.91
-3.98
-5.99
-7.95
-10.00
-12.18
-14.29
-15.88
-16.37
-15.21
-12.18
-7.40
-1.35
5.36
12.07
18.20
23.33
27.12
29.47
30.40
30.13
28.97
27.21
25.10
22.86
20.72
18.88
17.48
16.53
15.88
15.34
14.70
13.84
12.69
11.15
9.08
6.32
2.80
-1.31
-5.61
-9.45
-12.22
-13.44
-12.96
-10.94
-7.81
-4.14
-0.45
2.85
5.55
7.61
9.05
9.87
10.10
9.76
8.96
7.89
6.75
5.68
4.75
