1553102751.00
64.000000
-0.00
-0.00
-0.00
-0.00
-0.00
-0.00
-0.00
-0.00
-0.00
-0.00
0.00
0.01
0.01
-0.00
-0.03
-0.05
-0.05
0.00
0.13
0.36
0.66
1.01
1.37
1.72
2.06
2.40
2.79
3.24
3.80
4.42
5.06
5.66
6.20
6.68
7.15
7.68
8.31
9.14
10.09
11.04
11.88
12.56
13.14
13.76
14.65
15.96
17.91
20.32
22.90
25.38
27.58
29.57
31.68
34.32
37.81
42.54
48.15
54.10
59.83
64.97
69.58
74.14
79.34
85.71
93.76
103.00
112.62
121.73
129.77
136.75
143.30
150.75
157.77
166.64
177.95
191.79
206.97
220.57
228.25
225.36
208.53
176.87
132.76
80.05
23.07
-34.94
-92.44
-149.16
-205.23
-260.37
-313.74
-363.87
-409.83
-450.91
-486.50
-515.74
-537.23
-549.22
-549.96
-538.37
-514.21
-478.67
-433.88
-382.45
-327.02
-269.84
-212.63
-156.66
-102.95
-52.37
-5.90
35.58
71.43
101.35
125.50
144.38
158.69
169.15
176.37
180.75
182.57
182.07
179.51
175.23
169.65
163.18
156.15
148.81
141.30
133.69
126.02
118.33
110.69
103.16
95.80
88.68
81.83
75.25
68.95
62.95
57.25
51.86
46.78
42.03
37.59
33.45
29.61
26.07
22.81
19.82
17.11
14.66
12.48
10.55
8.86
7.39
6.14
5.08
4.19
3.47
2.88
2.42
2.06
1.78
1.57
1.43
1.32
1.26
1.22
1.20
1.20
1.21
1.24
1.28
1.34
1.42
1.51
1.62
1.74
1.90
2.10
2.35
2.63
2.92
3.19
3.40
3.56
3.71
3.95
4.35
4.96
5.77
6.70
7.62
8.42
9.05
9.55
10.00
10.57
11.37
12.41
13.65
14.92
16.07
17.02
17.83
18.71
19.90
21.58
23.73
26.07
28.17
29.54
29.86
29.14
27.63
25.75
23.76
21.49
18.28
13.15
5.26
-5.54
-18.57
-32.31
-44.87
-54.62
-60.80
-63.70
-64.52
-64.69
-65.13
-65.79
-65.62
-63.25
-57.64
-48.77
-37.77
-26.63
-17.64
-13.02
-14.41
-22.14
-34.32
-46.14
-50.49
-40.19
-11.80
31.39
79.00
116.70
131.69
118.31
80.22
29.53
-17.94
-48.27
-53.78
-34.36
4.14
52.80
102.20
143.72
170.75
179.33
168.86
141.97
104.07
62.10
22.31
-11.37
-38.84
-62.37
-84.02
-103.11
-115.13
-113.55
-93.99
-57.61
-12.17
29.45
55.11
58.33
40.11
8.35
-26.23
-54.11
-69.94
-68.25
-48.79
-15.54
25.93
70.93
116.19
158.71
194.33
218.56
229.20
226.71
214.62
198.36
182.42
169.28
158.98
148.91
134.71
113.77
85.71
52.70
18.03
-15.99
-49.55
-79.05
-104.94
-131.06
-160.09
-192.57
-226.62
-259.32
-287.96
-310.86
-327.42
-338.81
-349.33
-361.40
-374.67
-386.10
-391.88
-388.85
-375.18
-350.64
-297.62
-211.44
-100.67
16.67
122.96
208.37
271.74
316.97
349.19
371.97
384.11
384.35
373.32
353.37
328.19
302.52
280.90
265.87
256.73
247.55
231.64
203.78
164.63
117.03
66.65
20.33
-17.07
-44.74
-67.25
-90.53
-119.50
-159.41
-212.33
-274.89
-338.50
-391.84
-423.56
-425.71
-395.68
-338.55
-271.69
-217.35
-193.57
-207.22
-252.70
-315.11
-376.45
-422.28
-421.58
-363.68
-263.60
-152.15
-54.45
21.14
78.12
122.28
155.93
178.27
184.65
174.08
152.05
128.37
111.54
104.62
105.43
108.75
109.53
102.10
84.67
60.56
36.20
17.24
5.68
0.19
-2.21
-4.53
-10.14
-19.87
-31.35
-40.29
-42.99
-38.77
-28.08
-12.52
5.62
23.53
39.65
54.02
67.73
81.63
95.17
107.41
117.54
124.58
127.93
128.05
126.44
125.07
125.43
127.41
126.27
121.50
112.91
100.58
84.84
66.63
46.87
29.28
12.37
-4.96
-22.94
-41.86
-62.56
-86.24
-113.71
-144.45
-175.98
-204.66
-226.03
-236.88
-236.90
-228.79
-216.39
-202.67
-188.56
-173.26
-155.68
-134.54
-113.19
-93.97
-78.07
-64.77
-51.56
-35.60
-15.21
9.08
34.95
59.25
79.83
96.07
109.38
123.03
140.84
166.08
200.23
242.18
287.61
329.56
359.21
368.38
352.75
312.77
253.63
183.49
111.22
44.48
-10.76
-50.46
-71.99
-72.76
-52.21
-12.61
40.46
99.03
154.33
198.67
226.74
236.61
232.29
220.90
211.22
211.30
226.13
255.88
295.19
334.34
362.35
373.03
364.65
340.23
305.55
266.86
229.17
195.36
166.56
128.65
75.84
10.38
-57.81
-117.74
-163.51
-195.21
-216.08
-229.32
-236.80
-236.82
-228.73
-213.57
-194.44
-175.35
-159.47
-148.23
-141.65
-138.86
-137.15
-135.46
-133.79
-133.28
-135.76
-143.00
-156.03
-174.35
-195.15
-208.66
-207.73
-187.96
-150.17
-100.61
-48.55
-2.38
33.49
59.07
77.09
88.48
91.49
82.35
58.74
22.90
-17.94
-54.29
-78.73
-88.74
-87.67
-81.34
-75.32
-72.08
-70.98
-69.79
-66.84
-62.16
-57.29
-54.34
-54.20
-56.60
-60.03
-62.64
-63.25
-61.85
-59.54
-57.97
-58.57
-61.60
-66.35
-71.25
-74.46
-74.80
-72.15
-67.42
-62.05
-58.47
-56.25
-54.52
-51.76
-46.50
-38.01
-26.87
-14.84
-4.30
2.63
5.17
3.79
0.25
-3.28
-5.12
-4.88
-3.50
-2.84
-4.84
-10.93
-21.96
-37.56
-55.67
-72.26
-82.02
-79.89
-63.51
-34.90
-0.54
30.36
49.41
52.31
40.33
19.00
-4.72
-25.41
-40.76
-51.42
-59.71
-67.93
-77.46
-88.19
-99.11
-108.78
-115.75
-119.22
-119.17
-116.53
-112.77
-109.42
-107.31
-106.82
-108.05
-111.06
-115.91
-122.44
-129.66
-135.58
-139.69
-140.67
-137.78
-131.38
-122.84
-113.91
-106.06
-99.93
-95.24
-91.14
-86.41
-80.34
-72.97
-65.01
-57.42
-51.02
-46.17
-42.68
-40.00
-37.25
-33.86
-29.67
-24.96
-20.25
-16.05
-12.65
-9.98
-7.73
-5.29
-2.20
1.72
6.29
11.11
15.74
19.94
23.80
27.76
32.45
38.36
45.61
53.85
62.42
70.62
78.06
84.92
91.86
99.80
109.49
121.15
134.31
148.15
161.75
174.59
186.74
198.82
211.75
226.57
244.34
265.86
291.15
318.83
345.75
367.44
379.36
378.66
365.42
342.66
315.15
287.34
261.74
238.54
216.43
194.00
170.89
147.96
126.56
107.61
91.16
76.47
62.66
49.27
36.39
24.61
14.43
5.99
-0.93
-6.73
-11.57
-15.28
-17.43
-17.70
-16.11
-13.17
-9.58
-5.98
-2.65
0.44
3.52
6.75
10.20
13.82
17.57
21.48
25.69
30.34
35.67
41.89
49.27
57.99
67.95
78.78
89.87
100.65
110.81
120.43
129.87
139.56
149.89
161.03
173.07
186.01
199.72
213.89
228.01
241.53
254.08
265.68
276.61
287.04
296.63
304.37
308.83
308.57
302.76
291.35
274.90
254.33
230.62
204.88
178.49
153.15
130.59
111.91
97.15
85.11
73.92
61.87
48.10
32.84
17.04
1.76
-12.41
-25.52
-37.99
-50.26
-62.43
-74.26
-85.36
-95.42
-104.39
-112.46
-119.89
-126.85
-133.23
-138.61
-142.42
-144.18
-143.70
-141.32
-137.86
-134.45
-132.12
-131.42
-132.27
-133.98
-135.68
-136.72
-137.19
-137.94
-140.28
-145.41
-153.61
-164.01
-174.66
-183.26
-188.08
-188.81
-186.75
-184.25
-183.64
-186.04
-190.77
-195.52
-197.70
-195.55
-189.34
-181.13
-174.00
-170.75
-173.00
-181.15
-194.45
-210.70
-225.39
-231.62
-221.35
-188.64
-133.02
-61.15
14.87
82.02
131.42
161.19
175.55
181.15
183.05
182.75
179.07
170.43
156.75
139.33
119.15
95.08
63.41
18.96
-43.13
-125.05
-224.88
-335.86
-447.20
-546.25
-621.66
-666.72
-681.43
-672.10
-648.60
-620.30
-592.84
-567.22
-541.38
-513.06
-482.18
-451.04
-422.87
-399.48
-380.06
-361.59
-340.67
-315.58
-287.10
-258.20
-232.12
-210.57
-192.64
-175.18
-154.19
-126.62
-91.72
-51.08
-7.82
34.99
75.69
114.68
154.20
197.69
248.81
310.30
382.64
462.70
543.32
614.20
664.53
686.33
677.24
641.02
585.72
520.38
451.62
382.19
311.50
237.43
158.16
73.16
-16.58
-108.55
-198.52
-280.70
-348.51
-396.32
-421.32
-424.54
-410.64
-386.27
-358.04
-330.51
-306.13
-285.68
-269.21
-256.48
-246.94
-239.61
-233.06
-225.97
-216.71
-204.52
-189.71
-173.55
-157.71
-143.46
-131.21
-120.60
-110.99
-100.01
-85.74
-67.36
-45.62
-22.55
-0.47
19.07
35.66
49.73
65.15
85.89
114.67
151.74
194.80
240.38
285.48
328.52
369.28
412.51
463.64
527.00
603.86
692.14
787.88
887.26
987.74
1062.32
1087.15
1046.62
942.08
792.08
622.58
455.74
304.75
174.46
64.40
-24.32
-91.02
-136.01
-161.93
-173.99
-178.53
-181.09
-185.37
-193.20
-201.99
-208.18
-208.78
-202.98
-192.49
-180.39
-169.58
-161.89
-158.02
-155.94
-153.09
-147.45
-138.40
-126.98
-115.00
-104.10
-95.24
-88.66
-83.28
-77.83
-71.34
-63.57
-55.06
-46.52
-38.54
-31.36
-25.02
-19.20
-13.62
-8.09
-2.56
2.91
8.53
14.39
20.35
25.95
30.52
33.78
36.22
39.66
44.40
49.88
53.71
52.37
42.93
24.73
0.05
-26.76
-51.13
-69.89
-81.46
-85.55
-82.36
-72.51
-57.58
-40.83
-27.11
-21.46
-27.11
-43.45
-65.79
-86.71
-98.85
-97.46
-82.15
-57.02
-28.88
-4.59
11.49
18.31
17.42
11.08
1.19
-10.98
-24.05
-35.65
-42.53
-41.60
-31.92
-15.79
1.56
14.63
20.10
18.21
12.25
6.58
4.82
8.08
14.77
21.15
23.85
21.51
15.22
8.09
3.69
5.44
15.23
34.37
60.39
88.43
112.46
127.00
128.71
117.06
95.11
70.34
52.01
45.35
49.77
60.95
74.53
88.37
99.61
109.05
116.85
121.98
121.82
114.66
100.45
80.22
58.61
37.50
17.81
-0.80
-19.65
-42.12
-70.31
-103.45
-137.54
-165.99
-184.67
-190.85
-184.33
-167.85
-148.38
-132.02
-121.20
-114.41
-107.61
-101.36
-97.93
-99.72
-107.90
-123.85
-145.23
-166.63
-182.29
-188.39
-189.57
-191.92
-199.12
-190.07
-150.83
-81.49
3.23
70.63
117.26
143.35
149.93
143.43
127.05
99.99
61.55
12.62
-32.63
-60.16
-66.79
-56.98
-38.33
-16.85
2.41
17.36
28.56
31.36
30.90
29.01
26.55
23.45
19.68
13.80
4.31
-10.42
-24.46
-34.35
-39.60
-30.42
-3.22
39.08
87.76
133.75
170.78
196.50
209.40
212.74
209.51
199.76
183.23
159.27
127.55
89.37
45.21
-4.88
-60.82
-122.05
-188.40
-255.06
-312.56
-348.72
-356.70
-338.13
-303.11
-265.43
-237.32
-226.78
-232.18
-244.85
-253.32
-252.28
-242.47
-227.89
-211.58
-182.23
-136.95
-81.39
-35.66
-3.26
16.90
30.09
41.30
56.29
79.22
108.29
138.06
161.18
172.38
167.61
148.14
121.47
99.40
93.02
106.61
137.69
178.34
219.40
251.26
267.99
268.70
257.00
238.80
219.18
202.49
191.63
188.05
189.58
191.76
189.49
179.26
160.43
134.86
106.45
79.22
55.80
35.74
16.92
-2.70
-23.56
-44.21
-62.36
-75.96
-84.06
-86.83
-85.48
-81.28
-75.16
-67.73
-59.61
-51.76
-45.32
-41.14
-39.31
-38.92
-38.36
-35.92
-30.58
-22.48
-12.89
-3.67
3.39
7.34
8.23
7.00
4.90
3.04
2.04
2.05
2.89
4.30
6.00
7.71
9.18
10.16
10.55
10.41
9.95
9.46
9.10
8.90
8.76
8.49
7.94
6.99
5.61
3.82
1.68
-0.77
-3.51
-6.58
-10.05
-13.93
-18.17
-22.60
-27.04
-31.35
-35.41
-39.06
-41.93
-43.48
-43.12
-40.53
-35.91
-29.99
-23.85
-18.41
-14.19
-11.10
-8.68
-6.39
-3.92
-1.34
1.07
3.01
4.32
5.09
5.51
5.77
5.91
5.85
5.43
4.56
3.24
1.64
-0.07
-1.76
-3.39
-5.04
-6.78
-8.60
-10.32
-11.65
-12.33
-12.28
-11.66
-10.87
-10.34
-10.42
-11.24
-12.78
-14.86
-17.22
-19.48
-21.13
-21.53
-20.12
-16.55
-11.01
-4.17
2.95
9.37
14.53
18.46
21.69
24.94
28.81
33.47
38.72
44.07
49.08
53.50
57.31
60.62
63.41
65.53
66.75
67.00
66.49
65.78
65.57
66.40
68.48
71.62
75.40
79.29
82.63
84.64
84.39
80.87
73.44
62.22
48.14
32.85
18.16
5.40
-4.93
-13.15
-19.99
-26.05
-31.49
-35.98
-39.06
-40.52
-40.68
-40.29
-40.35
-41.67
-44.62
-48.94
-53.86
-58.28
-61.21
-61.93
-60.29
-56.67
-51.88
-46.92
-42.67
-39.71
-38.10
-37.55
-37.58
-37.69
-37.54
-36.95
-35.87
-34.30
-32.31
-30.07
-27.91
-26.34
-25.81
-26.61
-28.60
-31.27
-33.93
-36.06
-37.51
-38.51
-39.60
-41.29
-43.90
-47.47
-51.78
-56.34
-60.43
-63.25
-64.00
-62.18
-57.76
-51.29
-43.76
-36.30
-29.85
-24.86
-21.30
-18.71
-16.49
-14.19
-11.64
-8.94
-6.32
-3.98
-1.92
-0.01
1.93
3.96
5.97
7.73
9.05
9.86
10.25
10.45
10.59
10.73
10.76
10.60
10.19
9.55
8.78
7.96
7.14
6.36
5.62
4.89
4.09
3.04
1.53
-0.62
-3.50
-6.94
-10.58
-13.91
-16.32
-17.23
-16.31
-13.45
-8.97
-3.51
2.08
7.00
10.73
13.16
14.59
15.43
16.09
16.74
17.35
17.75
17.84
17.66
17.37
17.15
17.08
17.08
16.95
16.53
15.72
14.61
13.39
12.26
11.30
10.44
9.45
8.08
6.14
3.66
0.85
-1.85
-4.02
-5.41
-6.03
-6.24
-6.62
-7.71
-9.87
-13.07
-16.90
-20.61
-23.32
-24.27
-22.98
-19.43
-14.11
-7.87
-1.73
3.44
7.13
9.33
10.42
11.01
11.64
12.60
13.89
15.29
16.51
17.38
17.83
17.91
17.72
17.31
16.75
16.13
15.56
15.19
15.06
15.10
15.13
14.95
14.43
13.62
12.64
11.66
10.73
9.77
8.60
7.07
5.12
2.86
0.55
-1.61
-3.45
-4.98
-6.38
-7.93
-9.87
-12.39
-15.44
-18.74
-21.78
-23.85
-24.30
-22.69
-19.01
-13.78
-7.86
-2.23
2.35
5.58
7.62
8.97
10.14
11.48
13.05
14.68
16.14
17.27
18.01
18.42
18.58
18.54
18.31
17.89
17.29
16.58
15.91
15.37
15.04
14.87
14.68
14.24
13.35
11.95
10.19
8.38
6.85
5.83
5.30
5.03
4.71
4.07
3.04
1.75
0.46
-0.61
-1.40
-2.04
-2.74
-3.71
-4.95
-6.31
-7.56
-8.47
-9.01
-9.32
-9.64
-10.21
-11.23
-12.86
-15.18
-18.14
-21.47
-24.61
-26.75
-27.12
-25.19
-20.98
-15.10
-8.58
-2.48
2.35
5.57
7.33
8.06
8.32
8.59
9.12
9.96
11.03
12.16
13.23
14.16
14.89
15.39
15.57
15.37
14.79
13.96
13.10
12.48
12.24
12.33
12.46
12.31
11.60
10.32
8.71
7.11
5.81
4.92
4.31
3.71
2.84
1.56
-0.07
-1.88
-3.61
-5.08
-6.23
-7.14
-8.04
-9.17
-10.75
-12.94
-15.68
-18.74
-21.65
-23.82
-24.59
-23.49
-20.46
-15.82
-10.32
-4.83
-0.16
3.29
5.52
6.83
7.66
8.34
9.00
9.56
9.91
9.94
9.71
9.38
9.17
9.26
9.69
10.35
11.08
11.63
11.79
11.46
10.67
9.52
8.18
6.79
5.47
4.22
3.04
1.85
0.62
-0.70
-2.11
-3.58
-5.04
-6.43
-7.73
-9.00
-10.36
-11.98
-14.03
-16.60
-19.62
-22.84
-25.77
-27.80
-28.28
-26.78
-23.25
-18.14
-12.29
-6.63
-1.95
1.40
3.51
4.78
5.72
6.69
7.85
9.12
10.35
11.36
12.03
12.35
12.38
12.24
12.05
11.92
11.87
11.89
11.89
11.79
11.51
11.06
10.47
9.76
8.92
7.88
6.54
4.83
2.83
0.72
-1.27
-2.98
-4.43
-5.78
-7.31
-9.23
-11.62
-14.43
-17.48
-20.46
-22.96
-24.49
-24.54
-22.77
-19.16
-14.11
-8.42
-2.98
1.50
4.67
6.68
7.94
8.92
9.95
11.12
12.29
13.28
13.94
14.25
14.30
14.22
14.12
13.99
13.80
13.47
12.99
12.41
11.82
11.29
10.82
10.32
9.68
8.80
7.66
6.31
4.78
3.13
1.38
-0.47
-2.33
-4.10
-5.60
-6.73
-7.53
-8.18
-9.01
-10.33
-12.38
-15.11
-18.21
-21.06
-22.94
-23.15
-21.31
-17.49
-12.24
-6.44
-0.99
3.37
6.33
7.98
8.73
9.14
9.66
10.54
11.79
13.21
14.52
15.50
16.08
16.30
16.27
16.11
15.85
15.48
15.01
14.49
13.99
13.59
13.26
12.92
12.38
11.51
10.26
8.68
6.93
5.24
3.79
2.68
1.86
1.19
0.48
-0.39
-1.49
-2.79
-4.25
-5.83
-7.49
-9.19
-10.88
-12.49
-13.99
-15.46
-17.06
-19.01
-21.43
-24.22
-26.98
-29.07
-29.77
-28.52
-25.18
-20.10
-14.06
-8.02
-2.81
1.08
3.62
5.14
6.15
7.11
8.29
9.76
11.44
13.17
14.80
16.21
17.24
17.80
17.82
17.33
16.52
15.63
14.93
14.57
14.49
14.49
14.30
13.67
12.56
11.09
9.51
8.04
6.79
5.70
4.59
3.28
1.68
-0.14
-1.97
-3.65
-5.03
-6.19
-7.28
-8.58
-10.34
-12.71
-15.65
-18.93
-22.08
-24.43
-25.34
-24.38
-21.49
-17.06
-11.85
-6.70
-2.28
1.08
3.39
4.91
5.97
6.85
7.71
8.60
9.52
10.39
11.16
11.77
12.21
12.49
12.68
12.83
12.95
13.01
12.93
12.62
12.08
11.33
10.45
9.47
8.44
7.32
6.09
4.70
3.15
1.47
-0.28
-2.05
-3.74
-5.29
-6.64
-7.81
-8.86
-9.91
-11.16
-12.84
-15.10
-17.95
-21.13
-24.16
-26.42
-27.25
-26.22
-23.27
-18.71
-13.23
-7.62
-2.66
1.16
3.72
5.25
6.16
6.93
7.86
9.05
10.39
11.68
12.75
13.56
14.14
14.54
14.76
14.78
14.59
14.25
13.87
13.60
13.45
13.34
13.08
12.51
11.58
10.38
9.10
7.91
6.91
6.11
5.38
4.58
3.56
2.22
0.55
-1.36
-3.30
-5.07
-6.50
-7.61
-8.53
-9.52
-10.89
-12.86
-15.50
-18.61
-21.73
-24.20
-25.29
-24.50
-21.71
-17.30
-12.04
-6.80
-2.34
0.97
3.18
4.59
5.61
6.59
7.76
9.14
10.69
12.25
13.61
14.57
14.96
14.75
13.98
12.85
11.60
10.44
9.49
8.79
8.28
7.86
7.48
7.09
6.64
6.08
5.36
4.45
3.40
2.30
1.27
0.40
-0.29
-0.89
-1.55
-2.43
-3.63
-5.14
-6.82
-8.51
-10.02
-11.29
-12.34
-13.28
-14.26
-15.38
-16.78
-18.50
-20.56
-22.85
-25.07
-26.69
-27.08
-25.71
-22.40
-17.44
-11.61
-5.85
-1.01
2.47
4.61
5.79
6.51
7.17
8.01
9.05
10.20
11.34
12.42
13.38
14.17
14.74
14.99
14.87
14.38
13.63
12.82
12.15
11.74
11.57
11.47
11.18
10.52
9.40
7.89
6.19
4.51
3.06
1.89
0.97
0.18
-0.65
-1.63
-2.80
-4.08
-5.32
-6.39
-7.29
-8.12
-9.13
-10.59
-12.68
-15.43
-18.66
-21.96
-24.76
-26.43
-26.45
-24.55
-20.88
-15.97
-10.62
-5.63
-1.61
1.25
3.08
4.28
5.17
5.97
6.71
7.34
7.81
8.15
8.47
8.83
9.26
9.71
10.07
10.30
10.38
10.38
10.39
10.44
10.46
10.32
9.83
8.90
7.55
5.93
4.32
2.93
1.88
1.05
0.24
-0.79
-2.17
-3.88
-5.76
-7.58
-9.19
-10.58
-11.89
-13.33
-15.17
-17.56
-20.45
-23.51
-26.10
-27.53
-27.18
-24.82
-20.72
-15.58
-10.31
-5.71
-2.22
0.16
1.75
2.98
4.20
5.60
7.13
8.64
9.96
10.99
11.69
12.11
12.36
12.47
12.49
12.42
12.28
12.13
12.04
12.07
12.20
12.32
12.20
11.69
10.74
9.48
8.15
7.01
6.16
5.51
4.79
3.71
2.16
0.23
-1.79
-3.64
-5.18
-6.49
-7.80
-9.35
-11.27
-13.58
-16.20
-18.93
-21.43
-23.23
-23.77
-22.57
-19.50
-14.93
-9.65
-4.65
-0.68
1.96
3.53
4.58
5.68
7.12
8.89
10.73
12.33
13.52
14.28
14.66
14.82
14.80
14.61
14.29
13.89
13.52
13.25
13.08
12.93
12.64
12.06
11.11
9.83
8.36
6.90
5.65
4.68
3.99
3.41
2.75
1.82
0.54
-1.06
-2.84
-4.63
-6.25
-7.54
-8.44
-9.01
-9.46
-10.11
-11.33
-13.35
-16.10
-19.14
-21.75
-23.13
-22.72
-20.39
-16.47
-11.69
-6.85
-2.64
0.61
2.93
4.57
5.92
7.26
8.70
10.17
11.54
12.63
13.39
13.80
13.93
13.81
13.50
13.08
12.59
12.15
11.83
11.69
11.72
11.89
12.11
12.24
12.13
11.65
10.76
9.55
8.24
7.09
6.26
5.73
5.26
4.56
3.37
1.64
-0.45
-2.59
-4.45
-5.84
-6.77
-7.45
-8.20
-9.35
-11.12
-13.56
-16.48
-19.48
-21.97
-23.30
-22.96
-20.70
-16.75
-11.70
-6.44
-1.83
1.55
3.54
4.43
4.77
5.14
5.90
7.13
8.58
9.94
10.93
11.46
11.61
11.54
11.42
11.28
11.11
10.87
10.58
10.27
9.97
9.61
9.07
8.21
6.95
5.41
3.80
2.42
1.45
0.95
0.78
0.66
0.31
-0.44
-1.59
-2.98
-4.39
-5.65
-6.70
-7.67
-8.78
-10.27
-12.27
-14.74
-17.46
-19.97
-21.71
-22.15
-20.97
-18.23
-14.40
-10.22
-6.38
-3.36
-1.24
0.22
1.36
2.48
3.71
5.04
6.39
7.70
8.90
9.92
10.70
11.18
11.39
11.41
11.35
11.26
11.18
11.08
10.96
10.82
10.68
10.51
10.19
9.61
8.67
7.40
5.94
4.53
3.40
2.64
2.22
1.93
1.53
0.76
-0.46
-2.07
-3.89
-5.63
-7.07
-8.15
-8.96
-9.75
-10.78
-12.24
-14.16
-16.45
-18.86
-21.04
-22.51
-22.76
-21.38
-18.32
-13.95
-9.05
-4.51
-1.04
1.09
2.11
2.54
2.99
3.82
5.12
6.74
8.39
9.79
10.71
11.04
10.82
10.16
9.29
8.42
7.71
7.21
6.91
6.76
6.67
6.57
6.40
6.07
5.52
4.74
3.80
2.85
2.05
1.48
1.12
0.85
0.53
0.08
-0.49
-1.12
-1.75
-2.36
-3.06
-3.91
-5.02
-6.32
-7.68
-8.92
-9.89
-10.53
-10.91
-11.23
-11.73
-12.71
-14.36
-16.68
-19.38
-21.86
-23.38
-23.27
-21.23
-17.47
-12.67
-7.75
-3.57
-0.62
1.01
1.64
1.75
1.79
2.08
2.73
3.69
4.80
5.88
6.79
7.49
8.00
8.37
8.67
8.89
9.06
9.15
9.20
9.25
9.28
9.24
9.04
8.60
7.95
7.19
6.45
5.86
5.40
5.00
4.49
3.81
2.96
2.03
1.15
0.36
-0.40
-1.27
-2.38
-3.78
-5.36
-6.95
-8.35
-9.50
-10.45
-11.36
-12.47
-13.96
-15.92
-18.27
-20.75
-22.87
-24.10
-23.92
-22.06
-18.62
-14.12
-9.27
-4.85
-1.37
1.01
2.47
3.39
4.14
4.96
5.90
6.86
7.73
8.42
8.90
9.19
9.35
9.39
9.31
9.11
8.80
8.43
8.06
7.79
7.68
7.71
7.78
7.68
7.22
6.32
5.06
3.68
2.46
1.57
0.95
0.36
-0.45
-1.64
-3.15
-4.76
-6.23
-7.40
-8.29
-9.12
-10.18
-11.74
-13.97
-16.81
-19.99
-22.99
-25.16
-25.90
-24.81
-21.89
-17.63
-12.77
-8.16
-4.43
-1.81
-0.13
1.02
2.06
3.27
4.69
6.19
7.63
8.90
9.97
10.82
11.43
11.72
11.70
11.41
11.04
10.75
10.70
10.94
11.34
11.69
11.78
11.45
10.63
9.44
8.05
6.68
5.47
4.45
3.55
2.60
1.46
0.04
-1.65
-3.48
-5.28
-6.89
-8.23
-9.36
-10.48
-11.87
-13.84
-16.48
-19.62
-22.74
-25.07
-25.86
-24.60
-21.31
-16.52
-11.16
-6.20
-2.34
0.15
1.49
2.21
2.90
3.99
5.66
7.76
9.97
11.91
13.30
14.05
14.24
14.09
13.81
13.55
13.35
13.19
13.08
13.03
13.06
13.13
13.14
12.92
12.32
11.30
9.93
8.40
6.93
5.69
4.76
4.10
3.53
2.85
1.82
0.36
-1.45
-3.36
-5.05
-6.29
-7.09
-7.70
-8.58
-10.12
-12.56
-15.71
-19.07
-21.82
-23.17
-22.56
-19.88
-15.57
-10.43
-5.37
-1.12
1.97
3.99
5.30
6.32
7.37
8.54
9.74
10.80
11.57
11.99
12.11
12.04
11.90
11.79
11.76
11.78
11.79
11.71
11.53
11.26
10.92
10.53
10.07
9.43
8.54
7.36
5.96
4.55
3.37
2.61
2.27
2.16
1.95
1.33
0.18
-1.40
-3.14
-4.72
-5.92
-6.74
-7.34
-8.04
-9.11
-10.77
-13.11
-16.01
-19.18
-22.09
-24.08
-24.50
-22.91
-19.32
-14.22
-8.50
-3.16
1.01
3.71
5.13
5.86
6.58
7.72
9.39
11.36
13.29
14.89
16.02
16.75
17.18
17.40
17.40
17.16
16.69
16.11
15.56
15.14
14.83
14.46
13.81
12.73
11.24
9.52
7.78
6.15
4.67
3.23
1.73
0.13
-1.55
-3.20
-4.74
-6.13
-7.39
-8.56
-9.77
-11.14
-12.80
-14.87
-17.41
-20.25
-22.95
-24.88
-25.34
-23.86
-20.41
-15.46
-9.87
-4.57
-0.25
2.83
4.84
6.24
7.46
8.82
10.37
11.99
13.47
14.63
15.37
15.66
15.58
15.22
14.74
14.25
13.83
13.55
13.39
13.29
13.16
12.86
12.23
11.19
9.76
8.06
6.31
4.66
3.18
1.81
0.43
-1.10
-2.78
-4.56
-6.29
-7.88
-9.27
-10.51
-11.71
-13.04
-14.66
-16.70
-19.15
-21.87
-24.41
-26.15
-26.43
-24.84
-21.36
-16.51
-11.15
-6.19
-2.31
0.27
1.79
2.73
3.65
4.87
6.48
8.32
10.20
11.92
13.40
14.59
15.48
16.00
16.07
15.63
14.80
13.77
12.88
12.35
12.24
12.37
12.43
12.13
11.27
9.93
8.28
6.57
4.98
3.60
2.37
1.15
-0.22
-1.84
-3.69
-5.63
-7.41
-8.76
-9.52
-9.80
-9.90
-10.29
-11.38
-13.38
-16.20
-19.39
-22.27
-24.07
-24.16
-22.23
-18.46
-13.44
-8.04
-3.12
0.74
3.35
4.94
5.97
6.90
8.05
9.50
11.16
12.78
14.12
14.94
15.15
14.75
13.88
12.82
11.79
10.97
10.39
9.96
9.52
8.94
8.22
7.40
6.56
5.75
5.01
4.35
3.79
3.39
3.17
3.08
3.01
2.78
2.25
1.39
0.28
-0.91
-2.06
-3.11
-4.12
-5.20
-6.47
-7.92
-9.47
-10.96
-12.23
-13.26
-14.13
-15.08
-16.38
-18.26
-20.77
-23.69
-26.48
-28.38
-28.65
-26.78
-22.76
-17.13
-10.88
-5.13
-0.68
2.17
3.70
4.50
5.21
6.19
7.48
8.85
10.05
10.93
11.49
11.86
12.12
12.30
12.31
12.06
11.56
10.89
10.27
9.87
9.81
10.02
10.29
10.33
9.91
8.91
7.43
5.74
4.13
2.85
1.94
1.27
0.55
-0.46
-1.94
-3.87
-6.07
-8.26
-10.13
-11.47
-12.22
-12.57
-12.90
-13.66
-15.25
-17.74
-20.86
-23.99
-26.35
-27.24
-26.29
-23.51
-19.32
-14.37
-9.37
-4.89
-1.30
1.33
3.13
4.38
5.39
6.41
7.57
8.84
10.09
11.17
11.99
12.55
12.88
13.05
13.07
12.96
12.73
12.42
12.10
11.84
11.69
11.57
11.40
11.02
10.36
9.40
8.18
6.82
5.44
4.16
3.06
2.14
1.32
0.46
-0.62
-2.03
-3.71
-5.50
-7.13
-8.39
-9.24
-9.88
-10.65
-11.92
-13.98
-16.82
-20.18
-23.52
-26.14
-27.36
-26.70
-24.06
-19.78
-14.57
-9.29
-4.71
-1.28
0.96
2.31
3.27
4.35
5.88
7.93
10.28
12.55
14.35
15.39
15.64
15.28
14.60
13.85
13.17
12.59
12.06
11.57
11.19
11.00
11.00
11.12
11.10
10.69
9.70
8.18
6.40
4.72
3.44
2.65
2.17
1.70
0.91
-0.36
-2.08
-4.06
-6.05
-7.87
-9.36
-10.51
-11.40
-12.24
-13.33
-15.00
-17.43
-20.56
-23.91
-26.77
-28.27
-27.82
-25.21
-20.77
-15.28
-9.69
-4.82
-1.14
1.32
2.87
3.99
5.14
6.52
8.17
9.94
11.65
13.22
14.63
15.87
16.89
17.60
17.85
17.65
17.15
16.63
16.38
16.57
17.11
17.68
17.92
17.50
16.33
14.50
12.29
10.02
8.02
6.43
5.28
4.39
3.52
2.39
0.87
-1.00
-3.03
-4.94
-6.51
-7.69
-8.63
-9.65
-11.11
-13.29
-16.30
-19.96
-23.83
-27.28
-29.55
-30.00
-28.26
-24.42
-19.05
-13.03
-7.33
-2.69
0.58
2.59
3.77
4.61
5.50
6.63
7.99
9.44
10.82
11.96
12.74
13.13
13.15
12.95
12.68
12.46
12.33
12.25
12.07
11.68
11.01
10.08
8.95
7.68
6.27
4.72
2.99
1.13
-0.76
-2.52
-4.06
-5.39
-6.58
-7.77
-9.07
-10.51
-12.14
-14.06
-16.41
-19.29
-22.62
-25.95
-28.56
-29.65
-28.65
-25.50
-20.67
-15.04
-9.54
-4.86
-1.23
1.45
3.56
5.47
7.43
9.45
11.43
13.18
14.55
15.47
15.97
16.14
16.11
15.97
15.78
15.49
15.07
14.49
13.78
13.02
12.33
11.74
11.20
10.58
9.70
8.43
6.75
4.79
2.75
0.80
-0.93
-2.49
-4.00
-5.64
-7.57
-9.92
-12.78
-16.15
-19.90
-23.64
-26.78
-28.57
-28.35
-25.85
-21.31
-15.45
-9.27
-3.69
0.71
3.79
5.80
7.22
8.55
10.16
12.18
14.47
16.69
18.49
19.59
19.92
19.60
18.88
17.99
17.08
16.23
15.44
14.75
14.16
13.66
13.13
12.44
11.43
10.07
8.43
6.63
4.84
3.16
1.57
0.02
-1.57
-3.22
-4.91
-6.57
-8.15
-9.70
-11.34
-13.23
-15.56
-18.41
-21.65
-24.98
-27.80
-29.40
-29.16
-26.76
-22.39
-16.72
-10.68
-5.20
-0.86
2.22
4.34
5.99
7.59
9.36
11.32
13.32
15.18
16.76
17.96
18.77
19.19
19.25
19.03
18.61
18.11
17.68
17.43
17.41
17.58
17.72
17.56
16.80
15.29
13.15
10.70
8.38
6.58
5.38
4.59
3.83
2.69
0.97
-1.26
-3.70
-5.93
-7.66
-8.81
-9.56
-10.32
-11.52
-13.50
-16.32
-19.70
-23.12
-25.82
-27.10
-26.40
-23.57
-18.91
-13.12
-7.11
-1.73
2.40
5.15
6.75
7.70
8.51
9.52
10.80
12.20
13.48
14.47
15.05
15.24
15.09
14.67
14.08
13.42
12.82
12.36
12.08
11.89
11.65
11.14
10.24
8.95
7.35
5.61
3.87
2.19
0.62
-0.87
-2.28
-3.61
-4.89
-6.18
-7.57
-9.16
-11.04
-13.25
-15.83
-18.72
-21.79
-24.74
-27.08
-28.20
-27.59
-24.98
-20.59
-15.05
-9.25
-4.06
-0.03
2.73
4.51
5.83
7.19
8.85
10.80
12.78
14.51
15.75
16.47
16.78
16.84
16.80
16.68
16.43
16.01
15.42
14.79
14.22
13.75
13.30
12.66
11.61
10.08
8.17
6.18
4.47
3.29
2.59
2.11
1.42
0.17
-1.70
-4.02
-6.42
-8.52
-10.16
-11.36
-12.37
-13.50
-15.07
-17.28
-20.08
-23.14
-25.85
-27.41
-27.11
-24.63
-20.17
-14.52
-8.72
-3.73
-0.09
2.19
3.55
4.63
6.02
7.97
10.43
13.08
15.48
17.27
18.28
18.52
18.13
17.35
16.39
15.41
14.55
13.88
13.42
13.17
13.07
13.01
12.86
12.49
11.76
10.63
9.12
7.43
5.80
4.49
3.62
3.10
2.72
2.15
1.25
0.02
-1.32
-2.53
-3.41
-3.92
-4.22
-4.51
-5.02
-5.88
-7.15
-8.77
-10.57
-12.32
-13.80
-14.87
-15.59
-16.22
-17.15
-18.74
-21.20
-24.48
-28.19
-31.67
-34.12
-34.75
-33.05
-28.91
-22.85
-15.82
-9.00
-3.40
0.44
2.58
3.53
4.04
4.77
6.05
7.91
10.06
12.11
13.74
14.77
15.21
15.21
14.98
14.67
14.37
14.07
13.77
13.48
13.21
13.01
12.80
12.44
11.76
10.59
8.97
7.06
5.16
3.60
2.54
1.89
1.42
0.78
-0.27
-1.80
-3.63
-5.51
-7.19
-8.52
-9.48
-10.17
-10.74
-11.40
-12.41
-14.00
-16.37
-19.52
-23.12
-26.59
-29.09
-29.82
-28.24
-24.34
-18.64
-12.11
-5.83
-0.65
2.96
5.09
6.16
6.75
7.36
8.28
9.51
10.90
12.26
13.40
14.22
14.69
14.79
14.55
14.05
13.38
12.69
12.07
11.57
11.11
10.51
9.56
8.14
6.28
4.20
2.24
0.67
-0.41
-1.14
-1.84
-2.81
-4.22
-5.95
-7.75
-9.28
-10.40
-11.20
-11.95
-12.99
-14.59
-16.88
-19.79
-23.07
-26.19
-28.49
-29.23
-27.84
-24.22
-18.83
-12.66
-6.81
-2.17
0.91
2.67
3.68
4.58
5.76
7.30
9.02
10.66
12.02
13.00
13.59
13.82
13.72
13.33
12.73
12.02
11.33
10.71
10.15
9.60
9.03
8.39
7.68
6.88
5.92
4.68
3.09
1.16
-0.97
-3.00
-4.70
-5.92
-6.74
-7.37
-8.16
-9.40
-11.29
-13.86
-16.91
-20.05
-22.62
-23.93
-23.42
-20.91
-16.73
-11.59
-6.47
-2.17
0.84
2.54
3.22
3.32
3.30
3.48
3.98
4.74
5.51
5.94
5.71
4.66
2.82
0.39
-2.37
-5.24
-8.05
-10.68
-13.03
-15.01
-16.63
-18.06
-19.51
-21.17
-22.96
-24.49
-25.16
-24.46
-22.20
-18.70
-14.60
-10.66
-7.37
-4.84
-2.89
-1.28
0.10
1.15
1.65
1.51
0.83
-0.03
-0.78
-1.30
-1.76
-2.53
-4.02
-6.41
-9.63
-13.34
-16.95
-19.76
-21.04
-20.24
-17.12
-11.94
-5.40
1.44
7.55
12.24
15.30
17.07
18.13
19.09
20.29
21.75
23.26
24.49
25.21
25.34
24.99
24.33
23.52
22.72
21.96
21.29
20.69
20.10
19.47
18.70
17.71
16.46
14.94
13.18
11.24
9.15
6.90
4.56
2.18
-0.11
-2.23
-4.16
-5.98
-7.89
-10.04
-12.57
-15.44
-18.43
-21.13
-23.01
-23.49
-22.11
-18.65
-13.35
-6.85
-0.08
5.98
10.61
13.53
14.92
15.28
15.22
15.22
15.51
16.06
16.67
17.09
17.14
16.77
16.07
15.13
14.10
13.07
12.11
11.24
10.48
9.80
9.13
8.38
7.43
6.23
4.73
2.98
1.06
-0.87
-2.65
-4.13
-5.25
-6.03
-6.64
-7.33
-8.28
-9.65
-11.47
-13.68
-16.05
-18.18
-19.54
-19.56
-17.83
-14.26
-9.19
-3.31
2.55
7.71
11.81
14.91
17.31
19.35
21.24
22.97
24.37
25.18
25.26
24.60
23.35
21.74
19.97
18.22
16.58
15.11
13.88
12.98
12.38
11.93
11.38
10.50
9.23
7.69
6.16
4.91
4.00
3.25
2.34
0.98
-0.87
-2.99
-5.03
-6.66
-7.72
-8.30
-8.63
-9.02
-9.76
-11.07
-13.03
-15.52
-18.15
-20.31
-21.29
-20.49
-17.67
-13.10
-7.50
-1.85
2.93
6.35
8.40
9.51
10.27
11.17
12.39
13.83
15.22
16.31
17.01
17.35
17.42
17.25
16.85
16.20
15.38
14.57
14.02
13.91
14.26
14.89
15.45
15.64
15.25
14.33
13.07
11.76
10.63
9.80
9.23
8.78
8.28
7.57
6.58
5.34
3.97
2.60
1.31
0.10
-1.10
-2.36
-3.74
-5.21
-6.71
-8.17
-9.53
-10.77
-11.90
-12.96
-13.98
-15.04
-16.30
-17.97
-20.18
-22.89
-25.76
-28.14
-29.23
-28.39
-25.37
-20.51
-14.67
-8.92
-4.16
-0.84
1.11
2.14
2.82
3.53
4.45
5.51
6.59
7.59
8.47
9.25
9.87
10.25
10.26
9.88
9.14
8.23
7.37
6.73
6.35
6.09
5.79
5.28
4.53
3.62
2.69
1.81
0.97
0.04
-1.13
-2.61
-4.31
-6.07
-7.66
-8.92
-9.81
-10.39
-10.82
-11.33
-12.13
-13.43
-15.29
-17.53
-19.68
-21.08
-21.04
-19.12
-15.30
-10.11
-4.41
0.85
4.94
7.56
8.83
9.18
9.13
9.10
9.29
9.70
10.19
10.57
10.72
10.60
10.29
9.92
9.58
9.38
9.32
9.39
9.54
9.67
9.61
9.19
8.30
6.90
5.13
3.22
1.45
0.00
-1.06
-1.84
-2.51
-3.25
-4.17
-5.28
-6.52
-7.78
-8.92
-9.87
-10.64
-11.35
-12.17
-13.30
-14.85
-16.78
-18.86
-20.62
-21.50
-20.97
-18.75
-14.94
-10.06
-4.89
-0.25
3.28
5.54
6.70
7.22
7.55
7.99
8.66
9.48
10.28
10.86
11.07
10.90
10.38
9.63
8.81
8.06
7.48
7.14
7.07
7.20
7.46
7.69
7.78
7.58
7.04
6.19
5.11
3.96
2.90
2.02
1.40
0.98
0.64
0.25
-0.34
-1.18
-2.24
-3.45
-4.69
-5.88
-6.97
-7.97
-8.89
-9.76
-10.61
-11.51
-12.54
-13.81
-15.41
-17.31
-19.32
-20.99
-21.73
-20.99
-18.46
-14.33
-9.23
-4.06
0.37
3.58
5.55
6.59
7.15
7.56
7.98
8.42
8.89
9.37
9.85
10.28
10.54
10.52
10.18
9.59
8.90
8.24
7.71
7.30
6.94
6.55
6.06
5.45
4.72
3.91
3.10
2.34
1.65
0.99
0.27
-0.63
-1.78
-3.18
-4.73
-6.28
-7.69
-8.86
-9.76
-10.46
-11.08
-11.81
-12.88
-14.50
-16.70
-19.23
-21.55
-22.94
-22.72
-20.55
-16.64
-11.68
-6.59
-2.24
0.89
2.75
3.65
4.01
4.25
4.56
4.98
5.42
5.77
5.94
5.93
5.79
5.65
5.59
5.66
5.80
5.88
5.78
5.44
4.89
4.22
3.57
3.05
2.70
2.50
2.34
2.02
1.40
0.37
-1.04
-2.65
-4.21
-5.50
-6.44
-7.11
-7.74
-8.59
-9.87
-11.62
-13.74
-15.95
-17.82
-18.90
-18.77
-17.18
-14.17
-10.12
-5.65
-1.50
1.74
3.79
4.71
4.88
4.83
5.03
5.76
7.03
8.60
10.06
11.05
11.35
11.03
10.32
9.57
9.02
8.71
8.52
8.25
7.75
7.06
6.32
5.69
5.21
4.82
4.35
3.65
2.63
1.33
-0.16
-1.72
-3.25
-4.67
-5.92
-6.96
-7.83
-8.65
-9.58
-10.85
-12.60
-14.84
-17.32
-19.59
-21.03
-21.04
-19.27
-15.77
-11.05
-5.94
-1.33
2.14
4.24
5.20
5.54
5.79
6.31
7.20
8.34
9.49
10.42
11.02
11.29
11.27
11.09
10.82
10.54
10.32
10.20
10.20
10.30
10.39
10.31
9.88
8.99
7.68
6.16
4.66
3.41
2.46
1.68
0.86
-0.23
-1.68
-3.39
-5.17
-6.81
-8.14
-9.16
-9.98
-10.82
-11.93
-13.49
-15.55
-17.90
-20.07
-21.39
-21.21
-19.12
-15.14
-9.85
-4.17
0.93
4.76
7.09
8.18
8.57
8.81
9.21
9.82
10.47
10.95
11.13
11.04
10.77
10.47
10.21
10.01
9.80
9.53
9.17
8.77
8.40
8.09
7.81
7.44
6.88
6.08
5.07
3.88
2.58
1.20
-0.24
-1.67
-3.02
-4.18
-5.07
-5.74
-6.33
-7.09
-8.27
-10.08
-12.55
-15.49
-18.48
-20.92
-22.14
-21.66
-19.31
-15.37
-10.46
-5.39
-0.95
2.39
4.53
5.70
6.34
6.85
7.50
8.30
9.12
9.78
10.18
10.35
10.40
10.48
10.65
10.92
11.18
11.27
11.09
10.60
9.83
8.93
8.04
7.24
6.51
5.70
4.64
3.18
1.32
-0.79
-2.86
-4.63
-5.96
-6.85
-7.42
-7.85
-8.34
-9.07
-10.23
-11.97
-14.35
-17.17
-19.88
-21.73
-21.96
-20.13
-16.33
-11.16
-5.55
-0.44
3.54
6.15
7.54
8.09
8.27
8.48
8.98
9.81
10.83
11.77
12.42
12.68
12.60
12.39
12.20
12.08
11.94
11.63
11.10
10.44
9.85
9.50
9.40
9.36
9.08
8.32
7.02
5.40
3.80
2.51
1.66
1.08
0.46
-0.53
-2.01
-3.88
-5.82
-7.54
-8.83
-9.71
-10.38
-11.11
-12.13
-13.57
-15.47
-17.73
-20.12
-22.23
-23.47
-23.25
-21.18
-17.31
-12.14
-6.60
-1.64
2.06
4.27
5.25
5.56
5.79
6.33
7.32
8.60
9.90
10.95
11.61
11.88
11.90
11.85
11.82
11.78
11.64
11.30
10.76
10.17
9.71
9.52
9.61
9.77
9.75
9.32
8.43
7.20
5.88
4.71
3.82
3.19
2.68
2.17
1.52
0.67
-0.44
-1.82
-3.45
-5.19
-6.83
-8.18
-9.09
-9.60
-9.91
-10.30
-11.08
-12.47
-14.50
-16.97
-19.42
-21.23
-21.70
-20.36
-17.16
-12.58
-7.42
-2.57
1.31
3.96
5.53
6.33
6.70
6.87
6.97
7.09
7.33
7.70
8.18
8.66
9.02
9.20
9.18
8.99
8.67
8.28
7.79
7.24
6.63
5.98
5.28
4.53
3.72
2.83
1.84
0.69
-0.66
-2.21
-3.90
-5.59
-7.10
-8.30
-9.16
-9.76
-10.24
-10.79
-11.57
-12.75
-14.45
-16.63
-19.02
-21.08
-22.12
-21.56
-19.10
-14.94
-9.73
-4.36
0.31
3.74
5.75
6.56
6.62
6.42
6.34
6.57
7.07
7.69
8.24
8.61
8.81
8.90
8.93
8.86
8.61
8.12
7.43
6.66
5.99
5.55
5.32
5.16
4.83
4.12
2.91
1.21
-0.80
-2.83
-4.57
-5.80
-6.48
-6.75
-6.91
-7.29
-8.14
-9.61
-11.77
-14.55
-17.74
-20.85
-23.19
-24.01
-22.80
-19.56
-14.85
-9.64
-4.91
-1.32
0.94
2.12
2.64
2.91
3.21
3.64
4.26
5.04
5.91
6.79
7.57
8.17
8.55
8.70
8.65
8.40
7.89
7.00
5.62
3.72
1.43
-1.04
-3.43
-5.55
-7.43
-9.20
-11.04
-13.04
-15.11
-17.06
-18.67
-19.86
-20.70
-21.37
-22.06
-22.93
-24.10
-25.63
-27.50
-29.55
-31.34
-32.28
-31.71
-29.19
-24.69
-18.67
-11.90
-5.24
0.58
5.19
8.48
10.70
12.22
13.51
14.92
16.66
18.72
20.85
22.76
24.18
25.00
25.22
24.94
24.30
23.42
22.44
21.50
20.77
20.29
20.03
19.81
19.48
18.99
18.39
17.84
17.42
17.13
16.78
16.16
15.14
13.68
11.95
10.15
8.51
7.17
6.13
5.26
4.25
2.77
0.59
-2.24
-5.23
-7.62
-8.57
-7.56
-4.63
-0.40
4.19
8.21
11.13
12.82
13.54
13.66
13.54
13.35
13.17
12.97
12.72
12.41
12.05
11.64
11.18
10.69
10.14
9.49
8.74
7.87
6.91
5.88
4.82
3.76
2.68
1.50
0.17
-1.39
-3.17
-5.08
-6.90
-8.41
-9.46
-10.05
-10.43
-10.95
-11.91
-13.45
-15.44
-17.69
-19.92
-21.98
-23.68
-24.76
-24.84
-23.53
-20.63
-16.33
-11.21
-6.09
-1.74
1.42
3.40
4.57
5.41
6.34
7.56
9.03
10.57
11.94
12.95
13.51
13.66
13.54
13.31
13.08
12.82
12.42
11.72
10.64
9.21
7.63
6.11
4.83
3.88
3.13
2.36
1.30
-0.22
-2.17
-4.33
-6.36
-7.98
-9.05
-9.65
-10.05
-10.57
-11.54
-13.16
-15.50
-18.45
-21.63
-24.42
-26.04
-25.79
-23.32
-18.88
-13.27
-7.59
-2.85
0.43
2.37
3.51
4.57
6.05
8.05
10.37
12.57
14.28
15.33
15.75
15.76
15.56
15.29
14.94
14.45
13.74
12.93
12.20
11.76
11.67
11.78
11.70
11.10
9.81
7.93
5.83
3.90
2.42
1.42
0.72
0.08
-0.80
-2.08
-3.81
-5.93
-8.29
-10.62
-12.64
-14.18
-15.23
-15.94
-16.64
-17.69
-19.36
-21.72
-24.57
-27.45
-29.71
-30.65
-29.70
-26.65
-21.74
-15.64
-9.23
-3.36
1.38
4.80
7.06
8.58
9.80
11.08
12.58
14.22
15.78
17.01
17.74
17.96
17.78
17.35
16.78
16.13
15.40
14.59
13.77
13.02
12.30
11.52
10.52
9.16
7.46
5.60
3.86
2.44
1.40
0.57
-0.37
-1.63
-3.30
-5.21
-7.07
-8.61
-9.70
-10.42
-11.00
-11.79
-13.05
-14.98
-17.56
-20.53
-23.36
-25.29
-25.60
-23.81
-19.96
-14.64
-8.81
-3.49
0.63
3.35
4.91
5.80
6.51
7.29
8.20
9.08
9.81
10.31
10.61
10.76
10.82
10.75
10.49
10.00
9.34
8.65
8.09
7.78
7.71
7.75
7.65
7.18
6.23
4.78
2.96
0.96
-1.04
-2.90
-4.56
-6.01
-7.25
-8.33
-9.30
-10.25
-11.33
-12.76
-14.73
-17.28
-20.22
-23.03
-24.97
-25.27
-23.45
-19.50
-13.96
-7.80
-2.04
2.48
5.45
7.05
7.82
8.38
9.18
10.38
11.83
13.24
14.30
14.85
14.88
14.57
14.12
13.70
13.37
13.12
12.89
12.66
12.39
12.07
11.61
10.94
9.98
8.69
7.17
5.57
4.04
2.67
1.40
0.07
-1.46
-3.23
-5.15
-6.98
-8.52
-9.68
-10.59
-11.53
-12.81
-14.68
-17.22
-20.32
-23.65
-26.67
-28.63
-28.82
-26.75
-22.41
-16.39
-9.71
-3.51
1.35
4.57
6.38
7.38
8.15
9.12
10.38
11.84
13.28
14.49
15.32
15.72
15.74
15.47
15.04
14.55
14.09
13.75
13.59
13.68
14.00
14.43
14.70
14.55
13.77
12.37
10.57
8.76
7.28
6.30
5.73
5.28
4.60
3.52
2.09
0.55
-0.81
-1.79
-2.42
-2.84
-3.29
-3.97
-4.98
-6.32
-7.89
-9.54
-11.04
-12.22
-13.04
-13.60
-14.19
-15.19
-16.92
-19.44
-22.48
-25.37
-27.25
-27.29
-25.04
-20.60
-14.64
-8.18
-2.29
2.29
5.31
7.01
7.91
8.53
9.20
10.01
10.87
11.61
12.08
12.25
12.17
11.95
11.75
11.63
11.62
11.62
11.48
11.06
10.34
9.33
8.14
6.89
5.67
4.55
3.60
2.89
2.45
2.25
2.10
1.71
0.80
-0.85
-3.25
-6.21
-9.42
-12.55
-15.38
-17.88
-20.15
-22.39
-24.87
-27.71
-30.84
-33.90
-36.25
-37.07
-35.67
-31.75
-25.61
-18.19
-10.81
-4.80
-1.09
0.11
-0.69
-2.45
-3.97
-4.31
-3.05
-0.37
3.15
6.75
9.80
11.91
13.02
13.24
12.78
11.86
10.71
9.53
8.48
7.63
6.94
6.23
5.37
4.26
3.02
1.79
0.70
-0.22
-1.06
-1.96
-2.97
-4.02
-4.91
-5.39
-5.28
-4.54
-3.38
-2.12
-1.22
-1.09
-2.04
-4.23
-7.55
-11.67
-15.91
-19.35
-21.00
-20.13
-16.59
-10.98
-4.53
1.29
5.39
7.38
7.71
7.32
7.20
7.97
9.76
12.22
14.81
17.05
18.57
19.21
18.93
17.78
15.86
13.38
10.59
7.90
5.71
4.41
4.19
4.98
6.46
8.10
9.32
9.69
8.99
7.37
5.27
3.28
1.97
1.64
2.20
3.17
3.88
3.73
2.35
-0.23
-3.78
-7.88
-12.00
-15.58
-17.98
-18.63
-17.24
-13.95
-9.41
-4.58
-0.45
2.35
3.73
4.09
4.07
4.29
5.09
6.51
8.32
10.20
11.85
13.05
13.75
13.95
13.72
13.17
12.44
11.70
11.13
10.87
10.89
11.05
11.06
10.64
9.59
7.92
5.84
3.66
1.66
-0.01
-1.40
-2.75
-4.40
-6.67
-9.71
-13.40
-17.32
-20.79
-23.01
-23.28
-21.20
-16.82
-10.68
-3.68
3.19
9.03
13.36
16.08
17.51
18.10
18.33
18.55
18.85
19.15
19.25
19.04
18.47
17.68
16.89
16.30
16.06
16.16
16.48
16.83
16.99
16.71
15.79
14.09
11.60
8.44
4.90
1.41
-1.63
-3.95
-5.55
-6.69
-7.78
-9.28
-11.47
-14.35
-17.53
-20.37
-22.14
-22.21
-20.31
-16.57
-11.54
-6.03
-0.87
3.32
6.23
7.99
8.94
9.53
10.07
10.69
11.35
12.01
12.72
13.57
14.69
16.03
17.37
18.31
18.55
17.97
16.81
15.52
14.55
14.17
14.23
14.30
13.86
12.55
10.31
7.40
4.27
1.30
-1.33
-3.67
-5.92
-8.36
-11.21
-14.56
-18.31
-22.12
-25.39
-27.40
-27.47
-25.28
-21.08
-15.58
-9.83
-4.78
-0.99
1.46
2.90
3.77
4.48
5.21
5.99
6.76
7.48
8.14
8.80
9.50
10.20
10.88
11.46
11.84
12.00
11.91
11.60
11.07
10.33
9.37
8.20
6.83
5.34
3.79
2.22
0.69
-0.80
-2.28
-3.85
-5.64
-7.79
-10.28
-12.84
-14.94
-15.86
-15.01
-12.13
-7.55
-2.06
3.35
7.80
10.88
12.63
13.42
13.75
13.95
14.18
14.43
14.70
15.09
15.83
17.17
19.26
22.10
25.45
28.98
32.37
35.36
37.77
39.50
40.46
40.54
39.69
37.95
35.51
32.66
29.72
26.86
24.01
20.83
16.91
11.90
5.77
-1.14
-8.16
-14.47
-19.36
-22.38
-23.48
-22.97
-21.48
-19.81
-18.70
-18.65
-19.75
-21.56
-23.38
-24.48
-24.51
-23.61
-22.33
-21.33
-21.03
-21.47
-22.29
-23.01
-23.27
-22.99
-22.30
-21.44
-20.59
-19.84
-19.22
-18.75
-18.49
-18.47
-18.70
-19.06
-19.38
-19.45
-19.15
-18.47
-17.59
-16.79
-16.38
-16.60
-17.53
-19.00
-20.57
-21.66
-21.67
-20.23
-17.31
-13.30
-8.87
-4.80
-1.66
0.37
1.43
1.91
2.19
2.50
2.86
3.19
3.43
3.62
3.88
4.38
5.18
6.18
7.14
7.79
7.97
7.66
7.06
6.44
6.04
5.91
5.89
5.63
4.80
3.22
0.95
-1.67
-4.19
-6.27
-7.73
-8.69
-9.40
-10.20
-11.30
-12.79
-14.64
-16.71
-18.74
-20.39
-21.19
-20.68
-18.57
-14.90
-10.11
-4.95
-0.24
3.40
5.72
6.82
7.00
6.61
5.88
4.94
3.91
2.96
2.29
2.05
2.24
2.71
3.18
3.37
3.13
2.46
1.54
0.61
-0.11
-0.54
-0.72
-0.84
-1.16
-1.93
-3.23
-4.96
-6.86
-8.59
-9.92
-10.78
-11.33
-11.80
-12.44
-13.38
-14.63
-16.11
-17.62
-18.88
-19.47
-18.98
-17.14
-14.00
-9.95
-5.64
-1.74
1.27
3.24
4.27
4.63
4.60
4.40
4.23
4.26
4.62
5.37
6.40
7.48
8.33
8.69
8.48
7.78
6.84
5.95
5.30
4.95
4.78
4.55
4.05
3.17
2.00
0.73
-0.39
-1.17
-1.58
-1.74
-1.89
-2.36
-3.42
-5.18
-7.48
-9.87
-11.62
-12.06
-10.80
-7.96
-4.10
-0.04
3.44
5.91
7.31
7.85
7.81
7.38
6.64
5.61
4.37
3.01
1.65
0.35
-0.96
-2.35
-3.90
-5.60
-7.37
-9.14
-10.82
-12.39
-13.82
-15.09
-16.10
-16.69
-16.78
-16.33
-15.45
-14.33
-13.18
-12.22
-11.61
-11.51
-12.08
-13.44
-15.50
-17.90
-19.94
-20.78
-19.78
-16.82
-12.45
-7.69
-3.67
-1.10
-0.12
-0.25
-0.79
-1.14
-0.99
-0.30
0.76
1.97
3.07
3.76
3.74
2.82
1.03
-1.24
-3.45
-4.96
-5.43
-4.87
-3.63
-2.22
-1.13
-0.62
-0.71
-1.27
-2.06
-2.90
-3.66
-4.32
-4.99
-5.82
-7.01
-8.65
-10.62
-12.55
-13.81
-13.74
-11.86
-8.13
-3.01
2.73
8.18
12.70
16.05
18.41
20.20
21.83
23.50
25.15
26.58
27.54
27.91
27.73
27.10
26.11
24.77
23.08
21.08
18.95
16.95
15.34
14.23
13.48
12.82
11.90
10.47
8.55
6.33
4.08
2.13
0.59
-0.54
-1.43
-2.34
-3.51
-5.11
-7.19
-9.66
-12.14
-14.07
-14.83
-13.90
-11.17
-7.04
-2.30
2.10
5.45
7.51
8.59
9.28
10.23
11.75
13.80
16.01
17.88
18.99
19.16
18.51
17.40
16.27
15.48
15.17
15.23
15.39
15.39
15.08
14.47
13.68
12.80
11.86
10.78
9.51
8.11
6.72
5.53
4.64
4.01
3.48
2.88
2.04
0.89
-0.56
-2.24
-4.01
-5.67
-7.01
-7.88
-8.26
-8.36
-8.44
-8.84
-9.77
-11.30
-13.40
-15.98
-18.88
-21.82
-24.35
-25.83
-25.62
-23.29
-18.88
-13.00
-6.60
-0.75
3.82
6.88
8.67
9.69
10.46
11.28
12.23
13.21
14.07
14.76
15.24
15.56
15.72
15.70
15.45
14.94
14.21
13.38
12.58
11.93
11.43
10.93
10.21
9.10
7.59
5.85
4.19
2.87
1.99
1.40
0.81
-0.05
-1.24
-2.63
-3.98
-5.11
-6.02
-6.87
-7.92
-9.36
-11.27
-13.56
-16.03
-18.36
-20.16
-20.95
-20.29
-17.98
-14.11
-9.21
-4.03
0.63
4.20
6.49
7.72
8.29
8.65
9.09
9.64
10.17
10.49
10.49
10.22
9.82
9.52
9.45
9.62
9.89
10.07
10.00
9.59
8.88
7.96
6.96
6.03
5.28
4.76
4.45
4.25
3.99
3.56
2.91
2.06
1.12
0.18
-0.73
-1.67
-2.75
-4.09
-5.77
-7.78
-10.07
-12.44
-14.58
-16.08
-16.46
-15.35
-12.68
-8.77
-4.30
-0.09
3.17
5.15
5.89
5.81
5.32
4.76
4.25
3.83
3.47
3.24
3.23
3.45
3.78
3.96
3.75
3.06
2.02
0.98
0.31
0.24
0.70
1.38
1.86
1.82
1.13
-0.12
-1.69
-3.31
-4.77
-5.93
-6.74
-7.24
-7.57
-7.97
-8.75
-10.17
-12.33
-15.00
-17.64
-19.51
-19.94
-18.53
-15.35
-10.90
-5.92
-1.21
2.63
5.34
6.94
7.72
8.01
8.10
8.17
8.24
8.26
8.22
8.18
8.26
8.61
9.23
9.92
10.36
10.23
9.42
8.11
6.69
5.60
5.09
5.12
5.37
5.43
4.98
3.99
2.59
1.11
-0.17
-1.10
-1.70
-2.18
-2.83
-3.95
-5.79
-8.48
-11.89
-15.61
-18.97
-21.20
-21.67
-20.13
-16.83
-12.44
-7.82
-3.77
-0.73
1.24
2.42
3.24
4.12
5.30
6.77
8.33
9.69
10.62
11.06
11.11
10.96
10.76
10.53
10.16
9.54
8.63
7.57
6.54
5.64
4.84
3.90
2.57
0.74
-1.43
-3.56
-5.21
-6.16
-6.47
-6.51
-6.78
-7.65
-9.29
-11.58
-14.26
-16.93
-19.15
-20.41
-20.24
-18.37
-14.82
-10.08
-4.89
-0.07
3.87
6.79
8.93
10.66
12.21
13.56
14.57
15.13
15.32
15.39
15.61
16.12
16.83
17.45
17.68
17.37
16.72
16.16
16.15
16.94
18.31
19.66
20.13
19.05
16.27
12.42
8.60
6.00
5.35
6.66
9.25
11.79
12.93
11.81
8.43
3.43
-2.37
-8.42
-14.61
-21.25
-29.21
-39.13
-50.57
-61.44
-68.38
-67.81
-57.16
-35.77
-5.59
28.16
58.20
77.00
79.15
62.86
30.36
-12.06
-55.22
-89.20
-107.47
-108.61
-96.70
-79.30
-64.67
-59.38
-65.99
-82.63
-98.05
-100.69
-84.26
-52.25
-14.18
21.76
51.52
75.04
93.86
109.52
121.69
129.33
131.72
129.52
124.46
117.39
108.98
99.27
88.64
76.97
64.19
50.17
35.11
19.48
2.05
-18.70
-44.19
-74.95
-110.43
-148.15
-183.72
-212.28
-221.94
-207.56
-171.01
-120.96
-69.59
-28.13
-2.32
9.12
12.89
17.27
26.86
42.51
62.45
84.57
107.87
132.36
157.54
180.97
198.12
202.36
188.59
155.87
108.71
56.73
12.39
-12.49
-10.27
19.76
69.89
126.01
172.27
196.10
192.04
162.86
117.75
68.74
26.81
-1.31
-15.01
-17.56
-14.07
-9.42
-7.52
-11.12
-21.59
-39.10
-63.10
-94.55
-133.56
-178.69
-226.03
-270.21
-306.00
-329.64
-339.40
-335.36
-321.13
-299.89
-274.21
-245.72
-216.73
-191.15
-173.33
-165.84
-152.60
-121.95
-70.72
-7.53
55.13
108.18
147.87
174.77
191.91
202.69
207.14
205.00
194.68
176.11
151.01
121.60
89.26
54.20
15.54
-29.21
-72.20
-104.39
-117.56
-107.69
-77.48
-35.59
7.03
41.06
61.01
67.32
63.62
54.86
46.62
43.44
47.73
61.03
81.91
105.24
123.66
128.77
114.16
79.62
31.40
-19.86
-62.47
-87.55
-91.47
-76.22
-43.25
-4.16
27.79
44.27
44.35
32.84
16.29
-0.01
-13.49
-24.03
-33.13
-40.90
-46.28
-48.44
-47.77
-45.97
-45.05
-46.54
-50.73
-57.31
-64.50
-70.12
-72.76
-72.36
-69.96
-66.95
-64.36
-62.73
-61.72
-60.39
-57.56
-52.85
-46.82
-40.76
-36.11
-33.94
-34.65
-38.21
-44.04
-51.08
-58.54
-66.16
-74.01
-82.34
-91.28
-100.75
-110.51
-120.27
-129.21
-136.74
-142.45
-146.12
-147.46
-145.96
-140.79
-130.56
-116.94
-100.58
-82.29
-63.05
-43.95
-26.06
-10.15
3.33
14.29
22.75
29.17
33.72
36.30
36.71
34.91
31.42
27.30
24.06
23.02
25.33
31.03
39.15
48.21
56.86
64.64
72.20
81.01
92.54
107.64
125.67
144.71
162.35
176.70
187.36
195.48
203.25
213.01
226.67
245.43
269.64
298.46
329.28
357.31
375.96
378.58
360.70
321.77
265.45
197.81
124.62
48.89
-29.23
-110.64
-194.21
-274.92
-344.41
-394.00
-418.41
-418.19
-399.24
-370.01
-337.97
-307.11
-277.75
-248.41
-218.04
-187.29
-158.16
-132.41
-110.14
-89.39
-66.84
-39.34
-5.32
34.46
76.56
115.99
147.59
167.82
176.05
174.87
168.99
163.36
161.18
163.10
167.71
172.94
177.47
181.19
184.68
188.06
190.35
189.57
183.76
172.07
155.34
135.83
116.44
99.65
86.71
77.56
71.16
66.10
61.19
55.83
49.97
43.79
37.40
30.66
23.27
15.04
6.16
-2.69
-10.66
-16.99
-21.37
-24.00
-25.37
-26.01
-26.26
-26.22
-25.81
-25.05
-24.10
-23.31
-23.00
-23.24
-23.61
-23.27
-21.25
-16.97
-10.52
-2.80
4.86
11.18
15.44
17.68
18.47
18.49
18.11
17.28
15.77
13.54
10.93
8.63
7.35
7.39
8.49
9.91
10.82
10.71
9.58
7.91
6.36
5.44
5.27
5.52
5.60
4.85
2.87
-0.45
-4.77
-9.48
-13.79
-16.96
-18.35
-17.43
-13.95
-8.22
-1.38
4.65
7.74
6.49
1.09
-6.61
-13.75
-17.77
-17.55
-13.78
-8.36
-3.26
0.39
2.64
4.16
5.60
7.00
7.91
7.81
6.58
4.62
2.68
1.50
1.49
2.52
4.09
5.55
6.39
6.49
6.05
5.42
4.91
4.52
3.97
2.86
0.85
-2.13
-5.86
-9.98
-14.07
-17.80
-21.04
-23.72
-25.80
-27.12
-27.41
-26.37
-23.86
-19.98
-15.16
-10.03
-5.24
-1.29
1.63
3.57
4.74
5.33
5.42
5.03
4.14
2.75
1.00
-0.85
-2.51
-3.60
-3.87
-3.24
-1.88
-0.10
1.77
3.56
5.35
7.33
9.70
12.35
14.85
16.54
16.82
15.45
12.74
9.45
6.50
4.67
4.26
4.96
6.01
6.53
5.84
3.73
0.53
-2.99
-5.84
-7.08
-5.96
-2.28
3.24
8.82
12.04
10.74
4.08
-6.73
-18.77
-28.54
-33.51
-33.07
-28.54
-22.11
-15.68
-10.09
-5.19
-0.61
3.63
6.96
8.64
8.44
7.03
5.76
6.07
8.87
13.91
19.90
24.93
27.22
25.84
21.27
15.17
9.78
7.07
7.86
11.41
15.79
18.71
18.57
15.51
11.25
8.41
9.38
14.93
23.75
33.04
39.89
42.59
41.88
40.31
41.10
46.73
57.84
73.33
91.45
110.50
128.60
143.38
151.51
149.73
137.02
115.93
92.61
75.05
69.77
74.03
81.72
84.56
76.73
59.46
39.78
24.90
17.23
12.70
4.83
-13.68
-44.92
-85.61
-128.17
-165.22
-193.38
-214.31
-233.59
-254.24
-278.26
-304.56
-329.53
-347.06
-351.15
-338.61
-310.63
-272.72
-233.02
-199.95
-173.49
-152.22
-131.49
-105.72
-72.16
-33.09
5.60
38.11
61.62
77.85
90.20
101.92
113.94
124.64
131.58
133.24
130.30
125.00
120.45
118.57
119.95
123.65
127.61
129.61
128.28
123.67
116.04
106.33
94.94
81.98
67.21
50.26
30.96
9.62
-11.41
-31.21
-49.09
-64.83
-78.24
-89.10
-97.19
-102.34
-104.66
-104.73
-103.91
-103.47
-104.46
-107.18
-111.06
-114.91
-117.62
-118.45
-117.65
-116.40
-115.93
-117.35
-121.48
-128.85
-139.43
-151.92
-163.18
-168.59
-163.65
-145.93
-117.01
-82.57
-50.30
-26.70
-14.58
-12.33
-15.41
-19.01
-20.18
-17.81
-12.18
-3.59
8.35
24.39
44.73
68.25
91.92
112.92
128.92
138.94
143.40
143.77
141.76
138.69
135.02
130.49
124.55
116.86
107.63
97.55
87.69
78.94
71.80
66.15
61.79
57.73
53.34
48.47
43.34
38.42
34.13
30.71
28.08
25.95
23.95
21.88
19.68
17.48
15.46
13.76
12.50
11.62
11.03
10.54
10.12
9.75
9.50
9.46
9.63
10.09
10.78
11.57
12.33
12.94
13.37
13.60
14.00
14.24
14.20
13.63
12.28
9.90
6.47
2.17
-2.58
-7.23
-11.34
-14.59
-16.94
-18.61
-19.85
-20.80
-21.29
-20.94
-19.31
-16.19
-11.69
-6.37
-1.06
3.53
7.01
9.45
11.36
13.33
15.84
19.29
23.98
29.94
36.65
42.73
46.10
44.56
36.88
23.57
6.96
-9.55
-22.88
-31.31
-34.93
-35.04
-33.28
-30.71
-27.62
-23.84
-19.26
-14.11
-8.98
-4.38
-0.52
2.81
6.01
9.47
13.21
16.88
20.02
22.35
24.10
25.91
28.58
32.62
38.26
45.08
52.33
59.39
66.12
72.85
80.11
88.17
96.79
105.37
113.07
119.31
124.07
127.76
131.13
135.10
140.67
148.76
159.72
172.68
185.17
193.53
193.95
183.95
163.42
134.79
101.80
67.88
34.75
2.14
-31.31
-66.53
-103.02
-138.93
-171.95
-200.56
-224.34
-243.30
-256.71
-262.62
-258.37
-242.27
-215.28
-181.29
-145.88
-113.78
-86.90
-64.11
-43.08
-22.94
-5.66
4.50
3.52
-9.91
-33.52
-62.73
-93.04
-121.45
-146.57
-167.70
-184.03
-195.13
-202.62
-211.18
-227.48
-257.02
-300.26
-350.85
-397.25
-427.25
-432.52
-411.68
-369.41
-313.13
-249.53
-182.40
-113.12
-42.36
27.81
94.32
152.91
200.29
236.10
263.12
285.92
308.21
330.73
349.52
359.16
353.40
329.29
288.97
238.99
187.36
140.09
98.98
60.51
20.84
-25.48
-81.42
-145.64
-212.26
-272.49
-317.18
-339.71
-339.38
-317.50
-281.05
-237.43
-191.14
-142.53
-89.30
-29.20
45.15
117.13
181.72
230.56
257.67
262.66
250.85
231.11
212.56
201.79
199.89
206.67
216.01
220.44
214.26
194.87
162.39
118.89
67.76
11.95
-36.59
-68.05
-80.38
-78.40
-68.01
-53.09
-35.89
-18.35
-3.33
7.96
13.54
12.88
7.92
2.21
-1.07
-0.53
3.27
8.27
12.94
15.14
13.69
9.20
3.64
-0.96
-3.43
-3.67
-2.38
-0.22
1.73
2.72
2.89
3.15
4.38
7.02
10.87
15.43
20.11
24.18
27.17
29.09
30.47
31.91
33.87
36.48
39.67
43.20
46.66
49.54
51.26
51.59
50.27
47.11
42.00
35.02
26.39
16.50
6.25
-3.92
-13.44
-21.77
-28.56
-33.61
-36.87
-38.48
-38.73
-37.92
-36.43
-34.53
-32.47
-30.38
-28.36
-26.40
-24.54
-22.79
-21.08
-19.44
-17.85
-16.31
-14.82
-13.65
-12.56
-11.54
-10.58
-9.69
-8.90
-8.20
-7.59
-7.07
-6.64
-6.26
-5.95
-5.71
-5.56
-5.51
-5.54
-5.65
-5.85
-6.13
-6.47
-6.85
-7.30
-7.82
-8.41
-9.08
-9.89
-10.85
-11.99
-13.30
-14.70
-16.21
-17.77
-19.37
-21.00
-22.72
-24.56
-26.53
-28.59
-30.67
-32.76
-34.85
-36.95
-39.02
-41.01
-42.71
-43.76
-44.00
-42.46
-38.45
-31.55
-21.65
-9.18
4.98
19.81
34.03
46.53
56.45
63.13
66.13
65.20
60.11
50.72
37.69
22.06
5.54
-9.73
-21.73
-29.07
-31.38
-29.46
-25.17
-19.88
-14.91
-10.80
-7.38
-4.31
-1.88
-0.92
-2.93
-9.74
-21.49
-37.70
-57.14
-78.66
-101.50
-124.97
-147.02
-162.08
-169.21
-164.48
-146.74
-117.94
-82.25
-43.88
-6.04
29.56
60.65
82.73
90.40
78.37
45.42
-3.31
-56.76
-101.54
-126.49
-127.34
-108.05
-77.20
-44.95
-18.29
0.92
15.36
26.62
37.64
51.27
69.88
95.44
127.91
164.86
200.69
227.74
238.65
229.47
200.26
154.05
95.41
28.69
-41.71
-110.53
-171.04
-216.25
-241.16
-245.89
-236.29
-221.59
-210.50
-207.60
-212.37
-220.80
-228.22
-231.64
-230.70
-226.84
-221.71
-216.15
-210.18
-203.79
-197.83
-194.21
-195.71
-205.09
-224.06
-252.62
-288.90
-329.68
-371.22
-410.00
-443.29
-469.20
-486.52
-494.45
-492.36
-479.85
-456.83
-423.83
-382.02
-333.20
-279.50
-223.11
-165.95
-109.54
-55.02
-3.25
44.98
88.92
127.89
162.17
192.20
218.41
241.18
261.15
279.32
296.91
314.92
333.91
354.46
376.20
397.59
416.10
428.99
433.99
429.79
416.16
393.96
366.72
337.99
310.38
285.15
262.88
244.06
229.13
218.06
210.29
209.67
218.15
234.30
253.44
270.37
281.62
285.70
282.37
271.95
265.12
269.65
286.71
310.87
335.50
357.04
375.34
391.95
408.62
442.76
505.92
598.08
707.56
820.24
926.96
1024.74
1114.31
1196.96
1293.10
1413.90
1554.03
1693.31
1811.12
1897.06
1951.99
1982.57
1865.98
1543.99
1044.02
468.37
-75.12
-523.29
-860.16
-1096.52
-1253.00
-1350.92
-1388.09
-1365.93
-1297.17
-1210.73
-1134.95
-1087.15
-1071.19
-1080.71
-1104.48
-1115.20
-1094.06
-1031.57
-938.59
-834.19
-734.86
-649.17
-579.38
-524.58
-473.20
-417.15
-355.60
-295.21
-242.76
-201.61
-170.59
-147.24
-129.62
-111.97
-91.06
-66.85
-43.88
-26.54
-17.55
-16.32
-21.57
-32.04
-45.01
-58.42
-71.59
-85.49
-97.75
-108.82
-118.07
-125.59
-131.63
-136.53
-140.27
-142.85
-144.20
-144.02
-146.33
-149.30
-151.55
-151.84
-148.86
-141.02
-127.35
-107.38
-78.35
-45.03
-11.99
16.31
37.22
49.30
54.09
53.35
49.22
43.36
35.47
25.58
12.89
-3.39
-23.35
-45.15
-64.94
-76.01
-71.25
-46.92
-3.03
55.85
122.28
185.70
236.82
263.25
258.56
225.94
175.82
120.00
66.16
17.80
-23.99
-58.02
-82.92
-97.61
-102.59
-100.59
-95.70
-91.62
-90.37
-92.21
-95.61
-97.04
-93.12
-82.20
-65.02
-43.98
-21.87
-0.63
18.84
37.56
57.54
80.32
106.13
133.61
160.45
184.69
205.84
219.39
218.04
199.12
164.20
118.52
68.59
19.74
-24.79
-63.54
-96.40
-122.71
-141.65
-153.32
-158.63
-159.41
-157.93
-155.92
-154.12
-153.08
-150.62
-143.84
-130.78
-110.82
-84.75
-54.14
-20.72
14.25
47.57
77.86
104.77
127.96
146.92
160.81
169.00
171.27
168.18
160.79
151.15
141.44
133.54
129.04
128.64
131.41
134.32
132.55
120.85
96.34
60.00
17.23
-23.40
-53.17
-66.60
-63.37
-47.63
-25.57
-2.35
18.94
36.72
49.54
55.10
51.26
37.87
18.81
-0.47
-13.79
-17.64
-13.19
-5.28
0.36
0.19
-5.88
-15.29
-24.80
-32.19
-37.14
-40.44
-42.29
-41.45
-35.52
-22.72
-3.32
19.66
41.32
56.81
63.35
61.68
55.68
50.55
49.80
54.38
62.75
72.30
81.00
88.43
95.47
103.41
112.94
123.09
132.46
139.83
144.59
146.90
147.23
145.65
141.15
136.24
130.87
124.50
116.71
107.51
97.24
86.41
75.37
64.22
52.98
41.00
28.15
14.75
1.38
-11.38
-23.26
-34.41
-45.20
-55.94
-67.09
-78.61
-90.14
-101.40
-112.49
-123.97
-136.82
-151.89
-169.48
-189.45
-210.95
-232.79
-253.95
-273.87
-292.52
-310.25
-328.01
-347.38
-370.73
-400.05
-435.41
-473.60
-507.63
-528.32
-527.34
-500.40
-449.18
-380.79
-304.91
-230.09
-161.43
-100.05
-44.30
8.06
58.73
108.84
159.95
214.49
274.68
340.29
406.79
465.65
506.92
523.83
516.21
490.87
458.45
428.47
405.70
389.48
376.12
362.14
346.37
329.40
311.83
292.79
270.09
241.80
207.92
170.60
132.92
97.22
63.86
31.58
-1.33
-35.73
-71.31
-106.80
-140.94
-173.04
-203.21
-232.59
-263.23
-297.51
-337.25
-382.06
-427.90
-467.06
-490.15
-489.69
-463.35
-415.05
-353.45
-288.56
-228.05
-175.90
-133.02
-99.09
-73.90
-57.29
-47.90
-42.49
-36.45
-25.55
-8.04
14.93
40.39
65.27
87.79
107.81
126.17
143.85
161.22
177.74
192.12
202.41
206.55
202.96
191.22
172.32
148.21
120.62
89.94
55.32
16.02
-27.38
-72.06
-113.74
-148.31
-172.92
-185.97
-186.07
-171.26
-140.22
-94.66
-41.16
9.59
46.49
62.53
57.53
37.34
10.09
-17.95
-44.54
-70.79
-98.20
-126.43
-152.40
-171.81
-181.38
-180.81
-172.79
-161.87
-152.71
-148.45
-149.97
-155.49
-161.00
-161.32
-151.54
-128.20
-90.18
-39.11
20.56
81.94
137.36
180.50
208.32
222.14
226.86
228.74
233.14
242.60
255.93
268.90
276.01
272.73
257.58
232.52
202.28
172.63
148.24
131.31
121.13
114.55
107.27
95.48
76.82
50.97
19.39
-15.08
-49.12
-79.69
-105.05
-124.90
-140.20
-152.50
-162.92
-171.45
-176.65
-175.95
-166.70
-147.79
-120.72
-89.58
-59.91
-36.19
-20.29
-10.98
-5.19
0.29
7.06
15.19
23.71
31.59
38.31
43.13
44.62
40.86
30.72
15.21
-2.08
-16.14
-22.75
-20.28
-9.98
5.41
23.57
43.66
65.87
89.69
112.74
131.18
141.69
143.78
140.89
138.93
143.16
155.55
173.67
192.48
207.10
215.12
216.81
213.72
206.93
195.91
179.41
156.72
128.94
99.16
71.31
48.77
33.24
24.59
21.38
21.53
22.92
23.73
22.74
19.39
14.00
7.47
0.92
-5.16
-11.03
-17.75
-26.95
-40.48
-60.17
-87.09
-120.73
-158.19
-193.96
-220.90
-232.98
-227.84
-208.26
-181.38
-155.93
-138.79
-133.09
-138.32
-151.90
-171.34
-194.96
-221.40
-248.56
-273.31
-292.30
-303.54
-307.47
-306.58
-303.94
-301.35
-298.29
-292.58
-281.81
-264.50
-240.64
-211.03
-176.58
-138.17
-97.32
-57.01
-21.94
2.69
13.24
9.48
-4.84
-22.90
-37.29
-42.21
-34.89
-15.94
11.30
42.25
72.25
97.20
114.42
122.65
122.32
115.63
105.86
96.75
91.74
93.01
100.41
111.37
120.95
123.68
115.62
96.63
70.66
44.48
24.91
16.08
18.30
29.01
45.40
66.33
92.40
123.82
157.68
186.77
201.23
192.54
156.81
96.50
19.43
-64.18
-144.15
-212.44
-264.13
-297.49
-313.93
-317.65
-314.43
-309.92
-307.99
-309.83
-314.37
-319.31
-322.39
-321.63
-315.35
-302.03
-280.49
-250.46
-213.12
-171.20
-128.20
-87.63
-51.88
-21.89
2.58
22.48
38.71
51.69
61.26
67.02
68.88
67.43
64.10
60.91
59.90
62.54
69.38
79.92
92.98
107.08
121.05
134.35
147.17
160.19
174.27
190.07
207.56
225.93
243.50
258.32
268.82
274.55
276.43
276.45
277.08
280.42
287.73
299.06
313.19
327.92
340.41
348.05
349.33
344.41
335.33
325.81
320.34
322.75
334.47
353.06
372.01
382.08
374.35
343.28
288.82
215.98
132.79
47.72
-31.91
-99.94
-150.98
-181.06
-189.86
-182.70
-170.14
-164.36
-173.53
-197.69
-228.70
-254.35
-264.08
-252.85
-221.85
-176.25
-122.70
-68.09
-19.70
14.64
27.60
14.38
-24.98
-84.52
-153.35
-218.17
-266.36
-288.98
-282.85
-251.33
-203.16
-149.56
-100.48
-61.73
-34.10
-14.74
0.28
13.56
25.67
35.42
41.12
41.58
36.69
27.82
17.79
10.51
9.74
17.82
34.55
57.10
81.21
102.92
120.07
132.45
140.94
146.23
148.39
146.88
141.48
132.93
122.90
113.02
103.94
94.81
83.86
69.77
52.62
34.23
17.58
5.45
-0.61
-0.83
3.08
8.67
13.99
17.78
19.63
19.90
19.52
19.74
21.60
25.57
31.28
38.52
46.57
54.37
60.80
65.17
67.58
68.83
70.09
72.44
78.24
88.44
102.05
116.44
128.84
137.73
143.14
146.28
148.71
154.29
165.28
181.50
200.50
219.10
234.66
245.22
249.49
246.72
240.45
233.90
228.52
223.37
216.47
206.34
192.63
176.26
137.95
70.74
-18.25
-110.67
-188.96
-244.86
-278.92
-295.79
-300.52
-297.20
-285.59
-265.83
-239.91
-212.04
-186.21
-164.45
-146.73
-131.73
-117.89
-101.60
-80.64
-55.19
-28.67
-4.73
14.78
28.96
38.11
42.83
45.34
47.18
48.95
47.95
42.13
31.36
17.41
3.14
-8.77
-15.61
-15.78
-9.03
-0.09
6.86
9.65
8.37
4.37
-1.45
-9.14
-20.67
-31.09
-44.32
-64.02
-91.25
-123.83
-157.78
-189.55
-217.01
-239.40
-257.13
-277.98
-308.35
-350.65
-402.76
-459.98
-517.81
-573.59
-626.40
-643.34
-607.47
-521.93
-409.26
-296.10
-200.14
-127.67
-76.66
-39.89
-7.28
25.53
61.51
101.46
143.80
184.19
216.98
238.27
248.17
250.61
246.66
237.49
224.25
208.86
193.47
179.82
169.23
162.35
159.14
156.43
151.39
142.75
132.07
122.58
117.23
117.27
121.01
123.89
118.71
101.07
70.76
32.69
-4.90
-34.14
-50.40
-53.50
-46.88
-35.33
-22.50
-10.37
0.50
9.85
16.73
20.09
19.56
15.70
10.16
4.64
-0.46
-6.33
-15.43
-30.80
-54.93
-86.44
-124.59
-166.43
-206.44
-237.37
-251.97
-246.18
-221.52
-184.81
-145.56
-112.85
-91.19
-79.47
-72.74
-66.07
-54.78
-37.47
-14.77
12.29
43.13
77.87
116.32
156.73
196.19
230.65
255.50
267.64
266.17
252.09
227.89
196.61
156.97
111.36
62.34
11.64
-39.14
-87.99
-132.35
-169.36
-196.11
-211.56
-216.73
-213.29
-204.06
-191.96
-178.80
-164.86
-149.09
-128.95
-103.18
-70.69
-32.22
9.95
53.23
96.22
139.41
180.48
219.32
255.36
289.72
322.92
353.30
376.17
384.60
370.83
329.25
266.77
188.61
105.17
29.33
-28.00
-61.62
-73.18
-70.20
-63.89
-63.23
-74.13
-95.51
-122.31
-148.05
-169.74
-186.29
-197.40
-202.15
-198.33
-184.98
-161.49
-129.58
-93.23
-57.41
-27.16
-5.91
5.63
9.04
3.68
-10.10
-31.98
-61.28
-96.59
-133.75
-170.25
-202.97
-227.91
-241.25
-239.06
-218.97
-180.67
-125.70
-57.69
17.65
93.81
164.26
223.49
268.29
297.46
311.50
311.94
300.92
280.84
254.72
225.67
196.44
169.26
145.34
124.93
107.53
92.14
77.81
64.13
51.19
39.33
29.01
20.42
13.45
7.71
2.67
-2.12
-6.83
-11.34
-15.39
-18.72
-21.22
-22.96
-24.16
-25.06
-25.84
-26.55
-27.05
-27.24
-27.08
-26.65
-26.12
-25.63
-25.24
-24.79
-24.06
-22.79
-20.91
-18.61
-16.30
-14.43
-13.22
-12.52
-11.84
-10.54
-8.04
-4.33
0.09
4.29
7.35
8.83
9.04
9.32
10.73
14.29
20.15
27.56
35.07
41.29
45.36
47.75
49.12
50.47
52.67
55.84
59.85
64.05
67.22
67.31
61.54
47.29
23.48
-8.04
-42.75
-74.46
-97.94
-110.87
-114.33
-111.63
-106.18
-99.83
-92.02
-82.52
-71.49
-60.53
-51.92
-47.14
-45.65
-45.13
-42.85
-36.40
-25.98
-13.83
-3.38
2.10
0.59
-7.95
-21.23
-34.79
-42.78
-39.72
-22.72
6.72
42.29
74.52
94.31
96.41
81.58
56.01
28.06
5.12
-9.00
-14.24
-12.99
-8.45
-3.43
0.15
1.32
-0.35
-4.49
-10.13
-15.75
-19.55
-20.50
-18.87
-15.62
-11.93
-8.82
-6.87
-6.35
-7.23
-9.09
-11.46
-14.37
-17.81
-21.76
-26.55
-32.84
-41.88
-55.50
-71.98
-85.61
-91.85
-88.46
-76.25
-58.08
-37.12
-15.76
4.47
22.86
38.94
52.19
62.70
70.98
77.92
84.42
90.98
97.65
103.99
109.12
111.59
110.23
104.41
94.03
79.51
61.44
41.75
22.02
3.36
-13.62
-28.44
-40.68
-50.00
-56.19
-59.34
-59.76
-58.13
-55.22
-51.82
-48.50
-45.60
-43.18
-41.05
-39.11
-37.13
-35.14
-33.21
-31.46
-29.99
-28.84
-28.01
-27.30
-26.73
-26.26
-25.93
-25.79
-25.91
-26.27
-26.89
-27.80
-28.85
-30.16
-31.78
-33.69
-35.88
-38.28
-40.67
-42.72
-45.22
-47.00
-47.61
-46.81
-44.48
-40.69
-35.68
-29.67
-23.00
-16.05
-9.08
-2.56
3.17
7.97
11.78
14.58
16.71
18.60
20.69
23.58
27.59
33.00
40.02
49.31
60.05
71.65
83.52
95.11
105.95
115.52
123.35
129.21
132.93
134.52
133.91
131.11
125.91
118.20
107.86
94.85
79.34
61.68
42.45
22.75
4.03
-12.54
-25.67
-34.23
-37.50
-35.24
-27.77
-15.91
-0.58
17.36
36.35
55.17
72.74
88.08
100.30
108.70
113.02
113.66
111.74
107.84
102.89
97.60
92.11
85.84
77.55
65.56
47.80
28.47
9.21
-8.90
-25.85
-42.74
-61.69
-85.20
-115.31
-152.77
-196.61
-245.58
-297.41
-349.86
-401.31
-450.84
-498.20
-543.73
-588.22
-632.51
-677.28
-720.89
-758.72
-783.73
-788.68
-768.98
-725.15
-662.97
-591.49
-520.10
-454.98
-398.14
-348.42
-303.32
-260.69
-219.38
-178.43
-136.46
-91.41
-41.38
14.11
73.40
133.10
188.94
236.94
274.47
300.71
316.96
325.50
328.64
328.09
324.79
319.18
311.64
302.73
293.11
284.36
277.46
272.22
267.38
261.37
253.13
242.50
230.33
218.06
209.86
208.85
215.51
227.77
242.57
257.28
270.19
280.40
287.44
296.34
310.42
329.12
348.23
362.94
370.64
371.37
366.89
359.66
360.66
377.44
410.69
454.55
501.35
545.92
586.47
623.28
657.25
699.95
758.58
831.46
908.53
977.76
1030.88
1064.58
1078.88
1007.08
819.40
534.19
210.21
-92.07
-339.07
-524.26
-655.75
-745.96
-806.49
-835.55
-832.59
-803.32
-759.88
-715.12
-677.23
-648.96
-629.60
-616.98
-600.01
-570.88
-529.03
-480.84
-434.97
-396.89
-368.41
-348.87
-336.42
-323.10
-302.96
-274.96
-243.07
-213.06
-189.28
-173.53
-165.46
-163.45
-161.81
-155.62
-143.13
-126.01
-107.75
-91.19
-77.40
-65.30
-51.94
-33.28
-4.98
35.07
85.98
144.62
207.40
271.65
336.28
391.57
429.41
445.04
439.19
417.73
388.23
355.85
321.15
280.62
229.31
165.90
94.06
21.78
-41.50
-88.75
-117.83
-131.64
-135.99
-136.59
-135.76
-133.07
-127.23
-118.02
-107.08
-97.11
-90.25
-87.03
-86.39
-85.74
-82.65
-76.12
-66.80
-56.65
-47.73
-41.34
-37.53
-35.38
-33.28
-29.98
-25.18
-19.55
-14.28
-10.50
-8.70
-8.68
-9.86
-11.57
-13.50
-15.81
-18.90
-22.98
-27.83
-32.79
-37.13
-40.39
-42.67
-44.70
-47.36
-51.23
-56.10
-61.01
-64.76
-66.45
-65.97
-64.24
-62.78
-63.04
-65.89
-71.41
-78.96
-87.20
-94.43
-98.73
-98.07
-90.91
-77.36
-59.60
-41.78
-28.61
-23.46
-26.52
-34.65
-42.85
-47.30
-47.84
-48.24
-53.85
-67.98
-89.37
-112.61
-130.98
-140.16
-139.90
-133.37
-124.19
-113.90
-102.18
-88.32
-72.72
-57.69
-46.65
-42.00
-43.05
-45.95
-45.58
-38.09
-22.31
0.15
26.03
51.84
75.09
94.62
110.70
124.50
137.58
151.71
168.58
189.92
216.98
250.03
286.85
322.00
347.49
354.85
338.38
297.64
238.05
168.77
99.13
35.18
-21.48
-72.23
-118.33
-158.37
-188.26
-203.64
-202.96
-189.18
-168.70
-147.90
-129.83
-112.96
-92.65
-64.94
-29.80
7.68
39.20
57.10
57.94
43.93
21.73
-0.26
-14.94
-18.22
-8.86
12.52
44.50
84.98
130.68
176.00
213.20
233.89
231.63
204.42
155.95
94.60
30.45
-28.06
-76.13
-112.95
-140.41
-160.96
-176.03
-185.54
-188.60
-185.34
-177.93
-170.29
-166.38
-167.99
-173.45
-178.25
-177.48
-168.72
-153.90
-138.95
-131.44
-137.25
-158.15
-190.96
-228.66
-262.86
-286.75
-296.87
-293.63
-280.42
-261.70
-240.90
-219.41
-196.33
-170.25
-140.93
-110.04
-80.24
-53.81
-31.40
-11.62
8.03
30.22
56.17
85.29
115.51
144.44
170.61
193.91
215.45
236.72
259.71
285.32
313.52
343.96
376.87
412.81
451.19
488.26
516.49
528.91
519.48
485.38
427.63
350.97
262.44
169.54
79.07
-2.87
-65.34
-99.64
-102.82
-80.39
-43.65
-4.52
28.63
52.53
68.18
86.82
117.52
162.94
217.48
272.39
321.89
364.96
403.83
441.48
490.77
560.41
652.22
758.88
869.70
977.28
1079.27
1176.58
1203.51
1118.88
923.51
666.04
406.15
179.75
-6.10
-159.66
-290.76
-404.02
-482.79
-522.68
-524.56
-498.91
-461.36
-425.06
-397.02
-379.05
-370.58
-363.15
-348.49
-324.28
-295.54
-269.80
-251.86
-242.33
-239.30
-240.63
-240.00
-233.62
-220.86
-205.29
-191.96
-184.02
-181.98
-184.52
-189.84
-194.12
-195.27
-193.47
-191.70
-193.67
-201.01
-211.84
-221.36
-224.13
-215.41
-194.06
-162.51
-125.54
-88.10
-53.61
-23.99
-0.61
15.05
21.63
19.12
9.58
-3.15
-14.99
-23.62
-29.20
-33.47
-37.83
-41.73
-42.14
-34.94
-16.73
13.37
52.71
95.68
135.30
165.38
182.28
185.65
177.81
162.37
142.55
120.42
96.96
72.81
49.19
27.84
10.46
-2.56
-12.73
-23.03
-36.75
-55.69
-79.40
-105.51
-130.88
-153.24
-172.31
-189.83
-208.73
-231.96
-261.52
-297.97
-340.00
-384.37
-425.89
-458.29
-475.86
-475.10
-455.99
-422.37
-380.31
-335.94
-293.46
-254.24
-217.47
-181.45
-145.08
-108.43
-72.28
-37.10
-2.06
35.44
79.33
133.24
198.72
273.51
351.33
423.54
481.80
520.72
539.15
539.51
526.05
502.86
472.86
437.90
399.66
360.31
322.20
287.23
256.33
229.03
204.12
180.41
157.29
134.75
112.94
91.94
71.36
50.70
29.63
8.47
-11.91
-30.44
-46.62
-60.99
-75.25
-91.67
-112.06
-136.82
-164.52
-192.68
-218.70
-241.32
-261.22
-280.72
-303.05
-331.23
-367.52
-412.73
-465.52
-521.02
-570.90
-604.60
-613.22
-594.24
-554.24
-507.75
-471.74
-458.61
-471.04
-501.75
-537.62
-565.84
-578.57
-574.01
-554.63
-524.25
-486.26
-443.38
-398.30
-353.96
-313.02
-277.21
-246.54
-219.69
-194.57
-169.10
-141.78
-112.07
-80.45
-48.39
-18.06
8.92
31.67
50.75
67.75
84.46
102.20
121.69
143.03
165.86
189.33
211.92
231.44
245.27
251.04
247.32
233.99
212.25
184.26
152.79
120.89
91.77
68.35
52.58
44.94
44.01
47.22
52.04
57.13
62.63
69.99
80.98
96.75
116.57
137.25
154.12
162.60
159.96
146.48
125.63
102.96
84.74
75.12
74.84
81.66
92.01
102.95
113.32
123.49
134.67
149.23
168.64
193.25
223.10
258.42
299.63
346.24
395.06
440.04
475.36
495.61
497.94
483.44
457.22
426.44
397.26
372.21
350.00
329.57
309.32
288.15
265.99
243.80
223.37
205.88
191.38
164.39
117.80
54.74
-13.14
-73.66
-119.29
-146.96
-156.78
-152.06
-138.73
-122.28
-108.22
-100.31
-99.12
-101.70
-103.44
-101.17
-95.14
-87.99
-81.18
-75.43
-70.54
-66.00
-61.46
-57.07
-53.86
-53.58
-57.39
-64.74
-74.31
-85.16
-97.27
-111.39
-128.40
-146.05
-162.37
-172.98
-172.07
-155.83
-125.15
-85.90
-46.77
-15.63
3.49
10.91
10.60
7.31
4.20
1.92
-0.31
-3.27
-6.69
-9.48
-10.88
-10.68
-9.67
-8.97
-9.88
-12.87
-17.58
-22.95
-27.70
-30.88
-31.92
-30.85
-28.17
-24.82
-21.64
-19.08
-17.09
-14.87
-11.41
-5.57
3.35
15.41
29.54
44.06
57.22
67.98
76.26
82.92
89.37
95.65
102.85
111.07
120.05
129.16
136.97
140.88
137.39
123.43
98.01
63.83
26.46
-7.35
-32.35
-47.03
-53.95
-58.17
-64.28
-73.44
-82.99
-87.91
-83.54
-68.17
-43.96
-15.74
11.23
33.63
50.33
61.44
66.20
62.34
47.04
18.98
-19.24
-60.64
-95.26
-113.61
-110.22
-85.83
-46.67
-1.61
40.69
74.16
95.57
103.93
99.51
83.40
57.79
26.55
-4.59
-29.32
-42.20
-41.65
-30.47
-13.91
2.99
17.25
27.94
35.91
42.09
46.91
50.12
51.50
51.29
50.01
48.17
45.71
42.32
37.39
30.31
20.72
8.87
-4.38
-17.79
-29.20
-38.31
-45.04
-49.75
-53.02
-55.25
-56.44
-57.51
-57.25
-55.12
-51.49
-47.25
-43.59
-41.65
-42.05
-44.75
-47.24
-49.67
-51.90
-53.97
-55.95
-57.95
-59.89
-61.77
-63.94
-67.22
-72.44
-78.86
-83.86
-83.00
-71.98
-48.98
-16.12
21.17
56.60
85.37
105.16
115.32
115.57
105.06
83.46
52.80
18.23
-12.29
-30.99
-33.80
-21.74
-0.11
24.22
45.90
62.55
75.00
84.01
91.03
95.84
97.27
93.75
84.11
68.16
47.15
23.42
-0.21
-20.22
-35.63
-46.67
-54.64
-61.14
-67.58
-74.81
-83.18
-92.32
-100.55
-105.03
-101.88
-87.71
-61.65
-26.32
12.25
46.97
72.48
87.12
92.93
94.52
96.51
101.46
108.58
114.21
113.44
102.18
79.25
47.05
11.04
-22.62
-48.57
-64.79
-72.48
-74.83
-75.12
-75.26
-75.56
-75.82
-76.06
-76.88
-79.12
-83.11
-88.35
-93.95
-99.18
-103.55
-107.40
-111.07
-114.54
-117.36
-118.65
-117.56
-113.80
-108.29
-101.51
-94.73
-89.38
-86.02
-83.39
-77.97
-64.68
-38.71
2.42
56.69
116.81
171.77
210.44
225.41
215.71
187.00
148.95
111.99
83.90
67.58
61.41
61.26
62.57
61.73
56.21
43.59
21.81
-10.53
-52.47
-99.71
-144.47
-177.63
-192.41
-185.50
-162.38
-132.92
-108.02
-92.50
-86.24
-85.27
-84.44
-80.29
-72.38
-62.68
-53.48
-46.01
-40.03
-34.96
-30.35
-26.56
-24.53
-25.52
-30.00
-37.32
-46.01
-54.30
-61.20
-66.66
-71.48
-76.93
-84.12
-92.78
-101.59
-108.73
-112.60
-112.73
-109.75
-104.92
-99.38
-95.33
-92.11
-87.72
-79.80
-66.90
-49.27
-28.92
-8.73
8.59
21.50
32.08
43.76
60.04
82.91
111.86
144.16
176.33
205.56
230.84
255.83
285.72
325.69
379.41
448.22
531.24
625.55
726.09
810.31
856.18
845.95
773.94
650.12
496.41
337.79
193.80
74.08
-20.91
-93.61
-147.25
-183.83
-204.71
-212.26
-210.80
-205.89
-202.63
-204.04
-208.68
-213.07
-213.18
-206.67
-193.88
-177.53
-161.37
-148.64
-140.89
-136.76
-133.49
-128.18
-119.07
-106.25
-91.37
-76.79
-64.56
-55.60
-49.09
-43.39
-36.74
-28.09
-17.48
-5.91
5.29
14.87
22.48
28.70
34.47
40.72
47.79
55.04
61.06
64.57
63.55
57.17
45.68
30.05
11.60
-8.55
-29.71
-51.80
-74.15
-96.36
-117.18
-134.74
-147.01
-152.90
-152.47
-147.29
-139.92
-133.08
-129.06
-129.07
-133.49
-141.71
-152.00
-161.07
-164.61
-158.59
-141.41
-115.20
-85.20
-58.38
-39.52
-30.42
-29.55
-33.69
-39.75
-46.63
-54.88
-65.27
-77.31
-88.79
-96.09
-95.50
-85.46
-66.73
-43.54
-22.43
-9.37
-7.35
-15.14
-27.54
-37.76
-39.81
-30.26
-8.65
23.36
62.82
106.01
148.24
184.42
210.15
223.10
223.85
215.28
201.39
185.46
169.79
154.28
138.48
121.93
104.25
84.95
63.52
39.81
14.66
-10.25
-32.39
-49.07
-58.18
-58.88
-51.83
-38.93
-22.84
-6.28
8.40
19.64
26.68
29.39
28.00
22.97
14.87
4.41
-7.51
-19.82
-31.32
-40.87
-47.62
-51.20
-51.76
-49.89
-46.60
-42.88
-39.60
-37.42
-36.45
-36.65
-37.64
-39.09
-40.72
-42.45
-44.24
-46.05
-47.80
-49.06
-49.51
-48.46
-45.53
-40.72
-34.41
-27.16
-19.57
-12.15
-4.83
2.50
10.74
20.60
32.44
46.21
61.87
79.73
97.35
113.89
128.92
143.19
157.20
170.92
183.62
194.29
201.84
205.34
204.59
193.32
168.67
131.14
84.63
34.40
-14.73
-59.80
-99.65
-133.93
-162.94
-186.31
-204.09
-216.68
-225.26
-230.82
-234.38
-236.62
-237.51
-236.82
-233.29
-226.91
-216.64
-202.11
-183.01
-159.52
-132.05
-101.11
-67.39
-31.19
6.95
46.47
83.51
115.62
141.28
159.93
171.78
177.50
178.19
174.93
168.75
160.32
150.57
140.17
129.53
119.00
108.66
98.68
89.11
80.04
71.50
63.81
57.11
51.26
46.15
41.54
37.18
32.88
28.67
24.70
21.42
19.15
17.78
17.22
17.14
17.18
17.13
17.01
17.08
17.70
20.15
23.34
26.32
28.14
28.10
25.91
21.82
16.51
10.81
5.51
1.12
-1.68
-2.43
-1.22
0.92
2.11
0.21
-6.18
-16.89
-30.17
-43.22
-53.62
-60.34
-63.77
-65.02
-64.96
-63.63
-60.54
-55.29
-48.06
-39.81
-31.88
-25.43
-20.98
-18.49
-17.50
-17.40
-17.55
-17.42
-16.64
-15.19
-13.29
-11.31
-9.65
-8.67
-8.72
-10.20
-13.33
-17.98
-23.50
-28.78
-32.52
-33.70
-32.06
-28.17
-23.32
-18.93
-16.05
-15.02
-15.38
-16.03
-15.63
-13.09
-8.02
-1.06
6.25
12.00
14.63
13.65
9.85
4.98
1.02
-0.63
0.35
3.34
7.15
10.59
12.95
13.97
13.64
12.01
9.00
4.62
-0.83
-6.55
-11.37
-14.17
-14.34
-12.22
-8.98
-6.07
-4.58
-4.71
-5.71
-6.45
-5.98
-4.09
-1.30
1.45
3.32
3.95
3.55
2.70
2.16
2.49
4.12
7.20
11.58
16.67
21.35
24.23
24.05
20.27
13.43
5.21
-2.18
-6.78
-7.69
-5.32
-1.13
2.95
5.19
4.64
1.39
-3.60
-8.92
-13.25
-15.83
-16.60
-16.08
-15.14
-14.45
-14.15
-13.87
-13.16
-11.91
-10.52
-9.40
-8.81
-8.89
-9.34
-9.46
-8.56
-6.54
-4.23
-3.39
-5.26
-10.49
-18.94
-29.13
-38.55
-44.82
-47.07
-46.71
-47.01
-50.58
-57.92
-68.19
-79.03
-88.11
-93.87
-94.84
-88.67
-71.91
-41.76
3.42
60.41
121.46
177.03
219.63
246.89
262.48
263.80
254.29
238.16
216.32
186.36
145.38
93.80
36.81
-17.68
-62.63
-93.79
-111.92
-121.17
-125.96
-128.69
-129.78
-129.00
-128.33
-128.72
-130.46
-133.33
-136.12
-136.59
-132.16
-121.06
-103.32
-80.64
-55.71
-31.01
-8.64
10.00
24.53
35.51
44.15
50.84
55.87
59.37
61.44
61.92
60.66
57.64
53.07
47.37
40.99
34.48
28.41
23.16
18.93
15.74
13.52
12.22
11.90
12.63
14.58
17.78
21.83
26.01
29.27
30.48
28.67
23.32
14.48
2.77
-10.69
-24.78
-38.45
-50.93
-61.58
-69.88
-75.28
-77.22
-75.29
-69.34
-59.65
-46.80
-31.65
-15.32
0.81
15.14
26.10
32.71
35.15
34.88
34.36
36.07
41.44
50.20
60.51
69.83
75.96
77.90
75.89
70.98
64.39
56.98
49.28
41.72
34.80
29.14
25.28
23.35
22.94
23.27
23.44
22.82
21.22
18.90
16.41
14.36
13.14
12.86
13.37
14.45
15.94
17.81
20.16
23.10
26.61
30.45
34.23
37.54
40.01
41.45
41.73
40.78
38.50
34.69
29.25
22.29
14.23
5.84
-2.01
-8.54
-13.39
-16.75
-19.29
-21.85
-25.12
-29.31
-34.04
-38.53
-41.96
-44.02
-45.04
-46.10
-48.52
-53.35
-60.89
-70.47
-80.66
-89.51
-94.95
-95.14
-89.17
-77.56
-62.69
-48.34
-38.58
-36.12
-41.16
-51.15
-61.75
-68.69
-69.21
-62.63
-49.98
-32.92
-12.91
8.99
31.70
53.49
71.81
83.75
87.20
81.74
69.16
53.12
37.84
26.50
20.28
18.08
17.47
16.02
12.38
6.65
-0.26
-7.40
-14.25
-20.38
-25.12
-27.56
-27.18
-24.54
-21.48
-20.38
-22.75
-28.17
-34.26
-37.94
-37.29
-32.85
-27.41
-24.41
-26.06
-32.25
-40.91
-49.55
-56.84
-63.30
-70.73
-80.81
-93.62
-107.30
-118.59
-124.45
-123.30
-115.41
-102.70
-87.54
-71.69
-55.55
-38.49
-19.54
1.76
24.95
48.98
72.19
92.69
108.74
119.27
124.20
124.70
122.97
120.08
117.44
116.08
115.96
115.79
113.57
107.63
97.48
83.96
68.78
54.41
43.01
35.96
33.52
34.90
38.36
41.81
42.76
39.00
29.41
14.28
-4.32
-23.10
-38.60
-48.46
-52.20
-51.19
-47.50
-42.68
-37.32
-31.34
-24.91
-18.74
-14.73
-14.76
-19.33
-26.76
-33.64
-36.53
-33.56
-25.19
-14.01
-3.36
4.10
7.17
6.11
2.08
-3.62
-9.67
-14.79
-17.47
-16.24
-10.18
0.32
13.33
25.71
34.17
36.71
33.30
26.04
18.05
12.07
9.23
8.73
8.42
6.00
0.24
-8.60
-18.99
-29.01
-37.22
-43.27
-47.93
-52.44
-57.77
-63.96
-70.06
-74.69
-76.84
-76.55
-74.83
-73.15
-72.50
-72.86
-73.09
-71.73
-67.74
-60.99
-52.30
-42.76
-33.20
-23.80
-14.15
-3.73
7.65
19.63
31.37
41.83
50.21
56.22
60.16
62.69
64.53
66.20
67.75
68.84
68.86
67.20
63.47
57.63
49.90
40.69
30.38
19.30
7.71
-4.10
-15.69
-26.47
-35.75
-42.80
-46.98
-47.79
-45.06
-39.08
-30.77
-21.66
-13.48
-7.80
-5.38
-6.02
-8.65
-11.80
-14.13
-14.73
-13.11
-9.03
-2.35
7.05
19.11
33.50
49.54
66.29
82.64
97.29
108.87
115.89
117.03
111.44
99.08
80.88
58.80
35.47
13.74
-4.01
-16.41
-23.46
-26.29
-26.67
-26.18
-25.60
-24.82
-23.15
-19.98
-15.29
-9.73
-4.35
-0.12
2.44
3.38
3.06
2.00
0.54
-1.03
-2.46
-3.38
-3.33
-1.91
1.06
5.28
9.97
13.99
16.16
15.71
12.56
7.42
1.59
-3.43
-6.47
-7.13
-5.87
-3.86
-2.38
-2.30
-3.71
-5.90
-7.77
-8.33
-6.96
-3.65
1.10
6.42
11.15
14.19
14.82
12.98
9.40
5.43
2.45
1.31
2.06
3.95
5.96
7.28
7.66
7.35
6.86
6.45
6.04
5.13
3.15
-0.27
-5.06
-10.57
-15.82
-19.72
-21.55
-21.17
-19.09
-16.17
-13.24
-10.69
-8.43
-6.10
-3.46
-0.67
1.72
3.07
3.09
2.05
0.71
-0.10
0.16
1.58
3.95
6.89
9.90
12.36
13.44
12.39
8.95
3.69
-2.01
-6.46
-8.45
-7.68
-4.96
-1.54
1.42
3.45
4.66
5.48
6.18
6.68
6.71
6.03
4.77
3.50
3.01
3.96
6.47
9.97
13.38
15.51
15.59
13.59
10.25
6.66
3.82
2.17
1.41
0.84
-0.29
-2.41
-5.41
-8.71
-11.53
-13.15
-13.12
-11.33
-8.14
-4.25
-0.66
1.60
1.90
0.14
-3.02
-6.42
-8.85
-9.52
-8.33
-5.83
-2.95
-0.57
0.66
0.47
-1.02
-3.40
-6.04
-8.27
-9.50
-9.41
-7.99
-5.54
-2.50
0.64
3.45
5.64
7.03
7.57
7.36
6.64
5.75
5.08
4.94
5.48
6.62
8.08
9.41
10.25
10.43
10.03
9.35
8.69
8.24
7.95
7.77
7.69
7.92
8.76
10.46
13.02
16.16
19.39
22.25
24.41
25.80
26.56
26.89
27.02
27.12
27.27
27.33
26.94
25.58
22.92
19.02
14.47
10.15
6.96
5.36
5.15
5.52
5.37
4.01
1.36
-1.90
-4.77
-6.36
-6.35
-5.13
-3.84
-3.92
-6.66
-13.07
-23.54
-37.54
-53.41
-68.19
-77.93
-79.24
-71.31
-56.75
-40.43
-26.85
-17.82
-12.06
-6.31
2.33
14.83
29.12
40.66
43.80
33.79
8.65
-30.16
-78.16
-128.99
-175.59
-210.78
-225.91
-214.46
-174.10
-107.45
-22.24
70.26
157.05
224.77
264.87
276.24
264.11
236.47
201.80
167.05
137.38
115.92
103.26
96.94
91.34
78.73
51.53
7.35
-51.07
-115.96
-177.50
-227.23
-260.67
-277.86
-278.26
-265.10
-241.81
-210.73
-173.55
-132.68
-91.87
-55.71
-28.42
-12.63
-9.04
-14.54
-22.55
-24.63
-13.01
16.56
63.02
119.80
176.34
220.59
243.29
240.25
213.15
168.65
116.11
64.97
22.51
-7.52
-25.16
-32.63
-32.96
-28.86
-22.31
-14.95
-8.63
-5.07
-5.27
-9.01
-14.42
-18.91
-20.41
-18.15
-13.11
-7.44
-3.32
-2.07
-3.68
-6.88
-9.82
-10.92
-9.51
-6.06
-1.83
1.72
3.60
3.64
2.48
1.25
1.04
2.42
5.27
8.90
12.38
14.98
16.45
17.06
17.39
18.01
19.12
20.47
21.39
21.11
19.07
15.10
9.39
2.45
-5.14
-12.62
-19.05
-23.34
-24.61
-22.65
-18.20
-12.81
-8.21
-5.50
-4.74
-4.98
-4.97
-3.96
-2.09
-0.18
0.96
1.12
0.86
0.98
1.99
3.68
5.32
6.16
5.96
5.26
5.15
6.65
10.25
15.70
22.08
28.22
32.92
35.53
36.06
35.20
34.05
33.83
35.50
39.46
45.52
52.69
59.81
65.94
70.63
74.03
76.87
80.19
84.91
91.53
99.42
107.44
114.30
119.11
121.56
121.85
120.17
115.93
110.59
104.18
96.62
88.12
79.33
71.08
63.83
57.60
51.83
45.87
38.91
30.64
21.12
10.57
-0.45
-10.76
-18.40
-21.13
-17.40
-7.88
4.65
16.03
22.44
22.08
15.78
6.22
-3.55
-11.67
-18.14
-24.05
-30.50
-37.80
-45.20
-51.38
-54.95
-54.95
-51.15
-44.17
-35.47
-26.86
-20.06
-16.04
-14.66
-14.78
-14.77
-13.40
-10.35
-6.33
-2.58
-0.36
-0.23
-1.78
-3.89
-5.15
-4.64
-2.38
0.58
2.56
1.99
-1.77
-8.23
-15.83
-22.70
-27.00
-27.48
-23.60
-15.80
-5.82
3.01
6.27
-0.09
-17.53
-42.96
-68.66
-84.50
-82.12
-59.03
-20.48
22.21
56.14
72.01
67.78
49.25
27.54
14.55
18.61
41.82
80.01
124.96
167.56
200.79
221.09
228.35
224.53
212.10
193.18
169.44
142.80
115.73
91.06
71.04
56.52
46.40
38.24
29.33
17.57
2.28
-15.89
-35.53
-55.52
-75.54
-95.84
-116.29
-135.38
-150.01
-156.43
-152.14
-137.47
-115.79
-92.08
-70.65
-53.08
-38.04
-22.37
-3.40
19.38
44.00
67.08
85.55
97.93
104.54
107.04
107.63
108.61
111.86
118.68
129.36
142.91
157.23
169.68
177.89
180.63
178.11
171.60
162.86
153.56
144.86
137.58
132.38
129.77
129.84
132.07
135.38
138.54
140.54
140.89
139.67
137.19
133.49
128.14
120.30
108.87
93.07
72.79
48.58
21.65
-6.47
-34.28
-60.46
-83.97
-104.13
-120.47
-132.77
-141.29
-146.75
-150.47
-154.12
-159.40
-167.52
-178.93
-193.27
-209.53
-226.48
-243.13
-259.12
-274.81
-291.19
-309.75
-332.05
-358.77
-389.02
-419.96
-447.13
-465.97
-473.62
-470.10
-458.42
-443.40
-429.71
-420.29
-415.79
-415.04
-416.35
-418.61
-421.57
-425.74
-431.88
-440.71
-452.62
-467.50
-484.20
-500.47
-513.26
-519.55
-517.36
-506.63
-489.16
-467.79
-445.37
-423.72
-403.51
-384.64
-366.81
-349.82
-333.54
-317.52
-300.93
-282.76
-262.26
-239.41
-215.06
-190.57
-167.42
-146.58
-128.21
-111.76
-96.26
-80.83
-65.03
-49.01
-33.34
-18.74
-5.79
5.37
14.97
23.52
31.50
39.19
46.57
53.41
59.39
64.30
68.23
71.49
74.58
77.91
81.69
85.84
90.06
94.08
97.72
101.21
104.98
109.61
115.51
122.74
130.92
139.43
147.62
155.04
161.78
168.31
175.31
183.36
192.66
202.92
213.69
224.50
235.20
245.96
257.24
269.47
283.04
298.42
316.11
336.42
358.70
380.73
398.74
408.47
406.87
393.54
370.94
343.19
314.04
285.40
257.09
227.99
197.73
167.67
140.52
118.94
104.35
96.74
95.44
100.27
111.75
130.13
154.22
180.61
204.01
218.76
220.71
208.40
183.21
148.45
108.46
67.92
31.55
3.68
-12.57
-16.37
-9.85
2.30
14.35
21.42
20.84
12.55
-1.37
-17.80
-33.68
-46.70
-55.57
-59.93
-60.22
-57.28
-52.13
-45.47
-37.58
-28.51
-18.35
-7.43
3.33
12.31
17.37
16.36
8.25
-5.81
-21.93
-34.03
-35.79
-23.32
2.97
38.02
73.81
102.01
116.62
115.40
99.77
73.61
42.03
10.45
-16.05
-33.22
-38.45
-31.49
-14.71
7.48
29.88
47.96
58.84
61.50
56.61
45.95
32.00
17.56
5.30
-2.81
-6.06
-5.17
-1.96
1.67
4.70
7.29
10.53
15.20
20.87
25.73
27.45
24.75
18.60
12.33
10.38
16.47
31.58
53.30
76.45
94.87
103.46
99.78
84.52
61.01
33.96
7.98
-13.37
-27.97
-34.90
-34.00
-25.50
-10.17
10.12
31.89
50.31
60.47
59.12
46.25
25.48
2.82
-15.45
-25.31
-26.26
-21.23
-14.93
-11.65
-13.44
-19.42
-26.67
-31.92
-33.21
-30.83
-27.19
-25.93
-30.54
-42.95
-62.36
-84.93
-104.31
-113.12
-105.26
-78.28
-34.71
18.17
70.08
110.63
132.16
131.73
111.66
78.66
41.90
10.55
-8.54
-12.63
-3.48
13.72
32.54
47.59
56.09
58.29
56.60
54.11
53.11
54.44
57.57
61.18
63.80
64.00
60.49
51.99
37.72
18.10
-4.44
-25.55
-40.16
-44.27
-36.89
-20.71
-1.35
14.72
22.38
19.49
7.22
-10.72
-29.21
-43.13
-48.57
-43.93
-30.73
-13.51
1.41
8.22
3.99
-9.83
-27.88
-42.74
-47.95
-40.46
-21.86
2.26
24.43
37.74
38.25
26.02
4.87
-19.22
-40.21
-53.91
-58.83
-55.93
-47.56
-35.97
-22.62
-7.98
7.75
24.09
39.88
53.66
64.00
69.86
70.62
65.64
54.03
34.74
7.21
-27.91
-68.14
-109.01
-144.82
-169.76
-179.06
-170.08
-143.21
-102.27
-53.87
-5.61
36.63
70.66
98.66
125.70
157.13
195.77
240.52
287.24
331.41
370.81
406.33
439.86
471.81
499.12
515.40
513.48
489.12
443.82
385.09
323.59
267.54
221.30
184.98
156.50
133.74
115.62
102.26
94.08
90.43
85.89
74.49
52.27
19.18
-21.59
-65.84
-109.99
-151.68
-189.95
-229.95
-276.49
-331.10
-390.64
-449.33
-502.35
-547.20
-583.47
-612.07
-640.69
-675.61
-718.55
-765.40
-809.01
-844.21
-869.28
-884.93
-853.16
-751.25
-582.12
-376.86
-173.35
5.13
151.29
267.35
358.61
430.15
480.02
507.85
516.27
511.35
501.58
491.66
482.13
471.25
456.99
433.53
397.16
346.14
282.52
212.31
142.03
77.97
25.15
-13.71
-41.42
-61.48
-77.29
-99.33
-124.69
-151.30
-179.96
-213.96
-257.17
-315.34
-381.14
-449.04
-510.25
-552.34
-565.90
-546.70
-496.95
-423.18
-335.12
-241.90
-151.72
-68.75
7.02
75.15
134.47
183.42
222.71
254.65
282.90
309.40
335.16
360.62
384.24
403.53
406.80
386.21
340.55
276.82
204.63
132.13
63.87
0.87
-57.29
-111.00
-159.87
-202.86
-237.26
-260.70
-271.51
-268.79
-252.62
-223.61
-182.68
-126.70
-58.97
13.61
82.59
140.84
184.17
211.31
223.51
223.16
213.80
198.49
180.28
161.57
143.87
127.99
113.88
101.51
90.34
80.01
69.97
60.20
50.97
42.67
35.60
29.64
25.05
21.81
19.75
18.50
17.76
17.41
17.24
18.94
20.38
20.40
18.02
12.62
3.65
-8.90
-24.34
-41.57
-59.45
-77.18
-93.70
-108.33
-120.80
-131.36
-140.75
-149.49
-158.23
-167.73
-178.90
-191.99
-207.01
-223.29
-239.89
-256.10
-270.76
-282.77
-291.03
-294.62
-292.44
-283.64
-267.04
-241.12
-208.38
-170.92
-131.17
-91.44
-53.70
-19.33
10.74
36.80
59.20
77.70
92.10
101.96
107.06
107.76
104.81
99.23
94.31
92.52
94.24
98.11
101.92
103.99
103.76
101.64
98.55
100.26
110.86
130.32
154.64
178.37
197.60
211.01
219.73
226.11
240.40
270.10
315.99
371.95
429.22
481.17
524.71
560.11
588.65
621.54
666.20
722.40
782.84
838.93
885.55
920.85
944.60
896.46
744.53
501.30
221.81
-32.80
-225.85
-349.20
-413.16
-431.70
-426.05
-401.04
-358.55
-303.88
-247.79
-201.95
-174.47
-175.80
-205.20
-255.71
-308.72
-348.36
-368.03
-370.98
-364.65
-355.85
-347.12
-343.25
-342.75
-338.19
-324.68
-302.22
-275.55
-251.30
-235.84
-232.23
-228.37
-220.04
-204.82
-183.57
-159.41
-136.22
-116.98
-104.02
-96.11
-91.08
-88.63
-87.82
-88.27
-90.33
-94.78
-102.20
-118.17
-139.80
-163.23
-185.98
-205.21
-218.37
-223.41
-218.95
-196.41
-159.03
-111.26
-58.42
-6.06
41.74
82.35
114.41
137.87
153.52
161.13
162.93
160.91
156.52
151.18
146.09
142.10
140.02
140.56
142.80
147.22
153.88
162.28
171.61
181.45
189.92
195.27
195.92
189.92
176.78
156.60
130.12
98.28
64.04
29.89
-1.79
-29.15
-51.36
-67.99
-79.31
-86.18
-89.50
-90.23
-89.27
-87.06
-83.77
-79.74
-75.38
-71.31
-68.22
-66.35
-65.63
-65.64
-65.53
-64.40
-61.91
-58.39
-54.80
-52.33
-51.78
-53.25
-56.01
-58.68
-60.04
-59.47
-57.31
-54.55
-52.34
-51.69
-53.30
-57.61
-65.02
-73.82
-81.00
-82.30
-73.63
-53.16
-22.86
11.61
42.91
64.95
75.31
75.48
69.43
61.34
53.52
46.29
38.90
30.93
23.00
16.42
12.08
9.81
8.45
6.43
2.38
-3.96
-11.86
-20.04
-27.28
-33.14
-38.13
-43.32
-49.97
-58.89
-69.99
-82.28
-94.12
-103.72
-109.60
-111.23
-108.12
-100.31
-88.15
-72.11
-52.75
-30.89
-7.58
15.80
37.76
56.93
72.25
83.12
89.65
92.36
92.04
89.63
85.92
81.50
76.74
71.82
66.73
61.47
55.95
50.01
43.66
36.87
29.73
22.37
15.05
7.95
1.15
-5.39
-11.75
-18.02
-24.37
-30.93
-37.74
-44.52
-51.03
-57.06
-62.48
-67.28
-71.47
-75.28
-78.96
-82.65
-86.04
-88.61
-89.60
-88.01
-82.74
-72.63
-56.75
-34.45
-7.40
22.98
54.92
86.42
115.40
140.02
158.84
171.08
176.68
176.17
170.78
161.89
150.87
138.76
126.32
113.95
101.88
90.25
79.29
69.33
60.63
53.30
47.13
41.69
36.44
31.01
25.35
19.84
15.21
12.06
10.60
10.44
10.71
10.39
8.81
6.00
2.74
0.30
-0.25
1.59
5.28
9.52
12.74
13.92
12.86
10.35
7.72
6.26
7.08
10.89
17.73
26.45
34.21
36.66
29.44
10.83
-17.40
-48.78
-74.70
-88.08
-86.57
-73.32
-55.18
-39.21
-29.86
-28.01
-31.76
-38.67
-46.92
-55.68
-64.21
-71.04
-73.99
-71.27
-62.54
-48.91
-32.15
-13.36
7.80
32.84
62.84
96.94
131.44
160.63
178.77
182.18
170.23
145.04
110.00
68.65
24.48
-18.99
-57.58
-87.04
-104.38
-109.43
-104.82
-95.07
-84.52
-75.78
-69.24
-63.62
-57.67
-51.11
-45.01
-40.78
-39.36
-40.59
-43.08
-44.91
-44.68
-42.21
-38.56
-35.43
-34.45
-36.63
-42.13
-50.49
-60.54
-70.13
-76.36
-76.02
-67.15
-50.78
-31.46
-15.86
-9.92
-15.78
-29.44
-44.47
-53.53
-52.28
-41.20
-24.26
-6.08
10.49
25.31
39.77
54.56
69.24
82.10
91.05
94.71
93.46
87.87
79.13
68.26
55.40
40.54
23.54
4.28
-16.97
-39.47
-62.16
-83.73
-102.95
-119.44
-133.01
-144.02
-153.29
-161.74
-170.15
-178.99
-188.62
-199.72
-213.65
-230.51
-248.54
-263.79
-270.91
-265.03
-243.81
-208.13
-159.47
-105.07
-52.99
-9.46
22.68
43.73
55.99
62.39
65.74
68.43
71.79
76.83
83.76
91.84
99.84
107.01
113.41
120.15
129.05
141.73
159.78
183.63
211.22
237.09
252.89
249.86
222.76
173.44
111.51
51.75
8.00
-12.96
-14.17
-6.25
-1.66
-8.79
-28.89
-57.24
-86.54
-110.58
-126.09
-132.69
-131.99
-126.85
-121.08
-118.88
-123.76
-137.10
-157.28
-179.78
-198.56
-207.96
-204.63
-188.78
-164.35
-137.96
-116.67
-105.22
-103.78
-107.46
-108.27
-98.69
-75.13
-39.34
2.61
43.26
76.64
99.66
111.59
112.95
104.55
87.38
63.20
34.81
5.76
-20.31
-40.58
-53.55
-59.14
-58.20
-52.03
-41.79
-28.24
-11.56
8.34
31.59
57.99
86.90
117.35
148.54
180.14
212.28
244.87
276.55
304.25
323.65
330.71
323.56
303.51
274.85
243.31
213.88
189.23
169.28
152.23
136.12
120.18
105.07
92.02
81.63
72.91
63.63
51.55
35.83
17.74
0.26
-13.54
-22.09
-26.05
-27.84
-30.14
-34.57
-41.28
-49.38
-57.85
-66.10
-73.83
-80.51
-85.10
-86.02
-81.75
-71.33
-54.58
-31.87
-3.87
28.57
64.17
100.72
134.92
162.82
180.73
186.53
180.48
165.07
144.22
121.95
101.46
84.77
72.91
66.26
64.64
67.13
71.68
75.32
74.84
67.91
54.02
34.76
13.32
-6.49
-21.45
-29.72
-31.19
-27.12
-19.76
-11.53
-4.63
-0.74
-0.83
-5.02
-12.76
-22.75
-33.12
-41.94
-47.41
-48.57
-45.48
-39.34
-31.92
-25.08
-20.01
-17.00
-15.63
-15.01
-14.46
-13.74
-13.18
-13.50
-15.54
-19.71
-25.73
-32.60
-38.86
-43.10
-44.54
-43.37
-40.57
-37.55
-35.49
-34.84
-35.34
-36.11
-36.23
-35.04
-32.36
-28.51
-24.11
-20.02
-17.12
-16.05
-16.97
-19.39
-22.32
-24.51
-24.92
-22.95
-18.57
-12.31
-5.02
2.35
8.94
14.10
17.43
18.79
18.21
15.91
12.17
7.31
1.73
-4.00
-9.39
-14.07
-17.70
-20.05
-20.66
-19.00
-14.78
-8.39
-0.96
5.80
10.20
11.39
9.56
5.79
1.57
-1.85
-3.72
-3.83
-2.33
0.33
3.57
6.78
9.41
11.20
12.11
12.31
12.05
11.52
10.78
9.87
8.73
7.19
4.94
1.68
-2.67
-7.77
-13.04
-17.70
-21.39
-24.47
-27.66
-31.65
-36.89
-43.54
-51.68
-61.39
-72.09
-82.61
-91.35
-96.81
-98.54
-97.76
-97.13
-99.77
-107.73
-120.61
-136.45
-152.87
-167.85
-180.34
-190.02
-197.05
-201.85
-204.85
-205.11
-202.22
-196.42
-187.72
-175.20
-156.93
-130.82
-95.88
-52.58
-0.03
59.86
122.39
181.98
234.64
279.80
319.63
357.00
393.69
434.28
479.45
526.13
570.52
610.74
647.69
682.91
715.95
744.16
769.99
792.70
807.07
805.33
779.71
725.91
644.68
541.64
389.61
191.95
-21.84
-211.31
-348.69
-430.24
-467.60
-475.29
-465.54
-445.62
-413.28
-367.63
-312.58
-253.55
-195.70
-141.46
-90.92
-45.64
-7.46
26.48
56.29
70.15
61.74
30.77
-16.81
-71.60
-126.97
-182.55
-236.53
-288.21
-338.77
-389.54
-442.56
-500.22
-550.07
-584.81
-599.03
-587.55
-548.40
-483.31
-396.69
-295.25
-186.35
-76.90
24.45
110.76
177.92
223.49
252.62
268.35
273.14
269.98
262.41
252.01
240.70
230.96
225.09
217.84
210.50
205.42
204.77
210.02
220.44
234.40
249.33
260.92
272.08
281.04
284.46
279.22
263.21
235.04
194.90
144.49
86.62
24.68
-38.41
-99.64
-155.97
-204.70
-244.02
-272.84
-290.73
-297.93
-295.88
-286.88
-273.04
-255.83
-236.54
-216.60
-197.63
-181.20
-168.46
-162.21
-164.34
-174.20
-188.39
-202.25
-211.54
-213.29
-205.82
-188.58
-167.05
-146.72
-130.37
-117.39
-105.86
-95.25
-86.94
-83.37
-86.78
-106.36
-148.27
-212.04
-290.09
-371.96
-449.36
-517.88
-576.51
-626.04
-678.25
-742.55
-821.17
-908.05
-993.77
-1071.24
-1137.28
-1191.66
-1168.56
-1029.59
-779.22
-467.28
-156.14
111.95
321.98
477.14
587.66
665.27
710.65
724.93
713.87
688.95
662.48
642.35
631.13
628.59
629.78
621.74
594.98
548.67
491.12
434.58
385.01
347.44
319.51
294.14
259.22
207.08
138.90
62.94
-10.74
-75.37
-128.36
-172.51
-209.80
-242.92
-272.72
-296.90
-312.37
-316.95
-310.36
-293.46
-268.31
-236.87
-201.90
-166.31
-131.34
-98.40
-69.10
-44.94
-26.28
-12.32
-0.12
15.53
29.77
42.64
54.24
63.72
70.39
73.93
74.05
70.78
64.30
54.95
44.56
34.16
23.79
13.71
4.60
-2.82
-7.80
-9.53
-6.42
3.41
20.65
43.79
71.67
103.10
136.51
169.64
199.81
226.47
248.91
265.11
269.67
260.69
238.93
207.64
170.75
132.71
102.75
87.65
89.66
101.11
117.94
137.76
159.81
182.22
203.12
229.32
264.38
307.93
346.85
376.45
396.78
411.47
421.94
428.17
441.05
465.60
503.53
541.08
574.89
605.57
635.13
659.98
614.22
465.29
222.47
3.01
-158.55
-256.85
-315.54
-343.11
-346.36
-331.15
-290.24
-228.47
-155.19
-97.50
-69.94
-75.46
-105.82
-150.75
-222.64
-275.91
-310.66
-330.61
-352.67
-382.59
-417.05
-445.52
-458.67
-450.68
-412.76
-350.63
-272.19
-194.24
-126.70
-73.42
-33.24
-5.24
10.40
17.64
14.50
3.88
-11.53
-24.63
-28.18
-18.27
3.04
29.75
57.96
82.45
103.24
120.97
136.71
150.22
160.11
164.87
164.40
161.05
155.91
150.65
146.33
143.60
143.13
144.99
147.78
148.58
144.15
132.09
113.83
94.46
80.49
76.58
82.41
92.14
96.66
87.62
60.80
17.32
-37.97
-99.00
-160.40
-218.05
-268.49
-308.45
-335.38
-348.45
-349.26
-341.07
-326.89
-307.39
-280.18
-240.79
-185.40
-114.14
-32.77
48.05
115.95
160.85
178.24
170.19
144.13
110.19
78.07
54.73
43.55
44.39
54.40
68.83
82.08
88.75
84.70
68.28
40.99
7.59
-25.25
-51.01
-65.85
-69.30
-63.52
-51.45
-35.06
-14.83
9.58
37.91
68.27
95.85
114.59
119.65
109.61
86.90
56.58
24.92
-1.78
-18.05
-21.68
-13.67
2.27
20.68
35.40
40.92
34.43
17.46
-4.72
-27.80
-50.43
-74.64
-104.02
-141.57
-188.69
-244.30
-305.18
-354.47
-374.48
-355.90
-304.70
-235.88
-162.51
-91.70
-26.36
32.11
82.57
121.75
146.86
157.26
155.21
145.56
133.80
124.22
119.04
117.87
115.99
106.84
85.09
50.28
8.75
-28.83
-51.39
-52.45
-33.49
-5.15
17.75
23.10
6.85
-27.45
-71.60
-116.75
-155.96
-184.93
-201.41
-202.80
-185.54
-147.36
-92.37
-30.00
29.77
81.33
124.95
164.43
203.48
242.50
276.54
293.38
282.33
243.21
189.56
142.71
121.67
134.40
175.43
226.25
256.76
239.24
160.30
25.73
-145.33
-330.22
-509.67
-669.02
-770.98
-784.77
-707.35
-568.49
-406.82
-248.91
-107.59
11.46
106.75
184.81
243.62
279.46
292.86
289.99
278.15
261.73
228.42
177.03
117.04
60.33
17.39
-6.15
-10.14
0.04
15.54
28.42
37.06
43.36
47.11
46.87
41.50
31.86
20.29
9.48
1.87
0.50
6.11
15.38
23.60
27.08
25.07
19.06
11.65
5.40
3.12
5.95
12.43
19.72
25.03
26.79
24.79
20.11
14.60
10.69
10.19
13.44
19.37
25.99
31.13
33.04
31.13
25.71
17.80
8.37
-2.03
-13.13
-24.59
-35.84
-47.43
-59.98
-75.12
-94.52
-118.38
-143.71
-164.73
-174.97
-168.27
-145.14
-110.32
-70.96
-33.38
-1.03
26.16
50.21
72.77
94.12
113.08
128.69
140.69
150.46
159.02
167.06
173.73
176.63
172.28
157.47
131.00
93.95
51.14
8.28
-29.42
-58.62
-78.72
-91.48
-100.05
-107.35
-115.37
-124.70
-134.79
-143.61
-147.94
-144.28
-130.90
-108.32
-80.41
-53.97
-35.82
-30.49
-37.97
-53.93
-71.10
-82.47
-83.63
-73.57
-56.93
-38.99
-24.95
-17.25
-15.47
-15.61
-12.70
-3.35
12.15
30.28
47.02
59.70
68.60
76.39
86.47
100.27
116.56
132.09
143.43
148.36
146.28
137.38
122.21
101.07
74.61
45.03
16.36
-6.38
-18.71
-19.79
-12.65
-3.00
3.58
3.93
-1.81
-11.25
-22.05
-33.22
-45.46
-59.82
-76.63
-94.88
-112.66
-128.13
-140.42
-149.46
-155.21
-157.39
-154.50
-144.46
-125.30
-96.40
-59.28
-17.16
25.24
64.43
98.41
126.15
146.39
156.86
154.92
139.13
111.48
76.16
39.55
7.78
-14.52
-24.63
-21.31
-4.31
24.98
62.85
102.56
135.28
152.06
147.14
120.29
77.21
27.59
-18.08
-51.67
-69.42
-71.86
-62.58
-45.78
-24.79
-1.53
22.89
47.19
68.43
83.10
88.07
81.58
63.73
36.30
2.88
-31.93
-61.92
-82.22
-90.49
-87.96
-78.98
-69.23
-63.18
-62.31
-64.96
-68.24
-70.03
-69.92
-69.15
-69.07
-70.10
-71.43
-71.60
-69.69
-66.07
-62.20
-59.41
-58.16
-57.50
-55.23
-48.87
-36.44
-17.63
6.15
32.14
57.08
78.10
93.25
101.83
104.09
101.06
93.92
83.90
72.14
59.67
47.57
36.84
28.52
23.34
21.61
22.96
26.23
29.70
31.40
30.06
25.70
19.71
14.33
11.73
13.05
17.76
24.09
29.61
32.67
32.84
30.83
27.74
24.69
22.30
21.04
21.74
25.54
33.25
44.44
56.56
65.72
68.66
65.14
58.74
55.42
60.77
77.36
102.29
128.91
149.51
158.43
153.86
137.39
111.94
79.82
42.35
0.94
-42.55
-84.92
-122.79
-154.30
-180.52
-205.40
-234.27
-270.91
-309.07
-338.69
-349.13
-334.62
-297.14
-244.57
-186.35
-130.05
-79.67
-36.28
-0.09
28.84
50.10
63.70
70.81
73.81
75.60
78.99
85.78
95.81
107.94
120.28
131.17
140.08
148.08
155.68
163.12
169.87
174.14
173.75
166.95
153.16
133.10
108.52
81.22
52.55
24.33
-2.88
-29.00
-53.73
-75.91
-93.93
-106.49
-113.23
-114.65
-112.47
-108.83
-105.33
-102.76
-101.06
-100.11
-99.90
-99.59
-96.60
-87.33
-68.47
-38.85
-0.81
40.07
77.09
105.41
123.76
134.13
138.66
137.44
127.95
106.86
73.27
30.84
-12.85
-49.39
-73.16
-84.06
-86.43
-86.29
-88.35
-94.03
-101.84
-109.12
-115.18
-118.79
-120.32
-120.20
-118.11
-112.88
-103.05
-87.90
-68.11
-45.80
-23.70
-4.53
10.16
20.28
26.98
32.00
36.69
41.44
45.79
48.91
50.20
49.94
49.26
49.50
51.59
55.36
59.36
61.51
59.77
53.20
42.45
29.38
16.26
4.96
-3.63
-9.69
-14.14
-18.57
-24.37
-32.70
-44.20
-58.27
-72.55
-83.10
-85.69
-75.68
-54.73
-28.95
-6.67
5.12
3.58
-9.21
-27.87
-46.70
-61.91
-73.62
-82.38
-88.56
-91.67
-90.81
-85.38
-75.92
-64.20
-52.54
-43.26
-37.19
-33.89
-31.91
-29.66
-25.96
-20.64
-14.51
-8.79
-4.79
-2.91
-2.72
-2.88
-2.90
-2.24
-0.98
0.08
-0.22
-3.25
-9.82
-20.14
-33.23
-47.34
-59.97
-68.32
-69.66
-61.54
-42.03
-9.74
33.39
83.93
136.86
186.70
228.70
259.74
278.56
285.37
281.37
268.27
248.32
223.97
197.66
171.51
147.03
124.99
105.53
88.32
72.83
58.67
45.71
34.05
23.90
15.38
8.39
2.63
-2.31
-6.88
-11.21
-15.24
-18.73
-21.43
-23.25
-24.31
-24.93
-25.42
-26.01
-26.62
-26.99
-26.76
-25.72
-23.96
-21.84
-19.83
-18.29
-17.32
-16.57
-15.54
-13.69
-10.86
-7.25
-3.48
-0.20
2.31
4.09
5.61
7.33
9.62
12.40
15.49
18.99
23.10
27.89
32.73
36.50
37.18
33.73
26.49
17.22
8.25
1.20
-3.38
-6.51
-9.32
-12.16
-14.24
-14.47
-12.64
-10.25
-10.26
-15.45
-26.57
-41.41
-55.49
-64.35
-65.95
-61.72
-55.40
-51.00
-50.47
-53.25
-56.84
-58.24
-55.19
-46.32
-31.27
-10.48
13.86
37.44
54.25
58.89
49.30
28.15
2.35
-20.11
-32.82
-33.51
-24.29
-10.16
3.50
12.56
14.60
8.74
-5.25
-26.21
-51.91
-79.12
-104.46
-124.51
-136.80
-140.59
-133.24
-118.26
-99.33
-79.17
-59.10
-39.53
-19.83
1.09
24.04
49.41
76.26
103.49
129.68
153.98
174.60
190.02
199.08
201.14
195.70
182.19
161.06
132.19
98.83
63.83
29.87
-0.74
-26.10
-45.37
-58.73
-66.74
-70.24
-70.29
-68.42
-65.82
-63.45
-61.69
-60.96
-61.68
-63.90
-67.36
-71.66
-76.61
-81.67
-87.73
-93.05
-96.60
-97.70
-95.92
-91.02
-82.97
-72.20
-59.12
-44.33
-28.25
-11.75
4.41
19.52
32.96
44.23
52.98
59.32
63.50
66.08
67.23
67.08
65.68
63.12
59.48
55.15
51.05
48.38
48.34
51.69
58.49
68.28
80.41
93.86
108.01
122.78
138.33
154.54
170.58
184.61
193.92
196.98
191.90
178.37
157.97
133.46
107.55
82.17
57.99
34.44
10.83
-14.49
-42.64
-74.33
-110.24
-150.55
-193.56
-235.37
-270.88
-295.64
-310.07
-317.95
-324.75
-334.92
-349.56
-365.22
-375.42
-373.66
-355.97
-323.73
-280.51
-230.10
-176.38
-123.51
-76.34
-40.37
-20.98
-10.54
-7.02
-10.72
-20.25
-30.03
-31.38
-16.96
14.92
59.30
106.10
143.47
163.74
165.72
152.87
130.70
103.74
74.86
46.09
16.98
-10.38
-32.19
-44.15
-42.86
-27.36
-0.03
33.61
68.80
96.40
111.34
114.95
113.40
114.22
122.58
139.28
161.54
186.88
210.94
230.19
241.19
240.41
224.10
190.01
139.28
75.50
11.38
-40.18
-69.38
-73.81
-59.54
-39.28
-27.84
-36.63
-68.94
-118.16
-171.84
-214.62
-234.62
-227.86
-199.26
-159.73
-121.31
-93.19
-76.07
-68.17
-65.91
-66.67
-69.47
-74.32
-80.53
-86.01
-87.79
-83.07
-72.22
-57.82
-44.06
-34.79
-32.32
-36.16
-43.84
-52.41
-59.68
-65.85
-72.20
-80.58
-92.00
-105.78
-119.44
-129.63
-133.29
-128.45
-117.22
-101.86
-84.73
-67.35
-49.83
-31.09
-9.72
15.04
42.71
71.08
97.58
119.73
136.26
147.80
157.14
168.50
186.25
212.61
245.29
277.16
297.57
296.37
268.51
216.95
152.27
89.08
40.61
13.95
8.91
19.61
37.61
54.97
65.67
66.30
55.99
36.89
14.11
-5.52
-16.44
-17.79
-14.36
-15.32
-29.83
-62.53
-110.59
-164.46
-211.85
-243.14
-255.28
-251.76
-239.73
-225.11
-210.35
-194.32
-174.41
-149.36
-120.92
-93.08
-69.66
-52.22
-37.89
-22.29
-2.32
22.23
49.18
75.85
100.65
123.59
145.28
168.24
192.45
214.75
230.61
237.14
235.13
228.81
224.09
226.34
242.90
276.50
324.42
379.85
435.27
485.23
527.13
561.00
588.84
619.00
656.35
699.28
739.14
763.99
763.64
733.08
674.33
561.78
395.21
197.71
6.89
-145.90
-248.19
-304.02
-325.43
-324.74
-311.93
-286.52
-252.00
-214.44
-181.70
-159.70
-150.39
-153.67
-167.07
-186.94
-205.19
-216.42
-218.25
-212.42
-201.76
-188.98
-178.88
-175.13
-179.50
-189.03
-201.51
-216.59
-236.58
-263.63
-299.40
-347.80
-409.98
-483.39
-560.53
-633.56
-696.18
-745.17
-778.79
-767.31
-692.84
-557.61
-385.73
-208.07
-47.57
85.44
184.30
258.12
314.29
353.67
376.73
385.26
382.93
371.59
352.95
327.88
296.18
257.84
211.55
158.02
99.66
40.12
-17.07
-69.80
-118.15
-165.40
-213.64
-262.74
-307.73
-340.49
-352.63
-339.24
-301.35
-231.07
-137.46
-41.17
36.88
87.43
113.30
122.65
122.34
115.94
104.79
87.40
65.50
43.55
26.85
17.21
14.35
15.25
15.96
13.37
3.74
-11.89
-28.78
-40.86
-43.29
-33.45
-10.63
25.20
74.99
132.32
187.83
230.76
253.03
252.52
233.88
206.34
179.54
162.32
152.06
144.55
136.19
125.64
113.89
102.82
93.78
86.34
78.56
66.49
49.33
28.17
5.10
-17.92
-40.13
-62.09
-84.23
-105.65
-123.75
-133.61
-130.50
-111.86
-78.27
-33.04
18.79
72.00
121.74
162.82
188.97
193.88
173.70
129.60
68.87
2.74
-57.26
-103.18
-132.63
-149.58
-160.47
-170.61
-181.89
-193.01
-201.30
-204.68
-202.63
-196.00
-188.00
-181.66
-178.62
-178.80
-181.99
-188.87
-201.37
-220.87
-233.95
-227.87
-195.43
-140.63
-76.17
-16.86
26.26
47.83
49.15
36.03
14.18
-11.62
-38.30
-63.54
-87.12
-105.60
-115.79
-115.64
-105.33
-88.60
-70.39
-55.15
-45.40
-41.35
-41.48
-43.93
-46.94
-49.04
-51.35
-54.56
-58.46
-61.52
-61.18
-54.86
-41.36
-21.21
3.50
29.28
52.50
70.25
81.11
85.55
85.26
82.57
79.90
79.21
81.80
88.40
98.93
112.64
128.59
144.80
158.71
167.45
167.91
157.72
135.71
102.01
57.97
7.25
-46.10
-97.83
-144.41
-183.35
-212.91
-231.97
-240.10
-237.75
-223.96
-198.73
-163.23
-119.94
-72.21
-22.87
26.43
75.22
123.89
176.36
235.53
301.87
372.78
442.66
505.21
554.86
587.36
600.65
599.08
588.17
573.27
558.27
545.62
537.76
537.77
548.86
545.35
509.79
435.27
329.90
211.71
98.01
-1.32
-83.59
-150.60
-205.59
-247.36
-274.72
-287.88
-289.49
-284.06
-276.44
-269.79
-266.05
-265.93
-265.96
-262.88
-254.70
-241.88
-226.53
-211.38
-197.95
-186.79
-177.81
-168.56
-156.86
-141.57
-123.46
-102.63
-82.89
-66.80
-55.89
-50.69
-50.06
-52.13
-55.09
-57.71
-59.51
-60.99
-62.39
-64.12
-66.51
-69.22
-71.00
-70.53
-66.63
-58.67
-47.00
-32.43
-16.25
0.16
15.54
30.12
44.40
59.14
75.10
92.64
112.10
134.13
160.53
188.29
217.71
249.56
284.44
322.57
363.60
406.31
447.97
483.56
505.79
507.18
481.77
428.12
350.83
259.72
166.95
83.40
15.73
-34.48
-68.84
-90.74
-103.28
-108.21
-106.57
-99.02
-86.14
-68.92
-49.17
-29.38
-12.84
-2.80
-1.40
-10.38
-29.88
-58.25
-92.82
-131.61
-174.14
-221.54
-275.79
-338.32
-411.84
-496.33
-586.49
-670.67
-733.57
-760.85
-744.28
-685.01
-594.27
-494.77
-409.85
-353.25
-323.56
-307.31
-287.20
-250.86
-195.42
-127.77
-66.43
-29.73
-27.55
-58.58
-115.20
-189.42
-276.41
-372.65
-437.17
-436.10
-361.00
-235.34
-93.53
39.78
153.55
244.33
312.84
362.60
392.88
404.40
402.11
394.89
391.07
396.10
408.71
424.26
437.82
441.23
428.49
398.59
355.88
303.37
248.89
197.76
152.73
115.14
82.88
53.46
25.98
1.87
-16.64
-28.13
-33.65
-35.34
-35.30
-36.26
-40.33
-48.09
-57.93
-66.95
-74.47
-77.66
-75.13
-66.68
-53.71
-38.60
-23.86
-11.49
-2.82
4.09
7.96
8.31
5.54
0.24
-7.20
-16.53
-27.32
-38.94
-50.00
-59.00
-64.84
-67.12
-66.40
-64.05
-61.60
-60.25
-61.10
-64.71
-71.00
-78.89
-85.63
-87.14
-79.13
-59.22
-28.65
7.43
41.65
67.29
80.98
83.59
78.98
71.50
64.03
57.27
50.48
42.99
34.92
27.29
21.20
16.93
13.68
10.13
5.10
-1.85
-10.12
-18.52
-25.71
-30.59
-32.81
-32.78
-31.53
-30.24
-29.69
-30.23
-31.64
-33.09
-33.47
-31.70
-27.01
-19.33
-9.32
1.71
12.32
21.27
28.24
33.99
40.02
48.10
59.10
72.64
86.87
99.12
106.96
108.97
105.59
98.60
90.74
84.58
82.16
84.37
90.49
97.83
101.42
95.34
75.26
41.43
-0.22
-39.09
-63.91
-68.13
-52.97
-26.82
-0.84
16.26
21.60
17.54
9.18
1.15
-3.87
-4.17
1.32
13.05
29.77
48.16
64.06
74.48
78.84
78.19
73.85
66.33
56.03
43.95
32.95
27.03
29.23
40.21
56.93
74.32
87.44
93.55
92.10
84.95
75.95
70.67
75.90
97.83
139.66
198.90
266.80
329.36
372.68
387.78
373.03
333.70
279.31
219.74
162.31
110.66
63.21
17.90
-25.62
-65.15
-97.26
-119.98
-133.92
-141.57
-145.36
-149.57
-157.11
-170.26
-191.48
-223.14
-267.09
-323.64
-390.74
-464.28
-543.57
-627.95
-716.12
-804.93
-889.28
-963.50
-1023.18
-1066.16
-1065.68
-1004.86
-879.47
-702.02
-497.12
-290.67
-101.54
60.85
194.12
300.07
377.86
427.73
451.96
455.58
445.80
430.06
414.19
401.57
393.53
386.51
376.55
361.17
340.43
316.63
293.20
273.25
258.68
250.47
246.48
243.87
240.41
235.04
227.96
220.13
213.25
207.27
201.82
194.83
183.89
166.94
142.89
112.12
76.44
38.63
1.65
-31.12
-58.12
-79.49
-96.45
-110.59
-123.26
-135.41
-147.79
-160.72
-173.16
-182.43
-184.33
-174.42
-150.69
-115.21
-73.92
-35.02
-5.56
11.25
16.48
14.05
8.58
2.79
-2.77
-8.67
-15.28
-22.02
-27.55
-30.98
-32.63
-33.91
-36.87
-43.38
-53.94
-67.86
-83.51
-98.88
-112.25
-122.97
-130.06
-132.90
-130.79
-122.88
-108.24
-86.36
-57.61
-23.51
13.30
49.47
81.90
108.36
127.76
140.25
146.72
148.41
146.40
141.68
135.06
127.27
119.52
112.13
105.54
100.00
95.40
91.17
86.80
82.04
77.02
72.21
68.19
65.45
64.01
63.34
62.62
61.17
58.79
56.02
53.71
52.43
52.45
53.39
54.53
55.63
57.16
59.49
61.90
62.25
58.01
48.06
33.71
18.24
4.86
-5.22
-13.61
-23.24
-35.98
-50.91
-64.29
-72.00
-72.01
-65.56
-56.16
-47.10
-39.72
-32.89
-24.48
-12.95
1.40
16.94
31.27
42.13
48.23
49.12
44.93
36.30
24.01
8.93
-7.96
-25.37
-41.92
-55.92
-66.15
-71.87
-73.12
-70.61
-65.35
-58.45
-50.50
-41.66
-31.61
-20.00
-6.80
7.29
20.55
30.98
36.34
34.82
25.46
8.66
-14.03
-39.74
-64.84
-85.90
-99.27
-102.35
-93.89
-74.12
-44.51
-8.10
31.37
69.81
103.10
128.10
142.75
146.12
138.45
121.25
96.25
66.84
36.27
7.04
-18.98
-40.66
-57.60
-69.96
-78.15
-83.56
-87.13
-89.64
-92.00
-94.87
-98.51
-102.84
-109.59
-116.96
-124.07
-129.52
-132.10
-130.78
-124.62
-112.73
-94.69
-70.26
-36.86
2.57
45.22
88.38
129.12
164.45
192.86
212.40
221.79
220.76
209.29
188.03
158.40
122.21
81.74
40.77
2.81
-29.14
-52.94
-68.16
-75.89
-78.14
-77.39
-75.92
-74.91
-74.68
-74.47
-73.28
-70.69
-66.98
-63.05
-59.99
-59.03
-60.90
-66.38
-75.51
-86.94
-97.52
-102.42
-96.77
-77.99
-48.05
-12.37
21.21
46.04
59.16
61.79
57.92
51.83
46.02
40.64
35.11
28.97
22.85
18.09
15.62
15.33
15.93
15.77
13.39
8.57
1.78
-5.40
-11.50
-15.81
-18.62
-20.90
-23.92
-28.61
-35.24
-43.42
-52.35
-61.23
-69.68
-77.73
-85.76
-94.04
-102.42
-110.15
-116.09
-119.27
-118.41
-112.90
-102.78
-88.93
-72.84
-56.29
-40.85
-28.03
-18.91
-13.96
-13.07
-15.32
-19.27
-23.16
-24.98
-22.91
-15.66
-2.66
15.88
38.26
62.80
87.50
110.30
129.47
143.86
152.88
156.61
155.65
150.90
143.55
134.67
125.04
115.29
105.76
96.60
87.87
79.65
71.86
64.63
58.63
53.41
48.74
44.39
40.18
36.00
31.93
28.18
25.08
22.84
21.35
20.36
19.45
18.21
16.44
14.32
12.41
11.38
11.69
13.24
15.50
17.60
18.70
18.45
17.24
16.01
15.95
17.85
21.67
26.54
31.09
34.18
35.28
34.76
33.70
33.24
34.32
37.49
43.07
50.87
59.52
66.13
66.54
56.90
35.74
5.44
-28.09
-57.52
-77.10
-84.97
-83.17
-75.97
-67.42
-59.54
-52.15
-44.11
-34.71
-24.24
-13.73
-3.81
5.80
16.10
28.07
41.97
56.75
70.09
79.25
81.88
76.80
64.08
45.09
21.88
-3.42
-28.79
-52.92
-74.81
-94.19
-109.92
-121.05
-126.80
-126.75
-121.17
-111.05
-98.00
-83.65
-69.58
-56.69
-45.55
-36.26
-28.53
-21.88
-15.92
-10.43
-5.09
0.27
5.90
11.86
18.12
24.66
31.27
37.64
43.32
47.98
51.37
53.49
54.38
54.22
53.46
52.50
52.02
52.43
54.09
57.24
61.74
66.96
71.91
75.55
76.63
74.13
66.83
54.60
38.17
19.06
-0.82
-19.23
-33.75
-42.42
-43.80
-38.04
-25.60
-7.55
14.62
38.57
61.87
82.28
97.64
110.53
121.25
130.66
140.30
151.82
165.54
181.42
198.50
214.67
227.01
231.48
225.08
205.95
173.56
126.99
67.35
-2.82
-80.56
-162.31
-244.67
-323.05
-392.63
-449.49
-493.51
-524.71
-543.76
-552.83
-555.66
-557.13
-561.22
-569.57
-580.21
-589.40
-587.41
-562.45
-506.36
-418.60
-306.64
-182.85
-60.74
64.82
181.90
274.12
331.97
356.61
355.40
336.75
308.42
277.33
248.57
222.85
201.31
184.83
172.80
163.25
154.00
143.87
132.91
121.91
109.75
97.19
85.56
75.50
66.43
57.36
47.65
37.29
26.59
14.57
1.46
-12.06
-25.55
-39.29
-53.62
-68.45
-83.15
-96.79
-109.76
-120.64
-128.03
-131.05
-129.53
-123.76
-114.24
-101.53
-86.23
-69.17
-50.90
-31.60
-11.61
8.45
27.83
45.64
60.77
72.16
78.63
79.18
73.39
61.19
42.84
19.08
-8.92
-39.82
-71.93
-103.71
-133.69
-160.19
-181.79
-197.53
-206.79
-209.24
-204.68
-192.92
-173.41
-149.59
-123.65
-97.65
-73.55
-52.97
-37.18
-26.99
-22.56
-23.65
-29.69
-39.29
-51.03
-63.62
-75.91
-86.75
-95.54
-102.20
-107.26
-111.69
-115.98
-120.46
-125.19
-129.97
-134.05
-136.73
-137.61
-136.78
-134.67
-131.53
-127.53
-122.76
-117.15
-109.51
-98.74
-84.19
-66.03
-44.74
-20.63
6.17
35.40
66.50
101.29
140.49
182.78
224.67
262.12
292.17
313.71
327.21
334.15
341.99
356.50
379.18
406.54
432.62
452.34
463.14
464.72
458.42
455.32
464.50
489.11
525.33
566.39
607.54
648.32
691.29
740.12
809.54
909.51
1040.19
1190.52
1344.24
1486.91
1609.45
1707.47
1703.60
1553.44
1259.03
872.26
463.56
88.11
-226.88
-476.06
-665.83
-806.52
-896.72
-936.65
-933.21
-903.34
-867.85
-845.50
-846.54
-872.15
-915.92
-957.48
-977.85
-960.38
-905.07
-823.66
-731.90
-642.66
-563.46
-496.97
-437.18
-378.75
-320.27
-265.94
-220.85
-187.61
-165.19
-150.30
-139.50
-127.69
-111.93
-92.19
-71.79
-54.21
-41.27
-32.65
-26.80
-22.09
-16.49
-9.07
-0.10
8.76
16.13
21.55
25.58
29.24
33.42
38.58
44.61
50.94
56.59
60.90
63.45
64.21
63.46
61.27
57.75
53.04
47.30
40.66
33.52
26.32
19.55
13.64
8.84
5.25
2.93
1.69
1.38
1.90
3.22
5.36
8.39
12.38
17.41
23.54
30.47
37.87
45.38
52.66
59.34
65.16
69.97
73.85
77.10
79.52
81.23
82.50
83.63
85.00
86.97
89.90
94.13
100.02
107.01
114.63
122.37
129.62
135.63
139.58
140.42
136.59
131.33
125.31
118.74
111.45
103.09
93.30
81.91
69.15
55.49
41.71
27.75
13.59
-0.95
-16.20
-32.38
-49.39
-66.69
-83.46
-98.87
-113.07
-126.56
-140.34
-155.64
-173.47
-194.11
-217.01
-240.98
-264.70
-287.43
-308.87
-329.20
-348.90
-368.66
-389.57
-413.03
-440.11
-470.35
-501.05
-527.01
-541.93
-540.56
-520.76
-484.08
-434.77
-377.70
-316.64
-253.78
-190.34
-127.72
-67.96
-13.62
33.23
71.62
101.74
124.35
140.10
149.37
152.55
150.85
146.38
141.98
140.49
143.94
153.13
167.89
187.23
209.84
234.66
260.95
288.35
316.96
347.31
380.37
416.80
455.85
493.92
525.45
544.41
546.77
532.12
503.74
466.92
426.35
384.34
339.76
291.57
240.89
191.29
146.63
108.67
75.99
44.71
10.85
-29.76
-76.65
-125.05
-168.65
-203.65
-230.52
-253.07
-276.05
-302.81
-337.35
-378.62
-420.87
-457.12
-483.78
-502.12
-515.96
-528.74
-541.32
-556.80
-574.18
-588.41
-592.80
-582.24
-554.46
-509.37
-448.93
-347.93
-206.49
-48.75
91.67
193.52
254.41
283.10
290.58
285.13
272.24
250.77
221.65
189.40
160.19
137.82
122.52
112.19
103.00
93.58
80.07
61.86
42.35
26.90
19.36
21.06
31.21
48.20
70.84
95.69
119.63
141.92
163.39
183.99
202.69
217.49
226.53
229.09
224.57
214.18
201.13
189.23
180.60
175.94
174.24
173.94
173.74
172.61
170.54
168.57
170.52
175.55
183.33
193.13
203.28
210.56
210.43
198.22
171.45
131.51
83.24
35.09
-4.63
-30.51
-41.44
-40.02
-30.42
-16.15
0.96
19.66
39.53
59.55
77.93
92.89
103.32
109.12
110.53
110.44
109.51
107.56
103.56
96.24
84.98
70.08
52.88
35.39
19.63
6.56
-3.77
-11.92
-18.53
-23.76
-27.30
-28.57
-26.85
-21.43
-12.40
-0.70
12.38
25.41
37.30
47.39
55.34
61.16
65.12
67.33
66.89
62.78
54.32
41.62
25.19
5.86
-15.12
-36.25
-56.12
-76.03
-97.46
-120.74
-144.66
-167.67
-188.93
-208.02
-224.98
-240.29
-259.59
-287.72
-325.70
-369.83
-415.05
-458.16
-498.21
-535.70
-570.68
-608.67
-650.53
-689.05
-711.07
-705.91
-671.54
-613.87
-543.01
-468.25
-406.24
-369.17
-361.03
-378.48
-416.78
-472.89
-542.95
-620.36
-633.40
-537.45
-340.32
-98.44
128.83
310.48
442.25
533.81
597.34
643.62
669.97
673.01
655.47
627.46
600.12
580.32
571.79
571.58
575.43
571.09
548.95
506.70
449.96
387.08
322.75
263.34
212.07
170.38
133.50
97.22
60.68
27.01
0.19
-17.64
-26.46
-28.47
-25.98
-23.52
-24.13
-28.79
-35.80
-42.74
-47.76
-49.95
-49.98
-48.78
-48.32
-49.82
-53.97
-60.08
-67.18
-74.23
-80.17
-84.70
-87.60
-90.93
-93.44
-94.97
-95.52
-95.07
-93.39
-90.10
-85.24
-78.82
-71.48
-63.38
-55.06
-47.21
-40.15
-33.83
-27.88
-22.56
-17.80
-14.41
-12.62
-13.04
-16.34
-22.30
-29.13
-32.81
-28.94
-11.07
21.38
65.01
114.26
160.71
196.43
216.89
222.10
215.49
202.94
189.30
178.08
169.86
162.35
152.64
138.47
118.50
88.00
45.73
-9.59
-70.40
-123.98
-160.74
-178.87
-184.33
-186.21
-191.94
-203.25
-216.56
-228.78
-235.73
-237.20
-234.79
-230.23
-223.51
-214.33
-202.19
-186.73
-169.49
-155.30
-151.46
-163.09
-191.16
-230.83
-274.71
-315.04
-342.23
-350.41
-339.40
-313.85
-278.58
-236.65
-186.05
-124.31
-50.66
38.67
142.76
254.11
360.43
451.13
519.37
568.12
602.74
628.46
656.99
696.11
745.21
795.58
835.96
854.54
849.93
823.94
732.87
563.82
342.53
118.73
-68.06
-189.55
-268.83
-322.77
-360.62
-385.93
-397.24
-390.52
-366.40
-331.09
-291.32
-254.98
-219.83
-184.13
-148.25
-108.01
-60.34
-6.40
48.63
101.65
130.62
128.21
98.81
57.04
21.42
1.93
-2.25
0.68
15.16
36.08
66.51
108.64
161.22
221.73
287.30
356.96
413.02
425.95
383.08
295.45
186.53
78.92
-13.53
-86.27
-140.73
-181.36
-210.41
-228.34
-233.68
-227.47
-213.75
-197.80
-183.82
-173.99
-168.96
-166.60
-163.42
-156.46
-145.65
-133.48
-123.27
-117.34
-116.48
-120.38
-127.27
-135.02
-142.23
-149.01
-156.93
-165.82
-173.80
-177.85
-175.00
-162.76
-139.62
-105.57
-62.40
-13.23
35.07
74.90
99.52
105.21
92.84
68.17
39.64
14.89
-1.77
-9.93
-11.84
-10.40
-7.23
-2.89
2.73
9.61
16.60
21.89
24.44
25.13
27.00
34.77
52.94
82.46
120.39
159.70
191.38
207.66
204.93
182.82
148.72
110.20
72.93
39.66
10.62
-14.74
-36.36
-53.32
-64.46
-69.11
-68.63
-65.44
-61.98
-60.13
-60.48
-62.37
-64.66
-66.35
-66.87
-67.18
-68.97
-73.67
-82.29
-94.79
-110.07
-126.45
-141.88
-154.15
-161.66
-163.25
-158.18
-146.14
-127.25
-102.17
-72.32
-39.44
-6.30
24.52
51.00
71.85
86.66
95.83
100.41
101.54
101.17
100.23
99.57
99.86
101.42
104.18
107.82
112.13
115.61
117.26
116.07
111.52
103.52
92.53
79.39
65.11
50.63
36.57
23.46
11.50
0.97
-7.71
-14.00
-17.38
-17.54
-14.90
-10.55
-5.85
-2.16
-0.23
0.13
-0.07
0.54
3.25
8.23
14.52
20.43
24.28
24.87
22.15
16.97
10.67
4.72
0.20
-2.00
-1.53
0.89
2.87
0.61
-9.79
-30.59
-59.19
-89.22
-112.79
-124.02
-121.53
-108.69
-91.44
-75.14
-62.07
-51.11
-39.85
-26.42
-10.96
4.88
19.23
31.22
41.42
51.65
63.42
76.36
88.43
96.30
96.54
86.96
67.32
39.21
4.93
-31.48
-66.15
-94.74
-112.74
-116.42
-104.59
-79.86
-48.19
-17.09
7.29
22.11
28.39
29.34
28.18
26.43
23.92
20.19
15.58
11.62
10.25
12.60
18.19
25.02
30.56
32.78
31.28
27.36
23.40
21.79
23.82
29.22
36.26
42.58
46.16
46.17
43.09
38.68
35.11
34.31
37.36
43.75
50.83
54.27
48.99
31.03
-0.50
-42.47
-88.44
-130.73
-162.25
-178.50
-178.19
-162.85
-136.13
-102.95
-68.60
-37.96
-14.34
1.03
8.88
11.21
10.26
8.02
5.95
5.21
6.47
9.92
14.79
19.23
20.94
18.26
11.10
0.93
-9.83
-18.21
-20.98
-15.57
-1.38
19.11
40.15
54.17
54.70
39.15
10.26
-24.62
-56.71
-78.22
-86.17
-82.33
-70.78
-55.32
-38.10
-19.82
-0.89
17.51
33.25
44.25
49.39
49.32
46.32
43.26
42.61
45.72
52.59
62.13
72.73
83.02
92.25
100.26
107.39
113.12
116.64
116.90
113.32
105.61
94.26
80.60
66.26
52.84
41.33
31.98
24.13
17.04
9.50
0.53
-10.43
-22.74
-36.26
-50.33
-63.90
-77.28
-88.53
-96.18
-99.14
-97.00
-90.21
-79.92
-67.67
-55.09
-43.61
-34.00
-26.63
-21.54
-17.02
-14.55
-15.31
-20.00
-28.65
-40.40
-53.47
-65.78
-75.57
-81.80
-84.96
-86.12
-86.59
-87.61
-90.20
-95.04
-102.55
-111.73
-119.63
-121.95
-113.87
-92.89
-60.70
-23.26
11.23
35.36
45.51
42.39
29.69
12.17
-6.93
-26.49
-46.42
-66.43
-85.74
-101.48
-110.79
-111.62
-102.89
-84.62
-57.96
-24.61
13.44
52.83
90.86
125.01
153.44
175.10
189.63
197.43
199.96
199.36
197.79
196.28
193.32
185.17
167.54
138.69
99.96
57.12
17.85
-11.31
-27.47
-32.27
-30.19
-25.92
-22.23
-19.73
-17.61
-15.21
-12.85
-11.47
-11.72
-13.38
-15.43
-16.54
-15.77
-13.05
-9.12
-5.26
-2.77
-2.43
-4.41
-8.48
-14.13
-20.88
-28.28
-35.80
-43.01
-49.32
-54.19
-57.38
-58.95
-59.18
-58.52
-57.16
-54.83
-51.35
-46.62
-40.75
-34.44
-28.77
-24.49
-22.18
-22.20
-24.44
-28.67
-33.25
-34.77
-28.71
-11.22
19.29
60.26
105.40
147.41
179.47
198.53
205.17
202.14
192.26
176.99
156.48
129.73
98.99
66.78
36.29
10.08
-10.75
-26.55
-38.43
-47.70
-55.03
-60.05
-62.54
-62.22
-59.35
-54.81
-49.88
-45.78
-43.26
-42.42
-42.31
-42.20
-41.38
-39.57
-37.00
-34.23
-31.86
-30.32
-29.65
-29.50
-29.54
-29.42
-28.96
-28.17
-27.32
-26.72
-26.61
-27.22
-28.65
-31.11
-34.97
-40.64
-48.48
-58.80
-71.62
-86.46
-102.34
-117.88
-131.07
-139.92
-142.61
-137.81
-125.05
-104.72
-78.13
-47.18
-14.76
16.61
44.84
68.60
87.29
100.82
109.54
114.35
115.56
113.87
110.31
105.89
101.62
98.18
95.73
93.99
92.37
90.20
87.48
85.08
83.87
84.74
87.70
91.83
95.85
99.15
102.34
107.16
115.21
124.86
131.70
129.62
113.57
82.47
40.43
-4.88
-45.34
-75.47
-93.63
-100.24
-96.38
-83.06
-62.41
-39.04
-20.34
-14.12
-24.63
-49.27
-78.09
-98.16
-99.65
-80.57
-48.18
-15.36
5.40
7.30
-8.48
-34.51
-61.64
-83.35
-97.32
-104.95
-108.86
-110.44
-109.27
-104.29
-95.34
-84.53
-75.99
-73.92
-80.65
-95.26
-113.95
-131.80
-144.98
-151.92
-153.84
-153.75
-155.21
-161.53
-174.30
-193.05
-215.26
-236.41
-250.80
-253.33
-241.20
-215.32
-180.75
-144.15
-111.25
-84.73
-66.77
-57.32
-54.75
-56.53
-60.94
-67.23
-74.86
-82.81
-89.58
-93.74
-94.26
-91.00
-82.78
-69.24
-50.94
-29.12
-4.84
21.44
49.79
80.29
112.74
150.11
193.67
241.86
290.37
334.46
370.76
398.10
416.91
428.69
441.32
460.43
486.90
516.50
543.52
564.28
577.63
584.27
585.96
591.77
607.58
633.14
662.63
689.70
710.76
723.92
726.60
670.27
531.52
323.39
90.97
-117.76
-273.37
-367.76
-407.72
-407.53
-382.80
-339.50
-282.04
-214.85
-147.38
-90.11
-50.58
-32.69
-37.10
-62.16
-99.73
-143.38
-191.47
-247.32
-315.45
-393.80
-475.48
-551.65
-613.93
-652.88
-664.20
-650.28
-619.79
-583.33
-549.04
-520.76
-497.04
-472.13
-437.19
-386.66
-321.32
-248.64
-178.64
-119.15
-73.35
-39.36
-12.44
12.49
37.76
62.30
83.20
98.35
108.25
115.32
122.57
132.17
144.84
160.16
177.16
194.26
208.94
217.25
213.72
193.39
154.70
101.46
42.63
-10.59
-49.22
-69.21
-71.96
-62.43
-45.82
-25.30
-1.84
24.50
53.26
82.98
112.09
140.15
168.13
197.42
228.23
258.02
281.83
293.90
290.01
269.63
236.66
198.42
163.32
138.50
127.74
130.89
144.14
160.69
172.62
172.77
156.77
124.65
80.50
30.53
-19.53
-66.76
-111.63
-156.62
-204.06
-254.48
-306.23
-356.38
-402.22
-441.59
-472.55
-493.04
-500.79
-494.02
-472.23
-436.30
-388.07
-329.79
-263.76
-192.47
-119.23
-47.86
17.77
74.81
122.25
160.90
192.46
218.50
239.54
255.11
264.39
266.61
261.43
248.78
228.83
201.61
167.09
125.09
75.87
20.74
-37.55
-94.87
-146.60
-189.14
-221.38
-244.99
-263.43
-279.53
-293.24
-300.98
-297.01
-276.26
-237.09
-182.61
-119.37
-54.67
6.00
60.07
106.74
145.34
173.98
189.92
191.03
177.28
151.44
117.91
81.23
44.28
8.45
-25.71
-56.72
-81.51
-95.97
-96.32
-80.97
-51.44
-12.48
29.52
68.04
98.13
117.07
124.31
121.21
110.27
94.68
77.73
62.37
51.03
45.42
46.49
54.25
67.77
85.19
104.19
122.42
137.97
149.86
158.14
163.76
167.97
171.78
175.24
177.79
178.78
177.86
175.47
172.65
170.61
170.04
171.02
172.70
173.89
173.19
168.80
158.68
141.18
116.12
85.71
54.52
27.98
10.25
2.36
2.01
4.86
6.97
6.57
4.38
2.40
2.36
4.57
8.35
12.88
18.21
25.36
35.49
49.11
65.43
82.44
97.78
110.07
119.20
126.65
134.63
145.07
159.07
176.46
196.15
216.45
235.91
253.52
268.92
282.25
293.74
303.52
311.37
316.64
318.40
315.83
308.30
295.53
277.58
254.77
227.71
197.42
165.29
133.08
102.58
75.32
52.22
33.63
19.24
8.39
0.13
-6.64
-12.89
-19.58
-27.43
-36.83
-47.76
-60.07
-73.33
-87.30
-101.81
-116.82
-132.30
-148.24
-164.44
-180.62
-196.64
-212.45
-228.34
-244.66
-261.84
-280.00
-299.07
-318.51
-338.00
-357.33
-376.58
-395.99
-415.93
-436.78
-459.11
-483.81
-512.00
-544.50
-580.35
-616.35
-647.36
-668.10
-675.01
-667.77
-648.96
-622.73
-592.98
-562.08
-531.06
-500.40
-470.78
-442.98
-417.03
-391.24
-362.65
-328.26
-286.85
-240.10
-192.30
-148.13
-110.68
-80.29
-54.43
-29.22
-1.49
29.95
64.02
98.21
130.07
158.07
181.82
201.60
217.99
231.31
241.96
250.67
258.75
267.57
277.44
287.12
293.83
294.30
286.08
268.97
245.13
218.25
192.05
168.86
149.62
134.35
123.20
116.69
115.25
118.34
123.92
129.08
131.09
128.74
122.68
114.76
107.05
101.16
98.01
97.73
100.38
105.72
112.90
120.34
126.10
128.90
129.03
128.71
131.11
138.98
152.71
169.63
185.05
194.28
194.55
185.94
171.12
153.51
135.82
119.25
103.31
86.97
69.76
52.14
35.12
19.70
6.37
-5.01
-14.92
-24.03
-32.84
-41.93
-51.83
-62.82
-74.61
-86.31
-96.20
-102.30
-103.24
-99.17
-92.10
-85.15
-81.25
-82.00
-87.19
-94.89
-102.11
-105.91
-103.96
-94.97
-78.91
-56.79
-30.50
-2.55
24.46
48.24
67.00
79.80
86.40
87.49
84.46
79.22
73.74
69.55
67.22
66.23
65.64
64.58
63.21
62.81
65.11
71.60
82.70
97.48
113.41
127.30
136.38
139.50
137.48
132.45
127.11
124.01
125.18
130.92
139.82
149.63
158.90
167.45
176.23
186.63
199.69
215.89
233.82
249.93
259.82
260.60
251.29
231.92
203.09
165.68
120.99
69.79
10.84
-57.77
-136.13
-222.34
-313.59
-406.79
-498.64
-575.05
-615.92
-609.39
-560.71
-486.04
-400.89
-314.22
-229.22
-146.38
-65.91
11.55
83.92
146.08
194.05
226.52
244.09
248.63
242.64
216.78
172.49
114.62
48.99
-17.74
-79.07
-129.81
-167.07
-190.76
-202.91
-205.49
-201.53
-192.84
-178.53
-156.64
-127.30
-94.64
-65.54
-46.13
-37.87
-39.11
-46.83
-59.40
-77.01
-101.30
-132.20
-165.00
-190.10
-195.77
-174.86
-128.95
-67.98
-6.04
43.93
75.02
87.41
86.15
77.80
67.27
56.48
45.77
35.81
28.32
25.71
30.01
41.72
56.75
70.98
81.00
85.84
87.52
89.92
96.84
109.83
127.29
144.87
157.77
162.18
156.67
142.35
121.97
98.81
75.62
54.36
36.18
22.02
12.38
7.53
7.14
10.29
15.56
21.53
27.29
32.69
38.29
44.59
51.63
58.71
64.59
67.91
67.63
63.24
54.67
42.24
26.42
8.03
-11.54
-30.08
-44.67
-52.15
-49.71
-35.71
-10.30
24.14
63.18
101.16
132.48
152.84
159.83
152.96
133.02
101.52
60.62
13.33
-36.24
-82.98
-121.65
-148.31
-161.62
-163.27
-157.17
-147.73
-138.18
-129.89
-122.92
-116.93
-112.25
-109.73
-110.01
-112.47
-114.85
-113.87
-106.43
-91.08
-68.42
-40.83
-11.43
16.86
42.08
63.18
79.86
92.48
102.01
110.12
119.26
132.23
151.55
178.49
212.29
249.97
287.03
318.71
341.48
353.93
356.77
352.21
342.90
331.11
318.15
304.35
289.25
272.00
251.73
227.98
200.93
171.27
140.02
108.16
76.44
45.27
14.98
-14.05
-41.40
-66.91
-90.88
-114.06
-137.20
-160.48
-183.29
-204.31
-222.19
-236.25
-247.09
-256.27
-265.65
-276.44
-288.94
-302.88
-317.92
-334.24
-352.12
-371.35
-390.95
-409.39
-425.64
-439.80
-453.27
-467.22
-481.18
-492.54
-497.83
-495.34
-486.96
-478.00
-474.41
-479.20
-490.06
-499.95
-500.20
-484.49
-451.43
-404.41
-349.62
-292.93
-238.25
-187.15
-140.07
-97.27
-59.53
-27.79
-2.39
17.35
33.36
48.30
64.65
83.70
105.22
127.82
149.62
169.25
186.42
201.93
217.08
233.11
250.67
269.69
289.34
308.28
324.82
337.28
344.35
345.37
340.50
330.62
316.78
299.91
280.48
258.81
235.47
211.68
189.42
170.97
158.24
151.91
151.15
153.91
157.68
160.26
160.31
157.52
152.56
146.81
141.72
138.36
137.23
138.55
142.34
148.36
155.76
163.59
171.50
179.64
188.69
199.71
213.59
230.61
249.38
266.62
278.51
282.82
279.21
269.34
255.98
241.22
225.12
204.78
174.49
128.86
66.26
-12.57
-104.09
-202.99
-303.66
-396.33
-465.26
-496.59
-485.48
-437.10
-365.39
-284.01
-201.60
-121.80
-44.82
29.96
100.76
166.82
229.24
283.63
324.94
350.70
360.68
356.05
337.79
304.06
246.54
169.70
78.92
-26.83
-146.78
-277.73
-416.76
-552.87
-678.06
-784.59
-839.14
-821.05
-727.17
-572.84
-384.25
-186.93
-1.76
157.54
283.15
385.01
466.16
526.98
568.69
594.22
608.03
610.08
591.69
549.82
487.56
405.44
304.54
187.51
58.56
-76.91
-219.31
-370.30
-527.58
-683.17
-830.69
-964.65
-1080.74
-1175.42
-1201.27
-1127.37
-955.59
-720.96
-468.70
-234.17
-33.89
129.73
261.18
367.00
448.84
508.18
545.90
565.62
571.33
566.21
552.19
530.41
491.16
431.88
355.51
269.28
183.03
105.50
42.32
-4.29
-34.36
-48.86
-51.48
-48.05
-43.94
-41.85
-42.26
-44.30
-46.72
-48.57
-49.18
-48.71
-47.76
-45.40
-38.72
-25.08
-5.03
16.59
32.45
36.42
26.98
7.40
-15.85
-36.15
-49.88
-57.18
-60.55
-62.31
-62.85
-60.87
-55.45
-47.38
-39.44
-35.36
-37.88
-47.54
-61.20
-71.97
-71.82
-55.37
-23.39
16.05
50.66
69.38
67.33
47.53
18.36
-11.42
-36.08
-53.76
-64.35
-67.13
-60.38
-42.95
-16.93
12.77
38.77
54.48
56.61
46.05
26.26
1.15
-26.17
-53.49
-78.91
-100.77
-117.47
-127.52
-130.63
-128.48
-124.55
-122.65
-124.70
-129.19
-131.33
-123.93
-103.02
-68.67
-25.50
19.24
58.90
89.78
111.64
126.38
136.29
141.97
143.10
139.32
131.22
120.60
109.75
100.74
94.51
90.70
87.85
84.42
79.34
72.51
64.72
57.24
51.17
46.96
44.31
42.23
39.83
36.54
32.35
27.74
23.44
20.02
17.68
16.18
15.03
13.79
12.19
10.22
8.11
6.15
4.59
3.54
2.96
2.76
2.82
3.03
3.26
3.47
3.59
3.70
3.90
4.30
5.08
6.36
8.13
10.16
12.22
14.32
16.71
19.94
24.66
31.35
40.22
50.91
62.35
73.01
81.45
86.91
88.63
86.71
81.50
73.57
63.52
51.81
38.85
24.99
10.64
-4.01
-18.85
-33.63
-47.48
-59.07
-67.08
-70.64
-71.07
-71.07
-73.50
-80.29
-91.64
-106.65
-122.77
-137.51
-148.82
-155.27
-155.72
-149.34
-135.80
-116.03
-92.56
-68.84
-48.25
-33.01
-23.92
-20.40
-21.10
-24.35
-28.96
-34.69
-42.03
-51.28
-62.95
-77.94
-97.17
-120.42
-145.21
-166.80
-179.21
-177.39
-158.90
-125.55
-82.73
-37.04
5.67
42.42
73.37
101.99
128.62
151.94
169.16
177.84
177.00
167.45
152.00
133.33
113.56
94.75
78.57
65.76
56.32
49.96
46.13
45.02
45.97
47.60
49.88
52.98
56.77
60.86
65.91
67.57
66.51
64.90
65.35
72.61
90.52
120.46
160.79
208.09
258.37
308.70
355.85
380.35
369.46
322.47
250.84
169.84
91.00
20.20
-39.93
-89.12
-128.13
-155.61
-170.90
-175.16
-171.67
-164.37
-156.58
-149.87
-144.87
-141.70
-138.02
-131.95
-123.01
-112.45
-102.13
-93.55
-87.23
-83.16
-81.03
-79.06
-75.87
-71.04
-65.25
-59.67
-55.25
-52.37
-51.02
-51.11
-51.58
-51.69
-51.20
-50.27
-49.46
-49.25
-49.94
-51.74
-55.03
-59.71
-66.16
-75.05
-86.92
-102.31
-121.26
-143.01
-166.01
-189.07
-208.89
-222.32
-226.58
-219.65
-200.65
-169.95
-129.17
-80.43
-28.26
23.35
70.73
111.02
142.51
164.53
177.49
182.57
181.26
175.18
166.31
156.09
145.54
135.25
125.46
116.27
107.67
99.92
92.45
85.30
78.47
71.99
65.90
60.18
54.80
49.69
44.79
39.96
35.34
30.99
26.93
23.18
19.75
16.65
13.83
11.28
8.89
6.76
4.83
3.09
1.49
0.01
-1.29
-2.42
-3.39
-4.17
-4.74
-5.25
-5.76
-6.26
-6.75
-7.02
-6.87
-5.96
-3.86
-0.14
5.29
12.52
21.41
31.67
42.91
54.83
66.10
75.59
82.07
84.30
81.40
72.96
59.41
42.11
22.86
3.55
-13.94
-28.23
-38.70
-45.20
-47.95
-47.11
-42.67
-34.73
-23.73
-10.51
3.47
16.36
26.59
33.20
36.21
36.69
35.98
35.31
35.62
37.45
41.08
46.44
52.28
56.00
54.24
43.97
24.39
-2.09
-30.37
-54.40
-69.64
-74.97
-72.58
-66.12
-58.59
-51.04
-42.88
-33.24
-22.30
-11.59
-2.94
2.94
7.35
12.87
21.94
35.23
51.02
65.86
76.17
79.75
76.63
68.79
59.01
50.99
47.30
48.70
54.16
61.44
68.07
72.47
74.39
74.88
75.59
77.80
81.71
86.71
91.66
95.32
96.60
94.52
87.98
75.98
58.31
36.45
13.97
-4.08
-13.26
-11.55
-0.44
15.44
30.21
39.18
41.00
38.40
36.96
42.63
59.01
85.67
118.07
149.04
171.23
179.54
172.51
152.38
124.13
94.09
68.28
51.55
46.77
54.34
71.94
95.03
117.79
134.73
142.42
140.24
130.12
115.57
100.21
86.46
75.22
65.94
57.22
47.55
35.71
21.12
4.00
-14.63
-33.32
-50.29
-63.88
-72.97
-77.24
-77.28
-74.41
-70.44
-67.10
-65.78
-67.17
-71.21
-77.26
-84.51
-92.46
-101.17
-111.18
-123.30
-138.06
-155.34
-174.22
-193.08
-210.19
-224.40
-235.57
-244.67
-253.31
-263.15
-275.18
-289.42
-305.23
-321.65
-338.13
-354.80
-372.38
-391.87
-414.30
-440.77
-472.19
-508.66
-548.29
-586.20
-614.62
-624.64
-609.11
-565.47
-497.03
-411.88
-320.10
-230.38
-147.94
-74.27
-8.49
51.10
105.95
157.04
205.23
251.34
296.24
340.34
383.53
425.19
464.29
500.12
533.06
564.90
598.36
635.51
675.73
714.38
743.03
751.95
734.04
687.97
619.30
538.37
456.69
382.96
321.19
270.97
229.37
193.41
161.12
131.83
105.63
82.56
61.58
41.65
22.36
3.74
-13.73
-30.00
-45.46
-60.81
-77.27
-96.55
-118.76
-141.39
-159.71
-168.79
-166.33
-153.81
-135.74
-117.42
-104.28
-98.04
-96.10
-94.03
-88.92
-81.35
-74.44
-71.65
-75.09
-90.09
-118.20
-155.23
-192.57
-222.00
-239.55
-245.85
-244.43
-239.74
-246.40
-273.35
-318.39
-370.00
-416.85
-454.49
-484.16
-508.42
-527.58
-557.04
-605.61
-669.73
-736.78
-797.03
-850.23
-901.92
-956.17
-1012.59
-1090.91
-1203.20
-1344.82
-1496.31
-1637.51
-1757.79
-1854.83
-1929.56
-1834.77
-1497.22
-958.43
-354.03
187.28
607.08
905.38
1107.36
1242.09
1333.28
1373.68
1357.33
1293.61
1207.18
1124.40
1060.95
1021.36
1004.04
1004.70
1000.10
972.70
921.94
859.31
799.16
748.93
708.75
675.17
644.23
601.43
535.65
450.75
359.14
274.45
204.88
152.85
117.26
95.50
78.93
60.97
40.11
18.81
0.89
-11.71
-19.05
-22.14
-22.23
-22.39
-24.58
-28.87
-34.24
-39.11
-42.57
-44.43
-44.82
-43.91
-42.02
-39.52
-36.76
-34.37
-32.79
-32.05
-31.95
-32.03
-31.85
-31.23
-30.38
-29.73
-29.96
-31.45
-34.15
-37.61
-41.10
-44.03
-46.14
-47.65
-49.08
-51.01
-53.91
-58.10
-63.75
-71.40
-80.24
-88.99
-96.00
-99.79
-99.86
-97.25
-94.26
-93.50
-96.90
-103.69
-111.02
-115.21
-112.99
-102.64
-84.05
-58.42
-27.30
8.42
46.44
85.30
123.35
158.81
189.85
215.19
234.21
246.82
254.12
255.53
250.80
239.32
220.51
194.09
160.00
118.68
71.37
20.17
-32.28
-82.32
-126.73
-162.54
-187.35
-200.09
-200.58
-189.61
-168.97
-141.72
-111.44
-82.15
-57.23
-38.45
-25.80
-17.31
-9.68
0.63
15.43
34.52
55.63
75.63
92.00
103.64
111.10
115.79
119.04
121.61
124.08
126.76
130.18
135.39
143.30
154.26
168.01
180.96
189.36
190.16
181.88
164.94
141.38
113.78
84.24
53.34
22.25
-8.44
-37.91
-64.80
-87.51
-104.76
-116.06
-121.87
-123.10
-121.11
-117.15
-112.42
-107.96
-104.59
-102.78
-101.69
-99.84
-95.22
-86.45
-73.32
-57.14
-40.31
-25.51
-14.61
-8.02
-4.85
-3.59
-2.94
-2.35
-2.11
-2.70
-4.26
-6.34
-8.06
-8.57
-7.61
-5.60
-3.57
-2.75
-3.88
-6.95
-11.25
-15.57
-18.64
-19.90
-19.62
-18.78
-18.91
-21.13
-26.01
