1556028453.00
64.000000
-0.00
-0.00
-0.00
-0.00
-0.00
-0.00
-0.00
-0.00
-0.00
-0.00
0.00
0.01
0.01
-0.00
-0.03
-0.05
-0.05
0.00
0.13
0.36
0.66
1.01
1.37
1.72
2.06
2.40
2.79
3.24
3.80
4.42
5.06
5.66
6.20
6.68
7.15
7.68
8.31
9.14
10.09
11.04
11.88
12.56
13.14
13.76
14.65
15.96
17.91
20.32
22.90
25.38
27.58
29.57
31.68
34.32
37.81
42.54
48.15
54.10
59.83
64.97
69.58
74.14
79.34
85.71
93.76
103.00
112.62
121.73
129.77
136.75
143.30
150.75
157.77
166.64
177.95
191.80
206.99
220.60
228.27
225.35
208.45
176.69
132.47
79.67
22.65
-35.34
-92.76
-149.40
-205.43
-260.61
-314.08
-364.35
-410.39
-451.47
-486.97
-516.07
-537.45
-549.46
-550.40
-539.13
-515.33
-480.07
-435.33
-383.74
-328.03
-270.64
-213.49
-157.97
-105.04
-55.34
-9.53
31.79
68.02
98.65
123.40
142.28
155.74
164.58
169.95
172.93
174.38
174.65
173.58
170.63
165.28
157.44
147.67
137.13
127.16
118.83
112.35
107.10
101.80
95.11
86.25
75.35
63.39
51.91
42.53
36.63
35.24
38.83
46.97
57.94
68.69
75.61
75.86
68.70
56.13
42.03
30.27
22.72
18.33
14.10
7.18
-3.04
-14.31
-22.68
-24.76
-19.80
-10.05
0.50
8.27
11.80
12.11
11.62
12.54
15.47
19.40
22.41
23.04
21.16
17.89
14.85
13.20
13.20
14.36
15.87
17.14
17.89
18.07
17.60
16.39
14.44
11.91
9.11
6.32
3.63
0.97
-1.71
-4.34
-6.58
-8.06
-8.63
-8.38
-7.62
-6.72
-5.88
-5.12
-4.46
-3.90
-3.48
-3.24
-3.21
-3.34
-3.62
-4.03
-4.55
-5.09
-5.46
-5.48
-5.02
-4.16
-3.14
-2.29
-1.87
-1.95
-2.39
-2.90
-3.22
-3.15
-2.63
-1.72
-0.57
0.69
1.96
3.19
4.35
5.41
6.38
7.22
7.89
8.33
8.54
8.46
8.09
7.48
6.54
5.28
3.81
2.28
0.93
-0.04
-0.51
-0.45
0.05
0.88
1.94
3.19
4.59
6.03
7.31
8.16
8.32
7.63
6.16
4.10
1.75
-0.62
-2.86
-4.88
-6.64
-8.06
-9.07
-9.63
-9.83
-9.90
-10.06
-10.38
-10.67
-10.58
-9.70
-7.88
-5.40
-2.85
-0.94
-0.14
-0.50
-1.62
-2.90
-3.79
-4.09
-3.88
-3.36
-2.72
-1.99
-1.13
-0.16
0.74
1.29
1.28
0.74
-0.09
-0.81
-1.10
-0.85
-0.18
0.64
1.38
1.87
2.02
1.83
1.40
0.84
0.26
-0.22
-0.56
-0.75
-0.80
-0.79
-0.80
-0.88
-1.13
-1.61
-2.29
-3.06
-3.74
-4.12
-4.07
-3.64
-3.04
-2.59
-2.57
-3.11
-4.10
-5.27
-6.31
-7.00
-7.30
-7.38
-7.52
-8.02
-9.00
-10.43
-12.11
-13.77
-15.20
-16.30
-17.08
-17.71
-18.43
-19.55
-21.28
-23.63
-26.28
-28.68
-30.16
-30.28
-29.03
-26.93
-24.77
-23.33
-23.03
-23.83
-25.32
-27.03
-28.66
-30.19
-31.80
-33.68
-35.90
-38.24
-40.23
-41.24
-40.62
-37.90
-32.90
-25.76
-16.81
-6.44
4.97
17.04
29.19
40.61
50.18
56.78
59.54
58.19
53.19
45.58
36.78
28.13
20.63
14.71
10.16
6.24
1.97
-3.52
-10.65
-19.06
-27.37
-33.34
-34.38
-28.23
-13.78
8.51
36.72
68.08
99.74
129.41
155.60
177.46
194.33
205.47
209.91
206.72
195.32
175.93
149.76
119.03
86.58
55.31
27.43
3.97
-15.23
-31.03
-44.33
-55.59
-64.81
-71.81
-76.69
-79.92
-82.17
-83.85
-84.85
-84.66
-82.70
-78.88
-73.70
-68.10
-63.06
-59.15
-56.34
-54.08
-51.64
-48.47
-44.38
-39.59
-34.61
-29.97
-26.06
-22.99
-20.60
-18.59
-16.67
-14.65
-12.55
-10.53
-8.78
-7.45
-6.55
-5.95
-5.41
-4.72
-3.77
-2.62
-1.46
-0.52
0.01
0.07
-0.25
-0.79
-1.36
-1.81
-2.12
-2.38
-2.81
-3.69
-5.21
-7.30
-9.52
-11.19
-11.62
-10.47
-7.92
-4.64
-1.50
0.83
2.06
2.38
2.18
1.92
1.89
2.18
2.80
3.71
4.89
6.23
7.58
8.66
9.22
9.14
8.54
7.70
7.02
6.79
7.09
7.81
8.65
9.35
9.71
9.70
9.38
8.85
8.18
7.39
6.52
5.67
4.97
4.50
4.24
4.01
3.56
2.71
1.44
-0.06
-1.45
-2.48
-3.06
-3.37
-3.67
-4.21
-5.07
-6.17
-7.29
-8.16
-8.57
-8.40
-7.66
-6.52
-5.35
-4.64
-4.87
-6.25
-8.58
-11.21
-13.24
-13.82
-12.59
-9.80
-6.26
-2.98
-0.81
-0.10
-0.67
-2.00
-3.48
-4.69
-5.39
-5.55
-5.21
-4.47
-3.48
-2.49
-1.80
-1.60
-1.91
-2.57
-3.30
-3.88
-4.26
-4.50
-4.68
-4.82
-4.79
-4.52
-3.97
-3.32
-2.86
-2.83
-3.31
-4.14
-5.04
-5.80
-6.34
-6.79
-7.32
-7.95
-8.49
-8.61
-8.05
-6.79
-5.11
-3.44
-2.11
-1.20
-0.53
0.21
1.22
2.51
3.90
5.17
6.16
6.81
7.14
7.10
6.62
5.59
4.01
2.09
0.25
-1.04
-1.35
-0.51
1.37
3.94
6.78
9.52
11.91
13.88
15.42
16.52
17.21
17.52
17.53
17.34
17.06
16.72
16.29
15.70
14.90
13.91
12.77
11.53
10.22
8.87
7.54
6.33
5.38
4.76
4.39
4.07
3.51
2.53
1.11
-0.58
-2.25
-3.71
-4.95
-6.24
-7.93
-10.34
-13.51
-17.16
-20.80
-23.90
-26.19
-27.79
-29.25
-31.29
-34.57
-39.33
-45.24
-51.50
-57.14
-61.37
-64.00
-65.47
-66.71
-68.72
-72.17
-77.10
-83.07
-89.38
-95.39
-100.61
-104.53
-106.60
-106.20
-103.03
-97.23
-89.17
-78.83
-65.25
-46.54
-20.98
11.58
48.64
85.23
115.52
134.98
142.06
138.50
128.28
115.92
104.98
97.41
93.58
92.71
93.14
92.73
89.45
81.99
70.38
55.88
40.22
24.68
9.41
-6.30
-23.06
-40.30
-55.86
-66.73
-70.29
-65.61
-53.81
-37.20
-17.98
2.31
22.32
39.90
51.68
54.05
45.05
26.33
3.39
-15.93
-24.39
-18.27
1.57
30.61
63.10
94.41
121.70
143.02
155.77
156.18
140.65
108.47
63.88
16.09
-23.48
-45.53
-46.71
-30.93
-7.05
15.34
29.92
35.34
34.24
30.56
27.10
24.67
22.66
20.49
18.34
17.34
18.70
22.83
29.01
35.48
40.36
42.39
41.55
39.04
36.86
36.98
40.55
47.42
56.17
64.63
70.68
73.07
71.81
68.11
63.82
60.77
60.33
63.21
69.58
78.95
89.96
100.31
107.20
108.25
102.66
91.88
79.18
68.33
62.07
61.05
63.94
68.05
70.29
67.68
57.65
38.42
9.63
-26.91
-67.18
-105.67
-136.91
-157.10
-165.13
-162.55
-152.90
-140.63
-129.92
-123.80
-123.54
-128.52
-136.75
-145.79
-153.87
-160.55
-166.54
-172.93
-180.24
-187.96
-194.73
-199.03
-199.82
-196.90
-190.84
-182.70
-173.70
-165.04
-157.71
-152.19
-148.21
-144.62
-139.63
-131.44
-118.90
-101.94
-81.46
-58.75
-34.85
-10.31
14.66
39.58
63.46
84.96
103.00
117.34
128.78
138.60
147.82
156.59
164.32
170.19
173.77
175.22
175.11
173.92
171.73
168.27
163.27
156.75
149.16
141.15
133.20
125.35
117.14
107.98
97.51
85.86
73.68
61.87
51.09
41.55
32.92
24.53
15.86
6.83
-1.97
-9.59
-15.23
-18.66
-20.46
-21.75
-23.75
-27.12
-31.75
-36.76
-41.04
-43.74
-44.73
-44.68
-44.64
-45.53
-47.69
-50.75
-53.85
-56.12
-57.07
-56.75
-55.64
-54.29
-53.03
-51.82
-50.39
-48.50
-46.10
-43.42
-40.84
-38.71
-37.19
-36.23
-35.52
-34.72
-33.52
-31.80
-29.73
-27.63
-25.90
-24.72
-24.02
-23.48
-22.76
-21.65
-20.26
-18.92
-18.03
-17.85
-18.38
-19.38
-20.47
-21.27
-21.49
-21.09
-20.27
-19.47
-19.17
-19.74
-21.16
-23.05
-24.79
-25.85
-26.08
-25.95
-26.28
-28.06
-31.90
-37.81
-45.06
-52.35
-58.04
-60.59
-58.99
-53.11
-43.78
-32.65
-21.59
-12.04
-4.59
1.11
5.94
10.68
15.50
19.99
23.48
25.61
26.68
27.52
29.03
31.59
34.82
37.79
39.52
39.55
38.22
36.44
35.22
35.17
36.35
38.35
40.68
42.99
45.19
47.18
48.79
49.67
49.55
48.41
46.56
44.48
42.38
40.03
36.80
32.06
25.69
18.33
11.33
6.14
3.68
3.88
5.72
7.74
8.74
8.26
6.50
3.90
0.66
-3.50
-8.96
-15.61
-22.43
-27.69
-29.65
-27.43
-21.49
-13.43
-5.12
2.11
7.97
13.01
18.07
23.74
30.17
37.22
44.72
52.57
60.57
68.28
75.02
80.04
82.85
83.38
81.92
78.90
74.73
69.72
64.25
58.93
54.48
51.49
50.04
49.42
48.39
45.57
40.03
31.66
21.15
9.63
-1.84
-12.65
-22.71
-32.25
-41.45
-50.23
-58.18
-64.86
-70.09
-74.10
-77.45
-80.73
-84.24
-87.81
-90.91
-92.94
-93.52
-92.73
-91.16
-89.87
-90.10
-92.84
-98.25
-105.23
-111.39
-113.68
-109.40
-97.38
-78.48
-55.38
-31.53
-9.86
8.02
22.00
32.85
41.50
48.64
54.69
60.21
66.00
72.95
81.44
90.82
99.35
104.71
104.91
99.13
88.01
73.39
57.51
42.34
29.10
18.23
9.67
3.14
-1.74
-5.34
-8.07
-10.38
-12.63
-15.07
-17.75
-20.54
-23.15
-25.32
-26.84
-27.74
-28.20
-28.50
-28.84
-29.25
-29.57
-29.55
-29.06
-28.11
-26.97
-25.97
-25.37
-25.23
-25.31
-25.20
-24.45
-22.83
-20.37
-17.39
-14.33
-11.57
-9.32
-7.60
-6.29
-5.23
-4.29
-3.38
-2.45
-1.42
-0.27
1.02
2.41
3.85
5.34
6.92
8.66
10.62
12.72
14.82
16.69
18.18
19.24
19.96
20.52
21.04
21.55
21.92
21.99
21.65
20.91
19.90
18.86
17.98
17.31
16.82
16.32
15.63
14.57
13.07
11.12
8.84
6.37
3.86
1.43
-0.89
-3.15
-5.42
-7.70
-9.92
-11.89
-13.38
-14.17
-14.22
-13.65
-12.74
-11.77
-10.91
-10.22
-9.64
-9.08
-8.49
-7.89
-7.30
-6.72
-6.09
-5.33
-4.40
-3.31
-2.20
-1.24
-0.56
-0.18
-0.03
0.10
0.39
0.95
1.78
2.78
3.78
4.68
5.43
6.11
6.74
7.30
7.66
7.72
7.42
6.84
6.14
5.48
4.92
4.42
3.85
3.10
2.15
1.06
-0.00
-0.93
-1.67
-2.29
-2.90
-3.55
-4.24
-4.83
-5.15
-5.07
-4.58
-3.84
-3.13
-2.70
-2.69
-3.06
-3.58
-3.93
-3.82
-3.09
-1.79
-0.16
1.44
2.66
3.32
3.41
3.16
2.89
2.87
3.24
3.97
4.88
5.76
6.42
6.75
6.72
6.41
5.92
5.35
4.80
4.21
3.56
2.77
1.89
1.00
0.25
-0.30
-0.71
-1.15
-1.82
-2.82
-4.14
-5.60
-6.99
-8.09
-8.80
-9.13
-9.20
-9.20
-9.28
-9.53
-9.91
-10.34
-10.70
-10.93
-11.04
-11.09
-11.17
-11.34
-11.61
-11.98
-12.42
-12.88
-13.24
-13.37
-13.12
-12.41
-11.25
-9.80
-8.25
-6.75
-5.37
-4.08
-2.82
-1.59
-0.42
0.57
1.32
1.83
2.18
2.50
2.92
3.51
4.28
5.13
5.94
6.56
6.91
7.00
6.95
6.94
7.06
7.34
7.64
7.79
7.69
7.34
6.90
6.52
6.27
6.06
5.75
5.18
4.32
3.24
2.08
0.96
-0.06
-0.99
-1.89
-2.80
-3.71
-4.52
-5.17
-5.56
-5.66
-5.48
-5.02
-4.30
-3.30
-2.07
-0.70
0.62
1.71
2.45
2.88
3.14
3.40
3.79
4.33
4.93
5.49
5.95
6.29
6.51
6.60
6.51
6.23
5.76
5.20
4.67
4.25
4.01
3.93
3.93
3.90
3.74
3.31
2.57
1.57
0.44
-0.56
-1.25
-1.55
-1.55
-1.45
-1.47
-1.73
-2.16
-2.60
-2.88
-2.92
-2.82
-2.73
-2.86
-3.29
-4.02
-4.92
-5.85
-6.68
-7.25
-7.43
-7.07
-6.11
-4.61
-2.77
-0.93
0.57
1.53
1.93
1.96
1.90
2.01
2.38
2.99
3.69
4.32
4.78
5.03
5.13
5.19
5.27
5.42
5.63
5.83
5.97
5.99
5.88
5.65
5.31
4.86
4.34
3.80
3.30
2.90
2.63
2.47
2.40
2.36
2.29
2.14
1.82
1.25
0.41
-0.66
-1.86
-3.06
-4.20
-5.27
-6.35
-7.59
-9.14
-11.15
-13.68
-16.72
-20.15
-23.69
-26.95
-29.47
-30.88
-30.97
-29.89
-28.07
-26.13
-24.67
-24.10
-24.42
-25.34
-26.32
-26.89
-26.78
-26.11
-25.31
-24.95
-25.53
-27.26
-29.97
-33.24
-36.42
-38.93
-40.31
-40.38
-39.23
-37.20
-34.77
-32.40
-30.42
-28.82
-27.16
-24.67
-20.45
-13.79
-4.49
6.98
19.63
32.19
43.57
53.14
60.89
67.21
72.69
77.80
82.78
87.73
92.62
97.46
102.16
106.39
109.52
110.63
108.86
103.66
95.15
84.06
71.57
58.84
46.66
35.23
24.28
13.33
2.08
-9.37
-20.45
-30.30
-38.02
-43.04
-45.29
-45.30
-43.96
-42.28
-41.02
-40.43
-40.14
-39.26
-36.63
-31.34
-23.17
-12.81
-1.76
8.21
15.67
19.99
21.38
20.61
18.56
15.81
12.61
9.08
5.45
2.19
-0.17
-1.32
-1.37
-0.82
-0.35
-0.48
-1.39
-2.86
-4.40
-5.53
-5.97
-5.75
-5.17
-4.60
-4.35
-4.53
-5.05
-5.74
-6.44
-7.00
-7.38
-7.59
-7.69
-7.76
-7.89
-8.06
-8.22
-8.25
-8.06
-7.60
-6.92
-6.11
-5.34
-4.75
-4.56
-4.99
-6.29
-8.66
-12.13
-16.52
-21.39
-26.20
-30.38
-33.44
-35.13
-35.34
-34.12
-31.62
-28.06
-23.66
-18.66
-13.35
-8.03
-3.04
1.32
4.82
7.35
8.98
9.91
10.42
10.88
11.62
12.90
14.87
17.40
20.06
22.19
23.05
22.18
19.64
16.10
12.53
9.78
8.19
7.37
6.41
4.31
0.47
-5.05
-11.51
-17.80
-22.78
-25.74
-26.51
-25.46
-23.30
-20.81
-18.52
-16.60
-14.89
-12.99
-10.41
-6.69
-1.56
4.88
12.00
18.69
23.73
26.16
25.73
22.98
19.02
14.98
11.64
9.17
7.38
5.99
4.96
4.50
4.88
6.16
8.14
10.42
12.61
14.52
16.21
17.88
19.71
21.71
23.70
25.40
26.54
27.10
27.26
27.41
27.96
29.24
31.32
33.91
36.39
37.89
37.65
35.19
30.58
24.31
17.12
9.68
2.33
-4.89
-12.12
-19.41
-26.58
-33.24
-38.92
-43.25
-46.05
-47.35
-47.32
-46.27
-44.57
-42.69
-41.04
-39.94
-39.44
-39.36
-39.38
-39.19
-38.68
-37.92
-37.14
-36.59
-36.37
-36.49
-36.85
-37.32
-37.76
-38.06
-38.10
-37.86
-37.39
-36.83
-36.37
-36.15
-36.20
-36.48
-36.86
-37.23
-37.44
-37.35
-36.83
-35.81
-34.34
-32.61
-30.92
-29.52
-28.46
-27.50
-26.27
-24.45
-21.91
-18.79
-15.34
-11.73
-7.89
-3.57
1.57
7.74
14.93
22.92
31.28
39.49
47.03
53.44
58.43
61.94
64.14
65.35
65.90
65.99
65.69
65.03
64.12
63.18
62.40
61.74
60.76
58.69
54.73
48.35
39.65
29.29
18.33
7.90
-1.16
-8.44
-13.99
-18.13
-21.37
-24.21
-27.19
-30.70
-34.96
-39.87
-44.94
-49.30
-51.89
-51.77
-48.36
-41.75
-32.65
-22.23
-11.63
-1.65
7.55
16.30
25.22
34.79
45.12
55.97
66.78
76.94
85.82
92.86
97.57
99.47
98.21
93.53
85.37
73.81
59.13
41.86
22.92
3.54
-14.93
-31.40
-45.42
-57.06
-66.66
-74.31
-79.50
-81.29
-78.87
-72.14
-62.01
-50.11
-38.02
-26.67
-15.98
-5.33
5.86
17.54
28.98
39.16
47.37
53.65
58.84
64.17
70.70
78.87
88.16
97.28
104.34
107.40
104.90
96.13
81.40
62.01
39.94
17.37
-3.76
-22.07
-36.79
-47.69
-54.89
-58.73
-59.71
-58.43
-55.59
-51.92
-48.06
-44.45
-41.31
-38.58
-36.10
-33.63
-31.04
-28.34
-25.75
-23.62
-22.25
-21.78
-22.00
-22.45
-22.49
-21.67
-19.85
-17.31
-14.61
-12.27
-10.57
-9.39
-8.35
-7.00
-5.05
-2.49
0.56
3.92
7.45
11.03
14.46
17.36
19.28
19.86
19.02
17.05
14.48
11.85
9.53
7.63
6.15
5.07
4.43
4.30
4.64
5.25
5.84
6.09
5.81
4.99
3.80
2.47
1.24
0.20
-0.71
-1.68
-2.94
-4.64
-6.79
-9.21
-11.61
-13.64
-15.05
-15.73
-15.75
-15.28
-14.56
-13.85
-13.30
-12.98
-12.83
-12.77
-12.74
-12.72
-12.69
-12.67
-12.58
-12.34
-11.88
-11.17
-10.28
-9.27
-8.20
-7.09
-5.99
-4.96
-4.09
-3.48
-3.10
-2.85
-2.60
-2.25
-1.84
-1.49
-1.36
-1.54
-1.98
-2.57
-3.20
-3.84
-4.53
-5.38
-6.46
-7.75
-9.14
-10.43
-11.42
-11.92
-11.81
-11.07
-9.74
-8.00
-6.08
-4.25
-2.74
-1.69
-1.09
-0.79
-0.58
-0.21
0.53
1.76
3.49
5.58
7.76
9.69
11.08
11.73
11.67
11.07
10.16
9.13
8.11
7.12
6.18
5.33
4.63
4.14
3.87
3.77
3.81
3.94
4.22
4.71
5.40
6.23
7.01
7.53
7.63
7.27
6.55
5.65
4.80
4.10
3.58
3.11
2.56
1.84
0.94
0.00
-0.83
-1.43
-1.84
-2.18
-2.67
-3.46
-4.56
-5.86
-7.15
-8.23
-8.97
-9.34
-9.47
-9.54
-9.78
-10.33
-11.20
-12.17
-12.85
-12.78
-11.63
-9.37
-6.28
-2.89
0.21
2.61
4.16
4.93
5.21
5.31
5.47
5.81
6.34
7.05
7.86
8.70
9.46
10.08
10.47
10.58
10.41
10.01
9.46
8.96
8.68
8.78
9.26
9.97
10.64
10.97
10.77
10.03
8.93
7.77
6.82
6.19
5.85
5.65
5.48
5.28
5.07
4.87
4.69
4.47
4.14
3.63
2.95
2.14
1.26
0.35
-0.56
-1.45
-2.26
-2.94
-3.51
-4.07
-4.73
-5.58
-6.57
-7.53
-8.28
-8.72
-8.93
-9.13
-9.55
-10.29
-11.34
-12.56
-13.82
-15.00
-15.95
-16.47
-16.28
-15.15
-13.06
-10.26
-7.24
-4.51
-2.41
-1.00
-0.10
0.61
1.34
2.17
3.02
3.79
4.38
4.80
5.11
5.35
5.50
5.49
5.25
4.73
4.04
3.33
2.81
2.62
2.81
3.27
3.82
4.28
4.49
4.43
4.17
3.86
3.63
3.57
3.66
3.87
4.11
4.35
4.54
4.68
4.75
4.69
4.46
4.04
3.45
2.81
2.22
1.79
1.53
1.39
1.27
1.04
0.60
-0.09
-0.99
-2.00
-2.98
-3.81
-4.39
-4.75
-4.99
-5.30
-5.86
-6.76
-8.00
-9.37
-10.54
-11.15
-10.87
-9.61
-7.53
-5.02
-2.57
-0.58
0.74
1.46
1.78
1.97
2.23
2.62
3.11
3.61
4.07
4.49
4.90
5.34
5.78
6.16
6.36
6.31
6.00
5.52
5.02
4.66
4.55
4.70
5.00
5.29
5.42
5.27
4.85
4.23
3.56
2.94
2.48
2.16
1.89
1.56
1.09
0.45
-0.34
-1.20
-2.06
-2.86
-3.58
-4.20
-4.75
-5.24
-5.71
-6.19
-6.66
-7.12
-7.59
-8.06
-8.58
-9.18
-9.84
-10.49
-11.05
-11.46
-11.69
-11.75
-11.57
-11.06
-10.07
-8.49
-6.40
-4.05
-1.81
-0.06
1.02
1.47
1.57
1.63
1.94
2.63
3.65
4.82
5.95
6.82
7.32
7.38
7.08
6.53
5.92
5.34
4.79
4.16
3.30
2.15
0.79
-0.49
-1.38
-1.64
-1.20
-0.26
0.87
1.89
2.63
3.17
3.72
4.58
6.01
8.15
10.95
14.18
17.47
20.34
22.28
22.88
21.96
19.58
16.10
12.10
8.19
4.93
2.65
1.39
0.96
1.03
1.27
1.48
1.57
1.58
1.56
1.55
1.51
1.35
0.95
0.16
-1.14
-2.95
-5.12
-7.31
-9.07
-9.98
-9.82
-8.73
-7.16
-5.65
-4.67
-4.39
-4.67
-5.19
-5.63
-5.75
-5.48
-4.87
-4.01
-3.13
-2.52
-2.51
-3.33
-4.93
-6.87
-8.41
-8.87
-7.93
-5.84
-3.32
-1.19
0.02
0.26
-0.06
-0.44
-0.58
-0.48
-0.38
-0.47
-0.74
-1.02
-1.08
-0.84
-0.46
-0.22
-0.36
-0.92
-1.79
-2.76
-3.66
-4.47
-5.26
-6.07
-6.92
-7.72
-8.37
-8.86
-9.23
-9.59
-10.07
-10.74
-11.63
-12.68
-13.73
-14.52
-14.72
-13.97
-12.11
-9.23
-5.76
-2.31
0.52
2.39
3.26
3.41
3.25
3.15
3.35
3.93
4.79
5.78
6.69
7.35
7.61
7.50
7.09
6.57
6.09
5.77
5.57
5.43
5.24
4.98
4.67
4.35
4.09
3.89
3.73
3.57
3.39
3.16
2.90
2.59
2.21
1.73
1.15
0.50
-0.11
-0.59
-0.87
-0.99
-1.03
-1.15
-1.42
-1.85
-2.38
-2.90
-3.37
-3.81
-4.27
-4.79
-5.40
-6.11
-6.96
-7.98
-9.17
-10.39
-11.32
-11.57
-10.83
-9.06
-6.53
-3.74
-1.27
0.49
1.38
1.56
1.35
1.12
1.17
1.62
2.48
3.65
4.92
6.09
7.00
7.56
7.77
7.73
7.53
7.26
6.96
6.68
6.47
6.40
6.48
6.68
6.92
7.06
6.98
6.65
6.12
5.52
4.98
4.55
4.22
3.93
3.60
3.24
2.83
2.39
1.91
1.37
0.76
0.13
-0.43
-0.86
-1.14
-1.36
-1.60
-1.95
-2.42
-2.97
-3.52
-4.04
-4.54
-5.06
-5.65
-6.34
-7.17
-8.13
-9.20
-10.24
-11.00
-11.18
-10.53
-8.98
-6.73
-4.18
-1.79
0.10
1.33
1.98
2.25
2.34
2.42
2.60
2.93
3.50
4.29
5.24
6.21
7.02
7.55
7.80
7.85
7.80
7.71
7.60
7.41
7.12
6.76
6.41
6.13
5.96
5.83
5.66
5.36
4.87
4.24
3.51
2.79
2.16
1.62
1.16
0.73
0.26
-0.30
-0.98
-1.76
-2.63
-3.58
-4.57
-5.57
-6.49
-7.24
-7.77
-8.06
-8.21
-8.38
-8.77
-9.51
-10.56
-11.70
-12.55
-12.70
-11.88
-10.13
-7.80
-5.42
-3.49
-2.28
-1.74
-1.60
-1.50
-1.20
-0.65
0.09
0.91
1.71
2.47
3.18
3.83
4.39
4.80
5.05
5.12
5.04
4.86
4.66
4.53
4.53
4.64
4.75
4.75
4.57
4.24
3.87
3.58
3.40
3.24
2.94
2.36
1.50
0.47
-0.54
-1.37
-1.93
-2.25
-2.41
-2.53
-2.73
-3.12
-3.80
-4.78
-5.97
-7.21
-8.31
-9.13
-9.67
-10.04
-10.42
-10.95
-11.73
-12.73
-13.88
-15.10
-16.27
-17.24
-17.82
-17.72
-16.71
-14.67
-11.72
-8.22
-4.64
-1.44
1.08
2.91
4.22
5.33
6.52
7.97
9.76
11.89
14.25
16.70
18.95
20.67
21.49
21.18
19.76
17.56
15.08
12.82
11.14
10.11
9.57
9.29
9.04
8.74
8.43
8.14
7.88
7.59
7.21
6.72
6.19
5.72
5.46
5.45
5.64
5.85
5.91
5.69
5.17
4.48
3.78
3.22
2.89
2.76
2.73
2.64
2.40
1.90
1.08
-0.13
-1.82
-3.99
-6.61
-9.55
-12.63
-15.73
-18.72
-21.54
-24.04
-25.96
-27.02
-26.98
-25.81
-23.79
-21.41
-19.21
-17.60
-16.72
-16.44
-16.47
-16.48
-16.21
-15.50
-14.35
-12.86
-11.19
-9.48
-7.76
-5.93
-3.87
-1.51
1.06
3.66
6.08
8.24
10.24
12.24
14.30
16.29
17.93
18.95
19.25
18.96
18.38
17.81
17.37
17.02
16.61
16.00
15.16
14.14
13.01
11.80
10.52
9.11
7.56
5.86
4.05
2.16
0.25
-1.64
-3.51
-5.33
-7.04
-8.54
-9.62
-10.08
-9.78
-8.78
-7.31
-5.75
-4.51
-3.85
-3.82
-4.27
-4.92
-5.43
-5.52
-4.97
-3.75
-1.93
0.25
2.45
4.35
5.71
6.46
6.69
6.63
6.47
6.33
6.23
6.12
5.91
5.62
5.28
4.95
4.64
4.29
3.81
3.15
2.35
1.53
0.78
0.12
-0.58
-1.49
-2.71
-4.17
-5.66
-6.91
-7.74
-8.15
-8.24
-8.15
-7.95
-7.62
-7.12
-6.46
-5.70
-4.89
-3.98
-2.83
-1.26
0.83
3.37
6.06
8.56
10.53
11.82
12.42
12.45
12.10
11.49
10.74
9.94
9.17
8.50
7.98
7.57
7.18
6.68
6.02
5.21
4.35
3.57
2.96
2.52
2.21
1.92
1.54
1.01
0.30
-0.60
-1.64
-2.76
-3.87
-4.93
-5.93
-6.93
-8.00
-9.16
-10.37
-11.52
-12.45
-13.03
-13.14
-12.80
-12.07
-11.09
-10.02
-9.02
-8.21
-7.69
-7.56
-7.89
-8.69
-9.93
-11.50
-13.24
-14.93
-16.42
-17.56
-18.23
-18.28
-17.51
-15.71
-12.73
-8.56
-3.40
2.29
7.88
12.67
16.12
17.98
18.39
17.79
16.82
16.02
15.67
15.74
15.97
16.07
15.89
15.50
15.10
14.88
14.89
15.00
15.02
14.80
14.37
13.90
13.62
13.65
13.94
14.28
14.41
14.18
13.55
12.62
11.48
10.18
8.65
6.76
4.43
1.66
-1.36
-4.33
-6.92
-8.87
-10.10
-10.72
-10.98
-11.20
-11.58
-12.20
-12.93
-13.60
-14.04
-14.24
-14.32
-14.49
-14.95
-15.78
-16.87
-17.97
-18.69
-18.70
-17.79
-15.96
-13.43
-10.56
-7.71
-5.18
-3.13
-1.59
-0.49
0.28
0.90
1.51
2.26
3.17
4.20
5.19
5.97
6.40
6.48
6.30
6.04
5.85
5.77
5.80
5.86
5.92
5.97
6.04
6.12
6.17
6.11
5.89
5.51
5.04
4.60
4.26
4.05
3.92
3.76
3.52
3.16
2.72
2.25
1.78
1.37
1.03
0.78
0.59
0.41
0.16
-0.26
-0.86
-1.54
-2.08
-2.20
-1.69
-0.49
1.28
3.33
5.37
7.16
8.55
9.55
10.23
10.67
10.98
11.22
11.41
11.57
11.66
11.63
11.40
10.91
10.12
9.02
7.66
6.15
4.62
3.21
2.06
1.24
0.73
0.37
-0.01
-0.59
-1.46
-2.57
-3.78
-4.93
-5.95
-6.83
-7.62
-8.38
-9.11
-9.77
-10.32
-10.79
-11.28
-11.90
-12.72
-13.72
-14.76
-15.66
-16.22
-16.26
-15.66
-14.29
-12.15
-9.41
-6.46
-3.85
-2.17
-1.76
-2.61
-4.30
-6.20
-7.66
-8.26
-7.91
-6.81
-5.26
-3.58
-1.92
-0.37
1.09
2.44
3.67
4.74
5.62
6.34
6.95
7.56
8.23
8.98
9.72
10.29
10.51
10.27
9.58
8.50
7.19
5.80
4.45
3.24
2.23
1.47
1.02
0.92
1.14
1.56
1.98
2.18
2.02
1.49
0.66
-0.35
-1.44
-2.61
-3.82
-5.02
-6.05
-6.75
-6.98
-6.74
-6.13
-5.31
-4.40
-3.43
-2.37
-1.22
-0.03
1.07
1.98
2.62
3.05
3.31
3.45
3.43
3.21
2.74
2.02
1.16
0.23
-0.71
-1.69
-2.79
-4.07
-5.48
-6.88
-7.97
-8.46
-8.13
-6.94
-5.09
-2.91
-0.83
0.85
2.00
2.70
3.15
3.54
3.92
4.28
4.59
4.85
5.17
5.65
6.34
7.13
7.82
8.22
8.23
7.90
7.41
6.95
6.71
6.73
6.98
7.35
7.70
7.90
7.89
7.70
7.40
7.08
6.85
6.72
6.68
6.63
6.48
6.19
5.78
5.34
4.90
4.46
3.95
3.29
2.43
1.43
0.41
-0.48
-1.15
-1.58
-1.87
-2.18
-2.63
-3.31
-4.27
-5.46
-6.77
-7.97
-8.81
-9.04
-8.60
-7.61
-6.42
-5.42
-4.96
-5.17
-6.01
-7.28
-8.75
-10.17
-11.35
-12.06
-12.10
-11.30
-9.61
-7.15
-4.12
-0.82
2.45
5.38
7.74
9.35
10.18
10.41
10.38
10.50
11.05
12.02
13.07
13.66
13.31
11.91
9.71
7.27
5.19
3.81
3.17
3.04
3.12
3.17
3.12
2.95
2.64
2.12
1.33
0.26
-0.93
-2.03
-2.82
-3.28
-3.57
-4.04
-4.99
-6.55
-8.63
-10.90
-12.89
-14.16
-14.34
-13.33
-11.26
-8.52
-5.64
-3.18
-1.61
-1.14
-1.69
-2.88
-4.14
-4.98
-5.13
-4.67
-3.92
-3.29
-3.06
-3.22
-3.55
-3.74
-3.60
-3.17
-2.68
-2.37
-2.37
-2.55
-2.69
-2.55
-2.02
-1.22
-0.38
0.22
0.43
0.28
-0.07
-0.38
-0.53
-0.51
-0.46
-0.53
-0.82
-1.29
-1.78
-2.10
-2.17
-1.99
-1.69
-1.42
-1.30
-1.38
-1.67
-2.13
-2.70
-3.27
-3.69
-3.79
-3.47
-2.73
-1.75
-0.76
-0.03
0.36
0.48
0.65
1.23
2.57
4.71
7.39
10.08
12.09
12.89
12.28
10.49
8.09
5.75
4.03
3.19
3.15
3.57
4.01
4.11
3.66
2.68
1.36
0.01
-1.09
-1.74
-1.92
-1.77
-1.59
-1.77
-2.68
-4.64
-7.83
-12.28
-17.83
-24.29
-31.37
-38.80
-46.18
-53.02
-58.67
-62.43
-63.67
-61.95
-57.14
-49.45
-39.53
-28.40
-17.27
-7.24
1.05
7.69
13.40
19.14
25.62
32.89
40.27
46.70
51.16
53.03
52.24
49.03
43.90
37.46
30.40
23.54
17.69
13.49
11.23
10.89
12.16
14.64
17.94
21.69
25.60
29.44
33.05
36.33
39.20
41.44
42.72
42.62
40.86
37.48
32.87
27.64
22.45
17.84
14.12
11.42
9.78
9.11
9.19
9.57
9.73
9.16
7.56
4.96
1.65
-1.95
-5.42
-8.49
-11.09
-13.23
-15.03
-16.55
-17.83
-18.87
-19.63
-20.14
-20.45
-20.64
-20.79
-20.86
-20.71
-20.10
-18.81
-16.75
-14.04
-11.01
-8.03
-5.42
-3.26
-1.41
0.46
2.66
5.32
8.36
11.44
14.17
16.25
17.63
18.49
19.16
19.93
20.99
22.31
23.69
24.76
24.98
23.66
20.14
14.06
5.57
-4.53
-15.02
-24.59
-32.31
-37.82
-41.36
-43.44
-44.60
-45.13
-45.11
-44.51
-43.36
-41.83
-40.23
-38.89
-37.98
-37.46
-37.05
-36.33
-34.95
-32.80
-30.09
-27.22
-24.56
-22.27
-20.24
-18.20
-15.89
-13.25
-10.44
-7.75
-5.42
-3.58
-2.22
-1.22
-0.45
0.16
0.65
1.05
1.33
1.49
1.53
1.51
1.56
1.92
2.87
4.64
7.32
10.71
14.40
17.73
20.06
20.93
20.21
18.17
15.35
12.38
9.83
8.03
7.07
6.85
7.17
7.84
8.70
9.62
10.48
11.15
11.49
11.43
10.95
10.15
9.19
8.29
7.57
7.06
6.66
6.18
5.45
4.41
3.09
1.65
0.28
-0.93
-1.94
-2.82
-3.60
-4.23
-4.52
-4.24
-3.25
-1.62
0.38
2.38
4.05
5.22
5.92
6.34
6.69
7.15
7.81
8.67
9.65
10.62
11.43
11.97
12.15
11.95
11.39
10.51
9.39
8.11
6.80
5.59
4.62
3.93
3.49
3.20
2.95
2.67
2.33
1.97
1.63
1.37
1.23
1.21
1.30
1.44
1.56
1.56
1.42
1.12
0.70
0.22
-0.25
-0.65
-0.92
-1.04
-1.08
-1.14
-1.39
-1.92
-2.79
-3.91
-5.16
-6.38
-7.42
-8.17
-8.58
-8.71
-8.72
-8.88
-9.42
-10.41
-11.66
-12.80
-13.36
-13.04
-11.76
-9.75
-7.34
-4.90
-2.67
-0.79
0.72
1.85
2.66
3.25
3.75
4.32
5.01
5.78
6.50
7.02
7.26
7.23
7.00
6.64
6.23
5.81
5.41
5.10
4.91
4.84
4.85
4.87
4.82
4.64
4.34
3.92
3.41
2.83
2.27
1.85
1.66
1.73
1.99
2.26
2.36
2.17
1.72
1.11
0.51
-0.00
-0.38
-0.66
-0.89
-1.10
-1.32
-1.53
-1.72
-1.95
-2.29
-2.84
-3.70
-4.94
-6.49
-8.20
-9.78
-10.90
-11.30
-10.88
-9.73
-8.14
-6.46
-4.99
-3.86
-3.08
-2.55
-2.20
-1.97
-1.85
-1.76
-1.61
-1.26
-0.61
0.30
1.31
2.20
2.80
3.04
3.00
2.82
2.61
2.42
2.21
1.94
1.61
1.28
1.04
0.93
0.90
0.82
0.55
0.02
-0.72
-1.51
-2.18
-2.60
-2.73
-2.65
-2.45
-2.24
-2.13
-2.21
-2.57
-3.25
-4.26
-5.53
-6.93
-8.30
-9.48
-10.31
-10.77
-10.92
-10.90
-10.87
-10.86
-10.79
-10.48
-9.74
-8.52
-6.95
-5.27
-3.75
-2.50
-1.50
-0.62
0.26
1.21
2.19
3.11
3.92
4.70
5.56
6.56
7.63
8.56
9.16
9.30
9.03
8.60
8.43
8.84
9.96
11.61
13.35
14.86
15.95
16.63
17.18
17.94
19.19
20.96
22.93
24.67
25.99
26.79
27.03
26.85
26.61
26.75
27.62
29.09
30.87
33.02
35.58
38.62
42.51
47.76
54.61
62.69
70.52
76.62
80.65
82.62
82.68
80.90
77.09
70.83
61.88
49.72
34.32
16.39
-2.61
-22.11
-42.35
-63.61
-84.76
-102.78
-115.08
-125.74
-135.78
-146.86
-160.85
-178.37
-198.23
-218.29
-231.21
-233.87
-226.15
-209.54
-187.34
-162.97
-138.69
-115.21
-92.40
-70.03
-49.27
-31.30
-16.16
-3.42
7.94
19.18
31.21
44.13
57.18
68.44
76.39
80.93
82.88
83.74
85.08
87.91
92.27
97.31
101.35
103.12
102.27
99.21
94.86
90.32
86.55
84.34
84.15
85.76
88.11
89.24
86.57
77.93
62.82
43.01
22.17
4.44
-7.34
-12.67
-13.27
-11.92
-10.95
-11.39
-13.01
-15.09
-17.24
-19.66
-22.80
-26.85
-31.33
-35.33
-37.99
-38.83
-38.09
-36.55
-35.18
-34.66
-35.18
-36.35
-37.37
-37.39
-35.80
-32.46
-27.68
-22.05
-16.22
-10.71
-5.75
-1.44
2.30
5.51
8.25
10.53
12.35
13.74
14.74
15.40
15.81
16.06
16.20
16.26
16.26
16.19
16.07
15.91
15.73
15.52
15.22
14.81
14.26
13.61
12.91
12.19
11.44
10.60
9.68
8.70
7.75
6.95
6.33
5.81
5.25
4.44
3.19
1.37
-1.10
-4.15
-7.62
-11.21
-14.55
-17.27
-19.13
-20.07
-20.30
-20.19
-20.17
-20.58
-21.47
-22.61
-23.52
-23.66
-22.62
-20.29
-16.86
-12.78
-8.58
-4.67
-1.27
1.61
4.06
6.21
8.08
9.68
10.99
12.04
12.88
13.60
14.23
14.73
15.04
15.12
14.95
14.57
14.04
13.40
12.66
11.81
10.89
9.93
9.03
8.27
7.68
7.30
7.06
6.90
6.73
6.49
6.12
5.63
5.07
4.51
3.99
3.55
3.17
2.82
2.47
2.11
1.74
1.37
1.02
0.70
0.44
0.20
-0.05
-0.41
-0.99
-1.87
-3.00
-4.25
-5.41
-6.29
-6.77
-6.84
-6.59
-6.17
-5.79
-5.63
-5.81
-6.35
-7.14
-8.00
-8.75
-9.32
-9.76
-10.24
-10.89
-11.77
-12.77
-13.61
-13.95
-13.47
-11.95
-9.38
-5.94
-2.04
1.86
5.28
7.93
9.67
10.58
10.81
10.58
10.03
9.30
8.50
7.75
7.17
6.80
6.65
6.67
6.81
7.02
7.30
7.59
7.80
7.82
7.60
7.13
6.50
5.82
5.21
4.70
4.26
3.82
3.32
2.73
2.01
1.15
0.14
-0.99
-2.17
-3.33
-4.42
-5.41
-6.25
-6.87
-7.10
-6.83
-6.02
-4.77
-3.31
-1.89
-0.68
0.26
0.94
1.43
1.75
1.96
2.12
2.33
2.71
3.26
3.89
4.43
4.68
4.57
4.16
3.66
3.27
3.17
3.41
3.95
4.67
5.38
5.92
6.13
5.97
5.49
4.81
4.12
3.57
3.21
3.01
2.92
2.87
2.87
2.89
2.90
2.80
2.47
1.81
0.87
-0.21
-1.20
-1.89
-2.20
-2.19
-2.06
-2.04
-2.27
-2.82
-3.62
-4.57
-5.52
-6.34
-6.95
-7.24
-7.13
-6.57
-5.62
-4.44
-3.27
-2.39
-1.96
-2.02
-2.41
-2.94
-3.39
-3.67
-3.75
-3.69
-3.53
-3.27
-2.91
-2.48
-2.05
-1.78
-1.77
-2.02
-2.36
-2.52
-2.25
-1.48
-0.32
0.91
1.91
2.46
2.55
2.32
1.96
1.65
1.47
1.42
1.45
1.51
1.56
1.55
1.46
1.29
1.04
0.76
0.51
0.27
0.02
-0.29
-0.68
-1.13
-1.55
-1.87
-2.05
-2.16
-2.30
-2.63
-3.17
-3.84
-4.44
-4.80
-4.84
-4.70
-4.58
-4.68
-5.07
-5.62
-6.10
-6.27
-6.01
-5.34
-4.38
-3.28
-2.14
-1.03
-0.02
0.84
1.51
1.96
2.28
2.56
2.91
3.42
4.08
4.80
5.46
5.94
6.17
6.17
6.02
5.81
5.59
5.40
5.20
4.94
4.64
4.34
4.14
4.10
4.22
4.40
4.53
4.53
4.38
4.16
3.93
3.73
3.57
3.39
3.14
2.77
2.27
1.68
1.04
0.44
-0.03
-0.32
-0.43
-0.40
-0.31
-0.23
-0.20
-0.22
-0.30
-0.48
-0.82
-1.37
-2.11
-2.94
-3.73
-4.37
-4.79
-5.03
-5.17
-5.32
-5.56
-5.95
-6.50
-7.15
-7.76
-8.15
-8.14
-7.64
-6.69
-5.45
-4.11
-2.86
-1.79
-0.90
-0.14
0.58
1.30
2.11
3.01
4.02
5.07
6.09
7.01
7.78
8.46
9.16
9.99
10.95
11.96
12.82
13.34
13.42
13.09
12.49
11.76
10.99
10.06
8.78
6.88
4.26
0.99
-2.59
-6.02
-8.93
-11.18
-12.91
-14.41
-16.00
-17.80
-19.77
-21.74
-23.58
-25.19
-26.55
-27.55
-28.00
-27.63
-26.27
-23.95
-20.92
-17.58
-14.31
-11.32
-8.62
-6.08
-3.50
-0.75
2.19
5.25
8.26
11.02
13.38
15.24
16.59
17.46
17.97
18.20
18.23
18.15
17.98
17.74
17.39
16.92
16.29
15.51
14.58
13.48
12.23
10.79
9.17
7.45
5.77
4.24
2.95
1.85
0.76
-0.52
-2.12
-3.98
-5.87
-7.48
-8.58
-9.13
-9.28
-9.32
-9.45
-9.75
-10.11
-10.40
-10.59
-10.81
-11.27
-12.13
-13.42
-14.94
-16.43
-17.64
-18.46
-18.94
-19.15
-19.15
-18.87
-18.13
-16.76
-14.68
-11.94
-8.73
-5.31
-1.87
1.48
4.73
7.88
10.90
13.67
16.07
18.05
19.75
21.42
23.32
25.61
28.28
31.19
34.18
37.24
40.51
44.21
48.38
52.79
56.91
60.09
61.84
62.01
60.79
58.51
55.42
51.63
47.12
41.94
36.14
29.78
22.72
14.69
5.55
-4.48
-14.63
-23.76
-30.82
-35.33
-37.62
-38.53
-39.04
-39.80
-40.94
-42.21
-43.19
-43.57
-43.19
-41.96
-39.92
-37.14
-33.78
-30.19
-26.75
-23.81
-21.57
-19.97
-18.75
-17.53
-15.94
-13.79
-11.11
-8.14
-5.18
-2.45
0.02
2.41
5.02
8.14
11.87
16.15
20.70
25.10
28.85
31.45
32.42
31.51
28.76
24.55
19.49
14.24
9.28
4.85
0.97
-2.37
-5.16
-7.37
-9.04
-10.37
-11.72
-13.43
-15.64
-18.22
-20.82
-23.07
-24.77
-25.96
-26.82
-27.61
-28.48
-29.52
-30.67
-31.85
-33.03
-34.16
-35.32
-36.60
-38.14
-40.06
-42.39
-45.05
-47.88
-50.63
-53.04
-54.91
-56.12
-56.63
-56.49
-55.77
-54.49
-52.64
-50.19
-47.22
-43.90
-40.62
-37.79
-35.77
-34.72
-34.65
-35.46
-37.09
-39.50
-42.65
-46.39
-50.37
-54.13
-57.26
-59.57
-61.09
-62.09
-62.87
-63.63
-64.38
-64.93
-64.97
-64.14
-62.12
-58.71
-53.92
-47.99
-41.37
-34.69
-28.58
-23.45
-19.28
-15.48
-11.14
-5.41
2.13
11.26
21.25
31.29
40.77
49.59
58.09
66.78
76.14
86.36
97.26
108.23
118.29
126.21
130.90
131.79
129.21
124.38
119.03
114.73
112.39
111.96
112.67
113.49
113.56
112.44
110.09
106.72
102.53
97.74
92.45
86.72
80.65
74.32
67.82
61.32
55.04
49.21
44.04
39.66
36.08
33.18
30.70
28.34
25.73
22.63
18.94
14.79
10.52
6.50
3.04
0.30
-1.71
-3.03
-3.75
-4.02
-4.14
-4.59
-5.83
-8.12
-11.27
-14.66
-17.45
-19.02
-19.17
-18.24
-16.87
-15.63
-14.86
-14.52
-14.39
-14.27
-14.07
-13.93
-14.07
-14.67
-15.80
-17.29
-18.83
-20.06
-20.73
-20.81
-20.44
-19.92
-19.47
-19.18
-18.92
-18.48
-17.63
-16.33
-14.71
-13.00
-11.43
-10.08
-8.90
-7.70
-6.37
-4.90
-3.41
-2.11
-1.19
-0.68
-0.51
-0.49
-0.48
-0.42
-0.34
-0.32
-0.40
-0.57
-0.76
-0.88
-0.94
-1.03
-1.29
-1.84
-2.68
-3.70
-4.74
-5.60
-6.21
-6.57
-6.75
-6.83
-6.82
-6.70
-6.40
-5.89
-5.23
-4.52
-3.93
-3.58
-3.47
-3.52
-3.56
-3.40
-2.93
-2.12
-1.09
-0.04
0.78
1.19
1.06
0.39
-0.71
-2.03
-3.29
-4.23
-4.65
-4.45
-3.70
-2.53
-1.20
0.03
0.95
1.43
1.47
1.16
0.68
0.23
-0.08
-0.17
-0.03
0.27
0.64
0.97
1.14
1.05
0.65
-0.05
-0.97
-1.98
-2.87
-3.50
-3.78
-3.77
-3.64
-3.63
-3.92
-4.64
-5.77
-7.18
-8.69
-10.12
-11.37
-12.46
-13.42
-14.28
-14.99
-15.34
-15.09
-13.96
-11.81
-8.67
-4.79
-0.52
3.71
7.56
10.76
13.18
14.77
15.57
15.75
15.57
15.33
15.24
15.35
15.52
15.51
15.08
14.17
12.89
11.49
10.23
9.33
8.87
8.81
9.00
9.27
9.45
9.39
9.05
8.40
7.47
6.22
4.61
2.62
0.33
-2.08
-4.36
-6.27
-7.71
-8.76
-9.63
-10.55
-11.70
-13.09
-14.61
-16.02
-17.11
-17.82
-18.25
-18.68
-19.45
-20.78
-22.63
-24.74
-26.68
-28.12
-29.02
-29.63
-30.46
-31.95
-34.30
-37.33
-40.55
-43.37
-45.36
-46.43
-46.78
-46.79
-46.86
-47.23
-47.98
-48.96
-49.75
-49.61
-47.52
-42.39
-33.63
-21.47
-7.22
7.13
19.53
28.72
34.54
37.87
39.99
41.90
43.93
45.80
47.02
47.34
46.89
46.11
45.36
44.76
44.12
43.19
41.82
40.16
38.60
37.59
37.43
38.11
39.31
40.53
41.23
41.02
39.74
37.44
34.32
30.57
26.33
21.62
16.46
10.97
5.49
0.58
-3.15
-5.30
-5.89
-5.46
-4.85
-4.93
-6.22
-8.70
-11.82
-14.86
-17.23
-18.71
-19.48
-19.91
-20.34
-20.86
-21.34
-21.54
-21.27
-20.47
-19.22
-17.69
-15.97
-14.17
-12.39
-10.71
-9.24
-8.00
-6.95
-5.95
-4.82
-3.42
-1.65
0.52
3.09
6.01
9.23
12.65
16.13
19.46
22.34
24.42
25.36
24.96
23.29
20.67
17.63
14.63
11.97
9.70
7.72
5.95
4.44
3.35
2.85
2.99
3.57
4.22
4.55
4.23
3.11
1.18
-1.41
-4.44
-7.65
-10.76
-13.57
-15.93
-17.78
-19.18
-20.21
-20.99
-21.61
-22.20
-22.82
-23.52
-24.27
-24.96
-25.38
-25.36
-24.73
-23.47
-21.68
-19.51
-17.17
-14.83
-12.65
-10.74
-9.16
-7.88
-6.76
-5.62
-4.27
-2.63
-0.79
1.05
2.63
3.79
4.44
4.67
4.61
4.45
4.33
4.27
4.19
3.89
3.17
2.00
0.59
-0.59
-1.02
-0.31
1.57
4.29
7.30
10.03
12.10
13.42
14.10
14.45
14.79
15.43
16.56
18.26
20.38
22.65
24.68
26.12
26.74
26.43
25.24
23.28
20.71
17.69
14.28
10.56
6.62
2.62
-1.17
-4.47
-7.02
-8.70
-9.51
-9.51
-8.72
-7.12
-4.75
-1.79
1.41
4.37
6.74
8.41
9.53
10.31
10.81
10.84
10.00
8.00
4.78
0.71
-3.60
-7.50
-10.49
-12.39
-13.30
-13.51
-13.41
-13.40
-13.75
-14.57
-15.75
-16.96
-17.81
-17.96
-17.30
-15.99
-14.40
-12.91
-11.82
-11.19
-10.88
-10.63
-10.18
-9.42
-8.35
-7.10
-5.81
-4.52
-3.19
-1.71
-0.10
1.56
3.05
4.16
4.74
4.77
4.35
3.58
2.64
1.65
0.80
0.25
0.18
0.67
1.67
2.96
4.24
5.15
5.47
5.14
4.34
3.38
2.61
2.29
2.47
3.03
3.68
4.16
4.23
3.83
3.00
1.89
0.70
-0.43
-1.39
-2.16
-2.82
-3.46
-4.17
-4.97
-5.81
-6.58
-7.17
-7.44
-7.31
-6.73
-5.74
-4.44
-2.98
-1.61
-0.50
0.23
0.54
0.54
0.39
0.29
0.40
0.81
1.51
2.38
3.26
4.02
4.61
5.07
5.47
5.80
6.00
5.99
5.71
5.24
4.76
4.42
4.32
4.38
4.42
4.30
3.92
3.37
2.80
2.36
2.13
2.08
2.10
2.06
1.85
1.44
0.86
0.21
-0.41
-0.92
-1.30
-1.64
-2.04
-2.61
-3.42
-4.47
-5.69
-6.94
-8.00
-8.60
-8.52
-7.67
-6.17
-4.33
-2.50
-0.98
0.07
0.64
0.78
0.57
0.09
-0.52
-1.05
-1.29
-1.07
-0.44
0.40
1.15
1.59
1.65
1.47
1.21
1.02
0.95
0.98
1.10
1.29
1.58
1.93
2.25
2.40
2.26
1.78
1.04
0.22
-0.51
-1.02
-1.27
-1.32
-1.32
-1.38
-1.59
-1.97
-2.46
-3.00
-3.53
-4.01
-4.43
-4.78
-5.01
-5.09
-5.07
-5.03
-5.16
-5.63
-6.55
-7.85
-9.27
-10.45
-10.95
-10.49
-9.02
-6.81
-4.32
-2.12
-0.65
-0.10
-0.35
-1.04
-1.68
-1.87
-1.37
-0.19
1.48
3.34
5.06
6.33
6.97
6.87
6.06
4.67
2.94
1.19
-0.25
-1.09
-1.18
-0.54
0.67
2.21
3.83
5.34
6.57
7.40
7.69
7.35
6.37
4.86
3.05
1.25
-0.28
-1.32
-1.80
-1.73
-1.29
-0.70
-0.25
-0.15
-0.45
-1.03
-1.64
-2.00
-1.98
-1.68
-1.34
-1.30
-1.80
-2.89
-4.43
-6.20
-7.98
-9.64
-11.14
-12.47
-13.57
-14.30
-14.44
-13.72
-11.88
-8.79
-4.50
0.66
5.95
10.37
12.81
12.42
9.02
3.28
-3.31
-8.87
-11.68
-10.71
-6.02
1.27
9.31
16.01
19.70
19.54
15.77
9.59
2.77
-2.86
-5.97
-5.96
-3.10
1.63
6.83
11.04
13.11
12.49
9.38
4.69
-0.30
-4.26
-6.31
-6.18
-4.30
-1.48
1.28
3.22
3.92
3.34
1.73
-0.50
-2.89
-5.05
-6.65
-7.47
-7.44
-6.67
-5.45
-4.20
-3.34
-3.21
-3.92
-5.37
-7.26
-9.16
-10.68
-11.47
-11.32
-10.19
-8.24
-5.81
-3.27
-1.00
0.78
2.01
2.75
3.15
3.36
3.47
3.60
3.84
4.25
4.86
5.62
6.36
6.95
7.27
7.35
7.31
7.26
7.28
7.34
7.36
7.31
7.24
7.28
7.52
7.93
8.33
8.47
8.19
7.45
6.41
5.34
4.50
4.05
4.04
4.39
4.93
5.45
5.72
5.54
4.83
3.66
2.25
0.91
-0.12
-0.75
-1.08
-1.32
-1.71
-2.34
-3.12
-3.86
-4.32
-4.37
-4.06
-3.55
-3.03
-2.68
-2.51
-2.48
-2.45
-2.34
-2.13
-1.90
-1.86
-2.18
-2.93
-3.96
-4.90
-5.32
-4.87
-3.48
-1.42
0.80
2.59
3.53
3.43
2.38
0.70
-1.22
-3.00
-4.41
-5.34
-5.86
-6.11
-6.26
-6.43
-6.68
-7.04
-7.51
-8.10
-8.82
-9.65
-10.55
-11.47
-12.39
-13.35
-14.38
-15.45
-16.43
-17.13
-17.26
-16.61
-15.11
-12.83
-10.06
-7.20
-4.63
-2.66
-1.39
-0.70
-0.35
-0.02
0.55
1.47
2.70
4.07
5.36
6.33
6.81
6.73
6.15
5.25
4.28
3.49
3.04
2.89
2.90
2.92
2.84
2.71
2.66
2.82
3.20
3.72
4.20
4.54
4.69
4.72
4.71
4.70
4.69
4.62
4.48
4.27
3.99
3.59
2.95
1.92
0.43
-1.39
-3.22
-4.64
-5.20
-4.69
-3.17
-1.00
1.33
3.31
4.57
5.02
4.77
4.09
3.34
2.87
2.93
3.58
4.76
6.21
7.65
8.76
9.34
9.32
8.78
7.89
6.91
6.07
5.50
5.24
5.19
5.12
4.82
4.16
3.19
2.11
1.19
0.67
0.65
1.03
1.57
2.00
2.10
1.81
1.22
0.51
-0.10
-0.44
-0.48
-0.33
-0.22
-0.47
-1.30
-2.84
-5.01
-7.54
-10.02
-11.99
-13.06
-12.98
-11.75
-9.60
-6.96
-4.32
-2.11
-0.59
0.21
0.44
0.39
0.34
0.51
1.06
1.99
3.23
4.54
5.69
6.46
6.79
6.79
6.72
6.81
7.17
7.70
8.18
8.36
8.09
7.39
6.44
5.41
4.46
3.68
3.07
2.61
2.25
1.93
1.57
1.12
0.50
-0.30
-1.25
-2.27
-3.24
-4.06
-4.64
-4.95
-5.05
-5.03
-5.01
-5.09
-5.39
-6.00
-6.94
-8.19
-9.59
-10.93
-11.89
-12.20
-11.72
-10.46
-8.59
-6.38
-4.13
-2.09
-0.43
0.78
1.56
1.99
2.20
2.34
2.49
2.71
3.00
3.34
3.69
4.03
4.30
4.47
4.50
4.38
4.14
3.88
3.71
3.74
3.99
4.45
4.99
5.45
5.65
5.44
4.72
3.54
2.06
0.55
-0.64
-1.26
-1.27
-0.85
-0.36
-0.19
-0.58
-1.55
-2.92
-4.41
-5.76
-6.81
-7.45
-7.58
-7.13
-6.05
-4.40
-2.40
-0.38
1.32
2.44
2.91
2.83
2.44
2.00
1.76
1.86
2.32
3.01
3.70
4.12
4.09
3.64
3.00
2.50
2.38
2.69
3.21
3.63
3.69
3.33
2.70
2.09
1.71
1.62
1.73
1.86
1.87
1.68
1.31
0.82
0.23
-0.43
-1.13
-1.82
-2.44
-2.94
-3.33
-3.72
-4.24
-4.97
-5.88
-6.76
-7.33
-7.26
-6.40
-4.86
-2.94
-1.09
0.33
1.11
1.30
1.06
0.66
0.29
0.15
0.35
0.94
1.87
2.94
3.90
4.48
4.57
4.24
3.73
3.29
3.08
3.08
3.17
3.18
3.07
2.86
2.68
2.62
2.68
2.79
2.84
2.76
2.53
2.21
1.84
1.46
1.07
0.57
-0.11
-1.02
-2.14
-3.35
-4.45
-5.25
-5.59
-5.45
-4.96
-4.35
-3.90
-3.86
-4.36
-5.38
-6.70
-7.95
-8.73
-8.70
-7.72
-5.93
-3.69
-1.53
0.12
0.99
1.10
0.70
0.17
-0.17
-0.12
0.30
0.96
1.64
2.19
2.52
2.61
2.55
2.44
2.39
2.51
2.85
3.40
4.05
4.65
5.07
5.23
5.13
4.82
4.37
3.84
3.26
2.68
2.19
1.88
1.80
1.91
2.06
2.07
1.82
1.30
0.62
-0.05
-0.54
-0.80
-0.87
-0.85
-0.87
-1.04
-1.39
-1.92
-2.59
-3.33
-4.10
-4.85
-5.53
-6.09
-6.47
-6.65
-6.67
-6.64
-6.71
-7.02
-7.64
-8.55
-9.54
-10.33
-10.61
-10.15
-8.90
-7.05
-4.97
-3.02
-1.46
-0.31
0.55
1.27
1.90
2.38
2.61
2.57
2.37
2.24
2.36
2.77
3.36
3.95
4.37
4.54
4.43
4.06
3.44
2.64
1.86
1.35
1.34
1.83
2.59
3.21
3.31
2.74
1.67
0.50
-0.29
-0.40
0.27
1.55
3.10
4.47
5.26
5.19
4.24
2.72
1.08
-0.18
-0.77
-0.74
-0.35
0.02
0.12
-0.13
-0.69
-1.54
-2.76
-4.44
-6.60
-8.98
-11.07
-12.29
-12.23
-10.88
-8.65
-6.17
-4.02
-2.50
-1.58
-1.03
-0.56
-0.06
0.44
0.79
0.86
0.59
0.02
-0.77
-1.69
-2.57
-3.18
-3.27
-2.60
-1.07
1.18
3.76
6.12
7.76
8.38
8.00
7.00
5.89
5.15
5.02
5.42
6.08
6.67
6.98
6.97
6.71
6.24
5.53
4.49
3.07
1.40
-0.26
-1.60
-2.38
-2.60
-2.44
-2.18
-2.06
-2.17
-2.47
-2.90
-3.41
-4.05
-4.89
-5.97
-7.19
-8.29
-8.93
-8.85
-8.01
-6.60
-5.00
-3.59
-2.61
-2.07
-1.81
-1.60
-1.31
-0.93
-0.54
-0.19
0.14
0.58
1.24
2.16
3.27
4.42
5.50
6.43
7.18
7.73
7.99
7.91
7.45
6.71
5.86
5.13
4.70
4.62
4.82
5.15
5.48
5.72
5.78
5.62
5.17
4.41
3.38
2.24
1.14
0.24
-0.37
-0.71
-0.88
-0.96
-1.06
-1.24
-1.58
-2.09
-2.76
-3.51
-4.24
-4.86
-5.36
-5.86
-6.50
-7.40
-8.51
-9.63
-10.43
-10.57
-9.88
-8.43
-6.51
-4.52
-2.82
-1.61
-0.93
-0.66
-0.63
-0.66
-0.62
-0.39
0.10
0.86
1.85
2.90
3.84
4.51
4.83
4.86
4.72
4.53
4.38
4.25
4.14
4.04
3.98
4.01
4.15
4.40
4.67
4.88
4.97
4.86
4.53
3.95
3.20
2.38
1.69
1.28
1.22
1.46
1.83
2.12
2.20
2.04
1.69
1.26
0.81
0.40
0.03
-0.34
-0.71
-1.15
-1.69
-2.35
-3.14
-4.00
-4.84
-5.54
-6.02
-6.26
-6.38
-6.57
-7.07
-7.98
-9.23
-10.51
-11.36
-11.38
-10.41
-8.58
-6.26
-3.92
-1.92
-0.46
0.46
0.94
1.12
1.16
1.22
1.46
1.99
2.83
3.93
5.11
6.18
6.99
7.48
7.67
7.62
7.40
7.06
6.65
6.18
5.70
5.27
4.99
4.91
5.02
5.20
5.27
5.10
4.63
3.96
3.25
2.64
2.19
1.83
1.50
1.12
0.72
0.36
0.08
-0.10
-0.28
-0.54
-0.93
-1.49
-2.17
-2.95
-3.77
-4.59
-5.31
-5.87
-6.24
-6.53
-6.90
-7.55
-8.53
-9.74
-10.83
-11.40
-11.13
-9.93
-7.98
-5.68
-3.50
-1.80
-0.72
-0.18
0.06
0.27
0.68
1.39
2.35
3.44
4.45
5.21
5.61
5.67
5.50
5.28
5.14
5.15
5.25
5.33
5.32
5.19
5.04
4.96
5.00
5.11
5.19
5.12
4.82
4.31
3.63
2.87
2.08
1.25
0.36
-0.63
-1.69
-2.77
-3.73
-4.46
-4.90
-5.07
-5.13
-5.33
-5.93
-7.04
-8.59
-10.28
-11.65
-12.30
-11.96
-10.66
-8.64
-6.29
-3.99
-1.99
-0.39
0.84
1.74
2.39
2.87
3.24
3.59
4.01
4.58
5.31
6.19
7.13
7.98
8.57
8.78
8.57
8.01
7.28
6.57
6.09
5.96
6.21
6.72
7.29
7.73
7.91
7.83
7.69
7.75
8.23
9.12
10.04
10.46
9.89
8.18
5.74
3.41
2.17
2.74
5.09
8.31
10.98
11.86
10.52
7.64
4.85
4.10
6.89
13.40
22.07
30.44
36.37
39.04
39.40
39.86
43.12
51.02
63.43
78.13
91.89
101.72
105.61
102.49
92.12
75.11
53.94
32.79
16.43
8.81
10.41
16.99
20.15
11.73
-14.06
-54.61
-99.01
-135.32
-157.15
-165.65
-165.94
-162.93
-158.76
-152.99
-144.07
-131.97
-119.21
-109.15
-104.81
-106.95
-113.73
-120.85
-123.22
-116.34
-98.60
-74.59
-48.46
-25.83
-10.92
-4.73
-4.69
-6.36
-5.56
-0.49
7.64
16.34
22.91
26.56
28.36
30.11
32.80
36.04
38.36
38.12
35.01
29.75
24.56
21.28
20.80
22.35
23.94
23.40
19.27
11.52
0.78
-10.96
-21.89
-31.00
-38.42
-44.71
-50.52
-56.42
-62.93
-71.24
-80.47
-89.39
-96.99
-102.90
-107.26
-110.40
-112.87
-115.49
-120.12
-124.87
-127.08
-124.34
-115.26
-99.17
-75.56
-44.11
-5.12
39.00
90.07
149.81
218.42
293.45
370.57
445.17
513.67
574.48
606.02
596.00
544.96
467.16
380.76
296.89
217.41
139.86
71.61
9.37
-43.55
-82.87
-107.15
-119.23
-124.17
-126.13
-128.24
-130.54
-133.77
-134.88
-131.98
-125.37
-117.26
-110.09
-105.03
-101.81
-99.22
-97.65
-95.30
-90.95
-84.59
-77.27
-70.30
-64.45
-59.72
-55.60
-52.51
-49.52
-45.94
-41.63
-37.00
-32.65
-28.89
-25.68
-22.74
-20.29
-18.03
-15.80
-13.65
-11.76
-10.28
-9.20
-8.31
-7.37
-6.36
-5.28
-4.21
-3.33
-2.79
-2.67
-2.92
-3.43
-4.02
-4.51
-4.79
-4.81
-4.61
-4.33
-4.18
-4.36
-4.98
-6.01
-7.28
-8.51
-9.45
-9.91
-9.84
-9.36
-8.76
-8.40
-8.67
-9.79
-11.67
-13.86
-15.63
-16.20
-15.07
-12.21
-8.19
-3.88
-0.17
2.33
3.48
3.49
2.79
1.86
1.06
0.67
0.87
1.68
3.02
4.65
6.27
7.58
8.36
8.50
8.04
7.06
5.77
4.43
3.32
2.72
2.75
3.32
4.18
5.00
5.59
5.92
6.11
6.33
6.63
6.96
7.14
7.03
6.57
5.84
4.95
4.07
3.31
2.73
2.38
2.25
2.29
2.39
2.41
2.23
1.78
1.09
0.27
-0.57
-1.37
-2.18
-3.13
-4.39
-6.03
-7.95
-9.83
-11.26
-11.81
-11.25
-9.60
-7.19
-4.48
-1.98
-0.06
1.09
1.51
1.35
0.89
0.40
0.10
0.19
0.73
1.67
2.87
4.13
5.28
6.24
7.00
7.55
7.84
7.75
7.16
6.07
4.64
3.19
2.08
1.54
1.59
2.02
2.53
2.88
2.98
2.87
2.65
2.35
1.95
1.34
0.51
-0.48
-1.50
-2.37
-2.95
-3.23
-3.27
-3.20
-3.19
-3.39
-3.96
-4.98
-6.47
-8.25
-10.02
-11.34
-11.85
-11.39
-10.06
-8.19
-6.27
-4.69
-3.69
-3.32
-3.40
-3.69
-3.97
-4.04
-3.83
-3.34
-2.65
-1.90
-1.22
-0.73
-0.46
-0.39
-0.39
-0.36
-0.23
0.05
0.45
0.93
1.51
2.20
3.08
4.18
5.40
6.58
7.51
8.00
8.01
7.65
7.07
6.47
5.94
5.45
4.93
4.32
3.59
2.80
2.04
1.36
0.80
0.32
-0.14
-0.63
-1.17
-1.77
-2.39
-3.05
-3.83
-4.76
-5.78
-6.66
-7.06
-6.65
-5.34
-3.32
-1.05
0.94
2.22
2.63
2.34
1.68
1.02
0.65
0.73
1.28
2.23
3.44
4.72
5.85
6.62
6.89
6.65
6.02
5.22
4.53
4.12
4.08
4.36
4.81
5.27
5.63
5.82
5.81
5.58
5.12
4.44
3.64
2.85
2.25
1.94
1.89
1.98
2.00
1.85
1.55
1.18
0.87
0.66
0.49
0.25
-0.18
-0.82
-1.61
-2.45
-3.22
-3.86
-4.32
-4.56
-4.59
-4.48
-4.40
-4.59
-5.27
-6.48
-8.05
-9.56
-10.51
-10.50
-9.42
-7.46
-5.06
-2.73
-0.91
0.18
0.57
0.45
0.12
-0.12
-0.05
0.44
1.30
2.42
3.55
4.48
5.04
5.20
5.03
4.72
4.48
4.45
4.62
4.88
5.05
5.00
4.71
4.27
3.77
3.29
2.84
2.39
1.94
1.56
1.36
1.38
1.59
1.85
2.01
1.97
1.78
1.58
1.51
1.56
1.62
1.45
0.87
-0.13
-1.35
-2.51
-3.32
-3.73
-3.90
-4.11
-4.70
-5.82
-7.39
-9.09
-10.46
-11.03
-10.51
-8.91
-6.53
-3.93
-1.69
-0.23
0.35
0.25
-0.13
-0.41
-0.36
0.06
0.77
1.63
2.54
3.39
4.08
4.52
4.68
4.59
4.39
4.21
4.16
4.27
4.48
4.70
4.88
4.99
5.03
4.99
4.85
4.54
4.04
3.37
2.63
1.97
1.50
1.25
1.10
0.84
0.26
-0.67
-1.79
-2.81
-3.47
-3.62
-3.40
-3.06
-2.95
-3.35
-4.38
-5.98
-7.94
-9.89
-11.36
-11.93
-11.31
-9.55
-7.00
-4.22
-1.81
-0.15
0.66
0.81
0.62
0.39
0.35
0.60
1.18
2.04
3.08
4.15
5.06
5.65
5.90
5.89
5.81
5.83
6.03
6.31
6.55
6.59
6.40
6.05
5.63
5.23
4.84
4.40
3.86
3.24
2.65
2.18
1.91
1.81
1.74
1.59
1.27
0.76
0.14
-0.47
-0.99
-1.36
-1.61
-1.81
-2.08
-2.49
-3.07
-3.75
-4.39
-4.84
-5.01
-4.91
-4.72
-4.70
-5.14
-6.18
-7.79
-9.67
-11.38
-12.42
-12.42
-11.26
-9.10
-6.38
-3.67
-1.50
-0.19
0.20
-0.09
-0.68
-1.19
-1.29
-0.85
0.12
1.48
3.00
4.42
5.54
6.22
6.45
6.36
6.13
5.94
5.88
5.91
5.95
5.93
5.87
5.79
5.75
5.75
5.75
5.69
5.56
5.40
5.25
5.10
4.90
4.56
4.06
3.44
2.80
2.26
1.85
1.54
1.25
0.89
0.41
-0.16
-0.75
-1.29
-1.73
-2.08
-2.37
-2.68
-3.09
-3.60
-4.18
-4.71
-5.10
-5.30
-5.36
-5.38
-5.55
-6.02
-6.90
-8.18
-9.72
-11.23
-12.36
-12.73
-12.08
-10.39
-7.88
-5.00
-2.29
-0.17
1.13
1.64
1.59
1.30
1.05
1.07
1.47
2.23
3.23
4.30
5.25
5.89
6.17
6.11
5.83
5.47
5.15
4.88
4.69
4.57
4.56
4.71
5.01
5.43
5.81
6.01
5.90
5.49
4.87
4.19
3.55
2.98
2.43
1.87
1.28
0.72
0.24
-0.09
-0.33
-0.55
-0.89
-1.39
-2.06
-2.85
-3.67
-4.46
-5.15
-5.69
-6.10
-6.43
-6.87
-7.59
-8.72
-10.17
-11.62
-12.60
-12.64
-11.51
-9.33
-6.60
-3.94
-1.90
-0.71
-0.30
-0.38
-0.60
-0.69
-0.49
0.05
0.92
2.00
3.13
4.06
4.62
4.74
4.54
4.24
3.98
3.77
3.45
2.87
2.08
1.31
0.93
1.16
1.93
2.88
3.55
3.57
2.88
1.66
0.32
-0.64
-0.78
0.21
2.39
5.49
8.88
11.64
12.79
11.63
7.92
2.13
-4.69
-11.14
-15.94
-18.33
-18.35
-16.80
-14.80
-13.31
-12.57
-12.08
-10.87
-8.12
-3.67
1.76
6.81
10.00
10.23
7.19
1.52
-5.41
-11.73
-15.58
-15.51
-10.89
-2.17
9.10
20.60
29.70
34.08
32.35
24.43
11.76
-2.95
-16.22
-24.72
-26.13
-19.95
-7.72
7.29
21.03
29.87
31.66
26.44
16.30
4.69
-4.79
-9.57
-8.92
-4.06
2.41
7.55
9.22
6.73
0.94
-6.21
-12.54
-16.28
-16.52
-13.26
-7.28
0.08
7.06
11.84
12.88
9.40
1.84
-8.11
-17.91
-24.95
-27.34
-24.59
-17.65
-8.54
0.30
6.80
9.76
9.11
5.75
1.20
-2.86
-5.14
-5.04
-2.78
0.83
4.72
7.98
10.09
11.02
11.00
10.37
9.41
8.34
7.34
6.59
6.24
6.34
6.76
7.17
7.25
6.75
5.68
4.32
3.06
2.27
2.11
2.43
2.86
2.98
2.46
1.27
-0.34
-1.96
-3.18
-3.77
-3.73
-3.29
-2.76
-2.40
-2.38
-2.68
-3.22
-3.87
-4.51
-5.08
-5.50
-5.72
-5.77
-5.71
-5.72
-6.00
-6.73
-7.90
-9.27
-10.38
-10.73
-10.01
-8.21
-5.71
-3.07
-0.86
0.57
1.19
1.24
1.14
1.22
1.71
2.59
3.69
4.77
5.61
6.10
6.24
6.08
5.71
5.23
4.71
4.24
3.96
3.95
4.24
4.74
5.29
5.70
5.84
5.65
5.22
4.70
4.26
4.00
3.92
3.91
3.84
3.61
3.19
2.67
2.15
1.69
1.25
0.71
-0.02
-1.00
-2.15
-3.32
-4.34
-5.12
-5.61
-5.90
-6.11
-6.45
-7.09
-8.09
-9.30
-10.41
-10.98
-10.69
-9.42
-7.40
-5.04
-2.81
-1.05
0.10
0.69
0.88
0.85
0.80
0.91
1.32
2.04
2.93
3.75
4.26
4.36
4.15
3.81
3.54
3.41
3.34
3.19
2.95
2.68
2.58
2.75
3.18
3.65
3.94
3.90
3.57
3.11
2.69
2.38
2.09
1.64
0.88
-0.18
-1.39
-2.53
-3.39
-3.89
-4.05
-4.03
-4.03
-4.25
-4.89
-6.05
-7.68
-9.53
-11.14
-11.99
-11.69
-10.16
-7.71
-4.86
-2.23
-0.23
0.98
1.50
1.53
1.32
1.06
0.94
1.08
1.58
2.41
3.44
4.44
5.24
5.75
6.01
6.17
6.33
6.49
6.56
6.41
5.98
5.34
4.64
4.07
3.71
3.56
3.52
3.47
3.32
3.03
2.61
2.09
1.53
0.97
0.43
-0.07
-0.57
-1.11
-1.68
-2.22
-2.64
-2.87
-2.92
-2.87
-2.86
-2.97
-3.19
-3.51
-3.97
-4.75
-6.04
-7.91
-10.10
-12.07
-13.14
-12.82
-11.08
-8.38
-5.48
-3.08
-1.54
-0.82
-0.61
-0.55
-0.42
-0.12
0.39
1.16
2.20
3.46
4.75
5.82
6.47
6.67
6.58
6.45
6.47
6.69
7.01
7.27
7.36
7.21
6.85
6.32
5.69
5.06
4.55
4.27
4.23
4.38
4.56
4.63
4.48
4.15
3.77
3.46
3.30
3.22
3.11
2.81
2.25
1.49
0.66
-0.05
-0.55
-0.84
-1.05
-1.35
-1.86
-2.60
-3.49
-4.41
-5.23
-5.87
-6.30
-6.54
-6.65
-6.75
-6.99
-7.56
-8.56
-9.94
-11.41
-12.47
-12.60
-11.45
-9.01
-5.70
-2.23
0.63
2.33
2.71
2.05
0.92
-0.06
-0.43
-0.02
1.05
2.48
3.92
5.11
5.95
6.44
6.64
6.63
6.44
6.10
5.67
5.24
4.97
4.99
5.32
5.82
6.14
5.93
4.97
3.31
1.33
-0.46
-1.63
-1.99
-1.66
-0.94
-0.12
0.61
1.19
1.60
1.79
1.64
1.08
0.16
-0.92
-1.87
-2.48
-2.76
-2.94
-3.40
-4.47
-6.23
-8.43
-10.56
-12.01
-12.35
-11.48
-9.65
-7.38
-5.22
-3.56
-2.53
-2.01
-1.72
-1.40
-0.89
-0.14
0.82
1.87
2.93
3.92
4.79
5.49
5.99
6.28
6.38
6.31
6.13
5.86
5.55
5.27
5.06
4.99
5.02
5.07
4.97
4.59
3.90
3.02
2.17
1.59
1.35
1.34
1.32
1.01
0.27
-0.82
-2.01
-3.02
-3.64
-3.88
-3.87
-3.86
-4.09
-4.69
-5.67
-6.95
-8.35
-9.63
-10.51
-10.74
-10.12
-8.65
-6.54
-4.21
-2.15
-0.76
-0.17
-0.24
-0.62
-0.94
-0.94
-0.52
0.31
1.47
2.87
4.37
5.78
6.86
7.44
7.48
7.07
6.43
5.76
5.19
4.80
4.58
4.53
4.62
4.77
4.88
4.84
4.64
4.33
4.07
3.96
4.04
4.19
4.23
4.00
3.45
2.67
1.82
1.07
0.52
0.12
-0.26
-0.80
-1.63
-2.78
-4.14
-5.52
-6.68
-7.43
-7.70
-7.53
-7.06
-6.54
-6.23
-6.37
-7.11
-8.34
-9.76
-10.85
-11.08
-10.11
-7.96
-5.03
-1.98
0.54
2.10
2.64
2.39
1.76
1.13
0.79
0.84
1.29
2.03
2.91
3.75
4.38
4.69
4.75
4.73
4.89
5.40
6.25
7.23
8.03
8.34
8.07
7.35
6.45
5.66
5.15
4.90
4.76
4.56
4.18
3.64
3.04
2.46
1.96
1.49
1.01
0.51
0.07
-0.21
-0.26
-0.12
0.09
0.19
0.04
-0.42
-1.09
-1.84
-2.51
-3.01
-3.30
-3.43
-3.49
-3.60
-3.87
-4.38
-5.20
-6.32
-7.72
-9.30
-10.89
-12.19
-12.89
-12.70
-11.50
-9.44
-6.89
-4.36
-2.32
-0.99
-0.37
-0.23
-0.26
-0.20
0.13
0.80
1.78
2.96
4.19
5.24
5.95
6.20
6.03
5.61
5.14
4.79
4.60
4.53
4.49
4.45
4.45
4.56
4.79
5.06
5.23
5.15
4.77
4.14
3.40
2.71
2.15
1.73
1.37
1.00
0.53
-0.06
-0.77
-1.55
-2.35
-3.08
-3.71
-4.22
-4.61
-4.93
-5.20
-5.49
-5.88
-6.49
-7.35
-8.37
-9.28
-9.67
-9.19
-7.77
-5.64
-3.37
-1.55
-0.57
-0.48
-0.94
-1.53
-1.86
-1.76
-1.29
-0.61
0.15
0.95
1.74
2.54
3.29
3.93
4.45
4.86
5.23
5.58
5.89
6.10
6.14
5.98
5.67
5.30
4.96
4.68
4.48
4.30
4.09
3.77
3.32
2.73
2.09
1.52
1.14
1.06
1.30
1.81
2.47
3.15
3.71
4.04
4.07
3.78
3.23
2.53
1.82
1.17
0.56
-0.10
-0.91
-1.94
-3.13
-4.34
-5.40
-6.18
-6.64
-6.85
-6.96
-7.18
-7.75
-8.80
-10.25
-11.77
-12.81
-12.85
-11.60
-9.17
-6.09
-3.07
-0.70
0.70
1.21
1.12
0.78
0.53
0.54
0.96
1.83
3.10
4.60
6.03
7.07
7.49
7.28
6.57
5.66
4.85
4.37
4.28
4.52
4.93
5.30
5.50
5.44
5.16
4.75
4.36
4.10
4.05
4.17
4.37
4.50
4.43
4.10
3.57
2.99
2.51
2.22
2.11
2.06
1.96
1.73
1.37
0.93
0.46
0.01
-0.42
-0.78
-1.09
-1.35
-1.66
-2.08
-2.66
-3.39
-4.13
-4.75
-5.15
-5.33
-5.40
-5.58
-6.06
-7.00
-8.38
-10.04
-11.60
-12.59
-12.59
-11.40
-9.15
-6.23
-3.25
-0.74
0.93
1.68
1.64
1.15
0.60
0.31
0.49
1.12
2.03
2.90
3.47
3.61
3.42
3.14
3.03
3.20
3.55
3.87
3.92
3.63
3.06
2.44
1.98
1.81
1.92
2.20
2.55
2.91
3.27
3.65
4.00
4.22
4.17
3.83
3.27
2.68
2.26
2.11
2.10
1.97
1.46
0.45
-0.96
-2.45
-3.72
-4.56
-5.03
-5.31
-5.68
-6.31
-7.23
-8.36
-9.53
-10.52
-11.09
-10.99
-10.08
-8.42
-6.26
-4.00
-2.08
-0.79
-0.19
-0.11
-0.27
-0.36
-0.20
0.29
1.08
2.05
3.03
3.85
4.35
4.53
4.51
4.49
4.64
5.04
5.58
6.10
6.46
6.62
6.66
6.66
6.65
6.57
6.28
5.72
4.94
4.10
3.41
2.98
2.77
2.63
2.39
1.92
1.22
0.41
-0.35
-0.90
-1.20
-1.33
-1.44
-1.72
-2.24
-2.93
-3.63
-4.18
-4.51
-4.64
-4.70
-4.78
-4.92
-5.18
-5.64
-6.44
-7.70
-9.36
-11.05
-12.25
-12.38
-11.16
-8.75
-5.71
-2.76
-0.48
0.89
1.47
1.56
1.47
1.41
1.45
1.65
2.08
2.81
3.80
4.87
5.69
5.97
5.61
4.74
3.73
2.96
2.71
2.99
3.62
4.30
4.80
5.02
5.02
4.92
4.83
4.82
4.87
4.96
5.03
5.05
4.99
4.84
4.54
4.06
3.38
2.54
1.63
0.80
0.13
-0.39
-0.81
-1.24
-1.72
-2.23
-2.68
-2.98
-3.15
-3.29
-3.50
-3.85
-4.25
-4.55
-4.59
-4.34
-3.92
-3.58
-3.61
-4.21
-5.39
-6.94
-8.43
-9.37
-9.38
-8.37
-6.55
-4.41
-2.52
-1.27
-0.79
-0.91
-1.27
-1.51
-1.36
-0.74
0.30
1.61
3.00
4.26
5.19
5.64
5.59
5.19
4.73
4.51
4.70
5.26
5.97
6.53
6.73
6.50
5.95
5.23
4.47
3.71
2.98
2.32
1.86
1.68
1.80
2.08
2.27
2.15
1.62
0.78
-0.09
-0.71
-0.87
-0.60
-0.10
0.31
0.34
-0.12
-1.03
-2.16
-3.24
-4.03
-4.41
-4.40
-4.17
-4.02
-4.28
-5.19
-6.81
-8.85
-10.82
-12.09
-12.18
-10.94
-8.59
-5.71
-2.96
-0.89
0.23
0.43
-0.01
-0.69
-1.24
-1.41
-1.11
-0.39
0.55
1.51
2.28
2.72
2.82
2.61
2.24
1.84
1.56
1.47
1.55
1.76
2.04
2.39
2.80
3.30
3.84
4.30
4.53
4.43
3.95
3.16
2.20
1.25
0.47
-0.04
-0.24
-0.16
0.11
0.39
0.50
0.32
-0.18
-0.91
-1.71
-2.39
-2.82
-3.01
-3.08
-3.29
-3.84
-4.86
-6.22
-7.59
-8.53
-8.68
-7.92
-6.38
-4.45
-2.52
-0.93
0.21
0.90
1.29
1.51
1.69
1.97
2.44
3.16
4.08
5.07
5.92
6.45
6.55
6.25
5.70
5.10
4.65
4.45
4.49
4.70
4.91
5.00
4.87
4.49
3.89
3.11
2.25
1.43
0.77
0.39
0.32
0.51
0.79
0.98
0.97
0.77
0.52
0.36
0.36
0.42
0.37
0.05
-0.56
-1.31
-2.00
-2.50
-2.83
-3.16
-3.65
-4.38
-5.29
-6.24
-7.10
-7.83
-8.41
-8.79
-8.85
-8.43
-7.41
-5.88
-4.13
-2.53
-1.40
-0.84
-0.75
-0.80
-0.70
-0.26
0.58
1.69
2.88
3.94
4.72
5.12
5.17
4.95
4.62
4.35
4.23
4.26
4.37
4.44
4.42
4.34
4.31
4.39
4.61
4.89
5.13
5.25
5.25
5.18
5.12
5.03
4.84
4.43
3.72
2.75
1.68
0.68
-0.12
-0.70
-1.14
-1.53
-1.92
-2.29
-2.60
-2.83
-3.00
-3.14
-3.34
-3.68
-4.23
-5.07
-6.17
-7.40
-8.52
-9.23
-9.30
-8.71
-7.59
-6.22
-4.89
-3.74
-2.82
-2.07
-1.40
-0.76
-0.07
0.72
1.68
2.78
3.92
4.89
5.52
5.71
5.51
5.13
4.76
4.57
4.57
4.68
4.80
4.89
4.98
5.14
5.38
5.62
5.73
5.56
5.06
4.32
3.53
2.83
2.28
1.83
1.35
0.77
0.08
-0.61
-1.18
-1.57
-1.80
-1.95
-2.15
-2.50
-3.05
-3.85
-4.93
-6.22
-7.58
-8.74
-9.39
-9.25
-8.30
-6.71
-4.89
-3.30
-2.28
-1.93
-2.07
-2.39
-2.53
-2.27
-1.50
-0.27
1.25
2.86
4.31
5.39
5.92
5.87
5.31
4.46
3.57
2.94
2.75
3.08
3.90
5.06
6.35
7.51
8.26
8.43
7.95
6.96
5.72
4.50
3.55
2.96
2.71
2.67
2.71
2.66
2.43
1.96
1.28
0.51
-0.16
-0.57
-0.63
-0.40
-0.10
0.00
-0.38
-1.45
-3.25
-5.68
-8.44
-11.01
-12.88
-13.58
-12.94
-11.15
-8.74
-6.31
-4.36
-3.15
-2.55
-2.27
-1.97
-1.41
-0.54
0.56
1.73
2.86
3.85
4.68
5.34
5.83
6.16
6.36
6.47
6.56
6.69
6.87
7.12
7.43
7.79
8.14
8.41
8.48
8.22
7.57
6.58
5.42
4.26
3.26
2.51
2.00
1.73
1.61
1.58
1.55
1.38
0.99
0.36
-0.40
-1.08
-1.50
-1.57
-1.34
-0.99
-0.69
-0.62
-0.88
-1.49
-2.45
-3.69
-5.14
-6.66
-8.14
-9.52
-10.75
-11.83
-12.69
-13.18
-13.05
-12.12
-10.36
-8.01
-5.46
-3.17
-1.47
-0.44
0.07
0.33
0.56
0.91
1.39
1.95
2.56
3.18
3.84
4.49
5.12
5.65
6.01
6.18
6.17
6.02
5.82
5.66
5.62
5.70
5.85
5.96
5.91
5.63
5.13
4.51
3.92
3.51
3.33
3.36
3.50
3.63
3.65
3.45
2.99
2.30
1.45
0.56
-0.24
-0.89
-1.37
-1.78
-2.24
-2.86
-3.67
-4.57
-5.41
-5.99
-6.23
-6.19
-6.05
-6.10
-6.51
-7.39
-8.64
-10.13
-11.64
-13.02
-14.07
-14.60
-14.39
-13.32
-11.43
-8.98
-6.40
-4.13
-2.43
-1.35
-0.73
-0.34
-0.00
0.39
0.88
1.46
2.16
2.99
3.85
4.61
5.10
5.24
5.07
4.78
4.57
4.61
4.86
5.19
5.39
5.33
5.00
4.51
3.98
3.48
3.01
2.54
2.08
1.69
1.43
1.34
1.32
1.21
0.88
0.31
-0.42
-1.13
-1.68
-2.02
-2.25
-2.47
-2.78
-3.18
-3.55
-3.83
-3.95
-3.96
-3.94
-3.99
-4.14
-4.38
-4.65
-4.88
-5.05
-5.18
-5.32
-5.54
-5.85
-6.23
-6.58
-6.76
-6.58
-5.90
-4.69
-3.03
-1.17
0.58
1.96
2.82
3.19
3.25
3.22
3.28
3.52
3.91
4.39
4.84
5.23
5.53
5.78
5.98
6.13
6.21
6.18
6.06
5.88
5.72
5.63
5.66
5.82
6.06
6.32
6.50
6.53
6.34
5.86
5.08
3.99
2.70
1.33
0.05
-0.98
-1.63
-1.90
-1.81
-1.49
-1.07
-0.65
-0.33
-0.18
-0.24
-0.49
-0.92
-1.48
-2.18
-3.07
-4.23
-5.71
-7.47
-9.33
-10.96
-12.05
-12.39
-11.98
-11.09
-10.25
-10.09
-11.16
-13.64
-17.28
-21.35
-24.89
-27.02
-27.31
-26.00
-23.93
-22.14
-21.49
-22.31
-24.42
-27.24
-29.99
-32.10
-33.32
-33.84
-34.05
-34.38
-35.15
-36.44
-37.94
-38.64
-37.35
-33.26
-26.38
-17.53
-8.02
0.84
8.30
14.35
20.24
27.25
35.78
44.91
52.97
58.43
60.63
60.01
57.95
57.20
60.05
67.17
77.26
87.87
96.68
102.25
104.41
104.13
104.33
107.85
115.91
127.68
140.95
153.28
162.42
166.43
156.10
126.42
79.98
26.83
-21.79
-59.29
-84.50
-99.55
-107.50
-110.83
-109.66
-103.62
-93.39
-81.32
-70.48
-63.15
-60.12
-60.54
-62.50
-62.92
-59.54
-52.33
-43.49
-36.19
-32.79
-34.09
-39.10
-45.53
-50.81
-52.56
-50.55
-46.74
-43.80
-43.46
-46.39
-52.05
-59.56
-67.72
-75.04
-79.37
-77.81
-67.53
-47.05
-18.18
14.38
44.97
69.46
86.84
98.73
107.85
114.06
117.86
118.35
114.75
107.96
101.01
97.70
100.37
108.36
117.70
122.58
116.71
96.37
62.24
19.68
-22.98
-58.00
-80.87
-91.75
-94.24
-93.29
-92.35
-92.18
-91.61
-89.20
-84.98
-80.44
-77.65
-77.80
-80.80
-85.27
-89.28
-91.39
-91.18
-89.61
-88.16
-88.01
-89.50
-92.08
-94.70
-96.23
-97.14
-96.86
-95.57
-93.34
-89.84
-84.38
-76.20
-64.72
-49.81
-32.20
-13.41
4.12
18.15
27.61
33.19
37.16
42.23
50.11
60.49
71.35
79.93
84.35
84.25
80.32
73.54
64.44
53.52
41.88
31.73
25.61
24.99
29.16
35.00
38.33
35.83
26.48
11.74
-5.46
-22.40
-37.29
-49.73
-60.07
-68.66
-75.37
-79.59
-80.54
-77.39
-70.92
-61.11
-47.54
-29.48
-6.07
23.30
58.42
97.78
138.38
176.02
206.50
226.58
234.95
232.57
222.25
207.49
191.25
175.02
158.37
139.36
114.90
81.67
37.29
-18.35
-82.20
-147.90
-206.94
-250.78
-273.30
-272.72
-251.94
-217.40
-176.89
-137.48
-104.07
-79.00
-62.27
-52.17
-46.08
-41.31
-35.97
-29.69
-23.75
-20.49
-22.19
-29.95
-43.02
-58.87
-73.94
-84.60
-88.02
-82.83
-69.14
-48.30
-22.50
5.76
33.84
59.13
79.18
92.14
97.32
95.68
89.90
83.60
80.03
80.83
85.53
92.01
97.54
99.97
98.24
92.40
83.15
71.59
59.09
47.31
38.24
33.86
35.58
43.75
57.18
73.35
89.05
101.23
107.78
107.83
101.62
89.93
73.90
54.91
34.70
15.40
-0.75
-12.10
-18.13
-19.30
-16.12
-7.87
7.90
34.33
73.11
122.31
175.79
224.86
261.50
281.64
286.43
281.13
272.06
263.34
255.05
243.74
224.65
194.60
153.93
106.61
58.40
14.42
-22.88
-54.42
-83.21
-112.34
-143.51
-176.87
-211.87
-248.07
-285.01
-321.02
-352.22
-372.81
-377.28
-363.27
-333.36
-294.58
-255.71
-224.12
-203.71
-194.71
-195.02
-201.69
-211.58
-221.55
-228.37
-229.22
-222.67
-209.32
-191.54
-172.41
-154.42
-138.42
-123.64
-108.22
-90.22
-68.48
-43.14
-15.59
11.90
36.87
57.50
72.95
83.51
90.19
94.27
96.97
99.30
102.17
106.39
112.57
120.77
130.38
140.26
149.18
156.32
161.50
165.13
167.89
170.42
173.20
176.48
180.23
184.03
186.97
187.69
184.82
177.48
165.94
151.77
137.66
126.53
120.63
120.65
125.55
133.04
140.62
146.63
150.73
153.79
157.18
161.97
168.53
176.54
185.21
193.57
200.38
204.09
203.08
196.22
183.49
166.14
146.16
125.35
104.30
82.31
58.06
30.67
0.35
-31.66
-64.01
-96.17
-128.82
-163.55
-202.12
-245.84
-295.02
-348.63
-403.99
-456.95
-502.73
-537.45
-559.59
-570.53
-573.53
-571.69
-566.02
-554.87
-535.25
-505.02
-464.72
-417.66
-368.41
-320.56
-275.27
-231.30
-186.34
-138.59
-87.59
-34.13
20.29
74.08
125.63
172.95
213.54
244.74
264.57
272.62
270.43
261.02
247.83
233.53
219.57
206.38
194.04
182.81
173.15
165.36
159.16
153.66
147.79
140.86
132.97
124.89
117.55
111.46
106.50
102.04
97.44
92.40
87.04
81.75
76.90
72.63
68.74
64.81
60.37
55.09
48.91
42.12
35.28
29.10
24.27
21.13
19.68
19.47
19.83
20.08
19.65
18.25
15.85
12.68
9.24
6.18
4.17
3.57
4.29
5.72
7.05
7.59
7.17
6.14
5.17
4.89
5.60
7.18
9.27
11.48
13.59
15.58
17.54
19.47
21.26
22.57
23.02
22.33
20.39
17.39
13.68
9.61
5.31
0.68
-4.49
-10.33
-16.62
-22.88
-28.55
-33.34
-37.39
-41.26
-45.54
-50.52
-55.93
-61.07
-65.15
-67.66
-68.59
-68.40
-67.73
-67.07
-66.55
-65.85
-64.20
-60.70
-54.61
-45.76
-34.73
-22.75
-11.22
-1.23
6.88
13.47
19.17
24.38
28.95
32.28
33.68
32.82
29.93
25.68
20.92
16.37
12.53
9.70
8.02
7.49
7.85
8.68
9.48
9.86
9.71
9.26
8.97
9.35
10.75
13.28
16.81
20.93
25.03
28.40
30.42
30.77
29.58
27.46
25.22
23.68
23.26
23.95
25.30
26.64
27.30
26.91
25.50
23.46
21.37
19.70
18.59
17.74
16.61
14.70
11.75
7.86
3.32
-1.59
-6.71
-11.91
-16.98
-21.61
-25.41
-28.24
-30.23
-31.74
-33.12
-34.38
-35.13
-34.85
-33.19
-30.26
-26.74
-23.52
-21.38
-20.61
-20.95
-21.76
-22.36
-22.24
-21.17
-19.26
-16.79
-14.14
-11.63
-9.49
-7.80
-6.49
-5.42
-4.47
-3.55
-2.66
-1.84
-1.14
-0.61
-0.30
-0.29
-0.69
-1.54
-2.77
-4.14
-5.33
-6.11
-6.41
-6.41
-6.46
-6.90
-7.93
-9.49
-11.25
-12.80
-13.74
-13.90
-13.42
-12.70
-12.24
-12.44
-13.37
-14.76
-16.05
-16.57
-15.85
-13.75
-10.59
-6.96
-3.58
-1.05
0.35
0.71
0.40
-0.09
-0.31
-0.07
0.57
1.36
1.97
2.17
1.97
1.54
1.20
1.17
1.52
2.09
2.57
2.72
2.45
1.88
1.27
0.93
1.02
1.57
2.41
3.31
4.09
4.61
4.81
4.67
4.11
3.07
1.53
-0.39
-2.45
-4.35
-5.84
-6.87
-7.66
-8.53
-9.75
-11.31
-12.83
-13.71
-13.32
-11.42
-8.20
-4.36
-0.77
1.80
2.98
2.92
2.09
1.13
0.59
0.72
1.53
2.79
4.15
5.27
5.86
5.84
5.28
4.41
3.59
3.15
3.28
4.02
5.19
6.52
7.76
8.75
9.47
10.04
10.57
11.08
11.51
11.67
11.32
10.34
8.74
6.67
4.41
2.27
0.45
-0.90
-1.80
-2.37
-2.84
-3.46
-4.49
-6.00
-7.80
-9.41
-10.24
-9.80
-7.96
-5.08
-1.89
0.80
2.48
3.04
2.83
2.34
1.97
1.93
2.27
3.01
4.24
6.05
8.35
10.74
12.58
13.19
12.17
9.65
6.27
2.91
0.39
-0.89
-0.96
-0.17
1.04
2.32
3.40
4.12
4.31
3.92
3.01
1.87
0.90
0.43
0.57
1.12
1.64
1.68
1.05
-0.14
-1.54
-2.76
-3.60
-4.09
-4.43
-4.83
-5.47
-6.42
-7.64
-8.99
-10.25
-11.06
-10.99
-9.74
-7.26
-3.96
-0.54
2.17
3.61
3.66
2.73
1.49
0.61
0.48
1.15
2.35
3.72
4.93
5.80
6.30
6.48
6.44
6.23
5.86
5.34
4.68
3.96
3.32
2.92
2.87
3.14
3.57
3.89
3.89
3.46
2.72
1.93
1.33
1.02
0.91
0.80
0.47
-0.14
-0.97
-1.89
-2.74
-3.49
-4.12
-4.66
-5.11
-5.50
-5.90
-6.49
-7.43
-8.81
-10.48
-11.97
-12.67
-11.99
-9.73
-6.15
-1.98
1.88
4.65
5.98
5.94
4.98
3.67
2.52
1.85
1.83
2.41
3.45
4.66
5.73
6.41
6.60
6.41
6.05
5.77
5.64
5.59
5.49
5.27
4.95
4.70
4.64
4.79
5.04
5.24
5.26
5.11
4.82
4.43
3.87
3.02
1.80
0.22
-1.53
-3.19
-4.52
-5.37
-5.76
-5.83
-5.80
-5.91
-6.41
-7.42
-8.86
-10.41
-11.53
-11.61
-10.31
-7.66
-4.19
-0.70
2.06
3.65
4.08
3.71
3.00
2.34
1.94
1.89
2.18
2.79
3.61
4.45
5.03
5.15
4.78
4.08
3.35
2.84
2.67
2.80
3.14
3.62
4.24
5.03
5.89
6.62
6.95
6.69
5.83
4.60
3.30
2.21
1.43
0.92
0.52
0.11
-0.35
-0.81
-1.19
-1.48
-1.73
-2.09
-2.71
-3.65
-4.81
-5.95
-6.77
-7.06
-6.81
-6.23
-5.74
-5.71
-6.39
-7.78
-9.65
-11.58
-13.02
-13.43
-12.40
-9.87
-6.13
-1.83
2.17
5.14
6.69
6.88
6.17
5.14
4.30
3.91
3.99
4.44
5.09
5.76
6.34
6.70
6.79
6.59
6.17
5.62
5.10
4.72
4.56
4.66
4.99
5.45
5.92
6.24
6.29
6.04
5.55
4.93
4.36
3.92
3.62
3.39
3.12
2.71
2.17
1.54
0.93
0.44
0.14
0.01
-0.05
-0.15
-0.44
-1.01
-1.84
-2.84
-3.85
-4.69
-5.26
-5.54
-5.64
-5.69
-5.86
-6.30
-7.13
-8.37
-9.90
-11.41
-12.37
-12.26
-10.76
-7.91
-4.24
-0.57
2.28
3.83
4.02
3.23
2.01
0.86
0.12
-0.07
0.29
1.10
2.18
3.31
4.24
4.79
4.90
4.62
4.11
3.51
2.97
2.61
2.58
2.97
3.78
4.84
5.86
6.50
6.55
6.00
5.05
4.03
3.15
2.48
1.93
1.31
0.48
-0.58
-1.76
-2.89
-3.81
-4.42
-4.77
-5.00
-5.32
-5.88
-6.80
-8.06
-9.54
-11.07
-12.37
-13.07
-12.80
-11.28
-8.53
-4.90
-1.04
2.26
4.41
5.22
4.95
4.10
3.26
2.79
2.78
3.12
3.60
4.09
4.51
4.83
5.06
5.24
5.35
5.40
5.42
5.43
5.45
5.56
5.81
6.22
6.74
7.28
7.69
7.85
7.75
7.45
7.10
6.82
6.63
6.45
6.14
5.58
4.76
3.74
2.68
1.71
0.91
0.26
-0.33
-0.96
-1.67
-2.42
-3.14
-3.78
-4.34
-4.87
-5.44
-6.06
-6.66
-7.15
-7.49
-7.73
-8.02
-8.60
-9.67
-11.32
-13.41
-15.56
-17.20
-17.70
-16.60
-13.83
-9.79
-5.25
-1.08
2.05
3.89
4.54
4.36
3.74
2.98
2.30
1.91
1.99
2.62
3.67
4.85
5.78
6.20
6.10
5.70
5.30
5.10
5.10
5.17
5.23
5.26
5.34
5.54
5.83
6.05
6.03
5.73
5.17
4.51
3.87
3.34
2.90
2.55
2.26
2.05
1.94
1.92
1.92
1.86
1.62
1.15
0.46
-0.33
-1.08
-1.62
-1.89
-1.95
-1.98
-2.15
-2.60
-3.37
-4.34
-5.39
-6.34
-7.11
-7.64
-7.95
-8.16
-8.45
-9.08
-10.29
-12.12
-14.29
-16.21
-17.13
-16.41
-13.84
-9.77
-5.03
-0.55
2.88
4.93
5.68
5.54
4.97
4.37
4.01
4.05
4.54
5.42
6.50
7.48
8.07
8.13
7.70
7.04
6.42
6.07
5.99
6.10
6.27
6.44
6.65
6.97
7.34
7.61
7.54
7.01
6.10
5.07
4.25
3.81
3.65
3.47
2.95
1.96
0.65
-0.64
-1.60
-2.06
-2.12
-2.02
-2.02
-2.28
-2.83
-3.60
-4.49
-5.39
-6.23
-6.94
-7.51
-8.02
-8.57
-9.38
-10.60
-12.24
-14.02
-15.44
-15.89
-14.85
-12.25
-8.44
-4.18
-0.32
2.47
3.97
4.37
4.12
3.69
3.42
3.51
3.98
4.81
5.86
6.93
7.75
8.16
8.12
7.73
7.21
6.75
6.44
6.30
6.32
6.51
6.91
7.50
8.20
8.79
9.08
8.95
8.42
7.60
6.64
5.67
4.74
3.88
3.09
2.34
1.59
0.84
0.10
-0.55
-1.04
-1.33
-1.46
-1.56
-1.82
-2.39
-3.32
-4.58
-6.02
-7.48
-8.79
-9.78
-10.38
-10.64
-10.77
-11.13
-12.06
-13.74
-15.93
-18.00
-19.10
-18.51
-15.95
-11.79
-6.88
-2.28
1.19
3.16
3.74
3.36
2.59
1.90
1.64
1.96
2.90
4.32
5.95
7.43
8.45
8.84
8.64
8.07
7.39
6.82
6.47
6.32
6.36
6.55
6.85
7.23
7.55
7.64
7.38
6.77
5.95
5.18
4.70
4.57
4.69
4.82
4.76
4.40
3.76
2.95
2.06
1.17
0.34
-0.38
-0.92
-1.25
-1.45
-1.65
-2.04
-2.74
-3.73
-4.88
-5.98
-6.88
-7.49
-7.86
-8.11
-8.42
-8.98
-9.96
-11.47
-13.51
-15.85
-18.02
-19.40
-19.39
-17.65
-14.29
-9.87
-5.20
-1.12
1.81
3.41
3.85
3.53
2.92
2.42
2.29
2.65
3.45
4.51
5.58
6.46
7.06
7.43
7.69
7.96
8.25
8.50
8.61
8.54
8.36
8.20
8.20
8.43
8.83
9.27
9.60
9.76
9.72
9.51
9.14
8.56
7.71
6.59
5.30
4.03
3.01
2.37
2.08
1.99
1.87
1.51
0.83
-0.06
-0.97
-1.68
-2.08
-2.24
-2.41
-2.87
-3.79
-5.12
-6.58
-7.79
-8.48
-8.62
-8.44
-8.31
-8.56
-9.40
-10.86
-12.83
-15.10
-17.31
-18.95
-19.43
-18.29
-15.38
-11.07
-6.18
-1.69
1.56
3.20
3.40
2.71
1.84
1.35
1.52
2.35
3.58
4.89
5.97
6.68
7.04
7.17
7.27
7.42
7.61
7.73
7.73
7.68
7.71
8.01
8.64
9.50
10.37
10.97
11.14
10.86
10.28
9.54
8.79
8.03
7.18
6.16
4.96
3.67
2.40
1.30
0.34
-0.53
-1.50
-2.66
-4.02
-5.47
-6.81
-7.91
-8.75
-9.44
-10.20
-11.31
-12.92
-14.97
-17.14
-18.82
-19.38
-18.34
-15.66
-11.77
-7.49
-3.68
-0.97
0.45
0.83
0.63
0.33
0.24
0.54
1.27
2.39
3.84
5.42
6.86
7.83
8.10
7.64
6.63
5.40
4.30
3.52
3.16
3.17
3.47
3.94
4.43
4.78
4.85
4.57
3.98
3.24
2.51
1.87
1.28
0.63
-0.13
-0.91
-1.52
-1.73
-1.50
-0.96
-0.44
-0.30
-0.73
-1.67
-2.86
-3.94
-4.65
-4.87
-4.72
-4.42
-4.28
-4.59
-5.54
-7.19
-9.36
-11.65
-13.41
-14.01
-13.00
-10.39
-6.67
-2.65
0.81
3.12
4.12
4.05
3.36
2.61
2.24
2.54
3.59
5.22
7.10
8.76
9.81
10.06
9.58
8.65
7.60
6.72
6.14
5.90
5.95
6.25
6.72
7.25
7.74
8.08
8.21
8.16
7.99
7.74
7.39
6.88
6.17
5.27
4.27
3.33
2.64
2.32
2.33
2.53
2.67
2.49
1.85
0.79
-0.47
-1.59
-2.32
-2.56
-2.45
-2.30
-2.47
-3.16
-4.35
-5.79
-7.16
-8.19
-8.78
-8.99
-8.97
-8.91
-8.97
-9.32
-10.12
-11.42
-13.10
-14.72
-15.65
-15.25
-13.18
-9.66
-5.36
-1.21
1.95
3.74
4.23
3.91
3.35
3.03
3.18
3.81
4.76
5.83
6.84
7.62
8.08
8.21
8.02
7.61
7.07
6.49
5.93
5.46
5.15
5.07
5.22
5.55
5.87
5.99
5.74
5.08
4.12
3.07
2.14
1.40
0.81
0.22
-0.46
-1.23
-1.94
-2.43
-2.65
-2.68
-2.73
-3.05
-3.73
-4.72
-5.80
-6.74
-7.42
-7.84
-8.20
-8.75
-9.74
-11.28
-13.27
-15.39
-17.13
-17.95
-17.45
-15.60
-12.68
-9.28
-6.07
-3.60
-2.23
-2.01
-2.82
-4.37
-6.38
-8.54
-10.53
-12.09
-13.01
-13.27
-13.04
-12.68
-12.60
-13.10
-14.29
-15.97
-17.84
-19.55
-20.94
-22.02
-22.98
-24.06
-25.52
-27.67
-30.76
-34.69
-38.67
-41.16
-40.07
-33.58
-20.92
-2.85
18.51
40.48
60.73
77.86
91.32
100.95
106.45
107.36
103.35
94.75
82.70
68.91
55.04
42.19
30.79
20.84
12.31
5.32
0.08
-3.37
-5.38
-6.65
-7.96
-9.89
-12.59
-15.80
-19.04
-21.87
-24.01
-25.38
-26.04
-26.13
-25.77
-25.02
-23.89
-22.19
-19.65
-15.96
-11.03
-5.05
1.43
7.76
13.39
18.08
21.91
25.11
27.78
29.76
30.71
30.25
28.19
24.59
19.74
14.07
8.16
2.67
-1.72
-4.51
-5.67
-5.66
-5.28
-5.19
-5.60
-6.15
-6.29
-5.66
-4.53
-3.69
-4.07
-6.13
-9.63
-13.73
-17.45
-20.10
-21.57
-22.15
-22.33
-22.51
-23.00
-24.03
-25.81
-28.42
-31.62
-34.74
-36.83
-37.02
-34.94
-31.00
-26.23
-21.88
-18.95
-17.81
-18.30
-19.86
-21.91
-23.99
-25.90
-27.63
-29.34
-31.36
-34.05
-37.69
-42.26
-47.31
-51.98
-55.28
-56.30
-54.57
-50.03
-43.04
-34.18
-24.14
-13.75
-4.00
4.05
9.51
11.97
11.72
9.73
7.22
5.30
4.53
4.89
6.03
7.60
9.37
11.30
13.27
15.09
16.50
17.38
17.86
18.35
19.36
21.21
23.85
26.90
29.70
31.60
32.12
31.02
28.33
24.28
19.23
13.60
7.88
2.56
-1.87
-5.05
-6.82
-7.31
-6.94
-6.22
-5.54
-4.97
-4.09
-2.26
1.15
6.42
13.31
21.08
28.80
35.57
40.75
44.09
45.65
45.69
44.59
42.76
40.60
38.55
37.07
36.59
37.43
39.66
42.99
46.78
50.19
52.45
53.18
52.46
50.73
48.55
46.26
43.86
41.09
37.67
33.54
28.93
24.27
20.02
16.45
13.52
10.98
8.48
5.73
2.57
-1.07
-5.19
-9.80
-14.87
-20.29
-25.74
-30.77
-34.84
-37.61
-38.99
-39.25
-38.83
-38.15
-37.41
-36.48
-35.03
-32.69
-29.29
-24.96
-20.18
-15.64
-11.92
-9.34
-7.84
-6.98
-6.22
-5.15
-3.73
-2.23
-1.15
-0.82
-1.30
-2.30
-3.32
-3.97
-4.05
-3.65
-3.02
-2.38
-1.86
-1.47
-1.14
-0.84
-0.58
-0.37
-0.22
-0.08
0.12
0.48
1.05
1.82
2.73
3.64
4.37
4.80
4.85
4.62
4.24
3.86
3.54
3.19
2.68
1.86
0.70
-0.69
-2.12
-3.35
-4.23
-4.67
-4.71
-4.46
-4.07
-3.75
-3.63
-3.78
-4.14
-4.60
-5.00
-5.26
-5.44
-5.66
-6.08
-6.86
-8.01
-9.44
-10.85
-11.76
-11.72
-10.35
-7.69
-4.13
-0.46
2.45
3.95
3.84
2.40
0.24
-2.01
-3.91
-5.32
-6.31
-7.06
-7.69
-8.27
-8.80
-9.31
-9.83
-10.44
-11.20
-12.11
-13.08
-13.95
-14.51
-14.57
-14.05
-13.04
-11.80
-10.72
-10.13
-10.18
-10.74
-11.39
-11.57
-10.72
-8.50
-4.83
0.08
5.76
11.64
17.12
21.71
25.10
27.17
28.02
27.86
26.96
25.54
23.82
21.94
20.06
18.32
16.84
15.63
14.63
13.69
12.59
11.16
9.35
7.24
5.05
3.07
1.54
0.55
0.07
-0.05
0.04
0.25
0.61
1.19
2.10
3.38
4.93
6.54
7.97
9.10
9.89
10.46
10.91
11.29
11.52
11.48
11.12
10.55
10.03
9.85
10.17
10.93
11.82
12.39
12.30
11.38
9.76
7.76
5.82
4.27
3.27
2.74
2.39
1.90
1.05
-0.21
-1.72
-3.25
-4.60
-5.75
-6.80
-7.91
-9.20
-10.64
-12.10
-13.41
-14.44
-15.12
-15.50
-15.70
-15.85
-16.05
-16.29
-16.45
-16.28
-15.58
-14.22
-12.29
-10.12
-8.11
-6.64
-5.84
-5.57
-5.48
-5.22
-4.52
-3.34
-1.76
0.04
1.86
3.53
4.87
5.76
6.12
5.95
5.42
4.78
4.32
4.27
4.71
5.55
6.57
7.46
7.98
7.95
7.37
6.40
5.26
4.19
3.29
2.59
1.99
1.33
0.49
-0.60
-1.92
-3.38
-4.84
-6.13
-7.10
-7.68
-7.89
-7.84
-7.69
-7.56
-7.51
-7.47
-7.33
-6.91
-6.13
-4.97
-3.57
-2.16
-0.96
-0.13
0.36
0.66
0.98
1.40
1.84
2.01
1.62
0.56
-1.01
-2.67
-3.95
-4.54
-4.42
-3.80
-3.00
-2.31
-1.86
-1.69
-1.80
-2.19
-2.83
-3.62
-4.37
-4.80
-4.67
-3.83
-2.20
0.17
3.17
6.56
9.99
12.94
14.86
15.32
14.22
11.83
8.72
5.61
3.07
1.43
0.67
0.53
0.69
0.88
1.02
1.20
1.57
2.26
3.23
4.26
5.08
5.44
5.27
4.72
4.03
3.46
3.13
3.01
2.97
2.83
2.45
1.78
0.86
-0.20
-1.33
-2.49
-3.70
-5.03
-6.50
-8.08
-9.65
-11.00
-11.93
-12.28
-12.02
-11.20
-9.98
-8.57
-7.21
-6.10
-5.44
-5.30
-5.64
-6.27
-6.90
-7.19
-6.87
-5.86
-4.24
-2.29
-0.35
1.23
2.25
2.65
2.54
2.08
1.51
1.05
0.91
1.23
2.10
3.42
4.97
6.34
7.12
6.98
5.85
3.99
1.89
0.12
-0.88
-0.97
-0.36
0.49
1.14
1.31
1.02
0.49
-0.00
-0.26
-0.26
-0.14
-0.04
-0.10
-0.40
-1.00
-1.92
-3.17
-4.63
-6.08
-7.20
-7.71
-7.43
-6.37
-4.69
-2.70
-0.70
1.00
2.19
2.77
2.76
2.37
1.90
1.64
1.80
2.43
3.37
4.36
5.15
5.56
5.53
5.15
4.55
3.88
3.23
2.63
2.12
1.70
1.40
1.24
1.21
1.25
1.31
1.34
1.35
1.42
1.61
1.96
2.39
2.76
2.87
2.58
1.85
0.78
-0.42
-1.56
-2.52
-3.30
-3.95
-4.52
-4.97
-5.20
-5.11
-4.70
-4.11
-3.62
-3.44
-3.69
-4.26
-4.90
-5.34
-5.40
-5.10
-4.60
-4.20
-4.12
-4.50
-5.28
-6.29
-7.25
-7.93
-8.14
-7.80
-6.93
-5.58
-3.92
-2.13
-0.49
0.70
1.22
1.05
0.39
-0.36
-0.78
-0.65
0.01
0.94
1.81
2.35
2.54
2.52
2.48
2.58
2.82
3.11
3.33
3.40
3.35
3.29
3.32
3.46
3.65
3.76
3.66
3.34
2.95
2.73
2.89
3.51
4.45
5.40
6.07
6.29
6.13
5.76
5.39
5.07
4.75
4.28
3.59
2.77
2.00
1.45
1.13
0.92
0.61
0.07
-0.69
-1.56
-2.40
-3.15
-3.79
-4.34
-4.74
-4.90
-4.70
-4.10
-3.18
-2.13
-1.12
-0.27
0.36
0.77
0.99
1.02
0.94
0.82
0.80
0.95
1.28
1.68
2.00
2.08
1.80
1.20
0.38
-0.50
-1.28
-1.88
-2.31
-2.67
-3.02
-3.42
-3.82
-4.11
-4.11
-3.73
-2.96
-1.95
-0.99
-0.43
-0.56
-1.54
-3.29
-5.55
-7.92
-10.02
-11.54
-12.33
-12.36
-11.68
-10.38
-8.64
-6.73
-5.04
-3.93
-3.61
-4.03
-4.87
-5.73
-6.28
-6.47
-6.45
-6.47
-6.63
-6.77
-6.58
-5.75
-4.24
-2.25
-0.19
1.60
2.97
3.97
4.75
5.47
6.16
6.81
7.39
7.96
8.64
9.54
10.71
12.01
13.22
14.08
14.34
13.93
12.92
11.51
10.00
8.67
7.71
7.12
6.83
6.67
6.48
6.22
5.89
5.52
5.17
4.79
4.35
3.79
3.13
2.41
1.72
1.12
0.63
0.25
-0.07
-0.35
-0.68
-1.12
-1.78
-2.71
-3.88
-5.19
-6.49
-7.69
-8.83
-10.03
-11.47
-13.23
-15.28
-17.49
-19.65
-21.60
-23.28
-24.74
-26.10
-27.52
-29.14
-31.06
-33.28
-35.64
-37.83
-39.40
-39.93
-39.15
-37.16
-34.39
-31.54
-29.33
-28.22
-28.21
-28.79
-28.97
-27.65
-23.90
-17.36
-8.40
1.95
12.30
21.35
28.25
32.76
35.13
35.81
35.24
33.68
31.34
28.48
25.46
22.72
20.63
19.47
19.35
20.26
22.05
24.46
27.12
29.61
31.52
32.59
32.75
32.13
30.96
29.45
27.77
26.03
24.31
22.74
21.42
20.35
19.37
18.18
16.41
13.86
10.60
7.05
3.81
1.48
0.31
0.12
0.39
0.47
-0.14
-1.62
-3.85
-6.55
-9.45
-12.34
-15.08
-17.56
-19.62
-21.06
-21.71
-21.44
-20.23
-18.20
-15.64
-12.88
-10.31
-8.14
-6.37
-4.76
-2.98
-0.80
1.78
4.47
6.94
8.90
10.28
11.19
11.79
12.18
12.32
12.08
11.38
10.23
8.82
7.35
5.95
4.57
2.99
0.92
-1.76
-4.93
-8.23
-11.18
-13.35
-14.53
-14.71
-14.05
-12.78
-11.06
-9.05
-6.81
-4.44
-2.01
0.42
2.77
5.03
7.17
9.19
11.10
12.90
14.55
15.89
16.75
16.92
16.28
14.83
12.75
10.34
7.98
6.04
4.80
4.32
4.44
4.85
5.12
4.94
4.14
2.76
0.98
-0.99
-2.92
-4.60
-5.80
-6.29
-5.88
-4.61
-2.78
-0.94
0.30
0.49
-0.52
-2.44
-4.73
-6.78
-8.10
-8.45
-7.85
-6.56
-4.94
-3.39
-2.24
-1.66
-1.64
-1.97
-2.39
-2.59
-2.37
-1.63
-0.43
1.05
2.55
3.76
4.40
4.35
3.69
2.63
1.49
0.50
-0.24
-0.79
-1.25
-1.71
-2.18
-2.66
-3.17
-3.76
-4.51
-5.41
-6.33
-7.07
-7.49
-7.52
-7.29
-7.06
-7.08
-7.52
-8.41
-9.60
-10.81
-11.70
-11.95
-11.37
-9.90
-7.73
-5.16
-2.60
-0.38
1.26
2.30
2.85
3.11
3.32
3.64
4.18
4.93
5.85
6.81
7.67
8.31
8.65
8.63
8.28
7.66
6.83
5.91
5.04
4.38
4.04
4.04
4.27
4.49
4.45
4.03
3.24
2.24
1.25
0.40
-0.23
-0.63
-0.81
-0.76
-0.48
-0.02
0.43
0.67
0.53
0.04
-0.64
-1.19
-1.35
-1.01
-0.25
0.67
1.48
1.97
2.06
1.80
1.28
0.60
-0.18
-1.01
-1.83
-2.61
-3.32
-3.91
-4.29
-4.27
-3.63
-2.21
-0.06
2.50
4.95
6.78
7.68
7.65
6.95
5.91
4.79
3.75
2.84
2.09
1.54
1.17
0.89
0.55
0.01
-0.80
-1.82
-2.87
-3.80
-4.50
-4.95
-5.17
-5.19
-5.07
-4.86
-4.62
-4.45
-4.41
-4.51
-4.69
-4.86
-4.99
-5.08
-5.15
-5.22
-5.26
-5.25
-5.19
-5.13
-5.17
-5.40
-5.84
-6.50
-7.33
-8.30
-9.40
-10.61
-11.87
-13.07
-14.09
-14.85
-15.37
-15.73
-16.04
-16.35
-16.60
-16.69
-16.50
-16.03
-15.37
-14.70
-14.16
-13.84
-13.73
-13.73
-13.77
-13.76
-13.63
-13.22
-12.27
-10.51
-7.75
-4.07
0.13
4.29
7.83
10.42
12.03
12.87
13.22
13.33
13.34
13.40
13.65
14.29
15.35
16.64
17.70
18.00
17.19
15.34
12.90
10.50
8.62
7.39
6.60
5.87
4.91
3.65
2.26
0.92
-0.19
-1.01
-1.54
-1.77
-1.72
-1.45
-1.14
-1.02
-1.26
-1.89
-2.71
-3.42
-3.70
-3.42
-2.62
-1.54
-0.40
0.61
1.42
1.99
2.26
2.13
1.55
0.64
-0.31
-0.86
-0.60
0.64
2.66
4.95
6.90
8.06
8.34
7.97
7.37
6.92
6.80
6.93
7.10
7.08
6.78
6.27
5.70
5.23
4.89
4.59
4.16
3.44
2.38
0.98
-0.61
-2.25
-3.82
-5.24
-6.45
-7.39
-7.92
-7.83
-6.93
-5.10
-2.43
0.81
4.21
7.35
9.99
12.12
13.88
15.40
16.68
17.53
17.68
16.99
15.60
13.92
12.44
11.47
10.94
10.46
9.45
7.53
4.67
1.25
-2.14
-5.04
-7.23
-8.84
-10.12
-11.32
-12.53
-13.69
-14.66
-15.37
-15.76
-15.84
-15.54
-14.82
-13.59
-11.82
-9.48
-6.57
-3.16
0.71
4.87
9.09
13.08
16.55
19.34
21.43
22.94
24.08
25.01
25.75
26.17
26.05
25.20
23.59
21.37
18.86
16.37
14.12
12.09
10.14
8.06
5.72
3.06
0.09
-3.14
-6.62
-10.27
-13.96
-17.54
-20.85
-23.81
-26.39
-28.59
-30.33
-31.41
-31.62
-30.83
-29.12
-26.75
-24.04
-21.25
-18.45
-15.52
-12.27
-8.61
-4.67
-0.74
2.79
5.65
7.76
9.29
10.54
11.79
13.18
14.63
15.93
16.79
17.04
16.65
15.78
14.65
13.49
12.38
11.31
10.23
9.10
7.99
6.98
6.15
5.48
4.82
3.99
2.87
1.43
-0.18
-1.78
-3.14
-4.09
-4.61
-4.81
-4.87
-5.01
-5.42
-6.21
-7.39
-8.87
-10.52
-12.17
-13.66
-14.91
-15.87
-16.56
-17.05
-17.38
-17.54
-17.46
-17.02
-16.02
-14.33
-11.94
-9.02
-5.93
-3.08
-0.86
0.51
1.03
0.88
0.38
-0.11
-0.29
0.08
1.11
2.76
4.91
7.28
9.59
11.55
12.91
13.57
13.52
12.88
11.87
10.78
9.91
9.46
9.48
9.88
10.39
10.76
10.76
10.31
9.45
8.25
6.82
5.25
3.60
1.94
0.31
-1.23
-2.66
-3.97
-5.22
-6.48
-7.81
-9.25
-10.79
-12.40
-14.02
-15.50
-16.66
-17.28
-17.16
-16.18
-14.46
-12.23
-9.88
-7.74
-5.98
-4.58
-3.33
-2.02
-0.57
0.90
2.09
2.72
2.72
2.26
1.71
1.51
1.95
3.10
4.81
6.83
8.88
10.69
12.00
12.55
12.17
10.85
8.81
6.45
4.21
2.38
1.03
-0.05
-1.15
-2.50
-4.17
-6.05
-7.93
-9.56
-10.76
-11.37
-11.34
-10.65
-9.38
-7.65
-5.68
-3.68
-1.82
-0.25
0.99
1.90
2.55
3.04
3.48
3.96
4.49
4.99
5.37
5.53
5.46
5.24
5.00
4.83
4.78
4.81
4.82
4.68
4.33
3.72
2.84
1.71
0.35
-1.18
-2.80
-4.35
-5.70
-6.72
-7.33
-7.55
-7.44
-7.06
-6.45
-5.60
-4.51
-3.18
-1.71
-0.26
1.00
1.91
2.43
2.59
2.47
2.16
1.75
1.35
1.07
0.95
0.99
1.09
1.10
0.91
0.50
-0.07
-0.65
-1.11
-1.39
-1.53
-1.60
-1.73
-2.01
-2.48
-3.14
-3.92
-4.67
-5.22
-5.43
-5.29
-4.94
-4.59
-4.45
-4.62
-5.04
-5.60
-6.18
-6.76
-7.35
-7.97
-8.53
-8.89
-8.94
-8.71
-8.41
-8.31
-8.64
-9.43
-10.55
-11.72
-12.69
-13.33
-13.56
-13.38
-12.73
-11.54
-9.85
-7.79
-5.63
-3.59
-1.70
0.21
2.46
5.31
8.75
12.44
15.88
18.58
20.32
21.21
21.60
21.84
22.15
22.51
22.71
22.52
21.82
20.62
19.07
17.39
15.80
14.45
13.40
12.61
11.94
11.27
10.49
9.57
8.62
7.80
7.22
6.91
6.73
6.46
5.86
4.81
3.29
1.43
-0.60
-2.56
-4.17
-5.10
-5.07
-3.95
-1.90
0.63
2.98
4.56
5.07
4.59
3.53
2.43
1.72
1.58
1.92
2.53
3.16
3.64
3.89
3.90
3.63
3.12
2.39
1.57
0.79
0.24
0.00
0.09
0.37
0.63
0.63
0.22
-0.58
-1.58
-2.52
-3.18
-3.47
-3.47
-3.38
-3.40
-3.61
-3.99
-4.45
-4.87
-5.22
-5.50
-5.72
-5.83
-5.77
-5.48
-4.99
-4.45
-4.09
-4.09
-4.49
-5.14
-5.78
-6.12
-6.01
-5.45
-4.56
-3.47
-2.27
-1.01
0.32
1.64
2.82
3.71
4.21
4.31
4.14
3.84
3.52
3.24
3.03
2.88
2.84
2.94
3.17
3.46
3.67
3.67
3.37
2.83
2.23
1.83
1.91
2.62
3.92
5.56
7.16
8.38
8.95
8.84
8.15
7.10
5.94
4.86
3.94
3.20
2.56
1.88
0.99
-0.23
-1.78
-3.52
-5.20
-6.59
-7.57
-8.20
-8.71
-9.35
-10.29
-11.55
-13.01
-14.49
-15.83
-16.95
-17.81
-18.32
-18.41
-18.02
-17.17
-16.02
-14.84
-13.86
-13.14
-12.62
-12.07
-11.30
-10.29
-9.16
-8.10
-7.27
-6.63
-5.95
-4.90
-3.21
-0.83
2.05
5.03
7.69
9.74
11.12
11.94
12.39
12.63
12.72
12.68
12.53
12.37
12.28
12.31
12.44
12.53
12.47
12.17
11.65
11.00
10.30
9.56
8.73
7.75
6.59
5.29
3.94
2.64
1.41
0.26
-0.84
-1.97
-3.15
-4.40
-5.70
-7.05
-8.44
-9.88
-11.36
-12.82
-14.16
-15.23
-15.92
-16.16
-16.03
-15.65
-15.20
-14.81
-14.47
-14.07
-13.45
-12.45
-11.00
-9.18
-7.18
-5.23
-3.56
-2.27
-1.35
-0.65
-0.00
0.71
1.53
2.44
3.43
4.58
5.99
7.71
9.70
11.81
13.81
15.51
16.81
17.68
18.13
18.21
17.91
17.26
16.34
15.27
14.21
13.27
12.45
11.68
10.89
10.05
9.26
8.62
8.20
7.95
7.72
7.31
6.54
5.36
3.80
1.98
0.06
-1.79
-3.43
-4.73
-5.63
-6.18
-6.54
-6.88
-7.31
-7.83
-8.36
-8.78
-9.06
-9.22
-9.34
-9.51
-9.74
-10.01
-10.29
-10.60
-10.95
-11.31
-11.55
-11.50
-10.98
-9.92
-8.43
-6.79
-5.31
-4.26
-3.69
-3.48
-3.35
-3.00
-2.29
-1.22
-0.02
1.06
1.74
1.94
1.71
1.19
0.56
-0.04
-0.54
-0.90
-1.10
-1.16
-1.12
-1.09
-1.19
-1.47
-1.92
-2.34
-2.54
-2.37
-1.88
-1.28
-0.87
-0.85
-1.26
-1.94
-2.65
-3.17
-3.36
-3.21
-2.74
-2.00
-1.14
-0.36
0.10
0.02
-0.65
-1.71
-2.79
-3.43
-3.27
-2.19
-0.34
1.94
4.16
5.82
6.50
5.96
4.25
1.76
-0.88
-2.95
-3.92
-3.61
-2.29
-0.52
1.05
1.95
2.04
1.57
0.98
0.74
1.12
2.13
3.58
5.10
6.39
7.20
7.39
6.96
6.02
4.77
3.55
2.68
2.46
2.98
4.16
5.74
7.45
9.08
10.53
11.72
12.56
12.93
12.71
11.89
10.64
9.27
8.07
7.19
6.57
6.05
5.42
4.56
3.46
2.22
0.89
-0.47
-1.80
-2.99
-3.86
-4.24
-4.06
-3.42
-2.60
-1.93
-1.66
-1.89
-2.51
-3.36
-4.29
-5.25
-6.27
-7.39
-8.59
-9.80
-10.92
-11.89
-12.70
-13.34
-13.76
-13.86
-13.53
-12.77
-11.69
-10.53
-9.55
-8.92
-8.67
-8.69
-8.80
-8.83
-8.67
-8.32
-7.80
-7.16
-6.40
-5.50
-4.39
-3.07
-1.54
0.08
1.70
3.21
4.53
5.61
6.39
6.85
6.98
6.91
6.80
6.85
7.13
7.60
8.06
8.33
8.26
7.84
7.15
6.32
5.44
4.58
3.79
3.09
2.50
2.01
1.61
1.28
1.07
1.03
1.24
1.66
2.19
2.67
2.93
2.88
2.49
1.80
0.86
-0.25
-1.39
-2.38
-3.02
-3.12
-2.56
-1.31
0.50
2.60
4.62
6.17
6.94
6.84
6.03
4.90
3.97
3.67
4.24
5.61
7.49
9.47
11.15
12.19
12.46
11.99
10.99
9.81
8.82
8.22
8.01
7.96
7.74
7.09
5.90
4.26
2.38
0.51
-1.16
-2.50
-3.45
-4.01
-4.21
-4.16
-3.99
-3.81
-3.74
-3.85
-4.15
-4.70
-5.45
-6.36
-7.32
-8.25
-9.11
-9.95
-10.83
-11.79
-12.78
-13.69
-14.45
-15.03
-15.49
-15.87
-16.18
-16.28
-16.04
-15.31
-14.08
-12.50
-10.84
-9.42
-8.51
-8.25
-8.59
-9.30
-10.08
-10.61
-10.66
-10.17
-9.20
-7.86
-6.27
-4.48
-2.51
-0.47
1.50
3.24
4.69
5.90
7.05
8.32
9.83
11.50
13.17
14.64
15.78
16.58
17.09
17.41
17.67
17.98
18.42
19.06
19.84
20.60
21.06
20.94
20.12
18.60
16.61
14.42
12.29
10.35
8.62
7.01
5.45
3.87
2.26
0.63
-0.97
-2.54
-4.06
-5.54
-7.01
-8.52
-10.13
-11.84
-13.58
-15.15
-16.23
-16.54
-15.95
-14.56
-12.73
-10.90
-9.39
-8.35
-7.69
-7.26
-6.98
-6.88
-7.07
-7.63
-8.48
-9.39
-10.09
-10.32
-9.91
-8.86
-7.25
-5.29
-3.22
-1.24
0.52
2.07
3.59
5.30
7.35
9.76
12.33
14.80
16.85
18.30
19.12
19.40
19.30
18.93
18.30
17.33
15.94
14.10
11.94
9.66
7.50
5.57
3.85
2.20
0.45
-1.47
-3.52
-5.57
-7.50
-9.28
-10.96
-12.68
-14.52
-16.52
-18.61
-20.64
-22.44
-23.84
-24.75
-25.18
-25.21
-24.95
-24.51
-23.95
-23.27
-22.42
-21.30
-19.87
-18.09
-15.99
-13.65
-11.18
-8.74
-6.44
-4.36
-2.48
-0.73
1.01
2.83
4.70
6.46
7.98
9.17
10.10
10.95
11.92
13.13
14.58
16.12
17.64
19.07
20.43
21.80
23.22
24.64
25.96
27.06
27.87
28.29
28.23
27.57
26.23
24.21
21.70
18.95
16.28
13.90
11.85
9.97
8.01
5.81
3.34
0.74
-1.72
-3.80
-5.37
-6.50
-7.42
-8.37
-9.46
-10.70
-11.92
-12.95
-13.65
-14.00
-14.03
-13.78
-13.24
-12.47
-11.60
-10.90
-10.67
-11.14
-12.30
-13.93
-15.66
-17.16
-18.14
-18.43
-17.85
-16.24
-13.52
-9.82
-5.59
-1.43
2.04
4.50
5.97
6.76
7.24
7.65
8.09
8.52
8.97
9.49
10.17
10.97
11.74
12.18
12.07
11.36
10.21
8.93
7.79
7.01
6.59
6.46
6.51
6.61
6.66
6.59
6.33
5.89
5.35
4.88
4.64
4.70
5.00
5.37
5.60
5.55
5.16
4.51
3.73
2.95
2.28
1.72
1.24
0.78
0.25
-0.44
-1.34
-2.48
-3.79
-5.07
-6.03
-6.36
-5.89
-4.65
-2.94
-1.26
-0.07
0.29
-0.22
-1.43
-3.01
-4.62
-5.94
-6.71
-6.76
-6.06
-4.72
-3.01
-1.25
0.23
1.25
1.76
1.88
1.75
1.58
1.47
1.50
1.65
1.87
2.13
2.35
2.56
2.71
2.75
2.54
1.98
1.02
-0.23
-1.48
-2.45
-2.91
-2.84
-2.39
-1.82
-1.36
-1.08
-0.95
-0.91
-0.92
-1.02
-1.28
-1.72
-2.30
-2.89
-3.37
-3.73
-4.06
-4.58
-5.49
-6.84
-8.47
-9.98
-10.89
-10.84
-9.82
-8.15
-6.42
-5.22
-4.87
-5.28
-6.08
-6.78
-7.06
-6.84
-6.31
-5.73
-5.27
-4.95
-4.61
-4.09
-3.28
-2.21
-1.01
0.19
1.27
2.17
2.85
3.32
3.56
3.59
3.45
3.17
2.78
2.30
1.76
1.23
0.79
0.49
0.35
0.33
0.41
0.52
0.63
0.72
0.74
0.63
0.38
-0.03
-0.55
-1.19
-1.92
-2.78
-3.78
-4.88
-6.00
-7.07
-8.02
-8.81
-9.43
-9.78
-9.73
-9.18
-8.12
-6.66
-5.07
-3.60
-2.46
-1.69
-1.19
-0.82
-0.44
0.06
0.69
1.44
2.27
3.12
3.91
4.57
5.03
5.23
5.14
4.83
4.44
4.14
4.09
4.35
4.85
5.42
5.86
6.06
6.01
5.82
5.62
5.49
5.43
5.33
5.07
4.58
3.84
2.91
1.92
1.00
0.30
-0.15
-0.38
-0.52
-0.71
-1.02
-1.46
-1.94
-2.36
-2.66
-2.83
-2.95
-3.13
-3.48
-4.06
-4.89
-5.92
-6.98
-7.84
-8.24
-7.96
-6.95
-5.30
-3.27
-1.18
0.71
2.21
3.29
3.97
4.35
4.54
4.68
4.92
5.36
6.02
6.78
7.41
7.72
7.59
7.08
6.37
5.67
5.11
4.73
4.45
4.23
4.05
3.92
3.83
3.74
3.57
3.29
2.88
2.44
2.05
1.79
1.63
1.51
1.34
1.06
0.68
0.23
-0.28
-0.83
-1.44
-2.12
-2.85
-3.64
-4.47
-5.35
-6.24
-7.12
-7.91
-8.56
-9.07
-9.48
-9.90
-10.41
-11.04
-11.76
-12.50
-13.25
-14.08
-15.14
-16.52
-18.10
-19.54
-20.35
-20.11
-18.67
-16.24
-13.30
-10.33
-7.58
-5.06
-2.57
0.11
3.06
6.18
9.27
12.17
14.74
16.90
18.58
19.71
20.24
20.23
19.80
19.10
18.27
17.36
16.45
15.54
14.69
13.90
13.15
12.40
11.64
10.89
10.19
9.53
8.84
7.98
6.85
5.47
4.05
2.81
1.99
1.63
1.62
1.78
1.88
1.76
1.32
0.51
-0.67
-2.13
-3.65
-4.96
-5.85
-6.27
-6.40
-6.55
-7.01
-7.89
-9.04
-10.09
-10.64
-10.33
-9.03
-6.88
-4.16
-1.27
1.44
3.70
5.35
6.29
6.55
6.21
5.45
4.56
3.81
3.43
3.53
4.07
4.92
5.90
6.82
7.47
7.68
7.34
6.50
5.34
4.20
3.40
3.10
3.25
3.65
4.05
4.30
4.41
4.44
4.46
4.46
4.38
4.14
3.72
3.16
2.53
1.89
1.23
0.52
-0.31
-1.29
-2.41
-3.62
-4.84
-6.06
-7.27
-8.50
-9.77
-11.00
-11.98
-12.44
-12.08
-10.80
-8.72
-6.22
-3.85
-2.16
-1.48
-1.83
-2.92
-4.28
-5.47
-6.15
-6.24
-5.84
-5.13
-4.28
-3.37
-2.49
-1.71
-1.15
-0.90
-0.97
-1.22
-1.39
-1.24
-0.69
0.16
1.04
1.68
1.91
1.79
1.51
1.32
1.37
1.67
2.14
2.64
3.09
3.53
4.04
4.70
5.52
6.35
6.97
7.19
6.92
6.23
5.31
4.36
3.51
2.80
2.19
1.64
1.09
0.51
-0.14
-0.89
-1.67
-2.33
-2.59
-2.20
-1.01
0.90
3.18
5.39
7.09
8.04
8.19
7.70
6.83
5.84
4.97
4.37
4.14
4.27
4.67
5.18
5.61
5.80
5.66
5.22
4.58
3.85
3.15
2.54
2.05
1.67
1.39
1.17
0.93
0.56
-0.01
-0.80
-1.72
-2.63
-3.38
-3.90
-4.25
-4.58
-5.02
-5.65
-6.43
-7.23
-7.93
-8.45
-8.78
-8.97
-9.05
-9.07
-9.04
-8.98
-8.89
-8.72
-8.42
-7.95
-7.39
-6.94
-6.92
-7.53
-8.74
-10.14
-11.09
-10.97
-9.50
-6.87
-3.66
-0.62
1.70
3.10
3.69
3.82
3.83
4.00
4.44
5.17
6.08
7.00
7.76
8.24
8.40
8.31
8.10
7.87
7.65
7.44
7.21
6.95
6.69
6.42
6.09
5.62
4.92
3.98
2.89
1.81
0.89
0.25
-0.07
-0.13
-0.03
0.13
0.26
0.30
0.22
0.05
-0.18
-0.44
-0.68
-0.88
-1.07
-1.28
-1.60
-2.07
-2.74
-3.53
-4.31
-4.92
-5.21
-5.17
-4.94
-4.79
-5.06
-5.99
-7.64
-9.77
-11.84
-13.16
-13.18
-11.69
-8.97
-5.69
-2.69
-0.60
0.34
0.30
-0.32
-1.08
-1.70
-2.13
-2.42
-2.67
-2.96
-3.38
-3.98
-4.78
-5.79
-6.94
-8.07
-8.97
-9.42
-9.23
-8.28
-6.58
-4.26
-1.54
1.26
3.84
5.92
7.34
8.06
8.17
7.85
7.33
6.84
6.53
6.46
6.59
6.79
6.90
6.76
6.24
5.30
4.03
2.64
1.33
0.27
-0.47
-1.02
-1.55
-2.28
-3.23
-4.25
-4.99
-5.06
-4.19
-2.38
0.09
2.75
5.08
6.70
7.45
7.44
6.94
6.29
5.79
5.57
5.65
5.93
6.24
6.48
6.63
6.77
7.01
7.44
8.03
8.61
8.95
8.89
8.41
7.70
7.05
6.74
6.84
7.21
7.51
7.42
6.69
5.31
3.43
1.25
-1.03
-3.28
-5.38
-7.21
-8.65
-9.57
-9.98
-9.97
-9.71
-9.40
-9.18
-9.12
-9.26
-9.61
-10.23
-11.16
-12.43
-14.01
-15.81
-17.61
-19.07
-19.74
-19.15
-17.03
-13.46
-8.92
-4.26
-0.34
2.20
3.21
2.99
2.13
1.26
0.86
1.15
2.10
3.53
5.13
6.57
7.59
8.05
7.96
7.41
6.53
5.45
4.27
3.14
2.28
1.90
2.10
2.78
3.64
4.26
4.36
3.84
2.90
1.89
1.16
0.95
1.26
1.91
2.62
3.09
3.13
2.66
1.76
0.59
-0.61
-1.63
-2.38
-2.86
-3.16
-3.40
-3.67
-4.00
-4.36
-4.69
-4.98
-5.28
-5.73
-6.49
-7.66
-9.16
-10.71
-11.86
-12.11
-11.12
-8.81
-5.51
-1.81
1.57
4.00
5.21
5.26
4.54
3.55
2.77
2.53
2.98
4.08
5.68
7.52
9.28
10.64
11.36
11.32
10.60
9.40
8.02
6.72
5.65
4.88
4.38
4.08
3.93
3.86
3.82
3.77
3.66
3.46
3.14
2.66
2.00
1.18
0.29
-0.53
-1.14
-1.46
-1.49
-1.36
-1.22
-1.22
-1.45
-1.90
-2.52
-3.23
-3.92
-4.51
-4.92
-5.17
-5.34
-5.65
-6.36
-7.61
-9.31
-11.06
-12.23
-12.21
-10.69
-7.82
-4.18
-0.57
2.34
4.15
4.88
4.82
4.37
3.88
3.55
3.41
3.43
3.53
3.65
3.79
3.95
4.17
4.46
4.74
4.89
4.76
4.30
3.56
2.76
2.18
2.00
2.24
2.69
3.09
3.16
2.81
2.12
1.29
0.47
-0.19
-0.69
-1.05
-1.31
-1.54
-1.82
-2.24
-2.87
-3.73
-4.71
-5.62
-6.29
-6.64
-6.78
-6.93
-7.40
-8.36
-9.74
-11.26
-12.42
-12.75
-11.90
-9.90
-7.05
-3.93
-1.14
0.87
1.90
2.09
1.74
1.22
0.86
0.86
1.35
2.30
3.53
4.78
5.73
6.15
5.99
5.38
4.63
4.01
3.68
3.66
3.88
4.25
4.74
5.32
5.91
6.34
6.46
6.24
5.75
5.16
4.60
4.09
3.51
2.76
1.82
0.86
0.11
-0.29
-0.38
-0.43
-0.73
-1.43
-2.45
-3.46
-4.15
-4.36
-4.23
-4.09
-4.31
-5.09
-6.44
-8.20
-10.14
-12.02
-13.54
-14.33
-14.00
-12.28
-9.26
-5.43
-1.57
1.49
3.25
3.65
3.08
2.18
1.52
1.44
2.00
3.03
4.22
5.31
6.11
6.57
6.76
6.80
6.75
6.62
6.39
6.01
5.56
5.21
5.12
5.39
5.93
6.51
6.86
6.83
6.42
5.80
5.15
4.59
4.11
3.60
2.98
2.20
1.33
0.46
-0.33
-0.97
-1.47
-1.81
-2.06
-2.27
-2.55
-3.03
-3.76
-4.70
-5.69
-6.52
-7.04
-7.27
-7.35
-7.51
-7.95
-8.77
-10.00
-11.53
-13.17
-14.54
-15.17
-14.56
-12.42
-8.84
-4.36
0.17
3.86
6.14
6.92
6.53
5.60
4.71
4.25
4.37
4.94
5.72
6.44
6.90
7.05
6.96
6.77
6.60
6.45
6.24
5.87
5.29
4.60
4.01
3.70
3.74
4.03
4.36
4.55
4.52
4.33
4.12
3.94
3.78
3.53
3.14
2.63
2.12
1.74
1.54
1.45
1.26
0.80
-0.04
-1.19
-2.47
-3.64
-4.54
-5.10
-5.39
-5.60
-5.96
-6.72
-8.03
-9.79
-11.70
-13.20
-13.70
-12.83
-10.54
-7.21
-3.52
-0.21
2.18
3.41
3.58
3.06
2.28
1.68
1.54
1.98
2.89
4.03
5.06
5.73
5.90
5.62
5.05
4.38
3.74
3.21
2.84
2.65
2.69
2.95
3.40
3.88
4.22
4.22
3.80
2.99
1.94
0.89
0.02
-0.59
-0.99
-1.36
-1.87
-2.60
-3.48
-4.32
-4.95
-5.27
-5.36
-5.42
-5.64
-6.15
-6.95
-7.98
-9.16
-10.32
-11.25
-11.60
-11.03
-9.31
-6.56
-3.27
-0.12
2.21
3.36
3.45
2.92
2.41
2.43
3.23
4.71
6.55
8.33
9.67
10.38
10.42
9.98
9.28
8.57
8.00
7.63
7.43
7.31
7.19
7.05
6.86
6.67
6.50
6.36
6.18
5.88
5.39
4.69
3.81
2.81
1.75
0.70
-0.27
-1.07
-1.61
-1.87
-1.96
-2.06
-2.40
-3.10
-4.12
-5.26
-6.26
-6.91
-7.20
-7.30
-7.50
-8.10
-9.30
-11.06
-13.09
-14.80
-15.55
-14.83
-12.48
-8.86
-4.65
-0.72
2.25
3.92
4.37
3.97
3.24
2.66
2.57
3.08
4.13
5.50
6.88
8.00
8.67
8.89
8.73
8.35
7.86
7.33
6.78
6.26
5.86
5.65
5.72
6.02
6.45
6.83
6.98
6.80
6.26
5.46
4.56
3.72
3.05
2.60
2.32
2.08
1.74
1.19
0.44
-0.42
-1.19
-1.72
-1.94
-1.91
-1.84
-1.99
-2.56
-3.61
-5.00
-6.46
-7.68
-8.42
-8.65
-8.46
-8.14
-8.00
-8.37
-9.49
-11.40
-13.87
-16.35
-18.08
-18.33
-16.68
-13.23
-8.66
-3.96
-0.09
2.31
3.19
2.91
2.07
1.23
0.78
0.85
1.46
2.53
3.92
5.45
6.89
7.97
8.51
8.46
7.94
7.16
6.36
5.75
5.45
5.51
5.89
6.47
7.08
7.50
7.55
7.18
6.48
5.67
4.99
4.54
4.30
4.11
3.78
3.20
2.39
1.47
0.61
-0.03
-0.41
-0.60
-0.74
-1.00
-1.50
-2.24
-3.12
-3.98
-4.69
-5.27
-5.87
-6.70
-7.96
-9.65
-11.51
-13.16
-14.17
-14.33
-13.78
-12.99
-12.62
-13.23
-15.07
-17.90
-21.01
-23.51
-24.61
-23.93
-21.65
-18.45
-15.26
-13.03
-12.38
-13.41
-15.58
-17.70
-18.22
-15.71
-9.36
0.55
12.64
24.79
34.82
41.24
43.66
42.66
39.39
35.03
30.35
25.76
21.43
17.57
14.47
12.43
11.52
11.49
11.83
11.94
11.41
10.21
8.60
6.96
5.56
4.48
3.55
2.59
1.48
0.30
-0.80
-1.64
-2.15
-2.41
-2.53
-2.67
-2.91
-3.29
-3.78
-4.35
-4.93
-5.48
-6.01
-6.64
-7.52
-8.80
-10.45
-12.18
-13.50
-13.88
-13.02
-11.00
-8.23
-5.36
-2.95
-1.35
-0.59
-0.52
-0.84
-1.23
-1.44
-1.24
-0.55
0.54
1.83
3.02
3.85
4.21
4.19
3.93
3.57
3.20
2.84
2.49
2.22
2.12
2.25
2.61
3.09
3.54
3.79
3.73
3.33
2.61
1.65
0.58
-0.49
-1.40
-2.08
-2.50
-2.69
-2.75
-2.83
-3.07
-3.61
-4.51
-5.73
-7.11
-8.37
-9.27
-9.67
-9.67
-9.55
-9.66
-10.21
-11.15
-12.09
-12.49
-11.84
-9.88
-6.63
-2.36
2.48
7.47
12.37
17.27
22.74
29.80
39.89
54.49
74.62
100.43
130.86
163.90
197.18
228.71
257.58
284.04
309.11
333.81
358.48
382.50
404.48
422.80
436.07
443.45
444.65
439.86
429.72
415.39
398.41
380.35
362.07
343.15
321.82
295.56
262.24
221.02
172.79
119.57
63.60
6.40
-51.48
-110.23
-170.21
-231.30
-292.38
-351.14
-404.23
-447.99
-479.55
-498.00
-504.81
-503.17
-496.28
-485.57
-470.09
-447.46
-415.97
-376.45
-332.71
-290.19
-253.59
-224.88
-203.06
-185.29
-168.66
-151.61
-133.94
-116.14
-98.27
-79.97
-61.07
-42.60
-26.56
-14.65
-6.91
-1.41
4.19
10.48
14.92
12.90
0.64
-21.70
-48.95
-72.91
-86.23
-85.80
-73.57
-54.58
-33.58
-12.65
8.77
31.99
56.66
80.09
98.14
106.94
104.69
92.13
72.08
48.15
23.60
0.58
-19.87
-37.52
-52.51
-65.10
-75.71
-85.13
-94.49
-104.84
-116.55
-128.74
-139.24
-145.17
-143.83
-133.66
-114.92
-89.61
-60.90
-32.11
-5.76
16.89
35.77
51.38
64.05
73.57
79.38
81.12
79.22
74.93
69.75
64.67
59.70
53.99
46.50
36.58
24.19
9.63
-6.86
-25.18
-45.17
-66.17
-87.03
-106.28
-122.78
-136.08
-146.51
-154.86
-161.96
-168.40
-174.39
-179.75
-183.94
-186.10
-185.30
-180.96
-173.30
-163.60
-154.08
-147.39
-146.11
-152.43
-168.14
-194.54
-231.78
-277.81
-327.49
-372.78
-404.56
-415.41
-402.35
-367.82
-318.52
-262.45
-205.92
-151.84
-100.08
-49.10
2.37
54.45
106.15
155.89
201.80
241.91
274.23
297.29
310.69
315.30
312.93
305.58
294.71
281.15
265.73
249.92
236.04
226.45
222.34
222.84
225.12
225.47
220.87
210.06
193.73
173.94
153.11
133.17
115.33
100.13
87.65
77.74
70.02
63.90
58.81
54.36
50.56
47.82
46.60
47.17
49.37
52.56
55.86
58.48
59.95
60.27
59.78
58.97
58.15
57.41
56.54
55.25
53.31
50.77
47.94
45.46
44.03
44.21
46.18
49.60
53.74
57.66
60.48
61.69
61.15
59.05
55.74
51.52
46.58
40.96
34.73
28.03
21.19
14.66
8.98
4.56
1.57
-0.06
-0.64
-0.55
-0.16
0.19
0.19
-0.55
-2.34
-5.36
-9.47
-14.23
-19.03
-23.31
-26.71
-29.14
-30.64
-31.31
-31.25
-30.62
-29.66
-28.72
-28.13
-28.10
-28.62
-29.49
-30.38
-30.98
-31.09
-30.70
-29.98
-29.18
-28.48
-27.86
-27.00
-25.48
-22.96
-19.47
-15.45
-11.61
-8.59
-6.70
-5.77
-5.32
-4.90
-4.28
-3.58
-3.06
-2.96
-3.26
-3.80
-4.38
-4.85
-5.20
-5.53
-5.87
-6.18
-6.30
-6.09
-5.51
-4.62
-3.58
-2.61
-1.94
-1.68
-1.85
-2.32
-2.84
-3.09
-2.91
-2.27
-1.38
-0.57
-0.16
-0.35
-1.11
-2.25
-3.46
-4.49
-5.13
-5.37
-5.34
-5.30
-5.52
-6.17
-7.24
-8.60
-10.09
-11.66
-13.44
-15.61
-18.29
-21.39
-24.55
-27.31
-29.24
-30.14
-30.02
-29.06
-27.45
-25.31
-22.71
-19.76
-16.71
-13.89
-11.62
-10.02
-8.88
-7.85
-6.59
-4.96
-3.05
-0.98
1.23
3.70
6.58
9.87
13.27
16.35
18.86
20.93
23.15
26.27
30.80
36.67
43.17
49.12
53.18
54.25
51.67
45.41
36.07
24.76
13.07
2.80
-4.39
-7.38
-5.93
-0.83
6.42
14.00
20.37
24.67
26.85
27.36
26.81
25.52
23.42
20.26
15.81
10.21
4.12
-1.48
-5.54
-7.26
-6.52
-3.87
-0.34
3.05
5.71
7.59
9.06
10.45
11.73
12.42
11.86
9.64
5.87
1.17
-3.60
-7.77
-10.99
-13.32
-14.97
-16.12
-16.81
-17.03
-16.89
-16.64
-16.62
-17.09
-18.09
-19.44
-20.76
-21.64
-21.69
-20.68
-18.60
-15.63
-12.22
-8.93
-6.44
-5.22
-5.49
-7.01
-9.24
-11.54
-13.41
-14.76
-15.85
-17.16
-19.08
-21.66
-24.61
-27.37
-29.43
-30.41
-30.15
-28.63
-25.87
-21.87
-16.74
-10.71
-4.19
2.34
8.53
14.28
19.83
25.70
32.43
40.32
49.15
57.94
65.10
68.79
67.52
60.70
48.87
33.53
16.71
0.54
-13.00
-22.24
-25.97
-23.78
-16.47
-6.11
4.26
11.59
13.81
10.54
2.99
-6.68
-16.37
-24.69
-31.02
-35.32
-37.61
-37.87
-36.11
-32.54
-27.70
-22.31
-17.09
-12.51
-8.82
-6.08
-4.30
-3.53
-3.94
-5.69
-8.88
-13.39
-18.70
-23.91
-27.92
-29.78
-29.14
-26.51
-23.14
-20.65
-20.30
-22.54
-26.74
-31.41
-34.72
-35.07
-31.58
-24.44
-14.84
-4.77
3.60
8.56
9.65
7.84
5.45
5.30
9.75
19.68
34.04
50.19
64.68
74.42
77.70
74.65
67.05
57.65
49.10
43.12
39.93
38.37
36.55
32.64
25.74
16.16
5.33
-4.83
-12.57
-16.85
-17.61
-15.67
-12.39
-9.11
-6.79
-5.74
-5.74
-6.46
-7.87
-10.42
-14.82
-21.42
-29.79
-38.60
-46.12
-51.11
-53.43
-54.10
-54.71
-56.56
-59.99
-64.20
-67.91
-69.92
-69.58
-66.64
-60.93
-52.22
-40.47
-26.21
-10.76
4.19
17.49
29.46
42.11
58.47
81.09
110.50
144.31
177.52
204.05
218.66
218.64
204.52
179.70
149.08
117.61
88.96
65.07
46.35
32.44
22.79
16.99
14.58
14.72
16.08
17.24
17.34
16.66
16.71
19.51
26.40
36.93
48.29
55.94
55.14
42.83
19.04
-12.86
-47.26
-78.27
-101.64
-115.82
-121.79
-122.00
-118.95
-114.20
-108.27
-101.19
-93.24
-85.19
-78.03
-72.35
-67.83
-63.37
-57.71
-50.24
-41.44
-32.71
-25.57
-20.91
-18.64
-17.81
-17.32
-16.34
-14.67
-12.49
-10.15
-7.91
-5.90
-4.23
-3.04
-2.43
-2.35
-2.59
-2.82
-2.85
-2.76
-2.97
-3.93
-5.84
-8.46
-11.06
-12.72
-12.68
-10.73
-7.26
-3.16
0.58
3.26
4.66
5.07
4.98
4.85
4.92
5.23
5.74
6.38
7.17
8.05
8.85
9.35
9.34
8.77
7.80
6.68
5.66
4.87
4.33
4.05
4.06
4.46
5.26
6.36
7.50
8.35
8.70
8.51
7.88
6.98
5.91
4.72
3.42
2.05
0.71
-0.48
-1.43
-2.16
-2.81
-3.58
-4.64
-6.04
-7.70
-9.37
-10.79
-11.72
-12.18
-12.42
-12.87
-13.89
-15.51
-17.23
-18.16
-17.39
-14.44
-9.57
-3.81
1.49
5.18
6.76
6.48
5.13
3.62
2.64
2.47
3.10
4.34
5.97
7.74
9.38
10.63
11.34
11.44
11.07
10.43
9.71
9.00
8.34
7.78
7.46
7.55
8.15
9.13
10.19
10.88
10.91
10.25
9.16
8.02
7.14
6.56
6.11
5.50
4.53
3.21
1.77
0.46
-0.53
-1.21
-1.71
-2.18
-2.69
-3.17
-3.53
-3.71
-3.78
-3.86
-4.11
-4.58
-5.22
-5.92
-6.54
-7.03
-7.41
-7.77
-8.24
-8.95
-9.94
-11.04
-11.86
-11.78
-10.23
-6.91
-2.06
3.55
8.85
12.85
15.01
15.38
14.47
12.96
11.44
10.27
9.60
9.47
9.80
10.49
11.33
12.10
12.55
12.56
12.12
11.37
10.51
9.67
8.92
8.27
7.71
7.25
6.90
6.68
6.56
6.50
6.45
6.34
6.11
5.71
5.04
4.09
2.90
1.61
0.40
-0.62
-1.40
-2.05
-2.75
-3.63
-4.74
-6.00
-7.27
-8.37
-9.19
-9.61
-9.61
-9.24
-8.76
-8.57
-9.08
-10.48
-12.48
-14.33
-15.05
-13.85
-10.59
-5.83
-0.67
3.73
6.62
7.87
7.83
7.09
6.18
5.41
4.93
4.79
4.98
5.46
6.08
6.65
7.03
7.15
7.05
6.81
6.48
6.01
5.41
4.70
4.06
3.70
3.74
4.15
4.68
5.01
4.89
4.29
3.38
2.43
1.68
1.19
0.84
0.42
-0.22
-1.12
-2.13
-3.01
-3.57
-3.73
-3.60
-3.43
-3.52
-4.10
-5.26
-6.87
-8.66
-10.26
-11.36
-11.82
-11.68
-11.17
-10.59
-10.29
-10.57
-11.61
-13.43
-15.73
-17.88
-19.00
-18.25
-15.24
-10.29
-4.42
1.05
4.99
6.90
7.01
6.06
4.83
3.82
3.18
2.79
2.54
2.44
2.59
3.10
3.93
4.93
5.85
6.50
6.74
6.59
6.16
5.63
5.22
5.10
5.35
5.88
6.53
7.07
7.36
7.40
7.25
7.00
6.63
6.09
5.32
4.34
3.27
2.22
1.26
0.34
-0.60
-1.57
-2.45
-3.05
-3.22
-3.01
-2.68
-2.60
-3.04
-4.05
-5.45
-6.92
-8.17
-9.02
-9.47
-9.57
-9.40
-9.10
-8.87
-9.03
-9.83
-11.33
-13.16
-14.53
-14.46
-12.22
-7.72
-1.67
4.69
10.08
13.58
14.97
14.61
13.20
11.43
9.84
8.78
8.36
8.57
9.25
10.12
10.88
11.32
11.34
10.98
10.35
9.49
8.44
7.23
5.98
4.88
4.11
3.75
3.71
3.82
3.87
3.74
3.42
2.92
2.26
1.44
0.47
-0.61
-1.73
-2.81
-3.85
-4.88
-5.97
-7.12
-8.30
-9.37
-10.20
-10.72
-10.93
-10.88
-10.71
-10.65
-10.94
-11.77
-13.10
-14.56
-15.45
-15.01
-12.71
-8.58
-3.29
2.09
6.46
9.13
9.96
9.37
8.01
6.57
5.51
5.10
5.37
6.21
7.38
8.60
9.59
10.15
10.25
10.00
9.55
9.03
8.51
7.99
7.52
7.22
7.21
7.58
8.19
8.79
9.04
8.72
7.80
6.49
5.13
4.00
3.23
2.77
2.47
2.11
1.56
0.76
-0.25
-1.35
-2.41
-3.28
-3.88
-4.22
-4.44
-4.78
-5.45
-6.56
-8.06
-9.75
-11.35
-12.65
-13.51
-13.90
-13.89
-13.61
-13.33
-13.37
-13.99
-15.27
-16.90
-18.17
-18.17
-16.23
-12.24
-6.85
-1.20
3.50
6.47
7.64
7.54
6.88
6.28
5.98
5.97
6.14
6.45
6.93
7.64
8.49
9.31
9.90
10.09
9.88
9.34
8.61
7.82
7.08
6.49
6.09
5.90
5.83
5.74
5.50
5.02
4.31
3.44
2.48
1.47
0.44
-0.56
-1.46
-2.20
-2.75
-3.17
-3.56
-4.04
-4.68
-5.46
-6.32
-7.14
-7.81
-8.29
-8.62
-8.89
-9.27
-9.89
-10.83
-12.03
-13.32
-14.50
-15.42
-16.01
-16.33
-16.53
-16.83
-17.43
-18.46
-19.83
-21.18
-21.86
-21.09
-18.33
-13.49
-7.13
-0.26
5.99
10.78
13.84
15.44
16.07
16.28
16.35
16.45
16.60
16.87
17.33
17.99
18.77
19.45
19.85
19.85
19.45
18.74
17.84
16.85
15.87
14.98
14.27
13.78
13.47
13.27
13.04
12.69
12.20
11.62
10.98
10.25
9.31
8.00
6.20
3.97
1.53
-0.75
-2.56
-3.73
-4.34
-4.71
-5.20
-6.10
-7.48
-9.17
-10.85
-12.21
-13.06
-13.40
-13.43
-13.46
-13.87
-14.90
-16.60
-18.66
-20.48
-21.29
-20.42
-17.60
-13.14
-7.89
-3.00
0.49
2.02
1.61
-0.19
-2.63
-4.99
-6.75
-7.65
-7.63
-6.74
-5.25
-3.50
-1.93
-0.85
-0.38
-0.33
-0.36
-0.15
0.44
1.38
2.50
3.66
4.81
5.92
6.90
7.62
7.96
7.93
7.68
7.50
7.53
7.76
7.93
7.74
6.99
5.72
4.14
2.46
0.83
-0.77
-2.41
-4.12
-5.92
-7.81
-9.82
-11.90
-13.89
-15.36
-15.69
-14.38
-11.33
-6.99
-2.33
1.59
4.03
4.87
4.54
3.78
3.23
3.18
3.62
4.31
5.05
5.74
6.38
7.00
7.61
8.20
8.71
9.08
9.24
9.10
8.65
7.97
7.27
6.78
6.67
6.90
7.23
7.32
6.93
6.01
4.74
3.41
2.27
1.36
0.53
-0.48
-1.86
-3.60
-5.47
-7.13
-8.26
-8.71
-8.56
-8.06
-7.50
-7.14
-7.21
-7.89
-9.27
-11.25
-13.41
-15.03
-15.26
-13.52
-9.78
-4.68
0.69
5.19
8.11
9.29
9.09
8.11
6.95
6.00
5.50
5.51
5.98
6.83
7.87
8.92
9.79
10.35
10.55
10.40
9.95
9.30
8.58
7.91
7.40
7.07
6.86
6.66
6.35
5.88
5.26
4.50
3.64
2.67
1.57
0.35
-0.95
-2.28
-3.61
-4.92
-6.26
-7.62
-8.93
-10.04
-10.80
-11.17
-11.27
-11.41
-11.89
-12.92
-14.40
-16.01
-17.32
-18.04
-18.13
-17.80
-17.44
-17.40
-17.89
-18.93
-20.24
-21.35
-21.59
-20.34
-17.21
-12.30
-6.19
0.13
5.63
9.60
11.80
12.53
12.33
11.78
11.31
11.19
11.58
12.52
13.93
15.59
17.22
18.51
19.26
19.45
19.11
18.30
17.06
15.39
13.36
11.18
9.14
7.55
6.59
6.24
6.34
6.62
6.88
6.96
6.86
6.59
6.24
5.88
5.50
5.03
4.33
3.33
2.05
0.62
-0.74
-1.82
-2.54
-2.94
-3.14
-3.32
-3.61
-4.15
-5.06
-6.47
-8.38
-10.53
-12.31
-12.86
-11.43
-7.69
-2.03
4.46
10.30
14.21
15.50
14.29
11.40
7.94
4.88
2.79
1.79
1.74
2.43
3.61
5.04
6.38
7.22
7.18
6.04
3.93
1.23
-1.50
-3.77
-5.25
-5.91
-5.89
-5.44
-4.85
-4.35
-4.11
-4.22
-4.66
-5.33
-6.09
-6.88
-7.66
-8.50
-9.46
-10.58
-11.84
-13.17
-14.49
-15.81
-17.15
-18.55
-19.97
-21.34
-22.59
-23.65
-24.44
-24.84
-24.64
-23.55
-21.39
-18.23
-14.36
-10.26
-6.27
-2.48
1.30
5.33
9.62
13.78
17.14
19.03
19.20
17.97
16.17
14.79
14.66
16.08
18.73
21.80
24.19
24.96
23.60
20.24
15.61
10.85
7.07
4.97
4.61
5.47
6.74
7.67
7.92
7.53
6.81
6.10
5.56
5.09
4.47
3.53
2.27
0.89
-0.38
-1.42
-2.30
-3.22
-4.40
-5.93
-7.70
-9.49
-11.06
-12.25
-12.93
-13.01
-12.34
-10.81
-8.44
-5.42
-2.13
1.02
3.66
5.68
7.06
7.88
8.24
8.17
7.74
7.06
6.29
5.57
4.99
4.52
4.08
3.61
3.09
2.51
1.84
1.04
0.04
-1.08
-2.13
-2.88
-3.15
-2.92
-2.41
-1.95
-1.78
-1.93
-2.20
-2.27
-1.88
-1.03
0.02
0.82
0.99
0.34
-1.03
-2.76
-4.43
-5.72
-6.51
-6.84
-6.86
-6.73
-6.57
-6.52
-6.74
-7.38
-8.52
-10.00
-11.39
-12.07
-11.46
-9.30
-5.84
-1.82
1.81
4.20
4.97
4.31
2.90
1.54
0.89
1.22
2.38
4.00
5.66
7.03
7.97
8.52
8.81
9.00
9.21
9.51
9.84
10.03
9.94
9.48
8.71
7.82
7.05
6.53
6.25
6.05
5.74
5.24
4.66
4.25
4.31
5.04
6.45
8.39
10.55
12.52
13.94
14.56
14.30
13.30
11.78
9.92
7.79
5.32
2.37
-1.10
-4.98
-9.01
-12.82
-16.00
-18.18
-19.06
-18.52
-16.62
-13.67
-10.20
-6.85
-4.13
-2.27
-1.19
-0.50
0.23
1.34
2.86
4.49
5.72
6.02
5.12
3.20
0.91
-0.95
-1.67
-1.04
0.63
2.68
4.43
5.47
5.75
5.51
5.06
4.66
4.38
4.20
4.01
3.67
3.00
1.88
0.24
-1.88
-4.30
-6.80
-9.14
-11.09
-12.45
-13.06
-12.92
-12.23
-11.49
-11.30
-12.12
-13.87
-15.83
-16.88
-15.91
-12.47
-7.02
-0.82
4.61
8.12
9.38
8.86
7.52
6.28
5.68
5.85
6.64
7.81
9.08
10.17
10.74
10.47
9.22
7.21
4.90
2.89
1.60
1.08
1.10
1.27
1.36
1.34
1.40
1.69
2.18
2.66
2.80
2.33
1.18
-0.48
-2.37
-4.17
-5.71
-6.93
-7.87
-8.57
-9.10
-9.49
-9.88
-10.50
-11.53
-12.95
-14.39
-15.17
-14.57
-12.17
-8.16
-3.31
1.27
4.59
6.21
6.27
5.36
4.18
3.25
2.79
2.78
3.06
3.49
3.97
4.43
4.81
5.05
5.09
4.88
4.40
3.70
2.90
2.19
1.80
1.95
2.79
4.30
6.34
8.63
10.84
12.66
13.80
14.12
13.62
12.43
10.84
9.21
7.86
7.00
6.64
6.57
6.41
5.64
3.83
0.75
-3.51
-8.59
-13.96
-19.08
-23.55
-27.24
-30.28
-32.96
-35.65
-38.48
-41.24
-43.24
-43.49
-41.02
-35.31
-26.68
-16.34
-6.06
2.40
7.93
10.45
10.79
10.31
10.25
11.26
13.27
15.62
17.54
18.48
18.31
17.30
15.92
14.55
13.39
12.38
11.31
9.97
8.21
6.09
3.83
1.74
0.07
-1.06
-1.68
-1.95
-1.96
-1.76
-1.25
-0.39
0.76
1.88
2.55
2.36
1.12
-1.03
-3.66
-6.22
-8.28
-9.71
-10.75
-11.96
-13.96
-17.12
-21.36
-26.06
-30.15
-32.46
-32.05
-28.51
-22.12
-13.80
-4.81
3.63
10.78
16.47
21.03
24.95
28.53
31.66
33.97
35.03
34.58
32.72
29.81
26.26
22.50
18.83
15.53
12.80
10.77
9.38
8.36
7.32
5.88
3.83
1.23
-1.71
-4.68
-7.32
-9.33
-10.48
-10.66
-9.92
-8.57
-7.09
-6.00
-5.70
-6.29
-7.55
-8.99
-10.07
-10.41
-9.91
-8.81
-7.53
-6.55
-6.25
-6.78
-7.97
-9.44
-10.59
-10.83
-9.77
-7.30
-3.67
0.63
5.02
9.05
12.47
15.29
17.65
19.74
21.69
23.54
25.21
26.57
27.40
27.51
26.75
25.09
22.64
19.58
16.10
12.29
8.21
3.97
-0.18
-3.83
-6.50
-7.95
-8.20
-7.59
-6.61
-5.65
-4.95
-4.54
-4.39
-4.53
-5.04
-5.99
-7.33
-8.87
-10.36
-11.57
-12.38
-12.86
-13.19
-13.60
-14.28
-15.29
-16.54
-17.78
-18.66
-18.72
-17.61
-15.13
-11.36
-6.70
-1.80
2.68
6.20
8.53
9.74
10.08
9.93
9.59
9.29
9.17
9.30
9.71
10.42
11.41
12.63
13.99
15.31
16.28
16.55
15.83
14.08
11.53
8.70
6.11
4.13
2.82
2.02
1.51
1.17
0.98
0.97
1.08
1.11
0.90
0.37
-0.33
-1.00
-1.48
-1.87
-2.49
-3.74
-5.87
-8.81
-12.14
-15.27
-17.64
-18.94
-19.16
-18.57
-17.60
-16.73
-16.34
-16.62
-17.51
-18.65
-19.49
-19.45
-18.09
-15.33
-11.42
-6.87
-2.28
1.83
5.11
7.36
8.53
8.72
8.17
7.23
6.27
5.57
5.19
5.02
4.90
4.74
4.64
4.77
5.25
6.04
6.86
7.43
7.57
7.34
6.98
6.72
6.62
6.44
5.79
4.36
2.13
-0.47
-2.76
-4.04
-3.99
-2.91
-1.53
-0.77
-1.25
-3.04
-5.64
-8.29
-10.33
-11.48
-11.94
-12.16
-12.59
-13.47
-14.72
-16.05
-17.13
-17.71
-17.73
-17.24
-16.46
-15.61
-14.93
-14.58
-14.63
-14.96
-15.25
-14.95
-13.50
-10.52
-6.07
-0.68
4.76
9.32
12.42
13.97
14.34
14.12
13.81
13.68
13.76
13.96
14.17
14.34
14.41
14.37
14.16
13.81
13.35
12.86
12.37
11.84
11.15
10.20
9.03
7.78
6.70
6.02
5.80
5.95
6.23
6.36
6.17
5.55
4.50
3.07
1.33
-0.61
-2.57
-4.31
-5.58
-6.24
-6.27
-5.88
-5.37
-5.08
-5.17
-5.61
-6.18
-6.60
-6.66
-6.37
-5.97
-5.80
-6.14
-7.06
-8.32
-9.42
-9.79
-8.98
-6.88
-3.75
-0.16
3.18
5.68
7.01
7.19
6.52
5.42
4.34
3.62
3.44
3.79
4.50
5.28
5.84
5.93
5.51
4.67
3.66
2.69
1.94
1.54
1.49
1.78
2.32
2.99
3.61
4.03
4.14
3.98
3.63
3.21
2.76
2.23
1.52
0.55
-0.67
-2.01
-3.24
-4.17
-4.65
-4.69
-4.43
-4.10
-3.99
-4.29
-5.07
-6.17
-7.25
-7.85
-7.54
-6.14
-3.75
-0.85
1.87
3.77
4.44
3.84
2.32
0.44
-1.25
-2.33
-2.65
-2.30
-1.52
-0.57
0.37
1.29
2.30
3.55
5.04
6.53
7.57
7.67
6.64
4.75
2.70
1.32
1.18
2.33
4.28
6.32
7.87
8.70
8.97
8.98
8.91
8.74
8.24
7.24
5.70
3.84
1.98
0.43
-0.64
-1.28
-1.75
-2.47
-3.87
-6.27
-9.71
-13.81
-17.79
-20.71
-21.70
-20.40
-17.04
-12.43
-7.62
-3.52
-0.60
1.14
2.06
2.60
3.11
3.72
4.46
5.26
6.05
6.80
7.45
7.93
8.22
8.31
8.25
8.05
7.66
6.95
5.84
4.38
2.82
1.59
1.06
1.37
2.31
3.41
4.22
4.48
4.21
3.67
3.06
2.42
1.62
0.53
-0.82
-2.18
-3.18
-3.56
-3.32
-2.76
-2.36
-2.50
-3.36
-4.80
-6.52
-8.13
-9.36
-10.10
-10.48
-10.80
-11.41
-12.49
-13.95
-15.36
-16.08
-15.50
-13.33
-9.81
-5.55
-1.38
2.09
4.56
6.16
7.21
8.01
8.71
9.38
10.05
10.81
11.80
13.10
14.59
16.00
16.95
17.12
16.34
14.66
12.31
9.62
6.95
4.61
2.80
1.60
0.91
0.50
0.11
-0.52
-1.47
-2.73
-4.13
-5.50
-6.67
-7.51
-8.00
-8.19
-8.22
-8.16
-8.10
-8.02
-7.87
-7.63
-7.34
-7.09
-7.00
-7.11
-7.37
-7.66
-7.84
-7.88
-7.83
-7.83
-8.05
-8.65
-9.69
-11.07
-12.50
-13.49
-13.44
-11.86
-8.61
-4.08
0.96
5.50
8.73
10.27
10.24
9.13
7.54
6.00
4.80
4.07
3.76
3.75
3.90
4.11
4.32
4.54
4.75
4.88
4.81
4.40
3.68
2.84
2.20
2.10
2.70
3.90
5.35
6.62
7.39
7.54
7.20
6.60
5.98
5.46
5.05
4.68
4.29
3.84
3.34
2.82
2.31
1.79
1.27
0.70
0.05
-0.69
-1.55
-2.53
-3.58
-4.64
-5.63
-6.48
-7.17
-7.68
-8.00
-8.09
-8.02
-7.94
-8.12
-8.89
-10.35
-12.28
-14.00
-14.60
-13.26
-9.68
-4.29
1.84
7.42
11.39
13.34
13.52
12.64
11.48
10.58
10.13
10.02
10.05
10.02
9.81
9.38
8.76
8.02
7.22
6.43
5.68
4.95
4.27
3.68
3.29
3.14
3.22
3.40
3.53
3.50
3.28
2.97
2.65
2.34
1.97
1.45
0.74
-0.12
-1.03
-1.90
-2.69
-3.44
-4.20
-5.03
-5.94
-6.88
-7.78
-8.59
-9.23
-9.70
-10.05
-10.45
-11.11
-12.17
-13.55
-14.88
-15.60
-15.11
-13.13
-9.76
-5.56
-1.29
2.33
4.85
6.15
6.44
6.06
5.46
5.00
5.00
5.55
6.57
7.79
8.90
9.61
9.86
9.71
9.33
8.90
8.48
8.07
7.65
7.26
6.95
6.80
6.78
6.77
6.57
5.99
4.97
3.57
1.99
0.49
-0.74
-1.62
-2.15
-2.43
-2.58
-2.66
-2.75
-2.86
-3.06
-3.36
-3.75
-4.15
-4.40
-4.42
-4.22
-3.99
-3.99
-4.47
-5.50
-6.95
-8.56
-10.01
-11.09
-11.72
-11.96
-12.03
-12.17
-12.66
-13.63
-15.01
-16.35
-16.95
-16.06
-13.21
-8.54
-2.81
2.85
7.37
10.15
11.17
10.89
9.92
8.76
7.71
6.90
6.39
6.20
6.31
6.55
6.69
6.55
6.06
5.27
4.35
3.42
2.56
1.84
1.30
1.01
0.93
0.89
0.64
-0.08
-1.33
-2.98
-4.76
-6.46
-8.09
-9.88
-12.13
-14.99
-18.34
-21.82
-24.95
-27.43
-29.31
-31.02
-33.20
-36.47
-41.15
-47.07
-53.70
-60.30
-66.38
-71.89
-77.34
-83.54
-91.22
-100.67
-111.56
-123.08
-134.42
-145.06
-155.11
-165.13
-176.00
-188.54
-203.36
-220.71
-240.24
-260.70
-279.70
-293.98
-300.03
-295.25
-278.85
-252.12
-217.94
-179.60
-139.63
-99.23
-58.56
-17.60
22.98
61.49
95.58
123.22
143.48
156.92
165.20
170.23
173.34
174.87
174.37
171.28
165.63
158.23
150.45
143.58
138.18
133.95
129.99
125.60
120.54
115.21
110.33
106.48
103.72
101.35
98.03
92.17
82.80
69.90
54.71
39.43
26.52
17.94
14.48
15.66
20.16
26.78
34.36
41.83
48.17
52.73
55.65
58.19
62.55
71.13
86.63
109.69
138.27
168.31
195.39
216.38
230.27
237.94
241.50
245.36
252.56
263.59
276.44
288.03
295.76
298.47
296.32
290.65
286.52
287.66
294.87
305.83
316.86
324.67
327.85
326.75
323.39
324.83
336.34
358.99
388.89
419.02
441.26
448.76
436.66
374.06
248.64
71.62
-124.79
-305.38
-448.54
-550.54
-619.22
-669.53
-710.45
-740.41
-755.25
-752.33
-733.27
-697.76
-649.43
-593.19
-534.26
-476.39
-418.40
-358.45
-295.82
-232.25
-171.15
-116.69
-71.75
-37.43
-12.70
6.41
23.30
39.60
55.02
68.77
80.65
92.04
105.16
121.88
143.30
168.30
194.31
218.64
239.74
257.25
271.21
280.88
284.38
279.63
265.55
243.48
216.92
189.87
165.10
142.72
120.55
95.68
65.81
30.75
-7.03
-43.29
-73.76
-94.93
-105.57
-106.82
-101.86
-95.43
-92.03
-93.83
-100.06
-107.83
-112.99
-113.30
-109.84
-107.14
-109.94
-123.47
-150.11
-186.73
-230.55
-275.10
-315.10
-348.39
-369.50
-377.19
-372.61
-357.57
-333.66
-302.14
-263.43
-218.55
-169.24
-117.66
-66.56
-17.67
29.28
75.89
123.39
171.82
218.83
260.92
295.43
321.51
341.19
358.33
376.17
395.20
412.99
425.05
427.24
417.76
397.34
368.89
335.99
301.69
268.10
237.12
210.83
191.29
179.49
173.96
170.70
164.28
149.95
125.54
92.24
53.58
13.53
-24.98
-60.54
-92.42
-119.66
-140.85
-154.85
-161.50
-161.92
-157.81
-150.50
-140.45
-127.70
-112.68
-96.74
-81.75
-69.15
-59.28
-51.68
-46.31
-44.57
-49.51
-64.32
-90.24
-125.25
-164.36
-201.16
-230.07
-248.00
-254.87
-252.98
-245.67
-236.09
-226.48
-217.99
-210.99
-205.41
-200.90
-196.91
-192.58
-186.99
-179.54
-170.50
-161.11
-153.31
-148.87
-148.70
-152.30
-157.81
-162.73
-164.76
-162.61
-155.86
-144.73
-129.48
-109.93
-85.30
-54.23
-15.19
32.75
88.94
150.32
211.30
264.81
304.11
324.78
325.86
309.70
280.72
243.87
203.71
164.12
128.62
100.28
81.28
71.90
70.06
71.69
72.23
68.43
59.48
46.86
33.27
21.09
11.41
3.88
-2.66
-9.37
-16.78
-24.67
-32.27
-38.63
-42.95
-44.83
-44.32
-41.85
-38.16
-34.10
-30.39
-27.43
-25.32
-23.86
-22.77
-21.64
-20.04
-17.54
-13.80
-8.81
-2.96
2.93
7.88
11.11
12.28
11.57
9.58
6.98
4.29
1.81
-0.33
-2.07
-3.32
-3.93
-3.85
-3.10
-1.86
-0.38
1.06
2.22
2.92
3.11
2.88
2.38
1.82
1.33
0.84
0.18
-0.88
-2.47
-4.63
-7.15
-9.72
-11.98
-13.58
-14.29
-14.04
-12.98
-11.43
-9.81
-8.39
-7.30
-6.46
-5.72
-5.12
-4.88
-5.35
-6.80
-9.21
-12.22
-15.27
-17.74
-19.12
-19.06
-17.35
-13.94
-9.07
-3.33
2.36
6.98
9.81
10.67
10.04
8.76
7.67
7.28
7.64
8.50
9.50
10.39
11.06
11.46
11.52
11.12
10.17
8.77
7.23
5.97
5.33
5.39
6.00
6.74
7.24
7.29
6.92
6.32
5.70
5.14
4.49
3.58
2.25
0.50
-1.53
-3.66
-5.75
-7.70
-9.46
-10.92
-12.00
-12.63
-12.91
-13.07
-13.44
-14.29
-15.69
-17.52
-19.47
-21.16
-22.19
-22.26
-21.13
-18.75
-15.33
-11.39
-7.69
-4.92
-3.53
-3.46
-4.23
-5.15
-5.64
-5.43
-4.61
-3.48
-2.33
-1.33
-0.49
0.21
0.72
0.92
0.67
-0.07
-1.12
-2.09
-2.60
-2.39
-1.52
-0.34
0.73
1.38
1.60
1.61
1.75
2.25
3.16
4.31
5.44
6.38
7.05
7.48
7.68
7.52
6.80
5.35
3.15
0.44
-2.36
-4.79
-6.50
-7.42
-7.73
-7.80
-8.10
-9.03
-10.77
-13.10
-15.39
-16.61
-15.72
-12.06
-5.69
2.53
11.21
18.84
24.28
27.04
27.29
25.66
23.09
20.55
18.82
18.33
19.07
20.54
21.99
22.66
22.12
20.39
17.88
15.13
12.60
10.51
8.81
7.34
5.98
4.74
3.75
3.16
3.02
3.20
3.44
3.48
3.15
2.40
1.29
-0.08
-1.69
-3.59
-5.83
-8.35
-10.90
-13.05
-14.28
-14.27
-12.98
-10.83
-8.52
-6.82
-6.24
-6.86
-8.26
-9.77
-10.73
-10.78
-10.00
-8.75
-7.55
-6.82
-6.77
-7.36
-8.33
-9.29
-9.75
-9.30
-7.70
-5.01
-1.66
1.67
4.28
5.69
5.78
4.83
3.35
1.87
0.77
0.19
0.12
0.44
1.04
1.79
2.60
3.39
4.13
4.78
5.35
5.82
6.20
6.52
6.82
7.22
7.74
8.36
8.89
9.04
8.50
7.05
4.61
1.28
-2.74
-7.13
-11.51
-15.41
-18.34
-19.90
-19.95
-18.79
-17.13
-15.91
-16.02
-17.90
-21.49
-26.25
-31.46
-36.63
-41.59
-46.57
-51.92
-57.81
-64.14
-70.48
-76.42
-81.81
-87.00
-92.79
-100.16
-109.92
-122.36
-137.06
-152.95
-168.58
-182.53
-193.75
-201.82
-206.94
-209.80
-211.26
-212.11
-212.71
-212.84
-211.52
-207.21
-198.22
-183.22
-161.71
-134.16
-101.75
-65.86
-27.57
12.51
53.87
95.73
136.56
174.26
206.66
232.25
250.62
262.36
268.66
270.74
269.51
265.44
258.66
249.20
237.21
223.17
208.07
193.33
180.48
170.65
164.02
159.65
155.86
150.89
143.69
134.23
123.35
112.15
101.53
91.95
83.58
76.58
71.23
67.84
66.48
66.83
68.18
69.67
70.58
70.55
69.57
67.96
66.16
64.60
63.56
63.12
63.15
63.43
63.79
64.16
64.55
64.97
65.15
64.60
62.70
59.13
54.11
48.48
43.36
39.58
37.21
35.51
33.26
29.42
23.72
16.85
10.11
4.84
1.74
0.57
0.26
-0.42
-2.33
-5.60
-9.71
-13.94
-17.83
-21.39
-24.96
-28.82
-32.97
-37.04
-40.56
-43.26
-45.17
-46.54
-47.63
-48.58
-49.47
-50.31
-51.16
-51.91
-52.30
-51.93
-50.51
-48.21
-45.70
-43.92
-43.69
-45.18
-47.97
-51.20
-54.15
-56.47
-58.28
-59.84
-61.18
-62.01
-61.75
-59.87
-56.21
-51.14
-45.38
-39.71
-34.65
-30.29
-26.34
-22.48
-18.52
-14.69
-11.44
-9.31
-8.58
-9.16
-10.57
-12.18
-13.47
-14.17
-14.39
-14.45
-14.71
-15.35
-16.35
-17.50
-18.54
-19.37
-20.02
-20.72
-21.67
-22.98
-24.60
-26.33
-27.89
-28.93
-29.13
-28.22
-26.06
-22.79
-18.84
-14.81
-11.35
-8.92
-7.60
-7.14
-7.07
-6.95
-6.47
-5.57
-4.32
-2.88
-1.39
-0.03
1.05
1.72
1.87
1.56
0.95
0.34
0.00
0.11
0.67
1.56
2.58
3.52
4.22
4.59
4.63
4.36
3.87
3.26
2.61
1.97
1.34
0.73
0.14
-0.34
-0.65
-0.74
-0.67
-0.55
-0.42
-0.29
-0.07
0.32
0.91
1.56
2.07
2.23
1.94
1.31
0.52
-0.14
-0.47
-0.36
0.06
0.57
0.83
0.50
-0.67
-2.76
-5.49
-8.28
-10.27
-10.62
-8.77
-4.79
0.59
6.15
10.58
12.94
12.96
11.08
8.18
5.26
3.07
2.01
2.02
2.76
3.76
4.55
4.86
4.58
3.87
2.95
2.01
1.19
0.51
-0.02
-0.38
-0.52
-0.41
-0.11
0.26
0.54
0.68
0.71
0.70
0.67
0.44
-0.28
-1.74
-3.97
-6.55
-8.73
-9.67
-8.87
-6.45
-3.12
0.05
2.12
2.66
1.74
-0.22
-2.81
-5.79
-9.08
-12.52
-15.67
-17.85
-18.40
-17.00
-13.93
-9.97
-6.14
-3.26
-1.72
-1.35
-1.68
-2.14
-2.37
-2.30
-2.07
-1.89
-1.82
-1.74
-1.40
-0.58
0.81
2.60
4.45
5.97
6.82
6.90
6.33
5.46
4.62
4.13
4.09
4.38
4.73
4.85
4.56
3.86
2.91
1.87
0.86
-0.11
-1.05
-1.87
-2.40
-2.41
-1.81
-0.76
0.23
0.53
-0.37
-2.67
-6.04
-9.76
-12.88
-14.53
-14.21
-11.91
-8.18
-3.87
0.05
2.86
4.25
4.36
3.63
2.57
1.56
0.79
0.29
0.05
0.07
0.36
0.89
1.55
2.16
2.55
2.65
2.59
2.62
3.04
4.07
5.72
7.76
9.70
11.02
11.34
10.57
8.96
6.97
5.08
3.60
2.56
1.79
1.00
0.02
-1.23
-2.66
-4.09
-5.34
-6.22
-6.60
-6.46
-5.95
-5.39
-5.18
-5.72
-7.20
-9.48
-12.10
-14.35
-15.51
-15.12
-13.14
-10.04
-6.57
-3.49
-1.32
-0.16
0.23
0.28
0.39
0.83
1.66
2.85
4.26
5.70
6.95
7.79
8.06
7.77
7.05
6.17
5.44
5.08
5.20
5.73
6.49
7.21
7.65
7.63
7.09
6.17
5.07
4.05
3.33
2.98
2.94
3.08
3.20
3.15
2.81
2.18
1.35
0.49
-0.20
-0.60
-0.70
-0.62
-0.60
-0.81
-1.34
-2.09
-2.81
-3.29
-3.45
-3.46
-3.66
-4.46
-6.13
-8.65
-11.65
-14.40
-16.07
-15.95
-13.73
-9.73
-4.72
0.19
4.03
6.18
6.61
5.74
4.23
2.73
1.70
1.37
1.78
2.80
4.17
5.50
6.43
6.70
6.30
5.47
4.55
3.87
3.54
3.47
3.44
3.30
3.05
2.86
2.89
3.23
3.78
4.33
4.69
4.80
4.71
4.56
4.44
4.32
4.07
3.51
2.55
1.24
-0.19
-1.50
-2.50
-3.10
-3.37
-3.47
-3.56
-3.79
-4.25
-5.05
-6.23
-7.80
-9.62
-11.43
-12.84
-13.48
-13.12
-11.75
-9.64
-7.15
-4.70
-2.57
-0.90
0.30
1.07
1.48
1.61
1.60
1.66
2.01
2.74
3.80
4.96
5.92
6.46
6.54
6.26
5.83
5.40
5.08
4.92
4.95
5.16
5.52
5.85
5.92
5.52
4.59
3.29
1.94
0.89
0.33
0.18
0.23
0.20
-0.05
-0.52
-1.04
-1.42
-1.59
-1.59
-1.64
-2.02
-3.00
-4.65
-6.81
-9.02
-10.69
-11.28
-10.52
-8.50
-5.69
-2.71
-0.18
1.51
2.26
2.20
1.62
0.85
0.25
0.10
0.56
1.65
3.16
4.75
6.04
6.76
6.81
6.29
5.38
4.35
3.37
2.57
2.04
1.84
1.98
2.41
3.00
3.51
3.71
3.46
2.77
1.85
0.94
0.30
0.04
0.09
0.29
0.40
0.27
-0.18
-0.91
-1.78
-2.65
-3.40
-3.98
-4.36
-4.55
-4.64
-4.74
-5.06
-5.82
-7.11
-8.80
-10.55
-11.78
-11.98
-10.86
-8.50
-5.38
-2.18
0.41
1.97
2.42
2.04
1.30
0.68
0.53
0.97
1.90
3.08
4.25
5.22
5.85
6.14
6.17
6.06
5.94
5.91
6.02
6.20
6.37
6.48
6.51
6.52
6.56
6.67
6.83
6.94
6.94
6.78
6.44
5.97
5.39
4.70
3.93
3.07
2.19
1.39
0.79
0.50
0.53
0.81
1.14
1.31
1.14
0.60
-0.25
-1.24
-2.23
-3.14
-3.93
-4.63
-5.25
-5.81
-6.31
-6.80
-7.31
-7.89
-8.50
-9.05
-9.49
-9.88
-10.44
-11.43
-12.91
-14.61
-15.84
-15.82
-14.02
-10.51
-5.99
-1.54
1.86
3.72
4.16
3.76
3.16
2.80
2.79
3.00
3.29
3.59
3.92
4.35
4.86
5.38
5.80
6.06
6.19
6.27
6.38
6.58
6.83
7.11
7.35
7.50
7.52
7.37
7.03
6.55
6.00
5.52
5.17
5.00
4.91
4.76
4.39
3.72
2.83
1.89
1.15
0.76
0.74
0.93
1.09
1.03
0.69
0.16
-0.39
-0.80
-1.06
-1.25
-1.54
-2.06
-2.82
-3.75
-4.75
-5.68
-6.48
-7.13
-7.60
-7.94
-8.25
-8.71
-9.55
-10.91
-12.73
-14.63
-15.96
-16.02
-14.34
-10.94
-6.41
-1.67
2.35
5.05
6.35
6.55
6.11
5.46
4.83
4.34
4.04
4.02
4.34
4.97
5.77
6.52
7.00
7.09
6.81
6.29
5.68
5.15
4.85
4.88
5.26
5.88
6.51
6.88
6.80
6.25
5.37
4.48
3.79
3.41
3.24
3.07
2.68
1.98
1.07
0.16
-0.50
-0.79
-0.74
-0.55
-0.48
-0.74
-1.42
-2.42
-3.55
-4.58
-5.38
-5.92
-6.27
-6.59
-7.08
-7.91
-9.15
-10.75
-12.43
-13.74
-14.17
-13.31
-11.05
-7.68
-3.83
-0.25
2.46
4.02
4.51
4.26
3.67
3.08
2.72
2.70
3.02
3.64
4.41
5.16
5.74
6.08
6.19
6.15
6.05
5.93
5.82
5.76
5.81
6.04
6.44
6.85
7.05
6.77
5.88
4.44
2.73
1.13
0.03
-0.31
0.15
1.18
2.34
3.13
3.10
2.06
0.14
-2.28
-4.69
-6.63
-7.89
-8.49
-8.66
-8.79
-9.24
-10.24
-11.77
-13.55
-15.06
-15.66
-14.91
-12.67
-9.28
-5.39
-1.81
0.85
2.28
2.62
2.29
1.80
1.61
1.98
2.99
4.50
6.24
7.88
9.11
9.75
9.77
9.33
8.70
8.16
7.88
7.91
8.16
8.45
8.59
8.47
8.02
7.28
6.34
5.31
4.34
3.50
2.84
2.36
1.98
1.63
1.22
0.66
-0.04
-0.84
-1.60
-2.21
-2.57
-2.69
-2.72
-2.85
-3.22
-3.85
-4.65
-5.42
-6.01
-6.38
-6.60
-6.86
-7.42
-8.47
-10.09
-12.16
-14.37
-16.20
-17.05
-16.46
-14.23
-10.61
-6.21
-1.86
1.70
4.06
5.20
5.39
5.13
4.85
4.86
5.28
6.08
7.14
8.27
9.28
10.00
10.35
10.32
10.00
9.54
9.06
8.66
8.35
8.14
7.95
7.74
7.45
7.04
6.50
5.85
5.15
4.46
3.84
3.34
2.96
2.68
2.47
2.31
2.17
2.03
1.86
1.62
1.27
0.75
0.06
-0.75
-1.58
-2.31
-2.84
-3.15
-3.30
-3.43
-3.69
-4.20
-4.97
-5.94
-6.99
-8.02
-8.90
-9.54
-9.90
-10.07
-10.31
-10.95
-12.25
-14.11
-16.00
-17.08
-16.50
-13.89
-9.62
-4.68
-0.29
2.66
3.88
3.76
2.95
2.03
1.32
0.89
0.75
1.04
1.95
3.58
5.79
8.13
10.07
11.18
11.33
10.72
9.69
8.63
7.76
7.20
6.91
6.81
6.76
6.61
6.24
5.63
4.84
3.99
3.23
2.64
2.23
1.94
1.70
1.44
1.13
0.76
0.34
-0.08
-0.43
-0.61
-0.58
-0.34
-0.01
0.24
0.23
-0.13
-0.87
-1.90
-3.11
-4.32
-5.38
-6.14
-6.52
-6.57
-6.44
-6.41
-6.74
-7.59
-8.94
-10.52
-11.90
-12.55
-12.07
-10.27
-7.36
-3.81
-0.31
2.53
4.33
5.07
5.03
4.66
4.36
4.44
4.95
5.80
6.78
7.60
8.06
8.01
7.54
6.84
6.20
5.82
5.75
5.82
5.77
5.42
4.74
3.93
3.22
2.79
2.64
2.60
2.45
2.03
1.38
0.64
-0.02
-0.55
-1.05
-1.72
-2.74
-4.13
-5.70
-7.12
-8.10
-8.47
-8.27
-7.77
-7.34
-7.29
-7.82
-8.90
-10.32
-11.69
-12.59
-12.63
-11.63
-9.62
-6.90
-3.93
-1.17
0.99
2.43
3.17
3.41
3.41
3.37
3.47
3.83
4.49
5.40
6.40
7.27
7.82
8.01
7.89
7.63
7.32
6.95
6.46
5.83
5.12
4.49
4.09
3.93
3.85
3.57
2.92
1.93
0.81
-0.16
-0.79
-1.08
-1.17
-1.18
-1.20
-1.22
-1.26
-1.34
-1.54
-1.92
-2.41
-2.85
-3.02
-2.78
-2.12
-1.27
-0.53
-0.24
-0.66
-1.90
-3.89
-6.34
-8.74
-10.49
-11.04
-10.07
-7.70
-4.43
-1.03
1.76
3.46
4.02
3.74
3.10
2.56
2.37
2.63
3.24
4.04
4.90
5.69
6.35
6.80
6.96
6.77
6.20
5.31
4.26
3.28
2.63
2.44
2.75
3.44
4.31
5.11
5.60
5.61
5.06
4.05
2.83
1.80
1.35
1.68
2.70
3.99
4.98
5.21
4.50
3.08
1.44
0.12
-0.48
-0.36
0.18
0.57
0.24
-1.13
-3.47
-6.32
-9.00
-10.87
-11.61
-11.32
-10.52
-10.00
-10.64
-13.18
-18.00
-24.80
-32.50
-39.27
-42.97
-41.83
-35.17
-23.81
-9.81
4.27
16.29
25.23
31.28
35.38
38.52
41.21
43.35
44.44
43.98
41.70
37.58
31.73
24.31
15.50
5.67
-4.49
-13.99
-21.68
-26.66
-28.59
-27.79
-25.12
-21.64
-18.25
-15.48
-13.43
-11.95
-10.75
-9.55
-8.19
-6.56
-4.67
-2.65
-0.72
0.87
1.91
2.34
2.24
1.86
1.49
1.37
1.62
2.16
2.79
3.21
3.23
2.77
1.97
1.04
0.22
-0.38
-0.83
-1.36
-2.30
-4.00
-6.70
-10.41
-14.86
-19.55
-23.83
-27.20
-29.56
-31.23
-32.76
-34.55
-36.48
-37.82
-37.55
-34.86
-29.64
-22.61
-15.14
-8.74
-4.67
-3.57
-5.47
-9.89
-16.10
-23.24
-30.35
-36.41
-40.44
-41.71
-39.99
-35.64
-29.60
-23.07
-17.23
-12.97
-10.71
-10.53
-12.40
-16.29
-22.34
-30.57
-40.67
-51.83
-62.79
-72.34
-79.89
-85.84
-91.46
-98.12
-106.43
-115.75
-124.62
-131.99
-138.27
-145.48
-155.97
-170.48
-186.68
-199.34
-202.24
-190.67
-163.25
-122.15
-71.88
-17.78
35.04
81.87
118.54
141.69
149.87
144.34
129.43
111.35
96.15
87.54
85.86
88.64
92.63
95.86
98.82
103.92
113.76
129.14
148.14
166.70
180.57
187.11
186.37
180.55
172.53
164.59
158.11
154.24
154.48
160.03
170.16
180.61
183.76
171.45
139.02
88.38
28.25
-29.22
-73.38
-99.20
-108.13
-105.96
-99.10
-91.71
-85.16
-79.46
-75.02
-73.24
-75.45
-81.35
-88.26
-92.08
-89.10
-78.20
-61.36
-42.68
-26.38
-14.76
-7.42
-1.89
4.73
14.31
26.85
40.82
54.06
64.82
72.44
77.51
81.67
87.13
95.93
109.05
125.94
144.36
161.01
172.66
177.31
174.76
166.38
154.33
140.52
126.12
111.53
96.89
82.45
68.81
56.56
46.00
36.91
28.74
21.09
13.96
7.90
3.69
1.90
2.56
5.13
8.71
12.37
15.26
16.88
17.11
16.43
15.98
17.52
23.02
33.86
50.10
69.88
89.62
105.07
112.83
111.70
103.04
90.02
75.99
62.99
51.12
39.08
25.42
9.72
-7.14
-23.47
-37.64
-48.79
-56.88
-62.47
-66.23
-68.92
-71.44
-74.67
-79.34
-85.74
-93.51
-101.54
-108.05
-110.87
-108.04
-98.57
-83.04
-63.79
-44.26
-27.72
-16.00
-9.03
-5.53
-4.47
-6.34
-13.09
-26.73
-47.42
-72.29
-95.98
-112.77
-119.03
-114.42
-101.54
-84.40
-67.18
-53.49
-46.51
-49.03
-62.89
-87.93
-121.14
-157.00
-189.00
-211.80
-222.64
-221.69
-211.08
-193.86
-173.09
-151.96
-133.78
-121.49
-116.95
-119.78
-127.14
-134.51
-137.17
-131.76
-117.29
-95.16
-68.34
-39.83
-11.37
17.38
48.62
85.44
130.19
182.98
240.99
299.03
351.24
393.03
422.44
440.27
448.86
450.45
445.91
434.60
415.42
388.10
353.98
315.76
276.37
237.80
200.40
163.24
125.00
84.87
43.09
0.90
-39.99
-77.99
-112.15
-142.26
-168.70
-191.88
-211.81
-227.80
-238.61
-243.01
-240.47
-231.65
-218.53
-203.77
-189.90
-178.45
-169.53
-162.01
-154.17
-144.47
-132.21
-117.69
-102.10
-86.90
-73.29
-61.83
-52.52
-45.00
-38.92
-34.01
-30.07
-26.76
-23.54
-19.88
-15.46
-10.43
-5.39
-1.10
1.87
3.47
4.05
4.26
4.60
5.19
5.79
5.90
5.11
3.23
0.46
-2.78
-5.93
-8.63
-10.82
-12.73
-14.65
-16.66
-18.43
-19.36
-18.85
-16.70
-13.25
-9.36
-6.02
-4.05
-3.87
-5.38
-8.05
-11.12
-13.78
-15.46
-15.98
-15.60
-14.88
-14.41
-14.43
-14.77
-14.90
-14.38
-13.13
-11.54
-10.20
-9.56
-9.56
-9.69
-9.25
-7.82
-5.51
-2.94
-0.99
-0.43
-1.61
-4.35
-8.03
-11.89
-15.22
-17.62
-19.06
-19.83
-20.42
-21.19
-22.25
-23.38
-24.20
-24.39
-23.88
-22.94
-22.02
-21.58
-21.81
-22.60
-23.48
-23.84
-23.11
-20.98
-17.55
-13.33
-9.09
-5.56
-3.16
-1.87
-1.35
-1.11
-0.83
-0.34
0.44
1.60
3.27
5.52
8.19
10.83
12.88
13.88
13.74
12.79
11.56
10.54
9.95
9.72
9.68
9.77
10.06
10.67
11.58
12.55
13.24
13.37
12.89
11.92
10.74
9.46
8.09
6.47
4.48
2.22
0.04
-1.53
-2.00
-1.10
0.96
3.59
5.97
7.30
7.12
5.45
2.75
-0.21
-2.68
-4.19
-4.67
-4.44
-4.03
-4.01
-4.70
-6.16
-8.03
-9.70
-10.52
-9.97
-7.89
-4.57
-0.66
3.03
5.76
7.10
7.05
5.99
4.48
3.12
2.40
2.60
3.72
5.44
7.16
8.11
7.59
5.24
1.26
-3.56
-8.06
-11.00
-11.55
-9.47
-5.19
0.25
5.55
9.32
10.42
8.23
2.82
-4.89
-13.26
-20.24
-23.99
-23.38
-18.44
-10.30
-0.94
7.44
12.97
14.46
11.68
5.18
-3.87
-13.99
-23.66
-31.59
-36.90
-39.18
-38.47
-35.16
-29.90
-23.60
-17.49
-12.96
-11.37
-13.58
-19.51
-27.90
-36.57
-43.06
-45.52
-43.41
-37.67
-30.28
-23.46
-18.98
-17.57
-18.75
-20.90
-21.52
-17.98
-8.47
7.01
26.27
45.43
60.46
68.93
71.23
70.36
70.51
74.96
84.53
97.32
109.78
118.34
120.73
116.32
105.69
89.81
69.58
45.70
19.07
-8.85
-35.96
-59.86
-78.46
-90.51
-95.89
-95.58
-91.32
-85.29
-79.63
-75.96
-74.99
-76.39
-78.94
-81.10
-81.66
-80.29
-77.59
-74.82
-73.17
-73.21
-74.55
-75.92
-75.51
-71.47
-62.38
-47.57
-27.45
-3.54
21.68
45.21
64.20
76.62
81.86
80.97
76.40
71.24
68.19
68.71
72.59
78.22
83.37
86.17
85.80
82.65
77.96
73.02
68.53
64.29
59.42
52.86
43.92
32.55
19.35
5.40
-8.06
-19.83
-28.97
-34.79
-36.86
-34.94
-29.05
-19.55
-7.13
7.15
22.00
36.13
48.53
58.63
66.35
71.89
75.43
76.81
75.57
71.12
63.21
52.27
39.50
26.51
14.98
6.17
0.72
-1.29
-0.13
3.77
9.86
17.37
25.20
32.03
36.51
37.83
36.04
32.14
27.79
24.59
23.55
24.63
26.99
29.39
30.81
30.78
29.27
26.43
22.23
16.41
8.69
-0.88
-11.79
-23.15
-34.02
-43.74
-52.06
-59.03
-64.81
-69.53
-73.19
-75.85
-77.64
-78.78
-79.55
-80.14
-80.73
-81.41
-82.31
-83.53
-85.03
-86.56
-87.69
-87.99
-87.28
-85.69
-83.57
-81.31
-79.04
-76.84
-74.98
-74.21
-75.48
-79.16
-83.88
-86.19
-81.30
-65.05
-36.00
3.47
47.75
89.92
124.03
146.63
156.94
156.25
147.22
133.76
121.07
115.11
121.12
141.30
173.20
209.70
241.22
259.02
258.40
239.97
208.76
171.64
134.55
100.77
70.79
43.50
17.78
-6.41
-28.05
-45.84
-59.09
-68.27
-74.81
-80.24
-85.31
-89.65
-92.15
-91.81
-88.52
-83.31
-77.95
-74.08
-72.46
-72.67
-73.43
-73.27
-71.26
-67.33
-62.25
-57.14
-52.98
-50.18
-48.56
-47.52
-46.39
-44.72
-42.41
-39.73
-37.05
-34.64
-32.58
-30.75
-28.97
-27.17
-25.44
-23.97
-22.83
-21.85
-20.58
-18.43
-15.01
-10.29
-4.71
0.94
5.88
9.58
11.88
12.94
13.06
12.54
11.58
10.35
8.96
7.58
6.32
5.24
4.26
3.22
1.92
0.26
-1.72
-3.77
-5.60
-6.99
-7.92
-8.62
-9.51
-10.95
-13.06
-15.52
-17.72
-18.91
-18.63
-16.91
-14.38
-12.00
-10.71
-11.01
-12.85
-15.78
-19.30
-23.15
-27.40
-32.20
-37.55
-43.12
-48.28
-52.33
-54.83
-55.61
-54.86
-53.00
-50.75
-49.13
-49.43
-52.98
-60.73
-72.75
-88.14
-105.01
-120.92
-133.48
-140.87
-142.29
-138.19
-130.17
-120.47
-111.22
-103.82
-98.64
-95.36
-93.59
-93.46
-95.59
-100.30
-106.79
-112.65
-114.37
-108.59
-93.49
-69.38
-38.24
-2.55
35.87
76.01
117.02
157.07
192.87
220.32
236.08
239.17
231.63
217.85
202.78
190.11
181.30
175.76
171.72
167.49
162.16
155.90
149.72
145.08
143.32
145.14
150.13
156.71
162.61
165.60
164.39
158.97
150.40
140.09
129.12
117.90
106.32
94.10
80.97
66.51
49.98
30.17
5.97
-22.96
-55.54
-89.09
-120.15
-145.62
-163.92
-175.50
-182.29
-186.70
-190.32
-193.37
-194.83
-193.26
-187.69
-178.06
-165.01
-149.43
-131.88
-112.54
-91.56
-69.47
-47.28
-26.23
-7.14
9.93
25.75
41.40
57.61
74.40
91.06
106.58
120.23
132.00
142.52
152.93
164.35
177.59
192.89
209.83
227.51
244.65
259.93
272.18
280.66
285.24
286.40
285.24
282.99
280.49
277.62
273.13
264.88
250.73
229.41
201.11
167.35
130.29
91.68
52.17
11.39
-31.31
-75.65
-119.74
-160.16
-193.02
-215.40
-226.50
-227.83
-222.46
-213.72
-204.07
-194.59
-185.34
-176.10
-166.90
-158.19
-150.49
-143.95
-138.17
-132.40
-125.96
-118.65
-110.80
-103.15
-96.45
-91.17
-87.34
-84.63
-82.44
-80.16
-77.28
-73.60
-69.17
-64.33
-59.50
-55.08
-51.23
-47.97
-45.25
-43.13
-41.87
-41.83
-43.12
-45.42
-47.96
-49.75
-50.06
-48.68
-45.90
-42.31
-38.43
-34.54
-30.79
-27.33
-24.48
-22.62
-22.01
-22.56
-23.78
-25.01
-25.76
-25.94
-25.84
-25.97
-26.71
-28.22
-30.40
-33.05
-35.99
-39.12
-42.32
-45.40
-48.08
-50.16
-51.71
-53.15
-55.14
-58.27
-62.78
-68.37
-74.37
-80.10
-85.24
-90.03
-95.04
-100.75
-107.01
-112.96
-117.37
-119.25
-118.54
-116.21
-113.80
-112.73
-113.57
-115.95
-118.81
-120.96
-121.48
-119.75
-115.23
-107.27
-95.13
-78.35
-57.09
-32.35
-5.70
21.14
46.82
70.61
92.31
112.10
130.25
147.07
162.82
177.79
192.22
206.26
219.90
232.94
245.01
255.71
264.72
271.93
277.39
281.23
283.48
283.92
281.98
276.96
268.26
255.78
240.02
222.02
203.03
184.07
165.58
147.26
128.20
107.23
83.35
56.13
25.97
-5.89
-37.64
-67.29
-93.10
-113.88
-129.16
-139.07
-144.14
-145.18
-143.10
-138.80
-133.18
-127.05
-121.10
-115.85
-111.55
-108.11
-105.10
-101.95
-98.16
-93.45
-87.93
-81.93
-75.84
-69.90
-64.11
-58.34
-52.45
-46.44
-40.45
-34.76
-29.59
-25.00
-20.96
-17.33
-14.05
-11.15
-8.81
-7.21
-6.50
-6.68
-7.55
-8.80
-10.04
-10.91
-11.15
-10.65
-9.43
-7.69
-5.76
-4.06
-2.96
-2.67
-3.06
-3.73
-4.09
-3.63
-2.20
-0.05
2.21
3.86
4.43
3.86
2.49
0.81
-0.70
-1.77
-2.23
-2.01
-1.15
0.07
0.96
0.53
-2.26
-7.96
-16.38
-26.55
-37.20
-47.27
-56.26
-64.13
-70.85
-76.05
-78.86
-78.32
-73.78
-65.38
-53.99
-40.98
-27.67
-14.88
-2.88
8.46
19.28
29.45
38.52
45.87
51.19
54.69
57.16
59.69
63.22
68.20
74.60
82.14
90.61
99.96
110.11
120.91
132.10
143.51
155.05
166.52
177.12
185.16
188.24
183.99
171.20
150.39
123.74
94.11
64.09
35.33
8.65
-15.46
-36.36
-53.30
-65.81
-74.20
-79.57
-83.50
-87.33
-91.74
-96.62
-101.36
-105.28
-107.92
-109.13
-109.01
-107.73
-105.42
-102.01
-97.26
-90.85
-82.52
-72.35
-60.90
-49.14
-38.14
-28.68
-20.96
-14.57
-8.84
-3.30
2.04
6.67
9.79
10.76
9.37
5.95
1.25
-3.87
-8.68
-12.84
-16.36
-19.55
-22.78
-26.19
-29.58
-32.43
-34.12
-34.20
-32.60
-29.63
-25.85
-22.01
-18.94
-17.49
-18.44
-22.20
-28.60
