1514901954.00
64.000000
-0.00
-0.00
-0.00
-0.00
-0.00
-0.00
-0.00
-0.00
-0.00
-0.00
0.00
0.01
0.01
-0.00
-0.03
-0.05
-0.05
0.00
0.13
0.36
0.66
1.01
1.37
1.72
2.06
2.40
2.79
3.24
3.80
4.42
5.06
5.66
6.20
6.68
7.15
7.68
8.31
9.14
10.09
11.04
11.88
12.56
13.14
13.76
14.65
15.96
17.91
20.32
22.90
25.38
27.58
29.57
31.68
34.32
37.81
42.54
48.15
54.10
59.83
64.97
69.58
74.14
79.34
85.71
93.76
103.00
112.62
121.73
129.77
136.75
143.30
150.75
157.77
166.64
177.95
191.79
206.97
220.57
228.25
225.36
208.53
176.87
132.76
80.05
23.07
-34.94
-92.44
-149.16
-205.23
-260.37
-313.74
-363.87
-409.83
-450.91
-486.50
-515.74
-537.23
-549.22
-549.96
-538.37
-514.21
-478.67
-433.88
-382.45
-327.02
-269.84
-212.63
-156.66
-102.95
-52.37
-5.90
35.58
71.43
101.35
125.50
144.38
158.69
169.15
176.37
180.75
182.57
182.07
179.51
175.23
169.65
163.18
156.15
148.81
141.30
133.69
126.02
118.33
110.69
103.16
95.80
88.68
81.83
75.25
68.95
62.95
57.25
51.86
46.78
42.03
37.59
33.45
29.61
26.07
22.81
19.83
17.11
14.67
12.48
10.54
8.83
7.35
6.07
4.97
4.05
3.27
2.62
2.09
1.65
1.30
1.01
0.79
0.61
0.47
0.37
0.29
0.23
0.19
0.16
0.14
0.14
0.14
0.16
0.18
0.20
0.23
0.27
0.31
0.35
0.40
0.44
0.49
0.54
0.59
0.64
0.69
0.75
0.82
0.89
0.96
1.05
1.14
1.25
1.36
1.49
1.64
1.80
1.99
2.19
2.42
2.67
2.94
3.25
3.58
3.95
4.34
4.78
5.24
5.75
6.30
6.91
7.56
8.25
8.94
9.64
10.34
11.06
11.81
12.65
13.59
14.64
15.77
16.95
18.12
19.27
20.38
21.42
22.36
23.12
23.56
23.50
22.77
21.21
18.79
15.57
11.70
7.38
2.86
-1.70
-6.23
-10.68
-15.01
-19.12
-22.76
-25.63
-27.51
-28.30
-28.16
-27.52
-26.88
-26.66
-27.03
-27.79
-28.52
-28.72
-28.12
-26.87
-25.49
-24.66
-24.92
-26.36
-28.58
-30.79
-32.30
-32.67
-32.04
-31.03
-30.35
-30.70
-32.54
-36.15
-41.45
-47.66
-53.07
-55.19
-51.53
-40.73
-23.61
-3.10
16.63
31.92
40.90
44.09
43.53
41.53
39.58
37.95
36.22
33.94
31.22
28.62
26.73
25.74
25.28
24.74
23.52
21.35
18.54
15.67
13.41
12.25
12.18
12.80
13.39
13.29
12.17
10.18
7.82
5.63
3.91
2.52
0.99
-1.09
-3.83
-6.82
-9.36
-10.73
-10.54
-8.90
-6.33
-3.53
-1.09
0.72
1.93
2.84
3.75
4.84
6.06
7.23
8.11
8.56
8.60
8.37
8.03
7.71
7.36
6.93
6.36
5.68
5.00
4.42
4.01
3.69
3.34
2.82
2.03
1.01
-0.24
-1.65
-3.22
-4.95
-6.86
-8.89
-10.97
-12.96
-14.73
-16.13
-17.07
-17.43
-17.12
-16.09
-14.33
-11.97
-9.17
-6.16
-3.11
-0.11
2.77
5.47
7.86
9.81
11.24
12.17
12.80
13.37
14.06
14.87
15.65
16.17
16.21
15.74
14.90
13.85
12.76
11.63
10.39
8.93
7.18
5.27
3.37
1.66
0.20
-1.08
-2.36
-3.78
-5.45
-7.36
-9.43
-11.53
-13.55
-15.30
-16.55
-17.11
-16.79
-15.56
-13.61
-11.30
-8.97
-6.86
-4.99
-3.26
-1.51
0.33
2.24
4.09
5.74
7.06
7.99
8.54
8.76
8.75
8.55
8.23
7.76
7.17
6.51
5.90
5.45
5.24
5.19
5.17
4.98
4.49
3.69
2.67
1.51
0.26
-1.11
-2.62
-4.23
-5.83
-7.30
-8.60
-9.73
-10.73
-11.59
-12.25
-12.63
-12.65
-12.30
-11.56
-10.47
-9.02
-7.27
-5.28
-3.17
-1.08
0.93
2.72
4.21
5.29
5.90
6.04
5.84
5.53
5.34
5.43
5.77
6.18
6.47
6.49
6.27
5.95
5.69
5.55
5.49
5.34
4.94
4.15
2.96
1.42
-0.32
-2.08
-3.74
-5.18
-6.45
-7.67
-9.05
-10.76
-12.76
-14.79
-16.44
-17.32
-17.24
-16.31
-14.80
-13.06
-11.34
-9.64
-7.84
-5.79
-3.40
-0.76
1.88
4.26
6.19
7.61
8.57
9.20
9.61
9.80
9.74
9.39
8.83
8.19
7.62
7.18
6.78
6.26
5.45
4.33
3.06
1.91
1.07
0.54
0.06
-0.72
-2.08
-4.09
-6.57
-9.23
-11.73
-13.86
-15.41
-16.20
-16.04
-14.83
-12.71
-10.01
-7.29
-5.00
-3.33
-2.17
-1.14
0.10
1.72
3.60
5.44
6.90
7.77
7.99
7.70
7.12
6.49
6.01
5.78
5.79
5.86
5.79
5.34
4.38
2.91
1.10
-0.80
-2.52
-3.90
-4.92
-5.70
-6.46
-7.40
-8.64
-10.22
-12.05
-13.99
-15.75
-16.97
-17.30
-16.48
-14.48
-11.59
-8.31
-5.17
-2.51
-0.42
1.30
2.93
4.64
6.48
8.29
9.95
11.37
12.56
13.54
14.26
14.63
14.53
13.94
13.00
11.92
10.89
10.02
9.25
8.46
7.55
6.52
5.38
4.20
2.94
1.51
-0.21
-2.23
-4.49
-6.82
-9.10
-11.21
-13.08
-14.62
-15.65
-15.91
-15.21
-13.55
-11.19
-8.52
-5.93
-3.62
-1.57
0.39
2.33
4.21
5.86
7.11
7.98
8.68
9.48
10.53
11.76
12.91
13.66
13.87
13.63
13.16
12.71
12.31
11.90
11.29
10.36
9.12
7.72
6.31
5.02
3.92
2.93
1.96
0.83
-0.63
-2.59
-5.15
-8.21
-11.45
-14.39
-16.54
-17.53
-17.26
-15.94
-13.97
-11.82
-9.75
-7.87
-6.02
-4.03
-1.80
0.61
2.96
5.00
6.56
7.67
8.45
9.10
9.69
10.19
10.48
10.44
10.06
9.48
8.92
8.56
8.44
8.46
8.42
8.13
7.53
6.64
5.59
4.51
3.44
2.32
1.03
-0.58
-2.61
-5.03
-7.71
-10.40
-12.85
-14.82
-16.15
-16.69
-16.36
-15.05
-12.78
-9.71
-6.20
-2.72
0.33
2.76
4.64
6.23
7.80
9.40
10.91
12.07
12.70
12.74
12.36
11.85
11.52
11.54
11.93
12.50
12.96
12.96
12.15
10.27
7.21
2.95
-2.28
-8.05
-13.75
-18.68
-22.27
-24.33
-25.13
-25.41
-26.02
-27.60
-30.20
-33.27
-35.90
-37.18
-36.63
-34.34
-30.87
-27.03
-23.50
-20.68
-18.65
-17.26
-16.28
-15.53
-14.83
-13.95
-12.52
-10.11
-6.41
-1.43
4.39
10.25
15.39
19.35
22.27
24.74
27.42
30.62
34.05
36.91
38.37
37.93
35.76
32.54
29.16
26.25
23.98
22.10
20.14
17.72
14.73
11.28
7.62
4.00
0.57
-2.59
-5.35
-7.48
-8.75
-8.95
-8.10
-6.42
-4.27
-2.03
0.10
2.04
3.88
5.67
7.33
8.65
9.40
9.47
8.92
7.96
6.95
6.19
5.90
6.16
6.82
7.61
8.14
8.08
7.28
5.83
4.03
2.23
0.60
-0.93
-2.63
-4.74
-7.32
-10.08
-12.55
-14.25
-14.87
-14.38
-13.04
-11.23
-9.30
-7.51
-5.96
-4.60
-3.29
-1.87
-0.25
1.51
3.23
4.70
5.72
6.28
6.45
6.39
6.20
5.95
5.61
5.14
4.53
3.80
3.01
2.22
1.42
0.62
-0.23
-1.14
-2.19
-3.46
-5.00
-6.84
-8.90
-11.05
-13.06
-14.67
-15.63
-15.74
-14.95
-13.35
-11.18
-8.74
-6.25
-3.80
-1.39
1.06
3.57
6.06
8.40
10.45
12.17
13.61
14.91
16.16
17.36
18.47
19.36
19.93
20.14
20.10
19.90
19.72
19.67
19.74
19.75
19.41
18.43
16.65
14.16
11.26
8.33
5.71
3.64
2.24
1.63
1.87
3.01
4.90
7.26
9.68
11.75
13.27
14.24
14.84
15.29
15.75
16.26
16.81
17.33
17.74
17.95
17.83
17.22
16.06
14.40
12.40
10.29
8.26
6.42
4.75
3.10
1.33
-0.72
-2.97
-5.27
-7.34
-8.91
-9.79
-9.95
-9.54
-8.81
-7.99
-7.30
-6.87
-6.71
-6.73
-6.72
-6.44
-5.75
-4.68
-3.49
-2.52
-2.08
-2.16
-2.54
-2.78
-2.56
-1.81
-0.78
0.05
0.22
-0.50
-2.04
-4.01
-6.02
-7.70
-8.93
-9.75
-10.35
-10.90
-11.50
-12.16
-12.84
-13.42
-13.82
-13.95
-13.74
-13.14
-12.12
-10.71
-9.01
-7.24
-5.63
-4.41
-3.71
-3.50
-3.62
-3.80
-3.84
-3.65
-3.34
-3.11
-3.16
-3.50
-4.02
-4.49
-4.77
-4.86
-4.92
-5.20
-5.78
-6.55
-7.21
-7.46
-7.16
-6.45
-5.66
-5.18
-5.29
-6.04
-7.27
-8.74
-10.15
-11.31
-12.09
-12.45
-12.38
-11.88
-10.98
-9.72
-8.23
-6.68
-5.22
-4.03
-3.22
-2.85
-2.95
-3.57
-4.74
-6.42
-8.35
-10.15
-11.37
-11.77
-11.46
-10.94
-10.85
-11.65
-13.37
-15.53
-17.33
-17.98
-16.95
-14.15
-9.96
-5.22
-1.04
1.23
0.43
-4.09
-12.11
-22.42
-33.09
-42.08
-47.83
-49.74
-48.18
-44.21
-39.03
-33.65
-28.70
-24.51
-21.25
-19.02
-17.84
-17.61
-18.08
-18.87
-19.46
-19.20
-17.43
-13.68
-8.06
-1.37
5.03
9.73
12.03
12.38
12.18
13.12
16.15
21.01
26.30
30.26
31.68
30.41
27.24
23.29
19.35
15.57
11.65
7.26
2.40
-2.49
-6.72
-9.73
-11.25
-11.45
-10.75
-9.61
-8.40
-7.29
-6.27
-5.25
-4.12
-2.82
-1.35
0.17
1.60
2.72
3.41
3.66
3.60
3.52
3.66
4.13
4.78
5.26
5.24
4.52
3.17
1.47
-0.29
-1.93
-3.46
-4.94
-6.37
-7.58
-8.34
-8.42
-7.81
-6.66
-5.17
-3.46
-1.54
0.64
3.08
5.63
8.09
10.24
12.10
13.85
15.82
18.32
21.49
25.27
29.49
34.00
38.80
44.09
50.26
57.65
66.45
76.56
87.64
99.20
110.79
122.19
133.37
144.57
156.21
168.82
182.77
197.95
213.47
227.54
237.83
242.16
239.34
229.65
214.75
197.10
179.02
161.91
146.06
130.77
114.80
96.77
75.53
50.66
22.80
-6.05
-32.87
-54.44
-68.48
-74.48
-73.83
-69.10
-63.01
-57.46
-53.26
-50.34
-48.26
-46.62
-45.16
-43.64
-41.96
-40.26
-39.12
-39.43
-41.93
-46.62
-52.53
-57.68
-59.71
-56.76
-48.22
-35.10
-19.87
-5.79
3.88
6.66
1.23
-12.40
-33.06
-58.77
-87.08
-115.58
-142.29
-165.93
-185.89
-201.84
-213.16
-218.66
-216.70
-206.16
-187.51
-163.45
-138.48
-117.49
-104.07
-99.28
-101.81
-108.83
-117.35
-124.97
-129.82
-130.06
-123.46
-107.77
-81.63
-45.59
-2.67
42.25
83.73
117.38
140.92
154.27
158.89
156.67
149.02
136.58
119.58
98.61
75.23
52.13
32.61
19.81
15.66
20.33
32.11
47.71
63.13
74.67
79.78
77.68
69.27
56.52
41.72
26.74
12.76
0.29
-10.50
-19.53
-26.72
-31.98
-35.44
-37.35
-38.15
-38.18
-37.64
-36.58
-34.88
-32.52
-29.59
-26.34
-23.16
-20.39
-18.28
-16.81
-15.80
-14.98
-14.12
-13.20
-12.40
-12.01
-12.33
-13.50
-15.43
-17.81
-20.16
-21.97
-22.91
-22.95
-22.37
-21.65
-21.29
-21.57
-22.49
-23.74
-24.95
-25.76
-26.01
-25.69
-24.94
-24.03
-23.19
-22.60
-22.30
-22.17
-21.94
-21.43
-20.59
-19.63
-18.86
-18.53
-18.63
-18.89
-18.99
-18.71
-18.16
-17.65
-17.50
-17.86
-18.59
-19.41
-20.00
-20.23
-20.19
-19.97
-19.72
-19.37
-18.79
-17.88
-16.69
-15.43
-14.36
-13.65
-13.21
-12.72
-11.84
-10.42
-8.67
-7.06
-6.13
-6.17
-7.05
-8.37
-9.59
-10.37
-10.68
-10.69
-10.60
-10.51
-10.41
-10.24
-10.04
-9.99
-10.18
-10.55
-10.88
-10.88
-10.37
-9.49
-8.59
-8.06
-8.10
-8.59
-9.22
-9.65
-9.74
-9.55
-9.25
-8.98
-8.78
-8.56
-8.23
-7.82
-7.40
-7.18
-7.21
-7.48
-7.85
-8.12
-8.19
-8.04
-7.80
-7.62
-7.60
-7.75
-7.90
-7.91
-7.64
-7.18
-6.70
-6.39
-6.34
-6.44
-6.48
-6.25
-5.65
-4.78
-3.80
-2.87
-2.11
-1.54
-1.15
-0.98
-1.02
-1.22
-1.40
-1.40
-1.12
-0.65
-0.27
-0.22
-0.68
-1.57
-2.65
-3.65
-4.44
-4.98
-5.31
-5.38
-5.13
-4.42
-3.25
-1.76
-0.28
0.92
1.61
1.77
1.57
1.25
1.10
1.23
1.62
2.10
2.41
2.40
2.08
1.65
1.40
1.56
2.12
2.87
3.41
3.41
2.73
1.43
-0.28
-2.15
-3.98
-5.61
-6.79
-7.25
-6.74
-5.27
-3.16
-1.06
0.30
0.38
-0.92
-3.21
-5.81
-8.07
-9.58
-10.20
-10.12
-9.61
-8.91
-8.11
-7.22
-6.15
-4.90
-3.46
-1.95
-0.46
0.86
1.97
2.85
3.58
4.28
5.12
6.21
7.60
9.21
10.83
12.19
12.91
12.90
12.51
12.26
12.60
13.56
14.80
15.76
16.01
15.16
13.28
10.90
8.74
7.50
7.64
9.30
12.30
16.05
19.04
19.91
18.07
13.92
8.53
3.28
-0.62
-2.63
-2.96
-4.07
-7.91
-14.84
-23.70
-32.74
-40.24
-44.69
-45.00
-41.07
-37.32
-38.26
-46.61
-62.85
-85.96
-113.65
-142.51
-168.57
-188.61
-206.09
-223.92
-242.19
-258.87
-272.60
-284.15
-295.47
-307.98
-321.26
-339.08
-360.66
-380.14
-390.32
-387.74
-374.52
-356.18
-338.32
-284.15
-181.75
-48.21
82.78
186.63
256.97
298.80
320.55
330.01
332.86
325.90
307.26
279.39
247.96
218.44
193.69
174.56
160.99
152.42
143.00
128.80
110.46
91.28
74.71
62.06
53.15
47.17
43.16
37.04
26.32
11.23
-6.12
-23.08
-38.25
-51.14
-61.60
-69.45
-75.94
-81.28
-83.83
-84.96
-84.30
-81.77
-77.62
-72.08
-65.35
-58.33
-51.66
-45.60
-40.06
-34.27
-27.79
-20.38
-11.75
-1.75
9.47
21.53
33.81
45.60
56.66
66.73
75.53
83.24
89.86
95.13
98.54
99.56
97.97
94.32
89.51
84.71
82.23
83.67
89.39
98.33
108.65
118.58
127.12
134.00
139.65
147.39
159.65
177.15
198.40
220.82
242.26
261.95
280.64
300.39
327.94
368.26
422.63
487.06
553.36
611.59
652.26
668.01
654.83
617.74
563.71
500.24
433.55
369.38
313.62
271.15
244.00
198.73
115.80
-6.49
-149.88
-289.76
-408.50
-499.20
-563.11
-605.37
-631.70
-640.48
-632.19
-608.25
-573.50
-534.62
-497.44
-465.42
-439.13
-416.57
-390.05
-356.07
-313.20
-264.05
-213.38
-165.71
-123.80
-88.33
-58.31
-29.30
2.49
39.81
82.89
129.98
177.91
222.29
258.03
280.29
287.35
279.96
261.71
237.19
210.64
184.94
161.34
139.82
120.07
102.50
87.63
75.84
66.54
58.43
50.15
40.99
31.15
21.51
13.20
6.90
2.80
0.44
-0.99
-2.18
-3.53
-5.00
-6.32
-7.13
-7.30
-6.94
-6.31
-5.61
-4.79
-3.39
-0.70
4.02
11.20
20.70
31.86
43.66
55.12
65.64
75.11
83.93
92.72
102.06
112.16
122.77
133.10
141.95
147.97
149.94
147.13
139.48
127.69
113.05
97.13
81.45
67.21
55.28
46.07
39.51
35.02
31.56
27.95
23.19
16.70
8.36
-1.76
-13.67
-27.50
-43.38
-61.07
-79.82
-98.43
-115.64
-130.49
-142.57
-151.90
-158.76
-163.41
-166.04
-166.86
-166.12
-164.16
-161.33
-157.82
-153.73
-148.97
-143.45
-137.11
-130.00
-122.28
-114.25
-106.26
-98.67
-91.81
-85.93
-81.15
-77.36
-74.20
-71.14
-67.71
-63.68
-59.17
-54.61
-50.45
-46.93
-43.96
-41.28
-38.65
-36.09
-33.90
-32.41
-31.78
-31.78
-31.92
-31.66
-30.65
-28.92
-26.79
-24.71
-22.97
-21.63
-20.47
-19.19
-17.66
-15.97
-14.42
-13.38
-13.04
-13.31
-13.83
-14.15
-13.94
-13.21
-12.22
-11.39
-11.10
-11.55
-12.67
-14.24
-15.88
-17.12
-17.50
-16.58
-14.15
-10.24
-5.11
0.83
7.17
13.61
19.93
25.86
31.05
35.05
37.43
37.92
36.59
33.75
29.99
25.94
22.18
19.11
16.87
15.38
14.38
13.57
12.79
12.01
11.36
10.90
10.59
10.32
10.01
9.68
9.50
9.58
9.86
10.05
9.78
8.71
6.83
4.36
1.75
-0.61
-2.55
-4.14
-5.66
-7.36
-9.32
-11.34
-12.94
-13.64
-13.05
-11.11
-8.10
-4.44
-0.57
3.23
6.87
10.35
13.57
16.37
18.52
19.82
20.19
19.65
18.27
16.17
13.55
10.68
7.98
5.86
4.68
4.53
5.22
6.34
7.36
7.83
7.49
6.34
4.64
2.87
1.56
1.16
1.82
3.33
5.19
6.79
7.64
7.47
6.31
4.35
1.82
-1.17
-4.51
-8.07
-11.55
-14.41
-16.12
-16.31
-15.00
-12.65
-10.05
-8.08
-7.32
-8.00
-9.90
-12.55
-15.39
-17.86
-19.52
-20.04
-19.26
-17.16
-13.96
-10.05
-5.90
-1.97
1.39
3.98
5.80
6.91
7.47
7.64
7.62
7.58
7.66
7.91
8.25
8.57
8.72
8.68
8.47
8.21
7.99
7.83
7.68
7.46
7.13
6.75
6.43
6.33
6.48
6.86
7.33
7.75
8.01
8.13
8.20
8.36
8.71
9.24
9.85
10.40
10.81
11.11
11.41
11.81
12.28
12.59
12.42
11.52
9.77
7.32
4.38
1.18
-2.15
-5.47
-8.58
-11.14
-12.71
-13.03
-12.13
-10.40
-8.53
-7.17
-6.70
-7.12
-8.16
-9.42
-10.62
-11.65
-12.45
-12.97
-13.15
-12.91
-12.32
-11.63
-11.12
-11.03
-11.36
-11.92
-12.39
-12.61
-12.57
-12.49
-12.58
-12.93
-13.41
-13.75
-13.67
-13.08
-12.06
-10.85
-9.66
-8.61
-7.67
-6.66
-5.34
-3.43
-0.67
3.01
7.48
12.24
16.63
19.95
21.78
22.13
21.39
20.20
19.08
18.34
18.04
18.04
18.14
18.17
17.92
17.18
15.79
13.66
10.86
7.65
4.38
1.39
-1.10
-3.05
-4.51
-5.63
-6.52
-7.24
-7.81
-8.21
-8.47
-8.60
-8.54
-8.16
-7.24
-5.66
-3.51
-1.11
1.05
2.56
3.21
3.01
2.16
0.83
-0.90
-3.02
-5.45
-7.94
-10.12
-11.59
-12.16
-11.95
-11.33
-10.80
-10.81
-11.61
-13.20
-15.25
-17.19
-18.39
-18.29
-16.69
-13.75
-10.04
-6.23
-2.88
-0.31
1.49
2.73
3.68
4.51
5.31
6.06
6.72
7.24
7.59
7.75
7.74
7.56
7.16
6.47
5.42
4.05
2.48
0.95
-0.33
-1.21
-1.65
-1.76
-1.64
-1.36
-0.94
-0.38
0.26
0.89
1.33
1.50
1.38
1.18
1.18
1.66
2.84
4.67
7.00
9.58
12.18
14.69
16.99
19.02
20.64
21.69
22.04
21.62
20.44
18.60
16.25
13.59
10.84
8.29
6.13
4.43
3.09
1.94
0.92
0.09
-0.37
-0.27
0.33
1.23
2.06
2.48
2.37
1.82
1.05
0.32
-0.26
-0.69
-1.12
-1.64
-2.36
-3.26
-4.31
-5.45
-6.61
-7.75
-8.85
-9.87
-10.78
-11.53
-12.13
-12.61
-13.07
-13.56
-14.05
-14.40
-14.34
-13.70
-12.38
-10.60
-8.76
-7.36
-6.88
-7.51
-9.22
-11.76
-14.76
-17.96
-21.21
-24.57
-28.14
-32.14
-36.72
-41.89
-47.40
-52.58
-56.36
-57.59
-55.41
-49.59
-40.74
-30.05
-18.86
-8.29
1.01
8.75
14.82
19.10
21.56
22.30
21.75
20.47
19.12
18.06
17.28
16.52
15.46
13.92
12.04
10.21
8.88
8.41
8.87
10.01
11.36
12.44
12.89
12.61
11.70
10.40
8.92
7.47
6.11
4.91
3.85
2.94
2.11
1.36
0.77
0.42
0.48
0.97
1.80
2.76
3.71
4.69
5.95
7.84
10.52
13.94
17.71
21.32
24.30
26.35
27.38
27.46
26.74
25.40
23.67
21.77
19.85
17.97
16.11
14.15
12.03
9.73
7.24
4.64
2.00
-0.49
-2.59
-4.02
-4.59
-4.36
-3.58
-2.70
-2.08
-1.84
-1.86
-1.87
-1.63
-1.04
-0.25
0.57
1.26
1.78
2.13
2.31
2.21
1.75
0.88
-0.28
-1.50
-2.57
-3.42
-4.17
-5.03
-6.20
-7.74
-9.53
-11.33
-12.90
-14.04
-14.70
-14.91
-14.75
-14.29
-13.64
-12.84
-11.91
-10.90
-9.82
-8.75
-7.77
-7.02
-6.62
-6.59
-6.88
-7.31
-7.70
-7.95
-8.05
-8.11
-8.25
-8.61
-9.24
-10.12
-11.18
-12.27
-13.18
-13.66
-13.50
-12.65
-11.18
-9.30
-7.26
-5.24
-3.36
-1.64
-0.19
0.90
1.49
1.53
1.08
0.31
-0.58
-1.44
-2.16
-2.70
-3.01
-3.10
-2.98
-2.71
-2.39
-2.12
-1.90
-1.68
-1.35
-0.80
-0.04
0.81
1.56
2.07
2.27
2.28
2.31
2.56
3.17
4.11
5.27
6.46
7.49
8.27
8.72
8.84
8.65
8.21
7.67
7.18
6.86
6.70
6.57
6.25
5.54
4.38
2.95
1.57
0.64
0.48
1.19
2.61
4.42
6.19
7.55
8.28
8.30
7.70
6.64
5.33
4.04
2.96
2.28
2.09
2.39
3.07
3.92
4.71
5.20
5.27
4.94
4.39
3.84
3.53
3.52
3.77
4.08
4.29
4.29
4.10
3.75
3.34
2.84
2.27
1.60
0.86
0.10
-0.64
-1.33
-1.98
-2.63
-3.32
-4.10
-4.97
-5.91
-6.85
-7.73
-8.40
-8.79
-8.78
-8.30
-7.28
-5.71
-3.64
-1.21
1.35
3.76
5.77
7.27
8.32
9.09
9.78
10.49
11.17
11.66
11.79
11.46
10.73
9.75
8.67
7.60
6.53
5.42
4.29
3.22
2.37
1.87
1.73
1.84
2.00
1.99
1.71
1.17
0.45
-0.29
-0.99
-1.63
-2.25
-2.87
-3.45
-3.91
-4.14
-4.06
-3.71
-3.24
-2.83
-2.60
-2.56
-2.54
-2.33
-1.79
-0.94
0.06
1.01
1.82
2.53
3.35
4.45
5.89
7.52
9.08
10.28
10.99
11.27
11.26
11.15
11.03
10.86
10.60
10.18
9.63
9.01
8.38
7.76
7.02
6.03
4.64
2.80
0.61
-1.71
-3.86
-5.60
-6.79
-7.49
-7.89
-8.25
-8.78
-9.54
-10.40
-11.12
-11.52
-11.51
-11.16
-10.61
-9.98
-9.27
-8.43
-7.35
-6.07
-4.77
-3.73
-3.19
-3.26
-3.77
-4.37
-4.69
-4.45
-3.65
-2.52
-1.41
-0.65
-0.36
-0.43
-0.61
-0.66
-0.48
-0.13
0.20
0.31
0.09
-0.45
-1.22
-2.07
-2.93
-3.79
-4.74
-5.78
-6.89
-7.90
-8.62
-8.87
-8.61
-7.91
-6.98
-6.03
-5.21
-4.62
-4.29
-4.15
-4.17
-4.28
-4.38
-4.40
-4.36
-4.39
-4.72
-5.58
-7.04
-8.97
-10.95
-12.49
-13.15
-12.74
-11.35
-9.37
-7.25
-5.34
-3.69
-2.10
-0.22
2.22
5.26
8.68
12.08
15.03
17.24
18.61
19.23
19.29
18.99
18.55
18.10
17.74
17.57
17.67
18.14
19.09
20.55
22.42
24.44
26.22
27.34
27.46
26.45
24.44
21.80
19.00
16.50
14.57
13.20
12.15
11.02
9.41
7.15
4.27
1.03
-2.25
-5.29
-7.94
-10.17
-12.06
-13.68
-15.09
-16.17
-16.69
-16.30
-14.73
-11.93
-8.14
-3.88
0.27
3.88
6.84
9.34
11.77
14.44
17.46
20.72
23.92
26.71
28.74
29.72
29.42
27.79
25.02
21.71
18.70
16.85
16.66
17.96
19.94
21.43
21.43
19.46
15.75
11.03
6.21
2.12
-0.71
-2.01
-1.80
-0.35
1.87
4.25
6.15
7.13
7.00
5.84
4.05
2.24
1.09
1.21
2.91
6.09
10.18
14.36
17.82
19.99
20.73
20.22
18.78
16.76
14.35
11.61
8.54
5.07
1.21
-2.97
-7.26
-11.31
-14.76
-17.26
-18.59
-18.70
-17.68
-15.78
-13.32
-10.69
-8.27
-6.33
-5.00
-4.21
-3.72
-3.23
-2.47
-1.32
0.22
1.92
3.46
4.46
4.60
3.74
1.94
-0.48
-3.06
-5.37
-7.10
-8.13
-8.52
-8.37
-7.85
-7.09
-6.30
-5.73
-5.71
-6.54
-8.31
-10.84
-13.69
-16.27
-18.10
-18.96
-19.03
-18.71
-18.45
-18.56
-18.99
-19.50
-19.74
-19.55
-19.03
-18.53
-18.46
-19.11
-20.49
-22.36
-24.32
-26.00
-27.09
-27.49
-27.15
-26.14
-24.58
-22.60
-20.39
-18.13
-15.94
-13.88
-11.94
-10.06
-8.20
-6.39
-4.64
-3.01
-1.51
-0.14
1.09
2.14
3.00
3.66
4.21
4.73
5.39
6.19
7.03
7.70
7.89
7.44
6.40
5.06
3.86
3.14
3.05
3.44
3.95
4.19
3.88
2.89
1.25
-0.91
-3.43
-6.05
-8.39
-10.00
-10.41
-9.33
-6.76
-2.96
1.57
6.32
10.84
14.82
18.17
20.86
23.06
24.92
26.56
27.98
29.03
29.54
29.41
28.66
27.38
25.65
23.52
20.96
18.03
14.93
11.92
9.27
7.07
5.22
3.49
1.73
-0.04
-1.63
-2.77
-3.39
-3.65
-3.84
-4.24
-4.93
-5.84
-6.76
-7.56
-8.26
-8.95
-9.78
-10.70
-11.57
-12.14
-12.22
-11.79
-11.00
-10.14
-9.47
-9.09
-8.95
-8.83
-8.52
-7.91
-6.98
-5.90
-4.85
-3.99
-3.40
-3.03
-2.79
-2.50
-2.05
-1.38
-0.59
0.10
0.44
0.22
-0.54
-1.65
-2.77
-3.50
-3.59
-2.95
-1.67
0.05
2.01
4.03
5.95
7.65
8.99
9.86
10.19
10.05
9.59
9.09
8.84
8.99
9.51
10.15
10.57
10.52
9.86
8.68
7.15
5.41
3.56
1.61
-0.40
-2.35
-4.04
-5.33
-6.22
-6.86
-7.44
-8.08
-8.77
-9.35
-9.66
-9.68
-9.47
-9.27
-9.23
-9.48
-9.96
-10.55
-11.13
-11.60
-11.94
-12.15
-12.25
-12.24
-12.18
-12.12
-12.15
-12.29
-12.55
-12.81
-12.97
-12.97
-12.84
-12.75
-12.87
-13.27
-13.83
-14.26
-14.26
-13.69
-12.65
-11.43
-10.33
-9.47
-8.70
-7.73
-6.32
-4.41
-2.27
-0.28
1.14
1.83
1.80
1.24
0.37
-0.66
-1.71
-2.69
-3.43
-3.81
-3.75
-3.31
-2.65
-1.96
-1.37
-0.90
-0.46
0.05
0.68
1.41
2.12
2.68
2.99
3.03
2.85
2.56
2.32
2.24
2.39
2.79
3.44
4.35
5.53
6.93
8.42
9.82
10.91
11.56
11.80
11.79
11.76
11.85
12.01
12.03
11.61
10.58
8.90
6.86
4.87
3.38
2.69
2.77
3.34
3.94
4.13
3.71
2.76
1.58
0.60
0.09
0.14
0.59
1.23
1.92
2.66
3.60
4.86
6.44
8.12
9.55
10.41
10.55
10.03
9.07
7.89
6.65
5.40
4.22
3.18
2.42
2.06
2.06
2.24
2.29
1.91
1.00
-0.36
-1.84
-3.10
-3.83
-3.91
-3.38
-2.39
-1.20
-0.06
0.84
1.39
1.56
1.43
1.13
0.77
0.42
0.05
-0.36
-0.83
-1.31
-1.71
-1.97
-2.08
-2.09
-2.10
-2.19
-2.38
-2.71
-3.24
-4.09
-5.27
-6.68
-7.98
-8.74
-8.59
-7.44
-5.56
-3.45
-1.62
-0.41
0.20
0.46
0.69
1.10
1.69
2.30
2.73
2.91
2.86
2.69
2.55
2.49
2.50
2.54
2.57
2.62
2.72
2.98
3.41
3.95
4.47
4.85
5.02
5.01
4.91
4.79
4.69
4.51
4.16
3.53
2.64
1.57
0.41
-0.77
-1.96
-3.13
-4.22
-5.07
-5.52
-5.52
-5.19
-4.84
-4.80
-5.32
-6.39
-7.77
-9.10
-10.06
-10.51
-10.47
-10.10
-9.56
-8.97
-8.35
-7.64
-6.78
-5.80
-4.79
-3.92
-3.28
-2.89
-2.58
-2.11
-1.27
-0.02
1.44
2.82
3.80
4.28
4.43
4.63
5.26
6.50
8.19
9.92
11.20
11.71
11.35
10.29
8.75
6.88
4.74
2.32
-0.36
-3.13
-5.74
-7.95
-9.65
-10.85
-11.64
-12.08
-12.16
-11.87
-11.18
-10.21
-9.14
-8.20
-7.54
-7.14
-6.90
-6.63
-6.20
-5.55
-4.71
-3.82
-3.04
-2.46
-2.08
-1.76
-1.26
-0.38
0.96
2.65
4.43
6.02
7.27
8.22
9.07
10.01
11.09
12.20
13.08
13.50
13.30
12.49
11.14
9.33
7.15
4.68
2.11
-0.30
-2.24
-3.47
-3.93
-3.79
-3.36
-2.99
-2.93
-3.19
-3.65
-4.05
-4.19
-3.94
-3.26
-2.13
-0.54
1.50
3.91
6.48
8.91
10.91
12.27
12.98
13.20
13.15
13.04
12.94
12.80
12.50
11.92
10.97
9.64
7.95
5.95
3.71
1.35
-0.97
-3.04
-4.68
-5.81
-6.48
-6.90
-7.31
-7.85
-8.50
-9.10
-9.46
-9.43
-8.99
-8.21
-7.24
-6.20
-5.18
-4.21
-3.32
-2.55
-2.00
-1.70
-1.68
-1.93
-2.43
-3.20
-4.31
-5.80
-7.65
-9.74
-11.79
-13.50
-14.59
-14.98
-14.77
-14.22
-13.61
-13.19
-13.04
-13.10
-13.16
-12.93
-12.08
-10.33
-7.53
-3.74
0.73
5.39
9.67
13.12
15.49
16.76
17.13
16.84
16.08
14.95
13.48
11.70
9.69
7.66
5.85
4.41
3.35
2.55
1.79
0.90
-0.12
-1.08
-1.74
-1.89
-1.48
-0.67
0.36
1.42
2.42
3.29
3.92
4.14
3.77
2.75
1.23
-0.47
-1.98
-3.05
-3.68
-4.03
-4.34
-4.72
-5.12
-5.34
-5.24
-4.71
-3.78
-2.54
-1.10
0.45
2.02
3.49
4.75
5.72
6.36
6.71
6.76
6.46
5.67
4.33
2.49
0.41
-1.50
-2.83
-3.40
-3.33
-2.99
-2.86
-3.30
-4.43
-6.08
-7.95
-9.73
-11.22
-12.34
-13.01
-13.17
-12.68
-11.45
-9.52
-7.14
-4.74
-2.70
-1.27
-0.39
0.21
0.88
1.87
3.23
4.76
6.22
7.42
8.36
9.15
10.00
11.03
12.19
13.28
14.03
14.21
13.74
12.70
11.34
9.90
8.63
7.65
6.96
6.46
6.01
5.52
4.94
4.30
3.71
3.22
2.84
2.48
2.00
1.36
0.58
-0.17
-0.71
-0.95
-0.91
-0.73
-0.51
-0.25
0.17
0.91
2.00
3.31
4.49
5.15
5.01
4.04
2.50
0.80
-0.67
-1.63
-2.00
-1.82
-1.21
-0.28
0.82
1.92
2.86
3.47
3.69
3.52
3.05
2.41
1.73
1.12
0.67
0.43
0.41
0.58
0.82
1.04
1.16
1.18
1.12
1.01
0.78
0.42
-0.13
-0.88
-1.79
-2.89
-4.24
-5.89
-7.82
-9.85
-11.69
-13.11
-14.06
-14.77
-15.69
-17.26
-19.69
-22.76
-25.84
-28.10
-28.73
-27.21
-23.48
-18.00
-11.66
-5.65
-1.20
0.67
-0.55
-4.73
-10.99
-17.86
-23.58
-26.54
-25.61
-20.56
-12.01
-1.31
9.87
19.90
27.53
32.06
33.36
31.74
27.79
22.34
16.28
10.43
5.47
1.79
-0.61
-2.03
-3.03
-4.18
-5.94
-8.52
-11.84
-15.50
-18.97
-21.73
-23.33
-23.61
-22.62
-20.59
-17.92
-15.11
-12.64
-10.85
-9.73
-8.94
-7.90
-6.12
-3.41
-0.09
3.22
5.90
7.65
8.53
8.85
8.89
8.72
8.23
7.29
5.97
4.54
3.33
2.61
2.44
2.71
3.30
4.10
5.12
6.40
7.90
9.49
10.96
12.14
12.84
13.04
12.79
12.23
11.54
10.86
10.18
9.42
8.39
6.90
4.91
2.51
-0.02
-2.31
-4.05
-5.05
-5.34
-5.08
-4.54
-3.85
-3.04
-1.98
-0.51
1.43
3.70
6.00
7.99
9.42
10.27
10.70
10.98
11.37
11.96
12.73
13.51
14.13
14.49
14.58
14.44
14.10
13.42
12.19
10.16
7.24
3.69
0.09
-2.78
-4.23
-3.96
-2.10
0.77
4.00
6.99
9.38
10.94
11.54
11.09
9.57
7.17
4.32
1.57
-0.62
-2.12
-3.18
-4.35
-6.15
-8.83
-12.24
-15.88
-19.14
-21.44
-22.41
-21.94
-20.08
-17.07
-13.30
-9.22
-5.36
-2.18
-0.04
0.92
0.81
-0.07
-1.29
-2.40
-3.01
-2.98
-2.36
-1.33
-0.11
1.18
2.48
3.84
5.26
6.73
8.17
9.51
10.71
11.75
12.63
13.38
13.96
14.31
14.37
14.03
13.28
12.14
10.67
9.03
7.30
5.59
3.95
2.45
1.16
0.17
-0.49
-0.86
-1.08
-1.34
-1.75
-2.30
-2.85
-3.17
-3.13
-2.69
-1.95
-1.11
-0.38
0.15
0.45
0.57
0.60
0.59
0.49
0.21
-0.39
-1.39
-2.68
-4.09
-5.35
-6.30
-6.87
-7.14
-7.18
-7.01
-6.59
-5.89
-4.98
-4.10
-3.50
-3.38
-3.77
-4.45
-5.17
-5.68
-5.84
-5.63
-5.16
-4.58
-4.06
-3.76
-3.72
-3.83
-3.86
-3.55
-2.75
-1.49
0.01
1.52
2.87
4.04
5.11
6.16
7.22
8.25
9.24
10.25
11.34
12.58
13.94
15.24
16.31
17.00
17.31
17.34
17.21
17.01
16.74
16.39
15.92
15.36
14.78
14.16
13.39
12.23
10.42
7.82
4.54
0.96
-2.42
-5.19
-7.20
-8.58
-9.60
-10.51
-11.35
-11.97
-12.10
-11.57
-10.39
-8.74
-6.91
-5.16
-3.66
-2.49
-1.64
-1.09
-0.71
-0.36
0.13
0.89
1.92
3.08
4.15
4.88
5.15
4.99
4.59
4.18
3.93
3.92
4.01
3.98
3.62
2.84
1.71
0.37
-1.03
-2.46
-4.05
-6.05
-8.64
-11.88
-15.53
-19.09
-21.77
-22.76
-21.36
-17.35
-11.03
-3.26
4.77
11.94
17.46
21.03
22.86
23.38
23.14
22.50
21.69
20.82
19.87
18.80
17.52
15.94
13.96
11.63
9.10
6.58
4.37
2.66
1.56
1.00
0.81
0.78
0.72
0.58
0.41
0.31
0.44
0.84
1.52
2.41
3.39
4.35
5.23
5.97
6.55
6.99
7.30
7.50
7.67
7.85
8.08
8.35
8.59
8.69
8.50
7.94
6.96
5.61
3.98
2.24
0.59
-0.78
-1.75
-2.30
-2.53
-2.58
-2.60
-2.66
-2.67
-2.52
-2.09
-1.33
-0.28
0.98
2.35
3.76
5.14
6.41
7.44
8.14
8.40
8.20
7.58
6.66
5.56
4.45
3.46
2.67
2.11
1.72
1.41
1.02
0.46
-0.29
-1.21
-2.20
-3.15
-3.98
-4.65
-5.12
-5.37
-5.40
-5.28
-5.15
-5.22
-5.61
-6.35
-7.34
-8.37
-9.30
-10.07
-10.72
-11.26
-11.69
-11.86
-11.65
-11.06
-10.23
-9.43
-8.93
-8.83
-9.14
-9.67
-10.28
-10.86
-11.35
-11.80
-12.28
-12.88
-13.62
-14.46
-15.26
-15.77
-15.77
-15.11
-13.85
-12.17
-10.40
-8.82
-7.58
-6.69
-6.06
-5.61
-5.26
-4.99
-4.77
-4.52
-4.21
-3.91
-3.85
-4.29
-5.41
-7.10
-8.98
-10.54
-11.37
-11.36
-10.73
-9.89
-9.17
-8.68
-8.29
-7.74
-6.88
-5.64
-4.17
-2.62
-1.16
0.17
1.36
2.47
3.51
4.41
5.05
5.29
5.00
4.23
3.12
1.94
0.94
0.33
0.12
0.20
0.40
0.56
0.55
0.36
-0.06
-0.68
-1.50
-2.44
-3.42
-4.28
-4.86
-5.02
-4.64
-3.73
-2.34
-0.61
1.33
3.41
5.63
8.06
10.71
13.50
16.19
18.43
19.92
20.58
20.52
20.04
19.43
18.86
18.39
17.93
17.40
16.75
16.00
15.21
14.44
13.71
13.03
12.34
11.55
10.61
9.44
8.05
6.47
4.77
2.98
1.11
-0.81
-2.73
-4.48
-5.83
-6.62
-6.78
-6.41
-5.73
-4.95
-4.17
-3.30
-2.14
-0.54
1.43
3.37
4.70
4.86
3.62
1.19
-1.87
-4.86
-7.24
-8.86
-9.84
-10.45
-10.89
-11.17
-11.15
-10.73
-9.95
-9.06
-8.44
-8.43
-9.20
-10.68
-12.60
-14.62
-16.38
-17.61
-18.19
-18.05
-17.20
-15.69
-13.58
-10.93
-7.76
-4.11
-0.09
4.08
8.01
11.32
13.62
14.74
14.74
13.88
12.53
11.02
9.63
8.43
7.41
6.46
5.45
4.34
3.14
2.03
1.22
0.89
1.06
1.57
2.18
2.66
2.90
2.98
3.00
3.09
3.30
3.58
3.89
4.20
4.54
4.91
5.28
5.64
5.93
6.21
6.57
7.14
8.00
9.05
10.10
10.86
11.07
10.61
9.56
8.12
6.56
5.15
4.04
3.25
2.69
2.17
1.53
0.65
-0.48
-1.79
-3.17
-4.55
-5.84
-7.01
-7.98
-8.67
-9.02
-9.07
-8.95
-8.84
-8.89
-9.18
-9.62
-10.12
-10.53
-10.82
-10.98
-11.03
-11.00
-10.90
-10.74
-10.51
-10.19
-9.78
-9.25
-8.67
-8.16
-7.89
-7.94
-8.33
-8.99
-9.84
-10.93
-12.31
-14.00
-15.82
-17.37
-18.15
-17.69
-15.82
-12.67
-8.65
-4.32
-0.18
3.42
6.29
8.34
9.49
9.69
8.92
7.30
5.09
2.68
0.49
-1.17
-2.19
-2.70
-2.95
-3.21
-3.61
-4.11
-4.59
-4.88
-4.88
-4.64
-4.33
-4.26
-4.76
-6.08
-8.25
-11.08
-14.15
-16.88
-18.75
-19.47
-19.05
-17.89
-16.60
-15.93
-16.43
-18.33
-21.46
-25.22
-28.80
-31.34
-32.20
-31.12
-28.16
-23.79
-18.62
-13.35
-8.59
-4.76
-2.08
-0.56
0.01
-0.04
-0.28
-0.30
0.22
1.40
3.15
5.22
7.34
9.30
11.11
12.91
15.01
17.72
21.18
25.32
29.81
34.08
37.44
39.24
38.99
36.57
32.18
26.42
20.16
14.28
9.52
6.20
4.23
3.18
2.49
1.68
0.57
-0.77
-2.16
-3.39
-4.33
-4.91
-5.04
-4.51
-3.12
-0.73
2.54
6.31
10.01
13.12
15.38
16.78
17.58
18.07
18.42
18.65
18.65
18.35
17.84
17.23
16.67
16.12
15.49
14.63
13.47
12.08
10.60
9.13
7.64
6.06
4.32
2.46
0.73
-0.57
-1.28
-1.41
-1.19
-0.93
-0.86
-0.96
-1.04
-0.81
-0.08
1.09
2.41
3.47
3.89
3.58
2.74
1.83
1.36
1.70
2.92
4.80
6.90
8.72
9.86
10.07
9.33
7.79
5.74
3.54
1.49
-0.23
-1.64
-2.92
-4.31
-6.03
-8.09
-10.36
-12.55
-14.29
-15.30
-15.45
-14.79
-13.60
-12.23
-11.03
-10.23
-9.84
-9.75
-9.69
-9.46
-8.98
-8.31
-7.62
-7.03
-6.62
-6.35
-6.10
-5.81
-5.47
-5.18
-5.01
-5.05
-5.23
-5.39
-5.38
-5.05
-4.40
-3.50
-2.46
-1.41
-0.43
0.38
0.99
1.40
1.65
1.86
2.17
2.69
3.46
4.40
5.39
6.29
7.01
7.46
7.63
7.55
7.24
6.76
6.15
5.44
4.62
3.74
2.90
2.27
2.06
2.38
3.16
4.16
5.04
5.53
5.50
5.04
4.31
3.48
2.61
1.73
0.81
-0.18
-1.25
-2.46
-3.91
-5.65
-7.63
-9.60
-11.22
-12.19
-12.37
-11.88
-11.06
-10.23
-9.66
-9.37
-9.21
-8.98
-8.45
-7.50
-6.13
-4.39
-2.40
-0.30
1.74
3.64
5.35
6.93
8.51
10.19
12.08
14.20
16.51
18.88
21.08
22.82
23.80
23.73
22.46
19.98
16.47
12.24
7.73
3.41
-0.30
-3.06
-4.78
-5.55
-5.66
-5.44
-5.12
-4.71
-4.05
-2.90
-1.14
1.11
3.55
5.84
7.69
8.99
9.85
10.42
10.92
11.45
11.99
12.45
12.72
12.77
12.69
12.67
12.90
13.40
13.99
14.32
14.06
13.10
11.60
9.91
8.39
7.18
6.24
5.34
4.32
3.12
1.82
0.53
-0.62
-1.63
-2.52
-3.29
-3.97
-4.51
-4.93
-5.28
-5.69
-6.26
-7.08
-8.10
-9.17
-10.10
-10.75
-11.07
-11.16
-11.21
-11.40
-11.90
-12.80
-14.08
-15.72
-17.58
-19.52
-21.37
-23.01
-24.42
-25.70
-26.91
-28.02
-28.76
-28.75
-27.58
-25.09
-21.38
-16.86
-12.02
-7.30
-2.98
0.82
4.05
6.66
8.56
9.73
10.20
10.12
9.68
9.08
8.41
7.71
6.95
6.11
5.24
4.45
3.93
3.83
4.28
5.27
6.65
8.16
9.45
10.27
10.46
10.12
9.48
8.78
8.15
7.50
6.60
5.22
3.27
0.93
-1.45
-3.47
-4.83
-5.45
-5.39
-4.81
-3.85
-2.60
-1.11
0.58
2.37
4.17
5.82
7.23
8.33
9.15
9.82
10.46
11.21
12.01
12.74
13.21
13.27
12.95
12.41
11.84
11.33
10.83
10.16
9.14
7.63
5.68
3.44
1.18
-0.87
-2.46
-3.44
-3.72
-3.33
-2.46
-1.36
-0.38
0.21
0.34
0.09
-0.30
-0.68
-1.10
-1.90
-3.49
-6.13
-9.58
-13.16
-15.94
-17.17
-16.59
-14.54
-11.79
-9.19
-7.35
-6.57
-6.82
-7.94
-9.74
-11.98
-14.35
-16.46
-17.88
-18.30
-17.72
-16.40
-14.84
-13.52
-12.76
-12.51
-12.42
-11.94
-10.55
-8.08
-4.69
-0.89
2.71
5.63
7.73
9.17
10.31
11.49
12.88
14.52
16.36
18.30
20.23
21.91
22.95
22.94
21.57
18.83
15.09
10.90
6.73
2.74
-1.33
-5.95
-11.55
-18.25
-25.89
-34.07
-42.44
-50.83
-59.28
-67.94
-76.82
-85.63
-93.72
-100.22
-104.27
-105.33
-103.42
-99.17
-93.67
-88.10
-83.34
-79.68
-76.89
-74.38
-71.60
-68.25
-64.46
-60.52
-56.67
-52.82
-48.42
-42.68
-34.84
-24.68
-12.71
-0.17
11.45
20.78
27.17
30.73
32.13
32.20
31.53
30.35
28.62
26.33
23.62
20.74
17.91
15.17
12.43
9.64
7.01
4.97
3.98
4.15
5.02
5.72
5.54
4.22
2.31
0.87
1.00
3.20
6.99
10.97
13.28
12.39
7.53
-0.91
-11.26
-20.63
-25.46
-22.52
-10.17
10.60
36.40
62.02
82.30
93.97
96.54
92.05
83.56
73.60
63.38
53.88
45.93
40.65
39.43
43.33
52.53
65.98
81.65
97.04
111.49
124.06
133.23
137.22
135.20
128.84
122.64
122.60
133.76
161.12
205.15
261.79
323.82
383.26
433.24
468.60
485.55
481.49
459.50
424.46
382.26
338.71
298.82
266.35
243.27
229.34
201.35
145.10
57.59
-50.39
-160.80
-257.95
-333.05
-383.75
-410.27
-419.54
-414.17
-396.59
-370.20
-339.55
-309.26
-282.42
-260.97
-245.08
-234.38
-224.94
-213.59
-198.78
-180.87
-161.56
-142.85
-126.42
-113.30
-104.18
-96.97
-89.65
-80.90
-70.66
-59.84
-49.72
-41.39
-35.31
-31.60
-28.81
-25.62
-21.26
-15.78
-9.85
-4.28
0.26
3.48
5.29
6.23
6.80
7.26
7.64
7.78
7.51
6.74
5.49
3.88
2.13
0.41
-1.16
-2.58
-3.94
-5.36
-6.99
-8.86
-10.88
-12.91
-14.75
-16.28
-17.44
-18.23
-18.64
-18.65
-18.23
-17.37
-16.13
-14.61
-12.93
-11.16
-9.30
-7.31
-5.24
-3.18
-1.28
0.33
1.59
2.54
3.26
3.78
4.15
4.33
4.33
4.12
3.70
3.03
2.10
0.98
-0.15
-1.01
-1.33
-1.06
-0.44
0.03
-0.22
-1.58
-4.04
-7.18
-10.39
-13.05
-14.80
-15.51
-15.25
-14.15
-12.30
-9.83
-6.92
-3.88
-1.06
1.25
2.91
3.95
4.53
4.84
5.06
5.32
5.67
6.09
6.49
6.73
6.72
6.43
5.92
5.23
4.43
3.42
2.09
0.31
-1.94
-4.56
-7.34
-10.09
-12.72
-15.16
-17.38
-19.31
-20.77
-21.58
-21.57
-20.70
-18.94
-16.34
-12.95
-8.79
-3.91
1.55
7.31
12.97
18.05
22.07
24.67
25.62
24.93
22.87
19.96
16.92
14.40
12.87
12.36
12.52
12.78
12.64
11.84
10.48
8.80
7.09
5.47
3.92
2.38
0.78
-0.78
-2.18
-3.25
-3.90
-4.13
-3.97
-3.49
-2.71
-1.60
-0.14
1.72
3.97
6.56
9.38
12.26
15.04
17.47
19.36
20.53
20.92
20.66
19.96
19.19
18.63
18.42
18.54
18.81
19.03
19.04
18.69
17.84
16.32
14.03
10.92
7.12
2.85
-1.58
-5.86
-9.81
-13.32
-16.40
-19.20
-21.89
-24.61
-27.36
-29.96
-32.17
-33.82
-35.01
-36.17
-37.93
-40.87
-45.19
-50.67
-56.71
-62.68
-68.16
-73.18
-78.24
-84.26
-92.32
-103.39
-117.79
-134.75
-152.18
-166.85
-175.21
-174.43
-163.45
-143.18
-116.28
-85.92
-54.78
-24.24
5.87
36.90
70.83
109.31
152.87
200.15
247.89
291.52
326.37
348.97
357.68
352.64
334.93
305.92
267.04
220.26
168.79
117.33
71.55
37.06
18.16
17.03
33.39
64.67
106.49
153.10
198.16
235.66
260.91
271.38
267.04
250.18
224.60
194.48
163.44
133.81
106.45
81.15
57.28
34.68
14.17
-2.61
-13.92
-19.01
-18.89
-16.44
-15.60
-19.99
-31.48
-49.45
-71.07
-92.39
-109.81
-121.20
-126.23
-126.06
-122.68
-118.29
-114.94
-114.36
-117.74
-125.54
-137.22
-151.26
-165.41
-177.32
-185.20
-188.34
-187.14
-182.75
-176.61
-169.82
-162.96
-156.00
-148.49
-139.87
-129.66
-117.79
-104.56
-90.64
-76.85
-63.98
-52.60
-42.86
-34.61
-27.37
-20.63
-13.99
-7.37
-1.02
4.58
8.94
11.79
13.17
13.41
12.92
12.05
11.03
9.91
8.74
7.60
6.59
5.86
5.46
5.39
5.63
6.14
6.89
7.84
8.87
9.78
10.31
10.19
9.32
7.79
5.95
4.24
3.07
2.64
2.89
3.59
4.46
5.27
5.88
6.27
6.35
6.03
5.12
3.43
0.82
-2.76
-7.18
-12.10
-17.02
-21.39
-24.71
-26.73
-27.52
-27.42
-26.89
-26.33
-25.96
-25.83
-25.82
-25.70
-25.21
-24.12
-22.27
-19.66
-16.44
-12.86
-9.16
-5.46
-1.78
1.95
5.72
9.38
12.61
15.05
16.51
16.95
16.57
15.67
14.46
13.09
11.59
9.99
8.34
6.74
5.20
3.66
1.89
-0.35
-3.24
-6.72
-10.51
-14.19
-17.31
-19.54
-20.69
-20.76
-19.88
-18.35
-16.50
-14.74
-13.42
-12.72
-12.70
-13.21
-14.08
-15.10
-16.07
-16.78
-17.05
-16.75
-15.87
-14.62
-13.37
-12.51
-12.29
-12.71
-13.49
-14.14
-14.18
-13.30
-11.39
-8.63
-5.40
-2.13
0.86
3.47
5.82
8.12
10.54
13.03
15.43
17.56
19.33
20.84
22.25
23.74
25.37
27.21
29.29
31.66
34.36
37.20
39.83
41.72
42.35
41.46
39.14
35.77
31.89
27.93
24.10
20.40
16.75
13.14
9.70
6.66
4.22
2.41
1.14
0.14
-0.76
-1.68
-2.67
-3.77
-5.09
-6.76
-8.82
-11.06
-13.13
-14.61
-15.29
-15.24
-14.76
-14.25
-13.94
-13.83
-13.77
-13.56
-13.07
-12.34
-11.53
-10.75
-10.09
-9.53
-9.03
-8.62
-8.36
-8.35
-8.63
-9.12
-9.66
-9.97
-9.83
-9.11
-7.88
-6.37
-4.91
-3.77
-3.06
-2.73
-2.62
-2.55
-2.46
-2.46
-2.73
-3.42
-4.55
-5.95
-7.34
-8.47
-9.24
-9.69
-10.00
-10.39
-11.00
-11.93
-13.18
-14.72
-16.45
-18.20
-19.76
-20.89
-21.52
-21.77
-22.04
-22.83
-24.65
-27.64
-31.42
-35.07
-37.38
-37.32
-34.45
-29.15
-22.45
-15.60
-9.58
-4.87
-1.38
1.20
3.19
4.70
5.74
6.30
6.51
6.59
6.85
7.41
8.19
8.96
9.43
9.40
8.83
7.88
6.81
5.87
5.18
4.73
4.41
4.12
3.80
3.43
3.06
2.72
2.46
2.35
2.49
2.89
3.48
4.13
4.70
5.16
5.55
6.00
6.56
7.17
7.61
7.70
7.36
6.68
5.85
5.07
4.44
3.96
3.56
3.21
2.94
2.81
2.84
3.02
3.18
3.19
2.91
2.29
1.41
0.39
-0.66
-1.67
-2.64
-3.57
-4.43
-5.13
-5.57
-5.69
-5.55
-5.26
-4.98
-4.79
-4.68
-4.56
-4.33
-3.94
-3.38
-2.71
-2.02
-1.40
-0.93
-0.63
-0.45
-0.25
0.15
0.86
1.87
3.07
4.32
5.52
6.69
7.94
9.30
10.70
11.90
12.70
12.97
12.80
12.40
11.94
11.50
10.97
10.22
9.16
7.86
6.47
5.14
3.95
2.88
1.84
0.82
-0.19
-1.10
-1.86
-2.48
-3.02
-3.57
-4.20
-4.97
-5.84
-6.74
-7.51
-8.05
-8.31
-8.36
-8.38
-8.57
-9.06
-9.88
-10.93
-12.05
-13.09
-13.94
-14.58
-15.10
-15.62
-16.36
-17.46
-18.95
-20.69
-22.36
-23.51
-23.66
-22.40
-19.48
-14.87
-8.81
-1.83
5.38
12.10
17.73
21.95
24.78
26.43
27.24
27.47
27.31
26.84
26.08
25.00
23.59
21.89
20.01
18.15
16.56
15.45
14.90
14.87
15.27
16.05
17.23
18.82
20.70
22.60
24.07
24.64
24.04
22.26
19.63
16.70
14.06
12.22
11.50
12.02
13.72
16.43
19.97
24.14
28.84
33.92
39.24
44.57
49.66
54.34
58.55
62.49
66.37
70.40
74.51
78.25
80.88
81.50
79.36
74.16
66.18
56.34
45.86
35.96
27.43
20.43
14.60
9.29
3.99
-1.37
-6.47
-10.78
-13.98
-16.26
-18.31
-21.06
-25.07
-30.27
-35.80
-40.48
-43.25
-43.75
-42.45
-40.40
-38.75
-38.28
-39.14
-40.86
-42.69
-43.90
-43.98
-42.76
-40.38
-37.18
-33.53
-29.83
-26.34
-23.21
-20.53
-18.43
-17.02
-16.38
-16.44
-16.80
-16.89
-16.12
-14.09
-10.84
-6.71
-2.28
1.99
5.81
9.11
11.93
14.26
16.01
17.08
17.37
16.90
15.73
14.02
11.88
9.44
6.79
4.00
1.14
-1.74
-4.58
-7.36
-10.13
-12.97
-16.03
-19.43
-23.17
-27.10
-30.87
-34.00
-36.03
-36.66
-35.86
-33.84
-31.00
-27.78
-24.54
-21.48
-18.66
-16.07
-13.70
-11.53
-9.61
-7.95
-6.54
-5.34
-4.36
-3.64
-3.27
-3.28
-3.59
-4.10
-4.66
-5.17
-5.61
-6.00
-6.35
-6.59
-6.69
-6.60
-6.41
-6.28
-6.37
-6.76
-7.36
-7.95
-8.35
-8.47
-8.37
-8.22
-8.13
-8.12
-8.09
-7.90
-7.50
-6.96
-6.43
-6.00
-5.68
-5.30
-4.70
-3.78
-2.62
-1.44
-0.52
-0.05
-0.04
-0.33
-0.72
-0.98
-1.00
-0.71
-0.12
0.67
1.55
2.35
2.94
3.22
3.18
2.89
2.52
2.26
2.28
2.73
3.66
5.03
6.75
8.73
10.91
13.24
15.72
18.32
21.03
23.83
26.74
29.75
32.87
36.10
39.48
43.05
46.85
50.95
55.30
59.78
64.20
68.33
72.06
75.36
78.32
81.15
84.14
87.60
91.77
96.56
101.39
105.17
106.59
104.47
98.16
87.64
73.36
55.92
35.92
14.00
-8.93
-31.60
-52.50
-70.23
-84.01
-93.82
-100.32
-104.43
-106.99
-108.60
-109.78
-111.16
-113.51
-117.54
-123.57
-131.27
-139.67
-147.52
-153.79
-157.97
-160.21
-161.02
-161.00
-160.61
-160.11
-159.71
-159.72
-160.51
-162.35
-165.20
-168.62
-171.79
-173.77
-173.74
-171.31
-166.65
-160.59
-154.43
-149.71
-147.71
-149.24
-154.30
-162.22
-171.73
-181.26
-189.09
-193.41
-192.45
-184.67
-169.17
-146.06
-116.81
-84.20
-51.83
-23.41
-1.88
11.23
16.09
14.33
8.47
1.11
-5.81
-11.51
-16.34
-21.30
-27.13
-33.62
-39.37
-42.18
-40.09
-32.16
-19.08
-2.73
14.52
30.60
44.10
54.12
60.04
61.53
58.86
53.36
47.50
44.31
46.50
55.55
71.32
92.27
115.96
139.59
160.47
176.38
185.87
188.73
186.09
180.20
173.72
168.77
166.32
165.95
166.31
165.84
163.34
158.30
150.79
141.22
130.05
117.68
104.46
90.68
76.69
62.78
49.30
36.55
24.79
14.25
5.03
-2.86
-9.52
-15.06
-19.56
-23.00
-25.35
-26.61
-26.86
-26.34
-25.25
-23.70
-21.66
-18.96
-15.46
-11.13
-6.16
-0.80
4.71
10.35
16.32
22.93
30.39
38.61
47.11
55.12
61.89
66.90
70.00
71.37
71.32
70.15
68.05
65.21
61.85
58.34
55.15
52.75
51.67
52.21
54.29
57.50
61.24
64.96
68.29
71.10
73.43
75.55
77.62
79.50
80.87
81.31
80.57
78.66
75.74
72.04
68.20
64.73
61.87
59.44
57.09
54.49
51.41
47.68
43.19
39.13
36.54
35.85
36.57
37.66
38.24
37.92
36.78
35.09
35.61
40.56
50.36
63.27
76.35
87.19
94.78
99.32
101.77
107.07
119.17
139.10
164.24
190.10
212.93
231.11
244.96
255.99
271.17
296.52
334.35
381.86
432.96
481.29
522.01
552.16
539.02
463.30
326.99
156.15
-14.09
-157.93
-265.24
-337.71
-382.73
-409.07
-419.75
-416.32
-400.98
-377.93
-352.16
-327.46
-305.71
-287.76
-274.17
-262.02
-248.39
-232.18
-214.86
-199.12
-187.30
-179.93
-176.73
-177.37
-179.84
-182.30
-184.53
-188.37
-196.27
-209.02
-224.24
-236.81
-236.87
-219.61
-185.37
-140.12
-93.51
-54.70
-28.59
-14.43
-7.73
-3.38
1.50
7.55
13.80
19.34
24.44
30.44
38.80
50.07
63.58
77.41
89.56
98.32
102.22
100.15
91.69
77.50
59.31
39.64
20.71
4.26
-8.88
-18.80
-25.97
-30.92
-34.01
-35.78
-37.14
-39.48
-44.11
-51.35
-60.38
-69.48
-76.69
-80.48
-80.30
-76.66
-70.77
-63.96
-57.16
-50.82
-44.91
-39.25
-33.68
-28.28
-23.39
-19.45
-16.88
-15.87
-16.24
-17.27
-17.75
-16.09
-10.74
-0.75
13.72
31.10
48.65
62.95
70.74
69.74
59.16
39.86
14.10
-14.93
-43.79
-69.53
-90.26
-105.36
-115.36
-121.46
-125.14
-127.81
-130.72
-134.66
-139.79
-145.14
-148.47
-146.62
-136.49
-116.53
-87.84
-54.40
-21.96
3.82
19.32
23.84
19.18
8.34
-5.71
-20.56
-34.23
-44.97
-51.33
-52.83
-50.31
-45.67
-40.65
-35.53
-28.80
-18.10
-2.15
17.84
38.51
56.37
70.19
82.04
96.01
115.54
141.03
169.28
195.23
214.37
224.51
225.93
220.37
210.01
197.09
184.28
174.96
172.72
179.89
196.25
218.57
241.55
259.80
269.56
269.67
261.30
247.09
230.10
212.97
197.52
184.55
173.82
164.24
154.33
142.71
128.59
111.94
93.42
74.09
54.97
36.74
19.57
3.27
-12.56
-28.25
-43.96
-59.53
-74.56
-88.56
-101.07
-111.81
-120.80
-128.35
-135.15
-142.05
-149.93
-159.41
-170.71
-183.57
-197.41
-211.52
-225.39
-238.83
-251.92
-264.49
-275.68
-283.57
-285.39
-278.12
-259.59
-229.13
-187.75
-137.65
-81.65
-22.82
35.46
89.46
135.34
170.07
192.56
204.27
208.82
210.49
212.29
214.78
216.10
213.18
203.42
185.97
162.03
134.26
105.73
78.97
55.37
34.98
16.94
0.19
-15.66
-29.86
-40.83
-47.00
-47.85
-44.58
-39.66
-35.73
-34.28
-35.07
-36.67
-37.77
-38.27
-39.48
-43.26
-50.59
-60.58
-70.58
-77.34
-78.59
-74.08
-65.58
-55.96
-47.85
-42.53
-39.66
-37.67
-34.83
-30.08
-23.54
-16.29
-9.72
-4.85
-1.83
-0.06
1.47
3.49
6.20
9.20
11.83
13.55
14.20
13.97
13.21
12.17
10.92
9.40
7.69
6.06
5.06
5.30
7.25
10.99
16.14
21.90
27.28
31.31
33.27
32.83
30.03
25.20
18.97
12.11
5.45
-0.28
-4.61
-7.45
-9.10
-10.09
-10.98
-12.03
-13.19
-14.06
-14.19
-13.35
-11.68
-9.68
-7.99
-7.13
-7.31
-8.38
-9.97
-11.62
-12.93
-13.56
-13.20
-11.64
-8.80
-5.01
-1.09
1.77
2.34
-0.10
-5.45
-12.70
-20.28
-26.67
-30.87
-32.63
-32.30
-30.51
-27.87
-24.78
-21.55
-18.44
-15.80
-13.93
-12.89
-12.48
-12.19
-11.52
-10.13
-8.05
-5.62
-3.29
-1.43
-0.19
0.48
0.77
0.83
0.77
0.67
0.57
0.56
0.80
1.39
2.37
3.76
5.48
7.46
9.57
11.73
13.77
15.55
16.89
17.65
17.82
17.47
16.79
15.98
15.25
14.74
14.50
14.53
14.78
15.10
15.39
15.50
15.36
14.97
14.34
13.46
12.26
10.62
8.42
5.69
2.67
-0.17
-2.25
-3.13
-2.56
-0.65
2.18
5.39
8.45
11.03
13.00
14.51
15.79
17.03
18.33
19.62
20.80
21.77
22.49
22.98
23.21
23.09
22.43
21.08
19.03
16.44
13.66
11.07
8.93
7.30
6.07
4.99
3.84
2.48
0.87
-0.96
-2.95
-4.99
-6.91
-8.47
-9.41
-9.52
-8.80
-7.45
-5.79
-4.21
-2.92
-1.90
-0.93
0.24
1.72
3.39
5.02
6.34
7.23
7.78
8.17
8.62
9.22
9.92
10.51
10.82
10.72
10.22
9.49
8.84
8.56
8.88
9.78
11.01
12.10
12.58
12.17
10.83
8.82
6.57
4.58
3.24
2.82
3.39
4.92
7.26
10.16
13.38
16.64
19.71
22.44
24.71
26.37
27.13
26.48
23.80
18.52
10.51
0.32
-10.74
-20.92
-28.54
-32.59
-33.06
-30.84
-27.31
-23.81
-21.18
-19.69
-19.12
-19.13
-19.48
-20.11
-20.98
-22.07
-23.18
-24.06
-24.50
-24.50
-24.18
-23.76
-23.37
-22.89
-22.01
-20.33
-17.63
-13.91
-9.48
-4.78
-0.27
3.71
6.97
9.46
11.29
12.63
13.76
14.94
16.39
18.20
20.33
22.65
25.04
27.45
29.93
32.59
35.54
38.78
42.16
45.33
47.66
48.44
46.84
42.30
34.61
24.12
11.73
-1.31
-13.66
-24.19
-32.16
-37.34
-39.90
-40.41
-39.60
-38.30
-37.20
-36.72
-36.90
-37.42
-37.80
-37.62
-36.77
-35.42
-33.98
-32.86
-32.16
-31.69
-30.97
-29.50
-26.98
-23.53
-19.66
-16.05
-13.26
-11.46
-10.32
-9.12
-7.08
-3.56
1.83
9.18
18.43
29.33
41.24
53.21
64.38
74.61
84.92
97.12
112.70
131.43
150.64
165.73
171.86
165.83
147.07
117.45
80.18
38.64
-4.10
-45.11
-81.38
-109.99
-128.92
-137.83
-138.36
-133.55
-126.68
-120.28
-115.69
-113.18
-112.47
-113.24
-115.19
-118.05
-121.37
-124.51
-126.74
-127.49
-126.50
-123.95
-120.35
-116.30
-112.27
-108.24
-103.70
-97.65
-88.94
-76.56
-60.11
-40.06
-17.84
4.40
24.35
40.07
50.50
55.66
56.41
54.07
49.92
44.98
39.95
35.31
31.41
28.46
26.50
25.24
24.18
22.79
20.70
17.94
14.85
11.84
9.22
6.97
4.82
2.43
-0.44
-3.76
-7.29
-10.61
-13.30
-14.98
-15.48
-14.83
-13.32
-11.38
-9.51
-8.02
-7.01
-6.35
-5.79
-5.08
-4.02
-2.47
-0.33
2.32
5.15
7.45
8.22
6.58
2.02
-5.15
-13.92
-22.84
-30.46
-35.71
-38.10
-37.85
-35.82
-33.35
-32.12
-33.72
-39.19
-48.60
-60.81
-73.76
-84.96
-92.13
-93.66
-88.69
-77.05
-59.15
-36.10
-9.63
17.96
44.21
67.08
85.28
98.43
106.77
110.72
110.72
107.17
100.74
92.52
83.89
76.04
69.53
64.01
58.52
52.13
44.48
36.08
28.08
21.74
17.81
16.25
16.37
17.24
18.06
18.37
17.87
16.27
13.11
7.90
0.53
-8.64
-18.49
-27.45
-33.99
-37.29
-37.42
-35.04
-31.00
-25.90
-20.17
-14.10
-7.97
-2.25
2.47
5.56
6.60
5.38
1.98
-3.70
-11.18
-19.15
-25.65
-28.78
-27.53
-22.09
-13.84
-4.68
2.47
5.87
5.62
3.56
2.06
3.11
7.67
15.39
24.40
29.28
25.06
9.69
-15.08
-44.87
-74.61
-100.10
-118.91
-130.78
-140.76
-153.09
-168.60
-184.52
-197.34
-205.42
-209.45
-211.83
-215.69
-228.73
-255.89
-296.36
-343.65
-389.25
-426.10
-450.05
-460.25
-428.43
-344.98
-223.97
-96.05
12.83
92.74
146.25
180.33
201.20
213.08
213.88
202.78
182.74
160.46
142.04
130.51
126.08
127.19
131.90
134.87
132.62
125.09
115.88
108.82
106.06
108.13
114.62
125.04
136.68
148.35
156.58
161.81
165.50
168.85
172.76
178.37
187.35
200.55
218.53
240.80
265.55
288.15
302.15
301.73
284.28
251.77
209.78
165.90
127.15
98.59
81.75
75.18
75.83
80.42
86.18
91.06
93.61
92.85
88.58
80.86
69.92
56.17
40.19
22.95
6.02
-8.53
-18.67
-23.13
-22.52
-19.45
-17.89
-21.76
-33.54
-53.42
-79.52
-108.54
-136.56
-159.85
-175.69
-183.29
-184.76
-185.55
-193.35
-215.51
-255.55
-310.67
-371.67
-425.90
-461.71
-472.67
-459.11
-426.74
-383.39
-335.62
-287.02
-238.49
-189.93
-141.88
-96.24
-55.61
-22.05
4.11
24.46
41.68
58.22
75.20
92.01
106.89
118.15
125.21
128.99
131.47
134.64
139.50
145.62
151.57
155.72
157.11
155.85
153.01
150.11
148.40
148.43
149.83
151.54
152.23
150.83
146.91
140.81
133.41
125.76
118.68
112.49
107.00
101.74
96.23
90.18
83.62
76.86
70.27
64.21
58.91
54.46
50.85
47.98
45.77
44.10
42.88
42.11
41.89
42.46
44.10
47.11
51.60
57.49
64.42
71.67
78.09
82.13
82.09
76.51
64.84
47.78
27.31
6.16
-12.98
-28.15
-38.54
-44.35
-46.54
-46.44
-45.61
-45.57
-47.60
-52.32
-59.43
-67.72
-75.50
-81.26
-84.30
-84.98
-84.45
-84.11
-84.99
-87.41
-91.01
-94.96
-98.36
-100.49
-100.96
-99.71
-96.86
-92.62
-87.25
-81.08
-74.54
-68.24
-62.78
-58.59
-55.70
-53.67
-51.74
-49.10
-45.26
-40.17
-34.17
-27.79
-21.43
-15.26
-9.21
-3.14
2.99
9.04
14.70
19.70
23.91
27.36
30.19
32.51
34.25
35.26
35.32
34.36
32.56
30.31
28.14
26.51
25.67
25.57
25.94
26.42
26.70
26.67
26.36
25.89
25.33
24.58
23.52
22.07
20.42
18.92
18.03
17.98
18.72
19.94
21.27
22.52
23.75
25.20
27.03
29.20
31.39
33.14
34.12
34.20
33.56
32.43
31.01
29.39
27.49
25.26
22.76
20.24
18.06
16.49
15.68
15.55
15.87
16.40
17.06
17.87
18.92
20.18
21.49
22.58
23.21
23.29
22.95
22.47
22.12
22.03
22.13
22.20
21.94
21.14
19.72
17.70
15.22
12.48
9.71
7.16
4.97
3.13
1.45
-0.45
-2.90
-6.11
-9.92
-13.89
-17.36
-19.76
-20.81
-20.58
-19.42
-17.82
-16.17
-14.70
-13.45
-12.38
-11.41
-10.48
-9.54
-8.62
-7.73
-6.86
-5.99
-5.05
-3.95
-2.60
-1.05
0.50
1.74
2.42
2.45
1.99
1.40
1.06
1.17
1.64
2.20
2.51
2.32
1.59
0.45
-0.76
-1.75
-2.24
-2.10
-1.35
-0.13
1.40
3.09
4.85
6.69
8.58
10.45
12.18
13.56
14.50
15.00
15.21
15.34
15.58
16.00
16.57
17.21
17.82
18.36
18.84
19.23
19.52
19.64
19.55
19.24
18.65
17.73
16.37
14.47
12.05
9.34
6.80
4.93
4.11
4.41
5.56
7.11
8.59
9.70
10.41
10.83
11.11
11.29
11.29
10.93
10.11
8.83
7.23
5.52
3.89
2.41
1.11
-0.06
-1.14
-2.16
-3.14
-4.07
-4.96
-5.78
-6.53
-7.22
-7.93
-8.78
-9.87
-11.27
-12.96
-14.81
-16.67
-18.33
-19.62
-20.37
-20.46
-19.86
-18.62
-16.92
-14.91
-12.70
-10.33
-7.83
-5.28
-2.87
-0.84
0.65
1.58
2.13
2.56
3.09
3.79
4.57
5.24
5.68
5.82
5.70
5.43
5.04
4.58
4.02
3.37
2.62
1.76
0.77
-0.40
-1.73
-3.09
-4.24
-4.86
-4.73
-3.76
-2.12
-0.16
1.79
3.51
4.99
6.35
7.73
9.15
10.49
11.59
12.30
12.62
12.74
12.94
13.46
14.38
15.54
16.64
17.37
17.59
17.37
16.95
16.56
16.32
16.16
15.85
15.18
14.07
12.60
10.88
8.94
6.73
4.12
1.11
-2.09
-5.05
-7.27
-8.45
-8.59
-7.96
-6.97
-5.95
-5.08
-4.33
-3.61
-2.80
-1.88
-0.89
0.09
0.91
1.47
1.67
1.55
1.20
0.74
0.28
-0.18
-0.67
-1.21
-1.75
-2.15
-2.30
-2.19
-2.02
-2.05
-2.55
-3.66
-5.29
-7.23
-9.22
-10.97
-12.30
-13.07
-13.21
-12.72
-11.69
-10.28
-8.63
-6.87
-5.10
-3.39
-1.82
-0.40
0.90
2.18
3.55
5.05
6.57
7.93
8.93
9.54
9.87
10.15
10.52
10.99
11.36
11.42
11.10
10.50
9.94
9.72
9.97
10.65
11.46
12.10
12.32
12.03
11.20
9.81
7.81
5.19
2.02
-1.44
-4.79
-7.64
-9.67
-10.80
-11.12
-10.81
-10.09
-9.16
-8.15
-7.23
-6.48
-5.95
-5.61
-5.36
-5.16
-4.99
-4.95
-5.17
-5.75
-6.67
-7.82
-9.00
-10.06
-10.88
-11.46
-11.85
-12.16
-12.49
-12.94
-13.57
-14.36
-15.19
-15.84
-16.06
-15.61
-14.43
-12.64
-10.46
-8.23
-6.16
-4.35
-2.76
-1.30
0.09
1.38
2.49
3.28
3.72
3.81
3.71
3.58
3.60
3.86
4.30
4.80
5.20
5.43
5.50
5.49
5.43
5.33
5.10
4.61
3.82
2.74
1.46
0.09
-1.31
-2.74
-4.20
-5.64
-6.96
-7.95
-8.43
-8.30
-7.56
-6.35
-4.84
-3.21
-1.58
-0.02
1.42
2.74
3.91
4.94
5.81
6.53
7.11
7.54
7.85
8.08
8.28
8.47
8.61
8.61
8.35
7.80
6.96
5.95
4.90
3.89
2.97
2.13
1.35
0.63
-0.02
-0.56
-1.02
-1.41
-1.77
-2.06
-2.21
-2.10
-1.62
-0.69
0.66
2.32
4.16
6.03
7.83
9.48
10.88
11.90
12.37
12.24
11.51
10.32
8.82
7.16
5.43
3.64
1.84
0.08
-1.54
-2.97
-4.21
-5.29
-6.26
-7.12
-7.84
-8.36
-8.72
-9.05
-9.49
-10.09
-10.72
-11.10
-10.94
-10.04
-8.42
-6.29
-3.92
-1.49
0.95
3.50
6.25
9.19
12.19
14.93
16.99
17.94
17.42
15.32
11.84
7.51
3.00
-1.02
-4.20
-6.49
-8.11
-9.39
-10.52
-11.55
-12.47
-13.31
-14.22
-15.45
-17.13
-19.18
-21.31
-23.06
-24.06
-24.08
-23.15
-21.50
-19.41
-17.19
-15.05
-13.15
-11.58
-10.38
-9.51
-8.90
-8.46
-8.07
-7.65
-7.11
-6.43
-5.65
-4.84
-4.17
-3.83
-3.92
-4.42
-5.16
-5.88
-6.32
-6.35
-5.99
-5.41
-4.89
-4.67
-4.90
-5.59
-6.58
-7.63
-8.42
-8.72
-8.39
-7.49
-6.14
-4.56
-2.97
-1.51
-0.29
0.65
1.32
1.81
2.25
2.76
3.44
4.27
5.14
5.87
6.31
6.40
6.15
5.68
5.15
4.70
4.40
4.22
4.02
3.59
2.73
1.32
-0.59
-2.78
-4.91
-6.58
-7.47
-7.47
-6.62
-5.15
-3.36
-1.54
0.09
1.39
2.36
3.06
3.58
4.01
4.39
4.73
5.01
5.24
5.41
5.53
5.52
5.31
4.81
4.01
3.02
2.05
1.35
1.03
1.05
1.28
1.51
1.63
1.62
1.48
1.19
0.66
-0.25
-1.54
-3.10
-4.66
-5.93
-6.72
-7.01
-6.89
-6.47
-5.85
-5.05
-4.11
-3.09
-2.12
-1.32
-0.78
-0.50
-0.45
-0.57
-0.83
-1.17
-1.58
-2.02
-2.50
-3.04
-3.65
-4.37
-5.14
-5.92
-6.69
-7.51
-8.48
-9.65
-10.98
-12.28
-13.26
-13.71
-13.50
-12.69
-11.44
-9.91
-8.23
-6.50
-4.78
-3.16
-1.72
-0.53
0.43
1.24
2.08
3.06
4.26
5.64
7.05
8.32
9.28
9.85
10.02
9.85
9.48
8.97
8.37
7.59
6.51
5.03
3.09
0.73
-1.94
-4.75
-7.48
-9.92
-11.82
-12.97
-13.27
-12.75
-11.58
-10.00
-8.29
-6.65
-5.19
-3.96
-2.92
-2.03
-1.20
-0.39
0.40
1.07
1.52
1.68
1.57
1.33
1.13
1.08
1.19
1.39
1.54
1.56
1.42
1.13
0.70
0.12
-0.68
-1.72
-2.95
-4.25
-5.42
-6.28
-6.72
-6.67
-6.13
-5.12
-3.68
-1.89
0.11
2.12
3.94
5.43
6.52
7.23
7.63
7.82
7.87
7.84
7.82
7.82
7.84
7.83
7.71
7.45
7.05
6.56
6.04
5.49
4.81
3.92
2.79
1.47
0.12
-1.12
-2.15
-2.96
-3.55
-3.95
-4.13
-4.02
-3.59
-2.90
-2.07
-1.23
-0.45
0.27
0.97
1.73
2.62
3.66
4.78
5.82
6.59
6.89
6.66
5.94
5.05
4.42
4.40
5.05
6.09
7.00
7.23
6.46
4.68
2.46
0.59
-0.26
0.04
1.00
1.77
1.59
0.12
-2.51
-5.15
-6.37
-5.15
-1.52
3.32
7.58
9.79
9.34
6.41
2.84
0.82
1.82
5.62
10.39
13.85
14.50
12.32
8.24
4.96
5.21
11.18
24.29
45.32
74.60
111.59
153.89
189.88
206.65
195.17
157.13
104.88
53.99
15.20
-8.83
-20.00
-25.72
-30.18
-34.11
-36.18
-35.38
-32.42
-29.32
-28.61
-31.03
-36.27
-41.88
-45.12
-44.22
-39.33
-32.42
-26.20
-22.84
-23.15
-27.02
-32.64
-37.96
-41.40
-42.48
-41.90
-40.94
-40.66
-41.46
-43.22
-44.99
-45.70
-44.73
-42.20
-39.00
-36.31
-35.05
-35.50
-37.39
-39.79
-41.59
-41.84
-39.94
-35.73
-29.40
-21.30
-11.86
-1.54
9.15
19.67
29.35
37.48
43.40
46.66
47.21
45.47
42.33
38.85
36.06
34.65
34.82
36.30
38.51
40.73
42.34
42.96
42.51
41.27
39.72
38.47
37.94
38.21
38.99
39.80
40.34
40.81
42.02
45.14
51.14
60.32
72.01
84.78
96.94
107.19
115.06
121.00
126.05
131.44
138.00
145.85
154.14
161.21
164.91
163.26
155.09
140.47
120.63
97.49
72.77
47.33
20.89
-7.60
-39.19
-74.03
-110.93
-147.36
-180.00
-205.60
-221.78
-227.52
-223.30
-210.93
-193.14
-173.00
-153.43
-136.70
-124.15
-116.12
-112.06
-110.86
-111.21
-111.85
-111.81
-110.49
-107.76
-103.89
-99.53
-95.43
-92.16
-89.81
-87.91
-85.64
-82.16
-77.05
-70.48
-63.14
-55.86
-49.27
-43.53
-38.39
-33.30
-27.73
-21.39
-14.24
-6.50
1.46
9.23
16.48
23.02
28.73
33.58
37.53
40.49
42.34
42.92
42.08
39.68
35.66
30.10
23.32
16.01
9.07
3.39
-0.46
-2.51
-3.30
-3.70
-4.47
-5.98
-8.12
-10.53
-12.83
-14.87
-16.67
-18.36
-20.00
-21.51
-22.68
-23.29
-23.25
-22.58
-21.42
-19.92
-18.18
-16.10
-13.47
-10.07
-5.74
-0.54
5.28
11.35
17.26
22.76
27.73
32.20
36.26
39.99
43.40
46.37
48.72
50.21
50.68
50.07
48.47
46.13
43.32
40.34
37.42
34.72
32.28
30.03
27.93
25.87
23.87
21.98
20.28
18.87
17.75
16.85
16.03
15.16
14.15
13.03
11.86
10.70
9.51
8.21
6.66
4.85
2.86
0.90
-0.83
-2.19
-3.19
-3.98
-4.74
-5.61
-6.57
-7.56
-8.48
-9.33
-10.19
-11.16
-12.30
-13.53
-14.65
-15.45
-15.84
-15.82
-15.54
-15.13
-14.69
-14.14
-13.36
-12.26
-10.82
-9.20
-7.59
-6.17
-5.02
-4.09
-3.26
-2.40
-1.47
-0.51
0.36
1.04
1.42
1.46
1.14
0.47
-0.57
-1.95
-3.60
-5.36
-7.00
-8.31
-9.22
-9.86
-10.52
-11.48
-12.90
-14.71
-16.60
-18.18
-19.16
-19.46
-19.23
-18.82
-18.53
-18.56
-18.91
-19.40
-19.80
-19.86
-19.40
-18.42
-16.93
-15.05
-12.84
-10.43
-7.98
-5.73
-4.04
-3.23
-3.55
-4.95
-7.16
-9.68
-11.96
-13.58
-14.36
-14.39
-13.92
-13.22
-12.46
-11.60
-10.51
-9.05
-7.28
-5.53
-4.35
-4.31
-5.79
-8.71
-12.53
-16.36
-19.29
-20.80
-21.02
-20.72
-21.03
-22.93
-26.77
-32.14
-38.05
-43.46
-47.92
-51.81
-56.22
-62.36
-70.84
-81.25
-92.15
-101.74
-108.54
-112.11
-113.09
-112.76
-112.38
-112.57
-112.86
-111.88
-107.74
-98.66
-83.46
-62.15
-36.11
-8.26
17.40
36.72
46.91
47.95
43.20
38.54
40.16
51.85
73.19
99.67
124.64
142.22
149.66
147.84
140.07
129.90
119.57
109.57
99.52
89.39
80.17
73.72
71.78
74.97
82.25
91.08
98.30
101.27
98.87
91.75
82.02
72.19
64.07
58.12
53.53
49.00
43.65
37.65
32.08
28.36
27.44
29.25
32.69
36.16
38.14
37.88
35.48
31.79
27.84
24.24
20.92
17.11
11.84
4.52
-4.61
-14.53
-23.75
-30.94
-35.39
-37.13
-36.77
-35.14
-32.95
-30.66
-28.50
-26.57
-24.94
-23.72
-23.02
-22.84
-23.09
-23.49
-23.64
-23.11
-21.67
-19.38
-16.60
-13.85
-11.59
-9.98
-8.92
-8.06
-7.02
-5.58
-3.73
-1.64
0.47
2.40
4.02
5.28
6.13
6.57
6.52
5.97
4.89
3.34
1.49
-0.45
-2.25
-3.77
-5.02
-6.15
-7.35
-8.82
-10.65
-12.76
-14.96
-16.96
-18.44
-19.15
-18.98
-17.92
-16.20
-14.10
-11.98
-10.12
-8.66
-7.58
-6.74
-5.95
-5.10
-4.18
-3.32
-2.68
-2.34
-2.27
-2.33
-2.27
-1.88
-1.09
0.02
1.16
1.99
2.24
1.84
0.99
0.08
-0.50
-0.54
-0.12
0.44
0.71
0.39
-0.61
-2.19
-4.12
-6.07
-7.71
-8.75
-9.03
-8.48
-7.26
-5.69
-4.04
-2.57
-1.37
-0.39
0.47
1.33
2.26
3.29
4.41
5.60
6.82
8.11
9.56
11.26
13.26
15.44
17.58
19.36
20.63
21.50
22.34
23.66
25.87
29.11
33.14
37.45
41.44
44.62
46.66
47.59
47.68
47.49
47.70
48.89
51.26
54.42
57.50
59.36
59.14
56.51
51.72
45.40
38.10
30.11
21.46
12.17
2.51
-6.88
-15.17
-21.49
-25.22
-26.02
-23.86
-19.17
-12.90
-6.64
-2.30
-1.58
-5.28
-12.96
-23.12
-33.92
-43.99
-52.75
-60.21
-66.31
-70.35
-71.01
-66.90
-57.42
-43.24
-26.24
-8.87
6.52
18.14
24.95
26.53
22.98
15.02
3.90
-8.66
-20.89
-31.33
-39.18
-44.27
-46.95
-47.83
-47.59
-46.87
-46.15
-45.75
-45.62
-45.47
-44.80
-43.20
-40.56
-37.16
-33.56
-30.39
-28.13
-26.97
-26.83
-27.44
-28.46
-29.59
-30.55
-31.18
-31.36
-31.07
-30.43
-29.64
-28.94
-28.46
-28.08
-27.46
-26.15
-23.83
-20.48
-16.51
-12.50
-9.03
-6.36
-4.38
-2.71
-1.01
0.87
2.72
4.13
4.72
4.32
3.07
1.32
-0.52
-2.22
-3.75
-5.26
-6.94
-8.85
-10.87
-12.69
-13.97
-14.49
-14.29
-13.65
-13.00
-12.78
-13.27
-14.50
-16.21
-17.86
-18.83
-18.56
-16.80
-13.62
-9.42
-4.80
-0.33
3.62
6.99
9.98
12.94
16.19
19.87
23.88
27.87
31.44
34.30
36.46
38.29
40.35
43.14
46.78
50.86
54.61
57.21
58.27
58.11
57.80
58.78
62.24
68.50
76.54
84.24
88.93
88.35
81.49
68.98
52.82
35.76
20.53
9.21
2.88
1.31
2.81
4.34
2.07
-7.42
-25.87
-52.46
-84.02
-116.19
-145.04
-168.23
-185.18
-196.37
-202.32
-203.12
-198.59
-188.89
-175.07
-158.71
-141.44
-124.09
-106.55
-88.12
-68.25
-47.25
-26.30
-7.07
9.01
21.32
30.24
36.82
42.25
47.33
52.27
56.82
60.55
63.15
64.60
65.05
64.73
63.80
62.42
60.70
58.79
56.88
55.11
53.51
51.99
50.37
48.46
46.15
43.43
40.39
37.19
33.96
30.88
28.06
25.59
23.48
21.67
20.01
18.32
16.45
14.25
11.73
8.98
6.18
3.50
1.06
-1.16
-3.30
-5.48
-7.72
-9.79
-11.25
-11.64
-10.72
-8.73
-6.35
-4.47
-3.87
-4.75
-6.67
-8.71
-9.86
-9.57
-8.09
-6.44
-5.98
-7.87
-12.47
-19.12
-26.43
-32.81
-37.21
-39.40
-39.92
-39.66
-39.71
-41.27
-45.82
-54.79
-68.87
-87.06
-106.21
-121.61
-128.62
-124.53
-109.55
-86.50
-58.93
-28.98
3.68
41.21
85.23
134.47
183.86
225.91
253.80
264.56
260.35
247.38
232.58
220.48
211.35
202.02
188.34
167.78
140.31
107.59
71.22
31.90
-9.92
-52.32
-90.94
-119.70
-133.31
-129.98
-112.79
-88.60
-65.18
-48.26
-39.95
-39.30
-44.08
-52.55
-63.97
-77.96
-93.38
-107.84
-118.36
-122.69
-120.45
-113.30
-104.27
-96.29
-91.05
-88.46
-87.03
-84.85
-80.58
-73.98
-65.84
-57.38
-49.62
-42.96
-37.10
-31.40
-25.34
-18.86
-12.51
-7.19
-3.75
-2.61
-3.49
-5.63
-8.04
-9.95
-10.98
-11.25
-11.15
-11.19
-11.77
-13.06
-15.02
-17.43
-19.95
-22.25
-24.05
-25.20
-25.70
-25.62
-25.13
-24.35
-23.32
-22.07
-20.56
-18.80
-16.82
-14.68
-12.39
-9.76
-6.27
-1.05
6.88
18.25
33.12
50.62
69.17
86.85
102.21
114.62
124.43
132.68
140.48
148.62
157.17
165.34
171.58
173.72
169.39
156.84
135.85
108.55
79.40
54.25
38.44
34.73
41.95
55.10
66.93
70.27
60.17
35.15
-2.90
-49.50
-98.91
-145.31
-183.53
-209.80
-222.19
-220.98
-208.64
-189.22
-167.33
-146.86
-130.09
-117.39
-107.55
-98.74
-89.29
-78.35
-66.12
-53.63
-42.23
-33.06
-26.72
-23.02
-21.23
-20.29
-19.32
-17.77
-15.51
-12.72
-9.56
-6.07
-2.12
2.45
7.66
13.31
19.05
24.51
29.50
34.02
38.30
42.60
47.08
51.64
56.00
59.80
62.81
65.06
66.81
68.31
69.67
70.65
70.84
69.82
67.46
64.02
60.02
55.99
52.26
48.84
45.53
42.15
38.55
34.71
30.69
26.74
23.22
20.61
19.34
19.66
21.56
24.69
28.44
32.16
35.44
38.16
40.47
42.63
44.78
47.14
49.71
52.30
54.58
56.24
57.11
57.22
56.77
56.10
56.12
57.49
60.33
64.15
68.28
72.14
75.43
78.10
80.20
82.83
86.67
91.49
96.33
100.24
102.90
104.87
107.24
111.21
119.24
132.55
150.01
168.62
184.89
196.29
201.91
202.30
198.97
196.03
196.67
201.53
208.80
215.52
219.25
218.79
214.28
193.53
152.36
96.09
36.85
-13.82
-50.78
-74.62
-88.28
-94.60
-95.57
-91.05
-81.28
-68.22
-54.96
-44.37
-37.89
-35.41
-36.07
-39.27
-43.81
-46.36
-46.97
-47.39
-49.74
-55.08
-63.24
-73.26
-84.08
-93.95
-101.98
-109.14
-117.30
-128.41
-143.81
-164.05
-189.03
-217.82
-247.97
-276.04
-298.78
-313.71
-319.95
-318.50
-311.91
-303.14
-294.38
-286.03
-277.11
-266.57
-253.89
-239.42
-223.99
-208.22
-192.15
-175.30
-157.22
-137.85
-117.91
-98.60
-81.40
-67.91
-59.82
-58.78
-66.07
-82.06
-105.75
-134.47
-164.11
-189.75
-206.65
-211.38
-202.58
-181.32
-150.64
-114.69
-77.43
-41.67
-8.64
21.84
50.84
79.78
110.16
143.11
178.76
215.61
250.18
277.83
294.24
297.22
287.52
268.23
243.06
214.76
184.55
152.86
120.68
90.40
65.18
47.44
37.26
32.05
27.51
19.64
6.36
-11.98
-33.14
-54.46
-73.81
-90.16
-103.24
-112.77
-117.96
-117.44
-109.89
-94.99
-74.12
-50.29
-27.31
-8.42
4.61
11.71
13.87
12.45
8.80
4.46
1.69
3.35
11.99
28.61
51.59
76.97
99.81
116.22
124.56
125.65
121.59
114.55
105.93
96.27
85.98
75.77
66.74
59.94
55.84
54.05
53.46
52.80
51.21
48.54
45.23
42.07
39.67
38.21
37.37
36.52
35.02
32.55
29.22
25.48
21.90
18.86
16.41
14.35
12.36
10.31
8.26
6.47
5.16
4.38
3.93
3.47
2.68
1.37
-0.48
-2.78
-5.35
-7.99
-10.43
-12.34
-13.40
-13.33
-12.01
-9.64
-6.74
-3.98
-1.96
-0.90
-0.54
-0.25
0.55
2.12
4.24
6.42
8.24
9.63
10.83
12.16
13.68
15.11
15.87
15.52
13.90
11.31
8.29
5.38
3.01
1.33
0.37
-0.01
0.04
0.33
0.70
0.97
1.00
0.66
-0.17
-1.46
-3.08
-4.68
-5.78
-5.93
-4.85
-2.52
0.79
4.50
8.03
10.87
12.75
13.73
14.05
14.13
14.27
14.68
15.35
16.13
16.73
16.86
16.33
15.10
13.32
11.32
9.46
8.01
7.04
6.42
5.88
5.18
4.18
2.89
1.36
-0.37
-2.36
-4.62
-7.11
-9.57
-11.62
-12.82
-12.89
-11.82
-9.89
-7.55
-5.23
-3.19
-1.52
-0.12
1.05
1.99
2.60
2.80
2.62
2.23
1.91
1.85
2.07
2.40
2.55
2.32
1.70
0.92
0.26
-0.05
-0.01
0.15
0.11
-0.44
-1.62
-3.35
-5.38
-7.35
-8.85
-9.55
-9.23
-7.84
-5.55
-2.71
0.31
3.22
5.83
8.10
10.04
11.66
12.93
13.77
14.14
14.03
13.49
12.70
11.86
11.19
10.85
10.81
10.95
11.00
10.74
10.07
9.03
7.77
6.42
5.02
3.49
1.73
-0.32
-2.56
-4.83
-6.92
-8.65
-9.91
-10.62
-10.68
-10.03
-8.64
-6.60
-4.17
-1.72
0.42
2.10
3.40
4.58
5.82
7.18
8.50
9.54
10.12
10.23
10.00
9.61
9.17
8.66
8.02
7.19
6.21
5.12
4.02
2.97
1.98
1.10
0.34
-0.30
-0.88
-1.59
-2.63
-4.16
-6.20
-8.60
-11.05
-13.21
-14.68
-15.17
-14.54
-12.79
-10.12
-6.85
-3.35
0.06
3.09
5.65
7.69
9.28
10.48
11.41
12.17
12.86
13.55
14.23
14.89
15.40
15.64
15.53
15.02
14.16
13.06
11.84
10.60
9.33
7.92
6.21
4.15
1.82
-0.52
-2.55
-4.05
-5.00
-5.63
-6.34
-7.51
-9.38
-11.84
-14.43
-16.53
-17.54
-17.14
-15.38
-12.67
-9.55
-6.48
-3.71
-1.26
0.92
2.87
4.58
5.98
7.09
7.99
8.84
9.73
10.66
11.53
12.20
12.59
12.68
12.51
12.15
11.68
11.19
10.74
10.37
10.04
9.65
9.08
8.20
7.01
5.64
4.23
2.94
1.78
0.68
-0.50
-1.89
-3.55
-5.48
-7.63
-9.90
-12.04
-13.73
-14.58
-14.29
-12.78
-10.30
-7.28
-4.25
-1.57
0.60
2.35
3.85
5.23
6.50
7.57
8.35
8.82
9.05
9.18
9.31
9.49
9.68
9.79
9.76
9.54
9.14
8.57
7.92
7.24
6.57
5.89
5.11
4.14
2.92
1.52
0.10
-1.13
-2.05
-2.68
-3.20
-3.85
-4.84
-6.20
-7.84
-9.60
-11.31
-12.79
-13.85
-14.27
-13.88
-12.59
-10.49
-7.85
-5.03
-2.40
-0.20
1.54
2.93
4.17
5.42
6.70
7.92
8.89
9.43
9.49
9.16
8.66
8.21
7.90
7.67
7.28
6.57
5.51
4.30
3.22
2.53
2.26
2.18
1.95
1.27
0.10
-1.35
-2.71
-3.68
-4.22
-4.52
-4.94
-5.80
-7.20
-9.01
-10.93
-12.64
-13.87
-14.46
-14.38
-13.67
-12.42
-10.80
-8.94
-7.00
-5.08
-3.27
-1.65
-0.28
0.79
1.56
2.10
2.53
2.96
3.45
4.00
4.56
5.10
5.62
6.10
6.48
6.66
6.48
5.88
4.90
3.73
2.60
1.67
0.96
0.33
-0.36
-1.20
-2.16
-3.10
-3.89
-4.51
-5.09
-5.85
-6.96
-8.44
-10.15
-11.79
-13.01
-13.59
-13.43
-12.60
-11.25
-9.59
-7.74
-5.80
-3.86
-1.97
-0.23
1.26
2.43
3.23
3.71
3.94
4.05
4.15
4.29
4.45
4.59
4.61
4.48
4.18
3.74
3.21
2.66
2.16
1.74
1.39
1.03
0.54
-0.18
-1.16
-2.30
-3.40
-4.29
-4.92
-5.41
-6.02
-6.96
-8.29
-9.84
-11.31
-12.32
-12.61
-12.07
-10.76
-8.88
-6.73
-4.65
-2.95
-1.77
-1.07
-0.63
-0.12
0.68
1.82
3.12
4.30
5.08
5.34
5.15
4.67
4.09
3.57
3.19
2.96
2.88
2.92
3.00
3.04
2.95
2.65
2.06
1.17
0.02
-1.29
-2.58
-3.72
-4.61
-5.29
-5.88
-6.53
-7.40
-8.48
-9.61
-10.50
-10.80
-10.29
-8.87
-6.66
-3.91
-0.98
1.78
4.12
5.92
7.22
8.12
8.76
9.20
9.40
9.26
8.67
7.55
5.88
3.70
1.04
-2.02
-5.39
-8.91
-12.44
-15.80
-18.86
-21.50
-23.57
-24.89
-25.31
-24.76
-23.38
-21.47
-19.40
-17.55
-16.12
-15.24
-14.89
-15.06
-15.67
-16.57
-17.54
-18.22
-18.28
-17.48
-15.80
-13.43
-10.71
-8.01
-5.61
-3.63
-2.05
-0.73
0.47
1.66
2.84
3.96
4.95
5.78
6.48
7.13
7.79
8.44
9.00
9.33
9.33
9.03
8.53
7.99
7.51
7.05
6.50
5.75
4.75
3.63
2.57
1.73
1.15
0.70
0.17
-0.62
-1.72
-3.06
-4.50
-5.89
-7.14
-8.22
-9.08
-9.58
-9.53
-8.77
-7.25
-5.10
-2.63
-0.22
1.82
3.34
4.38
5.11
5.72
6.35
7.02
7.65
8.12
8.40
8.48
8.44
8.36
8.25
8.05
7.71
7.20
6.58
5.95
5.39
4.90
4.41
3.77
2.92
1.84
0.64
-0.56
-1.60
-2.43
-3.08
-3.65
-4.31
-5.20
-6.41
-7.92
-9.55
-11.00
-11.92
-12.00
-11.16
-9.54
-7.47
-5.35
-3.51
-2.10
-1.07
-0.28
0.39
1.02
1.64
2.24
2.88
3.63
4.56
5.68
6.85
7.84
8.40
8.44
8.01
7.33
6.67
6.19
5.88
5.61
5.20
4.52
3.59
2.56
1.59
0.80
0.21
-0.30
-0.83
-1.47
-2.24
-3.07
-3.88
-4.55
-4.97
-5.01
-4.59
-3.63
-2.15
-0.31
1.62
3.31
4.52
5.18
5.39
5.39
5.34
5.29
5.19
4.93
4.47
3.87
3.24
2.63
1.99
1.13
-0.09
-1.70
-3.55
-5.39
-6.97
-8.16
-8.98
-9.53
-9.94
-10.34
-10.90
-11.76
-13.05
-14.79
-16.86
-18.94
-20.63
-21.57
-21.56
-20.58
-18.79
-16.40
-13.70
-10.91
-8.21
-5.76
-3.61
-1.77
-0.21
1.15
2.37
3.47
4.45
5.29
5.93
6.35
6.58
6.68
6.73
6.80
6.92
7.11
7.32
7.48
7.49
7.20
6.50
5.30
3.64
1.67
-0.45
-2.57
-4.60
-6.51
-8.25
-9.69
-10.59
-10.79
-10.18
-8.82
-6.87
-4.56
-2.10
0.31
2.49
4.25
5.43
5.99
6.06
5.94
5.92
6.20
6.81
7.61
8.38
8.91
9.11
8.95
8.51
7.85
7.06
6.21
5.33
4.44
3.48
2.38
1.04
-0.61
-2.56
-4.65
-6.66
-8.29
-9.25
-9.36
-8.61
-7.14
-5.24
-3.22
-1.35
0.23
1.46
2.41
3.15
3.80
4.40
5.01
5.61
6.20
6.77
7.31
7.82
8.24
8.47
8.38
7.89
7.00
5.85
4.63
3.55
2.71
2.07
1.48
0.69
-0.48
-2.13
-4.16
-6.35
-8.41
-10.00
-10.88
-10.91
-10.07
-8.49
-6.37
-3.99
-1.64
0.47
2.17
3.41
4.26
4.86
5.34
5.85
6.44
7.04
7.54
7.83
7.86
7.67
7.34
6.88
6.27
5.41
4.24
2.79
1.17
-0.41
-1.88
-3.23
-4.62
-6.22
-8.09
-10.16
-12.13
-13.62
-14.26
-13.84
-12.40
-10.18
-7.56
-4.90
-2.47
-0.39
1.33
2.72
3.84
4.76
5.54
6.27
6.96
7.60
8.13
8.48
8.64
8.61
8.40
7.99
7.33
6.42
5.33
4.19
3.14
2.17
1.15
-0.11
-1.80
-3.85
-5.99
-7.83
-8.94
-9.04
-8.13
-6.38
-4.14
-1.80
0.36
2.21
3.77
5.14
6.38
7.47
8.28
8.73
8.79
8.64
8.49
8.50
8.62
8.60
8.17
7.20
5.79
4.27
2.98
2.06
1.43
0.81
-0.10
-1.43
-3.14
-5.03
-6.87
-8.49
-9.79
-10.68
-11.07
-10.87
-10.00
-8.51
-6.55
-4.34
-2.11
-0.04
1.77
3.29
4.49
5.40
6.05
6.52
6.88
7.15
7.33
7.37
7.19
6.73
6.00
5.10
4.15
3.24
2.43
1.69
0.97
0.15
-0.86
-2.17
-3.91
-6.07
-8.54
-10.96
-12.88
-13.81
-13.50
-11.96
-9.55
-6.76
-4.09
-1.80
0.05
1.58
2.97
4.38
5.84
7.26
8.48
9.31
9.64
9.50
9.04
8.45
7.88
7.33
6.69
5.81
4.65
3.29
1.96
0.82
-0.12
-1.02
-2.17
-3.83
-6.05
-8.65
-11.25
-13.36
-14.63
-14.89
-14.18
-12.69
-10.70
-8.45
-6.16
-3.95
-1.92
-0.14
1.40
2.70
3.85
4.87
5.79
6.63
7.38
8.05
8.63
9.09
9.33
9.25
8.79
7.97
6.92
5.80
4.79
3.98
3.37
2.85
2.27
1.48
0.33
-1.28
-3.38
-5.87
-8.45
-10.69
-12.10
-12.34
-11.37
-9.43
-6.98
-4.46
-2.14
-0.08
1.83
3.67
5.43
6.96
8.15
8.97
9.55
10.03
10.51
10.94
11.17
11.04
10.52
9.73
8.85
8.07
7.46
6.98
6.47
5.77
4.74
3.34
1.57
-0.50
-2.79
-5.19
-7.52
-9.61
-11.25
-12.23
-12.41
-11.72
-10.18
-7.98
-5.39
-2.73
-0.28
1.80
3.50
4.89
6.06
7.02
7.71
8.09
8.21
8.22
8.30
8.58
9.00
9.32
9.28
8.74
7.75
6.56
5.44
4.58
3.99
3.46
2.71
1.51
-0.27
-2.57
-5.18
-7.83
-10.18
-11.98
-13.01
-13.17
-12.48
-11.12
-9.36
-7.51
-5.79
-4.26
-2.87
-1.47
0.02
1.55
3.01
4.22
5.13
5.75
6.16
6.49
6.75
6.91
6.87
6.55
5.96
5.21
4.41
3.67
3.00
2.35
1.58
0.59
-0.71
-2.37
-4.34
-6.53
-8.78
-10.84
-12.43
-13.27
-13.19
-12.18
-10.43
-8.23
-5.90
-3.63
-1.51
0.47
2.35
4.12
5.69
6.96
7.84
8.37
8.66
8.89
9.20
9.60
9.94
10.01
9.66
8.87
7.81
6.76
5.94
5.44
5.15
4.81
4.11
2.82
0.87
-1.63
-4.41
-7.08
-9.26
-10.62
-10.99
-10.37
-8.93
-6.95
-4.76
-2.60
-0.62
1.13
2.67
4.05
5.33
6.56
7.79
8.99
10.09
10.96
11.51
11.75
11.75
11.60
11.37
10.99
10.31
9.23
7.72
5.95
4.20
2.69
1.49
0.48
-0.60
-1.95
-3.67
-5.65
-7.65
-9.39
-10.62
-11.15
-10.86
-9.78
-8.04
-5.89
-3.68
-1.67
-0.02
1.28
2.39
3.47
4.64
5.84
6.97
7.88
8.51
8.93
9.21
9.43
9.59
9.59
9.34
8.78
7.96
6.97
5.97
5.03
4.15
3.23
2.14
0.81
-0.75
-2.45
-4.18
-5.87
-7.53
-9.17
-10.78
-12.24
-13.34
-13.81
-13.46
-12.25
-10.29
-7.83
-5.11
-2.40
0.11
2.27
3.97
5.15
5.84
6.15
6.24
6.27
6.36
6.57
6.87
7.20
7.47
7.59
7.49
7.15
6.53
5.66
4.63
3.50
2.37
1.30
0.29
-0.70
-1.71
-2.83
-4.14
-5.72
-7.55
-9.54
-11.47
-13.05
-14.00
-14.14
-13.48
-12.12
-10.29
-8.23
-6.14
-4.17
-2.37
-0.79
0.60
1.84
2.99
4.05
5.00
5.76
6.23
6.40
6.31
6.03
5.70
5.40
5.20
5.10
5.06
4.97
4.73
4.25
3.48
2.47
1.29
0.02
-1.27
-2.58
-3.95
-5.40
-6.95
-8.52
-9.96
-11.00
-11.40
-11.02
-9.86
-8.16
-6.22
-4.36
-2.79
-1.54
-0.60
0.12
0.63
0.98
1.23
1.46
1.75
2.12
2.51
2.84
3.03
3.06
2.99
2.86
2.68
2.37
1.86
1.11
0.21
-0.70
-1.50
-2.20
-2.93
-3.89
-5.22
-6.88
-8.60
-10.02
-10.76
-10.65
-9.76
-8.37
-6.87
-5.53
-4.46
-3.60
-2.79
-1.88
-0.81
0.38
1.60
2.71
3.60
4.20
4.48
4.49
4.32
4.05
3.77
3.49
3.19
2.84
2.40
1.87
1.30
0.74
0.24
-0.26
-0.86
-1.69
-2.88
-4.48
-6.42
-8.49
-10.41
-11.86
-12.62
-12.59
-11.87
-10.64
-9.15
-7.57
-5.99
-4.41
-2.83
-1.24
0.32
1.77
3.04
4.12
4.97
5.63
6.08
6.35
6.48
6.52
6.54
6.57
6.57
6.48
6.23
5.80
5.22
4.53
3.80
2.99
2.02
0.79
-0.76
-2.59
-4.61
-6.65
-8.58
-10.24
-11.46
-12.07
-11.95
-11.07
-9.55
-7.59
-5.50
-3.53
-1.87
-0.57
0.45
1.28
2.05
2.84
3.64
4.38
4.95
5.31
5.46
5.48
5.43
5.33
5.13
4.75
4.17
3.45
2.71
2.04
1.42
0.72
-0.22
-1.50
-3.12
-4.95
-6.81
-8.54
-10.01
-11.17
-11.96
-12.32
-12.15
-11.37
-9.99
-8.13
-6.03
-3.97
-2.16
-0.70
0.49
1.56
2.66
3.84
5.02
6.08
6.90
7.45
7.76
7.86
7.79
7.51
6.99
6.23
5.31
4.35
3.51
2.93
2.63
2.51
2.36
1.93
1.04
-0.35
-2.13
-4.11
-6.11
-7.99
-9.69
-11.14
-12.21
-12.70
-12.44
-11.39
-9.71
-7.72
-5.79
-4.15
-2.86
-1.81
-0.78
0.38
1.70
3.07
4.32
5.25
5.77
5.89
5.71
5.37
5.03
4.75
4.58
4.47
4.35
4.12
3.70
3.05
2.19
1.19
0.15
-0.87
-1.86
-2.91
-4.13
-5.65
-7.42
-9.28
-10.88
-11.85
-11.96
-11.13
-9.56
-7.58
-5.58
-3.81
-2.36
-1.17
-0.14
0.79
1.59
2.20
2.59
2.85
3.14
3.63
4.38
5.28
6.08
6.50
6.33
5.58
4.42
3.15
2.01
1.16
0.56
0.02
-0.68
-1.79
-3.41
-5.47
-7.75
-9.93
-11.73
-12.90
-13.34
-13.03
-12.05
-10.54
-8.66
-6.61
-4.54
-2.58
-0.76
0.93
2.53
4.07
5.47
6.64
7.43
7.78
7.71
7.35
6.88
6.47
6.21
6.09
6.01
5.86
5.57
5.12
4.54
3.85
3.08
2.23
1.28
0.20
-1.03
-2.40
-3.89
-5.39
-6.73
-7.70
-8.12
-7.83
-6.86
-5.31
-3.39
-1.36
0.59
2.29
3.63
4.63
5.35
5.88
6.29
6.61
6.77
6.71
6.43
6.01
5.61
5.35
5.23
5.17
5.01
4.62
4.02
3.29
2.58
1.98
1.48
0.97
0.33
-0.53
-1.65
-3.00
-4.57
-6.31
-8.13
-9.84
-11.17
-11.86
-11.73
-10.81
-9.33
-7.61
-5.93
-4.41
-2.99
-1.50
0.19
2.08
4.02
5.78
7.21
8.28
9.09
9.81
10.56
11.32
11.96
12.33
12.32
11.96
11.35
10.66
9.96
9.25
8.49
7.60
6.62
5.55
4.42
3.18
1.65
-0.33
-2.86
-5.85
-9.04
-12.04
-14.50
-16.18
-17.01
-17.06
-16.47
-15.38
-13.94
-12.25
-10.36
-8.31
-6.09
-3.70
-1.19
1.30
3.58
5.42
6.65
7.22
7.14
6.54
5.56
4.41
3.33
2.53
2.10
1.91
1.70
1.16
0.12
-1.40
-3.20
-4.99
-6.57
-7.88
-9.00
-10.03
-11.05
-11.96
-12.57
-12.70
-12.20
-11.08
-9.45
-7.47
-5.31
-3.11
-1.02
0.84
2.35
3.45
4.17
4.60
4.89
5.17
5.51
5.92
6.34
6.69
6.87
6.79
6.39
5.67
4.70
3.64
2.69
1.99
1.55
1.22
0.76
-0.11
-1.55
-3.55
-5.87
-8.12
-9.85
-10.72
-10.56
-9.49
-7.77
-5.73
-3.67
-1.79
-0.14
1.32
2.64
3.87
5.03
6.08
6.97
7.67
8.20
8.59
8.92
9.24
9.52
9.70
9.67
9.32
8.63
7.66
6.57
5.51
4.57
3.70
2.80
1.75
0.47
-1.05
-2.78
-4.74
-6.84
-8.97
-10.84
-12.09
-12.40
-11.66
-10.05
-7.98
-5.88
-4.06
-2.54
-1.18
0.21
1.69
3.25
4.73
6.01
7.03
7.81
8.40
8.87
9.23
9.47
9.52
9.35
8.95
8.39
7.75
7.13
6.54
5.95
5.24
4.30
3.08
1.61
-0.02
-1.74
-3.49
-5.27
-7.07
-8.77
-10.17
-11.06
-11.23
-10.66
-9.46
-7.85
-6.08
-4.32
-2.62
-0.99
0.62
2.21
3.74
5.12
6.28
7.17
7.82
8.29
8.66
8.96
9.18
9.30
9.32
9.23
9.08
8.86
8.50
7.92
7.03
5.83
4.41
2.93
1.58
0.46
-0.42
-1.17
-1.95
-3.00
-4.52
-6.55
-8.97
-11.46
-13.56
-14.87
-15.11
-14.29
-12.61
-10.44
-8.12
-5.86
-3.78
-1.85
-0.04
1.64
3.20
4.59
5.80
6.83
7.68
8.34
8.77
8.93
8.82
8.52
8.11
7.67
7.24
6.80
6.31
5.73
5.06
4.25
3.23
1.93
0.32
-1.55
-3.54
-5.51
-7.44
-9.34
-11.27
-13.18
-14.85
-15.98
-16.27
-15.63
-14.15
-12.11
-9.80
-7.46
-5.22
-3.20
-1.53
-0.31
0.36
0.55
0.42
0.22
0.15
0.32
0.70
1.13
1.47
1.61
1.54
1.34
1.10
0.87
0.65
0.41
0.08
-0.42
-1.13
-2.12
-3.46
-5.17
-7.19
-9.38
-11.45
-13.13
-14.12
-14.26
-13.50
-11.96
-9.86
-7.53
-5.26
-3.27
-1.63
-0.25
1.05
2.38
3.79
5.17
6.37
7.29
7.92
8.38
8.75
9.06
9.21
9.10
8.65
7.92
7.08
6.30
5.65
5.09
4.41
3.42
2.00
0.14
-2.05
-4.37
-6.56
-8.35
-9.52
-9.92
-9.51
-8.38
-6.72
-4.80
-2.91
-1.26
0.04
1.00
1.76
2.49
3.36
4.42
5.64
6.88
7.98
8.82
9.30
9.34
8.90
8.02
6.85
5.63
4.62
3.93
3.51
3.18
2.70
1.88
0.64
-1.05
-3.14
-5.52
-7.93
-10.00
-11.29
-11.48
-10.50
-8.59
-6.21
-3.82
-1.77
-0.17
1.05
2.03
2.94
3.91
5.03
6.29
7.61
8.83
9.79
10.33
10.42
10.15
9.63
9.00
8.33
7.66
7.04
6.51
6.10
5.75
5.29
4.47
3.02
0.86
-1.84
-4.74
-7.36
-9.32
-10.39
-10.56
-9.95
-8.77
-7.19
-5.35
-3.33
-1.24
0.85
2.85
4.67
6.27
7.62
8.73
9.58
10.14
10.43
10.41
10.15
9.71
9.16
8.58
8.00
7.41
6.76
6.05
5.30
4.56
3.88
3.24
2.53
1.57
0.19
-1.71
-4.07
-6.63
-8.99
-10.73
-11.54
-11.30
-10.16
-8.46
-6.58
-4.82
-3.31
-1.97
-0.64
0.80
2.40
4.06
5.64
6.98
7.99
8.69
9.15
9.49
9.79
10.08
10.25
10.17
9.70
8.84
7.74
6.61
5.64
4.93
4.37
3.77
2.93
1.69
0.05
-1.95
-4.15
-6.38
-8.43
-10.09
-11.21
-11.70
-11.55
-10.79
-9.51
-7.81
-5.81
-3.68
-1.58
0.34
1.98
3.31
4.29
4.95
5.30
5.40
5.38
5.38
5.53
5.86
6.29
6.64
6.72
6.45
5.88
5.12
4.36
3.68
3.06
2.37
1.48
0.31
-1.13
-2.75
-4.43
-6.03
-7.41
-8.42
-8.85
-8.59
-7.58
-5.96
-3.97
-1.96
-0.19
1.23
2.32
3.25
4.13
4.97
5.72
6.24
6.48
6.51
6.49
6.62
6.99
7.55
8.11
8.42
8.30
7.71
6.73
5.52
4.24
3.00
1.85
0.77
-0.29
-1.44
-2.79
-4.43
-6.34
-8.42
-10.42
-12.09
-13.13
-13.37
-12.77
-11.41
-9.53
-7.34
-5.11
-2.99
-1.08
0.58
2.02
3.23
4.22
4.99
5.56
6.00
6.38
6.80
7.31
7.81
8.19
8.26
7.89
7.04
5.78
4.29
2.78
1.44
0.40
-0.34
-0.86
-1.33
-1.92
-2.77
-3.98
-5.57
-7.49
-9.59
-11.62
-13.23
-14.09
-13.99
-12.89
-11.03
-8.78
-6.54
-4.58
-2.98
-1.61
-0.30
1.07
2.47
3.82
4.99
5.90
6.58
7.09
7.49
7.76
7.81
7.56
7.04
6.37
5.75
5.34
5.15
5.05
4.77
4.12
3.03
1.65
0.24
-0.98
-1.93
-2.70
-3.51
-4.58
-6.00
-7.70
-9.45
-10.99
-12.09
-12.60
-12.47
-11.71
-10.32
-8.39
-6.07
-3.60
-1.24
0.74
2.22
3.17
3.69
3.95
4.11
4.32
4.65
5.12
5.65
6.15
6.50
6.65
6.58
6.33
5.91
5.35
4.65
3.83
2.95
2.15
1.50
1.04
0.66
0.17
-0.60
-1.75
-3.27
-4.99
-6.72
-8.25
-9.45
-10.24
-10.62
-10.63
-10.29
-9.63
-8.68
-7.48
-6.14
-4.78
-3.49
-2.33
-1.28
-0.30
0.64
1.52
2.32
2.98
3.48
3.83
4.04
4.08
3.90
3.49
2.85
2.07
1.26
0.53
-0.03
-0.39
-0.54
-0.57
-0.60
-0.83
-1.45
-2.57
-4.19
-6.14
-8.11
-9.79
-10.85
-11.11
-10.52
-9.19
-7.38
-5.41
-3.56
-1.99
-0.71
0.34
1.27
2.14
2.95
3.66
4.26
4.77
5.24
5.73
6.23
6.71
7.09
7.34
7.43
7.31
6.98
6.42
5.61
4.59
3.41
2.16
0.93
-0.20
-1.21
-2.12
-3.02
-4.05
-5.27
-6.69
-8.21
-9.60
-10.62
-11.08
-10.94
-10.27
-9.26
-8.07
-6.78
-5.41
-3.94
-2.36
-0.74
0.85
2.32
3.65
4.80
5.69
6.27
6.51
6.45
6.21
5.96
5.82
5.77
5.69
5.43
4.88
4.09
3.21
2.39
1.74
1.22
0.71
0.03
-0.94
-2.28
-3.91
-5.70
-7.53
-9.30
-10.96
-12.53
-13.96
-15.17
-15.98
-16.18
-15.64
-14.39
-12.67
-10.85
-9.29
-8.19
-7.58
-7.26
-6.99
-6.59
-6.00
-5.33
-4.77
-4.53
-4.73
-5.37
-6.32
-7.37
-8.27
-8.82
-8.90
-8.50
-7.66
-6.45
-4.93
-3.17
-1.27
0.63
2.36
3.80
4.87
5.62
6.09
6.36
6.42
6.20
5.62
4.62
3.31
1.91
0.80
0.33
0.70
1.84
3.48
5.25
6.86
8.22
9.37
10.42
11.40
12.27
12.95
13.46
13.93
14.53
15.31
16.14
16.72
16.73
16.05
14.82
13.37
12.07
11.10
10.40
9.75
8.92
7.79
6.43
4.99
3.59
2.25
0.91
-0.52
-2.12
-3.89
-5.82
-7.86
-9.94
-11.87
-13.40
-14.27
-14.30
-13.52
-12.17
-10.56
-8.98
-7.58
-6.36
-5.28
-4.28
-3.35
-2.46
-1.54
-0.47
0.84
2.34
3.82
4.97
5.53
5.43
4.83
4.05
3.43
3.15
3.17
3.24
3.14
2.72
2.05
1.28
0.56
-0.08
-0.76
-1.66
-2.86
-4.34
-5.90
-7.31
-8.40
-9.11
-9.42
-9.33
-8.82
-7.89
-6.59
-5.09
-3.60
-2.27
-1.16
-0.25
0.57
1.35
2.10
2.79
3.39
3.89
4.30
4.60
4.73
4.66
4.44
4.13
3.85
3.65
3.47
3.16
2.59
1.71
0.57
-0.70
-2.00
-3.29
-4.59
-5.98
-7.49
-9.11
-10.68
-12.04
-13.00
-13.44
-13.31
-12.62
-11.48
-10.00
-8.33
-6.63
-5.01
-3.53
-2.20
-0.97
0.22
1.42
2.61
3.70
4.57
5.13
5.39
5.42
5.36
5.30
5.25
5.15
4.91
4.48
3.89
3.22
2.58
2.02
1.54
1.03
0.38
-0.51
-1.73
-3.31
-5.19
-7.23
-9.15
-10.62
-11.38
-11.27
-10.34
-8.82
-7.02
-5.25
-3.68
-2.36
-1.22
-0.16
0.90
1.99
3.09
4.15
5.11
5.93
6.56
6.99
7.23
7.30
7.28
7.24
7.21
7.14
6.95
6.48
5.70
4.64
3.43
2.20
1.04
-0.04
-1.13
-2.29
-3.59
-5.04
-6.59
-8.17
-9.65
-10.84
-11.53
-11.50
-10.64
-9.01
-6.82
-4.44
-2.24
-0.49
0.76
1.61
2.31
3.09
4.08
5.26
6.48
7.55
8.34
8.77
8.91
8.86
8.73
8.61
8.50
8.36
8.12
7.73
7.18
6.46
5.62
4.63
3.52
2.36
1.27
0.37
-0.34
-0.96
-1.73
-2.90
-4.54
-6.48
-8.33
-9.68
-10.25
-10.01
-9.14
-7.91
-6.54
-5.15
-3.79
-2.52
-1.35
-0.30
0.69
1.73
2.91
4.25
5.67
6.98
7.98
8.56
8.69
8.46
8.02
7.54
7.12
6.82
6.57
6.32
5.99
5.58
5.11
4.62
4.08
3.37
2.34
0.94
-0.78
-2.61
-4.34
-5.83
-7.09
-8.19
-9.10
-9.70
-9.72
-8.94
-7.33
-5.12
-2.75
-0.64
0.92
1.93
2.62
3.23
3.89
4.59
5.17
5.51
5.64
5.68
5.81
6.12
6.52
6.85
6.93
6.68
6.19
5.61
5.06
4.58
4.14
3.63
3.01
2.26
1.41
0.44
-0.71
-2.12
-3.81
-5.63
-7.31
-8.48
-8.86
-8.37
-7.18
-5.66
-4.18
-2.99
-2.08
-1.26
-0.32
0.89
2.31
3.79
5.13
6.23
7.05
7.63
8.04
8.30
8.47
8.56
8.60
8.62
8.62
8.55
8.32
7.86
7.11
6.12
4.95
3.73
2.54
1.42
0.38
-0.62
-1.64
-2.73
-3.94
-5.28
-6.72
-8.17
-9.49
-10.46
-10.89
-10.63
-9.71
-8.27
-6.57
-4.84
-3.22
-1.76
-0.39
0.92
2.18
3.33
4.32
5.11
5.75
6.32
6.89
7.48
8.03
8.43
8.59
8.50
8.22
7.90
7.65
7.56
7.58
7.61
7.45
6.93
5.99
4.68
3.22
1.81
0.60
-0.42
-1.38
-2.47
-3.87
-5.62
-7.63
-9.67
-11.45
-12.68
-13.14
-12.72
-11.50
-9.69
-7.60
-5.57
-3.81
-2.40
-1.29
-0.33
0.63
1.68
2.79
3.89
4.83
5.57
6.07
6.43
6.71
6.95
7.13
7.16
7.03
6.76
6.44
6.17
5.98
5.80
5.50
4.98
4.18
3.17
2.09
1.08
0.18
-0.63
-1.46
-2.40
-3.57
-4.98
-6.64
-8.44
-10.18
-11.63
-12.48
-12.56
-11.82
-10.42
-8.65
-6.80
-5.06
-3.45
-1.95
-0.51
0.83
1.96
2.86
3.55
4.14
4.74
5.38
5.98
6.46
6.73
6.82
6.81
6.81
6.84
6.86
6.73
6.35
5.68
4.74
3.62
2.42
1.20
-0.00
-1.18
-2.31
-3.43
-4.55
-5.72
-6.98
-8.33
-9.72
-11.03
-12.13
-12.88
-13.17
-12.96
-12.24
-11.02
-9.38
-7.46
-5.45
-3.55
-1.91
-0.59
0.49
1.48
2.49
3.57
4.58
5.38
5.82
5.86
5.62
5.25
4.92
4.67
4.47
4.24
3.90
3.44
2.89
2.26
1.48
0.52
-0.71
-2.13
-3.58
-4.84
-5.81
-6.50
-7.12
-7.91
-8.99
-10.28
-11.47
-12.18
-12.14
-11.33
-9.95
-8.32
-6.74
-5.29
-3.98
-2.69
-1.38
-0.08
1.12
2.12
2.87
3.40
3.84
4.23
4.60
4.91
5.05
4.97
4.67
4.20
3.68
3.18
2.74
2.34
1.89
1.34
0.65
-0.18
-1.12
-2.14
-3.23
-4.47
-5.88
-7.48
-9.18
-10.76
-11.95
-12.46
-12.15
-11.06
-9.38
-7.42
-5.46
-3.70
-2.20
-0.96
0.14
1.18
2.23
3.28
4.26
5.12
5.81
6.31
6.65
6.84
6.86
6.65
6.24
5.66
5.02
4.45
3.99
3.59
3.14
2.53
1.73
0.81
-0.11
-0.97
-1.81
-2.78
-4.07
-5.82
-7.98
-10.25
-12.19
-13.33
-13.38
-12.33
-10.48
-8.23
-6.00
-4.00
-2.27
-0.69
0.84
2.36
3.78
5.04
6.11
7.06
7.99
8.94
9.83
10.52
10.87
10.87
10.59
10.13
9.54
8.80
7.85
6.69
5.44
4.28
3.32
2.57
1.90
1.10
0.05
-1.31
-2.96
-4.79
-6.69
-8.49
-10.00
-11.02
-11.35
-10.94
-9.83
-8.19
-6.24
-4.18
-2.16
-0.24
1.57
3.25
4.74
6.04
7.09
7.91
8.54
9.06
9.49
9.81
9.91
9.67
9.04
8.15
7.21
6.44
5.95
5.67
5.42
4.96
4.21
3.18
2.01
0.80
-0.46
-1.87
-3.55
-5.53
-7.66
-9.65
-11.16
-11.96
-11.95
-11.23
-10.02
-8.55
-7.02
-5.54
-4.12
-2.71
-1.24
0.33
1.96
3.53
4.91
5.93
6.55
6.79
6.78
6.66
6.56
6.52
6.52
6.47
6.29
5.94
5.41
4.75
4.01
3.22
2.39
1.48
0.47
-0.72
-2.10
-3.66
-5.38
-7.17
-8.87
-10.28
-11.15
-11.33
-10.76
-9.57
-7.99
-6.30
-4.65
-3.12
-1.65
-0.22
1.16
2.41
3.48
4.35
5.07
5.66
6.08
6.23
6.06
5.59
5.00
4.51
4.25
4.17
4.10
3.81
3.20
2.32
1.29
0.25
-0.79
-1.93
-3.33
-5.05
-7.00
-8.95
-10.55
-11.50
-11.59
-10.80
-9.25
-7.21
-4.96
-2.71
-0.64
1.22
2.84
4.17
5.20
5.88
6.26
6.44
6.55
6.72
6.98
7.28
7.51
7.55
7.33
6.82
6.06
5.10
4.04
2.94
1.89
0.95
0.15
-0.56
-1.30
-2.23
-3.46
-4.99
-6.72
-8.41
-9.76
-10.53
-10.54
-9.78
-8.37
-6.52
-4.50
-2.51
-0.69
0.94
2.38
3.68
4.82
5.75
6.42
6.82
7.02
7.09
7.13
7.14
7.12
7.00
6.74
6.32
5.71
4.94
4.03
3.03
1.99
0.92
-0.21
-1.46
-2.91
-4.57
-6.34
-8.03
-9.46
-10.43
-10.87
-10.83
-10.43
-9.89
-9.38
-9.02
-8.81
-8.61
-8.19
-7.30
-5.79
-3.72
-1.36
0.93
2.84
4.20
5.03
5.51
5.78
5.93
5.96
5.88
5.76
5.72
5.95
6.54
7.41
8.36
9.08
9.33
8.98
8.04
6.60
4.77
2.60
0.19
-2.29
-4.52
-6.10
-6.64
-5.97
-4.23
-1.85
0.66
2.87
4.62
5.94
7.02
7.96
8.75
9.29
9.46
9.28
8.91
8.56
8.43
8.61
9.01
9.46
9.79
9.85
9.56
8.90
7.89
6.62
5.20
3.81
2.57
1.55
0.72
-0.03
-0.83
-1.78
-2.91
-4.19
-5.54
-6.78
-7.67
-7.98
-7.53
-6.35
-4.68
-2.89
-1.31
-0.17
0.60
1.18
1.81
2.62
3.53
4.40
5.07
5.49
5.73
5.92
6.11
6.30
6.38
6.21
5.76
5.08
4.26
3.44
2.70
2.04
1.35
0.52
-0.62
-2.12
-3.95
-5.99
-7.99
-9.69
-10.83
-11.29
-11.01
-10.07
-8.65
-6.95
-5.20
-3.58
-2.16
-0.93
0.21
1.33
2.44
3.50
4.36
4.94
5.23
5.28
5.23
5.17
5.20
5.31
5.41
5.38
5.14
4.66
3.99
3.22
2.45
1.69
0.90
-0.03
-1.20
-2.62
-4.25
-5.97
-7.60
-8.96
-9.87
-10.17
-9.77
-8.67
-6.99
-4.93
-2.72
-0.55
1.45
3.29
4.99
6.58
8.03
9.25
10.10
10.54
10.62
10.55
10.55
10.74
11.08
11.34
11.23
10.58
9.44
8.07
6.79
5.79
5.03
4.27
3.21
1.68
-0.27
-2.40
-4.47
-6.28
-7.80
-9.00
-9.86
-10.29
-10.18
-9.49
-8.31
-6.89
-5.48
-4.29
-3.39
-2.69
-1.99
-1.16
-0.13
1.02
2.11
2.95
3.45
3.65
3.74
3.87
4.15
4.50
4.72
4.62
4.10
3.28
2.39
1.65
1.17
0.87
0.55
-0.01
-0.96
-2.34
-4.10
-6.13
-8.25
-10.26
-11.87
-12.82
-12.91
-12.16
-10.70
-8.82
-6.82
-4.95
-3.37
-2.15
-1.27
-0.63
-0.09
0.53
1.35
2.32
3.29
3.97
4.19
3.93
3.36
2.76
2.35
2.20
2.21
2.14
1.84
1.23
0.39
-0.52
-1.33
-1.92
-2.31
-2.57
-2.85
-3.31
-4.05
-5.10
-6.39
-7.69
-8.75
-9.30
-9.21
-8.51
-7.42
-6.21
-5.13
-4.31
-3.69
-3.15
-2.57
-1.92
-1.26
-0.74
-0.43
-0.32
-0.29
-0.19
0.07
0.50
0.96
1.23
1.13
0.53
-0.50
-1.73
-2.87
-3.68
-4.09
-4.25
-4.44
-4.94
-5.88
-7.19
-8.63
-9.89
-10.75
-11.07
-10.86
-10.15
-9.03
-7.62
-6.05
-4.50
-3.07
-1.82
-0.70
0.41
1.60
2.85
4.04
5.01
5.67
6.01
6.17
6.37
6.71
7.17
7.61
7.79
7.54
6.85
5.86
4.76
3.75
2.90
2.16
1.42
0.58
-0.44
-1.63
-2.95
-4.32
-5.61
-6.66
-7.28
-7.29
-6.64
-5.41
-3.85
-2.24
-0.82
0.30
1.21
2.06
3.00
4.03
5.06
5.90
6.41
6.56
6.47
6.34
6.34
6.48
6.67
6.75
6.59
6.16
5.56
4.89
4.19
3.43
2.56
1.51
0.32
-0.92
-2.12
-3.23
-4.22
-5.05
-5.67
-5.96
-5.82
-5.20
-4.11
-2.64
-0.94
0.86
2.63
4.32
5.93
7.47
8.95
10.35
11.67
12.87
13.99
15.05
16.03
16.96
17.79
18.48
18.99
19.26
19.24
18.86
18.08
16.90
15.34
13.53
11.62
9.74
8.01
6.45
4.99
3.51
1.88
0.02
-2.04
-4.15
-6.10
-7.65
-8.62
-8.91
-8.54
-7.59
-6.25
-4.71
-3.18
-1.79
-0.62
0.35
1.15
1.81
2.29
2.58
2.66
2.60
2.46
2.27
2.03
1.67
1.15
0.47
-0.30
-1.07
-1.77
-2.46
-3.20
-4.05
-5.01
-6.04
-7.11
-8.22
-9.45
-10.85
-12.44
-14.09
-15.59
-16.67
-17.14
-16.94
-16.17
-15.03
-13.74
-12.44
-11.19
-9.98
-8.79
-7.65
-6.62
-5.75
-5.06
-4.48
-3.92
-3.32
-2.70
-2.15
-1.77
-1.59
-1.63
-1.86
-2.27
-2.84
-3.53
-4.28
-4.98
-5.53
-5.85
-5.97
-6.00
-6.11
-6.44
-7.06
-7.92
-8.89
-9.82
-10.59
-11.08
-11.20
-10.88
-10.08
-8.87
-7.37
-5.82
-4.43
-3.32
-2.51
-1.89
-1.33
-0.79
-0.27
0.17
0.46
0.60
0.64
0.68
0.74
0.83
0.83
0.63
0.15
-0.59
-1.46
-2.26
-2.83
-3.12
-3.24
-3.42
-3.89
-4.81
-6.14
-7.73
-9.25
-10.43
-11.02
-10.92
-10.16
-8.85
-7.15
-5.24
-3.26
-1.33
0.46
2.07
3.49
4.77
5.93
7.03
8.00
8.76
9.19
9.21
8.88
8.34
7.79
7.35
7.02
6.69
6.22
5.55
4.73
3.92
3.26
2.75
2.32
1.78
1.06
0.13
-0.91
-1.99
-3.04
-3.99
-4.76
-5.23
-5.25
-4.80
-3.95
-2.88
-1.80
-0.86
-0.05
0.70
1.47
2.30
3.14
3.86
4.35
4.56
4.52
4.32
4.08
3.89
3.74
3.60
3.35
2.90
2.22
1.30
0.21
-0.93
-2.00
-2.91
-3.58
-3.95
-4.09
-4.15
-4.32
-4.77
-5.60
-6.74
-7.96
-8.96
-9.48
-9.35
-8.62
-7.44
-6.02
-4.53
-3.06
-1.62
-0.21
1.15
2.44
3.64
4.73
5.67
6.44
6.97
7.21
7.14
6.88
6.56
6.34
6.24
6.17
5.94
5.39
4.49
3.35
2.18
1.16
0.34
-0.37
-1.11
-2.03
-3.15
-4.42
-5.69
-6.82
-7.68
-8.19
-8.34
-8.13
-7.62
-6.88
-5.97
-4.92
-3.73
-2.44
-1.10
0.21
1.40
2.38
3.10
3.59
3.88
4.02
4.05
4.00
3.84
3.57
3.19
2.75
2.33
2.03
1.90
1.92
2.00
2.07
2.00
1.73
1.18
0.28
-1.00
-2.63
-4.49
-6.32
-7.81
-8.69
-8.77
-8.09
-6.84
-5.31
-3.75
-2.34
-1.11
0.03
1.14
2.29
3.40
4.39
5.12
5.56
5.77
5.88
6.03
6.31
6.70
7.09
7.35
7.39
7.20
6.81
6.28
5.63
4.87
3.99
3.03
2.04
1.07
0.12
-0.94
-2.24
-3.87
-5.81
-7.84
-9.65
-10.88
-11.30
-10.83
-9.61
-7.88
-5.92
-3.94
-2.08
-0.40
1.11
2.46
3.64
4.64
5.44
6.06
6.55
6.95
7.29
7.53
7.61
7.49
7.17
6.73
6.23
5.72
5.17
4.52
3.73
2.77
1.68
0.53
-0.63
-1.77
-2.94
-4.15
-5.41
-6.69
-7.91
-8.97
-9.73
-10.03
-9.74
-8.83
-7.37
-5.59
-3.78
-2.19
-0.94
0.03
0.89
1.82
2.93
4.17
5.38
6.38
7.05
7.35
7.37
7.25
7.10
6.97
6.83
6.61
6.25
5.77
5.20
4.59
3.96
3.25
2.39
1.36
0.21
-0.96
-2.05
-3.06
-4.07
-5.22
-6.58
-8.06
-9.42
-10.36
-10.64
-10.18
-9.10
-7.59
-5.87
-4.09
-2.37
-0.82
0.46
1.42
2.09
2.60
3.14
3.84
4.69
5.58
6.34
6.88
7.17
7.27
7.20
6.96
6.54
5.92
5.17
4.38
3.64
2.99
2.44
1.93
1.45
0.97
0.48
-0.11
-0.87
-1.93
-3.32
-4.99
-6.75
-8.36
-9.53
-10.02
-9.76
-8.82
-7.45
-5.95
-4.52
-3.26
-2.12
-0.97
0.30
1.68
3.06
4.25
5.03
5.32
5.12
4.59
3.97
3.50
3.28
3.29
3.36
3.29
2.99
2.47
1.88
1.36
0.96
0.58
0.02
-0.89
-2.19
-3.80
-5.54
-7.19
-8.60
-9.60
-10.04
-9.79
-8.80
-7.19
-5.27
-3.38
-1.78
-0.56
0.39
1.29
2.32
3.49
4.68
5.74
6.50
6.94
7.10
7.11
7.07
7.03
6.98
6.85
6.57
6.06
5.35
4.51
3.67
2.89
2.19
1.48
0.63
-0.48
-1.90
-3.57
-5.38
-7.13
-8.68
-9.84
-10.48
-10.50
-9.84
-8.59
-6.89
-4.98
-3.08
-1.35
0.18
1.53
2.73
3.84
4.80
5.60
6.22
6.73
7.21
7.75
8.37
9.00
9.52
9.78
9.62
8.99
7.93
6.58
5.16
3.88
2.86
2.12
1.56
1.05
0.42
-0.45
-1.65
-3.20
-5.08
-7.16
-9.17
-10.76
-11.58
-11.37
-10.11
-8.01
-5.51
-3.07
-1.10
0.24
1.01
1.47
1.90
2.54
3.48
4.66
5.89
6.96
7.67
7.94
7.82
7.45
7.03
6.74
6.63
6.63
6.53
6.14
5.30
4.08
2.62
1.13
-0.16
-1.13
-1.74
-2.10
-2.41
-2.92
-3.83
-5.23
-7.00
-8.81
-10.29
-11.12
-11.14
-10.42
-9.11
-7.38
-5.42
-3.38
-1.44
0.26
1.64
2.79
3.86
4.97
6.15
7.24
8.02
8.40
8.42
8.31
8.28
8.38
8.51
8.42
7.94
7.04
5.87
4.63
3.51
2.58
1.80
1.11
0.43
-0.26
-1.03
-1.96
-3.13
-4.57
-6.21
-7.91
-9.42
-10.46
-10.83
-10.40
-9.22
-7.47
-5.47
-3.53
-1.90
-0.68
0.18
0.86
1.51
2.24
3.02
3.77
4.37
4.77
4.94
4.91
4.72
4.40
3.94
3.32
2.56
1.70
0.82
0.03
-0.58
-1.01
-1.33
-1.67
-2.17
-2.89
-3.82
-4.89
-5.97
-6.99
-7.87
-8.56
-8.99
-9.09
-8.79
-8.05
-6.91
-5.45
-3.81
-2.10
-0.45
1.06
2.34
3.32
3.99
4.37
4.56
4.66
4.80
4.99
5.13
5.11
4.84
4.33
3.65
2.94
2.30
1.78
1.40
1.10
0.81
0.39
-0.34
-1.49
-3.09
-5.04
-7.08
-8.91
-10.23
-10.86
-10.74
-9.94
-8.65
-7.10
-5.51
-4.07
-2.85
-1.82
-0.84
0.21
1.45
2.86
4.31
5.59
6.50
6.92
6.92
6.70
6.54
6.57
6.77
6.93
6.79
6.23
5.29
4.21
3.21
2.36
1.57
0.65
-0.53
-1.99
-3.59
-5.19
-6.70
-8.13
-9.48
-10.66
-11.43
-11.51
-10.70
-9.04
-6.82
-4.49
-2.44
-0.86
0.32
1.25
2.14
3.04
3.93
4.71
5.36
5.90
6.41
6.90
7.30
7.46
7.31
6.85
6.20
5.52
4.95
4.49
4.13
3.78
3.38
2.89
2.23
1.37
0.29
-1.00
-2.43
-3.93
-5.46
-7.02
-8.52
-9.81
-10.65
-10.82
-10.25
-9.05
-7.50
-5.85
-4.26
-2.74
-1.18
0.43
2.04
3.48
4.64
5.46
5.96
6.26
6.41
6.48
6.53
6.65
6.89
7.26
7.67
7.95
7.94
7.56
6.85
5.93
4.98
4.07
3.22
2.37
1.42
0.24
-1.25
-3.07
-5.16
-7.32
-9.27
-10.68
-11.30
-11.02
-9.94
-8.31
-6.44
-4.61
-2.96
-1.46
-0.03
1.44
3.01
4.61
6.11
7.36
8.26
8.79
9.01
9.05
9.02
8.97
8.89
8.78
8.60
8.30
7.86
7.19
6.23
4.99
3.58
2.20
1.05
0.23
-0.35
-0.91
-1.73
-2.99
-4.66
-6.55
-8.35
-9.75
-10.53
-10.56
-9.85
-8.55
-6.87
-5.09
-3.46
-2.12
-1.07
-0.20
0.61
1.51
2.54
3.61
4.60
5.37
5.85
6.07
6.16
6.25
6.40
6.55
6.55
6.25
5.57
4.58
3.46
2.42
1.60
1.03
0.64
0.25
-0.32
-1.20
-2.48
-4.10
-5.93
-7.72
-9.19
-10.06
-10.15
-9.41
-7.94
-5.96
-3.74
-1.57
0.32
1.84
3.02
3.96
4.81
5.68
6.61
7.52
8.31
8.89
9.17
9.20
9.02
8.70
8.27
7.71
6.99
6.14
5.23
4.37
3.62
2.99
2.39
1.72
0.92
-0.06
-1.17
-2.38
-3.66
-4.98
-6.26
-7.43
-8.35
-8.87
-8.87
-8.31
-7.25
-5.84
-4.31
-2.89
-1.72
-0.76
0.16
1.25
2.62
4.19
5.75
7.01
7.78
7.98
7.75
7.29
6.80
6.38
6.04
5.71
5.33
4.87
4.44
4.10
3.91
3.80
3.58
3.04
2.06
0.65
-1.02
-2.77
-4.47
-6.13
-7.75
-9.28
-10.51
-11.14
-10.94
-9.91
-8.29
-6.48
-4.88
-3.65
-2.75
-1.92
-0.94
0.31
1.85
3.54
5.18
6.58
7.56
8.04
8.05
7.75
7.39
7.21
7.36
7.80
8.35
8.74
8.73
8.22
7.22
5.91
4.50
3.19
2.05
1.06
0.09
-0.99
-2.28
-3.78
-5.48
-7.28
-9.09
-10.74
-11.95
-12.48
-12.13
-10.95
-9.17
-7.20
-5.44
-4.10
-3.17
-2.46
-1.75
-0.88
0.20
1.37
2.51
3.46
4.16
4.56
4.70
4.62
4.40
4.11
3.80
3.52
3.28
3.13
3.04
2.98
2.86
2.52
1.86
0.85
-0.42
-1.82
-3.22
-4.60
-6.05
-7.68
-9.57
-11.64
-13.64
-15.25
-16.20
-16.36
-15.82
-14.81
-13.63
-12.51
-11.53
-10.68
-9.85
-8.97
-8.05
-7.15
-6.36
-5.77
-5.37
-5.09
-4.83
-4.51
-4.09
-3.65
-3.24
-2.94
-2.82
-2.90
-3.18
-3.65
-4.23
-4.81
-5.29
-5.60
-5.72
-5.73
-5.78
-5.99
-6.47
-7.26
-8.33
-9.57
-10.80
-11.75
-12.15
-11.81
-10.71
-9.05
-7.15
-5.37
-3.88
-2.66
-1.51
-0.23
1.30
3.01
4.70
6.12
7.13
7.70
7.89
7.82
7.57
7.21
6.79
6.37
6.07
5.95
6.00
6.11
6.13
5.92
5.38
4.53
3.40
2.01
0.39
-1.39
-3.22
-4.87
-6.10
-6.69
-6.57
-5.79
-4.53
-3.03
-1.51
-0.08
1.23
2.52
3.90
5.42
7.00
8.43
9.43
9.82
9.62
9.08
8.57
8.41
8.74
9.41
10.09
10.44
10.31
9.75
8.97
8.18
7.48
6.81
5.99
4.87
3.41
1.69
-0.14
-1.97
-3.75
-5.45
-6.99
-8.17
-8.69
-8.32
-7.08
-5.24
-3.26
-1.54
-0.28
0.60
1.41
2.42
3.79
5.45
7.18
8.70
9.82
10.45
10.62
10.43
9.99
9.44
8.87
8.33
7.88
7.52
7.24
6.96
6.56
5.93
5.02
3.88
2.67
1.49
0.39
-0.71
-1.94
-3.38
-5.01
-6.66
-8.14
-9.26
-9.87
-9.92
-9.37
-8.28
-6.74
-4.95
-3.13
-1.47
-0.06
1.13
2.21
3.30
4.46
5.66
6.79
7.74
8.47
9.00
9.41
9.75
10.02
10.14
10.01
9.56
8.79
7.83
6.80
5.83
4.99
4.28
3.64
3.00
2.27
1.39
0.35
-0.86
-2.18
-3.58
-5.01
-6.42
-7.69
-8.63
-9.05
-8.75
-7.73
-6.15
-4.36
-2.69
-1.34
-0.29
0.64
1.65
2.83
4.10
5.26
6.10
6.56
6.71
6.75
6.82
7.03
7.31
7.55
7.59
7.38
6.92
6.29
5.54
4.72
3.81
2.82
1.76
0.70
-0.30
-1.24
-2.16
-3.15
-4.31
-5.69
-7.27
-8.94
-10.52
-11.76
-12.43
-12.34
-11.41
-9.78
-7.73
-5.64
-3.81
-2.39
-1.30
-0.33
0.73
1.99
3.36
4.70
5.78
6.49
6.82
6.84
6.68
6.48
6.29
6.14
5.99
5.78
5.44
4.96
4.33
3.54
2.63
1.59
0.44
-0.80
-2.11
-3.50
-4.99
-6.61
-8.30
-9.86
-11.00
-11.45
-11.03
-9.80
-8.03
-6.11
-4.37
-2.97
-1.88
-0.95
-0.04
0.94
1.99
3.09
4.18
5.20
6.09
6.80
7.28
7.52
7.55
7.43
7.26
7.08
6.90
6.67
6.28
5.67
4.82
3.80
2.70
1.60
0.51
-0.62
-1.87
-3.27
-4.71
-6.01
-6.92
-7.28
-7.09
-6.50
-5.71
-4.88
-4.04
-3.11
-1.94
-0.49
1.21
3.01
4.74
6.33
7.73
8.93
9.91
10.59
10.90
10.86
10.56
10.19
9.93
9.81
9.74
9.51
8.91
7.86
6.47
4.99
3.67
2.67
1.92
1.25
0.42
-0.76
-2.28
-4.03
-5.79
-7.42
-8.86
-10.08
-11.06
-11.71
-11.86
-11.33
-10.07
-8.21
-6.05
-3.99
-2.29
-1.00
0.08
1.24
2.64
4.23
5.75
6.83
7.31
7.22
6.84
6.49
6.40
6.59
6.89
7.06
6.92
6.45
5.79
5.12
4.61
4.23
3.80
3.10
1.99
0.48
-1.20
-2.78
-4.09
-5.15
-6.12
-7.06
-7.88
-8.27
-7.90
-6.66
-4.73
-2.52
-0.48
1.12
2.25
3.12
3.92
4.79
5.71
6.54
7.11
7.34
7.27
7.04
6.82
6.71
6.72
6.69
6.45
5.85
4.93
3.79
2.65
1.61
0.70
-0.16
-1.08
-2.11
-3.23
-4.37
-5.52
-6.70
-7.94
-9.27
-10.60
-11.73
-12.45
-12.54
-11.94
-10.74
-9.17
-7.50
-5.96
-4.66
-3.60
-2.69
-1.80
-0.87
0.14
1.24
2.38
3.46
4.40
5.06
5.36
5.32
4.99
4.50
3.92
3.33
2.72
2.08
1.39
0.65
-0.17
-1.10
-2.21
-3.52
-5.05
-6.73
-8.42
-9.98
-11.24
-12.06
-12.38
-12.18
-11.53
-10.53
-9.28
-7.87
-6.33
-4.69
-3.00
-1.37
0.13
1.43
2.54
3.47
4.25
4.86
5.24
5.43
5.48
5.51
5.59
5.67
5.62
5.32
4.76
4.08
3.49
3.09
2.87
2.61
2.13
1.31
0.18
-1.13
-2.49
-3.78
-4.89
-5.66
-5.92
-5.57
-4.65
-3.40
-2.17
-1.27
-0.81
-0.76
-0.90
-1.00
-0.86
-0.39
0.42
1.50
2.70
3.86
4.81
5.44
5.70
5.61
5.20
4.54
3.66
2.65
1.63
0.71
-0.02
-0.59
-1.16
-1.93
-3.05
-4.58
-6.41
-8.38
-10.34
-12.17
-13.77
-14.98
-15.61
-15.46
-14.41
-12.59
-10.32
-8.01
-6.02
-4.46
-3.21
-2.00
-0.62
0.96
2.56
3.93
4.89
5.39
5.57
5.58
5.56
5.50
5.32
4.96
4.43
3.76
3.02
2.25
1.43
0.53
-0.48
-1.59
-2.76
-3.93
-5.11
-6.35
-7.76
-9.44
-11.40
-13.48
-15.40
-16.77
-17.25
-16.69
-15.22
-13.20
-11.08
-9.24
-7.84
-6.82
-5.96
-5.05
-3.96
-2.70
-1.37
-0.08
1.08
2.13
3.11
4.01
4.78
5.30
5.43
5.09
4.31
3.27
2.19
1.33
0.81
0.57
0.38
-0.00
-0.78
-1.98
-3.49
-5.14
-6.73
-8.11
-9.13
-9.71
-9.76
-9.28
-8.38
-7.23
-5.99
-4.80
-3.64
-2.44
-1.12
0.34
1.88
3.35
4.63
5.65
6.40
6.94
7.34
7.69
8.04
8.39
8.66
8.70
8.36
7.61
6.57
5.46
4.56
3.98
3.61
3.20
2.41
1.10
-0.64
-2.54
-4.30
-5.76
-6.88
-7.70
-8.19
-8.22
-7.61
-6.27
-4.35
-2.15
-0.09
1.56
2.74
3.61
4.43
5.41
6.55
7.69
8.58
9.03
9.04
8.75
8.42
8.20
8.10
7.96
7.61
6.95
6.04
5.09
4.31
3.76
3.34
2.81
1.95
0.65
-1.06
-3.02
-5.02
-6.81
-8.15
-8.88
-8.89
-8.18
-6.89
-5.27
-3.57
-1.99
-0.58
0.70
1.99
3.40
4.96
6.56
8.04
9.23
10.02
10.40
10.50
10.45
10.33
10.15
9.81
9.23
8.41
7.42
6.41
5.48
4.63
3.76
2.75
1.52
0.06
-1.52
-3.07
-4.49
-5.76
-6.88
-7.82
-8.49
-8.69
-8.26
-7.18
-5.60
-3.84
-2.17
-0.76
0.44
1.62
2.93
4.45
6.06
7.53
8.63
9.26
9.41
9.19
8.76
8.28
7.89
7.67
7.58
7.56
7.46
7.17
6.65
5.95
5.20
4.45
3.75
3.02
2.15
1.03
-0.43
-2.22
-4.24
-6.30
-8.11
-9.37
-9.80
-9.29
-7.91
-5.94
-3.79
-1.87
-0.42
0.57
1.30
2.05
3.02
4.26
5.63
6.89
7.83
8.37
8.53
8.46
8.29
8.13
8.02
7.88
7.62
7.14
6.42
5.57
4.74
4.05
3.50
2.97
2.24
1.19
-0.15
-1.62
-3.01
-4.24
-5.39
-6.63
-8.04
-9.50
-10.69
-11.23
-10.90
-9.77
-8.10
-6.27
-4.53
-2.96
-1.47
0.09
1.77
3.49
5.07
6.28
6.99
7.19
7.06
6.86
6.80
6.98
7.32
7.63
7.67
7.30
6.52
5.51
4.49
3.57
2.78
1.97
1.01
-0.17
-1.52
-2.94
-4.36
-5.80
-7.30
-8.82
-10.17
-11.02
-11.06
-10.15
-8.45
-6.36
-4.36
-2.82
-1.85
-1.28
-0.85
-0.29
0.53
1.58
2.69
3.65
4.27
4.54
4.58
4.59
4.72
4.99
5.30
5.44
5.29
4.83
4.15
3.40
2.65
1.93
1.16
0.25
-0.87
-2.23
-3.85
-5.67
-7.58
-9.38
-10.80
-11.60
-11.65
-11.00
-9.81
-8.35
-6.80
-5.29
-3.84
-2.41
-1.00
0.37
1.63
2.73
3.60
4.26
4.75
5.15
5.53
5.95
6.47
7.06
7.66
8.13
8.29
7.98
7.12
5.79
4.20
2.63
1.33
0.40
-0.24
-0.85
-1.69
-2.96
-4.71
-6.78
-8.91
-10.78
-12.09
-12.60
-12.22
-10.98
-9.10
-6.90
-4.76
-2.95
-1.58
-0.60
0.18
0.96
1.84
2.78
3.68
4.41
4.86
5.06
5.12
5.17
5.30
5.53
5.78
5.87
5.64
5.01
4.04
2.93
1.85
0.92
0.08
-0.83
-1.98
-3.44
-5.15
-6.98
-8.82
-10.54
-12.00
-12.99
-13.25
-12.65
-11.23
-9.31
-7.32
-5.66
-4.47
-3.60
-2.79
-1.80
-0.61
0.64
1.78
2.69
3.38
3.91
4.33
4.60
4.68
4.54
4.23
3.83
3.43
3.04
2.61
2.07
1.40
0.66
-0.04
-0.65
-1.24
-1.93
-2.91
-4.26
-5.98
-7.90
-9.70
-11.04
-11.61
-11.27
-10.08
-8.24
-6.09
-3.95
-2.00
-0.31
1.12
2.33
3.29
3.91
4.18
4.16
4.01
3.98
4.23
4.78
5.48
6.05
6.25
5.97
5.28
4.40
3.53
2.80
2.14
1.41
0.46
-0.78
-2.25
-3.83
-5.33
-6.67
-7.78
-8.64
-9.24
-9.53
-9.39
-8.77
-7.63
-6.03
-4.14
-2.18
-0.37
1.17
2.39
3.35
4.14
4.81
5.37
5.78
6.02
6.12
6.15
6.18
6.27
6.41
6.53
6.53
6.32
5.88
5.25
4.51
3.74
2.91
1.95
0.77
-0.68
-2.35
-4.03
-5.47
-6.43
-6.73
-6.35
-5.41
-4.09
-2.60
-1.06
0.48
2.08
3.73
5.36
6.83
7.96
8.66
8.96
9.03
9.06
9.20
9.44
9.66
9.70
9.43
8.84
8.01
7.10
6.23
5.50
4.91
4.39
3.80
2.98
1.83
0.29
-1.56
-3.57
-5.55
-7.27
-8.50
-9.00
-8.68
-7.52
-5.72
-3.65
-1.71
-0.23
0.67
1.15
1.52
2.07
2.98
4.17
5.43
6.52
7.30
7.77
8.02
8.15
8.16
8.01
7.61
6.95
6.11
5.21
4.42
3.77
3.24
2.71
2.04
1.12
-0.08
-1.53
-3.17
-4.90
-6.61
-8.13
-9.26
-9.77
-9.52
-8.51
-6.92
-5.11
-3.41
-2.06
-1.10
-0.37
0.37
1.24
2.28
3.40
4.44
5.30
5.94
6.39
6.62
6.63
6.40
6.01
5.55
5.19
4.99
4.92
4.85
4.59
4.06
3.27
2.36
1.48
0.71
0.03
-0.68
-1.55
-2.62
-3.85
-5.08
-6.15
-6.91
-7.22
-7.02
-6.36
-5.33
-4.09
-2.81
-1.59
-0.42
0.73
1.92
3.14
4.27
5.20
5.85
6.20
6.29
6.18
5.87
5.29
4.40
3.26
2.01
0.86
-0.05
-0.67
-1.10
-1.51
-2.05
-2.81
-3.78
-4.88
-6.01
-7.14
-8.28
-9.48
-10.78
-12.11
-13.25
-13.94
-13.94
-13.24
-12.03
-10.67
-9.50
-8.71
-8.19
-7.70
-7.01
-6.09
-5.13
-4.49
-4.40
-4.91
-5.86
-6.97
-7.96
-8.72
-9.25
-9.71
-10.23
-10.96
-11.90
-12.89
-13.69
-14.05
-13.87
-13.26
-12.49
-11.92
-11.78
-12.10
-12.69
-13.25
-13.47
-13.16
-12.22
-10.71
-8.77
-6.59
-4.37
-2.22
-0.16
1.83
3.79
5.68
7.43
8.93
10.11
10.97
11.59
12.03
12.38
12.69
12.99
13.28
13.54
13.70
13.71
13.50
13.12
12.63
12.13
11.70
11.28
10.75
9.91
8.67
7.04
5.21
3.45
2.07
1.23
0.94
1.07
1.46
1.97
2.55
3.21
3.94
4.73
5.51
6.23
6.83
7.32
7.70
7.95
8.07
8.03
7.87
7.66
7.45
7.26
7.05
6.68
6.08
5.20
4.15
3.09
2.17
1.46
0.87
0.20
-0.76
-2.11
-3.78
-5.55
-7.06
-8.01
-8.20
-7.60
-6.40
-4.91
-3.46
-2.26
-1.35
-0.66
-0.05
0.57
1.17
1.70
2.10
2.38
2.64
2.97
3.37
3.80
4.14
4.24
4.08
3.68
3.13
2.48
1.73
0.89
-0.08
-1.15
-2.27
-3.40
-4.56
-5.81
-7.22
-8.80
-10.41
-11.77
-12.57
-12.57
-11.77
-10.38
-8.75
-7.25
-6.08
-5.24
-4.58
-3.85
-2.88
-1.63
-0.23
1.12
2.25
3.13
3.87
4.66
5.61
6.71
7.75
8.49
8.74
8.47
7.85
7.12
6.55
6.27
6.31
6.55
6.82
6.91
6.65
5.92
4.71
3.11
1.33
-0.38
-1.73
-2.52
-2.66
-2.22
-1.34
-0.19
1.05
2.24
3.30
4.20
4.92
5.48
5.89
6.19
6.39
6.47
6.43
6.27
6.03
5.78
5.62
5.54
5.50
5.41
5.16
4.69
4.00
3.14
2.16
1.14
0.14
-0.82
-1.76
-2.73
-3.73
-4.71
-5.51
-5.92
-5.76
-5.02
-3.85
-2.51
-1.32
-0.40
0.24
0.75
1.25
1.83
2.43
2.97
3.35
3.54
3.57
3.54
3.55
3.63
3.79
3.94
3.97
3.77
3.26
2.47
1.52
0.59
-0.17
-0.72
-1.21
-1.87
-2.88
-4.24
-5.70
-6.88
-7.41
-7.09
-6.04
-4.50
-2.85
-1.36
-0.18
0.64
1.14
1.37
1.39
1.32
1.29
1.41
1.74
2.24
2.77
3.22
3.48
3.54
3.45
3.29
3.08
2.80
2.37
1.75
0.92
-0.04
-1.05
-2.06
-3.02
-3.99
-5.03
-6.15
-7.35
-8.52
-9.53
-10.25
-10.59
-10.49
-9.95
-9.08
-8.01
-6.94
-6.03
-5.32
-4.77
-4.23
-3.56
-2.69
-1.68
-0.71
0.08
0.57
0.81
0.96
1.17
1.55
2.10
2.75
3.43
4.07
4.66
5.18
5.57
5.74
5.61
5.11
4.21
2.96
1.45
-0.17
-1.73
-3.04
-3.94
-4.28
-4.02
-3.21
-2.01
-0.65
0.61
1.60
2.23
2.57
2.79
3.06
3.52
4.12
4.68
4.96
4.81
4.23
3.42
2.66
2.16
1.99
2.05
2.12
2.00
1.60
0.95
0.18
-0.60
-1.29
-1.87
-2.35
-2.77
-3.15
-3.47
-3.71
-3.90
-4.11
-4.48
-5.08
-5.95
-6.94
-7.78
-8.16
-7.93
-7.08
-5.81
-4.41
-3.12
-2.08
-1.28
-0.65
-0.09
0.47
1.09
1.81
2.63
3.48
4.24
4.76
4.93
4.79
4.43
4.06
3.84
3.83
4.01
4.25
4.35
4.15
3.53
2.47
1.13
-0.24
-1.34
-1.99
-2.18
-2.17
-2.28
-2.79
-3.78
-5.06
-6.29
-7.12
-7.37
-7.04
-6.28
-5.28
-4.20
-3.12
-2.10
-1.17
-0.39
0.27
0.85
1.45
2.12
2.83
3.44
3.78
3.78
3.50
3.10
2.76
2.53
2.33
2.03
1.55
0.92
0.28
-0.24
-0.63
-0.99
-1.54
-2.41
-3.60
-5.00
-6.36
-7.53
-8.45
-9.18
-9.80
-10.26
-10.43
-10.09
-9.11
-7.55
-5.65
-3.80
-2.28
-1.20
-0.47
0.12
0.73
1.41
2.08
2.65
3.06
3.35
3.62
3.90
4.14
4.23
4.03
3.49
2.69
1.81
1.07
0.57
0.30
0.09
-0.24
-0.81
-1.62
-2.57
-3.55
-4.47
-5.33
-6.16
-6.92
-7.49
-7.71
-7.43
-6.61
-5.35
-3.90
-2.51
-1.38
-0.53
0.14
0.82
1.65
2.65
3.72
4.64
5.24
5.47
5.43
5.35
5.40
5.66
6.00
6.19
6.01
5.39
4.44
3.40
2.48
1.79
1.31
0.88
0.35
-0.40
-1.37
-2.48
-3.67
-4.86
-6.01
-7.05
-7.91
-8.45
-8.55
-8.12
-7.22
-5.99
-4.67
-3.47
-2.51
-1.80
-1.19
-0.54
0.30
1.34
2.51
3.65
4.61
5.25
5.53
5.52
5.33
5.15
5.08
5.17
5.32
5.39
5.24
4.81
4.13
3.28
2.40
1.53
0.68
-0.19
-1.15
-2.23
-3.41
-4.66
-5.89
-7.06
-8.08
-8.94
-9.58
-9.91
-9.80
-9.14
-7.90
-6.22
-4.38
-2.73
-1.51
-0.76
-0.33
0.08
0.72
1.67
2.80
3.88
4.67
5.09
5.16
5.00
4.71
4.39
4.05
3.76
3.55
3.47
3.47
3.46
3.28
2.83
2.09
1.08
-0.04
-1.21
-2.35
-3.43
-4.46
-5.39
-6.22
-6.94
-7.54
-7.97
-8.18
-8.01
-7.40
-6.35
-5.01
-3.61
-2.39
-1.40
-0.57
0.29
1.34
2.58
3.87
4.94
5.61
5.84
5.74
5.53
5.42
5.46
5.59
5.64
5.45
4.99
4.32
3.59
2.92
2.36
1.82
1.21
0.45
-0.47
-1.49
-2.58
-3.78
-5.13
-6.64
-8.17
-9.47
-10.24
-10.30
-9.63
-8.44
-7.03
-5.65
-4.46
-3.44
-2.48
-1.49
-0.39
0.76
1.88
2.84
3.56
4.03
4.30
4.46
4.55
4.57
4.44
4.06
3.45
2.72
2.09
1.71
1.64
1.71
1.65
1.23
0.34
-0.93
-2.34
-3.68
-4.82
-5.78
-6.62
-7.36
-7.93
-8.18
-8.00
-7.37
-6.39
-5.21
-3.99
-2.83
-1.73
-0.62
0.53
1.68
2.73
3.55
4.03
4.21
4.22
4.24
4.42
4.72
5.03
5.12
4.84
4.18
3.30
2.42
1.73
1.32
1.13
0.97
0.66
0.04
-1.01
-2.52
-4.39
-6.41
-8.24
-9.57
-10.14
-9.92
-9.01
-7.64
-6.08
-4.47
-2.91
-1.42
-0.05
1.15
2.08
2.71
3.11
3.41
3.77
4.29
4.96
5.69
6.34
6.80
7.00
6.93
6.57
5.90
4.94
3.79
2.62
1.67
1.11
0.91
0.86
0.64
-0.01
-1.19
-2.76
-4.46
-5.97
-7.09
-7.69
-7.77
-7.39
-6.65
-5.71
-4.69
-3.68
-2.66
-1.62
-0.51
0.64
1.75
2.75
3.61
4.34
5.02
5.67
6.22
6.60
6.74
6.65
6.41
6.10
5.76
5.37
4.89
4.32
3.70
3.06
2.37
1.61
0.74
-0.19
-1.15
-2.11
-3.11
-4.27
-5.66
-7.19
-8.60
-9.52
-9.67
-8.97
-7.58
-5.88
-4.22
-2.84
-1.78
-0.90
-0.04
0.94
2.04
3.14
4.10
4.80
5.23
5.46
5.62
5.78
5.96
6.11
6.16
6.08
5.83
5.43
4.88
4.22
3.49
2.78
2.18
1.73
1.42
1.14
0.76
0.13
-0.86
-2.25
-3.95
-5.77
-7.38
-8.37
-8.45
-7.53
-5.78
-3.62
-1.49
0.28
1.56
2.47
3.21
3.98
4.87
5.84
6.74
7.46
7.89
8.04
7.94
7.71
7.44
7.18
6.98
6.81
6.63
6.40
6.09
5.69
5.17
4.48
3.61
2.57
1.44
0.34
-0.66
-1.64
-2.71
-4.04
-5.69
-7.50
-9.13
-10.14
-10.23
-9.37
-7.80
-5.98
-4.31
-3.05
-2.19
-1.53
-0.86
0.01
1.08
2.24
3.33
4.21
4.77
5.01
4.96
4.73
4.45
4.18
3.93
3.63
3.16
2.51
1.71
0.88
0.11
-0.56
-1.17
-1.81
-2.54
-3.35
-4.25
-5.29
-6.55
-8.09
-9.86
-11.65
-13.08
-13.77
-13.49
-12.27
-10.42
-8.36
-6.48
-4.99
-3.88
-3.01
-2.23
-1.47
-0.72
-0.04
0.56
1.13
1.74
2.45
3.23
3.98
4.56
4.87
4.92
4.80
4.63
4.53
4.51
4.52
4.41
4.03
3.25
2.00
0.34
-1.62
-3.69
-5.68
-7.41
-8.68
-9.33
-9.29
-8.59
-7.38
-5.90
-4.42
-3.09
-1.99
-1.04
-0.12
0.86
1.89
2.88
3.74
4.39
4.88
5.29
5.69
6.13
6.53
6.78
6.77
6.44
5.81
4.97
4.03
3.13
2.33
1.64
1.01
0.33
-0.47
-1.48
-2.65
-3.94
-5.24
-6.47
-7.54
-8.37
-8.87
-8.92
-8.45
-7.45
-6.07
-4.55
-3.08
-1.78
-0.64
0.45
1.57
2.69
3.66
4.36
4.71
4.75
4.62
4.49
4.45
4.54
4.75
5.03
5.33
5.59
5.71
5.62
5.28
4.73
4.09
3.41
2.77
2.11
1.39
0.55
-0.48
-1.71
-3.11
-4.63
-6.12
-7.36
-8.07
-8.04
-7.25
-5.85
-4.17
-2.53
-1.15
-0.02
0.97
1.99
3.13
4.34
5.54
6.64
7.57
8.32
8.84
9.11
9.06
8.71
8.13
7.45
6.83
6.35
6.04
5.83
5.59
5.24
4.70
3.98
3.10
2.07
0.85
-0.59
-2.33
-4.32
-6.37
-8.22
-9.57
-10.20
-10.08
-9.33
-8.15
-6.78
-5.36
-4.01
-2.78
-1.68
-0.69
0.25
1.17
2.07
2.86
3.39
3.58
3.44
3.13
2.86
2.81
3.01
3.32
3.51
3.44
3.08
2.55
2.04
1.66
1.36
0.98
0.34
-0.71
-2.12
-3.77
-5.43
-6.90
-8.01
-8.66
-8.79
-8.38
-7.50
-6.28
-4.94
-3.66
-2.56
-1.60
-0.68
0.36
1.58
2.93
4.28
5.46
6.37
6.95
7.25
7.33
7.23
7.00
6.66
6.25
5.79
5.31
4.86
4.44
4.03
3.57
2.94
2.02
0.74
-0.88
-2.70
-4.50
-6.07
-7.26
-8.01
-8.30
-8.14
-7.51
-6.40
-4.87
-3.05
-1.17
0.55
2.00
3.19
4.21
5.24
6.34
7.49
8.52
9.23
9.48
9.29
8.83
8.34
8.01
7.82
7.66
7.32
6.71
5.88
4.98
4.17
3.44
2.70
1.77
0.59
-0.78
-2.22
-3.62
-4.96
-6.27
-7.50
-8.53
-9.12
-9.08
-8.35
-7.09
-5.58
-4.09
-2.70
-1.41
-0.09
1.27
2.61
3.83
4.82
5.56
6.09
6.49
6.79
7.00
7.12
7.19
7.29
7.45
7.62
7.65
7.36
6.63
5.49
4.16
2.88
1.84
1.09
0.50
-0.11
-0.90
-1.91
-3.10
-4.43
-5.82
-7.21
-8.47
-9.41
-9.80
-9.50
-8.51
-7.00
-5.25
-3.52
-1.97
-0.66
0.46
1.41
2.21
2.87
3.42
3.87
4.30
4.77
5.31
5.86
6.37
6.79
7.07
7.22
7.26
7.18
6.90
6.36
5.49
4.35
3.10
1.98
1.18
0.75
0.56
0.38
-0.04
-0.87
-2.10
-3.64
-5.30
-6.84
-8.04
-8.74
-8.82
-8.29
-7.23
-5.85
-4.37
-2.95
-1.68
-0.53
0.58
1.69
2.77
3.70
4.30
4.52
4.37
4.03
3.66
3.40
3.27
3.22
3.15
3.00
2.78
2.45
1.97
1.29
0.35
-0.85
-2.26
-3.80
-5.43
-7.18
-9.14
-11.39
-13.94
-16.73
-19.54
-21.99
-23.62
-23.97
-22.76
-20.01
-16.11
-11.70
-7.43
-3.77
-0.82
1.54
3.54
5.34
6.95
8.33
9.44
10.35
11.21
12.15
13.21
14.27
15.13
15.56
15.43
14.72
13.62
12.38
11.28
10.49
9.98
9.62
9.18
8.54
7.67
6.69
5.67
4.64
3.56
2.34
0.97
-0.50
-1.88
-2.98
-3.59
-3.65
-3.14
-2.19
-1.04
0.08
0.95
1.47
1.67
1.69
1.69
1.84
2.18
2.64
3.11
3.48
3.66
3.62
3.37
2.98
2.54
2.12
1.73
1.30
0.72
-0.09
-1.11
-2.24
-3.33
-4.30
-5.14
-5.92
-6.70
-7.54
-8.44
-9.39
-10.42
-11.49
-12.51
-13.26
-13.46
-12.91
-11.56
-9.59
-7.35
-5.15
-3.19
-1.48
0.06
1.51
2.84
3.97
4.77
5.21
5.33
5.26
5.12
4.98
4.83
4.60
4.26
3.84
3.41
3.06
2.83
2.72
2.60
2.33
1.77
0.86
-0.33
-1.64
-2.86
-3.86
-4.65
-5.38
-6.23
-7.29
-8.48
-9.55
-10.22
-10.30
-9.77
-8.73
-7.33
-5.69
-3.88
-1.95
0.01
1.85
3.41
4.58
5.36
5.84
6.12
6.31
6.44
6.48
6.42
6.24
6.01
5.79
5.61
5.47
5.27
4.91
4.30
3.44
2.42
1.39
0.49
-0.22
-0.78
-1.28
-1.90
-2.77
-3.99
-5.56
-7.40
-9.28
-10.90
-11.91
-12.03
-11.21
-9.59
-7.54
-5.52
-3.84
-2.63
-1.79
-1.08
-0.29
0.69
1.88
3.16
4.40
5.46
6.26
6.74
6.92
6.87
6.67
6.42
6.13
5.78
5.31
4.72
4.06
3.43
2.96
2.64
2.38
2.05
1.52
0.76
-0.21
-1.39
-2.76
-4.37
-6.19
-8.07
-9.68
-10.70
-10.84
-10.05
-8.50
-6.51
-4.44
-2.57
-1.01
0.24
1.28
2.22
3.14
4.04
4.86
5.51
5.92
6.09
6.09
6.05
6.04
6.01
5.84
5.37
4.54
3.44
2.31
1.40
0.85
0.65
0.61
0.50
0.17
-0.47
-1.44
-2.75
-4.41
-6.37
-8.46
-10.38
-11.74
-12.26
-11.88
-10.80
-9.41
-8.06
-6.94
-6.03
-5.17
-4.20
-3.17
-2.23
-1.58
-1.33
-1.39
-1.51
-1.43
-1.02
-0.35
0.40
0.99
1.33
1.43
1.40
1.37
1.35
1.29
1.07
0.63
-0.05
-0.93
-1.93
-3.00
-4.05
-5.03
-5.87
-6.47
-6.78
-6.72
-6.28
-5.51
-4.47
-3.31
-2.14
-1.07
-0.12
0.71
1.49
2.24
2.97
3.61
4.10
4.36
4.41
4.29
4.10
3.92
3.79
3.71
3.63
3.51
3.33
3.06
2.71
2.24
1.62
0.82
-0.23
-1.54
-3.13
-4.93
-6.80
-8.50
-9.76
-10.39
-10.31
-9.64
-8.65
-7.63
-6.71
-5.88
-4.96
-3.80
-2.35
-0.76
0.74
1.94
2.78
3.35
3.86
4.46
5.20
5.98
6.63
6.98
6.98
6.66
6.14
5.55
4.96
4.40
3.83
3.19
2.38
1.35
0.08
-1.38
-2.94
-4.47
-5.77
-6.69
-7.07
-6.87
-6.13
-4.98
-3.60
-2.14
-0.71
0.69
2.06
3.42
4.73
5.93
6.93
7.72
8.32
8.79
9.18
9.49
9.66
9.61
9.29
8.73
8.04
7.36
6.80
6.42
6.15
5.84
5.39
4.69
3.71
2.47
1.03
-0.56
-2.22
-3.80
-5.20
-6.27
-6.91
-7.10
-6.84
-6.17
-5.11
-3.71
-2.04
-0.22
1.60
3.30
4.78
6.05
7.11
7.99
8.68
9.18
9.47
9.57
9.53
9.40
9.23
9.04
8.81
8.53
8.21
7.85
7.47
7.06
6.58
6.01
5.29
4.38
3.28
2.02
0.61
-0.92
-2.57
-4.34
-6.17
-7.94
-9.48
-10.56
-10.96
-10.60
-9.54
-8.00
-6.29
-4.69
-3.32
-2.14
-0.96
0.37
1.88
3.39
4.67
5.52
5.87
5.86
5.73
5.68
5.80
6.00
6.17
6.20
6.11
5.96
5.80
5.61
5.27
4.65
3.68
2.47
1.24
0.23
-0.41
-0.74
-0.98
-1.39
-2.20
-3.46
-5.06
-6.81
-8.49
-9.89
-10.77
-10.97
-10.41
-9.13
-7.34
-5.39
-3.63
-2.28
-1.36
-0.70
-0.03
0.84
1.93
3.12
4.23
5.10
5.68
6.01
6.18
6.26
6.31
6.32
6.27
6.12
5.86
5.47
4.93
4.25
3.49
2.72
2.03
1.41
0.83
0.15
-0.70
-1.79
-3.08
-4.50
-5.97
-7.42
-8.75
-9.85
-10.51
-10.55
-9.85
-8.47
-6.66
-4.80
-3.23
-2.09
-1.30
-0.64
0.12
1.07
2.16
3.20
4.02
4.49
4.63
4.55
4.33
4.05
3.71
3.26
2.69
2.00
1.27
0.56
-0.08
-0.66
-1.28
-2.05
-3.05
-4.28
-5.68
-7.15
-8.60
-10.04
-11.47
-12.87
-14.13
-15.03
-15.34
-14.88
-13.64
-11.79
-9.62
-7.48
-5.65
-4.23
-3.17
-2.28
-1.36
-0.28
0.89
2.02
2.93
3.55
3.93
4.23
4.61
5.13
5.72
6.20
6.38
6.15
5.48
4.53
3.51
2.61
1.97
1.58
1.32
1.01
0.51
-0.26
-1.35
-2.70
-4.30
-6.03
-7.71
-9.10
-9.88
-9.80
-8.76
-6.89
-4.57
-2.23
-0.29
1.03
1.74
2.10
2.45
3.07
4.05
5.22
6.31
7.04
7.25
7.02
6.57
6.15
5.89
5.82
5.86
5.88
5.86
5.81
5.74
5.66
5.50
5.17
4.60
3.80
2.86
1.87
0.87
-0.19
-1.40
-2.85
-4.54
-6.33
-7.91
-8.91
-9.01
-8.08
-6.25
-3.89
-1.43
0.75
2.47
3.78
4.84
5.78
6.61
7.24
7.49
7.26
6.52
5.34
3.85
2.14
0.34
-1.40
-2.89
-3.85
-4.12
-3.69
-2.81
-1.92
-1.52
-1.89
-3.04
-4.67
-6.32
-7.62
-8.43
-8.92
-9.40
-10.16
-11.23
-12.45
-13.49
-14.06
-14.05
-13.51
-12.66
-11.68
-10.73
-9.83
-8.88
-7.76
-6.38
-4.77
-3.07
-1.50
-0.22
0.76
1.50
2.17
2.92
3.78
4.75
5.76
6.79
7.89
9.13
10.51
11.93
13.16
14.03
14.42
14.39
14.11
13.76
13.47
13.24
12.97
12.54
11.91
11.15
10.42
9.92
9.75
9.89
10.17
10.36
10.34
10.29
10.59
11.66
13.68
16.48
19.68
22.75
25.13
26.53
27.06
27.17
27.57
28.81
31.15
34.44
38.03
40.82
41.91
41.20
39.57
38.84
40.88
47.14
58.03
72.61
88.09
101.20
109.28
110.89
106.21
96.15
82.95
70.08
61.51
59.20
63.53
72.94
83.94
92.41
93.28
83.68
64.00
37.25
5.25
-30.29
-67.88
-106.12
-143.04
-178.81
-213.60
-247.21
-279.46
-313.10
-349.54
-387.29
-421.77
-445.98
-456.52
-452.49
-435.35
-391.12
-316.91
-221.70
-121.84
-39.36
27.12
80.68
121.82
149.52
162.71
161.22
149.90
137.54
133.22
143.18
165.09
191.42
212.86
221.14
208.74
172.35
113.67
38.91
-41.94
-119.66
-185.40
-231.76
-254.16
-253.01
-232.09
-197.07
-153.85
-106.82
-59.84
-15.30
25.05
59.04
83.25
95.11
95.25
88.58
83.21
86.06
99.59
120.00
138.90
147.35
140.76
120.80
93.59
65.62
39.87
15.51
-9.38
-34.26
-54.59
-63.51
-55.78
-31.40
3.40
38.36
63.11
70.95
60.78
36.95
7.67
-17.45
-30.14
-25.71
-4.54
28.19
64.45
96.31
118.61
130.22
133.31
131.35
127.07
121.47
114.19
104.58
92.64
79.13
65.16
51.49
38.22
25.14
12.23
0.18
-9.63
-15.74
-17.18
-14.06
-7.60
0.24
7.42
12.39
14.48
13.85
11.36
8.18
5.49
4.15
4.53
6.48
9.42
12.66
15.55
17.81
19.55
21.21
23.24
25.82
28.61
30.80
31.35
29.49
24.99
18.36
10.54
2.62
-4.47
-10.15
-14.05
-16.19
-17.16
-18.56
-23.09
-34.09
-54.34
-84.39
-121.59
-160.15
-192.70
-212.59
-215.88
-202.00
-173.01
-132.20
-82.99
-28.92
25.76
75.58
114.43
137.13
141.38
128.89
104.98
76.68
50.48
30.53
18.15
12.35
11.12
12.36
14.58
16.91
18.96
20.54
21.42
21.32
19.93
17.31
13.78
9.99
6.60
3.97
1.94
-0.05
-2.57
-5.72
-8.99
-11.32
-11.65
-9.39
-4.70
1.56
8.30
14.58
19.88
24.04
27.04
28.82
29.31
28.61
27.02
25.14
23.57
22.76
22.82
23.50
24.36
24.95
24.96
24.35
23.29
22.19
21.45
21.38
21.95
22.82
23.36
22.89
20.92
17.37
12.62
7.47
2.87
-0.32
-1.66
-1.22
0.43
2.58
4.67
6.53
8.40
10.66
13.49
16.65
19.49
21.20
21.26
19.67
17.14
14.76
13.61
14.29
16.67
19.98
23.15
25.33
26.25
26.37
26.69
28.32
32.03
37.82
44.73
50.89
53.75
50.68
39.70
20.39
-5.43
-33.71
-59.01
-76.20
-82.31
-77.83
-66.71
-54.86
-47.87
-48.90
-57.75
-71.41
-85.76
-97.39
-104.69
-107.96
-108.57
-107.85
-106.37
-103.85
-99.81
-94.22
-87.70
-80.96
-73.87
-64.84
-51.26
-30.76
-2.80
30.64
65.58
97.76
124.50
145.52
162.23
176.13
187.30
194.15
194.38
186.62
171.48
151.52
130.13
110.09
92.51
76.70
60.90
43.33
22.99
0.02
-24.66
-49.85
-74.67
-98.76
-122.24
-145.22
-167.49
-188.22
-205.88
-218.48
-223.84
-220.15
-206.64
-183.84
-153.53
-118.49
-82.05
-47.48
-17.47
6.31
23.34
33.66
37.72
36.07
29.17
17.56
2.39
-14.13
-28.82
-38.17
-40.08
-34.35
-22.50
-6.97
10.05
27.45
44.80
61.36
75.36
83.38
82.29
71.27
52.45
30.02
8.42
-9.76
-24.57
-32.96
-32.99
-23.87
-6.63
15.90
40.20
63.52
83.95
100.39
112.45
119.41
119.82
114.52
105.22
93.68
81.89
71.08
61.37
51.76
39.74
22.06
-4.76
-40.17
-83.39
-131.30
-178.19
-216.45
-238.65
-240.59
-222.71
-189.90
-149.59
-109.38
-74.06
-45.13
-21.75
-2.45
13.43
25.84
34.88
41.40
46.83
52.93
60.81
70.35
80.36
88.99
94.79
97.29
97.14
95.51
93.75
92.80
92.82
93.24
93.16
91.87
89.10
85.16
80.45
75.39
70.07
64.21
57.25
48.66
38.18
26.02
12.91
-0.12
-11.97
-21.78
-29.14
-34.24
-37.72
-40.41
-43.00
-45.72
-48.32
-50.18
-50.69
-49.47
-46.61
-42.65
-38.35
-34.47
-31.54
-29.74
-28.97
-28.96
-29.37
-29.89
-30.35
-30.63
-30.73
-30.74
-30.80
-31.05
-31.61
-32.58
-33.90
-35.45
-36.98
-38.16
-38.61
-38.07
-36.39
-33.62
-29.96
-25.62
-20.81
-15.69
-10.37
-5.03
0.08
4.63
8.41
11.38
13.78
16.03
18.54
21.47
24.76
28.10
31.11
33.53
35.25
36.27
36.65
36.37
35.37
33.61
31.14
28.16
24.96
21.82
18.93
16.41
14.31
12.63
11.46
10.79
10.60
10.67
10.67
10.21
9.03
7.14
4.85
2.63
0.93
-0.01
-0.26
-0.16
-0.15
-0.62
-1.74
-3.46
-5.63
-8.01
-10.44
-12.75
-14.80
-16.47
-17.67
-18.37
-18.65
-18.69
-18.76
-19.04
-19.57
-20.21
-20.67
-20.62
-19.79
-18.11
-15.73
-12.97
-10.25
-7.99
-6.52
-6.04
-6.57
-7.95
-9.83
-11.67
-12.91
-13.07
-11.98
-9.82
-7.12
-4.54
-2.68
-1.85
-2.05
-3.15
-4.95
-7.35
-10.31
-13.73
-17.42
-21.05
-24.30
-26.87
-28.63
-29.57
-29.80
-29.50
-28.86
-28.03
-27.12
-26.21
-25.33
-24.50
-23.74
-23.12
-22.71
-22.58
-22.74
-23.08
-23.32
-23.04
-21.77
-19.19
-15.21
-10.16
-4.63
0.66
5.09
8.36
10.44
11.56
12.01
12.04
11.80
11.38
10.80
10.10
9.30
8.47
7.59
6.62
5.47
3.99
2.19
0.20
-1.71
-3.20
-4.02
-4.15
-3.76
-3.21
-2.83
-2.88
-3.52
-4.77
-6.58
-8.78
-11.03
-12.90
-13.92
-13.81
-12.62
-10.69
-8.50
-6.44
-4.57
-2.62
-0.13
3.25
7.60
12.64
17.73
22.16
25.30
26.67
26.15
23.89
20.27
15.81
10.98
6.04
0.97
-4.60
-11.29
-19.60
-29.70
-41.03
-52.30
-61.67
-67.21
-67.40
-61.55
-50.08
-34.57
-17.51
-1.76
10.15
16.67
17.57
13.93
7.56
0.29
-6.60
-12.57
-17.68
-22.17
-26.17
-29.63
-32.49
-34.75
-36.55
-37.98
-38.96
-39.20
-38.33
-36.00
-32.10
-26.73
-20.18
-12.81
-4.90
3.40
12.06
21.11
30.47
39.77
48.37
55.43
60.33
62.93
63.72
63.76
64.10
65.44
67.84
70.78
73.56
75.70
77.12
78.00
78.53
78.63
78.00
76.26
73.17
68.77
63.27
56.95
50.03
42.67
35.05
27.46
20.26
13.89
8.67
4.74
2.03
0.26
-0.91
-1.89
-2.90
-3.96
-4.96
-5.65
-5.85
-5.49
-4.65
-3.57
-2.54
-1.85
-1.68
-2.11
-3.03
-4.23
-5.43
-6.39
-6.97
-7.15
-7.05
-6.82
-6.62
-6.52
-6.52
-6.52
-6.40
-6.01
-5.32
-4.45
-3.63
-3.13
-3.12
-3.61
-4.49
-5.60
-6.80
-7.99
-9.01
-9.72
-9.92
-9.51
-8.56
-7.29
-5.99
-4.86
-3.91
-2.98
-1.91
-0.66
0.65
1.81
2.65
3.18
3.55
3.91
4.31
4.59
4.50
3.73
2.16
-0.17
-3.04
-6.13
-9.22
-12.23
-15.35
-18.85
-22.98
-27.67
-32.46
-36.55
-39.03
-39.26
-37.16
-33.27
-28.44
-23.55
-19.07
-15.03
-11.05
-6.71
-1.88
3.15
7.73
11.11
12.72
12.45
10.60
7.68
4.16
0.12
-4.72
-10.95
-19.12
-29.44
-41.61
-54.76
-67.56
-78.46
-85.94
-88.82
-86.42
-78.72
-66.31
-50.22
-31.64
-11.63
9.11
30.27
51.66
72.84
92.77
109.70
121.57
126.63
124.24
115.23
101.67
86.29
71.54
59.06
49.41
42.34
37.16
33.10
29.55
26.05
22.34
18.29
13.95
9.46
4.96
0.56
-3.65
-7.61
-11.20
-14.32
-16.87
-18.83
-20.28
-21.31
-22.05
-22.55
-22.82
-22.89
-22.79
-22.63
-22.58
-22.78
-23.33
-24.19
-25.19
-26.17
-27.08
-28.09
-29.54
-31.80
-35.06
-39.17
-43.70
-48.01
-51.49
-53.68
-54.31
-53.27
-50.53
-46.18
-40.44
-33.71
-26.65
-20.00
-14.44
-10.42
-7.93
-6.61
-5.83
-5.02
-3.81
-2.16
-0.23
1.83
4.04
6.60
9.75
13.65
18.11
22.67
26.66
29.40
30.39
29.38
26.39
21.68
15.73
9.26
3.04
-2.08
-5.53
-7.04
-6.76
-5.18
-2.96
-0.83
0.60
0.82
-0.40
-2.96
-6.38
-9.91
-12.71
-14.19
-14.17
-12.87
-10.77
-8.34
-5.94
-3.76
-1.94
-0.57
0.28
0.68
0.86
1.12
1.72
2.68
3.81
4.78
5.25
5.07
4.18
2.74
0.84
-1.38
-3.88
-6.70
-9.89
-13.54
-17.71
-22.42
-27.49
-32.53
-36.92
-40.08
-41.61
-41.62
-40.66
-39.57
-39.08
-39.40
-40.10
-40.17
-38.39
-33.79
-25.99
-15.38
-2.98
9.84
21.76
31.87
39.86
45.95
50.74
54.86
58.74
62.51
66.09
69.35
72.22
74.72
76.87
78.61
79.78
80.20
79.73
78.40
76.41
74.08
71.79
69.85
68.49
67.89
68.11
69.16
70.86
72.78
74.11
73.73
70.36
62.92
50.97
34.93
16.03
-4.05
-23.75
-41.99
-58.26
-72.41
-84.27
-93.55
-99.85
-102.98
-103.12
-100.91
-97.08
-92.27
-86.78
-80.64
-73.97
-67.07
-60.59
-55.23
-51.45
-49.21
-47.95
-46.81
-44.98
-41.98
-37.79
-32.79
-27.51
-22.41
-17.81
-13.83
-10.45
-7.67
-5.42
-3.63
-2.15
-0.73
0.95
3.14
5.96
9.34
12.98
16.47
19.30
21.11
21.71
21.19
19.83
18.03
16.15
14.39
12.81
11.35
9.94
8.50
7.01
5.39
3.59
1.61
-0.45
-2.31
-3.59
-3.95
-3.18
-1.32
1.44
4.80
8.40
11.90
14.99
17.43
19.08
19.95
20.13
19.78
18.96
17.65
15.79
13.35
10.36
6.98
3.39
-0.24
-3.79
-7.16
-10.23
-12.91
-15.07
-16.70
-17.85
-18.63
-19.11
-19.32
-19.19
-18.62
-17.52
-15.90
-13.93
-11.85
-9.95
-8.35
-7.03
-5.80
-4.46
-2.92
-1.28
0.23
1.45
2.35
3.11
3.98
5.16
6.62
8.15
9.44
10.23
10.46
10.26
9.85
9.51
9.43
9.69
10.25
11.02
11.82
12.48
12.83
12.78
12.37
11.75
11.16
10.83
10.91
11.42
12.20
13.01
13.65
14.02
14.20
14.35
14.67
15.28
16.12
17.03
17.83
18.35
18.58
18.54
18.34
18.01
17.55
16.87
15.87
14.52
12.84
11.01
9.21
7.60
6.28
5.18
4.14
2.96
1.52
-0.18
-2.02
-3.77
-5.26
-6.35
-7.06
-7.45
-7.61
-7.57
-7.35
-6.88
-6.10
-5.02
-3.68
-2.17
-0.62
0.88
2.27
3.53
4.72
5.90
7.11
8.39
9.76
11.22
12.72
14.21
15.54
16.57
17.15
17.23
16.88
16.22
15.41
14.49
13.40
12.00
10.19
8.04
5.77
3.71
2.14
1.23
0.96
1.21
1.79
2.58
3.52
4.59
5.75
6.90
7.92
8.64
8.99
8.99
8.77
8.48
8.20
7.91
7.51
6.88
5.93
4.70
3.34
2.01
0.85
-0.12
-0.96
-1.78
-2.69
-3.70
-4.73
-5.65
-6.35
-6.82
-7.10
-7.28
-7.39
-7.41
-7.25
-6.85
-6.23
-5.49
-4.72
-3.97
-3.23
-2.40
-1.46
-0.46
0.43
1.02
1.21
1.09
0.87
0.82
1.09
1.70
2.52
3.33
3.97
4.36
4.53
4.56
4.53
4.48
4.40
4.28
4.10
3.86
3.60
3.34
3.09
2.80
2.40
1.84
1.12
0.31
-0.48
-1.15
-1.66
-2.04
-2.30
-2.50
-2.64
-2.75
-2.89
-3.09
-3.41
-3.83
-4.23
-4.47
-4.48
-4.28
-3.99
-3.75
-3.66
-3.73
-3.88
-4.04
-4.18
-4.34
-4.58
-4.95
-5.42
-5.92
-6.35
-6.64
-6.80
-6.83
-6.75
-6.51
-6.01
-5.22
-4.12
-2.79
-1.28
0.33
2.01
3.70
5.30
6.64
7.55
7.94
7.86
7.57
7.40
7.63
8.34
9.40
10.43
10.98
10.69
9.42
7.27
4.55
1.66
-1.01
-3.16
-4.61
-5.21
-4.88
-3.64
-1.63
0.82
3.30
5.33
6.56
6.84
6.24
5.13
3.96
3.20
3.12
3.64
4.35
4.63
3.94
2.09
-0.70
-3.85
-6.70
-8.74
-9.77
-9.91
-9.39
-8.50
-7.48
-6.57
-6.07
-6.22
-7.18
-8.90
-11.19
-13.77
-16.45
-19.25
-22.40
-26.18
-30.73
-35.90
-41.25
-46.20
-50.29
-53.40
-55.72
-57.56
-59.12
-60.35
-60.93
-60.55
-59.15
-56.95
-54.38
-51.78
-49.23
-46.53
-43.36
-39.55
-35.09
-30.16
-24.88
-19.32
-13.49
-7.49
-1.61
3.79
8.34
11.87
14.41
16.10
17.03
17.19
16.60
15.44
14.30
13.97
15.22
18.48
23.57
29.77
36.07
41.48
45.35
47.45
47.90
47.08
45.46
43.44
41.40
39.59
38.18
37.22
36.70
36.46
36.32
36.03
35.36
34.16
32.34
29.93
27.05
23.91
20.73
17.77
15.26
13.28
11.78
10.56
9.42
8.24
7.15
6.41
6.25
6.74
7.67
8.70
9.51
10.05
10.46
11.01
11.86
12.93
13.99
14.73
15.05
14.98
14.72
14.40
14.04
13.51
12.65
11.42
9.92
8.35
6.88
5.55
4.36
3.24
2.20
1.28
0.49
-0.28
-1.27
-2.70
-4.75
-7.29
-10.02
-12.46
-14.17
-14.87
-14.61
-13.62
-12.27
-10.88
-9.69
-8.77
-8.15
-7.83
-7.90
-8.40
-9.30
-10.42
-11.44
-12.06
-12.10
-11.69
-11.09
-10.63
-10.46
-10.54
-10.66
-10.64
-10.40
-10.05
-9.73
-9.59
-9.70
-10.04
-10.53
-11.09
-11.55
-11.68
-11.27
-10.18
-8.44
-6.28
-4.06
-2.13
-0.73
0.05
0.29
0.16
-0.13
-0.39
-0.51
-0.45
-0.24
0.04
0.32
0.58
0.84
1.11
1.39
1.72
2.10
2.58
3.18
3.84
4.34
4.36
3.55
1.66
-1.34
-5.22
-9.54
-13.73
-17.28
-19.79
-21.01
-20.91
-19.58
-17.26
-14.30
-11.09
-8.04
-5.49
-3.63
-2.54
-2.12
-2.16
-2.44
-2.74
-2.86
-2.67
-2.10
-1.16
0.08
1.45
2.79
3.94
4.75
5.18
5.17
4.72
3.81
2.48
0.81
-0.98
-2.54
-3.47
-3.43
-2.35
-0.42
1.94
4.21
6.03
7.28
8.10
8.67
9.15
9.56
9.77
9.66
9.20
8.49
7.71
7.02
6.54
6.29
6.26
6.47
6.99
7.84
8.87
9.63
9.51
7.87
4.45
-0.43
-5.88
-10.75
-14.04
-15.24
-14.54
-12.64
-10.41
-8.63
-7.67
-7.58
-8.08
-8.80
-9.39
-9.59
-9.27
-8.45
-7.23
-5.72
-4.05
-2.31
-0.63
0.78
1.69
1.91
1.38
0.32
-0.91
-1.87
-2.27
-2.11
-1.65
-1.29
-1.40
-2.10
-3.28
-4.62
-5.72
-6.23
-5.91
-4.71
-2.78
-0.36
2.19
4.57
6.55
8.06
9.12
9.83
10.25
10.42
10.32
9.93
9.28
8.40
7.33
6.13
4.83
3.52
2.29
1.31
0.69
0.49
0.58
0.70
0.52
-0.19
-1.49
-3.23
-5.18
-7.10
-8.87
-10.47
-11.95
-13.22
-14.09
-14.31
-13.74
-12.44
-10.69
-8.88
-7.34
-6.19
-5.37
-4.66
-3.93
-3.11
-2.27
-1.54
-0.99
-0.65
-0.46
-0.38
-0.46
-0.79
-1.57
-2.93
-4.94
-7.50
-10.37
-13.34
-16.23
-19.10
-22.17
-25.67
-29.75
-34.32
-39.05
-43.45
-47.03
-49.42
-50.42
-50.02
-48.37
-45.75
-42.55
-39.24
-36.20
-33.61
-31.25
-28.54
-24.63
-18.69
-10.27
0.54
13.01
25.95
37.96
47.80
54.66
58.22
58.76
56.90
53.52
49.48
45.54
42.23
39.88
38.56
38.09
38.12
38.18
37.79
36.62
34.54
31.67
28.21
24.44
20.62
16.93
13.49
10.37
7.65
5.46
3.96
3.30
3.57
4.69
6.43
8.38
10.11
11.26
11.70
11.47
10.78
9.90
9.02
8.29
7.76
7.46
7.42
7.71
8.38
9.37
10.43
11.12
10.98
9.76
7.56
4.87
2.34
0.51
-0.37
-0.45
-0.06
0.40
0.69
0.77
0.72
0.70
0.80
1.02
1.24
1.35
1.23
0.88
0.37
-0.15
-0.55
-0.77
-0.85
-0.92
-1.14
-1.61
-2.32
-3.18
-4.07
-4.90
-5.62
-6.27
-6.96
-7.77
-8.71
-9.71
-10.61
-11.25
-11.55
-11.53
-11.30
-11.02
-10.75
-10.47
-10.03
-9.28
-8.10
-6.53
-4.74
-2.97
-1.42
-0.22
0.59
1.04
1.24
1.27
1.22
1.21
1.31
1.54
1.85
2.08
2.05
1.65
0.87
-0.14
-1.18
-2.10
-2.86
-3.54
-4.24
-5.01
-5.78
-6.34
-6.48
-6.08
-5.19
-3.99
-2.70
-1.48
-0.34
0.81
2.08
3.47
4.89
6.11
6.94
7.26
7.08
6.57
5.95
5.48
5.27
5.37
5.69
6.05
6.29
6.28
5.92
5.19
4.09
2.66
1.01
-0.75
-2.42
-3.77
-4.61
-4.82
-4.42
-3.55
-2.45
-1.37
-0.50
0.12
0.55
0.97
1.53
2.32
3.26
4.20
4.93
5.31
5.32
5.03
4.57
4.09
3.65
3.27
2.91
2.53
2.09
1.56
0.85
-0.08
-1.28
-2.72
-4.30
-5.82
-7.08
-7.89
-8.13
-7.80
-6.98
-5.90
-4.80
-3.89
-3.25
-2.79
-2.31
-1.61
-0.59
0.67
1.98
3.09
3.83
4.14
4.10
3.83
3.51
3.25
3.12
3.10
3.12
3.10
2.98
2.74
2.37
1.86
1.14
0.15
-1.16
-2.76
-4.54
-6.36
-8.05
-9.46
-10.40
-10.74
-10.37
-9.32
-7.81
-6.21
-4.94
-4.28
-4.26
-4.70
-5.26
-5.63
-5.64
-5.27
-4.64
-3.91
-3.17
-2.48
-1.81
-1.16
-0.53
0.04
0.45
0.66
0.61
0.36
-0.00
-0.36
-0.67
-0.93
-1.28
-1.92
-2.98
-4.53
-6.50
-8.77
-11.20
-13.65
-15.98
-18.02
-19.51
-20.22
-19.92
-18.54
-16.12
-12.83
-8.92
-4.68
-0.40
3.66
7.26
10.23
12.52
14.16
15.26
15.93
16.29
16.45
16.51
16.52
16.51
16.45
16.24
15.79
15.06
14.09
12.98
11.81
10.61
9.31
7.84
6.14
4.25
2.28
0.37
-1.44
-3.15
-4.84
-6.54
-8.11
-9.33
-9.89
-9.55
-8.25
-6.15
-3.59
-1.00
1.27
3.06
4.38
5.37
6.20
7.00
7.82
8.65
9.49
10.32
11.17
12.04
12.88
13.59
14.03
14.11
13.81
13.17
12.27
11.16
9.79
8.06
5.88
3.25
0.35
-2.50
-4.97
-6.90
-8.30
-9.38
-10.35
-11.33
-12.19
-12.73
-12.74
-12.10
-10.84
-9.08
-6.97
-4.64
-2.24
0.08
2.10
3.66
4.61
4.95
4.74
4.13
3.30
2.46
1.77
1.37
1.28
1.40
1.49
1.31
0.65
-0.55
-2.20
-4.18
-6.43
-8.99
-11.93
-15.26
-18.76
-22.01
-24.54
-26.00
-26.26
-25.45
-23.80
-21.53
-18.72
-15.40
-11.56
-7.30
-2.84
1.54
5.58
9.10
12.05
14.51
16.62
18.51
20.33
22.09
23.72
25.02
25.70
25.54
24.36
22.18
19.20
15.79
12.48
9.75
7.99
7.30
7.53
8.28
9.07
9.47
9.19
8.13
6.34
4.00
1.37
-1.23
-3.50
-5.20
-6.21
-6.55
-6.32
-5.60
-4.43
-2.72
-0.42
2.44
5.64
8.85
11.74
14.12
15.95
17.30
18.19
18.56
18.27
17.34
15.93
14.42
13.25
12.68
12.70
13.03
13.27
13.13
12.51
11.53
10.36
9.13
7.89
6.60
5.24
3.84
2.42
0.98
-0.49
-2.00
-3.52
-4.94
-6.06
-6.69
-6.68
-6.04
-4.83
-3.23
-1.40
0.56
2.61
4.75
6.97
9.16
11.19
12.91
14.26
15.26
16.03
16.67
17.24
17.73
18.02
17.99
17.52
16.58
15.26
13.72
12.20
10.93
10.04
9.56
9.34
9.17
8.81
8.07
6.80
4.94
2.49
-0.46
-3.69
-6.92
-9.86
-12.27
-14.02
-15.06
-15.39
-15.03
-14.08
-12.65
-10.96
-9.22
-7.64
-6.30
-5.16
-4.15
-3.16
-2.16
-1.13
-0.09
0.90
1.75
2.35
2.60
2.48
2.11
1.70
1.45
1.50
1.78
2.14
2.36
2.34
2.10
1.78
1.48
1.22
0.91
0.41
-0.36
-1.39
-2.57
-3.74
-4.78
-5.63
-6.33
-6.89
-7.34
-7.60
-7.58
-7.15
-6.26
-4.98
-3.48
-1.97
-0.59
0.56
1.52
2.32
2.94
3.33
3.36
3.00
2.29
1.42
0.60
-0.02
-0.43
-0.74
-1.09
-1.55
-2.06
-2.51
-2.79
-2.90
-2.95
-3.15
-3.72
-4.70
-6.01
-7.45
-8.74
-9.69
-10.16
-10.14
-9.69
-8.90
-7.87
-6.65
-5.27
-3.79
-2.28
-0.90
0.21
1.01
1.52
1.86
2.14
2.40
2.61
2.73
2.72
2.59
2.40
2.17
1.92
1.64
1.36
1.10
0.89
0.71
0.49
0.10
-0.57
-1.55
-2.81
-4.24
-5.68
-7.00
-8.07
-8.86
-9.35
-9.58
-9.60
-9.43
-9.03
-8.37
-7.39
-6.13
-4.67
-3.16
-1.76
-0.57
0.36
1.03
1.48
1.74
1.85
1.82
1.69
1.50
1.29
1.06
0.78
0.41
-0.06
-0.57
-1.03
-1.36
-1.50
-1.54
-1.58
-1.74
-2.10
-2.65
-3.36
-4.24
-5.30
-6.58
-8.01
-9.45
-10.65
-11.41
-11.62
-11.34
-10.75
-10.01
-9.20
-8.34
-7.33
-6.14
-4.76
-3.25
-1.65
-0.02
1.61
3.12
4.36
5.16
5.47
5.36
5.02
4.73
4.66
4.89
5.29
5.67
5.81
5.53
4.77
3.58
2.16
0.74
-0.49
-1.49
-2.35
-3.28
-4.50
-6.11
-8.10
-10.35
-12.74
-15.14
-17.43
-19.45
-20.92
-21.55
-21.08
-19.47
-16.88
-13.62
-10.06
-6.42
-2.86
0.55
3.70
6.46
8.70
10.32
11.38
12.04
12.50
12.89
13.28
13.66
14.05
14.50
15.04
15.64
16.13
16.29
15.90
14.91
13.42
11.69
9.98
8.48
7.20
6.07
4.95
3.77
2.50
1.19
-0.10
-1.31
-2.43
-3.44
-4.35
-5.16
-5.82
-6.28
-6.49
-6.39
-5.93
-5.08
-3.79
-2.07
0.03
2.35
4.60
6.43
7.55
7.86
7.53
6.91
6.40
6.22
6.39
6.70
6.93
6.96
6.83
6.70
6.75
7.00
7.37
7.67
7.74
7.53
7.04
6.38
5.62
4.81
3.97
3.10
2.19
1.22
0.17
-0.99
-2.25
-3.53
-4.72
-5.72
-6.51
-7.10
-7.54
-7.87
-8.02
-7.88
-7.35
-6.42
-5.18
-3.76
-2.25
-0.69
0.92
2.58
4.17
5.51
6.40
6.75
6.58
6.08
5.46
4.92
4.56
4.45
4.60
4.95
5.44
5.96
6.41
6.69
6.76
6.64
6.41
6.18
6.02
5.92
5.79
5.48
4.85
3.80
2.35
0.63
-1.15
-2.75
-3.99
-4.78
-5.08
-4.93
-4.39
-3.59
-2.71
-1.92
-1.34
-0.97
-0.73
-0.43
0.06
0.80
1.69
2.54
3.17
3.44
3.36
3.01
2.53
2.03
1.59
1.20
0.78
0.28
-0.35
-1.14
-2.04
-3.01
-4.00
-4.98
-5.98
-7.01
-8.08
-9.17
-10.25
-11.28
-12.25
-13.15
-13.94
-14.61
-15.16
-15.63
-16.05
-16.41
-16.62
-16.55
-16.04
-14.98
-13.33
-11.15
-8.58
-5.83
-3.12
-0.69
1.26
2.60
3.36
3.68
3.79
3.89
4.07
4.29
4.39
4.21
3.68
2.87
1.95
1.10
0.50
0.14
-0.10
-0.42
-1.04
-2.09
-3.55
-5.30
-7.13
-8.84
-10.28
-11.40
-12.23
-12.85
-13.36
-13.81
-14.20
-14.47
-14.50
-14.22
-13.53
-12.40
-10.81
-8.76
-6.26
-3.41
-0.37
2.61
5.24
7.32
8.78
9.73
10.37
10.88
11.36
11.74
11.94
11.88
11.65
11.43
11.40
11.63
12.03
12.38
12.50
12.29
11.77
11.00
10.01
8.75
7.19
5.38
3.50
1.78
0.45
-0.43
-0.94
-1.25
-1.56
-1.98
-2.52
-3.11
-3.64
-4.01
-4.12
-3.87
-3.19
-2.07
-0.58
1.16
2.98
4.76
6.45
8.03
9.46
10.66
11.52
11.98
12.08
12.02
12.02
12.19
12.45
12.55
12.22
11.29
9.84
8.14
6.48
5.07
3.92
2.91
1.89
0.79
-0.36
-1.48
-2.53
-3.50
-4.45
-5.43
-6.43
-7.41
-8.31
-9.10
-9.76
-10.26
-10.58
-10.70
-10.63
-10.38
-10.00
-9.47
-8.70
-7.58
-6.09
-4.38
-2.75
-1.56
-1.07
-1.28
-1.96
-2.69
-3.13
-3.07
-2.52
-1.65
-0.60
0.61
2.10
4.07
6.59
9.53
12.54
15.13
16.84
17.38
16.63
14.65
11.61
7.65
2.99
-2.11
-7.34
-12.32
-16.76
-20.45
-23.31
-25.41
-26.92
-28.04
-28.89
-29.49
-29.66
-29.09
-27.35
-24.08
-19.10
-12.53
-4.87
3.14
10.72
17.19
22.02
24.72
24.79
21.88
16.18
8.65
1.13
-4.21
-5.55
-2.25
4.90
14.11
23.34
31.14
37.08
41.51
45.12
48.38
51.41
54.09
56.36
58.46
60.91
64.30
69.01
74.93
81.40
87.39
91.89
94.28
94.59
93.42
91.71
90.21
89.27
88.65
87.71
85.67
81.93
76.20
68.63
59.60
49.67
39.42
29.45
20.33
12.59
6.56
2.32
-0.46
-2.40
-4.29
-6.80
-10.30
-14.74
-19.79
-24.98
-29.97
-34.61
-38.89
-42.89
-46.57
-49.77
-52.27
-53.90
-54.60
-54.51
-53.86
-52.87
-51.67
-50.33
-48.89
-47.48
-46.27
-45.37
-44.80
-44.30
-43.53
-42.15
-40.09
-37.49
-34.76
-32.28
-30.26
-28.67
-27.29
-25.90
-24.44
-23.07
-22.05
-21.60
-21.72
-22.24
-22.89
-23.45
-23.85
-24.17
-24.58
-25.21
-26.10
-27.20
-28.39
-29.61
-30.82
-32.06
-33.37
-34.74
-36.14
-37.48
-38.72
-39.83
-40.84
-41.78
-42.66
-43.47
-44.16
-44.71
-45.17
-45.68
-46.42
-47.52
-49.00
-50.67
-52.26
-53.50
-54.17
-54.21
-53.69
-52.72
-51.40
-49.79
-47.93
-45.83
-43.54
-41.08
-38.41
-35.42
-32.06
-28.40
-24.76
-21.68
-19.77
-19.53
-21.18
-24.59
-29.34
-34.78
-40.13
-44.60
-47.47
-48.26
-46.85
-43.49
-38.70
-33.09
-27.16
-21.20
-15.44
-10.12
-5.63
-2.47
-1.12
-1.89
-4.78
-9.42
-15.11
-20.82
-25.31
-27.20
-25.41
-19.46
-9.76
2.30
14.73
25.47
32.99
36.57
36.35
33.04
27.49
20.51
12.72
4.70
-3.01
-9.86
-15.39
-19.32
-21.56
-22.22
-21.46
-19.60
-17.00
-14.16
-11.47
-9.18
-7.23
-5.35
-3.23
-0.74
1.92
4.35
6.11
7.02
7.17
6.92
6.74
7.05
8.12
10.11
13.03
16.72
20.82
24.80
28.05
30.01
30.42
29.33
27.11
24.30
21.46
19.03
17.35
16.54
16.62
17.44
18.73
