1538657796.00
64.000000
-0.00
-0.00
-0.00
-0.00
-0.00
-0.00
-0.00
-0.00
-0.00
-0.00
0.00
0.01
0.01
-0.00
-0.03
-0.05
-0.05
0.00
0.13
0.36
0.66
1.01
1.37
1.72
2.06
2.40
2.79
3.24
3.80
4.42
5.06
5.66
6.20
6.68
7.15
7.68
8.31
9.14
10.09
11.04
11.88
12.56
13.14
13.76
14.65
15.96
17.91
20.32
22.90
25.38
27.58
29.57
31.68
34.32
37.81
42.54
48.15
54.10
59.83
64.97
69.58
74.14
79.34
85.71
93.76
103.00
112.62
121.73
129.77
136.75
143.30
150.75
157.77
166.64
177.95
191.79
206.97
220.57
228.25
225.36
208.53
176.87
132.76
80.05
23.07
-34.94
-92.44
-149.16
-205.23
-260.37
-313.74
-363.87
-409.83
-450.91
-486.50
-515.74
-537.23
-549.22
-549.96
-538.37
-514.21
-478.67
-433.88
-382.45
-327.02
-269.84
-212.63
-156.66
-102.95
-52.37
-5.90
35.58
71.43
101.35
125.50
144.38
158.69
169.15
176.37
180.75
182.58
182.07
179.51
175.23
169.65
163.17
156.15
148.82
141.32
133.71
126.02
118.29
110.58
102.97
95.56
88.40
81.53
74.94
68.65
62.62
56.87
51.41
46.26
41.46
37.01
32.90
29.09
25.55
22.23
19.13
16.25
13.62
11.31
9.33
7.65
6.20
4.88
3.61
2.32
1.06
-0.07
-0.97
-1.57
-1.89
-2.08
-2.33
-2.83
-3.65
-4.69
-5.74
-6.54
-6.93
-6.95
-6.83
-6.91
-7.46
-8.58
-10.09
-11.60
-12.74
-13.31
-13.36
-13.21
-13.26
-13.77
-14.90
-16.63
-18.90
-21.49
-23.88
-25.21
-24.40
-20.57
-13.53
-4.06
6.27
15.70
22.93
27.54
29.96
30.98
31.15
30.56
28.88
25.90
21.81
17.38
13.63
11.27
10.35
10.23
9.91
8.63
6.44
4.23
3.34
4.90
9.16
15.32
21.82
27.06
30.02
30.68
29.77
28.32
27.04
26.06
24.96
23.28
20.83
17.92
15.29
13.63
13.29
14.11
15.49
16.71
17.20
16.74
15.21
12.72
9.45
5.63
1.66
-1.96
-4.84
-6.85
-8.62
-11.41
-16.60
-24.95
-35.81
-47.05
-55.85
-59.83
-58.09
-51.49
-42.04
-31.82
-22.32
-14.16
-7.53
-2.60
0.29
0.86
-0.63
-3.31
-5.85
-7.07
-6.40
-3.98
-0.52
3.04
5.80
7.04
6.43
4.15
0.80
-2.73
-5.62
-7.28
-7.50
-6.46
-4.60
-2.51
-0.73
0.05
-0.81
-3.62
-8.02
-12.78
-16.17
-16.41
-12.47
-4.25
7.15
19.96
32.35
42.94
50.99
56.34
59.23
59.04
55.91
50.48
43.77
36.90
30.77
25.83
21.99
18.74
15.46
11.83
7.73
3.26
-1.37
-5.97
-10.43
-14.70
-18.85
-22.91
-26.78
-30.37
-33.66
-36.76
-39.99
-43.75
-48.39
-53.87
-59.59
-64.27
-66.35
-64.44
-57.82
-46.78
-32.58
-17.09
-2.22
10.57
20.60
27.87
32.76
35.73
37.14
37.23
36.32
34.86
33.40
32.42
32.10
32.17
32.11
31.29
29.36
26.26
22.24
17.67
12.85
7.98
3.16
-1.59
-6.29
-11.06
-16.19
-22.04
-28.84
-36.40
-43.96
-50.16
-53.49
-52.71
-47.38
-38.00
-25.84
-12.45
0.73
12.71
22.89
30.91
36.50
39.49
39.86
37.88
34.16
29.53
24.84
20.80
17.78
15.76
14.36
12.95
10.94
7.96
4.00
-0.56
-5.20
-9.49
-13.36
-17.09
-21.19
-26.11
-32.12
-39.20
-46.97
-54.73
-61.39
-65.64
-66.10
-61.78
-52.39
-38.62
-22.04
-4.71
11.37
24.76
34.85
41.68
45.72
47.53
47.56
46.14
43.58
40.24
36.57
33.00
29.76
26.86
23.99
20.78
16.91
12.32
7.14
1.67
-3.84
-9.26
-14.61
-20.01
-25.61
-31.51
-37.85
-44.78
-52.41
-60.51
-68.34
-74.55
-77.43
-75.50
-68.02
-55.37
-38.89
-20.46
-1.91
15.24
30.03
41.89
50.55
55.98
58.48
58.62
57.08
54.55
51.46
48.00
44.23
40.20
36.09
32.05
28.23
24.60
21.04
17.36
13.43
9.15
4.51
-0.55
-6.06
-12.03
-18.39
-25.04
-31.91
-39.12
-46.86
-55.17
-63.51
-70.63
-74.71
-73.96
-67.33
-55.04
-38.60
-20.29
-2.44
13.22
25.80
35.15
41.52
45.32
46.93
46.75
45.26
42.96
40.38
37.98
36.01
34.49
33.25
31.87
29.99
27.29
23.65
19.15
14.05
8.66
3.26
-1.93
-6.88
-11.67
-16.51
-21.70
-27.52
-34.26
-41.95
-50.21
-58.19
-64.43
-67.30
-65.42
-58.24
-46.31
-31.21
-15.01
0.34
13.60
24.31
32.59
38.67
42.59
44.22
43.47
40.63
36.43
31.83
27.73
24.62
22.57
21.24
20.14
18.79
16.77
13.83
9.87
5.06
-0.24
-5.54
-10.41
-14.74
-18.80
-23.11
-28.28
-34.59
-41.93
-49.62
-56.50
-61.08
-61.90
-57.92
-48.84
-35.39
-19.17
-2.25
13.39
26.38
36.11
42.71
46.63
48.48
48.73
47.75
45.81
43.19
40.17
37.07
34.17
31.63
29.44
27.32
24.84
21.45
16.86
11.07
4.51
-2.16
-8.37
-13.79
-18.52
-22.91
-27.46
-32.64
-38.78
-45.99
-54.01
-62.10
-68.99
-73.06
-72.79
-67.25
-56.48
-41.60
-24.48
-7.19
8.44
21.36
31.24
38.39
43.37
46.77
48.93
49.94
49.74
48.30
45.80
42.63
39.26
36.09
33.28
30.71
28.15
25.34
22.06
18.24
13.86
8.93
3.52
-2.25
-8.20
-14.13
-19.92
-25.63
-31.50
-37.87
-45.00
-52.82
-60.72
-67.52
-71.60
-71.34
-65.69
-54.58
-39.08
-21.13
-2.97
13.43
26.82
36.80
43.59
47.76
49.89
50.52
50.03
48.72
46.82
44.50
41.87
39.04
36.11
33.20
30.37
27.60
24.76
21.67
18.16
14.11
9.54
4.50
-0.88
-6.49
-12.20
-17.91
-23.57
-29.31
-35.43
-42.33
-50.18
-58.61
-66.48
-72.01
-73.28
-68.87
-58.60
-43.55
-25.92
-8.18
7.58
20.18
29.39
35.65
39.65
41.96
42.93
42.78
41.70
39.96
37.91
35.82
33.85
31.89
29.70
27.05
23.81
20.09
16.12
12.09
8.06
3.88
-0.65
-5.62
-10.90
-16.27
-21.53
-26.79
-32.40
-38.79
-46.04
-53.61
-60.23
-64.19
-63.94
-58.64
-48.52
-34.85
-19.55
-4.51
8.84
19.80
28.30
34.56
38.83
41.20
41.72
40.53
37.94
34.54
30.95
27.73
25.17
23.24
21.69
20.07
18.02
15.24
11.70
7.52
2.92
-1.92
-6.89
-12.03
-17.37
-22.98
-28.91
-35.30
-42.19
-49.41
-56.25
-61.45
-63.40
-60.69
-52.70
-39.97
-24.07
-7.10
8.94
22.64
33.36
41.07
46.05
48.66
49.28
48.25
46.00
42.98
39.72
36.66
34.09
32.07
30.38
28.59
26.23
22.94
18.67
13.68
8.38
3.13
-1.97
-7.04
-12.32
-17.95
-23.93
-30.17
-36.62
-43.35
-50.30
-57.05
-62.51
-65.11
-63.22
-55.82
-43.07
-26.32
-7.74
10.37
26.25
38.89
48.09
54.08
57.30
58.22
57.34
55.26
52.63
50.07
48.04
46.72
46.01
45.52
44.79
43.31
40.61
36.37
30.42
22.82
13.90
4.20
-5.59
-14.81
-22.97
-29.90
-35.74
-40.94
-46.11
-51.73
-57.93
-64.21
-69.47
-72.15
-70.75
-64.36
-53.15
-38.46
-22.55
-7.99
3.09
9.57
11.65
10.60
8.25
6.38
6.08
7.49
9.87
11.95
12.47
10.65
6.44
0.46
-6.30
-12.90
-18.86
-24.29
-29.87
-36.56
-45.33
-56.84
-71.10
-87.01
-102.12
-112.90
-115.78
-108.73
-92.58
-71.20
-50.22
-34.68
-26.86
-25.51
-26.79
-26.51
-22.35
-14.72
-6.13
0.59
3.77
3.63
1.56
-1.02
-3.49
-6.11
-9.29
-12.93
-16.13
-17.90
-18.21
-18.55
-21.72
-30.54
-46.46
-68.56
-93.84
-118.00
-136.60
-145.86
-142.93
-125.67
-92.57
-43.40
19.69
90.95
160.95
217.87
250.49
251.81
221.78
167.83
102.71
40.46
-7.77
-36.36
-45.23
-37.92
-19.14
6.89
36.77
67.29
94.86
115.75
127.03
127.72
119.26
105.26
90.11
77.44
69.05
64.71
62.69
60.88
57.74
52.77
46.41
39.49
32.74
26.38
20.16
13.50
5.80
-3.20
-13.28
-23.65
-33.07
-40.13
-43.66
-43.05
-38.48
-30.86
-21.50
-11.72
-2.56
5.37
11.83
16.76
20.21
22.17
22.65
21.68
19.40
16.12
12.25
8.29
4.64
1.47
-1.35
-4.21
-7.58
-11.70
-16.38
-20.90
-24.25
-25.50
-24.26
-20.88
-16.40
-12.15
-9.43
-9.05
-11.22
-15.47
-20.71
-25.47
-28.24
-27.71
-23.26
-15.16
-4.47
7.18
18.20
27.37
34.18
38.75
41.55
43.16
44.00
44.33
44.22
43.63
42.46
40.62
38.05
34.78
31.00
27.01
23.16
19.67
16.58
13.76
10.97
7.97
4.62
0.90
-3.18
-7.51
-11.99
-16.45
-20.77
-24.96
-29.16
-33.64
-38.49
-43.42
-47.66
-50.13
-49.81
-46.15
-39.38
-30.34
-20.28
-10.42
-1.66
5.56
11.18
15.35
18.29
20.18
21.16
21.36
20.97
20.29
19.66
19.35
19.45
19.81
20.09
19.94
19.25
18.17
17.03
16.14
15.65
15.39
15.05
14.23
12.64
10.18
6.85
2.82
-1.71
-6.46
-11.15
-15.62
-19.81
-23.80
-27.58
-30.92
-33.29
-33.90
-32.08
-27.55
-20.67
-12.34
-3.65
4.40
11.27
16.90
21.49
25.26
28.25
30.31
31.21
30.83
29.28
26.90
24.19
21.56
19.29
17.39
15.70
13.97
11.96
9.53
6.64
3.33
-0.33
-4.24
-8.26
-12.21
-15.99
-19.54
-23.03
-26.77
-31.03
-35.85
-40.81
-45.09
-47.62
-47.52
-44.44
-38.70
-31.18
-22.96
-14.98
-7.83
-1.74
3.26
7.13
9.77
11.04
10.93
9.62
7.54
5.23
3.19
1.68
0.60
-0.39
-1.76
-3.81
-6.58
-9.75
-12.81
-15.22
-16.66
-17.11
-16.92
-16.69
-17.14
-18.98
-22.66
-28.20
-35.09
-42.27
-48.32
-51.78
-51.56
-47.21
-39.07
-28.03
-15.30
-2.11
10.57
22.00
31.72
39.44
45.02
48.42
49.73
49.20
47.20
44.25
40.85
37.47
34.41
31.75
29.37
27.04
24.51
21.66
18.51
15.21
11.95
8.86
5.98
3.25
0.49
-2.53
-6.07
-10.29
-15.20
-20.46
-25.45
-29.21
-30.77
-29.35
-24.70
-17.22
-7.85
2.16
11.62
19.67
25.91
30.32
33.13
34.63
35.10
34.79
33.90
32.65
31.23
29.80
28.43
27.11
25.77
24.30
22.59
20.55
18.17
15.43
12.38
9.03
5.39
1.52
-2.50
-6.51
-10.34
-13.90
-17.25
-20.58
-24.08
-27.67
-30.96
-33.22
-33.60
-31.48
-26.65
-19.48
-10.79
-1.65
6.97
14.35
20.15
24.36
27.17
28.81
29.44
29.15
28.03
26.25
24.01
21.56
19.06
16.58
14.05
11.42
8.67
5.83
2.95
0.04
-3.00
-6.27
-9.87
-13.79
-17.95
-22.17
-26.28
-30.18
-33.88
-37.47
-41.00
-44.37
-47.17
-48.72
-48.19
-44.87
-38.46
-29.24
-18.06
-6.14
5.17
14.72
21.74
26.01
27.76
27.57
26.12
24.04
21.76
19.50
17.32
15.21
13.21
11.30
9.48
7.64
5.56
2.95
-0.42
-4.55
-9.24
-14.08
-18.61
-22.52
-25.78
-28.60
-31.43
-34.69
-38.71
-43.58
-49.10
-54.75
-59.73
-63.16
-64.29
-62.79
-58.87
-53.20
-46.74
-40.34
-34.47
-29.09
-23.89
-18.54
-13.09
-8.17
-4.69
-3.50
-4.73
-7.65
-10.86
-12.99
-13.41
-12.58
-11.85
-12.65
-15.77
-20.92
-27.04
-32.91
-37.83
-41.76
-45.12
-48.30
-51.49
-54.63
-57.54
-60.02
-61.62
-61.46
-58.23
-50.54
-37.68
-20.12
0.34
21.19
40.11
55.84
68.52
79.21
89.10
98.70
107.37
113.45
114.90
110.02
98.25
80.45
58.88
36.49
15.98
-1.10
-14.94
-27.17
-40.19
-56.06
-75.69
-98.48
-122.50
-144.98
-162.86
-173.47
-175.06
-167.28
-151.27
-129.37
-104.32
-78.40
-53.06
-28.89
-6.11
14.93
33.66
49.58
62.53
72.78
80.56
85.77
87.89
86.50
81.85
75.28
68.83
64.41
62.83
63.51
64.76
64.68
61.94
56.24
48.27
39.23
30.40
22.78
16.97
13.13
10.99
9.90
8.99
7.49
4.94
1.45
-2.27
-5.21
-6.32
-4.92
-0.87
5.41
13.09
21.17
28.75
35.23
40.33
44.08
46.68
48.35
49.27
49.58
49.37
48.79
48.02
47.20
46.36
45.35
43.90
41.73
38.72
34.96
30.78
26.56
22.57
18.85
15.18
11.25
6.81
1.81
-3.59
-9.18
-14.70
-19.89
-24.36
-27.55
-28.77
-27.47
-23.47
-17.16
-9.32
-0.97
7.07
14.32
20.56
25.76
29.85
32.73
34.38
34.92
34.63
33.84
32.81
31.69
30.50
29.27
28.05
26.92
25.96
25.12
24.31
23.38
22.24
20.88
19.40
17.93
16.62
15.55
14.74
14.08
13.31
12.10
10.22
7.74
5.25
3.82
4.74
9.07
17.25
28.83
42.56
56.61
68.96
77.80
81.89
80.82
75.17
66.39
56.52
47.52
40.80
36.79
35.01
34.49
34.25
33.81
33.13
32.36
31.46
29.99
27.22
22.51
15.59
6.77
-3.23
-13.59
-23.61
-32.83
-40.88
-47.46
-52.24
-55.04
-55.90
-55.23
-53.60
-51.55
-49.47
-47.42
-45.32
-43.03
-40.60
-38.27
-36.40
-35.33
-35.13
-35.57
-36.11
-36.07
-34.98
-32.70
-29.55
-26.07
-22.77
-19.90
-17.38
-14.96
-12.42
-9.86
-7.69
-6.48
-6.67
-8.32
-11.05
-14.15
-16.93
-18.91
-20.03
-20.57
-20.95
-21.58
-22.73
-24.53
-27.04
-30.33
-34.38
-39.02
-43.80
-47.93
-50.47
-50.53
-47.66
-41.93
-34.03
-24.99
-15.84
-7.37
-0.08
5.82
10.21
13.03
14.31
14.28
13.37
12.14
11.05
10.33
9.84
9.25
8.19
6.56
4.54
2.56
1.08
0.41
0.51
1.03
1.42
1.10
-0.28
-2.84
-6.48
-10.98
-16.08
-21.48
-26.73
-31.12
-33.78
-33.91
-31.07
-25.47
-17.91
-9.55
-1.48
5.62
11.64
16.82
21.54
26.01
30.24
34.03
37.14
39.37
40.56
40.62
39.42
36.94
33.33
28.99
24.58
20.81
18.26
17.08
16.91
17.10
16.99
16.36
15.51
15.05
15.35
16.11
16.25
14.48
10.20
4.26
-1.04
-2.66
2.04
14.34
33.93
59.26
87.95
116.89
142.23
159.66
165.42
157.91
139.02
114.39
91.90
79.01
80.23
95.60
121.09
150.14
175.82
192.39
196.29
186.31
163.48
130.60
91.57
50.46
10.56
-26.26
-59.77
-91.25
-123.23
-158.98
-201.62
-252.72
-310.81
-370.49
-423.10
-459.11
-471.28
-457.19
-419.68
-365.25
-301.28
-233.94
-167.57
-105.48
-51.01
-7.71
21.71
36.77
39.92
35.83
29.52
24.59
22.37
22.26
22.82
22.89
22.18
21.07
20.17
19.86
20.07
20.40
20.31
19.49
17.99
16.19
14.61
13.58
13.03
12.42
10.97
7.90
2.90
-3.73
-11.12
-18.00
-23.11
-25.52
-24.82
-21.12
-14.95
-7.06
1.79
10.83
19.41
26.90
32.82
36.89
39.10
39.71
39.22
38.18
37.06
36.15
35.48
34.90
34.19
33.13
31.61
29.68
27.45
25.08
22.61
20.03
17.26
14.24
10.97
7.46
3.79
0.01
-3.87
-7.85
-12.06
-16.67
-21.88
-27.65
-33.59
-38.90
-42.53
-43.51
-41.35
-36.26
-29.03
-20.76
-12.52
-5.02
1.38
6.55
10.55
13.49
15.59
17.11
18.37
19.60
20.89
22.18
23.35
24.27
24.93
25.38
25.71
25.96
25.97
25.49
24.24
22.10
19.18
15.87
12.65
9.89
7.57
5.28
2.43
-1.62
-7.22
-14.34
-22.58
-31.26
-39.46
-46.14
-50.26
-51.02
-48.08
-41.73
-32.82
-22.51
-11.94
-1.96
6.88
14.27
19.97
23.74
25.50
25.39
23.87
21.64
19.37
17.62
16.61
16.30
16.42
16.67
16.75
16.39
15.42
13.71
11.29
8.35
5.20
2.19
-0.39
-2.46
-4.17
-5.98
-8.42
-12.01
-16.97
-23.07
-29.53
-35.14
-38.57
-38.78
-35.34
-28.63
-19.70
-9.94
-0.62
7.38
13.75
18.62
22.25
24.87
26.54
27.18
26.81
25.57
23.81
21.98
20.47
19.43
18.72
18.01
16.92
15.24
13.05
10.64
8.38
6.46
4.84
3.26
1.43
-0.84
-3.57
-6.73
-10.37
-14.60
-19.50
-24.87
-30.10
-34.18
-36.04
-34.89
-30.57
-23.59
-15.01
-6.09
2.13
8.97
14.23
18.01
20.58
22.19
23.04
23.28
23.03
22.42
21.57
20.57
19.50
18.39
17.20
15.89
14.37
12.56
10.45
8.06
5.49
2.84
0.17
-2.57
-5.45
-8.54
-11.91
-15.64
-19.92
-24.93
-30.65
-36.66
-42.00
-45.40
-45.62
-42.01
-34.80
-25.05
-14.30
-4.00
4.85
11.86
17.15
21.07
23.99
26.17
27.74
28.78
29.34
29.45
29.19
28.60
27.72
26.55
25.10
23.36
21.35
19.09
16.58
13.77
10.63
7.17
3.46
-0.31
-3.97
-7.43
-10.84
-14.50
-18.83
-24.16
-30.56
-37.62
-44.51
-50.02
-52.90
-52.20
-47.57
-39.46
-29.00
-17.67
-6.84
2.58
10.23
16.26
20.98
24.74
27.69
29.90
31.40
32.24
32.54
32.37
31.82
30.93
29.74
28.35
26.88
25.46
24.12
22.75
21.13
19.00
16.17
12.60
8.43
3.98
-0.46
-4.66
-8.52
-12.21
-16.06
-20.50
-25.85
-32.06
-38.55
-44.23
-47.73
-47.87
-44.07
-36.63
-26.61
-15.51
-4.71
4.83
12.75
19.11
24.10
27.85
30.44
31.93
32.47
32.35
31.87
31.25
30.57
29.78
28.82
27.68
26.40
25.01
23.46
21.64
19.42
16.73
13.62
10.25
6.78
3.34
-0.06
-3.47
-7.01
-10.84
-15.18
-20.26
-26.26
-33.09
-40.20
-46.50
-50.55
-51.03
-47.23
-39.43
-28.79
-17.01
-5.70
4.08
11.97
18.10
22.77
26.21
28.49
29.69
30.04
29.87
29.59
29.39
29.25
28.97
28.37
27.35
26.02
24.59
23.30
22.20
21.19
19.98
18.19
15.54
11.92
7.53
2.78
-1.87
-6.09
-9.91
-13.72
-18.04
-23.13
-28.72
-33.89
-37.35
-37.89
-34.85
-28.33
-19.13
-8.47
2.31
12.00
19.65
24.68
26.95
26.74
24.73
21.77
18.64
15.92
13.83
12.41
11.59
11.20
11.07
10.94
10.51
9.51
7.79
5.40
2.54
-0.57
-3.83
-7.18
-10.67
-14.33
-18.12
-22.04
-26.15
-30.66
-35.77
-41.51
-47.49
-52.84
-56.38
-57.03
-54.17
-47.94
-39.15
-29.06
-18.95
-9.83
-2.31
3.39
7.32
9.67
10.74
10.83
10.29
9.39
8.39
7.52
6.96
6.82
7.10
7.65
8.26
8.67
8.68
8.14
6.96
5.02
2.08
-2.05
-7.49
-14.11
-21.55
-29.26
-36.75
-43.73
-50.09
-55.79
-60.60
-63.87
-64.58
-61.58
-54.08
-42.05
-26.45
-9.01
8.22
23.44
35.49
43.99
49.17
51.56
51.77
50.34
47.75
44.49
41.00
37.68
34.77
32.39
30.53
29.23
28.64
29.04
30.71
33.67
37.36
40.62
41.93
39.87
33.79
24.04
11.93
-0.86
-13.00
-23.92
-33.90
-43.59
-53.41
-63.10
-71.54
-77.16
-78.49
-74.73
-66.11
-53.83
-39.58
-25.06
-11.45
0.65
11.14
20.04
27.28
32.70
36.19
37.96
38.52
38.53
38.53
38.65
38.71
38.35
37.34
35.70
33.72
31.76
30.07
28.64
27.19
25.37
22.82
19.39
15.16
10.42
5.53
0.79
-3.69
-8.04
-12.65
-17.91
-24.06
-30.92
-37.73
-43.31
-46.28
-45.52
-40.61
-31.94
-20.69
-8.35
3.71
14.68
24.35
32.93
40.70
47.60
53.20
56.78
57.73
55.89
51.71
46.15
40.43
35.58
32.12
29.96
28.48
26.86
24.52
21.43
18.10
15.43
14.15
14.40
15.54
16.30
15.32
11.78
5.70
-2.07
-10.29
-17.90
-24.26
-29.25
-32.89
-35.01
-35.09
-32.47
-26.57
-17.25
-4.85
9.99
26.66
44.59
62.95
80.13
93.46
99.78
96.78
84.51
66.16
47.35
34.07
30.24
36.14
48.80
63.74
77.41
88.44
97.38
105.27
112.14
116.62
116.79
111.64
102.06
90.64
80.53
73.96
71.31
71.19
71.37
69.98
66.47
61.79
57.91
56.95
60.23
67.61
77.29
86.31
91.49
90.61
83.29
71.08
56.68
42.59
29.97
18.15
5.16
-11.15
-32.10
-57.71
-86.97
-118.56
-151.29
-184.25
-216.68
-247.73
-276.76
-303.66
-329.18
-354.80
-382.02
-411.37
-441.66
-469.73
-490.98
-500.69
-495.41
-474.16
-438.73
-393.17
-342.46
-291.06
-241.87
-195.89
-152.67
-110.97
-69.63
-28.09
13.33
53.54
90.96
124.02
151.67
173.63
190.37
202.87
212.11
218.82
223.44
226.27
227.60
227.60
226.20
223.02
217.52
209.33
198.60
185.98
172.42
158.67
145.08
131.48
117.53
103.02
88.02
72.83
57.75
42.88
28.11
13.42
-0.86
-13.90
-24.53
-31.72
-35.11
-35.30
-33.67
-31.79
-30.80
-30.95
-31.71
-32.22
-31.82
-30.46
-28.57
-26.85
-25.83
-25.72
-26.51
-28.13
-30.58
-33.87
-37.84
-42.03
-45.78
-48.40
-49.46
-48.93
-47.03
-43.92
-39.51
-33.31
-24.76
-13.55
0.03
15.15
30.59
45.14
57.84
68.06
75.50
80.27
82.94
84.89
88.13
94.93
107.11
125.27
148.55
174.83
201.49
226.17
247.35
264.36
277.05
285.27
288.45
285.59
275.61
257.93
233.07
202.79
169.82
137.08
106.92
80.50
57.88
38.39
21.30
6.22
-6.91
-18.14
-27.81
-36.60
-45.34
-54.59
-64.49
-74.78
-85.05
-95.02
-104.79
-114.77
-125.44
-137.00
-149.00
-160.22
-168.77
-172.60
-170.28
-161.59
-147.76
-131.11
-114.30
-99.39
-87.35
-78.06
-70.78
-64.81
-59.88
-56.15
-53.89
-53.11
-53.40
-53.98
-54.11
-53.33
-51.67
-49.63
-47.87
-46.92
-46.95
-47.71
-48.70
-49.41
-49.60
-49.38
-49.13
-49.32
-50.33
-52.37
-55.49
-59.55
-64.07
-68.16
-70.42
-69.26
-63.47
-52.75
-38.08
-21.42
-5.12
8.88
19.60
26.99
31.48
33.59
33.59
31.62
27.99
23.37
18.69
14.88
12.43
11.25
10.71
9.93
8.18
5.17
1.09
-3.52
-8.02
-11.96
-15.23
-18.14
-21.25
-25.17
-30.40
-37.12
-45.18
-53.94
-62.27
-68.60
-71.25
-68.91
-61.19
-48.84
-33.67
-17.92
-3.59
8.14
17.07
23.63
28.40
31.71
33.57
33.83
32.53
30.04
27.06
24.36
22.47
21.39
20.62
19.39
17.02
13.29
8.52
3.34
-1.64
-6.15
-10.40
-14.87
-20.07
-26.28
-33.50
-41.63
-50.48
-59.74
-68.67
-75.88
-79.50
-77.57
-68.87
-53.46
-32.93
-9.88
12.82
32.90
49.12
61.20
69.35
73.80
74.52
71.32
64.28
53.96
41.57
28.66
16.74
6.77
-1.10
-7.40
-13.02
-18.72
-24.80
-31.06
-37.01
-42.26
-46.80
-51.06
-55.74
-61.43
-68.43
-76.61
-85.59
-94.93
-104.10
-112.43
-118.84
-121.91
-120.08
-112.24
-98.23
-79.03
-56.56
-33.13
-10.73
9.31
26.48
40.86
52.79
62.56
70.31
76.14
80.18
82.79
84.48
85.84
87.31
88.96
90.44
91.14
90.49
88.27
84.77
80.68
76.73
73.41
70.67
67.99
64.60
59.82
53.26
44.90
35.14
24.72
14.74
6.54
1.50
0.67
4.38
12.14
22.71
34.57
46.42
57.41
67.07
75.03
80.68
83.15
81.65
75.88
66.28
53.91
40.02
25.54
10.78
-4.52
-20.84
-38.46
-57.31
-77.00
-96.97
-116.76
-135.89
-154.00
-170.76
-185.99
-199.81
-212.66
-225.19
-237.83
-250.20
-260.68
-266.44
-264.32
-252.05
-229.34
-198.14
-161.87
-124.10
-87.34
-52.75
-20.62
8.75
34.41
54.87
68.93
76.40
78.49
77.16
74.43
71.55
69.05
66.98
65.41
64.58
64.86
66.49
69.43
73.34
77.64
81.62
84.60
85.97
85.33
82.65
78.26
72.76
66.76
60.55
54.08
47.13
39.82
32.91
27.76
25.81
27.91
33.72
41.82
50.15
56.86
60.94
62.41
62.01
60.63
58.79
56.50
53.43
49.25
43.88
37.60
30.83
23.96
17.02
9.79
2.03
-6.13
-13.94
-20.19
-23.64
-23.63
-20.45
-15.21
-9.43
-4.35
-0.54
2.15
4.29
6.44
8.93
11.83
15.09
18.79
23.11
28.24
34.21
40.78
47.49
53.76
59.13
63.35
66.50
68.83
70.60
71.86
72.38
71.74
69.59
65.93
61.23
56.23
51.68
47.97
45.07
42.55
39.86
36.60
32.64
28.19
23.68
19.56
16.23
13.87
12.36
11.30
10.06
7.96
4.50
-0.40
-6.25
-12.00
-16.37
-18.16
-16.71
-12.11
-5.17
2.85
10.67
17.34
22.41
25.87
28.02
29.14
29.50
29.26
28.56
27.53
26.33
25.00
23.48
21.65
19.40
16.71
13.71
10.61
7.57
4.64
1.72
-1.44
-5.06
-9.24
-13.83
-18.51
-22.85
-26.55
-29.55
-32.02
-34.30
-36.75
-39.55
-42.52
-45.07
-46.30
-45.26
-41.22
-33.97
-23.95
-12.18
0.07
11.58
21.61
29.98
36.98
43.06
48.48
53.20
56.93
59.41
60.75
61.46
62.34
64.14
67.23
71.44
76.12
80.43
83.61
85.24
85.42
84.81
84.55
85.98
90.20
97.53
106.97
116.26
122.29
122.05
113.73
97.29
74.54
48.60
23.04
0.95
-15.68
-26.21
-31.34
-32.79
-32.92
-34.11
-38.15
-45.80
-56.61
-69.18
-81.76
-92.92
-101.96
-108.96
-114.47
-119.09
-123.24
-127.10
-130.61
-133.46
-135.04
-134.40
-130.51
-122.72
-111.29
-97.44
-83.02
-69.71
-58.34
-48.70
-40.02
-31.64
-23.62
-16.81
-12.37
-11.03
-12.51
-15.50
-17.86
-17.35
-12.28
-2.02
12.79
30.46
48.74
65.53
79.41
89.94
97.50
102.90
106.83
109.57
110.99
110.78
108.74
104.98
99.74
93.20
85.22
75.29
62.94
48.00
31.02
13.24
-3.79
-18.70
-30.98
-41.09
-50.41
-60.71
-73.59
-89.85
-109.20
-130.24
-150.69
-167.85
-179.22
-183.08
-178.82
-167.08
-149.62
-128.80
-107.07
-86.45
-68.24
-52.96
-40.58
-30.63
-22.54
-15.78
-9.93
-4.81
-0.38
3.27
6.11
8.32
10.27
12.48
15.36
19.09
23.44
27.87
31.64
34.06
34.64
33.18
29.89
25.27
20.06
15.03
10.71
7.19
4.01
0.46
-3.91
-9.06
-14.05
-17.28
-17.17
-12.95
-5.06
5.03
15.47
24.66
31.51
35.69
37.38
36.98
34.83
31.23
26.61
21.66
17.19
13.47
10.61
8.53
7.00
5.53
3.60
0.92
-2.32
-5.66
-9.96
-15.88
-23.57
-32.52
-42.07
-51.80
-61.37
-70.48
-79.12
-89.99
-104.62
-122.09
-138.99
-151.48
-156.94
-154.75
-145.92
-133.22
-123.93
-123.32
-132.30
-147.67
-165.24
-182.32
-198.12
-212.83
-227.62
-248.39
-278.33
-315.66
-354.62
-389.25
-416.07
-434.01
-442.80
-409.36
-319.00
-183.22
-33.92
98.91
200.58
269.63
309.12
330.02
339.32
336.23
320.53
295.36
267.10
241.53
222.43
211.35
208.85
213.77
220.34
223.67
221.72
215.51
207.16
198.43
190.44
184.21
179.59
173.61
164.01
150.64
135.53
121.26
109.59
101.02
95.24
91.02
85.96
78.56
68.79
57.94
47.51
38.45
31.03
25.18
20.54
16.34
11.95
6.94
1.02
-6.00
-14.00
-22.32
-29.58
-34.21
-34.95
-31.45
-24.52
-15.77
-7.07
0.13
5.13
7.92
8.91
8.60
7.34
5.28
2.47
-1.03
-5.04
-9.35
-13.81
-18.53
-24.08
-31.39
-41.45
-54.89
-71.61
-90.78
-111.02
-130.81
-148.67
-163.11
-172.53
-175.28
-170.18
-157.30
-138.45
-117.18
-97.74
-83.71
-76.63
-75.43
-76.92
-77.07
-72.59
-62.00
-45.96
-26.68
-6.91
11.08
26.09
38.04
47.46
55.08
61.42
66.71
71.08
74.62
77.53
80.02
82.22
84.09
85.42
85.99
85.56
84.07
81.57
78.22
74.23
69.75
64.81
59.35
53.28
46.60
39.50
32.37
25.61
19.51
14.01
8.82
3.61
-1.63
-6.32
-9.28
-9.20
-5.29
2.22
12.02
22.21
31.02
37.46
41.45
43.54
44.31
44.02
42.44
39.12
33.64
25.91
16.29
5.49
-5.42
-15.16
-22.47
-26.43
-26.79
-24.11
-19.60
-14.71
-10.65
-8.16
-7.48
-8.48
-10.90
-14.40
-18.60
-23.16
-27.83
-32.61
-37.70
-43.28
-49.14
-54.40
-57.52
-56.85
-51.23
-40.58
-26.06
-9.61
6.63
21.03
32.69
41.46
47.63
51.57
53.68
54.23
53.56
51.97
49.82
47.43
45.06
42.89
41.00
39.36
37.81
36.11
33.98
31.17
27.53
23.01
17.61
11.31
4.05
-4.26
-13.64
-23.99
-35.10
-46.76
-58.72
-70.67
-81.94
-91.31
-96.98
-96.95
-89.74
-75.07
-54.29
-30.04
-5.53
16.48
34.36
47.85
57.69
65.08
71.17
76.76
82.34
88.17
94.40
101.11
108.28
115.72
123.06
129.72
135.03
138.43
139.70
138.94
136.40
132.08
125.37
115.07
99.86
78.95
52.72
22.71
-8.87
-40.08
-69.79
-97.66
-123.48
-146.38
-164.50
-175.38
-176.85
-168.09
-150.14
-125.81
-98.80
-72.59
-49.60
-30.78
-15.85
-3.88
5.98
14.16
20.60
25.08
27.58
28.57
28.87
29.29
30.23
31.54
32.70
33.23
33.00
32.24
31.34
30.44
29.21
26.99
23.07
17.18
9.65
1.29
-6.96
-14.52
-21.36
-27.82
-34.27
-40.56
-45.85
-48.71
-47.56
-41.28
-29.72
-13.83
4.39
22.48
38.09
49.56
56.23
58.44
57.16
53.53
48.44
42.33
35.37
27.71
19.79
12.37
6.25
1.95
-0.59
-2.02
-3.29
-5.29
-8.42
-12.58
-17.29
-22.00
-26.43
-30.67
-35.11
-40.24
-46.47
-54.01
-62.78
-72.21
-81.23
-88.21
-91.28
-88.85
-80.25
-66.09
-48.14
-28.75
-10.03
6.80
21.59
34.92
47.43
59.32
70.04
78.55
83.73
85.02
82.72
78.06
72.80
68.65
66.48
66.06
66.10
64.79
60.66
53.10
42.58
30.27
17.35
4.53
-8.27
-21.73
-36.67
-53.65
-72.73
-93.48
-114.95
-135.81
-154.29
-168.17
-175.20
-173.63
-162.92
-144.17
-120.07
-94.17
-69.88
-49.58
-34.11
-23.05
-15.29
-9.71
-5.56
-2.52
-0.45
0.84
1.70
2.58
3.83
5.57
7.66
9.79
11.57
12.76
13.28
13.30
13.15
13.16
13.59
14.50
15.72
16.85
17.36
16.57
13.75
8.28
-0.10
-10.99
-23.07
-34.30
-42.35
-45.36
-42.51
-34.33
-22.50
-9.27
3.11
12.95
19.29
21.95
21.39
18.45
14.12
9.32
4.62
0.31
-3.66
-7.47
-11.24
-15.07
-19.03
-23.11
-27.23
-31.06
-34.03
-35.43
-34.74
-31.90
-27.43
-22.29
-17.54
-14.01
-12.08
-11.80
-13.02
-15.73
-20.12
-26.47
-34.81
-44.46
-53.80
-60.47
-61.95
-56.43
-43.55
-24.74
-2.78
19.05
38.06
52.79
63.14
69.89
73.99
76.14
76.59
75.39
72.70
68.99
64.94
61.25
58.33
56.19
54.47
52.70
50.45
47.52
43.90
39.71
35.12
30.28
25.26
20.07
14.73
9.23
3.56
-2.37
-8.73
-15.88
-24.08
-33.21
-42.41
-50.04
-54.15
-53.12
-46.38
-34.78
-20.17
-4.78
9.68
22.42
33.43
42.97
51.03
57.10
60.48
60.68
57.90
53.14
47.87
43.48
40.77
39.66
39.33
38.63
36.38
31.97
25.43
17.37
8.64
-0.04
-8.18
-15.62
-22.44
-29.20
-36.68
-45.59
-56.27
-68.31
-80.31
-89.90
-94.20
-90.74
-79.08
-60.76
-39.29
-18.77
-2.67
7.18
10.91
10.19
7.44
4.04
0.73
-2.63
-6.26
-10.30
-14.96
-20.69
-28.08
-33.55
-34.59
-30.24
-22.23
-13.20
-5.37
-0.16
1.71
0.33
-2.68
-7.06
-10.87
-12.92
-12.66
-10.47
-7.83
-6.62
-8.30
-12.57
-18.99
-25.14
-28.76
-27.04
-17.34
1.39
28.29
60.72
95.99
130.52
160.87
184.04
198.24
202.87
197.63
183.15
156.06
119.39
81.40
51.19
32.97
25.38
24.36
25.33
25.54
24.19
22.52
21.36
19.69
16.67
11.84
5.76
-1.37
-9.33
-18.52
-29.40
-43.20
-61.35
-84.81
-113.59
-140.38
-159.18
-165.28
-156.33
-132.32
-95.87
-51.49
-4.96
38.51
75.46
103.33
121.22
129.33
128.92
121.49
108.32
89.32
65.04
37.81
10.56
-13.80
-33.68
-49.02
-61.17
-72.07
-85.35
-102.73
-122.77
-142.19
-157.61
-167.28
-171.27
-171.06
-168.66
-168.57
-173.59
-183.55
-196.38
-209.78
-222.42
-233.25
-241.00
-227.57
-184.98
-120.06
-49.83
10.91
55.91
85.37
102.79
112.32
117.64
118.77
115.94
111.81
109.34
110.54
115.10
120.92
125.02
125.06
118.35
104.90
87.82
71.64
60.00
52.59
48.32
45.40
42.48
37.98
31.75
25.12
19.94
17.28
16.80
17.38
17.30
14.96
8.68
-2.10
-16.26
-31.12
-43.15
-49.18
-47.09
-36.86
-20.59
-2.06
14.74
27.05
34.03
36.68
36.90
36.46
35.82
33.96
28.90
18.84
3.29
-16.27
-36.69
-54.09
-65.25
-68.64
-64.65
-55.07
-42.29
-28.53
-15.67
-5.26
1.40
3.50
1.15
-4.43
-11.17
-17.16
-21.70
-25.91
-32.21
-42.97
-58.81
-77.57
-94.65
-104.63
-103.46
-90.08
-66.83
-38.31
-9.55
15.72
35.77
50.57
60.78
66.99
69.45
68.24
63.80
57.02
49.30
41.82
35.14
29.11
23.21
16.99
10.47
4.23
-0.74
-3.34
-3.35
-2.25
-3.38
-11.11
-29.27
-59.48
-100.34
-147.66
-195.24
-237.47
-270.81
-294.14
-307.79
-312.11
-306.83
-291.20
-264.91
-227.43
-180.77
-129.95
-81.68
-41.60
-11.95
8.67
23.97
37.89
56.46
82.67
115.61
151.36
185.91
217.22
245.15
270.26
293.22
320.39
356.96
404.48
459.60
516.31
568.36
610.21
637.60
648.45
650.66
652.73
659.49
670.13
681.13
689.73
694.63
695.26
646.55
525.21
340.27
130.70
-62.03
-215.29
-325.76
-400.66
-450.32
-484.24
-502.35
-504.62
-493.43
-474.47
-453.23
-431.74
-408.93
-382.63
-351.36
-309.60
-254.76
-189.35
-122.91
-67.75
-33.77
-26.66
-47.68
-94.06
-155.99
-221.77
-280.62
-324.57
-348.11
-348.27
-325.65
-284.94
-233.83
-178.96
-125.73
-78.07
-38.57
-8.43
12.19
23.72
27.24
24.72
19.68
15.55
13.81
14.01
14.95
15.43
15.04
14.38
14.49
16.56
21.20
26.88
31.51
33.82
33.32
30.64
27.61
26.76
31.11
42.46
58.05
72.36
79.45
74.05
53.95
21.10
-18.91
-57.73
-87.24
-104.17
-108.20
-100.00
-81.49
-54.90
-22.25
8.59
28.94
46.34
66.18
85.89
105.54
126.08
148.55
173.31
198.95
224.05
247.45
265.82
276.01
276.09
263.99
238.08
198.83
149.39
97.54
53.36
23.18
7.62
1.43
-5.39
-22.78
-55.74
-102.71
-154.86
-200.31
-230.61
-243.09
-240.04
-226.68
-207.56
-179.07
-141.01
-96.85
-52.28
-12.99
17.30
37.37
48.02
51.55
50.55
47.26
41.19
30.63
13.57
-11.13
-42.69
-77.97
-112.07
-139.88
-158.78
-165.24
-159.46
-144.61
-125.63
-107.48
-93.63
-85.41
-82.12
-82.03
-82.45
-80.65
-74.17
-61.72
-43.52
-21.25
2.54
25.16
44.32
58.82
68.31
73.36
74.82
73.56
70.43
66.32
62.24
59.19
57.95
58.66
60.94
64.07
67.57
71.78
77.99
87.76
101.73
118.42
133.90
142.74
139.86
122.17
89.27
43.05
-13.14
-75.13
-137.84
-195.21
-240.55
-267.92
-274.02
-259.30
-227.56
-184.01
-133.09
-77.37
-18.43
41.13
96.09
138.68
160.75
156.95
127.28
77.72
18.72
-37.64
-80.69
-103.63
-104.61
-86.55
-55.86
-20.38
12.63
38.21
54.33
61.40
61.26
56.07
47.65
37.43
26.65
16.56
8.17
1.91
-2.63
-6.55
-11.13
-17.14
-24.46
-32.24
-39.28
-44.55
-47.36
-47.27
-43.88
-36.74
-25.45
-10.14
8.26
27.82
46.07
60.67
70.49
76.22
80.38
86.51
97.77
115.41
138.07
161.96
182.17
194.50
196.89
190.13
177.26
162.36
148.97
138.94
132.10
126.45
118.92
106.08
85.01
54.08
13.89
-32.34
-79.01
-119.26
-146.95
-158.45
-153.67
-135.79
-109.90
-81.13
-53.40
-29.07
-9.57
3.64
8.70
3.70
-12.15
-37.30
-67.39
-95.84
-115.68
-121.54
-111.38
-86.87
-52.39
-13.19
26.42
64.08
99.20
131.85
161.57
186.56
204.01
210.90
205.09
185.89
153.95
111.03
59.83
4.15
-50.91
-99.12
-134.20
-151.37
-148.90
-128.74
-95.96
-57.27
-19.55
11.20
30.33
34.78
23.35
-2.85
-40.32
-83.71
-126.92
-164.47
-192.41
-208.54
-212.18
-203.78
-184.65
-157.05
-124.05
-89.26
-56.13
-27.18
-3.66
14.54
28.34
38.99
47.45
54.20
59.14
61.85
61.83
58.95
53.67
47.33
42.06
40.24
43.65
52.40
64.28
74.96
79.04
71.41
48.61
9.68
-43.42
-105.75
-169.84
-226.77
-267.98
-287.39
-283.08
-257.57
-216.52
-166.43
-112.58
-58.33
-5.81
42.70
84.10
115.01
133.32
139.42
136.45
128.95
121.04
115.04
111.14
108.05
104.29
99.00
92.18
84.40
76.26
68.10
59.91
51.45
42.36
32.35
21.32
9.36
-3.18
-15.95
-28.64
-41.09
-53.05
-63.88
-72.42
-77.11
-76.45
-69.70
-57.36
-41.20
-23.63
-6.88
7.62
19.48
28.99
36.68
42.97
48.07
52.08
55.17
57.71
59.96
61.83
62.88
62.60
60.71
57.43
53.42
49.55
46.79
45.48
44.99
44.12
42.10
39.18
36.66
35.93
37.53
41.07
44.35
43.65
35.05
15.90
-14.82
-56.73
-108.15
-165.66
-222.30
-269.22
-298.39
-304.91
-287.93
-251.12
-200.87
-143.76
-84.49
-23.67
39.23
102.46
161.99
213.82
254.69
283.43
300.70
297.64
269.18
218.85
157.74
98.33
49.55
13.88
-10.04
-25.16
-34.93
-40.56
-44.04
-48.54
-57.78
-73.54
-97.04
-127.00
-159.19
-187.61
-204.93
-196.90
-162.75
-119.35
-76.54
-41.05
-15.56
1.84
13.17
21.45
28.65
33.77
36.14
38.15
42.52
51.83
66.96
85.70
104.03
117.24
120.65
112.91
97.24
77.90
59.06
43.61
32.30
24.48
18.72
12.90
5.77
-2.58
-12.50
-24.43
-36.86
-47.11
-52.36
-51.57
-46.07
-37.84
-28.10
-17.93
-8.07
1.09
8.95
14.89
18.55
19.95
19.80
19.25
19.15
19.93
21.51
23.16
23.81
22.69
19.69
14.95
9.60
4.61
0.65
-2.05
-3.90
-5.72
-8.15
-11.51
-15.84
-20.82
-25.77
-29.48
-30.42
-27.74
-21.38
-11.85
-0.37
11.07
20.48
26.32
27.94
25.30
19.72
12.31
4.99
-0.28
-2.61
-2.47
-1.35
-0.98
-2.69
-8.51
-18.90
-31.88
-44.47
-54.70
-62.12
-67.48
-71.98
-76.98
-85.89
-100.95
-121.60
-145.04
-167.82
-186.34
-197.18
-197.83
-174.69
-126.72
-67.38
-14.60
21.71
41.45
49.47
51.11
49.95
47.61
42.31
33.16
21.86
11.50
4.24
0.51
-0.57
-0.39
0.01
-1.62
-6.03
-11.92
-16.61
-18.75
-18.29
-16.14
-13.58
-11.47
-11.50
-14.47
-19.81
-26.17
-32.49
-38.29
-43.55
-48.52
-53.04
-57.68
-62.74
-67.86
-72.05
-74.18
-72.85
-66.33
-56.51
-43.81
-28.88
-12.28
5.50
23.87
42.02
59.04
74.36
88.05
101.46
116.01
132.56
150.67
168.41
182.91
191.36
192.08
184.97
171.82
154.98
136.60
118.11
100.22
83.24
67.50
53.46
41.60
32.43
25.87
21.21
17.47
13.68
9.35
4.51
-0.38
-4.80
-8.33
-10.98
-13.22
-15.71
-19.11
-23.77
-29.58
-35.80
-41.18
-44.20
-43.56
-38.64
-29.68
-17.70
-4.17
9.53
22.34
33.66
43.24
50.97
56.78
60.63
62.59
62.99
62.37
61.42
60.88
61.36
63.18
66.35
70.52
75.19
79.90
84.52
89.33
94.79
101.30
108.86
116.99
124.83
131.52
136.46
139.45
140.65
140.40
139.06
137.06
134.84
132.88
131.37
130.07
128.06
124.05
116.81
105.80
91.45
74.95
57.63
40.35
23.23
5.97
-11.62
-29.16
-45.74
-60.51
-73.25
-84.64
-95.92
-108.20
-121.70
-135.66
-148.72
-159.62
-167.89
-173.81
-178.17
-181.57
-184.26
-186.07
-186.84
-186.62
-185.58
-183.74
-180.53
-174.70
-164.69
-149.31
-128.42
-103.19
-75.92
-49.32
-25.80
-6.92
6.72
15.28
19.46
20.16
18.38
15.08
10.95
6.26
0.84
-5.87
-14.49
-25.40
-38.46
-52.92
-67.49
-80.64
-90.89
-97.29
-99.77
-99.42
-98.34
-99.08
-103.79
-113.49
-127.78
-144.99
-162.73
-178.44
-189.84
-195.08
-192.75
-181.92
-162.48
-135.38
-102.71
-67.24
-31.87
1.10
30.25
54.95
75.33
91.58
103.63
111.16
113.99
112.57
108.00
101.71
94.85
88.26
81.92
75.00
66.27
54.99
41.61
27.66
15.06
5.35
-0.15
-1.28
0.95
4.26
6.20
5.08
0.55
-6.39
-13.60
-17.36
-14.23
-2.10
18.36
44.43
72.66
100.00
124.59
140.18
141.99
130.10
110.14
87.79
65.60
43.67
21.83
0.77
-17.93
-30.65
-36.55
-35.68
-29.66
-20.68
-10.42
0.22
10.86
21.18
31.66
39.84
44.43
44.35
39.32
30.12
18.17
4.92
-8.50
-20.84
-31.15
-38.25
-41.73
-41.76
-38.84
-33.65
-26.99
-19.69
-12.16
-4.80
2.50
9.49
15.75
20.83
24.37
26.24
26.58
25.80
24.33
22.64
20.81
18.62
15.82
12.37
8.52
4.71
1.31
-1.64
-4.33
-7.24
-10.91
-15.72
-21.72
-28.65
-35.85
-42.46
-47.46
-49.88
-48.98
-44.53
-36.80
-26.58
-14.91
-2.93
8.42
18.46
26.79
33.17
37.50
39.78
40.17
39.01
36.79
34.06
31.26
28.63
26.20
23.81
21.26
18.42
15.30
12.01
8.67
5.37
2.06
-1.43
-5.35
-9.96
-15.43
-21.73
-28.57
-35.30
-41.01
-44.65
-45.24
-42.19
-35.46
-25.63
-13.75
-1.09
11.15
22.08
31.17
38.21
43.18
46.14
47.24
46.68
44.80
42.04
38.91
35.84
33.07
30.60
28.23
25.65
22.60
18.99
14.93
10.65
6.42
2.38
-1.57
-5.69
-10.37
-15.95
-22.58
-30.07
-37.85
-44.95
-50.21
-52.48
-50.90
-45.19
-35.76
-23.62
-10.16
3.24
15.44
25.78
33.95
39.92
43.77
45.63
45.68
44.29
41.93
39.12
36.33
33.77
31.46
29.24
26.92
24.32
21.32
17.87
13.98
9.70
5.15
0.47
-4.24
-9.00
-13.91
-19.11
-24.72
-30.77
-37.20
-43.83
-50.25
-55.82
-59.63
-60.68
-58.23
-52.06
-42.64
-30.90
-17.88
-4.36
9.17
22.39
34.86
45.88
54.65
60.61
63.74
64.58
64.00
62.82
61.59
60.64
60.21
60.66
62.33
65.33
69.21
72.96
75.24
74.86
71.18
64.38
55.26
44.97
34.54
24.71
15.86
8.02
1.09
-5.10
-10.69
-15.74
-20.13
-23.55
-25.48
-25.32
-22.57
-17.03
-8.98
0.71
10.76
19.78
26.60
30.67
32.07
31.38
29.34
26.62
23.70
20.96
18.73
17.34
16.91
17.25
17.80
17.82
16.69
14.10
10.13
5.16
-0.27
-5.57
-10.18
-13.63
-15.68
-16.37
-16.08
-15.36
-14.68
-14.28
-14.01
-13.64
-12.95
-11.91
-10.50
-8.56
-5.58
-0.86
6.25
15.93
27.73
40.62
53.40
65.03
74.89
82.57
87.67
89.60
87.74
81.82
72.32
60.42
47.65
35.28
23.85
13.22
2.87
-7.48
-17.69
-27.25
-35.65
-42.78
-49.04
-55.07
-61.44
-68.31
-75.43
-82.25
-88.22
-92.89
-96.03
-97.58
-97.66
-96.59
-94.89
-93.17
-91.91
-91.16
-90.31
-88.15
-83.23
-74.43
-61.57
-45.53
-28.08
-11.26
3.20
14.32
21.92
26.43
28.50
28.76
27.66
25.51
22.56
19.10
15.48
12.03
9.01
6.53
4.54
2.81
1.07
-1.02
-3.74
-7.22
-11.45
-16.26
-21.39
-26.53
-31.47
-36.10
-40.56
-45.20
-50.46
-56.73
-64.03
-71.80
-78.79
-83.31
-83.63
-78.66
-68.35
-53.81
-36.96
-19.91
-4.41
8.50
18.39
25.29
29.32
30.72
29.81
27.15
23.47
19.62
16.26
13.77
12.18
11.22
10.53
9.71
8.40
6.31
3.23
-0.82
-5.61
-10.70
-15.55
-19.77
-23.23
-26.13
-28.88
-31.90
-35.42
-39.26
-42.79
-45.05
-45.03
-41.94
-35.49
-25.92
-13.90
-0.30
13.96
28.01
40.88
51.44
58.49
61.08
58.95
52.67
43.62
33.44
23.63
15.12
8.32
3.29
-0.07
-2.00
-2.93
-3.50
-4.44
-6.33
-9.32
-13.14
-17.26
-21.22
-24.82
-28.18
-31.54
-35.12
-39.01
-43.31
-48.14
-53.63
-59.79
-66.29
-72.27
-76.35
-77.02
-72.98
-63.70
-49.73
-32.56
-14.30
3.08
18.25
30.79
40.99
49.45
56.61
62.56
67.10
70.05
71.42
71.48
70.55
68.84
66.31
62.78
58.11
52.34
45.75
38.69
31.45
24.13
16.65
8.86
0.73
-7.62
-15.84
-23.61
-30.75
-37.40
-44.05
-51.23
-59.28
-67.98
-76.33
-82.67
-85.04
-81.86
-72.52
-57.68
-39.15
-19.37
-0.69
15.24
27.65
36.59
42.52
45.92
47.20
46.67
44.72
41.82
38.53
35.36
32.51
30.02
27.71
25.41
22.96
20.27
17.25
13.75
9.64
4.86
-0.49
-6.16
-11.87
-17.40
-22.74
-28.11
-33.88
-40.40
-47.82
-55.82
-63.51
-69.47
-72.02
-69.74
-61.95
-49.04
-32.42
-14.12
3.81
19.73
32.73
42.56
49.39
53.54
55.35
55.16
53.38
50.51
47.16
43.93
41.27
39.29
37.73
35.96
33.30
29.20
23.59
16.86
9.65
2.58
-4.04
-10.26
-16.37
-22.66
-29.31
-36.33
-43.64
-51.10
-58.33
-64.58
-68.62
-69.02
-64.56
-54.84
-40.55
-23.38
-5.54
10.93
24.68
35.15
42.39
46.77
48.65
48.35
46.17
42.60
38.26
33.84
29.90
26.71
24.12
21.70
18.91
15.31
10.78
5.47
-0.24
-5.99
-11.54
-16.90
-22.21
-27.73
-33.73
-40.44
-48.00
-56.27
-64.64
-71.91
-76.41
-76.42
-70.76
-59.34
-43.29
-24.69
-5.89
11.19
25.49
36.77
45.32
51.49
55.42
57.11
56.61
54.19
50.48
46.26
42.20
38.64
35.52
32.48
29.09
25.03
20.19
14.69
8.83
2.97
-2.53
-7.44
-11.75
-15.66
-19.67
-24.38
-30.34
-37.75
-46.26
-54.83
-61.87
-65.55
-64.34
-57.46
-45.23
-28.97
-10.71
7.38
23.50
36.57
46.28
52.94
57.11
59.40
60.23
59.85
58.43
56.19
53.38
50.32
47.25
44.28
41.33
38.25
34.82
30.93
26.53
21.61
16.20
10.35
4.18
-2.16
-8.48
-14.68
-20.85
-27.26
-34.31
-42.17
-50.50
-58.24
-63.66
-64.79
-60.12
-49.27
-33.26
-14.30
4.92
22.08
35.89
46.19
53.62
58.98
62.89
65.67
67.55
68.80
69.70
70.52
71.50
72.88
75.05
78.45
83.10
88.21
92.01
92.09
86.33
73.70
54.74
31.25
5.57
-20.32
-45.05
-67.90
-88.39
-106.05
-120.56
-131.94
-140.70
-147.55
-152.86
-156.03
-155.42
-148.80
-134.33
-111.59
-82.07
-48.88
-15.82
13.82
38.11
56.62
69.94
78.97
84.42
86.63
85.87
82.58
77.51
71.60
65.70
60.35
55.63
51.32
47.02
42.37
37.12
31.19
24.56
17.31
9.55
1.47
-6.73
-14.82
-22.60
-29.97
-37.00
-43.92
-51.11
-58.93
-67.37
-75.79
-82.77
-86.32
-84.53
-76.28
-61.81
-42.80
-21.84
-1.65
15.78
29.51
39.60
46.61
51.16
53.68
54.38
53.43
51.14
47.98
44.45
41.00
37.88
35.14
32.66
30.22
27.61
24.60
21.05
16.83
11.95
6.48
0.62
-5.42
-11.43
-17.26
-22.92
-28.55
-34.49
-41.14
-48.68
-56.82
-64.52
-70.11
-71.64
-67.50
-57.08
-41.04
-21.24
-0.13
19.92
37.23
51.00
61.16
68.04
72.07
73.64
73.15
71.10
68.12
64.82
61.75
59.14
56.93
54.81
52.33
49.06
44.81
39.78
34.62
30.16
27.10
25.51
24.57
22.69
18.00
9.01
-4.97
-23.70
-46.24
-71.18
-96.61
-120.03
-138.32
-148.17
-147.04
-134.12
-110.98
-81.26
-49.61
-20.32
3.78
21.67
33.75
41.10
44.80
45.70
44.48
41.85
38.57
35.32
32.57
30.38
28.50
26.49
23.96
20.67
16.58
11.88
6.81
1.68
-3.32
-8.10
-12.70
-17.23
-21.82
-26.56
-31.57
-37.01
-43.04
-49.66
-56.48
-62.52
-66.24
-65.97
-60.49
-49.60
-34.27
-16.40
1.72
18.15
31.66
41.80
48.62
52.37
53.26
51.49
47.48
41.95
35.90
30.34
25.93
22.77
20.43
18.16
15.26
11.33
6.40
0.83
-4.95
-10.57
-15.88
-20.96
-26.03
-31.48
-37.73
-45.12
-53.68
-62.91
-71.57
-77.89
-79.94
-76.32
-66.68
-51.95
-34.08
-15.44
1.88
16.53
28.01
36.40
42.00
45.04
45.68
44.10
40.71
36.15
31.29
26.82
23.17
20.27
17.66
14.74
11.06
6.49
1.31
-3.97
-8.91
-13.32
-17.40
-21.65
-26.70
-33.13
-41.25
-50.86
-61.15
-70.61
-77.26
-79.14
-74.87
-64.21
-48.20
-28.93
-8.88
9.74
25.50
37.87
46.93
53.06
56.62
57.84
56.97
54.36
50.61
46.50
42.73
39.72
37.40
35.30
32.71
29.09
24.29
18.56
12.49
6.63
1.25
-3.66
-8.44
-13.50
-19.23
-25.98
-33.95
-43.11
-52.90
-62.10
-68.84
-71.01
-66.98
-56.25
-39.79
-19.88
0.72
19.58
35.27
47.45
56.58
63.29
67.96
70.62
71.18
69.78
66.99
63.75
61.10
59.74
59.74
60.53
61.13
60.54
58.15
53.99
48.76
43.48
39.12
36.10
34.09
32.13
29.08
24.01
16.66
7.51
-2.34
-11.23
-17.09
-17.73
-11.44
2.08
20.83
40.49
55.42
60.54
53.33
34.89
9.40
-17.57
-41.35
-59.70
-73.12
-83.83
-94.32
-106.15
-119.54
-133.81
-148.17
-162.40
-177.00
-193.00
-211.36
-232.37
-255.24
-278.13
-298.55
-313.90
-322.11
-321.96
-313.33
-297.25
-275.89
-252.31
-229.81
-210.99
-196.82
-186.29
-176.75
-165.16
-149.40
-129.05
-105.35
-80.20
-55.05
-30.25
-5.23
20.96
48.94
78.88
110.43
142.75
174.32
202.94
226.10
241.79
249.54
250.85
248.66
245.83
243.58
240.92
235.46
225.24
210.24
192.61
175.34
160.32
147.19
133.75
117.77
98.83
78.96
61.87
50.59
45.74
45.10
45.00
42.32
36.05
27.44
19.01
13.21
11.20
12.57
15.96
19.94
23.81
27.67
32.09
37.57
44.43
52.40
60.82
68.97
76.60
83.98
91.48
99.09
106.15
112.49
117.86
122.05
125.11
127.69
130.84
135.26
140.57
145.12
148.31
149.16
146.30
138.42
125.27
108.19
89.49
71.49
56.06
47.35
48.08
57.98
73.52
89.86
103.05
111.10
113.99
113.49
116.11
127.21
148.16
175.80
205.12
232.04
254.30
270.75
256.96
199.73
104.07
-7.82
-111.82
-194.13
-251.83
-288.06
-308.13
-316.92
-314.10
-299.13
-273.86
-243.38
-213.74
-189.59
-172.03
-160.38
-153.05
-145.55
-134.86
-120.96
-106.57
-94.71
-86.58
-81.44
-77.80
-74.41
-69.01
-60.65
-50.16
-39.83
-31.85
-27.04
-24.93
-24.67
-25.66
-27.01
-28.48
-30.47
-33.61
-37.94
-42.71
-46.73
-49.14
-49.71
-48.50
-45.87
-42.28
-38.09
-33.49
-28.51
-23.14
-17.40
-11.34
-5.03
1.32
7.23
11.93
14.68
15.32
14.67
14.55
17.17
23.98
34.73
47.08
57.17
61.10
56.71
44.82
29.29
15.57
8.35
9.69
18.13
29.44
38.63
42.11
39.14
31.64
22.79
14.98
8.98
3.94
-1.71
-9.04
-17.91
-27.02
-34.70
-39.84
-42.87
-44.97
-47.37
-50.66
-54.45
-57.68
-59.01
-57.65
-53.51
-47.62
-40.88
-33.56
-25.56
-16.71
-7.20
2.47
11.38
22.21
35.42
49.49
61.92
70.67
75.50
77.62
79.03
81.36
85.53
90.84
96.26
101.12
104.89
107.79
109.51
110.95
112.47
114.17
115.57
116.51
117.46
118.49
119.87
121.63
123.55
124.84
124.41
120.62
111.37
99.80
87.05
73.94
61.01
48.50
36.18
23.50
9.65
-5.86
-22.70
-40.22
-56.46
-68.91
-75.21
-74.31
-66.76
-54.63
-40.61
-27.07
-15.99
-8.00
-2.73
0.91
4.38
9.32
17.15
28.48
42.46
56.27
65.98
67.79
59.23
39.89
11.44
-23.05
-60.08
-96.41
-129.65
-158.13
-180.95
-198.07
-210.33
-219.16
-226.09
-232.16
-237.67
-242.31
-245.54
-247.05
-246.94
-245.72
-243.99
-242.23
-240.63
-239.12
-237.38
-235.00
-231.68
-227.39
-222.60
-218.09
-214.63
-212.39
-210.56
-207.32
-200.40
-187.95
-169.25
-145.02
-116.98
-87.08
-56.76
-26.60
3.51
33.78
63.98
93.19
120.01
142.97
160.97
173.62
181.27
184.86
185.62
184.71
182.97
180.78
178.17
174.94
170.87
165.86
159.86
152.78
144.37
134.28
122.25
108.35
93.17
77.75
63.28
50.75
40.72
33.25
28.03
24.65
22.70
21.91
22.01
22.63
23.37
23.89
23.99
23.73
23.38
23.29
23.61
24.29
25.03
25.43
25.16
24.06
22.27
20.19
18.32
17.10
16.70
17.02
17.74
18.59
19.42
20.22
21.02
21.79
22.41
22.80
22.99
23.14
23.44
23.92
24.37
24.36
23.47
21.41
18.14
13.75
8.55
3.02
-2.19
-6.36
-8.98
-9.93
-9.58
-8.61
-7.68
-7.10
-6.80
-6.49
-5.97
-5.25
-4.63
-4.36
-4.55
-5.09
-5.73
-6.30
-6.78
-7.31
-8.07
-9.19
-10.61
-12.18
-13.65
-14.87
-15.81
-16.64
-17.66
-19.12
-20.98
-22.82
-23.97
-23.76
-21.87
-18.51
-14.30
-9.97
-6.02
-2.58
0.62
4.06
8.36
14.22
22.25
32.68
45.08
58.11
69.77
77.89
80.93
78.51
71.48
61.50
50.27
38.97
28.09
17.47
6.86
-3.79
-14.12
-23.32
-30.28
-33.84
-33.17
-28.20
-19.95
-10.44
-2.09
3.12
4.39
2.39
-1.12
-4.28
-5.88
-5.82
-4.80
-3.70
-2.99
-2.64
-2.38
-2.12
-2.21
-3.26
-5.75
-9.69
-14.61
-19.74
-24.44
-28.37
-31.63
-34.55
-37.33
-39.96
-42.07
-43.14
-42.74
-40.65
-36.99
-32.12
-26.46
-20.52
-14.73
-9.57
-5.44
-2.64
-1.25
-1.03
-1.52
-2.17
-2.53
-2.38
-1.76
-0.92
-0.21
-0.00
-0.50
-1.69
-3.35
-5.10
-6.72
-8.15
-9.65
-11.55
-14.07
-17.24
-20.84
-24.59
-28.12
-31.09
-33.03
-33.50
-32.17
-29.04
-24.53
-19.36
-14.24
-9.56
-5.29
-1.15
3.11
7.43
11.37
14.32
15.83
15.77
14.51
12.56
10.49
8.58
6.86
5.19
3.42
1.54
-0.34
-2.07
-3.60
-5.03
-6.52
-8.23
-10.24
-12.53
-15.05
-17.78
-20.64
-23.47
-25.92
-27.53
-27.83
-26.49
-23.35
-18.45
-12.02
-4.42
3.80
11.91
19.15
24.81
28.59
30.66
31.63
32.30
33.28
34.78
36.55
38.10
38.95
38.94
38.20
37.11
36.03
35.23
34.84
34.85
35.17
35.72
36.39
37.15
38.05
39.34
41.37
44.56
49.30
55.76
64.07
74.33
86.71
101.40
118.34
136.91
155.82
173.19
187.20
196.82
202.48
206.10
210.41
217.78
229.01
242.66
255.37
262.76
260.72
246.59
219.82
182.28
137.81
91.58
48.84
13.63
-12.32
-30.04
-42.73
-54.28
-67.63
-83.69
-101.53
-119.48
-136.67
-153.98
-173.77
-198.71
-230.26
-267.73
-308.46
-348.85
-385.67
-416.88
-441.76
-460.37
-473.06
-480.15
-482.09
-479.64
-473.90
-466.01
-456.74
-446.31
-434.50
-420.95
-405.38
-387.66
-367.68
-345.28
-320.37
-293.28
-264.88
-236.56
-209.74
-185.39
-163.71
-144.25
-126.30
-109.41
-93.55
-79.05
-66.22
-55.04
-45.06
-35.51
-25.60
-14.80
-2.91
9.89
23.31
37.07
51.06
65.32
79.96
95.03
110.40
125.72
140.61
154.76
168.17
181.05
193.72
206.28
218.35
228.97
236.84
240.65
239.62
233.81
224.18
212.19
199.43
187.14
175.93
165.80
156.32
146.87
136.95
126.33
115.19
104.08
93.80
85.22
79.10
75.75
74.79
75.03
74.73
72.27
66.87
59.09
50.75
44.25
41.56
43.46
49.30
57.43
65.96
73.30
78.48
81.01
80.74
77.95
73.35
68.23
64.21
62.63
64.15
68.41
74.25
80.22
85.08
88.24
89.74
90.16
90.21
90.53
91.54
93.31
95.71
98.48
101.34
104.14
106.80
109.36
111.81
114.08
116.06
117.72
119.16
120.62
122.42
124.79
127.83
131.44
135.14
137.98
138.44
134.67
125.19
109.63
89.29
67.01
46.26
29.98
19.61
14.94
14.41
15.86
17.23
16.70
12.84
4.84
-7.08
-21.54
-36.26
-48.79
-57.48
-61.95
-63.27
-63.32
-63.89
-65.94
-69.33
-73.10
-76.01
-77.03
-75.46
-71.43
-65.83
-60.05
-55.34
-52.52
-51.78
-52.79
-54.77
-56.13
-55.69
-53.17
-49.12
-44.35
-39.52
-35.10
-31.30
-28.07
-23.76
-17.30
-9.07
-0.51
7.03
12.87
16.92
19.48
21.14
24.69
31.74
41.47
51.47
59.66
65.25
68.54
70.39
72.01
77.37
88.74
105.09
123.04
139.17
151.16
157.60
157.76
134.72
83.86
17.30
-44.17
-86.22
-105.98
-108.14
-100.68
-91.75
-87.19
-86.41
-86.91
-86.99
-85.91
-84.29
-83.85
-86.41
-93.02
-102.95
-111.79
-116.28
-116.47
-114.00
-111.40
-111.52
-117.21
-131.06
-155.45
-185.85
-219.28
-252.88
-281.00
-296.53
-293.99
-271.97
-233.88
-186.78
-138.19
-89.52
-50.29
-27.06
-18.09
-17.41
-20.72
-26.62
-34.96
-44.69
-53.41
-59.90
-61.90
-57.95
-48.77
-36.72
-24.03
-11.47
2.59
16.35
30.01
45.63
65.25
89.71
118.77
151.55
186.06
218.47
242.86
252.87
244.67
218.51
178.98
133.98
92.32
60.75
42.06
34.84
35.49
40.35
46.60
52.38
56.31
57.34
54.70
48.21
38.35
26.42
14.10
2.93
-6.12
-12.61
-16.53
-18.10
-17.67
-15.68
-12.37
-7.85
-2.10
4.91
12.96
21.30
28.74
33.93
35.91
34.53
30.47
24.85
18.80
12.95
7.47
2.16
-3.15
-8.44
-13.51
-18.00
-21.65
-24.28
-25.98
-27.02
-27.87
-29.01
-30.71
-32.84
-34.74
-35.47
-34.22
-30.71
-25.37
-19.16
-13.10
-7.87
-3.57
0.14
3.75
7.52
11.36
14.99
18.09
20.56
22.47
23.99
25.22
26.05
26.31
25.82
24.59
22.81
20.67
18.21
15.11
10.82
4.86
-2.79
-11.43
-19.61
-25.54
-27.66
-25.20
-18.50
-8.94
1.56
11.18
18.69
23.67
26.38
27.41
27.28
26.28
24.39
21.51
17.66
13.06
8.11
3.24
-1.25
-5.31
-9.02
-12.57
-16.11
-19.78
-23.78
-28.36
-33.70
-39.73
-45.78
-50.65
-52.81
-50.95
-44.52
-34.05
-20.99
-7.30
5.31
15.76
23.72
29.38
33.08
35.04
35.25
33.69
30.50
26.01
20.81
15.40
10.18
5.22
0.44
-4.30
-9.02
-13.66
-18.17
-22.67
-27.42
-32.75
-38.64
-44.55
-49.28
-51.34
-49.43
-43.03
-32.69
-19.85
-6.41
5.91
15.99
23.45
28.48
31.51
32.88
32.79
31.26
28.38
24.35
19.52
14.37
9.31
4.61
0.34
-3.58
-7.34
-11.17
-15.36
-20.25
-26.15
-33.27
-41.41
-49.78
-56.99
-61.40
-61.62
-57.09
-48.32
-36.76
-24.28
-12.56
-2.65
5.08
10.67
14.25
15.75
14.90
11.41
5.29
-2.89
-12.02
-20.58
-27.05
-30.32
-30.02
-26.78
-21.95
-17.29
-14.41
-14.32
-17.22
-22.36
-28.32
-33.16
-34.96
-32.16
-24.21
-11.81
3.13
18.08
30.63
39.43
44.47
46.98
48.71
51.01
54.43
58.50
62.11
64.07
63.52
60.13
54.09
45.97
36.51
26.52
16.81
8.02
0.54
-5.56
-10.57
-15.13
-20.07
-26.13
-33.55
-41.77
-49.34
-54.21
-54.39
-48.69
-37.22
-21.39
-3.50
14.10
29.61
42.14
51.52
58.01
61.92
63.46
62.78
60.10
55.75
50.14
43.68
36.77
29.70
22.72
15.99
9.62
3.58
-2.25
-8.17
-14.52
-21.70
-29.90
-38.95
-48.12
-56.10
-61.25
-61.99
-57.43
-47.62
-33.62
-17.18
-0.25
15.49
28.93
39.52
47.16
52.02
54.37
54.53
52.93
50.01
46.27
42.07
37.69
33.19
28.52
23.61
18.46
13.15
7.83
2.59
-2.66
-8.17
-14.36
-21.55
-29.74
-38.35
-46.23
-51.71
-53.15
-49.39
-40.22
-26.52
-9.98
7.37
23.73
37.91
49.31
57.79
63.34
66.01
65.89
63.26
58.62
52.66
46.07
39.38
32.85
26.50
20.23
13.96
7.63
1.26
-5.17
-11.71
-18.51
-25.79
-33.77
-42.38
-51.13
-58.95
-64.30
-65.59
-61.75
-52.61
-39.10
-22.93
-6.12
9.61
23.14
33.99
42.06
47.45
50.28
50.71
49.07
45.86
41.66
37.04
32.37
27.80
23.27
18.69
14.00
9.26
4.56
-0.07
-4.82
-10.10
-16.41
-23.97
-32.41
-40.60
-46.86
-49.42
-47.10
-39.64
-27.83
-13.23
2.40
17.44
30.70
41.42
49.21
53.98
55.89
55.31
52.77
48.87
44.13
38.89
33.41
27.80
22.16
16.61
11.28
6.30
1.69
-2.68
-7.14
-12.20
-18.38
-25.99
-34.84
-44.09
-52.30
-57.75
-58.92
-54.97
-45.97
-32.92
-17.36
-1.03
14.50
28.04
38.83
46.48
50.97
52.62
51.99
49.75
46.54
42.79
38.74
34.45
29.93
25.18
20.21
15.03
9.64
4.12
-1.36
-6.61
-11.56
-16.46
-21.81
-28.21
-35.90
-44.40
-52.36
-57.87
-59.07
-54.88
-45.37
-31.72
-15.80
0.43
15.48
28.43
38.82
46.46
51.18
52.95
51.94
48.67
43.98
38.75
33.64
28.83
24.10
19.03
13.31
6.93
0.14
-6.69
-13.25
-19.46
-25.40
-31.27
-37.34
-43.86
-51.03
-58.76
-66.43
-72.72
-75.80
-73.84
-65.68
-51.40
-32.39
-10.96
10.35
29.45
45.08
56.79
64.66
68.96
70.01
68.17
63.88
57.79
50.60
42.93
35.13
27.31
19.40
11.42
3.61
-3.54
-9.45
-13.73
-16.46
-18.21
-19.87
-22.46
-26.85
-33.54
-42.49
-52.99
-63.59
-72.28
-76.91
-75.84
-68.46
-55.45
-38.50
-19.83
-1.52
14.91
28.61
39.22
46.61
50.85
52.09
50.76
47.52
43.21
38.65
34.40
30.72
27.51
24.41
21.00
16.95
12.17
6.85
1.38
-3.83
-8.55
-12.84
-17.14
-22.09
-28.38
-36.34
-45.72
-55.49
-63.95
-69.10
-69.21
-63.45
-52.14
-36.66
-19.08
-1.49
14.45
27.73
37.88
44.79
48.49
49.17
47.19
43.13
37.78
31.92
26.13
20.65
15.35
9.94
4.15
-2.00
-8.23
-14.10
-19.19
-23.41
-27.04
-30.69
-35.09
-40.85
-48.18
-56.71
-65.41
-72.71
-76.79
-76.08
-69.75
-58.07
-42.36
-24.59
-6.78
9.55
23.52
34.75
43.15
48.61
51.15
50.95
48.52
44.64
40.13
35.61
31.31
27.13
22.81
18.13
13.08
7.86
2.75
-2.03
-6.46
-10.78
-15.46
-21.02
-27.94
-36.30
-45.64
-54.87
-62.37
-66.34
-65.32
-58.60
-46.62
-30.80
-13.20
4.07
19.42
31.99
41.55
48.20
52.09
53.29
51.97
48.55
43.77
38.55
33.65
29.44
25.76
22.13
18.04
13.25
7.86
2.20
-3.34
-8.52
-13.32
-17.94
-22.77
-28.34
-35.17
-43.57
-53.31
-63.44
-72.29
-77.81
-78.17
-72.39
-60.68
-44.42
-25.69
-6.70
10.77
25.58
37.29
45.89
51.60
54.70
55.53
54.47
51.97
48.51
44.54
40.43
36.45
32.79
29.50
26.50
23.54
20.27
16.33
11.50
5.77
-0.64
-7.37
-14.10
-20.67
-27.15
-33.78
-40.83
-48.59
-57.24
-66.70
-76.44
-85.32
-91.61
-93.34
-88.93
-77.80
-60.74
-39.84
-17.79
2.82
20.19
33.61
43.21
49.58
53.38
55.11
55.14
53.80
51.53
48.74
45.82
42.99
40.26
37.52
34.57
31.32
27.74
23.92
19.90
15.63
10.98
5.79
-0.04
-6.48
-13.31
-20.22
-26.98
-33.53
-40.10
-47.14
-55.05
-63.81
-72.75
-80.35
-84.57
-83.46
-75.85
-61.90
-43.11
-21.93
-0.89
17.95
33.43
45.20
53.37
58.31
60.37
60.07
58.03
54.99
51.68
48.61
45.97
43.69
41.52
39.28
36.86
34.29
31.60
28.78
25.67
21.97
17.36
11.67
4.95
-2.42
-9.92
-17.07
-23.57
-29.49
-35.21
-41.29
-48.27
-56.48
-65.71
-75.02
-82.78
-86.87
-85.42
-77.35
-63.02
-44.14
-23.35
-3.35
13.85
27.37
37.29
44.23
48.80
51.34
51.93
50.62
47.70
43.73
39.48
35.59
32.42
29.93
27.70
25.20
21.97
17.82
12.81
7.20
1.36
-4.47
-10.18
-15.80
-21.46
-27.35
-33.64
-40.48
-48.02
-56.20
-64.64
-72.43
-78.09
-79.89
-76.28
-66.55
-51.20
-31.97
-11.38
8.05
24.40
36.78
45.24
50.37
52.90
53.33
51.99
49.10
45.02
40.31
35.60
31.46
28.11
25.45
23.08
20.54
17.48
13.72
9.30
4.34
-1.00
-6.59
-12.31
-18.10
-23.93
-29.86
-36.12
-43.04
-50.96
-59.93
-69.46
-78.34
-84.79
-86.78
-82.74
-72.11
-55.62
-35.20
-13.41
7.29
25.08
39.07
49.16
55.76
59.40
60.60
59.81
57.48
54.12
50.22
46.20
42.36
38.80
35.55
32.53
29.62
26.65
23.42
19.71
15.33
10.17
4.26
-2.25
-9.12
-16.07
-22.86
-29.37
-35.73
-42.25
-49.42
-57.53
-66.37
-74.91
-81.39
-83.71
-80.11
-69.91
-53.80
-33.69
-12.17
8.22
25.63
39.11
48.51
54.27
57.03
57.48
56.23
53.81
50.63
47.09
43.47
40.08
37.14
34.74
32.78
30.96
28.89
26.19
22.60
18.10
12.85
7.13
1.19
-4.79
-10.77
-16.82
-23.09
-29.83
-37.31
-45.77
-55.09
-64.60
-72.90
-78.06
-78.10
-71.73
-58.91
-40.99
-20.44
-0.02
17.93
32.08
42.12
48.54
52.11
53.58
53.43
51.96
49.43
46.16
42.58
39.15
36.23
33.99
32.33
30.96
29.45
27.41
24.54
20.70
15.96
10.51
4.65
-1.33
-7.25
-13.04
-18.79
-24.72
-31.10
-38.24
-46.33
-55.22
-64.17
-71.76
-76.06
-75.17
-68.00
-54.72
-36.91
-17.10
2.09
18.62
31.51
40.69
46.62
49.89
50.95
50.14
47.80
44.38
40.43
36.47
32.87
29.83
27.32
25.18
23.17
21.03
18.57
15.62
12.12
7.99
3.24
-2.04
-7.72
-13.55
-19.34
-24.98
-30.63
-36.71
-43.76
-52.12
-61.56
-71.02
-78.66
-82.33
-80.22
-71.54
-56.87
-37.99
-17.32
2.77
20.52
34.94
45.74
53.03
57.09
58.36
57.40
54.98
51.89
48.86
46.28
44.17
42.30
40.25
37.79
34.86
31.66
28.46
25.46
22.63
19.65
16.02
11.30
5.32
-1.70
-9.23
-16.65
-23.46
-29.54
-35.15
-40.88
-47.42
-55.31
-64.64
-74.83
-84.53
-91.72
-94.25
-90.44
-79.74
-62.99
-42.27
-20.23
0.64
18.67
33.14
44.15
52.14
57.53
60.57
61.43
60.42
58.12
55.31
52.73
50.79
49.43
48.12
46.24
43.38
39.59
35.41
31.52
28.36
25.85
23.43
20.25
15.59
9.24
1.54
-6.73
-14.71
-21.77
-27.75
-33.01
-38.19
-44.09
-51.32
-60.10
-70.04
-79.98
-88.17
-92.49
-91.14
-83.13
-68.77
-49.63
-28.13
-6.88
12.02
27.37
38.87
46.86
51.94
54.66
55.49
54.85
53.26
51.30
49.46
47.97
46.68
45.22
43.22
40.59
37.55
34.53
31.89
29.65
27.41
24.51
20.34
14.64
7.63
-0.06
-7.67
-14.61
-20.65
-26.04
-31.35
-37.26
-44.39
-53.03
-62.86
-72.86
-81.24
-85.79
-84.54
-76.45
-61.90
-42.74
-21.67
-1.42
16.01
29.69
39.56
46.07
49.75
51.06
50.45
48.53
45.99
43.50
41.47
39.95
38.64
37.13
35.10
32.54
29.68
26.87
24.32
21.96
19.36
16.00
11.42
5.55
-1.27
-8.40
-15.21
-21.30
-26.68
-31.76
-37.18
-43.58
-51.37
-60.45
-70.07
-78.75
-84.53
-85.43
-80.12
-68.40
-51.40
-31.29
-10.70
8.09
23.61
35.30
43.31
48.11
50.17
49.96
48.06
45.18
42.19
39.82
38.39
37.75
37.29
36.34
34.50
31.81
28.72
25.78
23.29
21.12
18.70
15.30
10.41
3.98
-3.56
-11.44
-18.89
-25.50
-31.27
-36.64
-42.23
-48.63
-56.28
-65.22
-74.94
-84.26
-91.34
-94.10
-90.74
-80.56
-64.21
-43.72
-21.77
-0.96
16.92
31.10
41.60
48.84
53.31
55.43
55.65
54.55
52.81
51.07
49.75
48.93
48.39
47.72
46.51
44.53
41.79
38.58
35.29
32.18
29.27
26.19
22.32
17.09
10.25
2.07
-6.73
-15.28
-22.89
-29.32
-34.85
-40.15
-46.07
-53.27
-62.04
-71.94
-81.68
-89.31
-92.60
-89.76
-80.13
-64.46
-44.74
-23.59
-3.41
14.16
28.48
39.58
47.82
53.52
56.89
58.16
57.76
56.29
54.47
52.81
51.55
50.53
49.33
47.52
44.87
41.50
37.80
34.26
31.18
28.52
25.82
22.45
17.81
11.67
4.24
-3.87
-11.95
-19.44
-26.11
-32.12
-37.90
-44.00
-50.95
-59.09
-68.31
-77.83
-86.18
-91.36
-91.45
-85.18
-72.51
-54.68
-33.88
-12.62
6.97
23.55
36.55
46.04
52.36
55.96
57.33
57.01
55.57
53.55
51.35
49.18
47.06
44.90
42.60
40.19
37.72
35.27
32.79
30.07
26.77
22.60
17.39
11.27
4.57
-2.27
-8.88
-15.06
-20.87
-26.56
-32.64
-39.62
-47.87
-57.24
-66.82
-74.93
-79.40
-78.33
-70.75
-57.21
-39.63
-20.71
-3.02
11.77
23.13
31.43
37.30
41.20
43.23
43.30
41.49
38.22
34.24
30.40
27.26
25.03
23.47
22.13
20.51
18.22
15.08
11.12
6.54
1.60
-3.41
-8.35
-13.18
-18.03
-23.11
-28.71
-35.13
-42.59
-51.01
-59.83
-67.85
-73.41
-74.79
-70.72
-60.96
-46.44
-29.05
-11.10
5.35
18.97
29.27
36.42
40.92
43.30
43.97
43.22
41.29
38.49
35.24
31.98
29.13
26.89
25.15
23.53
21.54
18.79
15.13
10.71
5.83
0.77
-4.36
-9.61
-15.10
-20.93
-27.27
-34.29
-42.25
-51.17
-60.57
-69.21
-75.20
-76.51
-71.72
-60.67
-44.58
-25.71
-6.62
10.59
24.68
35.31
42.80
47.65
50.37
51.36
50.97
49.55
47.50
45.18
42.84
40.64
38.61
36.68
34.77
32.73
30.38
27.49
23.87
19.44
14.23
8.47
2.35
-3.93
-10.31
-16.81
-23.56
-30.78
-38.77
-47.73
-57.57
-67.56
-76.23
-81.62
-81.78
-75.58
-63.22
-46.22
-26.96
-7.94
8.96
22.77
33.29
40.87
45.95
49.00
50.42
50.64
50.04
48.98
47.67
46.15
44.37
42.28
39.90
37.35
34.78
32.28
29.80
27.14
23.95
19.92
14.89
8.95
2.41
-4.29
-10.82
-17.03
-23.06
-29.33
-36.37
-44.64
-54.17
-64.27
-73.46
-79.62
-80.63
-75.09
-62.95
-45.65
-25.74
-6.04
11.19
24.75
34.51
41.11
45.38
48.00
49.36
49.66
49.05
47.75
46.03
44.15
42.32
40.57
38.83
36.98
34.85
32.36
29.42
25.97
21.96
17.36
12.21
6.65
0.88
-4.92
-10.65
-16.37
-22.33
-28.94
-36.56
-45.28
-54.55
-63.07
-68.95
-70.22
-65.62
-55.13
-40.11
-22.90
-6.03
8.56
19.94
28.10
33.58
37.01
38.80
39.13
38.09
35.90
32.96
29.80
26.92
24.63
22.98
21.72
20.40
18.54
15.85
12.33
8.25
4.03
-0.02
-3.85
-7.70
-11.98
-17.09
-23.26
-30.49
-38.61
-47.23
-55.68
-62.89
-67.44
-67.84
-63.08
-53.07
-38.85
-22.37
-5.84
8.90
20.82
29.74
36.00
40.08
42.29
42.75
41.59
39.10
35.83
32.48
29.65
27.64
26.32
25.24
23.85
21.75
18.79
15.09
10.90
6.42
1.79
-3.01
-7.98
-13.24
-18.91
-25.23
-32.52
-40.97
-50.45
-60.24
-68.93
-74.66
-75.62
-70.63
-59.63
-43.85
-25.48
-7.01
9.47
22.70
32.41
39.02
43.29
45.90
47.31
47.77
47.42
46.36
44.72
42.64
40.22
37.58
34.82
32.05
29.38
26.80
24.13
21.08
17.34
12.75
7.37
1.46
-4.66
-10.74
-16.78
-22.92
-29.48
-36.78
-45.06
-54.22
-63.63
-72.06
-77.81
-79.06
-74.50
-63.85
-48.18
-29.56
-10.53
6.69
20.70
31.12
38.28
42.89
45.62
46.94
47.21
46.64
45.49
43.96
42.21
40.30
38.23
36.01
33.72
31.54
29.58
27.80
25.90
23.39
19.76
14.72
8.35
1.10
-6.34
-13.32
-19.45
-24.75
-29.64
-34.87
-41.21
-49.14
-58.44
-68.03
-76.01
-80.14
-78.58
-70.53
-56.59
-38.68
-19.37
-1.14
14.22
25.96
34.21
39.63
42.97
44.79
45.45
45.08
43.81
41.80
39.29
36.62
34.09
31.87
29.97
28.21
26.27
23.89
20.91
17.33
13.30
8.97
4.44
-0.29
-5.32
-10.72
-16.55
-22.85
-29.69
-37.20
-45.42
-54.02
-62.11
-68.17
-70.42
-67.37
-58.51
-44.62
-27.67
-10.22
5.41
17.75
26.39
31.74
34.57
35.51
34.93
33.03
30.08
26.55
23.06
20.24
18.38
17.36
16.65
15.55
13.54
10.42
6.38
1.82
-2.86
-7.41
-11.81
-16.13
-20.46
-24.89
-29.54
-34.64
-40.45
-46.99
-53.70
-59.36
-62.21
-60.60
-53.56
-41.40
-25.54
-8.14
8.60
23.03
34.31
42.36
47.49
50.24
51.12
50.66
49.32
47.56
45.80
44.26
43.08
42.23
41.57
40.94
40.18
39.17
37.73
35.67
32.76
28.82
23.80
17.86
11.28
4.42
-2.50
-9.45
-16.58
-24.21
-32.71
-42.31
-52.90
-63.75
-73.41
-79.80
-80.83
-75.07
-62.52
-44.75
-24.55
-4.94
11.73
24.35
33.03
38.61
42.03
43.93
44.60
44.10
42.57
40.29
37.64
34.93
32.34
29.86
27.38
24.77
21.96
18.93
15.72
12.36
8.80
4.97
0.76
-3.94
-9.17
-14.87
-20.95
-27.33
-34.06
-41.29
-49.10
-57.17
-64.61
-69.88
-71.26
-67.33
-57.66
-43.05
-25.37
-7.02
9.83
23.78
34.33
41.73
46.54
49.31
50.37
49.96
48.25
45.56
42.28
38.84
35.55
32.54
29.78
27.12
24.43
21.58
18.47
14.98
10.99
6.46
1.46
-3.86
-9.28
-14.66
-19.97
-25.40
-31.22
-37.74
-45.14
-53.24
-61.32
-68.09
-71.84
-70.95
-64.44
-52.52
-36.59
-18.94
-1.96
12.46
23.42
30.91
35.52
37.93
38.71
38.18
36.54
34.02
30.96
27.78
24.91
22.64
21.01
19.72
18.29
16.18
13.08
9.05
4.47
-0.16
-4.46
-8.37
-12.15
-16.24
-21.07
-26.91
-33.87
-41.78
-50.19
-58.22
-64.54
-67.56
-65.89
-58.80
-46.67
-30.90
-13.63
3.00
17.37
28.68
36.85
42.22
45.25
46.35
45.91
44.37
42.23
39.97
37.88
36.03
34.24
32.27
30.00
27.48
24.88
22.35
19.83
17.07
13.70
9.42
4.19
-1.80
-8.16
-14.52
-20.62
-26.46
-32.25
-38.40
-45.36
-53.48
-62.68
-72.16
-80.38
-85.27
-84.84
-77.90
-64.60
-46.49
-26.08
-6.00
11.70
26.00
36.79
44.47
49.59
52.52
53.55
53.04
51.54
49.73
48.22
47.32
46.87
46.34
45.08
42.71
39.31
35.44
31.87
29.12
27.17
25.43
22.97
18.99
13.20
5.96
-1.96
-9.68
-16.63
-22.69
-28.20
-33.73
-39.93
-47.32
-56.02
-65.62
-74.97
-82.31
-85.62
-83.27
-74.62
-60.39
-42.44
-23.16
-4.80
11.14
24.01
33.88
41.04
45.78
48.36
49.03
48.28
46.79
45.25
44.14
43.53
43.08
42.23
40.53
37.82
34.37
30.72
27.39
24.66
22.37
20.00
16.92
12.71
7.27
0.95
-5.72
-12.15
-18.03
-23.33
-28.38
-33.72
-39.92
-47.36
-55.91
-64.81
-72.58
-77.28
-77.12
-70.98
-58.98
-42.49
-23.76
-5.26
11.02
23.97
33.36
39.56
43.16
44.71
44.70
43.51
41.53
39.10
36.46
33.74
30.96
28.17
25.42
22.85
20.48
18.22
15.85
13.05
9.64
5.53
0.89
-4.06
-9.08
-14.05
-18.97
-23.99
-29.34
-35.31
-42.15
-49.85
-57.98
-65.49
-70.83
-72.24
-68.37
-58.73
-44.05
-26.09
-7.18
10.46
25.21
36.33
43.87
48.34
50.39
50.62
49.52
47.54
45.09
42.51
40.04
37.73
35.44
33.00
30.27
27.28
24.20
21.18
18.26
15.21
11.61
7.03
1.26
-5.54
-12.85
-20.05
-26.62
-32.39
-37.63
-42.95
-49.10
-56.58
-65.28
-74.34
-82.07
-86.35
-85.22
-77.62
-63.77
-45.28
-24.66
-4.54
13.02
26.99
37.30
44.46
49.14
51.82
52.78
52.32
50.81
48.79
46.81
45.20
43.96
42.77
41.25
39.12
36.40
33.34
30.30
27.46
24.69
21.58
17.54
12.11
5.15
-2.96
-11.47
-19.53
-26.46
-32.07
-36.71
-41.12
-46.23
-52.74
-60.90
-70.20
-79.35
-86.40
-89.27
-86.33
-76.97
-61.95
-43.17
-23.10
-4.02
12.53
25.97
36.41
44.21
49.68
53.01
54.38
54.18
53.01
51.53
50.24
49.34
48.67
47.92
46.74
44.99
42.73
40.11
37.28
34.30
31.06
27.34
22.88
17.49
11.19
4.21
-3.03
-10.02
-16.39
-22.06
-27.28
-32.60
-38.65
-45.92
-54.48
-63.84
-72.82
-79.77
-82.86
-80.65
-72.56
-59.17
-42.09
-23.53
-5.61
10.15
22.98
32.83
40.00
44.84
47.66
48.72
48.35
47.00
45.16
43.22
41.37
39.58
37.70
35.60
33.27
30.88
28.67
26.74
24.96
22.94
20.14
16.13
10.81
4.42
-2.52
-9.41
-15.84
-21.69
-27.15
-32.64
-38.66
-45.59
-53.47
-61.75
-69.32
-74.55
-75.74
-71.66
-62.06
-47.84
-30.83
-13.25
2.98
16.61
27.21
34.87
39.91
42.70
43.54
42.82
41.02
38.72
36.40
34.36
32.63
31.05
29.43
27.64
25.69
23.62
21.43
18.96
15.94
12.12
7.39
1.84
-4.18
-10.29
-16.20
-21.84
-27.45
-33.46
-40.34
-48.41
-57.52
-66.96
-75.35
-80.91
-81.87
-77.07
-66.37
-50.79
-32.27
-13.06
4.84
20.10
32.11
40.85
46.61
49.79
50.86
50.37
48.95
47.21
45.63
44.38
43.29
41.98
40.10
37.54
34.52
31.47
28.74
26.39
24.10
21.29
17.48
12.46
6.46
-0.08
-6.65
-12.92
-18.81
-24.50
-30.33
-36.79
-44.30
-53.07
-62.75
-72.29
-79.99
-83.86
-82.34
-74.77
-61.74
-44.88
-26.37
-8.28
7.88
21.35
32.00
40.02
45.75
49.46
51.39
51.81
51.07
49.55
47.63
45.57
43.44
41.20
38.76
36.11
33.35
30.64
28.00
25.31
22.25
18.38
13.44
7.39
0.55
-6.54
-13.34
-19.53
-25.14
-30.59
-36.54
-43.57
-51.79
-60.55
-68.37
-73.26
-73.35
-67.54
-56.04
-40.31
-22.62
-5.29
9.92
22.17
31.42
38.05
42.56
45.31
46.52
46.45
45.43
43.86
42.11
40.45
38.91
37.42
35.84
34.07
32.10
29.95
27.62
25.04
22.02
18.35
13.83
8.41
2.21
-4.48
-11.28
-17.89
-24.15
-30.24
-36.58
-43.69
-51.79
-60.47
-68.48
-73.91
-74.76
-69.71
-58.68
-42.95
-24.83
-6.84
8.97
21.49
30.52
36.49
40.02
41.67
41.82
40.76
38.82
36.32
33.60
30.91
28.40
26.10
23.93
21.80
19.56
17.05
14.12
10.66
6.68
2.26
-2.45
-7.26
-12.04
-16.75
-21.51
-26.62
-32.43
-39.21
-46.88
-54.73
-61.43
-65.25
-64.60
-58.62
-47.59
-32.95
-16.83
-1.45
11.60
21.60
28.67
33.33
36.12
37.33
37.06
35.40
32.69
29.56
26.74
24.82
23.99
23.95
24.04
23.59
22.09
19.40
15.71
11.35
6.69
1.94
-2.86
-7.76
-12.93
-18.54
-24.83
-32.03
-40.31
-49.48
-58.84
-67.03
-72.25
-72.74
-67.38
-56.20
-40.42
-22.20
-3.91
12.45
25.70
35.57
42.33
46.57
48.84
49.58
49.16
47.91
46.13
44.04
41.77
39.33
36.69
33.81
30.69
27.32
23.73
19.87
15.75
11.41
6.92
2.35
-2.34
-7.24
-12.46
-18.09
-24.22
-30.96
-38.45
-46.66
-55.19
-62.95
-68.28
-69.32
-64.73
-54.28
-39.09
-21.35
-3.55
12.24
24.88
34.23
40.71
44.97
47.49
48.53
48.22
46.71
44.27
41.29
38.18
35.26
32.68
30.42
28.29
26.06
23.49
20.42
16.80
12.66
8.12
3.32
-1.63
-6.59
-11.51
-16.35
-21.19
-26.21
-31.79
-38.35
-46.09
-54.68
-62.99
-69.19
-71.18
-67.35
-57.24
-41.79
-23.17
-4.01
13.32
27.30
37.41
43.93
47.53
48.98
48.94
47.89
46.25
44.25
42.08
39.80
37.42
34.94
32.36
29.69
26.94
24.08
20.99
17.59
13.77
9.48
4.71
-0.50
-6.05
-11.81
-17.60
-23.32
-28.99
-34.84
-41.20
-48.21
-55.57
-62.26
-66.70
-67.19
-62.51
-52.51
-38.23
-21.68
-5.17
9.31
20.63
28.60
33.69
36.71
38.37
39.04
38.83
37.68
35.54
32.57
29.06
25.36
21.70
18.18
14.74
11.31
7.91
4.62
1.52
-1.38
-4.25
-7.29
-10.73
-14.73
-19.37
-24.71
-30.87
-37.96
-45.90
-54.25
-62.05
-67.88
-70.14
-67.51
-59.40
-46.28
-29.64
-11.59
5.61
20.23
31.41
39.14
44.00
46.74
47.94
47.96
47.03
45.38
43.32
41.15
39.03
36.92
34.67
32.14
29.35
26.46
23.55
20.56
17.22
13.15
8.15
2.32
-3.98
-10.26
-16.20
-21.72
-27.02
-32.44
-38.41
-45.20
-52.77
-60.63
-67.65
-72.24
-72.72
-67.90
-57.56
-42.65
-25.08
-7.04
9.53
23.46
34.36
42.40
47.95
51.38
52.95
52.96
51.78
49.92
47.88
45.98
44.27
42.55
40.50
37.88
34.72
31.31
28.06
25.24
22.79
20.26
17.00
12.42
6.27
-1.25
-9.47
-17.62
-24.99
-31.24
-36.47
-41.15
-45.96
-51.55
-58.31
-66.09
-74.04
-80.55
-83.62
-81.43
-72.99
-58.62
-39.99
-19.59
0.07
17.17
30.92
41.38
49.07
54.44
57.77
59.20
59.02
57.79
56.31
55.26
54.97
55.23
55.48
55.03
53.47
50.78
47.25
43.27
39.13
34.89
30.40
25.34
19.41
12.37
4.17
-4.97
-14.59
-24.03
-32.73
-40.42
-47.32
-54.03
-61.28
-69.65
-79.27
-89.73
-100.04
-108.75
-114.17
-114.74
-109.50
-98.46
-82.80
-64.56
-46.18
-29.84
-16.91
-7.84
-2.37
0.12
0.26
-1.38
-4.31
-7.95
-11.72
-15.11
-17.86
-20.05
-22.00
-24.04
-26.19
-28.04
-28.81
-27.60
-23.89
-17.79
-10.20
-2.52
3.88
8.05
9.87
9.98
9.37
9.00
9.34
10.35
11.49
12.07
11.59
9.98
7.82
6.15
6.22
9.04
14.94
23.49
33.71
44.44
54.75
64.05
72.08
78.59
83.38
86.24
87.23
86.83
85.79
84.87
84.52
84.68
84.85
84.32
82.46
78.96
73.89
67.66
60.83
54.02
47.64
41.82
36.32
30.63
24.10
16.25
6.94
-3.49
-14.32
-24.73
-34.08
-42.13
-49.04
-55.26
-61.27
-67.35
-73.45
-79.16
-83.72
-86.22
-85.83
-81.97
-74.57
-64.08
-51.47
-37.89
-24.46
-11.99
-0.97
8.41
16.09
22.13
26.60
29.66
31.50
32.31
32.23
31.36
29.76
27.55
24.88
21.94
18.86
15.76
12.62
9.37
5.94
2.30
-1.59
-5.71
-9.99
-14.39
-18.78
-23.10
-27.41
-31.93
-37.00
-42.86
-49.40
-55.93
-61.24
-63.88
-62.66
-57.07
-47.40
-34.70
-20.39
-5.90
7.60
19.34
28.96
36.36
41.75
45.48
47.93
49.44
50.16
50.12
49.27
47.65
45.38
42.69
39.78
36.78
33.74
30.61
27.36
23.95
20.36
16.53
12.42
7.93
3.09
-2.03
-7.30
-12.62
-18.00
-23.63
-29.80
-36.69
-44.18
-51.67
-58.07
-62.02
-62.31
-58.32
-50.29
-39.24
-26.74
-14.33
-3.18
6.18
13.73
19.73
24.46
28.00
30.32
31.32
31.05
29.71
27.62
25.17
22.69
20.38
18.29
16.38
14.51
12.53
10.30
7.71
4.69
1.28
-2.43
-6.27
-10.09
-13.80
-17.41
-21.12
-25.23
-30.00
-35.51
-41.37
-46.72
-50.28
-50.78
-47.31
-39.75
-28.79
-15.75
-2.22
10.45
21.35
30.05
36.52
40.95
43.66
44.98
45.23
44.66
43.43
41.66
39.42
36.82
33.98
30.98
27.80
24.34
20.52
16.33
11.91
7.46
3.15
-0.98
-5.03
-9.23
-13.80
-18.92
-24.69
-31.17
-38.31
-45.85
-53.21
-59.40
-63.15
-63.25
-58.97
-50.39
-38.46
-24.75
-11.01
1.39
11.66
19.67
25.66
29.98
32.86
34.41
34.74
34.06
32.72
31.09
29.44
27.87
26.28
24.57
22.63
20.44
18.02
15.34
12.37
9.04
5.34
1.37
-2.74
-6.80
-10.77
-14.67
-18.69
-23.06
-28.07
-33.87
-40.40
-47.16
-53.22
-57.30
-58.14
-54.85
-47.32
-36.32
-23.25
-9.75
2.82
13.62
22.38
29.17
34.14
37.45
39.26
39.81
39.50
38.70
37.70
36.49
34.91
32.76
29.97
26.77
23.51
20.56
18.03
15.77
13.41
10.58
7.05
2.85
-1.79
-6.56
-11.25
-15.77
-20.23
-24.83
-29.79
-35.24
-41.13
-47.07
-52.34
-55.91
-56.67
-53.81
-47.11
-37.08
-24.96
-12.26
-0.37
9.78
17.86
24.03
28.66
32.04
34.29
35.41
35.35
34.22
32.28
29.86
27.28
24.69
22.14
19.61
17.10
14.74
12.64
10.84
9.14
7.23
4.75
1.47
-2.60
-7.20
-11.95
-16.49
-20.65
-24.48
-28.21
-32.10
-36.19
-40.07
-42.81
-43.16
-39.91
-32.43
-21.02
-6.87
8.21
22.47
34.65
44.27
51.49
56.81
60.77
63.76
66.11
68.10
69.88
71.33
71.92
70.77
66.92
59.85
49.76
37.64
24.94
12.96
2.46
-6.57
-14.68
-22.62
-30.89
-39.62
-48.56
-57.28
-65.36
-72.55
-78.77
-84.18
-89.05
-93.65
-98.11
-102.13
-104.90
-105.24
-101.93
-94.22
-82.12
-66.56
-49.06
-31.33
-14.83
-0.54
11.07
19.91
26.16
30.20
32.60
34.01
35.01
35.97
36.92
37.62
37.75
37.06
35.50
33.19
30.32
27.02
23.35
19.36
15.09
10.59
5.88
0.92
-4.42
-10.25
-16.64
-23.54
-30.84
-38.41
-46.10
-53.65
-60.60
-66.13
-69.24
-68.97
-64.79
-56.82
-45.85
-33.08
-19.73
-6.79
5.14
15.78
25.00
32.65
38.54
42.49
44.45
44.61
43.39
41.33
38.98
36.74
34.71
32.78
30.74
28.36
25.56
22.41
19.04
15.53
11.89
8.00
3.69
-1.13
-6.49
-12.36
-18.69
-25.46
-32.58
-39.76
-46.32
-51.18
-53.14
-51.24
-45.17
-35.42
-23.13
-9.77
3.30
15.10
25.10
33.05
38.88
42.59
44.18
43.79
41.74
38.60
35.01
31.63
28.87
26.86
25.42
24.13
22.54
20.27
17.12
13.13
8.52
3.59
-1.38
-6.21
-10.95
-15.87
-21.30
-27.55
-34.65
-42.16
-49.22
-54.58
-56.95
-55.32
-49.28
-39.23
-26.29
-11.99
2.12
14.86
25.58
34.15
40.71
45.50
48.71
50.46
50.89
50.18
48.58
46.36
43.79
41.04
38.19
35.19
31.94
28.38
24.47
20.27
15.88
11.35
6.71
1.91
-3.12
-8.43
-14.04
-19.94
-26.19
-32.83
-39.82
-46.79
-52.91
-56.94
-57.55
-53.80
-45.52
-33.48
-19.14
-4.20
9.87
22.07
31.94
39.36
44.43
47.42
48.67
48.66
47.83
46.54
44.96
43.08
40.84
38.21
35.29
32.25
29.20
26.16
23.00
19.53
15.58
11.10
6.20
1.05
-4.14
-9.19
-14.05
-18.82
-23.71
-29.02
-35.01
-41.72
-48.80
-55.36
-60.09
-61.55
-58.64
-51.00
-39.23
-24.71
-9.21
5.70
18.91
29.96
38.77
45.49
50.25
53.17
54.44
54.36
53.38
51.92
50.27
48.56
46.75
44.80
42.71
40.51
38.26
36.02
33.75
31.40
28.92
26.25
23.27
19.84
15.76
10.84
4.99
-1.72
-8.96
-16.22
-22.96
-28.61
-32.78
-35.21
-35.80
-34.58
-31.73
-27.63
-22.90
-18.37
-14.87
-12.92
-12.59
-13.49
-15.05
-16.94
-19.28
-22.67
-27.78
-34.94
-43.69
-52.97
-61.40
-67.88
-71.95
-73.84
-74.13
-73.29
-71.47
-68.46
-64.00
-58.08
-51.09
-43.77
-36.90
-31.06
-26.53
-23.36
-21.51
-21.01
-21.83
-23.75
-26.07
-27.45
-26.09
-20.16
-8.44
9.15
31.43
56.21
80.92
103.36
122.00
136.17
145.74
150.87
151.75
148.62
141.89
132.33
120.91
108.54
95.84
83.10
70.45
58.03
46.11
35.08
25.25
16.66
8.84
1.05
-7.37
-16.69
-26.74
-37.09
-47.29
-57.04
-66.32
-75.68
-85.52
-95.63
-104.77
-111.04
-112.46
-107.72
-96.68
-80.50
-62.17
-44.99
-31.38
-22.04
-16.21
-12.55
-9.87
-7.60
-5.70
-5.76
-9.24
-16.49
-26.28
-36.55
-45.61
-52.54
-56.99
-58.53
-58.06
-56.56
-54.83
-53.80
-55.25
-61.93
-76.43
-99.54
-119.43
-124.14
-108.00
-75.76
-37.78
-2.66
25.42
45.62
58.81
66.11
66.66
58.65
43.47
25.16
9.50
1.63
4.15
16.20
34.14
51.72
63.14
65.41
58.78
45.77
30.14
15.54
4.69
-0.94
-1.88
0.33
4.04
7.85
10.83
12.31
11.67
8.62
3.29
-4.00
-12.45
-20.67
-27.18
-30.79
-31.09
-28.67
-24.67
-19.95
-14.55
-7.11
4.81
23.55
50.06
82.89
118.03
149.96
173.07
183.04
177.33
155.54
119.34
72.74
22.23
-23.88
-57.25
-72.12
-67.61
-48.03
-21.25
4.44
23.11
32.70
34.58
32.03
28.52
26.62
27.68
31.88
38.36
45.41
50.67
51.68
46.72
35.43
19.22
1.09
-15.10
-25.71
-28.33
-22.43
-9.73
6.51
22.72
36.07
45.14
49.77
50.43
47.63
41.66
32.88
22.08
10.71
0.52
-7.01
-11.29
-12.91
-13.37
-14.54
-17.92
-24.27
-33.59
-45.40
-59.05
-73.79
-88.68
-102.50
-113.88
-121.69
-125.46
-125.51
-122.50
-116.72
-107.60
-93.82
-74.11
-48.40
-18.41
12.57
40.77
63.21
78.60
87.35
90.94
91.02
88.65
84.18
77.33
67.53
54.27
37.35
17.11
-5.51
-29.05
-51.81
-72.24
-89.22
-102.18
-110.97
-115.79
-117.10
-115.65
-112.65
-109.70
-108.58
-110.75
-116.81
-125.95
-135.91
-143.41
-145.14
-138.91
-124.54
-103.96
-80.58
-58.01
-38.93
-24.42
-14.18
-7.15
-2.23
1.48
4.94
9.39
16.27
26.67
40.51
56.12
70.70
81.35
86.34
85.74
81.28
75.31
69.69
65.12
61.11
56.66
50.94
43.61
34.89
25.05
14.19
2.11
-11.31
-25.68
-39.78
-51.63
-59.07
-60.41
-55.08
-43.83
-28.41
-10.99
6.50
22.78
37.24
49.74
60.33
69.07
75.97
81.04
84.36
86.08
86.44
85.62
83.77
80.99
77.36
73.01
68.11
62.85
57.33
51.50
45.28
38.56
31.39
23.98
16.66
9.80
3.61
-1.84
-6.69
-11.25
-16.01
-21.54
-28.26
-36.18
-44.60
-52.13
-56.91
-57.18
-51.85
-40.91
-25.55
-7.82
9.82
25.17
36.63
43.49
45.90
44.69
41.13
36.54
32.09
28.58
26.41
25.56
25.77
26.62
27.71
28.77
29.61
30.13
30.13
29.22
26.97
22.93
17.01
9.42
0.72
-8.51
-17.87
-27.27
-36.87
-46.89
-57.41
-68.20
-78.58
-87.45
-93.46
-95.20
-91.54
-81.94
-66.68
-46.91
-24.51
-1.74
19.13
36.24
48.53
55.82
58.84
58.87
57.29
55.18
53.04
50.93
48.63
46.03
43.25
40.52
38.07
35.93
34.03
32.30
30.78
29.65
29.03
28.77
28.34
26.94
23.82
18.56
11.29
2.48
-7.24
-17.32
-27.35
-36.82
-44.93
-50.60
-52.74
-50.66
-44.48
-35.13
-24.07
-12.73
-2.10
7.38
15.65
22.66
28.19
31.83
33.32
32.71
30.51
27.48
24.31
21.37
18.69
16.00
13.07
9.72
5.91
1.55
-3.47
-9.34
-16.15
-23.79
-31.94
-39.98
-47.33
-53.67
-59.04
-63.82
-68.65
-74.24
-80.94
-88.36
-95.05
-98.90
-97.67
-89.82
-75.10
-54.85
-31.78
-9.32
9.29
22.17
29.02
31.45
32.83
37.43
48.78
67.97
92.73
117.89
138.06
148.86
148.74
139.69
126.47
114.46
107.37
106.22
109.57
116.43
125.01
133.28
139.48
142.67
142.59
139.41
133.83
126.93
122.03
119.83
117.59
111.15
98.71
82.88
70.42
69.32
84.23
116.73
159.63
199.91
225.33
230.85
219.98
201.81
185.83
156.70
110.15
52.41
-5.36
-55.12
-92.58
-115.45
-123.34
-118.59
-106.77
-90.72
-73.43
-57.24
-44.05
-32.06
-19.01
-3.98
12.03
26.04
38.30
49.12
58.60
66.50
73.12
78.39
80.55
81.70
80.88
78.75
75.75
71.98
66.44
59.08
50.74
42.43
34.52
26.00
16.97
7.33
-3.14
-17.52
-36.94
-59.77
-83.05
-104.84
-125.17
-144.03
-161.99
-179.51
-202.66
-233.70
-269.07
-302.53
-330.01
-350.94
-366.01
-377.28
-386.34
-403.58
-433.35
-470.95
-507.88
-539.42
-565.87
-588.74
-610.24
-630.33
-659.44
-700.42
-745.23
-781.70
-802.91
-808.15
-798.45
-776.93
-670.69
-467.36
-221.08
-3.63
150.70
244.82
291.67
316.83
333.28
347.38
350.24
339.27
320.71
306.07
302.29
309.90
326.86
348.59
371.94
386.08
387.01
380.18
374.71
374.80
378.29
380.35
375.07
359.56
328.46
282.30
228.04
174.98
129.44
94.26
71.20
60.71
63.08
74.22
89.68
106.02
120.95
132.42
139.12
141.18
139.24
134.26
125.78
113.53
98.22
81.52
65.29
51.13
40.31
33.25
29.64
28.46
28.35
27.94
26.37
23.35
19.11
14.20
9.03
3.75
-1.96
-8.68
-17.17
-28.14
-41.93
-58.06
-74.77
-88.93
-96.58
-94.12
-79.82
-54.75
-22.71
11.14
42.20
67.97
88.54
105.71
121.50
136.88
151.36
163.63
172.61
178.24
181.76
185.21
190.87
200.66
215.82
236.70
262.40
290.58
317.44
338.30
348.77
346.09
330.18
303.84
271.92
239.79
211.67
189.63
173.50
161.62
151.96
143.08
134.49
126.36
119.05
112.62
106.78
101.08
95.35
89.75
84.63
80.15
75.94
71.11
64.61
55.60
43.81
29.61
13.84
-2.41
-17.99
-31.87
-43.69
-53.37
-61.23
-68.14
-75.64
-85.41
-98.58
-115.20
-134.09
-153.63
-171.76
-186.68
-197.46
-204.47
-209.22
-213.85
-220.51
-230.74
-245.78
-264.84
-284.83
-301.37
-310.41
-309.58
-298.95
-280.97
-259.79
-242.34
-233.07
-232.23
-237.07
-244.38
-251.99
-258.99
-265.50
-272.31
-285.25
-306.85
-334.41
-362.43
-386.65
-405.22
-417.86
-424.98
-427.34
-433.68
-447.99
-466.72
-482.72
-491.31
-491.79
-485.37
-473.38
-456.44
-444.63
-441.65
-442.03
-436.75
-421.21
-396.75
-367.52
-337.66
-246.16
-80.18
120.63
299.80
428.54
507.81
550.26
568.65
572.33
567.38
547.56
511.67
467.17
425.19
392.52
369.77
354.16
342.24
331.41
312.69
283.38
248.67
217.20
194.24
180.07
172.10
167.43
164.01
156.37
143.62
129.64
120.28
119.16
126.77
141.57
160.66
179.75
189.29
183.54
161.10
125.74
84.53
45.53
15.24
-3.50
-11.96
-14.89
-16.31
-17.88
-18.84
-17.86
-14.75
-10.95
-8.63
-9.40
-13.14
-17.83
-20.99
-20.62
-16.45
-10.06
-4.10
-1.06
-2.04
-6.26
-11.30
-14.57
-14.56
-11.47
-7.25
-4.59
-5.63
-11.22
-20.86
-33.24
-46.95
-60.29
-71.08
-76.45
-73.71
-61.53
-41.09
-16.08
8.72
29.43
44.82
56.25
65.93
74.59
80.28
79.24
68.51
48.31
22.69
-1.98
-19.81
-27.97
-27.30
-21.20
-13.82
-8.02
-4.82
-4.29
-5.92
-9.40
-14.76
-22.16
-31.33
-41.30
-50.07
-54.67
-52.52
-42.16
-24.51
-3.39
15.48
26.50
26.42
15.64
-2.26
-23.22
-44.19
-64.42
-85.01
-107.31
-131.22
-154.57
-173.94
-181.90
-174.20
-150.17
-113.10
-69.12
-25.25
12.83
42.18
62.85
76.91
86.19
91.68
93.10
89.41
79.82
64.70
45.60
24.70
3.97
-15.75
-33.79
-48.79
-58.14
-58.36
-46.56
-22.19
11.94
50.24
85.91
113.64
131.19
139.57
141.74
140.77
138.48
135.04
129.78
121.95
111.77
100.34
89.18
79.47
71.56
65.04
59.02
52.69
45.55
37.60
29.15
20.63
12.48
4.98
-1.65
-7.41
-12.52
-17.64
-23.77
-32.12
-43.51
-57.71
-72.88
-85.53
-91.40
-86.87
-70.52
-43.81
-10.83
23.20
53.62
77.50
93.98
103.48
106.91
105.09
98.71
88.87
77.19
65.67
56.10
49.44
45.60
43.62
42.16
40.07
36.69
31.98
26.32
20.29
14.40
8.88
3.66
-1.61
-7.46
-14.33
-22.54
-32.23
-43.41
-55.86
-68.97
-81.49
-91.50
-96.72
-95.23
-86.29
-70.74
-50.85
-29.60
-9.67
7.28
20.75
31.05
38.75
44.20
47.48
48.58
47.69
45.36
42.40
39.60
37.43
35.81
34.21
31.88
28.22
23.11
16.97
10.59
4.73
-0.19
-4.26
-8.03
-12.25
-17.62
-24.62
-33.40
-43.75
-54.83
-65.20
-72.82
-75.57
-71.88
-61.34
-44.97
-24.97
-4.01
15.58
32.35
45.75
55.84
62.83
66.80
67.79
66.05
62.29
57.61
53.25
50.04
48.09
46.81
45.12
42.07
37.23
30.85
23.69
16.64
10.29
4.73
-0.51
-6.18
-13.00
-21.38
-31.34
-42.60
-54.30
-64.98
-72.82
-76.05
-73.41
-64.61
-50.51
-33.02
-14.70
2.27
16.53
27.54
35.12
38.94
38.39
32.79
22.02
6.69
-11.08
-28.10
-41.27
-48.94
-51.32
-50.16
-47.91
-46.73
-48.88
-54.74
-63.13
-72.42
-81.60
-90.29
-98.52
-106.63
-115.23
-127.19
-143.45
-162.33
-180.79
-196.26
-207.14
-212.86
-213.95
-211.77
-211.54
-215.53
-222.28
-229.09
-234.64
-239.36
-244.29
-249.98
-255.54
-262.85
-269.06
-267.35
-251.78
-221.54
-180.77
-135.94
-93.14
-28.23
58.30
146.12
214.48
257.16
278.31
284.43
281.23
273.05
263.08
248.90
230.57
211.27
194.45
181.23
170.81
162.05
154.24
147.14
137.34
124.13
109.73
96.91
86.70
78.64
71.94
65.96
60.44
53.18
43.78
33.79
25.07
18.33
13.19
8.96
5.00
0.96
-4.18
-10.34
-16.27
-20.69
-23.02
-23.54
-22.85
-21.64
-20.33
-19.13
-17.61
-14.78
-9.77
-2.44
6.52
16.02
24.83
32.33
38.47
43.98
49.79
56.64
64.75
72.76
80.85
88.51
94.33
96.07
91.61
80.27
63.86
46.57
34.12
29.32
32.35
40.59
49.95
56.82
59.30
57.15
50.83
40.61
26.46
8.66
-11.50
-31.66
-49.07
-61.33
-67.30
-66.79
-60.54
-49.87
-36.64
-23.39
-13.09
-8.26
-9.77
-16.45
-25.29
-32.75
-36.13
-34.51
-28.92
-21.49
-14.35
-8.35
-3.38
1.18
5.62
9.46
11.70
11.48
8.72
3.65
-2.44
-8.14
-12.57
-15.61
-17.80
-19.91
-22.52
-25.75
-29.29
-32.49
-34.88
-36.40
-37.51
-39.03
-41.71
-45.87
-51.07
-56.19
-59.64
-60.06
-56.68
-49.58
-39.50
-27.58
-14.96
-2.54
9.08
19.59
28.72
36.18
41.59
44.63
45.21
43.64
40.64
37.19
34.25
32.43
31.75
31.64
31.23
29.68
26.52
21.81
16.06
10.00
4.24
-0.88
-5.47
-10.03
-15.25
-21.83
-30.11
-39.81
-49.91
-58.76
-64.39
-65.03
-59.69
-48.52
-33.04
-15.81
0.24
12.60
20.05
22.91
22.89
22.32
23.28
26.83
32.80
40.01
46.82
51.70
53.52
51.73
46.32
37.83
27.26
15.94
5.35
-3.18
-8.66
-10.81
-10.28
-8.88
-9.31
-14.43
-26.13
-44.21
-65.97
-86.73
-101.32
-105.92
-99.23
-82.70
-59.56
-33.45
-7.19
17.55
40.01
59.73
76.06
88.23
95.67
98.33
96.79
92.11
85.45
77.80
69.84
62.06
54.83
48.52
43.38
39.44
36.34
33.42
29.84
24.89
18.23
10.00
0.79
-8.57
-17.34
-25.06
-31.77
-37.98
-44.41
-51.72
-59.97
-68.39
-75.28
-78.44
-75.83
-66.35
-50.36
-29.70
-7.20
14.17
32.08
45.38
53.97
58.55
60.06
59.50
57.64
55.12
52.36
49.51
46.45
42.88
38.63
33.87
29.28
25.75
23.90
23.70
24.32
24.54
23.24
19.89
14.65
8.21
1.40
-5.21
-11.42
-17.31
-23.08
-28.99
-35.38
-42.70
-51.32
-61.23
-71.72
-81.30
-87.80
-88.87
-83.00
-70.35
-52.83
-33.44
-15.11
0.22
12.13
21.42
29.68
37.92
45.94
52.55
56.48
57.33
55.72
53.03
50.68
49.97
51.10
52.96
53.83
52.42
48.60
43.21
37.56
32.81
30.32
30.67
33.45
37.60
42.17
46.44
49.60
50.36
42.98
24.76
-1.51
-28.82
-50.69
-64.07
-69.16
-68.04
-63.36
-57.41
-50.81
-43.55
-35.89
-28.61
-22.48
-17.95
-14.86
-12.67
-10.72
-7.87
-3.46
2.28
8.38
13.87
18.17
21.29
23.62
25.41
27.33
29.71
32.37
34.43
35.57
35.67
35.05
34.32
33.66
33.45
33.92
34.98
36.42
38.16
40.29
43.17
47.25
52.06
57.25
62.38
67.04
70.99
74.37
77.61
81.31
86.11
91.22
95.85
99.01
99.84
97.68
92.16
82.68
67.64
51.46
34.88
17.86
-0.04
-19.47
-41.00
-64.94
-90.97
-117.67
-142.26
-162.08
-174.18
-176.69
-169.78
-155.69
-137.94
-120.02
-104.11
-90.62
-79.43
-69.73
-61.08
-53.82
-48.99
-47.66
-50.44
-57.11
-66.51
-77.51
-88.67
-98.67
-106.35
-110.45
-109.59
-102.48
-88.42
-67.91
-43.16
-17.43
5.87
24.19
36.52
43.39
46.25
46.66
45.70
43.79
40.99
37.46
33.70
30.48
28.63
28.57
30.15
32.62
34.85
35.82
34.89
32.05
27.73
22.56
17.07
11.56
6.17
0.93
-4.21
-9.46
-15.26
-22.09
-30.04
-38.35
-45.23
-48.35
-45.77
-36.93
-23.06
-6.79
8.86
21.67
30.80
36.64
40.19
42.26
43.20
42.94
41.35
38.53
34.82
30.71
26.55
22.50
18.50
14.34
9.79
4.63
-1.17
-7.51
-14.05
-20.39
-26.16
-31.25
-35.88
-40.49
-45.61
-51.65
-58.78
-66.92
-75.67
-84.24
-91.47
-95.78
-95.51
-89.40
-77.10
-59.55
-38.76
-17.31
2.47
19.13
32.27
42.27
49.71
54.97
58.03
58.77
57.24
53.88
49.51
45.02
41.04
37.73
34.71
31.42
27.30
22.09
15.91
9.20
2.52
-3.70
-9.25
-14.27
-19.18
-24.50
-30.73
-38.30
-47.49
-58.40
-70.66
-83.18
-93.97
-100.37
-99.83
-90.88
-73.76
-50.60
-24.71
0.50
22.54
40.22
53.58
63.12
69.39
72.65
73.04
70.95
67.11
62.50
58.02
54.17
50.91
47.73
43.99
39.10
32.88
25.50
17.41
9.17
1.21
-6.20
-13.09
-19.72
-26.54
-34.12
-42.96
-53.41
-65.57
-79.00
-92.67
-104.73
-112.83
-114.68
-108.73
-94.94
-74.83
-51.15
-26.97
-4.82
13.91
28.90
40.50
49.18
55.20
58.61
59.44
57.86
54.45
49.97
45.28
41.01
37.37
34.15
30.73
26.39
20.66
13.46
5.27
-3.19
-11.15
-18.23
-24.53
-30.59
-37.19
-45.08
-54.86
-66.76
-80.52
-95.10
-108.52
-118.10
-120.92
-114.89
-99.57
-76.62
-49.33
-21.60
3.30
23.55
38.84
49.90
57.70
62.81
65.39
65.41
63.04
58.90
54.00
49.38
45.79
43.38
41.69
39.88
37.11
32.87
27.12
20.20
12.65
4.92
-2.75
-10.39
-18.22
-26.58
-35.90
-46.71
-59.44
-74.10
-89.84
-104.64
-115.54
-119.32
-113.58
-97.79
-73.68
-44.80
-15.39
10.92
32.11
47.82
58.72
65.78
69.49
70.01
67.42
62.30
55.91
49.87
45.59
43.64
43.43
43.53
42.25
38.37
31.63
22.68
12.81
3.29
-5.15
-12.57
-19.73
-27.73
-37.68
-50.37
-66.00
-83.89
-102.16
-117.70
-126.74
-125.83
-113.14
-89.35
-57.69
-22.93
10.18
38.42
60.64
77.36
89.71
98.42
103.46
104.39
101.15
94.55
86.28
78.36
72.31
68.57
66.36
64.12
60.28
53.85
44.90
34.44
23.85
14.27
6.09
-1.18
-8.62
-17.39
-28.28
-41.61
-57.22
-74.62
-92.69
-109.45
-121.86
-126.31
-119.71
-100.88
-71.37
-35.24
2.20
36.23
63.96
84.62
98.91
107.96
112.49
112.83
109.30
102.76
94.78
87.17
81.41
77.99
76.28
74.76
71.79
66.25
57.96
47.70
36.76
26.34
17.07
8.89
1.19
-6.91
-16.34
-27.94
-42.33
-59.56
-78.58
-96.94
-110.92
-116.54
-110.92
-93.57
-66.77
-34.90
-2.86
25.51
48.30
65.44
77.76
86.04
90.51
91.01
87.61
81.08
72.88
64.70
57.73
52.28
47.73
42.94
36.93
29.26
20.28
10.84
1.94
-5.76
-12.16
-17.79
-23.70
-31.09
-41.06
-54.26
-70.51
-88.48
-105.61
-118.41
-123.34
-117.91
-101.66
-76.47
-46.10
-14.96
13.19
36.17
53.48
65.73
73.74
77.98
78.48
75.35
69.20
61.35
53.51
47.08
42.61
39.52
36.46
32.02
25.40
16.83
7.35
-1.71
-9.40
-15.60
-21.00
-26.82
-34.32
-44.45
-57.60
-73.41
-90.59
-106.73
-118.49
-122.20
-115.00
-96.07
-67.20
-32.50
2.92
34.55
59.74
78.00
90.32
98.20
102.66
104.08
102.46
97.99
91.45
84.15
77.47
72.42
69.18
67.09
64.94
61.45
55.89
48.28
39.46
30.53
22.43
15.42
9.00
2.25
-5.75
-15.55
-27.24
-40.50
-54.82
-69.20
-81.93
-90.57
-92.35
-85.14
-68.50
-44.20
-15.91
11.98
35.78
53.50
64.95
71.20
73.72
73.63
71.53
67.74
62.54
56.46
50.16
44.28
39.19
34.88
31.03
27.17
22.97
18.28
13.19
7.81
2.21
-3.68
-10.00
-16.79
-23.97
-31.30
-38.56
-45.70
-53.06
-61.33
-71.36
-83.67
-97.83
-112.09
-123.40
-128.20
-123.66
-108.83
-85.22
-56.38
-26.68
0.19
22.08
38.55
50.25
58.05
62.52
63.84
62.20
58.12
52.56
46.71
41.61
37.81
35.22
33.26
31.09
27.94
23.35
17.33
10.31
2.90
-4.34
-11.15
-17.66
-24.30
-31.67
-40.40
-51.03
-63.81
-78.41
-93.54
-106.84
-115.21
-115.64
-106.35
-87.59
-61.78
-32.72
-4.38
20.28
39.81
54.13
63.84
69.70
72.24
71.97
69.59
65.91
61.86
58.08
54.78
51.86
48.97
45.80
42.11
37.76
32.64
26.64
19.72
11.93
3.51
-5.20
-13.91
-22.46
-30.94
-39.73
-49.38
-60.53
-73.68
-89.00
-105.82
-122.38
-135.79
-142.54
-139.56
-125.38
-100.88
-69.26
-35.05
-2.76
24.50
45.46
60.41
70.38
76.46
79.42
79.85
78.39
75.84
72.98
70.31
67.81
65.05
61.44
56.67
50.96
44.95
39.37
34.57
30.21
25.40
19.08
10.68
0.37
-10.93
-21.96
-31.82
-40.29
-47.93
-55.77
-65.01
-76.62
-91.03
-107.81
-125.22
-140.18
-148.71
-147.08
-133.19
-107.60
-73.56
-35.98
0.18
31.41
56.27
75.05
88.75
98.27
104.01
106.17
105.10
101.71
97.31
93.16
90.01
87.78
85.71
82.72
78.04
71.60
64.08
56.59
50.07
44.79
40.17
35.04
28.17
18.84
7.15
-5.95
-19.15
-31.23
-41.53
-50.13
-57.76
-65.57
-74.78
-86.36
-100.54
-116.47
-131.91
-143.56
-147.77
-141.79
-124.72
-98.08
-65.34
-30.82
1.62
29.46
51.70
68.42
80.11
87.18
90.05
89.34
86.08
81.61
77.22
73.66
70.91
68.30
64.94
60.25
54.28
47.71
41.42
36.11
31.76
27.68
22.82
16.21
7.44
-3.16
-14.62
-25.77
-35.67
-43.96
-50.99
-57.65
-65.12
-74.57
-86.69
-101.27
-116.87
-130.72
-139.28
-139.16
-128.31
-106.91
-77.36
-43.68
-10.09
20.07
45.02
64.34
78.39
87.65
92.53
93.47
91.30
87.23
82.72
78.87
76.11
74.08
71.88
68.64
63.96
58.06
51.64
45.38
39.60
34.02
27.99
20.79
12.06
1.98
-8.85
-19.61
-29.67
-38.83
-47.38
-56.10
-66.03
-78.15
-92.80
-109.22
-125.25
-137.57
-142.54
-137.40
-121.36
-95.91
-64.35
-30.70
1.55
30.09
53.88
72.60
86.24
94.87
98.74
98.58
95.63
91.39
87.24
83.99
81.74
79.98
77.87
74.69
70.12
64.41
58.22
52.30
47.04
42.21
37.02
30.46
21.87
11.34
-0.24
-11.48
-21.18
-28.77
-34.56
-39.63
-45.43
-53.32
-64.15
-77.81
-93.03
-107.28
-117.31
-119.88
-112.93
-96.31
-72.07
-43.79
-15.43
9.80
30.18
45.47
56.31
63.55
67.81
69.48
68.96
66.93
64.34
62.14
60.95
60.79
61.05
60.81
59.23
55.96
51.28
45.92
40.73
36.15
32.02
27.61
21.95
14.35
4.66
-6.53
-18.24
-29.43
-39.44
-48.16
-55.98
-63.62
-71.95
-81.77
-93.63
-107.55
-122.69
-137.16
-148.14
-152.51
-147.79
-133.07
-109.50
-79.93
-48.11
-17.58
9.19
31.02
47.78
59.95
68.16
73.03
75.20
75.37
74.33
72.79
71.17
69.54
67.57
64.90
61.30
56.85
51.96
47.04
42.32
37.55
32.16
25.47
17.09
7.16
-3.65
-14.43
-24.46
-33.50
-41.89
-50.41
-60.02
-71.43
-84.75
-99.06
-112.44
-122.14
-125.31
-119.85
-105.17
-82.54
-54.72
-25.24
2.64
26.58
45.42
59.00
67.78
72.52
74.10
73.46
71.48
68.87
66.03
63.02
59.72
55.97
51.75
47.26
42.74
38.36
34.00
29.27
23.61
16.51
7.85
-2.07
-12.58
-22.91
-32.56
-41.52
-50.34
-59.90
-71.13
-84.51
-99.66
-115.16
-128.53
-136.80
-137.26
-128.30
-110.02
-84.28
-54.20
-23.27
5.47
30.02
49.46
63.72
73.19
78.50
80.41
79.78
77.51
74.39
70.98
67.55
64.10
60.49
56.63
52.55
48.40
44.35
40.44
36.47
31.97
26.41
19.35
10.67
0.66
-10.07
-20.82
-31.04
-40.49
-49.38
-58.33
-68.18
-79.73
-93.31
-108.36
-123.16
-134.86
-140.22
-136.49
-122.49
-99.14
-69.23
-36.60
-4.91
23.16
46.35
64.48
77.97
87.37
93.12
95.69
95.70
93.98
91.43
88.75
86.22
83.66
80.55
76.44
71.18
65.15
59.04
53.42
48.51
43.82
38.43
31.33
21.99
10.61
-1.94
-14.48
-25.98
-35.94
-44.57
-52.64
-61.26
-71.52
-84.03
-98.48
-113.32
-125.84
-132.72
-130.98
-119.03
-97.34
-68.39
-36.00
-4.21
23.80
46.24
62.73
73.80
80.48
83.75
84.46
83.35
81.03
78.07
74.84
71.52
68.02
64.15
59.76
54.90
49.85
44.93
40.32
35.84
31.04
25.30
18.24
9.82
0.43
-9.30
-18.80
-27.76
-36.26
-44.72
-53.76
-64.06
-75.99
-89.27
-102.61
-113.73
-119.73
-117.95
-106.81
-86.54
-59.29
-28.57
1.72
28.31
49.16
63.70
72.43
76.42
76.89
74.85
71.13
66.37
61.11
55.82
50.84
46.32
42.29
38.65
35.28
32.08
28.91
25.57
21.69
16.88
10.83
3.42
-5.12
-14.23
-23.30
-31.83
-39.74
-47.43
-55.79
-65.82
-78.11
-92.34
-106.87
-118.80
-124.62
-121.31
-107.39
-83.70
-53.22
-20.16
11.37
38.42
59.63
74.97
85.04
90.54
91.97
89.90
85.19
79.04
72.75
67.30
63.02
59.56
56.22
52.37
47.78
42.73
37.69
33.12
29.02
24.93
20.06
13.61
5.17
-5.05
-16.28
-27.45
-37.58
-46.23
-53.63
-60.68
-68.62
-78.66
-91.38
-106.33
-121.67
-134.39
-140.90
-138.03
-124.12
-99.70
-67.46
-31.60
3.53
34.47
59.35
77.84
90.59
98.54
102.47
102.94
100.52
96.02
90.50
85.01
80.35
76.69
73.64
70.47
66.52
61.55
55.81
49.89
44.39
39.52
35.01
30.14
24.05
16.13
6.26
-5.03
-16.82
-28.03
-37.88
-46.15
-53.18
-59.87
-67.30
-76.56
-88.34
-102.60
-118.25
-132.99
-143.63
-146.70
-139.54
-121.22
-93.08
-58.50
-21.88
12.55
41.90
64.93
81.81
93.34
100.34
103.34
102.69
98.96
93.20
86.77
81.02
76.79
74.04
71.98
69.48
65.70
60.44
54.19
47.86
42.20
37.46
33.16
28.40
22.18
13.94
3.82
-7.37
-18.52
-28.63
-37.30
-44.72
-51.68
-59.18
-68.14
-79.17
-92.30
-106.81
-121.06
-132.53
-138.26
-135.60
-123.17
-101.49
-72.97
-41.29
-10.26
17.13
39.25
55.77
67.12
74.03
77.20
77.32
75.14
71.59
67.57
63.78
60.51
57.54
54.41
50.64
46.12
41.17
36.36
32.21
28.79
25.57
21.63
16.03
8.29
-1.34
-11.97
-22.42
-31.82
-39.93
-47.26
-54.83
-63.76
-74.79
-87.84
-101.83
-114.58
-123.22
-124.87
-117.50
-100.75
-76.17
-46.94
-16.92
10.43
32.81
49.43
60.64
67.41
70.75
71.42
69.94
66.68
62.10
56.66
50.89
45.28
40.11
35.57
31.61
28.13
24.91
21.65
17.98
13.51
7.92
0.99
-7.18
-16.29
-25.79
-35.16
-44.12
-52.88
-62.07
-72.55
-84.69
-97.84
-109.98
-118.05
-118.79
-109.94
-91.18
-64.36
-33.01
-1.26
27.32
50.44
67.22
77.89
83.25
84.37
82.35
78.29
73.22
68.01
63.19
58.88
54.86
50.76
46.29
41.43
36.38
31.40
26.57
21.67
16.14
9.42
1.13
-8.66
-19.42
-30.46
-41.19
-51.37
-61.27
-71.49
-82.88
-96.12
-111.34
-127.74
-143.23
-154.63
-158.24
-151.06
-131.93
-102.22
-65.70
-27.32
8.22
37.76
60.19
76.02
86.57
93.15
96.69
97.83
97.11
95.19
92.68
89.91
86.80
82.88
77.73
71.19
63.71
56.20
49.59
44.39
40.35
36.52
31.61
24.59
15.12
3.73
-8.47
-20.28
-30.94
-40.41
-49.38
-58.97
-70.32
-84.10
-100.01
-116.46
-130.51
-138.49
-136.94
-123.93
-99.93
-67.89
-32.40
1.78
31.08
53.85
70.18
81.12
87.86
91.24
91.83
90.20
87.08
83.32
79.57
76.10
72.70
68.96
64.58
59.58
54.26
48.97
43.88
38.78
33.13
26.30
17.86
7.79
-3.44
-15.06
-26.22
-36.33
-45.27
-53.53
-62.12
-72.30
-85.03
-100.33
-116.70
-131.18
-139.85
-139.13
-126.98
-103.91
-72.93
-38.70
-6.06
21.40
42.00
56.00
64.75
69.82
72.34
72.91
71.78
69.22
65.72
61.92
58.31
55.14
52.27
49.36
46.09
42.29
37.94
33.08
27.62
21.36
14.01
5.45
-4.26
-14.75
-25.53
-36.17
-46.52
-56.84
-67.85
-80.40
-94.97
-110.98
-126.40
-137.86
-141.58
-134.61
-116.06
-87.58
-52.90
-16.64
17.13
45.84
68.57
85.58
97.48
104.77
107.78
107.00
103.38
98.33
93.34
89.39
86.60
84.29
81.40
77.14
71.46
65.04
58.87
53.70
49.59
45.77
41.07
34.31
24.89
12.99
-0.55
-14.47
-27.60
-39.28
-49.53
-59.09
-69.22
-81.32
-96.36
-114.35
-133.85
-151.81
-164.15
-166.71
-156.69
-133.68
-100.05
-60.34
-19.81
17.00
47.36
70.51
87.09
98.35
105.41
109.11
110.05
108.84
106.25
103.13
100.16
97.62
95.31
92.67
89.02
83.97
77.65
70.72
64.07
58.37
53.67
49.24
43.80
36.15
25.67
12.81
-1.16
-14.68
-26.58
-36.57
-45.31
-54.10
-64.38
-77.23
-92.88
-110.53
-128.20
-142.86
-150.94
-149.24
-135.91
-111.27
-77.98
-40.37
-3.20
29.67
56.09
75.71
89.35
98.23
103.34
105.22
104.29
101.11
96.61
91.90
87.85
84.76
82.26
79.52
75.78
70.72
64.66
58.32
52.41
47.19
42.21
36.57
29.26
19.69
7.98
-5.04
-18.22
-30.51
-41.38
-50.98
-59.98
-69.38
-80.11
-92.87
-107.75
-123.97
-139.59
-151.56
-156.37
-150.99
-134.10
-106.74
-72.21
-35.13
-0.03
29.78
52.74
68.84
78.94
84.14
85.44
83.74
79.99
75.15
70.17
65.64
61.70
58.15
54.58
50.69
46.47
42.09
37.76
33.51
28.99
23.64
16.83
8.23
-2.05
-13.37
-24.87
-35.76
-45.71
-55.05
-64.69
-75.74
-89.03
-104.51
-120.87
-135.37
-144.38
-144.43
-133.33
-111.12
-80.03
-44.12
-8.04
24.07
49.55
67.46
78.35
83.61
84.89
83.88
81.89
79.60
77.18
74.49
71.36
67.67
63.45
58.95
54.98
52.22
50.59
49.24
46.94
42.68
36.02
27.11
16.73
6.97
-0.41
-5.01
-8.04
-11.48
-17.52
-28.24
-45.04
-67.84
-92.64
-113.59
-125.19
-124.02
-109.36
-83.33
-50.62
-17.26
11.19
33.44
50.60
64.42
76.36
88.14
101.67
118.20
137.76
145.60
131.61
97.68
55.87
17.10
-14.24
-38.53
-57.94
-74.45
-89.07
-99.65
-104.07
-102.50
-97.55
-92.49
-89.76
-90.50
-94.55
-100.83
-106.20
-107.95
-105.51
-100.18
-94.01
-88.50
-84.52
-82.17
-81.00
-79.21
-75.36
-69.40
-62.21
-55.34
-50.19
-47.62
-47.82
-50.34
-53.75
-56.63
-58.33
-58.37
-57.06
-54.93
-52.36
-49.30
-45.03
-37.82
-24.96
-8.63
11.14
34.27
60.13
87.12
112.51
132.87
145.05
147.15
139.22
124.01
105.06
85.64
67.76
51.97
37.67
23.91
10.05
-3.90
-16.74
-27.13
-33.85
-35.97
-33.07
-25.29
-13.38
1.43
17.52
33.52
48.05
59.96
68.62
73.89
76.17
76.15
74.64
72.29
69.63
66.89
64.05
61.02
57.70
54.05
50.09
45.84
41.27
36.37
31.09
25.39
19.31
12.95
6.47
-0.02
-6.54
-13.30
-20.60
-28.77
-37.90
-47.59
-56.84
-64.13
-67.75
-66.36
-59.39
-47.31
-31.49
-13.73
4.14
20.71
35.05
46.74
55.61
61.66
64.99
65.78
64.35
61.19
56.93
52.26
47.81
43.99
40.85
38.07
35.16
31.65
27.35
22.35
16.98
11.47
5.88
0.02
-6.39
-13.56
-21.52
-30.12
-39.18
-48.50
-57.82
-66.58
-73.81
-78.13
-78.10
-72.71
-61.80
-46.32
-28.05
-9.14
8.54
23.74
36.01
45.39
52.20
56.71
59.14
59.68
58.62
56.42
53.55
50.44
47.33
44.25
41.07
37.62
33.83
29.68
25.24
20.53
15.53
10.16
4.29
-2.08
-8.89
-15.98
-23.15
-30.29
-37.46
-44.89
-52.87
-61.42
-70.10
-77.83
-83.02
-84.04
-79.69
-69.74
-55.01
-37.16
-18.15
0.29
16.97
31.25
42.87
51.77
57.96
61.58
62.97
62.64
61.15
58.98
56.37
53.39
49.99
46.19
42.12
38.01
34.05
30.30
26.66
22.87
18.61
13.69
8.04
1.77
-4.88
-11.68
-18.47
-25.22
-31.98
-38.92
-46.21
-53.98
-62.14
-70.19
-77.14
-81.65
-82.30
-78.07
-68.66
-54.74
-37.74
-19.48
-1.66
14.43
28.03
38.88
47.01
52.58
55.85
57.16
56.90
55.53
53.41
50.86
48.05
45.05
41.88
38.58
35.22
31.90
28.67
25.45
22.04
18.18
13.63
8.31
2.32
-4.08
-10.57
-16.90
-23.00
-28.96
-35.05
-41.59
-48.74
-56.38
-63.99
-70.63
-75.02
-75.86
-72.20
-63.82
-51.35
-36.20
-20.15
-4.91
8.29
18.89
26.84
32.44
36.03
37.90
38.27
37.40
35.65
33.42
31.04
28.70
26.40
23.99
21.36
18.48
15.44
12.35
9.25
6.08
2.63
-1.31
-5.85
-10.93
-16.38
-21.98
-27.62
-33.35
-39.32
-45.72
-52.56
-59.48
-65.65
-69.87
-70.83
-67.51
-59.55
-47.42
-32.34
-15.96
0.06
14.37
26.17
35.14
41.33
45.03
46.60
46.48
45.14
43.05
40.60
38.07
35.60
33.17
30.74
28.26
25.72
23.15
20.53
17.81
14.80
11.25
6.94
1.73
-4.27
-10.77
-17.35
-23.68
-29.61
-35.30
-41.09
-47.42
-54.57
-62.42
-70.36
-77.26
-81.69
-82.26
-78.04
-68.90
-55.58
-39.51
-22.41
-5.80
9.23
22.12
32.68
40.91
46.89
50.75
52.74
53.24
52.68
51.53
50.11
48.59
46.97
45.17
43.07
40.64
37.89
34.94
31.87
28.76
25.59
22.23
18.44
14.00
8.73
2.58
-4.30
-11.59
-18.89
-25.86
-32.28
-38.15
-43.69
-49.28
-55.32
-62.01
-69.26
-76.48
-82.61
-86.33
-86.37
-81.89
-72.75
-59.58
-43.58
-26.28
-9.15
6.62
20.22
31.24
39.58
45.42
49.10
51.10
51.90
51.94
51.47
50.66
49.51
47.98
46.01
43.59
40.81
37.82
34.82
31.93
29.16
26.33
23.15
19.29
14.55
8.89
2.49
-4.31
-11.17
-17.77
-23.95
-29.64
-34.95
-40.08
-45.34
-51.09
-57.56
-64.72
-72.11
-78.77
-83.40
-84.62
-81.39
-73.33
-60.90
-45.29
-28.11
-10.94
4.95
18.83
30.33
39.38
46.03
50.37
52.60
53.05
52.23
50.72
49.04
47.51
46.18
44.88
43.31
41.24
38.61
35.56
32.32
29.08
25.83
22.38
18.46
13.82
8.39
2.32
-4.10
-10.56
-16.84
-22.87
-28.70
-34.50
-40.47
-46.84
-53.76
-61.11
-68.38
-74.59
-78.51
-78.92
-75.07
-66.91
-55.09
-40.82
-25.43
-10.15
4.10
16.67
27.10
35.08
40.48
43.43
44.31
43.67
42.09
40.02
37.72
35.32
32.88
30.45
28.10
25.88
23.76
21.61
19.25
16.42
12.94
8.67
3.62
-2.03
-7.99
-13.94
-19.66
-25.12
-30.49
-36.07
-42.21
-49.05
-56.41
-63.63
-69.61
-72.98
-72.49
-67.36
-57.64
-44.23
-28.64
-12.57
2.56
15.82
26.77
35.31
41.47
45.34
47.14
47.21
46.04
44.16
41.97
39.71
37.44
35.12
32.75
30.33
27.91
25.46
22.85
19.85
16.19
11.67
6.25
0.07
-6.58
-13.36
-20.02
-26.47
-32.85
-39.42
-46.49
-54.16
-62.13
-69.58
-75.25
-77.70
-75.73
-68.80
-57.23
-42.15
-25.21
-8.13
7.67
21.23
32.08
40.16
45.68
49.03
50.67
51.02
50.43
49.15
47.34
45.14
42.67
40.07
37.45
34.82
32.10
29.16
25.83
21.98
17.52
12.37
6.55
0.13
-6.71
-13.77
-20.85
-27.91
-35.12
-42.73
-50.93
-59.55
-67.91
-74.85
-78.99
-79.09
-74.39
-64.89
-51.32
-35.00
-17.52
-0.43
15.01
27.94
37.95
45.04
49.51
51.84
52.58
52.23
51.18
49.73
48.05
46.19
44.14
41.78
39.05
35.86
32.21
28.09
23.51
18.40
12.72
6.43
-0.38
-7.51
-14.69
-21.76
-28.67
-35.59
-42.85
-50.74
-59.39
-68.52
-77.38
-84.79
-89.34
-89.79
-85.41
-76.28
-63.30
-48.07
-32.39
-17.85
-5.54
4.09
11.06
15.64
18.14
18.82
17.93
15.77
12.73
9.27
5.84
2.82
0.46
-1.01
-1.40
-0.50
1.83
5.51
10.27
15.60
20.87
25.51
29.08
31.28
31.94
30.91
28.02
23.08
16.07
7.34
-2.19
-11.03
-17.37
-19.50
-16.35
-7.78
5.31
21.21
37.90
53.52
66.70
76.74
83.48
87.14
88.04
86.58
83.13
78.13
72.07
65.52
59.04
53.07
47.87
43.37
39.27
35.06
30.22
24.33
17.29
9.26
0.67
-8.03
-16.52
-24.74
-32.93
-41.52
-51.00
-61.64
-73.25
-84.99
-95.47
-102.99
-106.09
-104.04
-97.13
-86.63
-74.43
-62.42
-52.02
-43.88
-38.01
-34.01
-31.43
-30.06
-29.92
-31.15
-33.79
-37.64
-42.10
-46.25
-48.95
-49.08
-45.82
-38.95
-29.01
-17.38
-5.94
3.35
9.03
10.42
7.69
1.49
-7.52
-18.89
-32.23
-46.76
-60.63
-70.89
-74.07
-67.46
-50.48
-25.23
3.89
31.61
53.70
68.26
76.02
79.41
81.15
83.18
86.05
89.03
90.77
89.85
85.30
76.90
65.54
53.36
43.58
39.60
43.70
55.99
74.14
94.14
111.71
123.86
129.51
129.49
125.30
118.16
108.67
97.04
83.45
68.26
51.90
34.48
16.33
-2.28
-20.69
-37.45
-50.29
-56.76
-55.45
-46.69
-32.76
-16.24
-0.16
12.81
21.40
26.30
29.77
34.04
40.43
48.49
58.02
67.98
76.88
83.67
88.29
91.39
93.05
92.94
90.33
86.87
84.42
83.76
84.61
85.98
86.69
85.16
80.54
60.85
23.25
-24.27
-68.42
-100.29
-118.66
-124.95
-123.82
-117.08
-104.97
-85.69
-59.00
-28.68
0.01
22.94
38.66
47.63
51.47
51.23
48.50
43.67
35.55
23.29
8.00
-6.98
-18.08
-22.84
-21.20
-14.42
-5.40
1.08
1.07
-6.21
-17.87
-29.63
-37.95
-41.51
-40.84
-38.24
-39.09
-49.01
-71.22
-104.96
-146.27
-188.63
-223.51
-241.54
-235.96
-208.22
-167.32
-126.30
-97.27
-88.13
-100.65
-130.27
-168.44
-192.21
-184.12
-143.68
-87.61
-33.70
10.34
45.54
75.80
103.50
128.01
144.84
150.39
145.26
134.44
124.37
119.48
121.12
128.09
136.05
139.56
135.50
124.60
110.89
98.96
91.79
90.21
93.33
96.93
96.23
89.62
78.80
66.90
56.32
47.75
40.08
30.37
16.61
-4.14
-30.94
-59.96
-87.54
-111.92
-133.01
-151.54
-168.69
-190.45
-220.64
-257.19
-294.49
-327.68
-354.46
-374.30
-387.34
-361.39
-286.65
-182.61
-80.03
2.88
63.47
106.10
136.20
158.07
173.81
179.54
173.38
158.65
141.05
125.55
114.14
106.75
102.63
99.72
92.14
76.15
52.50
24.89
-3.09
-29.50
-54.21
-71.45
-79.25
-80.25
-77.95
-74.70
-71.52
-68.76
-66.24
-62.78
-56.60
-47.32
-36.54
-26.22
-17.54
-10.85
-6.24
-3.84
-3.63
-5.18
-8.43
-12.97
-17.36
-19.43
-17.02
-8.97
4.50
22.22
42.67
64.06
85.05
104.58
121.56
134.71
142.76
144.81
140.82
131.82
119.41
105.60
92.17
80.32
70.59
63.00
57.30
53.02
49.49
45.64
40.28
32.33
21.34
7.73
-7.30
-22.18
-35.66
-47.25
-57.30
-66.62
-75.91
-85.31
-94.29
-101.79
-106.84
-108.89
-108.05
-104.99
-100.43
-94.83
-88.04
-79.41
-68.11
-53.58
-35.96
-16.11
4.53
24.44
42.52
58.52
72.98
86.93
101.34
116.68
132.79
149.07
164.86
179.82
194.05
208.04
222.46
237.84
254.15
270.49
284.76
293.96
294.96
285.82
266.83
240.93
213.03
188.46
171.44
163.86
165.21
173.15
184.58
196.48
206.45
212.80
214.49
211.18
203.22
191.74
178.48
165.44
154.30
145.87
139.78
134.45
127.64
117.01
100.94
78.92
51.58
20.29
-13.40
-48.26
-83.74
-119.93
-157.10
-195.03
-232.58
-267.61
-297.57
-320.42
-335.44
-343.50
-346.53
-346.61
-345.18
-342.74
-339.23
-334.63
-329.52
-324.97
-322.09
-321.46
-322.75
-324.83
-326.15
-325.35
-321.55
-314.60
-304.98
-293.53
-281.14
-268.56
-256.17
-244.23
-232.93
-222.63
-213.80
-206.94
-202.42
-200.51
-201.10
-204.01
-208.89
-214.78
-219.55
-220.13
-213.28
-196.61
-169.59
-133.54
-91.95
-49.91
-13.03
13.86
27.96
29.44
21.87
11.45
5.86
10.60
26.35
48.66
69.47
79.66
71.68
41.62
-9.61
-74.51
-142.77
-204.42
-251.45
-278.36
-283.30
-268.47
-239.23
-202.11
-158.87
-111.12
-62.57
-17.99
19.64
49.81
73.63
93.02
110.01
132.43
164.48
203.23
241.79
275.41
303.45
327.92
351.77
377.64
415.15
468.80
533.30
597.79
653.70
697.34
728.21
747.43
706.28
587.63
422.17
260.11
129.84
34.43
-33.93
-84.11
-122.86
-154.47
-173.20
-175.93
-167.40
-156.83
-150.39
-149.84
-154.42
-162.52
-172.53
-176.26
-168.58
-151.73
-132.37
-115.08
-101.67
-92.35
-86.81
-84.55
-79.80
-68.95
-53.27
-37.32
-24.05
-14.71
-9.33
-7.27
-7.30
-3.86
7.40
28.31
52.94
78.71
104.86
131.50
158.17
183.17
206.44
225.93
238.10
240.05
232.80
220.23
207.15
196.69
174.85
135.39
81.39
23.10
-28.94
-66.96
-87.40
-90.71
-80.96
-63.96
-42.56
-18.63
5.97
28.50
45.58
53.31
48.82
31.72
5.68
-20.25
-39.40
-48.90
-50.22
-47.27
-44.01
-42.65
-44.23
-48.12
-51.54
-52.41
-51.04
-49.08
-48.43
-50.78
-57.83
-72.54
-96.55
-129.05
-160.68
-184.11
-194.87
-192.98
-182.55
-169.50
-160.18
-156.72
-156.64
-156.01
-154.03
-152.64
-154.18
-158.20
-147.96
-113.95
-60.33
-1.60
48.02
80.20
94.29
95.18
90.64
88.98
92.99
103.35
119.59
139.76
158.97
170.98
170.65
156.49
125.98
81.87
30.76
-19.10
-60.10
-87.30
-98.48
-93.92
-75.15
-44.63
-6.02
36.46
79.30
120.05
156.71
187.10
208.12
217.66
215.56
203.30
183.20
157.87
129.65
99.90
68.86
34.81
-3.40
-45.41
-89.82
-134.73
-176.69
-210.61
-231.27
-235.99
-228.10
-213.81
-199.10
-187.39
-178.68
-169.32
-154.08
-129.52
-87.06
-33.08
15.06
44.25
54.90
55.62
54.89
56.56
59.99
62.15
59.16
50.90
41.39
35.69
36.51
44.15
56.19
69.70
82.21
91.17
96.25
99.19
101.81
104.07
104.60
101.76
94.73
83.68
68.95
52.22
35.13
20.35
9.19
1.50
-4.01
-9.10
-15.59
-25.06
-37.42
-50.87
-62.84
-71.72
-77.19
-80.22
-82.53
-85.92
-91.84
-100.25
-109.76
-118.04
-122.85
-122.06
-114.22
-99.36
-79.76
-59.61
-42.73
-31.24
-24.97
-22.09
-19.81
-16.12
-11.17
-7.28
-7.42
-11.69
-17.23
-19.51
-14.70
-0.31
23.92
56.44
94.36
130.53
156.56
165.83
156.73
131.03
92.95
48.62
6.42
-24.93
-39.57
-35.01
-13.01
19.77
53.21
79.33
94.23
98.67
96.52
83.98
64.95
44.77
29.35
14.42
-4.47
-30.00
-60.16
-90.64
-116.88
-132.93
-136.40
-129.36
-116.60
-100.91
-82.97
-62.57
-40.47
-18.27
5.69
33.25
64.95
99.43
134.86
167.86
193.41
206.13
192.07
148.99
90.56
36.73
-1.12
-22.93
-34.32
-40.53
-43.84
-43.69
-36.97
-23.23
-6.67
6.56
12.07
8.95
-1.34
-15.52
-29.76
-39.19
-40.24
-31.77
-14.26
10.57
40.12
72.20
100.45
121.57
137.40
153.38
170.47
186.18
195.13
191.89
173.96
143.16
105.54
68.52
36.51
7.85
-19.06
-48.00
-81.98
-120.79
-160.30
-193.34
-212.97
-215.60
-202.47
-178.19
-149.34
-121.63
-98.25
-79.71
-64.56
-51.02
-38.08
-25.73
-14.10
-3.59
6.08
15.87
26.81
39.30
52.27
62.89
67.44
62.96
48.05
23.64
-7.47
-41.72
-75.83
-107.45
-134.91
-156.96
-172.39
-180.52
-181.55
-176.83
-168.69
-159.93
-152.90
-148.85
-147.35
-146.40
-142.96
-133.85
-116.81
-91.40
-59.28
-23.69
11.66
43.85
71.37
94.03
112.23
126.18
135.48
139.54
138.16
132.11
123.13
113.41
104.74
97.96
92.89
88.73
84.68
80.22
75.14
69.24
62.10
52.99
41.16
26.19
8.34
-11.30
-30.88
-48.02
-60.24
-65.44
-62.62
-52.14
-35.85
-16.56
2.77
19.84
33.52
43.76
51.09
56.04
58.74
59.02
56.74
52.18
46.13
39.73
33.90
28.97
24.54
19.77
13.90
6.78
-1.13
-9.03
-16.29
-22.88
-29.46
-37.08
-46.59
-58.28
-71.50
-84.68
-95.68
-102.19
-102.38
-95.34
-81.47
-62.29
-40.15
-17.50
3.60
21.86
36.65
47.82
55.40
59.51
60.49
59.02
56.07
52.72
49.82
47.70
46.04
44.15
41.28
37.04
31.59
25.53
19.61
14.32
9.67
5.20
0.16
-6.26
-14.56
-24.70
-35.90
-46.59
-54.68
-58.05
-55.30
-46.29
-32.33
-15.80
0.73
15.22
26.72
35.26
41.32
45.27
47.08
46.50
43.44
38.32
32.14
26.17
21.46
18.34
16.36
14.44
11.32
6.18
-1.07
-9.82
-18.94
-27.37
-34.45
-40.19
-45.11
-50.09
-56.03
-63.66
-73.33
-84.71
-96.56
-106.59
-111.81
-109.43
-97.85
-77.43
-50.57
-20.98
7.52
32.14
51.60
65.93
75.89
82.29
85.72
86.57
85.33
82.58
79.00
75.13
71.27
67.47
63.59
59.53
55.16
50.37
44.99
38.82
31.69
23.58
14.66
5.25
-4.39
-14.04
-23.61
-33.13
-42.67
-52.48
-62.99
-74.76
-88.01
-102.02
-114.73
-122.90
-123.10
-113.05
-92.82
-65.02
-33.92
-3.96
21.73
41.82
56.55
66.83
73.44
76.80
77.22
75.27
71.95
68.44
65.67
63.91
62.73
61.27
58.71
54.70
49.54
44.01
38.90
34.57
30.69
26.32
20.37
12.17
1.84
-9.69
-21.15
-31.38
-39.92
-47.13
-54.05
-62.00
-72.14
-84.94
-99.78
-114.71
-126.61
-131.96
-127.88
-113.23
-89.22
-59.09
-27.17
2.49
27.25
46.14
59.54
68.40
73.60
75.75
75.41
73.29
70.36
67.61
65.68
64.58
63.79
62.53
60.11
56.30
51.34
45.79
40.21
34.87
29.57
23.66
16.41
7.33
-3.42
-15.11
-26.65
-37.12
-46.22
-54.24
-61.96
-70.16
-79.35
-89.62
-100.48
-110.83
-118.83
-122.10
-118.28
-105.84
-84.83
-57.11
-25.94
5.11
33.19
56.70
75.19
88.69
97.28
100.97
100.11
95.81
89.99
84.76
81.61
80.70
80.86
80.21
77.30
71.84
64.96
58.60
54.50
53.22
53.78
54.09
51.81
45.41
34.91
21.77
8.44
-2.51
-9.21
-10.87
-8.22
-3.60
-1.02
-5.44
-21.16
-49.62
-87.53
-126.77
-156.45
-166.85
-153.18
-117.44
-67.34
-12.94
37.12
77.84
107.95
128.30
140.15
144.38
141.89
134.49
125.20
117.56
114.22
115.65
119.85
123.04
121.35
112.49
96.80
77.03
57.29
41.41
31.59
27.81
28.20
30.02
30.74
28.64
22.98
13.80
1.60
-12.77
-28.21
-43.31
-56.57
-66.69
-72.99
-75.57
-75.18
-72.89
-69.61
-65.77
-61.31
-55.77
-48.70
-39.83
-29.29
-17.52
-5.22
6.81
17.88
27.63
36.19
44.20
52.62
62.37
73.84
86.88
100.79
114.75
128.17
140.81
152.71
163.89
174.06
182.55
188.28
190.02
186.58
177.09
161.31
139.72
113.56
84.53
54.31
24.06
-5.87
-36.01
-67.63
-102.17
-140.39
-181.51
-222.60
-258.87
-284.94
-296.69
-293.00
-276.40
-252.31
-227.00
-205.59
-190.74
-182.68
-180.14
-181.51
-185.53
-191.21
-197.45
-202.90
-206.18
-206.55
-204.40
-201.16
-198.96
-199.68
-204.19
-212.01
-221.53
-230.63
-237.45
-240.96
-241.08
-238.46
-233.95
-228.21
-221.44
-213.35
-203.43
-191.02
-175.65
-157.11
-135.56
-111.55
-85.75
-58.81
-31.02
-2.25
27.75
58.85
89.93
118.81
142.71
159.19
167.05
166.81
160.45
150.61
139.65
129.15
119.74
111.41
103.84
96.61
89.17
80.92
71.31
60.02
47.22
33.50
19.67
6.47
-5.80
-17.32
-28.76
-41.17
-55.43
-71.70
-88.91
-104.53
-115.05
-116.94
-107.87
-87.62
-58.31
-23.51
13.13
48.97
82.80
114.37
143.57
169.81
191.80
207.79
216.34
216.82
209.57
195.71
176.87
154.88
131.94
109.82
89.48
71.00
53.91
37.61
21.67
6.10
-8.53
-20.67
-29.22
-34.36
-37.45
-40.25
-44.16
-50.08
-58.18
-68.02
-77.65
-85.00
-88.50
-86.63
-77.37
-58.87
-30.64
5.53
45.65
86.02
122.84
152.61
173.24
184.53
187.41
182.28
168.53
137.78
89.16
33.04
-14.75
-43.61
-52.39
-46.97
-36.22
-27.79
-25.53
-27.69
-30.57
-31.84
-31.40
-30.64
-30.63
-32.14
-34.91
-37.96
-39.19
-37.48
-33.62
-29.64
-27.90
-30.15
-37.14
-47.87
-59.55
-67.49
-67.39
-59.17
-44.27
-25.45
-5.86
12.29
28.57
43.90
59.92
76.75
92.27
103.57
109.11
108.87
104.14
97.01
89.48
83.87
81.51
82.34
85.67
91.56
99.18
106.89
112.84
115.43
115.02
112.16
107.02
100.01
93.33
88.65
86.30
85.37
83.74
80.55
74.98
66.47
45.14
10.05
-30.23
-63.49
-77.70
-77.28
-68.01
-53.91
-40.12
-28.71
-18.52
-8.61
0.54
7.20
9.09
6.42
0.28
-7.95
-16.40
-22.37
-24.61
-23.99
-22.69
-23.35
-26.49
-31.69
-38.14
-44.70
-49.79
-53.00
-55.28
-58.42
-64.28
-73.23
-84.68
-97.41
-109.39
-117.86
-120.43
-115.67
-103.48
-85.17
-62.64
-38.33
-14.72
6.38
24.00
37.80
47.68
53.69
55.96
55.02
51.70
46.99
41.92
37.28
33.43
30.26
27.33
24.08
20.15
15.46
10.26
4.96
-0.05
-4.61
-8.88
-13.22
-18.15
-24.22
-31.81
-41.03
-51.51
-62.23
-71.54
-77.35
-77.65
-71.20
-58.00
-39.38
-17.68
4.39
24.49
41.18
53.96
63.06
68.99
72.26
73.17
71.97
68.97
64.69
59.82
55.07
50.93
47.54
44.62
41.68
38.14
33.64
28.12
21.80
15.09
8.40
1.96
-4.23
-10.41
-16.90
-24.04
-32.11
-41.32
-51.60
-62.42
-72.58
-80.22
-83.19
-79.69
-69.01
-51.88
-30.38
-7.37
14.34
32.74
46.90
56.92
63.46
67.32
69.13
69.24
67.91
65.41
62.19
58.81
55.77
53.35
51.41
49.51
47.14
43.96
40.00
35.60
31.23
27.20
23.46
19.58
14.97
9.12
1.85
-6.56
-15.49
-24.20
-32.08
-38.82
-44.53
-49.59
-54.59
-60.12
-66.65
-74.45
-83.41
-92.84
-101.35
-106.93
-107.39
-101.05
-87.36
-67.29
-43.14
-17.88
5.73
25.75
41.35
52.61
60.08
64.44
66.25
66.05
64.40
61.95
59.38
57.20
55.58
54.28
52.74
50.37
46.86
42.35
37.39
32.63
28.49
24.91
21.30
16.88
11.08
3.81
-4.43
-12.85
-20.67
-27.41
-33.08
-38.03
-42.86
-48.18
-54.51
-62.09
-70.75
-79.69
-87.46
-92.07
-91.49
-84.32
-70.38
-50.96
-28.44
-5.67
14.94
31.88
44.70
53.69
59.39
62.32
62.88
61.49
58.72
55.33
52.05
49.37
47.34
45.64
43.76
41.32
38.25
34.80
31.40
28.35
25.67
22.99
19.72
15.28
9.32
1.89
-6.55
-15.23
-23.34
-30.34
-36.11
-41.01
-45.73
-51.07
-57.58
-65.27
-73.47
-80.78
-85.33
-85.17
-78.94
-66.30
-48.19
-26.67
-4.32
16.47
33.97
47.38
56.63
62.06
64.21
63.69
61.20
57.59
53.67
50.08
47.10
44.62
42.30
39.76
36.82
33.53
30.13
26.90
23.92
21.05
17.94
14.11
9.22
3.19
-3.69
-10.90
-17.85
-24.13
-29.65
-34.64
-39.65
-45.28
-52.02
-59.91
-68.33
-75.92
-80.74
-80.77
-74.59
-61.95
-44.07
-23.35
-2.67
15.50
29.70
39.58
45.64
48.63
49.21
47.78
44.63
40.13
34.82
29.36
24.34
20.12
16.82
14.27
12.18
10.14
7.83
4.94
1.34
-2.93
-7.65
-12.54
-17.36
-22.03
-26.65
-31.55
-37.10
-43.61
-51.19
-59.50
-67.67
-74.22
-77.37
-75.48
-67.63
-54.14
-36.49
-17.07
1.64
17.67
29.96
38.40
43.42
45.60
45.41
43.18
39.27
34.26
28.91
24.05
20.25
17.65
15.89
14.28
12.09
8.85
4.52
-0.56
-5.87
-11.00
-15.81
-20.46
-25.34
-30.86
-37.37
-45.07
-53.89
-63.46
-72.89
-80.75
-85.21
-84.45
-77.28
-63.72
-45.16
-24.04
-3.19
15.07
29.45
39.79
46.66
50.78
52.71
52.62
50.62
46.96
42.25
37.35
33.12
30.08
28.18
26.87
25.26
22.57
18.37
12.76
6.28
-0.41
-6.80
-12.67
-18.21
-23.82
-29.87
-36.71
-44.56
-53.52
-63.44
-73.67
-82.90
-89.24
-90.62
-85.46
-73.39
-55.41
-33.76
-11.18
9.88
27.75
41.75
51.88
58.51
62.09
63.11
62.19
60.02
57.35
54.74
52.44
50.40
48.33
45.93
43.09
39.91
36.62
33.43
30.36
27.14
23.28
18.33
11.99
4.37
-4.12
-12.88
-21.37
-29.32
-36.72
-43.84
-51.12
-59.10
-68.16
-78.22
-88.45
-97.11
-101.81
-100.21
-90.92
-74.12
-51.71
-26.70
-2.28
19.14
36.40
49.43
58.77
65.03
68.63
69.88
69.18
67.15
64.60
62.23
60.38
58.97
57.52
55.51
52.63
48.91
44.73
40.57
36.80
33.41
30.02
25.98
20.66
13.74
5.41
-3.67
-12.64
-20.80
-27.82
-33.95
-39.81
-46.21
-53.85
-63.04
-73.41
-83.76
-92.10
-95.98
-93.27
-82.88
-65.31
-42.57
-17.64
6.45
27.41
44.05
56.15
64.13
68.58
70.14
69.46
67.28
64.43
61.68
59.52
58.02
56.83
55.36
53.04
49.64
45.35
40.67
36.19
32.25
28.85
25.52
21.61
16.52
9.97
2.16
-6.31
-14.64
-22.11
-28.43
-33.77
-38.80
-44.41
-51.42
-60.20
-70.37
-80.69
-89.16
-93.45
-91.48
-82.15
-65.77
-44.05
-19.77
4.07
25.00
41.56
53.38
60.90
64.87
66.09
65.19
62.71
59.22
55.31
51.53
48.22
45.47
43.08
40.74
38.20
35.41
32.44
29.44
26.40
23.09
19.10
14.03
7.69
0.27
-7.71
-15.62
-22.98
-29.72
-36.16
-42.93
-50.57
-59.23
-68.34
-76.54
-81.92
-82.49
-76.83
-64.68
-47.11
-26.39
-5.25
13.82
29.19
40.32
47.47
51.29
52.44
51.38
48.53
44.38
39.56
34.80
30.72
27.65
25.57
24.17
23.02
21.68
19.84
17.26
13.79
9.33
3.91
-2.35
-9.15
-16.16
-23.12
-29.86
-36.48
-43.24
-50.55
-58.78
-67.97
-77.47
-85.88
-91.08
-90.87
-83.71
-69.37
-49.22
-25.83
-2.23
18.98
36.15
48.74
57.01
61.61
63.26
62.64
60.38
57.16
53.69
50.59
48.23
46.65
45.49
44.11
41.92
38.61
34.37
29.77
25.50
21.91
18.81
15.45
10.88
4.45
-3.85
-13.37
-23.03
-31.84
-39.27
-45.38
-50.72
-56.11
-62.29
-69.80
-78.71
-88.44
-97.69
-104.44
-106.41
-101.69
-89.48
-70.52
-46.91
-21.53
2.79
23.92
40.80
53.24
61.59
66.45
68.47
68.26
66.51
63.96
61.28
58.97
57.25
55.97
54.73
52.99
50.37
46.80
42.58
38.26
34.32
30.88
27.60
23.76
18.57
11.57
2.79
-7.11
-17.16
-26.35
-34.04
-40.18
-45.25
-50.12
-55.80
-63.02
-72.00
-82.10
-91.80
-98.84
-100.84
-96.02
-83.84
-65.32
-42.72
-18.91
3.54
22.86
38.29
49.83
57.80
62.56
64.43
63.84
61.43
58.06
54.64
51.85
49.90
48.54
47.23
45.45
42.94
39.86
36.62
33.60
30.95
28.39
25.37
21.27
15.74
8.83
1.05
-6.86
-14.13
-20.34
-25.45
-29.91
-34.44
-39.84
-46.75
-55.38
-65.30
-75.29
-83.42
-87.44
-85.40
-76.27
-60.49
-39.86
-17.03
5.19
24.65
40.12
51.30
58.49
62.29
63.33
62.25
59.70
56.28
52.50
48.71
45.10
41.68
38.42
35.22
32.05
28.89
25.70
22.41
18.79
14.56
9.35
2.98
-4.48
-12.62
-20.81
-28.51
-35.43
-41.78
-48.14
-55.18
-63.32
-72.24
-80.79
-87.07
-88.94
-84.68
-73.67
-56.69
-35.85
-13.91
6.42
23.25
35.79
44.23
49.26
51.62
51.82
50.17
47.03
42.87
38.34
34.12
30.63
27.94
25.76
23.63
21.10
17.86
13.83
9.12
3.92
-1.53
-7.09
-12.73
-18.54
-24.68
-31.35
-38.75
-47.05
-56.27
-66.02
-75.25
-82.26
-84.98
-81.62
-71.41
-55.02
-34.51
-12.70
7.74
24.97
38.27
47.76
53.93
57.19
57.81
56.00
52.22
47.24
41.96
37.23
33.48
30.70
28.53
26.41
23.89
20.68
16.70
12.02
6.81
1.26
-4.47
-10.26
-16.11
-22.08
-28.33
-35.12
-42.75
-51.46
-61.18
-71.14
-79.80
-84.98
-84.47
-76.87
-62.23
-42.18
-19.48
2.84
22.39
37.86
49.03
56.35
60.45
61.92
61.23
58.91
55.54
51.77
48.09
44.73
41.68
38.77
35.88
33.00
30.15
27.30
24.24
20.61
16.06
10.36
3.60
-3.88
-11.60
-19.20
-26.48
-33.51
-40.59
-48.19
-56.74
-66.43
-76.82
-86.66
-93.89
-96.12
-91.37
-78.88
-59.63
-36.06
-11.40
11.39
30.39
45.00
55.55
62.74
67.13
69.04
68.71
66.56
63.34
59.89
56.91
54.63
52.79
50.85
48.29
44.91
40.95
36.92
33.32
30.31
27.59
24.43
20.00
13.75
5.71
-3.55
-13.08
-21.98
-29.73
-36.35
-42.29
-48.28
-55.02
-63.04
-72.52
-83.02
-93.32
-101.43
-104.87
-101.48
-90.12
-71.30
-47.16
-20.85
4.46
26.36
43.73
56.46
65.08
70.21
72.38
72.03
69.76
66.34
62.65
59.39
56.89
55.01
53.24
51.02
47.99
44.17
39.92
35.72
31.88
28.26
24.36
19.44
12.96
4.79
-4.60
-14.37
-23.61
-31.73
-38.64
-44.74
-50.81
-57.67
-65.96
-75.78
-86.46
-96.40
-103.27
-104.59
-98.50
-84.53
-63.94
-39.38
-14.09
9.09
28.40
43.33
54.26
61.85
66.63
68.92
68.90
66.97
63.79
60.20
56.98
54.57
52.95
51.75
50.40
48.44
45.66
42.19
38.35
34.51
30.82
27.13
22.98
17.81
11.12
2.82
-6.65
-16.50
-25.75
-33.68
-40.08
-45.36
-50.33
-55.90
-62.77
-71.20
-80.93
-91.09
-100.17
-106.20
-107.07
-101.13
-87.87
-68.20
-44.41
-19.45
3.85
23.53
38.73
49.49
56.34
59.84
60.55
59.00
55.86
51.90
47.79
44.01
40.72
37.83
35.11
32.40
29.64
26.86
24.06
21.11
17.66
13.31
7.70
0.77
-7.15
-15.48
-23.54
-30.87
-37.42
-43.54
-49.96
-57.45
-66.49
-76.83
-87.30
-95.84
-99.93
-97.37
-86.97
-69.17
-45.95
-20.31
4.56
26.18
43.16
55.23
62.86
66.86
67.98
66.89
64.20
60.53
56.47
52.54
49.00
45.93
43.23
40.74
38.36
36.06
33.73
31.12
27.83
23.39
17.48
10.12
1.68
-7.24
-16.05
-24.36
-32.15
-39.71
-47.58
-56.33
-66.29
-77.24
-88.07
-96.78
-100.89
-98.09
-87.12
-68.46
-44.20
-17.61
7.97
29.98
47.16
59.44
67.50
72.20
74.28
74.23
72.41
69.19
65.01
60.30
55.42
50.57
45.83
41.20
36.71
32.40
28.29
24.26
19.99
14.98
8.75
1.02
-8.10
-18.10
-28.25
-37.93
-46.80
-54.96
-62.89
-71.32
-80.86
-91.71
-103.18
-113.56
-120.29
-120.61
-112.56
-95.73
-71.67
-43.46
-14.82
10.98
31.92
47.33
57.65
63.77
66.66
67.10
65.73
63.20
60.08
56.83
53.71
50.78
47.98
45.23
42.51
39.80
36.97
33.75
29.77
24.71
18.44
11.10
2.99
-5.53
-14.16
-22.76
-31.29
-39.81
-48.58
-57.95
-68.27
-79.45
-90.59
-99.72
-104.19
-101.47
-90.16
-70.72
-45.50
-18.02
8.13
30.32
47.33
59.15
66.44
70.02
70.63
68.90
65.55
61.35
57.03
53.10
49.72
46.82
44.21
41.73
39.27
36.76
33.99
30.69
26.50
21.15
14.59
7.08
-0.96
-9.06
-16.88
-24.35
-31.65
-39.20
-47.46
-56.86
-67.38
-78.36
-88.30
-94.93
-95.87
-89.35
-75.01
-54.27
-29.94
-5.41
16.40
33.79
46.36
54.70
59.62
61.78
61.49
58.93
54.46
48.80
42.93
37.86
34.24
32.09
30.85
29.61
27.48
23.94
19.02
13.12
6.87
0.71
-5.25
-11.20
-17.53
-24.61
-32.72
-41.98
-52.40
-63.62
-74.81
-84.43
-90.40
-90.59
-83.49
-68.89
-48.18
-23.98
0.55
22.59
40.29
52.93
60.80
64.74
65.76
64.84
62.71
59.93
56.84
53.63
50.38
47.13
43.87
40.65
37.50
34.48
31.55
28.57
25.23
21.16
15.95
9.37
1.53
-7.19
-16.19
-24.96
-33.25
-41.22
-49.38
-58.36
-68.56
-79.77
-90.86
-99.81
-104.09
-101.41
-90.51
-71.84
-47.49
-20.63
5.38
27.97
45.75
58.52
66.83
71.49
73.25
72.77
70.74
67.91
65.04
62.66
60.89
59.41
57.60
54.92
51.14
46.47
41.51
36.79
32.56
28.54
24.02
18.22
10.64
1.35
-9.00
-19.51
-29.32
-37.98
-45.54
-52.49
-59.52
-67.34
-76.44
-86.80
-97.72
-107.62
-114.14
-114.74
-107.48
-91.81
-69.00
-41.86
-13.89
11.77
33.09
49.38
60.97
68.58
72.93
74.50
73.78
71.35
68.02
64.56
61.51
58.96
56.58
53.87
50.51
46.58
42.50
38.73
35.44
32.28
28.52
23.36
16.38
7.72
-1.94
-11.70
-20.81
-28.94
-36.23
-43.20
-50.57
-59.03
-68.93
-79.96
-90.92
-99.69
-103.68
-100.63
-89.51
-70.94
-47.18
-21.38
3.42
25.00
42.32
55.28
64.29
69.86
72.41
72.36
70.26
66.88
63.15
59.87
57.49
55.93
54.60
52.72
49.73
45.59
40.79
36.13
32.18
28.93
25.70
21.52
15.62
7.82
-1.34
-10.89
-19.79
-27.42
-33.67
-38.99
-44.17
-50.09
-57.43
-66.40
-76.44
-86.06
-93.05
-94.96
-89.91
-77.26
-57.98
-34.48
-9.86
12.91
31.76
45.79
55.10
60.37
62.43
62.03
59.77
56.28
52.15
47.94
44.07
40.68
37.72
34.98
32.30
29.57
26.80
23.91
20.73
16.93
12.15
6.21
-0.85
-8.66
-16.64
-24.23
-31.12
-37.32
-43.22
-49.47
-56.78
-65.54
-75.45
-85.28
-92.88
-95.73
-91.70
-79.86
-60.99
-37.41
-12.27
11.35
31.23
46.35
56.72
62.93
65.75
65.88
63.96
60.66
56.69
52.67
49.01
45.80
42.83
39.78
36.47
32.94
29.43
26.19
23.26
20.33
16.81
12.09
5.81
-1.91
-10.52
-19.28
-27.56
-35.04
-41.87
-48.50
-55.59
-63.79
-73.45
-84.27
-95.04
-103.63
-107.34
-103.76
-91.76
-72.01
-46.95
-20.04
5.43
27.15
44.17
56.61
65.07
70.15
72.27
71.81
69.33
65.68
61.79
58.49
56.11
54.49
53.00
50.87
47.58
43.10
37.89
32.71
28.20
24.50
21.14
17.27
12.00
4.92
-3.76
-13.31
-22.81
-31.50
-39.04
-45.62
-51.82
-58.41
-66.09
-75.26
-85.70
-96.43
-105.62
-110.90
-109.93
-101.22
-84.67
-61.80
-35.34
-8.41
16.26
36.90
52.77
63.91
70.73
73.84
73.89
71.68
68.14
64.17
60.43
57.23
54.46
51.72
48.61
44.95
40.88
36.77
32.97
29.57
26.18
22.12
16.66
9.46
0.69
-8.97
-18.62
-27.53
-35.41
-42.40
-49.00
-55.90
-63.81
-73.22
-84.01
-95.18
-104.73
-109.94
-108.22
-98.06
-79.71
-55.30
-28.21
-2.01
20.55
38.12
50.57
58.59
63.07
64.77
64.26
62.03
58.62
54.63
50.57
46.80
43.39
40.28
37.37
34.60
31.95
29.35
26.59
23.27
18.95
13.34
6.44
-1.43
-9.74
-17.96
-25.73
-33.00
-40.00
-47.22
-55.27
-64.57
-75.05
-85.75
-94.73
-99.43
-97.45
-87.48
-69.98
-47.16
-22.31
1.25
21.11
36.21
46.64
53.13
56.42
57.03
55.28
51.59
46.63
41.30
36.48
32.73
30.22
28.62
27.33
25.75
23.39
20.03
15.62
10.29
4.25
-2.29
-9.14
-16.20
-23.49
-31.17
-39.44
-48.53
-58.62
-69.65
-81.04
-91.52
-99.06
-101.32
-96.31
-83.20
-62.84
-37.62
-10.76
14.55
36.02
52.51
63.93
70.79
73.86
73.95
71.93
68.63
64.80
60.96
57.29
53.71
50.03
46.14
42.15
38.32
34.87
31.76
28.63
24.81
19.62
12.66
3.94
-6.00
-16.38
-26.41
-35.63
-44.04
-52.11
-60.67
-70.60
-82.35
-95.39
-108.02
-117.41
-120.36
-114.32
-98.52
-74.32
-44.95
-14.49
13.39
36.39
53.84
66.25
74.62
79.84
82.41
82.69
81.13
78.52
75.74
73.55
72.21
71.33
70.15
67.89
64.15
59.17
53.58
48.19
43.45
39.30
35.08
29.93
23.09
14.27
3.79
-7.60
-18.92
-29.36
-38.52
-46.49
-53.85
-61.49
-70.37
-81.12
-93.66
-106.80
-118.21
-124.83
-123.75
-113.22
-93.40
-66.48
-36.01
-5.82
21.03
42.87
59.34
70.92
78.29
82.06
82.70
80.90
77.64
74.14
71.48
70.15
69.87
69.73
68.60
65.75
61.16
55.51
49.85
44.98
41.08
37.60
33.51
27.79
19.88
9.91
-1.35
-12.78
-23.34
-32.39
-39.87
-46.26
-52.44
-59.42
-68.06
-78.70
-90.81
-102.82
-112.23
-116.13
-112.08
-98.94
-77.45
-50.14
-20.60
7.55
31.60
50.19
63.22
71.40
75.69
77.01
76.14
73.86
70.93
68.01
65.49
63.32
61.08
58.26
54.60
50.20
45.51
41.05
37.07
33.38
29.38
24.32
17.67
9.36
-0.15
-10.10
-19.62
-28.12
-35.46
-42.01
-48.58
-56.13
-65.38
-76.42
-88.29
-98.95
-105.66
-105.72
-97.40
-80.68
-57.44
-30.91
-4.71
18.17
36.03
48.56
56.42
60.63
62.04
61.23
58.54
54.36
49.22
43.89
39.07
35.19
32.24
29.79
27.25
24.02
19.83
14.64
8.61
1.95
-5.20
-12.78
-20.70
-28.87
-37.17
-45.50
-53.95
-62.72
-72.14
-82.38
-93.11
-103.15
-110.48
-112.63
-107.41
-93.80
-72.48
-45.84
-17.28
9.76
32.77
50.56
63.18
71.42
76.24
78.41
78.50
76.94
74.18
70.70
66.93
63.14
59.42
55.71
51.92
47.99
43.86
39.43
34.49
28.75
22.00
14.11
5.21
-4.42
-14.38
-24.32
-34.00
-43.43
-52.92
-63.03
-74.23
-86.53
-98.92
-109.27
-114.73
-112.57
-101.25
-81.17
-54.69
-25.51
2.54
26.46
44.77
57.40
65.25
69.55
71.37
71.50
70.40
68.42
65.76
62.64
59.19
55.51
51.71
47.89
44.16
40.54
36.89
32.94
28.31
22.69
15.95
8.18
-0.30
-9.07
-17.78
-26.22
-34.43
-42.67
-51.42
-61.15
-71.98
-83.26
-93.41
-100.03
-100.56
-93.21
-77.66
-55.42
-29.43
-3.23
20.07
38.52
51.48
59.39
63.24
64.10
62.90
60.30
56.78
52.72
48.34
43.76
39.03
34.16
29.21
24.34
19.77
15.65
12.04
8.77
5.43
1.59
-3.14
-8.87
-15.37
-22.14
-28.60
-34.37
-39.40
-44.13
-49.34
-55.90
-64.40
-74.57
-85.04
-93.37
-96.67
-92.50
-79.91
-59.93
-35.34
-9.79
13.39
32.09
45.70
54.81
60.47
63.62
64.73
64.01
61.62
57.92
53.49
49.00
44.93
41.49
38.54
35.80
32.97
29.88
26.50
22.79
18.65
13.82
8.02
1.13
-6.67
-14.94
-23.13
-30.79
-37.79
-44.39
-51.17
-58.73
-67.35
-76.53
-84.82
-90.07
-90.01
-83.05
-69.00
-49.29
-26.58
-3.95
16.04
31.91
43.34
50.76
54.86
56.26
55.35
52.51
48.24
43.28
38.39
34.25
31.20
29.20
27.87
26.64
24.96
22.40
18.76
14.15
8.83
3.15
-2.60
-8.32
-14.17
-20.43
-27.43
-35.41
-44.42
-54.27
-64.36
-73.64
-80.55
-83.29
-80.15
-70.18
-53.60
-31.99
-7.90
15.72
36.39
52.60
63.94
70.96
74.61
75.82
75.27
73.39
70.44
66.71
62.57
58.45
54.68
51.34
48.27
45.14
41.55
37.21
32.03
26.03
19.29
11.92
4.02
-4.23
-12.58
-20.79
-28.73
-36.57
-44.75
-53.89
-64.30
-75.62
-86.43
-94.42
-96.99
-92.09
-79.05
-58.94
-34.33
-8.50
15.49
35.47
50.49
60.60
66.45
68.95
69.02
67.50
65.13
62.51
59.99
57.66
55.34
52.74
49.60
45.82
41.55
37.12
32.86
28.88
24.98
20.63
15.29
8.56
0.49
-8.44
-17.55
-26.19
-34.04
-41.23
-48.30
-55.97
-64.85
-75.09
-85.99
-95.94
-102.53
-103.25
-96.27
-81.24
-59.57
-34.08
-8.14
15.26
34.23
48.13
57.25
62.40
64.47
64.33
62.77
60.49
58.02
55.64
53.30
50.79
47.91
44.62
41.12
37.72
34.61
31.74
28.79
25.30
20.87
15.32
8.74
1.40
-6.32
-14.05
-21.53
-28.64
-35.53
-42.62
-50.52
-59.73
-70.15
-80.66
-89.15
-92.92
-89.64
-78.26
-59.60
-36.16
-11.36
11.57
30.39
44.28
53.55
59.12
61.95
62.71
61.80
59.48
56.06
52.02
47.85
44.04
40.85
38.32
36.27
34.43
32.47
30.11
27.13
23.32
18.55
12.75
6.06
-1.25
-8.75
-16.04
-22.93
-29.55
-36.37
-43.90
-52.26
-60.72
-67.55
-70.42
-67.17
-56.78
-39.98
-19.16
2.33
21.30
35.61
44.67
49.18
50.72
51.13
52.10
54.73
59.24
64.81
69.72
71.93
69.83
62.90
51.80
38.10
23.52
9.35
-3.72
-15.42
-25.56
-33.93
-40.39
-45.17
-49.02
-53.06
-58.43
-65.82
-75.36
-86.41
-97.64
-107.17
-112.88
-112.77
-105.58
-91.17
-70.67
-46.18
-20.11
5.47
29.28
50.82
70.01
86.77
100.80
111.68
119.06
122.98
123.98
122.97
121.13
119.60
119.35
121.00
124.75
130.48
137.74
145.79
153.47
159.06
160.29
154.69
140.23
115.88
82.15
40.95
-5.01
-52.90
-100.34
-145.28
-185.68
-219.14
-243.20
-256.04
-257.52
-249.72
-236.58
-222.70
-211.77
-205.30
-202.35
-200.17
-195.59
-186.20
-171.15
-151.00
-127.18
-101.31
-74.82
-48.83
-24.21
-1.57
18.62
36.29
51.69
64.78
74.80
80.38
80.14
73.62
61.67
46.12
29.12
12.38
-3.38
-18.30
-32.65
-45.92
-56.54
-62.09
-60.57
-50.57
-31.83
-5.56
25.48
57.59
87.07
111.16
128.49
137.82
139.33
134.66
126.32
116.80
108.53
104.04
105.86
115.63
130.89
147.91
162.86
171.93
171.16
157.53
130.64
93.42
51.23
6.66
-36.77
-74.41
-102.49
-120.86
-133.02
-144.19
-159.24
-181.92
-218.66
-271.05
-333.63
-396.11
-448.22
-482.41
-494.78
-485.15
-427.97
-321.60
-191.83
-74.28
10.96
63.97
94.79
112.84
126.07
137.17
141.62
136.94
125.82
114.29
106.06
102.15
101.56
102.77
104.24
101.65
93.42
81.88
71.16
63.61
58.81
54.52
48.51
39.28
24.79
5.86
-13.41
-27.44
-32.11
-26.15
-10.96
10.39
34.00
55.34
71.61
82.45
89.16
93.24
95.57
96.24
95.05
91.76
86.18
78.75
70.52
62.69
55.93
50.27
45.30
40.53
35.65
30.59
25.47
20.35
15.19
9.79
3.95
-2.43
-9.34
-16.62
-24.12
-31.86
-40.06
-49.14
-59.41
-70.66
-81.78
-90.83
-95.38
-93.38
-83.93
-67.70
-46.80
-24.09
-2.27
16.72
31.98
43.40
51.34
56.27
58.61
58.82
57.40
54.93
51.98
49.03
46.35
44.08
42.16
40.45
38.72
36.67
33.95
30.27
25.52
19.76
13.22
6.24
-0.82
-7.67
-14.17
-20.36
-26.55
-33.25
-41.00
-50.01
-59.70
-68.53
-74.20
-74.36
-67.50
-53.59
-34.26
-12.25
9.47
28.60
43.90
55.21
62.94
67.67
69.85
69.82
68.00
64.94
61.29
57.57
54.03
50.60
47.05
43.19
39.07
34.90
30.91
27.12
23.29
18.93
13.57
6.97
-0.78
-9.31
-18.11
-26.74
-34.93
-42.77
-50.57
-58.87
-68.08
-78.16
-88.28
-96.68
-101.08
-99.31
-90.13
-73.84
-52.24
-28.08
-4.23
17.11
34.76
48.44
58.37
64.96
68.60
69.73
68.95
67.05
64.85
62.95
61.57
60.46
59.09
56.93
53.70
49.54
44.96
40.52
36.58
32.98
29.18
24.37
17.99
9.99
0.92
-8.29
-16.73
-23.94
-30.01
-35.57
-41.37
-48.11
-56.20
-65.66
-75.94
-85.86
-93.58
-96.87
-93.74
-83.23
-65.87
-43.71
-19.68
3.32
23.25
39.23
51.29
59.89
65.52
68.51
69.25
68.25
66.26
63.99
61.94
60.21
58.50
56.40
53.59
50.02
45.92
41.67
37.51
33.45
29.18
24.20
18.06
10.59
1.95
-7.34
-16.63
-25.33
-33.14
-40.15
-46.78
-53.73
-61.63
-70.78
-80.76
-90.28
-97.34
-99.68
-95.50
-84.17
-66.52
-44.65
-21.32
0.84
19.98
35.20
46.45
54.17
58.90
61.16
61.43
60.17
57.87
55.03
52.07
49.22
46.51
43.75
40.75
37.40
33.76
30.04
26.44
22.95
19.30
14.99
9.56
2.84
-4.92
-13.16
-21.21
-28.59
-35.17
-41.15
-47.00
-53.34
-60.67
-69.16
-78.25
-86.53
-91.85
-91.97
-85.34
-71.76
-52.54
-30.17
-7.45
13.23
30.39
43.43
52.42
57.80
60.12
60.01
58.14
55.16
51.60
47.83
44.05
40.33
36.69
33.14
29.71
26.39
23.10
19.67
15.86
11.42
6.21
0.27
-6.21
-12.94
-19.64
-26.16
-32.58
-39.12
-46.13
-53.97
-62.75
-72.14
-81.14
-88.02
-90.68
