1552402053.00
64.000000
-0.00
-0.00
-0.00
-0.00
-0.00
-0.00
-0.00
-0.00
-0.00
-0.01
-0.00
0.00
0.01
0.01
-0.00
-0.03
-0.05
-0.05
-0.00
0.13
0.36
0.66
1.01
1.37
1.72
2.06
2.40
2.77
3.24
3.80
4.42
5.06
5.66
6.20
6.68
7.15
7.64
8.31
9.14
10.09
11.04
11.88
12.56
13.14
13.76
14.58
15.96
17.91
20.32
22.90
25.38
27.58
29.57
31.68
34.20
37.81
42.54
48.15
54.11
59.83
64.97
69.58
74.14
79.19
85.71
93.77
103.01
112.63
121.74
129.76
136.69
144.14
150.30
157.37
166.12
177.34
191.15
206.34
219.94
227.57
224.58
207.42
175.74
131.53
78.83
22.00
-35.81
-93.14
-149.90
-206.27
-262.06
-315.92
-366.54
-412.69
-453.60
-488.81
-517.71
-539.22
-551.77
-553.64
-543.22
-520.09
-485.03
-440.05
-388.04
-332.18
-275.29
-219.46
-165.85
-114.78
-66.33
-20.70
21.46
58.95
90.37
114.57
131.26
141.30
146.67
149.80
152.70
156.19
159.55
160.86
157.91
149.48
136.20
120.45
105.67
95.04
90.65
92.94
100.95
112.53
124.76
134.58
139.66
139.40
135.17
130.15
127.59
129.13
133.40
136.16
131.73
115.28
85.70
46.66
6.92
-22.19
-30.94
-15.92
17.35
55.82
84.00
90.71
73.74
40.14
2.08
-29.24
-48.68
-57.42
-59.69
-58.42
-53.03
-40.90
-21.03
2.96
23.41
32.70
28.06
14.24
1.32
-0.97
10.59
30.70
48.22
53.07
41.95
19.94
-3.04
-18.68
-24.74
-25.27
-26.45
-31.84
-39.87
-44.93
-41.53
-28.30
-9.45
7.71
16.68
15.98
10.09
6.98
13.28
29.87
50.87
66.68
69.28
56.94
35.12
13.00
-1.85
-7.57
-8.52
-11.83
-22.40
-39.09
-55.43
-63.47
-58.43
-41.77
-20.25
-2.37
6.26
5.91
2.55
4.57
17.91
42.24
70.38
91.66
97.35
85.24
60.91
34.36
14.59
5.11
2.75
0.43
-8.20
-24.45
-43.45
-56.58
-56.14
-39.72
-11.47
19.08
41.25
47.81
37.77
16.14
-8.74
-29.44
-42.48
-48.88
-52.62
-57.58
-65.16
-74.08
-81.73
-86.15
-87.32
-86.67
-86.23
-87.37
-90.12
-93.21
-95.02
-94.60
-92.45
-90.45
-90.40
-92.51
-94.35
-91.09
-77.42
-50.48
-11.81
32.60
73.44
103.47
119.66
123.62
119.90
113.39
107.27
102.56
98.87
95.42
92.16
89.22
86.57
83.84
80.61
76.67
72.08
68.09
64.66
62.26
60.92
60.01
58.37
54.54
47.16
35.45
19.74
1.48
-16.71
-32.13
-43.09
-49.32
-51.97
-52.88
-53.41
-53.28
-50.61
-42.64
-27.98
-8.50
10.75
23.74
26.24
18.29
4.39
-9.39
-18.89
-24.46
-30.35
-40.98
-56.73
-72.61
-80.78
-74.86
-53.96
-23.11
9.64
37.41
56.70
67.88
73.26
73.62
67.59
54.11
35.42
17.75
8.45
12.46
30.07
57.26
87.43
114.08
132.64
140.64
136.85
120.30
91.51
53.43
11.36
-28.67
-62.04
-87.12
-105.40
-116.89
-123.09
-125.05
-122.88
-116.40
-106.46
-95.38
-86.64
-83.41
-86.69
-94.67
-102.56
-104.56
-96.70
-78.56
-52.80
-23.25
7.02
36.37
63.35
86.02
101.77
108.57
106.72
99.53
91.89
87.39
86.15
84.85
79.51
68.21
52.12
34.05
15.97
-2.48
-23.31
-47.90
-75.16
-101.13
-121.13
-132.51
-136.19
-136.01
-136.27
-138.84
-141.80
-140.57
-130.91
-111.99
-87.67
-64.68
-49.00
-42.73
-43.15
-44.54
-41.05
-29.05
-7.99
20.20
52.26
84.42
113.13
135.58
150.53
158.86
163.41
167.64
173.61
180.94
187.10
188.83
183.64
170.28
148.96
121.28
90.30
59.69
33.43
14.57
3.77
-1.24
-5.43
-13.84
-29.21
-50.81
-75.74
-99.21
-115.93
-121.97
-115.74
-99.96
-79.41
-58.33
-38.26
-19.35
0.35
22.90
47.88
71.74
86.44
84.25
61.95
22.09
-30.69
-90.07
-149.85
-205.08
-251.25
-287.25
-312.56
-325.76
-311.76
-264.00
-188.08
-98.92
-18.78
49.00
103.52
143.11
165.27
167.45
147.35
106.41
50.34
-12.68
-69.53
-111.17
-135.87
-146.79
-148.38
-145.41
-140.92
-137.04
-136.05
-142.05
-157.62
-183.50
-215.61
-245.41
-263.75
-263.77
-243.39
-206.01
-158.24
-107.44
-62.12
-26.40
0.80
23.09
44.08
65.26
85.77
103.89
118.76
130.43
141.01
153.42
170.14
192.74
221.44
254.77
289.53
322.79
349.94
366.12
367.63
353.64
326.86
292.81
257.93
227.56
207.04
196.67
191.74
184.87
170.52
148.72
125.50
109.72
108.95
129.64
171.01
225.48
282.22
331.95
369.34
391.87
397.55
361.20
272.18
140.85
-4.24
-133.30
-229.20
-289.07
-319.38
-330.79
-333.29
-330.02
-322.24
-311.87
-302.19
-295.86
-293.79
-291.52
-283.25
-264.47
-231.99
-188.46
-141.82
-101.30
-72.88
-56.82
-49.02
-44.97
-42.22
-38.91
-34.53
-30.86
-27.82
-23.96
-17.65
-8.67
0.71
7.02
8.40
4.96
-1.45
-8.08
-12.69
-14.34
-13.74
-12.90
-13.98
-17.75
-23.54
-29.56
-33.39
-33.11
-28.02
-18.87
-7.73
2.72
10.10
13.19
12.18
8.63
4.54
1.59
0.55
1.40
3.58
6.63
10.48
15.70
23.40
34.80
50.62
70.62
93.36
116.46
137.41
154.32
166.49
174.27
178.06
177.57
171.80
160.04
142.86
122.35
101.36
82.45
67.03
55.04
45.24
36.03
26.16
14.91
1.93
-12.69
-28.02
-41.93
-51.74
-55.42
-52.74
-45.55
-37.50
-33.07
-36.17
-49.14
-70.54
-94.55
-113.91
-124.21
-125.33
-119.98
-111.47
-102.08
-92.56
-82.53
-71.60
-60.32
-50.21
-42.63
-38.05
-35.83
-34.63
-32.87
-29.45
-24.18
-17.97
-12.28
-8.26
-6.24
-5.72
-5.72
-5.25
-3.63
-0.78
2.71
5.90
8.11
9.16
9.39
9.38
9.70
10.67
12.28
14.18
15.86
16.99
17.59
17.94
18.41
19.31
20.60
22.13
23.47
24.23
24.22
23.55
22.55
21.51
20.51
18.97
16.49
12.48
6.59
-1.02
-9.60
-18.11
-25.55
-30.89
-34.70
-37.73
-40.94
-45.00
-49.91
-54.93
-58.95
-61.19
-61.31
-59.98
-58.21
-57.12
-57.57
-60.12
-65.15
-72.45
-80.94
-87.51
-88.18
-79.21
-59.17
-30.27
1.99
30.84
50.99
60.66
61.77
58.21
53.74
50.26
47.73
45.21
42.04
38.46
35.34
33.41
32.67
32.58
32.43
31.59
30.01
27.93
25.70
23.61
21.79
20.30
19.25
18.77
18.96
19.78
20.79
21.39
21.26
20.38
19.29
18.90
20.05
23.40
29.59
38.83
51.00
64.93
77.81
85.47
83.77
70.58
46.89
18.19
-8.79
-28.60
-39.07
-41.55
-39.24
-35.18
-30.94
-26.52
-21.75
-17.42
-15.14
-16.36
-21.35
-28.72
-36.40
-42.44
-46.06
-48.12
-50.60
-55.62
-64.74
-78.48
-95.95
-113.98
-128.56
-134.67
-128.35
-108.75
-79.09
-45.92
-16.65
3.37
12.84
14.25
11.98
9.73
9.03
9.32
9.40
8.84
8.44
9.73
13.73
20.30
28.06
35.19
40.12
42.44
42.81
42.56
42.91
44.42
46.79
49.03
49.98
48.83
45.55
40.82
35.71
31.26
28.01
25.90
24.37
22.67
20.21
16.88
13.05
9.43
6.72
5.35
5.27
5.98
6.77
6.96
6.29
4.96
3.54
2.81
3.35
5.30
8.28
11.56
14.31
15.96
16.38
15.86
15.06
14.87
16.16
19.60
25.16
31.79
37.29
38.75
33.51
20.58
1.36
-20.45
-40.03
-53.06
-57.16
-52.37
-40.51
-24.96
-9.02
4.59
14.10
18.78
18.73
14.83
8.55
1.64
-4.30
-8.13
-9.46
-8.64
-6.43
-3.63
-0.73
2.16
5.18
8.50
12.21
16.17
20.01
23.18
25.10
25.38
23.97
21.25
17.86
14.55
11.90
10.13
9.08
8.35
7.53
6.32
4.71
2.86
1.04
-0.59
-2.01
-3.40
-5.05
-7.19
-9.82
-12.65
-15.24
-17.19
-18.35
-18.87
-19.04
-19.11
-19.09
-18.76
-17.86
-16.25
-14.07
-11.72
-9.64
-8.13
-7.27
-6.89
-6.81
-6.92
-7.22
-7.83
-8.80
-10.04
-11.33
-12.36
-12.80
-12.44
-11.19
-9.14
-6.52
-3.67
-0.93
1.44
3.36
4.86
6.07
6.99
7.55
7.61
7.11
6.19
5.14
4.28
3.78
3.57
3.44
3.20
2.83
2.46
2.28
2.35
2.56
2.68
2.45
1.75
0.60
-0.91
-2.67
-4.57
-6.44
-8.02
-8.98
-9.04
-8.12
-6.35
-4.12
-1.86
0.09
1.59
2.75
3.75
4.78
5.83
6.79
7.42
7.58
7.23
6.52
5.70
4.99
4.53
4.31
4.23
4.16
4.01
3.75
3.40
3.02
2.65
2.25
1.70
0.83
-0.54
-2.48
-4.95
-7.76
-10.55
-12.85
-14.22
-14.44
-13.57
-11.89
-9.78
-7.59
-5.51
-3.35
-0.90
1.97
5.06
7.74
9.35
9.46
8.10
5.69
3.26
1.64
1.33
2.19
3.49
4.30
3.88
1.75
-2.29
-7.30
-12.06
-14.85
-14.14
-9.30
-0.97
8.69
16.03
16.83
8.26
-10.52
-36.24
-62.83
-85.15
-100.77
-109.49
-111.83
-111.25
-106.48
-96.12
-79.89
-58.98
-35.48
-10.64
15.57
43.65
71.23
95.02
111.46
118.91
118.22
111.86
103.40
95.84
90.53
86.84
83.34
77.66
67.65
53.63
34.68
11.67
-13.18
-37.16
-57.84
-73.20
-82.31
-85.18
-82.83
-77.53
-71.84
-68.30
-68.79
-73.31
-80.15
-86.17
-88.04
-83.69
-73.09
-57.41
-38.32
-17.13
5.36
28.30
50.14
68.51
80.90
85.93
84.46
79.31
73.88
70.39
68.56
65.82
58.62
44.33
22.89
-2.95
-28.59
-49.28
-61.94
-65.98
-62.87
-54.98
-44.56
-33.31
-22.57
-13.31
-6.05
-0.32
5.53
13.74
25.89
41.53
57.88
71.01
77.83
77.89
73.70
69.22
67.28
67.57
66.68
60.14
45.53
24.38
1.78
-15.90
-23.99
-21.90
-12.94
-2.16
6.01
9.26
7.55
2.20
-5.02
-12.21
-17.47
-19.09
-16.22
-9.50
-1.05
6.48
11.48
14.16
16.31
19.88
25.27
30.68
32.81
28.39
15.93
-3.43
-26.61
-49.49
-68.13
-79.76
-83.55
-80.35
-72.15
-61.35
-50.10
-39.94
-31.54
-24.93
-19.67
-15.18
-10.99
-6.73
-2.02
3.76
11.41
21.59
34.07
47.26
58.19
63.35
60.26
48.79
31.62
13.39
-1.05
-8.78
-9.84
-7.00
-4.80
-7.97
-19.72
-40.57
-67.92
-96.36
-119.07
-129.63
-124.00
-101.87
-66.84
-25.38
15.09
48.27
70.54
81.53
83.59
80.50
75.89
72.17
70.12
69.34
69.01
68.61
68.11
67.60
66.88
65.05
60.89
53.13
40.75
23.29
1.08
-24.45
-50.67
-74.12
-91.33
-99.71
-98.26
-87.58
-69.47
-46.47
-21.54
2.15
21.36
33.74
38.55
37.25
33.16
30.22
31.09
35.96
42.67
48.19
50.54
49.98
48.62
48.77
51.39
55.10
56.63
52.68
41.36
23.28
1.45
-19.81
-36.19
-44.79
-45.20
-39.81
-33.02
-29.53
-32.05
-39.82
-48.77
-53.54
-50.58
-40.04
-25.58
-11.92
-1.96
4.56
10.25
17.51
26.12
32.79
32.93
23.66
6.08
-14.62
-31.19
-37.38
-30.70
-13.27
9.14
29.57
42.47
45.60
40.40
30.97
21.99
16.78
16.33
19.60
24.78
30.54
36.35
41.89
46.01
46.42
40.10
24.89
1.04
-28.35
-58.30
-84.00
-102.74
-114.72
-122.04
-126.88
-129.77
-129.15
-122.50
-108.12
-86.70
-61.65
-37.95
-20.16
-10.71
-9.20
-13.27
-20.08
-27.64
-35.10
-42.06
-47.63
-50.06
-47.23
-37.81
-22.29
-3.29
15.31
29.78
37.87
39.59
36.80
32.36
28.84
27.73
29.04
31.66
34.12
35.27
34.84
33.32
31.60
30.29
29.44
28.64
27.39
25.55
23.51
21.95
21.35
21.63
22.11
21.83
20.11
16.96
13.12
9.74
7.81
7.78
9.42
12.04
14.87
17.39
19.48
21.32
23.19
25.26
27.39
29.22
30.35
30.44
29.49
27.75
25.71
23.88
22.65
22.17
22.30
22.70
22.86
22.27
20.48
17.22
12.55
6.93
1.09
-4.16
-8.22
-10.96
-12.70
-14.05
-15.57
-17.53
-19.84
-22.22
-24.41
-26.28
-27.84
-29.06
-29.75
-29.61
-28.36
-25.94
-22.66
-19.09
-15.83
-13.29
-11.56
-10.44
-9.60
-8.76
-7.88
-7.12
-6.71
-6.80
-7.35
-8.13
-8.81
-9.18
-9.18
-9.04
-9.14
-9.82
-11.24
-13.18
-15.09
-16.31
-16.27
-14.77
-12.01
-8.53
-4.92
-1.62
1.11
3.15
4.34
4.46
3.33
1.02
-2.01
-5.00
-7.14
-7.95
-7.47
-6.18
-4.73
-3.61
-2.94
-2.50
-1.94
-1.00
0.38
2.02
3.70
5.19
6.34
7.09
7.39
7.20
6.56
5.61
4.57
3.75
3.35
3.44
3.86
4.33
4.50
4.10
3.05
1.46
-0.38
-2.15
-3.56
-4.51
-5.05
-5.34
-5.60
-5.99
-6.60
-7.43
-8.40
-9.38
-10.14
-10.42
-9.96
-8.60
-6.32
-3.30
0.10
3.51
6.59
9.15
11.15
12.62
13.62
14.19
14.34
14.09
13.54
12.80
12.02
11.29
10.68
10.19
9.82
9.58
9.46
9.41
9.35
9.16
8.73
8.01
7.02
5.84
4.59
3.38
2.35
1.58
1.06
0.69
0.21
-0.63
-2.00
-3.89
-6.04
-8.06
-9.56
-10.27
-10.10
-9.17
-7.66
-5.76
-3.65
-1.47
0.62
2.45
3.86
4.78
5.31
5.61
5.88
6.25
6.70
7.12
7.39
7.46
7.42
7.37
7.40
7.56
7.81
8.11
8.42
8.67
8.75
8.50
7.77
6.55
4.97
3.31
1.86
0.84
0.28
0.07
0.01
-0.17
-0.66
-1.57
-2.91
-4.56
-6.31
-7.86
-8.94
-9.30
-8.79
-7.40
-5.28
-2.73
-0.10
2.26
4.16
5.50
6.39
6.97
7.39
7.74
8.03
8.24
8.33
8.28
8.08
7.76
7.34
6.83
6.27
5.62
4.89
4.05
3.10
2.07
0.99
-0.14
-1.33
-2.58
-3.89
-5.23
-6.55
-7.80
-9.00
-10.18
-11.40
-12.62
-13.77
-14.75
-15.44
-15.79
-15.78
-15.35
-14.44
-13.05
-11.23
-9.14
-7.04
-5.12
-3.48
-2.07
-0.73
0.66
2.11
3.55
4.79
5.67
6.14
6.20
5.99
5.64
5.26
4.91
4.55
4.12
3.54
2.78
1.86
0.85
-0.18
-1.21
-2.25
-3.33
-4.43
-5.50
-6.42
-7.09
-7.50
-7.81
-8.27
-9.14
-10.58
-12.52
-14.64
-16.53
-17.78
-18.12
-17.50
-16.03
-13.94
-11.45
-8.78
-6.12
-3.60
-1.34
0.64
2.34
3.80
5.07
6.18
7.13
7.90
8.51
8.97
9.32
9.58
9.77
9.90
9.97
10.04
10.18
10.47
10.91
11.41
11.81
11.97
11.81
11.38
10.82
10.31
9.95
9.76
9.64
9.39
8.84
7.81
6.25
4.25
2.04
-0.00
-1.50
-2.14
-1.78
-0.47
1.59
4.17
7.03
10.02
12.97
15.73
18.12
19.98
21.27
22.11
22.69
23.23
23.84
24.45
24.87
24.90
24.45
23.58
22.42
21.09
19.61
17.91
15.91
13.58
10.99
8.18
5.23
2.13
-1.11
-4.46
-7.77
-10.88
-13.61
-15.86
-17.70
-19.26
-20.77
-22.49
-24.71
-27.80
-32.06
-37.65
-44.38
-51.64
-58.41
-63.50
-66.03
-65.64
-62.65
-57.86
-52.13
-46.10
-40.00
-33.81
-27.41
-20.75
-13.81
-6.47
1.48
10.23
19.67
29.20
37.81
44.39
48.16
48.99
47.42
44.42
41.04
38.07
35.89
34.46
33.35
31.88
29.26
24.77
18.10
9.50
-0.10
-9.40
-17.11
-22.49
-25.57
-27.03
-27.87
-28.77
-29.90
-30.91
-31.18
-30.20
-27.72
-23.68
-18.04
-10.80
-2.15
7.32
16.54
24.20
29.24
31.26
30.65
28.34
25.35
22.34
19.51
16.69
13.66
10.31
6.68
2.89
-0.90
-4.58
-8.04
-11.13
-13.65
-15.35
-15.98
-15.35
-13.54
-10.96
-8.22
-5.89
-4.15
-2.70
-0.82
2.18
6.45
11.32
15.51
17.65
17.00
13.90
9.69
6.20
4.85
6.01
8.78
11.34
11.83
9.17
3.54
-3.63
-10.36
-14.87
-16.27
-14.83
-11.76
-8.70
-7.09
-7.60
-10.02
-13.30
-16.04
-16.92
-15.15
-10.69
-4.16
3.44
10.99
17.44
21.92
23.89
23.39
21.17
18.65
17.35
18.16
20.70
23.22
23.29
18.90
9.57
-3.25
-16.80
-28.21
-35.78
-39.49
-40.68
-41.01
-41.58
-42.44
-42.91
-42.18
-39.76
-35.58
-29.71
-22.15
-12.88
-2.27
8.65
18.33
25.23
28.56
28.73
27.16
25.62
25.46
27.06
29.83
32.59
34.11
33.51
30.41
24.83
17.13
7.95
-1.83
-11.12
-18.83
-24.08
-26.56
-26.64
-25.17
-23.14
-21.18
-19.30
-16.96
-13.56
-8.91
-3.56
1.40
4.79
5.99
5.27
3.80
3.22
4.95
9.55
16.49
24.13
30.33
33.11
31.43
25.52
16.79
7.34
-0.88
-6.75
-10.27
-12.35
-14.16
-16.44
-18.99
-20.82
-20.59
-17.42
-11.40
-3.58
4.43
11.13
15.62
17.68
17.61
16.03
13.79
12.02
12.01
14.84
20.63
28.16
34.88
37.82
34.78
25.36
11.19
-4.71
-19.13
-29.75
-35.69
-37.41
-36.22
-33.63
-30.94
-28.93
-27.75
-26.98
-25.81
-23.41
-19.33
-13.73
-7.27
-0.81
4.92
9.51
12.84
14.90
15.79
15.68
14.99
14.37
14.52
15.93
18.64
22.17
25.72
28.44
29.70
29.18
26.74
22.30
15.78
7.30
-2.58
-12.80
-21.95
-28.74
-32.53
-33.57
-32.97
-32.10
-32.03
-33.02
-34.49
-35.33
-34.45
-31.19
-25.59
-18.26
-10.19
-2.43
4.20
9.13
12.11
13.19
12.72
11.29
9.68
8.75
9.16
11.15
14.34
17.84
20.52
21.52
20.68
18.67
16.75
16.18
17.62
20.70
24.20
26.52
26.43
23.54
18.49
12.53
6.96
2.63
-0.20
-1.76
-2.47
-2.73
-2.91
-3.30
-4.19
-5.76
-7.95
-10.42
-12.61
-13.88
-13.78
-12.17
-9.35
-5.91
-2.57
0.08
1.75
2.45
2.49
2.22
1.96
1.84
1.87
1.98
2.07
2.07
1.93
1.64
1.22
0.71
0.23
-0.13
-0.29
-0.26
-0.12
0.01
0.01
-0.23
-0.74
-1.49
-2.37
-3.27
-4.09
-4.83
-5.52
-6.28
-7.22
-8.41
-9.85
-11.49
-13.17
-14.66
-15.66
-15.89
-15.14
-13.36
-10.66
-7.33
-3.73
-0.22
2.84
5.20
6.68
7.26
7.08
6.42
5.59
4.86
4.33
3.96
3.67
3.34
2.96
2.56
2.18
1.79
1.32
0.72
0.03
-0.68
-1.28
-1.73
-2.11
-2.57
-3.26
-4.25
-5.47
-6.77
-8.00
-9.07
-10.03
-10.99
-12.08
-13.35
-14.73
-16.08
-17.17
-17.76
-17.61
-16.58
-14.62
-11.81
-8.35
-4.53
-0.69
2.87
5.94
8.40
10.28
11.65
12.65
13.36
13.85
14.14
14.21
14.07
13.78
13.48
13.27
13.23
13.34
13.47
13.44
13.14
12.55
11.81
11.09
10.55
10.18
9.85
9.34
8.49
7.22
5.61
3.82
1.96
0.08
-1.86
-3.96
-6.29
-8.82
-11.47
-14.10
-16.52
-18.56
-20.02
-20.74
-20.58
-19.47
-17.43
-14.60
-11.21
-7.60
-4.14
-1.15
1.17
2.77
3.78
4.40
4.84
5.22
5.57
5.89
6.13
6.28
6.33
6.29
6.15
5.92
5.63
5.34
5.13
5.02
5.00
4.97
4.84
4.52
3.98
3.19
2.19
1.01
-0.27
-1.56
-2.75
-3.80
-4.68
-5.47
-6.25
-7.13
-8.20
-9.50
-11.07
-12.80
-14.52
-15.89
-16.53
-16.09
-14.40
-11.54
-7.83
-3.71
0.37
4.06
7.16
9.56
11.22
12.20
12.57
12.51
12.20
11.80
11.39
11.00
10.60
10.19
9.80
9.46
9.23
9.10
9.00
8.88
8.67
8.34
7.93
7.46
6.92
6.29
5.47
4.40
3.09
1.62
0.14
-1.26
-2.52
-3.71
-4.96
-6.35
-7.94
-9.69
-11.54
-13.39
-15.13
-16.58
-17.52
-17.71
-16.96
-15.22
-12.66
-9.54
-6.20
-2.93
0.08
2.73
4.96
6.75
8.06
8.84
9.09
8.88
8.33
7.60
6.87
6.25
5.77
5.41
5.13
4.89
4.67
4.47
4.30
4.12
3.92
3.67
3.39
3.03
2.56
1.92
1.06
-0.00
-1.23
-2.55
-3.92
-5.33
-6.81
-8.37
-10.00
-11.64
-13.19
-14.47
-15.24
-15.29
-14.47
-12.76
-10.28
-7.28
-4.04
-0.80
2.25
4.99
7.28
9.04
10.18
10.73
10.76
10.44
9.95
9.41
8.89
8.38
7.89
7.42
6.99
6.62
6.31
6.04
5.79
5.56
5.37
5.21
5.00
4.60
3.86
2.67
1.06
-0.77
-2.51
-3.91
-4.88
-5.55
-6.18
-7.08
-8.45
-10.32
-12.56
-14.91
-17.01
-18.49
-19.01
-18.29
-16.29
-13.17
-9.32
-5.25
-1.39
1.96
4.71
6.91
8.65
9.97
10.84
11.26
11.24
10.90
10.38
9.85
9.41
9.08
8.81
8.54
8.22
7.86
7.48
7.09
6.72
6.32
5.85
5.31
4.69
3.99
3.17
2.19
1.00
-0.41
-1.99
-3.63
-5.21
-6.62
-7.85
-8.93
-9.96
-11.09
-12.41
-13.96
-15.65
-17.21
-18.26
-18.43
-17.45
-15.24
-11.98
-8.01
-3.76
0.39
4.13
7.24
9.59
11.16
11.97
12.17
11.95
11.52
11.04
10.60
10.21
9.88
9.57
9.29
9.06
8.88
8.71
8.44
8.00
7.35
6.57
5.79
5.13
4.63
4.19
3.63
2.78
1.56
0.03
-1.63
-3.22
-4.58
-5.69
-6.64
-7.56
-8.58
-9.79
-11.23
-12.85
-14.49
-15.89
-16.69
-16.54
-15.22
-12.76
-9.44
-5.69
-1.98
1.35
4.14
6.42
8.23
9.61
10.53
10.95
10.86
10.37
9.64
8.87
8.23
7.82
7.64
7.61
7.63
7.61
7.49
7.28
7.01
6.70
6.35
5.90
5.28
4.47
3.50
2.40
1.22
-0.03
-1.39
-2.83
-4.29
-5.66
-6.84
-7.86
-8.83
-9.94
-11.37
-13.14
-15.11
-16.99
-18.37
-18.87
-18.24
-16.40
-13.48
-9.81
-5.79
-1.85
1.70
4.64
6.90
8.48
9.45
9.89
9.90
9.61
9.13
8.58
8.08
7.66
7.33
7.02
6.69
6.32
5.96
5.66
5.47
5.36
5.22
4.95
4.44
3.67
2.64
1.40
0.02
-1.43
-2.84
-4.12
-5.20
-6.14
-7.08
-8.21
-9.72
-11.63
-13.77
-15.78
-17.22
-17.65
-16.79
-14.63
-11.38
-7.47
-3.39
0.41
3.62
6.10
7.84
8.90
9.41
9.51
9.37
9.16
8.93
8.71
8.42
8.00
7.44
6.86
6.38
6.12
6.10
6.22
6.30
6.23
5.96
5.52
4.98
4.32
3.48
2.39
1.01
-0.58
-2.22
-3.73
-5.01
-6.09
-7.10
-8.23
-9.60
-11.29
-13.26
-15.40
-17.45
-19.06
-19.80
-19.29
-17.38
-14.18
-10.13
-5.77
-1.64
1.93
4.79
6.93
8.43
9.35
9.81
9.93
9.88
9.80
9.76
9.77
9.76
9.67
9.42
8.97
8.30
7.47
6.59
5.83
5.33
5.17
5.24
5.32
5.12
4.42
3.16
1.46
-0.44
-2.31
-3.97
-5.39
-6.62
-7.71
-8.73
-9.71
-10.73
-11.92
-13.41
-15.17
-16.97
-18.33
-18.69
-17.64
-15.09
-11.34
-6.94
-2.53
1.44
4.72
7.27
9.15
10.43
11.12
11.24
10.84
10.02
8.97
7.89
7.01
6.44
6.22
6.25
6.38
6.44
6.31
5.97
5.47
4.88
4.27
3.67
3.09
2.53
2.03
1.61
1.22
0.76
0.03
-1.13
-2.76
-4.73
-6.80
-8.68
-10.18
-11.26
-12.07
-12.80
-13.58
-14.34
-14.87
-14.79
-13.79
-11.74
-8.68
-4.85
-0.59
3.79
7.99
11.76
14.89
17.21
18.70
19.44
19.64
19.54
19.32
19.08
18.79
18.42
17.99
17.54
17.15
16.81
16.40
15.71
14.57
12.88
10.70
8.20
5.58
2.96
0.40
-2.08
-4.40
-6.47
-8.12
-9.25
-9.86
-10.10
-10.21
-10.46
-11.03
-12.02
-13.41
-15.11
-16.97
-18.79
-20.31
-21.20
-21.20
-20.12
-17.96
-14.91
-11.27
-7.38
-3.55
-0.05
2.92
5.22
6.77
7.62
7.88
7.73
7.35
6.86
6.37
5.93
5.63
5.53
5.63
5.85
6.04
6.07
5.86
5.47
4.99
4.50
4.00
3.44
2.74
1.89
0.95
-0.00
-0.90
-1.78
-2.79
-4.06
-5.66
-7.54
-9.56
-11.55
-13.45
-15.23
-16.91
-18.38
-19.33
-19.40
-18.28
-15.90
-12.49
-8.58
-4.79
-1.65
0.55
1.85
2.41
2.49
2.25
1.87
1.51
1.33
1.46
1.89
2.48
2.95
3.04
2.71
2.25
2.13
2.65
3.72
4.98
6.00
6.60
6.94
7.41
8.72
11.34
15.17
19.43
23.06
25.17
25.27
23.37
19.90
16.02
12.88
11.05
10.16
9.37
7.97
5.70
2.97
0.74
0.83
5.08
14.39
28.00
43.82
58.99
70.42
75.26
68.85
49.05
18.61
-15.02
-43.66
-61.65
-67.01
-61.03
-47.34
-30.64
-14.71
-2.02
7.69
14.87
19.99
23.44
25.39
25.80
24.81
23.26
22.22
22.01
21.67
19.97
16.46
11.69
6.72
2.40
-0.99
-3.89
-7.46
-13.04
-20.95
-30.03
-38.06
-43.10
-43.78
-39.49
-30.06
-16.17
0.30
16.45
28.85
33.97
28.41
10.44
-19.63
-55.94
-88.82
-108.96
-112.71
-102.94
-85.64
-67.06
-51.01
-39.16
-31.13
-25.80
-22.12
-19.61
-17.87
-16.59
-17.83
-21.31
-27.13
-35.57
-47.47
-63.76
-84.39
-106.94
-122.03
-123.24
-106.53
-73.01
-28.94
16.04
52.71
75.67
85.00
84.92
80.19
74.67
69.75
65.25
60.67
56.25
52.78
50.98
50.85
51.09
50.63
48.66
45.36
41.56
38.44
36.82
36.90
38.24
39.74
40.68
40.75
40.86
41.65
44.27
49.59
57.37
65.76
71.45
70.96
62.08
45.08
22.86
0.03
-18.94
-31.47
-37.39
-38.52
-37.20
-35.16
-33.03
-30.71
-27.97
-24.93
-22.18
-20.29
-19.28
-18.50
-16.88
-13.35
-7.42
0.61
9.78
18.64
25.79
30.31
32.05
31.55
29.75
27.51
24.99
22.25
19.12
15.36
10.93
6.14
1.54
-2.35
-5.34
-7.69
-9.92
-12.60
-16.06
-20.13
-24.30
-27.98
-30.67
-32.18
-32.53
-31.90
-30.58
-28.91
-27.26
-25.95
-25.21
-25.12
-25.57
-26.31
-27.08
-27.72
-28.18
-28.47
-28.55
-28.24
-27.30
-25.51
-22.85
-19.48
-15.69
-11.81
-8.09
-4.66
-1.62
0.92
2.80
3.91
4.33
4.31
4.24
4.43
4.95
5.57
5.87
5.48
4.32
2.63
0.88
-0.46
-1.18
-1.34
-1.21
-1.08
-1.10
-1.24
-1.39
-1.45
-1.43
-1.41
-1.49
-1.70
-2.00
-2.29
-2.51
-2.71
-3.05
-3.73
-4.89
-6.55
-8.50
-10.36
-11.68
-12.07
-11.31
-9.44
-6.75
-3.70
-0.80
1.52
2.99
3.58
3.50
3.07
2.68
2.64
3.10
4.03
5.27
6.56
7.69
8.53
9.12
9.58
10.09
10.76
11.55
12.26
12.59
12.26
11.18
9.44
7.36
5.35
3.73
2.67
2.16
2.06
2.20
2.39
2.39
1.94
0.86
-0.89
-3.06
-5.15
-6.55
-6.79
-5.71
-3.54
-0.78
2.03
4.47
6.34
7.67
8.54
9.09
9.42
9.59
9.62
9.48
9.17
8.70
8.12
7.56
7.11
6.79
6.55
6.28
5.87
5.27
4.52
3.73
2.98
2.31
1.68
1.06
0.42
-0.21
-0.78
-1.29
-1.80
-2.42
-3.30
-4.51
-6.11
-8.02
-10.14
-12.26
-14.10
-15.31
-15.56
-14.63
-12.51
-9.42
-5.73
-1.88
1.73
4.85
7.37
9.25
10.55
11.37
11.80
11.94
11.86
11.65
11.34
10.96
10.55
10.12
9.70
9.29
8.86
8.41
7.89
7.25
6.48
5.52
4.38
3.08
1.71
0.38
-0.83
-1.86
-2.69
-3.34
-3.85
-4.25
-4.63
-5.09
-5.79
-6.89
-8.47
-10.50
-12.77
-14.91
-16.46
-16.94
-16.01
-13.51
-9.64
-4.86
0.13
4.60
8.01
10.16
11.28
11.85
12.37
13.18
14.27
15.41
16.28
16.64
16.38
15.57
14.32
12.77
11.08
9.47
8.19
7.44
7.21
7.27
7.21
6.66
5.47
3.82
2.07
0.62
-0.35
-0.86
-1.07
-1.13
-1.12
-1.08
-1.10
-1.35
-2.01
-3.18
-4.70
-6.19
-7.22
-7.44
-6.77
-5.43
-3.79
-2.21
-0.93
0.00
0.63
1.02
1.25
1.34
1.33
1.24
1.09
0.86
0.51
-0.02
-0.75
-1.63
-2.52
-3.27
-3.77
-3.99
-3.99
-3.85
-3.66
-3.46
-3.28
-3.08
-2.81
-2.35
-1.61
-0.52
0.89
2.43
3.81
4.66
4.69
3.79
2.11
0.04
-1.89
-3.18
-3.47
-2.70
-1.10
0.88
2.68
3.84
4.14
3.58
2.42
1.04
-0.17
-0.86
-0.94
-0.46
0.35
1.18
1.75
1.91
1.59
0.80
-0.36
-1.76
-3.15
-4.19
-4.54
-3.99
-2.65
-0.88
0.76
1.81
2.10
1.79
1.23
0.78
0.67
0.88
1.28
1.68
1.90
1.81
1.35
0.50
-0.72
-2.21
-3.78
-5.21
-6.23
-6.63
-6.30
-5.28
-3.76
-2.04
-0.42
0.87
1.75
2.29
2.60
2.81
2.93
2.93
2.76
2.43
2.04
1.71
1.53
1.51
1.57
1.60
1.54
1.42
1.32
1.30
1.37
1.46
1.50
1.44
1.28
1.06
0.78
0.37
-0.22
-1.01
-1.88
-2.66
-3.16
-3.29
-3.05
-2.52
-1.83
-1.13
-0.56
-0.25
-0.27
-0.55
-0.88
-0.98
-0.59
0.34
1.67
3.08
4.28
5.11
5.62
5.92
6.05
5.96
5.51
4.64
3.40
2.03
0.78
-0.16
-0.77
-1.17
-1.53
-1.97
-2.49
-2.99
-3.33
-3.36
-3.01
-2.31
-1.43
-0.60
-0.09
-0.10
-0.69
-1.77
-3.10
-4.44
-5.59
-6.44
-7.00
-7.37
-7.65
-7.92
-8.29
-8.83
-9.62
-10.66
-11.91
-13.21
-14.34
-15.06
-15.16
-14.56
-13.27
-11.42
-9.22
-6.92
-4.77
-3.00
-1.75
-1.04
-0.78
-0.82
-0.98
-1.15
-1.29
-1.42
-1.54
-1.61
-1.50
-1.07
-0.25
0.91
2.23
3.44
4.31
4.74
4.73
4.44
4.04
3.60
3.13
2.52
1.71
0.69
-0.41
-1.46
-2.32
-2.91
-3.20
-3.14
-2.67
-1.83
-0.78
0.13
0.48
-0.03
-1.37
-3.13
-4.59
-5.06
-4.08
-1.68
1.71
5.39
8.64
10.96
12.14
12.26
11.58
10.41
9.08
7.82
6.81
6.17
5.96
6.17
6.66
7.23
7.60
7.57
7.03
6.11
5.06
4.16
3.59
3.37
3.32
3.22
2.93
2.44
1.88
1.42
1.15
1.07
1.07
1.03
0.88
0.60
0.17
-0.45
-1.34
-2.57
-4.09
-5.69
-7.06
-7.87
-7.94
-7.24
-5.93
-4.23
-2.39
-0.59
1.01
2.28
3.10
3.43
3.28
2.77
2.11
1.46
0.98
0.72
0.67
0.74
0.82
0.82
0.66
0.31
-0.19
-0.76
-1.27
-1.64
-1.83
-1.82
-1.65
-1.35
-0.95
-0.51
-0.11
0.17
0.29
0.24
0.06
-0.17
-0.45
-0.84
-1.46
-2.44
-3.81
-5.43
-7.02
-8.19
-8.58
-8.04
-6.60
-4.48
-2.03
0.37
2.40
3.86
4.65
4.78
4.40
3.72
2.96
2.25
1.64
1.09
0.56
0.09
-0.26
-0.35
-0.13
0.40
1.18
2.11
3.10
4.03
4.78
5.21
5.22
4.78
4.02
3.17
2.45
2.01
1.81
1.72
1.58
1.29
0.83
0.18
-0.68
-1.83
-3.30
-5.01
-6.66
-7.85
-8.23
-7.62
-6.16
-4.18
-2.12
-0.27
1.23
2.40
3.33
4.04
4.52
4.75
4.76
4.69
4.67
4.78
5.00
5.19
5.26
5.14
4.89
4.62
4.43
4.40
4.52
4.75
5.01
5.21
5.25
5.06
4.61
3.90
3.00
2.04
1.13
0.37
-0.17
-0.44
-0.53
-0.60
-0.95
-1.90
-3.66
-6.14
-8.96
-11.48
-13.09
-13.46
-12.62
-10.97
-9.03
-7.19
-5.60
-4.21
-2.88
-1.53
-0.23
0.89
1.73
2.32
2.77
3.22
3.75
4.31
4.75
4.89
4.60
3.85
2.77
1.58
0.53
-0.10
-0.09
0.76
2.44
4.69
6.90
8.28
8.06
5.80
1.65
-3.66
-9.08
-13.60
-16.59
-17.88
-17.74
-16.61
-14.96
-13.20
-11.62
-10.38
-9.46
-8.65
-7.61
-6.07
-3.98
-1.57
0.65
2.21
2.80
2.42
1.38
0.07
-1.15
-2.04
-2.52
-2.57
-2.19
-1.44
-0.40
0.80
2.13
3.63
5.40
7.49
9.76
11.80
13.06
13.06
11.56
8.72
4.97
1.00
-2.47
-4.71
-5.14
-3.49
0.07
4.92
10.03
14.23
16.56
16.57
14.39
10.71
6.46
2.56
-0.46
-2.47
-3.71
-4.51
-5.10
-5.47
-5.49
-5.04
-4.23
-3.35
-2.74
-2.54
-2.60
-2.52
-1.96
-0.83
0.60
1.83
2.37
1.97
0.73
-0.98
-2.74
-4.19
-5.19
-5.82
-6.14
-6.16
-5.78
-4.88
-3.48
-1.78
-0.13
1.14
1.86
2.04
1.81
1.35
0.77
0.12
-0.55
-1.16
-1.54
-1.60
-1.26
-0.56
0.40
1.50
2.63
3.70
4.62
5.34
5.80
5.97
5.86
5.49
4.92
4.21
3.44
2.69
1.98
1.36
0.82
0.35
-0.00
-0.20
-0.21
-0.06
0.11
0.12
-0.26
-1.16
-2.60
-4.45
-6.47
-8.36
-9.93
-11.03
-11.67
-11.96
-12.03
-12.09
-12.36
-13.01
-14.15
-15.72
-17.51
-19.14
-20.25
-20.59
-20.12
-18.96
-17.28
-15.17
-12.57
-9.25
-4.96
0.48
7.05
14.47
22.30
29.97
36.99
42.96
47.59
50.60
51.70
50.71
47.58
42.60
36.37
29.72
23.53
18.57
15.28
13.77
13.85
15.02
16.58
17.80
18.05
16.99
14.67
11.35
7.41
3.07
-1.66
-6.95
-12.98
-19.72
-26.78
-33.37
-38.54
-41.42
-41.59
-39.19
-34.90
-29.59
-24.07
-18.84
-14.03
-9.64
-5.66
-2.27
0.19
1.42
1.30
0.03
-1.90
-3.86
-5.29
-5.84
-5.48
-4.42
-3.02
-1.59
-0.35
0.54
1.00
0.92
0.23
-1.03
-2.67
-4.36
-5.65
-6.18
-5.81
-4.65
-3.05
-1.42
-0.12
0.61
0.64
-0.08
-1.51
-3.48
-5.66
-7.59
-8.75
-8.71
-7.32
-4.75
-1.47
1.92
4.85
6.98
8.18
8.58
8.43
8.00
7.52
7.13
6.83
6.55
6.19
5.64
4.87
3.92
2.92
2.01
1.34
0.96
0.82
0.76
0.58
0.08
-0.86
-2.32
-4.24
-6.48
-8.81
-11.03
-13.03
-14.86
-16.64
-18.55
-20.65
-22.83
-24.83
-26.27
-26.68
-25.53
-22.37
-16.91
-9.25
0.01
9.83
18.95
26.31
31.29
33.93
34.69
34.23
33.08
31.48
29.44
26.92
24.07
21.18
18.62
16.60
14.99
13.43
11.52
9.08
6.27
3.56
1.44
0.07
-0.77
-1.57
-2.81
-4.63
-6.78
-8.75
-10.08
-10.60
-10.47
-10.11
-9.93
-10.23
-11.07
-12.34
-13.86
-15.39
-16.65
-17.35
-17.20
-16.04
-13.88
-10.96
-7.66
-4.41
-1.56
0.66
2.17
3.04
3.42
3.55
3.67
3.97
4.48
5.11
5.70
6.10
6.24
6.14
5.88
5.50
5.01
4.37
3.56
2.58
1.49
0.34
-0.81
-1.93
-2.93
-3.73
-4.22
-4.33
-4.06
-3.53
-2.94
-2.55
-2.61
-3.29
-4.57
-6.23
-7.85
-8.97
-9.20
-8.42
-6.73
-4.47
-2.00
0.35
2.37
3.98
5.13
5.83
6.18
6.29
6.30
6.30
6.29
6.20
5.90
5.36
4.60
3.77
2.97
2.28
1.73
1.29
0.93
0.63
0.40
0.25
0.17
0.11
0.02
-0.16
-0.49
-0.96
-1.52
-2.10
-2.69
-3.39
-4.40
-5.87
-7.82
-10.02
-11.98
-13.19
-13.26
-12.13
-10.03
-7.38
-4.59
-1.93
0.45
2.41
3.78
4.43
4.34
3.75
3.08
2.78
3.13
4.06
5.25
6.26
6.75
6.60
5.92
4.96
3.98
3.15
2.55
2.17
1.93
1.72
1.45
1.09
0.62
0.13
-0.31
-0.62
-0.75
-0.66
-0.34
0.15
0.64
0.82
0.35
-0.97
-3.04
-5.41
-7.45
-8.53
-8.30
-6.81
-4.44
-1.74
0.72
2.58
3.65
3.98
3.77
3.31
2.92
2.84
3.19
3.92
4.87
5.78
6.44
6.69
6.46
5.79
4.80
3.68
2.69
2.02
1.80
2.01
2.50
3.04
3.40
3.41
3.03
2.33
1.49
0.73
0.22
0.02
0.02
-0.01
-0.36
-1.31
-2.98
-5.33
-8.04
-10.64
-12.58
-13.43
-12.96
-11.26
-8.70
-5.84
-3.22
-1.24
-0.02
0.52
0.63
0.59
0.62
0.83
1.21
1.71
2.22
2.65
2.98
3.18
3.28
3.29
3.21
3.08
2.93
2.79
2.69
2.56
2.33
1.92
1.32
0.60
-0.11
-0.66
-1.01
-1.16
-1.20
-1.20
-1.26
-1.47
-2.00
-3.00
-4.61
-6.76
-9.15
-11.28
-12.56
-12.54
-11.12
-8.56
-5.43
-2.35
0.19
1.94
2.91
3.24
3.13
2.72
2.20
1.74
1.55
1.75
2.33
3.13
3.84
4.19
4.05
3.47
2.65
1.85
1.25
0.88
0.65
0.38
-0.09
-0.88
-2.00
-3.32
-4.67
-5.85
-6.67
-7.06
-7.03
-6.64
-6.06
-5.48
-5.12
-5.19
-5.85
-7.13
-8.85
-10.69
-12.22
-13.07
-13.07
-12.33
-11.14
-9.89
-8.88
-8.29
-8.16
-8.49
-9.29
-10.60
-12.40
-14.55
-16.79
-18.84
-20.55
-21.94
-23.29
-24.98
-27.36
-30.58
-34.50
-38.78
-42.99
-46.80
-50.16
-53.29
-56.60
-60.50
-65.27
-71.00
-77.53
-84.53
-91.45
-97.59
-102.01
-103.72
-101.91
-96.21
-86.92
-74.94
-61.45
-47.51
-33.66
-19.85
-5.66
9.36
25.32
41.81
58.03
73.07
86.24
97.23
106.12
113.17
118.68
122.85
125.82
127.73
128.76
129.14
128.90
127.82
125.37
120.96
114.18
105.18
94.67
83.79
73.67
65.04
57.99
52.03
46.37
40.30
33.52
26.20
18.86
12.07
6.27
1.61
-1.90
-4.36
-5.79
-6.23
-5.78
-4.68
-3.27
-1.81
-0.38
1.24
3.37
6.29
9.99
14.16
18.29
21.87
24.44
25.75
25.68
24.25
21.59
17.98
13.79
9.44
5.26
1.44
-2.01
-5.16
-8.03
-10.56
-12.63
-14.15
-15.14
-15.75
-16.20
-16.69
-17.37
-18.29
-19.44
-20.73
-22.06
-23.26
-24.19
-24.71
-24.78
-24.52
-24.20
-24.14
-24.53
-25.29
-26.06
-26.26
-25.36
-23.07
-19.52
-15.15
-10.58
-6.40
-3.02
-0.66
0.69
1.11
0.82
0.08
-0.89
-1.92
-3.00
-4.18
-5.55
-7.08
-8.63
-9.97
-10.94
-11.50
-11.73
-11.80
-11.77
-11.57
-11.09
-10.24
-9.10
-7.89
-6.90
-6.38
-6.40
-6.83
-7.42
-7.85
-7.91
-7.52
-6.80
-6.05
-5.63
-5.83
-6.73
-8.07
-9.40
-10.14
-9.97
-8.87
-7.12
-5.16
-3.31
-1.66
-0.18
1.23
2.54
3.62
4.33
4.68
4.82
5.03
5.49
6.21
6.99
7.57
7.76
7.48
6.84
5.98
5.09
4.31
3.73
3.40
3.27
3.21
3.03
2.59
1.82
0.81
-0.28
-1.31
-2.18
-2.87
-3.44
-3.94
-4.48
-5.15
-6.06
-7.21
-8.46
-9.50
-9.96
-9.51
-8.05
-5.75
-2.96
-0.13
2.38
4.36
5.72
6.49
6.76
6.66
6.39
6.14
6.12
6.40
6.99
7.75
8.49
9.00
9.16
8.95
8.49
7.97
7.60
7.46
7.44
7.30
6.76
5.63
3.97
2.03
0.14
-1.40
-2.45
-3.04
-3.31
-3.47
-3.73
-4.27
-5.25
-6.70
-8.54
-10.45
-12.05
-12.89
-12.71
-11.45
-9.28
-6.49
-3.42
-0.32
2.61
5.23
7.38
8.92
9.71
9.67
8.82
7.36
5.62
3.96
2.75
2.13
2.07
2.33
2.57
2.57
2.23
1.66
1.09
0.73
0.70
0.88
0.93
0.37
-1.36
-4.60
-9.34
-15.03
-20.62
-24.69
-25.77
-22.79
-15.44
-4.47
8.42
21.00
31.18
37.63
40.15
39.54
37.05
33.81
30.39
26.77
22.59
17.56
11.71
5.37
-1.07
-7.33
-13.29
-18.84
-23.77
-27.67
-30.05
-30.52
-29.09
-26.10
-22.14
-17.80
-13.50
-9.38
-5.47
-1.81
1.48
4.18
6.06
7.00
7.07
6.52
5.79
5.42
5.93
7.56
10.23
13.51
16.74
19.27
20.62
20.54
18.97
15.94
11.58
6.11
-0.06
-6.35
-12.12
-16.79
-20.05
-21.86
-22.37
-21.80
-20.32
-18.01
-14.97
-11.43
-7.78
-4.52
-2.07
-0.58
0.14
0.53
1.10
2.18
3.88
6.09
8.63
11.33
14.00
16.44
18.34
19.36
19.23
17.93
15.70
13.08
10.71
9.12
8.58
9.06
10.17
11.39
12.14
12.08
11.17
9.78
8.57
8.26
9.35
11.92
15.65
19.94
24.24
28.24
31.99
35.76
39.84
44.26
48.70
52.45
54.54
53.94
49.85
41.96
30.76
17.56
4.20
-7.36
-15.66
-20.19
-21.53
-21.11
-20.64
-21.54
-24.50
-29.42
-35.60
-42.05
-47.77
-51.89
-53.71
-52.79
-48.98
-42.63
-34.57
-26.14
-18.95
-14.49
-13.72
-16.75
-22.80
-30.39
-37.78
-43.40
-46.11
-45.35
-41.15
-33.95
-24.60
-14.29
-4.43
3.53
8.44
9.64
7.23
1.99
-4.75
-11.44
-16.58
-18.94
-17.86
-13.31
-5.96
2.94
11.88
19.35
24.10
25.33
22.83
16.99
8.85
-0.15
-8.36
-14.27
-16.85
-15.77
-11.47
-5.09
1.78
7.37
10.14
9.17
4.41
-3.23
-12.15
-20.46
-26.50
-29.22
-28.23
-23.72
-16.25
-6.60
4.23
15.01
24.33
30.80
33.39
31.78
26.53
18.92
10.67
3.55
-0.99
-2.04
0.59
6.29
13.79
21.31
27.00
29.25
27.09
20.40
9.91
-2.88
-16.00
-27.24
-34.64
-36.87
-33.57
-25.47
-14.27
-2.23
8.37
15.71
18.65
16.89
10.93
1.98
-8.18
-17.49
-23.99
-26.34
-24.21
-18.36
-10.44
-2.48
3.80
7.44
8.35
7.18
4.82
2.04
-0.75
-3.45
-5.99
-8.10
-9.22
-8.69
-6.11
-1.69
3.69
8.66
11.87
12.41
10.15
5.70
0.18
-5.13
-9.12
-11.07
-10.74
-8.37
-4.64
-0.48
3.07
5.17
5.38
3.68
0.42
-3.90
-8.83
-13.96
-18.83
-22.78
-24.91
-24.28
-20.32
-13.22
-4.13
5.13
12.62
16.96
17.70
15.43
11.39
6.97
3.37
1.34
1.20
2.92
6.16
10.28
14.37
17.46
18.73
17.78
14.75
10.28
5.27
0.63
-2.93
-4.94
-5.22
-3.79
-0.88
3.07
7.44
11.44
14.28
15.36
14.42
11.62
7.47
2.67
-2.06
-6.15
-9.17
-10.91
-11.28
-10.41
-8.54
-6.09
-3.52
-1.24
0.45
1.42
1.69
1.38
0.78
0.35
0.66
2.20
5.12
9.06
13.12
16.15
17.19
15.78
12.17
7.24
2.17
-1.92
-4.28
-4.66
-3.25
-0.60
2.55
5.47
7.53
8.29
7.61
5.58
2.49
-1.26
-5.25
-9.08
-12.39
-14.89
-16.37
-16.67
-15.67
-13.37
-9.92
-5.77
-1.62
1.68
3.37
3.11
1.14
-1.69
-4.23
-5.42
-4.67
-2.11
1.55
5.31
8.22
9.65
9.42
7.72
5.02
1.95
-0.84
-2.71
-3.15
-1.87
1.02
4.97
9.02
12.07
13.16
11.81
8.18
3.04
-2.47
-7.18
-10.20
-11.12
-10.10
-7.71
-4.77
-2.12
-0.42
-0.04
-0.98
-2.93
-5.38
-7.76
-9.61
-10.63
-10.72
-9.90
-8.24
-5.89
-3.03
0.08
3.08
5.65
7.58
8.79
9.35
9.35
8.87
7.94
6.63
5.11
3.69
2.72
2.45
2.96
4.08
5.47
6.77
7.62
7.79
7.23
6.00
4.31
2.42
0.63
-0.81
-1.75
-2.14
-2.06
-1.74
-1.52
-1.81
-2.97
-5.12
-7.99
-10.95
-13.20
-14.08
-13.35
-11.27
-8.42
-5.49
-2.95
-0.99
0.44
1.45
2.13
2.50
2.58
2.51
2.51
2.76
3.36
4.20
5.03
5.57
5.63
5.21
4.51
3.78
3.28
3.11
3.20
3.36
3.34
2.98
2.27
1.35
0.44
-0.28
-0.71
-0.90
-0.96
-1.05
-1.35
-2.03
-3.25
-5.11
-7.58
-10.37
-12.97
-14.69
-14.93
-13.39
-10.28
-6.25
-2.18
1.14
3.23
4.08
4.04
3.60
3.23
3.21
3.58
4.24
5.04
5.81
6.48
6.98
7.30
7.35
7.03
6.26
5.04
3.50
1.87
0.40
-0.73
-1.47
-1.95
-2.36
-2.92
-3.80
-5.01
-6.49
-8.03
-9.45
-10.61
-11.52
-12.32
-13.28
-14.70
-16.77
-19.46
-22.45
-25.19
-27.11
-27.81
-27.23
-25.71
-23.83
-22.18
-21.24
-21.19
-22.02
-23.57
-25.66
-28.10
-30.67
-33.13
-35.31
-37.13
-38.63
-39.96
-41.16
-42.10
-42.40
-41.65
-39.59
-36.29
-32.19
-27.84
-23.70
-19.90
-16.35
-12.94
-9.81
-7.42
-6.33
-6.93
-9.08
-12.09
-14.84
-16.14
-15.08
-11.21
-4.55
4.56
15.60
27.93
40.90
53.79
65.96
76.79
85.84
92.88
97.92
101.19
102.97
103.43
102.52
100.01
95.67
89.45
81.65
72.89
63.83
55.04
46.79
39.04
31.69
24.66
18.06
12.08
6.95
2.74
-0.58
-3.17
-5.16
-6.71
-7.91
-8.86
-9.65
-10.34
-10.91
-11.30
-11.41
-11.13
-10.41
-9.29
-7.86
-6.29
-4.72
-3.16
-1.44
0.74
3.63
7.24
11.18
14.73
17.05
17.56
16.14
13.20
9.50
5.80
2.68
0.39
-1.06
-1.77
-1.92
-1.72
-1.41
-1.20
-1.17
-1.28
-1.39
-1.45
-1.56
-1.94
-2.83
-4.23
-5.90
-7.43
-8.55
-9.25
-9.83
-10.60
-11.71
-12.95
-13.91
-14.33
-14.25
-14.12
-14.46
-15.62
-17.49
-19.60
-21.34
-22.32
-22.54
-22.27
-21.87
-21.56
-21.25
-20.71
-19.74
-18.30
-16.54
-14.72
-13.04
-11.61
-10.41
-9.39
-8.50
-7.70
-6.96
-6.23
-5.47
-4.62
-3.65
-2.51
-1.15
0.51
2.50
4.74
6.99
8.88
10.12
10.56
10.31
9.67
8.98
8.45
8.12
7.84
7.45
6.87
6.13
5.33
4.58
3.90
3.25
2.60
2.01
1.64
1.65
2.10
2.83
3.47
3.56
2.74
0.91
-1.69
-4.55
-7.14
-9.06
-10.20
-10.72
-10.85
-10.75
-10.36
-9.50
-8.01
-5.92
-3.50
-1.17
0.68
1.84
2.34
2.35
2.06
1.53
0.72
-0.42
-1.83
-3.34
-4.67
-5.58
-5.97
-5.88
-5.52
-5.18
-5.17
-5.73
-6.91
-8.58
-10.39
-11.83
-12.46
-12.00
-10.46
-8.12
-5.45
-2.90
-0.77
0.81
1.94
2.81
3.68
4.79
6.27
8.11
10.13
12.08
13.68
14.76
15.32
15.50
15.49
15.42
15.32
15.09
14.62
13.76
12.43
10.52
8.00
4.95
1.54
-1.85
-4.81
-6.98
-8.19
-8.58
-8.47
-8.33
-8.55
-9.36
-10.78
-12.56
-14.35
-15.72
-16.32
-16.02
-14.86
-13.03
-10.79
-8.34
-5.84
-3.44
-1.31
0.33
1.29
1.48
0.96
-0.01
-1.04
-1.66
-1.48
-0.31
1.75
4.27
6.61
8.12
8.46
7.66
6.11
4.36
2.86
1.83
1.25
1.00
1.02
1.29
1.79
2.42
2.96
3.12
2.62
1.35
-0.65
-3.15
-5.81
-8.17
-9.77
-10.26
-9.46
-7.45
-4.51
-1.09
2.41
5.62
8.25
10.06
10.89
10.65
9.42
7.39
4.90
2.29
-0.12
-2.09
-3.45
-4.13
-4.20
-3.79
-3.14
-2.39
-1.63
-0.83
0.01
0.84
1.50
1.79
1.58
0.96
0.20
-0.37
-0.51
-0.24
0.21
0.46
0.15
-0.91
-2.64
-4.71
-6.64
-7.89
-8.08
-7.02
-4.85
-1.91
1.31
4.33
6.81
8.56
9.55
9.87
9.68
9.17
8.56
8.03
7.73
7.67
7.77
7.83
7.66
7.16
6.32
5.23
4.04
2.84
1.74
0.76
-0.06
-0.72
-1.28
-1.84
-2.57
-3.60
-5.01
-6.74
-8.68
-10.65
-12.57
-14.44
-16.35
-18.43
-20.75
-23.27
-25.82
-28.07
-29.60
-30.02
-29.07
-26.81
-23.63
-20.16
-17.05
-14.89
-13.99
-14.40
-15.90
-17.97
-19.82
-20.47
-19.00
-14.82
-8.03
0.49
9.32
16.92
22.25
25.11
26.08
26.19
26.31
26.81
27.47
27.85
27.62
26.93
26.34
26.51
27.77
29.92
32.45
34.76
36.58
37.95
38.99
39.60
39.31
37.55
34.04
29.20
24.22
20.64
19.74
22.01
26.95
33.22
39.12
43.09
44.07
41.73
36.39
28.95
20.53
12.20
4.80
-1.16
-5.47
-8.07
-9.04
-8.51
-6.75
-4.17
-1.24
1.71
4.55
7.40
10.38
13.49
16.50
19.12
21.05
22.20
22.58
22.19
20.96
18.83
16.04
13.19
11.21
10.89
12.39
14.87
16.68
15.99
11.75
4.27
-4.84
-13.44
-19.88
-23.84
-26.47
-29.85
-36.11
-46.60
-61.51
-79.80
-99.38
-117.33
-130.42
-135.55
-130.77
-116.09
-93.87
-68.46
-44.93
-27.38
-17.67
-15.07
-16.87
-19.84
-21.57
-21.24
-19.42
-17.34
-15.83
-14.91
-13.91
-12.02
-8.94
-5.01
-0.84
3.17
7.27
12.14
18.39
25.90
33.63
39.90
43.16
42.76
39.19
33.93
28.70
24.72
22.37
21.26
20.66
20.10
19.61
19.63
20.70
23.05
26.40
30.08
33.24
35.21
35.75
35.15
34.03
33.07
32.62
32.54
32.30
31.30
29.31
26.66
24.02
21.96
20.50
19.05
16.79
13.23
8.60
3.74
-0.45
-3.63
-6.05
-8.27
-10.57
-12.58
-13.41
-12.23
-8.95
-4.40
-0.04
2.86
3.87
3.70
3.79
5.47
9.02
13.40
16.55
16.34
11.77
3.46
-6.46
-15.33
-21.07
-23.12
-22.38
-20.62
-19.37
-19.24
-19.77
-19.98
-19.11
-17.18
-15.00
-13.65
-14.01
-16.41
-20.62
-26.14
-32.47
-39.26
-46.18
-52.86
-58.90
-64.06
-68.23
-71.35
-73.11
-72.81
-69.74
-63.86
-56.29
-49.08
-44.23
-42.57
-43.17
-43.91
-42.71
-38.70
-32.44
-25.14
-17.53
-9.27
0.55
12.42
25.42
37.34
45.70
49.09
47.93
44.15
40.10
37.27
35.71
34.16
30.88
24.59
15.16
3.75
-7.71
-17.23
-23.56
-26.49
-26.70
-25.15
-22.51
-18.95
-14.33
-8.62
-2.30
3.75
8.73
12.35
15.16
18.17
22.19
27.32
32.80
37.33
39.71
39.32
36.29
31.38
25.79
20.72
17.25
15.95
16.80
19.14
21.98
24.37
25.75
26.08
25.58
24.42
22.50
19.56
15.50
10.60
5.53
1.05
-2.32
-4.47
-5.64
-6.03
-5.64
-4.27
-1.75
1.72
5.52
8.74
10.57
10.68
9.39
7.42
5.55
4.21
3.42
2.97
2.76
2.98
4.08
6.42
9.99
14.23
18.19
20.94
22.01
21.49
20.03
18.48
17.58
17.70
18.83
20.67
22.85
25.10
27.29
29.38
31.29
32.74
33.25
32.27
29.56
25.45
20.84
17.01
14.98
14.98
16.14
16.71
14.76
8.91
-0.96
-13.63
-26.99
-38.74
-47.17
-51.50
-51.95
-49.63
-46.19
-43.46
-42.98
-45.51
-50.77
-57.51
-63.81
-67.87
-68.61
-66.08
-61.32
-55.84
-50.90
-47.03
-43.97
-41.08
-37.76
-33.98
-30.03
-26.00
-21.19
-13.79
-1.60
16.83
41.02
68.60
96.27
121.54
143.67
163.26
180.51
193.49
197.94
189.13
164.99
128.16
85.69
46.13
15.50
-5.12
-19.31
-32.66
-49.43
-70.80
-95.18
-120.15
-144.17
-167.23
-189.62
-210.63
-227.61
-236.46
-233.25
-216.06
-186.09
-147.50
-106.29
-68.27
-37.45
-15.00
0.57
12.28
23.15
34.88
47.53
60.12
71.62
81.31
88.53
92.37
91.56
85.32
74.45
61.91
52.07
48.91
54.19
66.65
82.65
98.01
109.87
117.44
121.74
124.29
126.14
127.30
126.88
123.57
116.08
103.59
86.20
65.33
43.53
23.77
8.50
-1.46
-7.25
-11.39
-16.57
-24.38
-34.72
-46.10
-56.63
-65.19
-71.93
-77.95
-84.40
-91.53
-98.38
-103.11
-104.17
-101.04
-94.72
-87.43
-82.03
-81.36
-87.90
-103.33
-128.31
-162.02
-201.87
-243.71
-282.61
-314.01
-334.78
-343.68
-340.95
-327.70
-305.11
-274.16
-235.83
-191.59
-143.58
-94.58
-47.46
-4.62
32.56
63.88
90.18
112.96
133.67
153.18
171.56
188.19
202.26
213.26
221.33
227.18
231.69
235.45
238.51
240.43
240.55
238.34
233.67
226.88
218.71
209.96
201.21
192.58
183.68
173.86
162.64
150.01
136.43
122.57
108.87
95.33
81.64
67.57
53.25
39.14
25.83
13.57
2.18
-8.90
-20.21
-31.87
-43.46
-53.87
-61.59
-65.18
-63.76
-57.59
-48.25
-38.32
-30.60
-27.02
-27.86
-31.67
-35.81
-37.76
-35.95
-30.22
-21.58
-11.88
-3.41
1.22
-0.53
-10.46
-28.93
-54.13
-82.37
-109.21
-130.69
-144.45
-149.86
-147.48
-138.63
-125.19
-109.73
-95.28
-84.79
-80.01
-80.65
-84.45
-88.11
-88.74
-84.79
-76.20
-63.88
-49.15
-33.30
-17.76
-4.08
6.37
12.93
16.01
16.99
17.50
18.74
21.06
24.09
27.18
29.95
32.43
35.12
38.60
43.14
48.66
54.63
60.17
64.38
66.64
66.84
65.46
63.37
61.36
59.90
58.88
57.78
55.98
53.08
48.91
43.57
37.23
30.12
22.61
15.34
9.13
4.65
2.02
0.53
-1.13
-4.34
-9.87
-17.52
-26.19
-34.53
-41.70
-47.84
-53.97
-61.20
-69.88
-79.21
-87.41
-92.68
-93.92
-91.05
-84.51
-74.50
-60.59
-42.08
-18.93
7.40
33.84
56.61
72.62
80.72
81.83
78.35
72.95
67.71
63.72
61.35
60.61
61.42
63.61
66.75
69.92
71.72
70.68
66.02
58.13
48.80
40.66
36.15
36.52
41.37
49.05
57.39
64.82
70.60
74.76
77.28
77.91
76.34
72.63
67.74
63.06
59.33
55.33
47.81
32.68
7.18
-28.37
-70.06
-111.32
-145.11
-165.90
-171.03
-160.80
-137.96
-106.72
-71.93
-38.31
-9.65
11.71
25.35
32.42
34.85
34.74
33.61
32.59
32.51
33.92
36.63
39.62
41.54
41.23
38.59
34.49
30.31
26.75
23.20
17.93
9.19
-3.44
-18.52
-33.19
-44.70
-51.83
-55.29
-56.88
-58.11
-58.94
-58.03
-53.80
-45.93
-36.30
-28.72
-27.62
-36.26
-55.23
-82.09
-112.04
-139.40
-159.29
-168.58
-166.40
-153.83
-133.11
-106.98
-78.25
-49.45
-22.80
-0.03
17.78
30.33
38.22
42.80
45.87
49.21
54.19
61.38
70.43
80.00
88.22
93.20
93.59
88.92
79.70
67.25
53.01
38.19
23.23
7.73
-9.15
-27.91
-48.14
-68.03
-84.88
-96.36
-101.35
-100.38
-95.05
-86.96
-77.00
-65.33
-52.09
-38.06
-24.68
-13.33
-4.28
3.48
11.54
20.78
30.39
38.08
41.44
39.60
34.14
28.45
26.33
30.18
40.11
54.16
69.25
82.47
91.87
96.85
97.90
96.11
92.99
90.03
88.60
89.75
94.07
101.55
111.55
122.78
133.55
142.02
146.54
146.11
140.68
131.16
119.21
106.74
95.48
86.50
80.20
76.25
73.83
71.89
69.48
65.96
61.22
55.54
49.28
42.65
35.70
28.54
21.51
15.16
9.94
5.82
2.21
-1.86
-7.10
-13.50
-20.17
-25.83
-29.45
-30.64
-29.71
-27.21
-23.55
-18.78
-12.71
-5.33
2.88
10.80
17.03
20.14
18.80
11.98
-1.06
-20.33
-44.57
-71.12
-96.26
-116.48
-130.02
-137.84
-143.22
-149.95
-160.52
-174.79
-190.20
-203.42
-212.15
-216.15
-217.01
-217.25
-219.21
-224.32
-232.98
-244.33
-256.43
-266.61
-272.03
-270.45
-260.71
-243.02
-218.40
-188.39
-155.03
-120.75
-88.51
-61.14
-40.55
-27.06
-19.47
-15.50
-12.65
-9.22
-4.37
1.83
8.39
13.29
13.68
6.48
-10.01
-34.69
-63.20
-89.37
-107.82
-116.42
-117.35
-115.68
-116.52
-122.34
-131.95
-141.71
-147.84
-148.45
-143.94
-135.86
-125.19
-111.40
-92.93
-68.44
-38.08
-3.49
32.99
69.80
106.96
145.56
186.39
228.17
266.97
297.08
313.30
313.27
298.83
275.46
250.20
228.86
214.17
205.47
199.84
193.92
185.32
173.20
158.08
141.21
124.15
108.51
95.78
87.20
83.50
84.67
89.86
97.57
106.01
113.54
118.97
121.77
122.05
120.31
117.17
113.00
107.81
101.25
92.92
82.66
70.83
58.25
46.01
35.01
25.79
18.29
12.05
6.34
0.43
-6.23
-13.91
-22.52
-31.58
-40.32
-47.84
-53.33
-56.31
-56.74
-55.05
-52.00
-48.37
-44.77
-41.45
-38.25
-34.72
-30.38
-24.96
-18.60
-11.84
-5.47
-0.22
3.43
5.38
5.77
4.95
3.25
1.05
-1.30
-3.39
-4.94
-5.81
-6.12
-6.13
-6.12
-6.30
-6.73
-7.38
-8.28
-9.49
-11.06
-12.89
-14.67
-15.91
-16.16
-15.24
-13.38
-11.13
-9.22
-8.24
-8.51
-9.98
-12.27
-14.80
-16.96
-18.15
-18.00
-16.43
-13.66
-10.19
-6.57
-3.18
-0.12
2.78
5.77
9.04
12.58
16.22
19.67
22.65
24.98
26.68
27.96
29.18
30.76
32.89
35.53
38.33
40.74
42.28
42.65
41.79
39.72
36.45
31.85
25.63
17.52
7.31
-4.97
-19.05
-34.34
-50.02
-65.17
-78.89
-90.53
-99.71
-106.25
-109.96
-110.50
-107.39
-100.24
-89.04
-74.50
-58.01
-41.39
-26.35
-14.00
-4.60
2.33
7.61
11.94
15.62
18.49
20.26
20.81
20.36
19.46
18.73
18.69
19.48
20.96
22.77
24.53
26.00
26.98
27.31
26.76
25.07
22.08
17.85
12.82
7.71
3.31
0.18
-1.58
-2.30
-2.51
-2.62
-2.69
-2.51
-1.84
-0.66
0.75
2.05
3.14
4.28
6.06
8.98
13.08
17.79
22.15
25.19
26.34
25.59
23.39
20.40
17.23
14.25
11.56
8.99
6.16
2.59
-2.19
-8.47
-16.14
-24.66
-33.04
-40.07
-44.72
-46.45
-45.47
-42.51
-38.54
-34.29
-30.04
-25.69
-21.09
-16.37
-12.05
-8.82
-7.19
-7.26
-8.74
-11.05
-13.62
-15.98
-17.81
-18.89
-19.08
-18.34
-16.62
-13.79
-9.55
-3.48
4.76
15.10
26.90
38.98
49.87
58.22
63.08
64.05
61.19
54.91
45.82
34.74
22.72
10.96
0.75
-6.79
-10.97
-11.74
-9.76
-6.20
-2.40
0.50
1.87
1.67
0.40
-1.24
-2.53
-2.98
-2.42
-0.97
1.03
3.08
4.60
5.00
3.70
0.33
-5.15
-12.25
-19.98
-27.04
-32.16
-34.49
-33.83
-30.58
-25.52
-19.52
-13.32
-7.45
-2.29
1.99
5.42
8.27
11.03
14.30
18.58
24.11
30.83
38.51
46.91
55.90
65.51
75.83
86.89
98.53
110.42
122.05
132.96
142.80
151.48
159.12
166.06
172.58
178.88
184.95
190.80
196.52
202.47
209.17
217.07
226.33
236.63
247.20
256.90
264.25
267.68
265.84
258.13
245.14
228.77
212.01
198.15
189.84
188.21
192.51
200.27
208.04
212.38
210.76
202.19
187.27
167.79
145.91
123.38
101.07
78.99
56.76
34.21
11.65
-10.27
-30.98
-50.44
-69.22
-88.41
-109.10
-131.94
-156.78
-182.77
-208.79
-233.76
-257.35
-279.96
-302.54
-326.25
-352.30
-381.49
-414.19
-449.88
-486.64
-521.00
-547.97
-562.21
-559.41
-537.84
-498.97
-447.03
-387.58
-325.41
-263.26
-201.28
-137.90
-71.36
-1.24
71.00
142.59
210.74
273.61
330.25
379.69
419.87
447.16
457.84
449.70
423.79
384.60
338.57
291.57
247.16
205.91
166.37
126.67
85.70
43.43
0.32
-43.00
-86.23
-129.18
-171.74
-214.12
-257.19
-302.66
-351.97
-405.15
-459.53
-510.48
-552.90
-583.46
-601.58
-608.72
-606.77
-596.97
-580.50
-559.90
-540.09
-527.06
-524.85
-532.57
-543.54
-548.02
-537.70
-509.65
-467.19
-417.52
-367.61
-321.35
-279.13
-239.29
-200.15
-161.23
-123.46
-87.56
-53.41
-19.89
14.21
49.25
85.04
120.77
155.95
190.56
225.21
260.61
296.89
332.99
366.66
395.07
415.64
426.87
428.37
422.39
414.10
410.81
419.54
444.37
484.76
535.48
588.03
631.24
657.11
663.36
653.02
631.15
601.63
566.32
526.05
481.27
428.63
367.07
299.72
232.54
170.66
115.73
66.81
23.07
-16.99
-61.38
-115.34
-178.17
-243.56
-304.78
-358.82
-405.83
-445.97
-481.28
-522.70
-577.60
-645.29
-717.28
-783.98
-840.68
-886.85
-922.32
-886.62
-746.16
-514.09
-246.02
1.72
200.74
347.03
438.81
496.87
534.20
548.76
537.93
504.28
455.82
404.92
356.90
312.51
272.48
235.28
193.39
142.53
84.21
25.46
-27.11
-72.13
-112.26
-150.52
-190.82
-238.04
-291.18
-342.34
-378.03
-387.01
-365.85
-318.81
-254.27
-182.40
-112.44
-48.54
9.49
66.16
125.06
187.17
251.58
316.41
378.06
430.90
468.55
484.61
477.34
448.10
401.39
343.52
280.43
215.49
150.25
92.46
39.88
0.13
-19.20
-14.11
12.35
49.87
84.57
105.42
108.52
97.03
79.75
62.68
45.65
23.10
-11.08
-57.92
-110.83
-158.51
-192.14
-209.48
-218.37
-231.77
-260.07
-304.25
-354.21
-392.96
-404.71
-382.13
-327.50
-251.53
-167.16
-85.44
-13.88
41.62
75.27
81.98
60.45
16.95
-35.26
-79.52
-103.05
-102.21
-82.96
-56.66
-33.31
-17.15
-5.95
5.33
19.74
35.62
47.38
48.90
36.95
12.76
-19.81
-56.82
-96.72
-139.74
-185.83
-231.94
-271.14
-294.54
-295.19
-272.43
-233.24
-190.43
-157.37
-142.34
-145.00
-157.42
-168.40
-168.66
-154.62
-128.81
-97.19
-65.85
-38.01
-13.70
9.09
32.77
58.61
86.48
115.56
145.21
175.40
206.82
239.98
275.33
312.94
353.02
396.35
444.35
498.27
557.69
619.04
675.04
716.54
735.76
729.06
698.39
650.29
592.96
533.27
474.78
416.99
358.23
298.34
239.14
183.64
134.08
90.35
50.38
11.09
-31.69
-79.95
-132.51
-187.24
-242.27
-295.96
-345.65
-385.53
-408.13
-410.60
-395.36
-369.80
-345.27
-331.52
-331.41
-339.02
-341.54
-326.32
-290.39
-238.47
-177.73
-114.73
-51.38
14.99
79.09
130.60
176.63
216.50
236.17
229.24
196.95
147.24
90.26
33.53
-19.68
-70.20
-122.93
-178.56
-229.48
-264.33
-272.81
-251.20
-204.08
-140.61
-70.21
-1.11
63.63
126.01
187.37
245.89
296.25
332.27
350.62
352.22
339.76
317.12
288.31
255.73
221.17
187.47
159.12
141.30
136.95
143.74
154.52
160.34
153.19
129.46
90.99
43.67
-5.57
-52.07
-95.39
-138.93
-187.00
-241.93
-301.90
-360.95
-411.59
-447.78
-467.22
-471.00
-462.06
-443.10
-416.78
-387.20
-361.28
-347.86
-353.84
-379.74
-417.36
-452.34
-470.03
-461.99
-429.12
-379.61
-323.64
-268.21
-215.46
-163.63
-110.10
-54.06
2.26
55.13
101.41
139.92
172.14
200.93
229.73
261.25
296.59
334.88
373.49
408.64
436.29
453.37
457.95
450.34
432.96
409.61
384.34
360.70
341.54
329.02
324.64
327.36
335.09
345.35
355.33
361.33
359.38
346.92
323.90
293.12
255.52
213.08
169.36
128.49
92.60
61.16
32.58
5.66
-20.08
-50.05
-88.09
-133.40
-181.27
-226.98
-268.35
-304.98
-337.14
-365.41
-397.33
-438.42
-487.65
-538.37
-583.78
-620.58
-648.32
-667.79
-635.98
-531.09
-367.86
-188.17
-28.00
98.71
193.22
262.54
313.96
348.99
365.22
361.55
343.18
319.80
299.74
285.23
274.35
262.81
247.04
219.14
176.97
126.54
77.55
37.69
7.58
-15.50
-35.11
-60.53
-100.45
-154.88
-215.49
-271.96
-316.98
-351.61
-379.42
-404.53
-439.00
-492.44
-565.08
-648.42
-731.33
-802.47
-856.06
-886.88
-839.66
-696.96
-492.80
-288.00
-125.36
-25.57
36.95
81.35
118.48
153.10
177.10
184.62
179.09
171.33
171.75
187.20
215.37
251.61
290.28
319.68
332.62
330.64
322.21
317.22
324.48
346.87
384.14
431.72
475.81
500.91
495.47
455.23
383.36
289.97
187.76
91.08
12.48
-42.13
-71.90
-80.29
-75.14
-68.35
-72.67
-97.99
-145.76
-207.88
-270.64
-319.81
-346.16
-348.21
-331.33
-303.58
-271.79
-239.18
-206.36
-173.50
-142.29
-115.24
-94.21
-78.49
-64.55
-47.08
-21.54
13.91
57.68
105.38
152.11
194.30
231.19
264.76
298.46
335.68
378.59
427.93
483.18
542.69
603.23
659.60
704.99
732.56
737.73
720.16
684.15
637.00
586.32
537.63
493.36
453.69
418.03
386.26
358.74
335.57
315.68
296.82
276.30
252.18
224.01
192.85
160.81
129.84
101.02
74.25
48.49
22.46
-4.58
-32.43
-59.89
-85.25
-107.02
-124.54
-138.31
-149.77
-160.72
-172.69
-186.32
-201.26
-216.32
-230.13
-241.65
-250.74
-258.21
-265.47
-274.01
-284.79
-298.07
-313.19
-329.32
-345.76
-362.41
-380.10
-400.36
-425.20
-456.55
-495.63
-542.27
-594.31
-647.17
-694.42
-729.09
-745.58
-741.54
-718.61
-681.87
-637.91
-592.63
-549.68
-510.25
-473.90
-439.86
-407.98
-378.53
-351.64
-326.50
-301.23
-273.44
-241.30
-204.65
-164.99
-125.36
-89.06
-58.41
-33.87
-13.93
4.26
23.62
45.84
70.81
96.66
120.94
141.85
159.30
175.02
192.22
214.43
244.91
285.62
336.24
393.13
448.81
492.93
515.13
509.06
475.89
425.21
371.93
330.86
311.72
316.81
341.95
379.29
420.15
456.50
481.65
489.71
475.62
436.55
372.77
287.93
188.48
83.07
-17.87
-101.58
-156.47
-176.03
-161.52
-122.42
-73.89
-32.63
-12.31
-20.34
-54.04
-105.15
-163.48
-219.39
-264.38
-291.73
-297.84
-283.25
-252.22
-206.64
-149.65
-86.60
-24.50
30.80
76.30
112.25
140.77
165.22
194.91
236.51
290.20
349.58
406.41
454.47
491.34
517.44
498.42
417.58
285.26
133.92
-5.81
-119.54
-207.02
-273.52
-325.11
-366.41
-394.52
-407.11
-404.56
-393.77
-381.94
-373.74
-370.21
-370.70
-373.74
-373.22
-364.43
-346.40
-321.83
-293.30
-266.19
-242.30
-222.06
-205.38
-189.16
-171.07
-150.76
-130.24
-111.76
-96.83
-85.25
-76.57
-70.41
-65.13
-59.39
-52.47
-44.47
-35.53
-25.64
-14.33
-1.71
11.52
24.88
38.16
52.02
67.37
85.22
106.13
130.06
155.85
181.46
204.88
225.04
243.58
262.96
285.16
310.92
340.05
371.86
405.65
440.44
474.54
507.48
536.52
557.27
566.13
563.59
554.59
545.76
541.28
540.21
540.88
538.57
528.58
509.38
484.05
458.03
434.88
413.53
389.33
362.44
333.61
303.66
272.97
241.88
210.42
177.71
142.15
71.43
-43.42
-186.28
-325.29
-434.83
-506.58
-545.44
-561.35
-563.74
-559.12
-545.69
-521.83
-488.98
-451.78
-415.39
-383.23
-356.76
-336.02
-320.03
-303.39
-282.46
-257.08
-230.18
-205.20
-184.22
-167.80
-155.48
-146.31
-136.71
-124.43
-109.52
-93.90
-79.75
-68.25
-59.57
-53.26
-48.67
-43.96
-38.02
-30.93
-23.63
-17.17
-12.04
-8.25
-5.52
-3.51
-1.52
0.88
3.68
6.52
9.07
11.17
12.82
14.16
15.29
16.31
17.31
18.32
19.39
20.53
21.77
23.06
24.44
25.87
27.23
28.50
29.56
30.27
30.46
29.98
28.57
26.22
22.89
18.65
13.64
8.04
2.15
-3.78
-9.06
-13.74
-17.64
-20.62
-22.68
-23.83
-24.20
-23.92
-23.35
-22.46
-21.41
-20.29
-19.15
-18.03
-16.97
-15.96
-15.00
-14.09
-13.19
-12.37
-11.61
-10.91
-10.28
-9.72
-9.23
-8.81
-8.45
-8.15
-7.94
-7.82
-7.79
-7.83
-7.97
-8.20
-8.49
-8.85
-9.27
-9.78
-10.38
-11.05
-11.81
-12.64
-13.57
-14.51
-15.49
-16.51
-17.58
-18.72
-19.91
-21.17
-22.49
-23.90
-25.29
-26.65
-27.92
-29.02
-29.74
-29.83
-29.02
-26.98
-23.72
-18.62
-11.46
-2.15
9.11
22.01
36.02
50.38
64.58
77.29
87.74
95.24
99.40
99.84
96.74
90.33
80.98
69.22
55.68
41.20
26.55
12.95
0.71
-9.76
-18.25
-24.83
-29.68
-33.14
-35.43
-36.73
-37.23
-37.10
-36.78
-36.20
-35.63
-35.33
-35.49
-35.90
-36.12
-35.59
-33.77
-30.36
-25.52
-20.29
-15.16
-10.79
-7.36
-4.62
-2.17
0.44
3.21
5.47
6.10
3.88
-1.90
-10.92
-21.12
-31.34
-40.26
-47.09
-52.04
-56.10
-60.48
-66.28
-74.13
-84.26
-96.30
-108.49
-117.72
-120.49
-113.13
-94.79
-68.26
-39.16
-13.97
2.53
9.21
8.13
2.98
-3.22
-9.39
-15.89
-23.02
-29.92
-34.42
-33.84
-26.63
-13.14
4.86
24.79
44.45
63.06
81.08
99.60
119.70
141.28
164.53
188.63
211.13
227.89
233.84
224.74
199.51
162.17
119.64
80.57
51.24
33.38
23.94
17.42
8.85
-4.27
-21.99
-43.55
-68.15
-95.23
-123.15
-148.22
-164.51
-167.89
-157.54
-136.98
-113.17
-93.32
-82.18
-80.43
-85.28
-92.10
-96.85
-96.89
-91.18
-79.92
-63.53
-43.01
-19.73
4.63
28.73
51.67
73.13
93.42
112.53
131.57
150.99
169.55
183.90
189.20
180.94
157.60
122.20
82.24
45.99
20.04
6.76
3.94
6.78
10.69
13.37
15.02
17.01
20.31
24.49
28.07
29.63
28.74
26.29
23.85
23.01
24.33
27.19
29.98
30.79
28.21
21.87
12.61
2.14
-7.77
-15.95
-22.38
-27.91
-33.93
-41.54
-51.11
-61.63
-71.17
-77.73
-80.09
-78.23
-73.42
-67.72
-63.12
-61.32
-63.09
-68.81
-78.32
-90.37
-102.31
-110.05
-109.50
-97.13
-75.22
-48.94
-24.99
-8.92
-2.80
-5.20
-12.51
-21.24
-29.53
-37.44
-45.34
-53.06
-59.61
-63.58
-64.67
-63.78
-62.67
-62.81
-64.71
-66.83
-66.51
-61.47
-49.86
-32.11
-10.28
12.78
34.84
54.76
72.79
89.99
106.18
121.86
136.79
150.54
162.23
169.95
170.66
161.47
141.70
114.49
87.31
68.70
64.77
76.07
96.40
116.36
127.67
127.15
116.15
99.47
81.50
64.01
46.18
26.42
4.69
-17.04
-34.64
-44.98
-46.66
-40.93
-31.04
-20.89
-13.86
-11.86
-15.52
-24.13
-36.34
-50.46
-65.32
-79.61
-91.51
-98.33
-97.01
-86.16
-67.80
-48.05
-34.83
-34.02
-45.47
-62.40
-74.34
-72.47
-54.43
-25.39
4.71
26.80
35.91
33.77
25.96
17.79
11.61
6.56
0.60
-7.40
-16.46
-23.96
-27.35
-25.93
-21.19
-16.00
-13.35
-14.87
-20.20
-27.37
-33.83
-37.64
-38.35
-37.18
-35.91
-36.39
-39.56
-45.13
-51.87
-58.30
-63.29
-66.62
-68.88
-70.96
-73.71
-77.38
-81.48
-85.01
-86.79
-85.81
-81.52
-73.92
-63.04
-49.24
-32.96
-14.70
4.93
25.21
45.25
64.08
80.03
92.59
101.49
106.71
108.52
107.37
103.87
98.63
92.29
85.81
79.38
73.15
67.26
61.74
56.62
51.83
47.34
43.07
38.96
35.05
31.39
28.01
24.95
22.29
20.05
18.29
17.04
16.25
15.92
16.01
16.47
17.18
18.03
18.89
19.68
20.30
20.64
20.70
20.50
20.01
19.22
18.11
16.63
14.76
12.77
10.31
7.31
3.81
-0.16
-4.51
-9.11
-13.81
-18.45
-22.86
-26.93
-30.50
-33.44
-35.70
-37.27
-38.20
-38.57
-38.47
-38.04
-37.46
-36.79
-36.13
-35.58
-35.23
-35.17
-35.48
-36.19
-37.33
-38.95
-40.89
-43.00
-45.20
-47.40
-49.54
-51.63
-53.72
-55.93
-58.51
-61.32
-64.37
-67.69
-71.34
-75.39
-79.91
-85.04
-90.96
-97.93
-105.62
-113.80
-122.30
-130.90
-139.23
-147.09
-154.53
-161.86
-169.51
-177.02
-183.97
-189.88
-194.20
-196.07
-194.63
-188.95
-177.58
-163.74
-148.37
-131.85
-114.31
-95.70
-75.53
-53.79
-31.24
-9.22
10.82
28.64
44.42
58.65
71.91
85.97
101.25
116.25
128.27
134.89
135.90
132.88
128.77
127.07
133.92
152.54
181.84
217.44
254.36
289.65
322.44
353.36
383.84
420.39
466.88
522.60
582.95
642.11
694.84
736.13
761.15
766.51
758.18
742.51
723.06
699.70
670.55
633.62
587.37
531.04
425.41
261.26
61.05
-134.32
-293.04
-405.29
-477.17
-519.53
-541.88
-550.35
-542.33
-517.51
-480.92
-441.40
-406.73
-380.52
-362.02
-348.43
-336.62
-319.44
-293.58
-261.14
-227.85
-199.14
-178.22
-164.40
-155.98
-151.28
-146.13
-138.65
-130.01
-123.26
-119.53
-119.57
-122.40
-126.39
-130.06
-130.81
-127.30
-120.12
-111.59
-104.69
-101.97
-103.53
-106.88
-107.02
-97.73
-75.20
-40.38
1.35
42.64
76.98
100.92
113.73
115.36
105.74
85.17
55.61
21.84
-8.79
-29.06
-35.28
-28.79
-14.94
-0.02
11.56
18.35
21.61
23.44
25.35
27.76
30.28
32.29
33.46
33.75
33.51
33.10
32.55
31.80
30.28
27.06
21.15
11.94
-0.49
-15.26
-30.31
-44.11
-55.48
-63.98
-70.08
-74.77
-79.02
-83.46
-88.55
-94.58
-101.68
-108.92
-113.91
-113.06
-102.84
-81.82
-52.00
-18.63
11.73
33.82
45.77
49.18
47.43
43.59
39.07
33.81
27.43
20.53
14.84
12.46
14.55
20.52
28.54
36.56
43.08
48.09
52.69
58.42
66.66
78.14
92.48
107.74
120.51
126.38
121.27
103.21
73.50
36.42
-2.24
-37.17
-64.63
-82.43
-89.11
-83.53
-65.46
-36.52
-0.76
36.12
68.11
90.37
100.15
96.62
80.43
53.65
20.22
-14.07
-42.51
-59.27
-62.68
-55.34
-42.45
-29.14
-18.26
-10.10
-3.40
3.02
9.26
14.45
17.92
19.77
20.93
22.59
25.80
30.66
36.42
41.75
45.07
45.51
42.91
37.72
30.72
22.70
14.07
4.90
-4.34
-13.91
-23.53
-32.64
-40.49
-46.46
-50.13
-51.71
-51.68
-50.67
-49.39
-48.22
-47.31
-46.61
-45.97
-45.18
-44.34
-43.62
-43.18
-43.13
-43.40
-43.79
-43.93
-44.05
-43.10
-40.60
-36.22
-29.86
-21.58
-11.71
-0.81
10.37
20.94
30.08
36.88
40.59
40.83
37.58
31.31
22.82
13.25
3.75
-4.52
-10.67
-14.13
-14.68
-12.42
-7.72
-1.14
6.66
14.84
22.61
29.31
34.25
37.03
37.72
36.81
35.01
33.30
32.25
32.17
33.28
34.99
36.66
38.02
39.24
40.70
43.34
47.25
52.20
58.15
63.85
68.12
70.94
73.39
76.89
83.78
94.24
107.54
122.96
137.22
146.95
150.71
148.94
142.69
134.43
125.20
114.38
101.64
83.21
55.42
17.79
-27.36
-76.84
-125.42
-172.92
-220.62
-252.77
-260.64
-244.94
-213.50
-175.43
-153.13
-143.61
-143.92
-153.04
-171.66
-195.30
-223.75
-254.28
-281.58
-300.08
-303.85
-293.57
-271.60
-221.12
-139.80
-38.98
64.14
155.28
220.81
266.74
297.22
314.09
319.45
312.36
291.31
257.88
216.34
171.53
126.57
80.89
32.32
-19.44
-76.47
-140.74
-212.17
-288.94
-349.83
-378.63
-371.79
-340.71
-300.38
-263.41
-236.26
-219.66
-210.69
-205.09
-209.18
-218.88
-231.69
-244.68
-256.50
-267.94
-281.54
-300.45
-326.86
-362.77
-398.10
-424.36
-432.02
-414.72
-372.67
-312.87
-246.07
-182.43
-129.00
-86.19
-51.73
-20.91
10.68
45.57
84.44
126.31
167.92
202.52
222.27
219.16
191.00
143.36
88.29
39.69
7.97
-3.62
0.97
14.53
29.65
42.54
52.71
61.00
67.59
71.68
72.39
70.14
67.21
66.16
69.14
76.64
87.59
99.97
112.22
123.99
136.20
150.60
168.60
190.78
216.36
243.58
270.34
294.97
317.01
337.67
359.96
387.89
424.58
469.85
518.92
562.70
590.61
594.67
572.93
530.48
477.37
424.54
379.63
345.14
319.03
297.27
276.63
255.59
233.73
209.73
180.32
140.92
88.18
22.70
-49.82
-119.75
-177.17
-215.81
-234.95
-238.44
-231.46
-217.27
-196.44
-169.03
-137.74
-109.71
-94.42
-98.96
-123.20
-158.55
-191.19
-208.40
-204.01
-180.19
-144.75
-105.43
-65.47
-23.01
25.69
81.70
140.78
194.41
233.83
254.32
257.37
249.55
238.81
230.79
227.07
225.58
223.17
218.00
210.71
203.78
199.81
199.77
202.35
204.54
203.14
196.09
183.47
167.27
150.38
135.09
122.11
110.28
97.19
80.48
58.94
33.21
5.30
-22.22
-47.52
-70.27
-91.76
-114.31
-140.61
-172.84
-211.91
-256.92
-304.64
-349.78
-386.04
-408.00
-413.18
-403.17
-383.00
-358.94
-335.69
-314.60
-293.72
-269.65
-240.03
-205.34
-169.13
-136.53
-112.31
-99.02
-96.03
-99.78
-104.59
-104.02
-92.63
-67.53
-29.76
15.49
59.81
93.90
110.47
106.58
84.42
50.11
11.21
-26.03
-58.39
-85.64
-109.29
-131.15
-152.29
-172.99
-192.88
-211.22
-226.61
-237.07
-240.37
-234.93
-221.00
-201.10
-179.67
-161.80
-151.63
-151.14
-159.80
-174.92
-192.55
-208.60
-219.69
-223.93
-221.14
-212.61
-200.33
-185.97
-170.17
-152.40
-131.43
-106.27
-76.96
-44.77
-11.84
19.69
48.46
74.38
98.59
123.26
151.15
185.01
226.42
274.32
323.87
366.61
392.71
394.46
369.76
323.51
266.09
209.49
163.10
131.17
113.14
105.80
105.82
110.96
119.81
130.66
140.96
147.88
149.62
146.34
139.89
132.86
127.01
122.41
117.65
110.75
100.27
85.94
68.72
50.60
34.39
23.16
19.59
25.15
39.45
60.14
83.46
105.34
122.54
133.45
137.83
135.89
127.74
113.54
94.11
71.74
49.97
32.61
22.59
20.19
22.71
25.77
25.51
20.67
12.89
5.57
1.96
4.59
13.88
27.90
43.29
56.51
64.65
65.67
58.40
42.99
22.68
2.30
-13.49
-22.03
-23.20
-19.59
-15.86
-17.51
-28.63
-47.89
-69.78
-86.90
-93.03
-84.81
-62.84
-31.43
2.60
19.91
6.40
-39.44
-105.13
-174.37
-236.53
-288.74
-332.14
-368.60
-398.43
-418.98
-427.83
-425.13
-415.86
-404.06
-392.82
-383.12
-374.13
-363.46
-347.50
-324.00
-293.40
-258.77
-223.46
-189.33
-155.16
-122.32
-90.08
-56.90
-22.30
12.48
44.80
72.41
94.55
112.46
128.53
145.71
165.97
189.16
213.32
235.48
253.45
266.80
276.95
286.52
299.01
317.47
343.65
376.88
413.23
445.60
465.03
463.70
438.26
392.26
335.24
279.28
234.41
204.94
188.88
180.19
172.78
163.75
154.39
148.51
149.74
159.34
175.35
193.41
208.23
215.26
211.95
198.06
175.32
146.61
114.93
82.69
51.50
22.30
-4.04
-26.54
-44.32
-57.22
-66.22
-73.61
-82.40
-95.47
-114.94
-142.00
-177.08
-219.74
-268.13
-318.40
-364.51
-399.32
-416.58
-412.79
-388.01
-345.10
-288.39
-222.91
-154.30
-89.51
-36.68
-3.74
4.08
-13.78
-53.06
-106.18
-164.61
-220.50
-266.93
-297.55
-306.84
-291.48
-252.28
-195.11
-129.67
-66.55
-13.85
24.61
49.08
62.11
66.65
65.16
59.71
52.65
46.81
45.07
49.50
60.64
77.49
97.68
118.50
137.65
154.00
167.69
179.78
191.49
203.02
212.63
216.64
210.59
191.16
157.67
112.81
62.29
13.43
-26.75
-53.54
-66.15
-66.98
-60.08
-49.17
-36.08
-20.41
-0.58
24.05
51.51
76.14
91.67
94.05
83.16
62.46
37.13
12.13
-9.13
-25.04
-36.74
-45.78
-53.80
-62.77
-75.53
-95.13
-122.96
-157.65
-194.90
-230.74
-261.18
-283.12
-294.75
-295.86
-287.39
-270.60
-247.36
-208.82
-154.71
-93.89
-39.95
-2.38
17.61
24.76
25.57
24.50
23.20
20.25
14.21
5.42
-3.57
-9.73
-12.18
-9.06
0.09
14.63
32.41
51.19
69.45
86.89
103.17
117.43
129.03
136.78
135.65
122.98
98.66
64.97
26.38
-12.64
-48.46
-77.58
-98.00
-109.91
-113.63
-109.84
-99.34
-81.96
-57.79
-27.30
9.73
52.51
99.39
148.55
198.07
242.46
278.15
302.71
307.95
289.97
249.38
191.53
124.73
56.72
-7.08
-62.74
-108.41
-143.72
-168.23
-182.87
-189.73
-191.43
-190.67
-190.22
-189.27
-185.51
-176.21
-158.35
-130.63
-93.84
-50.29
-3.15
42.94
84.58
119.66
147.74
170.24
189.35
206.81
222.36
232.66
231.79
213.90
175.97
120.50
56.16
-5.28
-53.18
-82.20
-93.76
-94.11
-90.51
-88.50
-90.59
-96.38
-103.40
-107.75
-104.90
-90.77
-63.74
-25.98
16.19
54.82
83.07
98.28
102.45
100.29
96.61
94.20
93.74
94.52
95.20
93.90
88.19
75.56
54.39
25.69
-6.57
-36.82
-59.80
-73.07
-77.91
-78.31
-78.44
-80.31
-82.80
-82.57
-76.19
-62.46
-43.55
-24.26
-10.10
-4.46
-7.41
-15.96
-26.24
-35.52
-43.29
-50.80
-59.34
-68.85
-77.68
-83.49
-84.68
-81.41
-75.19
-67.95
-61.21
-55.09
-48.34
-39.20
-26.38
-9.78
8.91
27.47
43.58
55.55
62.87
66.29
67.23
67.19
67.15
67.66
68.10
67.74
66.32
63.33
58.93
53.54
47.57
41.24
34.55
27.44
19.91
12.01
3.99
-3.71
-10.67
-16.57
-21.28
-24.81
-27.29
-28.89
-29.83
-30.27
-30.27
-29.87
-29.14
-28.20
-27.09
-25.87
-24.58
-23.29
-22.16
-21.16
-20.43
-20.16
-20.66
-22.20
-25.06
-29.34
-35.04
-41.98
-49.52
-57.04
-63.95
-69.85
-74.49
-77.84
-80.05
-81.37
-82.18
-82.36
-81.99
-81.24
-80.45
-79.96
-80.17
-81.31
-83.40
-86.30
-88.96
-90.57
-90.46
-88.35
-84.13
-77.80
-69.00
-56.40
-42.42
-26.90
-9.20
11.36
35.05
61.55
89.96
119.03
147.56
174.59
200.56
226.64
254.64
286.30
322.11
360.24
396.22
423.78
436.71
431.66
408.86
371.97
326.70
278.49
230.98
185.45
141.27
96.68
49.84
-0.91
-56.19
-114.48
-171.43
-220.20
-253.00
-263.43
-248.27
-208.08
-147.34
-73.42
4.23
74.93
128.27
156.13
154.67
125.30
74.39
11.31
-53.54
-110.34
-150.54
-167.25
-156.28
-118.13
-59.20
8.56
70.41
113.32
129.66
118.59
84.15
32.51
-30.25
-98.09
-163.56
-216.73
-245.92
-241.42
-200.02
-128.26
-42.30
36.60
88.68
102.15
76.40
21.60
-45.11
-105.37
-144.49
-154.27
-133.21
-85.11
-17.10
61.64
140.55
208.30
254.59
272.50
260.74
224.19
171.65
112.35
52.70
-4.40
-57.66
-104.75
-141.40
-163.55
-170.68
-168.12
-165.89
-174.42
-199.77
-241.37
-293.55
-349.16
-402.93
-452.04
-494.26
-525.77
-540.96
-534.63
-505.24
-456.64
-396.86
-334.81
-276.97
-225.71
-179.95
-137.46
-96.85
-58.22
-22.59
9.33
38.01
65.39
94.19
126.58
162.74
199.64
231.15
249.18
246.54
220.08
172.94
114.22
56.46
11.64
-12.21
-12.64
7.77
43.53
88.39
136.67
183.53
224.70
256.50
276.34
283.35
278.78
265.85
248.59
230.57
213.86
198.77
184.32
169.01
151.95
133.30
114.28
96.60
81.72
70.44
62.74
57.95
55.12
53.34
51.84
50.01
47.36
43.58
38.64
32.79
26.38
19.68
12.84
5.99
-0.51
-5.94
-9.40
-10.15
-8.12
-4.10
0.51
4.29
6.41
6.97
6.73
6.72
7.68
10.04
13.88
19.10
25.37
31.81
36.88
38.82
36.57
30.67
23.42
17.93
16.68
20.37
27.68
36.22
43.95
50.08
55.09
59.89
64.96
70.04
74.42
77.49
79.11
79.49
79.05
78.19
77.30
76.79
76.74
76.51
74.58
69.11
58.70
43.01
22.84
-0.56
-26.07
-53.36
-82.76
-114.77
-149.69
-187.83
-229.83
-276.53
-328.00
-381.84
-432.27
-470.62
-487.80
-477.65
-439.41
-378.25
-303.52
-225.75
-153.74
-93.10
-46.20
-12.99
8.19
20.34
27.41
33.62
42.32
55.08
71.51
89.88
108.05
123.90
135.94
143.43
146.56
146.45
144.81
143.20
142.34
141.71
139.86
135.43
128.06
118.79
109.44
101.56
95.52
90.62
85.84
80.41
74.30
67.86
61.33
54.66
47.64
40.13
32.36
24.88
18.29
12.97
8.93
5.76
2.94
0.04
-3.10
-6.35
-9.46
-12.25
-14.62
-16.60
-18.19
-19.35
-19.96
-19.94
-19.21
-17.76
-15.57
-12.61
-8.89
-4.45
0.54
5.82
10.99
15.67
19.50
22.25
23.78
24.03
23.07
21.04
18.14
14.54
10.38
5.79
0.94
-3.84
-8.05
-11.10
-12.51
-11.95
-9.36
-4.80
1.59
9.72
19.43
30.37
41.93
53.24
63.42
71.78
77.97
81.98
84.10
84.84
84.82
84.68
85.02
86.33
88.99
93.23
99.20
106.92
116.23
126.78
137.97
149.22
159.98
169.84
178.29
184.63
187.89
187.14
181.85
172.10
158.60
142.32
124.10
104.33
83.00
59.83
34.76
8.18
-19.25
-46.98
-74.79
-103.16
-132.87
-164.33
-196.54
-226.72
-250.98
-265.76
-269.26
-262.10
-246.77
-226.26
-202.99
-178.55
-154.57
-133.73
-120.00
-117.78
-130.21
-157.81
-198.36
-248.27
-304.22
-363.91
-425.43
-485.37
-537.68
-574.40
-588.04
-574.50
-535.28
-477.26
-410.13
-342.93
-281.21
-226.47
-177.33
-131.65
-88.05
-46.19
-6.10
32.72
71.27
110.35
149.54
186.88
219.50
244.91
262.35
273.14
279.80
284.47
287.82
288.91
286.21
278.78
266.82
251.43
233.96
215.46
196.67
178.48
162.19
149.33
141.00
137.18
136.54
136.94
136.31
133.38
127.93
120.50
111.85
102.66
93.35
84.07
74.65
64.81
54.22
42.77
30.67
18.55
7.34
-1.97
-8.65
-12.53
-14.10
-14.25
-13.86
-13.43
-12.92
-11.95
-10.22
-7.79
-5.00
-2.38
-0.23
1.47
3.00
4.72
6.86
9.37
11.93
14.13
15.64
16.42
16.64
16.65
16.77
17.16
17.80
18.42
18.62
17.88
15.75
11.91
6.27
-0.91
-9.11
-17.50
-25.15
-31.16
-34.83
-35.78
-34.03
-29.94
-24.16
-17.53
-10.93
-5.13
-0.66
2.24
3.58
3.53
2.35
0.31
-2.31
-5.24
-8.22
-10.96
-13.16
-14.53
-14.85
-14.03
-12.17
-9.59
-6.71
-3.99
-1.80
-0.35
0.33
0.36
-0.09
-0.76
-1.46
-1.94
-2.02
-1.62
-0.80
0.29
1.51
2.80
4.24
5.93
7.89
10.04
12.13
13.86
14.96
15.30
14.92
13.98
12.69
11.29
10.02
9.10
8.69
8.82
9.39
10.20
11.03
11.76
12.43
13.23
14.39
16.16
18.62
21.68
25.07
28.39
31.14
32.90
33.50
33.19
32.61
32.68
34.24
37.81
43.41
50.61
58.72
67.00
74.79
81.57
86.97
90.88
93.57
95.71
98.16
101.51
105.66
109.48
110.96
107.66
97.62
80.20
56.54
29.24
1.26
-25.23
-49.38
-71.29
-91.13
-108.13
-120.38
-125.46
-121.93
-110.61
-94.76
-78.83
-66.61
-59.79
-57.67
-58.10
-58.80
-58.35
-56.27
-52.62
-47.52
-41.49
-35.46
-31.10
-30.71
-36.22
-48.54
-66.56
-87.22
-106.70
-121.94
-131.33
-134.74
-133.12
-127.66
-119.70
-110.15
-99.34
-87.21
-74.12
-60.28
-45.45
-28.62
-7.88
18.05
49.75
86.64
126.53
164.44
195.63
218.04
233.37
247.00
262.97
283.91
310.61
341.45
369.83
388.77
393.64
383.26
361.05
327.97
285.82
238.27
189.24
137.29
80.67
20.05
-40.64
-93.02
-136.37
-172.69
-204.36
-234.67
-272.60
-324.52
-390.31
-462.95
-528.41
-582.89
-626.57
-660.51
-643.67
-550.70
-388.11
-193.82
-39.45
72.88
152.45
206.54
249.10
284.09
306.71
312.80
303.31
284.96
270.67
262.64
259.45
259.70
261.24
258.13
246.11
225.21
199.81
178.83
161.49
144.93
127.41
107.74
83.02
51.46
13.78
-26.81
-64.67
-102.77
-144.15
-189.05
-235.61
-282.16
-327.33
-369.48
-406.66
-436.57
-465.25
-497.20
-533.30
-572.13
-612.78
-655.32
-698.59
-738.26
-766.59
-782.43
-783.38
-766.54
-730.88
-679.40
-618.71
-555.45
-493.77
-393.79
-245.78
-70.41
94.98
222.96
306.71
353.10
373.57
378.41
374.54
358.93
331.13
293.38
251.57
212.02
178.46
152.23
133.05
119.74
105.68
87.41
66.39
44.95
26.92
14.44
7.89
6.59
9.26
11.20
9.51
4.11
-2.81
-8.42
-11.12
-10.43
-6.55
-0.07
6.63
11.97
15.56
18.19
21.18
25.36
31.16
38.71
47.89
57.72
67.29
76.01
83.79
91.11
98.56
106.86
116.64
128.33
141.87
156.79
172.40
188.06
203.59
219.14
235.16
252.26
271.19
292.71
317.26
344.31
371.89
396.49
413.78
419.96
413.21
394.42
366.82
334.68
301.81
270.51
241.63
215.12
190.85
168.91
149.44
132.22
116.54
101.36
85.87
69.87
53.92
39.06
26.36
16.41
9.08
3.66
-0.84
-5.32
-10.30
-15.82
-21.55
-27.02
-31.79
-35.58
-38.25
-39.77
-40.10
-39.31
-37.53
-35.08
-32.45
-30.23
-28.99
-29.12
-30.75
-33.64
-37.26
-40.97
-44.26
-46.90
-49.05
-51.18
-53.83
-57.28
-61.41
-65.70
-69.49
-72.25
-73.80
-74.36
-74.31
-73.99
-73.50
-72.77
-71.58
-69.73
-66.98
-63.10
-57.90
-51.38
-43.82
-35.88
-28.40
-22.06
-17.17
-13.47
-10.42
-7.44
-4.20
-0.61
3.28
7.47
12.12
17.37
23.04
28.52
32.84
35.01
34.45
31.23
26.07
19.95
13.71
7.79
2.24
-3.10
-8.25
-13.02
-17.06
-20.06
-21.99
-23.11
-23.84
-24.49
-25.13
-25.59
-25.62
-25.00
-23.61
-21.40
-18.34
-14.41
-9.64
-4.22
1.41
6.69
11.02
13.98
15.37
15.23
13.79
11.36
8.35
5.18
2.31
0.05
-1.45
-2.31
-2.83
-3.34
-4.10
-5.14
-6.32
-7.39
-8.14
-8.51
-8.50
-8.25
-7.90
-7.60
-7.46
-7.56
-7.94
-8.54
-9.29
-10.06
-10.83
-11.67
-12.71
-14.11
-15.86
-17.75
-19.31
-19.96
-19.28
-17.17
-13.88
-9.97
-6.05
-2.58
0.25
2.55
4.52
6.31
7.93
9.18
9.85
9.80
9.10
8.00
6.78
5.66
4.70
3.84
3.01
2.21
1.54
1.18
1.19
1.53
1.98
2.26
2.13
1.47
0.30
-1.24
-2.98
-4.80
-6.57
-8.18
-9.51
-10.47
-11.09
-11.49
-11.92
-12.59
-13.56
-14.60
-15.23
-14.95
-13.42
-10.64
-6.95
-2.85
1.16
4.74
7.76
10.17
11.95
13.11
13.66
13.70
13.35
12.77
12.06
11.25
10.40
9.63
9.14
9.12
9.66
10.61
11.73
12.77
13.57
14.10
14.39
14.43
14.13
13.43
12.47
11.54
10.95
10.74
10.50
9.49
6.90
2.30
-4.11
-11.54
-18.91
-25.21
-29.72
-31.99
-31.75
-28.82
-23.13
-14.89
-4.77
6.13
16.53
25.26
31.68
35.73
37.83
38.64
38.68
38.16
36.99
35.03
32.27
29.07
26.02
23.77
22.73
22.88
23.88
25.33
26.96
28.70
30.64
32.76
34.83
36.38
36.98
36.48
35.17
33.63
32.44
31.88
31.88
32.21
32.81
33.85
35.44
37.43
39.27
40.41
40.77
41.19
43.35
49.19
60.11
76.37
96.82
119.14
140.43
157.78
169.10
173.89
173.57
170.91
168.67
167.86
166.60
160.58
144.93
116.85
77.26
30.56
-17.15
-60.74
-97.88
-129.27
-157.53
-185.77
-216.59
-251.54
-290.77
-332.41
-372.08
-403.25
-418.70
-412.75
-383.72
-335.05
-274.27
-210.71
-152.96
-107.20
-76.84
-62.93
-64.82
-80.13
-104.61
-132.06
-155.07
-166.50
-161.11
-136.91
-95.45
-41.60
17.58
74.25
120.97
151.90
163.56
155.31
129.22
89.16
39.25
-17.63
-80.02
-147.03
-216.54
-283.37
-339.29
-375.46
-385.76
-369.74
-333.06
-285.15
-235.28
-189.15
-147.95
-109.47
-70.73
-30.02
12.56
55.51
96.97
135.27
168.88
196.18
215.57
225.88
226.86
219.59
206.26
189.73
172.88
158.10
147.04
140.36
137.71
137.81
138.79
138.74
136.38
131.35
124.24
116.17
108.32
101.36
95.32
89.79
84.23
78.30
71.94
65.39
59.02
53.18
48.03
43.53
39.47
35.49
31.26
26.55
21.38
16.02
10.83
6.08
1.89
-1.75
-4.88
-7.46
-9.39
-10.54
-10.93
-10.67
-10.02
-9.18
-8.24
-7.13
-5.70
-3.86
-1.60
0.94
3.67
6.51
9.50
12.74
16.20
19.68
22.77
25.00
26.04
25.87
24.83
23.44
22.19
21.27
20.62
19.89
18.71
16.76
13.97
10.55
6.88
3.47
0.72
-1.17
-2.32
-3.07
-3.88
-5.12
-6.93
-9.11
-11.17
-12.51
-12.50
-10.74
-7.15
-1.94
4.44
11.43
18.49
25.24
31.43
36.95
41.80
46.02
49.73
53.05
56.11
58.96
61.65
64.14
66.34
68.14
69.39
69.88
69.44
67.99
65.82
63.57
62.13
62.23
63.96
66.37
67.48
64.92
56.64
41.78
20.99
-3.81
-30.06
-55.34
-77.64
-95.51
-107.90
-114.12
-113.99
-107.92
-96.91
-82.45
-66.23
-49.83
-34.68
-22.15
-13.42
-9.50
-11.03
-18.23
-30.99
-49.08
-71.98
-98.64
-127.09
-154.38
-177.08
-191.97
-196.90
-190.96
-174.36
-147.95
-113.01
-71.34
-25.47
21.38
65.78
104.81
136.67
160.59
176.25
183.13
180.23
166.67
142.59
109.94
72.39
34.42
-0.16
-29.22
-52.40
-70.21
-82.72
-88.99
-87.53
-77.42
-59.33
-35.70
-9.72
16.06
40.71
64.46
87.40
108.15
123.68
130.35
125.74
110.19
86.86
60.57
35.96
16.09
1.93
-6.88
-11.12
-11.31
-7.60
-0.17
10.37
22.80
35.66
47.53
57.32
64.50
68.93
70.48
68.72
62.89
52.24
36.58
16.67
-5.75
-28.18
-48.28
-64.62
-77.04
-86.42
-93.78
-99.27
-101.91
-100.21
-93.26
-81.59
-67.10
-52.30
-39.35
-29.34
-22.51
-18.96
-19.30
-24.51
-35.55
-52.39
-73.52
-96.27
-117.68
-135.48
-148.71
-157.54
-162.50
-164.09
-162.70
-158.58
-152.19
-144.26
-135.86
-127.79
-119.90
-110.98
-99.37
-83.78
-64.12
-41.79
-19.30
0.81
16.93
29.02
38.88
49.68
65.22
89.07
123.60
169.11
223.03
279.76
331.94
372.48
396.88
404.32
396.85
377.54
348.89
312.30
268.40
218.45
165.02
111.82
62.36
18.61
-19.66
-54.40
-88.58
-125.51
-168.06
-217.83
-273.82
-331.18
-381.62
-415.90
-426.81
-411.53
-372.60
-316.43
-251.49
-186.64
-130.41
-90.98
-75.44
-87.80
-126.65
-184.08
-247.34
-303.02
-341.75
-360.66
-363.00
-354.63
-340.30
-321.39
-296.45
-263.56
-222.69
-176.45
-128.77
-83.48
-42.59
-5.83
28.45
61.61
93.76
124.07
151.69
177.71
204.08
232.91
265.11
299.82
333.98
363.17
383.33
392.32
391.13
381.72
366.00
345.68
322.94
300.38
280.61
265.73
256.32
251.86
248.50
240.19
221.11
188.54
143.18
88.08
27.66
-39.05
-105.65
-162.23
-201.11
-223.78
-236.29
-244.36
-253.38
-265.46
-282.43
-302.41
-321.07
-332.51
-331.26
-313.75
-280.57
-236.72
-189.42
-145.09
-106.08
-71.87
-40.37
-9.45
22.49
55.75
89.25
121.49
150.85
176.59
197.64
212.57
220.04
219.69
212.31
199.66
184.38
169.26
157.07
149.13
144.94
142.49
139.37
133.86
125.46
114.92
103.50
92.38
81.99
72.04
62.04
51.82
41.63
31.69
21.87
11.70
0.87
-10.32
-20.91
-29.61
-35.41
-38.08
-38.17
-36.64
-34.38
-31.98
-29.69
-27.53
-25.26
-22.60
-19.36
-15.66
-11.96
-9.02
-7.46
-7.43
-8.45
-9.71
-10.50
-10.62
-10.39
-10.27
-10.53
-11.00
-11.13
-10.40
-8.72
-6.46
-4.34
-3.01
-2.72
-3.32
-4.34
-5.31
-5.93
-6.20
-6.28
-6.32
-6.40
-6.47
-6.48
-6.40
-6.27
-6.16
-6.13
-6.25
-6.62
-7.42
-8.82
-10.87
-13.35
-15.84
-17.79
-18.70
-18.34
-16.81
-14.48
-11.86
-9.35
-7.10
-5.09
-3.19
-1.26
0.74
2.71
4.45
5.82
6.70
7.10
7.10
6.84
6.48
6.17
5.93
5.72
5.45
5.00
4.28
3.31
2.16
0.95
-0.19
-1.08
-1.50
-1.24
-0.23
1.35
3.08
4.40
4.78
3.89
1.77
-1.23
-4.55
-7.57
-9.72
-10.57
-9.91
-7.86
-4.82
-1.39
1.81
4.28
5.82
6.49
6.51
6.16
5.65
5.10
4.52
3.85
2.98
1.84
0.39
-1.27
-3.00
-4.53
-5.57
-5.89
-5.47
-4.51
-3.35
-2.35
-1.83
-1.89
-2.45
-3.23
-3.95
-4.38
-4.46
-4.25
-3.99
-3.95
-4.36
-5.26
-6.54
-7.88
-8.88
-9.12
-8.38
-6.64
-4.15
-1.30
1.50
3.88
5.65
6.82
7.50
7.80
7.83
7.67
7.43
7.19
6.99
6.85
6.65
6.27
5.59
4.68
3.68
2.80
2.16
1.76
1.56
1.47
1.45
1.46
1.47
1.46
1.43
1.38
1.33
1.35
1.50
1.83
2.36
3.02
3.69
4.17
4.25
3.84
3.08
2.40
2.38
3.51
6.01
9.75
14.34
19.15
23.46
26.77
28.90
30.01
30.44
30.66
31.15
32.26
33.88
35.52
36.65
37.06
36.92
36.71
37.06
38.69
42.14
47.21
53.09
58.78
63.64
67.49
70.41
72.60
74.20
75.13
74.46
70.65
62.13
47.82
27.03
-0.90
-36.45
-78.75
-122.05
-157.66
-178.62
-183.31
-174.66
-157.45
-136.25
-114.34
-93.44
-74.02
-56.47
-41.41
-29.48
-20.78
-14.61
-9.84
-5.19
0.41
7.47
15.56
23.62
30.59
35.89
39.82
43.16
46.87
51.72
58.10
65.17
72.52
79.45
85.18
89.50
92.56
94.74
96.40
97.91
99.40
100.95
102.73
104.61
106.83
109.83
114.04
119.89
127.63
137.30
148.82
162.04
176.02
190.11
203.64
215.94
226.29
233.74
237.03
234.15
227.87
218.65
206.83
192.74
176.82
159.60
141.67
123.70
106.40
90.49
75.93
62.81
51.28
41.36
33.04
26.21
20.71
16.29
12.70
9.07
4.83
-0.41
-6.86
-14.52
-23.25
-32.91
-43.54
-55.33
-68.95
-84.85
-103.22
-123.87
-146.02
-168.56
-190.16
-209.64
-226.13
-239.37
-249.46
-256.78
-261.88
-265.41
-268.28
-271.43
-275.68
-281.63
-289.71
-300.25
-314.12
-333.06
-359.01
-392.83
-432.52
-472.60
-505.26
-522.88
-520.81
-498.63
-459.78
-409.81
-354.59
-298.90
-246.15
-198.71
-158.07
-124.67
-97.29
-72.71
-46.23
-13.31
28.48
77.98
130.61
180.21
221.70
253.58
278.53
301.92
328.67
360.60
395.28
427.32
450.94
462.21
459.77
444.03
415.99
376.63
327.31
271.24
214.45
165.25
131.91
119.38
126.64
146.38
167.35
178.51
173.25
151.23
117.49
79.10
41.95
8.77
-20.36
-46.27
-69.44
-89.56
-106.50
-121.71
-139.03
-163.69
-199.86
-247.83
-301.88
-350.62
-380.66
-381.94
-352.43
-299.27
-235.55
-174.95
-126.96
-95.28
-79.39
-76.82
-84.53
-98.77
-114.80
-127.59
-134.22
-135.79
-137.26
-144.34
-158.92
-176.76
-189.09
-187.32
-168.55
-137.71
-104.32
-76.60
-57.38
-43.57
-29.61
-12.37
6.58
22.61
31.51
33.17
31.71
32.46
37.97
46.34
52.85
53.86
49.42
42.69
36.77
31.58
23.05
5.81
-22.69
-59.40
-96.45
-124.71
-138.01
-135.36
-121.10
-102.17
-85.18
-74.58
-72.10
-76.60
-84.50
-91.04
-91.92
-85.83
-75.92
-68.41
-69.35
-80.43
-97.09
-110.32
-111.38
-96.58
-69.11
-36.72
-6.85
17.79
39.69
63.63
92.24
123.35
151.37
171.03
180.46
181.57
177.46
170.35
160.71
147.91
131.76
113.33
93.99
74.66
55.97
38.73
25.25
19.18
23.78
39.25
61.43
83.43
99.17
106.43
107.44
106.73
107.54
110.03
111.81
110.13
103.80
93.06
78.32
59.27
35.37
7.59
-19.87
-39.99
-45.94
-33.99
-5.27
34.35
76.63
113.93
140.83
155.13
157.42
149.97
135.73
117.66
98.81
82.05
69.46
61.98
58.57
56.36
51.38
40.12
21.34
-2.59
-26.18
-43.00
-48.38
-41.68
-26.37
-8.59
5.14
9.82
3.21
-13.84
-37.87
-63.92
-87.30
-105.37
-117.97
-126.54
-132.90
-138.48
-144.54
-152.63
-164.31
-180.18
-198.61
-215.41
-225.14
-223.38
-208.63
-182.92
-150.86
-117.95
-89.22
-68.27
-57.29
-57.19
-67.06
-83.93
-103.25
-120.24
-131.78
-137.34
-138.31
-136.46
-132.67
-126.45
-116.63
-102.58
-84.69
-63.92
-40.78
-14.46
16.96
54.76
97.50
139.90
173.82
191.58
189.62
169.92
139.65
108.30
84.22
72.64
74.75
87.62
104.90
117.90
118.00
100.18
66.21
25.25
-9.37
-26.31
-21.82
-1.39
23.67
42.48
50.14
49.25
46.86
49.94
61.79
81.37
105.19
129.54
151.27
167.61
176.11
175.30
165.76
149.92
131.13
112.15
93.96
76.10
58.06
40.68
26.41
18.32
18.43
26.29
38.69
50.53
56.62
53.86
42.34
25.33
8.04
-4.52
-9.31
-6.47
1.18
9.89
16.97
22.16
27.57
36.41
51.07
71.98
97.30
123.93
148.98
170.73
188.97
204.49
218.24
230.31
239.65
244.70
244.32
238.68
229.17
218.09
207.88
200.33
196.16
194.96
195.64
196.93
197.75
196.99
193.21
184.31
168.31
144.48
114.29
81.11
48.51
18.44
-10.29
-41.20
-77.94
-121.86
-170.68
-219.13
-260.64
-289.39
-301.51
-295.67
-273.21
-238.63
-199.62
-166.00
-146.75
-146.20
-161.63
-184.20
-202.88
-209.54
-202.19
-184.14
-160.28
-133.30
-102.55
-66.42
-25.74
14.52
47.36
68.22
78.26
83.86
92.99
110.95
137.78
168.98
198.93
223.82
242.75
256.21
263.21
261.45
249.14
226.61
196.00
159.86
119.66
75.49
27.14
-25.67
-79.62
-126.64
-156.52
-162.33
-144.70
-112.66
-80.05
-59.95
-62.02
-87.98
-131.66
-182.78
-232.60
-277.23
-317.16
-354.11
-374.17
-365.06
-325.19
-265.99
-202.50
-145.29
-99.08
-64.58
-39.62
-20.27
-4.94
7.16
16.77
24.92
32.31
38.60
43.20
46.42
49.59
52.60
55.20
57.58
60.46
64.44
69.07
73.23
76.49
79.14
80.52
79.91
76.87
71.24
63.02
51.60
35.93
16.39
-4.39
-24.65
-42.63
-56.86
-68.19
-75.80
-80.27
-83.47
-85.90
-86.91
-85.71
-81.72
-75.04
-66.70
-58.09
-51.18
-48.98
-52.69
-62.22
-76.59
-93.57
-109.52
-119.73
-119.38
-97.96
-58.35
-10.09
35.13
68.10
85.15
88.26
82.75
74.28
66.18
57.88
48.77
39.09
30.12
23.60
20.59
20.81
22.80
24.51
23.30
18.71
11.94
4.95
-0.43
-3.33
-4.01
-3.60
-3.51
-5.50
-9.89
-15.99
-22.56
-28.47
-33.12
-36.47
-38.98
-41.15
-43.59
-46.09
-48.03
-48.55
-47.02
-43.31
-37.77
-31.19
-24.47
-18.66
-14.28
-11.53
-10.46
-10.96
-12.91
-16.13
-20.50
-25.85
-32.06
-38.60
-45.03
-51.02
-56.35
-60.90
-64.70
-67.94
-70.95
-74.31
-78.07
-82.47
-87.81
-94.35
-102.27
-111.57
-122.15
-133.81
-146.33
-158.62
-169.77
-178.99
-185.58
-188.85
-188.15
-182.54
-170.50
-155.70
-139.60
-123.38
-108.01
-94.22
-82.51
-73.17
-66.28
-61.81
-59.76
-59.23
-59.57
-60.25
-60.83
-61.03
-60.68
-59.77
-58.44
-56.97
-55.13
-52.84
-50.11
-46.97
-43.49
-39.79
-36.00
-32.32
-28.97
-25.80
-22.71
-19.66
-16.58
-13.49
-10.43
-7.46
-4.67
-2.17
0.16
2.42
4.71
7.09
9.58
12.08
14.48
16.64
18.50
20.20
21.96
24.02
26.59
29.68
33.13
36.65
39.94
42.89
45.66
48.66
52.40
57.27
63.39
70.48
78.02
85.49
92.66
99.77
107.44
116.48
127.49
140.58
155.30
170.85
186.40
201.48
216.11
230.78
246.30
263.62
283.73
307.29
334.09
362.46
389.08
409.55
419.61
416.73
401.15
375.81
345.24
313.84
284.61
258.68
235.82
215.35
196.81
180.15
165.31
151.88
139.00
125.70
111.37
96.02
80.34
65.37
52.04
40.79
31.42
23.26
15.50
7.62
-0.40
-8.10
-14.81
-20.02
-23.62
-26.04
-27.98
-30.17
-33.01
-36.44
-40.05
-43.27
-45.66
-47.01
-47.41
-47.17
-46.63
-46.15
-45.96
-46.19
-46.79
-47.55
-48.14
-48.14
-47.18
-45.08
-41.94
-38.07
-33.97
-30.10
-26.83
-24.35
-22.73
-21.93
-21.85
-22.30
-23.03
-23.67
-23.91
-23.55
-22.59
-21.30
-20.01
-19.05
-18.55
-18.43
-18.43
-18.30
-17.86
-17.16
-16.39
-15.83
-15.68
-16.03
-16.83
-17.93
-19.16
-20.38
-21.50
-22.39
-22.99
-23.26
-23.28
-23.25
-23.41
-23.96
-24.91
-26.02
-26.81
-26.75
-25.45
-22.86
-19.31
-15.38
-11.73
-8.87
-6.98
-5.97
-5.58
-5.52
-5.61
-5.74
-5.87
-5.97
-6.00
-5.95
-5.84
-5.73
-5.66
-5.68
-5.80
-5.99
-6.28
-6.64
-7.06
-7.50
-7.94
-8.37
-8.83
-9.37
-10.00
-10.68
-11.34
-11.86
-12.20
-12.37
-12.48
-12.63
-12.91
-13.34
-13.92
-14.61
-15.33
-15.98
-16.39
-16.34
-15.66
-14.28
-12.26
-9.82
-7.25
-4.85
-2.83
-1.30
-0.33
0.07
-0.12
-0.90
-2.11
-3.52
-4.75
-5.47
-5.49
-4.82
-3.69
-2.44
-1.41
-0.80
-0.65
-0.83
-1.23
-1.77
-2.45
-3.37
-4.57
-6.01
-7.56
-9.01
-10.13
-10.83
-11.10
-11.09
-10.92
-10.71
-10.46
-10.20
-9.97
-9.91
-10.17
-10.80
-11.66
-12.43
-12.65
-11.99
-10.35
-7.94
-5.17
-2.52
-0.35
1.16
2.01
2.30
2.13
1.57
0.73
-0.22
-1.08
-1.62
-1.73
-1.45
-0.98
-0.60
-0.54
-0.89
-1.59
-2.48
-3.41
-4.28
-5.04
-5.70
-6.31
-6.92
-7.65
-8.62
-9.94
-11.62
-13.51
-15.36
-16.85
-17.81
-18.20
-18.21
-18.11
-18.18
-18.60
-19.38
-20.38
-21.30
-21.70
-21.17
-19.42
-16.47
-12.66
-8.66
-5.18
-2.78
-1.62
-1.47
-1.84
-2.24
-2.41
-2.31
-2.12
-1.99
-1.95
-1.83
-1.33
-0.12
2.04
5.24
9.42
14.29
19.40
24.18
28.09
30.80
32.30
32.82
32.74
32.30
31.58
30.42
28.63
26.10
22.89
19.10
14.77
9.76
3.85
-3.18
-11.37
-20.55
-30.43
-40.66
-50.90
-60.69
-69.39
-76.07
-79.75
-79.68
-75.72
-68.47
-59.05
-48.74
-38.49
-28.79
-19.69
-11.18
-3.32
3.62
9.35
13.77
16.98
19.29
20.91
21.90
22.10
21.35
19.63
17.18
14.41
11.77
9.55
7.72
6.01
4.05
1.60
-1.33
-4.58
-7.97
-11.43
-15.09
-19.08
-23.46
-28.00
-32.28
-35.79
-38.07
-38.85
-38.00
-35.56
-31.67
-26.67
-20.99
-15.14
-9.54
-4.26
0.94
6.59
13.18
20.80
28.99
36.76
42.87
46.32
46.64
44.01
39.17
33.04
26.47
20.07
14.19
9.08
4.98
2.12
0.61
0.38
1.09
2.23
3.31
3.99
4.20
4.08
3.92
3.91
4.15
4.53
4.85
4.93
4.67
4.13
3.44
2.71
2.05
1.46
0.97
0.63
0.60
1.07
2.19
4.00
6.39
9.12
11.89
14.33
16.12
16.98
16.72
15.38
13.27
10.97
9.20
8.52
9.15
10.84
12.92
14.59
15.11
14.07
11.45
7.63
3.20
-1.10
-4.64
-7.03
-8.23
-8.55
-8.55
-8.75
-9.53
-10.96
-12.86
-14.96
-16.99
-18.81
-20.32
-21.51
-22.35
-22.87
-23.14
-23.27
-23.37
-23.47
-23.53
-23.46
-23.13
-22.47
-21.46
-20.11
-18.43
-16.45
-14.19
-11.74
-9.24
-6.86
-4.70
-2.83
-1.23
0.09
1.12
1.81
2.11
2.02
1.59
0.91
0.07
-0.88
-1.88
-2.84
-3.65
-4.24
-4.62
-4.87
-5.17
-5.61
-6.19
-6.79
-7.23
-7.40
-7.29
-7.01
-6.67
-6.38
-6.11
-5.84
-5.47
-4.87
-3.84
-2.14
0.44
3.94
8.21
12.87
17.42
21.43
24.64
27.02
28.71
29.86
30.58
30.84
30.56
29.63
28.04
25.80
23.00
19.74
16.11
12.21
8.11
3.88
-0.40
-4.67
-8.89
-13.03
-17.06
-20.90
-24.38
-27.27
-29.35
-30.47
-30.57
-29.76
-28.24
-26.27
-24.15
-22.14
-20.44
-19.12
-18.08
-17.09
-15.83
-14.02
-11.55
-8.49
-5.06
-1.56
1.74
4.68
7.19
9.22
10.74
11.67
11.97
11.67
10.86
9.71
8.38
6.96
5.50
4.03
2.64
1.48
0.71
0.43
0.58
0.95
1.25
1.23
0.78
-0.04
-1.04
-1.99
-2.73
-3.27
-3.71
-4.21
-4.86
-5.68
-6.59
-7.48
-8.23
-8.76
-9.02
-8.94
-8.47
-7.49
-5.94
-3.83
-1.22
1.88
5.45
9.45
13.72
17.97
21.82
24.84
26.70
27.31
27.21
27.14
27.73
29.20
31.30
33.50
35.21
36.03
35.99
36.17
37.81
41.66
47.59
54.55
61.16
66.17
68.87
69.48
69.99
72.62
78.69
87.79
97.92
106.46
111.05
110.44
104.85
97.01
90.03
86.09
85.71
87.99
91.39
93.87
92.82
77.56
41.59
-14.53
-81.56
-145.77
-194.89
-221.70
-225.06
-209.64
-184.33
-158.17
-138.56
-129.16
-129.24
-134.34
-138.36
-136.22
-126.01
-109.62
-90.40
-72.33
-58.70
-51.35
-50.55
-55.42
-64.40
-75.52
-86.26
-92.69
-90.73
-77.84
-54.82
-26.24
0.95
20.20
28.11
25.69
17.87
10.37
6.98
8.08
11.62
15.17
17.56
19.30
21.76
25.97
31.77
38.02
43.25
46.48
47.71
47.64
47.03
46.20
45.14
42.95
39.14
33.76
27.45
21.14
15.54
10.71
6.08
0.81
-5.64
-12.88
-19.63
-24.19
-25.17
-22.26
-16.41
-9.54
-3.74
-0.51
-0.04
-1.48
-3.25
-3.85
-2.53
0.40
3.75
5.86
4.80
-0.80
-11.64
-27.04
-44.51
-59.94
-68.69
-67.09
-54.21
-32.56
-7.40
14.77
28.73
32.35
27.02
16.54
5.42
-2.82
-6.45
-5.28
-0.50
6.23
13.15
18.69
21.67
21.60
18.81
13.65
8.39
5.55
6.75
11.91
19.23
26.19
30.60
31.21
27.64
19.94
7.87
-8.83
-29.52
-51.89
-71.90
-84.94
-87.82
-80.14
-64.51
-45.79
-29.03
-17.75
-13.01
-13.68
-17.40
-21.61
-24.04
-22.98
-17.52
-7.45
6.70
23.57
41.25
57.48
70.20
78.02
80.54
78.22
72.22
64.08
55.41
47.56
41.34
36.75
32.95
28.47
21.58
11.05
-3.27
-20.08
-36.94
-50.85
-59.04
-59.60
-51.83
-36.55
-16.00
6.31
26.26
40.08
45.42
42.15
32.42
19.73
7.62
-1.60
-7.48
-11.19
-14.57
-19.24
-25.92
-34.43
-43.93
-53.25
-61.10
-66.03
-66.50
-61.12
-49.11
-30.85
-8.17
15.92
38.01
55.34
66.52
71.76
72.43
70.20
66.32
61.18
54.52
45.79
34.75
21.80
8.01
-5.14
-16.23
-24.44
-29.76
-32.93
-34.94
-36.58
-38.10
-39.24
-39.57
-38.66
-36.16
-31.66
-24.61
-14.53
-1.45
13.71
29.06
42.12
50.45
52.24
46.97
35.55
20.39
4.90
-7.37
-13.88
-14.30
-10.94
-8.03
-9.66
-17.61
-30.26
-43.19
-51.39
-51.81
-44.65
-32.79
-19.90
-8.43
1.33
10.59
20.76
32.22
43.96
54.13
60.91
62.93
59.43
50.22
35.93
18.39
0.57
-13.94
-22.32
-23.94
-21.10
-18.32
-20.44
-30.24
-46.79
-65.72
-81.03
-87.81
-84.48
-73.21
-58.36
-44.02
-32.02
-21.67
-11.07
1.14
14.75
28.08
38.97
45.84
48.03
45.60
39.10
29.54
18.61
8.56
1.78
-0.22
2.49
8.16
14.13
17.95
18.31
15.38
10.46
5.31
1.72
0.95
3.49
9.01
16.44
24.19
30.65
34.53
35.19
32.74
27.81
21.32
14.12
6.85
-0.34
-7.65
-15.62
-24.82
-35.51
-47.43
-59.50
-69.95
-76.65
-77.75
-72.37
-61.00
-45.54
-28.77
-13.42
-1.31
7.09
12.48
16.16
19.25
22.33
25.44
28.40
31.13
33.67
36.02
37.92
38.79
38.06
35.49
31.47
26.97
23.30
21.71
23.05
27.63
35.00
43.93
52.48
58.34
59.44
54.54
43.58
27.68
8.62
-11.81
-32.31
-52.12
-70.69
-87.28
-100.66
-109.38
-112.23
-108.75
-99.48
-85.71
-69.10
-51.10
-32.78
-14.91
1.80
16.53
28.49
37.15
42.58
45.40
46.57
47.00
47.26
47.50
47.51
47.01
45.84
44.01
41.72
39.18
36.49
33.59
30.32
26.57
22.41
18.11
14.08
10.67
8.00
5.85
3.78
1.37
-1.62
-5.23
-9.31
-13.69
-18.22
-22.72
-26.81
-29.96
-31.61
-31.46
-29.69
-26.92
-23.92
-21.24
-18.98
-16.78
-14.12
-10.61
-6.19
-1.20
3.82
8.32
11.92
14.55
16.35
17.63
18.72
19.83
21.01
22.26
23.61
25.18
27.09
29.18
30.83
31.00
28.59
23.05
14.71
4.82
-4.86
-12.77
-18.03
-20.69
-21.46
-21.35
-21.24
-21.81
-23.38
-25.95
-29.03
-31.71
-32.75
-30.94
-25.64
-17.03
-6.14
5.58
16.69
26.15
33.49
38.71
42.18
44.53
46.52
48.95
52.36
56.79
61.68
66.08
69.20
70.87
71.80
73.28
76.49
81.64
87.56
91.80
91.41
83.99
68.48
45.62
17.73
-12.04
-40.50
-65.00
-83.67
-95.37
-99.84
-98.23
-93.67
-91.10
-96.04
-112.05
-138.31
-168.63
-193.14
-202.00
-189.60
-157.16
-112.07
-64.73
-24.21
4.67
21.79
30.04
32.66
31.62
27.46
20.37
11.35
2.46
-3.89
-6.23
-4.77
-1.46
1.07
0.82
-2.63
-8.09
-13.45
-16.79
-17.16
-14.80
-10.77
-6.31
-2.36
0.70
2.95
4.78
6.61
8.65
10.78
12.48
13.09
12.03
9.16
4.88
0.10
-4.05
-6.43
-6.10
-2.42
4.83
15.30
28.06
41.69
54.49
64.91
71.89
75.06
74.63
70.99
64.39
54.79
42.03
26.17
7.92
-11.29
-29.48
-44.77
-55.84
-62.31
-64.60
-63.55
-59.97
-54.48
-47.39
-39.00
-29.72
-20.03
-10.61
-2.09
5.07
10.75
15.20
19.09
23.28
28.59
35.38
43.18
50.73
56.40
58.91
57.91
54.30
49.89
46.66
46.04
48.29
52.56
57.31
60.87
61.93
59.62
53.45
43.07
28.35
9.38
-13.16
-37.92
-62.96
-85.90
-104.40
-116.57
-121.30
-118.51
-108.99
-94.29
-76.24
-56.74
-37.37
-19.36
-3.59
9.37
19.26
26.09
30.14
31.81
31.58
29.89
27.11
23.54
19.45
15.11
10.76
6.56
2.66
-0.74
-3.30
-4.48
-3.66
-0.26
6.00
15.00
26.09
38.27
50.28
60.90
69.09
74.18
75.96
74.68
70.85
65.05
57.70
48.96
38.79
27.25
14.63
1.61
-10.94
-22.23
-31.84
-39.81
-46.39
-51.86
-56.28
-59.60
-61.68
-62.56
-62.45
-61.63
-60.39
-58.87
-57.13
-55.25
-53.38
-51.81
-50.81
-50.56
-51.00
-51.86
-52.75
-53.17
-52.65
-50.72
-46.94
-40.98
-32.71
-22.32
-10.35
2.41
15.09
26.94
37.38
46.04
52.60
56.75
58.21
56.89
53.09
47.56
41.39
35.73
31.48
29.07
28.40
28.96
30.09
31.18
31.82
31.87
31.37
30.47
29.30
27.91
26.23
24.12
21.46
18.16
14.27
9.87
5.08
-0.06
-5.56
-11.44
-17.59
-23.67
-29.14
-33.38
-35.93
-36.63
-35.70
-33.61
-30.92
-28.12
-25.59
-23.62
-22.46
-22.31
-23.23
-25.03
-27.19
-28.99
-29.79
-29.20
-27.27
-24.44
-21.32
-18.48
-16.22
-14.54
-13.16
-11.71
-9.74
-6.81
-2.53
3.38
10.88
19.53
28.45
36.51
42.61
46.03
46.56
44.48
40.39
34.92
28.61
21.92
15.30
9.36
4.89
2.71
3.46
7.31
13.81
22.03
30.80
39.02
45.95
51.24
54.77
56.52
56.46
54.60
51.23
46.95
42.65
39.14
36.90
35.81
35.29
34.44
32.39
28.51
22.53
14.53
4.85
-5.95
-17.22
-28.23
-38.29
-46.86
-53.58
-58.36
-61.35
-62.93
-63.62
-63.92
-64.24
-64.81
-65.71
-66.98
-68.66
-70.73
-73.03
-75.13
-76.37
-76.03
-73.54
-68.67
-61.45
-52.13
-41.00
-28.45
-15.09
-1.76
10.44
20.48
27.73
32.15
34.30
35.06
35.28
35.50
35.97
36.73
37.79
39.18
40.93
42.93
44.90
46.50
47.40
47.49
46.84
45.64
43.98
41.77
38.77
34.77
29.89
24.56
19.51
15.43
12.72
11.32
10.77
10.42
9.64
8.06
5.60
2.54
-0.47
-2.51
-2.62
-0.05
5.37
13.19
22.44
31.95
40.75
48.22
54.10
58.32
60.87
61.77
61.11
59.10
55.94
51.75
46.46
39.96
32.20
23.47
14.31
5.42
-2.69
-9.94
-16.70
-23.65
-31.40
-40.25
-50.02
-60.21
-70.14
-79.26
-87.17
-93.64
-98.59
-102.05
-104.16
-105.10
-105.06
-104.11
-102.10
-98.67
-93.31
-85.51
-74.94
-61.56
-45.69
-27.98
-9.41
8.87
25.70
40.14
51.61
59.97
65.51
68.76
70.31
70.69
70.29
69.36
68.14
66.87
65.84
65.32
65.45
66.15
67.01
67.39
66.68
64.51
60.99
56.62
52.08
47.84
43.91
39.78
34.62
27.58
18.12
6.13
-8.03
-23.66
-39.83
-55.54
-69.86
-82.05
-91.69
-98.79
-103.63
-106.59
-107.92
-107.53
-105.03
-99.85
-91.60
-80.27
-66.37
-50.92
-35.18
-20.39
-7.55
2.72
10.14
14.67
16.44
15.69
12.82
8.46
3.38
-1.52
-5.43
-7.81
-8.50
-7.70
-5.85
-3.44
-0.80
1.93
4.80
7.88
11.19
14.62
17.99
21.17
24.15
26.96
29.65
32.09
33.99
34.93
34.49
32.39
28.64
23.49
17.42
11.01
4.85
-0.49
-4.59
-7.15
-8.12
-7.63
-6.02
-3.84
-1.80
-0.66
-1.13
-3.62
-8.17
-14.38
-21.49
-28.56
-34.67
-38.99
-40.88
-39.84
-35.63
-28.39
-18.73
-7.68
3.50
13.71
22.35
29.47
35.62
41.45
47.37
53.21
58.35
61.89
63.10
61.66
57.73
51.85
44.68
36.74
28.38
19.75
10.89
1.83
-7.49
-17.18
-27.38
-38.05
-48.83
-58.93
-67.37
-73.18
-75.76
-75.02
-71.27
-65.04
-56.84
-47.05
-36.03
-24.25
-12.33
-1.00
9.17
17.92
25.40
32.02
38.28
44.50
50.74
56.78
62.26
66.86
70.34
72.53
73.25
72.27
69.41
64.65
58.19
50.44
41.86
32.74
23.09
12.71
1.35
-11.03
-24.16
-37.47
-50.26
-61.88
-71.81
-79.73
-85.37
-88.51
-88.96
-86.52
-81.01
-72.29
-60.25
-44.97
-26.79
-6.45
14.87
35.75
54.75
70.70
82.82
90.64
94.01
92.96
87.72
78.74
66.74
52.56
37.10
21.19
5.63
-8.75
-21.06
-30.49
-36.50
-39.04
-38.56
-35.83
-31.60
-26.33
-20.09
-12.65
-3.78
6.52
17.86
29.42
40.10
48.81
54.67
57.20
56.34
52.28
45.25
35.35
22.58
6.95
-11.20
-31.05
-51.26
-70.18
-86.10
-97.58
-103.60
-103.69
-97.87
-86.56
-70.44
-50.37
-27.32
-2.27
23.69
49.32
73.23
93.86
109.78
119.85
123.48
120.67
111.94
98.07
79.86
58.05
33.36
6.67
-20.87
-47.89
-73.10
-95.50
-114.39
-129.17
-139.04
-142.85
-139.37
-127.78
-108.17
-81.82
-50.96
-18.26
13.74
42.99
67.91
87.15
99.51
103.92
99.79
87.37
67.73
42.37
12.57
-21.10
-58.52
-99.09
-140.67
-179.08
-208.76
-224.39
-222.53
-202.69
-167.18
-119.94
-65.34
-7.43
50.09
103.57
149.37
184.25
206.08
214.48
210.88
197.93
178.73
156.16
132.36
108.52
84.96
61.29
36.56
9.73
-20.06
-52.88
-87.32
-120.21
-146.95
-162.69
-164.04
-150.55
-125.11
-93.04
-60.12
-30.57
-6.01
14.33
32.34
49.62
66.60
82.62
96.66
108.00
116.43
121.91
124.18
122.40
115.35
101.88
81.44
54.39
21.89
-14.40
-52.57
-90.30
-124.72
-152.43
-170.08
-175.28
-167.49
-148.33
-120.97
-89.10
-55.69
-22.52
9.66
40.38
68.84
93.69
113.42
126.87
133.57
133.61
127.39
115.33
97.83
75.39
48.80
19.13
-12.38
-44.40
-75.57
-104.34
-128.79
-146.81
-156.42
-156.31
-146.22
-127.01
-100.39
-68.44
-33.25
3.20
39.00
72.22
100.98
123.66
139.25
147.41
148.43
142.89
131.39
114.51
92.83
67.18
38.79
9.22
-19.77
-46.42
-69.24
-87.07
-99.16
-105.13
-104.87
-98.51
-86.33
-68.69
-46.15
-19.67
9.22
38.31
64.91
86.23
100.00
104.93
100.86
88.64
69.69
45.51
17.50
-12.95
-44.20
-74.13
-100.14
-119.53
-130.23
-131.37
-123.59
-108.73
-89.18
-67.09
-43.81
-19.81
4.94
30.35
55.76
79.78
100.58
116.40
126.05
129.13
126.01
117.47
104.34
87.30
66.80
43.28
17.37
-9.93
-37.24
-63.01
-85.74
-104.18
-117.51
-125.26
-127.31
-123.79
-115.01
-101.38
-83.50
-62.12
-38.09
-12.48
13.48
38.39
60.77
79.23
92.70
100.61
102.90
100.02
92.68
81.69
67.87
51.99
34.93
17.68
1.40
-12.83
-24.13
-32.05
-36.59
-38.14
-37.20
-34.09
-28.75
-20.72
-9.36
5.79
24.52
45.76
67.61
87.83
104.26
115.35
120.38
119.17
111.86
98.58
79.48
54.76
24.81
-9.54
-47.01
-85.65
-122.86
-155.45
-180.17
-194.44
-197.17
-189.25
-173.22
-152.39
-129.46
-105.66
-80.63
-53.35
-23.37
8.19
38.58
64.25
82.03
90.19
88.56
78.17
60.35
36.33
7.17
-25.65
-59.81
-92.03
-118.38
-135.13
-139.64
-130.93
-109.97
-79.35
-42.61
-3.16
36.34
74.23
109.39
140.53
165.65
182.15
187.76
181.40
163.85
137.35
104.66
67.90
28.13
-14.13
-57.94
-100.88
-139.05
-167.85
-183.58
-184.69
-172.20
-148.97
-118.33
-82.83
-43.82
-1.96
41.80
85.40
125.58
158.71
181.89
193.81
194.85
186.49
170.54
148.63
122.12
92.28
60.67
28.94
-1.66
-30.66
-58.40
-85.75
-113.21
-140.07
-164.20
-182.37
-191.50
-189.82
-177.43
-155.96
-127.74
-94.99
-59.67
-23.88
9.69
37.80
57.55
67.63
69.07
64.83
58.62
53.22
49.59
46.90
43.57
38.58
32.21
25.87
21.39
20.33
23.29
29.81
38.62
48.04
56.59
63.36
68.04
70.78
71.83
71.34
69.46
66.43
62.82
59.34
56.48
53.96
50.48
44.18
33.48
18.15
-0.29
-18.97
-34.81
-45.74
-51.50
-53.41
-53.48
-53.40
-53.85
-54.54
-54.72
-53.79
-51.69
-48.81
-45.62
-42.39
-39.09
-35.54
-31.62
-27.41
-23.14
-19.03
-14.95
-10.44
-4.81
2.46
11.39
21.39
31.43
40.46
47.74
53.04
56.51
58.53
59.43
59.49
58.89
57.80
56.35
54.60
52.49
49.85
46.55
42.64
38.52
34.79
32.08
30.77
30.71
31.28
31.43
30.00
25.99
18.82
8.44
-4.59
-19.16
-33.87
-47.27
-58.23
-66.20
-71.30
-74.22
-75.91
-77.22
-78.66
-80.23
-81.49
-81.79
-80.51
-77.30
-72.24
-65.85
-58.80
-51.79
-45.22
-39.26
-33.93
-29.30
-25.58
-22.95
-21.45
-20.83
-20.45
-19.49
-17.09
-12.68
-6.09
2.37
11.92
21.57
30.27
37.26
42.16
45.08
46.49
46.93
46.84
46.42
45.70
44.64
43.27
41.63
39.74
37.50
34.73
31.27
27.24
22.98
19.00
15.71
13.18
11.15
9.26
7.35
5.67
4.86
5.61
8.22
12.38
17.16
21.35
23.88
24.16
22.13
18.20
12.95
6.82
0.02
-7.49
-15.72
-24.50
-33.35
-41.60
-48.55
-53.84
-57.45
-59.65
-60.81
-61.15
-60.73
-59.43
-57.10
-53.69
-49.28
-44.14
-38.70
-33.50
-29.08
-25.86
-24.01
-23.39
-23.60
-24.17
-24.73
-25.06
-25.00
-24.30
-22.50
-19.07
-13.52
-5.76
3.79
14.20
24.29
32.96
39.50
43.77
46.08
47.03
47.24
47.12
46.87
46.49
45.90
45.04
43.91
42.51
40.83
38.86
36.58
34.03
31.32
28.65
26.26
24.36
23.01
22.07
21.16
19.75
17.31
13.60
8.78
3.43
-1.74
-6.10
-9.43
-11.89
-13.95
-16.09
-18.58
-21.40
-24.20
-26.50
-27.73
-27.44
-25.36
-21.49
-16.11
-9.75
-3.05
3.38
9.08
13.77
17.29
19.52
20.43
20.07
18.65
16.53
14.22
12.20
10.86
10.38
10.68
11.51
12.53
13.41
13.96
14.08
13.77
13.03
11.74
9.65
6.49
2.15
-3.22
-9.02
-14.45
-18.66
-21.12
-21.81
-21.23
-20.24
-19.77
-20.62
-23.21
-27.57
-33.30
-39.61
-45.43
-49.55
-50.94
-49.04
-43.90
-36.23
-27.20
-18.07
-9.94
-3.52
0.92
3.45
4.39
4.17
3.29
2.24
1.45
1.20
1.56
2.36
3.26
3.81
3.70
2.82
1.38
-0.19
-1.41
-1.92
-1.66
-0.97
-0.50
-0.99
-3.03
-6.79
-11.83
-17.12
-21.30
-23.09
-21.73
-17.37
-11.00
-4.24
1.24
4.28
4.59
2.85
0.40
-1.25
-0.87
2.15
7.73
15.21
23.59
31.76
38.77
43.92
46.93
47.88
47.17
45.37
43.03
40.56
38.16
35.91
33.81
31.85
30.05
28.34
26.64
24.90
23.11
21.44
20.12
19.34
19.10
19.19
19.18
18.59
17.06
14.50
11.04
7.01
2.79
-1.29
-5.01
-8.26
-11.00
-13.28
-15.20
-16.96
-18.82
-20.98
-23.41
-25.68
-26.99
-26.38
-23.21
-17.43
-9.76
-1.41
6.40
12.85
17.73
21.23
23.57
24.65
24.04
21.26
16.03
8.58
-0.40
-9.97
-19.18
-27.26
-33.66
-38.06
-40.28
-40.33
-38.44
-35.08
-30.86
-26.38
-22.15
-18.57
-16.05
-15.09
-16.27
-20.12
-26.91
-36.39
-47.64
-59.20
-69.35
-76.54
-79.80
-78.89
-74.23
-66.67
-57.20
-46.67
-35.73
-24.86
-14.43
-4.79
3.70
10.72
16.12
19.94
22.55
24.56
26.82
30.13
35.00
41.36
48.54
55.44
60.86
63.93
64.32
62.27
58.38
53.31
47.53
41.30
34.68
27.73
20.64
13.78
7.62
2.67
-0.77
-2.69
-3.39
-3.41
-3.40
-3.88
-5.13
-7.18
-9.90
-13.06
-16.37
-19.51
-22.07
-23.64
-23.88
-22.66
-20.05
-16.32
-11.81
-6.84
-1.70
3.25
7.53
10.63
12.14
12.00
10.58
8.66
7.12
6.69
7.73
10.17
13.61
17.46
21.12
24.09
26.08
26.95
26.71
25.45
23.26
20.19
16.27
11.66
6.70
1.89
-2.17
-5.06
-6.76
-7.66
-8.43
-9.70
-11.76
-14.43
-17.23
-19.65
-21.40
-22.56
-23.44
-24.30
-25.17
-25.84
-25.96
-25.30
-23.86
-21.89
-19.73
-17.60
-15.55
-13.41
-10.88
-7.73
-3.90
0.49
5.20
10.05
15.05
20.32
25.97
31.81
37.18
41.16
42.83
41.75
38.17
32.96
27.24
21.98
17.71
14.50
12.02
9.77
7.13
3.43
-1.90
-9.14
-17.99
-27.45
-35.95
-41.71
-43.35
-40.33
-33.23
-23.52
-13.08
-3.43
4.75
11.69
18.15
24.76
31.46
37.38
41.18
41.65
38.25
31.32
21.97
11.75
2.39
-4.47
-7.47
-5.93
-0.20
8.09
16.40
22.04
23.17
19.64
12.93
5.43
-0.55
-3.74
-4.08
-2.34
0.46
3.55
6.47
8.96
10.72
11.47
11.08
9.65
7.42
4.49
0.69
-4.36
-10.92
-18.78
-27.23
-35.27
-41.94
-46.60
-48.96
-48.92
-46.52
-41.91
-35.40
-27.56
-19.23
-11.33
-4.62
0.38
3.58
5.18
5.60
5.30
4.63
3.77
2.65
1.19
-0.59
-2.38
-3.67
-3.93
-2.87
-0.56
2.63
6.19
9.75
13.11
16.26
19.22
21.96
24.31
25.95
26.43
25.21
21.81
15.96
7.78
-2.22
-13.15
-24.03
-34.03
-42.69
-49.87
-55.63
-59.89
-62.28
-62.15
-58.79
-51.80
-41.40
-28.53
-14.60
-1.07
10.91
20.67
27.93
32.64
34.83
34.70
32.68
29.49
26.01
22.91
20.43
18.35
16.22
13.57
10.18
6.02
1.20
-4.11
-9.44
-13.96
-16.58
-16.26
-12.53
-5.93
2.14
9.93
16.04
19.93
21.91
22.69
22.88
22.55
21.35
18.84
14.81
9.35
2.70
-4.81
-12.79
-20.54
-27.09
-31.38
-32.74
-31.24
-27.73
-23.38
-18.93
-14.25
-8.40
-0.39
10.04
22.07
33.95
43.87
50.68
54.24
55.06
53.75
50.55
45.38
38.20
29.44
20.08
11.32
3.96
-1.80
-6.34
-10.19
-13.62
-16.64
-19.17
-21.35
-23.61
-26.40
-29.72
-32.93
-34.97
-34.80
-32.04
-27.11
-20.94
-14.58
-8.82
-3.93
0.11
3.31
5.58
6.73
6.63
5.50
3.91
2.62
2.14
2.56
3.41
4.01
3.80
2.62
0.78
-1.29
-3.19
-4.78
-6.02
-6.78
-6.76
-5.65
-3.32
0.00
3.73
7.15
9.76
11.43
12.45
13.25
14.13
14.92
15.06
13.74
10.42
5.16
-1.35
-8.08
-14.14
-19.14
-23.23
-26.78
-29.95
-32.57
-34.21
-34.53
-33.47
-31.14
-27.50
-22.17
-14.56
-4.38
7.78
20.34
31.18
38.48
41.53
40.93
38.07
34.34
30.42
26.15
20.89
14.23
6.35
-1.93
-9.62
-16.00
-20.84
-24.37
-26.94
-28.74
-29.66
-29.43
-27.77
-24.47
-19.43
-12.65
-4.30
5.20
14.97
23.74
30.08
32.86
31.70
27.14
20.31
12.46
4.44
-3.45
-11.24
-18.82
-25.68
-31.07
-34.45
-35.81
-35.67
-34.51
-32.49
-29.25
-24.42
-18.08
-11.09
-4.60
0.67
4.96
9.50
15.67
24.19
34.54
45.26
54.64
61.54
65.63
67.12
66.24
62.92
56.95
48.22
37.12
24.65
12.11
0.76
-8.58
-15.63
-20.55
-23.76
-25.74
-26.95
-27.70
-28.16
-28.40
-28.43
-28.39
-28.51
-29.14
-30.52
-32.55
-34.61
-35.71
-34.79
-31.16
-24.88
-16.80
-8.28
-0.79
4.49
6.96
6.73
4.51
1.46
-1.15
-2.33
-1.75
0.03
1.81
2.33
0.82
-2.54
-6.82
-10.82
-13.65
-15.00
-14.97
-13.65
-10.78
-5.81
1.71
11.61
22.89
33.92
42.95
48.64
50.47
48.73
44.11
37.21
28.42
17.81
5.51
-7.90
-21.18
-32.80
-41.48
-46.83
-49.35
-50.01
-49.55
-48.01
-44.80
-39.20
-31.07
-21.06
-10.39
-0.15
9.11
17.49
25.39
33.05
40.29
46.52
50.94
52.89
52.07
48.49
42.44
34.40
24.88
14.32
3.21
-7.77
-17.71
-25.46
-30.04
-30.99
-28.64
-24.07
-18.70
-13.72
-9.73
-6.65
-4.07
-1.58
0.92
3.34
5.46
7.23
8.80
10.42
12.34
14.75
17.75
21.34
25.37
29.42
32.78
34.60
34.15
31.06
25.46
17.88
9.10
-0.03
-8.63
-15.83
-20.89
-23.34
-23.17
-20.84
-17.16
-13.01
-9.03
-5.59
-2.83
-0.79
0.55
1.31
1.71
2.07
2.65
3.59
4.82
6.18
7.45
8.30
8.28
6.86
3.56
-1.69
-8.42
-15.81
-22.95
-29.22
-34.41
-38.41
-40.92
-41.33
-38.95
-33.59
-25.88
-17.18
-8.97
-2.22
2.97
7.15
10.98
14.67
17.93
20.39
22.02
23.38
25.31
28.38
32.42
36.51
39.41
40.18
38.59
35.06
30.31
24.85
18.79
11.92
4.04
-4.71
-13.66
-21.83
-28.28
-32.46
-34.45
-34.86
-34.57
-34.45
-35.03
-36.38
-38.11
-39.52
-39.89
-38.74
-36.02
-32.08
-27.47
-22.61
-17.56
-12.04
-5.70
1.51
9.05
15.83
20.61
22.52
21.47
18.09
13.41
8.44
3.85
0.06
-2.62
-3.88
-3.39
-1.10
2.71
7.33
11.94
15.76
18.32
19.44
19.19
17.93
16.29
15.09
15.13
16.76
19.52
22.19
23.21
21.37
16.42
9.33
1.94
-3.62
-5.53
-2.84
4.46
15.38
28.25
41.06
51.90
59.40
62.99
62.78
59.21
52.54
42.78
29.96
14.82
-0.85
-14.33
-22.87
-24.86
-20.53
-11.84
-1.44
8.48
16.99
24.29
30.89
36.87
41.63
44.36
44.69
43.13
40.82
38.94
38.02
37.75
37.25
35.56
32.25
27.52
22.06
16.73
12.25
8.93
6.56
4.44
1.59
-3.01
-10.10
-19.88
-31.87
-44.92
-57.40
-67.52
-73.77
-75.41
-72.76
-67.12
-60.43
-54.64
-51.17
-50.60
-52.61
-56.14
-59.61
-61.19
-59.12
-52.11
-39.75
-22.70
-2.64
18.16
37.54
53.90
66.44
75.03
79.96
81.64
80.50
76.97
71.43
64.26
55.83
46.57
36.96
27.46
18.43
9.93
1.72
-6.53
-14.94
-23.15
-30.30
-35.31
-37.40
-36.47
-33.22
-28.86
-24.72
-21.81
-20.74
-21.83
-25.23
-31.08
-39.36
-49.69
-61.23
-72.72
-82.85
-90.64
-95.65
-98.00
-98.11
-96.40
-93.08
-88.15
-81.53
-73.35
-63.99
-54.13
-44.56
-36.04
-29.05
-23.82
-20.25
-17.99
-16.63
-15.74
-15.00
-14.27
-13.61
-13.21
-13.31
-14.07
-15.48
-17.29
-19.05
-20.19
-20.13
-18.41
-14.77
-9.30
-2.39
5.28
12.85
19.45
24.43
27.44
28.53
28.06
26.54
24.53
22.51
20.89
19.93
19.71
20.09
20.71
21.09
20.80
19.70
18.06
16.42
15.36
15.15
15.60
16.10
16.02
14.99
13.20
11.25
9.84
9.44
9.96
10.93
11.80
12.21
12.19
12.06
12.31
13.42
15.78
19.64
25.08
32.01
39.96
48.08
55.12
59.75
61.04
58.75
53.50
46.40
38.50
30.30
21.66
12.01
1.04
-10.83
-22.30
-31.58
-37.21
-38.64
-36.48
-32.06
-26.76
-21.42
-16.26
-11.10
-5.92
-1.14
2.46
4.13
3.67
1.71
-0.61
-2.13
-2.27
-1.35
-0.38
-0.58
-2.77
-6.89
-11.95
-16.38
-18.55
-17.35
-12.44
-4.29
6.08
17.33
28.08
36.99
43.02
45.53
44.52
40.55
34.50
27.16
18.95
9.91
0.08
-10.03
-19.22
-25.84
-28.42
-26.36
-20.28
-11.84
-3.09
4.17
9.00
11.34
11.76
11.03
9.83
8.59
7.54
6.79
6.41
6.40
6.59
6.66
6.01
3.96
-0.05
-6.14
-13.77
-21.74
-28.40
-32.13
-31.86
-27.43
-19.67
-10.06
-0.30
8.18
14.55
18.55
20.42
20.60
19.63
18.01
16.27
14.88
14.26
14.67
16.12
18.35
20.85
23.06
24.49
24.81
23.89
21.76
18.50
14.26
9.20
3.57
-2.38
-8.48
-14.74
-21.27
-28.10
-34.86
-40.74
-44.62
-45.51
-42.96
-37.24
-29.22
-19.96
-10.35
-0.93
8.06
16.50
24.29
31.26
37.37
42.59
46.74
49.35
49.53
46.09
37.99
24.73
6.83
-14.03
-35.29
-54.15
-68.45
-77.38
-81.60
-82.81
-82.83
-82.71
-82.17
-79.89
-74.22
-64.15
-49.90
-32.89
-15.24
0.99
14.27
23.96
30.19
33.58
34.94
34.97
34.25
33.27
32.51
32.24
32.43
32.63
32.15
30.42
27.30
23.31
19.36
16.37
14.91
15.08
16.67
19.34
22.63
25.77
27.70
27.23
23.56
16.88
8.43
0.07
-6.61
-10.87
-13.04
-14.04
-14.67
-15.08
-14.81
-13.23
-10.13
-6.03
-1.85
1.43
3.26
3.74
3.38
2.86
2.60
2.63
2.67
2.39
1.61
0.38
-1.15
-2.95
-5.25
-8.43
-12.72
-17.82
-22.81
-26.36
-27.30
-25.03
-19.89
-12.92
-5.50
1.23
6.65
10.70
13.65
15.85
17.51
18.65
19.20
19.07
18.31
17.11
15.80
14.74
14.22
14.34
14.96
15.73
16.31
16.44
16.11
15.58
15.28
15.62
16.81
18.70
20.86
22.66
23.45
22.70
20.15
15.76
9.69
2.35
-5.64
-13.39
-19.91
-24.29
-26.05
-25.35
-22.86
-19.52
-16.07
-12.83
-9.78
-6.90
-4.54
-3.47
-4.48
-7.77
-12.52
-16.96
-19.11
-17.68
-12.60
-5.06
3.26
10.99
17.61
23.37
28.73
33.81
38.11
40.77
41.04
38.72
34.29
28.66
22.75
17.20
12.16
7.44
2.77
-2.00
-6.81
-11.36
-15.17
-17.72
-18.55
-17.32
-13.98
-8.74
-2.11
5.19
12.39
18.83
24.10
28.03
30.63
31.98
32.14
31.14
28.97
25.66
21.32
16.17
10.49
4.57
-1.40
-7.36
-13.44
-19.73
-26.17
-32.36
-37.57
-40.93
-41.59
-39.04
-33.23
-24.71
-14.60
-4.49
3.96
9.43
11.39
10.20
6.90
2.66
-1.63
-5.56
-8.95
-11.61
-13.01
-12.52
-9.68
-4.70
1.54
7.74
12.62
15.38
15.81
14.20
11.13
7.22
3.03
-1.07
-4.91
-8.51
-12.05
-15.65
-19.32
-22.87
-26.04
-28.61
-30.53
-31.82
-32.43
-32.13
-30.45
-26.95
-21.38
-13.93
-5.21
3.96
12.73
20.44
26.65
31.11
33.67
34.27
32.94
29.81
25.15
19.39
13.15
7.21
2.36
-0.77
-1.84
-0.97
1.28
4.01
6.21
7.08
6.23
3.55
-0.78
-6.33
-12.51
-18.78
-24.87
-30.70
-36.19
-40.88
-44.16
-45.54
-44.85
-42.50
-39.63
-37.58
-37.14
-37.88
-38.08
-36.20
-31.85
-26.03
-20.32
-16.06
-13.66
-12.57
-11.94
-10.99
-10.04
-9.59
-8.96
-5.47
5.82
27.82
58.27
90.14
116.60
133.12
138.48
133.79
121.19
102.60
79.51
54.87
29.03
4.05
-18.15
-36.09
-49.14
-57.26
-60.74
-60.16
-56.17
-49.79
-39.48
-25.98
-11.02
3.40
15.76
25.20
31.20
33.59
32.51
28.99
23.58
16.72
8.73
0.15
-8.37
-16.33
-23.18
-28.38
-31.02
-31.34
-30.40
-29.55
-29.45
-29.78
-29.73
-28.21
-24.21
-16.91
-7.12
2.91
10.12
11.72
5.48
-10.26
-36.03
-70.59
-106.02
-130.89
-136.38
-122.38
-95.72
-64.48
-34.63
-9.25
10.96
26.78
38.85
47.31
52.30
54.77
56.60
59.08
62.99
68.34
74.63
80.50
84.33
84.97
82.27
76.65
68.55
58.46
47.03
35.04
22.61
10.67
0.70
-5.79
-8.17
-6.86
-2.78
2.70
8.56
14.06
19.27
25.20
32.50
40.78
48.87
56.04
61.59
65.39
67.15
67.13
66.44
65.13
62.20
56.38
47.90
36.47
21.82
2.50
-22.54
-52.84
-80.11
-93.89
-88.02
-63.54
-29.06
7.68
41.49
67.16
89.67
111.07
130.41
144.68
152.89
150.36
136.84
112.99
81.95
53.57
34.85
29.38
25.85
22.35
11.83
-3.27
-23.19
-47.07
-73.93
-104.72
-139.78
-177.90
-215.15
-256.09
-303.90
-358.31
-414.09
-465.25
-509.15
-545.59
-575.70
-557.24
-474.29
-345.76
-210.58
-96.02
-8.98
54.53
101.28
136.89
165.90
183.53
186.95
178.36
164.80
153.08
146.84
147.13
153.34
164.27
171.84
170.81
160.24
143.34
123.93
104.53
86.52
70.42
57.60
44.23
27.54
7.56
-13.25
-32.55
-49.55
-64.28
-76.27
-83.47
-84.23
-76.01
-57.10
-28.54
4.82
35.86
58.46
70.12
72.49
68.89
62.93
56.78
50.89
44.81
38.30
32.09
27.50
25.42
25.52
26.47
26.56
24.38
19.70
13.31
6.61
0.94
-2.98
-5.29
-6.70
-8.06
-9.86
-11.86
-13.53
-14.03
-12.73
-9.53
-4.88
0.44
5.59
9.99
13.45
16.13
18.35
20.49
22.75
25.19
27.83
30.58
33.33
35.90
38.05
39.46
39.88
39.20
37.58
35.45
33.43
32.05
31.59
31.98
32.89
33.86
34.53
34.78
34.87
35.23
36.46
39.31
44.31
51.38
59.40
66.12
68.71
64.86
53.86
37.07
17.56
-1.16
-16.30
-26.68
-32.61
-35.15
-35.41
-33.75
-30.64
-26.77
-22.97
-19.64
-16.41
-12.17
-5.71
3.44
14.59
26.08
36.15
43.67
48.44
50.88
51.36
50.09
47.17
42.95
38.18
33.92
30.87
29.02
27.53
25.12
20.60
13.31
3.34
-8.55
-21.17
-33.19
-43.44
-51.03
-55.38
-56.12
-53.13
-46.54
-36.90
-25.15
-12.60
-0.56
10.04
18.90
26.22
32.16
36.40
37.98
35.86
29.46
18.98
5.20
-11.25
-30.59
-53.85
-82.02
-114.65
-148.62
-178.56
-198.57
-204.55
-195.77
-174.81
-146.13
-114.31
-83.50
-57.38
-40.64
-38.43
-54.17
-86.52
-127.54
-163.85
-181.30
-171.36
-133.70
-77.27
-15.63
38.84
79.05
104.09
117.48
123.36
123.37
118.23
106.96
89.18
66.03
39.84
13.45
-9.99
-28.37
-42.10
-51.27
-57.64
-62.85
-67.91
-73.15
-78.50
-83.03
-81.24
-80.88
-82.07
-84.63
-86.09
-82.37
-69.45
-45.20
-9.32
35.15
81.63
124.72
159.95
186.01
204.19
217.14
219.43
208.65
187.90
163.75
142.98
127.48
116.10
106.62
97.48
88.42
81.42
78.12
77.58
77.22
72.99
61.91
43.01
17.80
-10.34
-36.37
-56.19
-68.48
-74.13
-76.35
-77.19
-77.66
-77.62
-76.23
-72.02
-64.30
-53.87
-42.49
-31.98
-23.15
-15.81
-9.03
-2.00
5.65
13.32
19.72
23.64
24.66
23.47
21.17
18.75
16.66
14.64
12.36
9.52
6.12
2.47
-0.90
-3.60
-5.54
-6.89
-7.99
-9.09
-10.25
-11.29
-11.81
-11.35
-9.62
-6.72
-3.15
0.29
2.81
3.90
3.51
2.10
0.40
-0.91
-1.45
-1.26
-0.66
-0.10
0.09
-0.29
-1.26
-2.84
-5.14
-8.32
-12.49
-17.53
-23.01
-28.26
-32.57
-35.48
-36.92
-37.24
-36.94
-36.49
-36.13
-35.85
-35.51
-35.01
-34.36
-33.58
-32.65
-31.34
-29.29
-26.21
-22.05
-17.14
-12.10
-7.69
-4.49
-2.69
-2.08
-2.19
-2.48
-2.60
-2.46
-2.19
-2.00
-2.08
-2.50
-3.23
-4.16
-5.15
-6.05
-6.66
-6.77
-6.18
-4.73
-2.38
0.71
4.17
7.39
9.74
10.67
9.89
7.55
4.17
0.51
-2.64
-4.62
-5.05
-3.77
-0.83
3.63
9.38
16.10
23.30
30.37
36.67
41.66
45.08
47.03
47.90
48.16
48.15
47.90
47.20
45.83
43.70
40.96
37.91
34.84
31.88
28.98
26.06
23.12
20.32
17.87
15.92
14.47
13.32
12.21
10.92
9.39
7.66
5.85
4.13
2.61
1.39
0.49
-0.21
-0.88
-1.79
-3.14
-4.96
-7.01
-8.83
-9.88
-9.72
-8.19
-5.42
-1.81
2.18
6.18
9.96
13.47
16.74
19.81
22.65
25.14
27.16
28.63
29.64
30.31
30.82
31.22
31.39
31.13
30.22
28.58
26.25
23.40
20.15
16.54
12.54
8.03
2.95
-2.72
-8.91
-15.56
-22.48
-29.35
-35.62
-40.62
-43.71
-44.61
-43.51
-41.06
-38.20
-35.84
-34.53
-34.34
-34.87
-35.45
-35.45
-34.55
-32.81
-30.62
-28.41
-26.50
-25.00
-23.85
-22.97
-22.24
-21.54
-20.68
-19.41
-17.55
-15.22
-12.82
-10.90
-9.83
-9.49
-9.39
-8.86
-7.60
-5.83
-4.18
-3.30
-3.40
-4.10
-4.65
-4.34
-2.97
-1.03
0.44
0.38
-1.87
-6.20
-11.83
-17.57
-22.35
-25.58
-27.26
-27.80
-27.68
-27.01
-25.59
-22.95
-18.82
-13.37
-7.31
-1.58
3.00
6.03
7.51
7.61
6.38
3.67
-0.60
-6.07
-11.67
-15.84
-17.11
-14.76
-9.22
-1.92
5.39
11.37
15.56
18.32
20.36
22.27
24.20
25.90
27.02
27.35
27.01
26.28
25.44
24.57
23.53
22.06
20.00
17.39
14.52
11.78
9.46
7.62
6.06
4.48
2.57
0.17
-2.70
-5.94
-9.39
-12.83
-15.94
-18.29
-19.49
-19.25
-17.57
-14.71
-11.05
-7.02
-2.91
1.17
5.15
8.95
12.46
15.45
17.76
19.30
20.04
20.03
19.37
18.17
16.56
14.66
12.55
10.39
8.36
6.61
5.26
4.32
3.64
3.07
2.50
1.95
1.54
1.43
1.66
2.18
2.83
3.42
3.82
3.98
3.93
3.72
3.44
3.20
3.14
3.39
4.04
5.08
6.42
7.92
9.40
10.72
11.80
12.64
13.28
13.72
13.98
14.00
13.71
13.11
12.19
11.05
9.77
8.46
7.21
6.12
5.31
4.93
5.02
5.53
6.27
6.96
7.36
7.33
6.91
6.27
5.59
5.04
4.66
4.38
4.09
3.71
3.27
2.87
2.68
2.80
3.35
4.31
5.70
7.56
9.98
13.11
17.15
22.18
28.21
35.12
42.62
50.29
57.53
63.71
68.23
70.73
71.11
69.61
66.69
62.81
58.30
53.24
47.45
40.66
32.65
23.40
13.15
2.24
-8.93
-20.06
-30.93
-41.33
-50.96
-59.48
-66.50
-71.76
-75.28
-77.34
-78.32
-78.61
-78.45
-77.88
-76.92
-75.60
-74.09
-72.60
-71.33
-70.32
-69.53
-68.78
-67.85
-66.49
-64.46
-61.56
-57.74
-53.17
-48.31
-43.75
-40.02
-37.31
-35.41
-33.77
-31.84
-29.25
-26.00
-22.30
-18.40
-14.46
-10.55
-6.77
-3.30
-0.40
1.79
3.32
4.48
5.65
7.08
8.80
10.58
12.16
13.31
13.96
14.04
13.44
12.06
9.81
6.77
3.13
-0.80
-4.69
-8.27
-11.56
-14.75
-17.95
-21.08
-23.64
-25.02
-24.41
-21.02
-14.55
-5.48
5.03
15.61
25.23
33.76
41.77
50.50
61.20
74.31
88.94
103.09
114.32
120.34
119.52
110.59
93.49
69.89
43.25
18.02
-1.89
-14.93
-23.07
-28.40
-34.79
-45.59
-60.86
-76.34
-86.25
-86.77
-77.59
-60.84
-38.97
-13.70
14.44
44.56
75.09
103.68
127.69
145.59
156.52
160.69
159.30
154.86
149.39
145.05
143.59
145.22
147.98
148.10
141.67
126.07
101.35
67.69
26.31
-19.29
-65.20
-108.62
-148.32
-183.68
-213.87
-237.68
-256.99
-274.13
-291.13
-309.60
-330.80
-355.83
-385.44
-419.91
-440.09
-433.22
-395.17
-330.30
-247.24
-155.22
-63.67
17.93
82.04
125.55
147.76
152.34
145.94
134.63
121.74
108.02
93.40
78.62
65.77
55.75
47.93
42.39
39.18
37.95
38.17
39.55
42.24
46.83
52.46
57.93
63.36
69.37
77.14
88.03
103.02
122.06
143.85
165.76
179.59
181.14
169.97
149.32
124.62
101.38
83.34
71.64
64.98
60.94
58.10
55.81
53.95
52.28
50.43
48.12
45.39
42.61
39.97
38.00
37.04
37.11
37.61
37.97
37.93
37.67
37.74
38.55
40.31
43.22
47.15
51.02
53.48
53.31
49.81
42.93
32.91
20.08
5.36
-10.67
-29.09
-51.77
-80.16
-114.00
-149.07
-176.41
-192.65
-198.17
-192.32
-177.71
-158.37
-138.06
-119.31
-103.34
-90.90
-83.08
-79.92
-80.28
-82.43
-83.67
-81.24
-73.39
-60.19
-43.51
-26.44
-11.13
1.84
13.02
24.00
36.62
52.05
70.15
89.31
106.85
120.39
128.38
130.01
125.42
115.37
100.96
83.39
63.87
43.53
23.45
4.13
-14.97
-34.95
-56.52
-78.96
-99.54
-114.20
-119.03
-111.99
-93.85
-68.01
-38.96
-10.73
14.14
34.58
50.28
61.01
66.54
67.04
63.51
57.78
51.80
46.93
43.33
40.11
36.02
30.14
22.49
13.97
5.94
-0.32
-4.08
-5.33
-4.64
-2.83
-0.62
1.60
3.70
5.79
8.03
10.54
13.36
16.40
19.51
22.45
24.95
26.75
27.68
27.76
27.12
25.96
24.46
22.70
20.68
18.35
15.71
12.80
9.72
6.55
3.42
0.43
-2.35
-4.87
-7.16
-9.27
-11.29
-13.30
-15.31
-17.32
-19.22
-20.88
-22.11
-22.76
-22.76
-22.21
-21.33
-20.36
-19.51
-18.85
-18.35
-17.89
-17.42
-16.92
-16.44
-16.04
-15.74
-15.56
-15.55
-15.79
-16.35
-17.24
-18.32
-19.37
-20.17
-20.59
-20.64
-20.42
-19.95
-19.18
-17.91
-15.89
-12.95
-9.10
-4.55
0.35
5.22
9.70
13.50
16.36
18.09
18.53
17.61
15.46
12.45
9.19
6.45
4.90
4.88
6.25
8.43
10.80
12.96
15.02
17.36
20.35
23.98
27.79
31.20
33.92
36.18
38.63
41.84
45.91
50.28
54.02
56.19
56.21
53.96
49.68
43.79
36.73
29.03
21.29
14.13
7.96
2.80
-1.94
-7.33
-14.55
-24.32
-36.33
-49.01
-60.04
-67.30
-69.81
-68.10
-63.81
-58.51
-52.89
-46.46
-38.31
-28.17
-17.18
-7.58
-1.79
-1.27
-6.04
-14.87
-25.88
-37.03
-46.40
-52.44
-54.22
-51.73
-45.74
-37.48
-28.00
-17.78
-6.80
4.92
16.95
28.41
38.41
46.52
52.80
57.21
59.19
57.57
51.33
40.63
27.32
14.42
4.96
0.86
2.40
8.49
17.36
27.29
37.11
46.17
54.13
60.64
65.18
66.97
65.22
59.59
50.48
38.78
25.04
8.70
-11.81
-37.99
-69.57
-103.46
-134.15
-155.69
-164.12
-159.03
-143.37
-121.73
-98.43
-76.22
-56.22
-38.64
-23.52
-11.04
-1.20
6.37
12.42
17.71
22.78
27.73
32.34
36.20
38.86
39.96
39.31
36.96
33.28
28.90
24.57
20.96
18.50
17.14
16.46
15.75
14.43
12.28
9.55
6.72
4.24
2.25
0.60
-0.86
-2.09
-2.83
-2.72
-1.66
0.11
1.97
3.26
3.52
2.77
1.34
-0.34
-1.96
-3.48
-5.01
-6.77
-8.84
-11.21
-13.68
-15.93
-17.58
-18.25
-17.68
-15.82
-12.83
-9.00
-4.66
-0.09
4.49
8.84
12.68
15.71
17.63
18.34
17.97
16.83
15.32
13.75
12.33
11.13
10.16
9.39
8.75
8.20
7.67
7.17
6.70
6.26
5.89
5.62
5.57
5.91
6.78
8.15
9.77
11.22
12.08
12.20
11.74
11.15
10.89
11.14
11.72
12.13
11.90
10.76
8.85
6.53
4.22
2.26
0.81
-0.06
-0.35
-0.15
0.20
0.14
-0.91
-3.19
-6.52
-10.29
-13.83
-16.73
-18.97
-20.80
-22.51
-24.15
-25.59
-26.76
-27.83
-29.00
-30.30
-31.27
-31.11
-28.90
-23.95
-16.24
-6.45
4.28
14.84
24.58
33.31
41.06
47.77
53.52
58.09
60.90
61.12
58.28
52.72
45.51
37.97
31.00
25.32
20.97
17.56
14.58
12.11
10.85
11.51
14.00
17.07
19.80
21.93
24.27
28.21
35.13
45.46
57.90
69.37
71.18
57.00
26.71
-12.16
-49.00
-75.89
-89.92
-92.31
-86.37
-76.01
-63.58
-50.50
-37.73
-26.52
-18.00
-12.60
-10.03
-8.98
-9.12
-9.52
-9.25
-7.57
-4.65
-1.19
2.00
4.42
6.11
7.34
9.16
12.65
18.50
26.11
34.00
40.57
43.28
41.08
33.90
22.81
8.09
-8.27
-24.24
-38.75
-51.60
-62.23
-68.80
-69.16
-62.31
-49.85
-35.80
-25.55
-23.18
-29.70
-42.29
-56.39
-67.81
-73.97
-73.81
-67.18
-54.71
-37.87
-19.20
-2.21
9.44
13.36
8.72
-2.18
-14.77
-24.48
-28.81
-27.98
-24.08
-19.40
-15.27
-11.72
-7.80
-2.64
3.86
11.06
18.14
24.63
30.77
36.87
43.06
49.29
55.51
61.59
67.46
72.95
77.84
81.97
84.82
85.73
84.57
81.97
79.02
76.61
74.87
73.16
70.75
66.74
60.70
53.11
45.08
37.48
30.24
22.48
11.41
-2.34
-15.75
-26.13
-33.34
-39.28
-46.03
-54.57
-64.57
-75.09
-84.33
-92.14
-100.83
-114.02
-133.74
-157.74
-178.88
-187.55
-176.20
-143.46
-96.11
-46.31
-5.80
19.48
31.01
35.14
38.51
44.16
50.97
55.44
55.05
50.36
44.76
42.00
43.73
48.61
53.40
55.03
52.09
45.33
37.18
30.47
27.13
27.38
29.93
32.70
33.83
32.41
28.72
23.96
19.60
16.57
14.95
14.03
12.75
10.40
6.86
2.61
-1.50
-4.78
-6.92
-8.08
-8.70
-9.21
-9.89
-10.74
-11.60
-12.23
-12.46
-12.23
-11.58
-10.60
-9.34
-7.85
-6.14
-4.20
-1.96
0.64
3.67
7.04
10.48
13.62
16.08
17.67
18.51
18.94
19.30
19.68
19.76
18.99
16.84
13.02
7.63
1.07
-6.14
-13.52
-20.66
-27.26
-33.17
-38.40
-43.26
-48.24
-53.84
-60.25
-67.13
-73.61
-78.47
-80.56
-79.00
-73.46
-64.06
-51.44
-36.61
-20.89
-5.75
7.43
17.62
24.35
27.72
28.31
26.93
24.40
21.50
18.88
16.97
15.98
15.81
16.07
16.21
15.71
14.28
12.04
9.48
7.30
6.10
6.11
6.99
8.00
8.25
7.09
4.40
0.61
-3.42
-6.71
-8.44
-8.15
-5.85
-2.01
2.56
6.83
9.84
11.04
10.38
8.40
5.93
3.93
3.18
4.25
7.48
12.91
20.34
29.15
38.37
46.82
53.39
57.42
58.87
58.26
56.44
54.18
51.95
49.76
47.33
44.31
40.55
36.23
31.91
28.26
25.81
24.76
24.84
25.36
25.39
23.88
19.81
12.48
1.69
-12.11
-27.68
-43.33
-57.31
-68.28
-75.66
-79.67
-81.08
-80.81
-79.60
-77.82
-75.53
-72.57
-68.72
-63.76
-57.48
-49.77
-40.62
-30.23
-19.08
-7.93
2.28
10.69
16.80
20.62
22.67
23.70
24.32
24.77
24.87
24.22
22.53
19.83
16.55
13.37
10.97
9.84
10.20
11.96
14.81
18.22
21.53
24.08
25.39
25.28
23.89
21.52
18.43
14.71
10.27
5.08
-0.74
-6.76
-12.48
-17.52
-21.87
-25.88
-30.08
-34.89
-40.37
-46.10
-51.20
-54.47
-54.60
-50.56
-41.93
-29.36
-14.63
-0.33
10.91
17.30
18.58
16.03
11.90
8.49
7.27
8.61
11.87
15.98
19.99
23.32
25.74
27.27
28.03
28.17
27.95
27.82
28.24
29.60
32.07
35.51
39.60
43.91
48.09
51.95
55.40
58.34
60.58
61.87
61.95
60.63
57.76
53.11
46.35
37.22
25.78
12.71
-0.77
-13.26
-23.77
-32.18
-39.07
-45.20
-50.82
-55.38
-57.78
-57.13
-53.34
-47.30
-40.47
-34.29
-29.72
-27.10
-26.36
-27.25
-29.59
-33.22
-37.81
-42.84
-47.63
-51.57
-54.15
-54.89
-53.43
-49.58
-43.59
-36.07
-27.82
-19.41
-11.01
-2.23
7.62
19.04
31.86
45.10
57.25
67.04
73.99
78.16
80.24
81.15
81.71
82.18
82.13
80.74
77.51
72.68
66.41
59.11
51.48
44.45
38.88
35.16
33.35
33.51
35.93
39.62
43.15
45.44
46.34
46.35
45.70
44.07
40.75
35.00
24.56
7.29
-17.74
-49.66
-86.80
-128.10
-173.46
-223.03
-264.89
-285.94
-278.69
-246.98
-201.90
-154.08
-110.20
-73.08
-42.76
-17.78
1.98
15.97
23.91
26.84
26.92
26.34
26.58
28.57
32.59
37.14
40.35
41.03
39.64
37.66
36.60
37.28
39.91
44.06
48.32
51.29
52.30
51.45
49.90
48.38
46.50
43.60
38.52
30.31
18.78
4.63
-9.81
-23.44
-35.01
-43.46
-47.92
-48.61
-46.85
-44.72
-44.32
-46.11
-49.15
-51.34
-52.14
-51.70
-52.92
-59.55
-73.36
-92.11
-108.90
-114.83
-102.55
-70.00
-21.68
33.17
84.26
123.68
146.87
152.61
141.33
115.84
81.60
46.91
20.93
10.12
14.96
28.91
40.75
39.25
21.52
-6.02
-32.52
-49.62
-56.11
-57.02
-59.71
-65.69
-71.51
-70.22
-55.85
-27.36
10.42
48.33
75.75
86.76
82.10
67.52
50.78
37.77
30.54
27.77
26.58
24.71
21.42
17.33
13.24
9.74
6.87
4.21
1.55
-0.78
-1.16
2.10
10.49
23.18
36.35
43.67
39.45
22.41
-2.32
-24.49
-33.31
-22.78
5.02
41.44
75.06
97.64
107.24
107.65
105.16
105.06
109.84
119.41
132.08
144.96
154.40
156.21
146.72
123.90
88.00
40.66
-16.31
-78.02
-138.93
-192.88
-233.01
-252.43
-245.93
-212.06
-153.91
-78.42
5.50
88.33
161.32
217.07
249.95
257.40
240.78
205.54
160.13
113.27
70.81
34.80
4.07
-24.15
-52.96
-85.07
-122.12
-163.64
-206.16
-243.44
-267.73
-272.64
-255.57
-218.39
-166.15
-104.35
-37.11
32.56
100.76
161.01
204.56
223.29
213.39
177.72
125.07
66.53
11.28
-36.24
-76.32
-112.12
-146.99
-183.30
-222.61
-266.32
-315.56
-369.76
-425.06
-474.02
-507.51
-517.88
-502.30
-464.06
-411.11
-352.74
-296.12
-244.29
-196.58
-150.43
-103.63
-55.52
-7.05
40.30
85.30
127.62
167.84
207.08
246.63
287.65
331.49
379.47
432.22
488.42
543.93
591.99
624.91
636.79
625.74
594.54
549.33
496.97
442.67
389.11
337.21
287.36
240.64
198.50
161.84
130.08
101.03
71.19
36.80
-4.93
-54.59
-109.16
-161.53
-201.51
-218.80
-207.21
-168.09
-111.05
-51.05
-3.23
22.29
22.84
2.21
-33.07
-77.13
-126.63
-180.20
-236.63
-293.76
-349.01
-400.84
-449.81
-498.03
-547.13
-595.61
-637.75
-664.98
-669.37
-646.96
-599.73
-534.77
-461.60
-388.92
-322.55
-264.90
-215.75
-173.45
-135.95
-100.73
-65.00
-26.36
16.19
61.84
108.06
152.19
192.22
227.13
258.03
288.38
322.39
363.34
411.55
463.04
510.20
543.34
552.31
532.04
485.29
420.88
350.03
282.16
221.96
170.05
123.94
77.62
26.60
-29.30
-87.36
-142.53
-188.58
-219.42
-229.49
-216.18
-184.14
-140.36
-90.14
-37.19
17.36
74.22
124.91
157.84
181.99
200.31
202.80
184.74
145.76
89.29
20.91
-53.70
-128.86
-199.48
-264.03
-319.98
-362.00
-385.69
-389.52
-375.82
-349.81
-316.31
-277.97
-237.49
-195.55
-150.92
-103.42
-54.54
-6.83
37.51
78.16
116.94
155.15
194.04
234.58
275.69
314.61
347.68
371.71
384.72
387.47
382.25
373.10
365.13
362.31
366.26
374.55
381.75
380.12
364.08
331.56
284.59
228.47
169.15
111.96
58.89
10.07
-37.16
-83.98
-130.58
-176.61
-220.77
-260.48
-290.11
-304.38
-298.65
-273.03
-229.10
-170.69
-102.85
-29.56
47.13
128.04
203.46
273.99
328.78
359.42
362.44
340.19
300.53
243.73
181.87
131.12
102.07
90.25
85.81
83.80
82.79
85.38
91.71
101.26
110.42
115.22
111.72
100.56
85.44
70.16
57.28
47.24
40.23
34.39
27.50
17.25
4.31
-8.90
-20.19
-28.47
-34.25
-38.15
-41.90
-47.21
-55.39
-65.86
-76.91
-87.06
-95.70
-103.41
-111.00
-119.69
-130.36
-143.25
-157.53
-171.95
-185.84
-199.59
-214.74
-233.15
-256.43
-285.21
-318.68
-355.00
-391.66
-426.54
-458.31
-486.60
-511.78
-535.23
-558.78
-584.20
-612.18
-641.16
-666.50
-680.78
-675.99
-646.67
-593.05
-520.98
-439.85
-359.13
-285.30
-220.49
-163.00
-109.22
-55.97
-2.44
50.75
102.87
153.78
203.58
252.25
299.76
346.12
391.25
433.11
471.15
507.58
545.93
587.54
629.21
663.68
682.11
677.64
643.61
581.01
499.74
414.37
336.75
272.12
220.27
178.46
143.84
107.03
61.96
9.66
-43.77
-93.38
-138.11
-179.07
-217.76
-255.10
-301.70
-364.99
-443.29
-527.55
-609.33
-684.64
-752.39
-812.18
-800.50
-685.51
-491.37
-279.24
-96.23
42.51
141.29
210.38
259.75
297.14
317.94
318.55
303.45
283.57
268.18
261.04
261.85
268.74
279.57
284.72
277.18
257.56
232.48
208.11
186.98
169.02
153.25
138.82
122.61
101.14
75.60
50.59
30.27
16.18
8.02
4.74
5.24
6.30
5.06
1.48
-2.89
-6.47
-8.65
-9.39
-8.77
-8.49
-8.36
-8.97
-10.00
-11.17
-12.09
-12.44
-11.67
-9.21
-4.63
2.08
10.37
19.81
28.89
36.35
41.73
45.61
49.12
53.32
58.54
64.52
70.86
75.32
75.56
69.86
57.21
36.26
9.41
-23.00
-61.04
-94.42
-115.43
-121.87
-117.49
-107.66
-96.09
-84.17
-72.46
-60.92
-49.35
-39.17
-31.62
-27.14
-24.77
-23.24
-21.36
-18.78
-15.40
-11.22
-7.52
-5.43
-5.31
-6.42
-7.86
-8.82
-9.10
-8.74
-7.90
-7.45
-8.15
-10.29
-13.20
-16.26
-18.99
-21.26
-23.19
-24.97
-26.86
-28.86
-32.15
-34.51
-34.54
-31.47
-25.44
-17.33
-8.45
-0.09
6.88
11.96
16.00
19.79
23.87
28.14
31.77
33.76
33.45
31.00
26.91
23.12
21.14
21.83
24.77
28.54
31.30
31.21
26.69
16.06
-0.16
-19.78
-38.72
-51.79
-54.37
-44.27
-22.97
8.64
40.83
63.95
72.94
68.73
56.20
40.85
26.22
13.36
1.87
-9.28
-19.32
-26.68
-30.33
-30.61
-29.16
-28.17
-29.27
-32.93
-38.96
-45.80
-51.64
-55.43
-57.29
-58.31
-60.08
-63.64
-69.24
-76.71
-84.94
-92.61
-98.73
-102.77
-104.69
-104.80
-103.47
-99.70
-92.50
-81.00
-64.74
-43.91
-19.22
7.87
35.28
61.51
84.11
102.12
115.20
123.39
126.97
126.66
124.82
120.75
114.49
106.39
97.06
86.98
76.60
66.31
56.98
48.90
41.96
36.54
32.89
31.42
32.24
35.29
37.61
39.89
42.41
44.83
46.93
48.29
48.80
48.29
46.61
43.66
39.96
35.60
30.57
25.18
19.57
14.27
9.62
5.82
2.89
1.12
0.27
-0.15
0.76
1.52
1.52
0.27
-2.53
-7.14
-13.22
-20.69
-29.45
-39.42
-50.66
-62.85
-75.80
-89.30
-103.19
-116.57
-128.90
-139.68
-148.59
-155.48
-160.15
-162.59
-163.04
-162.03
-159.26
-154.86
-149.07
-142.25
-134.86
-127.18
-119.59
-112.51
-106.60
-101.46
-97.14
-93.79
-91.47
-90.03
-88.82
-86.57
-80.99
-77.13
-76.10
-78.28
-83.60
-91.67
-101.84
-113.27
-125.00
-136.18
-146.27
-153.91
-158.49
-159.83
-157.90
-152.62
-143.87
-131.56
-115.81
-96.91
-74.98
-51.25
-27.51
-5.30
14.72
32.86
50.13
67.68
86.36
106.32
126.16
143.70
157.06
165.63
170.40
173.56
177.54
184.60
195.20
207.60
218.66
225.73
227.96
226.61
224.49
225.20
234.43
255.80
289.01
329.14
367.68
394.18
398.44
373.21
317.72
243.46
166.38
101.63
59.38
43.67
52.96
81.58
121.36
165.54
216.75
276.53
342.06
406.54
463.41
510.23
549.29
585.66
626.68
686.73
770.70
869.71
964.06
1032.90
1063.41
1054.14
1012.57
892.04
682.22
412.12
136.96
-96.76
-270.33
-386.60
-450.93
-482.68
-493.98
-483.57
-452.76
-409.24
-365.66
-332.29
-313.74
-309.55
-317.66
-333.91
-347.91
-353.73
-351.83
-347.45
-345.84
-349.08
-356.35
-366.21
-375.91
-379.23
-373.14
-359.02
-341.59
-325.61
-313.72
-306.25
-302.35
-299.51
-293.15
-280.44
-261.46
-239.02
-217.10
-199.25
-188.14
-185.60
-191.87
-205.64
-225.48
-250.61
-280.95
-316.64
-357.33
-402.41
-451.37
-503.35
-556.37
-606.38
-646.97
-670.48
-670.36
-643.51
-592.67
-526.13
-454.89
-388.58
-332.61
-287.72
-251.57
-221.16
-192.95
-165.40
-138.74
-113.41
-88.50
-61.92
-31.71
2.66
39.89
80.41
122.83
163.90
200.40
231.52
259.29
286.80
316.29
348.19
386.07
430.17
476.42
519.06
554.65
583.33
607.22
628.71
649.90
678.71
718.61
765.22
807.84
834.74
837.27
811.41
758.53
646.01
472.53
269.97
83.90
-57.21
-150.32
-205.84
-236.02
-250.10
-254.61
-247.64
-229.63
-206.20
-185.75
-174.27
-173.46
-182.59
-200.93
-227.18
-253.93
-276.17
-293.89
-309.91
-324.61
-333.31
-329.25
-307.89
-269.69
-218.11
-162.24
-113.67
-81.32
-67.50
-67.54
-74.07
-81.70
-87.41
-88.50
-83.84
-73.52
-57.94
-37.14
-10.10
22.77
58.86
