1506005333.00
64.000000
-0.00
-0.00
-0.00
-0.00
-0.00
-0.00
-0.00
-0.00
-0.00
-0.00
0.00
0.01
0.01
-0.00
-0.03
-0.05
-0.05
0.00
0.13
0.36
0.66
1.01
1.37
1.72
2.06
2.40
2.79
3.24
3.80
4.42
5.06
5.66
6.20
6.68
7.15
7.68
8.31
9.14
10.09
11.04
11.88
12.56
13.14
13.76
14.65
15.96
17.91
20.32
22.90
25.38
27.58
29.57
31.68
34.32
37.81
42.54
48.15
54.11
59.83
64.98
69.59
74.14
79.34
85.70
93.76
103.00
112.64
121.78
129.81
136.76
143.24
150.56
157.45
166.19
177.40
191.21
206.39
219.99
227.66
224.71
207.78
175.99
131.77
79.00
22.02
-35.95
-93.42
-150.20
-206.44
-261.87
-315.57
-365.98
-412.08
-453.14
-488.63
-517.81
-539.46
-551.94
-553.45
-542.76
-519.39
-484.32
-439.61
-388.01
-332.47
-275.59
-219.32
-164.87
-112.96
-63.99
-18.53
22.69
58.78
88.93
112.70
130.22
142.23
149.92
154.61
157.26
158.40
158.04
155.91
151.73
145.30
136.62
125.78
113.28
100.31
88.91
81.67
80.80
87.03
98.95
113.27
126.03
134.09
136.16
132.92
126.17
117.67
108.47
98.86
88.89
78.90
69.75
62.13
56.38
52.19
48.82
45.36
41.16
36.10
30.56
25.17
20.50
16.89
14.31
12.40
10.68
8.75
6.49
4.02
1.74
0.03
-0.85
-0.94
-0.59
-0.29
-0.46
-1.27
-2.57
-3.98
-5.16
-5.98
-6.46
-6.67
-6.57
-5.98
-4.72
-2.87
-0.82
0.85
1.65
1.43
0.46
-0.79
-1.88
-2.60
-2.98
-3.16
-3.24
-3.25
-3.19
-3.08
-3.00
-3.03
-3.19
-3.39
-3.55
-3.54
-3.32
-2.88
-2.28
-1.62
-1.05
-0.76
-0.90
-1.46
-2.29
-3.09
-3.52
-3.41
-2.76
-1.79
-0.77
0.13
0.88
1.57
2.33
3.18
4.04
4.76
5.25
5.51
5.68
5.92
6.34
6.94
7.62
8.23
8.63
8.77
8.65
8.31
7.76
6.98
5.90
4.51
2.73
0.69
-1.46
-3.56
-5.47
-7.15
-8.61
-9.84
-10.82
-11.48
-11.75
-11.61
-11.10
-10.30
-9.26
-8.07
-6.81
-5.61
-4.63
-3.99
-3.69
-3.67
-3.77
-3.87
-3.90
-3.86
-3.79
-3.73
-3.62
-3.44
-3.18
-2.87
-2.59
-2.40
-2.29
-2.19
-2.04
-1.80
-1.51
-1.29
-1.22
-1.35
-1.62
-1.92
-2.11
-2.10
-1.82
-1.29
-0.56
0.30
1.19
2.01
2.67
3.11
3.37
3.49
3.53
3.49
3.32
2.97
2.47
1.90
1.39
1.03
0.88
0.89
0.94
0.94
0.85
0.72
0.60
0.52
0.44
0.33
0.11
-0.24
-0.69
-1.24
-1.86
-2.51
-3.17
-3.80
-4.37
-4.84
-5.14
-5.20
-4.94
-4.34
-3.41
-2.23
-0.92
0.42
1.68
2.76
3.58
4.10
4.31
4.26
4.08
3.90
3.81
3.85
3.97
4.09
4.15
4.15
4.08
3.95
3.78
3.60
3.42
3.25
3.08
2.83
2.43
1.83
1.09
0.34
-0.27
-0.62
-0.70
-0.58
-0.41
-0.30
-0.32
-0.50
-0.84
-1.31
-1.87
-2.39
-2.73
-2.72
-2.31
-1.56
-0.66
0.14
0.63
0.75
0.56
0.25
-0.00
-0.09
-0.00
0.17
0.36
0.48
0.50
0.44
0.30
0.08
-0.20
-0.51
-0.82
-1.09
-1.30
-1.46
-1.62
-1.82
-2.06
-2.32
-2.60
-2.91
-3.30
-3.80
-4.40
-4.99
-5.42
-5.55
-5.31
-4.73
-3.94
-3.10
-2.33
-1.69
-1.18
-0.77
-0.37
0.09
0.66
1.31
1.94
2.40
2.55
2.34
1.87
1.28
0.76
0.36
0.07
-0.21
-0.56
-0.99
-1.46
-1.89
-2.26
-2.56
-2.79
-2.94
-2.97
-2.89
-2.74
-2.63
-2.62
-2.77
-3.00
-3.20
-3.27
-3.21
-3.11
-3.12
-3.33
-3.73
-4.17
-4.47
-4.46
-4.11
-3.45
-2.57
-1.56
-0.48
0.61
1.62
2.38
2.76
2.63
2.02
1.11
0.24
-0.25
-0.09
0.71
1.84
2.80
3.06
2.40
1.02
-0.50
-1.50
-1.51
-0.54
0.91
2.13
2.54
1.95
0.66
-0.69
-1.41
-0.93
1.08
4.73
9.81
15.74
21.53
25.86
27.56
26.17
22.46
18.36
16.26
17.86
23.20
30.53
37.06
40.37
39.56
35.59
30.54
26.39
24.12
23.40
23.30
22.95
22.21
21.59
21.73
22.77
24.08
24.44
22.57
17.77
10.25
1.14
-7.86
-15.08
-19.34
-20.31
-18.39
-14.46
-9.43
-4.05
1.14
5.67
8.93
10.21
8.89
4.76
-1.72
-9.42
-16.81
-22.41
-25.28
-25.27
-22.95
-19.39
-15.76
-12.97
-11.52
-11.49
-12.58
-14.30
-16.11
-17.54
-18.37
-18.58
-18.39
-18.07
-17.86
-17.82
-17.79
-17.47
-16.54
-14.79
-12.33
-9.53
-7.02
-5.39
-5.03
-5.92
-7.63
-9.55
-11.14
-12.16
-12.79
-13.49
-14.72
-16.72
-19.34
-22.10
-24.38
-25.66
-25.76
-24.94
-23.84
-23.18
-23.41
-24.48
-25.79
-26.46
-25.71
-23.36
-20.00
-16.82
-15.04
-15.37
-17.57
-20.49
-22.84
-23.71
-23.19
-22.36
-22.52
-24.49
-28.05
-32.37
-36.66
-40.44
-43.05
-42.97
-37.66
-24.89
-4.63
19.67
41.83
55.58
57.81
50.24
38.41
28.42
23.69
23.53
24.50
23.25
18.78
12.81
8.11
6.40
7.19
8.54
8.32
5.75
1.67
-2.09
-3.81
-2.89
-0.04
3.18
5.13
4.81
2.34
-1.28
-4.62
-6.49
-6.41
-4.78
-2.58
-0.91
-0.55
-1.65
-3.77
-6.12
-7.94
-8.84
-8.84
-8.27
-7.58
-7.05
-6.75
-6.56
-6.27
-5.74
-4.98
-4.11
-3.21
-2.28
-1.17
0.34
2.37
4.92
7.81
10.77
13.59
16.12
18.26
19.90
20.86
20.99
20.27
18.97
17.53
16.50
16.21
16.64
17.43
18.04
17.97
16.95
15.03
12.47
9.70
7.09
4.93
3.33
2.31
1.81
1.85
2.48
3.75
5.56
7.62
9.40
10.36
10.15
8.77
6.56
4.00
1.52
-0.73
-2.81
-4.84
-6.88
-8.80
-10.32
-11.15
-11.13
-10.31
-8.93
-7.30
-5.76
-4.51
-3.70
-3.38
-3.55
-4.18
-5.15
-6.21
-7.03
-7.29
-6.80
-5.59
-3.90
-2.10
-0.49
0.73
1.59
2.22
2.75
3.25
3.74
4.17
4.52
4.78
4.95
4.98
4.86
4.58
4.19
3.79
3.48
3.33
3.30
3.32
3.28
3.16
2.98
2.82
2.75
2.74
2.69
2.44
1.86
0.94
-0.21
-1.35
-2.21
-2.58
-2.42
-1.82
-0.99
-0.15
0.55
1.04
1.35
1.51
1.58
1.64
1.88
2.58
4.03
6.39
9.54
13.08
16.42
19.05
20.70
21.43
21.50
21.15
20.49
19.40
17.69
15.27
12.29
9.15
6.32
4.13
2.61
1.50
0.45
-0.84
-2.49
-4.43
-6.54
-8.75
-11.03
-13.34
-15.47
-16.93
-17.00
-15.03
-10.72
-4.38
3.16
10.74
17.35
22.46
26.15
28.90
31.25
33.44
35.32
36.43
36.36
35.02
32.73
30.05
27.52
25.47
23.94
22.79
21.94
21.45
21.49
22.23
23.70
25.73
27.97
30.01
31.54
32.48
32.88
32.96
32.90
32.73
32.24
31.12
29.02
25.80
21.63
16.93
12.22
7.90
4.12
0.83
-2.17
-4.98
-7.54
-9.64
-11.01
-11.52
-11.27
-10.58
-9.93
-9.85
-10.79
-12.99
-16.32
-20.12
-23.13
-23.53
-19.57
-10.58
1.94
14.14
20.78
17.42
2.52
-21.53
-49.38
-74.82
-92.86
-100.74
-97.74
-84.70
-63.80
-38.90
-15.40
0.87
5.81
-1.02
-15.86
-32.55
-45.43
-51.86
-52.73
-50.90
-48.92
-47.57
-45.90
-42.58
-37.23
-30.79
-24.82
-20.44
-17.81
-16.16
-14.41
-11.93
-8.76
-5.51
-2.86
-1.24
-0.70
-0.96
-1.60
-2.27
-2.67
-2.60
-1.95
-0.72
0.96
2.88
4.82
6.64
8.30
9.76
10.89
11.46
11.21
9.99
7.93
5.41
2.96
1.05
-0.06
-0.45
-0.43
-0.38
-0.49
-0.69
-0.72
-0.30
0.64
1.82
2.72
2.80
1.76
-0.34
-3.12
-6.09
-8.80
-11.02
-12.66
-13.74
-14.24
-14.16
-13.53
-12.50
-11.27
-10.03
-8.87
-7.75
-6.55
-5.12
-3.44
-1.60
0.15
1.56
2.45
2.78
2.71
2.53
2.49
2.79
3.44
4.29
5.10
5.65
5.80
5.55
4.97
4.22
3.45
2.78
2.31
2.07
2.00
2.02
1.99
1.82
1.51
1.12
0.75
0.44
0.19
-0.07
-0.45
-1.01
-1.75
-2.59
-3.43
-4.15
-4.64
-4.82
-4.64
-4.08
-3.19
-2.05
-0.75
0.59
1.90
3.12
4.17
4.98
5.46
5.61
5.47
5.15
4.81
4.54
4.38
4.28
4.18
4.04
3.86
3.73
3.72
3.87
4.12
4.38
4.51
4.46
4.24
3.89
3.46
2.96
2.35
1.61
0.69
-0.39
-1.54
-2.64
-3.55
-4.12
-4.25
-3.91
-3.22
-2.33
-1.43
-0.65
0.02
0.67
1.39
2.20
3.02
3.71
4.14
4.26
4.12
3.83
3.50
3.15
2.76
2.31
1.83
1.42
1.19
1.19
1.41
1.72
1.97
2.03
1.84
1.43
0.85
0.22
-0.40
-0.97
-1.51
-2.07
-2.71
-3.45
-4.19
-4.78
-5.06
-4.89
-4.29
-3.37
-2.30
-1.25
-0.32
0.49
1.19
1.83
2.41
2.93
3.35
3.66
3.89
4.08
4.28
4.51
4.78
5.05
5.30
5.48
5.57
5.58
5.56
5.58
5.68
5.87
6.07
6.20
6.14
5.86
5.35
4.70
4.01
3.34
2.72
2.09
1.42
0.65
-0.22
-1.17
-2.19
-3.25
-4.27
-5.15
-5.75
-5.92
-5.58
-4.74
-3.55
-2.21
-0.93
0.20
1.14
1.95
2.68
3.32
3.79
4.00
3.97
3.84
3.82
4.13
4.87
5.94
7.06
7.90
8.19
7.79
6.70
5.07
3.13
1.22
-0.35
-1.30
-1.46
-0.83
0.42
2.05
3.77
5.32
6.47
7.06
7.02
6.38
5.33
4.13
3.12
2.52
2.42
2.69
3.08
3.30
3.11
2.45
1.45
0.38
-0.47
-0.88
-0.78
-0.25
0.56
1.49
2.42
3.25
3.89
4.26
4.32
4.07
3.60
3.01
2.36
1.70
1.04
0.41
-0.15
-0.57
-0.86
-1.11
-1.43
-1.90
-2.52
-3.17
-3.72
-4.12
-4.42
-4.77
-5.32
-6.09
-6.96
-7.64
-7.85
-7.38
-6.27
-4.71
-3.02
-1.51
-0.33
0.52
1.17
1.81
2.52
3.29
4.02
4.61
5.01
5.27
5.46
5.62
5.74
5.72
5.51
5.09
4.53
3.93
3.42
3.02
2.76
2.58
2.43
2.27
2.02
1.64
1.07
0.32
-0.57
-1.49
-2.31
-2.98
-3.47
-3.87
-4.25
-4.66
-5.07
-5.35
-5.39
-5.09
-4.47
-3.58
-2.53
-1.36
-0.10
1.22
2.51
3.64
4.50
5.01
5.20
5.19
5.11
5.06
5.06
5.11
5.15
5.20
5.27
5.42
5.67
6.00
6.33
6.55
6.55
6.24
5.61
4.73
3.73
2.75
1.91
1.28
0.87
0.62
0.45
0.27
0.00
-0.42
-1.03
-1.84
-2.80
-3.82
-4.77
-5.49
-5.83
-5.72
-5.11
-4.09
-2.81
-1.48
-0.27
0.69
1.39
1.90
2.32
2.67
2.94
3.05
2.98
2.77
2.55
2.48
2.61
2.92
3.30
3.64
3.87
4.02
4.11
4.14
4.04
3.77
3.28
2.61
1.84
1.05
0.31
-0.31
-0.75
-0.99
-1.03
-1.00
-1.07
-1.44
-2.13
-2.97
-3.66
-3.87
-3.43
-2.43
-1.12
0.17
1.19
1.86
2.22
2.33
2.25
2.03
1.71
1.38
1.18
1.18
1.39
1.70
1.94
2.01
1.94
1.82
1.79
1.89
2.04
2.09
1.91
1.47
0.85
0.20
-0.38
-0.80
-1.11
-1.36
-1.65
-2.04
-2.58
-3.31
-4.28
-5.45
-6.70
-7.84
-8.62
-8.81
-8.27
-7.02
-5.24
-3.19
-1.16
0.63
2.05
3.01
3.46
3.31
2.49
1.03
-0.88
-2.87
-4.51
-5.45
-5.51
-4.77
-3.49
-1.97
-0.55
0.54
1.15
1.23
0.85
0.09
-0.91
-2.07
-3.32
-4.59
-5.82
-6.89
-7.75
-8.46
-9.22
-10.30
-11.90
-14.05
-16.52
-19.01
-21.27
-23.16
-24.65
-25.55
-25.50
-23.97
-20.46
-14.79
-7.18
1.80
11.44
21.00
29.81
37.25
42.63
45.33
44.91
41.38
35.29
27.72
19.97
13.24
8.31
5.43
4.31
4.31
4.67
4.80
4.39
3.40
2.02
0.54
-0.75
-1.64
-2.07
-2.17
-2.23
-2.60
-3.56
-5.11
-7.00
-8.75
-9.80
-9.67
-8.12
-5.16
-1.09
3.57
8.10
11.76
13.91
14.23
12.82
10.18
7.03
4.08
1.84
0.57
0.34
1.25
3.51
7.36
12.81
19.42
26.27
32.15
36.03
37.38
36.29
33.27
28.93
23.74
17.96
11.87
5.78
0.12
-4.79
-8.91
-12.53
-16.13
-20.11
-24.53
-29.13
-33.43
-36.95
-39.29
-40.22
-39.63
-37.54
-34.11
-29.63
-24.53
-19.33
-14.48
-10.35
-7.12
-4.83
-3.36
-2.58
-2.32
-2.44
-2.84
-3.36
-3.83
-4.02
-3.71
-2.75
-1.13
1.00
3.37
5.64
7.54
8.90
9.70
10.04
10.05
9.83
9.43
8.83
8.03
7.12
6.23
5.51
5.04
4.80
4.61
4.27
3.58
2.39
0.70
-1.42
-3.77
-6.09
-8.09
-9.53
-10.32
-10.50
-10.26
-9.78
-9.19
-8.48
-7.60
-6.54
-5.36
-4.22
-3.34
-2.89
-2.94
-3.40
-4.07
-4.66
-4.92
-4.71
-4.03
-3.01
-1.82
-0.65
0.42
1.36
2.16
2.78
3.16
3.23
2.98
2.50
1.96
1.52
1.31
1.35
1.58
1.91
2.27
2.72
3.38
4.36
5.67
7.09
8.28
8.81
8.41
7.12
5.31
3.58
2.50
2.41
3.27
4.76
6.42
7.79
8.61
8.76
8.28
7.28
5.88
4.20
2.37
0.50
-1.25
-2.77
-3.97
-4.87
-5.55
-6.15
-6.79
-7.52
-8.28
-8.94
-9.34
-9.40
-9.12
-8.57
-7.83
-6.90
-5.75
-4.34
-2.74
-1.10
0.37
1.48
2.17
2.56
2.84
3.23
3.85
4.70
5.63
6.47
7.05
7.21
6.82
5.79
4.14
2.11
0.26
-0.64
0.09
2.76
6.99
11.82
16.00
18.52
18.89
17.38
14.71
11.75
9.20
7.44
6.52
6.36
6.71
7.26
7.57
7.18
5.71
3.10
-0.41
-4.28
-7.90
-10.76
-12.63
-13.49
-13.52
-12.93
-11.97
-10.87
-9.89
-9.24
-9.07
-9.45
-10.31
-11.50
-12.91
-14.42
-15.91
-17.15
-17.75
-17.14
-14.74
-10.17
-3.46
4.78
13.48
21.30
26.95
29.50
28.61
24.57
18.23
10.75
3.28
-3.34
-8.69
-12.85
-16.28
-19.59
-23.32
-27.83
-33.11
-38.81
-43.98
-47.09
-46.42
-40.83
-30.37
-16.63
-2.23
10.25
19.14
24.38
27.28
29.48
31.99
34.74
36.95
37.88
37.57
36.66
36.01
36.09
36.97
38.15
38.79
38.14
35.39
31.37
27.33
24.14
22.60
22.41
22.53
21.59
18.36
12.27
3.69
-6.26
-15.90
-23.41
-27.53
-27.89
-25.10
-20.41
-15.23
-10.55
-6.95
-4.59
-3.39
-3.34
-4.52
-6.88
-10.11
-13.54
-16.27
-17.63
-17.37
-15.68
-13.12
-10.32
-7.68
-5.35
-3.25
-1.29
0.47
1.85
2.58
2.47
1.52
-0.12
-2.18
-4.30
-6.13
-7.36
-7.76
-7.26
-6.04
-4.51
-3.17
-2.50
-2.72
-3.75
-5.22
-6.67
-7.74
-8.30
-8.44
-8.41
-8.41
-8.51
-8.62
-8.58
-8.23
-7.55
-6.61
-5.55
-4.47
-3.43
-2.46
-1.57
-0.84
-0.34
-0.14
-0.25
-0.60
-1.07
-1.51
-1.80
-1.89
-1.85
-1.77
-1.79
-2.03
-2.54
-3.28
-4.12
-4.92
-5.57
-6.06
-6.52
-7.11
-7.98
-9.14
-10.43
-11.58
-12.26
-12.22
-11.36
-9.79
-7.74
-5.52
-3.41
-1.54
0.05
1.37
2.48
3.43
4.28
5.12
5.99
6.89
7.76
8.44
8.80
8.71
8.16
7.27
6.25
5.42
5.08
5.42
6.32
7.34
7.79
7.06
5.09
2.55
0.61
0.43
2.34
5.44
7.96
7.93
4.15
-3.17
-12.51
-21.64
-28.29
-30.58
-27.15
-17.32
-1.56
18.05
37.76
52.90
59.51
55.91
43.57
26.47
9.54
-3.30
-10.33
-12.10
-10.57
-7.85
-5.53
-4.44
-4.95
-7.18
-11.11
-16.42
-22.41
-28.20
-32.81
-35.57
-36.29
-35.35
-33.53
-31.75
-30.75
-30.83
-31.73
-32.83
-33.40
-32.90
-31.27
-28.84
-26.26
-24.18
-22.99
-22.71
-22.96
-23.21
-22.92
-21.73
-19.59
-16.71
-13.48
-10.31
-7.53
-5.30
-3.57
-2.13
-0.76
0.72
2.38
4.10
5.65
6.82
7.47
7.61
7.38
6.99
6.66
6.47
6.39
6.35
6.23
6.03
5.81
5.63
5.49
5.26
4.80
3.98
2.85
1.58
0.44
-0.38
-0.83
-1.06
-1.35
-2.00
-3.23
-5.04
-7.25
-9.50
-11.38
-12.53
-12.75
-12.02
-10.43
-8.18
-5.48
-2.56
0.31
2.83
4.73
5.90
6.41
6.59
6.81
7.37
8.35
9.58
10.73
11.50
11.70
11.35
10.63
9.76
8.93
8.24
7.75
7.39
7.10
6.76
6.29
5.62
4.75
3.68
2.46
1.10
-0.35
-1.86
-3.37
-4.86
-6.31
-7.73
-9.13
-10.37
-11.23
-11.41
-10.69
-9.03
-6.65
-3.92
-1.19
1.30
3.50
5.42
7.09
8.49
9.62
10.49
11.25
12.03
12.89
13.74
14.40
14.72
14.63
14.25
13.77
13.38
13.16
13.09
13.05
12.90
12.49
11.69
10.46
8.80
6.85
4.78
2.82
1.10
-0.37
-1.69
-3.01
-4.50
-6.22
-8.10
-10.00
-11.72
-13.04
-13.82
-13.99
-13.56
-12.61
-11.25
-9.59
-7.73
-5.76
-3.74
-1.71
0.29
2.24
4.05
5.65
6.97
8.03
8.89
9.64
10.33
10.96
11.46
11.78
11.93
11.96
11.96
11.94
11.85
11.58
11.07
10.35
9.52
8.72
8.03
7.40
6.75
5.99
5.10
4.13
3.16
2.16
1.08
-0.19
-1.69
-3.30
-4.73
-5.64
-5.78
-5.10
-3.79
-2.19
-0.61
0.77
1.98
3.14
4.36
5.62
6.79
7.67
8.14
8.23
8.09
7.95
8.00
8.35
8.97
9.73
10.48
11.05
11.32
11.20
10.69
9.82
8.72
7.55
6.47
5.66
5.15
4.89
4.72
4.39
3.74
2.69
1.27
-0.38
-2.09
-3.71
-5.13
-6.22
-6.87
-7.04
-6.72
-6.02
-5.10
-4.11
-3.15
-2.26
-1.43
-0.65
0.04
0.59
0.97
1.19
1.36
1.58
1.92
2.37
2.84
3.23
3.45
3.51
3.48
3.51
3.69
4.07
4.54
4.95
5.14
5.01
4.56
3.83
2.88
1.75
0.48
-0.87
-2.20
-3.36
-4.21
-4.63
-4.53
-3.87
-2.66
-0.93
1.18
3.46
5.72
7.75
9.45
10.74
11.63
12.09
12.14
11.80
11.17
10.34
9.42
8.49
7.56
6.70
5.99
5.52
5.35
5.41
5.57
5.66
5.54
5.16
4.56
3.76
2.79
1.64
0.27
-1.27
-2.86
-4.34
-5.58
-6.53
-7.24
-7.78
-8.16
-8.30
-8.00
-7.12
-5.63
-3.68
-1.55
0.43
2.05
3.31
4.32
5.29
6.35
7.49
8.56
9.37
9.75
9.68
9.24
8.62
7.97
7.37
6.83
6.29
5.74
5.17
4.63
4.11
3.56
2.91
2.14
1.27
0.43
-0.25
-0.68
-0.85
-0.81
-0.65
-0.45
-0.29
-0.20
-0.27
-0.61
-1.37
-2.62
-4.31
-6.19
-7.92
-9.12
-9.55
-9.14
-8.10
-6.71
-5.31
-4.07
-3.02
-2.05
-1.01
0.16
1.41
2.63
3.71
4.62
5.40
6.13
6.81
7.39
7.73
7.74
7.44
6.99
6.57
6.34
6.35
6.50
6.66
6.68
6.53
6.23
5.87
5.50
5.17
4.84
4.48
4.03
3.49
2.88
2.22
1.56
0.92
0.28
-0.34
-0.96
-1.55
-2.09
-2.59
-3.10
-3.68
-4.34
-5.01
-5.52
-5.70
-5.41
-4.70
-3.73
-2.75
-1.98
-1.54
-1.42
-1.52
-1.72
-1.89
-2.00
-2.02
-1.98
-1.90
-1.80
-1.72
-1.65
-1.57
-1.42
-1.15
-0.71
-0.11
0.59
1.29
1.93
2.50
2.98
3.32
3.44
3.24
2.70
1.90
1.04
0.34
-0.05
-0.16
-0.19
-0.34
-0.77
-1.50
-2.40
-3.34
-4.22
-5.01
-5.72
-6.40
-7.06
-7.70
-8.28
-8.82
-9.29
-9.65
-9.83
-9.72
-9.24
-8.39
-7.24
-5.90
-4.50
-3.15
-1.94
-0.94
-0.20
0.28
0.53
0.66
0.77
0.93
1.10
1.21
1.18
1.00
0.72
0.46
0.32
0.30
0.39
0.52
0.67
0.85
1.04
1.19
1.19
0.93
0.38
-0.37
-1.13
-1.71
-1.98
-1.97
-1.84
-1.83
-2.09
-2.67
-3.48
-4.33
-5.04
-5.51
-5.73
-5.72
-5.53
-5.16
-4.54
-3.61
-2.42
-1.14
-0.01
0.76
1.11
1.17
1.16
1.30
1.65
2.09
2.46
2.59
2.49
2.27
2.11
2.13
2.35
2.66
2.90
2.91
2.64
2.12
1.47
0.86
0.43
0.22
0.17
0.13
-0.05
-0.46
-1.06
-1.72
-2.29
-2.71
-2.98
-3.21
-3.50
-3.93
-4.48
-5.09
-5.69
-6.22
-6.63
-6.84
-6.75
-6.26
-5.32
-4.04
-2.59
-1.20
-0.03
0.86
1.55
2.14
2.71
3.26
3.76
4.18
4.50
4.74
4.90
4.94
4.87
4.71
4.55
4.52
4.70
5.08
5.51
5.83
5.89
5.60
5.01
4.19
3.28
2.38
1.59
0.94
0.45
0.10
-0.16
-0.39
-0.65
-0.98
-1.46
-2.09
-2.89
-3.82
-4.86
-5.93
-6.97
-7.90
-8.59
-8.92
-8.80
-8.15
-7.05
-5.61
-4.07
-2.57
-1.25
-0.14
0.79
1.58
2.27
2.87
3.39
3.80
4.07
4.19
4.17
4.08
4.00
4.00
4.09
4.19
4.21
4.04
3.67
3.19
2.74
2.45
2.35
2.39
2.43
2.34
2.05
1.54
0.85
0.07
-0.74
-1.50
-2.15
-2.67
-3.06
-3.42
-3.84
-4.45
-5.35
-6.54
-7.88
-9.15
-10.11
-10.53
-10.35
-9.59
-8.43
-7.05
-5.62
-4.27
-3.06
-1.99
-1.05
-0.18
0.67
1.53
2.42
3.31
4.18
5.04
5.88
6.70
7.47
8.14
8.64
8.91
8.92
8.65
8.16
7.48
6.68
5.82
4.94
4.08
3.23
2.37
1.53
0.73
0.02
-0.53
-0.93
-1.21
-1.43
-1.69
-2.06
-2.61
-3.35
-4.26
-5.26
-6.20
-6.90
-7.19
-6.99
-6.28
-5.19
-3.92
-2.63
-1.47
-0.49
0.30
0.89
1.27
1.43
1.37
1.15
0.86
0.60
0.43
0.38
0.44
0.62
0.90
1.24
1.60
1.90
2.08
2.15
2.17
2.17
2.15
1.99
1.54
0.72
-0.45
-1.77
-2.99
-3.90
-4.40
-4.54
-4.49
-4.44
-4.50
-4.69
-4.92
-5.04
-4.90
-4.47
-3.83
-3.11
-2.48
-2.00
-1.67
-1.37
-1.05
-0.68
-0.32
-0.03
0.17
0.31
0.47
0.67
0.89
1.02
0.98
0.70
0.25
-0.25
-0.65
-0.80
-0.70
-0.38
0.02
0.33
0.47
0.39
0.19
-0.05
-0.22
-0.32
-0.43
-0.67
-1.12
-1.74
-2.43
-3.06
-3.57
-3.99
-4.43
-4.92
-5.37
-5.60
-5.41
-4.74
-3.72
-2.63
-1.72
-1.12
-0.77
-0.49
-0.13
0.39
1.00
1.55
1.93
2.11
2.12
2.08
2.12
2.30
2.62
2.97
3.18
3.15
2.86
2.42
1.98
1.67
1.50
1.36
1.13
0.74
0.21
-0.37
-0.92
-1.41
-1.84
-2.27
-2.69
-3.09
-3.43
-3.75
-4.07
-4.46
-4.91
-5.33
-5.62
-5.67
-5.41
-4.90
-4.22
-3.48
-2.76
-2.10
-1.43
-0.71
0.08
0.94
1.79
2.52
3.03
3.30
3.35
3.32
3.30
3.37
3.53
3.70
3.81
3.82
3.76
3.68
3.64
3.64
3.64
3.57
3.39
3.08
2.67
2.19
1.67
1.12
0.56
-0.03
-0.65
-1.29
-1.94
-2.57
-3.14
-3.61
-3.98
-4.34
-4.77
-5.33
-5.98
-6.56
-6.84
-6.64
-5.87
-4.63
-3.15
-1.73
-0.56
0.27
0.83
1.25
1.65
2.09
2.56
3.03
3.47
3.91
4.39
4.91
5.38
5.70
5.75
5.50
5.03
4.52
4.09
3.81
3.67
3.56
3.40
3.14
2.77
2.30
1.76
1.16
0.57
0.04
-0.36
-0.61
-0.76
-0.89
-1.07
-1.35
-1.72
-2.17
-2.66
-3.19
-3.75
-4.32
-4.83
-5.18
-5.26
-5.01
-4.40
-3.47
-2.33
-1.10
0.06
1.05
1.81
2.39
2.88
3.34
3.79
4.17
4.38
4.39
4.23
4.01
3.84
3.78
3.79
3.77
3.63
3.35
2.98
2.66
2.48
2.47
2.51
2.46
2.18
1.68
1.05
0.47
0.08
-0.08
-0.10
-0.12
-0.28
-0.64
-1.21
-1.94
-2.75
-3.63
-4.53
-5.38
-6.08
-6.52
-6.61
-6.29
-5.60
-4.60
-3.40
-2.11
-0.82
0.36
1.36
2.13
2.68
3.04
3.26
3.37
3.37
3.28
3.13
3.01
2.99
3.11
3.36
3.64
3.83
3.90
3.84
3.71
3.55
3.35
3.07
2.65
2.14
1.60
1.13
0.75
0.45
0.14
-0.25
-0.72
-1.24
-1.77
-2.30
-2.87
-3.51
-4.22
-4.93
-5.54
-6.00
-6.31
-6.52
-6.65
-6.66
-6.46
-5.99
-5.27
-4.40
-3.49
-2.63
-1.82
-0.98
-0.07
0.89
1.80
2.48
2.84
2.87
2.68
2.42
2.24
2.19
2.22
2.22
2.07
1.74
1.27
0.79
0.40
0.18
0.09
-0.00
-0.21
-0.60
-1.19
-1.88
-2.56
-3.15
-3.63
-4.06
-4.52
-5.09
-5.82
-6.70
-7.69
-8.71
-9.65
-10.45
-11.07
-11.53
-11.88
-12.20
-12.50
-12.78
-12.95
-12.87
-12.39
-11.34
-9.66
-7.40
-4.71
-1.85
0.95
3.48
5.65
7.44
8.86
9.94
10.72
11.28
11.73
12.18
12.73
13.40
14.11
14.80
15.40
15.88
16.22
16.40
16.35
15.97
15.17
13.90
12.21
10.24
8.23
6.48
5.26
4.69
4.71
5.06
5.41
5.44
5.02
4.13
2.86
1.27
-0.67
-3.01
-5.72
-8.62
-11.35
-13.56
-15.01
-15.69
-15.83
-15.68
-15.43
-15.03
-14.26
-12.85
-10.73
-8.10
-5.42
-3.24
-1.93
-1.60
-2.04
-2.89
-3.79
-4.51
-4.99
-5.28
-5.51
-5.79
-6.27
-7.08
-8.23
-9.52
-10.55
-10.76
-9.73
-7.34
-3.91
-0.07
3.45
6.15
7.85
8.73
9.14
9.46
9.96
10.73
11.68
12.59
13.15
13.05
12.08
10.24
7.72
4.84
2.00
-0.44
-2.21
-3.19
-3.33
-2.72
-1.57
-0.13
1.30
2.46
3.20
3.51
3.46
3.17
2.75
2.27
1.75
1.18
0.59
0.04
-0.44
-0.78
-0.99
-1.17
-1.46
-1.98
-2.81
-3.91
-5.15
-6.33
-7.30
-8.04
-8.66
-9.31
-10.01
-10.59
-10.62
-9.59
-7.15
-3.30
1.46
6.28
10.18
12.35
12.40
10.39
6.83
2.48
-1.86
-5.51
-8.02
-9.17
-8.94
-7.48
-5.06
-2.09
0.93
3.44
4.96
5.24
4.33
2.64
0.75
-0.74
-1.45
-1.24
-0.25
1.21
2.79
4.19
5.16
5.58
5.35
4.49
3.08
1.29
-0.66
-2.53
-4.12
-5.32
-6.06
-6.33
-6.12
-5.44
-4.27
-2.63
-0.59
1.75
4.21
6.61
8.77
10.54
11.82
12.59
12.91
12.89
12.71
12.49
12.36
12.34
12.43
12.56
12.62
12.48
12.01
11.16
9.92
8.40
6.71
4.96
3.18
1.36
-0.57
-2.65
-4.82
-6.96
-8.94
-10.69
-12.21
-13.58
-14.82
-15.92
-16.78
-17.29
-17.38
-17.08
-16.54
-15.94
-15.41
-14.99
-14.62
-14.21
-13.70
-13.17
-12.74
-12.56
-12.65
-12.91
-13.18
-13.31
-13.25
-13.00
-12.61
-12.09
-11.37
-10.36
-8.99
-7.24
-5.15
-2.77
-0.17
2.60
5.44
8.24
10.81
13.01
14.67
15.66
15.95
15.55
14.59
13.26
11.78
10.31
8.96
7.79
6.80
6.02
5.44
5.10
4.95
4.93
4.98
5.05
5.11
5.15
5.12
4.94
4.52
3.82
2.96
2.13
1.50
1.20
1.16
1.25
1.31
1.23
0.98
0.63
0.20
-0.29
-0.87
-1.53
-2.22
-2.84
-3.25
-3.31
-3.00
-2.33
-1.41
-0.42
0.48
1.16
1.58
1.83
2.10
2.61
3.52
4.84
6.45
8.14
9.68
10.95
11.91
12.61
13.12
13.46
13.64
13.56
13.12
12.22
10.82
8.95
6.79
4.59
2.63
1.14
0.24
-0.11
-0.01
0.41
1.04
1.75
2.41
2.80
2.73
2.10
0.99
-0.32
-1.47
-2.17
-2.32
-2.07
-1.66
-1.37
-1.31
-1.47
-1.71
-1.93
-2.07
-2.12
-2.07
-1.86
-1.40
-0.61
0.47
1.74
3.01
4.14
5.07
5.86
6.66
7.56
8.61
9.74
10.84
11.76
12.41
12.76
12.89
12.89
12.87
12.88
12.84
12.65
12.19
11.47
10.65
10.04
9.99
10.78
12.51
15.13
18.39
21.99
25.58
28.79
31.31
32.85
33.32
32.83
31.64
30.02
28.10
25.69
22.46
18.09
12.53
6.15
-0.40
-6.35
-11.20
-14.78
-17.28
-19.03
-20.26
-21.03
-21.24
-20.79
-19.74
-18.37
-17.07
-16.24
-16.11
-16.65
-17.67
-18.85
-20.00
-21.08
-22.18
-23.44
-24.86
-26.26
-27.32
-27.71
-27.23
-25.94
-24.03
-21.70
-18.94
-15.55
-11.41
-6.67
-2.01
1.53
2.89
1.54
-2.22
-7.33
-12.39
-16.27
-18.50
-19.30
-19.30
-19.07
-18.80
-18.32
-17.31
-15.63
-13.49
-11.33
-9.61
-8.52
-7.90
-7.36
-6.55
-5.39
-4.04
-2.80
-1.86
-1.23
-0.70
-0.12
0.57
1.21
1.60
1.62
1.41
1.28
1.55
2.43
3.79
5.31
6.56
7.17
6.98
6.02
4.45
2.45
0.18
-2.26
-4.80
-7.31
-9.66
-11.63
-13.01
-13.60
-13.29
-12.11
-10.23
-7.83
-5.08
-2.14
0.82
3.51
5.54
6.50
6.13
4.51
2.07
-0.47
-2.42
-3.30
-2.98
-1.66
0.28
2.47
4.67
6.72
8.52
9.93
10.72
10.68
9.69
7.85
5.50
3.09
1.03
-0.57
-1.92
-3.46
-5.63
-8.61
-12.18
-15.75
-18.65
-20.35
-20.71
-19.89
-18.25
-16.15
-13.83
-11.46
-9.18
-7.18
-5.58
-4.38
-3.37
-2.19
-0.54
1.62
4.07
6.35
8.08
9.17
9.86
10.56
11.73
13.57
16.01
18.81
21.62
24.11
26.03
27.22
27.63
27.28
26.32
24.94
23.35
21.75
20.23
18.86
17.65
16.55
15.47
14.29
12.83
11.04
8.89
6.48
3.91
1.27
-1.34
-3.84
-6.06
-7.83
-8.99
-9.55
-9.67
-9.57
-9.48
-9.47
-9.46
-9.31
-8.91
-8.24
-7.37
-6.41
-5.42
-4.46
-3.57
-2.83
-2.36
-2.32
-2.79
-3.77
-5.17
-6.79
-8.40
-9.80
-10.81
-11.34
-11.33
-10.82
-9.96
-8.96
-8.09
-7.54
-7.40
-7.60
-7.99
-8.44
-8.89
-9.40
-10.06
-10.92
-11.88
-12.74
-13.21
-13.05
-12.13
-10.45
-8.18
-5.57
-2.96
-0.68
1.00
1.99
2.34
2.27
2.01
1.74
1.57
1.47
1.41
1.32
1.15
0.85
0.42
-0.02
-0.17
0.44
2.25
5.51
10.02
15.11
19.87
23.41
25.20
25.15
23.57
20.90
17.55
13.77
9.73
5.64
1.79
-1.46
-3.78
-5.05
-5.35
-4.99
-4.34
-3.69
-3.21
-2.87
-2.52
-2.00
-1.22
-0.22
0.86
1.81
2.50
2.88
3.04
3.09
3.12
3.15
3.11
2.92
2.55
2.05
1.55
1.14
0.83
0.53
0.06
-0.74
-1.96
-3.55
-5.40
-7.31
-9.11
-10.66
-11.81
-12.47
-12.51
-11.90
-10.65
-8.93
-6.98
-5.12
-3.59
-2.55
-1.97
-1.69
-1.46
-1.05
-0.33
0.70
1.91
3.08
4.01
4.55
4.63
4.27
3.58
2.70
1.88
1.31
1.17
1.51
2.21
3.07
3.80
4.15
3.97
3.24
2.06
0.62
-0.91
-2.36
-3.68
-4.90
-6.07
-7.22
-8.21
-8.75
-8.48
-7.07
-4.46
-0.84
3.38
7.73
11.75
15.16
17.80
19.64
20.74
21.19
21.11
20.62
19.79
18.64
17.20
15.45
13.46
11.33
9.16
7.04
5.03
3.13
1.29
-0.51
-2.33
-4.24
-6.26
-8.39
-10.57
-12.68
-14.62
-16.27
-17.60
-18.58
-19.30
-19.87
-20.45
-21.15
-22.00
-22.82
-23.27
-22.96
-21.58
-19.08
-15.75
-12.13
-8.86
-6.41
-4.98
-4.44
-4.47
-4.72
-4.91
-4.89
-4.61
-4.01
-3.03
-1.62
0.23
2.45
4.86
7.29
9.50
11.29
12.39
12.63
11.99
10.66
9.13
8.08
8.15
9.57
12.04
14.75
16.73
17.11
15.47
11.83
6.68
0.83
-4.67
-8.65
-10.05
-8.22
-3.30
3.70
11.10
17.04
20.11
19.75
16.39
11.14
5.43
0.57
-2.48
-3.29
-1.97
0.89
4.34
7.27
8.69
7.96
4.91
-0.03
-6.01
-11.89
-16.53
-19.14
-19.49
-18.01
-15.56
-13.13
-11.38
-10.57
-10.54
-11.01
-11.79
-12.83
-14.04
-15.19
-15.85
-15.63
-14.45
-12.57
-10.50
-8.75
-7.53
-6.80
-6.40
-6.27
-6.45
-7.00
-7.74
-8.18
-7.68
-5.74
-2.30
2.19
6.93
11.06
13.94
15.40
15.66
15.25
14.70
14.35
14.25
14.21
14.10
14.00
14.21
15.01
16.27
17.31
17.01
14.31
8.80
1.13
-7.18
-14.30
-18.84
-20.39
-19.56
-17.45
-15.00
-12.50
-9.67
-6.05
-1.59
3.03
6.58
7.85
6.28
2.33
-2.67
-7.13
-9.85
-10.50
-9.61
-8.13
-6.90
-6.20
-5.65
-4.48
-1.93
2.21
7.52
13.12
18.07
21.82
24.36
26.01
27.06
27.43
26.66
24.25
20.09
14.72
9.20
4.62
1.64
0.19
-0.40
-0.97
-2.14
-4.06
-6.50
-8.97
-11.03
-12.33
-12.74
-12.29
-11.18
-9.72
-8.30
-7.27
-6.81
-6.85
-7.09
-7.14
-6.64
-5.45
-3.65
-1.57
0.41
1.94
2.86
3.17
3.04
2.71
2.42
2.36
2.65
3.26
4.16
5.22
6.33
7.36
8.15
8.50
8.18
7.00
4.88
1.92
-1.60
-5.33
-8.90
-12.02
-14.54
-16.33
-17.34
-17.49
-16.79
-15.33
-13.25
-10.79
-8.16
-5.55
-3.13
-1.09
0.39
1.23
1.49
1.43
1.44
1.88
2.93
4.52
6.39
8.24
9.85
11.16
12.19
13.02
13.72
14.35
14.99
15.75
16.67
17.72
18.71
19.38
19.49
18.95
17.86
16.51
15.30
14.56
14.46
14.99
15.94
17.03
18.04
18.90
19.67
20.52
21.57
22.85
24.24
25.56
26.59
27.14
27.07
26.24
24.59
22.13
19.02
15.53
11.99
8.63
5.50
2.47
-0.67
-4.08
-7.79
-11.65
-15.48
-19.04
-22.20
-24.86
-26.93
-28.37
-29.15
-29.32
-29.01
-28.41
-27.69
-26.92
-26.09
-25.09
-23.77
-22.07
-19.96
-17.53
-14.91
-12.28
-9.77
-7.47
-5.39
-3.48
-1.67
0.05
1.69
3.17
4.37
5.18
5.50
5.34
4.83
4.19
3.70
3.50
3.57
3.68
3.53
2.90
1.75
0.25
-1.31
-2.71
-3.87
-4.81
-5.62
-6.35
-6.99
-7.44
-7.64
-7.60
-7.37
-7.07
-6.79
-6.56
-6.35
-6.10
-5.74
-5.23
-4.57
-3.81
-2.98
-2.16
-1.42
-0.80
-0.35
-0.06
0.09
0.16
0.21
0.25
0.24
0.09
-0.31
-0.99
-1.91
-2.98
-4.03
-4.97
-5.78
-6.49
-7.19
-7.91
-8.56
-8.97
-8.88
-8.15
-6.78
-5.01
-3.17
-1.67
-0.76
-0.53
-0.87
-1.53
-2.23
-2.72
-2.84
-2.58
-2.08
-1.58
-1.30
-1.40
-1.80
-2.28
-2.49
-2.12
-1.04
0.63
2.55
4.24
5.28
5.43
4.79
3.86
3.34
3.89
5.82
8.85
12.13
14.53
15.14
13.62
10.40
6.49
3.00
0.79
0.08
0.60
1.77
3.06
4.19
5.17
6.14
7.27
8.56
9.91
11.15
12.15
12.90
13.53
14.25
15.24
16.58
18.18
19.77
20.91
21.14
20.07
17.48
13.33
7.73
0.93
-6.60
-14.12
-20.48
-24.38
-24.71
-20.95
-13.64
-4.25
5.23
13.00
18.01
20.10
19.72
17.49
13.91
9.36
4.40
-0.14
-3.38
-4.77
-4.53
-3.68
-3.50
-4.90
-7.82
-11.21
-13.54
-13.52
-10.75
-5.80
0.11
5.79
10.54
14.32
17.59
20.85
24.28
27.59
30.22
31.50
31.00
28.51
24.05
17.85
10.45
2.80
-3.82
-8.08
-9.24
-7.45
-3.81
0.10
2.95
4.18
4.01
3.08
1.93
0.64
-1.05
-3.42
-6.50
-9.99
-13.49
-16.75
-19.79
-22.75
-25.69
-28.44
-30.68
-32.05
-32.41
-31.82
-30.55
-28.94
-27.27
-25.74
-24.41
-23.23
-22.19
-21.43
-21.19
-21.72
-23.02
-24.82
-26.63
-27.90
-28.30
-27.73
-26.25
-23.91
-20.61
-16.20
-10.68
-4.50
1.53
6.51
9.84
11.47
11.84
11.49
10.71
9.39
7.16
3.80
-0.38
-4.41
-6.94
-6.71
-3.17
3.29
11.51
19.93
27.17
32.35
35.21
35.86
34.66
32.00
28.31
24.09
19.85
16.03
12.82
10.13
7.57
4.67
1.09
-3.20
-7.84
-12.24
-15.82
-18.15
-19.15
-19.03
-18.20
-17.10
-15.99
-14.94
-13.80
-12.41
-10.63
-8.48
-6.13
-3.86
-1.98
-0.78
-0.48
-1.12
-2.59
-4.54
-6.53
-8.12
-9.05
-9.32
-9.15
-8.89
-8.78
-8.95
-9.31
-9.69
-9.93
-9.95
-9.75
-9.29
-8.47
-7.02
-4.64
-1.13
3.45
8.62
13.65
17.73
20.27
21.11
20.59
19.41
18.40
18.27
19.43
21.94
25.52
29.70
33.91
37.58
40.23
41.49
41.18
39.31
36.10
31.92
27.22
22.45
17.93
13.73
9.73
5.59
1.00
-4.10
-9.42
-14.31
-18.03
-20.08
-20.44
-19.60
-18.37
-17.53
-17.50
-18.26
-19.42
-20.51
-21.19
-21.40
-21.24
-20.91
-20.58
-20.27
-19.92
-19.44
-18.78
-17.92
-16.88
-15.66
-14.26
-12.67
-10.94
-9.16
-7.53
-6.24
-5.44
-5.23
-5.67
-6.79
-8.58
-11.01
-13.94
-17.08
-20.06
-22.43
-23.72
-23.62
-22.03
-19.15
-15.45
-11.54
-7.98
-5.11
-3.03
-1.53
-0.32
0.93
2.43
4.27
6.32
8.25
9.53
9.70
8.54
6.34
3.80
1.81
0.95
1.24
2.13
2.77
2.56
1.39
-0.29
-1.78
-2.50
-2.25
-1.25
0.00
1.05
1.62
1.71
1.52
1.31
1.29
1.50
1.82
2.08
2.14
2.02
1.91
2.05
2.62
3.62
4.86
6.04
6.93
7.46
7.78
8.12
8.66
9.41
10.19
10.71
10.74
10.21
9.27
8.19
7.20
6.41
5.75
5.02
4.06
2.78
1.26
-0.35
-1.85
-3.12
-4.10
-4.81
-5.35
-5.80
-6.24
-6.70
-7.15
-7.52
-7.69
-7.60
-7.20
-6.50
-5.57
-4.42
-3.09
-1.61
-0.03
1.51
2.84
3.79
4.29
4.41
4.32
4.24
4.31
4.57
4.93
5.26
5.43
5.39
5.19
4.91
4.63
4.40
4.18
3.91
3.51
2.96
2.31
1.69
1.20
0.87
0.63
0.33
-0.20
-1.05
-2.19
-3.49
-4.79
-5.92
-6.77
-7.26
-7.36
-7.05
-6.38
-5.42
-4.31
-3.19
-2.19
-1.41
-0.89
-0.56
-0.33
-0.07
0.31
0.81
1.38
1.90
2.27
2.49
2.59
2.69
2.90
3.30
3.88
4.54
5.12
5.41
5.26
4.61
3.56
2.32
1.15
0.30
-0.12
-0.10
0.27
0.80
1.29
1.55
1.37
0.61
-0.76
-2.64
-4.84
-7.09
-9.12
-10.74
-11.81
-12.25
-12.01
-11.04
-9.36
-7.03
-4.22
-1.14
1.97
4.89
7.46
9.54
11.07
12.02
12.40
12.33
11.94
11.42
10.95
10.64
10.48
10.29
9.80
8.72
6.86
4.28
1.31
-1.55
-3.79
-5.07
-5.28
-4.57
-3.21
-1.51
0.23
1.75
2.79
3.12
2.63
1.33
-0.57
-2.72
-4.70
-6.14
-6.75
-6.41
-5.20
-3.38
-1.34
0.50
1.86
2.63
2.90
2.85
2.67
2.46
2.25
2.01
1.77
1.60
1.58
1.77
2.14
2.54
2.82
2.84
2.56
2.07
1.56
1.24
1.21
1.45
1.78
1.92
1.62
0.62
-1.22
-3.85
-6.88
-9.51
-10.66
-9.30
-4.96
1.90
9.95
17.41
22.78
25.43
25.72
24.70
23.42
22.50
21.90
21.18
19.83
17.65
14.73
11.34
7.69
3.87
-0.13
-4.25
-8.27
-11.85
-14.65
-16.51
-17.52
-17.96
-18.15
-18.23
-18.09
-17.38
-15.68
-12.66
-8.37
-3.23
1.95
6.28
9.01
9.79
8.75
6.43
3.57
0.93
-0.88
-1.43
-0.57
1.58
4.51
7.31
8.88
8.26
4.94
-0.81
-8.01
-15.33
-21.51
-25.83
-28.13
-28.69
-27.90
-25.91
-22.62
-17.83
-11.52
-4.06
3.72
10.79
16.23
19.47
20.43
19.45
17.08
13.94
10.61
7.55
5.01
3.05
1.52
0.16
-1.35
-3.25
-5.61
-8.29
-10.94
-13.04
-14.08
-13.75
-12.08
-9.55
-6.93
-5.03
-4.44
-5.39
-7.70
-10.87
-14.14
-16.62
-17.44
-15.92
-11.93
-5.88
1.24
8.32
14.43
19.13
22.41
24.35
24.91
23.81
20.81
16.06
10.27
4.61
0.23
-2.19
-2.70
-1.97
-0.96
-0.44
-0.76
-1.78
-3.11
-4.30
-5.05
-5.30
-5.09
-4.57
-3.85
-3.01
-2.10
-1.10
-0.02
1.16
2.39
3.59
4.68
5.58
6.28
6.81
7.16
7.32
7.19
6.70
5.83
4.71
3.59
2.76
2.42
2.61
3.17
3.87
4.46
4.74
4.64
4.16
3.33
2.26
1.05
-0.18
-1.31
-2.25
-2.91
-3.21
-3.05
-2.34
-1.11
0.45
2.01
3.19
3.72
3.58
2.99
2.33
1.91
1.87
2.15
2.56
2.91
3.09
3.10
3.01
2.91
2.84
2.81
2.78
2.72
2.57
2.30
1.93
1.49
1.06
0.68
0.35
-0.00
-0.48
-1.15
-1.97
-2.81
-3.51
-3.96
-4.11
-3.99
-3.66
-3.12
-2.37
-1.43
-0.37
0.69
1.62
2.34
2.86
3.25
3.58
3.91
4.21
4.43
4.48
4.35
4.07
3.72
3.40
3.18
3.12
3.15
3.19
3.13
2.93
2.59
2.15
1.68
1.16
0.59
-0.06
-0.79
-1.53
-2.22
-2.78
-3.18
-3.47
-3.72
-4.01
-4.39
-4.87
-5.38
-5.82
-6.02
-5.86
-5.27
-4.28
-3.01
-1.62
-0.31
0.78
1.57
2.06
2.27
2.21
1.91
1.41
0.80
0.21
-0.20
-0.30
-0.08
0.41
1.01
1.60
2.09
2.45
2.69
2.82
2.82
2.66
2.34
1.88
1.38
0.93
0.60
0.42
0.29
0.12
-0.21
-0.72
-1.41
-2.16
-2.86
-3.40
-3.69
-3.68
-3.37
-2.79
-2.01
-1.13
-0.23
0.62
1.37
1.99
2.43
2.64
2.64
2.52
2.46
2.60
2.99
3.54
4.05
4.35
4.36
4.16
3.95
3.87
3.96
4.13
4.20
4.00
3.49
2.69
1.71
0.66
-0.34
-1.21
-1.86
-2.20
-2.25
-2.11
-1.96
-2.05
-2.52
-3.41
-4.60
-5.88
-7.01
-7.82
-8.23
-8.20
-7.75
-6.90
-5.73
-4.33
-2.86
-1.45
-0.24
0.74
1.46
1.96
2.24
2.28
2.08
1.66
1.07
0.45
-0.08
-0.43
-0.62
-0.65
-0.59
-0.52
-0.49
-0.52
-0.64
-0.83
-1.03
-1.20
-1.31
-1.39
-1.50
-1.68
-1.97
-2.35
-2.81
-3.32
-3.91
-4.58
-5.24
-5.77
-5.99
-5.79
-5.16
-4.24
-3.20
-2.20
-1.35
-0.64
-0.05
0.42
0.76
0.99
1.17
1.39
1.73
2.23
2.79
3.32
3.69
3.87
3.88
3.79
3.62
3.39
3.06
2.64
2.17
1.76
1.52
1.51
1.69
1.95
2.10
2.00
1.57
0.85
0.01
-0.79
-1.40
-1.81
-2.06
-2.27
-2.54
-2.91
-3.41
-4.02
-4.74
-5.51
-6.26
-6.85
-7.15
-7.07
-6.59
-5.82
-4.85
-3.82
-2.75
-1.66
-0.53
0.60
1.64
2.44
2.93
3.12
3.09
3.01
2.97
3.01
3.10
3.18
3.28
3.48
3.82
4.28
4.74
4.99
4.88
4.36
3.54
2.61
1.74
1.03
0.44
-0.06
-0.52
-0.93
-1.26
-1.52
-1.76
-2.06
-2.51
-3.14
-3.89
-4.68
-5.38
-5.86
-6.00
-5.72
-5.03
-4.01
-2.81
-1.58
-0.49
0.36
0.94
1.29
1.45
1.54
1.63
1.79
2.07
2.44
2.87
3.27
3.54
3.66
3.61
3.45
3.21
2.93
2.61
2.23
1.77
1.22
0.56
-0.20
-1.07
-2.00
-2.96
-3.90
-4.80
-5.68
-6.54
-7.44
-8.35
-9.21
-9.91
-10.30
-10.24
-9.68
-8.66
-7.34
-5.98
-4.81
-3.98
-3.43
-2.94
-2.22
-1.07
0.48
2.19
3.74
4.86
5.55
5.95
6.32
6.76
7.22
7.50
7.46
7.09
6.58
6.14
5.89
5.76
5.57
5.11
4.31
3.28
2.25
1.45
0.98
0.79
0.69
0.50
0.04
-0.77
-1.97
-3.48
-5.20
-6.92
-8.38
-9.28
-9.40
-8.69
-7.29
-5.53
-3.74
-2.21
-1.00
-0.03
0.89
1.87
2.91
3.93
4.77
5.36
5.70
5.86
5.94
6.00
6.05
6.05
5.98
5.87
5.73
5.62
5.55
5.51
5.43
5.26
4.95
4.49
3.91
3.24
2.49
1.63
0.62
-0.56
-1.84
-3.10
-4.16
-4.97
-5.58
-6.18
-7.00
-8.14
-9.49
-10.69
-11.31
-11.04
-9.86
-8.08
-6.25
-4.91
-4.38
-4.59
-5.16
-5.54
-5.30
-4.26
-2.65
-0.94
0.31
0.75
0.37
-0.52
-1.39
-1.82
-1.63
-1.05
-0.59
-0.84
-2.24
-4.87
-8.47
-12.47
-16.13
-18.63
-19.35
-18.04
-15.04
-11.44
-8.85
-8.80
-11.90
-17.17
-22.01
-23.03
-17.46
-4.52
14.04
34.46
52.39
64.40
69.03
66.79
59.56
49.72
39.38
30.13
22.93
18.16
15.65
14.71
14.35
13.53
11.54
8.19
3.81
-0.84
-4.83
-7.41
-8.12
-7.02
-4.63
-1.80
0.57
1.84
1.82
0.79
-0.70
-2.10
-3.07
-3.58
-3.81
-4.11
-4.77
-5.99
-7.74
-9.86
-12.02
-13.82
-14.87
-14.94
-14.03
-12.42
-10.56
-8.96
-7.93
-7.55
-7.60
-7.67
-7.43
-6.67
-5.49
-4.14
-2.94
-2.12
-1.72
-1.60
-1.58
-1.50
-1.30
-1.05
-0.84
-0.73
-0.67
-0.61
-0.47
-0.28
-0.16
-0.24
-0.67
-1.44
-2.48
-3.61
-4.66
-5.51
-6.12
-6.50
-6.66
-6.55
-6.11
-5.30
-4.14
-2.75
-1.28
0.10
1.29
2.30
3.17
3.97
4.68
5.26
5.63
5.77
5.75
5.70
5.77
5.99
6.29
6.48
6.40
5.98
5.30
4.53
3.83
3.26
2.78
2.26
1.55
0.63
-0.45
-1.59
-2.68
-3.68
-4.55
-5.25
-5.67
-5.67
-5.15
-4.09
-2.59
-0.86
0.84
2.29
3.31
3.87
4.04
3.97
3.82
3.75
3.82
4.03
4.32
4.63
4.91
5.12
5.24
5.25
5.12
4.81
4.35
3.76
3.14
2.54
2.01
1.54
1.10
0.61
-0.04
-0.90
-2.00
-3.27
-4.58
-5.78
-6.75
-7.38
-7.59
-7.31
-6.48
-5.15
-3.48
-1.72
-0.11
1.17
2.11
2.81
3.40
3.93
4.40
4.75
4.97
5.10
5.21
5.35
5.52
5.65
5.66
5.53
5.27
4.96
4.71
4.61
4.69
4.94
5.24
5.45
5.38
4.91
4.02
2.83
1.54
0.33
-0.68
-1.49
-2.23
-3.01
-3.92
-4.94
-5.97
-6.85
-7.46
-7.72
-7.60
-7.08
-6.17
-4.85
-3.21
-1.40
0.33
1.73
2.66
3.12
3.23
3.20
3.21
3.36
3.68
4.16
4.75
5.39
5.99
6.41
6.53
6.25
5.59
4.70
3.80
3.11
2.74
2.66
2.72
2.71
2.45
1.90
1.18
0.46
-0.10
-0.46
-0.71
-1.00
-1.45
-2.11
-2.95
-3.90
-4.85
-5.70
-6.33
-6.62
-6.46
-5.80
-4.71
-3.35
-1.94
-0.69
0.28
0.96
1.39
1.65
1.81
1.88
1.90
1.92
2.00
2.20
2.51
2.87
3.17
3.34
3.37
3.33
3.30
3.32
3.36
3.32
3.08
2.60
1.92
1.17
0.51
0.00
-0.36
-0.66
-0.99
-1.38
-1.81
-2.18
-2.49
-2.77
-3.12
-3.63
-4.35
-5.21
-6.09
-6.83
-7.31
-7.47
-7.29
-6.77
-5.98
-5.02
-4.00
-3.00
-2.07
-1.21
-0.39
0.39
1.08
1.58
1.83
1.85
1.73
1.61
1.58
1.64
1.71
1.67
1.47
1.13
0.75
0.49
0.52
0.95
1.83
3.13
4.70
6.30
7.56
8.10
7.58
5.85
3.05
-0.39
-3.85
-6.69
-8.45
-8.95
-8.33
-6.85
-4.85
-2.62
-0.39
1.62
3.17
4.00
3.91
2.88
1.08
-1.18
-3.51
-5.59
-7.20
-8.22
-8.63
-8.40
-7.53
-6.05
-4.09
-1.85
0.35
2.18
3.37
3.78
3.39
2.34
0.87
-0.77
-2.28
-3.41
-4.01
-4.02
-3.55
-2.78
-1.91
-1.10
-0.45
0.05
0.42
0.67
0.80
0.76
0.56
0.25
-0.10
-0.42
-0.64
-0.78
-0.87
-0.99
-1.21
-1.53
-1.95
-2.41
-2.84
-3.20
-3.49
-3.80
-4.24
-4.90
-5.79
-6.83
-7.87
-8.77
-9.39
-9.64
-9.45
-8.80
-7.69
-6.20
-4.49
-2.78
-1.28
-0.16
0.52
0.82
0.87
0.85
0.90
1.17
1.71
2.47
3.32
4.09
4.59
4.74
4.55
4.14
3.67
3.28
3.06
2.99
2.99
2.95
2.79
2.47
2.00
1.45
0.89
0.37
-0.08
-0.45
-0.75
-0.97
-1.16
-1.34
-1.62
-2.09
-2.81
-3.79
-4.97
-6.21
-7.38
-8.37
-9.11
-9.53
-9.61
-9.31
-8.64
-7.64
-6.39
-5.01
-3.56
-2.05
-0.49
1.10
2.57
3.73
4.38
4.45
4.00
3.27
2.48
1.82
1.34
1.00
0.78
0.69
0.79
1.16
1.83
2.76
3.88
5.13
6.44
7.72
8.85
9.61
9.78
9.22
7.94
6.10
4.01
1.93
0.06
-1.58
-3.10
-4.60
-6.12
-7.53
-8.61
-9.10
-8.88
-8.03
-6.77
-5.41
-4.16
-3.10
-2.14
-1.13
0.04
1.41
2.97
4.63
6.23
7.51
8.15
7.81
6.35
3.88
0.87
-2.00
-4.07
-4.87
-4.27
-2.45
0.21
3.24
6.15
8.46
9.74
9.70
8.25
5.63
2.32
-1.04
-3.85
-5.73
-6.59
-6.65
-6.28
-5.86
-5.68
-5.79
-6.13
-6.53
-6.86
-7.01
-6.92
-6.57
-5.91
-4.94
-3.67
-2.19
-0.56
1.09
2.68
4.09
5.21
5.90
6.08
5.78
5.11
4.31
3.60
3.18
3.13
3.45
4.08
4.90
5.71
6.30
6.41
5.85
4.57
2.71
0.59
-1.42
-3.00
-4.00
-4.50
-4.70
-4.91
-5.36
-6.18
-7.35
-8.71
-10.06
-11.14
-11.74
-11.69
-10.94
-9.57
-7.80
-5.99
-4.50
-3.60
-3.23
-3.06
-2.47
-0.89
1.98
5.96
10.40
14.45
17.35
18.66
18.31
16.54
13.77
10.42
6.92
3.71
1.18
-0.35
-0.70
0.04
1.61
3.56
5.34
6.46
6.61
5.79
4.30
2.64
1.25
0.23
-0.75
-2.27
-4.85
-8.59
-13.01
-17.14
-19.92
-20.55
-18.80
-15.04
-10.06
-4.89
-0.48
2.41
3.44
2.77
1.13
-0.26
0.03
3.18
9.66
18.89
29.34
38.92
45.66
48.32
46.75
41.84
35.06
27.93
21.53
16.31
12.14
8.63
5.40
2.23
-0.97
-4.27
-7.82
-11.76
-16.09
-20.46
-24.21
-26.61
-27.10
-25.54
-22.18
-17.47
-11.81
-5.44
1.49
8.73
15.82
22.16
27.11
30.26
31.44
30.74
28.42
24.89
20.63
16.18
11.96
8.19
4.72
1.15
-3.00
-7.94
-13.45
-18.85
-23.14
-25.34
-24.87
-21.74
-16.69
-10.92
-5.76
-2.19
-0.58
-0.63
-1.62
-2.80
-3.70
-4.28
-4.79
-5.51
-6.54
-7.77
-8.99
-10.01
-10.75
-11.26
-11.55
-11.56
-11.15
-10.18
-8.66
-6.82
-5.10
-4.05
-4.12
-5.39
-7.54
-9.81
-11.22
-10.98
-8.70
-4.60
0.57
5.82
10.22
13.18
14.59
14.83
14.63
14.79
15.96
18.31
21.53
24.81
27.17
27.82
26.49
23.52
19.65
15.72
12.34
9.71
7.66
5.82
3.84
1.48
-1.35
-4.63
-8.24
-12.05
-15.89
-19.62
-23.17
-26.51
-29.52
-31.94
-33.31
-33.16
-31.21
-27.72
-23.47
-19.62
-17.30
-17.25
-19.57
-23.79
-28.99
-34.13
-38.19
-40.41
-40.36
-38.10
-34.16
-29.41
-24.78
-20.90
-17.86
-15.19
-12.18
-8.28
-3.42
1.86
6.66
10.10
11.68
11.45
9.91
7.76
5.52
3.46
1.63
0.10
-0.84
-0.67
1.17
4.95
10.40
16.63
22.41
26.49
28.02
26.76
23.06
17.72
11.69
5.89
1.07
-2.31
-4.12
-4.47
-3.73
-2.38
-0.89
0.33
1.02
1.06
0.48
-0.54
-1.78
-2.98
-3.96
-4.57
-4.69
-4.17
-2.75
-0.16
3.71
8.60
13.81
18.34
21.21
21.83
20.18
16.77
12.40
7.76
3.31
-0.79
-4.47
-7.61
-9.99
-11.36
-11.67
-11.15
-10.30
-9.68
-9.74
-10.58
-11.97
-13.39
-14.30
-14.24
-12.96
-10.41
-6.69
-1.96
3.50
9.24
14.55
18.58
20.49
19.80
16.59
11.56
5.81
0.41
-3.90
-6.92
-8.84
-9.96
-10.49
-10.42
-9.62
-7.98
-5.53
-2.41
1.11
4.68
7.98
10.65
12.38
13.00
12.50
11.08
9.01
6.59
4.08
1.69
-0.34
-1.78
-2.43
-2.23
-1.27
0.19
1.82
3.37
4.71
5.78
6.53
6.81
6.50
5.54
4.02
2.27
0.64
-0.54
-1.17
-1.33
-1.19
-0.88
-0.43
0.22
1.16
2.35
3.69
5.02
6.25
7.40
8.46
9.39
10.02
10.11
9.49
8.14
6.30
4.31
2.49
1.06
0.04
-0.65
-1.14
-1.49
-1.67
-1.57
-1.10
-0.22
1.00
2.43
3.87
5.13
6.04
6.52
6.54
6.17
5.51
4.67
3.78
2.94
2.21
1.61
1.15
0.76
0.41
0.09
-0.20
-0.43
-0.63
-0.82
-1.02
-1.27
-1.57
-1.91
-2.32
-2.81
-3.45
-4.25
-5.16
-6.00
-6.53
-6.54
-5.87
-4.53
-2.68
-0.56
1.55
3.41
4.79
5.53
5.55
4.85
3.57
1.96
0.32
-1.12
-2.18
-2.86
-3.22
-3.35
-3.36
-3.29
-3.15
-2.89
-2.49
-1.93
-1.27
-0.59
-0.09
0.09
-0.14
-0.77
-1.66
-2.59
-3.33
-3.71
-3.68
-3.27
-2.61
-1.82
-1.03
-0.26
0.49
1.28
2.16
3.10
4.05
4.90
5.58
6.03
6.26
6.28
6.08
5.63
4.92
3.99
2.96
2.04
1.43
1.26
1.48
1.93
2.37
2.62
2.63
2.40
2.02
1.50
0.84
0.00
-0.98
-2.01
-2.96
-3.70
-4.19
-4.40
-4.37
-4.06
-3.41
-2.35
-0.90
0.77
2.38
3.63
4.31
4.41
4.10
3.64
3.29
3.14
3.15
3.13
2.84
2.07
0.76
-1.00
-2.97
-4.86
-6.38
-7.34
-7.66
-7.42
-6.80
-6.03
-5.32
-4.82
-4.59
-4.63
-4.82
-5.02
-5.08
-4.85
-4.26
-3.31
-2.10
-0.79
0.44
1.48
2.29
2.92
3.41
3.75
3.82
3.43
2.42
0.78
-1.28
-3.36
-4.98
-5.71
-5.40
-4.16
-2.32
-0.35
1.38
2.71
3.67
4.45
5.26
6.23
7.43
8.79
10.18
11.38
12.13
12.10
11.08
9.06
6.30
3.33
0.70
-1.18
-2.22
-2.61
-2.70
-2.73
-2.65
-2.07
-0.48
2.49
6.79
11.81
16.53
19.83
20.90
19.52
16.10
11.48
6.59
2.16
-1.45
-4.17
-6.12
-7.44
-8.22
-8.55
-8.51
-8.22
-7.87
-7.61
-7.51
-7.50
-7.49
-7.35
-7.06
-6.74
-6.56
-6.70
-7.16
-7.80
-8.32
-8.38
-7.78
-6.50
-4.63
-2.34
0.26
3.11
6.16
9.28
12.15
14.32
15.32
14.78
12.67
9.24
5.10
0.99
-2.34
-4.33
-4.72
-3.60
-1.44
1.07
3.11
3.96
3.16
0.75
-2.69
-6.07
-8.17
-7.95
-4.91
0.75
8.26
16.59
24.70
31.82
37.40
41.07
42.59
41.81
38.78
33.86
27.62
20.76
13.89
7.44
1.63
-3.46
-7.82
-11.36
-13.91
-15.19
-14.83
-12.60
-8.46
-2.72
3.95
10.71
16.74
21.39
24.32
25.44
24.82
22.60
18.96
14.18
8.67
2.97
-2.34
-6.77
-10.06
-12.22
-13.48
-14.16
-14.52
-14.68
-14.61
-14.22
-13.44
-12.30
-10.88
-9.35
-7.83
-6.39
-5.09
-3.95
-3.02
-2.39
-2.18
-2.55
-3.65
-5.49
-7.80
-9.93
-10.93
-9.72
-5.53
1.80
11.63
22.70
33.43
42.49
49.06
52.93
54.35
53.77
51.65
48.43
44.53
40.42
36.58
33.35
30.84
28.87
27.07
25.07
22.68
19.85
16.68
13.22
9.45
5.33
0.88
-3.65
-7.89
-11.35
-13.67
-14.73
-14.66
-13.82
-12.70
-11.80
-11.54
-12.19
-13.83
-16.32
-19.34
-22.46
-25.23
-27.37
-28.76
-29.52
-29.87
-30.04
-30.15
-30.12
-29.74
-28.75
-27.04
-24.62
-21.62
-18.12
-14.10
-9.43
-4.02
2.07
8.51
14.89
20.95
26.69
32.40
38.42
44.92
51.66
58.14
63.75
67.98
70.46
70.77
68.38
62.58
52.78
38.90
21.73
3.00
-14.91
-29.60
-39.29
-43.30
-42.18
-37.44
-30.98
-24.58
-19.52
-16.47
-15.64
-16.93
-20.06
-24.62
-30.00
-35.52
-40.57
-44.76
-48.05
-50.54
-52.37
-53.51
-53.80
-53.14
-51.76
-50.22
-49.33
-49.77
-51.83
-55.22
-59.23
-62.98
-65.77
-67.22
-67.39
-66.65
-65.60
-64.84
-64.89
-65.87
-67.37
-68.42
-67.62
-63.71
-56.07
-45.18
-32.55
-20.27
-10.23
-3.41
0.32
1.96
2.74
3.49
4.36
4.93
4.59
2.96
0.11
-3.51
-7.31
-10.76
-13.56
-15.58
-16.79
-17.05
-16.19
-14.04
-10.61
-6.23
-1.57
2.52
5.30
6.44
6.24
5.54
5.42
6.72
9.63
13.49
17.05
18.85
17.82
13.63
6.67
-2.12
-11.51
-20.16
-26.62
-29.40
-27.16
-19.18
-5.84
11.28
29.67
46.57
59.78
68.30
72.38
73.14
72.01
70.03
67.65
64.76
60.96
56.00
49.97
43.36
36.81
30.84
25.49
20.45
15.16
9.23
2.67
-4.08
-10.41
-15.83
-20.12
-23.41
-25.98
-28.06
-29.76
-31.06
-31.88
-32.16
-31.81
-30.70
-28.71
-25.81
-22.13
-18.00
-13.82
-10.01
-6.79
-4.29
-2.51
-1.43
-1.02
-1.22
-1.91
-2.93
-4.12
-5.43
-6.87
-8.49
-10.26
-12.05
-13.59
-14.60
-14.79
-13.87
-11.58
-7.76
-2.39
4.30
11.81
19.48
26.59
32.56
37.02
39.82
40.96
40.58
38.93
36.43
33.66
31.33
30.04
30.12
31.43
33.42
35.28
36.25
35.91
34.35
32.09
29.92
28.51
28.19
28.77
29.65
29.97
28.92
26.07
21.47
15.79
10.08
5.51
2.97
2.75
4.46
7.11
9.47
10.44
9.36
6.14
1.19
-4.70
-10.64
-15.84
-19.80
-22.47
-24.27
-25.97
-28.37
-32.01
-36.84
-42.29
-47.46
-51.50
-53.87
-54.45
-53.40
-50.94
-47.30
-42.72
-37.62
-32.63
-28.40
-25.31
-23.20
-21.48
-19.42
-16.68
-13.49
-10.49
-8.22
-6.68
-5.29
-3.26
-0.17
3.65
7.29
9.80
10.76
10.54
10.00
9.96
10.70
11.87
12.79
12.82
11.63
9.16
5.41
0.47
-5.46
-11.77
-17.49
-21.45
-22.78
-21.33
-17.74
-13.21
-8.98
-5.92
-4.24
-3.56
-3.18
-2.31
-0.31
3.12
7.88
13.48
19.12
23.97
27.37
29.08
29.32
28.77
28.33
28.99
31.47
36.03
42.35
49.55
56.51
62.26
66.28
68.57
69.42
69.02
67.25
63.79
58.46
51.52
43.79
36.34
29.95
24.78
20.32
15.72
10.33
4.07
-2.50
-8.45
-12.91
-15.41
-16.01
-15.16
-13.43
-11.35
-9.28
-7.53
-6.46
-6.49
-8.01
-11.14
-15.46
-20.03
-23.65
-25.24
-24.31
-21.16
-16.72
-12.11
-8.21
-5.36
-3.39
-1.92
-0.66
0.46
1.34
1.84
1.98
1.85
1.51
0.86
-0.38
-2.46
-5.51
-9.26
-13.21
-16.75
-19.45
-21.16
-21.98
-22.17
-21.99
-21.59
-21.05
-20.40
-19.62
-18.70
-17.69
-16.68
-15.87
-15.51
-15.89
-17.22
-19.52
-22.64
-26.26
-29.97
-33.30
-35.79
-37.01
-36.68
-34.67
-31.20
-26.77
-22.01
-17.55
-13.78
-10.80
-8.50
-6.70
-5.29
-4.31
-3.84
-3.96
-4.66
-5.85
-7.45
-9.40
-11.67
-14.17
-16.72
-18.96
-20.46
-20.79
-19.63
-16.88
-12.68
-7.44
-1.74
3.75
8.45
12.00
14.36
15.74
16.49
16.91
17.17
17.24
17.03
16.51
15.84
15.34
15.38
16.18
17.69
19.56
21.20
22.11
22.05
21.22
20.15
19.54
19.91
21.49
24.06
27.01
29.57
31.00
30.79
28.88
25.68
21.96
18.72
16.90
17.03
18.88
21.32
22.52
20.67
14.68
4.77
-7.43
-19.50
-29.17
-35.19
-37.62
-37.50
-36.09
-34.23
-32.15
-29.74
-26.99
-24.32
-22.39
-21.73
-22.41
-23.94
-25.53
-26.48
-26.48
-25.64
-24.37
-23.03
-21.79
-20.53
-18.97
-16.78
-13.79
-10.04
-5.83
-1.68
1.83
4.28
5.57
5.97
5.99
6.11
6.49
6.90
6.83
5.77
3.55
0.38
-3.26
-6.78
-9.67
-11.49
-11.79
-10.17
-6.35
-0.48
6.73
14.15
20.54
25.05
27.41
27.84
26.70
24.21
20.34
15.10
8.84
2.39
-3.18
-6.97
-8.69
-8.75
-8.06
-7.46
-7.44
-7.90
-8.40
-8.46
-7.88
-6.88
-6.02
-6.06
-7.62
-11.02
-16.09
-22.14
-28.04
-32.44
-34.09
-32.20
-26.68
-18.21
-8.13
1.88
10.24
15.83
18.23
17.80
15.46
12.34
9.46
7.39
6.22
5.70
5.43
5.12
4.71
4.28
3.92
3.71
3.68
3.89
4.46
5.54
7.14
9.03
10.77
11.82
11.81
10.73
9.05
7.53
7.06
8.26
11.31
15.77
20.71
24.95
27.46
27.68
25.68
22.18
18.23
14.87
12.85
12.46
13.48
15.34
17.30
18.70
19.13
18.54
17.22
15.63
14.24
13.29
12.76
12.45
12.06
11.34
10.17
8.54
6.50
4.15
1.55
-1.16
-3.89
-6.53
-9.05
-11.54
-14.18
-17.21
-20.82
-24.99
-29.44
-33.58
-36.73
-38.33
-38.20
-36.56
-33.90
-30.65
-26.95
-22.54
-17.02
-10.11
-1.97
6.80
15.33
22.76
28.49
32.24
34.05
34.20
33.24
31.93
31.18
31.81
34.25
38.31
43.19
47.80
51.23
53.06
53.50
53.17
52.65
52.19
51.59
50.32
47.88
44.08
39.20
33.87
28.87
24.81
21.95
20.11
18.77
17.22
14.77
10.95
5.71
-0.54
-7.01
-12.74
-16.92
-19.15
-19.61
-19.00
-18.23
-18.04
-18.63
-19.53
-19.83
-18.63
-15.52
-10.81
-5.54
-1.01
1.71
2.17
0.73
-1.70
-4.04
-5.46
-5.63
-4.77
-3.42
-2.20
-1.58
-1.76
-2.70
-4.14
-5.75
-7.18
-8.07
-8.14
-7.19
-5.25
-2.58
0.28
2.66
3.92
3.68
1.94
-0.94
-4.33
-7.61
-10.31
-12.29
-13.66
-14.71
-15.75
-17.02
-18.59
-20.36
-22.06
-23.29
-23.64
-22.81
-20.77
-17.84
-14.64
-11.90
-10.16
-9.52
-9.66
-10.01
-10.00
-9.39
-8.27
-6.98
-5.85
-5.05
-4.54
-4.22
-4.06
-4.12
-4.56
-5.44
-6.64
-7.77
-8.36
-8.01
-6.52
-4.01
-0.81
2.68
6.05
9.00
11.30
12.72
13.07
12.23
10.26
7.48
4.39
1.52
-0.70
-2.12
-2.83
-3.07
-3.14
-3.24
-3.54
-4.08
-4.86
-5.83
-6.87
-7.78
-8.40
-8.63
-8.46
-8.00
-7.34
-6.60
-5.81
-4.98
-4.11
-3.25
-2.52
-2.04
-1.90
-2.10
-2.58
-3.21
-3.85
-4.41
-4.88
-5.27
-5.61
-5.94
-6.28
-6.71
-7.36
-8.33
-9.68
-11.27
-12.84
-13.97
-14.31
-13.64
-12.01
-9.68
-7.06
-4.52
-2.34
-0.66
0.55
1.37
1.97
2.44
2.89
3.36
3.83
4.24
4.55
4.69
4.66
4.51
4.31
4.13
3.98
3.84
3.62
3.26
2.73
2.06
1.28
0.40
-0.58
-1.65
-2.78
-3.89
-4.86
-5.66
-6.35
-7.09
-8.09
-9.44
-11.09
-12.77
-14.09
-14.66
-14.21
-12.63
-10.10
-6.92
-3.52
-0.30
2.45
4.62
6.27
7.61
8.84
10.11
11.46
12.82
14.05
15.01
15.58
15.73
15.47
14.92
14.27
13.78
13.64
13.84
14.10
13.88
12.51
9.56
5.04
-0.48
-5.98
-10.40
-12.96
-13.44
-12.18
-9.84
-7.10
-4.48
-2.26
-0.59
0.44
0.76
0.43
-0.38
-1.28
-1.87
-1.82
-1.08
0.17
1.73
3.54
5.78
8.79
12.78
17.61
22.67
27.07
29.90
30.65
29.31
26.37
22.53
18.46
14.67
11.40
8.75
6.73
5.24
4.11
3.10
1.93
0.37
-1.68
-4.10
-6.58
-8.69
-10.03
-10.48
-10.26
-9.89
-9.98
-10.95
-12.79
-15.08
-17.09
-18.14
-17.83
-16.12
-13.28
-9.75
-5.93
-2.19
1.23
4.14
6.42
8.04
9.05
9.53
9.62
9.48
9.22
8.89
8.52
8.05
7.43
6.64
5.67
4.56
3.35
2.06
0.68
-0.77
-2.31
-3.93
-5.62
-7.34
-9.02
-10.58
-11.97
-13.17
-14.23
-15.10
-15.60
-15.41
-14.13
-11.49
-7.59
-2.86
2.11
6.79
10.91
14.45
17.45
19.79
21.19
21.34
20.14
17.86
15.11
12.57
10.69
9.56
8.84
8.07
6.86
5.06
2.76
0.23
-2.23
-4.34
-5.96
-7.03
-7.58
-7.72
-7.59
-7.38
-7.28
-7.40
-7.76
-8.25
-8.69
-8.92
-8.84
-8.45
-7.88
-7.31
-6.92
-6.83
-7.12
-7.79
-8.85
-10.22
-11.78
-13.34
-14.65
-15.50
-15.80
-15.56
-15.02
-14.52
-14.44
-15.16
-16.87
-19.43
-22.33
-24.79
-26.01
-25.56
-23.60
-20.84
-18.28
-16.78
-16.73
-17.93
-19.72
-21.30
-22.01
-21.50
-19.76
-17.05
-13.78
-10.35
-7.14
-4.38
-2.19
-0.64
0.24
0.43
-0.00
-0.90
-1.97
-2.85
-3.20
-2.68
-1.03
1.87
6.02
11.14
16.71
22.06
26.47
29.48
30.93
30.99
30.02
28.45
26.57
24.56
22.43
20.11
17.48
14.47
11.06
7.40
3.79
0.65
-1.62
-2.72
-2.58
-1.31
0.78
3.33
5.95
8.35
10.31
11.73
12.61
13.03
13.14
13.11
13.08
13.13
13.22
13.27
13.16
12.82
12.23
11.47
10.60
9.63
8.49
7.13
5.56
3.87
2.24
0.80
-0.42
-1.58
-2.85
-4.34
-6.00
-7.68
-9.20
-10.49
-11.58
-12.60
-13.63
-14.68
-15.67
-16.44
-16.84
-16.75
-16.07
-14.82
-13.20
-11.54
-10.26
-9.73
-10.10
-11.21
-12.64
-13.84
-14.28
-13.57
-11.53
-8.16
-3.63
1.69
7.34
12.76
17.43
21.00
23.32
24.43
24.48
23.65
22.11
20.00
17.58
15.13
13.02
11.59
11.00
11.23
12.08
13.18
14.04
14.12
12.93
10.12
5.70
0.06
-6.02
-11.52
-15.48
-17.27
-16.76
-14.36
-10.83
-7.05
-3.74
-1.33
0.07
0.61
0.62
0.48
0.60
1.38
3.10
5.84
9.38
13.14
16.39
18.46
19.06
18.34
16.88
15.36
14.31
13.91
14.03
14.30
14.37
13.96
12.97
11.38
9.29
6.88
4.34
1.88
-0.38
-2.43
-4.33
-6.12
-7.67
-8.78
-9.21
-8.98
-8.42
-8.11
-8.73
-10.73
-14.14
-18.58
-23.39
-27.88
-31.50
-34.04
-35.50
-36.06
-35.91
-35.17
-33.83
-31.79
-28.91
-25.13
-20.54
-15.40
-10.05
-4.80
0.15
4.74
9.01
13.02
16.72
20.04
22.87
25.14
26.75
27.59
27.44
26.08
23.32
19.17
13.92
8.16
2.65
-1.91
-5.00
-6.39
-6.16
-4.63
-2.26
0.40
2.79
4.38
4.86
4.20
2.69
0.86
-0.73
-1.72
-2.07
-2.05
-2.05
-2.36
-3.01
-3.80
-4.48
-4.87
-4.94
-4.82
-4.72
-4.82
-5.36
-6.53
-8.46
-11.18
-14.52
-18.10
-21.44
-24.12
-25.87
-26.65
-26.58
-25.85
-24.65
-23.18
-21.61
-20.11
-18.78
-17.68
-16.73
-15.85
-14.94
-14.03
-13.16
-12.41
-11.76
-11.06
-10.12
-8.80
-7.12
-5.25
-3.47
-2.00
-0.96
-0.30
0.14
0.51
0.90
1.27
1.50
1.40
0.81
-0.33
-1.94
-3.81
-5.65
-7.18
-8.19
-8.59
-8.40
-7.74
-6.78
-5.74
-4.80
-4.08
-3.61
-3.37
-3.32
-3.53
-4.24
-5.74
-8.27
-11.71
-15.51
-18.90
-21.12
-21.87
-21.42
-20.52
-20.10
-20.89
-23.25
-27.07
-31.67
-35.82
-37.66
-35.08
-26.23
-10.33
11.80
37.71
63.90
86.79
103.75
113.61
116.66
114.15
107.77
99.17
89.77
80.67
72.62
65.95
60.50
55.65
50.50
44.11
35.88
25.84
14.72
3.83
-5.37
-11.79
-15.08
-15.72
-14.75
-13.35
-12.43
-12.30
-12.72
-13.07
-12.69
-11.19
-8.56
-5.15
-1.55
1.67
4.09
5.47
5.70
4.58
1.82
-2.77
-8.96
-15.83
-21.81
-25.20
-24.87
-20.78
-14.08
-6.57
0.09
5.00
8.18
10.25
11.91
13.49
14.90
15.85
16.12
15.66
14.54
12.78
10.34
7.15
3.25
-1.11
-5.51
-9.44
-12.48
-14.39
-15.15
-14.91
-14.01
-12.85
-11.80
-11.11
-10.83
-10.78
-10.65
-10.18
-9.33
-8.32
-7.56
-7.40
-7.99
-9.14
-10.45
-11.48
-11.99
-12.06
-11.98
-12.15
-12.80
-13.91
-15.25
-16.53
-17.52
-18.17
-18.52
-18.68
-18.81
-19.06
-19.65
-20.76
-22.42
-24.36
-25.95
-26.30
-24.58
-20.38
-13.91
-6.00
2.15
9.37
14.76
17.86
18.69
17.48
14.58
10.37
5.27
-0.19
-5.41
-9.80
-12.92
-14.55
-14.85
-14.29
-13.54
-13.22
-13.66
-14.84
-16.46
-18.11
-19.25
-19.56
-19.15
-18.48
-18.13
-18.44
-19.40
-20.68
-21.73
-21.61
-19.56
-15.33
-9.29
-2.06
5.84
14.04
22.29
30.23
38.06
45.91
53.57
60.46
65.99
69.80
71.70
71.52
69.25
66.24
64.41
65.46
70.14
78.10
88.17
98.71
108.03
109.42
98.57
75.96
47.09
18.71
-4.83
-22.06
-33.44
-40.21
-43.88
-45.10
-43.97
-40.93
-37.02
-33.49
-31.26
-30.72
-31.86
-34.06
-36.08
-36.85
-36.08
-34.34
-32.52
-31.18
-30.42
-29.93
-29.31
-27.88
-25.12
-21.02
-16.03
-10.83
-6.05
-2.13
0.63
2.11
2.59
2.57
2.50
2.61
2.90
3.25
3.50
3.51
3.31
3.05
2.97
3.17
3.59
4.01
4.21
4.03
3.44
2.61
1.72
0.99
0.49
0.18
-0.11
-0.49
-1.00
-1.57
-2.09
-2.55
-3.05
-3.82
-5.08
-6.90
-9.07
-11.10
-12.32
-12.02
-9.67
-5.07
1.47
9.17
16.95
23.63
28.32
30.60
30.60
28.84
26.03
22.75
19.34
15.90
12.42
8.97
5.74
3.02
1.06
-0.03
-0.46
-0.67
-1.25
-2.72
-5.25
-8.61
-12.18
-15.23
-17.22
-18.08
-18.30
-18.73
-20.28
-23.56
-28.73
-35.31
-42.17
-47.40
-48.55
-43.14
-29.64
-8.50
17.48
43.68
65.12
78.19
81.72
77.06
67.09
54.84
42.48
31.14
21.23
13.00
6.81
2.97
1.45
1.67
2.70
3.53
3.43
2.20
0.07
-2.46
-4.88
-6.85
-8.32
-9.49
-10.63
-11.90
-13.23
-14.36
-14.92
-14.70
-13.72
-12.27
-10.79
-9.67
-9.15
-9.24
-9.79
-10.64
-11.70
-12.96
-14.54
-16.54
-18.96
-21.69
-24.48
-27.04
-29.06
-30.31
-30.72
-30.31
-29.22
-27.66
-25.88
-24.10
-22.52
-21.28
-20.39
-19.75
-19.17
-18.44
-17.39
-15.94
-14.09
-11.89
-9.39
-6.62
-3.69
-0.74
1.99
4.28
6.05
7.39
8.56
9.86
11.48
13.35
15.14
16.44
16.94
16.53
15.40
13.87
12.25
10.70
9.25
7.87
6.54
5.31
4.23
3.34
2.53
1.64
0.44
-1.22
-3.35
-5.85
-8.51
-11.09
-13.38
-15.18
-16.30
-16.61
-16.06
-14.74
-12.98
-11.23
-9.94
-9.39
-9.55
-10.14
-10.81
-11.31
-11.56
-11.65
-11.65
-11.56
-11.29
-10.75
-9.95
-9.02
-8.12
-7.34
-6.66
-5.96
-5.14
-4.14
-2.92
-1.41
0.52
2.98
6.00
9.43
13.02
16.45
19.53
22.13
24.25
25.87
26.97
27.55
27.69
27.57
27.38
27.25
27.10
26.75
25.89
24.21
21.41
17.16
11.26
3.71
-5.04
-14.16
-22.67
-29.81
-35.28
-39.36
-42.48
-44.99
-46.88
-47.99
-48.33
-48.21
-48.15
-48.40
-48.59
-47.69
-44.52
-38.36
-29.51
-19.30
-9.61
-2.17
2.03
2.89
1.16
-1.94
-5.00
-6.67
-5.84
-1.93
4.98
13.90
23.02
30.04
32.74
29.69
20.72
7.03
-9.10
-24.96
-38.18
-47.27
-51.92
-52.77
-51.01
-47.85
-44.14
-40.24
-36.11
-31.61
-26.67
-21.40
-16.08
-10.97
-6.27
-2.04
1.66
4.76
7.10
8.52
8.97
8.60
7.71
6.67
5.80
5.21
4.86
4.59
4.27
3.88
3.55
3.55
4.14
5.46
7.47
9.91
12.45
14.74
16.60
18.04
19.22
20.34
21.53
22.84
24.18
25.43
26.42
27.04
27.14
26.56
25.15
22.77
19.42
15.25
10.57
5.78
1.25
-2.73
-6.03
-8.58
-10.33
-11.16
-10.93
-9.57
-7.14
-3.94
-0.45
2.83
5.50
7.42
8.69
9.53
10.19
10.78
11.31
11.70
11.92
12.00
12.05
12.19
12.46
12.84
13.21
13.48
13.54
13.35
12.88
12.08
10.95
9.49
7.76
5.92
4.17
2.79
2.05
2.10
3.00
4.66
6.87
9.41
12.07
14.67
17.06
19.07
20.56
21.45
21.72
21.47
20.84
19.98
18.95
17.77
16.46
15.04
13.58
12.10
10.60
9.02
7.30
5.38
3.30
1.11
-1.12
-3.27
-5.18
-6.67
-7.49
-7.52
-6.73
-5.23
-3.24
-1.02
1.24
3.39
5.29
6.85
7.94
8.54
8.70
8.54
8.27
8.04
7.93
7.92
7.93
7.84
7.58
7.12
6.50
5.80
5.07
4.31
3.44
2.34
0.85
-1.05
-3.25
-5.47
-7.31
-8.43
-8.60
-7.77
-6.11
-3.88
-1.37
1.15
3.48
5.51
7.13
8.32
9.05
9.36
9.30
8.96
8.46
7.93
7.50
7.23
7.06
6.89
6.57
5.96
5.03
3.85
2.55
1.30
0.18
-0.82
-1.85
-3.07
-4.60
-6.48
-8.54
-10.51
-12.08
-12.93
-12.86
-11.82
-9.96
-7.53
-4.88
-2.33
-0.11
1.75
3.28
4.57
5.62
6.38
6.75
6.70
6.34
5.90
5.59
5.57
5.78
6.05
6.15
5.93
5.34
4.46
3.39
2.24
1.06
-0.08
-1.16
-2.17
-3.17
-4.25
-5.53
-7.08
-8.82
-10.55
-11.96
-12.73
-12.67
-11.74
-10.06
-7.81
-5.27
-2.66
-0.21
1.94
3.69
5.04
6.02
6.75
7.30
7.73
8.03
8.17
8.13
7.94
7.67
7.43
7.28
7.22
7.16
6.95
6.48
5.68
4.63
3.41
2.15
0.89
-0.33
-1.53
-2.70
-3.80
-4.86
-5.93
-7.14
-8.58
-10.23
-11.87
-13.11
-13.58
-13.01
-11.45
-9.19
-6.71
-4.40
-2.54
-1.14
-0.08
0.81
1.69
2.58
3.44
4.17
4.69
4.98
5.06
5.05
5.08
5.26
5.59
5.99
6.29
6.30
5.85
4.94
3.63
2.10
0.52
-0.97
-2.35
-3.61
-4.81
-5.97
-7.12
-8.31
-9.60
-11.09
-12.85
-14.84
-16.91
-18.77
-20.08
-20.61
-20.29
-19.30
-17.96
-16.62
-15.52
-14.68
-13.93
-13.01
-11.71
-9.92
-7.71
-5.23
-2.66
-0.08
2.51
5.12
7.76
10.32
12.63
14.48
15.75
16.39
16.49
16.18
15.56
14.69
13.56
12.15
10.51
8.76
7.07
5.55
4.25
3.07
1.87
0.49
-1.20
-3.24
-5.61
-8.25
-11.00
-13.68
-15.98
-17.61
-18.34
-18.17
-17.30
-16.12
-15.00
-14.14
-13.52
-12.91
-12.07
-10.81
-9.13
-7.10
-4.81
-2.27
0.50
3.48
6.56
9.52
12.11
14.14
15.55
16.42
16.89
17.09
17.04
16.67
15.84
14.46
12.58
10.40
8.19
6.20
4.53
3.09
1.68
0.11
-1.73
-3.75
-5.80
-7.69
-9.28
-10.54
-11.47
-12.09
-12.42
-12.47
-12.33
-12.07
-11.75
-11.39
-10.94
-10.31
-9.48
-8.55
-7.71
-7.11
-6.82
-6.66
-6.32
-5.49
-3.98
-1.81
0.84
3.72
6.63
9.43
11.99
14.17
15.74
16.55
16.52
15.74
14.43
12.84
11.15
9.49
7.85
6.23
4.58
2.92
1.22
-0.54
-2.44
-4.54
-6.87
-9.36
-11.82
-13.97
-15.52
-16.32
-16.39
-15.90
-15.11
-14.25
-13.42
-12.57
-11.58
-10.33
-8.73
-6.77
-4.48
-1.91
0.87
3.75
6.62
9.31
11.63
13.48
14.88
15.98
17.09
18.48
20.29
22.41
24.43
25.76
25.86
24.46
21.69
18.03
14.11
10.46
7.33
4.73
2.48
0.44
-1.44
-3.12
-4.60
-5.96
-7.36
-8.96
-10.78
-12.71
-14.46
-15.72
-16.29
-16.13
-15.37
-14.24
-13.01
-11.87
-10.87
-9.99
-9.13
-8.27
-7.45
-6.78
-6.38
-6.28
-6.40
-6.52
-6.38
-5.77
-4.51
-2.60
-0.13
2.72
5.72
8.60
11.13
13.15
14.55
15.33
15.54
15.29
14.67
13.73
12.55
11.21
9.83
8.56
7.48
6.56
5.68
4.66
3.36
1.79
0.06
-1.61
-3.03
-4.08
-4.73
-4.99
-4.89
-4.45
-3.72
-2.83
-1.96
-1.27
-0.88
-0.79
-0.91
-1.15
-1.42
-1.73
-2.13
-2.66
-3.31
-4.03
-4.75
-5.40
-5.92
-6.26
-6.30
-5.91
-5.00
-3.60
-1.84
0.10
2.03
3.87
5.62
7.28
8.80
10.08
10.93
11.22
10.89
9.94
8.44
6.54
4.41
2.33
0.62
-0.46
-0.71
-0.17
0.95
2.31
3.54
4.41
4.84
4.87
4.64
4.30
3.95
3.64
3.40
3.20
3.03
2.81
2.46
1.92
1.13
0.14
-0.95
-2.01
-2.94
-3.74
-4.47
-5.24
-6.13
-7.12
-8.11
-8.98
-9.58
-9.84
-9.74
-9.26
-8.41
-7.22
-5.77
-4.19
-2.68
-1.42
-0.52
0.08
0.54
1.08
1.91
3.09
4.53
6.05
7.44
8.53
9.25
9.59
9.61
9.43
9.15
8.87
8.67
8.59
8.63
8.74
8.87
8.92
8.79
8.38
7.64
6.59
5.35
4.11
3.05
2.26
1.70
1.25
0.74
0.09
-0.75
-1.75
-2.86
-4.06
-5.33
-6.61
-7.85
-8.96
-9.90
-10.71
-11.48
-12.35
-13.40
-14.63
-15.92
-17.03
-17.70
-17.68
-16.82
-15.09
-12.58
-9.50
-6.12
-2.69
0.62
3.66
6.33
8.55
10.28
11.49
12.22
12.57
12.66
12.61
12.53
12.45
12.38
12.26
11.99
11.51
10.80
9.96
9.10
8.36
7.80
7.36
6.94
6.42
5.71
4.84
3.86
2.83
1.76
0.65
-0.52
-1.70
-2.86
-3.98
-5.03
-6.01
-6.90
-7.62
-8.08
-8.18
-7.90
-7.30
-6.50
-5.60
-4.69
-3.80
-2.97
-2.20
-1.56
-1.08
-0.80
-0.70
-0.78
-1.01
-1.34
-1.74
-2.12
-2.42
-2.63
-2.83
-3.18
-3.83
-4.87
-6.24
-7.75
-9.18
-10.37
-11.23
-11.81
-12.17
-12.33
-12.23
-11.75
-10.81
-9.43
-7.75
-6.01
-4.41
-3.06
-1.90
-0.80
0.41
1.83
3.46
5.22
6.98
8.59
9.96
11.06
11.90
12.53
13.01
13.34
13.48
13.35
12.90
12.16
11.26
10.41
9.77
9.40
9.21
9.01
8.63
7.99
7.13
6.17
5.24
4.45
3.81
3.30
2.91
2.60
2.33
2.03
1.61
0.99
0.17
-0.80
-1.80
-2.79
-3.72
-4.63
-5.51
-6.29
-6.87
-7.11
-6.93
-6.35
-5.41
-4.21
-2.82
-1.30
0.31
1.89
3.33
4.52
5.39
5.96
6.30
6.53
6.74
7.01
7.29
7.54
7.62
7.46
7.00
6.28
5.41
4.51
3.67
2.91
2.16
1.30
0.24
-1.05
-2.51
-4.02
-5.49
-6.88
-8.24
-9.62
-11.06
-12.53
-13.99
-15.37
-16.67
-17.91
-19.08
-20.10
-20.79
-20.95
-20.41
-19.09
-16.95
-14.08
-10.60
-6.73
-2.76
0.99
4.23
6.82
8.81
10.30
11.46
12.34
12.94
13.24
13.25
13.02
12.61
12.05
11.29
10.29
9.08
7.79
6.58
5.56
4.78
4.16
3.57
2.91
2.14
1.28
0.41
-0.42
-1.15
-1.74
-2.14
-2.31
-2.20
-1.79
-1.06
-0.01
1.30
2.78
4.29
5.61
6.57
7.02
6.95
6.48
5.80
5.08
4.44
3.91
3.44
3.00
2.55
2.08
1.59
1.00
0.25
-0.74
-1.93
-3.22
-4.40
-5.28
-5.73
-5.74
-5.40
-4.84
-4.24
-3.76
-3.61
-3.93
-4.77
-6.02
-7.40
-8.52
-9.06
-8.86
-8.01
-6.76
-5.39
-4.10
-2.98
-2.04
-1.31
-0.84
-0.65
-0.75
-1.00
-1.23
-1.26
-1.00
-0.49
0.16
0.81
1.39
1.88
2.32
2.76
3.21
3.72
4.31
4.98
5.69
6.32
6.67
6.55
5.89
4.76
3.35
1.94
0.69
-0.30
-1.06
-1.58
-1.88
-1.89
-1.57
-0.96
-0.11
0.91
2.04
3.26
4.52
5.75
6.81
7.57
7.93
7.88
7.45
6.70
5.69
4.52
3.34
2.34
1.79
1.89
2.76
4.37
6.55
9.03
11.48
13.61
15.20
16.10
16.28
15.80
14.76
13.25
11.33
9.08
6.59
4.02
1.54
-0.69
-2.58
-4.11
-5.32
-6.19
-6.68
-6.76
-6.48
-6.02
-5.65
-5.61
-6.03
-6.86
-7.95
-9.06
-9.90
-10.20
-9.65
-8.04
-5.40
-2.13
1.04
3.24
3.77
2.43
-0.49
-4.29
-8.20
-11.57
-14.05
-15.50
-15.88
-15.22
-13.65
-11.44
-9.03
-6.88
-5.33
-4.46
-4.09
-3.88
-3.54
-2.90
-1.98
-0.99
-0.14
0.40
0.56
0.37
-0.09
-0.73
-1.52
-2.46
-3.55
-4.75
-5.95
-7.08
-8.02
-8.76
-9.33
-9.79
-10.19
-10.50
-10.62
-10.42
-9.80
-8.75
-7.41
-5.99
-4.77
-3.89
-3.37
-3.10
-2.94
-2.79
-2.65
-2.52
-2.32
-1.82
-0.71
1.26
4.13
7.69
11.58
15.50
19.22
22.66
25.71
28.21
30.02
31.07
31.49
31.55
31.53
31.57
31.49
30.86
29.12
25.97
21.53
16.45
11.74
8.41
7.05
7.70
9.86
12.79
15.89
18.85
21.67
24.51
27.43
30.39
33.25
35.76
37.55
38.14
37.03
34.06
29.75
25.41
22.80
23.44
27.88
35.35
43.93
51.30
55.54
55.74
52.15
45.85
38.21
30.39
23.08
16.42
10.26
4.31
-1.68
-7.91
-14.44
-21.26
-28.16
-34.67
-40.04
-43.54
-44.76
-44.02
-42.37
-41.22
-41.79
-44.56
-49.00
-53.94
-58.08
-60.57
-61.25
-60.50
-58.92
-56.94
-54.73
-52.30
-49.74
-47.36
-45.53
-44.55
-44.41
-44.70
-44.80
-44.08
-42.14
-38.96
-34.85
-30.31
-25.88
-21.97
-18.80
-16.40
-14.59
-13.11
-11.57
-9.52
-6.43
-1.78
4.87
13.58
23.91
34.87
45.11
53.28
58.51
60.60
60.01
57.61
54.27
50.59
46.77
42.72
38.32
33.49
28.35
23.06
17.83
12.81
8.09
3.73
-0.20
-3.62
-6.52
-8.93
-10.98
-12.86
-14.73
-16.62
-18.43
-19.95
-21.02
-21.59
-21.81
-21.95
-22.20
-22.61
-22.98
-22.99
-22.37
-21.10
-19.46
-17.86
-16.75
-16.30
-16.43
-16.88
-17.36
-17.72
-17.94
-18.07
-18.10
-17.93
-17.37
-16.33
-14.89
-13.35
-12.07
-11.32
-11.13
-11.27
-11.39
-11.19
-10.54
-9.52
-8.27
-6.96
-5.64
-4.35
-3.12
-2.03
-1.20
-0.70
-0.56
-0.74
-1.21
-1.90
-2.76
-3.68
-4.52
-5.12
-5.45
-5.59
-5.77
-6.23
-7.08
-8.24
-9.43
-10.35
-10.79
-10.74
-10.36
-9.84
-9.30
-8.71
-7.91
-6.78
-5.31
-3.72
-2.33
-1.47
-1.32
-1.81
-2.66
-3.48
-3.95
-3.93
-3.49
-2.85
-2.25
-1.88
-1.77
-1.86
-2.11
-2.53
-3.23
-4.34
-5.89
-7.76
-9.71
-11.45
-12.73
-13.41
-13.47
-12.98
-12.12
-11.12
-10.21
-9.50
-8.91
-8.18
-7.00
-5.17
-2.76
-0.16
2.11
3.54
3.98
3.68
3.22
3.26
4.27
6.28
8.86
11.39
13.30
14.27
14.30
13.58
12.30
10.57
8.42
5.92
3.28
0.83
-1.03
-1.92
-1.56
0.27
3.65
8.47
14.37
20.62
26.16
29.84
30.68
28.29
23.10
16.32
9.68
4.78
2.59
3.11
5.51
8.61
11.43
13.53
14.98
16.05
16.88
17.31
17.02
15.84
13.85
11.38
8.75
6.11
3.35
0.27
-3.18
-6.73
-9.83
-11.86
-12.42
-11.55
-9.67
-7.40
-5.32
-3.73
-2.62
-1.79
-0.96
0.03
1.19
2.44
3.65
4.73
5.65
6.41
7.00
7.40
7.54
7.41
7.02
6.40
5.64
4.74
3.71
2.49
0.99
-0.85
-3.06
-5.63
-8.44
-11.28
-13.87
-15.93
-17.25
-17.71
-17.36
-16.30
-14.70
-12.72
-10.48
-8.13
-5.79
-3.64
-1.83
-0.50
0.31
0.68
0.78
0.89
1.25
2.02
3.16
4.48
5.70
6.57
6.96
6.87
6.41
5.70
4.83
3.83
2.73
1.53
0.24
-1.09
-2.48
-3.89
-5.30
-6.64
-7.78
-8.58
-8.91
-8.67
-7.90
-6.69
-5.19
-3.60
-2.07
-0.69
0.48
1.44
2.20
2.76
3.14
3.32
3.34
3.26
3.16
3.13
3.16
3.23
3.27
3.21
3.02
2.68
2.24
1.72
1.17
0.64
0.16
-0.29
-0.83
-1.58
-2.63
-3.96
-5.36
-6.55
-7.23
-7.24
-6.57
-5.35
-3.77
-1.99
-0.14
1.69
3.42
4.89
6.01
6.70
7.01
7.01
6.83
6.55
6.21
5.84
5.46
5.12
4.84
4.59
4.33
4.01
3.57
3.02
2.39
1.75
1.15
0.64
0.22
-0.17
-0.65
-1.34
-2.40
-3.82
-5.42
-6.86
-7.72
-7.70
-6.68
-4.83
-2.49
-0.02
2.26
4.18
5.66
6.67
7.23
7.36
7.18
6.82
6.49
6.34
6.43
6.75
7.16
7.49
7.58
7.30
6.63
5.64
4.46
3.25
2.14
1.17
0.29
-0.56
-1.43
-2.36
-3.34
-4.39
-5.50
-6.65
-7.77
-8.67
-9.15
-9.01
-8.17
-6.71
-4.80
-2.68
-0.57
1.39
3.10
4.52
5.56
6.19
6.38
6.16
5.64
5.01
4.47
4.20
4.32
4.83
5.64
6.58
7.42
7.92
7.96
7.47
6.52
5.24
3.83
2.41
1.10
-0.06
-1.08
-1.99
-2.81
-3.53
-4.08
-4.34
-4.19
-3.58
-2.57
-1.27
0.15
1.57
2.97
4.32
5.60
6.71
7.52
7.96
8.08
8.03
7.99
8.06
8.25
8.43
8.50
8.43
8.26
8.05
7.82
7.48
6.92
6.03
4.80
3.31
1.68
0.00
-1.65
-3.28
-4.86
-6.30
-7.49
-8.30
-8.62
-8.44
-7.79
-6.82
-5.70
-4.59
-3.64
-2.90
-2.35
-1.88
-1.38
-0.77
-0.12
0.46
0.78
0.75
0.37
-0.26
-1.03
-1.90
-2.91
-4.17
-5.69
-7.31
-8.69
-9.41
-9.16
-7.90
-5.87
-3.58
-1.56
-0.18
0.41
0.29
-0.30
-1.09
-1.82
-2.25
-2.24
-1.71
-0.68
0.71
2.24
3.69
4.91
5.82
6.43
6.80
6.94
6.86
6.54
5.98
5.22
4.35
3.49
2.77
2.27
2.03
2.00
2.07
2.11
1.99
1.64
1.00
0.05
-1.25
-2.92
-4.96
-7.27
-9.70
-11.95
-13.73
-14.75
-14.85
-14.06
-12.53
-10.54
-8.35
-6.22
-4.28
-2.58
-1.12
0.12
1.14
1.87
2.24
2.18
1.73
1.00
0.21
-0.39
-0.62
-0.42
0.14
0.90
1.71
2.42
2.94
3.21
3.17
2.76
1.98
0.87
-0.44
-1.74
-2.79
-3.33
-3.21
-2.33
-0.78
1.25
3.49
5.69
7.68
9.45
11.12
12.85
14.76
16.87
19.00
20.90
22.29
23.03
23.19
22.97
22.66
22.49
22.51
22.61
22.54
22.05
20.99
19.28
17.01
14.33
11.45
8.54
5.70
2.86
-0.13
-3.44
-7.09
-10.87
-14.43
-17.39
-19.55
-20.92
-21.73
-22.20
-22.44
-22.40
-21.96
-21.14
-20.08
-18.98
-17.89
-16.60
-14.66
-11.64
-7.36
-2.04
3.76
9.45
14.54
18.78
21.99
23.95
24.38
23.06
20.01
15.71
10.94
6.56
3.16
0.88
-0.64
-2.04
-3.95
-6.79
-10.56
-14.83
-18.92
-22.01
-23.46
-22.98
-20.74
-17.28
-13.31
-9.41
-5.81
-2.34
1.41
5.88
11.24
17.31
23.53
29.10
33.27
35.49
35.64
34.00
31.21
28.05
25.28
23.41
22.65
22.90
23.82
24.97
25.87
26.05
25.10
22.79
19.10
14.40
9.33
4.67
1.09
-1.11
-2.10
-2.38
-2.54
-3.02
-3.97
-5.31
-6.90
-8.63
-10.47
-12.41
-14.42
-16.45
-18.50
-20.56
-22.62
-24.55
-26.07
-26.84
-26.62
-25.41
-23.53
-21.51
-19.90
-19.02
-18.92
-19.38
-20.12
-20.84
-21.34
-21.54
-21.42
-20.99
-20.34
-19.55
-18.72
-17.92
-17.15
-16.33
-15.34
-14.02
-12.28
-10.15
-7.78
-5.39
-3.18
-1.30
0.18
1.24
1.97
2.56
3.31
4.61
6.79
10.02
14.17
18.83
23.43
27.46
30.62
32.92
34.56
35.77
36.75
37.59
38.33
38.98
39.55
40.04
40.40
40.51
40.30
39.80
39.10
38.36
37.62
36.81
35.69
34.01
31.55
28.24
24.08
19.14
13.46
7.09
0.15
-7.15
-14.45
-21.34
-27.44
-32.52
-36.52
-39.50
-41.63
-43.07
-43.90
-44.19
-43.96
-43.27
-42.24
-41.05
-39.84
-38.63
-37.36
-35.96
-34.40
-32.74
-31.10
-29.49
-27.82
-25.93
-23.73
-21.33
-19.05
-17.28
-16.30
-16.10
-16.47
-17.07
-17.70
-18.30
-18.99
-19.90
-21.10
-22.53
-24.05
-25.51
-26.71
-27.45
-27.51
-26.75
-25.13
-22.81
-20.06
-17.21
-14.56
-12.27
-10.42
-8.96
-7.82
-6.87
-5.97
-4.98
-3.82
-2.47
-1.02
0.39
1.65
2.66
3.42
3.99
4.41
4.70
4.84
4.86
4.78
4.69
4.67
4.75
4.88
5.02
5.21
5.59
6.40
7.82
9.84
12.28
14.77
16.96
18.60
19.54
19.69
18.99
17.41
15.09
12.36
9.73
7.71
6.63
6.50
7.06
7.95
8.81
9.51
10.07
10.63
11.38
12.43
13.78
15.28
16.75
17.95
18.76
19.17
19.29
19.23
19.07
18.82
18.44
17.95
17.43
17.00
16.76
16.71
16.66
16.33
15.37
13.53
10.72
7.05
2.81
-1.58
-5.70
-9.21
-11.95
-13.95
-15.39
-16.50
-17.46
-18.32
-19.05
-19.55
-19.71
-19.53
-18.99
-18.13
-17.00
-15.67
-14.22
-12.74
-11.24
-9.70
-8.03
-6.11
-3.93
-1.53
0.96
3.40
5.69
7.77
9.58
11.08
12.19
12.88
13.16
13.04
12.57
11.74
10.56
9.01
7.18
5.19
3.25
1.51
0.06
-1.08
-2.00
-2.78
-3.52
-4.18
-4.68
-4.86
-4.54
-3.58
-1.93
0.35
3.07
5.95
8.64
10.80
12.22
12.78
12.50
11.53
10.04
8.22
6.24
4.19
2.11
0.03
-2.07
-4.17
-6.25
-8.24
-10.09
-11.76
-13.23
-14.52
-15.60
-16.46
-17.08
-17.42
-17.51
-17.43
-17.29
-17.21
-17.29
-17.59
-18.10
-18.71
-19.25
-19.49
-19.17
-18.04
-15.96
-12.90
-8.99
-4.47
0.33
5.09
9.53
13.45
16.77
19.46
21.58
23.21
24.40
25.20
25.59
25.58
25.21
24.54
23.67
22.67
21.57
20.33
18.94
17.37
15.63
13.72
11.57
9.09
6.22
2.94
-0.63
-4.34
-7.99
-11.49
-14.78
-17.87
-20.77
-23.45
-25.81
-27.71
-28.94
-29.28
-28.51
-26.48
-23.20
-18.81
-13.63
-8.05
-2.43
3.00
8.13
12.93
17.40
21.46
24.92
27.50
28.94
29.15
28.27
26.66
24.78
22.99
21.41
19.94
18.36
16.45
14.15
11.54
8.83
6.19
3.70
1.37
-0.88
-3.13
-5.47
-7.94
-10.53
-13.20
-15.83
-18.23
-20.20
-21.55
-22.12
-21.87
-20.87
-19.26
-17.24
-15.05
-12.90
-10.97
-9.37
-8.20
-7.44
-7.03
-6.86
-6.78
-6.65
-6.37
-5.93
-5.35
-4.76
-4.29
-4.03
-3.98
-4.05
-4.10
-3.97
-3.57
-2.89
-2.02
-1.03
0.03
1.19
2.54
4.19
6.17
8.37
10.55
12.31
13.30
13.29
12.32
10.73
9.02
7.73
7.25
7.64
8.74
10.18
11.57
12.63
13.22
13.30
12.91
12.09
10.83
9.12
6.97
4.41
1.56
-1.42
-4.35
-7.10
-9.55
-11.69
-13.50
-14.99
-16.15
-16.92
-17.24
-17.06
-16.41
-15.38
-14.12
-12.73
-11.29
-9.81
-8.29
-6.71
-5.08
-3.48
-2.04
-0.92
-0.26
-0.10
-0.35
-0.79
-1.13
-1.17
-0.85
-0.28
0.30
0.70
0.84
0.75
0.52
0.20
-0.25
-1.00
-2.19
-3.92
-6.15
-8.75
-11.51
-14.20
-16.63
-18.67
-20.29
-21.45
-22.18
-22.50
-22.48
-22.19
-21.73
-21.20
-20.70
-20.27
-19.95
-19.76
-19.73
-19.92
-20.32
-20.89
-21.50
-21.96
-22.08
-21.73
-20.83
-19.36
-17.30
-14.63
-11.33
-7.41
-2.99
1.68
6.28
10.44
13.82
16.24
17.71
18.36
18.44
18.17
17.71
17.14
16.53
15.95
15.47
15.17
15.01
14.87
14.55
13.87
12.70
11.11
9.32
7.68
6.53
6.10
6.40
7.18
8.09
8.76
9.00
8.90
8.73
8.84
9.44
10.53
11.97
13.58
15.23
16.87
18.54
20.22
21.85
23.29
24.39
25.07
25.31
25.13
24.51
23.39
21.68
19.37
16.58
13.62
10.91
8.85
7.64
7.26
7.44
7.79
8.00
7.94
7.62
7.19
6.75
6.33
5.87
5.25
4.38
3.26
1.99
0.80
-0.09
-0.46
-0.19
0.72
2.17
4.02
6.10
8.29
10.47
12.55
14.49
16.21
17.67
18.81
19.63
20.15
20.48
20.76
21.15
21.77
22.65
23.76
25.01
26.33
27.64
28.91
30.10
31.13
31.94
32.49
32.82
33.05
33.25
33.45
33.50
33.18
32.24
30.55
28.06
24.90
21.26
17.35
13.46
9.87
6.83
4.51
2.94
1.98
1.43
1.12
1.03
1.28
1.93
2.83
3.60
3.62
2.31
-0.64
-5.11
-10.60
-16.33
-21.59
-25.81
-28.70
-30.22
-30.50
-29.81
-28.48
-26.94
-25.60
-24.79
-24.65
-25.08
-25.82
-26.51
-26.87
-26.80
-26.42
-25.97
-25.78
-26.12
-27.14
-28.85
-31.12
-33.64
-35.99
-37.71
-38.40
-37.81
-35.98
-33.20
-29.96
-26.73
-23.90
-21.61
-19.82
-18.34
-16.99
-15.63
-14.21
-12.70
-11.06
-9.23
-7.21
-5.03
-2.88
-0.97
0.51
1.45
1.90
1.95
1.71
1.24
0.56
-0.27
-1.15
-1.91
-2.45
-2.75
-2.95
-3.30
-4.03
-5.22
-6.78
-8.43
-9.84
-10.70
-10.83
-10.15
-8.73
-6.71
-4.30
-1.74
0.72
2.91
4.72
6.11
7.13
7.83
8.26
8.46
8.48
8.41
8.33
8.25
8.10
7.73
7.03
5.99
4.75
3.52
2.49
1.69
1.03
0.32
-0.58
-1.73
-3.08
-4.55
-6.06
-7.52
-8.86
-9.97
-10.82
-11.42
-11.89
-12.39
-13.01
-13.71
-14.31
-14.52
-14.05
-12.76
-10.70
-8.05
-5.13
-2.24
0.42
2.76
4.83
6.72
8.46
10.04
11.38
12.40
13.10
13.58
13.99
14.46
15.03
15.63
16.10
16.28
16.06
15.43
14.48
13.38
12.30
11.34
10.51
9.73
8.83
7.69
6.27
4.62
2.83
1.00
-0.79
-2.50
-4.10
-5.60
-7.04
-8.52
-10.09
-11.75
-13.38
-14.77
-15.68
-15.90
-15.39
-14.21
-12.53
-10.59
-8.60
-6.70
-5.00
-3.54
-2.32
-1.30
-0.41
0.42
1.28
2.19
3.13
4.03
4.81
5.45
5.96
6.42
6.86
7.29
7.66
7.90
7.92
7.69
7.20
6.49
5.64
4.74
3.87
3.06
2.27
1.43
0.44
-0.73
-2.03
-3.31
-4.45
-5.42
-6.29
-7.20
-8.31
-9.63
-11.05
-12.32
-13.16
-13.31
-12.65
-11.21
-9.13
-6.64
-3.96
-1.22
1.48
4.08
6.51
8.69
10.47
11.78
12.63
13.08
13.28
13.30
13.21
12.97
12.58
12.06
11.48
10.89
10.38
9.91
9.43
8.83
8.05
7.05
5.82
4.45
2.99
1.57
0.28
-0.85
-1.81
-2.68
-3.54
-4.51
-5.63
-6.94
-8.39
-9.85
-11.11
-11.88
-11.92
-11.11
-9.53
-7.45
-5.25
-3.29
-1.77
-0.71
0.01
0.58
1.17
1.86
2.63
3.39
4.04
4.50
4.78
4.98
5.19
5.52
5.94
6.37
6.66
6.73
6.55
6.20
5.76
5.27
4.71
4.01
3.15
2.13
1.01
-0.13
-1.23
-2.28
-3.29
-4.32
-5.41
-6.57
-7.78
-9.00
-10.13
-11.04
-11.59
-11.66
-11.16
-10.08
-8.50
-6.55
-4.46
-2.41
-0.59
0.91
2.11
3.08
3.91
4.65
5.29
5.79
6.08
6.18
6.16
6.10
6.09
6.13
6.19
6.22
6.18
6.10
6.00
5.89
5.76
5.55
5.19
4.64
3.90
2.96
1.87
0.69
-0.46
-1.48
-2.27
-2.84
-3.31
-3.87
-4.71
-5.92
-7.44
-9.05
-10.46
-11.40
-11.67
-11.21
-10.06
-8.31
-6.15
-3.80
-1.49
0.58
2.25
3.50
4.39
5.01
5.48
5.88
6.24
6.58
6.87
7.09
7.18
7.13
6.93
6.64
6.35
6.15
6.06
6.06
6.03
5.85
5.41
4.67
3.65
2.43
1.15
-0.07
-1.12
-1.94
-2.53
-2.98
-3.42
-4.00
-4.84
-5.96
-7.32
-8.74
-9.92
-10.56
-10.42
-9.41
-7.65
-5.44
-3.17
-1.11
0.58
1.94
3.08
4.12
5.09
5.91
6.48
6.77
6.80
6.71
6.64
6.68
6.82
6.98
7.01
6.84
6.43
5.83
5.15
4.48
3.84
3.24
2.61
1.88
1.03
0.09
-0.90
-1.86
-2.76
-3.61
-4.50
-5.54
-6.80
-8.21
-9.58
-10.65
-11.18
-11.06
-10.35
-9.24
-7.94
-6.61
-5.26
-3.84
-2.31
-0.70
0.90
2.37
3.62
4.61
5.39
6.03
6.61
7.18
7.72
8.18
8.48
8.52
8.26
7.75
7.14
6.59
6.22
6.03
5.88
5.59
4.99
4.01
2.67
1.03
-0.77
-2.58
-4.24
-5.62
-6.67
-7.41
-7.99
-8.59
-9.30
-10.11
-10.85
-11.27
-11.15
-10.37
-9.04
-7.38
-5.68
-4.20
-3.05
-2.19
-1.50
-0.85
-0.16
0.55
1.26
1.92
2.55
3.18
3.87
4.62
5.39
6.10
6.70
7.13
7.39
7.50
7.49
7.39
7.17
6.79
6.21
5.43
4.49
3.48
2.45
1.49
0.61
-0.19
-0.93
-1.67
-2.47
-3.42
-4.56
-5.89
-7.32
-8.72
-9.91
-10.73
-11.06
-10.81
-9.95
-8.56
-6.78
-4.86
-3.05
-1.55
-0.41
0.37
0.92
1.34
1.70
2.03
2.36
2.67
2.97
3.23
3.44
3.60
3.70
3.79
3.89
3.98
3.99
3.85
3.51
2.98
2.35
1.67
1.01
0.36
-0.28
-0.94
-1.62
-2.29
-2.94
-3.58
-4.25
-4.98
-5.75
-6.45
-6.91
-6.90
-6.26
-4.96
-3.14
-1.10
0.84
2.42
3.56
4.35
4.95
5.50
6.03
6.52
6.87
7.03
7.02
6.88
6.69
6.47
6.19
5.82
5.33
4.74
4.07
3.37
2.66
1.90
1.05
0.07
-1.05
-2.28
-3.55
-4.77
-5.93
-7.03
-8.12
-9.19
-10.19
-10.99
-11.45
-11.44
-10.93
-9.99
-8.70
-7.20
-5.61
-3.98
-2.42
-0.99
0.21
1.12
1.74
2.16
2.47
2.78
3.13
3.48
3.78
3.95
3.97
3.86
3.71
3.53
3.33
3.04
2.58
1.89
1.01
0.04
-0.94
-1.87
-2.81
-3.84
-5.02
-6.30
-7.58
-8.73
-9.71
-10.56
-11.30
-11.90
-12.18
-11.92
-10.97
-9.33
-7.23
-4.98
-2.84
-0.96
0.63
1.95
3.04
3.87
4.46
4.85
5.16
5.49
5.94
6.47
6.99
7.40
7.61
7.61
7.42
7.11
6.73
6.32
5.88
5.41
4.90
4.31
3.60
2.75
1.77
0.74
-0.27
-1.18
-1.98
-2.69
-3.39
-4.17
-5.05
-5.97
-6.82
-7.40
-7.59
-7.29
-6.55
-5.47
-4.22
-2.94
-1.71
-0.55
0.57
1.66
2.71
3.63
4.32
4.71
4.82
4.72
4.52
4.36
4.29
4.31
4.35
4.26
3.94
3.35
2.57
1.75
1.05
0.57
0.28
0.09
-0.11
-0.35
-0.59
-0.77
-0.89
-1.07
-1.48
-2.31
-3.63
-5.39
-7.46
-9.65
-11.79
-13.66
-15.05
-15.72
-15.48
-14.27
-12.19
-9.51
-6.57
-3.71
-1.16
0.98
2.80
4.47
6.22
8.22
10.51
12.97
15.38
17.49
19.13
20.24
20.89
21.15
21.06
20.58
19.58
17.91
15.52
12.45
8.93
5.25
1.72
-1.42
-4.08
-6.27
-8.10
-9.70
-11.17
-12.54
-13.82
-14.95
-15.84
-16.39
-16.48
-15.97
-14.81
-13.01
-10.69
-8.09
-5.50
-3.17
-1.26
0.25
1.50
2.65
3.81
4.98
6.07
6.96
7.57
7.88
7.94
7.78
7.45
6.98
6.46
5.96
5.56
5.25
4.93
4.48
3.79
2.86
1.81
0.76
-0.21
-1.10
-2.00
-2.99
-4.11
-5.34
-6.59
-7.79
-8.86
-9.72
-10.33
-10.60
-10.46
-9.85
-8.79
-7.35
-5.65
-3.87
-2.15
-0.56
0.89
2.27
3.62
4.95
6.20
7.28
8.13
8.77
9.27
9.71
10.08
10.33
10.36
10.14
9.74
9.26
8.85
8.56
8.38
8.24
8.02
7.65
7.11
6.45
5.73
5.01
4.31
3.60
2.82
1.93
0.91
-0.19
-1.32
-2.37
-3.26
-3.90
-4.18
-4.00
-3.30
-2.10
-0.52
1.18
2.78
4.11
5.18
6.06
6.88
7.66
8.31
8.68
8.66
8.23
7.50
6.65
5.81
5.04
4.32
3.56
2.68
1.67
0.54
-0.65
-1.80
-2.85
-3.75
-4.53
-5.29
-6.11
-7.05
-8.08
-9.08
-9.95
-10.66
-11.26
-11.88
-12.59
-13.38
-14.08
-14.47
-14.36
-13.72
-12.67
-11.39
-10.07
-8.76
-7.44
-6.04
-4.53
-2.96
-1.46
-0.17
0.85
1.62
2.20
2.68
3.13
3.57
3.94
4.22
4.37
4.39
4.32
4.12
3.76
3.16
2.27
1.08
-0.32
-1.75
-3.02
-4.01
-4.73
-5.30
-5.96
-6.88
-8.14
-9.66
-11.24
-12.59
-13.47
-13.73
-13.35
-12.43
-11.16
-9.73
-8.28
-6.90
-5.62
-4.43
-3.28
-2.16
-1.06
-0.01
0.96
1.78
2.40
2.77
2.89
2.79
2.55
2.28
2.05
1.93
1.97
2.14
2.41
2.66
2.76
2.57
2.02
1.11
-0.03
-1.25
-2.37
-3.32
-4.06
-4.65
-5.17
-5.73
-6.47
-7.46
-8.74
-10.20
-11.64
-12.75
-13.22
-12.88
-11.72
-9.93
-7.82
-5.68
-3.71
-1.96
-0.41
0.98
2.22
3.32
4.25
5.03
5.68
6.21
6.64
6.99
7.22
7.34
7.35
7.26
7.10
6.86
6.59
6.32
6.09
5.92
5.77
5.59
5.31
4.87
4.25
3.44
2.47
1.42
0.39
-0.54
-1.36
-2.13
-2.97
-3.93
-4.94
-5.81
-6.27
-6.13
-5.36
-4.11
-2.64
-1.16
0.23
1.57
2.94
4.35
5.72
6.93
7.87
8.51
8.92
9.15
9.27
9.26
9.10
8.79
8.38
7.96
7.60
7.28
6.94
6.48
5.83
5.01
4.09
3.18
2.35
1.60
0.88
0.16
-0.57
-1.32
-2.09
-2.97
-4.03
-5.32
-6.73
-8.03
-8.91
-9.11
-8.53
-7.27
-5.58
-3.74
-2.02
-0.54
0.64
1.59
2.36
3.05
3.70
4.29
4.79
5.14
5.33
5.38
5.35
5.34
5.39
5.51
5.66
5.77
5.79
5.70
5.48
5.13
4.65
4.05
3.37
2.62
1.82
0.91
-0.14
-1.35
-2.69
-4.08
-5.37
-6.41
-7.06
-7.17
-6.70
-5.63
-4.08
-2.23
-0.33
1.42
2.88
4.04
4.97
5.77
6.49
7.14
7.67
8.02
8.15
8.07
7.81
7.41
6.90
6.30
5.60
4.79
3.87
2.90
1.93
1.06
0.32
-0.29
-0.83
-1.43
-2.20
-3.26
-4.64
-6.23
-7.83
-9.10
-9.76
-9.58
-8.55
-6.85
-4.78
-2.66
-0.68
1.08
2.67
4.10
5.34
6.29
6.83
6.95
6.74
6.41
6.12
5.99
5.96
5.90
5.70
5.29
4.72
4.06
3.40
2.75
2.08
1.35
0.55
-0.30
-1.16
-2.04
-2.95
-3.94
-5.03
-6.15
-7.16
-7.84
-7.98
-7.47
-6.37
-4.87
-3.23
-1.68
-0.33
0.83
1.88
2.89
3.84
4.66
5.25
5.54
5.55
5.36
5.09
4.81
4.57
4.37
4.24
4.17
4.18
4.27
4.38
4.45
4.40
4.19
3.83
3.33
2.71
1.92
0.93
-0.31
-1.77
-3.34
-4.88
-6.20
-7.09
-7.37
-6.97
-5.91
-4.39
-2.70
-1.17
0.03
0.85
1.47
2.07
2.78
3.61
4.43
5.07
5.45
5.58
5.60
5.64
5.78
5.96
6.05
5.92
5.50
4.84
4.11
3.44
2.93
2.54
2.18
1.73
1.12
0.36
-0.54
-1.55
-2.65
-3.84
-5.06
-6.16
-6.96
-7.29
-7.06
-6.31
-5.15
-3.73
-2.19
-0.61
0.96
2.42
3.68
4.64
5.28
5.66
5.90
6.11
6.37
6.65
6.92
7.11
7.22
7.28
7.31
7.28
7.13
6.76
6.16
5.35
4.44
3.51
2.62
1.78
1.00
0.25
-0.46
-1.12
-1.76
-2.40
-3.09
-3.91
-4.86
-5.85
-6.76
-7.38
-7.56
-7.20
-6.32
-5.02
-3.45
-1.74
-0.04
1.53
2.87
3.87
4.46
4.62
4.46
4.15
3.84
3.65
3.60
3.60
3.54
3.36
3.04
2.65
2.26
1.92
1.59
1.24
0.85
0.38
-0.13
-0.70
-1.35
-2.11
-2.97
-3.87
-4.75
-5.53
-6.17
-6.66
-7.02
-7.24
-7.27
-7.02
-6.44
-5.54
-4.43
-3.27
-2.22
-1.37
-0.73
-0.23
0.24
0.70
1.12
1.42
1.56
1.53
1.42
1.31
1.30
1.37
1.49
1.56
1.52
1.35
1.05
0.68
0.24
-0.24
-0.75
-1.27
-1.74
-2.14
-2.45
-2.72
-3.03
-3.51
-4.26
-5.34
-6.70
-8.19
-9.56
-10.52
-10.81
-10.33
-9.15
-7.55
-5.89
-4.49
-3.49
-2.87
-2.47
-2.16
-1.85
-1.58
-1.36
-1.16
-0.84
-0.23
0.76
2.09
3.51
4.75
5.57
5.91
5.88
5.67
5.44
5.26
5.07
4.81
4.46
4.06
3.69
3.39
3.09
2.64
1.93
0.90
-0.41
-1.84
-3.28
-4.65
-5.92
-7.08
-8.04
-8.68
-8.86
-8.50
-7.64
-6.41
-4.98
-3.50
-2.06
-0.66
0.64
1.81
2.72
3.27
3.41
3.20
2.75
2.25
1.86
1.68
1.70
1.90
2.20
2.51
2.78
2.97
3.06
3.06
2.99
2.84
2.63
2.32
1.92
1.40
0.79
0.12
-0.54
-1.16
-1.73
-2.27
-2.86
-3.58
-4.45
-5.43
-6.37
-7.01
-7.14
-6.60
-5.45
-3.89
-2.25
-0.79
0.31
1.07
1.59
2.01
2.41
2.76
2.97
2.99
2.79
2.48
2.20
2.07
2.16
2.40
2.66
2.83
2.81
2.61
2.32
2.01
1.76
1.56
1.34
0.99
0.44
-0.36
-1.37
-2.50
-3.60
-4.51
-5.06
-5.12
-4.66
-3.73
-2.49
-1.16
0.03
0.93
1.53
1.91
2.24
2.62
3.06
3.48
3.73
3.72
3.48
3.12
2.77
2.55
2.48
2.51
2.54
2.51
2.39
2.20
1.97
1.69
1.34
0.90
0.35
-0.32
-1.10
-1.97
-2.93
-3.97
-5.08
-6.23
-7.29
-8.11
-8.52
-8.39
-7.66
-6.37
-4.64
-2.64
-0.57
1.39
3.10
4.47
5.47
6.11
6.46
6.58
6.59
6.53
6.42
6.22
5.88
5.35
4.62
3.77
2.89
2.10
1.51
1.19
1.13
1.30
1.60
1.89
2.03
1.92
1.54
0.95
0.25
-0.49
-1.29
-2.22
-3.37
-4.79
-6.43
-8.12
-9.64
-10.76
-11.33
-11.26
-10.56
-9.29
-7.58
-5.60
-3.58
-1.68
-0.06
1.24
2.28
3.15
3.96
4.77
5.54
6.20
6.69
7.01
7.19
7.30
7.39
7.47
7.49
7.42
7.23
6.89
6.41
5.78
4.96
3.96
2.80
1.61
0.49
-0.47
-1.26
-1.97
-2.72
-3.58
-4.55
-5.54
-6.45
-7.22
-7.86
-8.42
-8.94
-9.48
-10.11
-10.87
-11.83
-12.97
-14.19
-15.27
-15.94
-15.96
-15.24
-13.87
-12.11
-10.28
-8.60
-7.20
-6.01
-4.92
-3.82
-2.64
-1.41
-0.17
1.06
2.29
3.51
4.70
5.77
6.63
7.20
7.48
7.54
7.47
7.37
7.25
7.10
6.84
6.43
5.82
5.04
4.10
3.08
2.04
1.09
0.30
-0.23
-0.48
-0.48
-0.33
-0.15
-0.08
-0.19
-0.48
-0.89
-1.34
-1.77
-2.17
-2.51
-2.79
-2.93
-2.85
-2.48
-1.84
-1.00
-0.13
0.62
1.18
1.54
1.77
1.94
2.10
2.20
2.20
2.01
1.62
1.06
0.40
-0.24
-0.78
-1.14
-1.28
-1.24
-1.09
-0.91
-0.76
-0.66
-0.55
-0.38
-0.09
0.29
0.71
1.10
1.44
1.76
2.06
2.32
2.42
2.18
1.50
0.39
-0.94
-2.19
-3.07
-3.39
-3.17
-2.57
-1.77
-0.90
-0.02
0.91
1.92
2.99
4.04
4.97
5.70
6.20
6.54
6.81
7.10
7.45
7.80
8.06
8.15
8.01
7.68
7.19
6.61
5.93
5.16
4.30
3.41
2.56
1.82
1.22
0.67
0.08
-0.63
-1.45
-2.34
-3.17
-3.92
-4.61
-5.36
-6.28
-7.40
-8.67
-9.96
-11.13
-12.08
-12.69
-12.87
-12.54
-11.65
-10.20
-8.36
-6.34
-4.40
-2.71
-1.35
-0.28
0.57
1.26
1.83
2.29
2.62
2.82
2.89
2.86
2.80
2.79
2.91
3.18
3.53
3.81
3.86
3.59
3.06
2.43
1.90
1.58
1.46
1.41
1.24
0.86
0.30
-0.31
-0.85
-1.27
-1.65
-2.16
-2.93
-4.01
-5.29
-6.61
-7.82
-8.81
-9.56
-10.06
-10.28
-10.11
-9.48
-8.34
-6.81
-5.07
-3.36
-1.86
-0.66
0.23
0.86
1.32
1.69
2.03
2.38
2.73
3.03
3.24
3.37
3.46
3.59
3.83
4.18
4.63
5.09
5.56
6.05
6.59
7.18
7.75
8.20
8.41
8.35
8.09
7.74
7.42
7.21
7.06
6.88
6.53
5.89
4.90
3.55
1.90
0.08
-1.71
-3.25
-4.31
-4.73
-4.47
-3.63
-2.45
-1.17
0.01
0.99
1.78
2.40
2.85
3.09
3.10
2.94
2.71
2.57
2.61
2.85
3.21
3.56
3.81
3.97
4.07
4.12
4.10
3.94
3.53
2.86
2.03
1.17
0.46
-0.03
-0.35
-0.63
-1.02
-1.57
-2.22
-2.88
-3.51
-4.18
-5.01
-6.05
-7.20
-8.19
-8.68
-8.47
-7.55
-6.12
-4.47
-2.88
-1.50
-0.37
0.52
1.17
1.60
1.79
1.81
1.71
1.57
1.44
1.35
1.30
1.29
1.32
1.39
1.51
1.62
1.65
1.52
1.20
0.66
0.00
-0.71
-1.37
-1.97
-2.52
-3.06
-3.64
-4.28
-4.95
-5.64
-6.35
-7.06
-7.71
-8.19
-8.32
-7.92
-6.90
-5.29
-3.24
-0.96
1.32
3.44
5.31
6.84
7.99
8.68
8.89
8.64
8.01
7.17
6.32
5.61
5.16
4.96
4.97
5.04
5.09
5.03
4.86
4.61
4.36
4.17
4.05
4.00
3.97
3.94
3.88
3.78
3.62
3.34
2.91
2.27
1.39
0.29
-1.02
-2.43
-3.83
-5.00
-5.73
-5.80
-5.13
-3.80
-2.06
-0.22
1.45
2.82
3.88
4.71
5.37
5.87
6.20
6.34
6.29
6.04
5.55
4.77
3.69
2.36
0.97
-0.27
-1.22
-1.87
-2.38
-2.96
-3.71
-4.58
-5.38
-5.98
-6.33
-6.56
-6.83
-7.24
-7.72
-8.08
-8.18
-8.04
-7.85
-7.90
-8.43
-9.47
-10.83
-12.16
-13.10
-13.41
-13.04
-12.08
-10.74
-9.22
-7.67
-6.19
-4.79
-3.46
-2.17
-0.91
0.35
1.56
2.71
3.73
4.54
5.12
5.46
5.60
5.64
5.67
5.79
6.02
6.33
6.66
6.90
7.00
6.93
6.64
6.13
5.35
4.34
3.14
1.88
0.69
-0.32
-1.09
-1.63
-2.03
-2.44
-2.97
-3.70
-4.63
-5.73
-6.90
-8.01
-8.93
-9.46
-9.42
-8.64
-7.06
-4.84
-2.26
0.29
2.48
4.18
5.46
6.49
7.46
8.44
9.35
10.02
10.30
10.12
9.55
8.72
7.76
6.80
5.91
5.15
4.57
4.19
3.99
3.85
3.65
3.24
2.57
1.66
0.61
-0.49
-1.54
-2.53
-3.51
-4.53
-5.63
-6.81
-8.02
-9.17
-10.11
-10.71
-10.88
-10.57
-9.81
-8.72
-7.42
-6.10
-4.92
-4.04
-3.49
-3.21
-3.03
-2.72
-2.15
-1.31
-0.33
0.57
1.25
1.69
1.99
2.31
2.70
3.10
3.37
3.37
3.04
2.42
1.67
0.92
0.28
-0.24
-0.68
-1.12
-1.65
-2.31
-3.09
-3.95
-4.82
-5.66
-6.50
-7.46
-8.65
-10.08
-11.59
-12.88
-13.57
-13.40
-12.34
-10.57
-8.40
-6.15
-4.00
-1.96
0.00
1.97
3.96
5.93
7.81
9.51
10.95
12.07
12.79
13.12
13.08
12.80
12.38
11.90
11.36
10.73
9.96
9.09
8.15
7.23
6.36
5.51
4.65
3.76
2.87
2.03
1.30
0.64
-0.02
-0.81
-1.82
-3.03
-4.33
-5.54
-6.48
-6.98
-6.93
-6.33
-5.22
-3.76
-2.14
-0.54
0.85
1.98
2.86
3.58
4.18
4.68
5.06
5.29
5.39
5.43
5.48
5.60
5.74
5.81
5.71
5.38
4.85
4.19
3.51
2.90
2.38
1.96
1.60
1.22
0.74
0.09
-0.78
-1.86
-3.09
-4.33
-5.46
-6.40
-7.14
-7.78
-8.44
-9.24
-10.25
-11.37
-12.39
-13.03
-13.02
-12.24
-10.77
-8.86
-6.86
-5.09
-3.71
-2.76
-2.14
-1.73
-1.43
-1.24
-1.22
-1.41
-1.86
-2.52
-3.25
-3.88
-4.29
-4.45
-4.47
-4.54
-4.87
-5.53
-6.46
-7.42
-8.10
-8.14
-7.30
-5.46
-2.76
0.44
3.58
6.05
7.33
7.20
5.86
3.85
2.11
1.74
3.84
9.25
18.20
30.15
43.73
57.10
68.30
75.84
79.00
77.85
72.99
65.27
55.45
44.21
32.13
19.82
7.88
-3.15
-12.92
-21.29
-28.28
-33.90
-38.12
-40.86
-42.06
-41.86
-40.54
-38.54
-36.17
-33.57
-30.66
-27.29
-23.43
-19.28
-15.16
-11.37
-7.99
-4.74
-1.05
3.80
10.60
19.93
31.96
46.14
61.04
74.47
84.04
87.91
85.57
78.07
67.65
56.87
47.67
40.79
35.85
31.80
27.62
22.72
17.01
10.79
4.40
-1.82
-7.62
-12.77
-17.10
-20.55
-23.28
-25.63
-28.03
-30.88
-34.38
-38.45
-42.79
-46.98
-50.62
-53.44
-55.35
-56.39
-56.71
-56.50
-56.01
-55.41
-54.80
-54.16
-53.30
-51.93
-49.75
-46.58
-42.48
-37.71
-32.72
-27.90
-23.56
-19.80
-16.62
-13.94
-11.71
-9.88
-8.38
-7.05
-5.66
-3.91
-1.58
1.32
4.54
7.54
9.67
10.33
9.21
6.35
2.23
-2.44
-6.84
-10.32
-12.50
-13.33
-13.05
-12.02
-10.61
-9.08
-7.55
-6.04
-4.55
-3.05
-1.47
0.27
2.36
4.99
8.24
12.00
15.88
19.29
21.60
22.42
21.71
19.85
17.44
15.08
13.26
12.37
12.73
14.59
18.03
22.70
27.76
32.03
34.40
34.32
31.95
28.11
23.77
19.64
15.93
12.51
9.20
6.03
3.27
1.16
-0.27
-1.38
-2.72
-4.78
-7.70
-11.21
-14.68
-17.47
-19.15
-19.67
-19.31
-18.47
-17.48
-16.46
-15.31
-13.87
-12.02
-9.85
-7.58
-5.48
-3.73
-2.38
-1.38
-0.64
-0.11
0.23
0.38
0.36
0.23
0.10
0.03
0.10
0.30
0.56
0.74
0.66
0.13
-0.94
-2.49
-4.30
-6.00
-7.20
-7.65
-7.27
-6.32
-5.26
-4.68
-5.10
-6.81
-9.73
-13.40
-17.13
-20.19
-22.03
-22.45
-21.57
-19.76
-17.43
-14.90
-12.35
-9.85
-7.43
-5.18
-3.28
-1.90
-1.16
-1.04
-1.41
-2.04
-2.67
-2.97
-2.61
-1.23
1.46
5.51
10.64
16.27
21.64
26.09
29.27
31.22
32.21
32.51
32.22
31.19
29.22
26.29
22.70
18.96
15.57
12.76
10.37
8.05
5.52
2.86
0.57
-0.63
-0.20
1.93
5.21
8.73
11.55
13.10
13.30
12.54
11.42
10.49
10.11
10.32
10.97
11.80
12.58
13.13
13.38
13.28
12.82
11.91
10.45
8.33
5.55
2.18
-1.59
-5.51
-9.39
-13.06
-16.41
-19.36
-21.82
-23.70
-24.93
-25.44
-25.21
-24.27
-22.73
-20.81
-18.79
-16.89
-15.23
-13.72
-12.16
-10.34
-8.19
-5.84
-3.60
-1.75
-0.49
0.24
0.61
0.87
1.17
1.53
1.86
2.03
1.95
1.62
1.11
0.51
-0.06
-0.52
-0.81
-0.96
-1.06
-1.28
-1.75
-2.59
-3.78
-5.17
-6.57
-7.80
-8.79
-9.59
-10.30
-11.04
-11.88
-12.76
-13.50
-13.77
-13.25
-11.70
-9.10
-5.73
-2.10
1.15
3.56
4.92
5.36
5.20
4.82
4.47
4.26
4.20
4.22
4.30
4.44
4.66
4.96
5.32
5.66
5.93
6.05
6.05
5.96
5.88
5.85
5.88
5.94
5.93
5.77
5.38
4.75
3.90
2.89
1.82
0.80
-0.08
-0.78
-1.35
-1.88
-2.50
-3.29
-4.22
-5.21
-6.09
-6.72
-7.00
-6.88
-6.35
-5.43
-4.18
-2.72
-1.21
0.19
1.36
2.26
2.89
3.33
3.59
3.68
3.58
3.33
3.00
2.74
2.64
2.74
3.00
3.27
3.44
3.42
3.16
2.70
2.09
1.39
0.67
-0.05
-0.76
-1.48
-2.22
-2.99
-3.76
-4.54
-5.31
-6.09
-6.85
-7.52
-7.99
-8.11
-7.77
-6.96
-5.79
-4.44
-3.08
-1.84
-0.77
0.14
0.91
1.54
2.02
2.32
2.43
2.37
2.22
2.06
1.96
1.94
1.97
2.00
1.94
1.72
1.31
0.72
-0.02
-0.84
-1.68
-2.50
-3.29
-4.03
-4.72
-5.37
-6.04
-6.79
-7.71
-8.81
-10.01
-11.11
-11.83
-11.90
-11.17
-9.65
-7.54
-5.15
-2.84
-0.83
0.77
2.05
3.13
4.16
5.13
5.96
6.53
6.75
6.69
6.46
6.24
6.16
6.26
6.53
6.91
7.35
7.77
8.08
8.18
7.95
7.33
6.33
5.06
3.68
2.40
1.37
0.66
0.19
-0.19
-0.69
-1.40
-2.30
-3.16
-3.71
-3.68
-2.98
-1.72
-0.18
1.31
2.53
3.35
3.83
4.05
4.11
4.05
3.89
3.65
3.36
3.10
2.97
3.00
3.18
3.45
3.69
3.81
3.76
3.53
3.14
2.65
2.11
1.52
0.90
0.26
-0.40
-1.04
-1.67
-2.30
-2.99
-3.81
-4.81
-5.92
-6.97
-7.70
-7.86
-7.31
-6.09
-4.41
-2.60
-0.98
0.26
1.08
1.59
1.95
2.26
2.52
2.65
2.60
2.39
2.18
2.17
2.51
3.15
3.84
4.24
4.09
3.37
2.28
1.12
0.18
-0.45
-0.84
-1.19
-1.68
-2.42
-3.45
-4.75
-6.26
-7.77
-8.89
-9.03
-7.54
-3.94
1.80
9.21
17.38
25.33
32.27
37.85
42.11
45.29
47.62
49.13
49.70
49.26
47.90
45.89
43.57
41.19
38.73
35.97
32.63
28.57
23.88
18.85
13.87
9.19
4.93
1.07
-2.52
-5.94
-9.27
-12.56
-15.78
-18.83
-21.51
-23.56
-24.79
-25.13
-24.73
-23.83
-22.69
-21.48
-20.23
-18.85
-17.28
-15.52
-13.63
-11.74
-9.96
-8.39
-7.11
-6.19
-5.69
-5.62
-5.91
-6.43
-6.99
-7.40
-7.51
-7.31
-6.93
-6.58
-6.48
-6.78
-7.47
-8.37
-9.26
-9.91
-10.26
-10.33
-10.23
-10.07
-9.91
-9.74
-9.57
-9.38
-9.15
-8.86
-8.43
-7.77
-6.82
-5.60
-4.22
-2.85
-1.67
-0.73
-0.01
0.62
1.29
2.03
2.78
3.39
3.74
3.80
3.66
3.43
3.19
2.99
2.79
2.57
2.34
2.16
2.08
2.10
2.19
2.30
2.42
2.56
2.73
2.93
3.11
3.19
3.12
2.87
2.52
2.14
1.77
1.36
0.82
0.04
-1.02
-2.25
-3.43
-4.24
-4.42
-3.85
-2.59
-0.85
1.10
3.07
4.94
6.68
8.23
9.47
10.24
10.36
9.83
8.83
7.66
6.67
6.07
5.85
5.82
5.73
5.40
4.86
4.24
3.73
3.47
3.44
3.51
3.49
3.18
2.48
1.38
-0.01
-1.49
-2.87
-4.00
-4.87
-5.58
-6.27
-7.07
-8.02
-9.07
-10.08
-10.90
-11.36
-11.36
-10.88
-9.98
-8.79
-7.47
-6.18
-5.01
-3.97
-2.99
-2.02
-1.04
-0.08
0.79
1.52
2.09
2.57
3.05
3.61
4.29
5.06
5.83
6.49
6.95
7.21
7.37
7.64
8.17
9.00
9.97
10.84
11.35
11.46
11.38
11.43
11.93
12.89
14.04
14.92
15.08
14.29
12.59
10.27
7.79
5.77
4.89
5.78
8.82
13.84
19.92
25.62
29.38
30.10
27.60
22.49
15.96
9.27
3.35
-1.43
-5.09
-7.81
-9.78
-11.03
-11.70
-12.04
-12.34
-13.03
-14.46
-16.76
-19.72
-22.82
-25.38
-26.99
-27.62
-27.65
-27.02
-25.90
-24.63
-23.60
-23.77
-24.89
-26.55
-28.60
-30.31
-31.22
-30.95
-29.12
-25.52
-20.28
-14.01
-7.86
-3.22
-0.82
-1.07
-3.41
-6.41
-8.71
-9.57
-8.81
-6.69
-3.48
0.33
4.65
9.10
13.06
15.93
17.44
17.89
17.87
18.10
18.80
20.04
21.59
23.00
23.85
23.90
23.24
22.17
21.01
20.07
19.53
19.36
19.45
19.62
19.71
19.58
19.08
18.08
16.52
14.54
12.37
10.31
8.56
7.23
6.26
5.52
4.92
4.41
4.03
3.76
3.53
3.18
2.59
1.67
0.46
-0.91
-2.26
-3.43
-4.33
-4.98
-5.48
-5.95
-6.49
-7.18
-7.96
-8.71
-9.25
-9.43
-9.18
-8.57
-7.78
-7.08
-6.67
-6.70
-7.18
-8.02
-9.10
-10.21
-11.17
-11.78
-11.85
-11.31
-10.16
-8.58
-6.85
-5.24
-4.00
-3.22
-2.86
-2.82
-3.00
-3.33
-3.77
-4.24
-4.63
-4.83
-4.73
-4.34
-3.78
-3.25
-2.97
-3.07
-3.52
-4.15
-4.66
-4.73
-4.17
-2.97
-1.45
-0.11
0.43
-0.29
-2.40
-5.62
-9.34
-12.84
-15.54
-17.24
-18.08
-18.46
-18.76
-19.14
-19.49
-19.49
-18.82
-17.34
-15.13
-12.52
-9.84
-7.36
-5.23
-3.47
-2.08
-1.09
-0.56
-0.52
-0.92
-1.54
-2.13
-2.44
-2.34
-1.85
-1.17
-0.56
-0.33
-0.62
-1.42
-2.51
-3.52
-4.08
-3.95
-3.11
-1.73
-0.01
1.96
4.31
7.30
11.11
15.67
20.60
25.27
29.06
31.51
32.45
31.98
30.36
27.93
25.05
22.03
19.11
16.44
14.06
11.93
9.96
8.08
6.21
4.33
2.41
0.44
-1.52
-3.33
-4.78
-5.59
-5.56
-4.62
-2.81
-0.30
2.71
6.03
9.46
12.83
15.95
18.71
21.08
23.15
25.05
26.88
28.61
30.08
31.13
31.66
31.75
31.61
31.45
31.27
30.76
29.43
26.84
22.92
18.04
12.92
8.26
4.36
0.93
-2.74
-7.45
-13.68
-21.34
-29.82
-38.16
-45.39
-50.76
-53.99
-55.20
-54.93
-53.85
-52.51
-51.11
-49.43
-46.97
-43.31
-38.41
-32.71
-27.03
-22.24
-18.91
-17.16
-16.67
-16.77
-16.68
-15.61
-13.04
-8.80
-3.32
2.50
7.39
10.15
10.06
7.17
2.25
-3.45
-8.82
-13.21
-16.65
-19.59
-22.57
-25.72
-28.62
-30.39
-30.07
-27.01
-21.18
-13.14
-3.89
5.42
13.60
19.59
22.38
21.20
15.67
6.16
-6.19
-19.55
-31.84
-41.37
-47.30
-49.90
-50.43
-50.59
-51.93
-55.41
-61.13
-68.37
-75.89
-82.16
-85.63
-85.05
-79.68
-69.71
-56.41
-41.95
-28.80
-18.90
-12.88
-9.90
-8.11
-5.59
-1.20
5.05
12.32
19.58
26.20
32.23
38.07
44.05
50.16
55.95
60.79
64.12
65.67
65.43
63.61
60.50
56.50
52.09
47.88
44.49
42.40
41.72
42.10
42.71
42.50
40.50
36.15
29.42
20.86
11.34
1.91
-6.50
-13.10
-17.31
-18.82
-17.58
-13.93
-8.51
-2.13
4.47
10.74
16.33
21.12
25.14
28.43
31.03
33.01
34.56
36.00
37.54
39.20
40.85
42.40
43.85
45.25
46.73
48.43
50.56
53.07
55.73
58.20
60.30
61.86
62.70
62.52
60.86
57.25
50.93
41.32
28.52
13.76
-0.99
-13.78
-23.41
-31.15
-37.48
-42.61
-46.08
-48.09
-48.62
-47.59
-45.45
-43.16
-41.69
-41.26
-41.53
-41.79
-41.37
-39.92
-37.72
-35.45
-33.80
-33.01
-32.68
-32.21
-31.18
-29.47
-27.20
-24.68
-22.23
-19.99
-17.76
-15.14
-11.89
-8.17
-4.45
-1.29
0.91
2.02
2.22
1.91
1.49
1.15
0.77
0.05
-1.29
-3.34
-5.91
-8.57
-10.74
-11.88
-11.71
-10.29
-7.96
-5.23
-2.49
-0.01
2.16
4.14
6.00
7.78
9.40
10.74
11.68
12.20
12.35
12.26
12.05
11.77
11.43
10.96
10.32
9.47
8.48
7.39
6.27
5.14
3.95
2.71
1.42
0.13
-1.11
-2.30
-3.49
-4.77
-6.18
-7.71
-9.23
-10.60
-11.65
-12.24
-12.28
-11.68
-10.40
-8.44
-5.90
-2.97
0.08
3.00
5.62
7.93
9.99
11.87
13.56
14.91
15.69
15.71
14.96
13.61
12.01
10.53
9.45
8.83
8.51
8.27
7.87
7.23
6.36
5.36
4.30
3.15
1.82
0.25
-1.57
-3.55
-5.60
-7.66
-9.78
-12.01
-14.31
-16.46
-18.00
-18.45
-17.45
-14.99
-11.44
-7.41
-3.53
-0.23
2.36
4.36
6.00
7.50
8.94
10.33
11.60
12.66
13.48
14.03
14.28
14.27
14.03
13.66
13.30
13.00
12.79
12.58
12.25
11.68
10.79
9.60
8.14
6.46
4.56
2.42
0.06
-2.45
-4.93
-7.11
-8.75
-9.62
-9.67
-8.94
-7.62
-5.94
-4.13
-2.38
-0.82
0.54
1.75
2.88
3.96
4.97
5.83
6.45
6.79
6.88
6.81
6.72
6.67
6.64
6.58
6.36
5.91
5.19
4.25
3.20
2.13
1.11
0.13
-0.86
-1.95
-3.22
-4.74
-6.55
-8.64
-10.91
-13.19
-15.16
-16.46
-16.79
-15.99
-14.15
-11.55
-8.55
-5.50
-2.65
-0.12
2.05
3.85
5.31
6.45
7.31
7.90
8.26
8.37
8.25
7.92
7.41
6.81
6.17
5.53
4.89
4.25
3.59
2.92
2.24
1.55
0.83
0.05
-0.88
-1.98
-3.27
-4.72
-6.29
-7.94
-9.67
-11.48
-13.27
-14.87
-15.98
-16.30
-15.64
-14.00
-11.61
-8.83
-6.05
-3.55
-1.45
0.28
1.76
3.13
4.42
5.59
6.55
7.19
7.48
7.49
7.36
7.22
7.18
7.24
7.33
7.33
7.17
6.80
6.24
5.54
4.72
3.81
2.81
1.74
0.64
-0.43
-1.40
-2.26
-3.05
-3.83
-4.74
-5.89
-7.33
-9.03
-10.85
-12.51
-13.65
-13.98
-13.30
-11.68
-9.38
-6.79
-4.29
-2.10
-0.24
1.36
2.81
4.14
5.29
6.20
6.86
7.34
7.72
8.08
8.41
8.63
8.62
8.35
7.86
7.28
6.74
6.33
6.01
5.66
5.11
4.26
3.10
1.76
0.40
-0.82
-1.80
-2.57
-3.18
-3.73
-4.33
-5.06
-5.99
-7.13
-8.43
-9.69
-10.68
-11.15
-10.98
-10.19
-8.95
-7.43
-5.79
-4.05
-2.18
-0.15
1.97
4.02
5.79
7.10
7.89
8.20
8.17
7.90
7.49
6.99
6.44
5.91
5.49
5.24
5.16
5.15
5.05
4.73
4.12
3.23
2.13
0.91
-0.31
-1.47
-2.44
-3.14
-3.56
-3.81
-4.11
-4.74
-5.90
-7.57
-9.48
-11.17
-12.17
-12.18
-11.17
-9.39
-7.27
-5.19
-3.40
-1.94
-0.69
0.44
1.50
2.43
3.15
3.60
3.82
3.94
4.05
4.18
4.28
4.28
4.15
3.96
3.82
3.83
4.01
4.29
4.52
4.56
4.32
3.76
2.91
1.87
0.73
-0.42
-1.54
-2.68
-3.88
-5.19
-6.56
-7.90
-9.03
-9.76
-9.96
-9.58
-8.64
-7.24
-5.55
-3.76
-2.05
-0.52
0.82
2.03
3.19
4.31
5.35
6.19
6.76
7.05
7.14
7.14
7.09
7.01
6.86
6.62
6.36
6.17
6.09
6.10
6.05
5.76
5.13
4.16
3.00
1.84
0.81
-0.07
-0.84
-1.66
-2.60
-3.67
-4.84
-6.06
-7.30
-8.56
-9.82
-10.95
-11.76
-12.01
-11.53
-10.34
-8.59
-6.57
-4.55
-2.65
-0.91
0.71
2.25
3.61
4.69
5.39
5.75
5.90
6.01
6.22
6.56
6.95
7.27
7.39
7.29
6.96
6.48
5.91
5.36
4.86
4.41
3.98
3.47
2.84
2.07
1.20
0.33
-0.49
-1.19
-1.82
-2.43
-3.15
-4.06
-5.24
-6.66
-8.21
-9.70
-10.88
-11.54
-11.57
-10.98
-9.89
-8.46
-6.82
-5.08
-3.36
-1.76
-0.36
0.84
1.86
2.82
3.78
4.70
5.48
6.01
6.25
6.29
6.29
6.41
6.68
7.03
7.31
7.38
7.19
6.80
6.31
5.81
5.38
5.00
4.63
4.24
3.77
3.22
2.58
1.84
1.02
0.15
-0.75
-1.65
-2.54
-3.46
-4.48
-5.68
-7.05
-8.49
-9.78
-10.64
-10.85
-10.34
-9.19
-7.67
-6.02
-4.48
-3.13
-2.00
-1.02
-0.16
0.58
1.21
1.74
2.21
2.68
3.17
3.66
4.05
4.28
4.34
4.32
4.34
4.48
4.70
4.85
4.70
4.11
3.11
1.86
0.63
-0.37
-1.07
-1.56
-1.96
-2.40
-2.93
-3.54
-4.21
-4.98
-5.89
-6.91
-7.92
-8.69
-8.96
-8.57
-7.51
-5.97
-4.24
-2.57
-1.13
0.07
1.11
2.08
3.00
3.78
4.33
4.57
4.53
4.36
4.23
4.29
4.55
4.90
5.17
5.24
5.09
4.80
4.51
4.30
4.19
4.09
3.90
3.53
2.99
2.35
1.73
1.22
0.82
0.47
0.05
-0.53
-1.32
-2.32
-3.46
-4.69
-5.97
-7.21
-8.28
-8.98
-9.13
-8.63
-7.51
-5.97
-4.27
-2.66
-1.29
-0.16
0.85
1.84
2.83
3.75
4.47
4.89
5.05
5.09
5.24
5.61
6.18
6.74
7.06
7.00
6.58
6.01
5.50
5.18
5.06
4.98
4.79
4.38
3.71
2.86
1.96
1.09
0.32
-0.37
-1.01
-1.66
-2.31
-2.98
-3.69
-4.52
-5.54
-6.79
-8.21
-9.57
-10.62
-11.14
-11.07
-10.48
-9.52
-8.34
-7.01
-5.59
-4.08
-2.56
-1.10
0.23
1.39
2.39
3.24
3.94
4.47
4.78
4.88
4.82
4.70
4.62
4.61
4.62
4.57
4.39
4.09
3.72
3.41
3.23
3.18
3.18
3.09
2.79
2.19
1.35
0.37
-0.60
-1.44
-2.12
-2.67
-3.21
-3.88
-4.75
-5.84
-7.03
-8.14
-8.98
-9.36
-9.17
-8.40
-7.14
-5.56
-3.87
-2.25
-0.84
0.29
1.17
1.87
2.49
3.14
3.89
4.74
5.59
6.33
6.84
7.09
7.14
7.11
7.10
7.14
7.21
7.22
7.11
6.87
6.52
6.08
5.56
4.98
4.31
3.58
2.80
1.98
1.15
0.32
-0.46
-1.16
-1.75
-2.25
-2.72
-3.24
-3.93
-4.83
-5.98
-7.31
-8.73
-10.06
-11.09
-11.57
-11.37
-10.45
-8.90
-6.95
-4.83
-2.78
-0.96
0.53
1.65
2.45
3.02
3.49
4.04
4.74
5.60
6.47
7.18
7.58
7.62
7.36
6.93
6.47
6.05
5.65
5.26
4.84
4.43
4.07
3.78
3.50
3.15
2.64
1.94
1.13
0.31
-0.39
-0.96
-1.46
-1.99
-2.64
-3.41
-4.22
-4.93
-5.48
-5.91
-6.36
-6.96
-7.81
-8.84
-9.85
-10.53
-10.64
-10.03
-8.74
-6.96
-4.96
-2.98
-1.20
0.28
1.48
2.44
3.24
3.92
4.49
4.97
5.34
5.63
5.85
6.04
6.20
6.33
6.42
6.50
6.60
6.74
6.88
6.92
6.72
6.20
5.38
4.37
3.36
2.45
1.71
1.11
0.60
0.15
-0.24
-0.62
-1.02
-1.52
-2.15
-2.90
-3.71
-4.54
-5.40
-6.35
-7.48
-8.78
-10.15
-11.34
-12.09
-12.18
-11.58
-10.38
-8.81
-7.14
-5.58
-4.27
-3.19
-2.27
-1.42
-0.58
0.24
1.00
1.61
2.03
2.29
2.44
2.56
2.69
2.81
2.88
2.86
2.75
2.59
2.46
2.39
2.38
2.36
2.22
1.87
1.28
0.53
-0.28
-1.02
-1.62
-2.09
-2.49
-2.88
-3.37
-4.00
-4.83
-5.86
-7.00
-8.05
-8.76
-8.87
-8.22
-6.83
-4.92
-2.81
-0.84
0.77
1.95
2.75
3.31
3.75
4.14
4.51
4.88
5.27
5.68
6.11
6.50
6.77
6.84
6.67
6.26
5.69
5.02
4.28
3.45
2.53
1.51
0.48
-0.43
-1.12
-1.60
-2.04
-2.67
-3.69
-5.14
-6.86
-8.58
-10.00
-10.92
-11.26
-11.01
-10.19
-8.86
-7.12
-5.17
-3.30
-1.76
-0.70
-0.11
0.23
0.59
1.15
1.94
2.86
3.71
4.39
4.84
5.11
5.27
5.34
5.35
5.29
5.18
5.01
4.76
4.37
3.79
3.01
2.11
1.22
0.48
-0.06
-0.49
-0.96
-1.63
-2.55
-3.68
-4.90
-6.08
-7.03
-7.60
-7.63
-7.03
-5.82
-4.15
-2.31
-0.60
0.78
1.76
2.48
3.11
3.80
4.57
5.34
5.95
6.28
6.34
6.23
6.10
6.03
6.06
6.10
6.05
5.87
5.55
5.17
4.77
4.34
3.83
3.16
2.30
1.31
0.34
-0.48
-1.07
-1.46
-1.75
-2.08
-2.55
-3.20
-4.00
-4.87
-5.70
-6.35
-6.70
-6.62
-6.04
-4.96
-3.49
-1.76
0.03
1.70
3.12
4.23
5.06
5.66
6.10
6.43
6.67
6.79
6.76
6.62
6.42
6.25
6.15
6.14
6.15
6.14
6.05
5.86
5.58
5.18
4.66
3.96
3.10
2.10
1.06
0.10
-0.72
-1.40
-2.03
-2.74
-3.65
-4.78
-5.99
-7.09
-7.83
-8.05
-7.71
-6.89
-5.77
-4.52
-3.25
-2.06
-0.95
0.04
0.91
1.64
2.20
2.60
2.85
2.95
2.91
2.75
2.55
2.38
2.38
2.59
2.98
3.42
3.74
3.78
3.51
2.98
2.33
1.67
1.06
0.49
-0.09
-0.69
-1.34
-2.02
-2.73
-3.49
-4.30
-5.15
-5.96
-6.61
-6.95
-6.82
-6.13
-4.91
-3.33
-1.65
-0.18
0.87
1.44
1.64
1.72
1.90
2.34
3.02
3.79
4.44
4.81
4.88
4.75
4.55
4.41
4.34
4.23
3.94
3.41
2.70
1.95
1.33
0.93
0.68
0.41
-0.06
-0.76
-1.60
-2.35
-2.86
-3.10
-3.22
-3.47
-4.09
-5.17
-6.59
-8.07
-9.25
-9.82
-9.65
-8.76
-7.37
-5.73
-4.09
-2.64
-1.45
-0.52
0.23
0.87
1.46
2.05
2.65
3.20
3.66
3.94
4.01
3.92
3.75
3.62
3.61
3.72
3.91
4.10
4.23
4.33
4.41
4.48
4.47
4.24
3.69
2.81
1.67
0.49
-0.57
-1.39
-1.99
-2.45
-2.89
-3.39
-3.98
-4.69
-5.52
-6.48
-7.50
-8.42
-9.00
-9.01
-8.34
-7.03
-5.35
-3.62
-2.12
-0.95
-0.05
0.70
1.45
2.22
2.93
3.48
3.81
3.94
3.98
4.01
4.06
4.12
4.15
4.10
3.96
3.73
3.41
2.98
2.47
1.95
1.52
1.30
1.29
1.41
1.51
1.41
1.05
0.43
-0.32
-1.07
-1.74
-2.29
-2.79
-3.33
-3.98
-4.84
-5.92
-7.18
-8.49
-9.67
-10.47
-10.71
-10.31
-9.35
-8.03
-6.61
-5.30
-4.20
-3.25
-2.33
-1.34
-0.26
0.83
1.77
2.44
2.81
2.95
3.01
3.10
3.29
3.55
3.77
3.84
3.72
3.43
3.06
2.70
2.38
2.06
1.65
1.05
0.27
-0.63
-1.48
-2.16
-2.64
-3.03
-3.49
-4.20
-5.23
-6.52
-7.87
-9.05
-9.81
-9.99
-9.51
-8.39
-6.75
-4.81
-2.79
-0.94
0.55
1.57
2.14
2.37
2.40
2.38
2.37
2.37
2.35
2.29
2.25
2.35
2.67
3.21
3.84
4.37
4.59
4.44
3.96
3.31
2.64
2.04
1.47
0.84
0.09
-0.82
-1.79
-2.68
-3.36
-3.77
-4.01
-4.27
-4.74
-5.56
-6.70
-8.00
-9.27
-10.26
-10.82
-10.83
-10.19
-8.88
-6.94
-4.57
-2.07
0.21
2.02
3.29
4.14
4.79
5.41
6.08
6.77
7.39
7.87
8.19
8.38
8.41
8.27
7.96
7.55
7.16
6.92
6.89
7.00
7.07
6.87
6.25
5.22
3.90
2.52
1.31
0.36
-0.30
-0.78
-1.21
-1.75
-2.47
-3.44
-4.65
-6.06
-7.57
-9.03
-10.20
-10.86
-10.79
-9.94
-8.41
-6.44
-4.37
-2.47
-0.90
0.31
1.23
1.99
2.71
3.43
4.18
4.96
5.73
6.47
7.09
7.51
7.70
7.65
7.45
7.20
6.99
6.85
6.66
6.28
5.54
4.38
2.91
1.35
0.01
-0.95
-1.51
-1.85
-2.34
-3.35
-5.13
-7.70
-10.71
-13.52
-15.30
-15.31
-13.11
-8.81
-2.98
3.47
9.57
14.58
18.08
19.97
20.38
19.54
17.75
15.32
12.60
9.87
7.34
5.13
3.36
2.21
1.92
2.71
4.69
7.81
11.75
16.10
20.41
24.27
27.33
29.23
29.70
28.49
25.52
20.96
15.21
8.85
2.46
-3.50
-8.78
-13.38
-17.37
-20.83
-23.75
-25.98
-27.33
-27.68
-27.02
-25.55
-23.55
-21.31
-19.06
-16.95
-15.02
-13.26
-11.70
-10.35
-9.22
-8.32
-7.58
-6.91
-6.23
-5.49
-4.74
-4.08
-3.64
-3.49
-3.58
-3.80
-4.03
-4.19
-4.29
-4.46
-4.88
-5.72
-7.06
-8.80
-10.73
-12.50
-13.75
-14.20
-13.73
-12.42
-10.50
-8.24
-5.87
-3.49
-1.08
1.36
3.81
6.08
7.94
9.19
9.76
9.77
9.43
8.99
8.59
8.27
7.97
7.61
7.17
6.64
6.05
5.42
4.71
3.87
2.86
1.64
0.17
-1.54
-3.45
-5.44
-7.25
-8.62
-9.30
-9.16
-8.26
-6.79
-5.01
-3.14
-1.35
0.26
1.62
2.69
3.47
4.01
4.42
4.78
5.13
5.39
5.43
5.10
4.39
3.39
2.27
1.25
0.43
-0.16
-0.59
-0.96
-1.42
-2.11
-3.14
-4.58
-6.41
-8.48
-10.53
-12.27
-13.40
-13.75
-13.24
-11.94
-10.00
-7.64
-5.06
-2.48
-0.05
2.10
3.86
5.17
6.04
6.49
6.61
6.54
6.39
6.25
6.13
5.94
5.55
4.77
3.47
1.65
-0.50
-2.55
-3.96
-4.21
-3.02
-0.47
2.99
6.63
9.70
11.68
12.43
12.21
11.48
10.77
10.49
10.81
11.74
13.19
14.96
16.88
18.67
20.06
20.75
20.59
19.62
18.12
16.52
15.24
14.48
14.16
13.98
13.59
12.76
11.54
10.23
9.23
8.80
8.96
9.43
9.75
9.45
8.21
6.02
3.12
0.05
-2.49
-3.69
-2.89
0.22
5.34
11.57
17.63
22.27
24.77
25.12
23.95
22.10
20.21
18.45
16.58
14.23
11.24
7.80
4.43
1.76
0.31
0.34
1.85
4.54
7.91
11.30
14.12
15.94
16.64
16.41
15.65
14.79
14.10
13.68
13.45
13.27
12.97
12.36
11.20
9.24
6.25
2.13
-3.02
-8.87
-14.89
-20.39
-24.68
-27.24
-27.89
-26.87
-24.82
-22.58
-20.93
-20.30
-20.74
-21.95
-23.54
-25.12
-26.47
-27.48
-28.17
-28.63
-28.98
-29.22
-29.08
-27.90
-24.75
-18.74
-9.46
2.65
16.27
29.44
40.18
46.98
49.09
46.64
40.40
31.64
21.93
12.91
6.06
2.40
2.18
4.78
8.89
12.91
15.50
15.96
14.38
11.48
8.23
5.47
3.69
3.00
3.19
3.94
4.94
5.92
6.69
7.13
7.13
6.61
5.60
4.19
2.58
1.00
-0.41
-1.62
-2.81
-4.28
-6.34
-9.18
-12.76
-16.84
-20.99
-24.78
-27.89
-30.24
-31.92
-33.11
-33.98
-34.57
-34.83
-34.73
-34.32
-33.77
-33.28
-32.99
-32.94
-33.01
-33.04
-32.89
-32.46
-31.66
-30.45
-28.79
-26.74
-24.45
-22.13
-20.02
-18.23
-16.71
-15.36
-14.00
-12.59
-11.20
-10.00
-9.16
-8.76
-8.73
-8.94
-9.21
-9.43
-9.57
-9.69
-9.88
-10.21
-10.69
-11.29
-11.95
-12.67
-13.50
-14.53
-15.81
-17.31
-18.89
-20.37
-21.56
-22.37
-22.88
-23.25
-23.69
-24.32
-25.11
-25.88
-26.35
-26.30
-25.70
-24.76
-23.87
-23.36
-23.32
-23.44
-23.13
-21.72
-18.76
-14.16
-8.00
-0.47
8.31
18.23
29.05
40.32
51.39
61.75
71.20
79.92
88.06
95.38
101.00
103.67
102.42
97.26
89.41
81.00
74.30
70.83
70.91
73.64
77.41
80.53
81.71
80.35
76.48
70.58
63.41
55.85
48.66
42.35
37.06
32.55
28.24
23.38
17.25
9.46
0.03
-10.49
-21.24
-31.30
-40.00
-47.04
-52.48
-56.50
-59.24
-60.77
-61.17
-60.69
-59.74
-58.78
-58.12
-57.71
-57.23
-56.21
-54.41
-51.90
-49.05
-46.34
-44.13
-42.52
-41.42
-40.63
-39.94
-39.19
-38.17
-36.63
-34.31
-31.03
-26.81
-21.95
-16.90
-12.20
-8.23
-5.22
-3.19
-1.99
-1.45
-1.32
-1.36
-1.36
-1.20
-0.85
-0.46
-0.26
-0.44
-1.06
-1.98
-2.92
-3.61
-3.93
-3.97
-3.98
-4.25
-4.90
-5.90
-7.03
-8.10
-9.00
-9.76
-10.51
-11.37
-12.36
-13.39
-14.34
-15.09
-15.61
-15.96
-16.20
-16.42
-16.58
-16.59
-16.29
-15.44
-13.86
-11.44
-8.26
-4.55
-0.69
2.91
5.91
8.09
9.38
9.82
9.55
8.79
7.82
6.93
6.38
6.27
6.60
7.24
8.03
8.82
9.53
10.15
10.69
11.18
11.65
12.10
12.49
12.74
12.63
11.90
10.30
7.71
4.28
0.44
-3.16
-5.82
-7.00
-6.55
-4.73
-2.15
0.48
2.62
4.10
5.20
6.45
8.38
11.22
14.71
18.16
20.68
21.53
20.43
17.68
14.03
10.41
7.58
5.95
5.44
5.66
5.98
5.81
4.75
2.68
-0.24
-3.62
-7.00
-10.00
-12.41
-14.18
-15.42
-16.23
-16.73
-16.96
-16.99
-16.84
-16.52
-15.95
-14.99
-13.50
-11.45
-8.97
-6.34
-3.89
-1.89
-0.43
0.58
1.34
2.08
2.94
3.92
4.92
5.82
6.49
6.89
7.07
7.13
7.17
7.24
7.33
7.33
7.17
6.75
6.06
5.12
3.99
2.78
1.56
0.42
-0.61
-1.55
-2.45
-3.35
-4.31
-5.29
-6.22
-6.97
-7.40
-7.40
-6.90
-5.87
-4.32
-2.37
-0.20
1.96
3.90
5.45
6.54
7.17
7.40
7.32
7.00
6.56
6.13
5.85
5.83
6.12
6.65
7.31
7.96
8.50
8.86
9.04
9.00
8.71
8.16
7.36
6.40
5.40
4.49
3.74
3.11
2.49
1.69
0.57
-0.92
-2.68
-4.49
-5.99
-6.84
-6.82
-5.88
-4.20
-2.09
0.11
2.13
3.88
5.37
6.71
7.97
9.12
10.05
10.64
10.81
10.60
10.16
9.72
9.43
9.33
9.37
9.37
9.19
8.77
8.11
7.29
6.36
5.32
4.17
2.95
1.73
0.62
-0.30
-1.10
-1.94
-3.02
-4.43
-6.15
-7.94
-9.49
-10.47
-10.69
-10.07
-8.73
-6.87
-4.72
-2.52
-0.38
1.64
3.57
5.45
7.24
8.89
10.34
11.58
12.68
13.81
15.17
16.96
19.36
22.42
26.05
30.00
33.82
36.97
38.97
39.52
38.52
36.12
32.61
28.29
23.43
18.24
12.92
7.67
2.64
-2.04
-6.39
-10.53
-14.63
-18.79
-22.93
-26.77
-29.89
-31.87
-32.49
-31.78
-30.04
-27.70
-25.11
-22.53
-20.08
-17.76
-15.56
-13.49
-11.52
-9.63
-7.73
-5.70
-3.44
-0.91
1.79
4.50
7.00
9.10
10.72
11.89
12.70
13.27
13.64
13.78
13.59
13.01
12.04
10.79
9.42
8.02
6.64
5.24
3.78
2.27
0.75
-0.67
-1.94
-3.08
-4.24
-5.59
-7.30
-9.41
-11.82
-14.31
-16.58
-18.33
-19.34
-19.47
-18.71
-17.17
-15.03
-12.58
-10.15
-8.00
-6.33
-5.15
-4.31
-3.58
-2.79
-1.81
-0.69
0.48
1.58
2.55
3.36
4.02
4.52
4.89
5.17
5.45
5.83
6.34
6.93
7.44
7.69
7.57
7.09
6.42
5.75
5.21
4.82
4.45
3.93
3.15
2.15
1.07
0.10
-0.65
-1.23
-1.76
-2.39
-3.22
-4.28
-5.54
-6.94
-8.43
-9.91
-11.21
-12.06
-12.18
-11.44
-9.90
-7.84
-5.63
-3.62
-2.00
-0.77
0.23
1.17
2.18
3.25
4.32
5.28
6.08
6.74
7.30
7.79
8.18
8.40
8.39
8.15
7.79
7.41
7.08
6.79
6.44
5.95
5.30
4.56
3.82
3.13
2.46
1.75
0.91
-0.08
-1.18
-2.35
-3.58
-4.93
-6.47
-8.21
-10.07
-11.88
-13.41
-14.40
-14.69
-14.23
-13.10
-11.50
-9.68
-7.88
-6.22
-4.76
-3.49
-2.43
-1.62
-1.08
-0.79
-0.66
-0.52
-0.25
0.19
0.72
1.19
1.45
1.45
1.23
0.92
0.67
0.54
0.50
0.45
0.27
-0.14
-0.80
-1.69
-2.76
-4.00
-5.38
-6.82
-8.23
-9.51
-10.62
-11.63
-12.70
-13.99
-15.53
-17.14
-18.49
-19.25
-19.16
-18.22
-16.59
-14.54
-12.36
-10.20
-8.14
-6.15
-4.23
-2.36
-0.57
1.14
2.75
4.22
5.54
6.70
7.64
8.36
8.87
9.21
9.46
9.67
9.85
9.98
10.03
9.95
9.74
9.40
8.91
8.23
7.33
6.23
4.97
3.61
2.22
0.82
-0.63
-2.16
-3.81
-5.57
-7.39
-9.15
-10.68
-11.76
-12.16
-11.71
-10.38
-8.30
-5.74
-3.02
-0.45
1.79
3.63
5.06
6.11
6.82
7.27
7.58
7.85
8.18
8.61
9.10
9.58
9.95
10.13
10.09
9.86
9.50
9.08
8.65
8.18
7.62
6.94
6.10
5.10
3.97
2.75
1.50
0.28
-0.82
-1.70
-2.26
-2.46
-2.37
-2.13
-1.95
-2.01
-2.36
-2.92
-3.49
-3.81
-3.66
-2.90
-1.51
0.40
2.66
5.08
7.49
9.75
11.77
13.49
14.92
16.21
17.66
19.64
22.50
26.33
30.90
35.61
39.67
42.33
43.09
41.85
38.85
34.60
29.71
24.78
20.29
16.54
13.65
11.50
9.83
8.30
6.65
4.75
2.71
0.80
-0.61
-1.18
-0.75
0.55
2.28
3.78
4.34
3.37
0.63
-3.75
-9.24
-15.10
-20.55
-24.92
-27.83
-29.18
-29.13
-27.98
-25.98
-23.24
-19.74
-15.40
-10.23
-4.44
1.55
7.22
12.08
15.86
18.52
20.19
21.09
21.40
21.23
20.68
19.89
19.09
18.58
18.60
19.18
20.10
20.93
21.15
20.42
18.79
16.67
14.75
13.69
13.86
15.22
17.33
19.54
21.22
21.93
21.46
19.83
17.19
13.81
10.02
6.16
2.59
-0.43
-2.79
-4.52
-5.77
-6.74
-7.61
-8.54
-9.60
-10.81
-12.15
-13.58
-15.05
-16.51
-17.90
-19.18
-20.30
-21.27
-22.16
-23.04
-24.02
-25.14
-26.27
-27.17
-27.52
-27.05
-25.73
-23.78
-21.63
-19.80
-18.69
-18.41
-18.83
-19.60
-20.31
-20.69
-20.63
-20.20
-19.63
-19.15
-19.00
-19.41
-20.59
-22.60
-25.24
-27.94
-29.80
-29.95
-27.94
-24.03
-19.14
-14.37
-10.52
-7.71
-5.50
-3.39
-1.25
0.48
1.16
0.46
-1.26
-3.08
-4.01
-3.49
-1.73
0.58
2.68
4.17
5.11
5.85
6.71
7.68
8.54
8.97
8.79
8.10
7.15
6.18
5.35
4.62
3.83
2.83
1.56
0.03
-1.64
-3.32
-4.86
-6.19
-7.32
-8.32
-9.33
-10.53
-11.99
-13.63
-15.20
-16.35
-16.73
-16.15
-14.66
-12.48
-9.93
-7.33
-4.87
-2.67
-0.81
0.64
1.64
2.19
2.32
2.20
1.98
1.84
1.85
1.99
2.16
2.24
2.16
1.93
1.64
1.38
1.23
1.17
1.12
1.03
0.86
0.63
0.40
0.15
-0.12
-0.50
-1.04
-1.73
-2.52
-3.35
-4.22
-5.19
-6.30
-7.49
-8.52
-9.04
-8.71
-7.38
-5.18
-2.40
0.57
3.42
5.97
8.21
10.12
11.72
12.99
13.91
14.48
14.73
14.72
14.54
14.27
13.97
13.65
13.23
12.58
11.62
10.36
8.94
7.59
6.47
5.59
4.81
3.93
2.82
1.51
0.09
-1.36
-2.83
-4.41
-6.22
-8.31
-10.65
-13.15
-15.65
-18.01
-20.06
-21.62
-22.45
-22.32
-21.09
-18.80
-15.64
-11.96
-8.11
-4.34
-0.77
2.60
5.86
9.03
12.07
14.86
17.27
19.19
20.59
21.50
22.01
22.18
22.07
21.72
21.17
20.46
19.64
18.76
17.83
16.86
15.84
14.77
13.60
12.29
10.72
8.84
6.60
4.11
1.56
-0.81
-2.79
-4.31
-5.45
-6.39
-7.28
-8.25
-9.36
-10.65
-12.21
-14.06
-16.10
-18.04
-19.44
-19.88
-19.14
-17.36
-14.93
-12.38
-10.13
-8.34
-6.94
-5.71
-4.47
-3.10
-1.61
-0.05
1.53
3.15
4.85
6.70
8.77
11.07
13.56
16.10
18.47
20.44
21.81
22.47
22.40
21.65
20.39
18.85
17.34
16.14
15.47
15.35
15.64
16.07
16.35
16.30
15.91
15.28
14.62
14.07
13.69
13.49
13.39
13.28
13.03
12.46
11.43
9.86
7.85
5.65
3.66
2.29
1.80
2.21
3.24
4.46
5.45
5.96
5.93
5.48
4.75
3.85
2.81
1.67
0.46
-0.74
-1.85
-2.80
-3.59
-4.23
-4.70
-5.01
-5.13
-5.10
-4.95
-4.73
-4.52
-4.35
-4.29
-4.36
-4.56
-4.85
-5.18
-5.48
-5.76
-6.12
-6.64
-7.39
-8.37
-9.48
-10.66
-11.88
-13.19
-14.62
-16.17
-17.78
-19.38
-20.93
-22.46
-23.99
-25.47
-26.64
-27.17
-26.71
-25.08
-22.39
-18.99
-15.38
-12.05
-9.32
-7.27
-5.77
-4.58
-3.52
-2.49
-1.58
-0.88
-0.49
-0.35
-0.32
-0.28
-0.19
-0.12
-0.20
-0.46
-0.79
-0.97
-0.76
-0.10
0.93
2.08
3.10
3.82
4.18
4.18
3.84
3.14
2.03
0.55
-1.18
-2.95
-4.56
-5.91
-6.98
-7.85
-8.57
-9.08
-9.24
-8.88
-7.89
-6.33
-4.43
-2.55
-1.04
-0.10
0.27
0.29
0.24
0.39
0.87
1.65
2.53
3.30
3.75
3.81
3.50
2.97
2.49
2.44
3.30
5.46
9.14
14.11
19.70
24.94
28.90
30.96
31.07
29.65
27.34
24.74
22.14
19.53
16.77
13.81
10.74
7.84
5.40
3.60
2.41
1.64
0.98
0.23
-0.69
-1.68
-2.51
-2.98
-3.06
-2.95
-2.99
-3.58
-4.94
-7.01
-9.49
-11.97
-14.07
-15.60
-16.58
-17.18
-17.62
-18.05
-18.53
-18.96
-19.26
-19.37
-19.34
-19.34
-19.51
-19.95
-20.62
-21.41
-22.14
-22.66
-22.87
-22.67
-21.96
-20.62
-18.60
-15.95
-12.87
-9.68
-6.68
-4.08
-1.94
-0.23
1.12
2.13
2.79
3.05
2.95
2.62
2.26
2.05
2.05
2.24
2.45
2.53
2.34
1.86
1.12
0.21
-0.79
-1.84
-2.91
-3.98
-5.06
-6.17
-7.38
-8.78
-10.39
-12.12
-13.73
-14.85
-15.13
-14.33
-12.47
-9.77
-6.64
-3.49
-0.63
1.78
3.70
5.16
6.24
7.00
7.53
7.90
8.15
8.30
8.30
8.14
7.85
7.48
7.13
6.85
6.63
6.43
6.15
5.70
5.05
4.17
3.05
1.67
0.06
-1.77
-3.74
-5.70
-7.48
-8.84
-9.55
-9.44
-8.47
-6.73
-4.45
-1.94
0.50
2.67
4.49
6.03
7.36
8.57
9.65
10.55
11.18
11.50
11.52
11.33
11.06
10.83
10.69
10.61
10.51
10.28
9.87
9.22
8.36
7.31
6.13
4.87
3.58
2.25
0.86
-0.65
-2.35
-4.20
-6.11
-7.85
-9.17
-9.79
-9.58
-8.50
-6.69
-4.38
-1.85
0.61
2.80
4.62
6.06
7.21
8.17
9.05
9.87
10.58
11.10
11.37
11.33
11.03
10.57
10.06
9.60
9.19
8.77
8.22
7.44
6.39
5.10
3.67
2.24
0.93
-0.20
-1.14
-1.97
-2.80
-3.77
-4.97
-6.43
-8.06
-9.67
-10.99
-11.72
-11.62
-10.59
-8.67
-6.06
-3.10
-0.16
2.46
4.58
6.16
7.29
8.13
8.78
9.29
9.68
9.93
10.05
10.06
9.96
9.75
9.43
9.00
8.53
8.08
7.74
7.52
7.35
7.10
6.62
5.81
4.65
3.23
1.65
0.03
-1.56
-3.08
-4.50
-5.82
-7.02
-8.14
-9.20
-10.17
-10.92
-11.22
-10.80
-9.50
-7.36
-4.69
-1.91
0.60
2.61
4.14
5.33
6.35
7.23
7.92
8.37
8.54
8.51
8.42
8.38
8.46
8.60
8.69
8.63
8.35
7.89
7.33
6.77
6.23
5.60
4.77
3.62
2.17
0.52
-1.15
-2.70
-4.10
-5.45
-6.88
-8.55
-10.48
-12.59
-14.68
-16.48
-17.70
-18.09
-17.49
-15.93
-13.64
-10.95
-8.21
-5.68
-3.47
-1.53
0.23
1.87
3.42
4.84
6.12
7.30
8.42
9.55
10.71
11.84
12.84
13.60
14.05
14.18
14.05
13.73
13.28
12.73
12.08
11.29
10.33
9.17
7.76
6.07
4.06
1.77
-0.76
-3.41
-6.09
-8.68
-11.09
-13.19
-14.79
-15.62
-15.42
-14.09
-11.68
-8.50
-4.97
-1.52
1.55
4.07
6.06
7.58
8.73
9.57
10.16
10.56
10.80
10.94
11.02
11.05
11.00
10.83
10.48
9.92
9.12
8.18
7.21
6.35
5.66
5.08
4.44
3.58
2.40
0.98
-0.51
-1.90
-3.12
-4.21
-5.32
-6.58
-8.01
-9.48
-10.76
-11.64
-11.95
-11.61
-10.61
-9.02
-6.97
-4.63
-2.21
0.11
2.19
3.93
5.28
6.17
6.53
6.33
5.58
4.43
3.10
1.87
0.91
0.25
-0.20
-0.58
-1.05
-1.63
-2.30
-3.02
-3.80
-4.66
-5.62
-6.63
-7.57
-8.31
-8.74
-8.93
-9.05
-9.34
-9.95
-10.90
-12.06
-13.14
-13.85
-13.97
-13.35
-11.98
-9.94
-7.41
-4.65
-1.95
0.45
2.43
3.98
5.23
6.32
7.33
8.25
8.98
9.43
9.60
9.56
9.47
9.45
9.51
9.56
9.47
9.11
8.45
7.57
6.62
5.68
4.81
3.92
2.92
1.74
0.40
-1.00
-2.37
-3.66
-4.88
-6.06
-7.15
-8.02
-8.47
-8.30
-7.42
-5.94
-4.08
-2.14
-0.34
1.22
2.55
3.75
4.85
5.84
6.64
7.18
7.43
7.44
7.34
7.27
7.30
7.40
7.49
7.41
7.10
6.54
5.83
5.12
4.50
3.96
3.36
2.54
1.41
-0.00
-1.50
-2.85
-3.89
-4.62
-5.25
-6.06
-7.28
-8.94
-10.81
-12.46
-13.39
-13.28
-12.10
-10.14
-7.83
-5.57
-3.57
-1.79
-0.07
1.71
3.53
5.23
6.63
7.58
8.11
8.33
8.45
8.61
8.85
9.13
9.36
9.44
9.37
9.18
8.95
8.72
8.45
8.08
7.49
6.65
5.54
4.26
2.90
1.57
0.37
-0.64
-1.46
-2.10
-2.66
-3.25
-4.01
-5.01
-6.23
-7.56
-8.77
-9.61
-9.87
-9.45
-8.38
-6.81
-4.94
-2.96
-0.99
0.85
2.48
3.82
4.81
5.47
5.89
6.22
6.57
6.96
7.29
7.47
7.44
7.22
6.91
6.60
6.32
6.06
5.76
5.41
5.01
4.56
4.08
3.58
3.07
2.55
2.02
1.49
0.91
0.25
-0.50
-1.33
-2.20
-3.09
-4.00
-4.99
-6.08
-7.24
-8.34
-9.17
-9.49
-9.14
-8.09
-6.47
-4.57
-2.70
-1.12
0.00
0.66
0.97
1.06
1.11
1.22
1.45
1.78
2.15
2.45
2.57
2.44
2.06
1.53
1.00
0.62
0.45
0.44
0.50
0.51
0.43
0.23
-0.06
-0.42
-0.86
-1.40
-2.02
-2.69
-3.33
-3.87
-4.31
-4.71
-5.16
-5.74
-6.41
-7.04
-7.44
-7.41
-6.88
-5.90
-4.67
-3.40
-2.28
-1.38
-0.71
-0.17
0.28
0.71
1.14
1.59
2.09
2.60
3.11
3.52
3.76
3.77
3.56
3.24
2.89
2.61
2.42
2.27
2.07
1.72
1.20
0.48
-0.36
-1.27
-2.20
-3.11
-3.96
-4.75
-5.46
-6.11
-6.74
-7.43
-8.28
-9.35
-10.59
-11.85
-12.86
-13.34
-13.11
-12.12
-10.53
-8.61
-6.66
-4.91
-3.46
-2.30
-1.32
-0.43
0.43
1.27
2.04
2.63
2.97
3.01
2.81
2.48
2.17
1.98
1.96
2.05
2.17
2.24
2.23
2.14
1.98
1.71
1.27
0.57
-0.37
-1.46
-2.55
-3.48
-4.16
-4.62
-4.96
-5.34
-5.91
-6.71
-7.75
-8.93
-10.09
-11.05
-11.58
-11.54
-10.82
-9.49
-7.68
-5.61
-3.52
-1.61
-0.01
1.21
2.10
2.76
3.30
3.82
4.33
4.80
5.14
5.33
5.39
5.38
5.37
5.41
5.47
5.53
5.55
5.51
5.45
5.36
5.25
5.10
4.86
4.51
4.02
3.38
2.62
1.75
0.82
-0.13
-1.06
-1.98
-2.94
-3.99
-5.16
-6.36
-7.43
-8.15
-8.30
-7.78
-6.64
-5.06
-3.32
-1.67
-0.29
0.75
1.51
2.09
2.62
3.17
3.73
4.30
4.82
5.29
5.74
6.27
6.96
7.87
8.97
10.15
11.21
11.92
12.12
11.79
11.02
10.01
8.95
7.93
6.92
5.81
4.52
3.05
1.48
-0.12
-1.73
-3.45
-5.34
-7.34
-9.18
-10.41
-10.66
-9.75
-7.88
-5.51
-3.19
-1.31
-0.02
0.77
1.25
1.54
1.69
1.68
1.54
1.34
1.23
1.35
1.73
2.32
2.95
3.42
3.63
3.54
3.21
2.73
2.19
1.62
1.05
0.48
-0.08
-0.68
-1.38
-2.29
-3.55
-5.18
-7.10
-9.06
-10.70
-11.66
-11.68
-10.71
-8.88
-6.50
-3.97
-1.65
0.25
1.65
2.65
3.38
4.00
4.59
5.17
5.73
6.23
6.65
6.95
7.06
6.89
6.37
5.48
4.34
3.12
2.03
1.25
0.81
0.60
0.39
-0.11
-1.13
-2.78
-5.01
-7.59
-10.17
-12.35
-13.79
-14.27
-13.77
-12.44
-10.57
-8.46
-6.35
-4.34
-2.45
-0.65
1.05
2.63
4.01
5.17
6.09
6.81
7.36
7.74
7.96
8.00
7.91
7.74
7.55
7.34
7.07
6.60
5.80
4.54
2.81
0.69
-1.68
-4.13
-6.53
-8.80
-10.92
-12.80
-14.24
-15.01
-14.89
-13.81
-11.91
-9.46
-6.81
-4.20
-1.77
0.44
2.41
4.04
5.18
5.69
5.54
4.83
3.79
2.68
1.71
0.97
0.43
0.02
-0.35
-0.69
-1.00
-1.25
-1.48
-1.75
-2.20
-2.92
-3.98
-5.38
-7.01
-8.69
-10.18
-11.20
-11.59
-11.29
-10.41
-9.14
-7.68
-6.19
-4.76
-3.40
-2.12
-0.94
0.10
0.94
1.53
1.87
2.00
1.99
1.91
1.85
1.83
1.83
1.78
1.64
1.37
0.98
0.49
-0.11
-0.80
-1.57
-2.40
-3.23
-4.05
-4.82
-5.52
-6.12
-6.54
-6.64
-6.27
-5.38
-3.99
-2.23
-0.31
1.58
3.30
4.81
6.14
7.29
8.27
9.06
9.63
10.04
10.36
10.71
11.15
11.61
11.92
11.88
11.36
10.39
9.14
7.84
6.64
5.60
4.66
3.70
2.62
1.38
-0.01
-1.55
-3.14
-4.66
-5.88
-6.53
-6.41
-5.49
-3.95
-2.14
-0.43
0.89
1.76
2.31
2.77
3.34
4.10
4.98
5.80
6.37
6.61
6.55
6.36
6.20
6.18
6.34
6.58
6.79
6.87
6.75
6.41
5.82
4.98
3.91
2.69
1.42
0.23
-0.85
-1.85
-2.88
-4.05
-5.37
-6.68
-7.72
-8.22
-8.03
-7.18
-5.84
-4.25
-2.60
-1.01
0.44
1.72
2.80
3.64
4.25
4.63
4.84
4.89
4.80
4.57
4.23
3.83
3.44
3.12
2.89
2.73
2.65
2.66
2.76
2.91
3.00
2.93
2.57
1.89
0.92
-0.23
-1.40
-2.47
-3.32
-3.96
-4.46
-4.96
-5.63
-6.57
-7.83
-9.33
-10.88
-12.21
-13.05
-13.19
-12.51
-11.06
-9.03
-6.74
-4.55
-2.73
-1.38
-0.45
0.24
0.89
1.64
2.53
3.48
4.40
5.15
5.68
5.95
6.00
5.86
5.56
5.14
4.65
4.11
3.56
3.02
2.44
1.79
0.99
0.06
-0.94
-1.89
-2.59
-2.92
-2.85
-2.51
-2.14
-2.02
-2.31
-3.00
-3.90
-4.68
-5.06
-4.86
-4.08
-2.89
-1.52
-0.15
1.08
2.15
3.07
3.87
4.55
5.12
5.59
6.02
6.48
6.99
7.52
7.97
8.22
8.22
8.03
7.80
7.73
7.95
8.47
9.14
9.74
10.02
9.82
9.03
7.64
5.77
3.61
1.51
-0.17
-1.09
-1.13
-0.45
0.50
1.14
0.96
-0.28
-2.45
-5.15
-7.83
-10.01
-11.38
-11.84
-11.41
-10.25
-8.53
-6.45
-4.25
-2.19
-0.44
0.87
1.79
2.42
2.92
3.36
3.74
3.96
3.90
3.51
2.84
2.02
1.17
0.42
-0.17
-0.60
-0.90
-1.10
-1.24
-1.40
-1.65
-2.12
-2.85
-3.85
-4.98
-6.04
-6.80
-7.11
-6.97
-6.54
-6.06
-5.82
-6.03
-6.76
-7.98
-9.49
-11.05
-12.36
-13.15
-13.19
-12.39
-10.85
-8.77
-6.44
-4.15
-2.07
-0.27
1.29
2.67
3.92
5.02
5.95
6.71
7.30
7.77
8.11
8.29
8.25
8.00
7.61
7.24
6.99
6.85
6.68
6.28
5.48
4.30
2.92
1.62
0.59
-0.07
-0.43
-0.61
-0.70
-0.81
-1.02
-1.45
-2.26
-3.55
-5.27
-7.18
-8.94
-10.15
-10.55
-10.06
-8.79
-6.99
-4.98
-3.02
-1.33
-0.01
0.97
1.68
2.25
2.78
3.35
3.95
4.58
5.18
5.73
6.21
6.61
6.93
7.16
7.33
7.47
7.62
7.83
8.04
8.15
8.01
7.50
6.56
5.27
3.83
2.47
1.39
0.65
0.19
-0.16
-0.56
-1.12
-1.86
-2.70
-3.53
-4.24
-4.73
-4.92
-4.72
-4.10
-3.07
-1.73
-0.23
1.22
2.51
3.57
4.42
5.10
5.64
6.00
6.11
5.96
5.59
5.11
4.65
4.32
4.09
3.90
3.62
3.17
2.56
1.84
1.12
0.44
-0.18
-0.79
-1.42
-2.11
-2.82
-3.49
-4.10
-4.61
-5.08
-5.56
-6.11
-6.81
-7.66
-8.66
-9.71
-10.68
-11.35
-11.58
-11.24
-10.35
-9.01
-7.40
-5.66
-3.91
-2.22
-0.65
0.75
1.94
2.94
3.82
4.68
5.60
6.56
7.46
8.20
8.70
8.98
9.13
9.23
9.33
9.35
9.20
8.78
8.07
7.14
6.13
5.14
4.23
3.38
2.55
1.69
0.85
0.10
-0.51
-0.98
-1.45
-2.07
-2.96
-4.11
-5.33
-6.34
-6.85
-6.69
-5.85
-4.47
-2.78
-1.04
0.55
1.81
2.70
3.25
3.58
3.81
4.04
4.29
4.53
4.66
4.64
4.49
4.23
3.91
3.54
3.08
2.47
1.70
0.78
-0.22
-1.23
-2.19
-3.07
-3.90
-4.72
-5.59
-6.56
-7.63
-8.78
-9.92
-10.94
-11.70
-12.07
-11.99
-11.44
-10.47
-9.18
-7.71
-6.20
-4.75
-3.38
-2.07
-0.82
0.35
1.31
1.93
2.12
1.91
1.47
1.00
0.69
0.64
0.79
1.00
1.13
1.10
0.89
0.50
-0.04
-0.71
-1.50
-2.38
-3.28
-4.17
-5.04
-5.93
-6.95
-8.14
-9.50
-10.92
-12.20
-13.12
-13.49
-13.16
-12.10
-10.37
-8.15
-5.71
-3.35
-1.35
0.14
1.13
1.76
2.24
2.71
3.27
3.87
4.43
4.87
5.13
5.23
5.19
5.09
5.00
4.93
4.86
4.71
4.38
3.83
3.08
2.20
1.31
0.42
-0.50
-1.53
-2.76
-4.18
-5.71
-7.21
-8.49
-9.38
-9.76
-9.58
-8.84
-7.62
-6.07
-4.33
-2.58
-0.93
0.52
1.77
2.83
3.74
4.53
5.22
5.81
6.26
6.57
6.75
6.82
6.80
6.70
6.53
6.32
6.08
5.84
5.58
5.27
4.84
4.19
3.31
2.23
1.04
-0.13
-1.16
-2.04
-2.80
-3.60
-4.56
-5.80
-7.29
-8.84
-10.18
-10.95
-10.92
-9.98
-8.25
-5.99
-3.54
-1.19
0.83
2.41
3.58
4.43
5.04
5.48
5.76
5.88
5.86
5.76
5.70
5.78
6.01
6.29
6.42
6.25
5.73
4.95
4.11
3.35
2.69
2.04
1.25
0.26
-0.87
-1.96
-2.81
-3.36
-3.62
-3.73
-3.79
-3.80
-3.68
-3.34
-2.71
-1.80
-0.67
0.60
1.94
3.28
4.56
5.71
6.69
7.48
8.09
8.50
8.70
8.65
8.34
7.82
7.20
6.68
6.36
6.26
6.23
6.08
5.62
4.79
3.65
2.39
1.18
0.18
-0.61
-1.20
-1.71
-2.26
-2.99
-4.04
-5.47
-7.25
-9.18
-10.90
-12.02
-12.24
-11.45
-9.79
-7.60
-5.28
-3.16
-1.43
-0.13
0.81
1.49
2.03
2.52
3.02
3.55
4.10
4.62
5.03
5.28
5.35
5.24
5.01
4.68
4.27
3.77
3.17
2.52
1.84
1.17
0.53
-0.12
-0.82
-1.59
-2.47
-3.45
-4.53
-5.68
-6.83
-7.82
-8.47
-8.60
-8.14
-7.15
-5.78
-4.27
-2.76
-1.34
-0.04
1.18
2.32
3.36
4.28
5.06
5.64
5.99
6.08
5.92
5.58
5.15
4.75
4.44
4.24
4.11
3.95
3.68
3.22
2.51
1.56
0.44
-0.76
-1.93
-3.05
-4.14
-5.30
-6.64
-8.17
-9.78
-11.19
-12.12
-12.33
-11.70
-10.33
-8.47
-6.49
-4.71
-3.32
-2.32
-1.57
-0.89
-0.19
0.49
1.04
1.31
1.28
1.04
0.78
0.63
0.65
0.74
0.79
0.67
0.35
-0.16
-0.87
-1.76
-2.82
-4.00
-5.17
-6.21
-7.01
-7.56
-7.94
-8.32
-8.82
-9.46
-10.11
-10.58
-10.61
-10.05
-8.86
-7.19
-5.28
-3.39
-1.69
-0.20
1.20
2.65
4.22
5.83
7.28
8.38
9.01
9.19
9.08
8.85
8.65
8.53
8.48
8.44
8.32
8.07
7.64
7.01
6.23
5.38
4.55
3.81
3.19
2.65
2.12
1.54
0.87
0.13
-0.60
-1.17
-1.45
-1.26
-0.50
0.89
2.82
5.07
7.37
9.45
11.19
12.63
13.93
15.25
16.66
18.11
19.44
20.48
21.21
21.71
22.11
22.51
22.87
23.03
22.79
22.01
20.64
18.75
16.44
13.82
11.00
8.08
5.21
2.55
0.23
-1.71
-3.35
-4.84
-6.39
-8.13
-10.08
-12.16
-14.20
-16.02
-17.42
-18.25
-18.42
-17.94
-16.90
-15.50
-13.94
-12.42
-11.04
-9.82
-8.73
-7.75
-6.85
-6.04
-5.30
-4.62
-3.96
-3.33
-2.77
-2.37
-2.13
-2.01
-1.86
-1.56
-1.06
-0.45
0.10
0.43
0.51
0.39
0.21
0.07
-0.04
-0.21
-0.53
-1.05
-1.73
-2.51
-3.36
-4.29
-5.30
-6.32
-7.21
-7.70
-7.61
-6.86
-5.57
-3.98
-2.36
-0.93
0.25
1.19
1.96
2.63
3.22
3.73
4.14
4.45
4.67
4.84
5.00
5.18
5.39
5.66
5.94
6.21
6.41
6.46
6.32
5.97
5.46
4.84
4.19
3.56
2.96
2.39
1.77
1.04
0.10
-1.13
-2.66
-4.39
-6.07
-7.36
-7.91
-7.52
-6.24
-4.36
-2.35
-0.69
0.34
0.67
0.49
0.04
-0.45
-0.85
-1.18
-1.45
-1.68
-1.76
-1.60
-1.11
-0.30
0.68
1.65
2.39
2.78
2.78
2.42
1.80
1.00
0.14
-0.69
-1.41
-2.00
-2.47
-2.92
-3.41
-4.00
-4.64
-5.24
-5.66
-5.76
-5.44
-4.70
-3.61
-2.36
-1.14
-0.09
0.73
1.41
2.04
2.68
3.26
3.59
3.51
2.92
1.95
0.83
-0.16
-0.86
-1.24
-1.41
-1.49
-1.57
-1.70
-1.93
-2.31
-2.89
-3.69
-4.68
-5.73
-6.67
-7.35
-7.75
-7.88
-7.82
-7.60
-7.12
-6.21
-4.68
-2.42
0.54
3.95
7.49
10.77
13.53
15.61
17.00
17.82
18.28
18.58
18.90
19.35
19.92
20.55
21.12
21.53
21.67
21.43
20.71
19.40
17.49
15.07
12.38
9.67
7.12
4.76
2.47
0.10
-2.35
-4.71
-6.70
-8.06
-8.77
-8.99
-9.06
-9.25
-9.65
-10.08
-10.15
-9.46
-7.81
-5.34
-2.48
0.23
2.51
4.38
6.07
7.81
9.51
10.80
11.26
10.75
9.59
8.38
7.66
7.49
7.44
6.86
5.34
2.99
0.39
-1.74
-2.96
-3.34
-3.37
-3.62
-4.50
-6.01
-7.81
-9.47
-10.63
-11.25
-11.54
-11.84
-12.39
-13.16
-13.89
-14.19
-13.76
-12.55
-10.82
-8.97
-7.42
-6.40
-5.89
-5.71
-5.59
-5.35
-4.97
-4.57
-4.35
-4.49
-5.08
-6.07
-7.26
-8.40
-9.25
-9.65
-9.55
-9.05
-8.31
-7.50
-6.79
-6.33
-6.15
-6.23
-6.46
-6.66
-6.71
-6.55
-6.25
-5.97
-5.89
-6.14
-6.73
-7.53
-8.35
-8.95
-9.13
-8.69
-7.56
-5.73
-3.34
-0.63
2.07
4.49
6.40
7.77
8.64
9.16
9.43
9.52
9.39
8.98
8.27
7.34
6.39
5.66
5.37
5.63
6.40
7.50
8.61
9.40
9.63
9.13
7.97
6.36
4.63
3.11
2.00
1.29
0.76
0.06
-1.14
-3.06
-5.65
-8.67
-11.70
-14.28
-16.09
-16.97
-16.98
-16.32
-15.28
-14.10
-12.95
-11.93
-11.06
-10.38
-9.87
-9.55
-9.34
-9.16
-8.89
-8.44
-7.82
-7.08
-6.30
-5.48
-4.60
-3.57
-2.29
-0.71
1.16
3.21
5.28
7.08
8.35
8.84
8.41
7.10
5.07
2.56
-0.18
-2.96
-5.63
-8.04
-10.01
-11.31
-11.80
-11.45
-10.45
-9.03
-7.44
-5.77
-4.02
-2.16
-0.24
1.54
2.93
3.75
3.96
3.71
3.21
2.59
1.93
1.19
0.37
-0.47
-1.24
-1.81
-2.18
-2.41
-2.62
-2.91
-3.26
-3.59
-3.76
-3.65
-3.28
-2.79
-2.40
-2.30
-2.60
-3.22
-3.98
-4.65
-5.03
-5.03
-4.61
-3.81
-2.69
-1.37
-0.02
1.19
2.16
2.89
3.53
4.26
5.22
6.39
7.64
8.75
9.53
9.94
10.03
9.92
9.72
9.46
9.09
8.52
7.69
6.59
5.27
3.79
2.22
0.58
-1.09
-2.78
-4.44
-5.99
-7.37
-8.53
-9.50
-10.35
-11.20
-12.12
-13.11
-14.01
-14.53
-14.31
-13.01
-10.42
-6.56
-1.63
3.96
9.71
15.11
19.66
23.02
24.95
25.44
24.66
22.94
20.71
18.37
16.23
14.42
12.91
11.56
10.18
8.62
6.86
5.08
3.60
2.75
2.77
3.64
5.06
6.60
7.83
8.48
8.53
8.10
7.41
6.54
5.50
4.21
2.67
1.02
-0.53
-1.72
-2.45
-2.80
-2.97
-3.17
-3.49
-3.82
-3.93
-3.60
-2.73
-1.43
0.06
1.46
2.60
3.48
4.25
5.12
6.22
7.61
9.15
10.65
11.93
12.91
13.60
14.12
14.59
15.03
15.36
15.35
14.76
13.45
11.43
8.89
6.08
3.23
0.44
-2.29
-5.00
-7.70
-10.30
-12.60
-14.39
-15.51
-15.92
-15.66
-14.85
-13.61
-12.06
-10.34
-8.60
-6.99
-5.66
-4.71
-4.16
-3.98
-4.08
-4.35
-4.61
-4.69
-4.46
-3.85
-2.97
-2.04
-1.36
-1.14
-1.46
-2.24
-3.30
-4.45
-5.58
-6.62
-7.58
-8.44
-9.20
-9.90
-10.61
-11.45
-12.50
-13.71
-14.91
-15.82
-16.16
-15.74
-14.56
-12.77
-10.63
-8.43
-6.37
-4.55
-2.94
-1.49
-0.13
1.11
2.15
2.90
3.29
3.35
3.18
2.91
2.67
2.49
2.39
2.31
2.17
1.95
1.66
1.32
0.99
0.68
0.35
-0.09
-0.69
-1.50
-2.47
-3.56
-4.71
-5.90
-7.09
-8.22
-9.11
-9.55
-9.32
-8.31
-6.62
-4.51
-2.33
-0.33
1.36
2.79
4.08
5.34
6.55
7.55
8.17
8.28
7.96
7.39
6.84
6.51
6.46
6.61
6.83
6.97
6.97
6.78
6.38
5.77
4.96
3.99
2.93
1.88
0.91
0.04
-0.79
-1.65
-2.63
-3.79
-5.13
-6.56
-7.91
-8.94
-9.38
-9.04
-7.86
-5.96
-3.61
-1.17
1.05
2.89
4.31
5.41
6.27
6.93
7.37
7.55
7.52
7.38
7.29
7.31
7.42
7.50
7.42
7.13
6.67
6.14
5.60
5.09
4.60
4.11
3.66
3.28
2.96
2.57
1.96
0.94
-0.53
-2.29
-4.06
-5.48
-6.29
-6.36
-5.73
-4.59
-3.10
-1.46
0.25
1.97
3.63
5.16
6.40
7.20
7.47
7.24
6.62
5.87
5.22
4.82
4.71
4.77
4.77
4.53
3.96
3.11
2.13
1.21
0.42
-0.26
-0.98
-1.95
-3.26
-4.88
-6.65
-8.34
-9.78
-10.87
-11.65
-12.14
-12.34
-12.17
-11.51
-10.26
-8.40
-5.92
-2.79
1.05
5.55
10.47
15.27
19.27
21.94
23.16
23.30
23.07
23.18
23.95
25.27
26.70
27.80
28.36
28.47
28.36
28.18
27.91
27.37
26.39
24.85
22.77
20.18
17.15
13.71
9.99
6.21
2.73
-0.11
-2.07
-3.12
-3.45
-3.35
-3.11
-2.90
-2.81
-2.86
-3.05
-3.42
-3.99
-4.74
-5.63
-6.59
-7.56
-8.56
-9.60
-10.69
-11.79
-12.78
-13.50
-13.79
-13.56
-12.87
-11.87
-10.78
-9.84
-9.20
-8.95
-9.07
-9.53
-10.25
-11.20
-12.32
-13.58
-14.88
-16.10
-17.01
-17.41
-17.10
-16.05
-14.40
-12.42
-10.40
-8.53
-6.86
-5.28
-3.66
-1.96
-0.24
1.37
2.75
3.88
4.84
5.66
6.36
6.85
7.04
6.89
6.50
6.02
5.60
5.27
4.97
4.59
4.01
3.20
2.17
1.03
-0.13
-1.22
-2.16
-2.92
-3.56
-4.18
-4.98
-6.08
-7.53
-9.17
-10.72
-11.80
-12.16
-11.66
-10.39
-8.58
-6.52
-4.50
-2.70
-1.24
-0.13
0.70
1.34
1.89
2.42
2.96
3.48
3.93
4.24
4.37
4.30
4.11
3.87
3.69
3.67
3.80
4.00
4.15
4.10
3.76
3.12
2.28
1.39
0.61
0.04
-0.29
-0.45
-0.56
-0.80
-1.29
-2.04
-2.97
-3.83
-4.37
-4.37
-3.74
-2.52
-0.92
0.85
2.58
4.13
5.49
6.65
7.66
8.51
9.19
9.66
9.92
9.97
9.83
9.51
8.99
8.25
7.29
6.13
4.88
3.68
2.64
1.86
1.34
1.01
0.81
0.71
0.71
0.81
1.01
1.18
1.19
0.90
0.23
-0.79
-2.00
-3.24
-4.34
-5.21
-5.78
-6.01
-5.91
-5.50
-4.87
-4.12
-3.36
-2.68
-2.09
-1.62
-1.29
-1.08
-1.00
-0.98
-0.93
-0.79
-0.52
-0.15
0.22
0.52
0.72
0.85
0.95
1.05
1.13
1.15
1.04
0.79
0.44
0.06
-0.27
-0.54
-0.81
-1.17
-1.71
-2.47
-3.41
-4.48
-5.60
-6.70
-7.71
-8.52
-9.02
-9.08
-8.63
-7.69
-6.40
-4.96
-3.58
-2.44
-1.58
-0.97
-0.49
-0.05
0.40
0.84
1.17
1.30
1.21
0.94
0.65
0.48
0.53
0.72
0.92
0.97
0.79
0.41
-0.04
-0.44
-0.78
-1.13
-1.60
-2.20
-2.86
-3.47
-3.93
-4.26
-4.54
-4.87
-5.28
-5.73
-6.13
-6.47
-6.81
-7.26
-7.89
-8.63
-9.26
-9.49
-9.11
-8.06
-6.54
-4.87
-3.38
-2.27
-1.51
-0.91
-0.21
0.70
1.76
2.76
3.45
3.73
3.71
3.60
3.65
3.95
4.43
4.90
5.22
5.30
5.17
4.96
4.75
4.54
4.30
3.94
3.42
2.76
2.02
1.28
0.61
0.05
-0.42
-0.85
-1.30
-1.81
-2.43
-3.19
-4.14
-5.26
-6.50
-7.71
-8.70
-9.24
-9.19
-8.50
-7.28
-5.75
-4.20
-2.82
-1.72
-0.89
-0.23
0.36
0.94
1.49
1.96
2.35
2.66
2.94
3.25
3.58
3.87
4.08
4.18
4.22
4.29
4.43
4.65
4.85
4.90
4.67
4.10
3.21
2.09
0.93
-0.13
-0.97
-1.61
-2.14
-2.76
-3.66
-4.88
-6.38
-7.93
-9.24
-10.04
-10.16
-9.58
-8.45
-6.98
-5.43
-4.00
-2.78
-1.73
-0.75
0.22
1.16
1.88
2.22
2.07
1.54
0.92
0.52
0.57
1.05
1.80
2.55
3.13
3.55
3.88
4.23
4.59
4.82
4.70
4.13
3.12
1.82
0.50
-0.67
-1.58
-2.28
-2.89
-3.57
-4.43
-5.56
-6.97
-8.60
-10.29
-11.85
-12.99
-13.47
-13.10
-11.86
-9.90
-7.52
-5.06
-2.81
-0.88
0.74
2.18
3.53
4.79
5.87
6.64
7.04
7.12
7.04
6.95
6.95
7.02
7.07
7.01
6.84
6.60
6.39
6.27
6.22
6.15
5.90
5.36
4.50
3.42
2.28
1.26
0.45
-0.19
-0.82
-1.63
-2.73
-4.07
-5.47
-6.65
-7.34
-7.39
-6.77
-5.58
-3.96
-2.11
-0.18
1.67
3.32
4.70
5.79
6.61
7.23
7.69
8.01
8.22
8.28
8.18
7.95
7.61
7.24
6.94
6.82
6.93
7.25
7.69
8.06
8.19
7.93
7.28
6.38
5.42
4.60
4.04
3.71
3.50
3.23
2.72
1.84
0.53
-1.13
-3.00
-4.81
-6.23
-6.99
-6.89
-5.94
-4.33
-2.37
-0.40
1.31
2.66
3.68
4.49
5.25
6.04
6.88
7.71
8.48
9.15
9.68
10.03
10.20
10.17
9.98
9.66
9.29
8.91
8.53
8.12
7.62
6.97
6.15
5.21
4.18
3.12
2.05
0.93
-0.26
-1.53
-2.89
-4.30
-5.73
-7.09
-8.25
-9.07
-9.36
-9.04
-8.08
-6.64
-4.90
-3.12
-1.45
0.02
1.26
2.24
2.92
3.28
3.33
3.18
2.99
2.92
3.02
3.24
3.46
3.57
3.55
3.46
3.33
3.15
2.79
2.13
1.09
-0.24
-1.65
-2.93
-3.96
-4.79
-5.64
-6.70
-8.03
-9.52
-10.87
-11.76
-11.93
-11.31
-10.01
-8.30
-6.48
-4.85
-3.54
-2.55
-1.77
-1.04
-0.32
0.38
0.95
1.33
1.52
1.60
1.69
1.82
1.96
2.01
1.88
1.54
1.11
0.73
0.53
0.51
0.55
0.46
0.03
-0.85
-2.15
-3.78
