1547276660.00
64.000000
-0.00
-0.00
-0.00
-0.00
-0.00
-0.00
-0.00
-0.00
-0.00
-0.01
-0.00
0.00
0.01
0.01
-0.00
-0.03
-0.05
-0.05
-0.00
0.13
0.36
0.66
1.01
1.37
1.72
2.06
2.40
2.77
3.24
3.80
4.42
5.06
5.66
6.20
6.67
7.14
7.65
8.35
9.20
10.14
11.02
11.72
12.19
12.52
12.90
13.53
14.79
16.67
19.02
21.52
23.86
25.88
27.67
29.60
32.03
35.65
40.42
46.03
51.88
57.33
62.02
66.12
70.23
75.00
81.46
89.55
98.72
107.95
116.19
122.93
128.42
134.59
139.95
146.73
155.49
166.57
179.59
193.05
204.09
208.82
203.22
184.32
151.90
107.54
54.54
-3.57
-64.04
-125.26
-186.36
-246.54
-304.85
-359.72
-410.27
-456.12
-497.41
-534.45
-567.17
-594.58
-614.51
-623.43
-616.71
-590.27
-541.79
-472.26
-386.33
-291.37
-195.47
-105.24
-24.58
45.34
104.69
153.91
192.96
221.60
240.04
249.48
251.97
249.79
244.95
238.43
230.38
220.44
208.43
194.58
179.53
164.12
149.09
134.93
121.78
109.57
98.17
87.45
77.39
68.00
59.30
51.24
43.70
36.51
29.48
22.56
15.92
10.01
5.41
2.56
1.50
1.71
2.26
2.15
0.69
-2.25
-6.30
-10.81
-15.23
-19.25
-23.00
-26.57
-29.83
-32.40
-33.80
-33.56
-31.53
-27.86
-22.94
-17.36
-11.65
-6.28
-1.58
2.27
5.22
7.32
8.68
9.45
9.79
9.87
9.89
10.02
10.41
11.20
12.47
14.23
16.44
18.92
21.42
23.51
24.72
24.64
23.06
20.10
16.17
11.85
7.72
4.16
1.31
-0.90
-2.65
-4.09
-5.33
-6.39
-7.28
-7.99
-8.55
-8.98
-9.27
-9.42
-9.47
-9.51
-9.64
-9.96
-10.45
-11.03
-11.55
-11.90
-12.06
-12.13
-12.28
-12.61
-13.16
-13.82
-14.38
-14.59
-14.16
-12.83
-10.44
-7.02
-2.79
1.74
5.98
9.33
11.42
12.21
11.96
11.14
10.23
9.55
9.23
9.26
9.58
10.10
10.75
11.40
11.78
11.51
10.24
7.80
4.34
0.35
-3.53
-6.68
-8.73
-9.68
-9.80
-9.45
-8.93
-8.37
-7.72
-6.86
-5.73
-4.35
-2.76
-1.05
0.78
2.68
4.56
6.26
7.54
8.26
8.40
8.19
7.98
8.14
8.93
10.42
12.53
15.12
18.06
21.25
24.67
28.26
31.95
35.63
39.14
42.36
45.18
47.55
49.43
50.85
51.85
52.56
53.10
53.56
53.96
54.23
54.21
53.75
52.74
51.16
49.01
46.31
43.02
39.11
34.65
29.88
25.16
20.89
17.30
14.39
11.90
9.46
6.76
3.71
0.44
-2.79
-5.71
-8.20
-10.27
-11.94
-13.17
-13.82
-13.71
-12.75
-11.03
-8.89
-6.76
-5.02
-3.87
-3.24
-2.90
-2.59
-2.20
-1.77
-1.52
-1.62
-2.17
-3.09
-4.16
-5.16
-5.95
-6.49
-6.89
-7.24
-7.59
-7.87
-7.99
-7.82
-7.34
-6.64
-5.90
-5.33
-5.06
-5.12
-5.40
-5.73
-5.94
-5.93
-5.67
-5.27
-4.87
-4.58
-4.47
-4.51
-4.57
-4.48
-4.06
-3.17
-1.73
0.27
2.70
5.33
7.80
9.71
10.71
10.62
9.50
7.59
5.28
2.95
0.92
-0.63
-1.60
-1.94
-1.67
-0.87
0.26
1.43
2.35
2.80
2.72
2.20
1.42
0.62
0.03
-0.11
0.39
1.68
3.77
6.47
9.40
12.10
14.17
15.35
15.59
14.90
13.30
10.75
7.22
2.81
-2.16
-7.20
-11.80
-15.61
-18.49
-20.50
-21.65
-21.90
-21.09
-19.11
-16.08
-12.31
-8.32
-4.58
-1.45
0.93
2.55
3.50
3.84
3.63
2.90
1.75
0.23
-1.55
-3.50
-5.52
-7.49
-9.26
-10.74
-11.86
-12.59
-12.95
-12.92
-12.48
-11.64
-10.45
-9.04
-7.64
-6.50
-5.81
-5.67
-6.09
-6.99
-8.32
-10.03
-12.11
-14.51
-17.08
-19.58
-21.75
-23.31
-24.15
-24.22
-23.58
-22.34
-20.51
-18.12
-15.14
-11.56
-7.47
-3.04
1.45
5.67
9.36
12.38
14.74
16.50
17.73
18.37
18.25
17.16
15.05
12.11
8.81
5.76
3.51
2.35
2.23
2.86
3.83
4.84
5.73
6.49
7.17
7.77
8.22
8.38
8.12
7.43
6.38
5.13
3.85
2.66
1.57
0.55
-0.50
-1.66
-2.87
-4.03
-4.94
-5.45
-5.54
-5.28
-4.87
-4.47
-4.20
-4.05
-3.99
-3.97
-3.99
-4.06
-4.15
-4.14
-3.91
-3.37
-2.56
-1.64
-0.80
-0.18
0.20
0.43
0.60
0.76
0.91
1.01
1.08
1.19
1.42
1.82
2.38
3.02
3.62
4.08
4.32
4.32
4.07
3.63
3.02
2.31
1.56
0.80
0.08
-0.57
-1.12
-1.54
-1.81
-1.96
-2.04
-2.18
-2.46
-2.96
-3.63
-4.37
-5.01
-5.43
-5.64
-5.72
-5.81
-6.00
-6.25
-6.42
-6.36
-6.03
-5.48
-4.87
-4.28
-3.72
-3.10
-2.34
-1.44
-0.53
0.23
0.72
0.96
1.09
1.23
1.46
1.76
2.08
2.43
2.90
3.62
4.66
5.95
7.25
8.25
8.73
8.59
7.95
7.00
5.92
4.80
3.60
2.20
0.52
-1.45
-3.68
-6.03
-8.34
-10.39
-11.91
-12.67
-12.50
-11.43
-9.66
-7.59
-5.64
-4.12
-3.12
-2.53
-2.11
-1.64
-0.99
-0.16
0.79
1.76
2.62
3.31
3.78
4.03
4.11
4.11
4.12
4.22
4.39
4.57
4.67
4.66
4.54
4.35
4.12
3.85
3.51
3.07
2.53
1.95
1.35
0.75
0.13
-0.52
-1.20
-1.86
-2.43
-2.86
-3.19
-3.50
-3.86
-4.33
-4.84
-5.31
-5.58
-5.55
-5.19
-4.53
-3.64
-2.64
-1.62
-0.68
0.15
0.87
1.52
2.12
2.69
3.20
3.65
4.00
4.25
4.40
4.48
4.48
4.39
4.25
4.09
3.97
3.94
4.00
4.10
4.13
4.02
3.76
3.42
3.08
2.81
2.64
2.51
2.36
2.11
1.75
1.30
0.79
0.23
-0.40
-1.13
-1.95
-2.78
-3.56
-4.18
-4.63
-4.92
-5.09
-5.13
-5.03
-4.78
-4.43
-4.04
-3.72
-3.50
-3.35
-3.18
-2.91
-2.51
-2.01
-1.48
-0.98
-0.55
-0.20
0.05
0.18
0.16
0.02
-0.20
-0.42
-0.54
-0.53
-0.36
-0.07
0.30
0.67
0.92
0.99
0.85
0.54
0.13
-0.26
-0.55
-0.70
-0.71
-0.67
-0.69
-0.89
-1.33
-1.96
-2.64
-3.14
-3.30
-3.03
-2.42
-1.64
-0.93
-0.42
-0.15
-0.05
-0.01
0.03
0.07
0.08
0.05
0.01
0.03
0.17
0.42
0.68
0.82
0.75
0.47
0.06
-0.33
-0.58
-0.62
-0.47
-0.17
0.18
0.48
0.59
0.46
0.07
-0.49
-1.05
-1.46
-1.64
-1.67
-1.67
-1.80
-2.12
-2.56
-2.97
-3.19
-3.12
-2.77
-2.19
-1.49
-0.79
-0.16
0.33
0.68
0.88
0.94
0.91
0.82
0.71
0.63
0.65
0.77
0.95
1.15
1.30
1.40
1.45
1.48
1.48
1.43
1.30
1.08
0.82
0.57
0.35
0.16
-0.07
-0.42
-0.91
-1.48
-2.00
-2.35
-2.44
-2.31
-2.05
-1.81
-1.72
-1.82
-2.07
-2.37
-2.59
-2.64
-2.49
-2.19
-1.83
-1.46
-1.09
-0.72
-0.31
0.15
0.62
1.01
1.23
1.24
1.07
0.80
0.52
0.31
0.16
0.04
-0.05
-0.10
-0.04
0.15
0.46
0.80
1.06
1.17
1.12
0.98
0.83
0.71
0.62
0.52
0.42
0.31
0.23
0.19
0.13
-0.05
-0.43
-1.02
-1.71
-2.37
-2.85
-3.07
-3.02
-2.76
-2.36
-1.90
-1.42
-0.96
-0.58
-0.30
-0.08
0.11
0.34
0.64
0.99
1.34
1.64
1.83
1.91
1.92
1.87
1.81
1.75
1.71
1.67
1.63
1.58
1.51
1.42
1.33
1.23
1.14
1.05
0.94
0.77
0.52
0.17
-0.24
-0.69
-1.12
-1.47
-1.74
-1.94
-2.13
-2.34
-2.56
-2.74
-2.81
-2.72
-2.46
-2.07
-1.65
-1.30
-1.08
-0.94
-0.82
-0.59
-0.18
0.41
1.06
1.62
1.93
1.94
1.71
1.37
1.07
0.90
0.87
0.88
0.88
0.80
0.67
0.54
0.46
0.47
0.55
0.65
0.73
0.72
0.59
0.35
0.03
-0.32
-0.64
-0.93
-1.18
-1.45
-1.80
-2.26
-2.79
-3.27
-3.58
-3.60
-3.33
-2.85
-2.32
-1.88
-1.60
-1.48
-1.41
-1.31
-1.10
-0.80
-0.46
-0.14
0.14
0.36
0.51
0.58
0.56
0.44
0.26
0.14
0.18
0.45
0.95
1.57
2.15
2.52
2.63
2.50
2.21
1.86
1.51
1.16
0.82
0.47
0.13
-0.16
-0.40
-0.64
-0.92
-1.31
-1.80
-2.31
-2.72
-2.93
-2.92
-2.72
-2.44
-2.16
-1.95
-1.79
-1.63
-1.43
-1.15
-0.80
-0.42
-0.03
0.34
0.68
0.97
1.20
1.35
1.38
1.29
1.11
0.91
0.77
0.73
0.77
0.82
0.80
0.69
0.51
0.34
0.24
0.23
0.21
0.09
-0.20
-0.61
-1.06
-1.41
-1.59
-1.65
-1.69
-1.85
-2.15
-2.54
-2.89
-3.08
-3.03
-2.73
-2.24
-1.64
-1.02
-0.45
0.03
0.41
0.68
0.85
0.96
1.05
1.14
1.27
1.42
1.56
1.67
1.71
1.69
1.62
1.52
1.42
1.32
1.24
1.21
1.23
1.31
1.38
1.38
1.20
0.81
0.28
-0.26
-0.65
-0.79
-0.72
-0.56
-0.51
-0.70
-1.15
-1.77
-2.39
-2.83
-2.98
-2.84
-2.46
-1.97
-1.48
-1.06
-0.71
-0.42
-0.17
0.06
0.24
0.38
0.53
0.71
1.01
1.39
1.80
2.11
2.23
2.12
1.87
1.61
1.46
1.43
1.47
1.45
1.25
0.86
0.40
0.01
-0.17
-0.13
0.08
0.33
0.52
0.61
0.59
0.48
0.26
-0.13
-0.73
-1.49
-2.29
-2.95
-3.32
-3.38
-3.23
-3.05
-2.96
-2.99
-3.01
-2.85
-2.35
-1.51
-0.49
0.50
1.25
1.63
1.63
1.36
0.95
0.55
0.31
0.31
0.56
0.99
1.47
1.85
2.04
2.03
1.88
1.71
1.58
1.52
1.47
1.36
1.16
0.86
0.54
0.28
0.15
0.12
0.15
0.17
0.14
0.05
-0.08
-0.25
-0.52
-0.90
-1.38
-1.86
-2.18
-2.24
-2.03
-1.65
-1.30
-1.09
-1.03
-1.01
-0.89
-0.58
-0.11
0.38
0.76
0.94
0.95
0.89
0.85
0.91
1.05
1.22
1.34
1.34
1.23
1.07
0.90
0.76
0.64
0.51
0.30
-0.00
-0.35
-0.65
-0.82
-0.82
-0.67
-0.47
-0.31
-0.24
-0.31
-0.49
-0.76
-1.11
-1.50
-1.91
-2.26
-2.49
-2.52
-2.31
-1.87
-1.31
-0.75
-0.32
-0.07
0.03
0.07
0.14
0.29
0.52
0.75
0.96
1.11
1.23
1.33
1.41
1.41
1.30
1.09
0.85
0.65
0.57
0.59
0.65
0.67
0.56
0.30
-0.08
-0.49
-0.86
-1.12
-1.26
-1.33
-1.37
-1.40
-1.42
-1.44
-1.48
-1.59
-1.82
-2.14
-2.45
-2.60
-2.45
-1.98
-1.28
-0.53
0.08
0.47
0.64
0.66
0.64
0.64
0.73
0.93
1.24
1.64
2.06
2.40
2.59
2.58
2.37
2.00
1.55
1.10
0.77
0.64
0.75
1.04
1.36
1.56
1.51
1.18
0.67
0.13
-0.28
-0.48
-0.51
-0.46
-0.43
-0.52
-0.73
-1.03
-1.35
-1.63
-1.82
-1.93
-1.94
-1.87
-1.74
-1.58
-1.43
-1.32
-1.28
-1.27
-1.17
-0.87
-0.29
0.55
1.47
2.26
2.71
2.72
2.35
1.78
1.23
0.91
0.91
1.18
1.58
1.90
2.02
1.89
1.56
1.19
0.93
0.81
0.76
0.58
0.04
-0.97
-2.47
-4.40
-6.59
-8.84
-10.77
-11.88
-11.69
-9.95
-6.88
-3.18
0.20
2.51
3.51
3.55
3.28
3.24
3.62
4.19
4.55
4.47
3.98
3.35
2.85
2.61
2.56
2.54
2.43
2.20
1.94
1.79
1.82
2.00
2.22
2.33
2.19
1.79
1.21
0.61
0.15
-0.08
-0.11
-0.07
-0.11
-0.29
-0.61
-0.97
-1.26
-1.39
-1.33
-1.16
-1.01
-1.02
-1.30
-1.86
-2.59
-3.31
-3.80
-3.91
-3.61
-3.00
-2.27
-1.62
-1.13
-0.79
-0.50
-0.21
0.04
0.16
0.06
-0.22
-0.53
-0.69
-0.58
-0.22
0.22
0.56
0.71
0.67
0.52
0.36
0.24
0.14
0.10
0.16
0.45
1.02
1.83
2.70
3.36
3.58
3.26
2.44
1.30
0.03
-1.22
-2.35
-3.32
-4.08
-4.52
-4.59
-4.25
-3.59
-2.78
-1.99
-1.35
-0.90
-0.57
-0.29
0.01
0.35
0.70
1.02
1.28
1.48
1.61
1.69
1.74
1.77
1.77
1.73
1.65
1.51
1.30
1.06
0.84
0.69
0.61
0.58
0.56
0.50
0.39
0.24
0.06
-0.16
-0.45
-0.83
-1.29
-1.76
-2.16
-2.44
-2.60
-2.66
-2.68
-2.64
-2.53
-2.29
-1.91
-1.40
-0.85
-0.32
0.13
0.46
0.66
0.76
0.79
0.80
0.84
0.97
1.18
1.44
1.68
1.86
1.95
1.98
1.94
1.83
1.67
1.48
1.31
1.22
1.24
1.35
1.46
1.49
1.42
1.26
1.07
0.91
0.79
0.68
0.50
0.21
-0.23
-0.79
-1.38
-1.91
-2.32
-2.54
-2.56
-2.38
-2.03
-1.57
-1.08
-0.62
-0.24
0.05
0.30
0.54
0.79
1.02
1.16
1.19
1.11
1.03
1.00
1.06
1.18
1.25
1.21
1.03
0.79
0.59
0.52
0.59
0.72
0.78
0.70
0.49
0.21
0.00
-0.09
-0.07
-0.05
-0.13
-0.38
-0.76
-1.17
-1.52
-1.78
-1.99
-2.21
-2.44
-2.66
-2.78
-2.75
-2.58
-2.33
-2.07
-1.84
-1.62
-1.40
-1.19
-1.05
-1.06
-1.25
-1.58
-1.96
-2.29
-2.50
-2.64
-2.75
-2.92
-3.18
-3.53
-3.97
-4.44
-4.90
-5.31
-5.63
-5.85
-5.95
-5.90
-5.68
-5.28
-4.73
-4.14
-3.66
-3.43
-3.51
-3.87
-4.35
-4.76
-4.90
-4.60
-3.75
-2.27
-0.13
2.60
5.74
9.01
12.09
14.68
16.55
17.58
17.75
17.15
15.92
14.27
12.45
10.73
9.34
8.44
8.02
7.95
7.95
7.77
7.26
6.41
5.39
4.39
3.59
3.05
2.78
2.74
2.86
3.10
3.36
3.48
3.30
2.74
1.81
0.62
-0.70
-2.08
-3.45
-4.81
-6.06
-7.08
-7.73
-7.94
-7.75
-7.30
-6.72
-6.12
-5.55
-5.01
-4.51
-4.07
-3.71
-3.47
-3.31
-3.16
-2.93
-2.57
-2.05
-1.40
-0.72
-0.10
0.36
0.64
0.73
0.70
0.62
0.53
0.48
0.45
0.47
0.54
0.67
0.87
1.09
1.26
1.33
1.23
0.97
0.57
0.08
-0.46
-1.04
-1.63
-2.18
-2.60
-2.79
-2.73
-2.45
-2.06
-1.70
-1.46
-1.34
-1.27
-1.18
-1.01
-0.79
-0.58
-0.45
-0.40
-0.39
-0.36
-0.24
-0.07
0.09
0.13
-0.01
-0.32
-0.67
-0.92
-0.98
-0.83
-0.55
-0.26
-0.03
0.09
0.11
0.07
-0.05
-0.26
-0.59
-1.01
-1.50
-1.96
-2.32
-2.49
-2.45
-2.21
-1.87
-1.50
-1.17
-0.94
-0.78
-0.66
-0.54
-0.37
-0.15
0.13
0.45
0.83
1.24
1.68
2.07
2.36
2.49
2.46
2.30
2.10
1.95
1.89
1.90
1.92
1.88
1.75
1.54
1.31
1.13
1.04
1.01
0.97
0.86
0.65
0.38
0.11
-0.09
-0.17
-0.19
-0.21
-0.33
-0.63
-1.09
-1.64
-2.19
-2.65
-2.94
-3.05
-2.96
-2.66
-2.17
-1.54
-0.88
-0.29
0.12
0.35
0.44
0.48
0.51
0.55
0.56
0.56
0.59
0.73
1.00
1.38
1.77
2.02
2.08
1.97
1.82
1.73
1.76
1.89
2.00
1.99
1.83
1.58
1.33
1.18
1.13
1.12
1.03
0.76
0.30
-0.31
-0.98
-1.64
-2.21
-2.61
-2.77
-2.64
-2.21
-1.59
-0.91
-0.33
0.03
0.18
0.16
0.07
0.01
0.04
0.20
0.50
0.93
1.41
1.83
2.06
2.00
1.67
1.17
0.67
0.28
0.08
0.01
-0.02
-0.09
-0.22
-0.38
-0.50
-0.56
-0.58
-0.66
-0.88
-1.30
-1.89
-2.57
-3.20
-3.71
-4.07
-4.33
-4.53
-4.69
-4.79
-4.74
-4.51
-4.09
-3.51
-2.85
-2.16
-1.49
-0.91
-0.45
-0.17
-0.04
0.02
0.11
0.34
0.74
1.24
1.71
2.04
2.19
2.19
2.13
2.07
2.03
2.00
1.94
1.89
1.89
1.97
2.09
2.17
2.09
1.77
1.22
0.54
-0.11
-0.60
-0.87
-0.94
-0.92
-0.89
-0.94
-1.09
-1.33
-1.61
-1.84
-1.95
-1.90
-1.66
-1.27
-0.83
-0.45
-0.20
-0.07
0.02
0.21
0.56
1.07
1.63
2.11
2.41
2.53
2.56
2.60
2.71
2.91
3.16
3.42
3.68
3.91
4.09
4.16
4.08
3.85
3.52
3.16
2.83
2.58
2.37
2.19
1.97
1.69
1.31
0.85
0.35
-0.16
-0.60
-0.94
-1.21
-1.43
-1.65
-1.86
-2.02
-2.05
-1.92
-1.65
-1.29
-0.91
-0.53
-0.15
0.22
0.55
0.76
0.78
0.59
0.23
-0.19
-0.62
-1.10
-1.69
-2.46
-3.38
-4.28
-4.98
-5.33
-5.34
-5.07
-4.66
-4.14
-3.41
-2.36
-0.91
0.87
2.79
4.60
6.08
7.13
7.77
8.14
8.43
8.76
9.19
9.69
10.19
10.52
10.44
9.69
8.13
5.84
3.19
0.71
-1.18
-2.40
-3.24
-4.25
-5.90
-8.20
-10.79
-12.92
-13.95
-13.58
-11.85
-9.01
-5.47
-1.76
1.42
3.38
3.72
2.57
0.62
-1.19
-2.19
-2.32
-2.14
-2.36
-3.43
-5.11
-6.72
-7.54
-7.13
-5.44
-2.80
0.30
3.27
5.57
6.78
6.80
5.85
4.41
2.91
1.51
0.05
-1.68
-3.77
-5.94
-7.66
-8.50
-8.22
-6.81
-4.47
-1.51
1.67
4.59
6.83
8.18
8.68
8.67
8.44
8.08
7.47
6.43
4.96
3.40
2.30
2.02
2.51
3.29
3.67
3.19
1.87
0.08
-1.60
-2.68
-2.99
-2.62
-1.86
-1.00
-0.20
0.54
1.25
1.96
2.64
3.19
3.48
3.39
2.90
2.02
0.86
-0.49
-1.94
-3.39
-4.80
-6.07
-7.12
-7.80
-8.03
-7.80
-7.27
-6.68
-6.31
-6.34
-6.76
-7.41
-8.05
-8.48
-8.59
-8.38
-7.89
-7.15
-6.11
-4.71
-2.94
-0.82
1.55
4.06
6.65
9.26
11.86
14.39
16.71
18.65
20.06
20.84
20.92
20.31
19.02
17.10
14.58
11.53
8.02
4.10
-0.16
-4.64
-9.11
-13.22
-16.60
-18.94
-20.13
-20.29
-19.67
-18.61
-17.33
-15.97
-14.55
-13.07
-11.55
-10.00
-8.45
-6.89
-5.30
-3.69
-2.12
-0.71
0.41
1.17
1.58
1.78
1.92
2.15
2.56
3.13
3.77
4.39
4.95
5.45
5.95
6.50
7.12
7.77
8.40
8.97
9.44
9.80
10.08
10.30
10.45
10.55
10.60
10.61
10.65
10.74
10.89
11.05
11.13
11.01
10.56
9.75
8.57
7.06
5.30
3.31
1.14
-1.19
-3.62
-6.04
-8.23
-10.01
-11.18
-11.71
-11.67
-11.26
-10.72
-10.24
-9.92
-9.73
-9.57
-9.32
-8.93
-8.40
-7.78
-7.10
-6.40
-5.70
-5.04
-4.48
-4.12
-4.01
-4.11
-4.32
-4.46
-4.40
-4.06
-3.48
-2.76
-2.05
-1.42
-0.89
-0.43
0.01
0.40
0.69
0.82
0.75
0.52
0.26
0.14
0.25
0.60
1.10
1.56
1.83
1.83
1.62
1.30
1.02
0.85
0.83
0.93
1.08
1.23
1.34
1.38
1.33
1.14
0.80
0.29
-0.34
-1.01
-1.61
-2.09
-2.41
-2.59
-2.68
-2.68
-2.58
-2.33
-1.91
-1.39
-0.84
-0.37
-0.02
0.21
0.39
0.55
0.71
0.88
1.07
1.31
1.62
1.96
2.26
2.44
2.48
2.45
2.42
2.44
2.45
2.32
1.98
1.43
0.79
0.21
-0.20
-0.43
-0.54
-0.59
-0.59
-0.50
-0.32
-0.15
-0.16
-0.48
-1.15
-2.05
-2.99
-3.73
-4.15
-4.21
-3.97
-3.52
-2.94
-2.27
-1.56
-0.85
-0.17
0.41
0.88
1.21
1.42
1.54
1.62
1.70
1.78
1.83
1.77
1.57
1.25
0.93
0.71
0.68
0.83
1.04
1.17
1.13
0.92
0.63
0.37
0.23
0.24
0.37
0.57
0.78
0.95
1.03
0.97
0.75
0.43
0.04
-0.36
-0.75
-1.14
-1.55
-1.93
-2.23
-2.35
-2.20
-1.81
-1.26
-0.66
-0.09
0.43
0.89
1.29
1.57
1.71
1.68
1.51
1.26
1.02
0.83
0.71
0.66
0.69
0.82
1.06
1.39
1.71
1.94
2.00
1.89
1.64
1.33
1.01
0.68
0.36
0.04
-0.25
-0.49
-0.66
-0.80
-0.96
-1.16
-1.42
-1.72
-2.02
-2.29
-2.46
-2.47
-2.28
-1.90
-1.39
-0.87
-0.46
-0.22
-0.13
-0.13
-0.08
0.09
0.43
0.92
1.46
1.95
2.30
2.43
2.32
2.00
1.54
1.05
0.66
0.46
0.48
0.66
0.86
0.94
0.80
0.48
0.07
-0.29
-0.48
-0.47
-0.34
-0.20
-0.21
-0.45
-0.96
-1.69
-2.50
-3.19
-3.57
-3.54
-3.09
-2.37
-1.57
-0.87
-0.34
0.04
0.34
0.63
0.94
1.25
1.52
1.71
1.80
1.77
1.65
1.47
1.25
1.07
0.96
0.94
1.00
1.12
1.29
1.48
1.64
1.73
1.69
1.47
1.11
0.65
0.19
-0.19
-0.50
-0.75
-0.99
-1.23
-1.46
-1.68
-1.90
-2.17
-2.53
-2.98
-3.48
-3.89
-4.06
-3.90
-3.40
-2.65
-1.83
-1.08
-0.48
0.02
0.50
1.05
1.63
2.15
2.50
2.60
2.51
2.32
2.15
2.04
1.97
1.91
1.86
1.85
1.92
2.08
2.26
2.38
2.32
2.06
1.64
1.17
0.74
0.40
0.16
-0.03
-0.22
-0.46
-0.75
-1.07
-1.37
-1.62
-1.82
-2.00
-2.21
-2.46
-2.72
-2.91
-2.96
-2.88
-2.72
-2.58
-2.50
-2.50
-2.45
-2.25
-1.79
-1.09
-0.28
0.47
1.03
1.35
1.52
1.63
1.79
2.01
2.24
2.39
2.42
2.33
2.20
2.08
2.01
1.96
1.88
1.77
1.64
1.55
1.54
1.57
1.57
1.47
1.21
0.82
0.35
-0.12
-0.57
-0.97
-1.34
-1.67
-1.97
-2.24
-2.49
-2.78
-3.12
-3.54
-3.98
-4.36
-4.59
-4.61
-4.39
-4.00
-3.53
-3.10
-2.76
-2.52
-2.30
-2.01
-1.59
-1.07
-0.52
-0.04
0.35
0.65
0.92
1.18
1.37
1.46
1.42
1.33
1.31
1.46
1.78
2.21
2.60
2.83
2.86
2.70
2.39
2.00
1.56
1.14
0.81
0.63
0.64
0.80
1.01
1.18
1.25
1.22
1.13
1.00
0.82
0.54
0.10
-0.51
-1.18
-1.76
-2.06
-1.99
-1.56
-0.88
-0.15
0.50
1.03
1.46
1.88
2.30
2.70
3.03
3.25
3.38
3.46
3.52
3.56
3.54
3.44
3.24
2.99
2.73
2.48
2.25
2.07
1.94
1.91
1.92
1.89
1.69
1.27
0.68
0.05
-0.43
-0.71
-0.87
-1.08
-1.48
-2.10
-2.81
-3.46
-3.90
-4.11
-4.14
-4.10
-4.06
-4.07
-4.16
-4.39
-4.81
-5.43
-6.17
-6.82
-7.13
-6.86
-5.89
-4.26
-2.16
0.18
2.57
4.97
7.43
10.09
12.99
16.05
19.02
21.54
23.29
23.99
23.57
22.13
19.91
17.24
14.41
11.66
9.11
6.82
4.77
2.94
1.29
-0.19
-1.55
-2.84
-4.06
-5.20
-6.22
-7.05
-7.69
-8.17
-8.56
-8.90
-9.19
-9.36
-9.35
-9.15
-8.87
-8.62
-8.50
-8.49
-8.45
-8.20
-7.61
-6.73
-5.67
-4.61
-3.65
-2.75
-1.80
-0.68
0.57
1.81
2.79
3.34
3.41
3.09
2.63
2.28
2.20
2.42
2.82
3.20
3.38
3.25
2.82
2.17
1.41
0.68
0.03
-0.52
-0.96
-1.30
-1.55
-1.79
-2.08
-2.51
-3.09
-3.77
-4.42
-4.93
-5.30
-5.61
-6.04
-6.70
-7.63
-8.71
-9.78
-10.68
-11.31
-11.65
-11.71
-11.51
-11.02
-10.27
-9.30
-8.23
-7.18
-6.24
-5.41
-4.59
-3.65
-2.52
-1.16
0.37
1.99
3.62
5.22
6.78
8.29
9.75
11.12
12.35
13.31
13.95
14.19
14.07
13.71
13.26
12.82
12.43
12.01
11.45
10.65
9.55
8.18
6.64
5.02
3.42
1.92
0.58
-0.57
-1.56
-2.45
-3.32
-4.21
-5.08
-5.85
-6.41
-6.64
-6.51
-6.02
-5.20
-4.16
-3.05
-2.04
-1.27
-0.85
-0.78
-0.95
-1.22
-1.41
-1.42
-1.19
-0.74
-0.15
0.46
0.95
1.26
1.34
1.24
1.04
0.81
0.60
0.41
0.24
0.05
-0.18
-0.41
-0.63
-0.78
-0.85
-0.84
-0.81
-0.84
-0.97
-1.21
-1.44
-1.59
-1.59
-1.49
-1.43
-1.54
-1.90
-2.46
-3.11
-3.68
-4.08
-4.24
-4.11
-3.70
-3.01
-2.10
-1.07
-0.11
0.58
0.84
0.68
0.21
-0.30
-0.60
-0.53
-0.09
0.58
1.27
1.78
2.03
2.03
1.87
1.65
1.42
1.20
0.99
0.85
0.81
0.89
1.05
1.18
1.19
1.02
0.71
0.30
-0.10
-0.45
-0.70
-0.85
-0.93
-1.02
-1.24
-1.69
-2.37
-3.19
-3.96
-4.50
-4.68
-4.47
-3.92
-3.09
-2.05
-0.85
0.41
1.56
2.42
2.88
2.92
2.66
2.31
2.03
1.93
2.00
2.17
2.34
2.45
2.44
2.30
2.08
1.82
1.57
1.38
1.23
1.09
0.91
0.65
0.31
-0.08
-0.42
-0.68
-0.81
-0.83
-0.78
-0.71
-0.69
-0.78
-1.01
-1.37
-1.79
-2.22
-2.56
-2.77
-2.84
-2.76
-2.57
-2.29
-1.93
-1.49
-0.99
-0.46
0.03
0.44
0.72
0.88
0.96
1.00
1.03
1.09
1.20
1.37
1.61
1.87
2.11
2.23
2.20
2.04
1.83
1.70
1.73
1.90
2.13
2.26
2.17
1.79
1.19
0.51
-0.07
-0.42
-0.53
-0.50
-0.50
-0.67
-1.06
-1.58
-2.08
-2.39
-2.46
-2.38
-2.32
-2.43
-2.76
-3.17
-3.46
-3.43
-3.03
-2.34
-1.60
-0.98
-0.54
-0.22
0.14
0.63
1.22
1.77
2.11
2.16
1.97
1.71
1.54
1.52
1.63
1.73
1.74
1.67
1.57
1.53
1.60
1.70
1.75
1.65
1.38
1.05
0.76
0.61
0.62
0.71
0.75
0.64
0.34
-0.08
-0.53
-0.89
-1.13
-1.25
-1.32
-1.39
-1.50
-1.66
-1.85
-2.06
-2.25
-2.40
-2.46
-2.39
-2.15
-1.76
-1.24
-0.65
-0.06
0.45
0.84
1.10
1.24
1.31
1.37
1.48
1.64
1.82
1.98
2.08
2.10
2.06
2.00
1.95
1.89
1.82
1.73
1.61
1.45
1.30
1.17
1.10
1.10
1.13
1.12
0.97
0.64
0.13
-0.49
-1.08
-1.55
-1.84
-1.97
-1.99
-1.93
-1.85
-1.74
-1.64
-1.58
-1.64
-1.85
-2.18
-2.54
-2.79
-2.79
-2.50
-1.97
-1.35
-0.79
-0.41
-0.22
-0.13
-0.00
0.24
0.60
1.02
1.40
1.67
1.79
1.78
1.68
1.54
1.43
1.42
1.51
1.67
1.79
1.75
1.49
1.05
0.56
0.17
-0.06
-0.19
-0.32
-0.55
-0.87
-1.16
-1.30
-1.25
-1.06
-0.87
-0.83
-0.98
-1.29
-1.67
-2.01
-2.28
-2.49
-2.67
-2.78
-2.78
-2.59
-2.17
-1.57
-0.88
-0.22
0.32
0.74
1.08
1.36
1.58
1.69
1.64
1.42
1.08
0.72
0.46
0.37
0.48
0.78
1.18
1.57
1.82
1.84
1.57
1.06
0.45
-0.09
-0.43
-0.50
-0.37
-0.18
-0.03
-0.01
-0.12
-0.32
-0.56
-0.83
-1.14
-1.51
-1.91
-2.30
-2.64
-2.86
-2.94
-2.82
-2.52
-2.05
-1.44
-0.79
-0.17
0.33
0.66
0.84
0.90
0.92
0.96
1.02
1.12
1.22
1.30
1.32
1.27
1.12
0.90
0.65
0.42
0.26
0.24
0.36
0.62
0.95
1.27
1.50
1.56
1.40
1.00
0.44
-0.15
-0.65
-0.93
-1.00
-0.90
-0.79
-0.76
-0.92
-1.25
-1.74
-2.32
-2.92
-3.47
-3.87
-4.03
-3.86
-3.35
-2.57
-1.69
-0.91
-0.35
-0.04
0.11
0.26
0.57
1.06
1.63
2.12
2.38
2.36
2.14
1.88
1.73
1.75
1.91
2.12
2.29
2.37
2.34
2.23
2.04
1.79
1.47
1.12
0.76
0.45
0.24
0.15
0.18
0.28
0.38
0.37
0.22
-0.07
-0.42
-0.71
-0.87
-0.92
-0.97
-1.12
-1.48
-2.03
-2.67
-3.23
-3.58
-3.63
-3.40
-2.99
-2.47
-1.91
-1.33
-0.75
-0.16
0.39
0.82
1.12
1.26
1.31
1.35
1.43
1.59
1.83
2.11
2.37
2.57
2.67
2.63
2.49
2.29
2.11
1.99
1.96
1.96
1.92
1.76
1.47
1.08
0.70
0.39
0.22
0.14
0.10
0.05
-0.06
-0.22
-0.41
-0.64
-0.90
-1.22
-1.59
-1.96
-2.26
-2.48
-2.60
-2.69
-2.82
-3.00
-3.19
-3.32
-3.29
-3.07
-2.67
-2.16
-1.59
-1.00
-0.40
0.18
0.70
1.11
1.34
1.38
1.28
1.13
1.02
1.04
1.24
1.62
2.10
2.58
2.91
2.98
2.76
2.28
1.66
1.05
0.59
0.34
0.24
0.20
0.09
-0.16
-0.53
-0.92
-1.21
-1.36
-1.39
-1.40
-1.50
-1.72
-2.04
-2.40
-2.73
-2.99
-3.19
-3.33
-3.35
-3.17
-2.71
-2.00
-1.15
-0.31
0.40
0.95
1.35
1.65
1.85
1.95
1.93
1.79
1.62
1.51
1.54
1.71
1.95
2.19
2.36
2.43
2.43
2.39
2.29
2.11
1.80
1.34
0.75
0.15
-0.36
-0.68
-0.80
-0.78
-0.74
-0.75
-0.86
-1.07
-1.35
-1.66
-2.03
-2.47
-2.98
-3.50
-3.95
-4.18
-4.12
-3.75
-3.17
-2.50
-1.84
-1.22
-0.62
-0.04
0.54
1.05
1.44
1.68
1.76
1.74
1.64
1.51
1.36
1.21
1.11
1.12
1.26
1.54
1.90
2.26
2.52
2.61
2.48
2.15
1.68
1.20
0.82
0.59
0.49
0.48
0.48
0.46
0.42
0.34
0.19
-0.08
-0.49
-0.98
-1.45
-1.81
-2.07
-2.30
-2.68
-3.25
-3.94
-4.52
-4.74
-4.44
-3.68
-2.64
-1.57
-0.67
-0.01
0.49
0.91
1.32
1.71
2.00
2.11
2.06
1.92
1.83
1.91
2.19
2.55
2.84
2.93
2.83
2.63
2.48
2.45
2.48
2.43
2.21
1.81
1.35
0.98
0.76
0.67
0.62
0.56
0.46
0.35
0.21
0.00
-0.34
-0.85
-1.44
-1.97
-2.34
-2.50
-2.53
-2.58
-2.74
-3.03
-3.35
-3.59
-3.66
-3.52
-3.19
-2.70
-2.07
-1.31
-0.47
0.40
1.17
1.69
1.84
1.60
1.08
0.46
-0.05
-0.32
-0.35
-0.24
-0.11
-0.09
-0.22
-0.50
-0.87
-1.32
-1.79
-2.25
-2.58
-2.71
-2.55
-2.14
-1.60
-1.04
-0.56
-0.11
0.43
1.21
2.35
3.84
5.60
7.46
9.27
10.87
12.16
13.05
13.48
13.41
12.84
11.85
10.57
9.19
7.90
6.86
6.12
5.59
5.13
4.57
3.84
2.97
2.04
1.12
0.27
-0.53
-1.25
-1.85
-2.23
-2.30
-2.08
-1.70
-1.38
-1.33
-1.61
-2.14
-2.73
-3.20
-3.44
-3.48
-3.45
-3.48
-3.70
-4.14
-4.80
-5.65
-6.63
-7.67
-8.63
-9.39
-9.85
-10.00
-9.95
-9.86
-9.91
-10.19
-10.64
-11.17
-11.63
-11.90
-11.92
-11.61
-10.94
-9.89
-8.50
-6.89
-5.23
-3.69
-2.40
-1.37
-0.52
0.25
1.04
1.84
2.61
3.24
3.66
3.87
3.91
3.86
3.83
3.86
3.93
4.00
3.98
3.84
3.63
3.42
3.30
3.28
3.28
3.17
2.80
2.12
1.23
0.32
-0.42
-0.90
-1.22
-1.60
-2.25
-3.28
-4.65
-6.13
-7.43
-8.28
-8.48
-7.99
-6.87
-5.32
-3.57
-1.87
-0.37
0.86
1.85
2.68
3.42
4.12
4.80
5.44
6.06
6.61
7.07
7.39
7.51
7.43
7.19
6.86
6.52
6.22
6.01
5.89
5.85
5.86
5.84
5.74
5.47
5.02
4.42
3.76
3.12
2.57
2.13
1.75
1.37
0.99
0.65
0.41
0.32
0.33
0.32
0.13
-0.34
-1.08
-1.92
-2.62
-2.97
-2.87
-2.35
-1.59
-0.83
-0.23
0.13
0.27
0.28
0.26
0.30
0.40
0.56
0.72
0.90
1.13
1.45
1.86
2.26
2.55
2.62
2.45
2.15
1.89
1.79
1.88
2.06
2.17
2.11
1.87
1.52
1.17
0.85
0.58
0.32
0.07
-0.14
-0.31
-0.45
-0.61
-0.82
-1.13
-1.50
-1.89
-2.26
-2.59
-2.88
-3.18
-3.48
-3.78
-4.03
-4.16
-4.12
-3.89
-3.48
-2.95
-2.34
-1.70
-1.03
-0.36
0.29
0.89
1.36
1.66
1.80
1.81
1.77
1.78
1.90
2.11
2.38
2.61
2.74
2.76
2.69
2.59
2.49
2.41
2.34
2.27
2.22
2.18
2.13
1.98
1.65
1.08
0.30
-0.55
-1.32
-1.84
-2.07
-2.09
-2.03
-2.02
-2.14
-2.38
-2.68
-2.97
-3.24
-3.50
-3.73
-3.85
-3.78
-3.43
-2.79
-1.94
-1.04
-0.19
0.53
1.16
1.73
2.27
2.71
3.00
3.07
2.95
2.73
2.53
2.44
2.48
2.57
2.63
2.58
2.44
2.27
2.16
2.13
2.14
2.09
1.90
1.55
1.07
0.55
0.08
-0.31
-0.62
-0.88
-1.13
-1.38
-1.62
-1.85
-2.12
-2.48
-2.98
-3.61
-4.26
-4.75
-4.89
-4.52
-3.68
-2.51
-1.30
-0.32
0.29
0.57
0.67
0.81
1.09
1.46
1.79
1.89
1.70
1.29
0.87
0.63
0.68
1.01
1.46
1.87
2.14
2.26
2.26
2.20
2.09
1.94
1.73
1.46
1.14
0.79
0.41
0.01
-0.40
-0.81
-1.20
-1.59
-1.99
-2.44
-2.92
-3.43
-3.92
-4.35
-4.70
-4.92
-4.95
-4.73
-4.21
-3.43
-2.52
-1.64
-0.98
-0.57
-0.34
-0.13
0.18
0.63
1.13
1.57
1.88
2.07
2.23
2.42
2.66
2.89
3.03
3.02
2.88
2.67
2.43
2.22
2.03
1.85
1.67
1.54
1.45
1.42
1.40
1.36
1.29
1.18
1.09
1.02
0.95
0.83
0.59
0.23
-0.19
-0.59
-0.88
-1.07
-1.24
-1.52
-2.01
-2.69
-3.43
-4.01
-4.24
-4.00
-3.35
-2.41
-1.38
-0.44
0.32
0.86
1.19
1.36
1.45
1.53
1.65
1.85
2.10
2.34
2.46
2.38
2.08
1.65
1.23
0.96
0.93
1.14
1.50
1.85
2.07
2.08
1.90
1.57
1.20
0.87
0.65
0.58
0.64
0.76
0.85
0.82
0.59
0.14
-0.47
-1.15
-1.78
-2.28
-2.60
-2.78
-2.88
-2.96
-3.03
-3.07
-3.05
-2.91
-2.66
-2.30
-1.88
-1.43
-0.99
-0.57
-0.16
0.22
0.54
0.76
0.84
0.77
0.61
0.46
0.41
0.54
0.82
1.19
1.53
1.73
1.75
1.60
1.31
0.97
0.63
0.36
0.18
0.09
0.09
0.11
0.11
0.07
-0.01
-0.06
-0.06
0.00
0.08
0.10
-0.02
-0.28
-0.61
-0.93
-1.19
-1.42
-1.71
-2.18
-2.82
-3.51
-4.01
-4.11
-3.75
-3.03
-2.18
-1.43
-0.91
-0.60
-0.42
-0.24
-0.04
0.16
0.35
0.51
0.69
0.93
1.21
1.44
1.52
1.41
1.16
0.94
0.87
1.02
1.33
1.64
1.80
1.74
1.48
1.12
0.76
0.46
0.20
-0.07
-0.38
-0.69
-0.96
-1.15
-1.30
-1.49
-1.83
-2.35
-3.00
-3.62
-4.05
-4.19
-4.03
-3.66
-3.20
-2.76
-2.36
-1.99
-1.65
-1.30
-0.94
-0.55
-0.11
0.34
0.79
1.16
1.43
1.59
1.71
1.82
1.98
2.13
2.22
2.21
2.10
1.97
1.91
1.94
2.02
2.06
1.97
1.78
1.53
1.32
1.20
1.15
1.07
0.89
0.57
0.14
-0.32
-0.72
-1.03
-1.23
-1.36
-1.47
-1.58
-1.76
-2.05
-2.47
-3.03
-3.67
-4.30
-4.77
-4.93
-4.69
-4.08
-3.23
-2.32
-1.53
-0.96
-0.58
-0.27
0.09
0.57
1.14
1.70
2.12
2.30
2.23
2.00
1.75
1.58
1.56
1.70
1.91
2.12
2.25
2.25
2.12
1.90
1.59
1.23
0.86
0.57
0.44
0.54
0.89
1.37
1.81
2.01
1.84
1.31
0.55
-0.27
-0.98
-1.48
-1.79
-1.94
-2.01
-2.08
-2.24
-2.58
-3.15
-3.90
-4.67
-5.24
-5.39
-5.01
-4.14
-2.95
-1.67
-0.52
0.38
1.04
1.48
1.78
1.99
2.11
2.15
2.12
2.06
2.01
2.04
2.17
2.34
2.48
2.51
2.43
2.31
2.23
2.29
2.43
2.56
2.54
2.28
1.83
1.29
0.78
0.40
0.15
-0.04
-0.23
-0.46
-0.74
-1.04
-1.34
-1.57
-1.70
-1.72
-1.72
-1.82
-2.15
-2.77
-3.56
-4.28
-4.69
-4.62
-4.08
-3.23
-2.30
-1.48
-0.87
-0.49
-0.30
-0.26
-0.30
-0.32
-0.23
0.06
0.54
1.10
1.60
1.88
1.90
1.70
1.41
1.18
1.12
1.24
1.50
1.83
2.14
2.38
2.49
2.42
2.14
1.63
0.96
0.24
-0.38
-0.79
-0.98
-1.02
-1.05
-1.16
-1.41
-1.73
-2.05
-2.29
-2.47
-2.66
-2.92
-3.28
-3.64
-3.83
-3.68
-3.13
-2.24
-1.21
-0.24
0.51
1.00
1.29
1.46
1.53
1.50
1.33
1.09
0.87
0.82
1.02
1.41
1.87
2.24
2.44
2.49
2.47
2.43
2.37
2.22
1.94
1.58
1.25
1.09
1.14
1.31
1.43
1.32
0.89
0.24
-0.48
-1.06
-1.37
-1.42
-1.33
-1.28
-1.46
-1.97
-2.79
-3.76
-4.67
-5.29
-5.50
-5.25
-4.62
-3.74
-2.76
-1.83
-1.00
-0.30
0.29
0.80
1.24
1.62
1.92
2.13
2.23
2.27
2.28
2.30
2.34
2.38
2.40
2.39
2.40
2.48
2.64
2.80
2.85
2.67
2.21
1.56
0.90
0.45
0.36
0.64
1.15
1.70
2.06
2.13
1.85
1.29
0.55
-0.25
-0.99
-1.61
-2.05
-2.35
-2.58
-2.80
-3.09
-3.44
-3.80
-4.08
-4.15
-3.94
-3.45
-2.75
-1.98
-1.29
-0.80
-0.53
-0.40
-0.24
0.10
0.71
1.56
2.47
3.24
3.68
3.76
3.53
3.17
2.85
2.65
2.56
2.53
2.48
2.39
2.29
2.21
2.19
2.23
2.28
2.27
2.15
1.88
1.49
1.09
0.81
0.73
0.86
1.08
1.23
1.16
0.80
0.23
-0.42
-1.04
-1.60
-2.12
-2.63
-3.07
-3.36
-3.43
-3.32
-3.18
-3.23
-3.58
-4.23
-4.97
-5.48
-5.53
-5.03
-4.08
-2.89
-1.70
-0.65
0.21
0.87
1.33
1.60
1.67
1.61
1.51
1.50
1.67
2.03
2.49
2.96
3.35
3.59
3.65
3.53
3.22
2.73
2.17
1.69
1.44
1.50
1.83
2.28
2.63
2.71
2.49
2.03
1.51
1.07
0.78
0.58
0.38
0.07
-0.32
-0.74
-1.08
-1.30
-1.43
-1.58
-1.83
-2.24
-2.79
-3.42
-4.05
-4.58
-4.93
-5.02
-4.76
-4.14
-3.21
-2.14
-1.11
-0.28
0.28
0.61
0.81
0.99
1.19
1.38
1.49
1.50
1.42
1.35
1.39
1.60
1.95
2.32
2.58
2.66
2.56
2.36
2.14
1.94
1.75
1.52
1.19
0.79
0.37
0.01
-0.21
-0.28
-0.27
-0.27
-0.39
-0.65
-1.04
-1.51
-1.99
-2.47
-2.97
-3.51
-4.04
-4.50
-4.76
-4.75
-4.44
-3.87
-3.17
-2.44
-1.73
-1.06
-0.40
0.24
0.82
1.26
1.48
1.51
1.45
1.45
1.62
1.99
2.43
2.83
3.05
3.08
2.99
2.88
2.82
2.80
2.73
2.53
2.19
1.75
1.33
1.06
0.99
1.08
1.20
1.21
1.02
0.63
0.11
-0.44
-0.95
-1.41
-1.80
-2.13
-2.38
-2.57
-2.77
-3.10
-3.64
-4.40
-5.19
-5.74
-5.78
-5.21
-4.11
-2.77
-1.48
-0.45
0.31
0.89
1.40
1.88
2.27
2.47
2.45
2.24
1.95
1.72
1.65
1.72
1.90
2.11
2.32
2.50
2.65
2.76
2.84
2.89
2.93
2.98
3.02
2.98
2.77
2.33
1.67
0.89
0.16
-0.37
-0.61
-0.59
-0.45
-0.33
-0.34
-0.53
-0.88
-1.34
-1.82
-2.28
-2.70
-3.11
-3.59
-4.19
-4.88
-5.50
-5.82
-5.63
-4.88
-3.68
-2.32
-1.11
-0.24
0.28
0.60
0.90
1.28
1.74
2.20
2.54
2.74
2.81
2.82
2.82
2.85
2.92
2.99
3.01
2.92
2.71
2.38
2.02
1.70
1.53
1.58
1.84
2.24
2.65
2.93
2.98
2.78
2.38
1.86
1.30
0.77
0.28
-0.15
-0.50
-0.78
-1.01
-1.20
-1.42
-1.70
-2.07
-2.55
-3.15
-3.84
-4.55
-5.08
-5.23
-4.81
-3.78
-2.30
-0.69
0.68
1.56
1.93
1.94
1.85
1.86
2.03
2.28
2.47
2.51
2.42
2.28
2.20
2.22
2.30
2.35
2.27
2.07
1.80
1.56
1.42
1.33
1.19
0.91
0.48
-0.00
-0.36
-0.47
-0.32
-0.01
0.26
0.34
0.14
-0.28
-0.83
-1.35
-1.72
-1.90
-1.92
-1.86
-1.85
-2.00
-2.34
-2.85
-3.40
-3.87
-4.14
-4.17
-4.00
-3.66
-3.22
-2.68
-2.05
-1.35
-0.60
0.12
0.74
1.19
1.42
1.43
1.31
1.16
1.12
1.27
1.59
1.98
2.28
2.36
2.19
1.86
1.54
1.38
1.44
1.65
1.86
1.89
1.65
1.15
0.52
-0.05
-0.42
-0.53
-0.44
-0.29
-0.24
-0.40
-0.76
-1.28
-1.89
-2.52
-3.12
-3.61
-3.87
-3.76
-3.23
-2.32
-1.24
-0.22
0.56
1.04
1.25
1.31
1.31
1.33
1.39
1.50
1.68
1.88
2.07
2.19
2.20
2.11
2.00
1.90
1.84
1.80
1.75
1.72
1.71
1.76
1.82
1.82
1.65
1.25
0.68
0.04
-0.54
-1.01
-1.38
-1.71
-2.05
-2.38
-2.67
-2.89
-3.06
-3.28
-3.63
-4.12
-4.68
-5.17
-5.42
-5.31
-4.81
-4.01
-3.04
-2.07
-1.22
-0.54
-0.00
0.46
0.91
1.41
1.93
2.44
2.86
3.15
3.27
3.24
3.08
2.85
2.59
2.36
2.20
2.15
2.21
2.37
2.58
2.77
2.82
2.69
2.37
1.95
1.54
1.24
1.04
0.87
0.65
0.31
-0.10
-0.50
-0.76
-0.85
-0.82
-0.80
-0.93
-1.33
-2.01
-2.88
-3.80
-4.56
-5.00
-5.02
-4.62
-3.93
-3.11
-2.29
-1.56
-0.94
-0.41
0.09
0.58
1.05
1.50
1.91
2.29
2.62
2.91
3.15
3.30
3.37
3.36
3.28
3.18
3.07
2.95
2.83
2.74
2.71
2.73
2.79
2.83
2.79
2.65
2.43
2.19
1.96
1.71
1.33
0.74
-0.06
-0.97
-1.75
-2.25
-2.39
-2.27
-2.05
-1.90
-1.90
-2.05
-2.35
-2.77
-3.31
-3.92
-4.49
-4.86
-4.86
-4.43
-3.62
-2.57
-1.48
-0.51
0.26
0.83
1.23
1.50
1.70
1.86
2.00
2.11
2.18
2.21
2.21
2.21
2.24
2.31
2.40
2.48
2.54
2.54
2.50
2.45
2.42
2.42
2.43
2.40
2.28
2.02
1.64
1.20
0.80
0.52
0.37
0.31
0.23
0.04
-0.28
-0.71
-1.16
-1.54
-1.80
-1.97
-2.12
-2.32
-2.63
-3.07
-3.59
-4.07
-4.38
-4.37
-3.94
-3.10
-1.98
-0.79
0.22
0.87
1.14
1.16
1.15
1.31
1.71
2.24
2.68
2.83
2.61
2.14
1.62
1.26
1.17
1.31
1.55
1.74
1.79
1.69
1.50
1.26
1.00
0.71
0.39
0.04
-0.28
-0.52
-0.61
-0.60
-0.54
-0.52
-0.63
-0.89
-1.27
-1.69
-2.07
-2.38
-2.58
-2.69
-2.73
-2.73
-2.74
-2.75
-2.72
-2.58
-2.25
-1.72
-1.03
-0.33
0.24
0.59
0.72
0.70
0.63
0.61
0.67
0.79
0.95
1.12
1.29
1.45
1.61
1.76
1.86
1.91
1.89
1.84
1.77
1.75
1.79
1.88
1.95
1.92
1.74
1.40
0.91
0.33
-0.27
-0.86
-1.38
-1.78
-2.02
-2.08
-1.96
-1.74
-1.54
-1.48
-1.64
-2.07
-2.67
-3.29
-3.76
-3.93
-3.73
-3.22
-2.50
-1.72
-1.00
-0.40
0.06
0.42
0.70
0.94
1.17
1.40
1.60
1.74
1.80
1.78
1.73
1.73
1.82
2.03
2.28
2.46
2.48
2.34
2.11
1.94
1.91
1.97
2.01
1.88
1.52
0.99
0.44
-0.00
-0.29
-0.48
-0.63
-0.80
-0.96
-1.04
-1.04
-0.99
-1.01
-1.15
-1.41
-1.73
-2.03
-2.30
-2.58
-2.95
-3.46
-4.07
-4.65
-5.05
-5.11
-4.75
-4.01
-2.99
-1.88
-0.87
-0.11
0.34
0.54
0.64
0.78
1.05
1.42
1.75
1.93
1.91
1.77
1.67
1.76
2.04
2.41
2.70
2.79
2.71
2.55
2.45
2.42
2.39
2.20
1.81
1.27
0.78
0.55
0.65
0.94
1.19
1.15
0.75
0.09
-0.58
-1.04
-1.20
-1.13
-0.98
-0.90
-0.91
-0.95
-0.92
-0.82
-0.71
-0.74
-1.04
-1.65
-2.53
-3.50
-4.34
-4.85
-4.87
-4.40
-3.56
-2.52
-1.49
-0.61
0.09
0.64
1.07
1.38
1.55
1.58
1.52
1.48
1.56
1.80
2.15
2.52
2.79
2.89
2.85
2.73
2.58
2.41
2.23
2.01
1.76
1.50
1.28
1.10
0.94
0.79
0.67
0.61
0.62
0.68
0.75
0.77
0.70
0.54
0.29
-0.02
-0.41
-0.86
-1.33
-1.75
-2.02
-2.12
-2.09
-2.05
-2.13
-2.46
-3.02
-3.74
-4.49
-5.12
-5.55
-5.70
-5.54
-5.05
-4.24
-3.21
-2.07
-0.98
-0.09
0.57
1.03
1.38
1.72
2.06
2.34
2.50
2.49
2.31
2.04
1.74
1.45
1.21
1.06
1.04
1.18
1.45
1.75
1.96
2.03
1.93
1.74
1.53
1.31
1.07
0.77
0.40
0.02
-0.32
-0.60
-0.82
-1.05
-1.31
-1.60
-1.87
-2.08
-2.25
-2.41
-2.65
-2.96
-3.30
-3.53
-3.51
-3.17
-2.49
-1.61
-0.69
0.07
0.55
0.76
0.80
0.82
0.92
1.12
1.33
1.46
1.47
1.38
1.28
1.24
1.27
1.33
1.41
1.52
1.71
2.02
2.42
2.78
2.92
2.71
2.15
1.38
0.61
-0.00
-0.35
-0.48
-0.48
-0.44
-0.47
-0.60
-0.86
-1.23
-1.67
-2.11
-2.46
-2.69
-2.81
-2.95
-3.23
-3.71
-4.32
-4.90
-5.21
-5.12
-4.58
-3.68
-2.59
-1.51
-0.58
0.11
0.57
0.83
0.98
1.08
1.17
1.29
1.46
1.70
2.02
2.40
2.75
2.98
2.99
2.76
2.38
2.00
1.80
1.87
2.18
2.58
2.88
2.91
2.65
2.14
1.54
1.01
0.64
0.47
0.48
0.59
0.73
0.81
0.75
0.51
0.11
-0.40
-0.92
-1.32
-1.55
-1.64
-1.68
-1.81
-2.14
-2.70
-3.42
-4.17
-4.81
-5.19
-5.25
-4.94
-4.30
-3.38
-2.28
-1.11
0.00
0.97
1.71
2.19
2.43
2.47
2.38
2.22
2.07
1.96
1.89
1.88
1.90
1.94
2.00
2.05
2.09
2.08
2.03
1.94
1.86
1.83
1.86
1.92
1.94
1.86
1.59
1.16
0.62
0.11
-0.30
-0.54
-0.64
-0.66
-0.67
-0.71
-0.78
-0.86
-0.93
-1.02
-1.18
-1.51
-2.05
-2.78
-3.57
-4.26
-4.62
-4.52
-3.96
-3.05
-2.00
-1.02
-0.26
0.23
0.51
0.68
0.81
0.96
1.16
1.41
1.76
2.19
2.67
3.12
3.43
3.56
3.51
3.32
3.03
2.70
2.37
2.08
1.90
1.87
1.96
2.10
2.15
2.02
1.71
1.28
0.87
0.57
0.38
0.26
0.14
-0.02
-0.23
-0.43
-0.62
-0.81
-1.02
-1.30
-1.64
-2.03
-2.44
-2.85
-3.26
-3.62
-3.86
-3.90
-3.67
-3.15
-2.43
-1.64
-0.93
-0.39
-0.02
0.24
0.44
0.61
0.73
0.81
0.85
0.91
1.03
1.20
1.40
1.58
1.72
1.82
1.88
1.85
1.70
1.37
0.92
0.45
0.10
-0.03
0.01
0.12
0.15
0.01
-0.29
-0.64
-0.93
-1.08
-1.10
-1.06
-1.07
-1.19
-1.47
-1.88
-2.36
-2.84
-3.27
-3.59
-3.77
-3.75
-3.49
-2.94
-2.11
-1.08
-0.02
0.89
1.53
1.87
1.98
1.98
1.99
2.03
2.10
2.15
2.15
2.13
2.14
2.22
2.36
2.49
2.54
2.46
2.22
1.91
1.58
1.29
1.06
0.86
0.67
0.43
0.17
-0.12
-0.39
-0.62
-0.81
-0.99
-1.20
-1.46
-1.79
-2.15
-2.54
-2.95
-3.38
-3.83
-4.26
-4.57
-4.65
-4.41
-3.85
-3.07
-2.21
-1.40
-0.73
-0.18
0.33
0.85
1.42
1.98
2.45
2.78
2.95
3.01
3.04
3.06
3.05
2.95
2.73
2.42
2.14
2.01
2.13
2.44
2.81
3.06
3.05
2.76
2.21
1.53
0.83
0.22
-0.20
-0.39
-0.37
-0.20
0.01
0.15
0.17
0.04
-0.19
-0.49
-0.86
-1.31
-1.82
-2.38
-2.92
-3.40
-3.76
-4.01
-4.16
-4.23
-4.21
-4.06
-3.74
-3.24
-2.61
-1.91
-1.25
-0.70
-0.28
0.06
0.41
0.80
1.22
1.63
1.97
2.22
2.44
2.66
2.89
3.09
3.17
3.06
2.76
2.38
2.09
2.01
2.19
2.56
2.96
3.20
3.19
2.91
2.45
1.93
1.46
1.10
0.86
0.71
0.62
0.57
0.50
0.37
0.15
-0.16
-0.53
-0.91
-1.27
-1.60
-1.93
-2.29
-2.70
-3.16
-3.67
-4.20
-4.69
-5.07
-5.23
-5.06
-4.50
-3.61
-2.51
-1.36
-0.30
0.61
1.32
1.83
2.12
2.21
2.11
1.93
1.76
1.71
1.83
2.12
2.50
2.88
3.16
3.28
3.20
2.96
2.62
2.29
2.07
2.01
2.12
2.31
2.50
2.59
2.54
2.35
2.06
1.70
1.32
0.94
0.58
0.23
-0.09
-0.37
-0.61
-0.80
-0.93
-1.00
-1.05
-1.18
-1.47
-1.96
-2.61
-3.32
-3.95
-4.37
-4.56
-4.54
-4.43
-4.29
-4.12
-3.85
-3.38
-2.69
-1.83
-0.97
-0.25
0.26
0.61
0.94
1.33
1.76
2.11
2.27
2.19
1.98
1.81
1.82
2.04
2.34
2.56
2.58
2.40
2.12
1.83
1.58
1.34
1.10
0.87
0.67
0.57
0.54
0.52
0.41
0.17
-0.20
-0.59
-0.93
-1.15
-1.27
-1.34
-1.42
-1.56
-1.80
-2.16
-2.66
-3.29
-3.96
-4.48
-4.67
-4.37
-3.60
-2.52
-1.35
-0.31
0.46
0.92
1.15
1.24
1.27
1.35
1.55
1.90
2.36
2.79
3.04
2.99
2.63
2.10
1.61
1.32
1.32
1.52
1.82
2.08
2.22
2.25
2.15
1.94
1.64
1.28
0.91
0.58
0.34
0.17
0.00
-0.22
-0.52
-0.89
-1.29
-1.68
-2.11
-2.63
-3.31
-4.16
-5.07
-5.85
-6.31
-6.32
-5.84
-4.98
-3.89
-2.73
-1.62
-0.63
0.20
0.82
1.20
1.35
1.36
1.35
1.43
1.65
1.98
2.32
2.56
2.67
2.69
2.70
2.78
2.94
3.14
3.30
3.33
3.21
2.99
2.76
2.63
2.64
2.73
2.78
2.67
2.32
1.76
1.09
0.47
0.01
-0.23
-0.29
-0.28
-0.29
-0.39
-0.60
-0.89
-1.23
-1.60
-2.02
-2.56
-3.24
-4.07
-4.95
-5.71
-6.15
-6.15
-5.72
-4.97
-4.12
-3.35
-2.72
-2.19
-1.65
-0.99
-0.21
0.61
1.31
1.78
1.98
1.98
1.92
1.87
1.90
2.01
2.20
2.45
2.75
3.04
3.26
3.33
3.20
2.93
2.59
2.27
2.04
1.89
1.78
1.67
1.57
1.53
1.60
1.77
1.96
2.04
1.87
1.41
0.71
-0.09
-0.79
-1.22
-1.34
-1.22
-1.09
-1.17
-1.60
-2.38
-3.32
-4.18
-4.74
-4.92
-4.78
-4.45
-4.07
-3.66
-3.18
-2.55
-1.72
-0.72
0.33
1.27
1.96
2.34
2.44
2.41
2.41
2.56
2.88
3.28
3.62
3.82
3.83
3.71
3.51
3.26
2.96
2.62
2.27
1.97
1.79
1.71
1.67
1.62
1.50
1.35
1.20
1.07
0.93
0.68
0.28
-0.27
-0.84
-1.31
-1.55
-1.55
-1.42
-1.31
-1.37
-1.68
-2.23
-2.94
-3.70
-4.40
-4.97
-5.34
-5.46
-5.27
-4.78
-4.01
-3.10
-2.20
-1.47
-0.98
-0.68
-0.44
-0.13
0.29
0.76
1.18
1.48
1.68
1.85
2.09
2.39
2.67
2.81
2.76
2.56
2.33
2.15
2.06
1.99
1.84
1.58
1.23
0.93
0.76
0.76
0.84
0.88
0.76
0.46
0.06
-0.32
-0.60
-0.73
-0.79
-0.86
-1.04
-1.39
-1.91
-2.55
-3.26
-3.94
-4.47
-4.74
-4.61
-4.02
-3.04
-1.86
-0.71
0.22
0.84
1.22
1.47
1.72
1.96
2.14
2.17
2.01
1.73
1.46
1.34
1.43
1.72
2.12
2.48
2.70
2.70
2.48
2.12
1.74
1.44
1.29
1.26
1.24
1.15
0.93
0.59
0.20
-0.14
-0.34
-0.42
-0.46
-0.56
-0.81
-1.25
-1.85
-2.53
-3.23
-3.91
-4.54
-5.11
-5.56
-5.76
-5.61
-5.04
-4.10
-2.98
-1.93
-1.13
-0.63
-0.31
-0.03
0.35
0.86
1.43
1.94
2.32
2.58
2.75
2.88
2.97
3.00
2.92
2.75
2.49
2.24
2.06
2.03
2.13
2.33
2.55
2.70
2.72
2.56
2.27
1.89
1.47
1.05
0.65
0.28
-0.04
-0.34
-0.63
-0.95
-1.32
-1.75
-2.19
-2.59
-2.91
-3.15
-3.34
-3.56
-3.93
-4.53
-5.35
-6.30
-7.19
-7.79
-7.93
-7.58
-6.82
-5.88
-4.99
-4.31
-3.89
-3.68
-3.58
-3.54
-3.57
-3.69
-3.94
-4.25
-4.55
-4.70
-4.64
-4.36
-3.88
-3.18
-2.19
-0.73
1.34
4.05
7.28
10.77
14.19
17.29
19.92
22.03
23.59
24.56
24.88
24.48
23.31
21.38
18.76
15.64
12.29
9.10
6.45
4.57
3.49
2.95
2.62
2.21
1.65
1.03
0.52
0.15
-0.26
-1.03
-2.51
-4.87
-8.12
-12.16
-16.86
-22.05
-27.38
-32.23
-35.75
-37.11
-35.81
-31.95
-26.11
-19.14
-11.78
-4.49
2.51
9.03
14.77
19.29
22.21
23.45
23.25
22.12
20.51
18.69
16.64
14.22
11.34
8.05
4.57
1.18
-1.92
-4.63
-6.92
-8.81
-10.27
-11.28
-11.83
-11.93
-11.69
-11.21
-10.61
-9.95
-9.28
-8.65
-8.13
-7.85
-7.89
-8.30
-9.00
-9.81
-10.45
-10.66
-10.30
-9.38
-8.04
-6.49
-4.91
-3.40
-1.98
-0.64
0.64
1.80
2.77
3.47
3.88
4.02
3.99
3.94
4.00
4.24
4.66
5.16
5.62
5.93
6.08
6.18
6.39
6.91
7.90
9.47
11.60
14.17
16.90
19.34
20.98
21.43
20.53
18.44
15.56
12.42
9.42
6.79
4.58
2.71
1.11
-0.27
-1.43
-2.37
-3.09
-3.59
-3.85
-3.86
-3.59
-3.13
-2.64
-2.37
-2.61
-3.63
-5.64
-8.67
-12.45
-16.31
-19.33
-20.60
-19.57
-16.31
-11.61
-6.59
-2.35
0.48
1.87
2.26
2.21
2.12
2.11
2.08
1.92
1.56
1.07
0.57
0.12
-0.29
-0.74
-1.31
-2.03
-2.80
-3.41
-3.73
-3.67
-3.30
-2.82
-2.43
-2.31
-2.47
-2.78
-3.08
-3.20
-3.07
-2.64
-1.96
-1.09
-0.15
0.73
1.44
1.93
2.21
2.40
2.58
2.83
3.11
3.38
3.58
3.73
3.86
4.05
4.32
4.62
4.85
4.96
4.90
4.71
4.48
4.26
4.08
3.89
3.65
3.31
2.90
2.49
2.11
1.77
1.38
0.89
0.25
-0.49
-1.21
-1.80
-2.18
-2.41
-2.57
-2.77
-3.07
-3.45
-3.78
-3.94
-3.80
-3.33
-2.55
-1.59
-0.61
0.27
0.90
1.27
1.41
1.41
1.39
1.44
1.58
1.80
2.03
2.18
2.20
2.07
1.83
1.55
1.31
1.16
1.13
1.20
1.37
1.60
1.87
2.15
2.40
2.57
2.63
2.55
2.34
2.00
1.60
1.19
0.83
0.57
0.38
0.23
0.03
-0.30
-0.79
-1.40
-2.06
-2.67
-3.17
-3.52
-3.75
-3.88
-3.92
-3.84
-3.62
-3.26
-2.78
-2.24
-1.68
-1.10
-0.50
0.12
0.75
1.30
1.70
1.89
1.86
1.70
1.52
1.43
1.48
1.66
1.90
2.14
2.34
2.50
2.63
2.71
2.72
2.64
2.47
2.26
2.07
1.94
1.88
1.85
1.80
1.66
1.39
0.99
0.47
-0.09
-0.60
-1.00
-1.27
-1.41
-1.50
-1.61
-1.78
-2.04
-2.38
-2.78
-3.22
-3.66
-4.02
-4.21
-4.14
-3.78
-3.15
-2.37
-1.54
-0.76
-0.09
0.41
0.73
0.87
0.88
0.84
0.85
0.98
1.24
1.57
1.87
2.05
2.07
1.95
1.71
1.41
1.08
0.79
0.57
0.48
0.49
0.58
0.66
0.68
0.58
0.37
0.10
-0.21
-0.51
-0.78
-1.03
-1.25
-1.43
-1.57
-1.70
-1.90
-2.22
-2.66
-3.15
-3.52
-3.60
-3.28
-2.59
-1.68
-0.77
-0.03
0.48
0.79
0.97
1.09
1.16
1.18
1.15
1.10
1.05
0.97
0.87
0.72
0.57
0.48
0.53
0.72
0.99
1.23
1.30
1.14
0.78
0.29
-0.19
-0.55
-0.74
-0.79
-0.76
-0.78
-0.93
-1.23
-1.63
-2.02
-2.27
-2.32
-2.22
-2.13
-2.23
-2.60
-3.22
-3.88
-4.32
-4.36
-3.97
-3.29
-2.56
-1.98
-1.61
-1.38
-1.17
-0.87
-0.49
-0.10
0.17
0.28
0.22
0.07
-0.12
-0.28
-0.44
-0.63
-0.87
-1.16
-1.44
-1.61
-1.59
-1.34
-0.89
-0.35
0.16
0.55
0.76
0.80
0.67
0.39
-0.01
-0.46
-0.89
-1.19
-1.33
-1.32
-1.26
-1.25
-1.34
-1.52
-1.71
-1.81
-1.80
-1.67
-1.47
-1.23
-0.94
-0.58
-0.13
0.41
1.02
1.68
2.37
3.10
3.82
4.46
4.93
5.18
5.22
5.10
4.93
4.77
4.68
4.64
4.63
4.61
4.56
4.43
4.18
3.75
3.15
2.42
1.64
0.90
0.27
-0.20
-0.48
-0.58
-0.54
-0.44
-0.38
-0.44
-0.68
-1.05
-1.46
-1.78
-1.93
-1.91
-1.82
-1.77
-1.89
-2.21
-2.71
-3.29
-3.88
-4.39
-4.74
-4.87
-4.72
-4.28
-3.60
-2.77
-1.90
-1.10
-0.43
0.09
0.45
0.67
0.78
0.83
0.89
1.02
1.23
1.51
1.79
1.99
2.07
2.03
1.92
1.77
1.60
1.44
1.26
1.08
0.85
0.56
0.21
-0.17
-0.54
-0.83
-1.03
-1.14
-1.20
-1.30
-1.48
-1.74
-2.04
-2.35
-2.64
-2.93
-3.31
-3.83
-4.50
-5.23
-5.91
-6.41
-6.63
-6.55
-6.21
-5.67
-5.01
-4.27
-3.42
-2.39
-1.06
0.70
2.92
5.49
8.11
10.38
11.95
12.64
12.47
11.69
10.58
9.40
8.30
7.32
6.43
5.58
4.73
3.86
2.93
1.97
0.96
-0.05
-1.06
-2.09
-3.14
-4.17
-5.09
-5.76
-6.08
-6.01
-5.67
-5.23
-4.88
-4.76
-4.86
-5.12
-5.43
-5.71
-5.90
-5.95
-5.79
-5.39
-4.72
-3.86
-2.92
-2.05
-1.31
-0.72
-0.23
0.26
0.79
1.36
1.91
2.34
2.59
2.62
2.51
2.35
2.24
2.21
2.23
2.20
2.06
1.83
1.62
1.55
1.70
1.99
2.26
2.30
2.00
1.36
0.51
-0.36
-1.06
-1.52
-1.74
-1.80
-1.81
-1.85
-1.99
-2.17
-2.32
-2.31
-2.01
-1.34
-0.26
1.18
2.84
4.52
6.01
7.18
8.02
8.59
9.02
9.38
9.65
9.73
9.53
8.97
8.06
6.87
5.53
4.14
2.84
1.76
0.97
0.48
0.19
0.01
-0.12
-0.11
0.22
1.05
2.42
4.11
5.65
6.57
6.50
5.38
3.40
0.90
-1.82
-4.54
-7.10
-9.39
-11.27
-12.70
-13.71
-14.48
-15.22
-16.14
-17.23
-18.31
-19.05
-19.13
-18.37
-16.77
-14.55
-12.04
-9.59
-7.44
-5.69
-4.32
-3.23
-2.31
-1.45
-0.65
0.10
0.76
1.31
1.72
1.97
2.05
2.02
1.93
1.90
1.98
2.19
2.47
2.75
2.96
3.05
3.00
2.80
2.46
1.97
1.37
0.72
0.10
-0.42
-0.80
-1.06
-1.25
-1.44
-1.64
-1.79
-1.83
-1.69
-1.37
-0.91
-0.38
0.16
0.70
1.25
1.81
2.36
2.84
3.19
3.38
3.41
3.36
3.31
3.32
3.44
3.68
3.99
4.30
4.53
4.63
4.59
4.44
4.24
4.04
3.87
3.74
3.65
3.61
3.61
3.61
3.51
3.26
2.83
2.29
1.79
1.43
1.27
1.27
1.35
1.44
1.51
1.55
1.55
1.49
1.33
1.06
0.70
0.35
0.08
-0.03
0.05
0.30
0.67
1.09
1.50
1.84
2.08
2.25
2.37
2.51
2.68
2.89
3.12
3.34
3.54
3.67
3.69
3.58
3.31
2.93
2.53
2.20
2.00
1.95
2.02
2.20
2.49
2.88
3.34
3.82
4.21
4.48
4.62
4.76
5.01
5.47
6.16
7.02
7.98
9.01
10.14
11.43
12.89
14.49
16.14
17.80
19.46
21.15
22.92
24.72
26.40
27.75
28.56
28.71
28.15
26.94
25.10
22.67
19.60
15.89
11.55
6.70
1.50
-3.81
-9.03
-13.95
-18.41
-22.27
-25.43
-27.79
-29.31
-29.97
-29.86
-29.06
-27.71
-25.96
-23.94
-21.78
-19.64
-17.66
-16.01
-14.80
-14.10
-13.86
-13.92
-14.05
-13.97
-13.52
-12.67
-11.55
-10.45
-9.61
-9.19
-9.14
-9.25
-9.22
-8.81
-7.91
-6.58
-4.97
-3.30
-1.72
-0.30
0.96
2.12
3.20
4.21
5.07
5.67
5.95
5.89
5.56
5.10
4.61
4.11
3.53
2.73
1.67
0.41
-0.84
-1.85
-2.43
-2.56
-2.34
-1.95
-1.60
-1.39
-1.38
-1.53
-1.76
-1.98
-2.11
-2.14
-2.07
-1.97
-1.89
-1.84
-1.78
-1.68
-1.51
-1.36
-1.30
-1.39
-1.63
-1.94
-2.24
-2.49
-2.68
-2.82
-2.89
-2.82
-2.55
-2.07
-1.44
-0.82
-0.36
-0.15
-0.17
-0.32
-0.48
-0.61
-0.71
-0.84
-1.01
-1.19
-1.28
-1.22
-0.99
-0.66
-0.34
-0.10
0.03
0.13
0.32
0.67
1.18
1.78
2.36
2.88
3.40
4.04
4.99
6.40
8.33
10.78
13.64
16.78
20.00
23.08
25.82
28.04
29.62
30.52
30.76
30.36
29.35
27.68
25.32
22.27
18.62
14.61
10.55
6.79
3.54
0.79
-1.68
-4.26
-7.33
-11.16
-15.71
-20.69
-25.64
-30.05
-33.48
-35.67
-36.51
-36.09
-34.66
-32.60
-30.38
-28.45
-27.07
-26.20
-25.53
-24.58
-22.92
-20.38
-17.13
-13.64
-10.40
-7.77
-5.83
-4.45
-3.40
-2.51
-1.74
-1.09
-0.56
-0.05
0.58
1.43
2.47
3.55
4.41
4.83
4.79
4.43
4.01
3.78
3.82
4.05
4.27
4.29
4.02
3.51
2.85
2.11
1.30
0.40
-0.61
-1.62
-2.48
-3.05
-3.25
-3.15
-2.87
-2.50
-2.06
-1.50
-0.70
0.40
1.78
3.36
5.00
6.57
7.98
9.21
10.28
11.21
12.08
12.92
13.78
14.69
15.65
16.59
17.36
17.71
17.41
16.31
14.43
11.96
9.19
6.33
3.47
0.58
-2.46
-5.70
-9.06
-12.31
-15.16
-17.33
-18.65
-19.10
-18.78
-17.94
-16.82
-15.65
-14.57
-13.63
-12.77
-11.89
-10.93
-9.82
-8.57
-7.23
-5.87
-4.59
-3.50
-2.66
-2.05
-1.62
-1.25
-0.81
-0.23
0.50
1.33
2.18
2.96
3.62
4.16
4.65
5.20
5.89
6.76
7.74
8.70
9.45
9.83
9.75
9.26
8.49
7.61
6.71
5.79
4.75
3.51
2.01
0.29
-1.57
-3.45
-5.30
-7.09
-8.83
-10.50
-12.06
-13.43
-14.54
-15.38
-15.96
-16.31
-16.45
-16.36
-16.00
-15.34
-14.43
-13.37
-12.29
-11.29
-10.42
-9.60
-8.67
-7.45
-5.75
-3.48
-0.66
2.55
5.94
9.26
12.31
15.02
17.43
19.65
21.79
23.88
25.87
27.58
28.79
29.25
28.76
27.22
24.64
21.20
17.14
12.78
8.46
4.42
0.84
-2.21
-4.74
-6.84
-8.61
-10.14
-11.49
-12.66
-13.62
-14.27
-14.43
-13.82
-12.05
-8.77
-3.73
3.11
11.45
20.77
30.32
39.25
46.77
52.24
55.28
55.83
54.10
50.52
45.49
39.39
32.44
24.78
16.57
8.04
-0.47
-8.58
-15.95
-22.33
-27.56
-31.58
-34.36
-35.94
-36.37
-35.74
-34.20
-31.98
-29.37
-26.67
-24.13
-21.91
-20.03
-18.45
-17.05
-15.74
-14.47
-13.28
-12.21
-11.31
-10.58
-9.96
-9.36
-8.70
-7.96
-7.17
-6.41
-5.76
-5.25
-4.87
-4.54
-4.17
-3.70
-3.10
-2.36
-1.50
-0.52
0.54
1.65
2.74
3.75
4.64
5.40
6.07
6.66
7.17
7.57
7.80
7.80
7.56
7.13
6.60
6.06
5.59
5.19
4.84
4.50
4.14
3.75
3.31
2.81
2.22
1.51
0.68
-0.25
-1.28
-2.34
-3.41
-4.47
-5.47
-6.41
-7.28
-8.07
-8.82
-9.63
-10.60
-11.87
-13.46
-15.23
-16.89
-18.10
-18.59
-18.31
-17.43
-16.28
-15.08
-13.82
-12.22
-9.83
-6.27
-1.40
4.65
11.46
18.54
25.42
31.72
37.20
41.67
45.07
47.44
48.92
49.74
50.07
49.83
48.63
45.87
41.01
33.88
24.87
14.89
5.13
-3.39
-10.03
-14.65
-17.51
-19.02
-19.63
-19.72
-19.60
-19.54
-19.71
-20.15
-20.79
-21.44
-21.93
-22.18
-22.24
-22.25
-22.34
-22.59
-22.93
-23.27
-23.47
-23.47
-23.25
-22.90
-22.50
-22.20
-22.11
-22.29
-22.69
-23.05
-22.94
-21.87
-19.40
-15.35
-9.85
-3.36
3.48
9.97
15.55
19.85
22.77
24.38
24.90
24.61
23.79
22.65
21.33
19.88
18.30
16.61
14.86
13.18
11.72
10.63
9.95
9.61
9.51
9.49
9.49
9.51
9.56
9.70
9.91
10.15
10.36
10.49
10.52
10.42
10.14
9.64
8.84
7.76
6.47
5.15
4.03
3.30
3.04
3.22
3.68
4.21
4.59
4.68
4.42
3.84
3.01
2.05
1.00
-0.10
-1.26
-2.51
-3.84
-5.19
-6.45
-7.52
-8.33
-8.89
-9.29
-9.65
-10.03
-10.43
-10.75
-10.94
-10.98
-10.96
-11.10
-11.57
-12.41
-13.46
-14.35
-14.66
-14.03
-12.31
-9.61
-6.17
-2.35
1.60
5.50
9.24
12.70
15.77
18.33
20.29
21.59
22.12
21.60
19.79
16.70
12.79
8.96
6.21
5.15
5.59
6.62
7.06
6.09
3.70
0.62
-2.11
-3.73
-4.06
-3.53
-2.81
-2.39
-2.48
-2.96
-3.64
-4.37
-5.20
-6.20
-7.42
-8.73
-9.81
-10.31
-9.96
-8.79
-7.08
-5.32
-3.99
-3.41
-3.68
-4.63
-5.99
-7.39
-8.52
-9.13
-9.13
-8.54
-7.49
-6.19
-4.87
-3.74
-2.95
-2.60
-2.72
-3.25
-4.05
-4.91
-5.62
-6.06
-6.20
-6.11
-5.88
-5.58
-5.20
-4.66
-3.90
-2.88
-1.68
-0.45
0.61
1.31
1.55
1.38
0.96
0.51
0.19
0.06
0.06
0.08
0.04
-0.09
-0.30
-0.58
-0.96
-1.48
-2.13
-2.81
-3.33
-3.46
-3.01
-1.94
-0.32
1.66
3.79
5.88
7.78
9.36
10.52
11.18
11.35
11.10
10.62
10.08
9.63
9.28
8.93
8.43
7.66
6.64
5.46
4.27
3.16
2.09
0.91
-0.55
-2.36
-4.42
-6.55
-8.54
-10.32
-11.93
-13.49
-15.04
-16.51
-17.69
-18.40
-18.56
-18.33
-17.98
-17.75
-17.73
-17.76
-17.57
-16.89
-15.59
-13.74
-11.51
-9.12
-6.77
-4.61
-2.71
-1.14
0.17
1.35
2.65
4.34
6.56
9.23
12.01
14.37
15.80
15.97
14.93
13.09
11.11
9.62
9.00
9.27
10.12
11.06
11.64
11.58
10.82
9.44
7.62
5.55
3.45
1.55
0.06
-0.89
-1.34
-1.44
-1.45
-1.59
-1.94
-2.45
-2.98
-3.40
-3.68
-3.85
-3.93
-3.94
-3.81
-3.47
-2.92
-2.19
-1.42
-0.69
-0.04
0.57
1.23
1.96
2.72
3.38
3.87
4.16
4.37
4.68
5.21
6.01
6.93
7.76
8.26
8.29
7.83
6.98
5.92
4.77
3.65
2.57
1.58
0.72
0.10
-0.18
-0.05
0.48
1.26
2.13
2.92
3.53
3.90
4.04
3.97
3.67
3.14
2.36
1.40
0.26
-1.02
-2.50
-4.24
-6.34
-8.81
-11.55
-14.36
-16.96
-19.02
-20.25
-20.44
-19.57
-17.75
-15.25
-12.40
-9.53
-6.85
-4.42
-2.21
-0.15
1.80
3.61
5.17
6.42
7.31
7.88
8.20
8.35
8.38
8.28
8.01
7.55
6.93
6.20
5.45
4.76
4.14
3.57
2.98
2.32
1.60
0.86
0.22
-0.25
-0.50
-0.55
-0.43
-0.22
0.02
0.24
0.39
0.42
0.28
-0.08
-0.65
-1.38
-2.17
-2.85
-3.30
-3.44
-3.26
-2.86
-2.33
-1.77
-1.23
-0.70
-0.19
0.33
0.86
1.36
1.79
2.09
2.25
2.27
2.20
2.13
2.11
2.18
2.32
2.48
2.63
2.75
2.80
2.79
2.74
2.67
2.62
2.61
2.65
2.70
2.66
2.46
2.11
1.65
1.22
0.90
0.72
0.58
0.31
-0.29
-1.34
-2.81
-4.55
-6.30
-7.79
-8.82
-9.34
-9.47
-9.42
-9.46
-9.80
-10.50
-11.51
-12.65
-13.71
-14.49
-14.84
-14.66
-13.90
-12.51
-10.45
-7.71
-4.30
-0.34
3.99
8.44
12.70
16.39
19.03
20.21
19.69
17.56
14.33
10.76
7.55
5.11
3.46
2.35
1.52
0.89
0.56
0.71
1.33
2.26
3.21
3.99
4.60
5.12
5.60
5.93
5.84
5.05
3.46
1.23
-1.18
-3.23
-4.45
-4.57
-3.52
-1.40
1.63
5.35
9.48
13.53
16.84
18.74
18.91
17.60
15.61
13.88
12.93
12.43
11.33
8.39
2.89
-4.89
-13.82
-22.37
-29.26
-33.72
-35.55
-34.80
-31.68
-26.47
-19.59
-11.67
-3.45
4.39
11.25
16.71
20.39
21.99
21.39
18.80
14.84
10.36
6.20
2.95
0.86
-0.06
0.10
1.24
3.17
5.61
8.25
10.74
12.79
14.14
14.43
13.15
9.79
4.11
-3.48
-11.96
-20.04
-26.62
-31.13
-33.53
-33.87
-32.09
-27.91
-21.22
-12.44
-2.72
6.43
13.69
18.42
20.78
21.37
20.72
19.06
16.43
12.93
9.00
5.16
1.70
-1.67
-5.58
-10.27
-14.99
-17.90
-16.89
-10.96
-1.17
9.30
16.61
17.95
12.99
3.79
-6.31
-14.45
-19.30
-21.08
-20.74
-18.98
-15.85
-11.10
-4.82
2.07
8.03
11.43
11.35
7.92
2.42
-3.35
-7.71
-9.73
-9.42
-7.66
-5.61
-4.16
-3.49
-3.09
-2.20
-0.21
2.91
6.67
10.31
13.15
14.90
15.61
15.54
14.96
14.00
12.73
11.16
9.33
7.36
5.41
3.62
2.08
0.79
-0.31
-1.33
-2.36
-3.45
-4.58
-5.67
-6.63
-7.38
-7.89
-8.17
-8.31
-8.34
-8.26
-7.99
-7.42
-6.51
-5.33
-4.07
-2.96
-2.17
-1.66
-1.21
-0.49
0.80
2.85
5.59
8.81
12.18
15.41
18.28
20.67
22.51
23.79
24.47
24.52
23.93
22.67
20.78
18.27
15.15
11.40
7.02
2.08
-3.22
-8.53
-13.42
-17.50
-20.54
-22.55
-23.77
-24.45
-24.80
-24.82
-24.42
-23.45
-21.85
-19.73
-17.27
-14.66
-12.04
-9.45
-6.94
-4.54
-2.33
-0.35
1.45
3.13
4.72
6.18
7.36
8.10
8.33
8.11
7.62
7.06
6.48
5.77
4.69
3.02
0.74
-1.93
-4.53
-6.52
-7.40
-6.89
-4.98
-1.91
1.88
5.88
9.59
12.57
14.56
15.55
15.82
15.85
16.08
16.69
17.44
17.82
17.30
15.61
12.93
9.73
6.52
3.58
0.88
-1.78
-4.59
-7.52
-10.34
-12.75
-14.57
-15.72
-16.23
-16.16
-15.49
-14.23
-12.40
-10.06
-7.39
-4.62
-2.00
0.21
1.80
2.68
2.87
2.52
1.86
1.14
0.52
0.07
-0.23
-0.47
-0.75
-1.13
-1.63
-2.20
-2.71
-2.95
-2.76
-2.05
-0.95
0.26
1.24
1.74
1.73
1.37
0.94
0.66
0.59
0.64
0.67
0.58
0.36
0.08
-0.23
-0.56
-0.98
-1.53
-2.16
-2.74
-3.07
-3.03
-2.60
-1.88
-1.01
-0.11
0.79
1.71
2.66
3.59
4.40
4.97
5.26
5.37
5.50
5.87
6.59
7.59
8.69
9.66
10.41
10.96
11.44
11.99
12.60
13.16
13.45
13.31
12.69
11.64
10.25
8.55
6.56
4.23
1.61
-1.23
-4.14
-7.00
-9.71
-12.23
-14.51
-16.49
-18.11
-19.31
-20.03
-20.25
-19.96
-19.15
-17.88
-16.27
-14.52
-12.87
-11.50
-10.53
-9.91
-9.56
-9.35
-9.18
-8.96
-8.62
-8.12
-7.44
-6.60
-5.68
-4.76
-3.92
-3.17
-2.49
-1.80
-1.03
-0.15
0.79
1.69
2.46
2.99
3.25
3.23
3.01
2.65
2.27
1.93
1.66
1.41
1.10
0.58
-0.24
-1.35
-2.65
-3.95
-5.03
-5.75
-6.04
-5.92
-5.42
-4.59
-3.51
-2.27
-1.03
0.07
0.94
1.55
1.98
2.32
2.68
3.11
3.59
4.09
4.57
5.01
5.40
5.75
6.05
6.29
6.45
6.55
6.61
6.71
6.93
7.25
7.62
7.83
7.70
7.13
6.20
5.13
4.17
3.50
3.09
2.79
2.40
1.82
1.04
0.13
-0.83
-1.83
-2.88
-3.93
-4.86
-5.47
-5.61
-5.27
-4.59
-3.79
-3.01
-2.32
-1.63
-0.85
0.01
0.85
1.45
1.59
1.15
0.17
-1.22
-2.83
-4.48
-5.93
-6.90
-6.97
-5.68
-2.64
2.27
8.81
16.24
23.52
29.49
33.26
34.42
33.03
29.58
24.67
18.86
12.55
6.02
-0.45
-6.56
-12.04
-16.72
-20.61
-23.93
-26.98
-29.98
-32.97
-35.80
-38.13
-39.62
-39.98
-39.10
-37.01
-33.86
-29.89
-25.41
-20.74
-16.28
-12.40
-9.36
-7.11
-5.16
-2.68
1.20
6.92
14.19
22.01
29.12
34.49
37.79
39.31
39.68
39.39
38.53
36.92
34.42
31.16
27.63
24.37
21.69
19.52
17.42
14.88
11.55
7.34
2.51
-2.43
-6.80
-9.91
-11.22
-10.51
-7.97
-4.11
0.40
5.15
10.03
15.22
20.91
26.93
32.72
37.48
40.49
41.47
40.53
37.87
33.48
27.02
18.05
6.56
-6.75
-20.46
-32.83
-42.28
-47.89
-49.44
-47.35
-42.42
-35.66
-28.09
-20.55
-13.57
-7.22
-1.24
4.70
10.75
16.57
21.28
23.63
22.45
17.14
8.15
-3.05
-14.30
-23.54
-29.56
-32.33
-32.84
-32.36
-31.81
-31.34
-30.57
-29.02
-26.63
-23.82
-21.27
-19.44
-18.35
-17.66
-16.87
-15.67
-14.13
-12.54
-11.39
-10.97
-11.32
-12.22
-13.31
-14.31
-15.08
-15.64
-16.11
-16.56
-16.96
-17.19
-17.08
-16.48
-15.17
-12.94
-9.56
-4.84
1.29
8.71
17.08
25.84
34.30
41.71
47.40
50.92
52.17
51.46
49.35
46.45
43.15
39.52
35.34
30.35
24.51
18.17
11.89
6.32
1.82
-1.61
-4.34
-6.78
-9.20
-11.56
-13.56
-14.82
-15.05
-14.24
-12.59
-10.46
-8.18
-5.91
-3.62
-1.15
1.63
4.71
7.88
10.79
13.14
14.77
15.75
16.25
16.44
16.32
15.72
14.36
12.06
8.83
4.86
0.52
-3.86
-7.98
-11.66
-14.75
-17.18
-18.89
-19.89
-20.26
-20.19
-19.87
-19.45
-19.02
-18.62
-18.22
-17.78
-17.26
-16.54
-15.47
-13.88
-11.71
-9.00
-5.95
-2.85
0.05
2.56
4.61
6.24
7.48
8.42
9.16
9.80
10.47
11.25
12.12
12.99
13.68
13.99
13.76
12.94
11.56
9.75
7.71
5.62
3.61
1.74
-0.00
-1.64
-3.13
-4.42
-5.38
-5.97
-6.19
-6.13
-5.89
-5.56
-5.14
-4.67
-4.21
-3.87
-3.82
-4.16
-4.87
-5.80
-6.69
-7.25
-7.33
-6.93
-6.23
-5.50
-4.90
-4.47
-4.09
-3.58
-2.81
-1.83
-0.82
0.01
0.51
0.70
0.72
0.72
0.77
0.85
0.90
0.86
0.77
0.69
0.64
0.59
0.45
0.14
-0.36
-0.94
-1.46
-1.79
-1.92
-1.93
-1.96
-2.11
-2.40
-2.77
-3.16
-3.51
-3.83
-4.13
-4.38
-4.51
-4.40
-3.95
-3.12
-1.89
-0.34
1.45
3.36
5.24
6.94
8.31
9.30
9.88
10.11
10.05
9.73
9.19
8.44
7.52
6.50
5.50
4.57
3.74
3.01
2.33
1.67
1.06
0.54
0.13
-0.13
-0.29
-0.39
-0.49
-0.62
-0.75
-0.85
-0.93
-0.99
-1.09
-1.20
-1.28
-1.25
-1.05
-0.74
-0.44
-0.34
-0.55
-1.03
-1.58
-1.94
-1.91
-1.45
-0.67
0.22
1.07
1.82
2.48
3.10
3.64
4.05
4.25
4.24
4.13
4.06
4.11
4.24
4.32
4.19
3.80
3.22
2.61
2.13
1.88
1.83
1.90
1.95
1.91
1.74
1.48
1.18
0.90
0.66
0.45
0.25
0.05
-0.12
-0.19
-0.10
0.18
0.58
0.93
1.08
0.93
0.49
-0.12
-0.70
-1.07
-1.12
-0.81
-0.24
0.47
1.18
1.81
2.28
2.58
2.70
2.66
2.51
2.30
2.10
1.96
1.92
1.94
1.97
2.00
2.01
2.00
1.98
1.92
1.78
1.49
1.05
0.50
-0.08
-0.64
-1.12
-1.56
-2.00
-2.46
-2.93
-3.37
-3.71
-3.94
-4.07
-4.14
-4.21
-4.29
-4.41
-4.59
-4.82
-5.11
-5.44
-5.73
-5.91
-5.89
-5.63
-5.12
-4.43
-3.64
-2.85
-2.17
-1.70
-1.49
-1.49
-1.61
-1.76
-1.87
-1.95
-2.06
-2.23
-2.43
-2.55
-2.48
-2.16
-1.62
-1.01
-0.46
-0.07
0.14
0.20
0.16
0.07
-0.04
-0.16
-0.26
-0.35
-0.44
-0.54
-0.67
-0.81
-0.93
-0.99
-0.98
-0.92
-0.85
-0.85
-0.96
-1.18
-1.46
-1.73
-1.87
-1.84
-1.64
-1.32
-0.98
-0.70
-0.43
-0.09
0.41
1.08
1.82
2.48
2.89
3.04
3.00
2.95
3.05
3.32
3.66
3.92
3.96
3.74
3.31
2.82
2.39
2.13
2.06
2.14
2.26
2.32
2.27
2.16
2.05
2.01
2.03
2.05
1.96
1.75
1.44
1.16
0.99
0.93
0.92
0.86
0.67
0.37
-0.01
-0.41
-0.82
-1.22
-1.63
-2.02
-2.35
-2.54
-2.58
-2.46
-2.23
-1.93
-1.58
-1.19
-0.74
-0.26
0.21
0.61
0.95
1.22
1.47
1.70
1.91
2.06
2.09
2.02
1.86
1.67
1.49
1.34
1.23
1.19
1.21
1.28
1.37
1.46
1.55
1.69
1.91
2.21
2.48
2.55
2.30
1.72
0.96
0.23
-0.27
-0.49
-0.49
-0.41
-0.39
-0.46
-0.63
-0.84
-1.09
-1.37
-1.67
-1.99
-2.26
-2.44
-2.51
-2.49
-2.41
-2.30
-2.18
-2.03
-1.87
-1.70
-1.54
-1.37
-1.18
-0.94
-0.66
-0.34
0.01
0.36
0.74
1.10
1.40
1.57
1.55
1.36
1.07
0.84
0.73
0.77
0.88
0.97
1.01
1.02
1.08
1.24
1.46
1.64
1.67
1.53
1.24
0.89
0.54
0.19
-0.16
-0.53
-0.88
-1.17
-1.36
-1.42
-1.38
-1.28
-1.19
-1.14
-1.19
-1.34
-1.57
-1.81
-2.01
-2.10
-2.11
-2.08
-2.05
-2.00
-1.88
-1.56
-0.98
-0.19
0.68
1.46
1.98
2.15
1.98
1.59
1.16
0.87
0.83
1.10
1.58
2.14
2.63
2.92
2.96
2.75
2.38
1.93
1.54
1.30
1.27
1.43
1.73
2.08
2.39
2.60
2.67
2.60
2.42
2.16
1.86
1.52
1.13
0.68
0.21
-0.22
-0.55
-0.73
-0.76
-0.70
-0.66
-0.67
-0.76
-0.89
-1.03
-1.22
-1.49
-1.87
-2.28
-2.57
-2.60
-2.27
-1.68
-1.03
-0.57
-0.44
-0.65
-1.03
-1.38
-1.53
-1.44
-1.19
-0.87
-0.56
-0.28
-0.02
0.24
0.42
0.46
0.29
-0.07
-0.53
-0.93
-1.11
-1.03
-0.71
-0.28
0.11
0.33
0.34
0.17
-0.09
-0.33
-0.42
-0.33
-0.09
0.21
0.42
0.45
0.26
-0.08
-0.48
-0.82
-1.05
-1.17
-1.23
-1.29
-1.39
-1.52
-1.68
-1.85
-2.06
-2.33
-2.64
-2.94
-3.15
-3.19
-3.03
-2.71
-2.30
-1.92
-1.64
-1.50
-1.47
-1.51
-1.58
-1.68
-1.85
-2.16
-2.62
-3.20
-3.79
-4.29
-4.64
-4.87
-5.07
-5.35
-5.73
-6.18
-6.60
-6.95
-7.26
-7.63
-8.18
-8.98
-9.99
-11.09
-12.10
-12.88
-13.38
-13.57
-13.50
-13.19
-12.64
-11.83
-10.68
-9.09
-6.96
-4.20
-0.73
3.56
8.71
14.69
21.25
27.92
34.09
39.15
42.69
44.67
45.35
45.08
44.11
42.37
39.54
35.23
29.22
21.57
12.71
3.26
-6.03
-14.43
-21.32
-26.31
-29.21
-30.15
-29.42
-27.40
-24.43
-20.78
-16.62
-12.14
-7.55
-3.11
0.95
4.51
7.54
10.05
12.02
13.36
13.92
13.61
12.54
10.97
9.32
7.99
7.17
6.80
6.63
6.34
5.69
4.61
3.18
1.62
0.11
-1.19
-2.23
-3.05
-3.71
-4.23
-4.64
-4.86
-4.86
-4.60
-4.15
-3.61
-3.10
-2.70
-2.40
-2.11
-1.74
-1.27
-0.72
-0.24
0.06
0.12
-0.01
-0.22
-0.35
-0.30
-0.07
0.28
0.65
0.99
1.26
1.48
1.68
1.87
2.00
2.03
1.91
1.64
1.25
0.84
0.48
0.24
0.13
0.14
0.20
0.30
0.40
0.49
0.56
0.56
0.45
0.21
-0.09
-0.37
-0.53
-0.55
-0.50
-0.46
-0.51
-0.66
-0.83
-0.92
-0.88
-0.71
-0.49
-0.28
-0.10
0.08
0.31
0.60
0.91
1.17
1.30
1.28
1.14
0.93
0.76
0.66
0.65
0.72
0.84
0.94
0.98
0.88
0.59
0.11
-0.52
-1.19
-1.81
-2.28
-2.59
-2.78
-2.91
-3.05
-3.24
-3.49
-3.79
-4.11
-4.39
-4.60
-4.73
-4.83
-4.95
-5.19
-5.63
-6.25
-7.00
-7.75
-8.36
-8.75
-8.93
-8.96
-8.96
-9.00
-9.11
-9.25
-9.37
-9.42
-9.43
-9.42
-9.43
-9.41
-9.33
-9.15
-8.90
-8.65
-8.44
-8.27
-8.07
-7.74
-7.20
-6.46
-5.58
-4.66
-3.75
-2.84
-1.90
-0.91
0.12
1.10
1.96
2.68
3.27
3.78
4.29
4.83
5.40
5.98
6.55
7.11
7.63
8.09
8.43
8.64
8.77
8.91
9.16
9.58
10.19
10.97
11.89
12.98
14.24
15.62
17.01
18.18
18.94
19.17
18.91
18.32
17.57
16.78
15.98
15.10
14.09
12.91
11.64
10.35
9.14
8.07
7.16
6.40
5.78
5.28
4.85
4.45
4.05
3.68
3.36
3.10
2.89
2.60
2.11
1.33
0.28
-0.93
-2.17
-3.34
-4.46
-5.60
-6.82
-8.11
-9.38
-10.52
-11.44
-12.11
-12.55
-12.78
-12.81
-12.63
-12.28
-11.79
-11.24
-10.70
-10.20
-9.75
-9.31
-8.87
-8.41
-7.94
-7.47
-7.03
-6.60
-6.16
-5.69
-5.14
-4.50
-3.80
-3.09
-2.47
-2.01
-1.76
-1.72
-1.85
-2.04
-2.21
-2.25
-2.13
-1.90
-1.67
-1.57
-1.70
-2.04
-2.51
-2.98
-3.34
-3.56
-3.65
-3.64
-3.57
-3.48
-3.38
-3.31
-3.26
-3.19
-3.02
-2.68
-2.14
-1.43
-0.60
0.30
1.19
2.05
2.81
3.43
3.89
4.21
4.44
4.64
4.84
5.01
5.11
5.12
5.05
4.95
4.83
4.69
4.50
4.25
3.99
3.78
3.71
3.79
3.98
4.22
4.42
4.56
4.65
4.69
4.69
4.59
4.33
3.83
3.09
2.18
1.21
0.31
-0.43
-1.00
-1.44
-1.82
-2.17
-2.48
-2.66
-2.65
-2.43
-2.03
-1.55
-1.10
-0.74
-0.51
-0.37
-0.32
-0.32
-0.35
-0.37
-0.34
-0.19
0.10
0.51
0.95
1.32
1.52
1.54
1.42
1.28
1.22
1.30
1.50
1.72
1.83
1.71
1.34
0.76
0.10
-0.52
-1.02
-1.44
-1.85
-2.36
-2.98
-3.65
-4.22
-4.58
-4.68
-4.58
-4.42
-4.29
-4.20
-4.08
-3.83
-3.41
-2.90
-2.41
-2.04
-1.82
-1.67
-1.52
-1.33
-1.18
-1.17
-1.38
-1.79
-2.31
-2.84
-3.28
-3.57
-3.73
-3.77
-3.74
-3.67
-3.60
-3.58
-3.61
-3.65
-3.66
-3.62
-3.49
-3.33
-3.18
-3.07
-3.04
-3.04
-3.04
-2.95
-2.72
-2.34
-1.83
-1.27
-0.70
-0.15
0.37
0.87
1.34
1.70
1.89
1.83
1.54
1.11
0.66
0.34
0.24
0.36
0.65
1.02
1.37
1.58
1.60
1.40
1.03
0.57
0.17
-0.09
-0.20
-0.22
-0.28
-0.44
-0.71
-1.03
-1.31
-1.56
-1.86
-2.30
-2.96
-3.79
-4.65
-5.42
-6.03
-6.50
-6.88
-7.19
-7.37
-7.30
-6.90
-6.18
-5.25
-4.26
-3.32
-2.49
-1.73
-0.98
-0.25
0.43
0.98
1.37
1.62
1.82
2.06
2.40
2.79
3.18
3.47
3.60
3.57
3.44
3.30
3.21
3.20
3.28
3.40
3.54
3.65
3.70
3.67
3.57
3.39
3.14
2.80
2.35
1.78
1.10
0.34
-0.40
-1.05
-1.56
-1.94
-2.26
-2.61
-3.07
-3.60
-4.10
-4.42
-4.44
-4.13
-3.55
-2.87
-2.27
-1.87
-1.69
-1.67
-1.69
-1.66
-1.56
-1.43
-1.35
-1.40
-1.61
-1.96
-2.39
-2.84
-3.25
-3.56
-3.78
-3.91
-3.97
-3.98
-3.91
-3.75
-3.48
-3.13
-2.77
-2.44
-2.19
-1.99
-1.80
-1.62
-1.48
-1.46
-1.55
-1.67
-1.65
-1.29
-0.49
0.67
2.00
3.27
4.29
5.03
5.54
5.92
6.25
6.51
6.64
6.57
6.27
5.78
5.21
4.70
4.35
4.19
4.20
4.30
4.40
4.45
4.42
4.31
4.12
3.86
3.57
3.27
2.98
2.67
2.30
1.84
1.32
0.78
0.26
-0.22
-0.73
-1.34
-2.13
-3.06
-4.03
-4.89
-5.47
-5.67
-5.47
-4.93
-4.14
-3.26
-2.40
-1.67
-1.10
-0.65
-0.22
0.24
0.75
1.29
1.76
2.12
2.34
2.47
2.58
2.70
2.81
2.80
2.53
1.92
1.00
-0.11
-1.25
-2.30
-3.24
-4.10
-4.92
-5.70
-6.42
-7.07
-7.72
-8.49
-9.50
-10.71
-11.94
-12.94
-13.51
-13.56
-13.17
-12.47
-11.54
-10.36
-8.89
-7.12
-5.12
-3.07
-1.13
0.61
2.17
3.64
5.08
6.47
7.73
8.75
9.52
10.08
10.56
11.07
11.67
12.35
13.06
13.75
14.37
14.91
15.37
15.69
15.81
15.69
15.28
14.60
13.69
12.60
11.42
10.22
9.07
8.01
7.02
6.04
5.01
3.86
2.62
1.39
0.27
-0.69
-1.46
-2.12
-2.71
-3.27
-3.74
-4.04
-4.06
-3.75
-3.15
-2.35
-1.50
-0.72
-0.11
0.30
0.54
0.63
0.59
0.45
0.28
0.16
0.20
0.46
0.89
1.36
1.69
1.77
1.57
1.21
0.87
0.69
0.72
0.88
1.08
1.23
1.32
1.36
1.42
1.52
1.64
1.72
1.71
1.55
1.21
0.72
0.11
-0.52
-1.07
-1.44
-1.60
-1.54
-1.35
-1.14
-1.06
-1.17
-1.52
-2.09
-2.86
-3.78
-4.74
-5.61
-6.20
-6.31
-5.86
-4.89
-3.61
-2.34
-1.39
-0.91
-0.86
-1.05
-1.21
-1.17
-0.91
-0.51
-0.14
0.07
0.10
-0.02
-0.23
-0.52
-0.89
-1.40
-2.00
-2.63
-3.17
-3.53
-3.74
-3.90
-4.14
-4.56
-5.11
-5.65
-6.02
-6.11
-5.90
-5.46
-4.87
-4.17
-3.35
-2.41
-1.39
-0.33
0.64
1.44
1.98
2.24
2.22
1.98
1.59
1.16
0.78
0.49
0.26
0.06
-0.19
-0.52
-0.94
-1.44
-2.04
-2.80
-3.77
-4.98
-6.39
-7.89
-9.27
-10.31
-10.87
-10.90
-10.53
-10.00
-9.52
-9.20
-8.91
-8.42
-7.40
-5.67
-3.22
-0.21
3.10
6.37
9.21
11.21
11.96
11.25
9.17
6.22
3.16
0.72
-0.69
-1.15
-1.08
-0.93
-0.97
-1.14
-1.19
-0.90
-0.27
0.54
1.33
1.96
2.48
3.00
3.62
4.31
4.93
5.33
5.37
5.06
4.48
3.77
3.12
2.63
2.40
2.39
2.47
2.50
2.34
1.95
1.45
0.99
0.75
0.78
1.05
1.43
1.80
2.11
2.37
2.68
3.13
3.77
4.56
5.40
6.13
6.59
6.72
6.57
6.28
6.03
5.93
5.97
6.03
5.97
5.71
5.29
4.83
4.44
4.16
3.90
3.56
3.03
2.27
1.34
0.31
-0.71
-1.70
-2.64
-3.50
-4.26
-4.89
-5.35
-5.67
-5.89
-6.08
-6.27
-6.47
-6.59
-6.55
-6.29
-5.77
-5.07
-4.34
-3.73
-3.39
-3.35
-3.53
-3.80
-4.02
-4.13
-4.19
-4.29
-4.53
-4.95
-5.47
-5.99
-6.42
-6.75
-7.01
-7.28
-7.55
-7.76
-7.80
-7.52
-6.87
-5.86
-4.60
-3.23
-1.84
-0.43
1.09
2.87
5.03
7.56
10.37
13.35
16.44
19.67
23.11
26.78
30.58
34.30
37.69
40.52
42.58
43.65
43.43
41.64
38.09
32.82
26.15
18.62
10.84
3.37
-3.33
-8.94
-13.26
-16.21
-17.85
-18.40
-18.19
-17.56
-16.78
-16.03
-15.39
-14.89
-14.57
-14.42
-14.35
-14.18
-13.65
-12.55
-10.76
-8.37
-5.60
-2.77
-0.15
2.06
3.79
4.97
5.58
5.60
5.05
4.04
2.73
1.29
-0.21
-1.83
-3.74
-6.14
-9.20
-12.89
-17.05
-21.35
-25.45
-29.02
-31.81
-33.71
-34.70
-34.83
-34.20
-32.84
-30.81
-28.08
-24.65
-20.55
-15.84
-10.66
-5.16
0.52
6.25
11.95
17.53
22.92
28.00
32.61
36.54
39.50
41.15
41.20
39.50
36.19
31.72
26.79
22.18
18.44
15.77
13.98
12.63
11.24
9.52
7.44
5.17
2.95
0.95
-0.73
-2.11
-3.22
-4.06
-4.63
-4.95
-5.08
-5.14
-5.25
-5.46
-5.67
-5.68
-5.21
-4.07
-2.24
0.02
2.31
4.22
5.47
6.05
6.14
6.00
5.80
5.60
5.34
4.98
4.55
4.15
3.80
3.48
3.03
2.31
1.35
0.33
-0.44
-0.69
-0.32
0.59
1.84
3.18
4.43
5.44
6.08
6.22
5.77
4.70
3.11
1.19
-0.83
-2.76
-4.50
-6.03
-7.46
-8.90
-10.38
-11.86
-13.16
-14.06
-14.44
-14.35
-14.02
-13.73
-13.67
-13.82
-13.98
-13.89
-13.34
-12.30
-10.84
-9.05
-6.90
-4.27
-1.07
2.62
6.54
10.27
13.38
15.65
17.10
18.00
18.73
19.63
20.90
22.51
24.27
25.77
26.57
26.16
24.19
20.53
15.38
9.28
2.98
-2.77
-7.44
-10.87
-13.22
-14.83
-16.06
-17.12
-18.04
-18.74
-19.13
-19.19
-18.96
-18.48
-17.75
-16.77
-15.55
-14.13
-12.65
-11.25
-10.08
-9.19
-8.52
-7.98
-7.44
-6.81
-6.06
-5.26
-4.48
-3.81
-3.28
-2.88
-2.55
-2.21
-1.81
-1.35
-0.88
-0.40
0.06
0.54
1.04
1.50
1.86
2.06
2.08
2.00
1.93
1.95
2.06
2.21
2.31
2.30
2.19
2.06
1.96
1.91
1.84
1.67
1.33
0.85
0.30
-0.20
-0.57
-0.80
-0.92
-1.00
-1.08
-1.22
-1.41
-1.69
-2.06
-2.53
-3.10
-3.72
-4.31
-4.79
-5.06
-5.11
-4.93
-4.59
-4.17
-3.71
-3.26
-2.83
-2.45
-2.13
-1.86
-1.61
-1.40
-1.23
-1.13
-1.17
-1.34
-1.57
-1.76
-1.76
-1.52
-1.09
-0.61
-0.25
-0.14
-0.30
-0.62
-0.99
-1.26
-1.39
-1.37
-1.29
-1.22
-1.24
-1.37
-1.58
-1.83
-2.08
-2.32
-2.56
-2.78
-2.92
-2.93
-2.77
-2.47
-2.13
-1.83
-1.64
-1.53
-1.40
-1.14
-0.72
-0.18
0.33
0.69
0.82
0.77
0.63
0.51
0.46
0.46
0.50
0.57
0.70
0.93
1.29
1.72
2.15
2.47
2.66
2.76
2.88
3.11
3.46
3.90
4.37
4.80
5.13
5.35
5.41
5.26
4.84
4.13
3.19
2.20
1.39
0.97
1.01
1.44
2.10
2.81
3.47
4.05
4.56
5.00
5.30
5.42
5.35
5.14
4.92
4.77
4.72
4.73
4.68
4.47
4.10
3.62
3.13
2.73
2.46
2.30
2.17
2.00
1.74
1.37
0.92
0.47
0.10
-0.08
-0.02
0.32
0.87
1.51
2.06
2.36
2.32
1.94
1.31
0.54
-0.25
-0.97
-1.56
-1.96
-2.16
-2.16
-1.99
-1.76
-1.55
-1.46
-1.54
-1.85
-2.37
-3.06
-3.81
-4.47
-4.92
-5.01
-4.71
-4.02
-3.00
-1.74
-0.34
1.09
2.40
3.43
4.03
4.12
3.74
3.05
2.24
1.45
0.72
0.05
-0.59
-1.16
-1.60
-1.83
-1.87
-1.79
-1.74
-1.83
-2.08
-2.43
-2.81
-3.17
-3.53
-3.90
-4.32
-4.74
-5.07
-5.23
-5.16
-4.88
-4.42
-3.84
-3.18
-2.49
-1.79
-1.13
-0.57
-0.15
0.08
0.12
-0.02
-0.25
-0.48
-0.60
-0.55
-0.33
0.03
0.43
0.77
0.99
1.06
1.00
0.89
0.78
0.71
0.66
0.60
0.49
0.33
0.15
0.03
0.01
0.11
0.31
0.55
0.77
0.89
0.89
0.76
0.53
0.26
-0.01
-0.28
-0.58
-0.92
-1.29
-1.58
-1.68
-1.45
-0.91
-0.16
0.62
1.23
1.56
1.62
1.52
1.37
1.27
1.28
1.38
1.53
1.68
1.77
1.80
1.76
1.70
1.63
1.59
1.59
1.63
1.68
1.73
1.74
1.67
1.46
1.09
0.57
0.02
-0.47
-0.79
-0.93
-0.96
-0.96
-1.01
-1.10
-1.17
-1.16
-1.09
-1.02
-1.03
-1.15
-1.37
-1.57
-1.65
-1.57
-1.36
-1.13
-0.96
-0.87
-0.82
-0.72
-0.51
-0.21
0.12
0.35
0.39
0.26
0.05
-0.13
-0.16
-0.02
0.24
0.52
0.76
0.96
1.10
1.18
1.17
1.01
0.72
0.33
-0.03
-0.25
-0.25
-0.03
0.32
0.72
1.05
1.27
1.38
1.39
1.38
1.45
1.70
2.21
2.99
3.96
4.92
5.62
5.80
5.32
4.14
2.42
0.42
-1.53
-3.12
-4.11
-4.43
-4.20
-3.66
-3.09
-2.70
-2.57
-2.67
-2.90
-3.16
-3.43
-3.71
-3.98
-4.22
-4.36
-4.39
-4.32
-4.26
-4.27
-4.38
-4.48
-4.41
-3.98
-3.09
-1.71
0.05
2.06
4.16
6.17
7.97
9.44
10.56
11.34
11.90
12.32
12.65
12.84
12.80
12.39
11.57
10.39
8.99
7.52
6.10
4.74
3.39
2.00
0.52
-1.00
-2.50
-3.87
-5.00
-5.82
-6.34
-6.63
-6.77
-6.85
-6.89
-6.91
-6.87
-6.75
-6.57
-6.35
-6.15
-6.01
-5.94
-5.92
-5.90
-5.84
-5.72
-5.54
-5.34
-5.15
-4.96
-4.76
-4.49
-4.11
-3.63
-3.13
-2.69
-2.36
-2.14
-2.00
-1.89
-1.77
-1.67
-1.61
-1.61
-1.66
-1.72
-1.75
-1.72
-1.61
-1.45
-1.25
-1.02
-0.75
-0.40
0.05
0.60
1.22
1.80
2.28
2.59
2.73
2.71
2.58
2.38
2.15
1.90
1.66
1.47
1.32
1.23
1.19
1.19
1.23
1.31
1.40
1.48
1.46
1.31
1.05
0.76
0.54
0.50
0.64
0.87
1.06
1.09
0.91
0.64
0.42
0.36
0.46
0.62
0.67
0.51
0.15
-0.29
-0.69
-0.97
-1.17
-1.36
-1.63
-1.95
-2.22
-2.30
-2.09
-1.60
-0.90
-0.11
0.64
1.27
1.68
1.85
1.79
1.55
1.23
0.96
0.85
0.96
1.25
1.62
1.93
2.09
2.03
1.76
1.34
0.88
0.49
0.29
0.30
0.50
0.76
0.92
0.82
0.40
-0.26
-1.00
-1.63
-2.04
-2.21
-2.25
-2.29
-2.39
-2.54
-2.68
-2.75
-2.79
-2.87
-3.04
-3.27
-3.40
-3.28
-2.78
-1.88
-0.70
0.66
2.11
3.65
5.28
6.97
8.56
9.88
10.75
11.14
11.16
11.02
10.89
10.86
10.91
10.93
10.81
10.45
9.82
8.91
7.76
6.46
5.11
3.86
2.79
1.94
1.28
0.71
0.15
-0.49
-1.26
-2.14
-3.11
-4.09
-5.00
-5.75
-6.31
-6.73
-7.12
-7.60
-8.18
-8.76
-9.14
-9.15
-8.75
-8.02
-7.17
-6.41
-5.86
-5.50
-5.25
-5.00
-4.69
-4.29
-3.85
-3.38
-2.89
-2.41
-1.95
-1.57
-1.31
-1.15
-1.08
-1.05
-1.03
-1.00
-0.94
-0.84
-0.68
-0.46
-0.21
0.03
0.17
0.18
0.07
-0.07
-0.15
-0.08
0.13
0.44
0.74
0.99
1.15
1.22
1.22
1.15
0.97
0.68
0.29
-0.18
-0.64
-1.03
-1.28
-1.35
-1.22
-0.93
-0.55
-0.16
0.16
0.40
0.55
0.64
0.70
0.74
0.74
0.70
0.65
0.59
0.53
0.49
0.49
0.53
0.63
0.82
1.10
1.47
1.87
2.24
2.51
2.61
2.51
2.20
1.76
1.26
0.82
0.50
0.35
0.33
0.40
0.48
0.53
0.50
0.37
0.16
-0.09
-0.32
-0.49
-0.58
-0.64
-0.69
-0.79
-0.93
-1.09
-1.27
-1.48
-1.68
-1.86
-1.97
-1.97
-1.86
-1.72
-1.58
-1.48
-1.37
-1.18
-0.88
-0.52
-0.19
0.01
0.08
0.11
0.23
0.51
0.90
1.26
1.48
1.51
1.43
1.37
1.42
1.57
1.72
1.76
1.59
1.26
0.86
0.52
0.35
0.38
0.57
0.86
1.15
1.35
1.40
1.27
1.00
0.62
0.25
-0.05
-0.22
-0.27
-0.24
-0.18
-0.15
-0.20
-0.34
-0.58
-0.90
-1.28
-1.68
-2.02
-2.24
-2.27
-2.10
-1.79
-1.42
-1.09
-0.85
-0.66
-0.51
-0.34
-0.19
-0.11
-0.15
-0.32
-0.52
-0.64
-0.58
-0.34
-0.02
0.24
0.37
0.34
0.25
0.19
0.21
0.32
0.44
0.54
0.56
0.52
0.45
0.37
0.27
0.14
-0.04
-0.27
-0.53
-0.79
-1.01
-1.14
-1.15
-1.02
-0.82
-0.60
-0.43
-0.36
-0.34
-0.31
-0.24
-0.15
-0.14
-0.31
-0.69
-1.19
-1.61
-1.77
-1.59
-1.12
-0.55
-0.06
0.24
0.37
0.44
0.54
0.67
0.77
0.72
0.50
0.16
-0.17
-0.35
-0.34
-0.16
0.09
0.33
0.55
0.78
1.07
1.40
1.67
1.79
1.69
1.41
1.06
0.76
0.57
0.51
0.52
0.56
0.63
0.73
0.88
1.05
1.21
1.35
1.43
1.44
1.35
1.13
0.77
0.31
-0.09
-0.32
-0.28
-0.05
0.22
0.32
0.16
-0.20
-0.59
-0.83
-0.81
-0.58
-0.24
0.08
0.35
0.58
0.77
0.95
1.05
1.03
0.94
0.86
0.94
1.24
1.75
2.31
2.74
2.92
2.83
2.61
2.38
2.27
2.26
2.23
2.08
1.71
1.16
0.53
-0.03
-0.40
-0.54
-0.48
-0.28
-0.01
0.30
0.59
0.80
0.91
0.88
0.77
0.63
0.53
0.48
0.40
0.22
-0.14
-0.64
-1.19
-1.64
-1.89
-1.93
-1.83
-1.67
-1.51
-1.28
-0.95
-0.49
0.02
0.45
0.70
0.73
0.63
0.57
0.71
1.12
1.76
2.50
3.20
3.72
4.01
4.07
3.94
3.69
3.38
3.06
2.72
2.33
1.82
1.14
0.30
-0.63
-1.53
-2.25
-2.69
-2.81
-2.68
-2.39
-2.08
-1.85
-1.74
-1.80
-2.02
-2.34
-2.70
-3.01
-3.17
-3.13
-2.89
-2.51
-2.07
-1.65
-1.29
-1.01
-0.82
-0.70
-0.64
-0.62
-0.58
-0.49
-0.33
-0.10
0.15
0.38
0.54
0.60
0.56
0.45
0.32
0.23
0.24
0.33
0.46
0.55
0.53
0.38
0.18
0.00
-0.08
-0.05
0.04
0.10
0.03
-0.20
-0.60
-1.09
-1.58
-1.92
-2.03
-1.91
-1.63
-1.38
-1.30
-1.49
-1.90
-2.37
-2.69
-2.69
-2.34
-1.73
-1.04
-0.44
-0.02
0.22
0.33
0.41
0.46
0.48
0.41
0.26
0.08
-0.03
0.01
0.22
0.55
0.91
1.18
1.30
1.29
1.19
1.06
0.95
0.87
0.80
0.70
0.55
0.35
0.13
-0.05
-0.10
0.00
0.24
0.50
0.66
0.59
0.27
-0.26
-0.85
-1.36
-1.72
-1.92
-2.00
-2.05
-2.12
-2.21
-2.30
-2.36
-2.40
-2.40
-2.37
-2.29
-2.15
-1.96
-1.74
-1.52
-1.30
-1.08
-0.84
-0.56
-0.27
0.02
0.26
0.46
0.63
0.78
0.94
1.09
1.24
1.36
1.45
1.50
1.49
1.42
1.27
1.05
0.80
0.58
0.44
0.40
0.43
0.49
0.55
0.58
0.58
0.54
0.48
0.41
0.37
0.39
0.51
0.69
0.86
0.93
0.80
0.50
0.07
-0.40
-0.83
-1.22
-1.59
-1.97
-2.35
-2.67
-2.85
-2.83
-2.60
-2.20
-1.69
-1.16
-0.66
-0.21
0.13
0.35
0.42
0.33
0.14
-0.08
-0.23
-0.24
-0.12
0.09
0.30
0.45
0.52
0.55
0.60
0.73
0.96
1.28
1.64
1.96
2.19
2.27
2.21
2.01
1.70
1.33
0.96
0.64
0.38
0.22
0.18
0.24
0.40
0.59
0.74
0.79
0.70
0.48
0.19
-0.06
-0.19
-0.15
0.05
0.33
0.61
0.79
0.83
0.71
0.44
0.08
-0.32
-0.66
-0.84
-0.81
-0.56
-0.19
0.20
0.51
0.73
0.88
1.04
1.25
1.51
1.75
1.90
1.93
1.87
1.76
1.65
1.51
1.27
0.91
0.43
-0.09
-0.58
-0.97
-1.25
-1.44
-1.54
-1.51
-1.29
-0.87
-0.33
0.18
0.47
0.46
0.17
-0.26
-0.63
-0.85
-0.92
-0.93
-1.00
-1.17
-1.40
-1.62
-1.75
-1.77
-1.73
-1.69
-1.69
-1.71
-1.69
-1.56
-1.32
-0.97
-0.57
-0.20
0.10
0.33
0.51
0.68
0.87
1.06
1.21
1.27
1.19
0.99
0.69
0.37
0.11
-0.05
-0.09
-0.04
0.02
0.05
-0.01
-0.15
-0.35
-0.57
-0.80
-1.04
-1.30
-1.59
-1.88
-2.10
-2.18
-2.12
-1.96
-1.81
-1.73
-1.72
-1.69
-1.55
-1.24
-0.78
-0.32
0.02
0.14
0.09
-0.03
-0.04
0.12
0.43
0.80
1.08
1.19
1.13
0.98
0.83
0.77
0.83
0.97
1.15
1.34
1.50
1.62
1.67
1.63
1.50
1.31
1.12
0.98
0.88
0.80
0.68
0.47
0.17
-0.20
-0.61
-1.01
-1.38
-1.68
-1.86
-1.91
-1.87
-1.83
-1.90
-2.14
-2.50
-2.87
-3.07
-3.02
-2.73
-2.32
-1.93
-1.63
-1.47
-1.39
-1.35
-1.31
-1.26
-1.18
-1.02
-0.76
-0.38
0.07
0.53
0.89
1.10
1.12
1.00
0.78
0.54
0.36
0.28
0.37
0.60
0.91
1.18
1.26
1.07
0.64
0.06
-0.50
-0.91
-1.12
-1.18
-1.17
-1.16
-1.20
-1.27
-1.31
-1.33
-1.32
-1.30
-1.31
-1.34
-1.34
-1.25
-1.01
-0.52
0.30
1.51
3.07
4.88
6.68
8.16
9.06
9.19
8.60
7.45
6.01
4.53
3.19
2.08
1.18
0.45
-0.19
-0.83
-1.58
-2.53
-3.70
-4.95
-6.09
-6.86
-7.07
-6.67
-5.73
-4.43
-2.90
-1.24
0.53
2.39
4.32
6.28
8.18
9.95
11.52
12.77
13.46
13.31
12.04
9.51
5.80
1.29
-3.43
-7.63
-10.63
-11.91
-11.20
-8.58
-4.38
0.83
6.34
11.46
15.67
18.68
20.50
21.34
21.56
21.48
21.26
20.96
20.50
19.78
18.71
17.15
15.00
12.14
8.60
4.61
0.60
-2.95
-5.73
-7.72
-9.21
-10.61
-12.23
-14.10
-15.98
-17.53
-18.47
-18.71
-18.35
-17.58
-16.62
-15.65
-14.85
-14.37
-14.34
-14.82
-15.73
-16.87
-17.95
-18.67
-18.83
-18.32
-17.19
-15.63
-13.89
-12.16
-10.60
-9.20
-7.90
-6.58
-5.16
-3.60
-1.95
-0.28
1.31
2.75
4.02
5.21
6.50
8.09
10.15
12.70
15.51
18.22
20.35
21.48
21.49
20.53
19.08
17.72
16.86
16.55
16.38
15.63
13.61
9.95
4.74
-1.43
-7.78
-13.58
-18.34
-21.85
-24.08
-25.12
-25.05
-24.01
-22.25
-20.09
-17.91
-16.06
-14.71
-13.86
-13.33
-12.80
-12.03
-10.86
-9.32
-7.54
-5.67
-3.81
-1.99
-0.14
1.82
3.91
6.11
8.31
10.32
11.96
13.04
13.49
13.33
12.73
11.98
11.33
10.97
10.90
10.95
10.87
10.43
9.51
8.17
6.58
4.92
3.28
1.69
0.14
-1.34
-2.58
-3.34
-3.39
-2.63
-1.19
0.65
2.52
4.13
5.34
6.12
6.55
6.64
6.36
5.64
4.44
2.84
1.06
-0.59
-1.85
-2.61
-2.96
-3.11
-3.30
-3.67
-4.22
-4.82
-5.35
-5.73
-5.95
-6.06
-6.13
-6.20
-6.29
-6.36
-6.36
-6.24
-5.95
-5.45
-4.80
-4.12
-3.51
-3.07
-2.78
-2.54
-2.26
-1.89
-1.45
-1.03
-0.69
-0.43
-0.22
-0.04
0.11
0.16
0.09
-0.07
-0.26
-0.39
-0.41
-0.36
-0.32
-0.38
-0.58
-0.87
-1.19
-1.49
-1.71
-1.80
-1.71
-1.40
-0.90
-0.28
0.30
0.74
1.01
1.18
1.41
1.81
2.36
2.93
3.35
3.49
3.32
2.95
2.51
2.11
1.77
1.45
1.06
0.56
-0.10
-0.88
-1.72
-2.57
-3.37
-4.11
-4.79
-5.45
-6.12
-6.77
-7.31
-7.65
-7.70
-7.51
-7.16
-6.83
-6.61
-6.57
-6.69
-6.80
-6.76
-6.47
-5.93
-5.29
-4.76
-4.55
-4.79
-5.49
-6.38
-7.05
-7.17
-6.55
-5.23
-3.35
-1.07
1.61
4.78
8.79
13.99
20.52
28.36
37.20
46.57
55.89
64.50
70.61
72.65
69.52
61.26
49.23
35.60
22.49
11.38
3.12
-2.77
-6.86
-9.65
-11.49
-12.66
-13.47
-14.18
-14.96
-15.90
-17.12
-18.50
-19.84
-20.96
-21.70
-22.02
-22.01
-21.82
-21.60
-21.38
-20.93
-19.92
-18.09
-15.41
-12.11
-8.60
-5.26
-2.38
-0.03
1.91
3.62
5.18
6.58
7.73
8.50
8.84
8.78
8.37
7.69
6.80
5.72
4.49
3.22
1.98
0.84
-0.27
-1.49
-2.91
-4.51
-6.12
-7.43
-8.20
-8.30
-7.83
-6.97
-5.95
-4.88
-3.81
-2.73
-1.64
-0.56
0.49
1.53
2.58
3.65
4.71
5.65
6.36
6.74
6.79
6.57
6.20
5.78
5.34
4.83
4.16
3.30
2.29
1.30
0.59
0.41
0.91
2.08
3.73
5.56
7.28
8.75
10.04
11.34
12.85
14.60
16.35
17.64
17.91
16.67
13.64
8.78
2.25
-5.56
-13.99
-22.14
-28.90
-33.29
-34.77
-33.49
-30.24
-26.13
-22.12
-18.66
-15.60
-12.57
-9.28
-5.81
-2.56
0.03
1.77
2.77
3.36
3.80
4.12
4.16
3.68
2.66
1.28
-0.03
-0.89
-1.13
-0.86
-0.41
-0.13
-0.24
-0.72
-1.38
-1.90
-2.03
-1.73
-1.18
-0.75
-0.77
-1.45
-2.72
-4.22
-5.47
-6.04
-5.73
-4.58
-2.84
-0.88
0.98
2.51
3.58
4.17
4.29
4.00
3.37
2.51
1.54
0.56
-0.38
-1.29
-2.25
-3.38
-4.76
-6.40
-8.18
-9.88
-11.28
-12.22
-12.68
-12.77
-12.70
-12.67
-12.85
-13.30
-13.94
-14.62
-15.13
-15.25
-14.86
-14.00
-12.81
-11.53
-10.34
-9.28
-8.28
-7.18
-5.86
-4.32
-2.65
-1.01
0.48
1.83
3.13
4.51
6.05
7.83
9.86
12.13
14.61
17.13
19.48
21.39
22.60
23.03
22.74
21.96
20.93
19.86
18.86
17.94
17.07
16.24
15.47
14.79
14.24
13.80
13.41
13.00
12.45
11.66
10.53
9.00
7.04
4.70
2.05
-0.75
-3.48
-5.97
-8.08
-9.77
-11.05
-12.03
-12.81
-13.49
-14.16
-14.83
-15.49
-16.07
-16.51
-16.72
-16.68
-16.35
-15.77
-14.99
-14.12
-13.29
-12.61
-12.14
-11.82
-11.44
-10.78
-9.68
-8.14
-6.30
-4.44
-2.76
-1.37
-0.20
0.91
2.10
3.41
4.76
6.03
7.12
7.97
8.57
8.92
9.00
8.79
8.24
7.36
6.20
4.85
3.47
2.17
1.04
0.07
-0.78
-1.61
-2.49
-3.43
-4.36
-5.18
-5.80
-6.19
-6.41
-6.56
-6.69
-6.78
-6.66
-6.13
-4.94
-2.93
-0.03
3.69
8.06
12.79
17.54
21.90
25.51
28.07
29.45
29.68
29.00
27.78
26.37
25.03
23.83
22.61
21.14
19.20
16.74
13.86
10.80
7.73
4.76
1.84
-1.11
-4.13
-7.18
-10.11
-12.74
-14.97
-16.72
-18.02
-18.89
-19.37
-19.47
-19.21
-18.60
-17.68
-16.50
-15.12
-13.62
-12.11
-10.69
-9.41
-8.29
-7.24
-6.20
-5.11
-4.00
-2.97
-2.16
-1.64
-1.38
-1.24
-1.03
-0.61
0.06
0.85
1.60
2.13
2.33
2.25
2.02
1.78
1.65
1.63
1.64
1.58
1.38
1.05
0.66
0.30
0.01
-0.20
-0.42
-0.71
-1.09
-1.54
-1.95
-2.24
-2.33
-2.21
-1.90
-1.45
-0.93
-0.40
0.11
0.55
0.90
1.15
1.29
1.35
1.36
1.38
1.44
1.55
1.68
1.81
1.93
2.04
2.15
2.22
2.22
2.13
1.93
1.63
1.30
1.03
0.89
0.93
1.13
1.42
1.67
1.74
1.56
1.15
0.62
0.11
-0.23
-0.39
-0.40
-0.35
-0.29
-0.24
-0.18
-0.13
-0.14
-0.30
-0.61
-1.02
-1.37
-1.52
-1.42
-1.10
-0.68
-0.26
0.11
0.42
0.71
0.98
1.22
1.41
1.51
1.54
1.54
1.52
1.52
1.54
1.59
1.65
1.73
1.83
1.90
1.92
1.86
1.73
1.58
1.44
1.35
1.27
1.16
0.97
0.70
0.41
0.17
0.04
0.02
0.03
-0.01
-0.17
-0.43
-0.72
-0.95
-1.08
-1.13
-1.16
-1.24
-1.43
-1.71
-2.05
-2.39
-2.63
-2.70
-2.54
-2.12
-1.48
-0.69
0.10
0.76
1.18
1.32
1.23
0.98
0.67
0.40
0.26
0.36
0.76
1.49
2.44
3.40
4.13
4.42
4.26
3.77
3.17
2.65
2.26
1.97
1.66
1.29
0.92
0.66
0.59
0.69
0.85
0.91
0.83
0.60
0.35
0.17
0.12
0.11
0.04
-0.22
-0.70
-1.32
-1.94
-2.40
-2.61
-2.60
-2.46
-2.28
-2.11
-1.95
-1.72
-1.39
-0.99
-0.60
-0.30
-0.13
-0.04
0.06
0.29
0.66
1.15
1.68
2.14
2.47
2.64
2.65
2.52
2.29
2.03
1.82
1.74
1.84
2.10
2.44
2.72
2.82
2.67
2.26
1.69
1.09
0.63
0.41
0.44
0.64
0.85
0.88
0.59
-0.05
-0.98
-2.03
-2.99
-3.75
-4.29
-4.69
-5.10
-5.63
-6.34
-7.17
-8.02
-8.73
-9.17
-9.30
-9.12
-8.73
-8.21
-7.64
-7.07
-6.52
-5.99
-5.47
-4.94
-4.35
-3.66
-2.82
-1.86
-0.86
0.08
0.85
1.43
1.89
2.37
2.97
3.75
4.65
5.55
6.29
6.79
7.01
7.01
6.85
6.59
6.29
5.96
5.60
5.20
4.75
4.26
3.78
3.38
3.13
3.05
3.10
3.16
3.09
2.80
2.28
1.59
0.85
0.16
-0.46
-1.01
-1.52
-2.00
-2.44
-2.81
-3.03
-3.06
-2.82
-2.28
-1.48
-0.51
0.50
1.38
2.01
2.32
2.28
1.96
1.43
0.83
0.29
-0.09
-0.26
-0.26
-0.20
-0.21
-0.37
-0.64
-0.92
-1.07
-1.02
-0.74
-0.30
0.19
0.63
0.91
0.99
0.87
0.62
0.34
0.13
0.06
0.08
0.11
0.02
-0.29
-0.80
-1.43
-1.97
-2.24
-2.12
-1.60
-0.77
0.17
1.03
1.64
1.99
2.12
2.19
2.32
2.59
2.94
3.26
3.41
3.31
2.97
2.44
1.81
1.14
0.44
-0.31
-1.09
-1.89
-2.63
-3.25
-3.73
-4.12
-4.49
-4.89
-5.28
-5.52
-5.43
-4.84
-3.62
-1.72
0.84
4.00
7.68
11.71
15.87
19.80
23.10
25.39
26.43
26.18
24.86
22.81
20.45
18.16
16.23
14.86
14.16
14.10
14.52
15.11
15.45
15.20
14.13
12.30
9.95
7.39
4.91
2.61
0.48
-1.50
-3.33
-4.97
-6.32
-7.40
-8.33
-9.29
-10.45
-11.83
-13.30
-14.59
-15.45
-15.74
-15.50
-14.92
-14.25
-13.71
-13.40
-13.32
-13.42
-13.65
-13.97
-14.42
-15.00
-15.70
-16.49
-17.33
-18.15
-18.88
-19.46
-19.84
-19.96
-19.76
-19.20
-18.22
-16.77
-14.77
-12.18
-9.03
-5.42
-1.50
2.51
6.44
10.12
13.47
16.37
18.67
20.12
20.49
19.62
17.55
14.55
11.12
7.74
4.78
2.33
0.26
-1.71
-3.76
-5.92
-8.00
-9.74
-10.91
-11.45
-11.41
-10.97
-10.28
-9.46
-8.62
-7.84
-7.16
-6.60
-6.04
-5.32
-4.34
-3.09
-1.75
-0.53
0.41
1.12
1.77
2.61
3.73
4.99
6.12
6.83
7.01
6.77
6.35
5.98
5.78
5.72
5.70
5.67
5.65
5.69
5.85
6.08
6.24
6.11
5.51
4.39
2.88
1.25
-0.22
-1.35
-2.12
-2.68
-3.24
-3.97
-4.86
-5.73
-6.34
-6.47
-6.09
-5.37
-4.65
-4.24
-4.32
-4.79
-5.30
-5.38
-4.61
-2.74
0.25
4.23
8.89
13.77
18.24
21.56
23.14
22.86
21.15
18.91
17.04
15.94
15.30
14.31
12.21
8.82
4.73
1.01
-1.39
-2.13
-1.56
-0.49
0.40
0.90
1.31
2.16
3.82
6.18
8.70
10.65
11.44
10.86
9.05
6.32
3.02
-0.55
-4.03
-7.05
-9.20
-10.29
-10.43
-10.07
-9.77
-9.88
-10.35
-10.72
-10.40
-8.98
-6.46
-3.28
-0.10
2.44
3.90
4.10
3.07
1.03
-1.73
-4.87
-8.09
-11.09
-13.68
-15.73
-17.19
-18.10
-18.52
-18.54
-18.24
-17.66
-16.83
-15.72
-14.33
-12.69
-10.88
-9.03
-7.29
-5.80
-4.63
-3.77
-3.14
-2.66
-2.29
-1.99
-1.77
-1.62
-1.52
-1.41
-1.24
-0.96
-0.56
-0.08
0.42
0.88
1.22
1.40
1.39
1.17
0.78
0.25
-0.34
-0.89
-1.30
-1.52
-1.56
-1.52
-1.53
-1.72
-2.14
-2.71
-3.33
-3.89
-4.29
-4.56
-4.74
-4.90
-5.01
-4.99
-4.69
-3.94
-2.68
-0.91
1.24
3.65
6.21
8.87
11.60
14.41
17.24
20.04
22.74
25.32
27.73
29.88
31.52
32.28
31.73
29.61
25.94
21.10
15.70
10.41
5.65
1.56
-1.96
-5.16
-8.17
-11.03
-13.58
-15.65
-17.07
-17.70
-17.52
-16.52
-14.79
-12.50
-9.92
-7.38
-5.19
-3.62
-2.76
-2.61
-3.02
-3.82
-4.79
-5.78
-6.69
-7.48
-8.12
-8.62
-8.93
-8.96
-8.64
-7.97
-7.00
-5.86
-4.68
-3.54
-2.46
-1.36
-0.19
1.02
2.17
3.09
3.67
3.87
3.77
3.48
3.13
2.78
2.43
2.02
1.53
0.97
0.41
-0.01
-0.17
-0.03
0.33
0.73
0.93
0.75
0.16
-0.71
-1.64
-2.43
-2.98
-3.34
-3.61
-3.84
-3.99
-3.97
-3.74
-3.34
-2.95
-2.73
-2.76
-2.96
-3.18
-3.24
-3.10
-2.84
-2.65
-2.67
-2.97
-3.48
-4.08
-4.62
-5.03
-5.29
-5.44
-5.48
-5.41
-5.14
-4.53
-3.45
-1.82
0.38
3.06
6.09
9.31
12.54
15.62
18.40
20.79
22.72
24.16
25.06
25.32
24.79
23.27
20.64
16.95
12.48
7.65
2.91
-1.45
-5.34
-8.89
-12.29
-15.66
-18.94
-21.92
-24.30
-25.88
-26.63
-26.74
-26.49
-26.12
-25.69
-25.02
-23.83
-21.82
-18.84
-14.91
-10.22
-5.01
0.47
5.99
11.37
16.41
20.96
24.91
28.22
30.90
33.00
34.59
35.79
36.69
37.41
38.06
38.65
39.15
39.41
39.21
38.25
36.22
32.88
28.17
22.31
15.78
9.19
3.14
-1.98
-6.03
-9.04
-11.19
-12.72
-13.97
-15.37
-17.42
-20.55
-24.93
-30.38
-36.30
-41.88
-46.25
-48.78
-49.11
-47.22
-43.40
-38.09
-31.89
-25.37
-19.07
-13.35
-8.38
-4.22
-0.83
1.81
3.70
4.84
5.32
5.29
4.98
4.61
4.30
4.06
3.87
3.74
3.69
3.78
3.99
4.26
4.43
4.36
3.97
3.28
2.40
1.47
0.60
-0.14
-0.73
-1.15
-1.39
-1.46
-1.35
-1.08
-0.74
-0.41
-0.21
-0.19
-0.32
-0.52
-0.65
-0.60
-0.34
0.14
0.77
1.49
2.23
2.95
3.59
4.11
4.45
4.61
4.63
4.63
4.74
5.03
5.53
6.17
6.84
7.39
7.70
7.67
7.26
6.54
5.61
4.64
3.79
3.14
2.70
2.45
2.32
2.29
2.34
2.44
2.56
2.60
2.50
2.20
1.74
1.17
0.60
0.10
-0.26
-0.47
-0.61
-0.75
-1.00
-1.36
-1.78
-2.10
-2.17
-1.91
-1.37
-0.71
-0.08
0.41
0.77
1.07
1.38
1.70
1.96
2.08
2.01
1.82
1.64
1.56
1.66
1.88
2.13
2.30
2.32
2.17
1.86
1.40
0.83
0.15
-0.58
-1.27
-1.77
-1.97
-1.80
-1.29
-0.60
0.08
0.55
0.77
0.80
0.82
0.95
1.21
1.50
1.62
1.48
1.08
0.59
0.25
0.20
0.49
1.06
1.77
2.52
3.26
3.96
4.57
5.00
5.15
4.95
4.46
3.83
3.27
2.97
3.03
3.41
3.98
4.55
4.94
5.01
4.67
3.92
2.85
1.68
0.66
-0.03
-0.36
-0.51
-0.81
-1.60
-3.08
-5.20
-7.72
-10.27
-12.54
-14.28
-15.31
-15.53
-14.97
-13.82
-12.42
-11.21
-10.50
-10.31
-10.36
-10.18
-9.39
-7.93
-6.07
-4.27
-2.92
-2.15
-1.87
-1.84
-1.90
-2.03
-2.29
-2.69
-3.16
-3.50
-3.52
-3.14
-2.41
-1.42
-0.25
1.12
2.79
4.85
7.28
9.94
12.56
14.81
16.38
17.11
17.01
16.22
15.04
13.71
12.38
11.07
9.66
8.07
6.28
4.38
2.52
0.82
-0.66
-1.94
-3.01
-3.85
-4.41
-4.70
-4.81
-4.92
-5.15
-5.55
-5.98
-6.26
-6.25
-5.92
-5.37
-4.72
-4.03
-3.27
-2.39
-1.42
-0.46
0.26
0.58
0.42
-0.15
-0.97
-1.87
-2.73
-3.46
-4.00
-4.30
-4.32
-4.07
-3.62
-3.02
-2.35
-1.59
-0.69
0.35
1.43
2.39
3.05
3.28
3.14
2.74
2.29
1.90
1.58
1.26
0.86
0.32
-0.32
-0.96
-1.52
-1.97
-2.36
-2.75
-3.16
-3.56
-3.87
-4.05
-4.08
-4.00
-3.87
-3.69
-3.45
-3.12
-2.70
-2.24
-1.83
-1.52
-1.33
-1.15
-0.89
-0.46
0.12
0.75
1.30
1.70
1.92
2.03
2.12
2.23
2.37
2.48
2.52
2.48
2.44
2.45
2.56
2.72
2.83
2.79
2.54
2.13
1.64
1.16
0.74
0.36
0.02
-0.29
-0.56
-0.74
-0.82
-0.81
-0.77
-0.75
-0.84
-1.05
-1.38
-1.81
-2.27
-2.70
-3.04
-3.25
-3.32
-3.23
-2.95
-2.49
-1.86
-1.14
-0.44
0.12
0.47
0.63
0.64
0.60
0.59
0.65
0.77
0.93
1.08
1.18
1.18
1.08
0.88
0.63
0.41
0.30
0.36
0.58
0.87
1.06
0.98
0.50
-0.40
-1.59
-2.88
-4.07
-5.02
-5.72
-6.24
-6.65
-7.01
-7.30
-7.47
-7.52
-7.50
-7.46
-7.42
-7.35
-7.13
-6.65
-5.90
-4.92
-3.82
-2.65
-1.35
0.21
2.15
4.50
7.13
9.86
12.47
14.84
16.89
18.57
19.82
20.59
20.80
20.47
19.68
18.57
17.27
15.85
14.25
12.36
10.15
7.70
5.23
3.06
1.40
0.25
-0.56
-1.37
-2.43
-3.85
-5.51
-7.19
-8.69
-9.93
-10.96
-11.87
-12.75
-13.59
-14.32
-14.81
-14.93
-14.63
-13.91
-12.86
-11.57
-10.14
-8.64
-7.09
-5.51
-3.95
-2.52
-1.37
-0.65
-0.45
-0.71
-1.27
-1.90
-2.39
-2.63
-2.60
-2.41
-2.23
-2.19
-2.38
-2.75
-3.22
-3.63
-3.87
-3.91
-3.78
-3.55
-3.29
-3.01
-2.66
-2.19
-1.57
-0.86
-0.19
0.31
0.58
0.67
0.70
0.80
1.03
1.34
1.60
1.67
1.48
1.06
0.51
-0.01
-0.36
-0.47
-0.32
0.01
0.43
0.84
1.18
1.43
1.62
1.78
1.94
2.07
2.16
2.20
2.23
2.29
2.44
2.71
3.15
3.76
4.52
5.38
6.26
7.01
7.56
7.88
8.02
8.11
8.22
8.34
8.40
8.29
8.00
7.66
7.40
7.32
7.37
7.38
7.16
6.62
5.83
4.98
4.22
3.60
3.02
2.34
1.49
0.53
-0.38
-1.10
-1.56
-1.81
-1.98
-2.15
-2.34
-2.53
-2.67
-2.79
-2.94
-3.19
-3.55
-3.96
-4.29
-4.40
-4.23
-3.81
-3.23
-2.62
-2.08
-1.67
-1.42
-1.27
-1.13
-0.90
-0.49
0.12
0.84
1.49
1.91
1.98
1.73
1.31
0.90
0.60
0.47
0.46
0.52
0.62
0.80
1.07
1.40
1.72
1.92
1.96
1.81
1.52
1.15
0.76
0.40
0.07
-0.21
-0.42
-0.57
-0.68
-0.76
-0.85
-0.94
-1.01
-1.02
-0.93
-0.76
-0.51
-0.22
0.11
0.50
0.94
1.41
1.85
2.16
2.30
2.26
2.09
1.89
1.74
1.66
1.64
1.61
1.56
1.46
1.35
1.25
1.12
0.92
0.59
0.11
-0.44
-0.92
-1.18
-1.14
-0.81
-0.31
0.21
0.66
0.99
1.21
1.32
1.30
1.13
0.82
0.44
0.09
-0.19
-0.40
-0.64
-0.97
-1.38
-1.73
-1.87
-1.69
-1.24
-0.66
-0.15
0.18
0.31
0.30
0.28
0.30
0.35
0.34
0.24
0.04
-0.19
-0.35
-0.36
-0.20
0.07
0.38
0.65
0.85
0.98
1.02
0.94
0.72
0.33
-0.16
-0.62
-0.91
-0.97
-0.81
-0.54
-0.30
-0.21
-0.30
-0.56
-0.93
-1.35
-1.74
-2.10
-2.41
-2.66
-2.88
-3.08
-3.26
-3.38
-3.42
-3.32
-3.08
-2.73
-2.30
-1.83
-1.34
-0.83
-0.32
0.15
0.55
0.82
0.97
1.07
1.15
1.29
1.48
1.72
1.99
2.27
2.55
2.82
3.10
3.37
3.67
3.98
4.29
4.57
4.76
4.79
4.62
4.22
3.63
2.93
2.22
1.59
1.13
0.85
0.70
0.59
0.45
0.23
-0.06
-0.35
-0.58
-0.71
-0.73
-0.68
-0.58
-0.45
-0.26
-0.01
0.29
0.61
0.93
1.25
1.56
1.92
2.34
2.80
3.26
3.59
3.70
3.53
3.09
2.49
1.87
1.35
1.01
0.84
0.77
0.67
0.42
-0.03
-0.62
-1.26
-1.82
-2.24
-2.52
-2.71
-2.87
-3.03
-3.18
-3.33
-3.50
-3.76
-4.16
-4.66
-5.16
-5.51
-5.60
-5.46
-5.21
-5.00
-4.92
-4.92
-4.85
-4.54
-3.94
-3.14
-2.33
-1.71
-1.38
-1.33
-1.47
-1.67
-1.89
-2.07
-2.23
-2.34
-2.38
-2.29
-2.06
-1.69
-1.18
-0.56
0.15
0.91
1.63
2.24
2.71
3.11
3.53
4.10
4.85
5.73
6.58
7.29
7.80
8.17
8.44
8.65
8.81
8.88
8.91
8.98
9.14
9.39
9.57
9.48
8.94
7.90
6.47
4.86
3.31
1.94
0.82
-0.10
-0.86
-1.49
-1.97
-2.29
-2.43
-2.46
-2.46
-2.58
-2.89
-3.39
-3.97
-4.47
-4.70
-4.61
-4.26
-3.80
-3.39
-3.08
-2.83
-2.50
-2.02
-1.37
-0.66
-0.05
0.30
0.30
-0.05
-0.71
-1.62
-2.72
-3.93
-5.21
-6.47
-7.69
-8.84
-9.95
-11.05
-12.09
-12.93
-13.37
-13.23
-12.50
-11.42
-10.38
-9.76
-9.71
-10.01
-10.12
-9.36
-7.19
-3.38
1.95
8.38
15.35
22.17
28.07
32.24
34.06
33.25
30.11
25.46
20.38
15.84
12.33
9.80
7.84
6.01
4.12
2.28
0.75
-0.27
-0.77
-0.92
-0.99
-1.13
-1.38
-1.67
-1.90
-2.03
-2.11
-2.21
-2.37
-2.58
-2.73
-2.76
-2.60
-2.29
-1.93
-1.63
-1.52
-1.60
-1.83
-2.08
-2.23
-2.18
-1.96
-1.68
-1.51
-1.63
-2.10
-2.87
-3.78
-4.61
-5.25
-5.68
-6.02
-6.39
-6.94
-7.69
-8.60
-9.57
-10.49
-11.25
-11.75
-11.95
-11.81
-11.32
-10.49
-9.33
-7.97
-6.54
-5.22
-4.17
-3.43
-2.96
-2.62
-2.27
-1.82
-1.28
-0.76
-0.36
-0.15
-0.12
-0.16
-0.16
-0.05
0.22
0.63
1.12
1.62
2.12
2.60
3.10
3.63
4.18
4.71
5.15
5.43
5.48
5.25
4.72
3.90
2.88
1.78
0.72
-0.22
-1.04
-1.84
-2.70
-3.69
-4.74
-5.72
-6.44
-6.74
-6.55
-5.84
-4.70
-3.29
-1.79
-0.43
0.64
1.31
1.61
1.61
1.47
1.29
1.17
1.15
1.23
1.43
1.67
1.88
1.95
1.77
1.34
0.73
0.05
-0.62
-1.21
-1.75
-2.28
-2.77
-3.18
-3.48
-3.64
-3.73
-3.78
-3.78
-3.65
-3.25
-2.50
-1.47
-0.33
0.66
1.30
1.50
1.31
0.87
0.33
-0.21
-0.71
-1.25
-1.88
-2.62
-3.42
-4.16
-4.67
-4.85
-4.66
-4.16
-3.50
-2.85
-2.33
-1.99
-1.78
-1.57
-1.24
-0.76
-0.19
0.26
0.37
-0.05
-0.99
-2.28
-3.68
-4.95
-5.98
-6.82
-7.58
-8.40
-9.33
-10.34
-11.29
-12.05
-12.58
-12.85
-12.90
-12.69
-12.10
-10.96
-8.97
-5.81
-1.25
4.79
12.26
20.94
30.39
40.06
49.22
56.63
60.97
61.11
56.62
48.05
36.76
24.37
12.75
2.54
-6.05
-12.91
-18.04
-21.45
-23.17
-22.95
-20.71
-16.59
-11.01
-4.50
2.35
8.92
14.72
19.37
22.60
24.28
24.45
23.35
21.47
19.37
17.47
15.85
14.35
12.61
10.39
7.73
4.94
2.50
0.74
-0.40
-1.30
-2.52
-4.41
-7.01
-9.91
-12.48
-14.21
-14.88
-14.77
-14.39
-14.14
-14.18
-14.36
-14.36
-13.91
-13.03
-11.99
-11.24
-11.08
-11.55
-12.53
-13.85
-15.48
-17.46
-20.01
-23.21
-27.20
-31.92
-37.23
-42.93
-48.75
-54.37
-59.26
-63.06
-63.99
-60.91
-53.62
-43.02
-30.83
-18.77
-8.91
-1.22
4.89
9.92
13.96
16.93
18.86
19.75
19.78
19.22
18.51
17.81
17.17
16.41
15.34
13.89
12.14
10.29
8.61
7.42
6.78
6.63
6.80
7.19
7.83
8.85
10.42
12.62
15.48
18.75
22.11
25.18
27.66
29.31
29.96
29.55
28.15
25.96
23.21
20.15
16.99
13.87
10.85
7.97
5.24
2.65
0.19
-2.18
-4.50
-6.74
-8.83
-10.72
-12.40
-13.95
-15.55
-17.32
-19.27
-21.25
-23.00
-24.26
-24.90
-24.95
-24.57
-23.95
-23.20
-22.30
-21.11
-19.39
-16.86
-13.26
-8.37
-2.05
5.64
14.42
23.77
32.94
41.11
47.50
51.60
53.21
52.51
49.85
45.62
40.13
33.54
26.06
18.06
10.20
3.30
-1.88
-4.91
-5.88
-5.29
-3.84
-2.11
-0.36
1.44
3.47
5.86
8.54
11.28
13.80
15.91
17.59
18.94
20.05
20.85
21.08
20.38
18.46
15.25
10.90
5.71
-0.01
-5.97
-11.91
-17.55
-22.60
-26.84
-30.13
-32.52
-34.14
-35.12
-35.53
-35.40
-34.79
-33.86
-32.83
-31.83
-30.77
-29.40
-27.39
-24.57
-21.09
-17.41
-14.07
-11.50
-9.70
-8.22
-6.26
-2.90
2.61
10.63
20.94
32.61
44.00
53.01
57.57
56.36
49.43
38.33
25.64
14.03
5.32
-0.07
-2.91
-4.48
-5.87
-7.48
-9.17
-10.67
-11.95
-13.28
-15.06
-17.45
-20.23
-22.94
-25.08
-26.37
-26.87
-26.86
-26.65
-26.47
-26.35
-26.13
-25.57
-24.43
-22.57
-20.02
-16.98
-13.82
-10.93
-8.59
-6.88
-5.60
-4.41
-2.97
-1.07
1.25
3.79
6.30
8.53
10.28
11.38
11.68
11.03
9.43
7.12
4.58
2.51
1.54
2.02
3.88
6.62
9.59
12.20
14.16
15.55
16.66
17.78
18.98
20.09
20.77
20.73
19.87
18.40
16.69
15.20
14.31
14.28
15.15
16.71
18.46
19.64
19.41
17.10
12.58
6.30
-0.78
-7.57
-13.25
-17.47
-20.32
-22.03
-22.77
-22.54
-21.27
-19.05
-16.22
-13.35
-10.93
-9.20
-8.00
-6.94
-5.60
-3.76
-1.55
0.68
2.54
3.76
4.34
4.50
4.55
4.77
5.27
6.00
6.75
7.28
7.42
7.08
6.35
5.41
4.49
3.82
3.49
3.48
3.64
3.78
3.71
3.33
2.66
1.80
0.86
-0.07
-0.94
-1.75
-2.47
-3.03
-3.36
-3.43
-3.28
-3.04
-2.83
-2.72
-2.68
-2.68
-2.67
-2.64
-2.67
-2.83
-3.16
-3.63
-4.19
-4.80
-5.47
-6.23
-7.06
-7.89
-8.53
-8.72
-8.20
-6.77
-4.38
-1.10
2.77
6.83
10.59
13.59
15.52
16.31
16.11
15.25
14.12
13.01
12.04
11.18
10.27
9.17
7.84
6.35
4.86
3.55
2.59
2.06
1.95
2.22
2.76
3.47
4.18
4.76
5.06
5.00
4.59
3.90
3.05
2.16
1.34
0.62
0.01
-0.54
-1.06
-1.58
-2.09
-2.52
-2.79
-2.86
-2.71
-2.40
-2.02
-1.65
-1.38
-1.21
-1.14
-1.16
-1.25
-1.39
-1.56
-1.76
-1.96
-2.18
-2.45
-2.86
-3.44
-4.18
-4.94
-5.53
-5.75
-5.51
-4.84
-3.93
-3.00
-2.24
-1.74
-1.45
-1.26
-1.05
-0.79
-0.49
-0.21
-0.01
0.15
0.34
0.65
1.11
1.69
2.28
2.73
2.96
2.90
2.55
1.89
0.89
-0.43
-2.03
-3.77
-5.47
-6.92
-8.03
-8.74
-9.06
-9.02
-8.66
-8.04
-7.27
-6.45
-5.68
-5.01
-4.42
-3.88
-3.39
-2.98
-2.74
-2.69
-2.78
-2.88
-2.86
-2.63
-2.20
-1.62
-0.98
-0.34
0.29
0.91
1.48
1.94
2.23
2.30
2.15
1.80
1.27
0.57
-0.27
-1.20
-2.15
-3.03
-3.78
-4.37
-4.84
-5.25
-5.64
-6.06
-6.50
-6.94
-7.33
-7.62
-7.78
-7.74
-7.48
-6.91
-5.95
-4.50
-2.48
0.09
3.11
6.33
9.47
12.28
14.60
16.38
17.71
18.70
19.50
20.19
20.82
21.33
21.69
21.87
21.85
21.67
21.35
20.85
20.19
19.41
18.60
17.89
17.28
16.60
15.51
13.56
10.43
5.97
0.36
-5.99
-12.52
-18.63
-23.76
-27.50
-29.59
-30.00
-28.85
-26.41
-22.95
-18.74
-14.07
-9.20
-4.49
-0.29
3.11
5.53
6.94
7.45
7.31
6.82
6.32
6.17
6.67
7.99
10.09
12.69
15.38
17.71
19.33
20.08
19.94
18.98
17.40
15.49
13.72
12.71
12.99
14.75
17.58
20.56
22.45
22.23
19.44
14.27
7.49
0.07
-7.06
-13.12
-17.58
-20.14
-20.79
-19.81
-17.76
-15.29
-12.92
-10.87
-9.09
-7.41
-5.72
-4.06
-2.63
-1.61
-1.12
-1.18
-1.76
-2.82
-4.34
-6.25
-8.39
-10.55
-12.45
-13.84
-14.61
-14.79
-14.53
-14.04
-13.49
-12.98
-12.53
-12.09
-11.63
-11.13
-10.65
-10.20
-9.80
-9.42
-9.01
-8.59
-8.19
-7.88
-7.70
-7.61
-7.54
-7.41
-7.19
-6.93
-6.69
-6.53
-6.46
-6.45
-6.46
-6.49
-6.54
-6.62
-6.67
-6.65
-6.54
-6.36
-6.17
-6.04
-6.03
-6.15
-6.38
-6.67
-6.97
-7.21
-7.30
-7.18
-6.88
-6.46
-6.05
-5.76
-5.63
-5.58
-5.48
-5.22
-4.81
-4.34
-3.97
-3.82
-3.87
-4.05
-4.20
-4.21
-4.01
-3.56
-2.80
-1.65
-0.01
2.20
5.01
8.31
11.94
15.62
19.05
21.91
23.90
24.80
24.54
23.24
21.18
18.72
16.19
13.82
11.68
9.71
7.78
5.70
3.25
0.19
-3.68
-8.33
-13.47
-18.47
-22.54
-25.04
-25.70
-24.69
-22.43
-19.31
-15.49
-10.91
-5.52
0.48
6.56
12.04
16.33
19.12
20.45
20.59
19.88
18.64
17.21
15.97
15.28
15.43
16.47
18.20
20.28
22.38
24.31
26.04
27.55
28.78
29.49
29.29
27.75
24.49
19.38
12.67
4.99
-2.76
-9.62
-14.94
-18.56
-20.84
-22.40
-23.79
-25.21
-26.43
-27.07
-26.81
-25.65
-23.88
-21.90
-19.99
-18.18
-16.34
-14.30
-12.04
-9.73
-7.62
-5.99
-4.95
-4.44
-4.25
-4.15
-3.94
-3.52
-2.95
-2.36
-1.88
-1.61
-1.51
-1.50
-1.44
-1.26
-0.96
-0.64
-0.38
-0.25
-0.22
-0.18
-0.03
0.33
0.92
1.68
2.43
3.02
3.30
3.24
2.90
2.43
2.01
1.76
1.66
1.59
1.34
0.71
-0.35
-1.73
-3.20
-4.44
-5.16
-5.26
-4.78
-3.90
-2.84
-1.78
-0.85
-0.10
0.46
0.82
0.97
0.96
0.83
0.68
0.58
0.55
0.55
0.56
0.56
0.52
0.45
0.36
0.24
0.11
-0.02
-0.06
0.04
0.34
0.83
1.43
2.03
2.50
2.78
2.85
2.76
2.61
2.47
2.38
2.34
2.32
2.26
2.15
2.01
1.88
1.78
1.68
1.54
1.28
0.90
0.42
-0.07
-0.50
-0.80
-0.95
-0.95
-0.81
-0.52
-0.10
0.43
1.02
1.59
2.06
2.36
2.45
2.31
1.99
1.60
1.27
1.08
1.07
1.19
1.35
1.44
1.41
1.24
0.94
0.54
0.07
-0.46
-1.02
-1.58
-2.09
-2.50
-2.76
-2.87
-2.84
-2.74
-2.65
-2.65
-2.79
-3.07
-3.46
-3.91
-4.33
-4.66
-4.82
-4.78
-4.57
-4.32
-4.14
-4.14
-4.34
-4.68
-5.04
-5.32
-5.43
-5.36
-5.14
-4.81
-4.47
-4.19
-4.02
-3.96
-3.98
-3.98
-3.95
-3.89
-3.83
-3.82
-3.84
-3.81
-3.62
-3.19
-2.50
-1.60
-0.56
0.57
1.77
3.05
4.37
5.71
7.01
8.25
9.43
10.59
11.76
13.01
14.32
15.63
16.81
17.67
18.06
17.92
17.28
16.26
15.04
13.78
12.59
11.51
10.54
9.65
8.81
8.00
7.17
6.26
5.22
4.04
2.77
1.52
0.41
-0.46
-1.04
-1.37
-1.54
-1.63
-1.72
-1.84
-1.93
-1.93
-1.76
-1.36
-0.74
0.06
0.96
1.88
2.73
3.45
3.95
4.12
3.92
3.32
2.42
1.34
0.20
-0.91
-2.01
-3.16
-4.43
-5.86
-7.40
-8.90
-10.24
-11.31
-12.14
-12.84
-13.54
-14.31
-15.13
-15.90
-16.50
-16.93
-17.24
-17.58
-18.04
-18.61
-19.21
-19.70
-19.98
-19.95
-19.60
-18.89
-17.77
-16.21
-14.20
-11.83
-9.17
-6.36
-3.51
-0.73
1.87
4.20
6.19
7.87
9.31
10.64
11.95
13.22
14.36
15.27
15.91
16.40
16.94
17.75
18.88
20.23
21.54
22.59
23.27
23.56
23.51
23.10
22.22
20.78
18.80
16.48
14.13
12.06
10.42
9.18
8.14
7.14
6.06
4.93
3.80
2.70
1.62
0.52
-0.62
-1.76
-2.84
-3.80
-4.60
-5.28
-5.84
-6.28
-6.60
-6.82
-7.01
-7.23
-7.55
-7.92
-8.27
-8.48
-8.51
-8.41
-8.30
-8.26
-8.30
-8.31
-8.16
-7.80
-7.25
-6.66
-6.16
-5.79
-5.47
-5.00
-4.21
-2.98
-1.32
0.64
2.74
4.81
6.72
8.37
9.70
10.68
11.30
11.59
11.57
11.27
10.70
9.87
8.87
7.81
6.86
6.15
5.77
5.66
5.69
5.73
5.68
5.63
5.79
6.46
7.82
9.86
12.26
14.46
15.82
15.85
14.37
11.62
8.17
4.77
2.14
0.73
0.65
1.60
2.99
4.15
4.52
3.87
2.30
0.15
-2.18
-4.38
-6.24
-7.68
-8.61
-8.92
-8.55
-7.60
-6.38
-5.35
-4.97
-5.44
-6.69
-8.36
-10.02
-11.37
-12.28
-12.84
-13.23
-13.58
-13.88
-13.94
-13.43
-12.00
-9.45
-5.76
-1.16
3.95
9.11
13.89
17.93
20.90
22.49
22.45
20.65
17.21
12.54
7.28
2.15
-2.27
-5.69
-8.08
-9.60
-10.46
-10.85
-10.89
-10.70
-10.38
-10.07
-9.90
-9.91
-10.09
-10.36
-10.66
-11.00
-11.51
-12.39
-13.83
-15.86
-18.36
-21.02
-23.42
-25.19
-26.04
-25.90
-24.85
-23.06
-20.69
-17.83
-14.49
-10.68
-6.44
-1.93
2.63
6.94
10.76
13.89
16.28
17.99
19.15
19.89
20.25
20.22
19.71
18.65
17.08
15.08
12.82
10.42
8.01
5.62
3.33
1.17
-0.82
-2.59
-4.14
-5.50
-6.63
-7.46
-7.93
-8.02
-7.84
-7.60
-7.53
-7.77
-8.32
-9.02
-9.63
-9.95
-9.86
-9.35
-8.51
-7.45
-6.29
-5.17
-4.22
-3.58
-3.31
-3.33
-3.43
-3.33
-2.82
-1.82
-0.48
0.97
2.25
3.25
3.99
4.56
5.09
5.57
5.90
5.98
5.76
5.31
4.76
4.28
3.94
3.73
3.57
3.36
3.06
2.71
2.37
2.12
2.00
1.98
2.00
1.94
1.71
1.25
0.61
-0.05
-0.52
-0.61
-0.22
0.56
1.51
2.36
2.88
3.00
2.84
2.61
2.49
2.59
2.86
3.16
3.35
3.35
3.23
3.12
3.16
3.43
3.93
4.60
5.35
6.08
6.67
6.95
6.72
5.83
4.30
2.37
0.50
-0.85
-1.39
-1.16
-0.53
-0.01
0.05
-0.42
-1.19
-1.93
-2.40
-2.55
-2.59
-2.72
-3.11
-3.67
-4.19
-4.44
-4.26
-3.72
-3.02
-2.41
-2.10
-2.13
-2.42
-2.82
-3.21
-3.57
-3.90
-4.24
-4.52
-4.64
-4.46
-3.98
-3.24
-2.40
-1.61
-0.92
-0.28
0.45
1.41
2.67
4.20
5.86
7.43
8.64
9.32
9.38
8.92
8.17
7.37
6.74
6.35
6.15
6.04
5.90
5.66
5.30
4.76
3.99
2.92
1.54
-0.11
-1.87
-3.58
-5.11
-6.42
-7.52
-8.46
-9.28
-9.97
-10.44
-10.58
-10.30
-9.56
-8.39
-6.92
-5.30
-3.70
-2.25
-1.06
-0.20
0.33
0.53
0.49
0.34
0.22
0.24
0.44
0.78
1.25
1.82
2.54
3.41
4.41
5.44
6.37
7.07
7.52
7.74
7.76
7.62
7.34
6.92
6.42
5.92
5.50
5.20
5.03
4.94
4.91
4.96
5.12
5.41
5.76
6.06
6.13
5.86
5.22
4.29
3.20
2.14
1.22
0.51
-0.01
-0.39
-0.72
-1.10
-1.55
-2.07
-2.61
-3.04
-3.29
-3.30
-3.11
-2.84
-2.63
-2.57
-2.66
-2.86
-3.06
-3.21
-3.32
-3.43
-3.60
-3.82
-4.04
-4.19
-4.21
-4.10
-3.91
-3.71
-3.56
-3.48
-3.50
-3.60
-3.76
-3.93
-4.06
-4.12
-4.10
-4.01
-3.87
-3.71
-3.56
-3.41
-3.29
-3.22
-3.23
-3.37
-3.61
-3.90
-4.17
-4.40
-4.63
-4.93
-5.34
-5.84
-6.34
-6.68
-6.73
-6.43
-5.83
-5.05
-4.21
-3.39
-2.61
-1.83
-1.03
-0.22
0.52
1.12
1.53
1.78
1.98
2.23
2.61
3.10
3.61
3.99
4.14
4.03
3.71
3.29
2.88
2.52
2.23
1.97
1.72
1.46
1.13
0.69
0.06
-0.81
-1.91
-3.12
-4.29
-5.26
-5.94
-6.35
-6.56
-6.68
-6.80
-6.95
-7.11
-7.21
-7.13
-6.75
-5.97
-4.80
-3.37
-1.91
-0.62
0.36
1.05
1.61
2.22
2.99
3.93
4.93
5.82
6.48
6.83
6.90
6.73
6.40
5.95
5.39
4.71
3.91
3.05
2.19
1.38
0.67
0.06
-0.48
-0.98
-1.44
-1.87
-2.24
-2.55
-2.78
-2.92
-2.95
-2.90
-2.85
-2.88
-3.10
-3.51
-4.08
-4.70
-5.27
-5.73
-6.05
-6.19
-6.11
-5.73
-4.98
-3.89
-2.56
-1.21
-0.08
0.68
1.04
1.13
1.16
1.32
1.68
2.18
2.60
2.74
2.47
1.84
1.04
0.30
-0.14
-0.19
0.11
0.60
1.05
1.24
1.07
0.59
0.06
-0.15
0.24
1.30
2.84
4.46
5.74
6.40
6.41
5.94
5.32
4.98
5.45
7.29
10.90
16.23
22.52
28.38
32.21
32.85
30.15
25.04
19.15
14.02
10.50
8.59
7.67
7.03
6.28
5.35
4.36
3.28
1.89
-0.11
-2.82
-6.09
-9.47
-12.54
-15.12
-17.39
-19.84
-23.05
-27.40
-32.87
-38.94
-44.56
-48.47
-49.52
-47.09
-41.31
-32.97
-23.27
-13.39
-4.14
4.16
11.67
18.76
25.75
32.61
38.96
44.15
47.50
48.58
47.36
44.26
40.03
35.49
31.18
27.28
23.73
20.42
17.41
14.80
12.69
11.06
9.66
8.01
5.62
2.26
-2.00
-6.76
-11.71
-16.66
-21.68
-26.96
-32.81
-39.24
-45.86
-51.95
-56.53
-59.11
-59.75
-59.06
-56.83
-53.07
-47.78
-41.03
-34.03
-26.77
-18.90
-10.04
0.29
12.02
24.40
36.13
45.54
51.05
51.84
47.78
39.55
28.43
15.91
3.37
-7.99
-17.15
-23.38
-26.27
-26.07
-23.61
-19.99
-16.22
-12.88
-10.07
-7.50
-4.79
-1.66
1.85
5.47
8.87
11.80
14.10
15.68
16.56
16.72
16.25
15.28
14.00
12.67
11.53
10.76
10.43
10.54
10.97
11.63
12.37
13.07
13.65
14.04
14.21
14.15
13.83
13.21
12.28
11.06
9.59
7.98
6.33
4.75
3.33
2.12
1.16
0.44
-0.05
-0.40
-0.68
-0.97
-1.32
-1.73
-2.18
-2.64
-3.11
-3.64
-4.29
-5.08
-5.95
-6.75
-7.32
-7.53
-7.35
-6.86
-6.19
-5.44
-4.71
-4.02
-3.41
-2.94
-2.62
-2.43
-2.31
-2.16
-1.89
-1.53
-1.11
-0.71
-0.31
0.12
0.70
1.49
2.47
3.54
4.55
5.31
5.70
5.64
5.13
4.26
3.14
1.93
0.75
-0.33
-1.27
-2.11
-2.90
-3.67
-4.45
-5.20
-5.90
-6.49
-6.98
-7.36
-7.64
-7.77
-7.67
-7.27
-6.54
-5.54
-4.45
-3.49
-2.80
-2.42
-2.24
-2.10
-1.87
-1.50
-1.04
-0.62
-0.33
-0.26
-0.37
-0.63
-0.98
-1.38
-1.79
-2.19
-2.50
-2.67
-2.63
-2.37
-1.99
-1.59
-1.30
-1.14
-1.05
-0.90
-0.60
-0.12
0.52
1.19
1.82
2.36
2.80
3.13
3.32
3.32
3.05
2.51
1.76
0.93
0.19
-0.32
-0.54
-0.46
-0.15
0.34
0.93
1.58
2.21
2.76
3.14
3.32
3.31
3.19
2.98
2.72
2.37
1.93
1.47
1.09
0.94
1.09
1.48
1.98
2.42
2.69
2.81
2.87
2.96
3.12
3.32
3.52
3.72
3.99
4.45
5.15
6.05
7.00
7.80
8.31
8.50
8.43
8.21
7.94
7.64
7.27
6.80
6.20
5.49
4.72
3.89
3.05
2.21
1.41
0.68
0.06
-0.44
-0.82
-1.07
-1.15
-1.06
-0.82
-0.53
-0.30
-0.24
-0.38
-0.63
-0.85
-0.92
-0.77
-0.43
-0.02
0.35
0.61
0.72
0.73
0.74
0.82
1.04
1.35
1.69
1.92
1.95
1.74
1.35
0.82
0.21
-0.47
-1.22
-2.01
-2.78
-3.41
-3.82
-4.03
-4.12
-4.21
-4.39
-4.64
-4.84
-4.86
-4.59
-4.01
-3.24
-2.42
-1.72
-1.24
-1.04
-1.11
-1.40
-1.83
-2.32
-2.81
-3.25
-3.65
-3.99
-4.30
-4.56
-4.75
-4.83
-4.75
-4.49
-4.03
-3.38
-2.60
-1.78
-0.98
-0.27
0.36
0.94
1.50
2.05
2.55
2.93
3.11
3.08
2.86
2.51
2.06
1.52
0.86
0.07
-0.83
-1.78
-2.67
-3.36
-3.73
-3.71
-3.31
-2.65
-1.90
-1.26
-0.88
-0.77
-0.88
-1.05
-1.19
-1.25
-1.24
-1.22
-1.19
-1.15
-1.02
-0.76
-0.36
0.16
0.75
1.36
1.98
2.58
3.13
3.58
3.88
4.04
4.08
4.11
4.22
4.49
4.92
5.43
5.86
6.04
5.86
5.31
4.48
3.55
2.70
2.05
1.62
1.33
1.09
0.79
0.38
-0.12
-0.63
-1.07
-1.35
-1.40
-1.23
-0.88
-0.47
-0.09
0.18
0.32
0.38
0.40
0.39
0.33
0.18
-0.07
-0.37
-0.62
-0.74
-0.67
-0.45
-0.20
-0.01
0.04
0.00
-0.06
-0.08
-0.02
0.08
0.15
0.16
0.08
-0.06
-0.23
-0.40
-0.55
-0.69
-0.81
-0.87
-0.88
-0.87
-0.91
-1.13
-1.60
-2.30
-3.07
-3.70
-4.00
-3.87
-3.39
-2.72
-2.05
-1.54
-1.26
-1.20
-1.27
-1.39
-1.48
-1.50
-1.48
-1.46
-1.54
-1.73
-1.95
-2.02
-1.74
-0.97
0.24
1.73
3.27
4.68
5.94
7.13
8.33
9.59
10.85
11.95
12.74
13.12
13.06
12.66
12.05
11.37
10.73
10.13
9.51
8.77
7.81
6.62
5.27
3.89
2.66
1.69
1.03
0.66
0.46
0.30
0.05
-0.36
-0.92
-1.51
-2.03
-2.38
-2.57
-2.69
-2.85
-3.17
-3.69
-4.36
-5.10
-5.80
-6.38
-6.80
-7.08
-7.27
-7.46
-7.75
-8.25
-8.98
-9.89
-10.87
-11.80
-12.58
-13.19
-13.68
-14.08
-14.38
-14.56
-14.61
-14.56
-14.52
-14.58
-14.78
-15.04
-15.18
-15.03
-14.47
-13.55
-12.37
-11.09
-9.81
-8.54
-7.21
-5.76
-4.14
-2.38
-0.54
1.27
3.00
4.60
6.07
7.37
8.49
9.38
10.00
10.35
10.45
10.35
10.11
9.84
9.59
9.39
9.20
8.93
8.51
7.92
7.20
6.44
5.71
5.04
4.36
3.62
2.79
1.94
1.20
0.67
0.42
0.37
0.44
0.50
0.48
0.38
0.18
-0.11
-0.47
-0.86
-1.22
-1.43
-1.35
-0.89
-0.05
1.08
2.29
3.41
4.29
4.87
5.20
5.40
5.58
5.80
6.07
6.34
6.57
6.73
6.86
6.96
6.98
6.87
6.56
6.03
5.38
4.74
4.22
3.82
3.45
2.99
2.37
1.65
0.98
0.49
0.22
0.11
0.01
-0.14
-0.38
-0.62
-0.81
-0.92
-0.98
-1.08
-1.27
-1.57
-1.99
-2.51
-3.09
-3.70
-4.29
-4.79
-5.15
-5.31
-5.27
-5.03
-4.64
-4.14
-3.61
-3.15
-2.80
-2.57
-2.39
-2.15
-1.78
-1.27
-0.75
-0.36
-0.24
-0.36
-0.58
-0.70
-0.55
-0.16
0.35
0.78
1.01
1.05
1.00
0.99
1.07
1.21
1.33
1.37
1.32
1.22
1.12
1.06
1.00
0.92
0.77
0.53
0.23
-0.07
-0.31
-0.41
-0.37
-0.29
-0.29
-0.50
-0.96
-1.63
-2.37
-3.01
-3.46
-3.68
-3.67
-3.48
-3.15
-2.73
-2.29
-1.91
-1.65
-1.51
-1.47
-1.46
-1.41
-1.31
-1.19
-1.07
-0.95
-0.74
-0.32
0.40
1.47
2.82
4.30
5.77
7.11
8.25
9.15
9.78
10.16
10.33
10.38
10.41
10.51
10.67
10.78
10.71
10.35
9.66
8.72
7.64
6.54
5.44
4.33
3.12
1.78
0.31
-1.21
-2.63
-3.78
-4.53
-4.82
-4.70
-4.33
-3.90
-3.54
-3.30
-3.10
-2.83
-2.40
-1.82
-1.21
-0.73
-0.50
-0.60
-0.99
-1.63
-2.49
-3.55
-4.86
-6.43
-8.29
-10.40
-12.71
-15.14
-17.57
-19.85
-21.83
-23.44
-24.64
-25.48
-26.03
-26.29
-26.17
-25.54
-24.25
-22.26
-19.60
-16.40
-12.80
-8.97
-5.03
-1.13
2.57
5.90
8.80
11.28
13.47
15.51
17.47
19.26
20.71
21.62
21.89
21.54
20.71
19.57
18.23
16.74
15.13
13.44
11.82
10.39
9.22
8.25
7.31
6.22
4.89
3.36
1.79
0.34
-0.91
-1.97
-2.97
-4.01
-5.18
-6.49
-7.81
-9.04
-10.01
-10.66
-10.95
-10.94
-10.74
-10.47
-10.23
-10.08
-10.07
-10.19
-10.38
-10.54
-10.51
-10.13
-9.32
-8.05
-6.41
-4.48
-2.40
-0.22
1.99
4.13
6.07
7.66
8.82
9.55
9.98
10.26
10.53
10.86
11.22
11.53
11.68
11.62
11.29
10.70
9.92
9.00
8.04
7.07
6.12
5.19
4.27
3.41
2.65
2.00
1.41
0.83
0.20
-0.48
-1.13
-1.65
-1.97
-2.14
-2.27
-2.50
-2.86
-3.29
-3.62
-3.72
-3.51
-3.05
-2.44
-1.80
-1.20
-0.64
-0.09
0.44
0.91
1.25
1.42
1.42
1.33
1.28
1.34
1.51
1.72
1.86
1.85
1.69
1.42
1.14
0.91
0.75
0.67
0.63
0.61
0.54
0.38
0.11
-0.25
-0.60
-0.84
-0.91
-0.85
-0.79
-0.87
-1.17
-1.67
-2.24
-2.73
-3.04
-3.08
-2.85
-2.37
-1.67
-0.83
0.02
0.77
1.31
1.61
1.74
1.77
1.82
1.91
2.05
2.18
2.28
2.33
2.36
2.41
2.53
2.72
2.93
3.11
3.22
3.27
3.30
3.40
3.61
3.92
4.26
4.51
4.59
4.49
4.26
4.00
3.79
3.68
3.66
3.71
3.78
3.86
3.95
4.03
4.11
4.20
4.28
4.31
4.22
3.88
3.14
1.86
-0.08
-2.68
-5.84
-9.33
-12.81
-15.93
-18.37
-20.01
-20.91
-21.33
-21.59
-21.95
-22.49
-23.10
-23.59
-23.77
-23.53
-22.88
-21.83
-20.38
-18.43
-15.86
-12.57
-8.55
-3.97
0.87
5.60
9.89
13.50
16.31
18.33
19.67
20.43
20.68
20.49
19.87
18.89
17.63
16.19
14.63
12.95
11.10
8.97
6.50
3.67
0.57
-2.69
-5.93
-9.01
-11.75
-14.04
-15.74
-16.79
-17.16
-16.88
-15.99
-14.54
-12.57
-10.14
-7.35
-4.37
-1.37
1.48
4.08
6.43
8.52
10.36
11.88
12.98
13.60
13.76
13.53
13.05
12.38
11.58
10.66
9.63
8.58
7.63
6.86
6.28
5.77
5.19
4.45
3.54
2.58
1.70
1.04
0.58
0.27
-0.01
-0.33
-0.71
-1.11
-1.49
-1.81
-2.07
-2.27
-2.40
-2.41
-2.28
-2.02
-1.70
-1.42
-1.27
-1.27
-1.39
-1.58
-1.78
-1.94
-2.07
-2.18
-2.28
-2.37
-2.44
-2.51
-2.57
-2.67
-2.85
-3.12
-3.44
-3.70
-3.77
-3.55
-3.08
-2.47
-1.89
-1.46
-1.20
-1.00
-0.74
-0.33
0.15
0.55
0.73
0.62
0.32
-0.00
-0.19
-0.19
-0.05
0.11
0.20
0.18
0.08
-0.03
-0.07
-0.03
0.09
0.26
0.43
0.58
0.67
0.74
0.82
0.93
1.08
1.23
1.37
1.46
1.52
1.59
1.72
1.95
2.27
2.60
2.87
2.98
2.91
2.64
2.21
1.64
0.96
0.18
-0.64
-1.40
-1.93
-2.09
-1.84
-1.25
-0.58
-0.10
-0.01
-0.32
-0.89
-1.45
-1.77
-1.76
-1.48
-1.06
-0.68
-0.40
-0.25
-0.18
-0.15
-0.17
-0.26
-0.40
-0.58
-0.71
-0.74
-0.63
-0.40
-0.12
0.13
0.29
0.31
0.16
-0.19
-0.71
-1.33
-1.95
-2.48
-2.85
-3.06
-3.18
-3.26
-3.30
-3.27
-3.14
-2.90
-2.59
-2.31
-2.12
-2.03
-2.01
-2.02
-2.02
-2.02
-2.02
-2.02
-1.94
-1.69
-1.22
-0.53
0.28
1.03
1.55
1.69
1.42
0.80
0.02
-0.77
-1.45
-2.02
-2.54
-3.07
-3.57
-3.96
-4.12
-3.95
-3.47
-2.72
-1.76
-0.59
0.81
2.44
4.19
5.89
7.32
8.36
9.02
9.44
9.83
10.42
11.35
12.62
14.11
15.65
17.06
18.27
19.32
20.39
21.65
23.24
25.16
27.36
29.71
32.02
34.00
35.26
35.39
34.07
31.25
27.18
22.32
17.18
12.06
7.05
2.08
-2.89
-7.80
-12.43
-16.54
-19.97
-22.69
-24.76
-26.25
-27.19
-27.58
-27.46
-26.95
-26.24
-25.55
-24.99
-24.50
-23.94
-23.06
-21.72
-19.88
-17.62
-15.13
-12.67
-10.49
-8.87
-8.05
-8.19
-9.30
-11.19
-13.48
-15.69
-17.40
-18.38
-18.64
-18.34
-17.71
-16.92
-16.00
-14.90
-13.47
-11.59
-9.20
-6.33
-3.06
0.45
3.99
7.29
10.05
11.94
12.70
12.29
10.91
8.98
7.05
5.51
4.52
3.97
3.64
3.40
3.34
3.72
4.82
6.71
9.19
11.86
14.25
15.94
16.64
16.20
14.58
11.89
8.32
4.25
0.13
-3.52
-6.17
-7.40
-6.95
-4.75
-0.95
4.14
10.13
16.60
23.11
29.15
34.09
37.28
38.22
36.72
33.07
27.96
22.24
16.70
11.83
7.79
4.50
1.80
-0.42
-2.31
-3.98
-5.58
-7.26
-9.07
-10.94
-12.73
-14.34
-15.80
-17.28
-19.04
-21.25
-23.84
-26.44
-28.48
-29.30
-28.31
-25.15
-19.78
-12.59
-4.40
3.72
10.64
15.53
18.09
18.58
17.63
15.98
14.18
12.41
10.56
8.42
5.87
2.98
-0.08
-3.10
-5.98
-8.70
-11.29
-13.78
-16.12
-18.23
-20.00
-21.33
-22.09
-22.14
-21.35
-19.55
-16.68
-12.80
-8.12
-2.95
2.30
7.23
11.48
14.84
17.25
18.80
19.68
20.10
20.25
20.17
19.83
19.10
17.89
16.15
13.95
11.47
8.96
6.59
4.46
2.51
0.64
-1.25
-3.15
-4.96
-6.57
-7.98
-9.29
-10.69
-12.28
-14.05
-15.81
-17.38
-18.59
-19.39
-19.75
-19.63
-18.84
-17.20
-14.60
-11.10
-6.92
-2.44
2.01
6.15
9.78
12.79
15.12
16.70
17.55
17.75
17.39
16.47
14.90
12.52
9.18
4.93
-0.01
-5.26
-10.40
-15.08
-19.08
-22.32
-24.80
-26.60
-27.84
-28.64
-29.08
-29.15
-28.72
-27.60
-25.68
-23.01
-19.91
-16.83
-14.27
-12.55
-11.75
-11.62
-11.72
-11.51
-10.55
-8.61
-5.77
-2.39
1.06
4.17
6.73
8.80
10.58
12.25
13.83
15.09
15.69
15.29
13.75
11.21
8.01
4.58
1.38
-1.21
-2.94
-3.77
-3.88
-3.68
-3.71
-4.37
-5.80
-7.67
-9.38
-10.24
-9.84
-8.23
-5.83
-3.28
-1.11
0.44
1.44
2.15
2.82
3.56
4.34
5.05
5.59
5.93
6.11
6.18
6.24
6.42
6.90
7.93
9.74
12.44
15.93
19.76
23.28
25.75
26.58
25.54
22.84
19.02
14.81
10.88
7.65
5.25
3.57
2.42
1.64
1.15
0.95
1.06
1.41
1.90
2.34
2.57
2.42
1.75
0.43
-1.58
-4.14
-6.88
-9.22
-10.54
-10.45
-8.96
-6.47
-3.68
-1.28
0.28
0.83
0.47
-0.61
-2.18
-4.02
-5.90
-7.49
-8.48
-8.55
-7.58
-5.65
-3.13
-0.56
1.46
2.54
2.58
1.85
0.87
0.14
-0.03
0.30
0.78
0.99
0.63
-0.25
-1.40
-2.41
-3.03
-3.22
-3.25
-3.53
-4.44
-6.15
-8.54
-11.23
-13.72
-15.55
-16.40
-16.10
-14.61
-11.97
-8.33
-3.97
0.65
4.97
8.38
10.39
10.85
9.96
8.22
6.21
4.38
2.96
1.92
1.14
0.46
-0.14
-0.63
-0.91
-0.92
-0.70
-0.34
0.03
0.25
0.24
-0.07
-0.66
-1.42
-2.21
-2.87
-3.31
-3.48
-3.41
-3.14
-2.71
-2.20
-1.74
-1.49
-1.56
-1.91
-2.32
-2.43
-1.93
-0.67
1.22
3.41
5.48
7.09
8.12
8.63
8.75
8.59
8.12
7.26
5.96
4.25
2.31
0.39
-1.30
-2.61
-3.50
-4.05
-4.38
-4.56
-4.65
-4.59
-4.35
-3.87
-3.16
-2.28
-1.31
-0.36
0.54
1.39
2.23
3.07
3.88
4.63
5.26
5.80
6.28
6.75
7.24
7.74
8.21
8.60
8.88
9.00
8.92
8.64
8.20
7.69
7.20
6.78
6.37
5.86
5.19
4.38
3.56
2.90
2.47
2.22
1.99
1.58
0.90
0.02
-0.87
-1.55
-1.80
-1.50
-0.65
0.67
2.24
3.76
4.91
5.48
5.43
4.88
4.04
3.06
1.99
0.79
-0.57
-2.01
-3.29
-4.19
-4.58
-4.53
-4.26
-4.01
-3.94
-4.05
-4.25
-4.47
-4.69
-4.97
-5.38
-5.93
-6.57
-7.19
-7.70
-7.98
-7.97
-7.64
-7.03
-6.24
-5.40
-4.65
-4.01
-3.41
-2.73
-1.87
-0.83
0.30
1.37
2.29
3.01
3.55
3.93
4.14
4.16
4.02
3.78
3.59
3.56
3.71
3.98
4.24
4.39
4.37
4.23
4.08
3.99
3.98
3.99
3.90
3.65
3.24
2.75
2.33
2.07
1.98
1.99
2.01
1.98
1.92
1.90
1.99
2.13
2.16
1.90
1.25
0.28
-0.74
-1.50
-1.71
-1.31
-0.38
0.86
2.19
3.44
4.53
5.39
5.98
6.26
6.23
5.97
5.58
5.20
4.88
4.61
4.30
3.83
3.17
2.30
1.28
0.15
-1.04
-2.27
-3.49
-4.60
-5.47
-5.97
-6.06
-5.80
-5.39
-5.01
-4.80
-4.76
-4.80
-4.83
-4.81
-4.79
-4.89
-5.16
-5.58
-6.07
-6.50
-6.74
-6.73
-6.46
-5.98
-5.35
-4.65
-3.91
-3.13
-2.26
-1.30
-0.27
0.69
1.45
1.90
2.03
1.93
1.73
1.54
1.42
1.37
1.36
1.37
1.39
1.45
1.54
1.65
1.74
1.79
1.80
1.80
1.82
1.87
1.94
2.00
2.01
1.95
1.82
1.66
1.51
1.43
1.42
1.47
1.51
1.49
1.37
1.17
0.96
0.81
0.76
0.81
0.90
0.90
0.73
0.37
-0.13
-0.64
-0.98
-1.08
-0.90
-0.57
-0.21
0.01
0.05
-0.07
-0.25
-0.43
-0.59
-0.78
-1.06
-1.43
-1.79
-1.98
-1.91
-1.53
-0.97
-0.41
-0.02
0.09
-0.05
-0.34
-0.67
-0.92
-1.05
-1.05
-0.94
-0.72
-0.45
-0.14
0.13
0.32
0.38
0.30
0.08
-0.21
-0.45
-0.50
-0.23
0.45
1.56
3.01
4.68
6.37
7.92
9.19
10.07
10.53
10.56
10.15
9.30
8.01
6.28
4.19
1.88
-0.44
-2.54
-4.25
-5.50
-6.34
-6.93
-7.42
-7.93
-8.51
-9.13
-9.73
-10.22
-10.52
-10.57
-10.30
-9.70
-8.82
-7.77
-6.73
-5.86
-5.26
-4.89
-4.62
-4.23
-3.56
-2.56
-1.29
0.08
1.36
2.42
3.26
3.93
4.53
5.09
5.58
5.92
6.02
5.86
5.54
5.18
4.88
4.71
4.63
4.55
4.37
4.05
3.57
2.97
2.31
1.66
1.07
0.61
0.33
0.29
0.49
0.89
1.36
1.73
1.81
1.47
0.67
-0.48
-1.75
-2.92
-3.79
-4.35
-4.68
-4.95
-5.31
-5.77
-6.26
-6.61
-6.70
-6.47
-6.00
-5.44
-4.95
-4.61
-4.40
-4.24
-4.02
-3.69
-3.26
-2.79
-2.33
-1.89
-1.43
-0.92
-0.38
0.18
0.68
1.11
1.48
1.82
2.18
2.58
3.00
3.38
3.69
3.86
3.88
3.71
3.31
2.66
1.80
0.83
-0.09
-0.75
-1.02
-0.86
-0.36
0.28
0.87
1.26
1.43
1.43
1.36
1.32
1.35
1.46
1.63
1.81
1.97
2.07
2.10
2.06
1.98
1.89
1.82
1.77
1.76
1.75
1.72
1.62
1.40
1.08
0.72
0.46
0.45
0.77
1.46
2.43
3.58
4.79
5.94
6.87
7.45
7.53
7.07
6.15
4.91
3.53
2.10
0.58
-1.10
-2.94
-4.82
-6.50
-7.69
-8.23
-8.15
-7.66
-7.05
-6.54
-6.27
-6.20
-6.24
-6.26
-6.18
-5.96
-5.63
-5.20
-4.65
-3.99
-3.19
-2.24
-1.19
-0.12
0.90
1.84
2.69
3.51
4.38
5.33
6.32
7.22
7.85
8.06
7.78
7.08
6.15
5.23
4.52
4.13
4.02
4.04
4.02
3.84
3.49
3.11
2.82
2.69
2.59
2.28
1.46
-0.02
-2.06
-4.31
-6.22
-7.32
-7.34
-6.33
-4.54
-2.28
0.15
2.48
4.26
4.92
3.83
0.64
-4.40
-10.38
-16.05
-20.27
-22.46
-22.83
-22.08
-20.99
-20.07
-19.36
-18.70
-17.86
-16.79
-15.53
-14.05
-12.12
-9.30
-5.19
0.41
7.30
14.88
22.28
28.49
32.64
34.17
32.95
29.40
24.36
18.86
13.75
9.44
5.85
2.64
-0.44
-3.21
-5.11
-5.52
-4.24
-1.77
0.94
2.96
3.99
4.50
5.48
7.80
11.72
16.69
21.72
25.76
28.14
28.65
27.36
24.50
20.30
15.11
9.49
4.30
0.54
-0.98
-0.10
2.53
5.58
7.39
6.74
3.23
-2.56
-9.38
-15.93
-21.35
-25.38
-28.08
-29.45
-29.25
-27.10
-22.87
-17.05
-10.71
-5.10
-1.24
0.57
0.66
-0.18
-1.13
-1.73
-1.87
-1.75
-1.59
-1.52
-1.50
-1.39
-1.08
-0.55
0.11
0.77
1.29
1.59
1.63
1.43
1.01
0.46
-0.09
-0.50
-0.57
-0.19
0.67
1.99
3.65
5.53
7.47
9.27
10.70
11.52
11.64
11.07
9.99
8.64
7.16
5.63
4.00
2.26
0.47
-1.26
-2.78
-3.98
-4.91
-5.64
-6.28
-6.86
-7.36
-7.68
-7.74
-7.50
-6.99
-6.27
-5.41
-4.46
-3.45
-2.38
-1.24
-0.05
1.17
2.35
3.45
4.41
5.23
5.88
6.35
6.63
6.76
6.81
6.92
7.20
7.68
8.27
8.77
8.95
8.67
7.95
6.96
5.96
5.19
4.74
4.55
4.41
4.14
3.59
2.77
1.77
0.73
-0.26
-1.19
-2.06
-2.88
-3.61
-4.16
-4.45
-4.41
-4.11
-3.66
-3.23
-2.92
-2.77
-2.74
-2.73
-2.68
-2.58
-2.44
-2.30
-2.20
-2.16
-2.22
-2.44
-2.90
-3.69
-4.86
-6.39
-8.20
-10.18
-12.21
-14.18
-15.95
-17.35
-18.16
-18.15
-17.16
-15.19
-12.45
-9.31
-6.18
-3.40
-1.16
0.58
1.90
2.91
3.63
4.08
4.28
4.31
4.31
4.39
4.52
4.60
4.45
3.94
3.09
2.02
0.95
0.05
-0.56
-0.88
-0.93
-0.74
-0.35
0.17
0.72
1.14
1.29
1.07
0.50
-0.31
-1.19
-1.99
-2.64
-3.15
-3.56
-3.89
-4.14
-4.33
-4.51
-4.75
-5.13
-5.65
-6.25
-6.82
-7.26
-7.54
-7.69
-7.78
-7.82
-7.80
-7.66
-7.36
-6.91
-6.35
-5.69
-4.89
-3.90
-2.72
-1.41
-0.13
0.98
1.87
2.56
3.20
3.90
4.72
5.63
6.62
7.66
8.79
10.01
11.26
12.42
13.34
13.93
14.21
14.27
14.21
14.09
13.89
13.54
12.96
12.10
10.97
9.67
8.30
6.92
5.58
4.27
2.96
1.63
0.27
-1.12
-2.53
-3.94
-5.30
-6.51
-7.43
-7.98
-8.15
-8.00
-7.66
-7.22
-6.78
-6.34
-5.92
-5.58
-5.38
-5.40
-5.64
-6.02
-6.44
-6.78
-6.94
-6.92
-6.72
-6.37
-5.94
-5.48
-5.05
-4.71
-4.45
-4.24
-4.02
-3.73
-3.35
-2.97
-2.66
-2.54
-2.63
-2.89
-3.21
-3.49
-3.66
-3.74
-3.83
-4.01
-4.34
-4.78
-5.29
-5.82
-6.39
-7.07
-7.95
-9.08
-10.46
-12.01
-13.68
-15.35
-16.92
-18.26
-19.11
-19.18
-18.17
-15.95
-12.60
-8.47
-4.00
0.35
4.27
7.58
10.26
12.42
14.23
15.94
17.81
20.00
22.49
25.03
27.27
28.88
29.72
29.90
29.68
29.30
28.83
28.20
27.25
25.92
24.28
22.54
20.87
19.37
17.97
16.52
14.93
13.20
11.47
9.87
8.48
7.20
5.90
4.41
2.69
0.86
-0.92
-2.46
-3.66
-4.54
-5.21
-5.76
-6.27
-6.76
-7.19
-7.52
-7.72
-7.78
-7.69
-7.44
-7.07
-6.60
-6.10
-5.65
-5.27
-4.98
-4.74
-4.52
-4.31
-4.08
-3.85
-3.62
-3.41
-3.23
-3.09
-3.02
-3.04
-3.16
-3.37
-3.65
-3.99
-4.38
-4.79
-5.18
-5.54
-5.87
-6.23
-6.67
-7.20
-7.77
-8.25
-8.52
-8.55
-8.36
-8.07
-7.76
-7.46
-7.18
-6.84
-6.43
-5.95
-5.41
-4.85
-4.27
-3.67
-3.07
-2.55
-2.16
-1.92
-1.79
-1.66
-1.40
-0.93
-0.24
0.63
1.60
2.60
3.54
4.34
4.95
5.33
5.52
5.59
5.62
5.69
5.77
5.81
5.70
5.39
4.93
4.42
4.00
3.76
3.72
3.81
3.93
4.01
3.99
3.89
3.69
3.37
2.86
2.06
0.93
-0.44
-1.86
-3.07
-3.84
-4.04
-3.71
-3.06
-2.33
-1.75
-1.43
-1.38
-1.48
-1.57
-1.49
-1.17
-0.61
0.08
0.73
1.18
1.35
1.27
1.06
0.86
0.75
0.76
0.81
0.83
0.73
0.44
-0.09
-0.90
-2.03
-3.47
-5.17
-6.93
-8.48
-9.52
-9.85
-9.44
-8.50
-7.36
-6.41
-5.92
-5.96
-6.44
-7.16
-7.89
-8.48
-8.81
-8.81
-8.40
-7.55
-6.35
-4.94
-3.57
-2.46
-1.69
-1.22
-0.88
-0.52
-0.01
0.62
1.26
1.76
2.04
2.11
2.06
2.02
2.13
2.48
3.10
3.95
4.97
6.05
7.09
8.02
8.79
9.38
9.81
10.09
10.21
10.17
9.93
9.51
8.95
8.32
7.67
7.03
6.36
5.63
4.78
3.78
2.66
1.47
0.30
-0.77
-1.63
-2.23
-2.54
-2.56
-2.29
-1.74
-0.93
0.10
1.28
2.48
3.55
4.41
5.04
5.50
5.88
6.23
6.57
6.87
7.08
7.13
6.93
6.39
5.43
4.09
2.49
0.82
-0.76
-2.23
-3.73
-5.51
-7.77
-10.62
-13.96
-17.63
-21.32
-24.74
-27.59
-29.60
-30.54
-30.38
-29.23
-27.28
-24.66
-21.30
-16.90
-11.16
-4.10
3.80
11.56
17.92
21.79
22.50
20.07
15.08
8.58
1.81
-4.10
-8.39
-10.83
-11.76
-11.86
-11.76
-11.76
-11.70
-11.19
-9.96
-8.12
-6.13
-4.51
-3.53
-3.07
-2.78
-2.33
-1.65
-0.95
-0.50
-0.46
-0.74
-1.13
-1.42
-1.50
-1.35
-0.92
-0.07
1.36
3.44
6.08
8.97
11.73
14.08
15.93
17.38
18.65
19.93
21.32
22.79
24.21
25.39
26.16
26.38
26.05
25.39
24.75
24.53
25.00
26.06
27.32
28.14
27.93
26.33
23.32
19.17
14.23
8.87
3.28
-2.40
-8.14
-13.89
-19.60
-25.21
-30.58
-35.42
-39.22
-41.26
-40.90
-37.83
-32.38
-25.48
-18.41
-12.37
-8.03
-5.38
-3.87
-2.80
-1.70
-0.48
0.70
1.59
2.11
2.35
2.44
2.44
2.26
1.72
0.74
-0.63
-2.17
-3.55
-4.53
-5.00
-4.99
-4.60
-3.86
-2.74
-1.11
1.15
4.12
7.76
11.87
16.07
19.87
22.70
24.11
23.87
22.13
19.37
16.24
13.37
11.13
9.58
8.53
7.67
6.74
5.60
4.28
2.93
1.74
0.89
0.47
0.48
0.83
1.40
2.07
2.80
3.60
4.49
5.49
6.56
7.57
8.35
8.74
8.65
8.08
7.15
6.08
5.07
4.29
3.74
3.29
2.69
1.67
0.02
-2.27
-5.06
-8.07
-10.96
-13.41
-15.12
-15.92
-15.72
-14.53
-12.50
-9.87
-7.01
-4.31
-2.11
-0.61
0.10
0.03
-0.80
-2.33
-4.45
-6.96
-9.55
-11.89
-13.73
-15.03
-15.90
-16.59
-17.25
-17.88
-18.34
-18.47
-18.21
-17.68
-17.05
-16.52
-16.13
-15.81
-15.39
-14.71
-13.66
-12.25
-10.56
-8.69
-6.79
-4.96
-3.31
-1.85
-0.55
0.65
1.76
2.73
3.45
3.82
3.86
3.69
3.54
3.59
3.90
4.37
4.74
4.82
4.52
3.93
3.31
2.89
2.79
3.01
3.43
3.93
4.42
4.89
5.35
5.82
6.27
6.69
7.05
7.41
7.83
8.37
9.07
9.89
10.78
11.65
12.43
13.01
13.31
13.20
12.62
11.54
9.99
8.06
5.87
3.60
1.41
-0.56
-2.24
-3.62
-4.75
-5.68
-6.45
-7.06
-7.50
-7.73
-7.76
-7.64
-7.41
-7.17
-6.96
-6.83
-6.76
-6.69
-6.50
-6.11
-5.46
-4.57
-3.53
-2.51
-1.61
-0.87
-0.24
0.41
1.16
1.96
2.65
2.99
2.83
2.17
1.27
0.44
-0.03
-0.08
0.15
0.37
0.39
0.19
-0.09
-0.22
-0.07
0.33
0.78
1.05
0.99
0.58
-0.05
-0.70
-1.21
-1.54
-1.75
-1.96
-2.25
-2.61
-2.95
-3.17
-3.18
-2.96
-2.54
-1.97
-1.32
-0.64
0.02
0.60
1.06
1.36
1.52
1.59
1.65
1.78
2.06
2.53
3.20
4.02
4.88
5.68
6.31
6.76
7.03
7.14
7.06
6.78
6.32
5.71
5.05
4.38
3.72
3.03
2.27
1.48
0.75
0.18
-0.15
-0.27
-0.27
-0.26
-0.30
-0.36
-0.34
-0.21
0.03
0.29
0.44
0.38
0.06
-0.52
-1.29
-2.13
-2.91
-3.49
-3.78
-3.74
-3.47
-3.11
-2.86
-2.87
-3.18
-3.71
-4.31
-4.81
-5.10
-5.14
-5.00
-4.75
-4.48
-4.24
-4.03
-3.82
-3.58
-3.34
-3.11
-2.94
-2.85
-2.79
-2.70
-2.54
-2.31
-2.04
-1.79
-1.57
-1.33
-1.02
-0.56
0.08
0.89
1.82
2.81
3.75
4.55
5.11
5.35
5.31
5.12
4.93
4.92
5.13
5.51
5.90
6.13
6.09
5.75
5.19
4.54
3.91
3.35
2.87
2.42
2.03
1.74
1.64
1.80
2.21
2.80
3.48
4.13
4.69
5.13
5.43
5.60
5.64
5.60
5.50
5.41
5.37
5.38
5.41
5.41
5.34
5.17
4.92
4.61
4.26
3.91
3.60
3.35
3.15
2.96
2.72
2.39
1.95
1.45
0.93
0.45
0.04
-0.33
-0.67
-1.02
-1.38
-1.75
-2.14
-2.56
-3.06
-3.66
-4.39
-5.25
-6.22
-7.21
-8.09
-8.68
-8.86
-8.61
-8.06
-7.42
-6.88
-6.53
-6.35
-6.22
-6.02
-5.66
-5.13
-4.49
-3.80
-3.15
-2.62
-2.27
-2.13
-2.18
-2.34
-2.52
-2.62
-2.57
-2.38
-2.06
-1.65
-1.24
-0.92
-0.79
-0.93
-1.37
-2.02
-2.76
-3.44
-3.94
-4.24
-4.39
-4.51
-4.73
-5.10
-5.63
-6.27
-6.95
-7.59
-8.16
-8.64
-9.03
-9.36
-9.66
-9.95
-10.23
-10.46
-10.59
-10.55
-10.30
-9.86
-9.31
-8.74
-8.23
-7.79
-7.36
-6.85
-6.19
-5.39
-4.55
-3.87
-3.53
-3.63
-4.08
-4.58
-4.71
-4.09
-2.50
-0.01
3.11
6.42
9.57
12.31
14.60
16.55
18.39
20.41
22.84
25.73
28.86
31.75
33.78
34.46
33.63
31.58
28.87
26.13
23.74
21.78
20.06
18.36
16.54
14.64
12.80
11.12
9.62
8.18
6.67
5.02
3.33
1.79
0.66
0.14
0.24
0.81
1.60
2.32
2.80
3.04
3.13
3.21
3.42
3.79
4.33
4.96
5.63
6.28
6.89
7.45
7.94
8.38
8.80
9.17
9.47
9.61
9.46
8.93
7.94
6.51
4.75
2.80
0.91
-0.72
-1.88
-2.48
-2.52
-2.16
-1.67
-1.41
-1.78
-3.11
-5.56
-9.14
-13.61
-18.54
-23.41
-27.69
-30.99
-33.08
-33.94
-33.69
-32.55
-30.76
-28.56
-26.14
-23.65
-21.19
-18.78
-16.41
-14.10
-11.92
-9.97
-8.36
-7.13
-6.21
-5.45
-4.71
-3.89
-3.02
-2.18
-1.46
-0.91
-0.49
-0.13
0.25
0.72
1.28
1.91
2.57
3.24
3.92
4.64
5.40
6.18
6.91
7.53
8.00
8.35
8.65
8.97
9.33
9.68
9.92
9.93
9.68
9.24
8.70
8.18
7.69
7.20
6.61
5.85
4.94
3.94
2.96
2.07
1.28
0.53
-0.21
-0.94
-1.63
-2.24
-2.77
-3.28
-3.87
-4.60
-5.46
-6.35
-7.15
-7.73
-8.01
-8.00
-7.75
-7.30
-6.69
-5.98
-5.21
-4.48
-3.84
-3.33
-2.95
-2.63
-2.30
-1.92
-1.49
-1.03
-0.58
-0.17
0.18
0.46
0.65
0.74
0.78
0.83
0.95
1.21
1.56
1.90
2.08
2.01
1.67
1.16
0.65
0.25
0.05
-0.02
-0.02
-0.06
-0.21
-0.48
-0.84
-1.26
-1.72
-2.25
-2.84
-3.50
-4.14
-4.65
-4.89
-4.78
-4.35
-3.76
-3.24
-3.00
-3.13
-3.54
-3.97
-4.19
-4.00
-3.44
-2.66
-1.84
-1.12
-0.52
-0.00
0.50
1.00
1.45
1.78
1.96
2.03
2.09
2.24
2.53
2.95
3.39
3.73
3.86
3.75
3.44
3.00
2.56
2.22
1.98
1.78
1.52
1.12
0.59
0.01
-0.47
-0.72
-0.72
-0.55
-0.37
-0.27
-0.27
-0.27
-0.12
0.28
0.90
1.63
2.31
2.81
3.08
3.11
2.93
2.58
2.10
1.53
0.93
0.41
0.02
-0.20
-0.26
-0.25
-0.23
-0.26
-0.37
-0.53
-0.70
-0.85
-0.95
-1.01
-1.06
-1.14
-1.26
-1.43
-1.64
-1.88
-2.14
-2.37
-2.48
-2.42
-2.16
-1.78
-1.39
-1.15
-1.12
-1.27
-1.48
-1.64
-1.69
-1.68
-1.68
-1.75
-1.88
-1.95
-1.82
-1.43
-0.80
-0.07
0.58
1.05
1.30
1.41
1.51
1.68
1.96
2.29
2.60
2.86
3.04
3.18
3.27
3.31
3.27
3.13
2.94
2.77
2.70
2.75
2.86
2.89
2.74
2.38
1.87
1.32
0.86
0.51
0.26
0.05
-0.17
-0.37
-0.54
-0.64
-0.68
-0.74
-0.92
-1.27
-1.76
-2.30
-2.75
-3.03
-3.13
-3.11
-3.01
-2.87
-2.65
-2.33
-1.89
-1.38
-0.88
-0.47
-0.18
-0.02
0.07
0.12
0.16
0.24
0.37
0.60
0.91
1.24
1.52
1.67
1.71
1.69
1.68
1.76
1.91
2.06
2.13
2.10
1.99
1.86
1.78
1.77
1.82
1.89
1.97
2.02
2.03
1.98
1.84
1.63
1.39
1.18
1.05
1.00
0.95
0.82
0.57
0.19
-0.23
-0.61
-0.89
-1.07
-1.16
-1.16
-1.07
-0.87
-0.56
-0.16
0.27
0.68
1.04
1.35
1.60
1.77
1.83
1.76
1.57
1.30
1.00
0.76
0.60
0.57
0.65
0.78
0.91
0.93
0.84
0.64
0.41
0.22
0.12
0.08
0.06
0.05
0.02
-0.01
-0.08
-0.27
-0.63
-1.13
-1.65
-1.98
-1.96
-1.61
-1.09
-0.67
-0.56
-0.83
-1.35
-1.87
-2.15
-2.06
-1.63
-1.01
-0.38
0.10
0.33
0.36
0.25
0.10
-0.01
-0.03
0.04
0.22
0.49
0.83
1.20
1.53
1.73
1.72
1.54
1.25
0.97
0.80
0.73
0.68
0.56
0.30
-0.05
-0.42
-0.69
-0.83
-0.89
-0.94
-1.03
-1.14
-1.21
-1.19
-1.12
-1.11
-1.29
-1.69
-2.20
-2.62
-2.76
-2.55
-2.05
-1.43
-0.85
-0.39
-0.09
0.11
0.23
0.26
0.20
0.09
0.03
0.11
0.41
0.90
1.49
2.04
2.44
2.64
2.67
2.56
2.35
2.07
1.76
1.43
1.14
0.93
0.84
0.86
0.98
1.12
1.24
1.30
1.27
1.16
0.99
0.78
0.55
0.32
0.10
-0.10
-0.25
-0.39
-0.51
-0.60
-0.65
-0.60
-0.43
-0.15
0.19
0.52
0.76
0.87
0.87
0.80
0.73
0.66
0.60
0.54
0.46
0.37
0.33
0.36
0.46
0.60
0.69
0.69
0.58
0.42
0.28
0.22
0.24
0.29
0.32
0.29
0.21
0.13
0.05
-0.03
-0.16
-0.35
-0.58
-0.81
-0.97
-1.04
-1.02
-0.97
-0.92
-0.94
-1.03
-1.16
-1.30
-1.39
-1.41
-1.39
-1.35
-1.32
-1.32
-1.35
-1.37
-1.33
-1.23
-1.07
-0.90
-0.74
-0.60
-0.46
-0.29
-0.07
0.18
0.43
0.64
0.79
0.88
0.91
0.90
0.83
0.67
0.42
0.11
-0.18
-0.39
-0.45
-0.36
-0.14
0.14
0.43
0.65
0.77
0.76
0.63
0.40
0.10
-0.27
-0.71
-1.17
-1.57
-1.82
-1.88
-1.81
-1.72
-1.78
-2.02
-2.42
-2.80
-3.01
-2.96
-2.66
-2.20
-1.65
-1.05
-0.36
0.45
1.35
2.26
3.07
3.69
4.09
4.32
4.46
4.60
4.79
5.06
5.37
5.63
5.77
5.73
5.50
5.12
4.63
4.10
3.58
3.09
2.66
2.30
2.02
1.79
1.59
1.35
1.05
0.70
0.34
0.01
-0.30
-0.63
-1.03
-1.49
-1.98
-2.40
-2.70
-2.87
-2.98
-3.15
-3.48
-4.00
-4.60
-5.12
-5.39
-5.35
-5.02
-4.53
-4.04
-3.66
-3.40
-3.22
-3.06
-2.89
-2.68
-2.46
-2.24
-2.01
-1.79
-1.58
-1.40
-1.29
-1.22
-1.15
-1.05
-0.91
-0.77
-0.72
-0.84
-1.13
-1.53
-1.93
-2.24
-2.44
-2.61
-2.85
-3.26
-3.83
-4.45
-4.98
-5.31
-5.41
-5.34
-5.25
-5.27
-5.50
-6.00
-6.78
-7.83
-9.09
-10.45
-11.72
-12.71
-13.22
-13.15
-12.48
-11.24
-9.51
-7.38
-4.90
-2.10
1.03
4.49
8.33
12.61
17.43
22.86
28.86
35.24
41.65
47.56
52.32
55.27
55.90
53.97
49.70
43.68
36.79
29.92
23.74
18.52
14.23
10.64
7.61
5.18
3.51
2.67
2.46
2.37
1.73
-0.00
-3.00
-6.99
-11.36
-15.48
-18.96
-21.72
-23.95
-25.86
-27.52
-28.76
-29.30
-28.93
-27.66
-25.77
-23.66
-21.64
-19.87
-18.27
-16.64
-14.83
-12.82
-10.70
-8.60
-6.58
-4.57
-2.41
0.05
2.83
5.78
8.63
11.12
13.08
14.52
15.57
16.36
16.99
17.44
17.65
17.55
17.04
16.05
14.54
12.52
10.08
7.40
4.68
2.13
-0.16
-2.22
-4.18
-6.21
-8.45
-10.97
-13.80
-16.88
-20.06
-23.02
-25.37
-26.72
-26.81
-25.68
-23.61
-21.02
-18.31
-15.72
-13.33
-11.14
-9.14
-7.32
-5.65
-4.05
-2.35
-0.45
1.72
4.10
6.53
8.82
10.80
12.34
13.36
13.80
13.69
13.12
12.28
11.35
10.47
9.70
8.99
8.21
7.26
6.05
4.57
2.88
1.11
-0.58
-2.04
-3.14
-3.81
-4.04
-3.84
-3.26
-2.34
-1.19
0.09
1.38
2.53
3.45
4.10
4.48
4.65
4.71
4.72
4.76
4.84
4.93
5.00
5.00
4.88
4.62
4.18
3.48
2.46
1.13
-0.43
-2.07
-3.61
-4.96
-6.10
-7.15
-8.19
-9.23
-10.18
-10.87
-11.17
-11.11
-10.83
-10.53
-10.36
-10.38
-10.53
-10.71
-10.85
-10.89
-10.84
-10.69
-10.44
-10.06
-9.58
-8.99
-8.28
-7.43
-6.44
-5.37
-4.39
-3.67
-3.35
-3.37
-3.54
-3.59
-3.34
-2.78
-2.07
-1.45
-1.08
-1.00
-1.13
-1.33
-1.49
-1.57
-1.60
-1.63
-1.69
-1.77
-1.85
-1.91
-1.94
-1.93
-1.86
-1.72
-1.48
-1.14
-0.74
-0.37
-0.11
-0.04
-0.20
-0.55
-1.02
-1.52
-1.96
-2.29
-2.47
-2.52
-2.44
-2.24
-1.92
-1.50
-0.98
-0.39
0.27
0.99
1.74
2.49
3.17
3.67
3.96
4.04
4.06
4.17
4.47
4.94
5.45
5.80
5.87
5.60
5.08
4.41
3.65
2.83
1.90
0.89
-0.11
-0.98
-1.58
-1.89
-1.97
-2.01
-2.13
-2.38
-2.70
-2.95
-3.01
-2.91
-2.79
-2.81
-3.09
-3.62
-4.20
-4.62
-4.74
-4.55
-4.18
-3.82
-3.63
-3.69
-3.94
-4.23
-4.38
-4.21
-3.65
-2.72
-1.54
-0.24
1.07
2.37
3.68
5.02
6.40
7.78
9.13
10.42
11.65
12.78
13.75
14.45
14.80
14.81
14.55
14.19
13.87
13.66
13.58
13.59
13.61
13.54
13.32
12.90
12.28
11.54
10.79
10.15
9.67
9.33
9.01
8.58
7.94
7.12
6.18
5.20
4.16
2.90
1.25
-0.93
-3.60
-6.51
-9.30
-11.60
-13.21
-14.04
-14.14
-13.52
-12.21
-10.23
-7.73
-4.97
-2.32
-0.14
1.39
2.32
2.85
3.27
3.74
4.26
4.72
4.94
4.81
4.37
3.75
3.09
2.45
1.77
0.94
-0.15
-1.48
-2.93
-4.30
-5.48
-6.41
-7.13
-7.74
-8.28
-8.75
-9.10
-9.25
-9.18
-8.89
-8.44
-7.88
-7.29
-6.74
-6.28
-5.91
-5.60
-5.25
-4.79
-4.19
-3.46
-2.65
-1.83
-1.05
-0.32
0.35
0.91
1.32
1.49
1.45
1.26
1.09
1.09
1.34
1.79
2.28
2.61
2.65
2.42
2.06
1.77
1.79
2.21
3.04
4.12
5.26
6.25
6.94
7.25
7.15
6.72
6.04
5.26
4.48
3.74
3.05
2.31
1.45
0.44
-0.66
-1.76
-2.74
-3.57
-4.28
-4.95
-5.63
-6.30
-6.89
-7.27
-7.40
-7.29
-7.03
-6.74
-6.51
-6.38
-6.28
-6.14
-5.91
-5.59
-5.24
-4.92
-4.63
-4.33
-3.89
-3.23
-2.36
-1.37
-0.44
0.29
0.75
0.96
1.01
1.00
0.99
0.98
0.94
0.84
0.70
0.56
0.45
0.38
0.37
0.41
0.48
0.55
0.53
0.27
-0.42
-1.66
-3.44
-5.59
-7.82
-9.85
-11.53
-12.87
-14.04
-15.16
-16.24
-17.18
-17.78
-17.89
-17.49
-16.69
-15.65
-14.45
-13.09
-11.44
-9.36
-6.76
-3.60
0.09
4.23
8.68
13.26
17.69
21.63
24.71
26.64
27.33
26.93
25.81
24.46
23.30
22.56
22.26
22.24
22.31
22.31
22.21
22.05
21.89
21.72
21.48
21.10
20.55
19.89
19.22
18.65
18.22
17.90
17.57
17.09
16.35
15.31
13.94
12.22
10.09
7.46
4.29
0.57
-3.60
-8.01
-12.43
-16.60
-20.25
-23.19
-25.31
-26.64
-27.33
-27.57
-27.53
-27.23
-26.60
-25.49
-23.86
-21.78
-19.47
-17.13
-14.88
-12.70
-10.43
-7.96
-5.20
-2.12
1.24
4.90
8.79
12.80
16.55
19.52
21.12
20.89
18.75
15.07
10.52
5.88
1.78
-1.51
-4.00
-5.93
-7.53
-8.91
-10.06
-10.90
-11.47
-11.95
-12.67
-13.95
-16.01
-18.74
-21.75
-24.42
-26.17
-26.65
-25.86
-24.12
-21.86
-19.36
-16.73
-13.90
-10.80
-7.52
-4.29
-1.40
0.97
2.82
4.34
5.73
7.09
8.40
9.53
10.35
10.80
10.87
10.65
10.22
9.65
9.00
8.34
7.77
7.35
7.14
7.13
7.26
7.41
7.46
7.34
7.06
6.71
6.39
6.17
6.01
5.87
5.67
5.38
5.00
4.57
4.08
3.53
2.95
2.38
1.89
1.49
1.12
0.67
0.03
-0.79
-1.66
-2.37
-2.77
-2.84
-2.67
-2.44
-2.23
-2.03
-1.73
-1.22
-0.50
0.28
0.93
1.29
1.36
1.25
1.15
1.24
1.58
2.14
2.80
3.44
3.93
4.20
4.26
4.15
3.93
3.69
3.47
3.32
3.21
3.14
3.06
2.94
2.76
2.50
2.15
1.72
1.18
0.52
-0.29
-1.24
-2.27
-3.26
-4.06
-4.54
-4.65
-4.44
-4.05
-3.67
-3.48
-3.59
-3.97
-4.50
-4.93
-5.03
-4.60
-3.62
-2.23
-0.76
0.37
0.82
0.37
-0.92
-2.79
-4.79
-6.49
-7.57
-7.92
-7.61
-6.79
-5.62
-4.21
-2.65
-1.01
0.60
2.04
3.22
4.03
4.44
4.50
4.33
4.12
4.07
4.35
4.99
5.90
6.90
7.76
8.36
8.61
