1554082410.00
64.000000
-0.00
-0.00
-0.00
-0.00
-0.00
-0.00
-0.00
-0.00
-0.00
-0.01
-0.00
0.00
0.01
0.01
-0.00
-0.03
-0.05
-0.05
-0.00
0.13
0.36
0.66
1.01
1.37
1.72
2.06
2.40
2.77
3.24
3.80
4.42
5.06
5.66
6.20
6.68
7.15
7.64
8.31
9.14
10.09
11.04
11.88
12.56
13.14
13.76
14.58
15.96
17.91
20.32
22.90
25.38
27.58
29.57
31.68
34.20
37.81
42.54
48.15
54.10
59.83
64.97
69.58
74.14
79.19
85.71
93.76
103.00
112.62
121.73
129.77
136.75
144.29
150.58
157.77
166.64
177.95
191.79
206.97
220.57
228.25
225.36
208.38
176.87
132.76
80.05
23.06
-34.95
-92.44
-149.15
-205.20
-260.46
-313.72
-363.89
-409.91
-451.06
-486.72
-516.00
-537.49
-549.46
-550.25
-538.57
-514.45
-479.00
-434.33
-383.03
-327.71
-270.59
-213.41
-157.46
-103.73
-53.21
-6.89
34.40
70.04
99.83
123.95
142.91
157.32
167.80
174.83
178.79
180.01
178.89
175.87
171.42
165.92
159.62
152.61
144.90
136.55
127.73
118.78
110.06
101.88
94.33
87.22
80.19
72.85
65.02
56.80
48.62
41.00
34.36
28.86
24.32
20.32
16.32
11.77
6.16
-0.77
-8.64
-16.13
-21.08
-21.30
-15.93
-6.21
4.64
12.89
16.08
14.16
9.23
4.32
1.80
2.68
6.79
13.48
22.12
31.95
41.77
49.89
54.60
55.10
51.96
46.79
41.14
35.65
29.87
23.00
14.86
6.38
-0.65
-4.43
-4.08
-0.00
6.39
13.30
19.07
22.60
23.32
21.19
16.81
11.34
6.39
3.41
3.02
4.51
6.33
7.04
6.39
5.48
5.80
7.99
11.05
12.75
11.03
5.56
-1.90
-8.43
-11.64
-11.09
-8.39
-5.99
-5.63
-7.41
-9.89
-11.30
-10.57
-7.75
-3.87
-0.19
2.43
3.69
3.67
2.56
0.57
-2.02
-4.65
-6.56
-7.11
-6.29
-4.74
-3.57
-3.76
-5.58
-8.32
-10.66
-11.26
-9.30
-4.73
1.89
9.64
17.48
23.98
27.46
26.41
20.26
10.12
-1.28
-10.51
-14.92
-13.78
-8.62
-2.46
1.43
0.85
-4.70
-13.86
-24.14
-32.71
-37.20
-36.33
-30.14
-19.98
-8.12
2.92
11.16
15.71
16.80
15.26
11.98
7.47
1.80
-5.18
-13.20
-21.27
-27.75
-31.02
-30.38
-26.59
-21.82
-18.75
-19.41
-24.26
-31.92
-39.78
-44.96
-45.33
-40.26
-30.65
-18.74
-7.34
1.07
5.01
4.34
0.07
-6.22
-13.04
-19.22
-24.06
-27.09
-27.88
-26.11
-21.83
-15.68
-8.83
-3.46
-0.93
-1.62
-5.04
-10.05
-14.91
-17.48
-15.38
-6.63
9.22
30.41
52.63
70.15
77.85
73.28
57.47
34.31
8.69
-15.32
-35.18
-49.76
-58.41
-60.30
-54.73
-41.97
-24.02
-4.60
11.93
22.23
25.19
22.33
17.01
13.05
13.19
18.29
27.24
37.70
47.28
54.43
58.96
62.01
65.36
70.70
78.97
89.86
101.93
112.91
120.42
122.71
119.29
111.09
100.12
88.67
78.34
69.52
61.41
52.62
42.00
29.20
14.84
0.12
-13.58
-25.11
-33.60
-38.56
-40.16
-39.41
-38.19
-38.66
-42.38
-49.53
-58.74
-67.68
-74.12
-76.86
-75.79
-71.41
-63.97
-53.04
-37.88
-18.22
4.93
29.16
51.20
67.92
77.25
78.60
72.77
61.63
47.55
32.96
19.88
9.63
2.66
-1.33
-3.06
-3.28
-2.50
-1.11
0.47
1.57
1.34
-0.82
-4.83
-9.79
-14.26
-17.11
-18.26
-18.96
-21.24
-26.82
-36.02
-47.43
-58.50
-66.80
-71.33
-72.93
-73.70
-75.99
-81.44
-90.76
-104.11
-121.67
-143.72
-170.15
-199.77
-229.87
-256.76
-276.79
-287.55
-288.50
-280.89
-267.01
-249.28
-229.69
-209.56
-189.69
-170.54
-152.41
-135.53
-120.05
-106.00
-93.22
-81.19
-69.18
-56.32
-41.78
-24.96
-5.64
16.04
39.64
64.44
89.46
113.58
135.72
155.11
171.63
185.76
198.40
210.43
222.26
233.65
243.82
251.97
257.76
261.68
265.02
269.32
275.68
284.11
293.41
301.64
307.08
309.10
308.58
307.60
308.48
312.75
320.44
330.10
339.26
345.10
345.15
337.61
321.55
297.06
265.16
227.60
186.43
143.40
99.39
54.18
6.85
-43.26
-95.51
-147.38
-194.88
-233.80
-261.25
-276.74
-282.22
-281.03
-276.40
-270.34
-263.45
-255.50
-246.36
-236.56
-227.05
-218.67
-211.52
-204.87
-197.53
-188.54
-177.63
-165.41
-153.13
-142.15
-133.39
-127.12
-122.88
-119.86
-117.19
-114.28
-110.87
-106.82
-101.99
-96.15
-89.16
-81.20
-72.98
-65.54
-59.97
-56.92
-56.40
-57.80
-60.18
-62.48
-63.72
-62.94
-59.28
-52.18
-41.57
-28.17
-13.28
1.59
15.35
27.71
39.25
51.05
64.11
78.79
94.69
110.63
124.99
136.01
142.15
142.46
136.90
126.38
112.73
98.26
85.31
75.70
70.36
69.33
71.94
77.19
84.09
91.74
99.17
105.12
107.95
106.05
98.51
85.92
70.55
55.83
45.10
40.21
40.64
43.72
45.79
43.73
36.31
24.58
11.39
0.08
-6.90
-8.92
-7.29
-4.62
-3.70
-6.47
-13.49
-24.07
-36.86
-50.49
-63.84
-76.01
-86.07
-93.01
-95.93
-94.46
-89.08
-81.07
-72.12
-63.76
-56.81
-51.27
-46.51
-41.73
-36.45
-30.83
-25.64
-21.92
-20.54
-21.81
-25.33
-30.13
-34.96
-38.74
-40.83
-41.17
-40.23
-38.76
-37.42
-36.48
-35.62
-33.94
-30.34
-23.93
-14.42
-2.29
11.44
25.45
38.51
49.68
58.28
63.92
66.51
66.29
63.95
60.44
56.76
53.61
51.17
49.22
47.38
45.32
42.89
39.99
36.37
31.64
25.48
18.00
9.88
2.26
-3.74
-7.52
-9.21
-9.45
-9.03
-8.42
-7.70
-6.73
-5.49
-4.24
-3.43
-3.51
-4.63
-6.64
-9.18
-11.87
-14.45
-16.80
-18.96
-21.02
-23.17
-25.61
-28.56
-32.16
-36.41
-41.21
-46.33
-51.45
-56.12
-59.75
-61.62
-61.11
-57.93
-52.32
-45.06
-37.23
-29.84
-23.48
-18.23
-13.84
-9.99
-6.60
-3.84
-1.99
-1.11
-0.94
-0.94
-0.61
0.28
1.64
3.25
5.10
7.46
10.75
15.19
20.49
25.89
30.46
33.58
35.17
35.58
35.20
34.12
32.07
28.70
24.00
18.45
12.88
8.05
4.35
1.64
-0.58
-2.88
-5.64
-8.99
-12.85
-17.00
-21.12
-24.68
-27.03
-27.52
-25.71
-21.64
-15.89
-9.42
-3.28
1.76
5.43
7.92
9.69
11.19
12.68
14.11
15.26
15.80
15.52
14.35
12.44
10.12
7.80
5.87
4.62
4.18
4.55
5.63
7.30
9.37
11.57
13.52
14.75
14.85
13.62
11.15
7.77
3.99
0.26
-3.09
-5.91
-8.21
-10.08
-11.62
-13.02
-14.60
-16.81
-20.21
-25.19
-31.69
-39.02
-45.96
-51.09
-53.38
-52.52
-49.01
-43.82
-37.92
-31.89
-25.94
-20.07
-14.39
-9.11
-4.50
-0.71
2.43
5.17
7.79
10.38
12.89
15.15
17.03
18.49
19.55
20.31
20.91
21.51
22.18
22.88
23.46
23.66
23.24
22.08
20.22
17.77
14.91
11.82
8.60
5.38
2.27
-0.63
-3.28
-5.70
-8.01
-10.34
-12.85
-15.64
-18.72
-22.05
-25.43
-28.56
-30.97
-32.09
-31.38
-28.47
-23.29
-16.15
-7.70
1.21
9.77
17.35
23.62
28.50
32.09
34.58
36.21
37.18
37.65
37.73
37.43
36.70
35.47
33.71
31.51
29.00
26.32
23.52
20.57
17.44
14.30
11.53
9.65
9.02
9.58
10.73
11.60
11.40
9.77
6.92
3.29
-0.67
-4.75
-8.82
-12.66
-15.75
-17.50
-17.66
-16.52
-14.94
-13.88
-14.01
-15.45
-17.97
-21.26
-25.04
-29.04
-32.72
-35.19
-35.48
-33.01
-27.96
-21.32
-14.45
-8.50
-4.01
-0.90
1.26
2.89
4.20
5.26
6.08
6.68
7.06
7.12
6.69
5.60
3.83
1.65
-0.52
-2.25
-3.38
-4.03
-4.57
-5.30
-6.21
-6.97
-7.03
-5.98
-3.80
-0.89
2.10
4.65
6.51
7.78
8.72
9.49
10.15
10.66
10.98
11.11
11.04
10.64
9.67
7.91
5.31
2.07
-1.47
-5.04
-8.59
-12.27
-16.24
-20.51
-24.79
-28.55
-31.18
-32.04
-30.53
-26.17
-18.73
-8.53
3.43
15.54
26.01
33.37
37.03
37.42
35.69
33.27
31.31
30.45
30.77
32.08
34.14
36.83
40.19
44.33
49.28
54.95
61.10
67.39
73.44
78.79
82.91
85.18
84.94
81.78
75.70
67.34
57.87
48.64
40.82
34.93
30.84
27.95
25.54
23.02
20.10
16.58
12.33
7.18
1.08
-5.81
-13.10
-20.37
-27.34
-34.05
-40.80
-47.93
-55.70
-64.12
-73.01
-81.99
-90.45
-97.54
-102.21
-103.38
-100.34
-92.99
-81.97
-68.51
-54.00
-39.59
-25.96
-13.36
-1.98
7.78
15.27
19.78
20.92
19.05
15.23
10.91
7.42
5.45
4.93
5.22
5.57
5.57
5.22
4.79
4.44
4.05
3.20
1.46
-1.34
-4.94
-8.73
-12.04
-14.42
-15.80
-16.47
-16.84
-17.18
-17.48
-17.48
-16.88
-15.51
-13.52
-11.37
-9.58
-8.61
-8.59
-9.35
-10.47
-11.56
-12.38
-12.96
-13.53
-14.43
-15.91
-18.05
-20.65
-23.24
-25.13
-25.40
-23.15
-17.76
-9.35
1.09
11.76
20.66
26.34
28.43
27.70
25.61
23.47
21.94
20.86
19.65
17.85
15.44
12.84
10.50
8.62
7.02
5.40
3.67
2.17
1.54
2.43
5.06
9.08
13.62
17.61
20.24
21.20
20.75
19.55
18.35
17.66
17.63
18.04
18.43
18.29
17.22
15.02
11.77
7.81
3.59
-0.48
-4.15
-7.42
-10.52
-13.78
-17.51
-21.89
-26.91
-32.32
-37.65
-42.24
-45.31
-46.21
-44.62
-40.72
-35.13
-28.74
-22.40
-16.76
-12.19
-8.91
-7.03
-6.62
-7.57
-9.48
-11.67
-13.27
-13.50
-11.92
-8.50
-3.64
2.03
7.73
12.69
16.26
17.99
17.84
16.22
13.89
11.68
10.18
9.47
9.15
8.59
7.34
5.30
2.76
0.10
-2.50
-5.17
-8.25
-12.06
-16.61
-21.67
-26.81
-31.68
-36.16
-40.38
-44.60
-49.02
-53.62
-58.07
-61.80
-64.12
-64.45
-62.46
-58.12
-51.60
-43.23
-33.38
-22.43
-10.82
0.87
11.98
21.80
29.84
35.89
40.14
43.04
45.07
46.66
47.99
49.08
49.80
50.03
49.67
48.71
47.23
45.40
43.42
41.52
39.92
38.66
37.60
36.30
34.14
30.46
24.84
17.26
8.24
-1.34
-10.45
-18.25
-24.32
-28.77
-32.11
-35.04
-38.19
-41.86
-45.91
-49.70
-52.35
-52.97
-51.07
-46.77
-40.84
-34.41
-28.58
-24.00
-20.66
-18.01
-15.19
-11.44
-6.41
-0.21
6.67
13.56
19.82
24.99
28.79
31.10
31.98
31.69
30.63
29.39
28.53
28.42
29.10
30.24
31.26
31.57
30.84
29.11
26.68
23.96
21.28
18.89
16.99
15.84
15.76
16.95
19.20
21.75
23.39
23.07
20.42
16.24
12.28
10.58
12.56
18.23
26.26
34.46
40.83
44.28
44.92
43.80
42.11
40.59
39.30
37.71
35.24
31.66
27.28
22.80
18.93
16.00
13.89
12.15
10.30
8.18
5.97
4.08
2.88
2.43
2.41
2.20
1.13
-1.29
-5.24
-10.52
-16.67
-23.09
-29.25
-34.76
-39.42
-43.15
-45.89
-47.57
-48.10
-47.54
-46.18
-44.41
-42.58
-40.76
-38.62
-35.54
-30.98
-24.74
-17.17
-9.06
-1.31
5.38
10.75
14.92
18.24
21.00
23.33
25.17
26.32
26.63
26.07
24.75
22.94
20.91
18.86
16.88
14.95
13.00
11.02
9.01
6.99
4.90
2.61
0.02
-2.85
-5.65
-7.82
-8.67
-7.72
-4.96
-0.90
3.50
7.18
9.30
9.49
7.92
5.08
1.61
-1.99
-5.41
-8.59
-11.64
-14.74
-18.04
-21.60
-25.26
-28.62
-31.02
-31.67
-29.93
-25.51
-18.69
-10.28
-1.39
6.90
13.81
19.04
22.73
25.30
27.20
28.77
30.16
31.38
32.36
33.02
33.27
33.00
32.09
30.44
28.03
24.96
21.51
18.03
14.89
12.33
10.43
9.08
8.05
7.12
6.13
5.06
4.01
3.13
2.55
2.25
2.05
1.70
0.94
-0.32
-1.97
-3.72
-5.21
-6.20
-6.71
-6.98
-7.42
-8.36
-9.96
-12.07
-14.32
-16.29
-17.67
-18.43
-18.79
-19.22
-20.18
-21.95
-24.39
-26.92
-28.60
-28.42
-25.57
-19.79
-11.52
-1.83
7.75
15.70
20.85
22.76
21.76
18.84
15.23
12.04
9.94
9.05
9.07
9.45
9.60
9.06
7.51
4.84
1.18
-3.12
-7.51
-11.40
-14.33
-16.10
-16.77
-16.63
-16.04
-15.35
-14.83
-14.64
-14.83
-15.30
-15.90
-16.40
-16.63
-16.52
-16.13
-15.66
-15.35
-15.46
-16.18
-17.65
-19.85
-22.66
-25.78
-28.78
-31.24
-32.91
-33.84
-34.39
-35.18
-36.78
-39.57
-43.54
-48.23
-52.89
-56.55
-58.26
-57.33
-53.46
-46.86
-38.31
-28.98
-20.16
-12.99
-8.17
-5.70
-4.94
-4.80
-4.11
-1.97
1.97
7.50
14.04
20.88
27.43
33.28
38.24
42.14
44.80
46.06
45.95
44.81
43.26
42.04
41.69
42.41
44.00
46.07
48.31
50.68
53.35
56.52
60.06
63.45
65.83
66.42
64.78
61.00
55.56
49.04
41.83
34.03
25.54
16.23
6.17
-4.44
-15.33
-26.39
-37.68
-49.31
-61.09
-72.37
-82.04
-88.78
-91.59
-90.13
-84.84
-76.71
-66.91
-56.42
-46.00
-36.26
-27.94
-21.85
-18.64
-18.40
-20.49
-23.73
-26.93
-29.31
-30.69
-31.14
-30.63
-28.81
-25.09
-19.07
-10.92
-1.36
8.60
18.10
26.58
33.77
39.48
43.48
45.63
46.09
45.43
44.46
43.92
44.31
45.81
48.50
52.45
57.64
63.72
69.78
74.46
76.24
74.13
68.11
59.19
49.10
39.45
31.14
23.99
16.96
8.81
-1.10
-12.34
-23.33
-31.92
-36.24
-35.35
-29.59
-20.42
-9.83
0.19
8.17
13.42
15.98
16.56
16.18
15.83
16.08
16.88
17.65
17.57
15.99
12.74
8.17
2.93
-2.30
-7.05
-11.11
-14.43
-17.06
-19.08
-20.72
-22.31
-24.18
-26.53
-29.24
-31.95
-34.11
-35.31
-35.40
-34.52
-33.03
-31.36
-29.89
-28.84
-28.28
-28.11
-28.06
-27.77
-26.89
-25.23
-22.85
-20.13
-17.71
-16.30
-16.50
-18.54
-22.02
-25.94
-28.93
-29.67
-27.42
-22.37
-15.55
-8.43
-2.36
1.94
4.53
5.98
6.97
7.89
8.75
9.32
9.41
9.13
8.82
9.00
10.11
12.31
15.42
19.00
22.48
25.39
27.44
28.50
28.63
27.86
26.21
23.68
20.25
16.03
11.23
6.06
0.67
-4.89
-10.62
-16.44
-22.08
-27.10
-31.08
-33.78
-35.33
-36.10
-36.50
-36.67
-36.41
-35.25
-32.73
-28.69
-23.40
-17.44
-11.48
-6.05
-1.34
2.72
6.29
9.45
12.04
13.75
14.30
13.59
11.86
9.59
7.43
5.90
5.27
5.53
6.40
7.44
8.19
8.29
7.53
5.91
3.60
0.88
-1.96
-4.76
-7.53
-10.48
-13.88
-18.01
-22.91
-28.39
-33.97
-38.91
-42.37
-43.55
-41.81
-36.91
-29.07
-18.94
-7.48
4.37
15.82
26.41
35.93
44.24
51.09
56.10
58.90
59.33
57.66
54.63
51.27
48.59
47.20
47.08
47.61
47.77
46.63
43.73
39.31
34.23
29.53
26.03
23.98
23.13
22.91
22.80
22.53
22.12
21.70
21.34
20.96
20.31
19.11
17.18
14.53
11.42
8.21
5.30
2.89
0.92
-0.90
-2.99
-5.66
-8.95
-12.59
-16.14
-19.27
-21.87
-24.08
-26.20
-28.45
-30.94
-33.60
-36.22
-38.54
-40.17
-40.62
-39.39
-36.07
-30.56
-23.24
-14.90
-6.49
1.07
7.20
11.73
14.82
16.81
18.10
18.97
19.61
20.04
20.21
20.01
19.43
18.54
17.56
16.73
16.27
16.25
16.56
16.92
17.00
16.45
15.01
12.54
9.08
4.84
0.19
-4.43
-8.63
-12.20
-15.18
-17.82
-20.51
-23.56
-27.07
-30.87
-34.59
-37.88
-40.53
-42.60
-44.41
-46.35
-48.72
-51.47
-54.20
-56.28
-57.06
-56.14
-53.53
-49.58
-44.89
-40.08
-35.61
-31.73
-28.43
-25.44
-22.29
-18.39
-13.21
-6.46
1.86
11.55
22.46
34.65
48.26
63.08
78.05
91.17
99.95
102.37
97.86
87.78
74.88
62.33
52.34
45.55
41.08
37.34
32.95
27.34
20.75
13.77
6.83
-0.06
-7.23
-14.96
-23.25
-31.70
-39.78
-47.12
-53.73
-59.99
-66.37
-73.10
-79.82
-85.46
-88.40
-87.02
-80.32
-68.38
-52.63
-35.45
-19.55
-7.33
-0.40
0.57
-4.08
-12.83
-22.77
-29.82
-29.35
-17.56
7.14
43.26
86.55
131.22
171.65
203.55
224.32
232.64
227.96
210.21
180.22
140.35
94.83
49.36
9.73
-19.84
-38.00
-46.57
-49.64
-51.79
-56.23
-63.80
-72.93
-80.70
-84.16
-81.40
-72.19
-57.96
-41.34
-25.45
-13.11
-6.06
-4.46
-6.84
-10.61
-13.12
-12.61
-9.07
-4.20
-0.73
-1.12
-6.34
-15.24
-24.93
-32.00
-34.00
-30.31
-22.12
-11.52
-0.34
10.57
21.13
31.26
40.30
46.91
49.72
48.08
42.61
35.08
27.70
22.40
20.13
20.75
23.06
25.38
26.05
24.08
19.39
12.90
6.08
0.38
-3.32
-5.02
-5.44
-5.69
-6.68
-8.83
-12.00
-15.70
-19.39
-22.71
-25.55
-27.90
-29.64
-30.45
-29.95
-27.99
-24.89
-21.54
-19.15
-18.73
-20.68
-24.51
-28.97
-32.50
-33.82
-32.36
-28.42
-23.05
-17.63
-13.54
-11.69
-12.40
-15.32
-19.65
-24.37
-28.54
-31.55
-33.17
-33.47
-32.70
-31.04
-28.54
-25.04
-20.37
-14.48
-7.58
-0.23
6.85
12.97
17.68
20.88
22.69
23.27
22.71
21.11
18.70
16.04
13.98
13.37
14.73
17.92
22.23
26.58
30.01
31.92
32.15
30.88
28.42
25.04
20.98
16.45
11.69
6.92
2.32
-1.98
-5.89
-9.36
-12.31
-14.73
-16.67
-18.33
-19.98
-21.94
-24.44
-27.59
-31.30
-35.29
-39.02
-41.81
-42.92
-41.76
-38.10
-32.16
-24.61
-16.38
-8.48
-1.72
3.34
6.50
7.85
7.75
6.77
5.56
4.77
4.80
5.73
7.23
8.69
9.46
9.08
7.54
5.27
3.02
1.56
1.47
2.89
5.54
8.82
11.98
14.33
15.35
14.79
12.72
9.52
5.79
2.17
-0.79
-2.82
-3.96
-4.49
-4.79
-5.21
-5.94
-7.00
-8.29
-9.64
-10.96
-12.25
-13.65
-15.39
-17.76
-20.94
-24.80
-28.84
-32.17
-33.69
-32.43
-27.77
-19.70
-8.79
3.87
16.93
28.97
38.80
45.66
49.40
50.40
49.49
47.55
45.30
43.03
40.72
38.15
35.11
31.57
27.65
23.55
19.43
15.35
11.34
7.42
3.71
0.32
-2.64
-5.20
-7.45
-9.55
-11.61
-13.64
-15.58
-17.37
-19.07
-20.83
-22.85
-25.24
-27.91
-30.61
-32.96
-34.66
-35.51
-35.58
-35.16
-34.71
-34.73
-35.55
-37.11
-38.80
-39.59
-38.21
-33.66
-25.61
-14.62
-2.01
10.48
21.27
29.35
34.43
36.90
37.50
37.04
36.17
35.30
34.61
34.15
33.86
33.59
33.11
32.17
30.59
28.30
25.46
22.39
19.47
17.00
15.11
13.74
12.63
11.50
10.06
8.13
5.69
2.81
-0.33
-3.49
-6.44
-8.97
-10.99
-12.51
-13.67
-14.68
-15.78
-17.11
-18.73
-20.54
-22.39
-24.06
-25.44
-26.47
-27.24
-27.97
-28.91
-30.29
-32.15
-34.24
-35.98
-36.67
-35.62
-32.47
-27.31
-20.65
-13.21
-5.77
1.10
7.02
11.81
15.43
17.90
19.30
19.79
19.59
18.95
18.15
17.43
16.92
16.54
16.01
14.94
13.01
10.23
7.07
4.38
3.12
4.01
7.24
12.35
18.32
23.88
27.76
29.03
27.37
23.16
17.36
11.21
5.78
1.52
-1.82
-4.98
-8.70
-13.30
-18.49
-23.63
-28.12
-31.75
-34.76
-37.57
-40.50
-43.58
-46.59
-49.18
-51.10
-52.13
-52.04
-50.49
-47.10
-41.60
-34.01
-24.83
-14.88
-5.17
3.40
10.25
15.13
18.19
19.77
20.38
20.51
20.60
20.90
21.49
22.28
23.01
23.43
23.33
22.68
21.61
20.39
19.26
18.38
17.72
17.09
16.26
15.07
13.49
11.62
9.62
7.57
5.49
3.33
1.02
-1.46
-4.07
-6.74
-9.41
-12.11
-15.01
-18.35
-22.39
-27.33
-33.19
-39.78
-46.67
-53.29
-59.07
-63.65
-66.89
-68.95
-70.20
-71.08
-71.96
-72.87
-73.38
-72.50
-68.91
-61.38
-49.29
-33.11
-14.42
4.43
21.26
35.00
46.18
56.55
68.21
82.70
100.17
119.47
138.24
153.56
162.45
162.59
153.03
134.65
110.20
83.77
59.72
41.35
30.04
25.04
24.05
24.30
23.46
20.28
14.56
6.97
-1.31
-9.01
-15.15
-19.20
-21.07
-21.00
-19.43
-16.89
-14.00
-11.44
-9.86
-9.51
-10.27
-11.49
-12.29
-11.96
-10.34
-7.89
-5.61
-4.59
-5.62
-8.93
-14.14
-20.43
-26.82
-32.34
-36.32
-38.44
-38.75
-37.50
-35.03
-31.57
-27.24
-22.15
-16.56
-10.89
-5.72
-1.51
1.54
3.61
5.10
6.44
7.97
9.80
11.93
14.30
16.82
19.36
21.74
23.73
25.08
25.59
25.16
23.78
21.54
18.62
15.20
11.50
7.75
4.20
1.10
-1.28
-2.77
-3.32
-3.08
-2.39
-1.68
-1.40
-1.82
-3.03
-4.99
-7.65
-11.04
-15.29
-20.48
-26.51
-32.98
-39.24
-44.59
-48.38
-50.11
-49.45
-46.17
-40.21
-31.85
-21.86
-11.46
-2.07
5.21
9.98
12.64
14.06
15.14
16.35
17.66
18.75
19.20
18.73
17.15
14.36
10.31
5.10
-0.90
-7.08
-12.68
-17.08
-20.04
-21.78
-22.90
-24.15
-26.26
-29.73
-34.70
-40.75
-46.78
-51.14
-51.92
-47.50
-37.12
-21.24
-1.54
19.58
39.56
56.32
68.64
76.10
78.93
77.75
73.44
67.05
59.89
53.36
48.76
47.02
48.45
52.65
58.61
65.00
70.53
74.41
76.43
76.88
76.16
74.38
71.17
65.86
57.90
47.31
34.86
22.04
10.75
2.87
-0.32
1.45
7.00
13.84
18.90
19.67
15.38
7.33
-1.77
-9.32
-14.31
-17.85
-22.33
-29.80
-40.46
-52.29
-62.03
-66.91
-66.02
-60.76
-53.97
-48.56
-46.34
-47.58
-51.30
-55.91
-59.71
-61.11
-58.77
-51.80
-40.07
-24.52
-7.19
9.30
22.45
30.69
33.65
32.04
27.22
20.66
13.66
7.20
1.89
-2.06
-4.88
-7.17
-9.62
-12.74
-16.62
-20.83
-24.67
-27.35
-28.40
-27.73
-25.71
-23.00
-20.42
-18.70
-18.37
-19.58
-22.14
-25.58
-29.32
-32.74
-35.43
-37.18
-38.08
-38.51
-39.00
-40.12
-42.22
-45.19
-48.44
-50.91
-51.46
-49.20
-43.78
-35.53
-25.29
-14.12
-2.99
7.42
16.77
24.94
31.94
37.73
42.19
45.15
46.41
45.87
43.65
40.06
35.59
30.77
26.02
21.55
17.33
13.27
9.30
5.47
1.94
-1.11
-3.61
-5.62
-7.39
-9.16
-11.15
-13.47
-16.11
-18.96
-21.83
-24.47
-26.56
-27.83
-28.06
-27.30
-25.84
-24.17
-22.77
-21.84
-21.15
-20.00
-17.50
-12.88
-5.79
3.46
14.03
24.67
34.05
41.04
44.93
45.62
43.56
39.63
34.89
30.26
26.31
23.26
21.02
19.41
18.28
17.50
17.00
16.60
16.14
15.45
14.56
13.66
13.01
12.80
12.94
13.07
12.64
11.22
8.64
5.17
1.37
-2.13
-4.91
-6.84
-8.08
-8.87
-9.45
-9.99
-10.59
-11.42
-12.57
-14.01
-15.42
-16.21
-15.65
-13.19
-8.70
-2.64
4.14
10.64
16.06
19.98
22.33
23.24
22.92
21.49
19.10
16.04
12.80
10.00
8.23
7.67
8.02
8.44
7.88
5.50
1.07
-4.93
-11.49
-17.49
-22.12
-25.10
-26.64
-27.15
-26.94
-26.07
-24.41
-21.90
-18.72
-15.44
-12.87
-11.85
-12.94
-16.23
-21.23
-26.90
-31.92
-34.92
-34.88
-31.32
-24.44
-15.02
-4.15
7.03
17.56
26.81
34.46
40.41
44.64
47.16
47.97
47.12
44.79
41.38
37.36
33.25
29.38
25.90
22.77
19.86
17.12
14.57
12.26
10.14
7.95
5.27
1.70
-2.96
-8.51
-14.41
-19.91
-24.32
-27.34
-29.07
-30.09
-31.17
-33.02
-35.93
-39.60
-43.16
-45.37
-45.06
-41.53
-34.87
-25.93
-16.11
-6.87
0.62
5.81
8.77
9.95
9.99
9.44
8.67
7.88
7.20
6.72
6.54
6.73
7.24
7.92
8.50
8.71
8.34
7.41
6.08
4.61
3.20
1.90
0.55
-1.11
-3.34
-6.26
-9.73
-13.44
-16.98
-20.01
-22.38
-24.21
-25.81
-27.64
-30.08
-33.36
-37.38
-41.68
-45.49
-47.83
-47.79
-44.72
-38.44
-29.27
-17.97
-5.56
6.93
18.55
28.61
36.71
42.70
46.68
48.94
49.85
49.76
49.00
47.80
46.32
44.70
42.98
41.15
39.10
36.66
33.70
30.24
26.58
23.26
20.96
20.20
21.12
23.27
25.75
27.48
27.54
25.37
20.80
13.91
4.92
-5.87
-17.91
-30.34
-42.10
-52.15
-59.85
-65.27
-69.10
-72.46
-76.43
-81.63
-88.02
-94.95
-101.28
-105.76
-107.18
-104.62
-97.56
-85.96
-70.31
-51.62
-31.29
-10.93
7.98
24.45
38.18
49.59
59.45
68.49
77.06
84.96
91.69
96.73
99.84
101.26
101.60
101.75
102.64
105.07
109.51
115.99
123.96
132.28
139.46
143.86
144.19
139.74
130.64
117.74
102.42
86.21
70.36
55.61
42.08
29.48
17.43
5.76
-5.33
-15.39
-23.88
-30.47
-35.02
-37.52
-37.83
-35.61
-30.45
-22.24
-11.57
0.16
11.00
19.13
23.54
24.32
22.55
19.55
16.33
13.09
9.42
4.71
-1.38
-8.65
-16.57
-24.56
-32.28
-39.63
-46.66
-53.39
-59.83
-66.06
-72.32
-78.97
-86.34
-94.37
-102.61
-110.25
-116.33
-120.01
-120.60
-117.65
-110.97
-100.80
-87.94
-73.69
-59.53
-46.70
-35.75
-26.47
-18.19
-10.24
-2.43
4.89
11.08
15.63
18.45
19.91
20.63
21.22
22.06
23.33
25.08
27.30
30.09
33.51
37.53
41.89
45.99
49.00
50.18
49.40
47.49
46.30
48.07
54.45
65.66
80.14
95.01
107.16
114.13
114.66
108.50
96.01
77.85
54.94
28.64
0.75
-26.69
-51.89
-73.55
-90.97
-103.75
-111.63
-114.54
-112.79
-107.21
-99.06
-89.70
-80.23
-71.30
-63.21
-56.07
-49.94
-44.77
-40.29
-36.01
-31.41
-26.27
-20.94
-16.27
-13.35
-13.00
-15.32
-19.67
-24.88
-29.72
-33.35
-35.45
-36.15
-35.62
-33.88
-30.72
-25.94
-19.70
-12.61
-5.68
0.02
3.75
5.32
5.04
3.64
1.96
0.86
1.03
2.85
6.26
10.49
14.14
15.43
12.76
5.32
-6.40
-20.72
-35.35
-48.25
-58.48
-66.37
-73.20
-80.37
-88.50
-97.07
-104.57
-109.27
-109.85
-105.79
-97.35
-85.25
-70.51
-54.34
-37.94
-22.35
-7.99
5.52
19.05
33.34
48.13
61.88
72.25
77.11
75.71
69.10
59.67
49.92
41.37
34.00
26.69
18.18
7.89
-3.62
-14.81
-23.69
-28.37
-27.42
-20.11
-6.55
12.29
34.52
57.49
78.13
93.42
101.07
100.09
91.13
76.44
59.36
43.41
31.31
24.23
21.64
21.79
22.67
22.84
21.92
20.32
18.75
17.58
16.72
15.65
13.88
11.18
7.70
3.78
-0.26
-4.25
-8.17
-12.06
-15.91
-19.69
-23.31
-26.64
-29.47
-31.44
-32.08
-30.95
-27.80
-22.75
-16.20
-8.79
-1.18
6.01
12.31
17.32
20.84
22.89
23.81
24.12
24.41
25.06
26.06
27.08
27.61
27.27
26.00
24.06
21.93
20.12
18.94
18.43
18.36
18.29
17.75
16.34
13.87
10.48
6.56
2.65
-0.81
-3.62
-5.94
-8.20
-10.91
-14.41
-18.70
-23.34
-27.52
-30.26
-30.72
-28.47
-23.69
-17.08
-9.70
-2.58
3.57
8.50
12.36
15.52
18.27
20.73
22.85
24.57
25.89
26.91
27.74
28.42
28.87
28.93
28.46
27.45
26.04
24.48
23.00
21.71
20.51
19.15
17.33
14.89
11.84
8.39
4.83
1.41
-1.76
-4.67
-7.44
-10.20
-13.13
-16.41
-20.17
-24.40
-28.82
-32.82
-35.56
-36.21
-34.25
-29.66
-22.93
-14.83
-6.17
2.41
10.48
17.69
23.64
27.88
30.02
29.97
28.06
25.02
21.74
18.98
17.13
16.11
15.54
14.93
13.93
12.42
10.47
8.30
6.09
3.95
1.90
-0.12
-2.14
-4.13
-6.00
-7.64
-9.02
-10.12
-10.98
-11.59
-11.85
-11.67
-11.02
-10.11
-9.37
-9.40
-10.67
-13.29
-16.85
-20.41
-22.79
-22.94
-20.30
-14.94
-7.58
0.66
8.66
15.55
20.90
24.75
27.43
29.37
30.94
32.30
33.36
33.94
33.78
32.77
30.95
28.63
26.19
24.02
22.33
21.08
20.01
18.77
17.13
15.05
12.72
10.39
8.26
6.30
4.34
2.11
-0.57
-3.63
-6.84
-9.89
-12.59
-14.97
-17.27
-19.81
-22.87
-26.57
-30.89
-35.64
-40.47
-44.83
-47.99
-49.16
-47.73
-43.48
-36.73
-28.28
-19.18
-10.43
-2.78
3.42
8.15
11.64
14.15
15.95
17.20
18.00
18.47
18.71
18.87
19.08
19.36
19.60
19.61
19.25
18.54
17.69
17.00
16.68
16.71
16.79
16.53
15.58
13.82
11.39
8.60
5.82
3.36
1.37
-0.09
-1.14
-1.94
-2.79
-3.95
-5.69
-8.14
-11.28
-14.91
-18.78
-22.68
-26.53
-30.28
-33.77
-36.62
-38.19
-37.76
-34.83
-29.43
-22.23
-14.38
-7.18
-1.60
1.94
3.66
4.19
4.23
4.26
4.41
4.47
4.08
2.96
1.00
-1.64
-4.64
-7.68
-10.51
-13.04
-15.19
-16.86
-17.94
-18.38
-18.25
-17.75
-17.07
-16.29
-15.30
-13.89
-11.86
-9.18
-5.97
-2.44
1.22
4.88
8.50
12.10
15.73
19.52
23.71
28.66
34.67
41.90
50.18
59.01
67.60
75.06
80.58
83.60
83.87
81.48
76.86
70.65
63.60
56.40
49.51
42.94
36.21
28.52
19.15
7.86
-4.88
-17.98
-30.16
-40.41
-48.17
-53.34
-55.90
-55.80
-52.99
-47.70
-40.65
-33.04
-26.13
-20.73
-16.73
-13.15
-8.45
-1.29
8.94
21.79
35.87
49.35
60.60
68.81
74.25
78.34
83.16
90.82
102.79
119.29
139.07
159.50
177.21
189.00
192.73
187.86
175.34
156.90
134.25
108.46
79.91
48.78
15.67
-18.11
-50.67
-80.20
-105.54
-126.48
-143.56
-157.47
-168.64
-177.05
-182.48
-184.89
-184.65
-182.52
-179.37
-175.83
-172.07
-167.83
-162.67
-156.24
-148.45
-139.52
-129.90
-120.22
-111.18
-103.50
-97.84
-94.58
-93.55
-93.95
-94.51
-93.87
-91.05
-85.69
-78.07
-68.73
-58.19
-46.84
-35.11
-23.79
-14.13
-7.50
-4.72
-5.40
-7.70
-8.94
-6.52
0.98
13.28
28.54
44.07
57.29
66.40
70.73
70.67
67.38
62.38
57.11
52.65
49.43
47.25
45.46
43.29
40.19
36.00
30.88
25.15
19.07
12.82
6.65
0.95
-3.78
-7.02
-8.59
-8.66
-7.81
-6.71
-5.96
-5.79
-6.15
-6.77
-7.38
-7.87
-8.34
-8.99
-10.06
-11.62
-13.50
-15.33
-16.71
-17.38
-17.42
-17.29
-17.63
-18.95
-21.35
-24.30
-26.78
-27.59
-25.77
-20.95
-13.42
-4.02
6.17
16.13
25.12
32.73
38.81
43.41
46.72
49.00
50.54
51.54
52.09
52.16
51.65
50.58
49.12
47.61
46.40
45.69
45.36
45.04
44.20
42.33
39.20
34.86
29.64
24.02
18.50
13.43
9.02
5.27
2.04
-0.93
-3.94
-7.24
-10.95
-14.94
-18.89
-22.37
-25.04
-26.80
-27.88
-28.75
-29.98
-31.92
-34.54
-37.35
-39.53
-40.19
-38.59
-34.44
-27.94
-19.75
-10.79
-2.02
5.80
12.17
16.88
19.99
21.75
22.50
22.62
22.47
22.27
22.07
21.75
21.14
20.11
18.74
17.31
16.19
15.67
15.89
16.78
18.08
19.38
20.22
20.21
19.16
17.19
14.70
12.19
10.00
8.11
6.17
3.64
0.15
-4.29
-9.21
-13.89
-17.62
-19.95
-20.81
-20.42
-19.25
-17.89
-16.94
-16.86
-17.68
-18.82
-19.15
-17.31
-12.23
-3.68
7.53
19.79
31.29
40.65
47.27
51.33
53.37
53.90
53.12
51.14
48.14
44.66
41.42
39.07
37.87
37.53
37.38
36.65
34.75
31.41
26.58
20.39
13.09
5.19
-2.56
-9.22
-13.99
-16.63
-17.61
-17.99
-18.93
-21.13
-24.46
-28.08
-30.90
-32.12
-31.59
-29.95
-28.15
-27.31
-28.45
-32.43
-39.49
-48.78
-58.03
-64.02
-63.76
-55.99
-42.00
-25.22
-9.74
1.44
7.44
9.23
8.46
6.32
3.07
-1.46
-7.05
-12.67
-16.77
-18.12
-16.54
-12.97
-8.88
-5.61
-3.87
-3.54
-3.97
-4.50
-4.73
-4.69
-4.79
-5.44
-6.84
-8.80
-10.87
-12.60
-13.87
-14.91
-16.25
-18.50
-22.00
-26.76
-32.30
-37.65
-41.42
-41.97
-37.82
-28.11
-13.14
5.41
24.73
41.66
53.66
59.51
59.47
54.91
47.72
39.82
32.82
28.02
26.28
27.77
31.85
37.03
41.46
43.53
42.44
38.30
31.91
24.23
16.00
7.68
-0.46
-8.21
-15.28
-21.37
-26.30
-29.98
-32.54
-34.23
-35.42
-36.42
-37.38
-38.11
-38.12
-36.82
-33.84
-29.38
-24.22
-19.40
-15.77
-13.61
-12.42
-11.28
-9.24
-5.84
-1.29
3.70
8.28
11.89
14.55
16.72
19.04
21.98
25.55
29.39
32.93
35.69
37.47
38.31
38.46
38.20
37.71
37.06
36.17
34.99
33.53
31.91
30.28
28.67
26.82
24.24
20.46
15.39
9.50
3.79
-0.65
-3.14
-3.71
-3.05
-2.15
-1.82
-2.37
-3.58
-4.94
-5.87
-5.93
-4.90
-2.69
0.67
5.14
10.63
17.07
24.34
32.14
39.99
47.17
52.87
56.46
57.79
57.20
55.38
53.08
50.89
49.23
48.45
49.02
51.41
55.76
61.38
66.61
69.23
67.38
60.51
49.78
37.57
26.31
17.21
9.73
2.04
-7.88
-21.09
-37.08
-54.07
-69.79
-82.33
-90.56
-94.22
-93.61
-89.33
-82.17
-72.94
-62.46
-51.49
-40.66
-30.63
-22.08
-15.82
-12.47
-12.14
-14.13
-16.97
-18.98
-18.93
-16.66
-13.27
-10.61
-10.39
-13.38
-19.02
-25.69
-31.55
-35.37
-36.99
-37.29
-37.60
-39.08
-42.15
-46.36
-50.68
-53.84
-54.69
-52.29
-46.07
-35.89
-22.34
-6.97
7.65
18.52
23.07
20.12
10.42
-3.60
-18.77
-32.27
-42.38
-48.47
-50.45
-48.24
-41.66
-30.87
-17.09
-2.74
9.14
16.06
17.28
14.22
9.87
7.41
8.79
13.99
21.12
27.58
31.33
31.94
30.68
29.92
32.02
38.43
49.16
62.99
78.02
92.19
103.62
110.47
110.89
103.20
86.65
62.21
33.03
3.96
-19.87
-34.79
-39.90
-37.27
-30.92
-25.16
-23.06
-25.71
-32.46
-41.67
-51.48
-60.21
-66.45
-68.98
-66.88
-59.87
-48.70
-35.23
-21.98
-11.32
-4.58
-1.66
-1.38
-2.25
-3.27
-4.23
-5.47
-7.30
-9.51
-11.46
-12.44
-12.28
-11.55
-11.37
-12.80
-16.32
-21.58
-27.65
-33.46
-38.24
-41.73
-44.12
-45.74
-46.71
-46.73
-45.10
-41.07
-34.18
-24.69
-13.65
-2.74
6.18
11.62
12.90
10.33
5.12
-1.01
-6.33
-9.63
-10.48
-9.25
-6.85
-4.42
-2.83
-2.57
-3.57
-5.45
-7.67
-9.81
-11.59
-12.92
-13.73
-13.92
-13.38
-12.01
-9.88
-7.24
-4.46
-1.87
0.41
2.50
4.69
7.21
10.09
13.15
16.00
18.35
20.04
21.19
22.07
23.00
24.15
25.45
26.61
27.21
26.83
25.29
22.72
19.64
16.75
14.84
14.44
15.70
18.35
21.85
25.53
28.87
31.54
33.46
34.67
35.22
35.11
34.31
32.85
30.92
28.84
27.00
25.65
24.87
24.47
24.10
23.38
22.02
20.00
17.55
15.15
13.44
13.09
14.56
17.85
22.35
26.84
29.75
29.56
25.28
16.68
4.35
-10.51
-26.37
-41.64
-54.76
-64.39
-69.50
-69.62
-65.07
-56.92
-46.89
-36.89
-28.50
-22.54
-18.93
-16.80
-14.91
-12.22
-8.28
-3.43
1.28
4.57
5.44
3.60
-0.25
-4.59
-7.63
-7.90
-4.87
0.70
6.98
11.63
12.57
8.85
0.97
-9.21
-19.14
-26.46
-29.77
-28.90
-24.80
-18.93
-12.79
-7.56
-4.00
-2.51
-3.18
-5.67
-9.20
-12.57
-14.50
-14.05
-11.08
-6.29
-0.91
3.90
7.61
10.50
13.40
17.16
22.05
27.58
32.67
36.18
37.35
36.13
33.10
29.43
26.53
25.90
28.82
35.92
46.90
60.26
73.53
83.93
89.26
88.72
83.22
74.96
66.60
60.15
56.41
54.89
54.36
53.48
51.34
47.57
42.16
35.22
26.93
17.64
8.00
-1.14
-9.02
-15.32
-20.28
-24.49
-28.44
-32.04
-34.70
-35.53
-33.99
-30.23
-25.14
-19.98
-15.84
-13.30
-12.35
-12.60
-13.62
-15.22
-17.38
-20.15
-23.35
-26.60
-29.42
-31.43
-32.57
-33.12
-33.57
-34.36
-35.74
-37.67
-39.86
-41.93
-43.51
-44.33
-44.29
-43.47
-42.09
-40.38
-38.49
-36.42
-34.05
-31.30
-28.19
-25.03
-22.24
-20.33
-19.60
-20.10
-21.48
-23.09
-24.14
-23.85
-21.72
-17.62
-11.90
-5.22
1.58
7.72
12.66
16.11
18.04
18.60
18.04
16.66
14.78
12.69
10.59
8.57
6.66
4.81
3.02
1.34
-0.06
-0.95
-1.08
-0.31
1.30
3.48
5.83
7.92
9.47
10.42
10.87
10.95
10.72
10.16
9.30
8.29
7.50
7.37
8.28
10.48
14.16
19.57
27.03
36.65
47.90
59.49
69.55
76.37
79.17
78.54
76.24
74.28
73.99
75.36
77.14
77.55
75.13
69.29
60.36
49.22
36.84
24.04
11.40
-0.63
-11.65
-21.32
-29.34
-35.66
-40.37
-43.70
-45.90
-47.18
-47.64
-47.31
-46.32
-44.95
-43.68
-43.14
-43.82
-45.76
-48.43
-50.78
-51.59
-49.99
-45.93
-40.24
-34.52
-30.56
-29.76
-32.63
-38.49
-45.61
-51.70
-54.61
-53.09
-47.19
-38.16
-27.89
-18.22
-10.34
-4.71
-1.26
0.24
-0.07
-2.05
-5.43
-9.59
-13.61
-16.52
-17.61
-16.67
-14.02
-10.29
-6.15
-2.08
1.81
5.58
9.31
12.87
15.85
17.74
18.13
17.04
14.95
12.62
10.76
9.73
9.46
9.51
9.34
8.53
6.94
4.68
2.02
-0.77
-3.53
-6.29
-9.26
-12.72
-16.81
-21.35
-25.80
-29.28
-30.84
-29.76
-25.84
-19.42
-11.37
-2.74
5.42
12.39
17.73
21.38
23.53
24.49
24.67
24.41
24.01
23.60
23.25
22.94
22.65
22.37
22.10
21.85
21.60
21.28
20.84
20.20
19.32
18.19
16.79
15.14
13.25
11.15
8.90
6.54
4.14
1.75
-0.59
-2.88
-5.15
-7.43
-9.75
-12.08
-14.38
-16.59
-18.75
-20.98
-23.43
-26.11
-28.76
-30.70
-31.06
-28.98
-24.00
-16.30
-6.72
3.55
13.25
21.43
27.62
31.80
34.25
35.33
35.38
34.64
33.25
31.28
28.75
25.53
21.34
15.84
8.80
0.42
-8.59
-17.05
-23.78
-27.98
-29.66
-29.51
-28.63
-27.88
-27.61
-27.62
-27.39
-26.52
-24.97
-23.07
-21.39
-20.43
-20.50
-21.47
-22.77
-23.42
-22.24
-18.21
-10.83
-0.39
12.06
25.06
37.10
47.06
54.33
58.74
60.43
59.69
56.88
52.42
46.67
39.86
32.04
23.23
13.56
3.46
-6.44
-15.49
-23.31
-29.96
-35.86
-41.50
-46.96
-51.58
-53.96
-52.41
-45.78
-34.20
-19.35
-4.17
8.25
15.71
17.63
15.01
9.64
3.17
-3.59
-10.56
-17.83
-24.98
-30.84
-33.84
-32.70
-27.18
-18.18
-7.45
3.15
12.29
19.49
25.02
29.45
33.14
36.11
38.01
38.47
37.38
35.09
32.23
29.53
27.57
26.57
26.47
26.99
27.77
28.52
29.04
29.26
29.15
28.65
27.65
26.01
23.57
20.28
16.29
11.93
7.68
3.93
0.84
-1.79
-4.43
-7.69
-12.05
-17.59
-23.95
-30.30
-35.53
-38.56
-38.56
-35.23
-28.82
-20.12
-10.22
-0.32
8.48
15.33
19.76
21.63
21.14
18.66
14.67
9.62
3.93
-1.95
-7.55
-12.41
-16.18
-18.78
-20.38
-21.31
-21.90
-22.38
-22.79
-23.13
-23.46
-23.88
-24.57
-25.53
-26.59
-27.41
-27.65
-27.21
-26.30
-25.43
-25.22
-26.04
-27.75
-29.59
-30.36
-28.87
-24.37
-16.86
-7.16
3.43
13.54
22.19
28.92
33.83
37.28
39.71
41.45
42.64
43.32
43.41
42.86
41.62
39.70
37.18
34.24
31.13
28.16
25.56
23.40
21.55
19.62
17.13
13.63
8.88
3.07
-3.30
-9.49
-14.84
-18.94
-21.85
-24.00
-26.04
-28.62
-32.08
-36.25
-40.44
-43.53
-44.33
-41.89
-35.94
-26.97
-16.12
-4.90
5.28
13.46
19.26
22.83
24.74
25.72
26.45
27.44
28.93
30.80
32.57
33.56
33.08
30.67
26.33
20.55
14.21
8.29
3.54
0.26
-1.76
-3.08
-4.37
-6.11
-8.42
-11.07
-13.63
-15.65
-16.84
-17.22
-17.05
-16.81
-17.07
-18.34
-20.93
-24.80
-29.42
-33.84
-36.87
-37.39
-34.72
-28.88
-20.56
-10.95
-1.30
7.42
14.70
20.50
24.98
28.39
30.78
32.10
32.24
31.16
29.01
26.15
23.02
20.07
17.58
15.68
14.30
13.31
12.58
12.02
11.54
11.10
10.56
9.79
8.70
7.22
5.37
3.19
0.73
-1.98
-4.88
-7.86
-10.74
-13.34
-15.56
-17.44
-19.21
-21.24
-23.91
-27.43
-31.71
-36.26
-40.22
-42.50
-42.15
-38.59
-31.93
-22.94
-12.84
-2.90
5.87
12.93
18.14
21.66
23.70
24.53
24.43
23.75
22.88
22.18
21.89
22.07
22.62
23.36
24.08
24.60
24.80
24.56
23.72
22.11
19.54
15.88
11.15
5.63
-0.13
-5.45
-9.70
-12.59
-14.30
-15.40
-16.68
-18.87
-22.33
-26.99
-32.26
-37.20
-40.73
-41.92
-40.25
-35.77
-29.10
-21.22
-13.18
-5.80
0.48
5.52
9.42
12.26
14.08
14.78
14.29
12.60
9.93
6.74
3.67
1.47
0.77
1.94
4.97
9.50
14.82
20.11
24.58
27.68
29.26
29.54
29.03
28.23
27.45
26.66
25.55
23.67
20.60
16.09
10.05
2.53
-6.25
-15.85
-25.52
-34.23
-40.84
-44.43
-44.65
-41.80
-36.69
-30.30
-23.45
-16.60
-9.94
-3.60
2.09
6.63
9.48
10.38
9.52
7.59
5.46
3.86
3.17
3.42
4.42
5.97
7.96
10.32
12.90
15.40
17.39
18.46
18.46
17.50
15.96
14.24
12.60
11.04
9.36
7.29
4.67
1.45
-2.30
-6.46
-10.86
-15.31
-19.57
-23.30
-26.22
-28.13
-29.10
-29.46
-29.69
-30.39
-32.03
-34.82
-38.65
-42.94
-46.78
-49.05
-48.72
-45.17
-38.41
-29.11
-18.41
-7.57
2.35
10.71
17.31
22.25
25.75
28.11
29.56
30.33
30.64
30.60
30.22
29.34
27.77
25.39
22.27
18.77
15.51
13.15
12.19
12.75
14.43
16.44
17.88
18.07
16.83
14.47
11.65
9.04
7.01
5.57
4.44
3.24
1.66
-0.41
-2.87
-5.53
-8.15
-10.54
-12.58
-14.35
-16.04
-17.97
-20.43
-23.59
-27.35
-31.28
-34.64
-36.51
-35.99
-32.51
-26.01
-17.02
-6.51
4.33
14.40
22.94
29.54
34.08
36.66
37.44
36.66
34.60
31.64
28.17
24.63
21.40
18.77
16.86
15.61
14.87
14.42
14.18
14.13
14.30
14.65
14.97
14.93
14.25
12.89
11.09
9.29
7.78
6.61
5.47
3.94
1.72
-1.24
-4.79
-8.73
-12.95
-17.46
-22.26
-27.24
-32.16
-36.83
-41.22
-45.56
-50.14
-54.93
-59.34
-62.25
-62.41
-58.91
-51.68
-41.54
-29.96
-18.52
-8.45
-0.39
5.52
9.42
11.57
12.16
11.40
9.62
7.25
4.79
2.73
1.41
0.96
1.31
2.19
3.21
4.04
4.52
4.70
4.80
5.06
5.53
6.07
6.33
6.01
4.96
3.36
1.63
0.23
-0.54
-0.72
-0.63
-0.76
-1.59
-3.44
-6.39
-10.21
-14.33
-17.90
-19.90
-19.38
-15.76
-9.07
-0.04
10.12
20.09
28.77
35.55
40.28
43.17
44.52
44.64
43.77
42.11
39.85
37.19
34.37
31.66
29.47
28.22
28.26
29.67
32.19
35.23
38.02
39.80
40.04
38.41
34.77
29.11
21.56
12.43
2.30
-8.00
-17.55
-25.64
-31.95
-36.68
-40.50
-44.22
-48.61
-54.07
-60.60
-67.69
-74.42
-79.57
-81.86
-80.18
-73.95
-63.38
-49.45
-33.80
-18.29
-4.55
6.40
14.28
19.39
22.39
23.97
24.79
25.42
26.35
28.07
30.88
34.79
39.40
44.03
47.82
50.08
50.46
48.98
45.91
41.61
36.39
30.46
24.03
17.33
10.64
4.26
-1.58
-6.77
-11.33
-15.39
-19.07
-22.47
-25.57
-28.26
-30.39
-31.81
-32.51
-32.63
-32.44
-32.14
-31.72
-30.76
-28.50
-24.17
-17.31
-8.06
2.72
13.74
23.68
31.59
37.06
40.22
41.44
41.15
39.62
37.04
33.61
29.63
25.56
21.92
19.12
17.38
16.57
16.38
16.32
15.97
15.06
13.54
11.48
9.05
6.35
3.44
0.27
-3.19
-6.92
-10.83
-14.70
-18.28
-21.37
-23.91
-26.02
-27.95
-30.04
-32.57
-35.72
-39.53
-43.86
-48.39
-52.50
-55.31
-55.78
-53.02
-46.62
-36.89
-24.87
-12.01
0.19
10.61
18.64
24.16
27.33
28.50
28.09
26.63
24.72
22.97
21.77
21.28
21.32
21.53
21.52
21.07
20.17
19.01
17.88
16.93
16.13
15.19
13.69
11.21
7.52
2.72
-2.85
-8.65
-14.09
-18.63
-21.93
-23.91
-24.77
-25.01
-25.23
-25.96
-27.31
-28.88
-29.78
-28.96
-25.68
-19.79
-11.91
-3.19
5.04
11.69
16.09
18.15
18.14
16.61
14.19
11.45
8.87
6.75
5.25
4.37
3.98
3.98
4.27
4.79
5.53
6.39
7.23
7.84
8.02
7.67
6.79
5.53
4.02
2.34
0.44
-1.85
-4.64
-7.90
-11.40
-14.80
-17.76
-20.09
-21.86
-23.35
-24.95
-27.08
-30.02
-33.89
-38.57
-43.56
-48.01
-50.80
-50.79
-47.14
-39.68
-28.98
-16.28
-3.16
8.89
18.78
26.05
30.78
33.45
34.70
35.14
35.23
35.24
35.24
35.26
35.25
35.22
35.15
35.07
34.97
34.88
34.82
34.77
34.65
34.32
33.54
32.08
29.79
26.66
22.82
18.57
14.22
10.05
6.21
2.77
-0.34
-3.28
-6.27
-9.53
-13.17
-17.16
-21.25
-25.14
-28.56
-31.49
-34.21
-37.23
-41.05
-45.85
-51.26
-56.26
-59.45
-59.46
-55.44
-47.39
-36.25
-23.54
-10.98
0.07
8.85
15.21
19.42
21.99
23.44
24.24
24.82
25.48
26.43
27.66
29.01
30.28
31.27
31.91
32.28
32.50
32.71
32.94
33.13
33.15
32.87
32.19
31.06
29.52
27.64
25.53
23.29
21.04
18.87
16.79
14.74
12.66
10.44
8.08
5.59
3.05
0.50
-2.08
-4.82
-7.88
-11.41
-15.42
-19.73
-24.02
-27.91
-31.09
-33.47
-35.23
-36.80
-38.73
-41.45
-45.01
-48.97
-52.34
-53.85
-52.29
-46.94
-37.87
-25.94
-12.55
0.77
12.83
22.95
31.01
37.10
41.37
43.83
44.41
43.20
40.57
37.24
34.05
31.71
30.50
30.19
30.12
29.49
27.54
23.79
18.06
10.58
2.02
-6.53
-13.71
-18.26
-19.44
-17.34
-12.86
-7.39
-2.36
1.21
2.82
2.41
0.07
-4.05
-9.81
-16.84
-24.35
-31.13
-35.74
-37.03
-34.54
-28.92
-21.77
-15.24
-11.30
-11.03
-14.34
-20.12
-26.71
-32.62
-36.91
-39.40
-40.42
-40.57
-40.42
-40.42
-40.81
-41.56
-42.36
-42.54
-41.23
-37.53
-30.87
-21.23
-9.22
4.00
17.04
28.65
37.98
44.70
48.97
51.24
52.04
51.84
51.00
49.78
48.38
46.96
45.60
44.34
43.14
41.87
40.40
38.60
36.39
33.76
30.76
27.56
24.37
21.46
19.03
17.18
15.85
14.80
13.69
12.15
9.88
6.73
2.72
-1.93
-6.79
-11.38
-15.23
-18.05
-19.87
-21.06
-22.26
-24.17
-27.27
-31.64
-36.89
-42.28
-46.99
-50.42
-52.35
-52.97
-52.78
-52.41
-52.44
-53.32
-55.27
-58.17
-61.48
-64.26
-65.29
-63.36
-57.71
-48.24
-35.69
-21.36
-6.82
6.49
17.57
25.91
31.41
34.27
34.90
33.81
31.58
28.85
26.24
24.34
23.61
24.26
26.22
29.08
32.23
35.01
36.89
37.62
37.23
35.94
34.04
31.74
29.20
26.52
23.81
21.19
18.71
16.33
13.91
11.21
8.11
4.68
1.21
-1.85
-4.17
-5.75
-7.06
-8.94
-12.31
-17.80
-25.33
-34.04
-42.40
-48.65
-51.24
-49.36
-43.14
-33.54
-22.08
-10.31
0.52
9.71
17.03
22.55
26.40
28.66
29.39
28.63
26.57
23.48
19.76
15.84
12.16
9.13
7.02
5.93
5.70
5.97
6.26
6.17
5.47
4.18
2.44
0.46
-1.68
-3.96
-6.38
-8.92
-11.44
-13.75
-15.74
-17.37
-18.76
-20.08
-21.48
-23.08
-24.96
-27.25
-30.13
-33.64
-37.53
-41.06
-43.05
-42.25
-37.77
-29.51
-18.23
-5.42
7.22
18.21
26.66
32.33
35.50
36.77
36.77
36.04
34.99
33.83
32.72
31.71
30.82
30.02
29.26
28.50
27.80
27.29
27.15
27.51
28.32
29.29
30.00
30.03
29.11
27.20
24.44
21.00
16.96
12.32
7.07
1.34
-4.57
-10.21
-15.15
-19.15
-22.28
-24.89
-27.56
-30.85
-35.11
-40.30
-45.81
-50.56
-53.22
-52.55
-47.87
-39.32
-27.83
-14.95
-2.30
8.78
17.51
23.69
27.47
29.25
29.48
28.70
27.43
26.22
25.47
25.35
25.72
26.24
26.50
26.25
25.47
24.37
23.26
22.41
21.91
21.64
21.31
20.56
19.05
16.62
13.33
9.49
5.53
1.83
-1.44
-4.36
-7.20
-10.26
-13.68
-17.36
-21.02
-24.38
-27.23
-29.60
-31.71
-33.98
-36.89
-40.78
-45.68
-51.10
-55.90
-58.55
-57.53
-51.86
-41.57
-27.72
-12.18
2.95
15.84
25.41
31.33
34.04
34.42
33.51
32.28
31.41
31.17
31.51
32.14
32.70
32.91
32.61
31.77
30.52
29.07
27.71
26.71
26.16
25.95
25.74
25.10
23.72
21.48
18.49
14.99
11.26
7.55
4.02
0.81
-2.01
-4.38
-6.32
-7.92
-9.33
-10.75
-12.34
-14.25
-16.50
-19.04
-21.67
-24.19
-26.42
-28.34
-30.07
-31.88
-34.10
-36.96
-40.48
-44.37
-47.96
-50.25
-50.17
-46.89
-40.12
-30.36
-18.74
-6.75
4.20
13.15
19.74
24.11
26.72
28.13
28.82
29.19
29.49
29.85
30.28
30.69
30.98
31.07
30.92
30.60
30.18
29.72
29.27
28.82
28.34
27.77
27.04
26.05
24.70
22.96
20.87
18.55
16.21
14.01
12.07
10.42
8.99
7.65
6.27
4.71
2.86
0.68
-1.87
-4.76
-7.89
-11.13
-14.31
-17.31
-20.07
-22.68
-25.35
-28.35
-31.86
-35.91
-40.31
-44.69
-48.63
-51.81
-54.17
-55.89
-57.37
-59.15
-61.71
-65.22
-69.32
-72.96
-74.59
-72.48
-65.39
-53.06
-36.45
-17.47
1.55
18.60
32.36
42.28
48.43
51.14
50.90
48.33
44.24
39.58
35.32
32.19
30.51
30.17
30.76
31.74
32.63
33.15
33.17
32.76
32.07
31.25
30.38
29.39
28.09
26.25
23.70
20.45
16.68
12.70
8.82
5.29
2.19
-0.50
-2.88
-5.14
-7.44
-9.93
-12.68
-15.64
-18.66
-21.58
-24.24
-26.60
-28.76
-31.01
-33.72
-37.20
-41.58
-46.50
-51.07
-53.97
-53.79
-49.55
-41.11
-29.30
-15.71
-2.18
9.71
19.03
25.55
29.57
31.68
32.47
32.43
31.97
31.33
30.71
30.18
29.72
29.27
28.75
28.10
27.33
26.50
25.71
25.04
24.50
24.05
23.56
22.88
21.87
20.47
18.70
16.65
14.45
12.18
9.88
7.54
5.17
2.82
0.65
-1.24
-2.85
-4.31
-5.92
-7.98
-10.67
-13.97
-17.65
-21.35
-24.76
-27.68
-30.15
-32.39
-34.73
-37.49
-40.93
-45.14
-49.96
-54.87
-58.90
-60.71
-58.88
-52.46
-41.37
-26.62
-10.12
6.00
20.09
31.40
40.05
46.64
51.62
55.04
56.58
55.97
53.27
48.98
43.77
38.18
32.52
26.89
21.49
16.78
13.38
11.79
12.04
13.53
15.24
16.10
15.32
12.72
8.64
3.76
-1.16
-5.47
-8.74
-10.80
-11.73
-11.83
-11.49
-11.15
-11.15
-11.69
-12.72
-13.96
-14.96
-15.30
-14.78
-13.60
-12.36
-11.87
-12.80
-15.39
-19.29
-23.70
-27.63
-30.27
-31.24
-30.65
-29.07
-27.26
-25.98
-25.78
-26.73
-28.37
-29.67
-29.21
-25.60
-18.06
-6.78
6.93
20.88
32.75
40.76
44.20
43.60
40.37
36.28
32.85
30.94
30.65
31.54
32.94
34.25
35.12
35.32
34.63
32.73
29.40
24.64
18.98
13.39
8.99
6.63
6.48
8.01
10.28
12.38
13.78
14.46
14.66
14.70
14.67
14.46
13.80
12.41
10.15
7.13
3.63
0.06
-3.24
-6.11
-8.63
-11.06
-13.76
-16.99
-20.85
-25.29
-30.13
-35.13
-40.06
-44.75
-49.12
-53.29
-57.55
-62.29
-67.87
-74.24
-80.78
-86.18
-88.71
-86.73
-79.27
-66.44
-49.48
-30.41
-11.44
5.61
19.60
30.16
37.48
42.05
44.52
45.59
45.93
46.13
46.56
47.26
47.98
48.25
47.67
46.06
43.67
41.00
38.62
36.82
35.47
34.03
31.84
28.44
23.83
18.52
13.33
9.08
6.31
5.08
5.01
5.38
5.33
4.01
0.81
-4.46
-11.57
-19.83
-28.38
-36.45
-43.61
-49.90
-55.62
-61.08
-66.24
-70.53
-72.94
-72.41
-68.26
-60.53
-50.05
-38.18
-26.35
-15.73
-6.98
-0.28
4.52
7.77
9.90
11.30
12.33
13.24
14.15
15.04
15.86
16.49
16.89
17.06
17.04
16.92
16.82
16.87
17.19
17.80
18.54
19.10
19.06
18.02
15.75
12.27
7.87
2.95
-2.03
-6.72
-10.89
-14.49
-17.61
-20.44
-23.26
-26.45
-30.37
-35.31
-41.25
-47.68
-53.55
-57.40
-57.74
-53.54
-44.68
-32.07
-17.37
-2.56
10.65
21.21
28.76
33.56
36.19
37.32
37.59
37.53
37.53
37.84
38.51
39.37
40.14
40.54
40.34
39.51
38.21
36.72
35.33
34.23
33.37
32.48
31.18
29.14
26.24
22.67
18.80
15.06
11.77
8.99
6.56
4.15
1.44
-1.74
-5.33
-9.03
-12.37
-14.88
-16.26
-16.62
-16.43
-16.52
-17.79
-20.88
-25.90
-32.14
-38.21
-42.30
-42.72
-38.48
-29.60
-17.21
-3.13
10.63
22.51
31.61
37.80
41.44
43.12
43.44
42.93
42.08
41.30
40.87
40.85
41.02
40.98
40.30
38.72
36.27
33.27
30.16
27.33
24.94
22.81
20.54
17.59
13.52
8.07
1.28
-6.57
-15.00
-23.42
-31.25
-37.97
-43.20
-46.70
-48.46
-48.72
-47.90
-46.57
-45.30
-44.49
-44.30
-44.64
-45.28
-45.97
-46.50
-46.79
-46.85
-46.82
-46.97
-47.71
-49.48
-52.55
-56.66
-60.90
-63.67
-63.12
-57.83
-47.34
-32.52
-15.25
2.12
17.54
29.73
38.33
43.72
46.63
47.86
48.06
47.72
47.18
46.68
46.34
46.17
46.11
46.00
45.67
45.03
44.02
42.66
41.02
39.19
37.23
35.17
32.99
30.73
28.40
26.10
23.90
21.81
19.78
17.65
15.27
12.50
9.28
5.66
1.72
-2.39
-6.57
-10.74
-14.86
-18.92
-22.90
-26.75
-30.41
-33.79
-36.80
-39.46
-41.90
-44.43
-47.48
-51.41
-56.25
-61.45
-65.81
-67.73
-65.65
-58.68
-46.99
-31.90
-15.48
0.03
12.85
22.11
27.78
30.50
31.17
30.67
29.69
28.77
28.24
28.27
28.90
29.92
30.96
31.59
31.49
30.54
28.97
27.17
25.56
24.35
23.44
22.45
20.92
18.55
15.33
11.61
7.90
4.68
2.20
0.36
-1.16
-2.82
-4.97
-7.75
-11.11
-14.77
-18.44
-21.86
-24.88
-27.53
-30.01
-32.65
-35.85
-39.86
-44.57
-49.28
-52.76
-53.48
-50.18
-42.32
-30.46
-16.09
-1.27
12.11
22.71
30.05
34.37
36.34
36.76
36.35
35.69
35.17
35.03
35.26
35.70
36.05
36.03
35.49
34.44
33.05
31.58
30.23
29.12
28.19
27.27
26.12
24.54
22.41
19.83
17.06
14.43
12.16
10.34
8.78
7.17
5.10
2.30
-1.33
-5.65
-10.39
-15.24
-19.95
-24.36
-28.36
-31.85
-34.68
-36.72
-38.03
-38.98
-40.27
-42.63
-46.43
-51.23
-55.61
-57.50
-54.90
-46.61
-32.86
-15.31
3.35
20.21
32.70
39.15
38.91
32.51
21.51
8.40
-3.95
-12.95
-17.03
-16.08
-11.35
-4.87
1.38
6.22
9.46
11.64
13.55
15.67
17.97
20.05
21.43
21.83
21.36
20.33
19.13
17.97
16.81
15.49
13.89
12.15
10.59
9.56
9.25
9.50
9.87
9.86
9.11
7.65
5.74
3.79
2.14
0.92
0.03
-0.76
-1.70
-2.99
-4.68
-6.67
-8.67
-10.20
-10.65
-9.44
-6.24
-1.13
5.32
12.22
18.67
23.99
27.94
30.56
32.13
32.92
33.14
33.03
32.89
33.04
33.69
34.74
35.68
35.77
34.28
30.86
25.72
19.52
13.17
7.44
2.76
-0.87
-3.73
-6.26
-8.81
-11.56
-14.50
-17.49
-20.42
-23.24
-26.06
-29.16
-32.86
-37.47
-43.25
-50.26
-58.30
-66.81
-74.79
-81.06
-84.47
-84.52
-81.59
-77.06
-72.79
-70.40
-70.59
-72.82
-75.54
-76.79
-74.80
-68.49
-57.54
-42.40
-24.05
-3.88
16.46
35.31
51.27
63.50
71.85
76.79
79.06
79.37
78.09
75.22
70.65
64.44
57.01
49.15
41.83
35.79
31.33
28.21
25.91
23.88
21.79
19.59
17.40
15.30
13.20
10.84
7.91
4.17
-0.42
-5.66
-11.24
-16.71
-21.66
-25.72
-28.71
-30.71
-32.10
-33.50
-35.60
-38.81
-42.94
-47.17
-50.13
-50.33
-46.73
-39.07
-28.07
-15.12
-1.87
10.27
20.44
28.34
34.12
38.13
40.74
42.20
42.69
42.34
41.26
39.58
37.39
34.83
32.00
29.05
26.08
23.22
20.53
18.03
15.65
13.26
10.68
7.69
4.17
0.13
-4.29
-8.85
-13.34
-17.63
-21.71
-25.55
-29.08
-32.10
-34.35
-35.63
-35.91
-35.45
-34.73
-34.35
-34.83
-36.39
-38.77
-41.14
-42.22
-40.63
-35.39
-26.31
-14.21
-0.66
12.49
23.70
32.11
37.65
40.78
42.17
42.43
41.96
40.99
39.69
38.25
36.86
35.70
34.92
34.61
34.71
35.10
35.52
35.75
35.62
35.13
34.37
33.45
32.35
30.88
28.73
25.66
21.70
17.18
12.69
8.76
5.66
3.24
1.01
-1.60
-4.97
-9.09
-13.59
-17.87
-21.41
-23.98
-25.70
-27.06
-28.63
-30.99
-34.49
-39.12
-44.45
-49.55
-53.05
-53.49
-49.66
-41.15
-28.65
-13.85
1.05
13.99
23.63
29.67
32.67
33.68
33.83
34.03
34.83
36.48
38.96
41.95
44.89
47.10
47.93
47.02
44.39
40.51
36.07
31.82
28.30
25.72
23.99
22.81
21.85
20.76
19.30
17.25
14.45
10.81
6.32
1.05
-4.85
-11.24
-17.99
-25.07
-32.47
-40.12
-47.76
-54.90
-60.90
-65.15
-67.29
-67.45
-66.15
-64.25
-62.62
-61.91
-62.48
-64.36
-67.36
-71.01
-74.55
-76.83
-76.47
-72.25
-63.53
-50.60
-34.72
-17.78
-1.74
11.90
22.39
29.67
34.19
36.59
37.50
37.45
36.93
36.41
36.34
37.10
38.84
41.37
44.07
45.99
46.17
43.95
39.32
32.91
25.76
18.87
12.80
7.55
2.73
-2.17
-7.42
-13.04
-18.88
-24.81
-30.83
-36.93
-42.88
-48.12
-51.71
-52.68
-50.40
-44.91
-37.15
-28.74
-21.57
-17.29
-16.83
-20.17
-26.33
-33.66
-40.21
-44.14
-44.11
-39.59
-30.99
-19.55
-7.07
4.57
13.96
20.48
24.44
26.80
28.69
30.97
33.91
37.24
40.36
42.73
44.12
44.63
44.56
44.15
43.48
42.40
40.72
38.33
35.31
31.84
28.21
24.65
21.33
18.22
15.18
11.88
7.98
3.20
-2.48
-8.74
-15.04
-20.75
-25.38
-28.79
-31.13
-32.79
-34.22
-35.82
-37.85
-40.32
-42.86
-44.64
-44.42
-40.89
-33.09
-20.91
-5.27
12.10
29.06
43.71
54.67
61.28
63.53
61.86
57.06
50.21
42.50
35.08
28.79
23.98
20.52
17.96
15.80
13.72
11.61
9.56
7.73
6.18
4.92
3.81
2.67
1.27
-0.60
-3.02
-5.95
-9.24
-12.62
-15.83
-18.71
-21.23
-23.55
-25.86
-28.33
-30.97
-33.62
-36.02
-37.92
-39.28
-40.27
-41.28
-42.77
-45.11
-48.43
-52.47
-56.58
-59.71
-60.59
-58.03
-51.31
-40.46
-26.36
-10.60
5.03
18.96
30.31
38.86
44.99
49.32
52.44
54.74
56.38
57.39
57.72
57.39
56.43
54.92
52.97
50.68
48.17
45.55
42.93
40.37
37.91
35.52
33.10
30.56
27.79
24.69
21.17
17.21
12.88
8.40
4.11
0.37
-2.59
-4.82
-6.66
-8.61
-11.15
-14.52
-18.62
-23.08
-27.40
-31.15
-34.13
-36.41
-38.28
-40.17
-42.49
-45.58
-49.56
-54.22
-58.88
-62.42
-63.42
-60.60
-53.29
-41.75
-27.25
-11.69
2.97
15.24
24.48
30.76
34.62
36.72
37.59
37.64
37.21
36.63
36.19
36.06
36.22
36.47
36.53
36.16
35.26
33.91
32.31
30.67
29.13
27.70
26.28
24.66
22.61
19.98
16.75
13.10
9.42
6.16
3.70
2.17
1.37
0.77
-0.27
-2.30
-5.59
-10.05
-15.32
-20.92
-26.42
-31.55
-36.21
-40.47
-44.48
-48.50
-52.81
-57.56
-62.59
-67.20
-70.21
-70.16
-65.87
-56.89
-43.81
-28.17
-11.98
2.80
14.81
23.47
28.89
31.62
32.36
31.80
30.46
28.77
27.00
25.30
23.77
22.41
21.24
20.21
19.27
18.28
17.09
15.56
13.66
11.51
9.31
7.28
5.50
3.88
2.18
0.13
-2.48
-5.73
-9.52
-13.64
-17.80
-21.71
-25.14
-27.91
-29.96
-31.43
-32.61
-33.94
-35.87
-38.64
-42.08
-45.45
-47.53
-46.90
-42.45
-33.84
-21.72
-7.59
6.72
19.55
29.85
37.32
42.24
45.18
46.76
47.51
47.77
47.73
47.43
46.72
45.45
43.46
40.74
37.41
33.71
29.90
26.23
22.86
19.86
17.19
14.67
12.05
9.13
5.80
2.16
-1.54
-5.01
-8.06
-10.68
-13.01
-15.21
-17.41
-19.61
-21.71
-23.57
-25.14
-26.45
-27.66
-29.09
-31.14
-34.20
-38.41
-43.39
-48.11
-50.97
-50.33
-45.09
-35.22
-21.84
-6.88
7.60
20.05
29.73
36.64
41.20
43.93
45.29
45.71
45.63
45.47
45.51
45.74
45.83
45.32
43.81
41.18
37.65
33.66
29.68
26.06
22.93
20.21
17.69
15.10
12.26
9.07
5.59
1.99
-1.50
-4.69
-7.49
-9.98
-12.34
-14.75
-17.29
-19.92
-22.49
-24.81
-26.77
-28.42
-29.91
-31.47
-33.36
-35.79
-38.94
-42.87
-47.50
-52.37
-56.68
-59.24
-58.89
-54.76
-46.76
-35.59
-22.62
-9.46
2.55
12.56
20.34
26.06
30.08
32.73
34.23
34.72
34.38
33.45
32.25
31.09
30.15
29.39
28.63
27.57
25.99
23.83
21.21
18.37
15.60
13.16
11.24
9.88
9.01
8.39
7.72
6.75
5.36
3.64
1.72
-0.32
-2.57
-5.36
-8.99
-13.65
-19.13
-24.93
-30.41
-35.04
-38.65
-41.47
-44.04
-46.95
-50.70
-55.46
-61.02
-66.72
-71.50
-74.06
-73.12
-67.82
-58.06
-44.61
-28.95
-12.97
1.55
13.35
21.84
27.11
29.75
30.59
30.57
30.59
31.38
33.42
36.82
41.30
46.27
50.99
54.80
57.29
58.39
58.29
57.27
55.61
53.48
50.92
47.87
44.19
39.73
34.36
28.11
21.18
13.92
6.66
-0.42
-7.30
-14.10
-20.84
-27.31
-33.04
-37.58
-40.72
-42.68
-44.11
-45.83
-48.51
-52.32
-56.85
-61.13
-63.90
-63.92
-60.38
-53.11
-42.66
-30.20
-17.18
-5.00
5.26
13.04
18.30
21.39
22.85
23.24
23.01
22.50
21.96
21.55
21.45
21.72
22.33
23.10
23.80
24.22
24.32
24.22
24.09
24.05
24.04
23.90
23.41
22.47
21.10
19.40
17.48
15.40
13.16
10.77
8.27
5.69
3.02
0.15
-3.11
-6.95
-11.47
-16.63
-22.25
-28.07
-33.74
-38.78
-42.55
-44.23
-43.07
-38.62
-31.06
-21.25
-10.55
-0.44
8.01
14.38
18.92
22.25
24.98
27.45
29.67
31.42
32.47
32.72
32.25
31.27
30.00
28.64
27.33
26.23
25.43
25.01
24.91
24.96
24.88
24.34
23.08
20.97
18.05
14.46
10.43
6.19
1.98
-1.95
-5.44
-8.43
-10.96
-13.25
-15.56
-18.11
-21.06
-24.42
-28.09
-31.91
-35.66
-39.10
-42.04
-44.39
-46.29
-48.12
-50.38
-53.51
-57.54
-61.93
-65.53
-66.89
-64.69
-58.23
-47.66
-34.01
-18.87
-3.91
9.45
20.35
28.50
34.08
37.62
39.77
41.19
42.32
43.40
44.39
45.11
45.38
45.10
44.34
43.24
41.96
40.61
39.25
37.91
36.58
35.23
33.81
32.18
30.22
27.83
25.09
22.19
19.43
17.05
15.09
13.36
11.49
9.17
6.34
3.26
0.36
-2.02
-3.86
-5.53
-7.62
-10.57
-14.43
-18.82
-23.11
-26.77
-29.60
-31.87
-34.10
-36.85
-40.55
-45.28
-50.70
-55.99
-59.96
-61.20
-58.52
-51.40
-40.29
-26.57
-12.16
1.09
11.99
20.14
25.83
29.59
31.79
32.44
31.32
28.16
22.96
16.07
8.07
-0.29
-8.35
-15.54
-21.47
-25.84
-28.43
-29.18
-28.22
-25.92
-22.90
-19.87
-17.53
-16.40
-16.78
-18.72
-22.06
-26.48
-31.56
-36.80
-41.61
-45.41
-47.61
-47.76
-45.64
-41.35
-35.30
-28.15
-20.70
-13.73
-7.89
-3.59
-0.99
0.13
0.37
0.72
2.35
6.29
13.10
22.56
33.67
44.83
54.35
60.90
63.91
63.67
61.26
58.16
55.81
55.24
56.83
60.27
64.82
69.66
74.23
78.40
82.36
86.34
90.35
94.13
97.34
99.67
100.68
99.38
93.95
82.16
62.52
35.69
5.10
-23.80
-45.65
-57.43
-59.70
-56.03
-50.98
-47.94
-48.05
-50.53
-54.03
-57.81
-61.92
-66.55
-71.04
-73.67
-72.37
-65.98
-55.19
-42.35
-30.33
-20.96
-14.07
-7.76
0.34
11.37
24.38
36.52
44.37
45.45
39.18
26.82
10.66
-6.95
-24.26
-40.19
-54.04
-65.38
-73.86
-79.21
-81.22
-79.74
-74.55
-65.42
-52.26
-35.45
-16.14
3.69
21.56
35.08
42.58
43.60
38.89
30.02
18.94
7.68
-1.76
-7.53
-8.29
-3.84
4.27
12.71
17.14
13.67
0.37
-21.96
-50.06
-79.42
-105.61
-125.41
-137.15
-140.56
-136.34
-125.86
-110.95
-93.76
-76.44
-60.80
-48.05
-38.60
-32.08
-27.67
-24.40
-21.47
-18.37
-15.00
-11.48
-8.11
-5.09
-2.47
-0.04
2.63
6.13
10.98
17.50
25.64
34.91
44.49
53.41
60.81
66.18
69.38
70.68
70.49
69.18
66.90
63.61
59.21
53.76
47.59
41.26
35.32
30.14
25.76
21.98
18.49
15.02
11.39
7.49
3.34
-0.90
-4.74
-7.37
-7.81
-5.26
0.46
8.75
18.29
27.46
34.85
39.67
41.80
41.67
39.91
37.07
33.54
29.60
25.47
21.42
17.67
14.42
11.62
8.99
6.07
2.61
-1.31
-5.32
-9.01
-12.08
-14.33
-15.77
-16.62
-17.20
-17.68
-18.11
-18.49
-18.86
-19.29
-19.60
-19.61
-19.31
-18.96
-18.64
-18.32
-18.06
-18.13
-18.86
-19.71
-19.86
-18.40
-15.13
-9.39
-0.75
10.57
23.32
35.81
47.78
59.23
70.02
78.44
84.38
88.29
90.76
91.64
90.38
88.60
87.62
87.71
86.18
83.03
80.08
80.56
87.08
100.90
123.88
154.81
189.19
218.26
237.86
247.94
251.37
250.73
230.50
182.19
108.24
38.00
-20.57
-66.15
-103.54
-133.38
-156.16
-172.66
-181.14
-180.82
-172.87
-162.85
-153.22
-144.48
-135.96
-127.75
-120.40
-112.45
-102.60
-90.15
-77.35
-64.23
-50.44
-35.98
-22.25
-10.88
-1.70
5.70
11.31
13.13
11.13
6.63
1.85
-1.53
-2.97
-2.87
-3.08
-5.88
-13.99
-25.94
-36.52
-40.10
-34.97
-24.12
-12.64
-5.25
-2.88
-4.45
-7.39
-9.43
-9.72
-9.05
-8.23
-8.15
-9.27
-11.57
-14.79
-18.36
-21.74
-24.78
-27.70
-30.77
-34.26
-38.24
-42.46
-46.52
-49.65
-50.97
-49.76
-45.59
-38.37
-28.38
-16.31
-3.09
10.05
21.97
31.72
38.64
42.54
43.72
42.94
41.16
39.28
37.87
37.06
36.59
35.97
34.71
32.48
29.23
25.14
20.57
15.94
11.66
8.00
5.05
2.72
0.78
-0.97
-2.61
-4.10
-5.36
-6.43
-7.46
-8.76
-10.53
-12.76
-15.17
-17.23
-18.37
-18.24
-16.82
-14.44
-11.68
-9.15
-7.38
-6.60
-6.79
-7.66
-8.77
-9.73
-10.32
-10.55
-10.66
-10.96
-11.69
-12.86
-14.29
-15.66
-16.69
-17.24
-17.40
-17.51
-18.02
-19.34
-21.63
-24.72
-28.07
-30.97
-32.80
-33.23
-32.35
-30.57
-28.44
-26.45
-24.91
-23.86
-23.11
-22.24
-20.65
-17.74
-13.09
-6.72
0.83
8.71
16.04
22.29
27.42
31.79
35.90
40.06
44.33
48.50
52.23
55.23
57.30
58.36
58.43
57.64
56.23
54.42
52.38
50.08
47.35
43.95
39.73
34.72
29.15
23.31
17.50
11.91
6.73
2.12
-1.75
-4.76
-6.97
-8.60
-10.00
-11.45
-13.05
-14.64
-15.93
-16.67
-16.76
-16.35
-15.87
-16.05
-17.79
-22.01
-29.33
-39.74
-52.34
-65.35
-76.50
-83.61
-85.19
-80.77
-71.01
-57.34
-41.63
-25.75
-11.27
0.62
9.25
14.47
16.60
16.31
14.52
12.14
9.92
8.28
7.34
6.94
6.85
6.89
7.02
7.24
7.59
8.04
8.49
8.82
8.96
8.93
8.79
8.59
8.32
7.89
7.21
6.30
5.27
4.29
3.45
2.70
1.76
0.23
-2.25
-5.67
-9.62
-13.37
-16.15
-17.39
-16.91
-14.91
-11.89
-8.58
-5.93
-5.04
-7.00
-12.45
-21.20
-31.95
-42.40
-49.81
-51.82
-47.08
-35.61
-18.67
1.63
22.83
42.54
58.77
70.14
75.97
76.29
71.74
63.38
52.49
40.40
28.36
17.53
8.80
2.78
-0.40
-1.09
0.01
2.00
4.02
5.39
5.69
4.70
2.35
-1.29
-6.08
-11.68
-17.69
-23.59
-28.94
-33.38
-36.78
-39.24
-41.01
-42.40
-43.63
-44.74
-45.64
-46.22
-46.45
-46.58
-47.09
-48.55
-51.36
-55.40
-59.88
-63.39
-64.25
-61.11
-53.44
-41.76
-27.56
-12.80
0.74
11.86
20.12
25.67
29.00
30.70
31.30
31.31
31.16
31.21
31.66
32.44
33.30
33.85
33.77
32.93
31.52
29.94
28.66
28.02
28.00
28.19
27.90
26.47
23.53
19.21
14.20
9.51
6.20
5.03
6.25
9.50
13.88
18.14
21.03
21.63
19.56
15.13
9.17
2.70
-3.38
-8.59
-12.98
-17.00
-21.21
-25.89
-30.85
-35.30
-38.15
-38.35
-35.32
-29.16
-20.67
-11.09
-1.70
6.49
12.94
17.56
20.55
22.22
22.90
22.88
22.41
21.73
21.05
20.55
20.30
20.29
20.40
20.52
20.57
20.55
20.47
20.34
20.10
19.66
18.97
18.07
17.17
16.53
16.39
16.81
17.59
18.39
18.88
18.85
18.32
17.44
16.30
14.78
12.52
9.08
4.16
-2.11
-9.19
-16.17
-22.17
-26.58
-29.27
-30.53
-30.98
-31.37
-32.49
-35.02
-39.36
-45.44
-52.48
-59.01
-63.16
-63.28
-58.46
-48.93
-35.99
-21.58
-7.66
4.21
13.20
19.09
22.20
23.14
22.63
21.44
20.20
19.35
19.10
19.43
20.20
21.22
22.30
23.27
23.96
24.30
24.28
24.01
23.65
23.27
22.84
22.19
21.09
19.41
17.21
14.65
12.02
9.56
7.41
5.56
3.96
2.51
1.14
-0.16
-1.39
-2.52
-3.43
-3.97
-3.98
-3.40
-2.34
-1.18
-0.45
-0.66
-2.07
-4.59
-7.76
-11.00
-13.78
-15.88
-17.38
-18.59
-19.91
-21.71
-24.29
-27.89
-32.52
-37.85
-43.00
-46.65
-47.30
-43.83
-35.99
-24.60
-11.33
1.79
13.10
21.66
27.35
30.57
31.86
31.65
30.22
27.76
24.53
20.88
17.19
13.86
11.19
9.45
8.83
9.39
10.97
13.21
15.62
17.69
19.03
19.41
18.69
16.76
13.55
9.15
3.90
-1.56
-6.50
-10.24
-12.50
-13.42
-13.54
-13.53
-13.98
-15.15
-16.96
-19.05
-20.98
-22.45
-23.39
-24.00
-24.66
-25.75
-27.57
-30.29
-33.97
-38.47
-43.35
-47.74
-50.36
-49.87
-45.27
-36.40
-24.09
-9.98
4.02
16.32
25.95
32.68
36.80
38.76
39.07
38.16
36.46
34.41
32.44
30.86
29.79
29.21
28.94
28.81
28.69
28.53
28.40
28.35
28.38
28.43
28.32
27.80
26.66
24.78
22.14
18.90
15.26
11.48
7.73
4.18
0.93
-1.97
-4.54
-6.89
-9.24
-11.84
-14.88
-18.35
-22.06
-25.64
-28.77
-31.26
-33.18
-34.83
-36.66
-39.11
-42.50
-46.90
-51.96
-56.87
-60.40
-61.14
-57.93
-50.26
-38.60
-24.23
-9.02
5.19
16.98
25.57
30.88
33.30
33.51
32.33
30.59
29.00
28.01
27.75
28.03
28.49
28.82
28.99
29.24
30.01
31.79
34.82
39.11
44.40
50.23
56.00
61.01
64.47
65.61
63.98
59.58
52.98
45.23
37.44
30.51
24.80
20.24
16.44
13.00
9.66
6.28
2.68
-1.34
-6.02
-11.44
-17.38
-23.31
-28.59
-32.80
-36.00
-38.82
-42.26
-47.27
-54.31
-62.92
-71.74
-78.77
-81.98
-79.97
-72.36
-60.00
-44.64
-28.43
-13.34
-0.76
8.70
15.09
18.91
20.87
21.68
22.03
22.44
23.28
24.72
26.65
28.76
30.63
31.82
32.11
31.52
30.28
28.78
27.35
26.12
24.99
23.66
21.80
19.18
15.88
12.27
8.95
6.48
5.09
4.50
3.85
1.96
-2.27
-9.50
-19.64
-31.90
-44.99
-57.56
-68.50
-77.13
-83.13
-86.47
-87.30
-85.96
-83.05
-79.46
-76.20
-74.03
-73.05
-72.37
-70.32
-64.98
-54.99
-40.16
-21.59
-1.36
18.25
35.33
48.73
58.06
63.39
65.00
63.26
58.69
51.99
44.08
35.95
28.41
22.06
17.16
13.76
11.80
11.18
11.78
13.44
15.85
18.52
20.80
22.10
22.03
20.53
17.92
14.64
11.08
7.45
3.75
-0.06
-3.89
-7.46
-10.39
-12.47
-13.75
-14.68
-15.92
-18.22
-22.22
-28.25
-36.20
-45.28
-54.00
-60.40
-62.50
-59.00
-49.76
-35.99
-19.78
-3.49
11.06
22.92
31.98
38.61
43.22
46.03
47.11
46.56
44.71
42.12
39.46
37.23
35.60
34.42
33.41
32.37
31.41
30.87
31.17
32.58
35.00
37.96
40.75
42.65
43.12
41.95
39.29
35.55
31.27
26.99
23.11
19.76
16.85
14.12
11.27
8.13
4.65
0.99
-2.66
-6.11
-9.27
-12.20
-15.11
-18.31
-22.17
-27.05
-33.05
-39.81
-46.37
-51.16
-52.36
-48.43
-38.80
-24.21
-6.66
11.09
26.42
37.59
44.15
46.91
47.41
47.29
47.75
49.22
51.43
53.60
54.82
54.35
51.81
47.24
41.03
33.77
26.16
18.91
12.65
7.86
4.77
3.34
3.17
3.62
3.91
3.33
1.38
-2.03
-6.62
-11.80
-16.88
-21.19
-24.33
-26.27
-27.27
-27.79
-28.32
-29.16
-30.44
-32.03
-33.73
-35.24
-36.25
-36.50
-35.79
-34.16
-31.99
-30.09
-29.55
-31.37
-35.96
-42.89
-50.96
-58.59
-64.44
-67.91
-69.22
-69.24
-68.95
-68.94
-69.09
-68.62
-66.41
-61.43
-53.24
-42.15
-29.24
-15.99
-3.87
6.06
13.34
18.06
20.65
21.67
21.64
21.06
20.36
19.92
19.95
20.50
21.42
22.42
23.19
23.49
23.25
22.60
21.85
21.36
21.38
21.94
22.77
23.34
23.11
21.67
18.98
15.40
11.51
7.87
4.77
2.10
-0.54
-3.63
-7.45
-11.95
-16.77
-21.41
-25.49
-28.87
-31.78
-34.68
-38.14
-42.68
-48.50
-55.36
-62.38
-68.07
-70.69
-68.70
-61.36
-49.11
-33.51
-16.75
-1.03
12.09
22.01
28.95
33.65
37.01
39.75
42.34
44.96
47.60
50.08
52.15
53.54
54.03
53.56
52.20
50.22
47.99
45.89
44.24
43.13
42.46
41.93
41.18
39.90
37.96
35.42
32.51
29.51
26.63
23.94
21.34
18.56
15.36
11.58
7.25
2.63
-1.95
-6.21
-10.10
-13.78
-17.57
-21.74
-26.34
-31.15
-35.70
-39.51
-42.24
-43.84
-44.62
-45.11
-46.04
-48.07
-51.62
-56.60
-62.25
-67.10
-69.31
-67.16
-59.65
-46.99
-30.54
-12.50
4.76
19.31
30.06
36.86
40.24
41.19
40.80
40.08
39.77
40.28
41.60
43.42
45.25
46.60
47.17
46.85
45.81
44.32
42.70
41.19
39.87
38.56
36.96
34.69
31.46
27.27
22.42
17.50
13.18
10.00
8.23
7.74
8.16
9.01
9.87
10.43
10.55
10.10
9.02
7.23
4.73
1.63
-1.81
-5.23
-8.25
-10.59
-12.17
-13.17
-13.96
-15.00
-16.62
-18.94
-21.85
-25.05
-28.21
-31.11
-33.71
-36.16
-38.69
-41.59
-45.16
-49.58
-54.85
-60.54
-65.66
-68.75
-68.18
-62.75
-52.20
-37.49
-20.57
-3.85
10.56
21.37
28.29
31.92
33.26
33.36
33.01
32.71
32.73
33.13
33.85
34.75
35.62
36.26
36.56
36.52
36.26
35.94
35.69
35.53
35.37
35.03
34.30
33.00
31.04
28.43
25.26
21.73
18.04
14.41
11.02
7.97
5.30
2.99
1.03
-0.63
-2.04
-3.27
-4.40
-5.53
-6.72
-8.02
-9.44
-11.01
-12.79
-14.84
-17.25
-20.00
-22.96
-25.84
-28.35
-30.24
-31.43
-32.06
-32.47
-33.17
-34.69
-37.45
-41.58
-46.67
-51.69
-55.11
-55.25
-50.84
-41.54
-28.11
-12.29
3.79
18.13
29.40
37.06
41.24
42.46
41.35
38.61
34.94
31.04
27.58
25.08
23.79
23.66
24.41
25.62
26.91
28.03
28.90
29.49
29.81
29.80
29.39
28.45
26.90
24.70
21.90
18.64
15.14
11.66
8.48
5.79
3.65
1.95
0.40
-1.32
-3.43
-5.92
-8.53
-10.90
-12.73
-13.99
-14.98
-16.15
-17.91
-20.42
-23.50
-26.75
-29.75
-32.23
-34.17
-35.75
-37.30
-39.20
-41.88
-45.63
-50.50
-56.00
-61.04
-64.02
-63.30
-57.81
-47.46
-33.33
-17.32
-1.57
12.13
22.71
29.83
33.69
34.75
33.58
30.78
26.94
22.69
18.58
14.97
12.04
9.78
8.12
6.97
6.41
6.65
8.03
10.86
15.25
20.98
27.53
34.12
39.96
44.41
47.12
48.05
47.36
45.23
41.75
36.92
30.69
23.10
14.40
5.07
-4.30
-13.12
-21.08
-28.16
-34.69
-41.17
-48.04
-55.39
-62.71
-68.86
-72.29
-71.48
-65.57
-54.75
-40.35
-24.47
-9.37
3.25
12.52
18.48
21.69
22.90
22.80
21.89
20.64
19.48
18.81
18.91
19.87
21.56
23.64
25.72
27.38
28.32
28.38
27.49
25.71
23.17
20.02
16.39
12.41
8.16
3.68
-0.99
-5.82
-10.76
-15.69
-20.44
-24.79
-28.55
-31.62
-34.11
-36.37
-38.89
-42.22
-46.59
-51.71
-56.60
-59.71
-59.43
-54.59
-45.05
-31.84
-16.84
-2.21
10.27
19.62
25.71
29.01
30.27
30.22
29.48
28.57
27.89
27.71
28.05
28.68
29.18
29.07
27.97
25.79
22.74
19.29
16.04
13.52
12.07
11.62
11.77
11.86
11.23
9.43
6.38
2.37
-2.07
-6.38
-10.19
-13.41
-16.25
-19.12
-22.50
-26.81
-32.31
-38.89
-45.96
-52.38
-56.58
-56.99
-52.54
-43.16
-29.86
-14.52
0.66
13.89
24.10
31.11
35.32
37.39
37.97
37.59
36.67
35.57
34.57
33.79
33.17
32.47
31.43
29.86
27.80
25.50
23.30
21.50
20.19
19.15
17.92
15.96
12.89
8.61
3.43
-2.10
-7.34
-11.82
-15.38
-18.20
-20.72
-23.52
-27.12
-31.78
-37.33
-43.04
-47.63
-49.55
-47.43
-40.65
-29.57
-15.65
-0.93
12.53
23.26
30.69
35.14
37.38
38.29
38.56
38.55
38.39
38.10
37.69
37.14
36.42
35.46
34.15
32.42
30.30
27.91
25.42
23.04
20.87
18.91
17.05
15.14
12.98
10.44
7.41
3.84
-0.29
-4.94
-10.01
-15.33
-20.62
-25.54
-29.77
-33.15
-35.75
-37.87
-39.99
-42.63
-46.11
-50.44
-55.06
-58.95
-60.71
-58.99
-52.93
-42.57
-28.95
-13.84
0.76
13.22
22.69
29.16
33.20
35.58
36.96
37.80
38.31
38.68
39.09
39.81
41.18
43.46
46.76
50.88
55.30
59.33
62.28
63.69
63.52
62.02
59.56
56.40
52.58
47.99
42.52
36.27
29.60
22.95
16.71
11.03
5.80
0.78
-4.21
-9.11
-13.63
-17.33
-19.85
-21.05
-21.08
-20.41
-19.60
-19.29
-19.98
-22.07
-25.72
-30.81
-36.96
-43.48
-49.56
-54.46
-57.79
-59.62
-60.42
-60.83
-61.38
-62.23
-63.21
-63.98
-64.23
-63.91
-63.21
-62.55
-62.41
-63.21
-65.13
-67.97
-70.95
-72.75
-71.71
-66.30
-55.72
-40.28
-21.38
-1.16
18.15
34.77
47.67
56.55
61.62
63.39
62.58
60.00
56.54
53.06
50.19
48.24
47.20
46.77
46.57
46.25
45.63
44.71
43.59
42.35
41.04
39.61
37.97
36.04
33.77
31.15
28.23
25.07
21.80
18.65
15.81
13.45
11.56
9.97
8.41
6.67
4.74
2.76
0.91
-0.68
-2.09
-3.54
-5.30
-7.50
-10.11
-12.95
-15.74
-18.25
-20.40
-22.27
-24.11
-26.19
-28.66
-31.49
-34.41
-37.08
-39.22
-40.76
-41.89
-43.01
-44.61
-47.12
-50.78
-55.48
-60.62
-65.08
-67.36
-65.97
-59.94
-49.24
-34.93
-18.82
-3.02
10.70
21.30
28.47
32.49
33.91
33.33
31.34
28.54
25.51
22.81
20.86
19.88
19.80
20.34
21.12
21.79
22.19
22.35
22.46
22.68
23.10
23.58
23.81
23.46
22.26
20.16
17.33
14.13
10.95
8.10
5.71
3.70
1.87
-0.08
-2.36
-5.05
-8.09
-11.31
-14.49
-17.42
-20.00
-22.21
-24.12
-25.94
-27.94
-30.51
-33.95
-38.27
-42.98
-46.96
-48.75
-46.96
-40.84
-30.66
-17.66
-3.70
9.38
20.22
28.19
33.28
35.87
36.46
35.57
33.71
31.43
29.24
27.54
26.55
26.22
26.34
26.64
26.88
26.91
26.71
26.34
25.88
25.42
25.02
24.74
24.56
24.44
24.23
23.79
22.95
21.64
19.90
17.85
15.66
13.45
11.15
8.56
5.41
1.46
-3.31
-8.68
-14.22
-19.49
-24.16
-28.16
-31.72
-35.30
-39.45
-44.65
-51.08
-58.40
-65.62
-71.23
-73.53
-71.16
-63.66
-51.71
-36.96
-21.52
-7.37
4.14
12.46
17.69
20.37
21.18
20.84
20.01
19.27
19.01
19.38
20.27
21.39
22.38
22.93
22.89
22.34
21.49
20.69
20.18
20.01
19.98
19.70
18.73
16.80
13.97
10.55
7.05
3.93
1.50
-0.17
-1.20
-1.80
-2.22
-2.67
-3.28
-4.09
-5.07
-6.14
-7.26
-8.47
-9.91
-11.80
-14.30
-17.42
-20.93
-24.45
-27.55
-29.96
-31.66
-32.95
-34.32
-36.34
-39.46
-43.81
-49.04
-54.17
-57.73
-58.11
-54.06
-45.19
-32.19
-16.72
-0.90
13.32
24.66
32.68
37.60
40.08
40.87
40.67
40.07
39.56
39.46
39.93
40.87
42.09
43.35
44.51
45.61
46.77
48.10
49.55
50.84
51.55
51.27
49.84
47.40
44.42
41.48
39.16
37.79
37.44
37.82
38.42
38.65
38.07
36.69
34.98
33.76
33.78
35.42
38.30
41.35
43.11
42.10
37.32
28.48
15.97
0.72
-16.02
-32.99
-49.04
-63.36
-75.46
-85.20
-92.67
-98.15
-101.95
-104.43
-105.88
-106.57
-106.69
-106.45
-106.08
-105.87
-105.97
-106.24
-106.02
-104.14
-99.25
-90.21
-76.66
-59.29
-39.69
-19.96
-2.07
12.62
23.58
31.02
35.61
38.26
39.89
41.35
43.37
46.41
50.56
55.45
60.33
64.29
66.51
66.58
64.50
60.68
55.70
50.17
44.52
39.09
34.14
29.98
26.99
25.62
26.15
28.45
31.86
35.26
37.36
37.19
34.47
29.71
23.94
18.25
13.33
9.34
6.07
3.26
0.83
-1.04
-2.13
-2.37
-1.99
-1.40
-1.11
-1.44
-2.50
-4.04
-5.52
-6.15
-5.09
-1.71
4.14
11.85
20.13
27.25
31.54
31.92
28.21
21.22
12.52
3.97
-2.76
-6.55
-7.03
-4.63
-0.30
4.66
8.97
11.52
11.61
9.01
3.99
-2.68
-9.92
-16.51
-21.42
-24.06
-24.39
-22.87
-20.21
-17.17
-14.29
-11.84
-9.86
-8.31
-7.11
-6.22
-5.64
-5.36
-5.44
-5.89
-6.73
-7.95
-9.50
-11.28
-13.16
-15.03
-16.85
-18.63
-20.42
-22.26
-24.19
-26.20
-28.26
-30.29
-32.15
-33.69
-34.75
-35.27
-35.26
-34.88
-34.31
-33.71
-33.15
-32.59
-31.92
-31.09
-30.16
-29.36
-29.05
-29.61
-31.38
-34.63
-39.37
-45.19
-51.05
-55.30
-55.99
-51.45
-40.98
-25.30
-6.49
12.66
29.47
42.18
50.23
54.05
54.56
52.69
49.17
44.57
39.49
34.63
30.72
28.35
27.84
29.12
31.87
35.59
39.75
43.90
47.67
50.84
53.23
54.66
54.87
53.55
50.39
45.33
38.57
30.59
22.02
13.35
4.88
-3.29
-11.13
-18.61
-25.64
-32.17
-38.24
-44.00
-49.64
-55.18
-60.48
-65.25
-69.17
-72.12
-74.22
-75.86
-77.53
-79.68
-82.50
-85.69
-88.43
-89.41
-87.16
-80.52
-69.05
-53.30
-34.73
-15.31
2.97
18.55
30.53
38.70
43.36
45.14
44.85
43.34
41.42
39.75
38.79
38.71
39.49
40.92
42.74
44.66
46.39
47.66
48.18
47.69
45.92
42.68
37.83
31.37
23.45
14.37
4.54
-5.56
-15.58
-25.30
-34.70
-43.80
-52.62
-60.90
-68.22
-74.01
-77.79
-79.45
-79.33
-78.15
-76.89
-76.53
-77.70
-80.50
-84.33
-87.91
-89.51
-87.38
-80.28
-67.99
-51.42
-32.41
-13.19
4.22
18.56
29.45
37.24
42.72
46.73
49.98
52.95
55.86
58.81
61.70
64.36
66.52
67.88
68.26
67.63
66.22
64.45
62.78
61.55
60.78
60.16
59.21
57.40
54.49
50.56
46.00
41.39
37.21
33.78
31.10
28.96
27.08
25.24
23.40
21.68
20.31
19.43
18.99
18.63
17.73
15.51
11.28
4.58
-4.52
-15.36
-26.66
-36.61
-43.32
-45.22
-41.59
-32.74
-20.00
-5.28
9.46
22.61
33.20
40.91
45.94
48.84
50.37
51.34
52.38
53.77
55.35
56.58
56.80
55.48
52.56
48.45
44.01
40.28
38.17
38.14
40.08
43.19
46.21
47.81
47.11
43.96
39.10
33.72
28.96
25.40
22.87
20.66
17.99
14.53
10.51
6.58
3.41
1.25
-0.15
-1.50
-3.55
-6.78
-11.22
-16.45
-21.80
-26.62
-30.49
-33.38
-35.66
-37.98
-41.08
-45.61
-51.87
-59.63
-68.01
-75.52
-80.34
-80.77
-75.78
-65.39
-50.76
-33.83
-16.86
-1.78
10.14
18.48
23.50
25.95
26.85
27.28
28.24
30.52
34.56
40.44
47.92
56.51
65.63
74.76
83.52
91.74
99.44
106.71
113.61
119.99
125.42
129.18
130.41
128.29
122.33
112.53
99.43
84.07
67.67
51.41
36.12
22.22
9.70
-1.72
-12.40
-22.60
-32.45
-41.95
-50.99
-59.42
-67.07
-73.81
-79.57
-84.38
-88.41
-91.87
-94.95
-97.71
-100.07
-101.85
-102.91
-103.26
-103.14
-103.03
-103.46
-105.00
-108.00
-112.40
-117.59
-122.27
-124.71
-123.14
-116.34
-104.19
-87.82
-69.31
-51.09
-35.22
-22.96
-14.64
-9.99
-8.42
-9.34
-12.21
-16.49
-21.51
-26.58
-31.04
-34.49
-36.87
-38.48
-39.80
-41.31
-43.28
-45.64
-48.04
-49.96
-50.88
-50.54
-48.93
-46.30
-43.05
-39.49
-35.80
-32.01
-28.09
-24.02
-19.92
-15.97
-12.33
-9.10
-6.26
-3.78
-1.63
0.13
1.44
2.25
2.61
2.63
2.41
1.97
1.21
-0.05
-1.95
-4.46
-7.34
-10.24
-12.79
-14.79
-16.33
-17.73
-19.50
-22.15
-26.07
-31.30
-37.38
-43.26
-47.40
-48.12
-44.10
-34.89
-21.13
-4.41
13.21
29.75
43.80
54.64
62.19
66.77
68.89
69.19
68.36
67.08
65.97
65.41
65.57
66.34
67.43
68.50
69.27
69.63
69.67
69.59
69.56
69.66
69.73
69.46
68.53
66.72
64.03
60.68
56.96
53.18
49.52
46.00
42.52
38.94
35.10
30.93
26.48
21.92
17.46
13.25
9.30
5.42
1.34
-3.19
-8.28
-13.72
-19.15
-24.13
-28.35
-31.77
-34.67
-37.55
-40.95
-45.23
-50.24
-55.23
-58.88
-59.61
-56.14
-47.99
-35.72
-20.83
-5.33
8.90
20.52
28.93
34.15
36.53
36.52
34.64
31.48
27.74
24.17
21.46
20.01
19.86
20.68
21.94
23.15
23.98
24.33
24.28
23.94
23.38
22.57
21.43
19.90
17.94
15.57
12.82
9.74
6.38
2.85
-0.70
-4.11
-7.23
-9.98
-12.39
-14.57
-16.75
-19.22
-22.33
-26.37
-31.51
-37.49
-43.61
-48.65
-51.16
-49.80
-43.76
-33.00
-18.41
-1.59
15.40
30.47
41.91
48.70
50.68
48.49
43.35
36.64
29.55
22.86
16.82
11.42
6.53
2.12
-1.71
-4.84
-7.26
-9.12
-10.73
-12.42
-14.41
-16.70
-19.16
-21.56
-23.71
-25.44
-26.64
-27.15
-26.84
-25.61
-23.44
-20.46
-16.84
-12.84
-8.73
-4.90
-1.85
-0.16
-0.37
-2.78
-7.30
-13.29
-19.68
-25.07
-28.09
-27.70
-23.50
-15.83
-5.76
5.23
15.63
24.27
30.52
34.38
36.28
36.83
36.66
36.18
35.62
35.03
34.32
33.38
32.12
30.54
28.67
26.66
24.67
22.84
21.26
19.86
18.47
16.78
14.54
11.62
8.13
4.43
0.96
-1.92
-4.09
-5.74
-7.26
-9.10
-11.61
-14.85
-18.60
-22.48
-26.06
-29.03
-31.38
-33.33
-35.33
-37.92
-41.47
-45.94
-50.71
-54.59
-56.09
-53.84
-47.21
-36.53
-23.15
-8.99
4.04
14.58
22.16
27.10
30.26
32.57
34.69
36.89
39.06
40.86
41.95
42.13
41.40
39.92
37.90
35.48
32.73
29.63
26.26
22.78
19.44
16.45
13.89
11.71
9.89
8.60
8.22
9.19
11.72
15.48
19.58
22.81
24.07
22.81
19.22
14.03
8.22
2.63
-2.28
-6.41
-9.93
-13.12
-16.29
-19.68
-23.39
-27.34
-31.25
-34.81
-37.77
-40.11
-42.13
-44.32
-47.22
-51.19
-56.18
-61.57
-66.22
-68.62
-67.37
-61.60
-51.47
-38.17
-23.64
-10.01
1.19
9.37
14.99
19.19
23.14
27.67
32.94
38.58
43.95
48.44
51.66
53.50
54.06
53.55
52.18
50.16
47.69
44.96
42.18
39.50
37.01
34.67
32.33
29.77
26.77
23.24
19.26
15.11
11.19
7.88
5.35
3.52
2.06
0.55
-1.32
-3.64
-6.22
-8.72
-10.81
-12.33
-13.38
-14.26
-15.35
-16.98
-19.26
-22.11
-25.25
-28.38
-31.29
-33.90
-36.24
-38.41
-40.54
-42.77
-45.28
-48.19
-51.44
-54.56
-56.64
-56.45
-52.87
-45.35
-34.27
-20.93
-7.21
5.03
14.44
20.49
23.44
24.02
23.15
21.62
20.02
18.71
17.85
17.49
17.53
17.82
18.18
18.41
18.41
18.15
17.69
17.14
16.65
16.28
16.11
16.06
16.02
15.78
15.12
13.88
11.98
9.54
6.81
4.17
2.00
0.58
-0.01
0.05
0.36
0.38
-0.36
-2.15
-4.96
-8.52
-12.37
-16.12
-19.50
-22.56
-25.57
-28.98
-33.21
-38.35
-43.99
-49.13
-52.36
-52.30
-48.09
-39.79
-28.40
-15.58
-3.13
7.49
15.51
20.82
23.82
25.11
25.32
24.99
24.51
24.16
24.13
24.47
25.06
25.69
26.06
25.91
25.19
24.06
22.89
22.04
21.69
21.77
21.90
21.63
20.64
18.84
16.43
13.78
11.22
8.99
7.12
5.52
4.02
2.48
0.80
-1.02
-2.88
-4.69
-6.36
-7.89
-9.39
-11.06
-13.04
-15.38
-17.99
-20.61
-22.95
-24.78
-26.05
-26.94
-27.88
-29.43
-32.13
-36.20
-41.30
-46.47
-50.18
-50.85
-47.32
-39.35
-27.78
-14.29
-0.86
10.77
19.55
25.23
28.16
29.05
28.70
27.86
27.14
26.95
27.47
28.60
30.02
31.31
32.12
32.29
31.85
31.03
30.10
29.31
28.79
28.52
28.33
27.98
27.22
25.88
23.99
21.76
19.46
17.29
15.31
13.41
11.41
9.16
6.66
4.00
1.38
-1.04
-3.11
-4.73
-5.82
-6.39
-6.57
-6.63
-6.91
-7.80
-9.53
-12.11
-15.35
-18.96
-22.61
-26.10
-29.29
-32.12
-34.59
-36.74
-38.62
-40.38
-42.19
-44.24
-46.67
-49.49
-52.41
-54.80
-55.68
-53.93
-48.63
-39.44
-26.86
-12.16
2.93
16.77
28.18
36.69
42.47
46.01
47.86
48.44
48.06
46.97
45.45
43.75
42.10
40.57
39.06
37.39
35.43
33.22
31.00
29.09
27.82
27.28
27.31
27.51
27.41
26.61
24.96
22.59
19.80
16.99
14.45
12.29
10.43
8.68
6.86
4.91
2.91
1.00
-0.74
-2.37
-4.09
-6.13
-8.60
-11.43
-14.39
-17.14
-19.48
-21.38
-23.04
-24.81
-27.05
-30.03
-33.80
-38.24
-43.05
-47.83
-52.13
-55.45
-57.41
-57.85
-56.92
-55.16
-53.19
-51.44
-49.77
-47.41
-43.19
-36.16
-26.05
-13.59
-0.23
12.36
22.86
30.63
35.68
38.36
39.02
37.96
35.41
31.72
27.47
23.32
19.89
17.51
16.18
15.61
15.36
15.09
14.55
13.71
12.64
11.47
10.32
9.27
8.32
7.43
6.55
5.62
4.63
3.58
2.54
1.53
0.58
-0.32
-1.25
-2.30
-3.59
-5.26
-7.43
-10.18
-13.49
-17.25
-21.19
-25.00
-28.37
-31.15
-33.35
-35.16
-36.94
-39.08
-41.80
-44.96
-47.93
-49.68
-48.94
-44.72
-36.67
-25.31
-11.98
1.57
13.65
23.05
29.29
32.47
33.12
31.91
29.51
26.55
23.62
21.30
20.04
20.09
21.31
23.17
24.91
25.78
25.29
23.49
20.87
18.15
16.02
14.78
14.28
13.99
13.31
11.87
9.65
7.06
4.65
2.86
1.82
1.29
0.74
-0.42
-2.71
-6.65
-12.82
-21.75
-33.70
-48.25
-64.08
-79.17
-91.28
-98.67
-100.48
-96.80
-88.32
-75.87
-60.22
-42.07
-22.29
-2.09
17.04
33.67
46.81
56.15
62.11
65.54
67.31
68.04
67.99
67.19
65.65
63.57
61.30
59.13
57.15
55.15
52.71
49.52
45.66
41.71
38.62
37.33
38.26
40.82
43.29
43.05
37.41
24.69
5.22
-18.28
-40.99
-57.37
-62.75
-54.97
-35.20
-7.66
21.69
46.88
63.64
70.29
67.68
58.38
45.64
32.44
21.13
13.28
9.74
10.55
14.85
20.81
25.99
27.97
25.15
17.30
5.58
-7.88
-20.76
-31.22
-38.25
-41.78
-42.52
-41.71
-40.95
-41.82
-45.42
-51.94
-60.40
-68.72
-74.42
-75.47
-71.08
-61.95
-49.88
-37.01
-25.06
-14.95
-6.89
-0.68
3.92
7.14
9.20
10.39
11.05
11.45
11.59
11.16
9.60
6.39
1.34
-5.20
-12.25
-18.46
-22.52
-23.71
-22.34
-19.75
-17.92
-18.62
-22.70
-29.68
-37.99
-45.59
-50.81
-52.86
-51.88
-48.59
-43.72
-37.76
-30.90
-23.37
-15.73
-8.88
-3.83
-1.22
-0.91
-1.96
-3.06
-3.05
-1.50
1.24
4.28
6.77
8.31
9.07
9.54
10.21
11.30
12.67
13.98
14.88
15.05
14.34
12.71
10.26
7.34
4.46
2.19
1.00
0.98
1.81
2.91
3.57
3.22
1.49
-1.67
-5.88
-10.27
-13.46
-13.84
-10.10
-1.82
10.23
24.21
37.87
49.35
57.81
63.49
67.26
70.00
72.09
73.30
73.19
71.43
68.16
64.02
59.89
56.53
54.35
53.34
53.13
53.18
52.69
50.67
46.01
37.95
26.68
13.79
2.00
-5.80
-7.83
-4.41
2.09
8.22
10.94
8.78
2.08
-7.63
-18.71
-30.06
-41.27
-52.20
-62.50
-71.55
-78.55
-83.05
-85.16
-85.58
-85.44
-85.89
-87.77
-91.35
-96.24
-101.56
-106.24
-109.42
-110.59
-109.55
-106.15
-100.04
-90.71
-77.80
-61.53
-42.85
-23.31
-4.58
11.97
25.51
35.63
42.20
45.25
45.14
42.73
39.35
36.49
35.28
36.10
38.51
41.49
43.80
44.33
42.21
37.03
29.04
19.39
10.22
4.20
3.77
10.02
21.96
36.58
49.96
58.77
61.71
59.82
55.70
51.96
49.81
48.73
47.10
43.46
37.58
30.45
23.52
17.63
12.52
7.21
1.00
-5.76
-11.59
-14.63
-13.72
-9.03
-2.04
5.23
11.12
14.95
17.05
18.32
19.66
21.58
24.04
26.68
29.12
31.20
33.15
35.45
38.58
42.76
47.74
52.86
57.27
60.22
61.31
60.56
58.30
55.02
51.15
47.02
42.80
38.50
34.02
29.15
23.65
17.31
10.03
1.81
-7.20
-16.81
-26.79
-36.88
-46.70
-55.65
-62.95
-67.79
-69.55
-68.02
-63.38
-56.06
-46.52
-35.05
-21.81
-7.12
8.35
23.49
36.92
47.33
53.79
56.02
54.41
50.07
44.78
40.66
39.67
42.85
49.74
58.26
65.40
68.31
65.27
56.16
42.10
24.65
5.27
-14.86
-34.47
-51.97
-65.52
-73.68
-76.12
-73.90
-69.19
-64.38
-61.21
-60.29
-61.17
-62.92
-64.70
-66.12
-67.18
-67.93
-68.16
-67.15
-63.94
-57.62
-47.87
-35.19
-20.82
-6.39
6.63
17.31
25.44
31.36
35.60
38.61
40.59
41.54
41.39
40.20
38.14
35.57
32.76
29.87
26.83
23.43
19.44
14.76
9.53
4.04
-1.36
-6.39
-10.96
-15.13
-19.00
-22.62
-25.97
-28.98
-31.54
-33.61
-35.19
-36.26
-36.77
-36.62
-35.74
-34.10
-31.83
-29.13
-26.27
-23.49
-20.97
-18.80
-16.97
-15.39
-13.91
-12.30
-10.34
-7.88
-4.93
-1.67
1.64
4.74
7.44
9.75
11.77
13.70
15.76
18.15
21.02
24.52
28.71
33.61
39.11
44.99
50.91
56.44
61.16
64.70
66.80
67.41
66.60
64.51
61.20
56.55
50.16
41.49
30.02
15.56
-1.57
-20.47
-39.87
-58.41
-74.90
-88.45
-98.41
-104.31
-106.02
-104.00
-99.34
-93.65
-88.64
-85.79
-85.90
-88.77
-93.43
-98.46
-102.51
-104.39
-103.13
-97.91
-88.49
-75.31
-59.46
-42.52
-26.14
-11.91
-0.64
7.78
14.44
20.24
25.69
30.82
35.35
38.96
40.93
41.17
40.60
41.32
44.24
49.08
54.68
59.61
62.64
61.80
56.39
47.73
39.70
34.24
31.71
31.15
31.27
30.69
26.14
15.73
0.34
-14.91
-27.57
-37.04
-44.19
-50.20
-56.65
-68.17
-88.49
-118.22
-152.23
-187.53
-221.35
-250.64
-271.36
-262.73
-214.93
-136.54
-65.13
-10.91
25.76
50.53
65.48
72.47
73.04
65.79
50.41
29.68
11.60
0.74
-0.76
7.24
24.13
47.92
73.08
93.92
106.92
113.52
114.47
111.07
105.06
98.57
92.91
86.70
78.33
67.54
57.05
48.34
41.74
36.34
30.80
23.78
14.11
2.19
-9.84
-18.42
-21.62
-19.43
-13.54
-6.17
0.69
5.72
8.71
10.37
11.93
13.98
16.42
18.68
20.14
20.45
19.72
18.48
17.55
17.72
19.52
23.04
27.89
33.40
38.86
43.79
48.17
52.50
57.68
64.69
74.20
86.18
99.73
113.22
124.73
132.60
135.84
134.17
127.83
117.25
102.82
84.92
64.09
41.17
17.30
-6.30
-28.51
-48.45
-65.41
-78.78
-88.08
-93.04
-93.84
-91.20
-86.33
-80.59
-75.14
-70.66
-67.23
-64.50
-61.95
-59.18
-56.00
-52.43
-48.53
-44.35
-39.83
-34.87
-29.51
-23.92
-18.49
-13.68
-9.88
-7.38
-6.27
-6.59
-8.31
-11.40
-15.74
-21.11
-27.09
-33.13
-38.70
-43.44
-47.31
-50.59
-53.72
-57.06
-60.70
-64.37
-67.59
-69.95
-71.28
-71.77
-71.75
-71.45
-70.67
-68.69
-64.46
-57.10
-46.30
-32.61
-17.36
-2.27
11.15
21.94
29.84
35.20
38.85
41.98
46.22
53.34
64.61
79.86
96.70
110.86
117.53
113.39
98.26
75.34
49.84
26.79
9.21
-2.46
-9.49
-13.50
-15.39
-15.26
-13.05
-9.27
-5.12
-1.99
-0.80
-1.46
-3.09
-4.58
-5.21
-5.00
-4.71
-5.41
-7.93
-12.40
-18.08
-23.48
-26.85
-26.76
-22.62
-14.80
-4.49
6.78
17.61
27.03
34.61
40.33
44.33
46.75
47.64
47.00
44.89
41.51
37.22
32.51
27.85
23.65
20.16
17.41
15.33
13.75
12.50
11.43
10.40
9.32
8.08
6.65
5.03
3.41
2.02
1.14
0.85
0.97
0.98
0.08
-2.50
-7.20
-13.81
-21.39
-28.44
-33.25
-34.50
-31.58
-24.85
-15.45
-4.91
5.35
14.32
21.53
26.94
30.70
33.01
33.99
33.78
32.55
30.60
28.30
25.98
23.86
21.94
20.08
18.11
16.00
13.89
12.10
10.92
10.41
10.28
9.95
8.76
6.26
2.48
-2.10
-6.69
-10.54
-13.20
-14.72
-15.60
-16.56
-18.29
-21.23
-25.38
-30.25
-34.96
-38.31
-39.13
-36.56
-30.37
-21.13
-10.10
1.14
11.12
18.90
24.22
27.46
29.35
30.61
31.64
32.42
32.59
31.65
29.27
25.53
20.91
16.25
12.41
10.02
9.25
9.85
11.34
13.19
15.00
16.49
17.42
17.56
16.69
14.75
11.98
8.88
6.14
4.40
4.03
5.04
7.11
9.77
12.58
15.21
17.46
19.24
20.43
20.97
20.77
19.83
18.18
15.96
13.34
10.50
7.60
4.77
2.05
-0.52
-2.93
-5.16
-7.15
-8.89
-10.37
-11.71
-13.02
-14.47
-16.08
-17.80
-19.51
-21.10
-22.62
-24.26
-26.27
-28.85
-32.01
-35.57
-39.22
-42.62
-45.53
-47.81
-49.46
-50.58
-51.39
-52.21
-53.42
-55.39
-58.21
-61.53
-64.52
-66.00
-64.76
-59.97
-51.51
-39.96
-26.49
-12.48
0.83
12.53
22.13
29.49
34.73
38.15
40.22
41.48
42.43
43.29
43.94
44.01
43.03
40.76
37.37
33.44
29.76
27.06
25.67
25.50
26.13
27.04
27.82
28.27
28.33
28.05
27.40
26.38
24.94
23.12
21.01
18.73
16.37
13.95
11.45
8.87
6.21
3.53
0.92
-1.55
-3.83
-5.82
-7.45
-8.65
-9.38
-9.72
-9.82
-9.82
-9.83
-9.85
-9.81
-9.69
-9.60
-9.80
-10.62
-12.34
-14.94
-18.08
-21.13
-23.30
-23.93
-22.75
-20.01
-16.54
-13.59
-12.65
-14.98
-21.32
-31.52
-44.46
-58.17
-70.22
-78.35
-80.97
-77.53
-68.61
-55.64
-40.53
-25.23
-11.37
-0.10
7.93
12.62
14.29
13.68
11.81
9.78
8.62
9.02
11.23
15.05
19.96
25.29
30.42
34.84
38.22
40.29
40.91
39.99
37.61
34.00
29.56
24.80
20.23
16.28
13.24
11.24
10.27
10.19
10.74
11.55
12.25
12.53
12.20
11.33
10.11
8.84
7.74
6.91
6.24
5.51
4.50
3.03
1.11
-1.11
-3.49
-5.92
-8.44
-11.17
-14.26
-17.73
-21.46
-25.20
-28.67
-31.65
-34.06
-35.96
-37.56
-39.09
-40.86
-43.10
-45.93
-49.22
-52.41
-54.59
-54.65
-51.60
-44.95
-34.88
-22.33
-8.66
4.64
16.30
25.52
31.98
35.77
37.30
37.14
35.90
34.12
32.21
30.39
28.76
27.31
26.07
25.09
24.51
24.40
24.82
25.69
26.82
27.97
28.90
29.41
29.45
28.98
28.04
26.65
24.82
22.58
20.02
17.31
14.64
12.23
10.20
8.55
7.18
5.92
4.60
3.13
1.51
-0.17
-1.79
-3.25
-4.53
-5.72
-6.99
-8.46
-10.20
-12.09
-13.94
-15.50
-16.60
-17.24
-17.59
-17.96
-18.76
-20.30
-22.68
-25.61
-28.27
-29.38
-27.43
-21.13
-9.80
6.25
25.61
45.99
64.67
79.13
87.53
89.12
84.25
74.17
60.59
45.23
29.51
14.35
0.20
-12.78
-24.60
-35.25
-44.72
-52.99
-60.04
-65.74
-69.80
-71.76
-71.03
-67.20
-60.22
-50.64
-39.54
-28.15
-17.44
-7.80
0.75
8.15
13.92
17.19
17.28
14.48
10.47
7.93
9.53
16.64
28.63
43.06
56.72
66.91
72.38
73.47
71.59
68.32
64.73
61.11
57.07
51.89
44.91
35.74
24.54
12.00
-0.73
-12.06
-20.20
-23.40
-20.57
-11.89
0.74
13.94
23.78
27.27
23.52
14.04
1.97
-9.44
-18.10
-23.59
-26.67
-28.33
-29.07
-28.74
-27.03
-23.99
-20.17
-16.25
-12.45
-8.26
-2.67
5.22
15.70
28.03
40.73
52.02
60.40
65.09
66.14
64.28
60.62
56.28
52.12
48.55
45.37
41.84
36.87
29.36
18.59
4.61
-11.79
-29.35
-46.75
-63.06
-77.86
-91.20
-103.39
-114.77
-125.62
-136.21
-146.72
-157.21
-167.48
-176.93
-184.59
-189.23
-189.56
-184.48
-173.38
-156.28
-133.98
-107.98
-80.18
-52.50
-26.55
-3.47
16.00
31.42
42.57
49.49
52.57
52.51
50.25
46.58
42.09
37.06
31.62
25.95
20.33
15.02
10.10
5.24
-0.24
-7.06
-15.70
-26.05
-37.36
-48.50
-58.37
-66.39
-72.68
-78.02
-83.42
-89.67
-96.90
-104.41
-110.77
-113.97
-111.83
-102.52
-85.24
-60.87
-32.21
-3.58
20.40
36.37
43.56
44.07
41.99
41.60
45.63
54.32
65.71
76.86
85.21
89.53
89.92
87.21
82.25
75.51
67.24
57.82
48.17
39.67
33.73
31.22
32.10
35.43
39.84
44.05
47.38
49.82
51.89
54.29
57.47
61.52
66.11
70.71
74.76
77.96
80.24
81.80
82.92
83.82
84.50
84.80
84.39
82.92
80.08
75.61
69.28
60.92
50.48
38.23
24.82
11.13
-1.96
-13.98
-25.00
-35.46
-45.68
-55.37
-63.42
-68.20
-68.18
-62.62
-51.88
-37.27
-20.59
-3.60
12.07
24.93
33.53
36.68
34.05
26.70
17.18
8.74
4.07
4.07
7.36
10.99
11.87
8.18
0.08
-10.66
-21.71
-31.24
-38.37
-42.94
-44.92
-44.01
-39.82
-32.33
-22.48
-12.15
-3.73
0.84
0.79
-3.19
-9.30
-15.38
-19.71
-21.49
-20.84
-18.56
-15.56
-12.55
-9.86
-7.57
-5.71
-4.43
-4.02
-4.80
-6.90
-10.18
-14.22
-18.45
-22.41
-25.86
-28.89
-31.82
-35.00
-38.59
-42.26
-45.11
-45.72
-42.50
-34.33
-21.06
-3.87
14.93
32.46
46.06
54.04
56.00
52.82
46.27
38.58
31.86
27.69
26.85
29.20
33.85
39.45
44.72
48.74
51.14
52.08
51.89
50.94
49.43
47.38
44.78
41.62
37.93
33.74
28.99
23.62
17.61
11.21
4.93
-0.55
-4.63
-7.08
-8.13
-8.45
-8.76
-9.58
-11.05
-12.96
-14.97
-16.83
-18.51
-20.05
-21.48
-22.69
-23.43
-23.48
-22.87
-21.95
-21.33
-21.71
-23.53
-26.86
-31.29
-36.07
-40.27
-42.92
-43.17
-40.41
-34.46
-25.63
-14.79
-3.27
7.50
16.26
22.31
25.56
26.53
26.02
24.92
23.91
23.37
23.40
23.85
24.43
24.89
25.09
25.02
24.81
24.63
24.67
24.97
25.44
25.87
25.90
25.13
23.25
20.10
15.86
10.95
5.98
1.54
-2.04
-4.71
-6.69
-8.26
-9.59
-10.74
-11.63
-12.25
-12.68
-13.11
-13.78
-14.92
-16.68
-19.18
-22.42
-26.23
-30.11
-33.23
-34.60
-33.34
-29.08
-22.12
-13.44
-4.38
3.71
9.85
13.63
15.20
15.09
13.96
12.41
10.79
9.24
7.74
6.24
4.77
3.47
2.53
2.12
2.41
3.50
5.45
8.20
11.52
15.02
18.10
20.16
20.79
19.90
17.78
14.98
12.06
9.41
7.15
5.14
3.14
0.92
-1.62
-4.43
-7.35
-10.19
-12.82
-15.20
-17.44
-19.81
-22.66
-26.25
-30.59
-35.24
-39.29
-41.54
-40.86
-36.61
-28.92
-18.73
-7.50
3.25
12.29
18.96
23.13
25.06
25.23
24.14
22.34
20.31
18.50
17.20
16.52
16.34
16.38
16.37
16.11
15.57
14.89
14.27
13.86
13.65
13.51
13.15
12.31
10.81
8.68
6.13
3.53
1.21
-0.66
-2.14
-3.46
-4.95
-6.84
-9.21
-11.92
-14.71
-17.29
-19.43
-21.10
-22.41
-23.65
-25.22
-27.49
-30.68
-34.67
-38.87
-42.27
-43.66
-41.97
-36.67
-28.01
-17.01
-5.20
5.80
14.74
20.94
24.40
25.62
25.33
24.21
22.79
21.34
20.01
18.85
17.89
17.13
16.48
15.76
14.75
13.25
11.18
8.67
5.96
3.33
0.96
-1.09
-2.89
-4.58
-6.32
-8.21
-10.28
-12.45
-14.56
-16.41
-17.82
-18.78
-19.45
-20.09
-21.04
-22.53
-24.71
-27.54
-30.75
-33.85
-36.02
-36.33
-33.94
-28.49
-20.30
-10.34
0.02
9.47
17.07
22.47
25.74
27.28
27.52
26.91
25.83
24.61
23.48
22.56
21.85
21.26
20.65
19.93
19.07
18.14
17.25
16.53
16.05
15.73
15.37
14.63
13.20
10.95
8.01
4.75
1.62
-1.04
-3.12
-4.78
-6.32
-7.98
-9.85
-11.82
-13.68
-15.29
-16.64
-17.88
-19.25
-20.98
-23.24
-26.12
-29.56
-33.23
-36.50
-38.39
-37.81
-33.92
-26.53
-16.29
-4.53
7.09
17.19
24.95
30.23
33.36
34.86
35.22
34.88
34.19
33.50
33.09
33.09
33.42
33.79
33.85
33.31
32.06
30.21
27.97
25.59
23.22
20.90
18.61
16.34
14.12
12.04
10.17
8.47
6.77
4.75
2.03
-1.66
-6.43
-12.11
-18.29
-24.41
-29.84
-33.98
-36.45
-37.10
-36.10
-33.99
-31.58
-29.80
-29.33
-30.35
-32.30
-33.99
-33.97
-31.10
-25.09
-16.68
-7.34
1.29
8.01
12.45
14.99
16.33
16.99
16.97
15.76
12.59
6.82
-1.71
-12.53
-24.58
-36.28
-45.93
-51.98
-53.47
-50.22
-42.88
-32.70
-21.17
-9.66
0.79
9.48
16.03
20.34
22.62
23.34
23.27
23.30
24.23
26.51
30.26
35.26
41.11
47.26
53.11
58.07
61.65
63.68
64.34
64.07
63.32
62.29
60.82
58.57
55.26
51.04
46.39
41.97
38.13
34.70
30.98
26.10
19.43
10.90
1.02
-9.34
-19.25
-27.96
-34.95
-39.95
-42.85
-43.68
-42.62
-39.92
-35.95
-31.20
-26.35
-22.30
-20.15
-21.00
-25.62
-34.13
-45.77
-59.04
-72.06
-83.20
-91.50
-97.02
-100.60
-103.36
-105.97
-108.23
-109.02
-106.83
-100.56
-90.15
-76.74
-62.29
-48.76
-37.44
-28.68
-22.07
-16.81
-12.14
-7.46
-2.44
3.15
9.37
16.24
23.82
32.35
42.20
53.74
66.96
81.18
95.15
107.42
116.87
123.15
126.73
128.52
129.39
129.79
129.77
129.13
127.60
124.77
120.03
112.56
101.67
87.31
70.46
53.03
37.25
24.78
15.98
9.94
4.98
-0.50
-7.41
-15.77
-25.01
-34.45
-43.59
-52.16
-59.89
-66.43
-71.32
-74.19
-74.95
-74.02
-72.21
-70.63
-70.22
-71.44
-73.88
-76.38
-77.19
-74.61
-67.54
-55.90
-40.61
-23.28
-5.62
11.00
25.83
38.67
49.63
58.85
66.34
72.12
76.34
79.43
82.04
84.87
88.34
92.36
96.33
99.29
100.19
98.09
92.30
82.43
68.64
51.66
32.85
13.84
-3.86
-19.39
-32.71
-44.54
-55.92
-67.74
-80.53
-94.33
-108.89
-123.75
-138.29
-151.74
-163.17
-171.76
-177.06
-179.15
-178.60
-176.24
-172.80
-168.65
-163.73
-157.67
-150.06
-140.72
-129.83
-117.99
-106.07
-95.04
-85.65
-78.19
-72.22
-66.66
-59.97
-50.61
-37.67
-21.17
-2.16
17.54
35.92
51.31
62.74
70.06
73.73
74.54
73.33
70.80
67.49
63.79
60.07
56.68
53.90
51.91
50.71
50.13
49.92
49.78
49.47
48.77
47.56
45.80
43.58
41.08
38.56
36.26
34.25
32.45
30.58
28.39
25.66
22.36
18.62
14.63
10.61
6.64
2.69
-1.43
-5.97
-11.25
-17.44
-24.48
-31.82
-38.36
-42.64
-43.21
-39.18
-30.62
-18.67
-5.22
7.63
18.20
25.57
29.65
30.90
29.96
27.38
23.55
18.84
13.80
9.26
6.13
5.08
6.17
8.73
11.61
13.62
14.10
13.18
11.65
10.61
11.07
13.79
19.24
27.64
38.94
52.71
67.99
83.32
97.04
107.70
114.43
117.13
116.42
113.30
108.78
103.60
98.10
92.36
86.33
80.06
73.79
67.88
62.68
58.36
54.78
51.64
48.52
45.08
41.18
36.81
32.05
26.89
21.21
14.75
7.25
-1.37
-10.96
-21.13
-31.39
-41.20
-50.10
-57.68
-63.54
-67.39
-69.06
-68.62
-66.37
-62.67
-57.83
-52.06
-45.67
-39.30
-34.08
-31.29
-31.85
-35.64
-41.24
-46.13
-47.54
-43.44
-33.29
-18.33
-1.15
15.17
27.99
35.76
38.26
36.48
32.35
28.39
27.16
30.62
39.23
51.57
64.42
73.83
76.59
71.44
59.31
42.64
23.97
5.02
-13.54
-31.48
-48.21
-62.59
-73.32
-79.81
-82.68
-83.62
-84.73
-87.61
-92.96
-100.61
-109.87
-119.75
-128.89
-135.52
-137.68
-133.80
-123.48
-107.93
-89.68
-71.58
-55.73
-42.78
-32.13
-22.85
-14.61
-8.10
-4.59
-5.01
-9.17
-15.64
-22.31
-27.30
-29.55
-28.90
-25.74
-20.63
-13.92
-5.87
3.19
12.63
21.58
29.19
34.95
38.69
40.55
40.68
39.12
35.85
31.00
25.00
18.55
12.38
6.86
1.85
-3.26
-9.22
-16.58
-25.34
-34.89
-44.08
-51.52
-55.82
-55.98
-51.65
-43.28
-32.05
-19.55
-7.35
3.31
11.78
17.94
22.04
24.59
26.30
28.02
30.57
34.54
39.97
46.30
52.57
57.73
61.08
62.37
61.86
60.09
57.72
55.34
53.42
52.14
51.30
50.28
48.21
44.29
38.17
30.13
20.90
11.35
2.19
-6.15
-13.39
-19.34
-23.88
-27.11
-29.50
-31.68
-34.08
-36.45
-37.80
-36.71
-32.12
-23.93
-13.23
-1.78
8.70
17.21
23.71
28.73
32.90
36.52
39.44
41.42
42.34
42.48
42.30
42.28
42.60
43.06
43.17
42.38
40.32
36.99
32.76
28.29
24.27
21.23
19.39
18.62
18.52
18.59
18.44
17.87
16.96
15.99
15.28
15.03
15.20
15.45
15.23
13.94
11.05
6.32
-0.13
-7.75
-15.61
-22.53
-27.31
-29.07
-27.55
-23.20
-17.19
-11.07
-6.38
-4.12
-4.57
-7.26
-11.25
-15.60
-19.65
-23.16
-26.22
-28.99
-31.49
-33.49
-34.61
-34.48
-32.95
-30.12
-26.34
-22.06
-17.77
-13.82
-10.43
-7.69
-5.64
-4.30
-3.70
-3.89
-4.79
-6.26
-8.02
-9.78
-11.30
-12.54
-13.64
-14.92
-16.73
-19.22
-22.18
-24.93
-26.52
-25.96
-22.63
-16.55
-8.41
0.68
9.54
17.25
23.35
27.72
30.51
31.94
32.24
31.68
30.56
29.11
27.49
25.69
23.62
21.15
18.28
15.07
11.66
8.22
4.87
1.76
-0.95
-3.08
-4.53
-5.37
-5.87
-6.45
-7.53
-9.36
-11.92
-14.96
-18.08
-20.90
-23.13
-24.67
-25.55
-25.96
-26.12
-26.29
-26.69
-27.53
-28.92
-30.85
-33.10
-35.15
-36.27
-35.58
-32.37
-26.35
-17.82
-7.64
3.03
13.08
21.69
28.51
33.56
37.06
39.24
40.35
40.58
40.15
39.34
38.38
37.48
36.72
36.04
35.36
34.57
33.65
32.64
31.62
30.64
29.63
28.45
26.88
24.78
22.13
19.06
15.80
12.62
9.74
7.23
5.08
3.14
1.29
-0.57
-2.41
-4.14
-5.61
-6.80
-7.77
-8.72
-9.88
-11.42
-13.42
-15.87
-18.68
-21.69
-24.55
-26.67
-27.27
-25.56
-21.13
-14.11
-5.32
4.06
12.83
20.16
25.72
29.53
31.77
32.50
31.74
29.61
26.52
23.20
20.53
19.15
19.23
20.41
22.01
23.36
24.07
24.13
23.72
23.07
22.26
21.25
19.91
18.16
16.06
13.76
11.45
9.23
7.13
5.05
2.90
0.60
-1.81
-4.17
-6.19
-7.61
-8.25
-8.11
-7.40
-6.50
-5.84
-5.72
-6.29
-7.47
-9.00
-10.64
-12.18
-13.60
-14.97
-16.47
-18.26
-20.46
-23.13
-26.23
-29.55
-32.62
-34.76
-35.15
-33.14
-28.48
-21.54
-13.24
-4.78
2.70
8.44
12.17
14.01
14.31
13.45
11.70
9.28
6.43
3.43
0.62
-1.71
-3.36
-4.31
-4.70
-4.75
-4.62
-4.35
-3.83
-2.87
-1.39
0.53
2.55
4.22
5.08
4.88
3.69
1.82
-0.22
-1.97
-3.09
-3.47
-3.17
-2.36
-1.24
0.01
1.28
2.51
3.67
4.76
5.70
6.38
6.58
6.11
4.85
2.83
0.28
-2.43
-4.93
-6.98
-8.57
-9.92
-11.38
-13.30
-15.87
-19.04
-22.44
-25.41
-27.12
-26.76
-23.83
-18.32
-10.86
-2.51
5.48
12.05
16.57
18.89
19.25
18.07
15.83
12.92
9.72
6.57
3.72
1.38
-0.38
-1.60
-2.40
-2.85
-2.94
-2.59
-1.66
-0.15
1.75
3.57
4.74
4.76
3.45
1.05
-1.86
-4.57
-6.56
-7.61
-7.84
-7.55
-7.04
-6.47
-5.80
-4.91
-3.67
-2.04
-0.15
1.78
3.44
4.55
4.96
4.75
4.36
4.57
6.37
10.71
18.11
28.31
40.15
51.65
60.56
65.01
64.10
58.20
48.73
37.64
26.74
17.20
9.41
3.16
-1.98
-6.36
-10.14
-13.26
-15.66
-17.36
-18.52
-19.33
-19.96
-20.45
-20.67
-20.42
-19.53
-17.97
-15.92
-13.72
-11.75
-10.24
-9.18
-8.26
-7.02
-5.07
-2.36
0.72
3.35
4.63
3.96
1.31
-2.71
-7.07
-10.75
-13.02
-13.55
-12.26
-9.11
-4.12
2.31
9.17
14.71
17.11
15.32
9.72
2.00
-5.75
-12.20
-17.49
-22.92
-29.87
-38.62
-48.01
-55.99
-60.83
-62.03
-60.48
-57.80
-55.24
-53.17
-51.13
-48.40
-44.67
-40.27
-35.89
-32.25
-29.71
-28.13
-27.09
-26.09
-24.74
-22.90
-20.60
-17.98
-15.18
-12.29
-9.34
-6.40
-3.61
-1.25
0.34
0.88
0.30
-1.19
-3.17
-5.13
-6.74
-8.00
-9.27
-11.10
-14.09
-18.55
-24.24
-30.26
-35.15
-37.19
-34.98
-27.91
-16.49
-2.25
12.72
26.34
37.09
44.26
47.90
48.62
47.23
44.56
41.28
37.97
35.02
32.73
31.25
30.59
30.62
31.11
31.76
32.30
32.54
32.45
32.09
31.56
30.90
30.03
28.78
27.02
24.69
21.89
18.82
15.76
12.97
10.58
8.61
6.96
5.48
3.99
2.32
0.36
-1.91
-4.33
-6.67
-8.64
-10.10
-11.20
-12.44
-14.62
-18.57
-24.89
-33.62
-44.11
-55.15
-65.19
-72.68
-76.49
-76.05
-71.47
-63.51
-53.29
-42.12
-31.26
-21.70
-14.09
-8.67
-5.34
-3.61
-2.74
-1.93
-0.52
1.86
5.16
8.98
12.82
16.25
19.13
21.61
23.92
26.26
28.62
30.70
32.09
32.40
31.47
29.47
26.85
24.21
22.03
20.51
19.57
18.89
18.26
17.67
17.33
17.49
18.25
19.51
21.00
22.54
23.98
25.14
25.58
24.51
21.07
14.76
5.85
-4.59
-15.07
-24.35
-32.03
-38.47
-44.40
-50.12
-55.02
-57.66
-56.36
-50.05
-38.87
-24.17
-8.13
7.04
19.67
28.97
34.90
37.84
38.28
36.68
33.50
29.28
24.71
20.51
17.30
15.38
14.72
14.99
15.72
16.44
16.87
16.95
16.86
16.83
16.98
17.21
17.20
16.48
14.74
11.93
8.37
4.62
1.32
-1.04
-2.34
-2.88
-3.24
-4.10
-5.89
-8.63
-11.92
-15.20
-18.01
-20.28
-22.42
-25.10
-28.98
-34.50
-41.61
-49.76
-57.88
-64.52
-68.08
-67.23
-61.37
-50.94
-37.39
-22.70
-8.87
2.71
11.41
17.27
20.72
22.31
22.54
21.91
20.94
20.13
19.91
20.48
21.79
23.55
25.38
26.95
28.10
28.89
29.49
30.09
30.76
31.32
31.46
30.80
29.15
26.55
23.34
19.99
16.96
14.52
12.70
11.33
10.13
8.81
7.13
4.89
1.93
-1.90
-6.64
-12.21
-18.44
-25.17
-32.29
-39.78
-47.45
-54.74
-60.61
-63.70
-62.75
-57.18
-47.38
-34.74
-21.17
-8.54
1.86
9.52
14.64
17.80
19.64
20.68
21.23
21.48
21.64
21.92
22.59
23.80
25.54
27.57
29.49
30.91
31.60
31.59
31.16
30.62
30.20
29.91
29.60
29.04
28.07
26.64
24.89
23.02
21.29
19.93
18.99
18.34
17.58
16.16
13.55
9.47
4.07
-2.12
-8.28
-13.71
-18.03
-21.31
-23.96
-26.55
-29.54
-33.17
-37.41
-41.99
-46.37
-49.75
-51.21
-49.87
-45.26
-37.48
-27.28
-15.85
-4.43
5.96
14.71
21.46
25.99
27.97
27.13
23.43
17.30
9.78
2.30
-3.66
-7.09
-7.81
-6.42
-4.07
-1.87
-0.55
-0.22
-0.53
-1.04
-1.53
-2.12
-3.08
-4.62
-6.63
-8.69
-10.26
-10.91
-10.52
-9.25
-7.50
-5.66
-4.04
-2.74
-1.65
-0.50
0.95
2.88
5.24
7.78
10.28
12.60
14.91
17.62
21.16
25.73
31.10
36.67
41.66
45.34
47.11
46.52
43.28
37.36
29.17
19.79
10.79
3.87
0.26
0.20
2.83
6.55
9.66
10.99
10.20
7.66
4.13
0.28
-3.46
-6.93
-10.04
-12.68
-14.59
-15.47
-15.18
-13.85
-11.91
-9.91
-8.29
-7.27
-6.74
-6.48
-6.14
-5.42
-4.02
-1.60
2.11
7.20
13.43
20.12
26.30
30.98
33.40
33.24
30.64
26.05
20.02
13.10
5.86
-1.10
-7.22
-12.04
-15.41
-17.49
-18.76
-19.82
-21.15
-22.94
-25.13
-27.47
-29.74
-31.89
-34.04
-36.43
-39.22
-42.23
-44.85
-46.05
-44.68
-39.89
-31.49
-20.16
-7.26
5.54
16.76
25.46
31.27
34.34
35.01
33.72
31.05
27.70
24.56
22.48
21.97
23.00
25.00
27.16
28.77
29.60
29.80
29.70
29.41
28.63
26.80
23.34
18.05
11.25
3.71
-3.55
-9.58
-13.71
-15.61
-15.41
-13.64
-11.15
-8.90
-7.68
-7.92
-9.63
-12.42
-15.76
-19.22
-22.54
-25.67
-28.64
-31.48
-34.12
-36.39
-38.13
-39.24
-39.75
-39.87
-39.95
-40.38
-41.52
-43.52
-46.23
-49.09
-51.17
-51.38
-48.75
-42.82
-33.79
-22.59
-10.54
0.97
10.88
18.59
23.95
27.15
28.55
28.59
27.77
26.63
25.61
24.99
24.87
25.17
25.74
26.45
27.23
28.04
28.81
29.43
29.68
29.39
28.45
26.90
24.91
22.76
20.71
18.90
17.30
15.73
13.98
11.92
9.66
7.42
5.52
4.17
3.39
3.01
2.70
1.99
0.35
-2.71
-7.47
-13.69
-20.43
-26.12
-29.00
-27.67
-21.79
-12.22
-0.88
9.96
18.39
23.39
24.90
23.57
20.33
16.04
11.34
6.70
2.47
-1.05
-3.68
-5.37
-6.25
-6.52
-6.44
-6.16
-5.76
-5.24
-4.56
-3.73
-2.85
-2.08
-1.62
-1.65
-2.26
-3.37
-4.82
-6.37
-7.87
-9.23
-10.47
-11.63
-12.71
-13.66
-14.39
-14.83
-14.98
-14.95
-14.94
-15.23
-16.18
-18.03
-20.80
-24.10
-27.10
-28.70
-27.87
-24.05
-17.38
-8.76
0.52
9.14
16.14
21.11
24.10
25.43
25.46
24.54
23.01
21.24
19.69
18.75
18.63
19.29
20.38
21.40
21.91
21.69
20.85
19.75
18.87
18.52
18.72
19.17
19.34
18.79
17.29
14.95
12.16
9.35
6.87
4.79
2.91
0.82
-1.98
-5.88
-11.05
-17.29
-24.04
-30.46
-35.66
-39.00
-40.30
-39.93
-38.71
-37.58
-37.20
-37.67
-38.41
-38.38
-36.39
-31.62
-23.86
-13.69
-2.29
8.90
18.54
25.75
30.16
31.96
31.67
29.99
27.60
25.10
22.98
21.64
21.29
21.98
23.48
25.33
27.00
28.06
28.40
28.20
27.92
28.08
29.07
30.98
33.57
36.24
38.21
38.65
36.97
33.04
27.36
20.88
14.74
9.75
6.19
3.69
1.60
-0.61
-3.05
-5.37
-7.04
-7.63
-7.17
-6.13
-5.23
-5.14
-6.28
-8.71
-12.11
-15.79
-18.74
-19.74
-17.61
-11.68
-2.16
9.69
21.79
31.86
38.12
39.84
37.42
32.11
25.45
18.76
12.83
7.97
4.08
0.89
-1.92
-4.61
-7.40
-10.43
-13.75
-17.36
-21.12
-24.84
-28.28
-31.14
-33.20
-34.37
-34.77
-34.72
-34.63
-34.87
-35.59
-36.69
-37.81
-38.53
-38.56
-37.92
-36.90
-36.00
-35.64
-36.00
-36.92
-37.98
-38.63
-38.48
-37.44
-35.83
-34.25
-33.39
-33.73
-35.39
-38.00
-40.84
-42.97
-43.47
-41.67
-37.31
-30.59
-22.21
-13.18
-4.64
2.52
7.84
11.49
14.04
16.20
18.43
20.76
22.83
24.13
24.34
23.51
22.01
20.34
18.90
17.85
17.14
16.61
16.19
15.88
15.66
15.45
14.99
13.95
12.09
9.35
5.96
2.33
-1.09
-3.96
-6.19
-7.87
-9.28
-10.68
-12.20
-13.80
-15.27
-16.36
-16.98
-17.20
-17.36
-17.89
-19.20
-21.46
-24.42
-27.39
-29.39
-29.34
-26.47
-20.62
-12.32
-2.68
6.94
15.35
21.83
26.21
28.74
29.88
30.03
29.48
28.44
27.08
25.62
24.28
23.26
22.70
22.64
23.07
23.97
25.30
26.93
28.62
29.96
30.50
29.90
28.03
25.03
21.28
17.16
12.94
8.72
4.44
0.04
-4.42
-8.74
-12.66
-15.92
-18.43
-20.27
-21.65
-22.91
-24.40
-26.37
-28.82
-31.37
-33.30
-33.71
-31.81
-27.26
-20.34
-11.87
-2.96
5.36
12.37
17.70
21.29
23.25
23.76
23.12
21.69
19.88
18.14
16.77
15.96
15.71
15.84
16.12
16.29
16.20
15.81
15.23
14.62
14.11
13.72
13.29
12.61
11.49
9.84
7.76
5.49
3.33
1.57
0.36
-0.35
-0.77
-1.20
-1.87
-2.85
-4.01
-5.10
-5.88
-6.30
-6.44
-6.60
-7.12
-8.33
-10.47
-13.57
-17.36
-21.14
-23.86
-24.35
-21.74
-15.83
-7.24
2.74
12.53
20.79
26.74
30.30
31.84
31.98
31.31
30.24
29.01
27.73
26.43
25.14
23.87
22.57
21.12
19.39
17.28
14.84
12.32
10.05
8.31
7.10
6.18
5.14
3.67
1.71
-0.46
-2.43
-3.87
-4.74
-5.34
-6.14
-7.51
-9.59
-12.24
-15.11
-17.78
-19.99
-21.64
-22.81
-23.74
-24.69
-25.87
-27.33
-28.99
-30.69
-32.25
-33.55
-34.60
-35.51
-36.46
-37.64
-39.26
-41.48
-44.33
-47.57
-50.57
-52.34
-51.74
-47.86
-40.39
-29.85
-17.46
-4.74
6.89
16.46
23.55
28.23
30.80
31.68
31.28
30.02
28.29
26.44
24.71
23.26
22.11
21.23
20.55
20.04
19.72
19.70
20.13
21.17
22.89
25.22
27.88
30.48
32.61
34.01
34.60
34.50
33.92
33.10
32.19
31.25
30.27
29.15
27.77
25.95
23.60
20.72
17.45
14.08
10.89
8.09
5.65
3.37
0.84
-2.40
-6.68
-12.06
-18.11
-23.88
-28.06
-29.36
-27.00
-21.10
-12.71
-3.53
4.70
10.73
14.13
15.20
14.68
13.27
11.46
9.38
7.01
4.33
1.47
-1.30
-3.66
-5.36
-6.37
-6.85
-7.09
-7.35
-7.78
-8.35
-8.89
-9.22
-9.29
-9.21
-9.29
-9.85
-11.11
-13.02
-15.26
-17.37
-18.90
-19.67
-19.80
-19.66
-19.66
-20.05
-20.81
-21.70
-22.41
-22.74
-22.71
-22.57
-22.66
-23.30
-24.74
-27.13
-30.52
-34.74
-39.31
-43.29
-45.47
-44.65
-40.09
-31.89
-21.01
-9.03
2.42
12.11
19.44
24.44
27.48
29.05
29.63
29.61
29.33
29.06
28.97
29.16
29.64
30.38
31.35
32.54
33.92
35.45
37.03
38.54
39.81
40.64
40.82
40.14
38.50
35.85
32.30
28.06
23.33
18.33
13.19
8.01
2.92
-1.82
-5.87
-8.85
-10.51
-10.92
-10.47
-9.78
-9.48
-9.98
-11.37
-13.44
-15.83
-18.28
-20.66
-22.99
-25.44
-28.20
-31.51
-35.58
-40.45
-45.80
-50.80
-54.20
-54.66
-51.26
-43.89
-33.34
-21.08
-8.80
2.14
10.93
17.29
21.35
23.32
23.48
22.13
19.70
16.68
13.62
10.94
8.89
7.53
6.75
6.32
6.05
5.85
5.73
5.82
6.25
7.04
8.01
8.77
8.90
8.10
6.36
3.95
1.40
-0.79
-2.27
-2.92
-2.89
-2.45
-1.93
-1.59
-1.58
-1.89
-2.41
-3.01
-3.59
-4.17
-4.84
-5.70
-6.77
-7.98
-9.16
-10.16
-10.92
-11.55
-12.26
-13.33
-15.00
-17.47
-20.78
-24.75
-28.88
-32.38
-34.24
-33.61
-30.02
-23.64
-15.26
-6.05
2.81
10.40
16.25
20.30
22.70
23.71
23.56
22.51
20.89
19.11
17.61
16.68
16.46
16.82
17.52
18.24
18.74
19.01
19.18
19.49
20.13
21.11
22.23
23.14
23.50
23.09
21.91
20.16
18.16
16.19
14.41
12.79
11.14
9.23
6.83
3.89
0.55
-2.89
-6.10
-8.82
-11.02
-12.92
-14.88
-17.35
-20.67
-25.01
-30.22
-35.71
-40.52
-43.45
-43.38
-39.68
-32.51
-22.79
-11.99
-1.69
6.86
12.97
16.57
17.99
17.79
16.60
14.95
13.30
11.94
11.03
10.62
10.68
11.11
11.78
12.52
13.20
13.72
14.08
14.34
14.60
14.93
15.31
15.61
15.58
14.98
13.65
11.67
9.38
7.30
5.96
5.63
6.13
6.85
6.92
5.59
2.49
-2.22
-7.95
-13.95
-19.58
-24.47
-28.57
-32.02
-35.07
-37.99
-41.14
-44.87
-49.39
-54.51
-59.44
-62.87
-63.32
-59.79
-52.21
-41.58
-29.69
-18.40
-9.07
-2.24
2.30
5.12
6.81
7.76
8.18
8.25
8.22
8.41
9.02
10.08
11.43
12.80
13.95
14.80
15.48
16.22
17.30
18.82
20.73
22.74
24.49
25.68
26.14
25.89
25.10
23.99
22.78
21.58
20.39
19.10
17.60
15.76
13.54
11.01
8.33
5.65
3.09
0.69
-1.68
-4.17
-6.88
-9.81
-12.82
-15.67
-18.21
-20.41
-22.45
-24.66
-27.42
-30.96
-35.24
-39.79
-43.73
-45.91
-45.27
-41.21
-33.86
-24.10
-13.26
-2.73
6.44
13.72
19.08
22.80
25.27
26.83
27.83
28.57
29.35
30.35
31.61
32.99
34.23
35.09
35.38
35.10
34.40
33.49
32.57
31.73
30.94
30.03
28.80
27.12
24.96
22.44
19.82
17.34
15.20
13.45
11.98
10.61
9.13
7.39
5.33
3.01
0.52
-1.98
-4.34
-6.40
-8.14
-9.62
-10.98
-12.36
-13.78
-15.10
-16.05
-16.32
-15.72
-14.26
-12.18
-9.87
-7.81
-6.43
-5.97
-6.35
-7.17
-7.74
-7.28
-5.18
-1.26
4.18
10.35
16.27
21.03
24.02
25.03
24.18
21.85
18.50
14.63
10.70
7.13
4.23
2.14
0.82
0.06
-0.38
-0.73
-1.08
-1.39
-1.54
-1.47
-1.16
-0.75
-0.41
-0.36
-0.73
-1.56
-2.80
-4.28
-5.81
-7.21
-8.41
-9.47
-10.52
-11.74
-13.22
-14.93
-16.70
-18.32
-19.62
-20.53
-21.16
-21.69
-22.41
-23.56
-25.35
-27.79
-30.60
-33.17
-34.62
-34.08
-30.97
-25.28
-17.66
-9.16
-0.94
6.08
11.43
15.03
17.07
17.84
17.67
16.91
15.90
14.97
14.34
14.11
14.23
14.58
15.01
15.42
15.79
16.13
16.47
16.89
17.41
18.01
18.47
18.35
17.10
14.35
10.15
5.15
0.42
-3.00
-4.53
-4.41
-3.51
-2.90
-3.29
-4.88
-7.32
-10.09
-12.65
-14.74
-16.42
-18.11
-20.42
-23.97
-29.17
-35.95
-43.47
-49.90
-53.05
-51.25
-44.06
-32.50
-18.58
-4.62
7.53
16.95
24.16
30.17
35.85
41.41
46.54
50.94
54.67
57.99
61.29
65.28
70.12
75.40
80.41
84.77
88.86
93.47
98.86
100.55
94.06
77.30
52.66
25.67
1.70
-16.03
-26.82
-32.65
-35.60
-36.29
-34.65
-30.58
-24.59
-17.93
-12.14
-7.68
-5.42
-5.94
-9.14
-14.66
-22.01
-30.62
-39.73
-48.24
-54.83
-58.61
-59.11
-56.42
-51.53
-46.24
-42.92
-43.94
-50.73
-62.97
-78.35
-92.65
-101.02
-99.92
-88.76
-70.48
-50.52
-34.68
-26.91
-28.02
-35.89
-46.99
-58.42
-68.99
-79.19
-89.83
-100.56
-108.91
-110.84
-102.36
-81.64
-50.38
-13.73
21.42
49.12
66.44
74.14
75.55
74.52
73.39
72.32
70.02
65.25
58.17
50.55
44.88
43.00
45.06
49.53
54.06
56.63
56.39
53.92
50.52
47.44
45.20
43.44
41.27
37.99
33.54
28.75
25.04
23.77
25.71
30.48
36.56
41.63
43.30
39.87
30.91
17.53
2.05
-12.59
-23.68
-29.42
-29.33
-24.25
-16.03
-6.85
1.40
7.52
11.20
12.74
12.73
11.77
10.27
8.53
6.83
5.47
4.71
4.63
5.10
5.86
6.67
7.42
8.16
9.00
9.97
10.95
11.71
11.99
11.53
10.08
7.48
3.63
-1.31
-6.93
-12.62
-17.68
-21.60
-24.23
-25.72
-26.39
-26.45
-25.95
-24.83
-23.19
-21.43
-20.21
-20.15
-21.44
-23.59
-25.50
-25.93
-24.04
-19.95
-14.77
-10.22
-7.94
-8.84
-12.78
-18.67
-24.93
-29.94
-32.38
-31.35
-26.54
-18.19
-7.26
4.66
15.55
23.43
27.00
26.03
21.38
14.65
7.55
1.34
-3.43
-6.82
-9.22
-10.93
-12.01
-12.30
-11.63
-10.01
-7.75
-5.36
-3.27
-1.72
-0.66
0.11
0.78
1.33
1.55
1.15
0.00
-1.68
-3.37
-4.43
-4.26
-2.62
0.32
4.04
7.87
11.17
13.45
14.48
14.19
12.65
10.04
6.67
2.92
-0.78
-4.12
-6.99
-9.60
-12.28
-15.30
-18.57
-21.55
-23.27
-22.65
-18.82
-11.43
-0.90
11.68
24.62
36.08
44.39
48.50
48.17
44.03
37.32
29.54
22.05
15.80
11.24
8.34
6.80
6.20
6.18
6.46
6.94
7.57
8.35
9.23
10.08
10.71
10.95
10.68
9.80
8.31
6.23
3.66
0.81
-2.09
-4.74
-6.89
-8.42
-9.39
-10.12
-11.11
-12.97
-16.20
-20.93
-26.76
-32.64
-37.22
-39.22
-37.99
-33.74
-27.48
-20.57
-14.18
-8.98
-5.03
-1.97
0.65
3.16
5.66
8.16
10.61
13.03
15.50
18.11
20.82
23.54
26.00
27.95
29.16
29.57
29.24
28.34
27.04
25.39
23.37
20.93
18.05
14.75
11.14
7.32
3.42
-0.43
-4.08
-7.38
-10.26
-12.74
-14.91
-16.92
-18.85
-20.71
-22.54
-24.44
-26.60
-29.18
-32.11
-34.91
-36.74
-36.63
-33.88
-28.39
-20.79
-12.20
-3.85
3.26
8.66
12.34
14.58
15.81
16.45
16.85
17.33
18.14
19.44
21.18
23.11
24.88
26.09
26.45
25.85
24.34
22.06
19.17
15.82
12.10
8.09
3.86
-0.39
-4.43
-7.95
-10.71
-12.60
-13.67
-14.11
-14.18
-14.11
-13.99
-13.85
-13.69
-13.52
-13.45
-13.61
-14.13
-15.07
-16.45
-18.21
-20.19
-22.01
-23.06
-22.59
-19.89
-14.61
-6.97
2.22
11.82
20.69
28.13
33.99
38.67
42.77
46.76
50.72
54.28
56.81
57.69
56.57
53.46
48.70
42.77
36.16
29.31
22.61
16.45
11.12
6.77
3.30
0.40
-2.38
-5.39
-8.87
-12.84
-17.19
-21.76
-26.30
-30.52
-34.09
-36.72
-38.31
-38.97
-39.09
-39.11
-39.43
-40.28
-41.65
-43.36
-45.12
-46.65
-47.71
-48.17
-48.09
-47.70
-47.35
-47.42
-48.20
-49.74
-51.73
-53.45
-53.83
-51.76
-46.45
-37.80
-26.54
-14.03
-1.82
8.81
17.26
23.52
28.03
31.30
33.66
35.22
35.96
35.91
35.26
34.35
33.57
33.21
33.40
33.99
34.75
35.40
35.81
35.95
35.85
35.45
34.54
32.83
30.15
26.57
22.45
18.33
14.70
11.84
9.74
8.08
6.47
4.48
1.85
-1.41
-5.06
-8.63
-11.61
-13.60
-14.51
-14.67
-14.69
-15.31
-17.06
-20.05
-23.82
-27.52
-30.01
-30.33
-27.88
-22.74
-15.54
-7.35
0.67
7.58
12.83
16.27
18.05
18.48
17.87
16.52
14.76
12.89
11.23
9.98
9.24
8.96
9.00
9.20
9.45
9.64
9.74
9.67
9.40
8.90
8.12
7.06
5.72
4.07
2.12
-0.14
-2.65
-5.33
-8.03
-10.59
-12.89
-14.87
-16.57
-18.16
-19.80
-21.72
-24.07
-26.93
-30.18
-33.43
-35.98
-37.00
-35.65
-31.47
-24.56
-15.65
-5.94
3.28
10.96
16.54
19.97
21.61
21.97
21.54
20.72
19.77
18.85
18.05
17.45
17.11
17.07
17.29
17.74
18.32
18.95
19.53
19.96
20.06
19.67
18.62
16.82
14.39
11.58
8.74
6.20
4.17
2.65
1.47
0.34
-1.00
-2.73
-4.85
-7.22
-9.59
-11.71
-13.46
-14.94
-16.37
-18.13
-20.52
-23.66
-27.33
-30.95
-33.67
-34.58
-32.98
-28.63
-21.87
-13.54
-4.77
3.34
10.01
14.91
18.16
20.19
21.56
22.72
23.99
25.48
27.19
29.15
31.36
33.84
36.44
38.83
40.55
41.19
40.52
38.65
35.91
32.70
29.30
25.82
22.19
18.37
14.37
10.32
6.33
2.46
-1.31
-4.99
-8.53
-11.73
-14.35
-16.18
-17.20
-17.53
-17.45
-17.18
-16.79
-16.20
-15.23
-13.74
-11.81
-9.72
-7.91
-6.89
-7.10
-8.88
-12.36
-17.31
-23.08
-28.48
-32.11
-32.70
-29.63
-23.26
-14.81
-5.95
1.78
7.47
10.94
12.55
12.88
12.48
11.71
10.77
9.82
9.06
8.67
8.76
9.34
10.26
11.23
11.89
11.97
11.35
10.17
8.75
7.45
6.52
5.95
5.54
4.96
4.00
2.58
0.84
-0.96
-2.60
-3.97
-5.17
-6.38
-7.82
-9.62
-11.77
-14.14
-16.57
-18.97
-21.30
-23.68
-26.25
-29.17
-32.49
-36.20
-40.21
-44.37
-48.42
-51.96
-54.32
-54.66
-52.17
-46.38
-37.49
-26.47
-14.84
-4.20
4.28
10.16
13.73
15.66
16.60
16.89
16.61
15.78
14.58
13.43
12.85
13.24
14.60
16.60
18.63
20.14
20.77
20.49
19.50
18.13
16.60
15.02
13.32
11.30
8.77
5.67
2.11
-1.64
-5.21
-8.31
-10.81
-12.77
-14.36
-15.83
-17.41
-19.34
-21.85
-25.09
-28.95
-32.95
-36.16
-37.46
-35.86
-30.93
-22.97
-13.02
-2.46
7.36
15.49
21.52
25.44
27.53
28.12
27.57
26.27
24.61
23.05
21.96
21.55
21.82
22.56
23.43
24.12
24.49
24.54
24.43
24.37
24.47
24.68
24.80
24.53
23.60
21.90
19.53
16.79
14.07
11.65
9.68
8.13
6.89
5.86
5.02
4.33
3.70
2.89
1.60
-0.45
-3.41
-7.28
-11.95
-17.31
-23.18
-29.21
-34.79
-38.95
-40.66
-39.14
-34.28
-26.76
-17.90
-9.24
-2.04
3.02
5.93
7.13
7.21
6.65
5.77
4.69
3.52
2.40
1.51
1.01
0.96
1.28
1.80
2.32
2.70
2.88
2.87
2.67
2.26
1.55
0.48
-0.94
-2.61
-4.36
-6.10
-7.81
-9.58
-11.50
-13.61
-15.83
-17.98
-19.85
-21.31
-22.39
-23.24
-24.18
-25.55
-27.67
-30.70
-34.52
-38.55
-41.79
-43.00
-41.07
-35.43
-26.34
-14.83
-2.44
9.25
19.05
26.32
31.00
33.42
34.12
33.64
32.49
31.11
29.84
28.89
28.32
28.03
27.85
27.54
26.97
26.17
25.29
24.65
24.53
25.00
25.90
26.78
27.12
26.51
24.82
22.21
19.07
15.78
12.62
9.64
6.72
3.72
0.55
-2.74
-5.98
-9.03
-11.76
-14.21
-16.52
-18.93
-21.75
-25.28
-29.70
-34.85
-40.09
-44.31
-46.15
-44.44
-38.74
-29.58
-18.38
-6.96
2.99
10.44
15.20
17.70
18.65
18.68
18.20
17.36
16.26
14.97
13.63
12.39
11.35
10.55
9.94
9.42
8.87
8.25
7.57
6.94
6.45
6.16
6.00
5.82
5.42
4.59
3.24
1.40
-0.76
-3.05
-5.25
-7.23
-8.96
-10.49
-11.91
-13.38
-15.11
-17.34
-20.27
-23.89
-27.83
-31.22
-32.91
-31.79
-27.29
-19.66
-9.95
0.33
9.79
17.51
23.26
27.29
30.05
31.98
33.33
34.31
35.08
35.86
36.87
38.26
40.01
41.93
43.71
44.97
45.41
44.88
43.40
41.13
38.21
34.68
30.46
25.41
19.43
12.49
4.72
-3.72
-12.59
-21.57
-30.27
-38.23
-45.06
-50.54
-54.72
-57.93
-60.61
-63.14
-65.69
-68.05
-69.62
-69.54
-66.93
-61.21
-52.37
-41.14
-28.76
-16.67
-6.03
2.54
8.99
13.65
16.95
19.20
20.59
21.22
21.26
20.93
20.48
20.09
19.80
19.57
19.31
18.95
18.47
17.94
17.37
16.78
16.05
15.05
13.64
11.77
9.54
7.18
4.94
2.94
1.15
-0.63
-2.58
-4.69
-6.74
-8.36
-9.32
-9.67
-9.76
-10.10
-11.03
-12.66
-14.87
-17.52
-20.51
-23.70
-26.71
-28.81
-28.97
-26.31
-20.50
-12.05
-2.23
7.38
15.43
21.15
24.45
25.73
25.60
24.64
23.26
21.72
20.20
18.79
17.53
16.46
15.56
14.80
14.17
13.65
13.22
12.86
12.55
12.25
11.88
11.33
10.51
9.32
7.78
5.96
4.02
2.10
0.26
-1.56
-3.44
-5.45
-7.53
-9.49
-11.12
-12.29
-13.07
-13.64
-14.27
-15.20
-16.61
-18.61
-21.17
-24.14
-27.03
-29.10
-29.38
-27.07
-21.84
-14.10
-4.88
4.44
12.59
18.79
22.80
24.82
25.23
24.42
22.68
20.31
17.66
15.12
13.08
11.77
11.15
10.97
10.87
10.56
9.90
8.97
7.94
6.94
5.96
4.87
3.46
1.55
-0.92
-3.90
-7.18
-10.52
-13.65
-16.39
-18.63
-20.43
-21.95
-23.45
-25.23
-27.55
-30.50
-33.86
-37.02
-39.07
-38.97
-35.92
-29.66
-20.67
-10.06
0.77
10.52
18.34
23.93
27.44
29.25
29.76
29.29
28.10
26.41
24.44
22.43
20.60
19.08
17.92
17.01
16.15
15.16
13.90
12.36
10.67
8.96
7.36
5.86
4.33
2.58
0.47
-2.05
-4.89
-7.83
-10.61
-13.03
-14.97
-16.43
-17.50
-18.30
-18.98
-19.69
-20.67
-22.16
-24.28
-26.91
-29.56
-31.44
-31.69
-29.71
-25.45
-19.50
-12.86
-6.60
-1.54
1.95
3.97
4.90
5.25
5.52
6.08
7.24
9.15
11.81
15.09
18.68
22.17
25.08
27.03
27.86
27.66
26.74
25.50
24.28
23.19
22.10
20.80
19.05
16.80
14.15
11.33
8.61
6.17
4.12
2.43
1.02
-0.22
-1.34
-2.34
-3.10
-3.55
-3.64
-3.50
-3.37
-3.58
-4.43
-6.17
-8.91
-12.60
-16.95
-21.29
-24.63
-25.86
-24.08
-19.03
-11.23
-1.93
7.39
15.41
21.36
25.11
26.96
27.44
27.07
26.29
25.44
24.83
24.66
25.04
25.89
26.94
27.79
27.94
27.05
25.02
22.10
18.86
15.96
13.92
12.87
12.49
12.21
11.40
9.72
7.18
4.09
0.96
-1.77
-3.86
-5.30
-6.29
-7.11
-7.99
-9.02
-10.15
-11.23
-12.08
-12.64
-12.93
-13.06
-13.14
-13.25
-13.36
-13.42
-13.37
-13.28
-13.25
-13.48
-14.12
-15.31
-17.13
-19.67
-22.92
-26.72
-30.59
-33.75
-35.19
-34.04
-29.90
-23.05
-14.46
-5.39
2.95
9.74
14.69
17.89
19.59
20.05
19.51
18.25
16.64
15.09
13.98
13.55
13.77
14.47
15.38
16.25
16.94
17.41
17.73
18.00
18.34
18.79
19.30
19.78
20.07
20.03
19.58
18.67
17.30
15.47
13.19
10.55
7.75
5.03
2.60
0.52
-1.38
-3.34
-5.56
-8.00
-10.36
-12.25
-13.39
-13.76
-13.63
-13.48
-13.68
-14.45
-15.72
-17.21
-18.60
-19.58
-20.03
-19.98
-19.67
-19.45
-19.74
-20.90
-23.11
-26.24
-29.71
-32.61
-33.90
-32.77
-28.96
-22.95
-15.77
-8.64
-2.57
1.94
4.95
6.81
7.93
8.62
9.04
9.33
9.69
10.29
11.23
12.44
13.66
14.65
15.33
15.80
16.38
17.38
19.03
21.30
23.96
26.65
28.93
30.39
30.70
29.61
27.04
23.15
18.31
13.09
8.05
3.64
0.03
-2.86
-5.24
-7.32
-9.22
-10.89
-12.25
-13.18
-13.70
-13.93
-14.15
-14.64
-15.66
-17.32
-19.59
-22.26
-25.01
-27.53
-29.61
-31.12
-32.07
-32.58
-32.89
-33.31
-34.20
-35.79
-38.03
-40.42
-42.06
-41.88
-39.08
-33.38
-25.27
-15.77
-6.17
2.48
9.51
14.73
18.24
20.25
20.92
20.47
19.18
17.46
15.79
14.58
14.08
14.28
15.01
15.99
17.06
18.09
19.02
19.79
20.27
20.33
19.83
18.73
17.10
15.04
12.72
10.31
8.01
5.98
4.30
2.99
1.89
0.80
-0.49
-2.07
-3.88
-5.77
-7.55
-9.13
-10.49
-11.70
-12.76
-13.65
-14.29
-14.58
-14.47
-14.03
-13.44
-12.97
-12.96
-13.76
-15.58
-18.43
-21.95
-25.36
-27.61
-27.59
-24.58
-18.46
-9.86
0.12
10.24
19.47
27.22
33.28
37.66
40.43
41.71
41.69
40.78
39.56
38.66
38.60
39.69
42.03
45.48
49.79
54.55
59.26
63.37
66.41
68.12
68.49
67.70
65.88
63.04
59.00
53.60
46.80
38.94
30.59
22.38
14.75
7.84
1.49
-4.48
-10.13
-15.24
-19.47
-22.56
-24.44
-25.37
-25.79
-26.23
-27.15
-28.94
-31.79
-35.73
-40.44
-45.24
-49.12
-50.91
-49.64
-44.90
-37.01
-26.94
-16.04
-5.69
3.02
9.44
13.37
14.94
14.53
12.64
9.81
6.54
3.24
0.27
-2.18
-4.02
-5.33
-6.34
-7.40
-8.89
-11.05
-13.88
-17.10
-20.24
-22.84
-24.57
-25.41
-25.65
-25.71
-26.02
-26.85
-28.27
-30.25
-32.65
-35.39
-38.40
-41.65
-45.12
-48.79
-52.71
-57.02
-61.84
-67.08
-72.28
-76.51
-78.60
-77.53
-72.83
-64.81
-54.48
-43.23
-32.43
-23.02
-15.43
-9.66
-5.41
-2.32
-0.06
1.63
2.87
3.71
4.14
4.19
3.96
3.65
3.57
4.02
5.16
6.96
9.15
11.29
12.94
13.73
13.53
12.41
10.67
8.66
6.71
4.99
3.56
2.32
1.15
-0.11
-1.58
-3.38
-5.59
-8.30
-11.55
-15.40
-19.95
-25.35
-31.72
-38.99
-46.67
-53.74
-58.78
-60.40
-57.70
-50.70
-40.34
-28.21
-15.97
-4.95
4.17
11.27
16.60
20.55
23.49
25.74
27.53
29.06
30.40
31.53
32.31
32.53
31.94
30.34
27.66
24.09
20.07
16.24
13.25
11.55
11.23
11.94
13.13
14.15
14.59
14.33
13.51
12.43
11.42
10.74
10.49
10.66
11.07
11.47
11.64
11.40
10.75
9.83
8.83
7.88
6.99
5.96
4.51
2.36
-0.71
-4.66
-9.13
-13.40
-16.39
-16.97
-14.28
-8.11
0.85
11.21
21.22
29.34
34.62
36.87
36.53
34.36
31.19
27.72
24.45
21.71
19.68
18.42
17.85
17.79
17.99
18.17
18.09
17.67
17.01
16.40
16.18
16.63
17.77
19.38
21.07
22.40
23.09
23.12
22.61
21.75
20.61
19.11
17.02
14.15
10.51
6.40
2.30
-1.25
-3.93
-5.73
-6.96
-8.10
-9.59
-11.68
-14.36
-17.41
-20.54
-23.46
-26.01
-28.21
-30.25
-32.41
-35.04
-38.30
-42.04
-45.65
-48.00
-47.67
-43.28
-34.00
-20.07
-2.98
14.72
30.11
40.82
45.77
45.39
41.27
35.45
29.63
24.71
20.91
17.99
15.77
14.23
13.51
13.66
14.52
15.64
16.53
16.77
16.21
14.98
13.42
11.86
10.52
9.35
8.13
6.60
4.61
2.23
-0.27
-2.57
-4.42
-5.73
-6.53
-6.81
-6.56
-5.73
-4.42
-2.97
-1.92
-1.87
-3.19
-5.82
-9.23
-12.60
-15.08
-16.19
-15.95
-14.88
-13.78
-13.44
-14.40
-16.66
-19.69
-22.52
-23.95
-23.02
-19.22
-12.78
-4.56
4.23
12.37
18.95
23.53
26.01
26.57
25.48
23.09
19.90
16.50
13.51
11.36
10.12
9.52
9.05
8.27
7.02
5.46
3.99
2.92
2.36
2.08
1.74
1.08
0.09
-0.99
-1.82
-2.20
-2.18
-2.00
-2.01
-2.44
-3.36
-4.66
-6.12
-7.53
-8.69
-9.49
-9.87
-9.94
-9.92
-10.19
-11.16
-13.11
-16.05
-19.53
-22.71
-24.54
-24.07
-20.78
-14.74
-6.68
2.32
11.12
18.84
25.00
29.49
32.34
33.65
33.47
31.88
29.04
25.22
20.78
16.07
11.47
7.31
3.93
1.55
0.28
-0.02
0.30
0.81
1.14
1.13
0.77
0.14
-0.77
-2.01
-3.69
-5.78
-8.08
-10.32
-12.19
-13.57
-14.51
-15.20
-15.81
-16.42
-16.99
-17.40
-17.55
-17.39
-17.02
-16.66
-16.63
-17.29
-18.89
-21.44
-24.58
-27.55
-29.32
-28.94
-25.85
-20.12
-12.48
-4.05
4.00
10.80
15.95
19.50
21.72
22.97
23.53
23.60
23.36
22.97
22.63
22.47
22.51
22.65
22.65
22.26
21.32
19.85
18.05
16.30
14.91
14.04
13.57
13.14
12.34
10.86
8.70
6.12
3.50
1.15
-0.84
-2.62
-4.49
-6.68
-9.21
-11.77
-13.82
-14.69
-13.77
-10.69
-5.45
1.52
9.36
16.88
22.81
26.08
26.21
23.49
18.95
14.01
10.01
7.81
7.59
8.92
11.05
13.19
14.81
15.66
15.77
15.28
14.36
13.14
11.76
10.36
9.09
8.09
7.40
6.95
6.56
5.99
5.09
3.78
2.14
0.26
-1.77
-3.90
-6.09
-8.24
-10.19
-11.77
-12.93
-13.83
-14.74
-15.94
-17.55
-19.44
-21.29
-22.76
-23.65
-23.95
-23.79
-23.33
-22.68
-21.91
-21.14
-20.57
-20.36
-20.49
-20.52
-19.61
-16.82
-11.52
-3.75
5.62
15.22
23.63
29.91
33.85
35.84
36.52
36.36
35.52
33.82
31.12
27.46
23.26
19.17
15.90
13.96
13.62
14.92
17.61
21.23
25.00
27.88
28.76
26.81
21.82
14.43
5.89
-2.28
-8.82
-13.11
-15.20
-15.65
-15.19
-14.57
-14.39
-15.18
-17.31
-20.91
-25.75
-31.24
-36.57
-40.93
-43.64
-44.30
-42.69
-38.80
-32.88
-25.56
-17.87
-11.06
-6.15
-3.58
-2.97
-3.35
-3.58
-2.85
-0.88
2.13
5.71
9.30
12.22
13.70
12.89
9.22
2.72
-5.80
-14.84
-22.71
-28.11
-30.55
-30.39
-28.48
-25.70
-22.70
-19.75
-16.91
-14.09
-11.17
-7.99
-4.35
-0.17
4.44
9.17
13.60
17.44
20.63
23.29
25.44
26.87
27.03
25.40
21.76
16.48
10.41
4.54
-0.40
-4.21
-7.18
-9.81
-12.54
-15.53
-18.58
-21.22
-22.82
-22.70
-20.33
-15.50
-8.44
0.11
9.10
17.41
24.22
29.16
32.37
34.24
35.20
35.51
35.30
34.62
33.63
32.56
31.56
30.55
29.18
26.99
23.75
19.63
15.26
11.39
8.56
6.79
5.53
4.05
1.72
-1.65
-5.80
-10.22
-14.42
-18.12
-21.23
-23.78
-25.76
-27.11
-27.79
-27.91
-27.75
-27.79
-28.53
-30.29
-33.10
-36.66
-40.44
-43.95
-46.82
-48.94
-50.27
-50.68
-49.76
-46.95
-41.70
-33.93
-24.16
-13.54
-3.38
5.22
11.78
16.39
19.52
21.71
23.32
24.52
25.44
26.15
26.78
27.39
27.89
28.11
27.90
27.28
26.45
25.78
25.63
26.12
27.16
28.39
29.38
29.67
28.97
27.16
24.28
20.48
16.00
11.22
6.52
2.29
-1.26
-4.12
-6.50
-8.75
-11.15
-13.78
-16.57
-19.31
-21.82
-24.03
-25.98
-27.75
-29.40
-30.93
-32.28
-33.28
-33.64
-32.93
-30.77
-27.03
-22.01
-16.48
-11.43
-7.75
-5.87
-5.70
-6.77
-8.61
-10.97
-13.84
-17.11
-20.33
-22.59
-22.76
-19.99
-14.19
-6.13
2.81
11.08
17.57
21.84
24.07
24.79
24.58
23.82
22.68
21.19
19.42
17.52
15.73
14.31
13.46
13.18
13.30
13.60
13.89
14.19
14.61
15.32
16.34
17.50
18.46
18.83
18.35
16.91
14.57
11.55
8.16
4.83
2.06
0.28
-0.27
0.29
1.47
2.62
3.13
2.70
1.32
-0.71
-3.04
-5.32
-7.33
-8.93
-10.07
-10.79
-11.21
-11.53
-11.94
-12.60
-13.55
-14.73
-16.03
-17.36
-18.69
-20.07
-21.60
-23.46
-25.78
-28.55
-31.53
-34.09
-35.34
-34.32
-30.36
-23.35
-13.89
-3.15
7.43
16.52
23.18
27.02
28.14
26.99
24.22
20.56
16.63
12.93
9.78
7.33
5.65
4.72
4.49
4.84
5.61
6.54
7.37
7.93
8.15
8.08
7.84
7.52
7.12
6.58
5.80
4.76
3.53
2.27
1.17
0.38
-0.03
-0.08
0.16
0.63
1.26
1.96
2.64
3.15
3.35
3.22
2.79
2.15
1.35
0.36
-0.94
-2.65
-4.73
-7.04
-9.34
-11.41
-13.16
-14.71
-16.34
-18.39
-21.09
-24.46
-28.15
-31.43
-33.36
-33.01
-29.85
-23.91
-15.81
-6.57
2.72
11.14
18.08
23.22
26.43
27.73
27.34
25.62
23.10
20.38
17.97
16.22
15.23
14.96
15.24
15.90
16.71
17.49
18.08
18.34
18.22
17.70
16.75
15.31
13.30
10.69
7.54
4.09
0.67
-2.34
-4.68
-6.21
-7.00
-7.24
-7.13
-6.85
-6.48
-6.03
-5.49
-4.88
-4.24
-3.65
-3.24
-3.18
-3.59
-4.59
-6.13
-7.96
-9.60
-10.40
-9.62
-6.68
-1.41
5.85
14.13
22.09
28.23
31.31
30.69
26.48
19.48
10.96
2.29
-5.41
-11.45
-15.61
-18.05
-19.13
-19.31
-18.98
-18.50
-18.12
-17.94
-17.93
-17.92
-17.70
-17.10
-16.08
-14.78
-13.44
-12.33
-11.58
-11.21
-11.06
-10.91
-10.57
-9.99
-9.23
-8.46
-7.87
-7.61
-7.73
-8.19
-8.87
-9.57
-10.13
-10.41
-10.49
-10.60
-11.15
-12.54
-14.92
-17.96
-20.86
-22.51
-21.88
-18.41
-12.28
-4.32
4.25
12.25
18.79
23.48
26.32
27.56
27.52
26.53
24.87
22.85
20.77
18.89
17.41
16.38
15.74
15.35
15.09
14.94
14.94
15.17
15.64
16.28
16.98
17.70
18.50
19.47
20.66
21.92
22.88
23.17
22.50
20.90
18.63
16.09
13.61
11.33
9.19
7.08
4.92
2.73
0.55
-1.63
-3.87
-6.25
-8.80
-11.44
-14.03
-16.44
-18.70
-20.99
-23.59
-26.73
-30.37
-34.08
-37.05
-38.30
-36.97
-32.62
-25.43
-16.21
-6.19
3.32
11.25
16.96
20.29
21.45
20.93
19.32
17.22
15.17
13.57
12.63
12.40
12.80
13.63
14.68
15.69
16.49
16.93
16.98
16.68
16.13
15.40
14.48
13.27
11.68
9.67
7.40
5.17
3.34
2.22
1.91
2.32
3.22
4.39
5.62
6.84
7.96
8.90
9.48
9.53
8.94
7.76
6.14
4.24
2.13
-0.34
-3.44
-7.49
-12.65
-18.92
-26.09
-33.82
-41.64
-48.87
-54.64
-57.93
-57.88
-54.09
-46.88
-37.29
-26.79
-16.88
-8.59
-2.28
2.27
5.65
8.45
11.03
13.45
15.57
17.21
18.30
18.95
19.43
20.07
21.14
22.83
25.20
28.23
31.70
35.19
38.03
39.39
38.62
35.48
30.35
24.16
18.08
13.07
9.55
7.31
5.72
4.10
2.01
-0.62
-3.58
-6.58
-9.44
-12.19
-14.97
-17.88
-20.85
-23.65
-25.97
-27.58
-28.47
-28.81
-28.86
-28.79
-28.66
-28.45
-28.15
-27.80
-27.49
-27.19
-26.66
-25.41
-22.91
-18.81
-13.15
-6.41
0.60
6.97
11.92
14.99
16.06
15.36
13.34
10.60
7.73
5.24
3.47
2.58
2.52
3.10
4.11
5.34
6.66
7.99
9.29
10.47
11.41
11.99
12.24
12.32
12.55
13.22
14.31
15.44
15.90
14.99
12.31
8.00
2.76
-2.39
-6.38
-8.36
-7.84
-4.87
-0.14
5.03
8.84
9.52
5.93
-1.92
-12.77
-24.41
-34.45
-41.10
-43.59
-42.25
-38.12
-32.49
-26.47
-20.80
-15.90
-11.90
-8.86
-6.69
-5.25
-4.29
-3.53
-2.74
-1.73
-0.53
0.73
1.82
2.54
2.80
2.72
2.53
2.46
2.65
2.99
3.18
2.87
1.78
-0.11
-2.56
-5.19
-7.65
-9.75
-11.46
-12.92
-14.29
-15.68
-17.12
-18.50
-19.70
-20.60
-21.20
-21.63
-22.13
-22.98
-24.42
-26.53
-29.08
-31.56
-33.16
-33.01
-30.40
-25.07
-17.34
-8.09
1.51
10.29
17.39
22.47
25.62
27.23
27.79
27.72
27.31
26.74
26.11
25.48
24.91
24.41
23.99
23.62
23.28
22.99
22.85
23.01
23.57
24.52
25.66
26.67
27.17
26.86
25.65
23.66
21.15
18.50
16.05
14.02
12.46
11.22
10.08
8.78
7.17
5.22
3.01
0.69
-1.62
-3.90
-6.18
-8.51
-10.87
-13.14
-15.14
-16.68
-17.44
-17.15
-15.61
-12.73
-8.51
-3.05
3.44
10.54
17.67
24.43
30.45
35.52
39.48
42.35
44.16
44.92
44.44
42.55
39.48
35.71
31.77
28.12
25.15
23.18
22.42
22.80
24.01
25.90
28.03
29.77
30.30
29.15
26.27
21.90
16.11
6.70
-6.93
-23.28
-39.34
-52.50
-61.36
-66.68
-69.41
-70.29
-69.88
-68.35
-66.08
-62.94
-59.93
-58.24
-58.65
-60.98
-64.28
-67.12
-67.70
-64.59
-57.02
-45.00
-28.99
-9.78
11.48
33.17
53.36
70.23
82.10
87.66
86.22
78.33
65.99
52.29
40.43
32.60
29.32
29.35
30.48
30.64
28.91
25.63
21.75
17.98
14.32
10.31
5.66
0.69
-3.62
-6.10
-6.11
-3.90
-0.66
2.07
3.06
1.92
-0.82
-4.14
-7.00
-8.87
-9.91
-10.76
-12.17
-14.52
-17.65
-21.02
-24.09
-26.74
-29.42
-32.89
-37.64
-43.33
-48.65
-51.66
-50.64
-44.92
-35.29
-23.72
-12.48
-3.23
3.59
8.71
13.62
19.89
28.76
40.94
56.67
75.51
96.16
116.15
132.01
139.85
136.56
120.90
94.12
59.63
21.90
-15.15
-49.03
-78.71
-103.57
-122.32
-132.79
-132.80
-121.83
-102.11
-78.35
-55.98
-38.98
-28.39
-22.43
-18.18
-13.41
-7.86
-2.96
-0.68
-2.19
-7.34
-14.95
-23.54
-31.99
-39.54
-45.61
-49.59
-50.73
-48.44
-42.62
-33.85
-23.28
-12.38
-2.41
5.79
11.98
16.45
19.75
22.48
25.14
27.99
31.08
34.26
37.23
39.59
40.92
40.91
39.45
36.75
33.24
29.54
26.17
23.39
21.14
19.05
16.66
13.70
10.16
6.39
2.85
-0.03
-2.02
-3.17
-3.67
-3.81
-3.84
-3.96
-4.35
-5.12
-6.32
-7.86
-9.57
-11.23
-12.67
-13.90
-15.11
-16.66
-18.91
-22.05
-25.95
-29.99
-33.15
-34.31
-32.54
-27.53
-19.71
-10.15
-0.25
8.72
15.92
21.02
24.14
25.64
25.98
25.55
24.74
23.77
22.79
21.85
20.94
20.06
19.25
18.57
18.05
17.68
17.38
17.06
16.68
16.20
15.59
14.78
13.65
12.05
9.95
7.44
4.75
2.17
-0.09
-1.93
-3.51
-5.08
-6.96
-9.30
-12.04
-14.88
-17.41
-19.35
-20.68
-21.72
-23.08
-25.36
-28.88
-33.41
-38.15
-41.80
-43.01
-40.75
-34.74
-25.56
-14.54
-3.43
6.09
12.81
16.31
16.98
15.88
14.30
13.43
13.98
16.05
19.17
22.64
25.79
28.23
29.92
30.99
31.61
31.79
31.44
30.45
28.86
26.89
24.84
22.96
21.31
19.71
17.85
15.43
12.33
8.69
4.84
1.18
-2.03
-4.78
-7.34
-10.14
-13.55
-17.73
-22.54
-27.52
-32.20
-36.23
-39.59
-42.54
-45.54
-49.01
-53.21
-58.06
-63.08
-67.33
-69.58
-68.60
-63.59
-54.56
-42.47
-29.01
-16.13
-5.37
2.43
7.31
9.88
10.96
11.27
11.22
10.94
10.40
9.56
8.46
7.26
6.21
5.53
5.37
5.76
6.68
8.07
9.89
12.04
14.35
16.52
18.24
19.27
19.54
19.19
18.48
17.70
17.09
16.72
16.54
16.42
16.13
15.46
14.18
12.21
9.56
6.39
2.96
-0.44
-3.59
-6.39
-8.86
-11.14
-13.42
-15.86
-18.53
-21.34
-23.93
-25.70
-25.90
-23.82
-19.00
-11.49
-1.90
8.73
19.12
28.16
35.06
39.62
42.10
43.15
43.56
44.01
44.94
46.52
48.61
50.95
53.27
55.37
57.15
58.59
59.70
60.54
61.17
61.64
61.91
61.71
60.58
57.94
53.25
46.27
37.09
26.22
14.40
2.43
-8.94
-19.19
-28.05
-35.56
-41.95
-47.61
-52.83
-57.73
-62.17
-65.85
-68.48
-69.91
-70.25
-69.78
-68.89
-67.94
-67.23
-66.97
-67.32
-68.28
-69.65
-70.95
-71.35
-69.89
-65.76
-58.59
-48.69
-37.00
-24.81
-13.40
-3.66
3.99
9.59
13.41
15.82
17.14
17.70
17.82
17.81
17.94
18.31
18.93
19.67
20.40
21.00
21.42
21.66
21.73
21.65
21.40
20.92
20.10
18.83
17.06
14.87
12.40
9.83
7.28
4.84
2.50
0.24
-1.91
-3.88
-5.56
-6.82
-7.60
-7.92
-7.91
-7.86
-8.11
-9.03
-10.84
-13.45
-16.38
-18.77
-19.64
-18.19
-14.04
-7.45
0.80
9.58
17.78
24.57
29.48
32.48
33.84
33.90
33.03
31.50
29.50
27.23
24.91
22.82
21.20
20.21
19.86
19.98
20.29
20.51
20.44
19.96
19.09
17.84
16.31
14.52
12.49
10.20
7.58
4.54
1.08
-2.71
-6.64
-10.49
-14.08
-17.32
-20.28
-23.08
-25.84
-28.70
-31.77
-35.09
-38.50
-41.58
-43.57
-43.55
-40.78
-34.97
-26.50
-16.35
-5.80
3.97
12.16
18.45
22.95
25.93
27.77
28.75
29.17
29.26
29.24
29.24
29.35
29.54
29.73
29.79
29.64
29.26
28.72
28.13
27.57
27.01
26.32
25.31
23.85
21.94
19.70
17.36
15.07
12.91
10.88
8.90
7.00
5.22
3.65
2.33
1.24
0.27
-0.72
-1.87
-3.26
-4.90
-6.66
-8.26
-9.20
-8.93
-7.02
-3.26
2.12
8.55
15.25
21.46
26.66
30.61
33.32
34.91
35.51
35.21
34.04
32.06
29.32
25.96
22.05
17.63
12.66
7.07
0.88
-5.70
-12.25
-18.23
-23.17
-26.83
-29.33
-31.05
-32.52
-34.20
-36.25
-38.59
-40.91
-42.87
-44.23
-44.95
-45.26
-45.47
-45.94
-46.80
-47.98
-49.18
-50.00
-50.17
-49.66
-48.76
-47.98
-47.86
-48.78
-50.77
-53.37
-55.64
-56.34
-54.29
-48.77
-39.82
-28.33
-15.77
-3.77
6.43
14.24
19.71
23.35
25.72
27.28
28.27
28.80
28.93
28.78
28.47
28.10
27.71
27.27
26.68
25.85
24.79
23.56
22.32
21.20
20.25
19.36
18.33
16.91
14.99
12.59
9.91
7.23
4.77
2.67
0.90
-0.63
-2.03
-3.40
-4.81
-6.34
-8.07
-10.14
-12.54
-15.08
-17.28
-18.39
-17.66
-14.58
-9.14
-1.94
5.98
13.43
19.45
23.53
25.69
26.32
25.94
25.02
23.86
22.62
21.32
20.00
18.69
17.46
16.41
15.58
14.97
14.50
14.04
13.42
12.56
11.46
10.18
8.82
7.39
5.82
3.96
1.68
-1.06
-4.15
-7.30
-10.20
-12.56
-14.24
-15.32
-15.98
-16.50
-17.15
-18.15
-19.66
-21.78
-24.40
-27.20
-29.53
-30.56
-29.50
-25.88
-19.83
-12.08
-3.74
4.00
10.26
14.65
17.26
18.50
18.85
18.76
18.51
18.24
18.03
17.86
17.71
17.57
17.42
17.29
17.25
17.37
17.67
18.15
18.77
19.42
20.04
20.57
20.98
21.33
21.69
22.21
23.03
24.12
25.20
25.77
25.19
23.00
19.15
14.14
8.96
4.72
2.38
2.39
4.61
8.31
12.34
15.33
16.02
13.55
7.70
-1.00
-11.39
-21.92
-31.02
-37.42
-40.43
-40.09
-37.09
-32.62
-27.93
-23.99
-21.23
-19.58
-18.67
-18.19
-18.11
-18.60
-19.87
-21.90
-24.36
-26.75
-28.60
-29.66
-29.93
-29.52
-28.53
-27.07
-25.22
-23.19
-21.26
-19.73
-18.79
-18.44
-18.53
-18.83
-19.14
-19.39
-19.57
-19.71
-19.81
-19.79
-19.59
-19.21
-18.73
-18.32
-18.14
-18.35
-19.03
-20.23
-21.96
-24.05
-26.11
-27.49
-27.35
-24.91
-19.79
-12.20
-2.98
6.65
15.53
22.88
28.52
32.75
36.12
39.17
42.22
45.38
48.66
52.02
55.41
58.75
61.78
64.04
64.99
64.24
61.74
57.95
53.61
49.50
46.03
43.10
40.14
36.40
31.28
24.53
16.35
7.26
-2.06
-10.91
-18.73
-25.13
-29.93
-33.25
-35.37
-36.65
-37.44
-37.96
-38.33
-38.62
-38.96
-39.49
-40.35
-41.62
-43.32
-45.38
-47.67
-49.90
-51.58
-52.00
-50.41
-46.18
-39.19
-29.95
-19.51
-9.13
0.02
7.26
12.40
15.73
17.75
18.94
19.70
20.23
20.61
20.89
21.12
21.45
22.04
22.99
24.28
25.73
27.09
28.12
28.73
28.94
28.88
28.66
28.42
28.29
28.56
29.61
31.82
35.25
39.50
43.60
46.28
46.44
43.58
37.98
30.58
22.60
15.02
8.30
2.34
-3.29
-9.06
-15.16
-21.50
-27.76
-33.51
-38.36
-42.09
-44.57
-45.85
-46.08
-45.58
-44.81
-44.39
-44.88
-46.47
-48.72
-50.51
-50.24
-46.46
-38.42
-26.37
-11.63
3.97
18.58
30.82
39.99
45.99
49.07
49.69
48.44
46.02
43.15
40.50
38.49
37.22
36.49
35.92
35.10
33.72
31.68
29.01
25.94
22.73
19.65
16.90
14.52
12.42
10.40
8.27
5.94
