1504622213.00
64.000000
-0.00
-0.00
-0.00
-0.00
-0.00
-0.00
-0.00
-0.00
-0.00
-0.00
0.00
0.01
0.01
-0.00
-0.03
-0.05
-0.05
0.00
0.13
0.36
0.66
1.01
1.37
1.72
2.06
2.40
2.79
3.24
3.80
4.42
5.06
5.66
6.20
6.67
7.14
7.69
8.35
9.20
10.14
11.03
11.74
12.22
12.55
12.94
13.65
14.82
16.69
19.03
21.53
23.86
25.86
27.64
29.56
32.08
35.55
40.29
45.88
51.71
57.15
61.85
65.94
70.04
74.94
81.20
89.26
98.40
107.62
115.88
122.65
128.16
133.34
139.80
146.33
155.01
166.01
178.99
192.46
203.52
208.25
202.61
183.75
150.99
106.43
53.24
-4.99
-65.53
-126.78
-187.92
-248.22
-306.62
-361.94
-412.89
-459.15
-500.80
-538.07
-570.83
-598.16
-617.96
-626.85
-620.66
-595.24
-548.37
-480.87
-397.02
-303.78
-208.85
-118.64
-37.03
34.57
96.24
148.24
190.43
222.56
244.84
258.42
265.31
267.70
267.23
264.67
259.91
252.45
242.03
228.94
214.08
198.65
183.76
170.03
157.54
145.87
134.51
123.06
111.49
100.04
89.14
79.15
70.22
62.27
54.99
48.09
41.39
34.86
28.63
22.87
17.73
13.26
9.53
6.42
3.77
1.44
-0.66
-2.58
-4.30
-5.78
-7.00
-7.97
-8.74
-9.35
-9.76
-9.92
-9.72
-9.17
-8.39
-7.57
-6.94
-6.60
-6.49
-6.41
-6.17
-5.65
-4.95
-4.27
-3.82
-3.68
-3.78
-3.89
-3.79
-3.37
-2.66
-1.82
-1.08
-0.58
-0.40
-0.56
-1.00
-1.63
-2.30
-2.87
-3.20
-3.22
-2.99
-2.65
-2.36
-2.19
-2.13
-2.10
-2.01
-1.84
-1.62
-1.41
-1.22
-1.05
-0.87
-0.66
-0.44
-0.23
-0.04
0.15
0.32
0.47
0.51
0.39
0.12
-0.21
-0.48
-0.59
-0.51
-0.27
0.04
0.33
0.54
0.68
0.77
0.84
0.90
0.97
1.06
1.16
1.25
1.32
1.36
1.38
1.39
1.44
1.55
1.74
1.96
2.17
2.29
2.25
1.97
1.43
0.68
-0.21
-1.15
-2.05
-2.82
-3.37
-3.63
-3.59
-3.28
-2.84
-2.43
-2.18
-2.11
-2.14
-2.13
-1.99
-1.71
-1.39
-1.16
-1.10
-1.22
-1.47
-1.79
-2.15
-2.55
-3.00
-3.48
-3.99
-4.47
-4.95
-5.42
-5.88
-6.24
-6.36
-6.13
-5.49
-4.50
-3.34
-2.19
-1.20
-0.44
0.09
0.42
0.55
0.51
0.32
0.02
-0.31
-0.58
-0.74
-0.78
-0.75
-0.70
-0.71
-0.82
-1.08
-1.47
-1.93
-2.37
-2.70
-2.89
-2.96
-2.97
-2.98
-3.03
-3.08
-3.01
-2.73
-2.19
-1.50
-0.82
-0.32
-0.07
0.02
0.11
0.30
0.61
0.94
1.18
1.29
1.36
1.56
2.02
2.73
3.57
4.40
5.15
5.83
6.51
7.19
7.73
7.93
7.63
6.84
5.71
4.48
3.31
2.20
1.01
-0.46
-2.30
-4.38
-6.44
-8.15
-9.25
-9.65
-9.45
-8.86
-8.11
-7.43
-6.85
-6.30
-5.58
-4.53
-3.10
-1.30
0.71
2.66
4.25
5.24
5.50
5.10
4.26
3.36
2.93
3.42
4.98
7.35
10.00
12.34
13.92
14.49
14.10
13.16
12.22
11.72
11.89
12.62
13.46
13.85
13.36
11.09
7.16
2.68
-0.88
-2.77
-2.97
-2.25
-1.01
0.77
3.33
6.60
10.23
13.54
15.82
16.63
15.88
13.76
10.57
6.71
2.89
-0.06
-1.46
-1.14
0.55
2.84
4.84
5.84
5.54
4.03
1.67
-1.19
-4.20
-7.02
-9.28
-10.70
-11.21
-11.04
-10.53
-10.03
-9.75
-9.63
-9.47
-9.08
-8.47
-7.91
-7.84
-8.64
-10.43
-13.00
-15.87
-18.56
-20.80
-22.66
-24.49
-26.67
-29.32
-32.09
-34.28
-35.11
-34.06
-31.12
-26.74
-21.50
-15.91
-10.49
-6.02
-3.50
-3.71
-6.44
-10.01
-11.78
-9.45
-2.63
6.58
14.38
17.21
13.67
5.26
-4.64
-12.59
-16.81
-17.62
-16.60
-15.20
-13.73
-11.40
-7.01
0.02
9.19
18.78
26.62
30.96
31.26
28.45
24.45
21.30
20.34
21.83
25.09
28.97
32.10
33.00
30.32
23.24
12.18
-0.83
-12.58
-19.84
-20.87
-16.23
-8.47
-0.75
4.77
7.60
8.55
8.68
8.41
7.40
5.10
1.49
-2.69
-6.26
-8.22
-8.16
-6.49
-4.03
-1.65
0.10
1.17
1.86
2.64
3.88
5.70
7.87
9.94
11.42
12.03
11.90
11.57
11.77
13.10
15.63
18.82
21.63
22.93
21.94
18.48
13.05
6.55
0.02
-5.69
-10.09
-13.08
-14.85
-15.74
-16.12
-16.28
-16.36
-16.31
-16.03
-15.47
-14.71
-13.94
-13.37
-13.04
-12.78
-12.16
-10.78
-8.41
-5.10
-1.20
2.83
6.61
9.93
12.80
15.30
17.52
19.42
20.90
21.82
22.05
21.55
20.34
18.56
16.41
14.14
11.95
9.97
8.23
6.60
4.95
3.17
1.26
-0.62
-2.22
-3.31
-3.76
-3.58
-3.00
-2.41
-2.26
-2.95
-4.75
-7.66
-11.47
-15.59
-19.19
-21.45
-21.86
-20.42
-17.74
-14.81
-12.74
-12.39
-14.11
-17.27
-20.65
-22.72
-22.46
-19.76
-15.19
-9.53
-3.64
1.65
6.05
9.17
10.74
10.67
9.25
6.99
4.51
2.04
-0.40
-2.75
-4.98
-7.10
-9.18
-11.16
-12.88
-13.60
-12.40
-8.54
-1.83
7.12
17.06
26.20
33.14
37.32
39.11
39.27
38.38
36.51
33.32
28.45
21.84
14.08
6.15
-0.91
-6.47
-10.36
-12.67
-13.49
-12.36
-9.23
-5.00
-1.26
0.64
0.34
-1.54
-3.89
-5.77
-7.09
-8.36
-10.08
-12.37
-14.78
-16.59
-17.26
-16.75
-15.65
-14.39
-13.67
-13.84
-14.76
-15.87
-16.59
-16.61
-15.98
-15.00
-13.96
-13.07
-12.29
-11.45
-10.35
-8.96
-7.44
-5.98
-4.69
-3.50
-2.28
-0.87
0.82
2.80
4.96
7.12
9.11
10.75
11.96
12.67
12.89
12.74
12.33
11.72
10.92
9.85
8.48
6.82
4.91
2.85
0.73
-1.36
-3.37
-5.26
-7.03
-8.77
-10.60
-12.60
-14.76
-16.89
-18.65
-19.70
-19.82
-19.01
-17.53
-15.72
-13.87
-12.11
-10.44
-8.77
-7.06
-5.38
-3.89
-2.76
-2.08
-1.81
-1.79
-1.85
-1.81
-1.57
-1.07
-0.25
0.94
2.48
4.28
6.14
7.77
8.89
9.32
9.09
8.43
7.69
7.17
7.04
7.29
7.78
8.35
8.89
9.40
9.85
10.22
10.40
10.27
9.80
9.04
8.16
7.31
6.57
5.90
5.20
4.38
3.44
2.49
1.69
1.16
0.94
0.98
1.19
1.45
1.65
1.75
1.74
1.70
1.76
2.09
2.82
3.95
5.36
6.84
8.20
9.29
10.09
10.66
11.13
11.60
12.14
12.76
13.40
13.99
14.44
14.76
15.08
15.63
16.66
18.29
20.35
22.44
24.01
24.65
24.29
23.26
22.27
22.15
23.58
26.76
31.17
35.64
38.67
39.00
36.15
30.71
24.12
18.08
13.86
11.82
11.39
11.51
11.19
9.79
7.15
3.40
-1.00
-5.32
-8.51
-9.47
-7.51
-2.93
2.83
7.57
9.15
6.36
-0.60
-10.23
-20.45
-29.36
-35.82
-39.53
-40.74
-39.97
-37.79
-34.75
-31.49
-28.66
-26.81
-26.22
-26.78
-27.93
-28.88
-28.88
-27.43
-24.53
-20.61
-16.42
-12.70
-9.94
-8.24
-7.34
-6.81
-6.30
-5.72
-5.26
-5.28
-6.05
-7.63
-9.74
-11.89
-13.65
-14.76
-15.27
-15.39
-15.35
-15.28
-15.13
-14.79
-14.17
-13.34
-12.48
-11.81
-11.42
-11.29
-11.31
-11.39
-11.44
-11.45
-11.43
-11.43
-11.51
-11.64
-11.81
-11.97
-12.10
-12.06
-11.73
-11.05
-10.05
-8.84
-7.58
-6.46
-5.72
-5.61
-6.07
-6.86
-7.57
-7.81
-7.29
-5.86
-3.52
-0.41
3.26
7.60
12.78
18.81
25.45
32.24
38.75
44.74
50.17
53.48
53.24
48.71
40.55
30.51
20.51
12.08
6.09
2.96
1.85
2.02
2.82
3.74
4.46
4.75
4.59
3.81
2.54
0.96
-0.44
-1.23
-1.21
-0.48
0.62
1.70
2.48
2.90
3.02
3.19
3.80
5.06
6.95
9.14
11.20
12.80
13.95
15.02
16.76
19.98
25.21
32.50
41.28
50.51
58.84
64.90
67.61
66.53
62.00
55.12
47.35
40.09
34.11
29.42
25.38
21.14
16.12
10.21
3.74
-2.82
-9.13
-15.02
-20.49
-25.50
-29.90
-33.46
-36.03
-37.58
-38.29
-38.49
-38.50
-38.56
-38.73
-38.95
-39.02
-38.75
-38.02
-36.87
-35.44
-33.96
-32.60
-31.41
-30.34
-29.27
-28.09
-26.80
-25.48
-24.18
-22.91
-21.56
-19.99
-18.12
-15.97
-13.71
-11.55
-9.65
-8.09
-6.83
-5.80
-4.96
-4.29
-3.81
-3.49
-3.27
-3.06
-2.82
-2.53
-2.23
-1.99
-1.88
-1.91
-2.07
-2.32
-2.58
-2.79
-2.92
-3.00
-3.10
-3.28
-3.59
-4.02
-4.50
-4.98
-5.44
-5.90
-6.37
-6.85
-7.26
-7.46
-7.36
-6.93
-6.24
-5.45
-4.69
-4.06
-3.59
-3.24
-3.00
-2.83
-2.75
-2.71
-2.67
-2.61
-2.51
-2.42
-2.41
-2.48
-2.55
-2.49
-2.17
-1.62
-0.96
-0.38
-0.03
0.09
0.05
-0.01
0.03
0.19
0.50
0.99
1.76
2.90
4.41
6.18
7.95
9.46
10.52
11.06
11.13
10.81
10.22
9.52
8.86
8.38
8.20
8.32
8.61
8.89
8.95
8.67
8.06
7.16
6.08
4.88
3.62
2.34
1.10
-0.05
-1.08
-1.96
-2.66
-3.13
-3.30
-3.14
-2.67
-1.97
-1.18
-0.42
0.23
0.76
1.16
1.45
1.61
1.65
1.55
1.34
1.04
0.72
0.43
0.22
0.13
0.15
0.24
0.34
0.39
0.30
0.05
-0.34
-0.83
-1.38
-1.92
-2.41
-2.81
-3.13
-3.43
-3.77
-4.16
-4.57
-4.86
-4.89
-4.57
-3.90
-2.95
-1.82
-0.64
0.52
1.58
2.49
3.16
3.53
3.63
3.57
3.52
3.60
3.84
4.12
4.25
4.10
3.64
2.99
2.35
1.86
1.60
1.51
1.49
1.46
1.38
1.27
1.12
0.89
0.47
-0.21
-1.12
-2.12
-2.97
-3.43
-3.37
-2.78
-1.88
-0.91
-0.13
0.37
0.61
0.72
0.82
0.97
1.12
1.21
1.23
1.19
1.17
1.21
1.33
1.48
1.58
1.63
1.62
1.61
1.57
1.46
1.16
0.57
-0.33
-1.47
-2.70
-3.82
-4.64
-5.02
-4.94
-4.44
-3.61
-2.55
-1.38
-0.19
0.92
1.85
2.48
2.76
2.70
2.38
1.96
1.59
1.37
1.28
1.26
1.20
1.05
0.84
0.66
0.56
0.59
0.74
0.96
1.24
1.56
1.94
2.39
2.87
3.32
3.64
3.75
3.67
3.54
3.58
4.06
5.14
6.85
9.01
11.33
13.48
15.22
16.42
17.05
17.14
16.74
15.96
14.92
13.82
12.84
12.06
11.42
10.76
9.85
8.54
6.82
4.82
2.80
0.99
-0.43
-1.39
-1.96
-2.33
-2.75
-3.45
-4.57
-6.10
-8.00
-10.19
-12.57
-14.95
-17.07
-18.53
-18.91
-17.96
-15.73
-12.71
-9.56
-6.87
-4.90
-3.56
-2.58
-1.70
-0.89
-0.36
-0.51
-1.56
-3.38
-5.46
-7.37
-8.88
-9.99
-10.93
-12.03
-13.69
-16.05
-18.83
-21.39
-23.38
-24.71
-25.50
-26.04
-26.78
-28.46
-31.50
-35.68
-40.10
-44.14
-47.43
-49.78
-51.18
-51.79
-52.27
-53.12
-54.48
-56.02
-57.68
-59.14
-59.19
-56.04
-45.81
-27.44
-3.90
18.17
35.87
48.59
56.31
59.74
60.08
58.42
55.07
50.24
44.48
38.94
34.35
31.01
28.98
28.02
27.62
26.88
25.26
22.82
20.29
18.14
16.57
15.64
15.28
15.26
15.15
14.76
14.23
14.02
14.30
14.96
15.81
16.59
17.09
17.03
16.31
14.99
13.35
11.60
9.85
8.25
6.94
5.98
5.33
4.88
4.49
4.06
3.46
2.64
1.64
0.56
-0.48
-1.39
-2.10
-2.60
-2.90
-3.03
-3.04
-2.99
-2.91
-2.79
-2.55
-2.07
-1.24
-0.05
1.37
2.82
4.10
5.06
5.65
5.96
6.06
6.00
5.82
5.51
5.11
4.72
4.43
4.29
4.25
4.19
3.97
3.48
2.75
1.89
1.08
0.48
0.19
0.22
0.46
0.76
0.95
0.93
0.74
0.47
0.30
0.32
0.53
0.83
1.05
1.06
0.83
0.42
-0.03
-0.44
-0.77
-1.07
-1.40
-1.81
-2.28
-2.73
-3.08
-3.31
-3.44
-3.52
-3.58
-3.63
-3.62
-3.52
-3.37
-3.18
-2.97
-2.69
-2.21
-1.43
-0.29
1.12
2.62
4.02
5.19
6.11
6.85
7.48
8.02
8.45
8.71
8.80
8.79
8.78
8.88
9.11
9.43
9.69
9.76
9.54
9.01
8.26
7.44
6.70
6.16
5.87
5.79
5.81
5.78
5.53
4.96
4.04
2.87
1.63
0.55
-0.16
-0.40
-0.19
0.31
0.89
1.36
1.61
1.63
1.45
1.16
0.82
0.48
0.19
-0.00
-0.05
0.07
0.35
0.72
1.07
1.27
1.23
0.91
0.34
-0.36
-1.06
-1.66
-2.08
-2.37
-2.60
-2.93
-3.46
-4.25
-5.27
-6.42
-7.55
-8.51
-9.20
-9.61
-9.78
-9.77
-9.62
-9.31
-8.81
-8.10
-7.25
-6.34
-5.47
-4.66
-3.91
-3.19
-2.54
-2.05
-1.86
-2.01
-2.44
-2.98
-3.40
-3.60
-3.55
-3.37
-3.18
-3.09
-3.18
-3.44
-3.88
-4.45
-5.09
-5.70
-6.17
-6.43
-6.45
-6.29
-6.02
-5.73
-5.44
-5.18
-4.94
-4.73
-4.55
-4.40
-4.24
-4.06
-3.86
-3.71
-3.67
-3.77
-4.00
-4.26
-4.48
-4.58
-4.58
-4.52
-4.49
-4.50
-4.57
-4.71
-4.91
-5.22
-5.66
-6.21
-6.82
-7.37
-7.79
-7.98
-7.94
-7.63
-7.07
-6.28
-5.31
-4.23
-3.10
-1.98
-0.94
0.00
0.82
1.50
2.08
2.61
3.15
3.75
4.38
4.99
5.49
5.82
6.02
6.17
6.33
6.55
6.82
7.12
7.40
7.63
7.79
7.85
7.77
7.50
7.04
6.39
5.65
4.92
4.31
3.96
3.94
4.25
4.85
5.67
6.60
7.60
8.67
9.82
11.10
12.49
13.94
15.39
16.74
17.92
18.88
19.57
19.97
20.08
19.87
19.36
18.58
17.57
16.34
14.93
13.32
11.50
9.47
7.24
4.90
2.58
0.43
-1.44
-3.01
-4.32
-5.48
-6.58
-7.69
-8.82
-9.93
-10.96
-11.86
-12.61
-13.19
-13.62
-13.96
-14.24
-14.51
-14.81
-15.15
-15.51
-15.90
-16.32
-16.74
-17.11
-17.39
-17.57
-17.67
-17.77
-17.96
-18.33
-18.86
-19.54
-20.28
-21.00
-21.60
-21.96
-21.96
-21.53
-20.67
-19.49
-18.14
-16.75
-15.32
-13.75
-11.82
-9.37
-6.33
-2.79
1.06
4.99
8.81
12.39
15.64
18.49
20.90
22.85
24.39
25.65
26.78
27.86
28.88
29.65
29.95
29.56
28.41
26.60
24.39
22.14
20.17
18.69
17.76
17.29
17.12
17.06
16.96
16.74
16.37
15.86
15.21
14.43
13.53
12.54
11.49
10.39
9.26
8.09
6.90
5.73
4.64
3.63
2.69
1.78
0.85
-0.12
-1.06
-1.93
-2.70
-3.40
-4.11
-4.88
-5.65
-6.35
-6.84
-7.12
-7.26
-7.40
-7.66
-8.03
-8.37
-8.53
-8.38
-7.97
-7.44
-6.95
-6.60
-6.38
-6.23
-6.07
-5.85
-5.61
-5.38
-5.20
-5.08
-5.00
-5.01
-5.13
-5.42
-5.89
-6.52
-7.21
-7.84
-8.29
-8.54
-8.62
-8.64
-8.71
-8.94
-9.35
-9.93
-10.62
-11.34
-12.02
-12.62
-13.09
-13.43
-13.64
-13.71
-13.57
-13.12
-12.25
-10.84
-8.85
-6.31
-3.31
0.01
3.44
6.74
9.63
11.90
13.42
14.27
14.64
14.81
14.98
15.23
15.45
15.51
15.31
14.87
14.31
13.72
13.12
12.42
11.48
10.23
8.69
7.03
5.45
4.12
3.11
2.37
1.83
1.39
0.96
0.52
0.06
-0.42
-0.88
-1.34
-1.79
-2.31
-2.94
-3.74
-4.65
-5.56
-6.30
-6.77
-6.90
-6.77
-6.47
-6.12
-5.79
-5.54
-5.39
-5.37
-5.50
-5.74
-6.05
-6.34
-6.52
-6.51
-6.30
-5.93
-5.47
-5.00
-4.57
-4.20
-3.88
-3.59
-3.30
-3.00
-2.67
-2.31
-1.97
-1.66
-1.42
-1.24
-1.11
-0.95
-0.69
-0.25
0.39
1.19
1.99
2.62
2.90
2.79
2.36
1.78
1.22
0.78
0.44
0.12
-0.28
-0.81
-1.48
-2.26
-3.11
-4.00
-4.86
-5.63
-6.22
-6.53
-6.52
-6.22
-5.67
-5.00
-4.28
-3.59
-2.96
-2.37
-1.81
-1.26
-0.70
-0.16
0.31
0.68
0.96
1.18
1.37
1.57
1.76
1.92
2.03
2.11
2.21
2.39
2.66
2.94
3.11
3.04
2.70
2.19
1.67
1.33
1.24
1.33
1.49
1.58
1.55
1.40
1.20
0.94
0.58
0.09
-0.52
-1.11
-1.51
-1.58
-1.29
-0.74
-0.09
0.49
0.92
1.21
1.42
1.60
1.75
1.83
1.78
1.57
1.27
1.00
0.91
1.09
1.53
2.11
2.67
3.03
3.10
2.90
2.52
2.09
1.73
1.51
1.44
1.48
1.52
1.48
1.34
1.08
0.77
0.46
0.19
-0.04
-0.28
-0.55
-0.91
-1.36
-1.93
-2.57
-3.21
-3.73
-3.98
-3.83
-3.27
-2.40
-1.40
-0.52
0.09
0.38
0.41
0.31
0.20
0.13
0.08
0.00
-0.12
-0.23
-0.25
-0.12
0.10
0.26
0.18
-0.26
-1.02
-1.89
-2.57
-2.89
-2.78
-2.38
-1.90
-1.51
-1.29
-1.23
-1.24
-1.26
-1.28
-1.31
-1.35
-1.37
-1.31
-1.09
-0.64
0.06
0.95
1.92
2.84
3.58
4.09
4.37
4.47
4.45
4.40
4.38
4.43
4.55
4.70
4.83
4.90
4.88
4.81
4.70
4.53
4.27
3.91
3.44
2.92
2.42
1.96
1.57
1.19
0.80
0.38
-0.04
-0.47
-0.92
-1.42
-1.99
-2.57
-3.07
-3.37
-3.38
-3.08
-2.54
-1.90
-1.28
-0.79
-0.47
-0.27
-0.12
0.07
0.31
0.54
0.65
0.58
0.36
0.13
0.04
0.21
0.59
1.00
1.22
1.12
0.70
0.11
-0.45
-0.84
-1.05
-1.14
-1.25
-1.44
-1.74
-2.10
-2.49
-2.87
-3.26
-3.67
-4.04
-4.34
-4.51
-4.50
-4.30
-3.89
-3.26
-2.45
-1.52
-0.59
0.20
0.73
1.01
1.13
1.23
1.45
1.86
2.41
3.00
3.49
3.80
3.90
3.82
3.64
3.49
3.49
3.78
4.42
5.35
6.43
7.48
8.34
8.94
9.34
9.66
10.04
10.47
10.83
10.83
10.16
8.61
6.16
3.06
-0.21
-3.12
-5.20
-6.16
-6.02
-5.02
-3.58
-2.20
-1.29
-1.05
-1.45
-2.24
-3.02
-3.42
-3.15
-2.14
-0.45
1.73
4.16
6.54
8.58
9.96
10.47
10.05
8.86
7.25
5.70
4.65
4.37
4.94
6.20
7.86
9.57
11.03
12.03
12.53
12.66
12.67
12.89
13.58
14.81
16.42
18.03
19.18
19.53
19.00
17.74
16.02
14.06
11.87
9.36
6.36
2.90
-0.84
-4.53
-7.84
-10.68
-13.13
-15.42
-17.73
-20.11
-22.40
-24.41
-25.96
-27.02
-27.70
-28.19
-28.68
-29.28
-30.04
-30.88
-31.66
-32.16
-32.16
-31.43
-29.93
-27.78
-25.29
-22.86
-20.76
-19.08
-17.67
-16.26
-14.62
-12.72
-10.69
-8.81
-7.31
-6.26
-5.54
-4.92
-4.18
-3.24
-2.14
-1.04
-0.06
0.74
1.39
1.94
2.46
2.93
3.26
3.36
3.15
2.64
1.92
1.15
0.56
0.34
0.61
1.36
2.43
3.62
4.70
5.57
6.27
6.87
7.50
8.13
8.64
8.86
8.67
8.09
7.25
6.35
5.55
4.88
4.26
3.60
2.84
1.99
1.11
0.25
-0.63
-1.59
-2.74
-4.09
-5.58
-7.09
-8.49
-9.69
-10.66
-11.43
-12.00
-12.45
-12.85
-13.28
-13.81
-14.42
-15.03
-15.52
-15.87
-16.10
-16.34
-16.65
-17.04
-17.39
-17.60
-17.67
-17.72
-17.96
-18.55
-19.47
-20.56
-21.58
-22.36
-22.86
-23.18
-23.49
-23.95
-24.65
-25.62
-26.83
-28.18
-29.53
-30.62
-31.16
-30.85
-29.54
-27.29
-24.36
-21.18
-18.20
-15.76
-13.97
-12.75
-11.89
-11.14
-10.31
-9.29
-7.98
-6.23
-3.75
-0.22
4.57
10.55
17.30
24.12
30.35
35.60
39.87
43.46
46.68
49.58
51.93
53.30
53.41
52.26
50.22
47.82
45.50
43.42
41.47
39.32
36.68
33.40
29.56
25.41
21.31
17.55
14.42
12.12
10.74
10.31
10.71
11.70
12.94
14.06
14.76
14.91
14.53
13.76
12.79
11.78
10.83
9.93
9.02
8.01
6.88
5.64
4.38
3.16
2.00
0.89
-0.25
-1.45
-2.67
-3.85
-4.89
-5.73
-6.36
-6.74
-6.82
-6.47
-5.58
-4.10
-2.12
0.16
2.44
4.45
6.02
7.13
7.84
8.30
8.62
8.85
8.98
8.96
8.78
8.50
8.21
8.02
7.94
7.92
7.82
7.54
7.00
6.22
5.29
4.29
3.24
2.12
0.91
-0.36
-1.61
-2.73
-3.65
-4.37
-4.98
-5.57
-6.21
-6.87
-7.48
-7.98
-8.33
-8.54
-8.60
-8.51
-8.23
-7.82
-7.37
-7.01
-6.84
-6.88
-7.02
-7.12
-7.09
-6.90
-6.63
-6.33
-5.96
-5.41
-4.56
-3.38
-1.94
-0.44
0.92
2.01
2.79
3.29
3.60
3.79
3.94
4.13
4.46
4.98
5.74
6.70
7.80
8.92
9.95
10.79
11.39
11.72
11.83
11.78
11.67
11.53
11.32
10.92
10.17
8.97
7.33
5.42
3.47
1.69
0.19
-1.01
-2.01
-2.89
-3.72
-4.53
-5.32
-6.12
-6.92
-7.73
-8.49
-9.08
-9.39
-9.36
-9.00
-8.43
-7.80
-7.25
-6.86
-6.61
-6.43
-6.24
-6.02
-5.79
-5.62
-5.58
-5.66
-5.79
-5.88
-5.86
-5.74
-5.62
-5.62
-5.80
-6.11
-6.43
-6.57
-6.42
-5.90
-5.08
-4.03
-2.89
-1.75
-0.65
0.35
1.21
1.88
2.31
2.48
2.40
2.16
1.87
1.65
1.62
1.83
2.23
2.76
3.28
3.70
3.93
3.96
3.81
3.52
3.16
2.75
2.36
2.01
1.76
1.61
1.53
1.49
1.42
1.30
1.17
1.06
1.01
1.01
0.98
0.84
0.56
0.20
-0.12
-0.28
-0.21
0.03
0.32
0.52
0.53
0.36
0.10
-0.17
-0.40
-0.55
-0.65
-0.71
-0.69
-0.58
-0.36
-0.07
0.22
0.44
0.56
0.60
0.61
0.60
0.56
0.47
0.31
0.12
-0.06
-0.20
-0.30
-0.39
-0.52
-0.68
-0.83
-0.90
-0.84
-0.68
-0.48
-0.33
-0.29
-0.36
-0.49
-0.58
-0.54
-0.35
-0.05
0.26
0.47
0.51
0.42
0.34
0.39
0.65
1.09
1.55
1.83
1.81
1.51
1.07
0.69
0.50
0.53
0.66
0.78
0.77
0.64
0.48
0.40
0.48
0.69
0.93
1.08
1.08
1.00
0.97
1.13
1.53
2.11
2.69
3.12
3.38
3.54
3.77
4.17
4.74
5.36
5.85
6.13
6.27
6.40
6.66
7.08
7.54
7.88
7.97
7.78
7.37
6.87
6.38
5.95
5.60
5.30
5.01
4.66
4.16
3.46
2.54
1.45
0.29
-0.80
-1.73
-2.40
-2.78
-2.89
-2.77
-2.46
-2.05
-1.64
-1.36
-1.27
-1.29
-1.34
-1.42
-1.55
-1.77
-2.18
-2.88
-3.84
-4.90
-5.79
-6.38
-6.75
-7.15
-7.89
-9.20
-11.20
-13.84
-16.93
-19.59
-20.94
-20.54
-18.56
-15.45
-11.49
-6.91
-2.00
2.72
6.53
9.07
10.15
9.97
8.99
7.74
6.51
5.32
3.96
2.39
0.62
-1.21
-2.89
-4.17
-4.88
-4.96
-4.45
-3.43
-2.03
-0.56
0.52
0.71
-0.30
-2.46
-5.43
-8.60
-11.37
-13.34
-14.39
-14.70
-14.50
-13.97
-13.18
-12.11
-10.72
-9.06
-7.24
-5.41
-3.69
-2.10
-0.56
1.07
2.86
4.82
6.74
8.37
9.45
9.84
9.67
9.23
8.86
8.83
9.28
10.16
11.34
12.60
13.61
13.99
13.35
11.48
8.48
4.77
0.97
-2.34
-4.86
-6.63
-7.87
-8.79
-9.44
-9.71
-9.46
-8.68
-7.55
-6.42
-5.65
-5.46
-5.88
-6.73
-7.76
-8.74
-9.56
-10.27
-11.02
-11.92
-12.97
-13.97
-14.64
-14.70
-14.00
-12.63
-10.83
-8.89
-7.06
-5.44
-3.98
-2.61
-1.23
0.15
1.50
2.78
3.94
5.00
5.96
6.86
7.71
8.47
9.10
9.56
9.85
9.98
10.01
9.99
9.97
9.95
9.89
9.76
9.51
9.12
8.59
7.94
7.22
6.44
5.62
4.79
3.93
3.03
2.10
1.15
0.22
-0.59
-1.21
-1.58
-1.72
-1.71
-1.69
-1.76
-1.97
-2.27
-2.61
-2.95
-3.25
-3.51
-3.71
-3.77
-3.61
-3.14
-2.36
-1.33
-0.22
0.82
1.65
2.26
2.70
3.07
3.43
3.82
4.15
4.35
4.38
4.27
4.14
4.13
4.33
4.74
5.27
5.81
6.28
6.65
6.97
7.28
7.59
7.88
8.15
8.37
8.55
8.66
8.68
8.67
8.64
8.65
8.72
8.88
9.14
9.44
9.72
9.89
9.91
9.68
9.13
8.20
7.04
5.96
5.34
5.50
6.57
8.44
10.60
12.37
13.12
12.53
10.68
7.91
4.64
0.97
-2.66
-5.82
-8.16
-9.45
-9.97
-9.70
-8.64
-7.07
-5.50
-4.19
-3.53
-3.67
-4.52
-5.78
-7.11
-8.34
-9.47
-10.55
-11.51
-12.29
-12.82
-13.05
-13.03
-12.86
-12.66
-12.53
-12.43
-12.27
-11.97
-11.56
-11.13
-10.83
-10.75
-10.88
-11.14
-11.30
-11.13
-10.52
-9.50
-8.27
-7.05
-5.99
-5.19
-4.68
-4.40
-4.30
-4.34
-4.48
-4.67
-4.85
-4.93
-4.90
-4.78
-4.63
-4.52
-4.51
-4.63
-4.90
-5.28
-5.65
-5.93
-5.98
-5.69
-5.02
-3.99
-2.75
-1.56
-0.65
-0.12
-0.01
-0.33
-1.03
-2.10
-3.45
-4.98
-6.53
-7.79
-8.42
-8.30
-7.55
-6.49
-5.43
-4.53
-3.77
-3.00
-1.83
0.12
3.05
6.98
11.72
17.05
22.72
28.52
33.24
35.61
34.98
31.76
27.03
21.72
16.39
11.37
6.85
2.86
-0.55
-3.30
-5.73
-8.12
-10.59
-13.01
-15.04
-16.35
-16.83
-16.53
-15.61
-14.42
-13.25
-12.46
-12.25
-12.62
-13.44
-14.56
-15.69
-16.49
-16.65
-15.84
-13.85
-10.62
-6.28
-1.25
3.88
8.51
12.17
14.65
16.02
16.48
16.31
15.73
14.87
13.81
12.62
11.37
10.10
8.82
7.52
6.18
4.86
3.68
2.78
2.26
2.12
2.27
2.56
2.89
3.21
3.52
3.82
4.17
4.55
4.96
5.37
5.75
6.05
6.25
6.31
6.26
6.15
6.06
6.05
6.16
6.35
6.50
6.46
6.12
5.45
4.53
3.52
2.53
1.65
0.83
0.04
-0.70
-1.29
-1.52
-1.21
-0.25
1.35
3.46
5.89
8.43
10.91
13.22
15.29
17.10
18.64
19.90
20.78
21.19
21.07
20.41
19.31
17.86
16.16
14.23
12.03
9.50
6.65
3.59
0.47
-2.56
-5.41
-8.01
-10.31
-12.23
-13.73
-14.83
-15.61
-16.23
-16.92
-17.95
-19.52
-21.72
-24.46
-27.47
-30.30
-32.39
-33.21
-32.49
-30.23
-26.62
-21.94
-16.44
-10.33
-3.89
2.52
8.43
13.27
16.57
18.10
17.95
16.45
13.96
10.76
6.97
3.06
-0.31
-2.72
-4.17
-4.96
-5.40
-5.71
-6.34
-7.23
-8.23
-9.24
-10.18
-11.00
-11.71
-12.40
-12.84
-13.11
-13.18
-13.05
-12.70
-12.17
-11.54
-10.86
-10.07
-9.00
-7.46
-5.21
-2.27
1.10
4.39
7.13
8.97
9.89
10.08
9.78
9.27
8.72
8.23
7.79
7.41
7.11
6.93
6.89
6.95
7.01
6.97
6.71
6.18
5.38
4.41
3.41
2.52
1.83
1.40
1.21
1.18
1.20
1.13
0.88
0.44
-0.12
-0.67
-1.10
-1.38
-1.60
-1.89
-2.35
-2.97
-3.66
-4.27
-4.72
-5.01
-5.17
-5.27
-5.32
-5.30
-5.17
-4.94
-4.64
-4.38
-4.22
-4.19
-4.24
-4.22
-4.00
-3.47
-2.57
-1.33
0.18
1.87
3.66
5.52
7.45
9.50
11.71
14.15
16.87
19.94
23.37
27.14
31.17
35.34
39.55
43.74
47.83
51.78
55.44
58.63
61.10
62.61
63.06
62.50
61.18
59.36
57.25
54.81
51.80
47.83
42.50
35.58
27.09
17.30
6.68
-4.18
-14.66
-24.13
-32.15
-38.53
-43.43
-47.20
-50.28
-52.95
-55.21
-56.79
-57.31
-56.41
-53.97
-50.13
-45.25
-39.82
-34.29
-29.01
-24.18
-19.90
-16.25
-13.34
-11.29
-10.15
-9.83
-10.07
-10.48
-10.71
-10.60
-10.21
-9.78
-9.59
-9.88
-10.69
-11.95
-13.47
-15.08
-16.63
-18.03
-19.23
-20.16
-20.67
-20.60
-19.83
-18.40
-16.49
-14.40
-12.44
-10.78
-9.44
-8.36
-7.44
-6.61
-5.77
-4.77
-3.32
-1.10
2.11
6.32
11.18
15.99
19.80
21.57
20.52
16.29
9.15
-0.02
-9.85
-18.86
-25.79
-29.86
-30.90
-29.32
-25.94
-21.72
-17.61
-14.30
-12.16
-11.19
-11.04
-11.16
-11.02
-10.19
-8.53
-6.18
-3.49
-0.87
1.30
2.83
3.73
4.19
4.44
4.74
5.29
6.16
7.33
8.70
10.04
11.12
11.75
11.81
11.33
10.47
9.41
8.33
7.35
6.49
5.74
5.10
4.58
4.21
3.99
3.87
3.80
3.70
3.53
3.30
3.04
2.76
2.50
2.23
1.91
1.48
0.93
0.28
-0.45
-1.21
-1.98
-2.76
-3.56
-4.38
-5.14
-5.80
-6.31
-6.65
-6.85
-6.98
-7.07
-7.14
-7.13
-6.95
-6.48
-5.65
-4.44
-2.90
-1.17
0.56
2.12
3.39
4.35
5.01
5.45
5.74
5.95
6.17
6.44
6.78
7.16
7.47
7.63
7.55
7.28
6.91
6.54
6.24
5.95
5.60
5.10
4.45
3.69
2.89
2.13
1.44
0.83
0.32
-0.08
-0.37
-0.55
-0.67
-0.76
-0.84
-0.90
-0.90
-0.85
-0.77
-0.73
-0.80
-0.96
-1.11
-1.00
-0.41
0.81
2.54
4.45
6.08
7.05
7.20
6.67
5.80
4.97
4.48
4.45
4.85
5.53
6.28
6.78
6.73
5.88
4.19
1.88
-0.67
-3.02
-4.87
-6.14
-6.90
-7.27
-7.32
-7.05
-6.46
-5.62
-4.70
-3.89
-3.38
-3.22
-3.36
-3.66
-3.93
-3.92
-3.44
-2.42
-0.95
0.64
1.95
2.62
2.52
1.83
0.93
0.18
-0.17
-0.17
-0.00
0.11
0.05
-0.20
-0.57
-1.01
-1.47
-1.89
-2.11
-1.91
-1.05
0.57
2.87
5.50
8.05
10.10
11.38
11.87
11.70
11.17
10.52
9.97
9.57
9.31
9.07
8.73
8.20
7.49
6.67
5.84
5.12
4.56
4.11
3.70
3.25
2.73
2.15
1.52
0.84
0.09
-0.72
-1.50
-2.13
-2.48
-2.50
-2.27
-1.96
-1.72
-1.58
-1.43
-1.09
-0.45
0.47
1.47
2.30
2.78
2.89
2.74
2.56
2.50
2.61
2.82
2.97
2.93
2.62
2.03
1.23
0.30
-0.70
-1.70
-2.61
-3.37
-3.92
-4.25
-4.42
-4.53
-4.67
-4.86
-5.05
-5.08
-4.84
-4.26
-3.39
-2.37
-1.37
-0.50
0.25
0.94
1.68
2.50
3.39
4.26
5.05
5.76
6.40
6.95
7.35
7.47
7.21
6.55
5.57
4.45
3.35
2.38
1.49
0.60
-0.42
-1.60
-2.91
-4.22
-5.38
-6.25
-6.78
-7.00
-6.97
-6.76
-6.41
-5.94
-5.36
-4.71
-4.07
-3.51
-3.08
-2.72
-2.34
-1.85
-1.22
-0.52
0.12
0.64
1.03
1.37
1.74
2.16
2.59
2.91
3.05
2.99
2.78
2.50
2.24
2.06
1.96
1.94
2.01
2.15
2.39
2.68
2.94
3.10
3.08
2.86
2.49
2.09
1.77
1.58
1.47
1.33
1.00
0.41
-0.41
-1.32
-2.12
-2.62
-2.73
-2.53
-2.19
-1.96
-2.03
-2.44
-3.09
-3.74
-4.14
-4.17
-3.88
-3.42
-3.03
-2.85
-2.92
-3.17
-3.47
-3.66
-3.66
-3.42
-2.92
-2.21
-1.37
-0.55
0.06
0.32
0.17
-0.30
-0.82
-1.03
-0.62
0.53
2.27
4.28
6.12
7.44
8.09
8.10
7.64
6.87
5.93
4.87
3.73
2.60
1.60
0.87
0.49
0.46
0.67
0.97
1.21
1.32
1.28
1.12
0.90
0.67
0.42
0.15
-0.14
-0.46
-0.78
-1.12
-1.46
-1.81
-2.16
-2.48
-2.74
-2.90
-2.96
-2.91
-2.77
-2.53
-2.21
-1.82
-1.42
-1.10
-0.96
-1.08
-1.44
-1.94
-2.43
-2.73
-2.77
-2.52
-2.07
-1.52
-1.00
-0.60
-0.34
-0.21
-0.15
-0.12
-0.07
0.02
0.16
0.33
0.48
0.56
0.50
0.27
-0.08
-0.40
-0.54
-0.40
0.01
0.55
1.01
1.25
1.28
1.25
1.38
1.86
2.68
3.67
4.52
4.88
4.47
3.21
1.27
-0.87
-2.51
-2.91
-1.62
1.32
5.34
9.49
12.82
14.72
15.11
14.38
13.15
11.92
10.93
10.15
9.40
8.52
7.45
6.25
4.98
3.70
2.38
1.01
-0.42
-1.87
-3.29
-4.62
-5.83
-6.93
-7.94
-8.87
-9.68
-10.36
-10.84
-11.06
-10.98
-10.58
-9.86
-8.89
-7.82
-6.79
-5.95
-5.43
-5.24
-5.35
-5.61
-5.87
-5.98
-5.88
-5.67
-5.57
-5.84
-6.73
-8.30
-10.42
-12.76
-14.82
-16.04
-15.97
-14.35
-11.31
-7.30
-3.06
0.65
3.29
4.68
4.99
4.63
3.98
3.28
2.60
1.94
1.32
0.82
0.51
0.37
0.25
-0.02
-0.53
-1.21
-1.82
-2.10
-1.93
-1.36
-0.65
-0.09
0.12
-0.10
-0.69
-1.49
-2.34
-3.07
-3.53
-3.69
-3.58
-3.32
-3.06
-2.87
-2.72
-2.52
-2.21
-1.79
-1.41
-1.26
-1.54
-2.31
-3.47
-4.78
-5.92
-6.57
-6.48
-5.53
-3.80
-1.53
0.96
3.29
5.18
6.47
7.11
7.17
6.70
5.74
4.34
2.56
0.57
-1.36
-2.91
-3.79
-3.87
-3.23
-2.14
-0.91
0.15
0.91
1.40
1.76
2.16
2.70
3.41
4.26
5.15
5.98
6.64
7.03
7.10
6.85
6.36
5.76
5.19
4.79
4.58
4.55
4.62
4.70
4.71
4.60
4.41
4.16
3.90
3.64
3.34
2.95
2.45
1.88
1.35
0.99
0.89
1.09
1.53
2.10
2.63
2.97
2.97
2.59
1.89
0.96
-0.06
-1.17
-2.44
-4.04
-6.12
-8.65
-11.43
-14.11
-16.32
-17.84
-18.61
-18.66
-18.05
-16.83
-15.07
-12.90
-10.56
-8.24
-6.07
-3.99
-1.79
0.68
3.43
6.21
8.65
10.37
11.19
11.14
10.48
9.50
8.45
7.52
6.80
6.34
6.19
6.35
6.78
7.39
8.03
8.59
9.05
9.43
9.85
10.39
11.08
11.81
12.39
12.58
12.23
11.30
9.94
8.38
6.90
5.68
4.79
4.19
3.80
3.50
3.21
2.89
2.51
2.04
1.54
1.06
0.67
0.42
0.27
0.11
-0.16
-0.63
-1.23
-1.83
-2.22
-2.24
-1.86
-1.17
-0.34
0.41
0.91
1.09
0.97
0.64
0.25
-0.09
-0.30
-0.41
-0.49
-0.65
-0.96
-1.40
-1.90
-2.39
-2.80
-3.17
-3.52
-3.91
-4.31
-4.68
-4.95
-5.15
-5.34
-5.63
-6.10
-6.72
-7.41
-8.07
-8.58
-8.90
-8.98
-8.76
-8.17
-7.18
-5.81
-4.17
-2.46
-0.87
0.45
1.47
2.21
2.77
3.26
3.76
4.32
4.94
5.55
6.11
6.53
6.79
6.91
6.93
6.87
6.75
6.57
6.35
6.19
6.25
6.66
7.49
8.67
10.03
11.37
12.54
13.43
14.01
14.27
14.21
13.79
12.96
11.73
10.12
8.23
6.17
4.07
1.98
-0.05
-1.97
-3.69
-5.12
-6.17
-6.86
-7.29
-7.67
-8.20
-8.99
-10.03
-11.21
-12.36
-13.35
-14.09
-14.54
-14.73
-14.69
-14.52
-14.32
-14.18
-14.15
-14.20
-14.27
-14.32
-14.40
-14.66
-15.27
-16.31
-17.62
-18.81
-19.33
-18.65
-16.50
-13.02
-8.75
-4.47
-0.92
1.46
2.68
3.19
3.57
4.30
5.51
6.98
8.22
8.82
8.58
7.59
6.11
4.39
2.66
1.23
0.58
1.23
3.44
6.84
10.44
13.00
13.67
12.52
10.54
9.07
9.03
10.39
12.36
13.97
14.80
15.22
16.10
18.11
21.25
24.80
27.82
29.79
31.00
32.44
35.29
40.20
46.81
53.89
59.76
63.11
63.56
61.78
58.93
55.79
52.26
47.28
39.55
28.36
14.08
-2.09
-18.78
-35.18
-51.06
-66.32
-80.32
-91.61
-98.45
-99.75
-95.79
-88.21
-79.22
-70.46
-62.45
-54.62
-46.12
-36.57
-26.41
-16.65
-8.24
-1.57
3.62
7.90
11.74
15.20
17.92
19.40
19.32
17.78
15.25
12.43
9.94
8.12
6.95
6.16
5.47
4.71
3.94
3.34
3.05
3.04
3.09
2.88
2.18
0.91
-0.76
-2.57
-4.27
-5.69
-6.84
-7.82
-8.82
-9.99
-11.42
-13.14
-15.05
-16.90
-18.36
-19.03
-18.55
-16.69
-13.45
-9.08
-4.01
1.20
5.95
9.76
12.30
13.46
13.33
12.18
10.33
8.20
6.16
4.61
3.84
4.01
5.09
6.79
8.66
10.15
10.82
10.53
9.39
7.77
6.08
4.63
3.55
2.83
2.36
2.05
1.88
1.86
1.96
2.12
2.21
2.10
1.73
1.11
0.36
-0.37
-0.95
-1.32
-1.51
-1.60
-1.69
-1.88
-2.24
-2.80
-3.47
-4.10
-4.48
-4.41
-3.81
-2.73
-1.38
-0.05
0.96
1.44
1.30
0.60
-0.44
-1.60
-2.64
-3.46
-4.03
-4.40
-4.63
-4.75
-4.77
-4.74
-4.73
-4.83
-5.10
-5.52
-5.99
-6.36
-6.49
-6.33
-5.92
-5.34
-4.68
-4.02
-3.36
-2.69
-1.96
-1.11
-0.15
0.86
1.77
2.47
2.86
2.95
2.83
2.63
2.46
2.37
2.36
2.40
2.44
2.45
2.38
2.20
1.91
1.62
1.43
1.49
1.85
2.44
3.13
3.76
4.22
4.50
4.62
4.65
4.59
4.45
4.22
3.90
3.54
3.20
2.91
2.71
2.59
2.55
2.56
2.56
2.50
2.29
1.89
1.29
0.57
-0.20
-0.94
-1.60
-2.18
-2.72
-3.28
-3.89
-4.61
-5.44
-6.33
-7.13
-7.66
-7.72
-7.21
-6.15
-4.72
-3.18
-1.76
-0.62
0.19
0.70
1.01
1.18
1.24
1.22
1.11
0.92
0.67
0.38
0.10
-0.11
-0.22
-0.23
-0.20
-0.21
-0.34
-0.61
-1.02
-1.51
-2.05
-2.63
-3.28
-4.08
-5.11
-6.41
-7.99
-9.76
-11.56
-13.20
-14.48
-15.26
-15.46
-15.07
-14.14
-12.79
-11.14
-9.32
-7.47
-5.74
-4.19
-2.86
-1.74
-0.73
0.26
1.31
2.47
3.70
4.95
6.12
7.15
8.07
8.96
9.93
11.05
12.28
13.44
14.28
14.54
14.10
13.00
11.47
9.82
8.33
7.14
6.25
5.58
5.06
4.68
4.48
4.52
4.75
5.06
5.33
5.45
5.39
5.21
4.94
4.64
4.29
3.86
3.37
2.87
2.45
2.19
2.12
2.23
2.43
2.61
2.62
2.36
1.85
1.19
0.59
0.22
0.15
0.28
0.43
0.38
0.04
-0.57
-1.30
-1.97
-2.46
-2.70
-2.66
-2.36
-1.82
-1.12
-0.38
0.23
0.60
0.66
0.45
0.04
-0.42
-0.84
-1.19
-1.43
-1.57
-1.58
-1.43
-1.11
-0.64
-0.11
0.39
0.72
0.82
0.67
0.34
-0.08
-0.49
-0.84
-1.15
-1.41
-1.64
-1.79
-1.82
-1.68
-1.32
-0.76
-0.04
0.77
1.55
2.21
2.65
2.80
2.65
2.27
1.76
1.24
0.81
0.54
0.42
0.40
0.42
0.42
0.38
0.29
0.14
-0.07
-0.38
-0.77
-1.22
-1.66
-2.04
-2.32
-2.57
-2.86
-3.26
-3.80
-4.36
-4.81
-5.00
-4.86
-4.41
-3.76
-3.01
-2.30
-1.73
-1.37
-1.21
-1.22
-1.31
-1.37
-1.33
-1.20
-1.02
-0.82
-0.63
-0.42
-0.14
0.20
0.55
0.85
1.03
1.09
1.08
1.06
1.07
1.11
1.18
1.27
1.34
1.30
1.07
0.56
-0.19
-1.04
-1.75
-2.08
-1.93
-1.33
-0.49
0.34
0.96
1.28
1.29
1.06
0.69
0.23
-0.26
-0.72
-1.12
-1.45
-1.68
-1.82
-1.86
-1.77
-1.55
-1.21
-0.80
-0.42
-0.17
-0.11
-0.23
-0.47
-0.74
-0.99
-1.23
-1.49
-1.83
-2.25
-2.71
-3.15
-3.50
-3.75
-3.87
-3.84
-3.61
-3.11
-2.32
-1.32
-0.27
0.65
1.25
1.45
1.31
0.98
0.65
0.48
0.57
0.90
1.36
1.82
2.13
2.22
2.05
1.68
1.16
0.59
0.06
-0.36
-0.62
-0.75
-0.82
-0.93
-1.16
-1.50
-1.84
-2.05
-2.04
-1.80
-1.40
-0.95
-0.52
-0.14
0.23
0.64
1.06
1.43
1.69
1.81
1.84
1.88
2.02
2.27
2.56
2.80
2.90
2.87
2.76
2.64
2.56
2.53
2.49
2.37
2.14
1.83
1.48
1.17
0.95
0.83
0.75
0.61
0.30
-0.18
-0.74
-1.21
-1.40
-1.20
-0.62
0.20
1.06
1.83
2.40
2.78
3.02
3.16
3.24
3.28
3.26
3.15
2.96
2.73
2.53
2.44
2.50
2.68
2.91
3.08
3.14
3.09
2.97
2.85
2.73
2.60
2.44
2.22
1.98
1.76
1.60
1.51
1.41
1.23
0.90
0.46
0.00
-0.33
-0.40
-0.16
0.33
0.93
1.53
2.05
2.48
2.83
3.10
3.20
3.08
2.69
2.13
1.58
1.26
1.31
1.73
2.36
2.96
3.34
3.41
3.23
2.93
2.62
2.36
2.11
1.82
1.44
0.99
0.53
0.11
-0.26
-0.60
-0.94
-1.30
-1.64
-1.93
-2.19
-2.46
-2.80
-3.22
-3.65
-3.94
-3.93
-3.53
-2.78
-1.87
-1.06
-0.56
-0.42
-0.53
-0.70
-0.76
-0.68
-0.55
-0.50
-0.62
-0.84
-1.01
-1.00
-0.79
-0.49
-0.30
-0.38
-0.71
-1.16
-1.54
-1.71
-1.68
-1.60
-1.64
-1.94
-2.54
-3.36
-4.24
-5.04
-5.66
-6.06
-6.26
-6.26
-6.04
-5.57
-4.86
-3.98
-3.10
-2.36
-1.87
-1.62
-1.48
-1.35
-1.17
-1.00
-0.92
-0.99
-1.15
-1.25
-1.14
-0.77
-0.20
0.35
0.67
0.66
0.36
-0.08
-0.46
-0.67
-0.70
-0.63
-0.60
-0.70
-0.99
-1.46
-2.07
-2.77
-3.48
-4.06
-4.35
-4.21
-3.59
-2.60
-1.46
-0.39
0.41
0.91
1.19
1.37
1.53
1.67
1.73
1.65
1.49
1.35
1.38
1.65
2.09
2.54
2.83
2.87
2.69
2.39
2.12
1.92
1.81
1.74
1.62
1.41
1.04
0.50
-0.24
-1.11
-1.99
-2.68
-3.02
-2.96
-2.55
-1.95
-1.33
-0.81
-0.40
-0.08
0.20
0.46
0.65
0.73
0.67
0.50
0.30
0.16
0.12
0.18
0.30
0.43
0.54
0.56
0.47
0.21
-0.22
-0.75
-1.25
-1.55
-1.55
-1.28
-0.91
-0.67
-0.75
-1.22
-1.99
-2.82
-3.45
-3.70
-3.54
-3.02
-2.29
-1.48
-0.68
0.04
0.64
1.09
1.39
1.60
1.77
1.97
2.22
2.49
2.71
2.85
2.89
2.87
2.79
2.63
2.32
1.84
1.25
0.65
0.20
-0.01
0.00
0.12
0.15
-0.08
-0.68
-1.58
-2.63
-3.57
-4.18
-4.31
-3.94
-3.24
-2.42
-1.73
-1.27
-1.06
-0.98
-0.91
-0.75
-0.47
-0.18
0.02
0.08
0.07
0.10
0.26
0.58
1.14
1.89
2.74
3.59
4.36
5.06
5.72
6.38
7.06
7.88
8.87
9.85
10.59
10.86
10.69
10.30
10.06
10.37
11.76
14.35
17.81
21.37
24.21
25.69
25.47
23.54
19.03
12.11
3.96
-3.78
-9.95
-14.44
-17.75
-20.18
-21.89
-23.03
-23.20
-22.39
-20.89
-19.12
-17.45
-16.01
-14.78
-13.73
-12.83
-11.97
-11.10
-10.26
-9.51
-8.90
-8.41
-8.00
-7.67
-7.42
-7.13
-6.72
-6.19
-5.59
-5.00
-4.45
-3.95
-3.53
-3.23
-3.00
-2.81
-2.62
-2.41
-2.19
-2.00
-1.87
-1.84
-1.83
-1.70
-1.34
-0.74
-0.07
0.40
0.46
0.03
-0.69
-1.38
-1.65
-1.24
-0.15
1.45
3.25
4.95
6.35
7.36
8.01
8.37
8.52
8.58
8.61
8.73
8.97
9.35
9.79
10.17
10.33
10.18
9.69
8.89
7.87
6.75
5.60
4.45
3.28
2.05
0.77
-0.53
-1.73
-2.70
-3.33
-3.60
-3.58
-3.34
-2.98
-2.56
-2.07
-1.54
-1.03
-0.61
-0.31
-0.13
-0.00
0.13
0.25
0.32
0.23
-0.03
-0.42
-0.83
-1.14
-1.32
-1.40
-1.49
-1.69
-2.02
-2.46
-2.95
-3.47
-4.03
-4.65
-5.30
-5.86
-6.15
-6.01
-5.36
-4.32
-3.15
-2.16
-1.57
-1.48
-1.81
-2.38
-3.01
-3.51
-3.79
-3.80
-3.58
-3.21
-2.79
-2.42
-2.15
-1.92
-1.65
-1.21
-0.54
0.38
1.45
2.48
3.28
3.66
3.51
2.88
1.93
0.96
0.26
0.09
0.49
1.36
2.46
3.55
4.43
5.06
5.47
5.74
5.94
6.05
6.01
5.80
5.44
5.06
4.82
4.84
5.14
5.63
6.16
6.63
6.98
7.25
7.48
7.70
7.87
7.88
7.63
7.07
6.20
5.10
3.88
2.70
1.70
1.00
0.61
0.48
0.53
0.69
0.97
1.38
1.89
2.44
2.91
3.14
3.09
2.78
2.37
2.02
1.87
1.91
2.04
2.09
1.91
1.47
0.80
0.06
-0.62
-1.11
-1.38
-1.44
-1.31
-1.02
-0.58
-0.07
0.36
0.48
0.07
-0.94
-2.44
-4.11
-5.55
-6.41
-6.56
-6.02
-4.99
-3.68
-2.24
-0.73
0.82
2.35
3.76
4.86
5.54
5.74
5.54
5.14
4.77
4.62
4.75
5.07
5.43
5.67
5.70
5.60
5.49
5.55
5.79
6.15
6.46
6.60
6.57
6.47
6.45
6.57
6.79
6.96
6.98
6.82
6.56
6.27
5.91
5.35
4.41
3.03
1.38
-0.20
-1.33
-1.76
-1.52
-0.92
-0.43
-0.49
-1.33
-2.90
-4.83
-6.61
-7.74
-7.89
-7.02
-5.30
-3.07
-0.70
1.45
3.08
3.92
3.75
2.50
0.36
-2.22
-4.63
-6.31
-6.97
-6.70
-5.92
-5.11
-4.59
-4.41
-4.37
-4.25
-3.97
-3.66
-3.60
-4.03
-5.01
-6.43
-8.12
-9.97
-12.07
-14.53
-17.41
-20.51
-23.40
-25.56
-26.64
-26.58
-25.71
-24.50
-23.35
-22.39
-21.44
-20.12
-18.14
-15.44
-12.22
-8.87
-5.76
-3.11
-0.95
0.78
2.16
3.24
4.11
4.93
5.94
7.39
9.40
11.82
14.28
16.28
17.39
17.39
16.28
14.25
11.51
8.26
4.66
0.89
-2.82
-6.15
-8.82
-10.65
-11.61
-11.85
-11.61
-11.13
-10.54
-9.87
-9.04
-7.97
-6.59
-4.89
-2.88
-0.60
1.92
4.56
7.16
9.48
11.28
12.49
13.19
13.69
14.32
15.32
16.71
18.25
19.63
20.55
20.85
20.53
19.64
18.29
16.54
14.46
12.12
9.63
7.09
4.56
2.06
-0.39
-2.75
-4.95
-6.92
-8.58
-9.90
-10.89
-11.52
-11.79
-11.66
-11.14
-10.29
-9.30
-8.40
-7.84
-7.74
-8.06
-8.58
-9.02
-9.13
-8.79
-8.11
-7.31
-6.68
-6.44
-6.67
-7.32
-8.26
-9.29
-10.19
-10.81
-11.01
-10.77
-10.19
-9.47
-8.82
-8.40
-8.21
-8.09
-7.83
-7.22
-6.27
-5.16
-4.19
-3.71
-3.92
-4.83
-6.24
-7.75
-8.80
-8.86
-7.47
-4.45
0.03
5.44
11.06
16.14
20.19
23.00
24.67
25.48
25.66
25.37
24.63
23.41
21.74
19.73
17.54
15.32
13.15
11.06
9.03
7.09
5.28
3.66
2.23
0.91
-0.44
-1.89
-3.39
-4.73
-5.63
-5.85
-5.34
-4.24
-2.86
-1.54
-0.50
0.24
0.82
1.45
2.31
3.43
4.68
5.85
6.75
7.24
7.29
6.95
6.30
5.40
4.33
3.19
2.09
1.15
0.52
0.29
0.51
1.22
2.32
3.58
4.60
4.84
3.85
1.41
-2.27
-6.52
-10.42
-13.09
-14.02
-13.30
-11.52
-9.48
-7.90
-7.08
-6.85
-6.75
-6.33
-5.36
-3.93
-2.39
-1.18
-0.86
-2.01
-5.26
-11.02
-19.28
-29.36
-39.96
-49.53
-56.85
-61.50
-63.87
-64.78
-64.87
-64.17
-62.19
-58.35
-52.55
-45.39
-37.92
-31.11
-25.32
-20.22
-14.94
-8.65
-0.95
8.01
17.65
27.28
36.29
44.29
51.04
56.44
60.47
63.24
64.97
66.04
66.96
68.19
69.90
71.80
73.02
72.40
68.99
62.56
53.81
44.22
35.41
28.48
23.67
20.46
18.01
15.59
12.88
9.86
6.73
3.66
0.85
-1.49
-3.13
-3.93
-4.00
-3.66
-3.35
-3.42
-4.04
-5.14
-6.49
-7.89
-9.11
-10.01
-10.48
-10.46
-9.99
-9.27
-8.56
-8.16
-8.23
-8.76
-9.56
-10.38
-11.03
-11.43
-11.65
-11.83
-12.10
-12.54
-13.14
-13.84
-14.60
-15.42
-16.33
-17.35
-18.45
-19.61
-20.79
-22.01
-23.30
-24.66
-26.02
-27.18
-27.89
-27.94
-27.31
-26.17
-24.79
-23.41
-22.13
-20.87
-19.47
-17.77
-15.68
-13.23
-10.52
-7.64
-4.68
-1.76
1.02
3.57
5.85
7.91
9.83
11.73
13.65
15.58
17.50
19.35
21.09
22.62
23.82
24.52
24.61
24.07
23.01
21.69
20.37
19.30
18.64
18.41
18.52
18.81
19.09
19.17
18.93
18.34
17.47
16.44
15.37
14.36
13.51
12.88
12.53
12.50
12.81
13.36
14.05
14.73
15.32
15.83
16.33
16.87
17.49
18.12
18.67
19.05
19.18
19.04
18.62
17.91
16.94
15.75
14.45
13.14
11.92
10.81
9.77
8.71
7.53
6.13
4.43
2.42
0.13
-2.33
-4.79
-7.08
-9.06
-10.68
-11.99
-13.07
-14.05
-15.00
-15.94
-16.86
-17.72
-18.48
-19.10
-19.56
-19.89
-20.06
-20.06
-19.82
-19.34
-18.61
-17.74
-16.82
-15.94
-15.10
-14.25
-13.33
-12.28
-11.11
-9.87
-8.62
-7.42
-6.32
-5.33
-4.48
-3.74
-3.06
-2.38
-1.69
-1.01
-0.40
0.08
0.42
0.69
0.97
1.30
1.68
2.03
2.26
2.32
2.19
1.89
1.48
1.00
0.47
-0.10
-0.68
-1.25
-1.79
-2.25
-2.64
-2.95
-3.18
-3.32
-3.37
-3.33
-3.24
-3.19
-3.23
-3.40
-3.64
-3.85
-3.92
-3.82
-3.63
-3.48
-3.48
-3.64
-3.84
-3.90
-3.71
-3.27
-2.75
-2.37
-2.29
-2.52
-2.93
-3.28
-3.35
-3.03
-2.36
-1.46
-0.50
0.34
0.97
1.32
1.40
1.28
1.05
0.82
0.66
0.59
0.54
0.45
0.27
0.01
-0.31
-0.66
-1.02
-1.42
-1.85
-2.27
-2.61
-2.78
-2.75
-2.56
-2.30
-2.09
-2.01
-2.08
-2.24
-2.43
-2.61
-2.79
-3.01
-3.30
-3.64
-3.92
-4.01
-3.88
-3.57
-3.23
-3.00
-2.92
-2.87
-2.67
-2.23
-1.56
-0.87
-0.36
-0.15
-0.18
-0.27
-0.26
-0.11
0.08
0.20
0.19
0.09
-0.02
-0.08
-0.14
-0.32
-0.69
-1.25
-1.90
-2.50
-2.94
-3.17
-3.19
-2.99
-2.53
-1.79
-0.80
0.30
1.29
1.94
2.09
1.76
1.10
0.34
-0.24
-0.45
-0.15
0.70
2.03
3.69
5.45
7.03
8.24
8.98
9.32
9.36
9.21
8.90
8.40
7.66
6.74
5.78
4.93
4.28
3.77
3.26
2.59
1.69
0.62
-0.50
-1.50
-2.30
-2.92
-3.41
-3.86
-4.33
-4.83
-5.34
-5.80
-6.14
-6.32
-6.28
-6.07
-5.76
-5.48
-5.35
-5.46
-5.75
-6.08
-6.22
-5.92
-5.08
-3.74
-2.13
-0.58
0.64
1.37
1.64
1.58
1.37
1.19
1.11
1.16
1.32
1.57
1.88
2.22
2.51
2.69
2.65
2.40
1.96
1.44
0.97
0.62
0.39
0.19
-0.07
-0.48
-1.03
-1.62
-2.14
-2.51
-2.71
-2.78
-2.74
-2.56
-2.20
-1.61
-0.80
0.14
1.10
1.93
2.56
2.95
3.12
3.16
3.11
3.04
2.98
2.96
2.97
3.04
3.18
3.41
3.71
4.01
4.22
4.20
3.91
3.38
2.72
2.05
1.45
0.90
0.35
-0.24
-0.85
-1.42
-1.88
-2.20
-2.44
-2.68
-2.98
-3.32
-3.62
-3.75
-3.65
-3.30
-2.78
-2.22
-1.78
-1.55
-1.52
-1.61
-1.66
-1.54
-1.18
-0.58
0.17
1.00
1.83
2.56
3.13
3.50
3.66
3.65
3.57
3.49
3.44
3.39
3.27
3.03
2.66
2.24
1.83
1.52
1.28
1.07
0.81
0.44
-0.08
-0.76
-1.55
-2.38
-3.14
-3.71
-3.99
-3.95
-3.63
-3.13
-2.60
-2.12
-1.75
-1.46
-1.20
-0.94
-0.67
-0.43
-0.24
-0.14
-0.13
-0.16
-0.15
-0.00
0.37
1.01
1.83
2.71
3.48
4.01
4.26
4.27
4.12
3.88
3.59
3.24
2.85
2.49
2.20
2.03
1.94
1.86
1.69
1.42
1.10
0.86
0.82
1.07
1.57
2.24
2.96
3.63
4.19
4.60
4.88
5.06
5.18
5.29
5.40
5.52
5.63
5.75
5.86
5.95
5.98
5.90
5.67
5.27
4.77
4.24
3.68
3.04
2.23
1.22
0.07
-1.01
-1.80
-2.17
-2.07
-1.63
-1.05
-0.50
-0.08
0.20
0.41
0.63
0.90
1.21
1.47
1.56
1.40
0.98
0.42
-0.10
-0.41
-0.42
-0.22
0.05
0.18
0.06
-0.28
-0.68
-0.93
-0.88
-0.50
0.11
0.76
1.29
1.58
1.50
0.97
-0.15
-1.94
-4.33
-7.03
-9.52
-11.19
-11.49
-10.11
-7.12
-3.04
1.27
4.79
6.64
6.36
4.06
0.37
-3.81
-7.54
-10.08
-10.93
-9.86
-6.99
-2.80
1.81
5.79
8.24
8.75
7.58
5.36
2.74
-0.03
-3.24
-7.42
-12.88
-19.39
-26.06
-31.59
-34.78
-34.89
-31.92
-26.51
-19.76
-12.83
-6.62
-1.61
2.16
4.91
6.90
8.28
9.11
9.45
9.46
9.43
9.66
10.34
11.39
12.50
13.26
13.39
12.85
11.87
10.79
9.94
9.45
9.24
9.15
8.97
8.64
8.17
7.67
7.23
6.90
6.69
6.59
6.54
6.48
6.29
5.84
5.01
3.78
2.25
0.63
-0.88
-2.14
-3.14
-3.94
-4.63
-5.22
-5.70
-6.06
-6.34
-6.64
-7.04
-7.59
-8.24
-8.91
-9.58
-10.26
-11.01
-11.92
-12.99
-14.24
-15.69
-17.47
-19.72
-22.52
-25.79
-29.21
-32.28
-34.52
-35.58
-35.39
-34.09
-31.89
-29.03
-25.67
-21.97
-18.16
-14.49
-11.13
-8.07
-5.14
-2.12
1.08
4.33
7.30
9.71
11.45
12.64
13.57
14.49
15.49
16.48
17.32
17.91
18.30
18.58
18.83
19.04
19.08
18.83
18.20
17.19
15.92
14.59
13.39
12.45
11.79
11.30
10.85
10.30
9.60
8.77
7.82
6.80
5.73
4.65
3.60
2.64
1.79
1.02
0.26
-0.50
-1.19
-1.65
-1.69
-1.18
-0.13
1.31
2.91
4.51
5.98
7.29
8.38
9.16
9.51
9.37
8.71
7.59
6.13
4.45
2.68
0.99
-0.42
-1.44
-2.02
-2.30
-2.56
-3.07
-3.99
-5.26
-6.65
-7.88
-8.79
-9.38
-9.81
-10.24
-10.75
-11.31
-11.76
-11.98
-11.87
-11.45
-10.82
-10.08
-9.31
-8.53
-7.65
-6.55
-5.14
-3.47
-1.66
0.04
1.43
2.40
2.98
3.31
3.54
3.77
4.02
4.25
4.42
4.52
4.61
4.75
4.98
5.28
5.56
5.69
5.55
5.11
4.46
3.78
3.28
3.09
3.20
3.52
3.91
4.29
4.59
4.82
4.92
4.83
4.48
3.86
3.09
2.37
1.92
1.85
2.14
2.67
3.23
3.68
3.97
4.11
4.14
4.12
4.09
4.07
4.04
3.99
3.86
3.56
3.05
2.35
1.57
0.90
0.52
0.56
1.03
1.80
2.70
3.57
4.30
4.86
5.28
5.59
5.85
6.11
6.37
6.62
6.82
6.91
6.86
6.64
6.21
5.58
4.77
3.85
2.92
2.08
1.34
0.60
-0.31
-1.58
-3.25
-5.24
-7.29
-9.11
-10.48
-11.30
-11.61
-11.49
-11.03
-10.35
-9.56
-8.77
-8.11
-7.59
-7.18
-6.80
-6.38
-5.94
-5.53
-5.28
-5.23
-5.40
-5.71
-6.08
-6.42
-6.67
-6.80
-6.77
-6.61
-6.35
-6.08
-5.94
-6.01
-6.33
-6.85
-7.44
-7.94
-8.26
-8.34
-8.26
-8.11
-7.99
-7.92
-7.85
-7.70
-7.37
-6.82
-6.00
-4.91
-3.50
-1.69
0.57
3.26
6.29
9.52
12.82
16.14
19.48
22.86
26.26
29.56
32.56
35.01
36.74
37.71
37.99
37.77
37.20
36.42
35.48
34.33
32.91
31.10
28.82
25.95
22.39
18.10
13.18
7.92
2.82
-1.57
-4.84
-6.86
-7.87
-8.34
-8.79
-9.58
-10.83
-12.43
-14.21
-16.03
-17.80
-19.49
-21.03
-22.32
-23.19
-23.46
-23.05
-22.00
-20.60
-19.23
-18.24
-17.79
-17.77
-17.90
-17.88
-17.58
-17.08
-16.55
-15.98
-15.19
-13.85
-11.75
-8.99
-6.02
-3.43
-1.66
-0.85
-0.76
-0.98
-1.09
-0.81
-0.07
1.06
2.42
3.84
5.18
6.33
7.19
7.72
7.91
7.82
7.60
7.49
7.74
8.47
9.65
11.02
12.20
12.84
12.73
11.90
10.58
9.04
7.54
6.20
5.06
4.05
3.09
2.05
0.81
-0.72
-2.58
-4.72
-7.06
-9.47
-11.82
-14.01
-15.91
-17.35
-18.16
-18.25
-17.62
-16.43
-14.90
-13.24
-11.55
-9.81
-7.93
-5.97
-4.17
-2.90
-2.53
-3.11
-4.30
-5.48
-6.05
-5.73
-4.74
-3.59
-2.76
-2.47
-2.56
-2.71
-2.65
-2.41
-2.18
-2.16
-2.38
-2.68
-2.84
-2.77
-2.57
-2.41
-2.41
-2.53
-2.63
-2.55
-2.23
-1.76
-1.28
-0.96
-0.96
-1.37
-2.15
-3.14
-4.03
-4.45
-4.10
-2.87
-0.92
1.33
3.34
4.68
5.12
4.72
3.69
2.36
0.94
-0.46
-1.89
-3.47
-5.25
-7.15
-8.93
-10.36
-11.21
-11.37
-10.90
-9.98
-8.82
-7.47
-5.82
-3.67
-0.87
2.58
6.41
10.11
12.98
14.39
14.06
12.31
9.85
7.55
6.17
6.20
7.58
9.80
12.05
13.49
13.42
11.37
7.11
1.03
-5.52
-10.58
-12.39
-10.88
-7.98
-6.32
-7.37
-10.64
-13.76
-14.02
-10.18
-3.39
3.22
6.21
3.38
-5.14
-17.08
-28.92
-36.63
-37.06
-28.40
-10.58
14.58
43.30
70.30
88.33
92.18
81.36
59.90
34.48
11.65
-4.48
-13.10
-15.90
-15.50
-13.65
-10.99
-7.69
-4.09
-1.08
0.29
-0.61
-3.52
-7.36
-10.47
-11.31
-9.28
-4.97
0.19
4.53
6.87
6.95
5.38
3.43
2.26
2.31
3.17
3.88
3.57
1.85
-0.95
-4.05
-6.49
-7.64
-7.26
-5.64
-3.41
-1.13
0.80
2.28
3.38
4.19
4.74
4.93
4.61
3.77
2.55
1.21
0.06
-0.73
-1.13
-1.23
-1.16
-1.02
-0.87
-0.73
-0.64
-0.65
-0.80
-1.10
-1.50
-1.92
-2.32
-2.64
-2.91
-3.14
-3.39
-3.73
-4.26
-5.05
-6.03
-7.02
-7.65
-7.55
-6.45
-4.41
-1.77
0.89
2.99
4.13
4.24
3.51
2.29
0.92
-0.36
-1.48
-2.35
-2.92
-3.07
-2.75
-1.98
-0.93
0.12
0.89
1.16
0.93
0.33
-0.39
-1.01
-1.43
-1.68
-1.91
-2.28
-2.99
-4.12
-5.64
-7.36
-8.96
-10.03
-10.26
-9.48
-7.76
-5.39
-2.73
-0.16
2.03
3.67
4.69
5.12
5.04
4.60
3.97
3.34
2.79
2.31
1.82
1.23
0.56
-0.09
-0.59
-0.81
-0.71
-0.38
0.05
0.39
0.50
0.29
-0.26
-1.09
-1.97
-2.58
-2.56
-1.63
0.20
2.67
5.29
7.54
9.09
9.85
9.96
9.65
9.11
8.45
7.71
6.99
6.42
6.21
6.48
7.21
8.20
9.08
9.52
9.26
8.29
6.80
5.10
3.43
1.95
0.60
-0.71
-2.07
-3.38
-4.48
-5.20
-5.57
-5.83
-6.26
-7.08
-8.31
-9.80
-11.47
-13.29
-15.30
-17.35
-18.85
-18.88
-16.52
-11.46
-4.31
3.37
9.70
13.17
13.35
10.91
7.25
3.76
1.26
-0.16
-0.90
-1.46
-2.04
-2.51
-2.66
-2.37
-1.87
-1.52
-1.64
-2.23
-2.97
-3.30
-2.73
-1.08
1.40
4.13
6.40
7.65
7.69
6.74
5.35
4.15
3.64
4.03
5.20
6.80
8.38
9.62
10.32
10.42
9.99
9.13
7.93
6.52
4.95
3.32
1.70
0.22
-0.99
-1.79
-2.08
-1.80
-1.02
0.18
1.61
3.12
4.54
5.76
6.70
7.35
7.75
7.95
8.00
7.91
7.66
7.21
6.56
5.79
5.01
4.35
3.88
3.62
3.50
3.48
3.48
3.51
3.57
3.66
3.72
3.65
3.34
2.74
1.92
1.03
0.29
-0.18
-0.42
-0.60
-1.00
-1.84
-3.23
-5.06
-7.06
-8.90
-10.24
-10.90
-10.84
-10.23
-9.29
-8.27
-7.28
-6.34
-5.39
-4.35
-3.24
-2.10
-1.00
0.04
1.02
1.97
2.83
3.48
3.73
3.37
2.36
0.75
-1.24
-3.36
-5.36
-7.06
-8.37
-9.33
-10.05
-10.65
-11.18
-11.58
-11.67
-11.27
-10.32
-9.02
-7.75
-6.98
-7.03
-7.96
-9.59
-11.59
-13.65
-15.63
-17.46
-19.05
-20.17
-20.46
-19.56
-17.29
-13.82
-9.61
-5.28
-1.45
1.49
3.43
4.48
4.95
5.20
5.56
6.23
7.24
8.49
9.78
10.90
11.63
11.90
11.69
11.13
10.39
9.65
9.08
8.71
8.49
8.26
7.88
7.24
6.37
5.40
4.51
3.86
3.49
3.35
3.29
3.15
2.86
2.45
2.04
1.72
1.53
1.42
1.32
1.15
0.87
0.46
-0.10
-0.81
-1.57
-2.19
-2.40
-2.01
-1.01
0.36
1.73
2.76
3.33
3.51
3.49
3.40
3.29
3.07
2.73
2.27
1.79
1.42
1.19
1.10
1.10
1.12
1.06
0.86
0.49
-0.05
-0.62
-1.06
-1.25
-1.20
-1.06
-1.07
-1.41
-2.09
-2.93
-3.73
-4.32
-4.69
-4.94
-5.12
-5.15
-4.88
-4.14
-2.94
-1.45
-0.04
1.02
1.56
1.64
1.46
1.18
0.86
0.46
-0.08
-0.73
-1.35
-1.74
-1.73
-1.28
-0.50
0.38
1.12
1.53
1.56
1.30
0.93
0.62
0.45
0.40
0.39
0.31
0.14
-0.08
-0.32
-0.58
-0.94
-1.50
-2.31
-3.20
-3.86
-3.93
-3.22
-1.81
-0.03
1.63
2.83
3.42
3.51
3.34
3.12
2.93
2.71
2.37
1.85
1.22
0.62
0.18
-0.02
-0.01
0.12
0.24
0.27
0.15
-0.08
-0.34
-0.56
-0.67
-0.68
-0.67
-0.73
-0.98
-1.45
-2.08
-2.79
-3.42
-3.82
-3.90
-3.59
-2.93
-2.03
-1.06
-0.18
0.51
0.99
1.27
1.39
1.38
1.23
0.97
0.63
0.31
0.11
0.09
0.26
0.57
0.91
1.15
1.18
0.98
0.59
0.13
-0.28
-0.54
-0.64
-0.68
-0.76
-1.00
-1.42
-1.97
-2.57
-3.06
-3.35
-3.35
-3.05
-2.50
-1.80
-1.10
-0.51
-0.16
-0.06
-0.20
-0.51
-0.93
-1.38
-1.82
-2.22
-2.57
-2.90
-3.20
-3.48
-3.74
-3.96
-4.18
-4.43
-4.78
-5.30
-6.07
-7.09
-8.26
-9.42
-10.43
-11.22
-11.83
-12.48
-13.37
-14.60
-16.02
-17.26
-17.87
-17.57
-16.37
-14.63
-12.94
-11.87
-11.81
-12.84
-14.77
-17.17
-19.46
-21.00
-21.17
-19.56
-16.13
-11.35
-6.19
-1.89
0.44
0.18
-2.51
-6.79
-11.33
-14.75
-15.97
-14.42
-10.11
-3.60
4.17
12.05
18.91
23.92
26.68
27.31
26.31
24.36
22.16
20.27
19.10
18.91
19.79
21.61
24.06
26.71
29.13
31.04
32.29
32.87
32.76
31.94
30.42
28.31
25.91
23.59
21.66
20.27
19.31
18.57
17.86
17.07
16.27
15.51
14.84
14.18
13.39
12.36
11.08
9.60
8.00
6.35
4.64
2.82
0.85
-1.21
-3.22
-5.01
-6.51
-7.78
-9.02
-10.40
-12.04
-13.85
-15.69
-17.40
-18.98
-20.45
-21.73
-22.47
-22.05
-19.94
-16.06
-11.07
-6.18
-2.68
-1.26
-1.75
-3.24
-4.62
-5.25
-5.13
-4.81
-4.84
-5.42
-6.24
-6.82
-6.83
-6.35
-5.79
-5.61
-6.02
-6.87
-7.72
-8.10
-7.70
-6.53
-4.87
-3.07
-1.44
-0.12
0.92
1.78
2.58
3.32
3.92
4.31
4.44
4.34
4.10
3.83
3.59
3.36
3.08
2.68
2.08
1.27
0.24
-0.93
-2.10
-3.06
-3.53
-3.25
-2.11
-0.23
2.09
4.41
6.36
7.77
8.71
9.43
10.16
11.05
12.02
12.90
13.52
13.80
13.84
13.78
13.72
13.65
13.48
13.05
12.26
11.09
9.60
7.89
6.04
4.10
2.08
-0.04
-2.24
-4.44
-6.47
-8.12
-9.19
-9.58
-9.35
-8.72
-7.95
-7.26
-6.76
-6.39
-6.05
-5.63
-5.08
-4.45
-3.84
-3.34
-2.99
-2.75
-2.58
-2.40
-2.21
-2.03
-1.96
-2.06
-2.32
-2.63
-2.82
-2.81
-2.57
-2.23
-1.91
-1.73
-1.69
-1.69
-1.58
-1.27
-0.74
-0.00
0.86
1.79
2.72
3.55
4.19
4.57
4.70
4.64
4.49
4.34
4.21
4.09
3.94
3.72
3.41
3.01
2.48
1.78
0.86
-0.28
-1.55
-2.80
-3.86
-4.61
-5.04
-5.24
-5.39
-5.61
-5.95
-6.36
-6.75
-7.00
-7.07
-6.95
-6.65
-6.19
-5.55
-4.77
-3.91
-3.09
-2.47
-2.17
-2.20
-2.44
-2.70
-2.78
-2.62
-2.29
-1.98
-1.83
-1.90
-2.08
-2.17
-2.02
-1.62
-1.14
-0.81
-0.78
-1.03
-1.38
-1.59
-1.47
-0.99
-0.27
0.48
1.12
1.58
1.92
2.29
2.79
3.47
4.26
5.08
5.83
6.45
6.94
7.28
7.47
7.49
7.38
7.24
7.20
7.42
7.97
8.76
9.60
10.28
10.70
10.84
10.83
10.77
10.69
10.53
10.14
9.45
8.44
7.20
5.87
4.58
3.39
2.26
1.14
-0.04
-1.33
-2.71
-4.14
-5.51
-6.74
-7.76
-8.55
-9.15
-9.64
-10.15
-10.78
-11.62
-12.70
-13.89
-15.03
-15.91
-16.40
-16.49
-16.32
-16.13
-16.06
-16.15
-16.24
-16.13
-15.60
-14.61
-13.14
-11.26
-9.09
-6.69
-4.11
-1.40
1.36
3.99
6.32
8.29
9.85
10.92
11.48
11.60
11.50
11.41
11.50
11.75
12.13
12.44
12.39
11.84
10.90
9.93
9.26
9.11
9.52
10.68
12.62
15.10
17.63
19.59
20.45
20.00
18.47
15.07
10.20
5.05
0.67
-2.86
-6.08
-9.35
-12.42
-14.64
-15.46
-14.57
-12.37
-9.64
-7.15
-5.22
-3.73
-2.45
-1.25
-0.30
0.34
0.51
0.13
-0.61
-1.57
-2.51
-3.21
-3.64
-3.92
-4.09
-4.24
-4.43
-4.71
-5.03
-5.26
-5.28
-5.07
-4.71
-4.24
-3.75
-3.30
-2.93
-2.63
-2.36
-2.11
-1.91
-1.79
-1.78
-1.83
-1.89
-1.87
-1.76
-1.53
-1.23
-0.90
-0.57
-0.27
-0.02
0.17
0.27
0.28
0.22
0.15
0.12
0.17
0.29
0.46
0.63
0.79
0.91
1.03
1.13
1.23
1.29
1.30
1.26
1.14
0.95
0.73
0.52
0.36
0.30
0.33
0.44
0.52
0.52
0.42
0.26
0.13
0.12
0.24
0.45
0.64
0.73
0.65
0.40
-0.01
-0.57
-1.25
-2.01
-2.73
-3.29
-3.54
-3.43
-3.01
-2.42
-1.85
-1.50
-1.50
-1.86
-2.51
-3.33
-4.15
-4.90
-5.56
-6.17
-6.78
-7.37
-7.90
-8.27
-8.43
-8.39
-8.24
-8.08
-7.96
-7.86
-7.72
-7.50
-7.21
-6.89
-6.59
-6.35
-6.15
-5.96
-5.73
-5.41
-4.96
-4.36
-3.62
-2.82
-2.08
-1.48
-1.08
-0.81
-0.59
-0.33
-0.02
0.29
0.54
0.70
0.84
1.03
1.29
1.60
1.86
2.01
2.07
2.11
2.19
2.31
2.34
2.15
1.67
0.97
0.30
-0.01
0.31
1.40
3.24
5.59
8.13
10.48
12.37
13.61
14.20
14.26
13.90
13.25
12.37
11.29
10.07
8.86
7.80
7.00
6.42
5.94
5.37
4.59
3.64
2.64
1.77
1.12
0.67
0.33
0.01
-0.31
-0.60
-0.74
-0.72
-0.57
-0.37
-0.20
-0.10
-0.02
0.09
0.27
0.48
0.68
0.80
0.82
0.78
0.72
0.70
0.71
0.77
0.84
0.92
1.02
1.13
1.23
1.30
1.31
1.22
0.99
0.63
0.17
-0.33
-0.75
-1.03
-1.10
-1.03
-0.92
-0.91
-1.09
-1.45
-1.86
-2.17
-2.25
-2.08
-1.77
-1.48
-1.34
-1.38
-1.55
-1.73
-1.83
-1.81
-1.69
-1.50
-1.26
-0.95
-0.60
-0.21
0.09
0.22
0.10
-0.22
-0.62
-0.89
-0.86
-0.46
0.26
1.14
1.97
2.57
2.88
2.89
2.71
2.43
2.12
1.80
1.47
1.12
0.80
0.52
0.33
0.21
0.13
0.05
-0.05
-0.15
-0.23
-0.25
-0.26
-0.30
-0.39
-0.53
-0.65
-0.69
-0.61
-0.40
-0.07
0.34
0.78
1.21
1.55
1.76
1.82
1.77
1.68
1.62
1.64
1.76
1.92
2.14
2.39
2.70
3.06
3.39
3.64
3.76
3.80
3.85
4.01
4.31
4.69
5.05
5.29
5.39
5.37
5.32
5.27
5.22
5.12
4.90
4.56
4.11
3.64
3.23
2.94
2.78
2.70
2.63
2.48
2.22
1.83
1.38
0.94
0.57
0.29
0.07
-0.19
-0.58
-1.14
-1.87
-2.66
-3.36
-3.82
-4.01
-3.99
-3.93
-4.01
-4.35
-4.95
-5.72
-6.53
-7.26
-7.80
-8.14
-8.22
-8.06
-7.67
-7.12
-6.53
-6.04
-5.71
-5.53
-5.36
-5.04
-4.47
-3.69
-2.90
-2.30
-2.06
-2.15
-2.41
-2.62
-2.62
-2.40
-2.01
-1.56
-1.09
-0.61
-0.13
0.27
0.51
0.51
0.35
0.16
0.11
0.26
0.53
0.72
0.67
0.34
-0.14
-0.58
-0.80
-0.77
-0.56
-0.30
-0.10
0.03
0.12
0.22
0.30
0.33
0.22
-0.05
-0.46
-0.92
-1.30
-1.50
-1.45
-1.14
-0.64
-0.06
0.45
0.80
0.95
0.98
1.03
1.25
1.70
2.35
3.04
3.61
3.98
4.15
4.21
4.25
4.34
4.47
4.58
4.60
4.54
4.42
4.31
4.20
4.03
3.70
3.14
2.34
1.43
0.59
0.01
-0.24
-0.23
-0.13
-0.14
-0.38
-0.80
-1.26
-1.57
-1.65
-1.55
-1.44
-1.49
-1.75
-2.14
-2.45
-2.51
-2.27
-1.86
-1.52
-1.42
-1.62
-2.02
-2.47
-2.86
-3.20
-3.56
-4.04
-4.66
-5.38
-6.15
-6.95
-7.81
-8.77
-9.76
-10.63
-11.19
-11.29
-10.96
-10.40
-9.88
-9.65
-9.80
-10.27
-10.87
-11.40
-11.74
-11.85
-11.79
-11.61
-11.35
-10.98
-10.48
-9.81
-9.00
-8.07
-7.05
-5.92
-4.62
-3.10
-1.37
0.48
2.30
3.88
5.09
5.93
6.45
6.81
7.11
7.43
7.79
8.17
8.59
9.07
9.61
10.16
10.59
10.76
10.55
9.93
9.00
7.94
6.93
6.08
5.40
4.87
4.47
4.20
4.09
4.11
4.18
4.18
4.00
3.60
3.04
2.43
1.88
1.44
1.12
0.94
0.89
0.98
1.21
1.51
1.81
2.05
2.20
2.29
2.37
2.45
2.54
2.61
2.67
2.72
2.76
2.81
2.85
2.86
2.81
2.70
2.56
2.42
2.30
2.22
2.16
2.08
1.92
1.65
1.30
0.92
0.59
0.37
0.26
0.22
0.20
0.16
0.12
0.13
0.22
0.43
0.75
1.16
1.57
1.90
2.10
2.10
1.93
1.67
1.45
1.38
1.51
1.79
2.14
2.45
2.65
2.70
2.61
2.35
1.94
1.42
0.87
0.38
0.04
-0.11
-0.13
-0.09
-0.10
-0.21
-0.39
-0.56
-0.64
-0.60
-0.44
-0.21
0.04
0.27
0.45
0.57
0.58
0.49
0.33
0.17
0.10
0.17
0.40
0.73
1.09
1.38
1.57
1.58
1.37
0.94
0.34
-0.29
-0.75
-0.90
-0.68
-0.22
0.25
0.53
0.46
0.06
-0.50
-1.03
-1.34
-1.35
-1.12
-0.78
-0.52
-0.44
-0.59
-0.90
-1.25
-1.55
-1.75
-1.83
-1.81
-1.71
-1.51
-1.22
-0.86
-0.51
-0.29
-0.24
-0.36
-0.55
-0.67
-0.66
-0.54
-0.42
-0.41
-0.58
-0.90
-1.26
-1.50
-1.51
-1.26
-0.79
-0.25
0.23
0.55
0.70
0.74
0.74
0.73
0.70
0.61
0.42
0.16
-0.07
-0.20
-0.18
-0.03
0.16
0.29
0.31
0.20
-0.05
-0.40
-0.85
-1.34
-1.83
-2.23
-2.50
-2.65
-2.74
-2.84
-2.98
-3.12
-3.19
-3.11
-2.85
-2.51
-2.19
-2.02
-2.01
-2.10
-2.19
-2.19
-2.10
-1.95
-1.81
-1.71
-1.62
-1.53
-1.45
-1.42
-1.45
-1.52
-1.59
-1.61
-1.58
-1.56
-1.63
-1.86
-2.22
-2.65
-3.01
-3.19
-3.12
-2.76
-2.15
-1.39
-0.62
0.01
0.38
0.48
0.43
0.37
0.42
0.62
0.85
1.01
1.00
0.83
0.61
0.47
0.49
0.68
0.94
1.14
1.16
0.93
0.46
-0.12
-0.68
-1.10
-1.33
-1.42
-1.49
-1.67
-2.00
-2.41
-2.76
-2.89
-2.74
-2.34
-1.84
-1.39
-1.07
-0.89
-0.77
-0.64
-0.44
-0.18
0.09
0.35
0.58
0.79
0.99
1.19
1.39
1.54
1.64
1.66
1.55
1.28
0.83
0.22
-0.44
-1.00
-1.25
-1.04
-0.32
0.81
2.14
3.42
4.40
4.94
4.99
4.57
3.75
2.63
1.29
-0.17
-1.67
-3.11
-4.41
-5.49
-6.31
-6.85
-7.12
-7.17
-7.07
-6.92
-6.82
-6.86
-7.04
-7.32
-7.57
-7.63
-7.37
-6.73
-5.79
-4.71
-3.72
-2.99
-2.60
-2.50
-2.50
-2.44
-2.18
-1.70
-1.09
-0.48
-0.04
0.17
0.18
0.06
-0.08
-0.18
-0.26
-0.36
-0.54
-0.81
-1.13
-1.45
-1.71
-1.90
-2.04
-2.16
-2.24
-2.23
-2.05
-1.63
-0.98
-0.15
0.80
1.79
2.80
3.81
4.82
5.75
6.52
7.00
7.07
6.68
5.86
4.75
3.55
2.46
1.58
0.88
0.19
-0.67
-1.83
-3.31
-4.98
-6.62
-7.98
-8.86
-9.14
-8.83
-8.05
-6.99
-5.79
-4.55
-3.23
-1.73
0.03
2.02
4.13
6.14
7.87
9.25
10.33
11.21
11.96
12.61
13.05
13.18
12.92
12.27
11.30
10.15
8.99
7.91
7.00
6.23
5.59
5.00
4.35
3.53
2.48
1.20
-0.19
-1.48
-2.48
-3.06
-3.22
-3.02
-2.58
-1.98
-1.30
-0.58
0.10
0.64
0.97
1.08
1.03
0.95
0.90
0.88
0.84
0.70
0.46
0.18
-0.01
-0.02
0.16
0.48
0.80
1.02
1.07
0.94
0.65
0.23
-0.28
-0.81
-1.27
-1.55
-1.56
-1.25
-0.68
0.05
0.76
1.28
1.47
1.30
0.82
0.20
-0.38
-0.73
-0.77
-0.55
-0.23
-0.01
-0.02
-0.28
-0.69
-1.11
-1.45
-1.70
-1.93
-2.21
-2.60
-3.11
-3.69
-4.30
-4.90
-5.44
-5.85
-6.00
-5.76
-5.06
-3.90
-2.43
-0.86
0.58
1.75
2.63
3.26
3.74
4.16
4.53
4.82
4.98
4.97
4.80
4.52
4.19
3.87
3.57
3.26
2.89
2.42
1.86
1.24
0.63
0.09
-0.37
-0.77
-1.15
-1.53
-1.89
-2.13
-2.17
-1.94
-1.45
-0.77
0.01
0.79
1.49
2.06
2.48
2.72
2.78
2.70
2.55
2.41
2.32
2.30
2.31
2.28
2.18
1.98
1.72
1.42
1.12
0.82
0.52
0.21
-0.09
-0.40
-0.68
-0.94
-1.20
-1.46
-1.72
-1.93
-2.01
-1.83
-1.33
-0.52
0.49
1.51
2.35
2.88
3.08
3.02
2.83
2.62
2.51
2.55
2.71
2.90
3.03
3.04
2.94
2.85
2.86
3.02
3.27
3.48
3.52
3.39
3.15
2.91
2.73
2.58
2.38
2.05
1.62
1.18
0.83
0.60
0.47
0.35
0.14
-0.17
-0.56
-0.94
-1.23
-1.42
-1.56
-1.72
-1.97
-2.32
-2.73
-3.09
-3.29
-3.28
-3.10
-2.81
-2.49
-2.17
-1.85
-1.51
-1.18
-0.94
-0.88
-1.03
-1.37
-1.84
-2.34
-2.80
-3.15
-3.31
-3.23
-2.92
-2.41
-1.78
-1.14
-0.57
-0.08
0.30
0.60
0.83
1.00
1.10
1.14
1.08
0.94
0.72
0.46
0.27
0.25
0.44
0.80
1.19
1.45
1.46
1.22
0.77
0.24
-0.28
-0.75
-1.15
-1.48
-1.70
-1.76
-1.60
-1.21
-0.60
0.10
0.78
1.28
1.51
1.47
1.23
0.93
0.66
0.50
0.40
0.33
0.25
0.19
0.21
0.33
0.55
0.77
0.87
0.77
0.48
0.10
-0.22
-0.39
-0.43
-0.42
-0.50
-0.73
-1.08
-1.43
-1.66
-1.68
-1.49
-1.14
-0.70
-0.25
0.16
0.50
0.75
0.92
1.04
1.11
1.13
1.08
0.95
0.74
0.50
0.31
0.22
0.25
0.33
0.38
0.34
0.20
-0.00
-0.23
-0.46
-0.73
-1.09
-1.58
-2.18
-2.79
-3.29
-3.55
-3.52
-3.19
-2.60
-1.87
-1.12
-0.46
0.01
0.28
0.36
0.33
0.26
0.21
0.21
0.24
0.32
0.47
0.72
1.11
1.61
2.14
2.58
2.86
2.94
2.87
2.73
2.55
2.30
1.92
1.34
0.60
-0.20
-0.87
-1.25
-1.28
-1.00
-0.57
-0.17
0.09
0.19
0.17
0.12
0.08
0.06
0.06
0.05
0.08
0.18
0.36
0.62
0.86
0.97
0.90
0.64
0.28
-0.07
-0.32
-0.44
-0.49
-0.58
-0.79
-1.14
-1.57
-1.93
-2.09
-2.00
-1.69
-1.26
-0.84
-0.49
-0.19
0.10
0.44
0.81
1.13
1.29
1.18
0.77
0.10
-0.68
-1.42
-1.97
-2.23
-2.14
-1.74
-1.12
-0.42
0.18
0.57
0.67
0.47
0.02
-0.62
-1.35
-2.07
-2.66
-2.97
-2.91
-2.43
-1.58
-0.50
0.64
1.70
2.64
3.48
4.25
4.99
5.64
6.14
6.44
6.54
6.50
6.38
6.21
5.99
5.70
5.37
5.11
5.04
5.29
5.88
6.72
7.63
8.37
8.72
8.55
7.83
6.64
5.12
3.46
1.87
0.48
-0.61
-1.38
-1.87
-2.15
-2.30
-2.35
-2.34
-2.31
-2.26
-2.22
-2.14
-1.96
-1.60
-1.00
-0.20
0.65
1.35
1.75
1.82
1.68
1.57
1.71
2.23
3.12
4.28
5.58
6.93
8.28
9.60
10.80
11.70
12.07
11.75
10.68
9.05
7.16
5.40
4.04
3.17
2.66
2.28
1.80
1.12
0.28
-0.59
-1.38
-2.08
-2.72
-3.41
-4.20
-5.13
-6.15
-7.22
-8.31
-9.45
-10.67
-11.98
-13.36
-14.69
-15.81
-16.52
-16.64
-16.14
-15.14
-13.88
-12.67
-11.73
-11.11
-10.70
-10.30
-9.75
-9.04
-8.24
-7.51
-6.94
-6.56
-6.30
-6.09
-5.86
-5.62
-5.40
-5.24
-5.16
-5.15
-5.21
-5.31
-5.46
-5.63
-5.77
-5.83
-5.74
-5.44
-4.96
-4.32
-3.59
-2.81
-2.01
-1.17
-0.35
0.41
1.00
1.34
1.37
1.10
0.58
-0.07
-0.71
-1.22
-1.49
-1.49
-1.27
-0.97
-0.73
-0.68
-0.86
-1.22
-1.69
-2.19
-2.66
-3.02
-3.19
-3.05
-2.52
-1.59
-0.32
1.10
2.46
3.59
4.43
5.00
5.41
5.76
6.11
6.46
6.78
7.01
7.16
7.24
7.31
7.39
7.52
7.72
7.95
8.16
8.24
8.06
7.52
6.61
5.44
4.20
3.10
2.30
1.82
1.59
1.49
1.40
1.25
0.97
0.56
0.01
-0.64
-1.34
-2.01
-2.54
-2.87
-2.97
-2.86
-2.65
-2.43
-2.31
-2.36
-2.62
-3.04
-3.54
-4.03
-4.46
-4.83
-5.14
-5.39
-5.48
-5.22
-4.42
-3.01
-1.06
1.19
3.43
5.38
6.90
8.00
8.75
9.24
9.52
9.64
9.66
9.70
9.88
10.27
10.86
11.47
11.94
12.11
11.92
11.39
10.58
9.52
8.24
6.75
5.11
3.42
1.78
0.26
-1.08
-2.23
-3.11
-3.64
-3.73
-3.40
-2.75
-1.95
-1.18
-0.52
-0.01
0.38
0.67
0.81
0.72
0.39
-0.14
-0.73
-1.26
-1.65
-1.89
-2.07
-2.27
-2.51
-2.75
-2.98
-3.17
-3.37
-3.68
-4.15
-4.77
-5.47
-6.13
-6.60
-6.78
-6.63
-6.15
-5.39
-4.44
-3.41
-2.43
-1.63
-1.07
-0.75
-0.64
-0.64
-0.70
-0.78
-0.84
-0.85
-0.76
-0.52
-0.13
0.36
0.84
1.18
1.28
1.10
0.69
0.14
-0.50
-1.14
-1.73
-2.19
-2.45
-2.45
-2.20
-1.77
-1.28
-0.83
-0.47
-0.17
0.10
0.33
0.48
0.44
0.16
-0.33
-0.93
-1.51
-1.95
-2.21
-2.31
-2.32
-2.32
-2.32
-2.31
-2.25
-2.10
-1.93
-1.81
-1.84
-2.10
-2.54
-3.05
-3.44
-3.56
-3.32
-2.73
-1.88
-0.88
0.16
1.15
2.04
2.76
3.24
3.41
3.26
2.83
2.24
1.64
1.16
0.89
0.82
0.91
1.06
1.19
1.22
1.12
0.86
0.44
-0.17
-1.00
-2.02
-3.15
-4.20
-4.91
-5.07
-4.61
-3.63
-2.46
-1.44
-0.84
-0.74
-1.03
-1.52
-2.02
-2.44
-2.77
-3.07
-3.40
-3.77
-4.15
-4.50
-4.80
-5.00
-5.10
-5.13
-5.11
-5.10
-5.14
-5.28
-5.55
-5.94
-6.44
-6.96
-7.37
-7.51
-7.24
-6.50
-5.36
-3.99
-2.59
-1.33
-0.28
0.57
1.31
2.02
2.72
3.40
4.01
4.58
5.17
5.85
6.65
7.50
8.24
8.70
8.79
8.52
8.06
7.57
7.15
6.77
6.34
5.78
5.17
4.69
4.61
5.12
6.22
7.68
9.18
10.37
11.09
11.33
11.25
11.02
10.78
10.54
10.28
9.98
9.66
9.39
9.24
9.18
9.10
8.80
8.06
6.77
4.96
2.75
0.38
-1.92
-3.98
-5.75
-7.23
-8.42
-9.32
-9.84
-9.89
-9.40
-8.44
-7.20
-5.93
-4.85
-4.09
-3.65
-3.42
-3.29
-3.16
-3.01
-2.87
-2.74
-2.63
-2.53
-2.39
-2.23
-2.10
-2.05
-2.12
-2.30
-2.54
-2.78
-2.99
-3.19
-3.41
-3.70
-4.03
-4.35
-4.54
-4.51
-4.19
-3.61
-2.85
-2.07
-1.45
-1.11
-1.12
-1.42
-1.85
-2.23
-2.43
-2.40
-2.20
-1.94
-1.69
-1.51
-1.37
-1.23
-1.06
-0.87
-0.71
-0.66
-0.76
-1.01
-1.36
-1.72
-1.96
-1.99
-1.76
-1.31
-0.71
-0.07
0.56
1.14
1.70
2.23
2.70
3.08
3.30
3.34
3.24
3.07
2.92
2.83
2.82
2.83
2.80
2.68
2.44
2.06
1.56
0.97
0.38
-0.12
-0.48
-0.67
-0.74
-0.80
-0.95
-1.26
-1.70
-2.18
-2.53
-2.59
-2.24
-1.48
-0.40
0.81
1.90
2.70
3.13
3.22
3.07
2.86
2.70
2.68
2.87
3.25
3.78
4.37
4.91
5.31
5.55
5.65
5.72
5.84
6.04
6.25
6.31
6.06
5.39
4.33
3.03
1.69
0.51
-0.36
-0.88
-1.03
-0.87
-0.45
0.15
0.81
1.40
1.76
1.80
1.51
1.00
0.43
-0.02
-0.24
-0.20
0.02
0.28
0.45
0.39
0.06
-0.50
-1.19
-1.84
-2.32
-2.58
-2.62
-2.56
-2.54
-2.70
-3.09
-3.69
-4.40
-5.06
-5.55
-5.77
-5.70
-5.41
-5.02
-4.61
-4.27
-4.01
-3.83
-3.71
-3.66
-3.68
-3.79
-3.94
-4.05
-4.05
-3.90
-3.67
-3.42
-3.22
-3.05
-2.86
-2.58
-2.20
-1.82
-1.62
-1.76
-2.31
-3.18
-4.18
-5.04
-5.54
-5.56
-5.11
-4.30
-3.29
-2.27
-1.38
-0.70
-0.26
-0.04
0.07
0.14
0.25
0.39
0.53
0.63
0.65
0.64
0.63
0.65
0.72
0.81
0.89
0.98
1.08
1.19
1.26
1.20
0.92
0.38
-0.34
-1.11
-1.73
-2.06
-2.04
-1.72
-1.23
-0.73
-0.31
-0.01
0.21
0.44
0.73
1.07
1.41
1.69
1.84
1.87
1.81
1.73
1.70
1.76
1.89
2.03
2.11
2.10
2.00
1.90
1.87
1.92
2.02
2.07
2.00
1.78
1.48
1.21
1.04
0.93
0.79
0.53
0.10
-0.35
-0.61
-0.46
0.21
1.31
2.56
3.64
4.27
4.36
4.05
3.58
3.23
3.20
3.51
4.07
4.70
5.18
5.36
5.20
4.74
4.09
3.37
2.63
1.89
1.11
0.27
-0.62
-1.52
-2.39
-3.25
-4.13
-5.07
-6.03
-6.91
-7.54
-7.79
-7.62
-7.10
-6.37
-5.60
-4.89
-4.27
-3.70
-3.15
-2.58
-1.99
-1.40
-0.82
-0.27
0.26
0.77
1.24
1.66
2.02
2.30
2.54
2.76
2.98
3.17
3.30
3.28
3.08
2.67
2.08
1.39
0.72
0.17
-0.19
-0.32
-0.26
-0.12
0.01
0.06
0.02
-0.02
0.05
0.30
0.71
1.14
1.46
1.57
1.47
1.27
1.11
1.09
1.21
1.40
1.58
1.68
1.69
1.62
1.45
1.14
0.66
0.02
-0.72
-1.41
-1.95
-2.27
-2.38
-2.32
-2.16
-1.92
-1.62
-1.30
-1.01
-0.80
-0.68
-0.65
-0.64
-0.63
-0.62
-0.64
-0.70
-0.80
-0.86
-0.79
-0.54
-0.12
0.38
0.85
1.19
1.37
1.41
1.36
1.25
1.10
0.91
0.65
0.31
-0.11
-0.54
-0.92
-1.12
-1.06
-0.71
-0.14
0.51
1.04
1.34
1.33
1.09
0.76
0.52
0.46
0.62
0.89
1.14
1.25
1.15
0.91
0.60
0.34
0.19
0.15
0.17
0.18
0.15
0.04
-0.12
-0.32
-0.56
-0.84
-1.15
-1.47
-1.76
-1.97
-2.01
-1.84
-1.43
-0.85
-0.18
0.47
1.03
1.44
1.68
1.73
1.62
1.38
1.10
0.88
0.83
0.95
1.16
1.29
1.20
0.83
0.26
-0.35
-0.81
-1.03
-1.04
-0.92
-0.79
-0.73
-0.75
-0.81
-0.90
-1.02
-1.18
-1.35
-1.50
-1.56
-1.44
-1.11
-0.60
0.03
0.64
1.11
1.37
1.43
1.41
1.44
1.60
1.92
2.29
2.57
2.65
2.52
2.30
2.12
2.09
2.22
2.43
2.56
2.50
2.22
1.73
1.14
0.52
-0.10
-0.69
-1.24
-1.69
-1.94
-1.93
-1.66
-1.22
-0.75
-0.37
-0.13
-0.00
0.09
0.20
0.27
0.22
0.00
-0.36
-0.75
-1.01
-1.02
-0.76
-0.37
-0.02
0.14
0.01
-0.37
-0.88
-1.37
-1.69
-1.79
-1.69
-1.52
-1.45
-1.60
-1.99
-2.50
-2.92
-3.02
-2.66
-1.87
-0.82
0.25
1.08
1.53
1.61
1.41
1.10
0.82
0.63
0.52
0.46
0.41
0.37
0.36
0.41
0.52
0.63
0.65
0.50
0.16
-0.29
-0.70
-0.92
-0.94
-0.80
-0.68
-0.70
-0.92
-1.27
-1.63
-1.86
-1.90
-1.78
-1.55
-1.29
-1.02
-0.73
-0.40
-0.02
0.37
0.69
0.87
0.87
0.72
0.53
0.44
0.53
0.78
1.04
1.16
1.06
0.80
0.55
0.48
0.61
0.85
0.96
0.77
0.25
-0.46
-1.12
-1.52
-1.51
-1.12
-0.48
0.27
0.99
1.59
2.04
2.33
2.52
2.71
2.96
3.35
3.86
4.43
4.91
5.12
4.95
4.37
3.46
2.41
1.42
0.64
0.13
-0.16
-0.34
-0.50
-0.67
-0.86
-1.05
-1.24
-1.47
-1.76
-2.11
-2.44
-2.59
-2.44
-1.91
-1.00
0.12
1.25
2.18
2.77
3.01
2.97
2.80
2.59
2.39
2.19
1.93
1.58
1.19
0.82
0.55
0.41
0.38
0.39
0.39
0.34
0.24
0.11
-0.06
-0.33
-0.74
-1.31
-2.02
-2.72
-3.27
-3.55
-3.51
-3.17
-2.63
-2.05
-1.60
-1.38
-1.48
-1.84
-2.34
-2.84
-3.20
-3.36
-3.37
-3.30
-3.21
-3.14
-3.08
-3.04
-3.02
-3.05
-3.12
-3.20
-3.26
-3.29
-3.36
-3.57
-4.01
-4.73
-5.68
-6.72
-7.67
-8.36
-8.72
-8.70
-8.38
-7.87
-7.30
-6.75
-6.25
-5.74
-5.12
-4.31
-3.28
-2.04
-0.67
0.77
2.16
3.44
4.51
5.31
5.80
6.02
6.09
6.13
6.25
6.44
6.60
6.56
6.16
5.32
4.08
2.64
1.25
0.15
-0.51
-0.75
-0.66
-0.37
0.04
0.54
1.15
1.87
2.62
3.27
3.70
3.83
3.69
3.40
3.07
2.81
2.65
2.57
2.52
2.46
2.36
2.21
2.05
1.92
1.90
2.02
2.28
2.63
2.97
3.21
3.26
3.08
2.67
2.08
1.43
0.88
0.59
0.68
1.14
1.87
2.68
3.40
3.89
4.12
4.12
3.96
3.69
3.36
3.01
2.67
2.39
2.16
1.98
1.80
1.58
1.27
0.86
0.34
-0.26
-0.92
-1.59
-2.27
-2.94
-3.56
-4.10
-4.48
-4.61
-4.46
-4.04
-3.42
-2.74
-2.11
-1.61
-1.26
-1.01
-0.83
-0.68
-0.58
-0.53
-0.51
-0.46
-0.30
0.02
0.48
0.96
1.30
1.38
1.15
0.72
0.26
-0.05
-0.10
0.07
0.37
0.64
0.81
0.86
0.85
0.85
0.96
1.21
1.61
2.12
2.67
3.19
3.59
3.84
3.95
3.93
3.84
3.72
3.59
3.47
3.39
3.33
3.28
3.17
2.98
2.65
2.20
1.68
1.17
0.73
0.39
0.13
-0.11
-0.36
-0.64
-0.94
-1.20
-1.38
-1.48
-1.49
-1.47
-1.43
-1.37
-1.26
-1.11
-0.95
-0.81
-0.76
-0.79
-0.88
-0.94
-0.91
-0.75
-0.45
-0.07
0.33
0.66
0.86
0.89
0.73
0.42
0.03
-0.37
-0.69
-0.90
-0.98
-0.97
-0.92
-0.90
-0.99
-1.27
-1.78
-2.49
-3.30
-4.06
-4.64
-4.96
-5.03
-4.92
-4.70
-4.39
-3.99
-3.46
-2.83
-2.18
-1.64
-1.29
-1.11
-1.04
-0.98
-0.84
-0.64
-0.45
-0.36
-0.40
-0.56
-0.78
-1.00
-1.19
-1.33
-1.47
-1.64
-1.86
-2.12
-2.44
-2.79
-3.17
-3.55
-3.95
-4.35
-4.76
-5.19
-5.60
-5.89
-5.99
-5.82
-5.35
-4.62
-3.75
-2.84
-1.98
-1.22
-0.58
-0.07
0.30
0.53
0.62
0.62
0.62
0.72
1.00
1.45
1.99
2.51
2.89
3.07
3.06
2.95
2.80
2.65
2.45
2.14
1.68
1.15
0.67
0.40
0.39
0.60
0.87
1.04
0.97
0.66
0.17
-0.40
-0.96
-1.43
-1.77
-1.91
-1.79
-1.36
-0.62
0.33
1.33
2.24
2.93
3.35
3.52
3.48
3.30
3.07
2.85
2.69
2.61
2.59
2.62
2.66
2.68
2.65
2.53
2.29
1.90
1.38
0.79
0.23
-0.26
-0.63
-0.92
-1.22
-1.61
-2.14
-2.82
-3.57
-4.21
-4.58
-4.56
-4.13
-3.36
-2.40
-1.40
-0.46
0.33
0.93
1.29
1.37
1.19
0.87
0.56
0.43
0.55
0.90
1.33
1.72
1.96
2.00
1.85
1.54
1.10
0.56
-0.01
-0.53
-0.89
-1.07
-1.08
-1.04
-1.06
-1.26
-1.67
-2.24
-2.89
-3.52
-4.03
-4.32
-4.35
-4.03
-3.36
-2.36
-1.14
0.12
1.23
2.02
2.43
2.48
2.29
2.01
1.81
1.75
1.86
2.08
2.31
2.47
2.50
2.41
2.22
1.97
1.66
1.30
0.91
0.53
0.22
0.01
-0.08
-0.13
-0.22
-0.42
-0.73
-1.10
-1.49
-1.85
-2.19
-2.52
-2.82
-3.03
-3.06
-2.83
-2.33
-1.66
-0.94
-0.27
0.30
0.77
1.17
1.52
1.82
2.05
2.19
2.25
2.25
2.21
2.11
1.95
1.71
1.39
1.07
0.77
0.52
0.30
0.03
-0.36
-0.89
-1.52
-2.18
-2.80
-3.36
-3.91
-4.47
-5.05
-5.54
-5.78
-5.65
-5.12
-4.32
-3.43
-2.68
-2.14
-1.82
-1.63
-1.47
-1.35
-1.31
-1.44
-1.77
-2.25
-2.71
-3.03
-3.11
-3.01
-2.86
-2.87
-3.15
-3.73
-4.51
-5.36
-6.15
-6.85
-7.48
-8.16
-8.99
-10.04
-11.33
-12.80
-14.31
-15.71
-16.81
-17.45
-17.59
-17.27
-16.64
-15.92
-15.38
-15.27
-15.73
-16.66
-17.73
-18.39
-18.06
-16.38
-13.36
-9.37
-4.97
-0.69
3.19
6.66
9.83
12.78
15.35
17.26
18.18
17.93
16.56
14.33
11.64
8.91
6.51
4.74
3.82
3.85
4.85
6.69
9.19
12.08
15.05
17.78
20.01
21.54
22.31
22.44
22.14
21.64
21.08
20.49
19.76
18.77
17.43
15.76
13.84
11.74
9.50
7.16
4.75
2.41
0.34
-1.27
-2.28
-2.70
-2.69
-2.44
-2.13
-1.80
-1.39
-0.75
0.24
1.61
3.23
4.90
6.43
7.64
8.44
8.83
8.85
8.55
7.98
7.17
6.18
5.08
3.97
2.97
2.19
1.68
1.42
1.34
1.33
1.32
1.22
1.00
0.63
0.08
-0.65
-1.57
-2.66
-3.89
-5.23
-6.64
-8.04
-9.33
-10.39
-11.09
-11.41
-11.35
-11.02
-10.50
-9.87
-9.19
-8.50
-7.87
-7.35
-6.96
-6.66
-6.39
-6.05
-5.57
-4.94
-4.20
-3.41
-2.67
-2.01
-1.50
-1.16
-0.99
-1.01
-1.21
-1.57
-2.05
-2.58
-3.06
-3.45
-3.69
-3.80
-3.77
-3.53
-3.00
-2.10
-0.83
0.67
2.16
3.44
4.37
4.95
5.25
5.32
5.22
4.97
4.63
4.33
4.22
4.37
4.74
5.17
5.43
5.39
5.02
4.40
3.72
3.13
2.69
2.37
2.05
1.63
1.04
0.37
-0.23
-0.53
-0.38
0.25
1.22
2.30
3.24
3.88
4.22
4.30
4.22
4.01
3.72
3.38
3.05
2.84
2.81
2.95
3.18
3.36
3.41
3.31
3.12
2.89
2.64
2.36
1.98
1.46
0.81
0.07
-0.70
-1.43
-2.07
-2.54
-2.78
-2.74
-2.39
-1.80
-1.10
-0.44
0.03
0.26
0.24
0.06
-0.22
-0.50
-0.71
-0.82
-0.82
-0.72
-0.54
-0.31
-0.05
0.24
0.56
0.88
1.15
1.32
1.33
1.17
0.86
0.46
0.00
-0.48
-0.92
-1.20
-1.17
-0.71
0.17
1.35
2.61
3.70
4.47
4.88
5.05
5.14
5.26
5.39
5.44
5.29
4.83
4.01
2.84
1.36
-0.34
-2.10
-3.72
-4.94
-5.63
-5.79
-5.61
-5.36
-5.30
-5.52
-5.98
-6.54
-7.00
-7.28
-7.27
-6.93
-6.19
-5.05
-3.56
-1.88
-0.24
1.15
2.13
2.65
2.75
2.54
2.16
1.74
1.41
1.24
1.24
1.40
1.65
1.91
2.08
2.09
1.90
1.53
1.11
0.76
0.54
0.45
0.36
0.08
-0.51
-1.39
-2.43
-3.36
-3.93
-3.97
-3.46
-2.53
-1.36
-0.18
0.87
1.69
2.27
2.62
2.79
2.82
2.79
2.75
2.79
2.99
3.38
3.91
4.44
4.80
4.82
4.46
3.80
3.04
2.40
2.01
1.88
1.93
2.00
1.98
1.78
1.36
0.69
-0.24
-1.37
-2.51
-3.38
-3.69
-3.30
-2.31
-0.99
0.31
1.30
1.88
2.12
2.18
2.16
2.12
2.05
1.92
1.78
1.69
1.72
1.85
2.00
2.03
1.85
1.48
1.04
0.72
0.61
0.68
0.79
0.78
0.53
0.05
-0.54
-1.11
-1.56
-1.85
-1.97
-1.91
-1.65
-1.16
-0.46
0.37
1.19
1.86
2.25
2.34
2.18
1.87
1.53
1.27
1.14
1.11
1.17
1.25
1.32
1.36
1.35
1.25
1.05
0.71
0.25
-0.28
-0.82
-1.32
-1.73
-2.07
-2.36
-2.65
-2.95
-3.28
-3.61
-3.88
-3.96
-3.76
-3.22
-2.39
-1.43
-0.57
0.04
0.35
0.45
0.51
0.66
0.92
1.22
1.48
1.67
1.79
1.85
1.80
1.60
1.19
0.61
-0.01
-0.51
-0.75
-0.73
-0.53
-0.32
-0.22
-0.30
-0.54
-0.90
-1.35
-1.83
-2.35
-2.87
-3.36
-3.77
-3.99
-3.93
-3.57
-3.00
-2.35
-1.76
-1.32
-1.00
-0.71
-0.35
0.11
0.62
1.06
1.36
1.50
1.54
1.54
1.58
1.68
1.81
1.94
2.04
2.09
2.09
2.05
1.94
1.78
1.56
1.30
1.00
0.64
0.21
-0.33
-0.94
-1.55
-2.09
-2.49
-2.80
-3.09
-3.41
-3.75
-3.96
-3.88
-3.42
-2.64
-1.74
-0.95
-0.43
-0.16
-0.01
0.16
0.42
0.72
0.97
1.10
1.09
0.99
0.87
0.80
0.79
0.82
0.82
0.76
0.61
0.40
0.15
-0.08
-0.29
-0.50
-0.78
-1.22
-1.83
-2.55
-3.26
-3.78
-3.97
-3.78
-3.26
-2.56
-1.83
-1.19
-0.65
-0.19
0.26
0.71
1.13
1.48
1.67
1.71
1.63
1.51
1.45
1.49
1.60
1.72
1.76
1.62
1.29
0.83
0.33
-0.08
-0.36
-0.50
-0.55
-0.60
-0.68
-0.85
-1.11
-1.50
-2.02
-2.63
-3.23
-3.72
-3.96
-3.88
-3.51
-2.93
-2.25
-1.55
-0.89
-0.30
0.19
0.52
0.64
0.56
0.37
0.20
0.18
0.35
0.66
1.00
1.27
1.45
1.56
1.67
1.79
1.86
1.80
1.51
1.00
0.32
-0.39
-1.01
-1.47
-1.79
-2.07
-2.39
-2.81
-3.25
-3.54
-3.53
-3.12
-2.36
-1.43
-0.51
0.25
0.83
1.26
1.65
2.01
2.32
2.48
2.44
2.20
1.85
1.52
1.30
1.22
1.25
1.33
1.40
1.46
1.53
1.59
1.61
1.52
1.25
0.83
0.35
-0.07
-0.34
-0.48
-0.59
-0.81
-1.23
-1.87
-2.65
-3.41
-3.97
-4.17
-3.96
-3.35
-2.46
-1.42
-0.38
0.52
1.22
1.68
1.87
1.82
1.58
1.24
0.96
0.85
0.99
1.35
1.81
2.18
2.32
2.16
1.72
1.13
0.54
0.08
-0.18
-0.26
-0.24
-0.22
-0.31
-0.58
-1.10
-1.85
-2.72
-3.56
-4.18
-4.41
-4.17
-3.52
-2.57
-1.52
-0.53
0.26
0.81
1.12
1.23
1.18
1.00
0.75
0.45
0.17
-0.04
-0.16
-0.18
-0.14
-0.10
-0.13
-0.28
-0.58
-1.01
-1.55
-2.12
-2.66
-3.13
-3.52
-3.90
-4.36
-4.96
-5.69
-6.44
-7.08
-7.43
-7.40
-6.92
-6.01
-4.70
-3.08
-1.23
0.71
2.60
4.34
5.84
7.07
8.01
8.64
8.93
8.87
8.53
8.01
7.45
6.98
6.67
6.50
6.42
6.36
6.26
6.13
6.03
6.07
6.41
7.14
8.22
9.45
10.50
11.02
10.77
9.76
8.21
6.51
5.03
3.91
3.10
2.38
1.50
0.22
-1.63
-4.11
-6.97
-9.86
-12.32
-13.92
-14.34
-13.55
-11.81
-9.65
-7.60
-5.90
-4.55
-3.52
-2.69
-2.00
-1.47
-1.17
-1.20
-1.57
-1.99
-2.22
-2.27
-2.30
-2.61
-3.53
-4.65
-5.60
-7.15
-9.42
-11.82
-13.99
-15.74
-17.02
-17.85
-18.29
-18.50
-18.63
-18.61
-18.39
-18.02
-17.53
-16.87
-15.90
-14.45
-12.47
-9.97
-6.95
-3.58
-0.22
2.77
5.18
6.94
8.19
9.12
9.97
11.05
12.47
14.10
15.67
16.88
17.54
17.60
17.10
16.16
15.07
14.05
13.13
12.24
11.34
10.46
9.68
9.03
8.46
7.99
7.48
6.63
5.17
3.14
0.90
-0.98
-1.99
-1.84
-0.31
2.56
6.37
10.54
14.53
17.91
20.35
21.69
20.63
16.92
11.81
7.25
4.43
3.29
3.00
2.66
1.81
0.44
-0.99
-2.05
-2.54
-2.87
-3.37
-4.11
-4.99
-5.84
-6.50
-6.74
-6.51
-6.00
-5.59
-5.61
-6.09
-6.96
-8.06
-9.19
-10.07
-10.53
-10.54
-10.21
-9.59
-8.70
-7.53
-6.18
-4.80
-3.52
-2.47
-1.73
-1.31
-1.09
-0.90
-0.59
-0.08
0.65
1.56
2.53
3.44
4.18
4.69
5.05
5.37
5.85
6.58
7.59
8.75
9.84
10.62
10.93
10.76
10.25
9.60
8.95
8.30
7.57
6.65
5.46
4.05
2.52
1.02
-0.33
-1.46
-2.32
-2.93
-3.30
-3.49
-3.56
-3.54
-3.46
-3.33
-3.12
-2.85
-2.57
-2.34
-2.23
-2.24
-2.32
-2.38
-2.35
-2.23
-2.07
-1.94
-1.88
-1.88
-1.88
-1.82
-1.70
-1.56
-1.51
-1.60
-1.85
-2.22
-2.60
-2.91
-3.10
-3.15
-3.05
-2.83
-2.55
-2.32
-2.25
-2.38
-2.70
-3.12
-3.53
-3.83
-4.00
-4.09
-4.15
-4.25
-4.36
-4.47
-4.55
-4.60
-4.67
-4.83
-5.11
-5.49
-5.89
-6.22
-6.42
-6.46
-6.36
-6.17
-5.93
-5.62
-5.25
-4.83
-4.43
-4.11
-3.94
-3.86
-3.73
-3.40
-2.79
-1.91
-0.92
-0.04
0.59
0.96
1.14
1.26
1.42
1.64
1.83
1.88
1.75
1.46
1.13
0.87
0.74
0.70
0.65
0.48
0.19
-0.10
-0.23
-0.11
0.28
0.79
1.29
1.68
1.97
2.26
2.63
3.11
3.66
4.18
4.57
4.75
4.65
4.26
3.64
2.93
2.32
1.99
1.99
2.24
2.56
2.73
2.65
2.35
2.00
1.73
1.64
1.70
1.80
1.87
1.89
1.90
1.98
2.18
2.50
2.88
3.24
3.53
3.73
3.85
3.92
3.96
3.98
3.99
4.00
4.00
3.99
3.96
3.87
3.73
3.52
3.25
2.89
2.44
1.91
1.29
0.64
0.01
-0.55
-1.01
-1.41
-1.80
-2.26
-2.84
-3.55
-4.32
-5.04
-5.60
-5.90
-5.89
-5.61
-5.12
-4.53
-3.98
-3.61
-3.50
-3.67
-4.01
-4.36
-4.56
-4.52
-4.29
-3.99
-3.76
-3.71
-3.82
-4.00
-4.13
-4.10
-3.91
-3.59
-3.22
-2.91
-2.74
-2.75
-2.95
-3.21
-3.35
-3.11
-2.28
-0.79
1.22
3.39
5.21
6.22
6.17
5.08
3.25
1.10
-1.01
-2.86
-4.40
-5.62
-6.51
-7.00
-7.01
-6.48
-5.43
-3.91
-2.02
0.17
2.59
5.10
7.49
9.46
10.74
11.15
10.72
9.67
8.38
7.24
6.55
6.43
6.82
7.53
8.32
8.97
9.33
9.36
9.05
8.46
7.64
6.63
5.49
4.30
3.12
2.03
1.08
0.26
-0.43
-1.04
-1.60
-2.11
-2.57
-2.96
-3.32
-3.68
-4.08
-4.51
-4.98
-5.47
-5.93
-6.31
-6.50
-6.40
-5.96
-5.23
-4.35
-3.54
-2.97
-2.73
-2.75
-2.89
-3.00
-2.96
-2.77
-2.46
-2.09
-1.68
-1.26
-0.85
-0.53
-0.38
-0.48
-0.81
-1.32
-1.91
-2.46
-2.91
-3.28
-3.62
-4.03
-4.54
-5.11
-5.60
-5.81
-5.62
-5.02
-4.13
-3.16
-2.31
-1.69
-1.30
-1.06
-0.88
-0.71
-0.54
-0.36
-0.17
0.07
0.37
0.68
0.91
0.99
0.91
0.76
0.68
0.77
1.04
1.39
1.66
1.71
1.52
1.14
0.70
0.31
0.04
-0.11
-0.15
-0.09
0.13
0.51
1.04
1.62
2.08
2.26
2.09
1.63
1.08
0.71
0.72
1.12
1.77
2.37
2.66
2.51
1.98
1.28
0.66
0.28
0.16
0.25
0.41
0.55
0.60
0.50
0.22
-0.26
-0.95
-1.74
-2.48
-2.97
-3.06
-2.72
-2.03
-1.17
-0.38
0.17
0.40
0.35
0.12
-0.15
-0.37
-0.53
-0.64
-0.74
-0.84
-0.91
-0.92
-0.87
-0.78
-0.69
-0.62
-0.58
-0.54
-0.53
-0.55
-0.66
-0.86
-1.14
-1.44
-1.69
-1.85
-1.91
-1.87
-1.72
-1.43
-1.02
-0.52
-0.03
0.38
0.64
0.76
0.80
0.83
0.91
1.05
1.20
1.29
1.26
1.06
0.70
0.26
-0.14
-0.38
-0.39
-0.19
0.14
0.41
0.48
0.22
-0.35
-1.12
-1.92
-2.60
-3.06
-3.26
-3.22
-2.96
-2.52
-1.95
-1.36
-0.88
-0.65
-0.74
-1.09
-1.57
-2.02
-2.30
-2.40
-2.34
-2.17
-1.92
-1.57
-1.14
-0.67
-0.22
0.12
0.29
0.31
0.21
0.05
-0.12
-0.29
-0.48
-0.72
-0.98
-1.19
-1.24
-1.04
-0.54
0.21
1.08
1.91
2.57
2.99
3.21
3.30
3.36
3.42
3.50
3.56
3.57
3.50
3.34
3.10
2.77
2.35
1.88
1.44
1.13
1.01
1.07
1.20
1.23
1.00
0.49
-0.23
-0.99
-1.57
-1.83
-1.67
-1.11
-0.25
0.76
1.74
2.53
3.04
3.25
3.24
3.12
2.98
2.90
2.90
2.94
3.01
3.05
3.04
2.98
2.86
2.70
2.51
2.29
2.01
1.65
1.20
0.63
-0.04
-0.80
-1.64
-2.47
-3.20
-3.69
-3.82
-3.57
-2.98
-2.20
-1.37
-0.61
0.05
0.61
1.09
1.46
1.62
1.48
1.04
0.37
-0.32
-0.83
-1.05
-0.96
-0.69
-0.41
-0.29
-0.39
-0.74
-1.29
-1.95
-2.66
-3.38
-4.08
-4.78
-5.49
-6.18
-6.81
-7.27
-7.49
-7.40
-7.04
-6.45
-5.74
-5.02
-4.43
-4.06
-3.98
-4.17
-4.49
-4.81
-4.99
-4.99
-4.86
-4.70
-4.57
-4.43
-4.23
-3.89
-3.39
-2.77
-2.06
-1.29
-0.49
0.29
0.99
1.49
1.76
1.82
1.82
1.96
2.38
3.12
4.11
5.21
6.27
7.17
7.86
8.31
8.49
8.42
8.15
7.75
7.32
6.94
6.65
6.41
6.15
5.81
5.37
4.86
4.36
3.91
3.56
3.27
3.00
2.66
2.20
1.59
0.86
0.07
-0.70
-1.36
-1.81
-1.98
-1.86
-1.48
-0.94
-0.37
0.13
0.50
0.76
0.96
1.15
1.30
1.37
1.35
1.26
1.17
1.20
1.36
1.62
1.87
1.98
1.94
1.77
1.58
1.42
1.25
1.02
0.66
0.17
-0.37
-0.84
-1.13
-1.19
-1.07
-0.84
-0.53
-0.17
0.31
0.89
1.57
2.22
2.73
3.00
3.01
2.81
2.47
2.06
1.58
1.07
0.56
0.14
-0.12
-0.21
-0.17
-0.13
-0.20
-0.42
-0.79
-1.26
-1.76
-2.28
-2.77
-3.16
-3.30
-3.05
-2.36
-1.33
-0.20
0.77
1.40
1.70
1.82
1.96
2.24
2.63
2.99
3.18
3.16
3.01
2.87
2.80
2.80
2.77
2.63
2.35
2.00
1.69
1.49
1.36
1.17
0.81
0.21
-0.56
-1.30
-1.81
-1.93
-1.62
-0.93
-0.00
1.04
2.11
3.16
4.21
5.26
6.30
7.34
8.37
9.37
10.33
11.25
12.13
12.99
13.88
14.82
15.81
16.84
17.85
18.81
19.72
20.61
21.54
22.51
23.50
24.34
24.79
24.57
23.49
21.47
18.62
15.21
11.53
7.80
4.10
0.36
-3.55
-7.65
-11.80
-15.73
-19.12
-21.76
-23.51
-24.33
-24.16
-22.92
-20.62
-17.46
-13.88
-10.50
-7.94
-6.61
-6.56
-7.55
-9.28
-11.49
-14.14
-17.22
-20.62
-23.90
-26.35
-27.17
-25.79
-22.13
-16.66
-10.31
-4.14
0.94
4.37
5.99
5.99
4.82
3.02
1.11
-0.57
-1.96
-3.31
-5.03
-7.46
-10.66
-14.30
-17.87
-20.84
-22.90
-24.07
-24.53
-24.54
-24.30
-23.83
-23.14
-22.18
-20.95
-19.44
-17.63
-15.49
-12.99
-10.15
-7.03
-3.79
-0.65
2.15
4.42
6.14
7.45
8.60
9.88
11.44
13.26
15.12
16.72
17.81
18.26
18.13
17.56
16.76
15.92
15.12
14.41
13.77
13.18
12.63
12.14
11.72
11.36
11.04
10.77
10.55
10.45
10.57
10.93
11.57
12.41
13.36
14.32
15.19
15.93
16.50
16.93
17.25
17.56
17.95
18.47
19.10
19.71
20.12
20.16
19.71
18.74
17.29
15.41
13.19
10.74
8.24
5.88
3.86
2.27
1.10
0.19
-0.63
-1.49
-2.35
-3.11
-3.59
-3.71
-3.49
-3.09
-2.64
-2.27
-1.99
-1.77
-1.53
-1.24
-0.93
-0.70
-0.64
-0.85
-1.41
-2.42
-3.95
-6.04
-8.66
-11.61
-14.61
-17.36
-19.61
-21.27
-22.41
-23.19
-23.84
-24.51
-25.29
-26.14
-26.91
-27.35
-27.20
-26.28
-24.54
-22.13
-19.23
-16.09
-12.82
-9.45
-5.97
-2.46
0.94
4.00
6.49
8.28
9.39
9.93
10.08
10.11
10.27
10.82
11.89
13.47
15.28
16.88
17.78
17.67
16.56
14.83
12.99
11.49
10.43
9.58
8.55
7.01
4.96
2.64
0.49
-1.17
-2.22
-2.71
-2.80
-2.63
-2.28
-1.78
-1.21
-0.75
-0.53
-0.69
-1.25
-2.10
-3.06
-3.92
-4.48
-4.62
-4.34
-3.73
-2.95
-2.18
-1.52
-1.02
-0.62
-0.28
0.02
0.24
0.33
0.22
-0.07
-0.50
-0.99
-1.45
-1.80
-1.97
-1.93
-1.69
-1.31
-0.93
-0.71
-0.76
-1.11
-1.68
-2.34
-2.93
-3.40
-3.74
-3.99
-4.21
-4.44
-4.66
-4.84
-4.96
-4.98
-4.92
-4.82
-4.73
-4.66
-4.62
-4.56
-4.47
-4.37
-4.36
-4.56
-5.06
-5.77
-6.53
-7.10
-7.36
-7.33
-7.21
-7.20
-7.45
-7.95
-8.56
-9.09
-9.43
-9.59
-9.68
-9.84
-10.16
-10.69
-11.39
-12.16
-12.91
-13.57
-14.13
-14.64
-15.19
-15.87
-16.69
-17.58
-18.41
-19.07
-19.46
-19.55
-19.34
-18.79
-17.85
-16.46
-14.67
-12.60
-10.50
-8.61
-7.08
-5.94
-5.07
-4.28
-3.43
-2.47
-1.45
-0.44
0.55
1.59
2.81
4.31
6.11
8.11
10.13
11.98
13.52
14.69
15.50
15.99
16.20
16.19
15.99
15.66
15.21
14.69
14.12
13.50
12.78
11.93
10.88
9.60
8.14
6.59
5.07
3.71
2.53
1.45
0.35
-0.84
-2.07
-3.25
-4.29
-5.08
-5.58
-5.85
-6.02
-6.22
-6.53
-6.95
-7.49
-8.18
-8.94
-9.62
-10.02
-9.95
-9.22
-7.67
-5.21
-1.95
1.76
5.56
9.19
12.57
15.79
19.01
22.48
26.41
30.79
34.73
37.13
37.57
36.63
35.06
32.96
29.99
25.81
20.56
14.90
9.98
6.36
4.26
3.47
3.40
3.53
3.66
3.83
4.13
4.45
4.71
4.71
4.17
2.82
0.73
-1.64
-3.66
-4.80
-5.05
-4.64
-3.85
-2.92
-2.27
-2.00
-1.87
-1.46
-0.37
1.16
2.63
3.52
3.34
1.42
-2.47
-7.94
-14.13
-19.96
-25.12
-29.58
-33.41
-33.88
-29.48
-20.93
-10.50
-1.92
5.10
10.90
15.44
19.10
21.77
23.05
22.83
21.56
19.91
18.69
17.89
17.26
16.65
16.02
15.26
14.40
13.65
13.19
13.15
13.14
12.82
12.07
10.97
9.41
7.30
4.60
1.37
-2.08
-5.59
-8.91
-11.79
-14.06
-15.73
-16.79
-17.09
-16.46
-14.86
-12.69
-10.73
-9.79
-10.40
-12.51
-15.42
-18.13
-19.78
-20.07
-19.38
-18.52
-18.26
-18.94
-20.38
-21.98
-23.05
-23.11
-22.04
-20.08
-17.68
-15.31
-13.38
-12.16
-11.76
-12.17
-13.24
-14.74
-16.41
-17.97
-19.18
-19.95
-20.32
-20.47
-20.65
-21.09
-21.96
-23.25
-24.78
-26.28
-27.42
-27.96
-27.84
-27.18
-26.30
-25.57
-25.28
-25.42
-25.67
-25.43
-24.12
-21.42
-17.40
-12.52
-7.38
-2.48
1.88
5.63
8.80
11.45
13.61
15.37
16.97
18.71
20.84
23.41
26.32
29.26
31.90
33.96
35.31
36.00
36.20
36.18
36.17
36.35
36.72
37.11
37.28
37.06
36.47
35.64
34.70
33.72
32.77
31.89
31.12
30.52
30.11
30.02
30.19
30.38
30.29
29.76
28.83
27.63
26.33
25.08
24.26
24.02
24.19
24.52
24.79
24.88
24.69
24.14
23.14
22.01
20.96
19.87
18.53
16.70
14.23
10.96
6.89
-0.29
-10.59
-22.00
-32.08
-39.57
-44.38
-46.75
-47.25
-46.13
-43.66
-40.03
-35.85
-32.01
-29.20
-27.40
-26.30
-25.41
-24.34
-22.97
-21.07
-18.66
-15.94
-13.21
-10.68
-8.54
-6.93
-5.85
-5.21
-4.65
-3.91
-2.90
-1.65
-0.32
0.91
1.86
2.44
2.66
2.69
2.54
2.11
1.31
0.07
-1.54
-3.24
-4.67
-5.42
-5.22
-4.04
-2.00
0.80
4.16
7.66
10.80
12.99
13.95
13.72
12.76
10.97
8.84
7.05
5.97
5.95
6.34
6.73
7.03
6.97
6.60
6.11
5.67
5.29
4.93
4.44
3.77
2.87
1.68
0.27
-1.17
-2.52
-3.70
-4.69
-5.50
-6.06
-6.31
-6.30
-6.10
-5.76
-5.36
-4.93
-4.45
-3.94
-3.36
-2.74
-2.12
-1.49
-0.82
-0.04
0.83
1.72
2.52
3.15
3.58
3.79
3.76
3.49
2.99
2.33
1.63
1.01
0.54
0.15
-0.31
-0.98
-1.93
-3.05
-4.18
-5.14
-5.82
-6.22
-6.36
-6.25
-5.87
-5.20
-4.27
-3.13
-1.84
-0.39
1.25
3.09
5.04
6.90
8.38
9.19
9.13
8.17
6.50
4.39
2.22
0.25
-1.34
-2.52
-3.39
-4.06
-4.65
-5.21
-5.72
-6.14
-6.46
-6.70
-6.91
-7.13
-7.37
-7.52
-7.42
-6.91
-5.89
-4.41
-2.73
-1.17
-0.08
0.35
0.13
-0.57
-1.45
-2.27
-2.86
-3.18
-3.26
-3.13
-2.84
-2.43
-1.95
-1.44
-1.01
-0.75
-0.73
-0.98
-1.41
-1.84
-2.11
-2.06
-1.70
-1.12
-0.47
0.11
0.56
0.88
1.15
1.42
1.74
2.13
2.63
3.25
4.00
4.83
5.64
6.30
6.70
6.78
6.56
6.07
5.39
4.56
3.65
2.69
1.73
0.83
0.02
-0.68
-1.24
-1.66
-1.96
-2.21
-2.48
-2.84
-3.35
-4.00
-4.75
-5.51
-6.23
-6.86
-7.33
-7.59
-7.56
-7.17
-6.42
-5.36
-4.14
-2.89
-1.75
-0.82
-0.11
0.43
0.90
1.38
1.88
2.38
2.79
3.04
3.11
3.06
2.95
2.83
2.70
2.47
2.10
1.54
0.85
0.17
-0.42
-0.91
-1.39
-2.03
-2.99
-4.30
-5.85
-7.40
-8.66
-9.38
-9.43
-8.80
-7.63
-6.09
-4.42
-2.83
-1.53
-0.63
-0.16
-0.02
-0.02
0.02
0.23
0.65
1.22
1.84
2.44
2.96
3.39
3.70
3.92
4.05
4.14
4.24
4.35
4.46
4.48
4.33
3.98
3.49
2.95
2.49
2.15
1.88
1.60
1.25
0.77
0.19
-0.48
-1.19
-1.89
-2.49
-2.86
-2.89
-2.49
-1.68
-0.58
0.58
1.59
2.30
2.65
2.69
2.53
2.31
2.15
2.11
2.19
2.32
2.45
2.52
2.51
2.41
2.21
1.93
1.55
1.08
0.54
-0.00
-0.52
-1.00
-1.46
-1.89
-2.32
-2.70
-3.00
-3.20
-3.34
-3.48
-3.72
-4.12
-4.66
-5.25
-5.74
-6.01
-5.97
-5.60
-4.96
-4.15
-3.29
-2.45
-1.66
-0.90
-0.12
0.67
1.46
2.16
2.72
3.08
3.28
3.36
3.40
3.44
3.49
3.53
3.51
3.44
3.27
3.02
2.66
2.22
1.73
1.21
0.71
0.20
-0.36
-1.04
-1.90
-2.87
-3.79
-4.40
-4.49
-3.93
-2.78
-1.25
0.38
1.89
3.16
4.23
5.14
5.95
6.67
7.25
7.66
7.89
8.02
8.15
8.35
8.69
9.12
9.58
9.96
10.20
10.29
10.31
10.34
10.42
10.52
10.52
10.30
9.80
9.01
7.99
6.80
5.49
4.09
2.64
1.26
0.08
-0.75
-1.17
-1.22
-1.06
-0.88
-0.83
-1.00
-1.38
-1.92
-2.56
-3.22
-3.85
-4.39
-4.78
-5.01
-5.11
-5.13
-5.12
-5.12
-5.13
-5.12
-5.09
-5.04
-4.97
-4.89
-4.76
-4.54
-4.22
-3.86
-3.57
-3.44
-3.47
-3.59
-3.71
-3.77
-3.81
-3.95
-4.29
-4.83
-5.44
-5.85
-5.84
-5.31
-4.35
-3.14
-1.92
-0.82
0.14
1.04
1.95
2.90
3.85
4.75
5.52
6.17
6.73
7.24
7.74
8.26
8.75
9.16
9.42
9.48
9.34
9.02
8.61
8.18
7.78
7.40
7.07
6.82
6.74
6.88
7.22
7.57
7.62
7.07
5.73
3.69
1.22
-1.26
-3.41
-5.05
-6.22
-7.03
-7.58
-7.91
-8.00
-7.84
-7.49
-7.09
-6.76
-6.54
-6.39
-6.21
-5.90
-5.49
-5.09
-4.89
-5.04
-5.60
-6.44
-7.33
-7.96
-8.12
-7.76
-7.05
-6.26
-5.72
-5.59
-5.86
-6.37
-6.91
-7.34
-7.61
-7.75
-7.83
-7.89
-7.97
-8.13
-8.43
-8.91
-9.55
-10.25
-10.82
-11.05
-10.80
-10.04
-8.91
-7.64
-6.46
-5.55
-4.98
-4.71
-4.66
-4.73
-4.86
-5.03
-5.22
-5.38
-5.44
-5.33
-5.04
-4.60
-4.07
-3.56
-3.15
-2.89
-2.80
-2.87
-3.07
-3.34
-3.60
-3.78
-3.82
-3.70
-3.42
-2.98
-2.36
-1.49
-0.26
1.44
3.62
6.20
8.99
11.80
14.47
16.93
19.20
21.31
23.27
25.05
26.57
27.77
28.58
28.96
28.89
28.33
27.28
25.80
23.99
21.99
19.90
17.77
15.59
13.31
10.89
8.31
5.65
3.03
0.61
-1.41
-2.84
-3.50
-3.35
-2.47
-1.10
0.46
1.93
3.16
4.11
4.76
5.07
4.95
4.34
3.28
1.97
0.68
-0.40
-1.29
-2.20
-3.40
-5.08
-7.16
-9.34
-11.29
-12.76
-13.75
-14.43
-15.08
-15.90
-16.97
-18.18
-19.35
-20.29
-20.92
-21.26
-21.42
-21.58
-21.82
-22.08
-22.18
-21.86
-20.85
-18.99
-16.25
-12.74
-8.70
-4.46
-0.36
3.31
6.38
8.82
10.71
12.19
13.41
14.41
15.18
15.66
15.84
15.73
15.43
15.04
14.60
14.15
13.63
13.01
12.26
11.36
10.33
9.17
7.88
6.43
4.80
3.05
1.28
-0.34
-1.65
-2.52
-2.91
-2.83
-2.36
-1.68
-0.98
-0.51
-0.44
-0.81
-1.51
-2.29
-2.92
-3.21
-3.11
-2.63
-1.77
-0.44
1.40
3.75
6.45
9.27
11.88
13.97
15.30
15.79
15.48
14.45
12.85
10.85
8.65
6.39
4.00
1.39
-1.42
-4.31
-7.06
-9.48
-11.45
-12.92
-13.95
-14.84
-15.88
-17.21
-18.90
-20.98
-23.42
-25.99
-28.30
-29.87
-30.61
-30.57
-29.93
-28.92
-27.86
-27.07
-26.78
-27.07
-25.88
-22.01
-15.56
-7.63
0.63
8.34
14.75
19.27
21.78
22.28
20.79
17.72
13.83
9.97
6.66
4.34
3.20
3.18
4.06
5.34
6.62
7.73
8.69
9.63
10.73
12.10
13.70
15.25
16.22
16.12
14.78
12.46
9.81
7.65
6.61
6.94
8.42
10.61
13.11
15.64
17.91
19.38
19.39
17.40
13.49
8.47
3.59
-0.09
-2.15
-3.05
-3.75
-5.10
-7.42
-10.51
-13.97
-17.60
-21.51
-25.80
-30.28
-34.18
-36.45
-36.18
-33.13
-27.89
-21.78
-16.33
-12.67
-11.12
-11.14
-11.65
-11.52
-10.07
-7.15
-3.05
1.59
5.84
8.55
8.59
5.47
-0.20
-6.58
-11.22
-12.21
-9.09
-3.07
3.74
9.44
13.24
15.52
17.13
18.53
19.47
19.25
17.48
14.48
11.26
8.91
7.93
8.06
8.43
8.14
6.68
4.21
1.43
-0.72
-1.46
-0.53
1.75
4.59
7.12
8.75
9.41
9.59
10.04
11.43
14.10
17.86
22.19
26.46
30.29
33.72
37.19
41.29
46.39
52.34
58.40
63.36
65.89
65.07
60.75
53.73
45.48
37.63
31.28
26.63
23.01
19.40
15.14
10.45
6.34
4.17
4.87
8.26
12.87
15.99
14.00
2.80
-21.27
-60.00
-111.87
-171.24
-228.95
-274.47
-299.02
-298.30
-273.79
-231.83
-181.22
-130.26
-84.73
-47.23
-17.96
3.92
19.31
28.87
33.33
33.86
32.24
30.38
29.67
30.54
32.25
33.56
33.48
31.98
29.96
28.80
29.63
32.85
37.94
43.76
49.09
53.10
55.55
56.80
57.62
58.74
60.51
62.76
64.83
65.86
65.21
62.73
58.86
54.37
50.11
46.62
43.96
41.80
39.61
36.96
33.65
29.74
25.51
21.28
17.31
13.78
10.81
8.51
6.98
6.30
6.43
7.24
8.46
9.82
11.12
12.23
13.03
13.33
12.89
11.50
9.11
5.96
2.56
-0.49
-2.69
-3.82
-3.96
-3.43
-2.62
-1.88
-1.43
-1.41
-1.82
-2.60
-3.58
-4.54
-5.23
-5.43
-5.06
-4.16
-2.88
-1.47
-0.14
0.94
1.76
2.34
2.79
3.15
3.47
3.75
3.97
4.17
4.36
4.54
4.63
4.48
3.90
2.71
0.86
-1.54
-4.22
-6.81
-8.96
-10.50
-11.42
-11.87
-12.09
-12.31
-12.64
-13.13
-13.73
-14.38
-15.03
-15.64
-16.19
-16.69
-17.12
-17.45
-17.60
-17.46
-16.92
-15.89
-14.40
-12.50
-10.32
-7.98
-5.63
-3.48
-1.76
-0.69
-0.38
-0.76
-1.53
-2.29
-2.68
-2.53
-1.90
-1.07
-0.35
-0.02
-0.21
-0.93
-2.04
-3.34
-4.56
-5.49
-6.05
-6.29
-6.43
-6.71
-7.35
-8.34
-9.48
-10.44
-10.87
-10.57
-9.56
-8.00
-6.17
-4.26
-2.39
-0.63
0.97
2.26
3.05
3.21
2.76
1.93
1.03
0.37
0.08
0.11
0.25
0.25
-0.03
-0.63
-1.45
-2.28
-2.96
-3.36
-3.47
-3.34
-3.05
-2.69
-2.31
-1.92
-1.52
-1.11
-0.68
-0.24
0.22
0.74
1.33
1.98
2.67
3.32
3.86
4.26
4.52
4.72
4.93
5.21
5.59
6.04
6.50
6.85
6.98
6.82
6.36
5.70
4.97
4.34
3.93
3.79
3.84
3.95
3.94
3.67
3.09
2.28
1.37
0.56
-0.04
-0.39
-0.56
-0.65
-0.73
-0.85
-0.98
-1.13
-1.32
-1.57
-1.90
-2.25
-2.51
-2.56
-2.36
-1.97
-1.49
-1.03
-0.65
-0.32
-0.01
0.25
0.46
0.58
0.63
0.69
0.88
1.23
1.70
2.17
2.50
2.62
2.52
2.28
1.96
1.59
1.20
0.79
0.39
0.03
-0.30
-0.64
-1.09
-1.70
-2.44
-3.20
-3.81
-4.15
-4.17
-3.92
-3.51
-3.03
-2.53
-2.07
-1.66
-1.33
-1.09
-0.96
-0.92
-0.92
-0.96
-1.03
-1.15
-1.34
-1.60
-1.90
-2.18
-2.41
-2.58
-2.71
-2.80
-2.87
-2.91
-2.97
-3.10
-3.32
-3.63
-3.95
-4.21
-4.32
-4.28
-4.15
-4.03
-4.02
-4.16
-4.41
-4.68
-4.86
-4.85
-4.62
-4.19
-3.62
-2.98
-2.34
-1.72
-1.13
-0.58
-0.06
0.37
0.72
0.96
1.10
1.15
1.12
1.04
0.93
0.81
0.68
0.55
0.35
0.02
-0.51
-1.24
-2.10
-2.97
-3.72
-4.23
-4.44
-4.37
-4.08
-3.65
-3.11
-2.52
-1.90
-1.29
-0.76
-0.36
-0.13
-0.06
-0.10
-0.19
-0.25
-0.25
-0.16
0.03
0.27
0.52
0.71
0.75
0.62
0.35
-0.01
-0.42
-0.88
-1.39
-1.96
-2.58
-3.24
-3.91
-4.57
-5.19
-5.69
-6.01
-6.09
-5.94
-5.59
-5.16
-4.75
-4.41
-4.18
-4.06
-4.08
-4.21
-4.42
-4.62
-4.73
-4.73
-4.65
-4.65
-4.93
-5.65
-6.87
-8.41
-10.05
-11.56
-12.80
-13.68
-14.22
-14.59
-14.94
-15.34
-15.67
-15.76
-15.49
-14.83
-13.71
-12.14
-10.28
-8.34
-6.44
-4.52
-2.40
0.15
3.40
7.80
13.59
20.53
27.83
34.42
39.29
41.79
41.89
38.84
32.94
25.78
19.39
14.99
12.61
11.69
11.57
11.69
11.64
11.38
10.98
10.56
10.17
9.83
9.50
9.05
8.33
7.27
6.16
5.29
4.68
4.24
3.55
2.44
0.98
-0.59
-1.99
-2.90
-3.22
-3.12
-2.99
-3.16
-3.77
-4.72
-5.75
-6.52
-6.69
-6.15
-4.99
-3.49
-1.97
-0.65
0.38
1.01
1.22
1.11
0.83
0.54
0.37
0.35
0.48
0.71
0.96
1.21
1.47
1.76
2.08
2.40
2.67
2.87
3.02
3.13
3.24
3.33
3.35
3.25
3.02
2.74
2.48
2.32
2.26
2.22
2.07
1.68
1.01
0.06
-1.08
-2.33
-3.56
-4.69
-5.65
-6.50
-7.25
-7.91
-8.48
-8.92
-9.21
-9.28
-9.06
-8.57
-7.93
-7.26
-6.69
-6.33
-6.29
-6.67
-7.33
-8.02
-8.45
-8.53
-8.17
-7.46
-6.51
-5.49
-4.49
-3.39
-1.97
-0.12
2.02
4.29
6.55
8.73
10.78
12.14
12.31
11.21
10.01
9.01
8.32
7.73
7.33
7.24
7.55
8.34
9.58
11.06
12.37
13.25
13.59
13.45
12.93
12.15
11.23
10.30
9.46
8.65
7.90
7.27
6.80
6.49
6.32
6.32
6.52
6.92
7.33
7.58
7.53
7.12
6.37
5.32
4.04
2.59
0.98
-0.78
-2.59
-4.28
-5.65
-6.59
-7.08
-7.21
-7.14
-6.99
-6.85
-6.71
-6.54
-6.29
-5.96
-5.61
-5.31
-5.10
-5.03
-5.11
-5.32
-5.63
-5.94
-6.19
-6.31
-6.29
-6.19
-6.12
-6.17
-6.40
-6.74
-7.08
-7.30
-7.32
-7.16
-6.90
-6.63
-6.43
-6.33
-6.34
-6.41
-6.52
-6.62
-6.64
-6.54
-6.25
-5.80
-5.24
-4.71
-4.32
-4.10
-4.00
-3.86
-3.53
-2.94
-2.13
-1.23
-0.34
0.46
1.16
1.78
2.27
2.59
2.66
2.53
2.29
2.11
2.12
2.32
2.61
2.89
3.07
3.17
3.27
3.40
3.56
3.63
3.51
3.13
2.54
1.86
1.25
0.81
0.58
0.49
0.42
0.27
-0.00
-0.32
-0.57
-0.64
-0.53
-0.30
-0.09
0.01
-0.01
-0.07
-0.08
0.02
0.21
0.39
0.46
0.39
0.26
0.20
0.35
0.73
1.28
1.87
2.39
2.81
3.18
3.56
3.97
4.40
4.77
4.98
5.01
4.84
4.46
3.90
3.16
2.31
1.44
0.64
0.02
-0.41
-0.66
-0.81
-0.93
-1.06
-1.24
-1.47
-1.74
-2.01
-2.21
-2.26
-2.10
-1.71
-1.18
-0.61
-0.14
0.12
0.12
-0.11
-0.57
-1.21
-1.97
-2.73
-3.33
-3.58
-3.28
-2.40
-1.05
0.51
1.97
3.06
3.68
3.96
4.12
4.39
4.90
5.59
6.27
6.74
6.87
6.62
6.09
5.38
4.55
3.62
2.58
1.47
0.37
-0.60
-1.32
-1.76
-1.97
-2.08
-2.27
-2.68
-3.37
-4.28
-5.27
-6.20
-6.95
-7.51
-7.91
-8.21
-8.42
-8.47
-8.26
-7.72
-6.86
-5.81
-4.79
-3.98
-3.45
-3.16
-2.98
-2.76
-2.43
-2.04
-1.71
-1.57
-1.71
-2.08
-2.58
-3.09
-3.50
-3.77
-3.89
-3.86
-3.67
-3.26
-2.66
-1.94
-1.24
-0.73
-0.48
-0.46
-0.56
-0.64
-0.60
-0.43
-0.16
0.17
0.54
0.93
1.30
1.55
1.58
1.31
0.76
0.04
-0.68
-1.26
-1.64
-1.87
-2.03
-2.21
-2.48
-2.84
-3.27
-3.71
-4.09
-4.30
-4.26
-3.94
-3.36
-2.58
-1.71
-0.85
-0.08
0.55
1.02
1.38
1.66
1.95
2.33
2.82
3.40
3.98
4.43
4.66
4.60
4.32
3.97
3.72
3.72
3.98
4.43
4.89
5.16
5.11
4.68
3.90
2.83
1.56
0.19
-1.15
-2.28
-3.04
-3.29
-3.01
-2.32
-1.50
-0.86
-0.67
-0.99
-1.75
-2.72
-3.64
-4.36
-4.82
-5.05
-5.10
-4.99
-4.74
-4.38
-3.95
-3.53
-3.21
-3.04
-3.00
-3.04
-3.05
-2.95
-2.71
-2.33
-1.88
-1.46
-1.16
-1.04
-1.08
-1.21
-1.35
-1.44
-1.43
-1.30
-1.07
-0.71
-0.27
0.21
0.63
0.84
0.75
0.33
-0.34
-1.10
-1.73
-2.07
-2.01
-1.56
-0.80
0.16
1.17
2.08
2.81
3.31
3.63
3.85
4.05
4.26
4.43
4.47
4.29
3.89
3.31
2.66
2.05
1.57
1.31
1.32
1.63
2.20
2.95
3.77
4.57
5.27
5.83
6.20
6.33
6.19
5.80
5.24
4.65
4.14
3.74
3.43
3.13
2.78
2.39
1.98
1.55
1.08
0.49
-0.24
-1.11
-2.04
-2.96
-3.83
-4.67
-5.55
-6.51
-7.49
-8.37
-8.96
-9.16
-8.97
-8.53
-8.04
-7.69
-7.56
-7.66
-7.88
-8.14
-8.40
-8.70
-9.05
-9.44
-9.81
-10.01
-9.95
-9.59
-9.01
-8.38
-7.87
-7.56
-7.46
-7.46
-7.39
-7.07
-6.36
-5.21
-3.65
-1.85
-0.02
1.60
2.89
3.90
4.90
6.28
8.36
11.26
14.81
18.58
22.08
24.90
26.79
27.73
27.84
27.32
26.41
25.36
24.34
23.47
22.76
22.13
21.42
20.48
19.22
17.59
15.70
13.64
11.60
9.74
8.19
7.00
6.12
5.44
4.82
4.14
3.38
2.63
2.07
1.96
2.53
3.91
6.04
8.64
11.28
13.48
14.90
15.38
15.01
13.98
12.45
10.56
8.37
5.92
3.35
0.81
-1.54
-3.66
-5.53
-7.23
-8.81
-10.28
-11.60
-12.73
-13.68
-14.46
-15.14
-15.76
-16.35
-16.92
-17.49
-18.02
-18.46
-18.71
-18.65
-18.16
-17.21
-15.88
-14.37
-12.95
-11.83
-11.12
-10.80
-10.69
-10.54
-10.15
-9.51
-8.72
-7.97
-7.36
-6.92
-6.57
-6.22
-5.75
-5.14
-4.49
-3.96
-3.61
-3.43
-3.32
-3.23
-3.14
-3.04
-2.88
-2.79
-2.87
-3.14
-3.49
-3.73
-3.77
-3.62
-3.32
-2.95
-2.81
-3.19
-4.25
-5.96
-8.29
-11.23
-14.79
-18.85
-21.73
-21.92
-18.98
-13.84
-7.96
-2.34
2.52
6.51
9.65
11.98
13.27
13.26
12.13
10.07
7.49
4.85
2.60
1.05
0.34
0.24
0.33
0.18
-0.47
-1.63
-3.30
-5.18
-6.76
-7.55
-7.29
-6.01
-3.88
-1.20
1.74
4.64
7.26
9.39
10.91
11.78
12.05
11.88
11.47
10.98
10.50
10.10
9.82
9.72
9.87
10.30
11.04
12.03
13.14
14.22
15.12
15.73
16.06
16.22
16.39
16.73
17.30
18.00
18.64
19.04
19.08
18.81
18.38
17.95
17.58
17.22
16.69
15.80
14.37
12.29
9.47
5.88
1.62
-3.05
-7.75
-12.04
-15.59
-18.31
-20.30
-21.71
-22.64
-23.01
-22.64
-21.42
-19.43
-16.96
-14.44
-12.23
-10.48
-9.14
-8.02
-6.93
-5.80
-4.71
-3.75
-3.02
-2.50
-2.10
-1.72
-1.26
-0.71
-0.12
0.43
0.91
1.30
1.65
1.99
2.32
2.63
2.92
3.22
3.61
4.14
4.81
5.53
6.18
6.65
6.91
6.99
6.95
6.83
6.58
6.12
5.43
4.51
3.45
2.38
1.35
0.40
-0.45
-1.19
-1.81
-2.28
-2.66
-3.01
-3.42
-3.88
-4.37
-4.83
-5.24
-5.64
-6.12
-6.69
-7.34
-7.94
-8.36
-8.52
-8.40
-8.11
-7.78
-7.52
-7.37
-7.32
-7.30
-7.30
-7.33
-7.39
-7.50
-7.59
-7.58
-7.38
-6.98
-6.40
-5.77
-5.19
-4.72
-4.37
-4.12
-3.94
-3.79
-3.69
-3.68
-3.83
-4.20
-4.80
-5.52
-6.19
-6.56
-6.50
-6.00
-5.22
-4.34
-3.54
-2.84
-2.19
-1.48
-0.67
0.27
1.26
2.26
3.18
3.99
4.66
5.19
5.61
5.97
6.31
6.63
6.90
7.11
7.28
7.50
7.85
8.32
8.81
9.11
9.04
8.53
7.67
6.67
5.77
5.11
4.76
4.67
4.78
5.06
5.43
5.83
6.16
6.32
6.27
6.02
5.67
5.30
4.94
4.58
4.18
3.70
3.17
2.64
2.20
1.86
1.63
1.45
1.21
0.85
0.34
-0.28
-0.93
-1.52
-1.99
-2.39
-2.79
-3.30
-3.92
-4.60
-5.19
-5.59
-5.73
-5.65
-5.44
-5.14
-4.77
-4.32
-3.82
-3.35
-3.01
-2.90
-3.06
-3.40
-3.78
-4.06
-4.15
-4.02
-3.72
-3.33
-2.93
-2.59
-2.40
-2.38
-2.50
-2.66
-2.74
-2.71
-2.60
-2.53
-2.61
-2.89
-3.32
-3.78
-4.12
-4.26
-4.23
-4.08
-3.89
-3.65
-3.29
-2.73
-1.96
-1.04
-0.12
0.65
1.21
1.59
1.90
2.29
2.87
3.65
4.62
5.73
6.93
8.21
9.48
10.64
11.51
11.94
11.85
11.25
10.26
8.99
7.53
5.90
4.12
2.18
0.19
-1.69
-3.23
-4.24
-4.65
-4.51
-4.02
-3.39
-2.84
-2.53
-2.52
-2.81
-3.33
-3.90
-4.35
-4.52
-4.33
-3.88
-3.34
-2.93
-2.79
-2.87
-3.05
-3.12
-2.97
-2.59
-2.11
-1.66
-1.34
-1.19
-1.16
-1.19
-1.20
-1.16
-1.05
-0.85
-0.59
-0.26
0.17
0.74
1.52
2.56
3.85
5.32
6.88
8.39
9.76
10.88
11.71
12.17
12.26
11.95
11.29
10.35
9.20
7.90
6.48
4.98
3.46
2.03
0.84
-0.06
-0.73
-1.31
-2.01
-2.97
-4.20
-5.61
-7.02
-8.24
-9.12
-9.58
-9.58
-9.15
-8.33
-7.25
-6.04
-4.87
-3.87
-3.09
-2.55
-2.24
-2.11
-2.14
-2.29
-2.48
-2.61
-2.61
-2.44
-2.17
-1.90
-1.72
-1.71
-1.84
-2.01
-2.15
-2.20
-2.17
-2.13
-2.10
-2.09
-2.05
-1.96
-1.79
-1.60
-1.45
-1.38
-1.36
-1.34
-1.23
-1.01
-0.69
-0.36
-0.09
0.04
0.03
-0.07
-0.18
-0.17
0.04
0.50
1.14
1.81
2.33
2.56
2.48
2.17
1.77
1.43
1.22
1.15
1.19
1.31
1.45
1.59
1.69
1.71
1.62
1.49
1.39
1.45
1.74
2.28
2.97
3.70
4.33
4.81
5.11
5.28
5.34
5.35
5.32
5.28
5.25
5.24
5.23
5.17
5.01
4.77
4.48
4.23
4.11
4.10
4.10
3.97
3.52
2.66
1.42
-0.05
-1.54
-2.81
-3.74
-4.27
-4.50
-4.58
-4.68
-4.92
-5.34
-5.88
-6.42
-6.87
-7.19
-7.39
-7.53
-7.65
-7.72
-7.68
-7.44
-6.95
-6.22
-5.35
-4.44
-3.59
-2.80
-2.09
-1.43
-0.87
-0.46
-0.26
-0.32
-0.61
-1.03
-1.50
-1.90
-2.20
-2.36
-2.39
-2.30
-2.10
-1.81
-1.45
-1.10
-0.83
-0.71
-0.72
-0.79
-0.78
-0.58
-0.15
0.40
0.89
1.12
1.02
0.67
0.25
-0.05
-0.13
-0.02
0.17
0.29
0.27
0.07
-0.29
-0.80
-1.42
-2.08
-2.65
-2.98
-2.97
-2.61
-1.99
-1.27
-0.60
-0.04
0.42
0.80
1.17
1.54
1.93
2.39
2.93
3.58
4.29
4.99
5.58
6.00
6.22
6.29
6.26
6.17
6.05
5.91
5.73
5.52
5.24
4.90
4.47
3.94
3.37
2.82
2.38
2.14
2.11
2.23
2.40
2.48
2.42
2.22
1.96
1.75
1.65
1.65
1.69
1.70
1.60
1.39
1.07
0.62
0.06
-0.57
-1.19
-1.71
-2.03
-2.10
-1.96
-1.72
-1.51
-1.50
-1.77
-2.34
-3.13
-3.96
-4.61
-4.87
-4.67
-4.05
-3.19
-2.28
-1.48
-0.87
-0.46
-0.23
-0.15
-0.16
-0.21
-0.26
-0.27
-0.25
-0.25
-0.33
-0.51
-0.76
-1.02
-1.24
-1.36
-1.38
-1.34
-1.29
-1.31
-1.52
-1.96
-2.66
-3.52
-4.35
-4.95
-5.13
-4.83
-4.11
-3.15
-2.15
-1.27
-0.58
-0.10
0.17
0.27
0.22
0.07
-0.07
-0.09
0.08
0.43
0.90
1.34
1.67
1.82
1.82
1.74
1.65
1.57
1.47
1.30
1.00
0.55
-0.01
-0.59
-1.07
-1.34
-1.34
-1.09
-0.64
-0.10
0.47
1.02
1.54
2.00
2.37
2.60
2.69
2.67
2.62
2.58
2.58
2.58
2.54
2.44
2.28
2.09
1.89
1.70
1.50
1.29
1.06
0.81
0.52
0.17
-0.26
-0.80
-1.43
-2.07
-2.64
-3.02
-3.11
-2.86
-2.30
-1.54
-0.76
-0.12
0.27
0.42
0.43
0.43
0.49
0.64
0.82
0.97
1.10
1.19
1.29
1.40
1.54
1.72
1.96
2.26
2.53
2.67
2.54
2.05
1.22
0.16
-0.98
-2.05
-2.96
-3.63
-4.01
-4.07
-3.77
-3.17
-2.40
-1.64
-1.05
-0.72
-0.64
-0.70
-0.76
-0.70
-0.44
0.04
0.67
1.29
1.70
1.75
1.40
0.80
0.20
-0.15
-0.11
0.27
0.80
1.21
1.33
1.10
0.53
-0.30
-1.32
-2.46
-3.60
-4.57
-5.22
-5.44
-5.26
-4.75
-4.05
-3.27
-2.49
-1.74
-1.07
-0.48
0.04
0.49
0.94
1.39
1.88
2.42
3.03
3.70
4.42
5.09
5.59
5.79
5.65
5.22
4.65
4.04
3.44
2.84
2.21
1.53
0.88
0.35
0.03
-0.06
0.06
0.33
0.65
0.94
1.12
1.17
1.09
0.92
0.74
0.55
0.39
0.26
0.19
0.24
0.48
0.87
1.34
1.75
1.96
1.92
1.67
1.31
0.92
0.57
0.28
0.04
-0.16
-0.34
-0.58
-0.96
-1.57
-2.41
-3.37
-4.22
-4.72
-4.73
-4.23
-3.35
-2.31
-1.32
-0.54
-0.02
0.30
0.50
0.69
0.94
1.23
1.53
1.78
1.96
2.05
2.07
2.01
1.87
1.65
1.36
1.05
0.80
0.63
0.55
0.51
0.41
0.18
-0.20
-0.69
-1.20
-1.63
-1.89
-1.89
-1.60
-1.04
-0.28
0.58
1.39
2.01
2.33
2.31
1.97
1.43
0.85
0.41
0.23
0.36
0.75
1.28
1.80
2.17
2.35
2.32
2.16
1.92
1.63
1.32
0.97
0.55
0.06
-0.46
-0.98
-1.43
-1.76
-1.93
-1.92
-1.76
-1.50
-1.15
-0.74
-0.27
0.26
0.80
1.34
1.84
2.26
2.58
2.77
2.83
2.75
2.58
2.37
2.14
1.93
1.73
1.55
1.39
1.27
1.20
1.11
0.93
0.59
0.09
-0.51
-1.05
-1.41
-1.53
-1.42
-1.14
-0.75
-0.32
0.15
0.59
0.98
1.26
1.43
1.53
1.60
1.69
1.83
2.01
2.21
2.43
2.65
2.86
3.04
3.17
3.23
3.27
3.34
3.47
3.66
3.81
3.83
3.61
3.14
2.44
1.62
0.78
0.04
-0.52
-0.84
-0.93
-0.85
-0.72
-0.67
-0.83
-1.18
-1.65
-2.09
-2.33
-2.33
-2.13
-1.86
-1.66
-1.62
-1.72
-1.90
-2.07
-2.21
-2.34
-2.52
-2.73
-2.94
-3.08
-3.11
-3.06
-3.01
-3.07
-3.31
-3.71
-4.19
-4.61
-4.83
-4.76
-4.41
-3.82
-3.10
-2.35
-1.67
-1.09
-0.61
-0.21
0.13
0.37
0.49
0.49
0.38
0.26
0.20
0.29
0.49
0.70
0.75
0.52
-0.04
-0.87
-1.82
-2.73
-3.52
-4.18
-4.78
-5.42
-6.14
-6.87
-7.48
-7.84
-7.83
-7.45
-6.81
-6.05
-5.28
-4.57
-3.90
-3.24
-2.55
-1.83
-1.11
-0.48
-0.02
0.24
0.35
0.43
0.60
1.01
1.71
2.64
3.54
4.14
4.24
3.88
3.29
2.80
2.66
2.94
3.42
3.64
3.18
1.88
-0.07
-2.27
-4.25
-5.64
-6.17
-5.73
-4.41
-2.48
-0.40
1.23
1.74
0.62
-2.22
-5.90
-8.65
-8.77
-5.86
-0.88
4.55
8.95
11.54
12.34
12.03
11.32
10.53
9.58
8.29
6.61
4.77
3.32
2.53
2.49
2.91
3.17
2.70
1.27
-0.91
-3.28
-5.24
-6.34
-6.42
-5.68
-4.59
-3.63
-3.17
-3.28
-3.86
-4.68
-5.50
-6.14
-6.45
-6.43
-6.05
-5.26
-4.00
-2.29
-0.26
1.84
3.72
5.14
6.00
6.35
6.32
6.06
5.67
5.18
4.61
3.99
3.38
2.85
2.42
2.09
1.85
1.66
1.52
1.38
1.20
0.94
0.58
0.16
-0.25
-0.63
-0.95
-1.25
-1.54
-1.80
-1.95
-1.90
-1.59
-1.07
-0.47
0.04
0.35
0.45
0.42
0.39
0.47
0.67
0.93
1.16
1.28
1.28
1.26
1.37
1.78
2.66
4.10
6.17
8.84
11.99
15.36
18.54
21.08
22.59
22.88
21.99
20.21
17.90
15.47
13.22
11.37
10.03
9.21
8.87
8.86
8.95
8.86
8.36
7.32
5.74
3.77
1.67
-0.34
-2.06
-3.44
-4.57
-5.62
-6.76
-8.11
-9.64
-11.23
-12.69
-13.85
-14.64
-15.10
-15.37
-15.58
-15.82
-16.09
-16.28
-16.29
-16.05
-15.52
-14.74
-13.76
-12.65
-11.51
-10.48
-9.72
-9.36
-9.43
-9.88
-10.50
-11.11
-11.54
-11.76
-11.88
-12.10
-12.61
-13.53
-14.81
-16.32
-17.79
-18.91
-19.38
-18.99
-17.68
-15.59
-12.99
-10.24
-7.64
-5.37
-3.40
-1.53
0.46
2.70
5.16
7.67
9.92
11.63
12.60
12.88
12.71
12.39
12.18
12.23
12.63
13.37
14.32
15.27
16.08
16.66
16.93
16.85
16.46
15.97
15.58
15.26
14.86
14.28
13.49
12.50
11.30
9.90
8.40
6.83
4.90
2.27
-1.19
-5.39
-10.06
-14.99
-19.98
-24.82
-27.85
-27.82
-24.75
-19.92
-14.75
-10.11
-6.40
-4.26
-3.27
-3.04
-3.41
-4.19
-5.09
-5.84
-5.91
-5.29
-4.22
-2.89
-1.56
-0.54
-0.00
0.11
0.05
0.15
0.56
1.33
2.49
3.91
5.25
6.24
6.70
6.69
6.41
6.02
5.63
5.31
4.96
4.40
3.53
2.42
1.30
0.43
-0.06
-0.24
-0.25
-0.34
-0.69
-1.32
-2.11
-2.88
-3.49
-3.90
-4.14
-4.21
-4.10
-3.75
-3.14
-2.37
-1.62
-1.08
-0.88
-0.98
-1.19
-1.30
-1.16
-0.73
-0.13
0.50
1.04
1.46
1.79
2.13
2.56
3.16
3.94
4.86
5.79
6.59
7.14
7.41
7.43
7.30
7.09
6.83
6.47
6.00
5.43
4.81
4.16
3.46
2.67
1.72
0.68
-0.31
-1.07
-1.52
-1.69
-1.76
-1.92
-2.27
-2.77
-3.30
-3.72
-3.94
-3.91
-3.65
-3.18
-2.58
-1.94
-1.40
-1.04
-0.87
-0.83
-0.76
-0.56
-0.20
0.27
0.74
1.16
1.52
1.87
2.25
2.70
3.19
3.72
4.27
4.84
5.42
5.97
6.44
6.79
7.02
7.15
7.19
7.17
7.10
6.99
6.90
6.87
6.92
7.00
7.02
6.87
6.48
5.90
5.23
4.62
4.12
3.75
3.42
3.03
2.49
1.80
1.02
0.25
-0.37
-0.72
-0.70
-0.27
0.51
1.55
2.66
3.68
4.50
5.05
5.34
5.44
5.42
5.36
5.35
5.51
5.90
6.55
7.40
8.28
9.03
9.54
9.87
10.20
10.74
11.62
12.70
13.68
14.10
13.57
11.91
9.18
5.69
1.87
-1.84
-5.06
-7.50
-9.02
-9.67
-9.66
-9.33
-9.06
-9.10
-9.46
-9.95
-10.28
-10.24
-9.79
-9.09
-8.41
-7.96
-7.84
-7.98
-8.27
-8.61
-8.96
-9.33
-9.71
-10.08
-10.35
-10.44
-10.34
-10.05
-9.65
-9.21
-8.79
-8.40
-8.03
-7.66
-7.27
-6.88
-6.51
-6.21
-6.00
-5.87
-5.80
-5.69
-5.52
-5.27
-5.02
-4.86
-4.90
-5.16
-5.59
-6.07
-6.47
-6.69
-6.66
-6.36
-5.81
-5.04
-4.10
-3.05
-2.00
-1.02
-0.17
0.51
1.02
1.36
1.51
1.49
1.33
1.11
0.88
0.69
0.49
0.20
-0.26
-0.87
-1.54
-2.13
-2.56
-2.84
-3.06
-3.32
-3.66
-4.04
-4.35
-4.53
-4.59
-4.58
-4.51
-4.36
-4.07
-3.61
-3.09
-2.64
-2.38
-2.31
-2.26
-2.02
-1.46
-0.62
0.29
1.06
1.54
1.77
1.96
2.34
3.04
4.04
5.21
6.30
7.12
7.53
7.51
7.11
6.44
5.62
4.79
4.07
3.58
3.35
3.34
3.43
3.46
3.35
3.10
2.85
2.75
2.91
3.34
3.97
4.70
5.47
6.31
7.23
8.18
9.09
9.79
10.22
10.37
10.39
10.42
10.56
10.83
11.18
11.53
11.82
12.06
12.26
12.42
12.55
12.64
12.70
12.77
12.90
13.09
13.34
13.57
13.73
13.74
13.58
13.26
12.82
12.29
11.71
11.12
10.49
9.75
8.81
7.62
6.18
4.59
3.01
1.58
0.37
-0.65
-1.58
-2.53
-3.55
-4.64
-5.75
-6.86
-7.96
-9.10
-10.33
-11.69
-13.21
-14.87
-16.63
-18.43
-20.18
-21.79
-23.17
-24.28
-25.10
-25.63
-25.86
-25.77
-25.37
-24.73
-23.94
-23.14
-22.47
-22.03
-21.87
-21.98
-22.24
-22.50
-22.56
-22.27
-21.56
-20.47
-19.18
-17.92
-16.88
-16.15
-15.72
-15.45
-15.13
-14.48
-13.12
-10.76
-7.28
-2.85
1.99
6.51
10.05
12.28
13.28
13.46
13.31
13.12
12.91
12.51
11.79
10.82
9.85
9.19
8.95
8.98
8.94
8.50
7.50
6.07
4.48
3.03
1.84
0.89
-0.01
-1.02
-2.24
-3.65
-5.18
-6.69
-8.05
-9.17
-9.98
-10.46
-10.64
-10.57
-10.24
-9.57
-8.44
-6.79
-4.67
-2.20
0.45
3.19
6.04
9.05
12.22
15.39
18.27
20.62
22.43
23.95
25.55
27.49
29.84
32.40
34.84
36.82
38.16
38.80
38.75
37.88
36.04
33.08
29.04
24.14
18.63
12.77
6.80
0.87
-4.92
-10.51
-15.71
-20.24
-23.72
-26.02
-27.16
-27.30
-26.74
-25.75
-24.53
-22.97
-20.72
-16.70
-10.76
-3.87
2.56
7.53
10.79
12.47
13.23
13.28
12.66
11.21
8.99
6.29
3.62
1.27
-0.59
-2.10
-3.52
-5.04
-6.71
-8.11
-8.48
-7.17
-3.58
1.43
5.82
7.81
7.03
4.42
1.47
-0.73
-1.88
-2.40
-2.97
-4.22
-5.78
-6.93
-7.20
-6.51
-5.14
-3.57
-2.27
-1.57
-1.52
-1.89
-2.12
-2.07
-1.85
-1.67
-1.68
-1.88
-2.25
-2.69
-3.11
-3.53
-4.09
-4.88
-5.90
-6.99
-7.95
-8.64
-8.99
-8.96
-8.57
-7.92
-7.09
-6.13
-5.11
-4.07
-3.08
-2.17
-1.31
-0.42
0.57
1.74
3.14
4.72
6.42
8.14
9.79
11.34
12.77
14.04
15.09
15.85
16.26
16.31
16.05
15.62
15.12
14.64
14.22
13.83
13.42
12.97
12.45
11.84
11.10
10.14
8.91
7.43
5.78
4.15
2.74
1.70
1.03
0.62
0.24
-0.35
-1.31
-2.68
-4.36
-6.17
-7.91
-9.50
-10.92
-12.27
-13.65
-15.12
-16.67
-18.22
-19.63
-20.71
-21.27
-21.15
-20.32
-19.04
-17.81
-17.22
-17.62
-18.86
-20.30
-21.07
-20.50
-18.51
-15.52
-12.26
-9.35
-7.02
-5.19
-3.65
-2.28
-1.08
-0.04
0.92
1.95
3.05
3.98
4.26
3.48
1.56
-1.06
-3.62
-5.35
-5.86
-5.24
-4.01
-2.82
-2.18
-2.34
-3.21
-4.44
-5.54
-6.08
-5.80
-4.77
-3.34
-2.04
-1.30
-1.33
-2.03
-3.08
-4.12
-4.79
-4.83
-4.06
-2.43
-0.12
2.46
4.75
6.24
6.69
6.20
5.11
3.83
2.65
1.70
0.98
0.52
0.45
0.95
2.19
4.15
6.62
9.18
11.42
13.07
14.06
14.55
14.77
14.88
14.93
14.77
14.31
13.50
12.50
11.51
10.72
10.19
9.89
9.74
9.69
9.71
9.75
9.77
9.70
9.55
9.39
9.37
9.61
10.11
10.74
11.29
11.55
11.43
10.99
10.40
9.81
9.35
9.00
8.68
8.22
7.43
6.15
4.37
2.23
0.05
-1.85
-3.24
-4.09
-4.60
-4.99
-5.39
-5.82
-6.12
-6.20
-6.09
-5.94
-6.01
-6.45
-7.21
-8.07
-8.70
-8.84
-8.36
-7.36
-6.12
-4.97
-4.21
-4.00
-4.33
-5.05
-5.97
-6.89
-7.64
-8.12
-8.28
-8.15
-7.85
-7.58
-7.52
-7.80
-8.39
-9.16
-9.89
-10.41
-10.66
-10.68
-10.59
-10.45
-10.26
-9.91
-9.27
-8.24
-6.80
-5.01
-2.96
-0.78
1.40
3.44
5.16
6.46
7.28
7.67
7.79
7.81
7.84
7.88
7.80
7.48
6.85
5.93
4.84
3.74
2.72
1.84
1.03
0.23
-0.63
-1.55
-2.47
-3.32
-4.07
-4.71
-5.28
-5.81
-6.29
-6.61
-6.71
-6.59
-6.36
-6.19
-6.16
-6.13
-5.75
-4.59
-2.38
0.80
4.47
8.00
10.89
12.99
14.57
16.06
17.82
19.90
22.07
24.01
25.47
26.39
26.82
26.76
26.02
24.30
21.37
17.28
12.51
7.81
3.97
1.51
0.44
0.36
0.66
0.75
0.34
-0.55
-1.64
-2.61
-3.15
-3.13
-2.57
-1.64
-0.56
0.42
1.19
1.72
2.09
2.42
2.79
3.20
3.58
3.79
3.72
3.32
2.62
1.76
0.91
0.27
-0.07
-0.12
0.00
0.07
-0.11
-0.69
-1.68
-3.00
-4.50
-6.00
-7.31
-8.32
-9.03
-9.60
-10.29
-11.37
-12.99
-15.07
-17.32
-19.33
-20.76
-21.43
-21.38
-20.81
-19.97
-19.04
-18.11
-17.17
-16.21
-15.29
-14.48
-13.85
-13.35
-12.84
-12.10
-11.04
-9.72
-8.42
-7.55
-7.37
-7.90
-8.78
-9.42
-9.18
-7.71
-5.01
-1.48
2.29
5.73
8.54
10.71
12.46
14.07
15.68
17.27
18.63
19.52
19.67
18.93
17.26
14.71
11.51
8.02
4.69
1.93
0.01
-1.03
-1.33
-1.19
-0.84
-0.43
0.01
0.48
0.96
1.34
1.49
1.33
0.92
0.42
0.04
-0.06
0.13
0.51
0.88
1.10
1.12
1.00
0.88
0.87
1.03
1.35
1.76
2.19
2.59
2.95
3.31
3.75
4.32
5.07
5.96
6.89
7.70
8.22
8.30
7.85
6.85
5.38
3.57
1.67
-0.09
-1.51
-2.57
-3.35
-4.06
-4.89
-5.90
-7.04
-8.13
-9.03
-9.66
-10.04
-10.28
-10.48
-10.69
-10.86
-10.94
-10.84
-10.58
-10.29
-10.19
-10.51
-11.36
-12.66
-14.09
-15.23
-15.75
-15.53
-14.75
-13.84
-13.23
-13.19
-13.76
-14.70
-15.67
-16.36
-16.63
-16.46
-15.93
-15.14
-14.11
-12.90
-11.59
-10.32
-9.31
-8.67
-8.34
-8.07
-7.52
-6.46
-4.87
-2.95
-0.98
0.94
2.94
5.37
8.54
12.48
16.84
20.99
24.29
26.37
27.20
27.10
26.50
25.85
25.54
25.89
27.15
29.41
32.49
35.88
38.83
40.49
40.12
37.30
32.01
24.62
15.87
6.72
-1.90
-9.24
-14.92
-18.93
-21.52
-23.03
-23.75
-23.89
-23.59
-23.02
-22.38
-21.80
-21.35
-21.00
-20.64
-20.18
-19.56
-18.77
-17.86
-16.86
-15.87
-14.93
-14.00
-13.00
-11.73
-10.00
-7.74
-5.04
-2.21
0.39
2.44
3.82
4.62
5.08
5.51
6.16
7.16
8.54
10.25
12.09
13.79
14.96
15.25
14.58
13.27
11.95
11.31
11.77
13.25
15.23
17.07
18.35
19.05
19.54
20.21
21.28
22.60
23.81
24.54
24.60
24.08
23.18
22.18
21.25
20.51
19.93
19.45
18.98
18.47
17.92
17.42
17.06
16.89
16.86
16.76
16.34
15.35
13.62
11.08
7.82
4.04
0.02
-3.94
-7.58
-10.78
-13.56
-16.08
-18.57
-21.21
-24.04
-26.96
-29.78
-32.22
-34.11
-35.37
-36.08
-36.39
-36.50
-36.49
-36.11
-34.79
-31.73
-26.36
-18.78
-9.84
-0.98
6.42
11.60
14.66
16.43
17.96
19.87
22.20
24.55
26.46
27.57
27.64
26.29
23.15
18.17
11.71
4.68
-1.51
-5.54
-6.71
-5.14
-1.82
2.19
6.39
10.40
13.86
16.42
17.61
16.97
14.38
9.85
4.11
-1.41
-5.83
-9.05
-11.66
-14.97
-20.61
-29.81
-43.05
-58.96
-74.17
-85.40
-90.39
-88.40
-80.38
-68.37
-52.05
-33.25
-17.03
-4.11
6.39
14.62
20.53
24.20
26.06
26.82
26.86
26.69
27.10
27.92
28.40
27.87
26.03
23.06
19.56
16.00
12.99
11.33
11.03
11.56
12.32
12.76
12.53
11.51
9.62
7.13
4.70
2.71
1.19
0.05
-0.87
-1.68
-2.33
-2.78
-2.90
-2.57
-2.00
-1.56
-1.57
-2.10
-2.96
-3.79
-4.33
-4.47
-4.26
-3.91
-3.61
-3.41
-3.22
-2.85
-2.16
-1.16
0.07
1.31
2.38
3.11
3.45
3.40
3.05
2.57
2.15
1.98
2.22
2.95
4.10
5.55
7.06
8.40
9.39
9.92
9.99
9.65
9.04
8.28
7.44
6.56
5.60
4.56
3.45
2.34
1.32
0.51
0.04
-0.04
0.24
0.73
1.21
1.41
1.19
0.54
-0.37
-1.30
-2.01
-2.37
-2.40
-2.21
-1.93
-1.64
-1.38
-1.14
-0.94
-0.82
-0.81
-0.93
-1.17
-1.47
-1.79
-2.05
-2.23
-2.29
-2.28
-2.25
-2.30
-2.49
-2.82
-3.19
-3.45
-3.48
-3.25
-2.87
-2.51
-2.31
-2.30
-2.39
-2.40
-2.21
-1.79
-1.23
-0.64
-0.11
0.35
0.75
1.08
1.31
1.35
1.16
0.79
0.35
-0.02
-0.20
-0.16
0.04
0.30
0.52
0.62
0.60
0.46
0.27
0.07
-0.10
-0.25
-0.43
-0.70
-1.05
-1.43
-1.68
-1.63
-1.18
-0.34
0.79
2.02
3.21
4.27
5.16
5.90
6.48
6.86
7.01
6.93
6.66
6.30
5.95
5.66
5.46
5.35
5.27
5.14
4.88
4.39
3.69
2.84
1.94
1.13
0.45
-0.14
-0.73
-1.40
-2.19
-3.02
-3.76
-4.27
-4.48
-4.44
-4.23
-3.98
-3.75
-3.55
-3.35
-3.11
-2.86
-2.64
-2.54
-2.59
-2.76
-2.95
-3.06
-3.02
-2.84
-2.62
-2.47
-2.49
-2.69
-3.01
-3.38
-3.73
-4.04
-4.38
-4.78
-5.29
-5.86
-6.38
-6.72
-6.77
-6.45
-5.81
-4.94
-3.94
-2.90
-1.86
-0.83
0.18
1.19
2.16
3.05
3.85
4.57
5.23
5.87
6.51
7.13
7.70
8.16
8.48
8.63
8.59
8.33
7.80
7.01
5.97
4.76
3.47
2.20
1.03
-0.03
-0.99
-1.82
-2.52
-3.05
-3.39
-3.56
-3.60
-3.60
-3.62
-3.75
-4.04
-4.53
-5.20
-5.98
-6.77
-7.42
-7.88
-8.12
-8.21
-8.22
-8.21
-8.20
-8.22
-8.33
-8.58
-8.98
-9.42
-9.72
-9.70
-9.27
-8.54
-7.69
-6.94
-6.34
-5.77
-5.04
-4.00
-2.63
-1.04
0.57
2.03
3.26
4.25
5.00
5.51
5.79
5.88
5.84
5.82
5.91
6.16
6.52
6.87
7.04
6.92
6.52
5.95
5.36
4.90
4.57
4.28
3.88
3.24
2.33
1.21
0.03
-1.02
-1.77
-2.09
-1.96
-1.41
-0.60
0.26
1.01
1.54
1.83
1.93
1.86
1.65
1.27
0.78
0.28
-0.10
-0.23
-0.13
0.07
0.21
0.16
-0.12
-0.51
-0.89
-1.14
-1.26
-1.26
-1.20
-1.12
-1.04
-1.00
-1.06
-1.30
-1.72
-2.20
-2.56
-2.54
-2.03
-1.04
0.21
1.42
2.34
2.86
3.06
3.12
3.21
3.41
3.68
3.92
4.08
4.16
4.19
4.21
4.15
3.87
3.24
2.22
0.97
-0.23
-1.10
-1.51
-1.54
-1.46
-1.60
-2.16
-3.13
-4.29
-5.32
-5.95
-6.07
-5.72
-5.10
-4.39
-3.79
-3.40
-3.27
-3.40
-3.79
-4.37
-5.08
-5.83
-6.56
-7.18
-7.66
-7.98
-8.15
-8.17
-8.08
-7.91
-7.73
-7.58
-7.51
-7.54
-7.69
-7.92
-8.19
-8.42
-8.57
-8.59
-8.42
-8.04
-7.38
-6.43
-5.19
-3.67
-1.98
-0.24
1.46
3.03
4.48
5.81
6.95
7.73
7.92
7.38
6.15
4.57
3.13
2.31
2.33
3.06
4.11
5.03
5.56
5.72
5.72
5.81
6.10
6.52
6.89
7.04
6.94
6.70
6.50
6.50
6.73
7.08
7.35
7.39
7.11
6.55
5.84
5.13
4.53
4.09
3.78
3.60
3.57
3.74
4.19
4.92
5.91
7.05
8.22
9.27
10.09
10.62
10.84
10.82
10.62
10.32
10.00
9.71
9.48
9.32
9.19
9.02
8.69
8.11
7.25
6.21
5.14
4.26
3.67
3.35
3.20
3.11
3.00
2.94
3.12
3.72
4.86
6.52
8.51
10.49
12.07
12.89
12.76
11.72
10.10
8.43
7.33
7.32
8.66
11.23
14.48
17.49
19.22
18.85
16.08
11.28
5.37
-0.53
-5.54
-9.26
-11.74
-13.31
-14.25
-14.66
-14.52
-13.85
-12.85
-11.85
-11.18
-10.96
-11.04
-11.10
-10.86
-10.20
-9.26
-8.27
-7.44
-6.80
-6.17
-5.25
-3.76
-1.56
1.27
4.46
7.62
10.29
12.02
12.43
11.31
8.66
4.74
0.04
-4.86
-9.39
-13.10
-15.73
-17.13
-17.24
-16.06
-13.65
-10.22
-6.09
-1.70
2.50
6.12
8.89
10.65
11.31
10.86
9.37
7.13
4.66
2.67
1.94
3.01
5.97
10.31
15.01
18.81
20.56
19.56
15.72
9.56
2.06
-5.63
-12.44
-17.59
-20.62
-21.38
-19.88
-16.21
-10.51
-3.15
4.99
12.47
17.51
18.48
14.60
6.42
-4.24
-14.90
-23.27
-28.04
-28.97
-26.51
-21.33
-14.04
-5.38
3.31
10.05
12.65
9.63
1.02
-11.46
-25.02
-37.01
-45.83
-51.23
-53.80
-54.07
-52.01
-47.20
-39.52
-29.72
-19.46
-10.63
-4.55
-1.42
-0.41
-0.45
-0.99
-2.26
-4.74
-8.23
-11.48
-12.48
-9.66
-2.92
6.02
14.47
20.06
21.93
20.81
18.26
15.57
13.10
10.49
7.49
4.51
2.59
2.66
4.80
8.03
10.87
12.24
12.13
11.57
11.87
13.82
17.12
20.60
22.89
23.18
21.60
19.00
16.37
14.26
12.62
10.92
8.60
5.44
1.73
-1.89
-4.72
-6.38
-6.87
-6.53
-5.82
-5.10
-4.44
-3.78
-3.04
-2.32
-1.89
-2.04
-2.85
-4.08
-5.21
-5.70
-5.28
-4.09
-2.56
-1.21
-0.34
-0.06
-0.28
-0.86
-1.68
-2.67
-3.76
-4.88
-5.99
-7.07
-8.08
-8.96
-9.52
-9.63
-9.15
-8.10
-6.68
-5.12
-3.67
-2.43
-1.34
-0.30
0.74
1.68
2.27
2.17
1.18
-0.61
-2.82
-4.82
-5.96
-5.92
-4.74
-2.83
-0.71
1.14
2.34
2.66
1.91
0.08
-2.65
-5.64
-7.96
-8.72
-7.39
-4.16
0.17
4.42
7.51
8.84
8.51
7.09
5.36
4.01
3.30
3.15
3.22
3.11
2.68
2.15
1.80
1.77
1.78
1.23
-0.37
-3.04
-6.11
-8.52
-9.46
-8.77
-7.09
-5.38
-4.45
-4.44
-4.83
-4.84
-4.01
-2.50
-1.07
-0.62
-1.73
-4.30
-7.62
-10.74
-12.95
-13.93
-14.04
-13.87
-13.83
-13.91
-13.54
-11.89
-8.26
-2.50
4.89
12.82
20.06
25.62
29.03
30.31
29.70
27.53
24.09
19.87
15.65
12.44
11.14
12.08
14.76
17.97
20.33
20.86
19.39
16.61
13.63
11.37
10.03
9.16
8.11
6.54
4.74
3.37
2.96
3.45
4.04
3.67
1.71
-1.53
-4.92
-7.19
-7.75
-6.99
-6.03
-5.92
-7.04
-9.00
-11.01
-12.48
-13.24
-13.50
-13.46
-13.11
-12.15
-10.30
-7.53
-4.20
-1.00
1.36
2.42
2.05
0.48
-1.78
-4.23
-6.41
-8.11
-9.34
-10.17
-10.66
-10.74
-10.35
-9.62
-8.93
-8.74
-9.35
-10.65
-12.11
-13.06
-12.99
-11.82
-9.92
-7.81
-5.75
-3.56
-0.90
2.40
5.97
9.07
10.89
10.84
8.86
5.50
1.65
-1.82
-4.25
-5.46
-5.43
-4.19
-1.79
1.66
5.98
10.70
14.93
17.56
17.12
13.17
7.19
1.78
-1.08
-0.87
1.64
5.17
8.83
12.05
14.58
16.30
16.83
15.78
13.25
9.95
6.62
4.33
3.40
3.59
4.10
3.78
1.93
-1.11
-4.01
-5.01
-2.71
2.83
10.26
17.39
21.44
20.14
12.88
1.07
-12.35
-22.13
-25.45
-23.02
-16.08
-6.96
2.01
9.21
13.92
16.02
15.68
12.84
7.84
1.78
-3.93
-7.87
-9.13
-7.55
-3.86
0.60
4.21
5.82
5.23
2.93
0.07
-2.09
-2.60
-1.28
1.31
4.04
6.04
7.13
7.66
8.21
9.14
10.23
10.81
10.22
8.15
4.93
1.33
-1.91
-4.39
-6.05
-6.93
-7.04
-6.18
-4.20
-1.21
2.21
5.07
6.32
5.38
2.36
-1.96
-6.53
-10.45
-13.22
-14.79
-15.34
-15.03
-13.93
-12.04
-9.48
-6.59
-3.99
-2.34
-2.14
-3.44
-5.88
-8.85
-11.72
-14.12
-15.84
-16.85
-17.03
-16.08
-13.67
-9.78
-4.91
-0.16
3.26
4.58
3.78
1.65
-0.76
-2.61
-3.68
-4.16
-4.33
-4.22
-3.51
-1.82
0.93
4.27
7.34
9.39
10.16
9.96
9.40
9.01
8.87
8.68
8.08
6.97
5.70
4.93
5.19
6.69
9.22
12.16
14.66
15.97
15.69
13.88
10.91
7.20
3.27
-0.30
-3.21
-5.37
-6.98
-8.25
-9.46
-10.96
-13.24
-16.40
-19.86
-22.67
-23.95
-23.40
-21.19
-17.98
-14.73
-12.62
-12.34
-13.67
-15.74
-17.35
-17.33
-14.59
-8.71
1.02
12.37
21.04
23.85
21.10
15.94
11.14
8.20
7.26
7.51
8.00
8.02
7.58
7.15
7.16
7.68
8.60
9.61
10.20
9.87
8.49
6.63
5.16
4.66
5.21
6.47
7.91
8.92
9.06
8.21
6.79
5.36
4.27
3.54
3.02
2.47
1.67
0.51
-0.91
-2.23
-3.07
-3.28
-3.04
-2.71
-2.71
-3.35
-4.78
-6.94
-9.64
-12.59
-15.52
-18.15
-20.08
-20.84
-19.95
-17.10
-12.33
-6.10
0.78
7.31
12.61
16.14
17.82
17.99
17.25
16.18
15.18
14.40
13.76
13.08
12.18
10.97
9.47
7.76
5.90
3.96
2.01
0.12
-1.61
-3.11
-4.38
-5.47
-6.48
-7.45
-8.31
-8.97
-9.27
-9.15
-8.64
-7.86
-6.96
-6.02
-5.10
-4.16
-3.16
-2.04
-0.81
0.49
1.78
2.95
3.87
4.42
4.51
4.15
3.39
2.42
1.45
0.70
0.28
0.18
0.22
0.17
-0.19
-0.92
-1.90
-2.91
-3.73
-4.23
-4.42
-4.36
-4.11
-3.69
-3.09
-2.33
-1.49
-0.69
-0.07
0.31
0.47
0.53
0.59
0.70
0.83
0.89
0.82
0.66
0.51
0.48
0.65
1.00
1.44
1.85
2.19
2.50
2.90
3.45
4.11
4.73
5.11
5.10
4.71
4.06
3.34
2.70
2.21
1.83
1.51
1.19
0.84
0.46
0.02
-0.51
-1.12
-1.75
-2.30
-2.61
-2.61
-2.31
-1.82
-1.28
-0.82
-0.50
-0.32
-0.25
-0.29
-0.44
-0.73
-1.15
-1.63
-2.07
-2.39
-2.53
-2.53
-2.50
-2.56
-2.81
-3.26
-3.86
-4.54
-5.23
-5.91
-6.61
-7.31
-8.03
-8.70
-9.33
-9.91
-10.51
-11.17
-11.93
-12.79
-13.67
-14.50
-15.18
-15.61
-15.72
-15.45
-14.81
-13.86
-12.71
-11.51
-10.38
-9.35
-8.37
-7.33
-6.13
-4.72
-3.13
-1.47
0.18
1.77
3.33
4.92
6.54
8.09
9.40
10.32
10.82
11.01
11.07
11.19
11.46
11.83
12.19
12.43
12.50
12.40
12.16
11.83
11.42
10.93
10.35
9.70
8.96
8.17
7.35
6.55
5.83
5.25
4.83
4.60
4.58
4.75
5.10
5.55
6.00
6.30
6.35
6.13
5.72
5.25
4.82
4.46
4.05
3.46
2.56
1.39
0.09
-1.14
-2.16
-2.99
-3.76
-4.59
-5.53
-6.50
-7.39
-8.12
-8.76
-9.46
-10.29
-11.19
-11.88
-12.00
-11.36
-10.04
-8.49
-7.32
-7.07
-7.97
-9.83
-12.16
-14.41
-16.16
-17.27
-17.85
-18.11
-18.25
-18.32
-18.33
-18.21
-17.96
-17.64
-17.32
-17.05
-16.81
-16.47
-15.91
-15.01
-13.76
-12.23
-10.53
-8.68
-6.60
-4.14
-1.13
2.36
6.10
9.64
12.56
14.60
15.76
16.26
16.40
16.45
16.51
16.56
16.54
16.39
16.10
15.68
15.15
14.52
13.80
13.04
12.26
11.53
10.86
10.25
9.66
9.02
8.27
7.34
6.20
4.88
3.48
2.13
1.01
0.24
-0.13
-0.18
-0.11
-0.09
-0.22
-0.43
-0.50
-0.19
0.67
2.00
3.56
5.02
6.17
6.93
7.43
7.85
8.30
8.77
9.17
9.45
9.58
9.61
9.57
9.45
9.18
8.74
8.12
7.39
6.64
5.91
5.21
4.54
3.90
3.37
3.02
2.88
2.89
2.96
2.95
2.82
2.59
2.31
2.05
1.82
1.62
1.42
1.22
1.07
1.03
1.16
1.50
2.04
2.74
3.51
4.26
4.91
5.39
5.68
5.80
5.79
5.67
5.42
4.99
4.35
3.51
2.53
1.54
0.62
-0.13
-0.72
-1.14
-1.45
-1.71
-1.98
-2.35
-2.87
-3.54
-4.26
-4.92
-5.38
-5.59
-5.61
-5.54
-5.48
-5.47
-5.46
-5.35
-5.06
-4.54
-3.83
-3.00
-2.13
-1.32
-0.65
-0.15
0.17
0.36
0.52
0.76
1.20
1.91
2.88
4.03
5.22
6.24
6.91
7.14
7.00
6.60
6.12
5.69
5.35
5.07
4.79
4.51
4.20
3.87
3.48
2.97
2.31
1.53
0.73
0.04
-0.49
-0.87
-1.18
-1.49
-1.81
-2.08
-2.25
-2.28
-2.20
-2.07
-1.95
-1.85
-1.78
-1.72
-1.71
-1.78
-1.96
-2.24
-2.59
-2.93
-3.21
-3.33
-3.28
-3.04
-2.67
-2.27
-1.91
-1.64
-1.43
-1.21
-0.94
-0.66
-0.48
-0.54
-0.89
-1.44
-1.95
-2.16
-1.90
-1.22
-0.36
0.41
0.84
0.88
0.61
0.19
-0.24
-0.66
-1.08
-1.50
-1.86
-2.03
-1.92
-1.52
-0.95
-0.39
0.01
0.21
0.24
0.19
0.14
0.08
-0.00
-0.10
-0.15
-0.10
0.06
0.28
0.46
0.53
0.48
0.40
0.33
0.29
0.23
0.08
-0.22
-0.61
-1.00
-1.29
-1.40
-1.33
-1.11
-0.78
-0.37
0.06
0.49
0.84
1.04
1.06
0.95
0.77
0.62
0.54
0.51
0.46
0.30
0.02
-0.32
-0.62
-0.80
-0.87
-0.90
-1.00
-1.24
-1.58
-1.91
-2.14
-2.22
-2.19
-2.12
-2.09
-2.14
-2.27
-2.43
-2.57
-2.61
-2.53
-2.30
-1.93
-1.44
-0.88
-0.30
0.22
0.64
0.89
0.95
0.80
0.48
0.08
-0.26
-0.44
-0.41
-0.22
0.01
0.15
0.12
-0.09
-0.41
-0.75
-1.06
-1.31
-1.53
-1.73
-1.93
-2.08
-2.16
-2.15
-2.08
-1.95
-1.81
-1.65
-1.48
-1.31
-1.14
-0.96
-0.79
-0.59
-0.34
-0.03
0.30
0.64
0.92
1.11
1.17
1.13
1.01
0.85
0.68
0.48
0.26
-0.01
-0.33
-0.67
-0.96
-1.10
-1.06
-0.87
-0.64
-0.53
-0.64
-0.98
-1.44
-1.85
-2.08
-2.13
-2.06
-2.02
-2.07
-2.21
-2.28
-2.14
-1.69
-1.01
-0.26
0.36
0.71
0.79
0.72
0.63
0.61
0.65
0.69
0.65
0.54
0.45
0.46
0.58
0.77
0.90
0.87
0.69
0.41
0.16
0.03
0.01
0.05
0.05
-0.06
-0.32
-0.70
-1.16
-1.63
-2.03
-2.29
-2.35
-2.22
-1.96
-1.61
-1.21
-0.78
-0.32
0.14
0.56
0.86
1.02
1.07
1.09
1.17
1.31
1.47
1.54
1.47
1.26
1.02
0.83
0.76
0.78
0.80
0.76
0.62
0.39
0.15
-0.05
-0.19
-0.29
-0.37
-0.46
-0.57
-0.70
-0.81
-0.88
-0.94
-1.01
-1.11
-1.19
-1.15
-0.90
-0.38
0.39
1.28
2.04
2.50
2.58
2.41
2.17
2.02
2.07
2.31
2.71
3.12
3.43
3.56
3.56
3.51
3.49
3.58
3.86
4.33
4.76
4.86
4.46
3.60
2.49
1.38
0.43
-0.27
-0.79
-1.47
-2.68
-4.57
-7.10
-10.11
-13.45
-16.96
-20.26
-21.76
-20.07
-15.09
-8.23
-1.48
3.64
6.30
6.39
4.47
1.37
-2.21
-5.77
-8.93
-11.42
-13.12
-14.07
-14.64
-14.71
-14.19
-13.16
-11.86
-10.54
-9.44
-8.77
-8.69
-9.18
-9.96
-10.65
-10.90
-10.46
-9.16
-6.91
-3.65
0.37
4.71
8.91
12.57
15.45
17.52
18.93
19.81
20.09
19.47
17.61
14.39
10.08
5.33
1.01
-2.10
-3.57
-3.49
-2.33
-0.74
0.72
1.71
2.10
1.89
1.12
-0.17
-1.90
-3.95
-6.08
-7.98
-9.32
-9.92
-9.73
-8.90
-7.71
-6.45
-5.35
-4.50
-3.86
-3.27
-2.60
-1.73
-0.68
0.48
1.66
2.81
3.95
5.15
6.50
8.00
9.55
10.95
11.97
12.43
12.28
11.60
10.62
9.60
8.73
8.09
7.62
7.19
6.68
6.06
5.41
4.84
4.45
4.25
4.21
4.26
4.39
4.62
4.96
5.38
5.81
6.10
6.17
6.00
5.64
5.22
4.83
4.55
4.42
4.43
4.57
4.79
5.02
5.16
5.13
4.91
4.52
4.02
3.51
3.04
2.59
2.09
1.47
0.61
-0.49
-1.77
-3.13
-4.39
-5.44
-6.23
-6.76
-7.10
-7.32
-7.48
-7.63
-7.82
-8.07
-8.39
-8.75
-9.07
-9.26
-9.23
-8.95
-8.48
-7.94
-7.45
-7.09
-6.88
-6.76
-6.66
-6.49
-6.22
-5.80
-5.26
-4.60
-3.86
-3.10
-2.45
-1.98
-1.70
-1.53
-1.28
-0.78
0.04
1.12
2.29
3.35
4.13
4.58
4.72
4.62
4.31
3.84
3.21
2.46
1.71
1.06
0.62
0.40
0.35
0.39
0.42
0.37
0.27
0.17
0.09
0.06
0.06
0.11
0.24
0.56
1.11
1.88
2.75
3.54
4.14
4.54
4.84
5.20
5.70
6.27
6.73
6.91
6.74
6.34
5.92
5.67
5.57
5.43
4.95
3.93
2.39
0.57
-1.18
-2.62
-3.66
-4.38
-4.90
-5.30
-5.62
-5.88
-6.22
-6.82
-7.86
-9.37
-11.09
-12.62
-13.48
-13.39
-12.34
-10.63
-8.74
-7.12
-6.03
-5.51
-5.43
-5.55
-5.69
-5.73
-5.63
-5.33
-4.76
-3.81
-2.41
-0.64
1.27
2.97
4.11
4.46
4.04
3.14
2.24
1.92
2.58
4.28
6.67
9.05
10.66
11.06
10.25
8.68
7.01
5.71
4.89
4.36
3.76
2.91
1.89
0.98
0.50
0.60
1.16
1.93
2.58
2.93
3.00
2.96
3.07
3.55
4.52
5.92
7.56
9.13
10.32
10.86
10.67
9.84
8.62
7.31
6.12
5.12
4.24
3.39
2.53
1.71
0.95
0.20
-0.73
-2.04
-3.84
-6.00
-8.19
-9.99
-11.16
-11.67
-11.72
-11.56
-11.37
-11.17
-10.87
-10.31
-9.41
-8.24
-6.96
-5.78
-4.83
-4.14
-3.62
-3.09
-2.43
-1.60
-0.71
0.13
0.83
1.40
1.93
2.52
3.22
3.98
4.69
5.24
5.55
5.61
5.43
5.09
4.69
4.34
4.16
4.28
4.82
5.84
7.34
9.15
10.97
12.40
13.10
12.93
12.01
10.68
9.33
8.20
7.26
6.26
4.94
3.16
1.00
-1.30
-3.52
-5.53
-7.37
-9.15
-10.90
-12.55
-13.89
-14.65
-14.67
-13.94
-12.60
-10.88
-9.05
-7.32
-5.84
-4.65
-3.69
-2.81
-1.78
-0.43
1.32
3.37
5.44
7.23
8.46
9.04
9.01
8.52
7.76
6.89
6.03
5.22
4.49
3.83
3.19
2.58
2.05
1.74
1.87
2.63
4.07
6.05
8.24
10.18
11.44
11.73
11.09
9.79
8.27
6.96
6.07
5.59
5.34
5.11
4.80
4.44
4.10
3.71
3.07
1.85
-0.20
-3.14
-6.70
-10.42
-13.77
-16.27
-17.59
-17.56
-16.21
-13.79
-10.80
-7.88
-5.67
-4.55
-4.47
-4.98
-5.40
-5.10
-3.74
-1.37
1.67
4.87
7.73
9.85
10.95
10.92
9.84
7.96
5.66
3.39
1.48
0.09
-0.84
-1.52
-2.15
-2.83
-3.47
-3.82
-3.53
-2.33
-0.20
2.59
5.46
7.77
8.99
9.00
8.07
6.76
5.63
5.02
4.91
5.04
5.00
4.44
3.15
1.04
-1.88
-5.52
-9.65
-13.92
-17.80
-20.75
-22.30
-22.26
-20.76
-18.24
-15.31
-12.55
-10.34
-8.75
-7.52
-6.20
-4.31
-1.59
1.93
5.89
9.75
13.01
15.33
16.67
17.20
17.20
16.87
16.28
15.40
14.15
12.54
10.71
8.89
7.25
5.84
4.51
3.09
1.45
-0.30
-1.91
-3.09
-3.71
-3.87
-3.88
-4.02
-4.40
-4.87
-5.13
-4.95
-4.29
-3.40
-2.58
-2.09
-1.92
-1.90
-1.77
-1.42
-0.90
-0.39
-0.04
0.17
0.44
1.01
2.03
3.44
4.95
6.18
6.87
6.90
6.36
5.41
4.20
2.81
1.24
-0.50
-2.33
-4.08
-5.55
-6.59
-7.11
-7.22
-7.10
-6.99
-7.04
-7.26
-7.48
-7.43
-6.85
-5.65
-3.94
-2.01
-0.26
1.05
1.79
2.03
2.00
1.93
1.97
2.12
2.31
2.39
2.25
1.88
1.40
1.00
0.93
1.37
2.39
3.89
5.55
6.98
7.76
7.68
6.85
5.70
4.90
5.03
6.37
8.65
11.22
13.24
14.15
13.87
12.78
11.57
10.95
11.44
13.24
16.27
20.02
23.55
25.65
25.16
21.51
15.14
7.48
0.32
-4.98
-8.16
-10.04
-11.92
-14.66
-18.13
-21.30
-22.90
-22.19
-19.39
-15.53
-11.85
-9.21
-7.78
-7.19
-6.89
-6.50
-5.96
-5.41
-5.02
-4.85
-4.76
-4.57
-4.15
-3.54
-2.97
-2.76
-3.18
-4.32
-6.01
-7.87
-9.48
-10.50
-10.80
-10.48
-9.79
-9.09
-8.70
-8.87
-9.68
-11.02
-12.67
-14.32
-15.74
-16.80
-17.46
-17.72
-17.52
-16.75
-15.31
-13.26
-10.81
-8.29
-5.98
-4.01
-2.31
-0.74
0.81
2.27
3.51
4.35
4.73
4.72
4.49
4.21
4.00
3.92
3.97
4.15
4.44
4.75
4.99
5.07
4.92
4.55
4.08
3.67
3.46
3.57
4.00
4.68
5.47
6.17
6.58
6.55
6.04
5.13
4.03
3.06
2.47
2.37
2.65
3.00
2.98
2.24
0.57
-1.94
-4.95
-7.99
-10.56
-12.29
-13.00
-12.69
-11.47
-9.52
-7.03
-4.22
-1.34
1.34
3.58
5.25
6.33
6.89
7.04
6.84
6.34
5.62
4.80
4.10
3.71
3.80
4.34
5.18
6.03
6.57
6.55
5.84
4.40
2.38
0.01
-2.34
-4.30
-5.55
-5.98
-5.65
-4.84
-3.92
-3.20
-2.84
-2.74
-2.61
-2.03
-0.66
1.61
4.59
7.77
10.45
11.97
11.98
10.56
8.25
5.81
3.96
3.11
3.24
3.91
4.47
4.24
2.76
-0.05
-3.93
-8.32
-12.53
-15.96
-18.20
-19.14
-18.86
-17.60
-15.65
-13.29
-10.78
-8.32
-6.06
-4.04
-2.24
-0.66
0.70
1.78
2.53
2.98
3.22
3.38
3.54
3.74
3.95
4.14
4.32
4.51
4.72
4.90
4.89
4.57
3.86
2.84
1.69
0.61
-0.24
-0.78
-1.00
-0.96
-0.70
-0.31
0.15
0.60
1.02
1.42
1.83
2.27
2.71
3.11
3.38
3.44
3.23
2.67
1.72
0.45
-0.96
-2.14
-2.72
-2.53
-1.66
-0.55
0.27
0.43
-0.07
-0.92
-1.64
-1.87
-1.49
-0.65
0.36
1.29
2.00
2.45
2.64
2.58
2.33
1.99
1.72
1.69
2.00
2.61
3.35
3.95
4.16
3.86
3.02
1.74
0.20
-1.44
-2.97
-4.22
-5.03
-5.31
-5.09
-4.51
-3.78
-3.11
-2.60
-2.25
-1.94
-1.59
-1.15
-0.64
-0.15
0.27
0.54
0.65
0.59
0.39
0.15
-0.05
-0.07
0.17
0.68
1.38
2.10
2.67
2.92
2.78
2.23
1.35
0.28
-0.80
-1.72
-2.34
-2.55
-2.34
-1.75
-0.87
0.14
1.08
1.78
2.09
1.96
1.44
0.69
-0.05
-0.59
-0.83
-0.80
-0.62
-0.45
-0.40
-0.50
-0.71
-0.95
-1.14
-1.24
-1.21
-1.07
-0.80
-0.47
-0.15
0.01
-0.05
-0.34
-0.75
-1.08
-1.13
-0.77
-0.03
0.91
1.81
2.39
2.51
2.18
1.54
0.82
0.23
-0.08
-0.09
0.16
0.60
1.11
1.62
2.02
2.23
2.22
2.05
1.83
1.69
1.73
1.87
1.92
1.67
0.97
-0.13
-1.40
-2.53
-3.28
-3.56
-3.50
-3.30
-3.13
-3.10
-3.20
-3.45
-3.89
-4.61
-5.60
-6.78
-7.90
-8.68
-8.92
-8.57
-7.70
-6.47
-5.04
-3.52
-2.01
-0.60
0.57
1.38
1.80
1.89
1.87
1.97
2.39
3.21
4.38
5.72
7.03
8.09
8.77
9.05
8.99
8.72
8.35
7.94
7.49
6.95
6.30
5.56
4.82
4.19
3.74
3.46
3.29
3.19
3.13
3.21
3.50
4.08
4.90
5.83
6.71
7.44
8.03
8.58
9.24
10.07
11.09
12.17
13.20
14.13
14.96
15.77
16.58
17.32
17.80
17.84
17.37
16.43
15.20
13.90
12.67
11.53
10.41
9.21
7.85
6.29
4.49
2.40
0.00
-2.69
-5.56
-8.43
-11.12
-13.51
-15.53
-17.21
-18.56
-19.61
-20.33
-20.73
-20.84
-20.71
-20.41
-19.95
-19.34
-18.56
-17.65
-16.69
-15.79
-15.04
-14.48
-14.07
-13.71
-13.31
-12.80
-12.16
-11.44
-10.73
-10.05
-9.39
-8.64
-7.63
-6.27
-4.56
-2.68
-0.86
0.68
1.87
2.77
3.54
4.31
5.08
5.75
6.18
6.29
6.14
5.85
5.53
5.17
4.66
3.86
2.70
1.19
-0.52
-2.28
-3.99
-5.60
-7.11
-8.50
-9.71
-10.68
-11.38
-11.85
-12.17
-12.43
-12.67
-12.83
-12.77
-12.31
-11.35
-9.87
-7.95
-5.73
-3.37
-0.96
1.42
3.70
5.80
7.58
8.94
9.85
10.37
10.69
11.01
11.49
12.17
12.97
13.76
14.37
14.66
14.53
13.95
12.93
11.55
9.94
8.29
6.80
5.64
4.90
4.60
4.67
5.00
5.48
6.03
6.57
7.04
7.39
7.57
7.54
7.32
6.92
6.39
5.77
5.08
4.33
3.54
2.77
2.07
1.51
1.10
0.80
0.51
0.11
-0.46
-1.20
-2.03
-2.88
-3.70
-4.48
-5.25
-6.02
-6.77
-7.43
-7.94
-8.25
-8.37
-8.32
-8.14
-7.90
-7.62
-7.31
-6.94
-6.48
-5.86
-5.04
-4.01
-2.82
-1.50
-0.08
1.45
3.18
5.20
7.53
10.06
12.57
14.77
16.40
17.35
17.64
17.48
17.05
16.48
15.75
14.70
13.16
11.01
8.30
5.19
2.00
-0.95
-3.36
-5.02
-5.87
-6.06
-5.97
-6.17
-7.28
-9.79
-13.80
-18.90
-24.24
-28.79
-31.66
-32.40
-31.08
-28.25
-24.71
-21.25
-18.48
-16.67
-15.74
-15.32
-14.87
-13.88
-12.04
-9.37
-6.22
-3.09
-0.42
1.59
3.03
4.25
5.61
7.34
9.51
12.00
14.64
17.21
19.52
21.36
22.55
22.90
22.36
21.02
19.12
17.02
15.06
13.51
12.51
12.01
11.83
11.62
10.99
9.70
7.66
5.10
2.40
0.01
-1.71
-2.59
-2.63
-1.93
-0.64
1.03
2.79
4.28
5.07
4.81
3.37
0.93
-2.03
-4.86
-6.92
-7.86
-7.65
-6.61
-5.24
-4.02
-3.27
-3.02
-3.06
-3.04
-2.66
-1.75
-0.37
1.24
2.72
3.71
3.94
3.32
2.00
0.38
-0.95
-1.36
-0.44
1.74
4.57
7.04
8.16
7.36
4.71
0.87
-3.27
-6.99
-10.00
-12.37
-14.33
-16.03
-17.40
-18.26
-18.46
-18.07
-17.37
-16.71
-16.37
-16.40
-16.69
-17.05
-17.33
-17.48
-17.54
-17.53
-17.38
-16.90
-15.84
-13.96
-11.23
-7.79
-3.97
-0.25
2.92
5.22
6.55
7.05
7.05
6.92
6.98
7.36
8.04
8.86
9.61
10.10
10.23
10.04
9.57
8.92
8.11
7.15
6.01
4.72
3.39
2.18
1.25
0.68
0.46
0.48
0.63
0.84
1.06
1.29
1.52
1.69
1.73
1.62
1.40
1.17
1.06
1.18
1.49
1.91
2.29
2.51
2.56
2.52
2.51
2.59
2.72
2.76
2.56
2.04
1.25
0.37
-0.42
-0.98
-1.29
-1.41
-1.40
-1.30
-1.10
-0.81
-0.50
-0.24
-0.13
-0.18
-0.33
-0.46
-0.45
-0.28
-0.01
0.23
0.33
0.22
-0.07
-0.46
-0.88
-1.28
-1.63
-1.90
-2.09
-2.18
-2.21
-2.24
-2.34
-2.57
-2.92
-3.40
-3.95
-4.54
-5.11
-5.56
-5.75
-5.58
-5.02
-4.18
-3.31
-2.67
-2.42
-2.55
-2.89
-3.21
-3.35
-3.30
-3.18
-3.15
-3.32
-3.67
-4.07
-4.36
-4.45
-4.35
-4.14
-3.90
-3.66
-3.35
-2.90
-2.28
-1.60
-1.00
-0.67
-0.71
-1.06
-1.58
-2.01
-2.14
-1.85
-1.12
-0.08
1.06
2.05
2.66
2.81
2.54
2.03
1.52
1.16
1.05
1.14
1.42
1.86
2.49
3.34
4.33
5.31
6.08
6.50
6.58
6.42
6.21
6.10
6.18
6.50
7.10
8.02
9.25
10.71
12.20
13.45
14.18
14.26
13.66
12.50
10.95
9.20
7.37
5.57
3.93
2.57
1.62
1.22
1.44
2.26
3.56
5.07
6.47
7.40
7.57
6.75
4.87
1.99
-1.65
-5.55
-9.10
-11.68
-12.94
-12.86
-11.84
-10.49
-9.34
-8.68
-8.48
-8.49
-8.44
-8.15
-7.58
-6.79
-5.82
-4.71
-3.46
-2.10
-0.70
0.66
1.94
3.12
4.24
5.33
6.43
7.48
8.38
8.94
9.04
8.60
7.69
6.56
5.50
4.82
4.65
4.99
5.66
6.42
7.03
7.32
7.22
6.74
5.96
5.02
4.11
3.45
3.17
3.33
3.82
4.46
5.03
5.34
5.28
4.82
3.97
2.81
1.47
0.19
-0.78
-1.24
-1.17
-0.78
-0.44
-0.58
-1.49
-3.24
-5.68
-8.46
-11.18
-13.42
-14.80
-15.06
-14.13
-12.15
-9.50
-6.66
-4.09
-2.14
-0.97
-0.61
-0.96
-1.82
-2.94
-3.98
-4.61
-4.64
-4.07
-3.18
-2.37
-2.03
-2.32
-3.16
-4.19
-4.98
-5.21
-4.74
-3.65
-2.13
-0.41
1.34
3.01
4.47
5.64
6.43
6.83
6.94
6.96
7.05
7.30
7.60
7.70
7.33
6.36
4.93
3.38
2.20
1.75
2.17
3.34
4.92
6.50
7.73
8.34
8.16
7.10
5.15
2.37
-1.09
-4.96
-8.93
-12.65
-15.87
-18.38
-20.14
-21.19
-21.60
-21.43
-20.71
-19.46
-17.71
-15.62
-13.42
-11.39
-9.74
-8.57
-7.76
-7.08
-6.26
-5.07
-3.44
-1.39
0.96
3.43
5.88
8.20
10.30
12.19
13.86
15.35
16.68
17.91
19.07
20.19
