1532611247.00
64.000000
-0.00
-0.00
-0.00
-0.00
-0.00
-0.00
-0.00
-0.00
-0.00
-0.00
0.00
0.01
0.01
-0.00
-0.03
-0.05
-0.05
0.00
0.13
0.36
0.66
1.01
1.37
1.72
2.06
2.40
2.79
3.24
3.80
4.42
5.06
5.66
6.20
6.68
7.15
7.68
8.31
9.14
10.09
11.04
11.88
12.56
13.14
13.76
14.65
15.96
17.91
20.32
22.90
25.38
27.58
29.57
31.68
34.32
37.81
42.54
48.15
54.10
59.83
64.97
69.58
74.14
79.34
85.71
93.76
103.00
112.62
121.73
129.77
136.75
143.30
150.74
157.77
166.65
177.98
191.84
207.01
220.56
228.15
225.15
208.19
176.43
132.26
79.53
22.55
-35.45
-92.98
-149.78
-205.96
-261.22
-314.68
-364.84
-410.77
-451.81
-487.40
-516.72
-538.41
-550.69
-551.73
-540.35
-516.26
-480.66
-435.76
-384.34
-329.17
-272.55
-216.12
-160.97
-107.89
-57.59
-11.05
30.63
66.47
95.91
118.97
136.29
148.95
158.12
164.71
169.10
171.24
170.80
167.55
161.63
153.68
144.68
135.58
127.09
119.34
112.04
104.68
96.75
87.88
77.82
66.51
54.40
42.76
33.63
29.42
31.82
40.78
54.20
68.50
80.08
86.67
88.13
85.72
81.16
75.70
69.77
63.30
56.34
49.39
43.27
38.63
35.53
33.48
31.69
29.42
26.35
22.64
18.79
15.37
12.80
11.20
10.35
9.84
9.21
8.20
6.76
5.14
3.68
2.62
1.94
1.40
0.71
-0.27
-1.39
-2.33
-2.82
-2.86
-2.78
-3.04
-3.94
-5.42
-7.13
-8.61
-9.61
-10.11
-10.31
-10.36
-10.29
-10.07
-9.68
-9.25
-8.94
-8.82
-8.65
-7.98
-6.48
-4.05
-1.00
2.11
4.78
6.78
8.13
8.98
9.40
9.31
8.56
7.12
5.16
3.06
1.18
-0.23
-1.12
-1.58
-1.72
-1.58
-1.19
-0.56
0.22
0.98
1.63
2.16
2.68
3.39
4.44
5.84
7.44
8.98
10.19
10.90
11.13
10.98
10.53
9.82
8.78
7.32
5.41
3.12
0.50
-2.29
-5.10
-7.74
-10.01
-11.78
-12.96
-13.58
-13.73
-13.59
-13.31
-13.03
-12.81
-12.59
-12.09
-10.95
-8.83
-5.73
-2.12
1.22
3.46
4.08
3.15
1.22
-0.95
-2.79
-4.10
-4.98
-5.64
-6.19
-6.57
-6.62
-6.29
-5.64
-4.91
-4.41
-4.31
-4.61
-5.13
-5.57
-5.69
-5.37
-4.72
-3.95
-3.37
-3.18
-3.42
-3.97
-4.59
-5.00
-4.96
-4.32
-3.05
-1.24
0.87
3.00
4.81
6.04
6.58
6.47
5.91
5.20
4.59
4.07
3.67
3.37
3.15
2.98
2.88
2.89
2.98
3.09
3.11
2.95
2.56
1.94
1.13
0.22
-0.74
-1.68
-2.60
-3.54
-4.54
-5.62
-6.76
-7.87
-8.79
-9.37
-9.54
-9.35
-9.03
-8.88
-9.17
-10.03
-11.36
-12.81
-13.93
-14.30
-13.63
-11.89
-9.21
-5.82
-2.03
1.82
5.36
8.25
10.19
11.08
11.04
10.45
9.77
9.33
9.27
9.43
9.56
9.44
9.04
8.54
8.19
8.16
8.42
8.75
8.89
8.67
8.10
7.30
6.42
5.50
4.49
3.31
1.96
0.58
-0.66
-1.60
-2.27
-2.83
-3.54
-4.55
-5.84
-7.19
-8.35
-9.16
-9.67
-10.14
-10.90
-12.20
-14.02
-16.08
-17.86
-18.85
-18.64
-17.07
-14.23
-10.41
-6.01
-1.42
2.92
6.63
9.36
10.91
11.33
10.95
10.29
9.84
9.90
10.47
11.33
12.22
12.95
13.50
13.93
14.29
14.55
14.64
14.49
14.12
13.58
12.93
12.13
11.11
9.81
8.28
6.68
5.24
4.15
3.44
3.00
2.59
1.99
1.07
-0.16
-1.54
-2.88
-4.03
-4.91
-5.55
-6.05
-6.56
-7.26
-8.37
-10.01
-12.13
-14.47
-16.53
-17.74
-17.65
-16.08
-13.16
-9.35
-5.24
-1.41
1.70
3.82
4.87
4.94
4.27
3.21
2.12
1.32
0.99
1.18
1.77
2.56
3.32
3.87
4.12
4.08
3.83
3.49
3.12
2.73
2.29
1.74
1.00
0.04
-1.17
-2.55
-4.04
-5.48
-6.73
-7.66
-8.20
-8.41
-8.47
-8.59
-9.03
-9.92
-11.26
-12.80
-14.15
-14.82
-14.37
-12.63
-9.73
-6.07
-2.18
1.42
4.41
6.62
8.07
8.89
9.23
9.25
9.12
9.03
9.10
9.38
9.85
10.39
10.90
11.28
11.47
11.42
11.11
10.51
9.67
8.68
7.67
6.72
5.82
4.83
3.58
1.94
-0.05
-2.16
-4.04
-5.40
-6.10
-6.25
-6.16
-6.21
-6.76
-7.98
-9.85
-12.14
-14.51
-16.50
-17.70
-17.73
-16.40
-13.71
-9.97
-5.64
-1.31
2.50
5.44
7.35
8.32
8.57
8.38
8.05
7.79
7.75
7.97
8.42
9.02
9.68
10.31
10.82
11.13
11.20
11.04
10.72
10.32
9.94
9.58
9.16
8.58
7.69
6.50
5.10
3.68
2.46
1.53
0.84
0.20
-0.62
-1.76
-3.18
-4.72
-6.16
-7.35
-8.29
-9.04
-9.74
-10.45
-11.23
-12.13
-13.24
-14.67
-16.49
-18.55
-20.53
-21.94
-22.28
-21.19
-18.57
-14.61
-9.79
-4.74
-0.08
3.72
6.40
7.93
8.44
8.15
7.26
6.01
4.67
3.57
3.01
3.20
4.18
5.72
7.48
9.09
10.36
11.31
12.11
12.94
13.81
14.52
14.77
14.28
13.04
11.25
9.35
7.76
6.75
6.33
6.26
6.25
6.03
5.46
4.54
3.37
2.09
0.78
-0.46
-1.66
-2.83
-4.09
-5.54
-7.34
-9.58
-12.25
-15.16
-17.96
-20.20
-21.36
-21.09
-19.20
-15.85
-11.42
-6.53
-1.82
2.17
5.15
7.12
8.29
9.09
9.92
11.12
12.87
15.11
17.66
20.14
22.10
23.15
23.02
21.74
19.60
17.12
14.83
13.09
12.00
11.34
10.73
9.82
8.48
6.82
5.15
3.82
3.03
2.72
2.64
2.42
1.73
0.36
-1.74
-4.43
-7.48
-10.55
-13.27
-15.31
-16.55
-17.16
-17.52
-18.04
-18.89
-19.82
-20.19
-19.31
-16.78
-12.77
-8.02
-3.48
0.05
2.25
3.30
3.63
3.59
3.30
2.68
1.60
0.14
-1.37
-2.44
-2.58
-1.63
0.26
2.61
4.82
6.39
7.10
6.96
6.18
4.97
3.52
1.90
0.15
-1.72
-3.67
-5.65
-7.63
-9.53
-11.22
-12.52
-13.26
-13.32
-12.76
-11.82
-10.89
-10.34
-10.37
-10.97
-11.86
-12.65
-12.98
-12.60
-11.40
-9.43
-6.81
-3.73
-0.39
2.90
5.84
8.15
9.67
10.43
10.68
10.77
11.06
11.72
12.74
13.88
14.78
15.12
14.76
13.73
12.29
10.78
9.50
8.59
8.00
7.47
6.67
5.38
3.56
1.43
-0.68
-2.46
-3.80
-4.78
-5.64
-6.54
-7.49
-8.33
-8.82
-8.84
-8.50
-8.08
-7.93
-8.33
-9.38
-11.03
-13.06
-15.17
-16.95
-17.94
-17.66
-15.83
-12.43
-7.79
-2.56
2.54
6.88
10.12
12.18
13.17
13.30
12.75
11.74
10.52
9.35
8.52
8.20
8.41
9.03
9.81
10.51
10.92
10.95
10.63
10.01
9.26
8.51
7.88
7.40
7.01
6.56
5.89
4.89
3.57
2.07
0.62
-0.58
-1.44
-2.04
-2.55
-3.17
-4.02
-5.07
-6.18
-7.16
-7.87
-8.26
-8.38
-8.39
-8.48
-8.87
-9.75
-11.25
-13.36
-15.87
-18.30
-20.07
-20.60
-19.53
-16.84
-12.85
-8.06
-3.07
1.58
5.50
8.43
10.28
11.12
11.18
10.83
10.43
10.29
10.60
11.36
12.48
13.80
15.13
16.28
17.08
17.46
17.42
17.10
16.65
16.21
15.82
15.45
14.95
14.21
13.10
11.61
9.84
7.98
6.29
4.91
3.90
3.12
2.35
1.39
0.16
-1.28
-2.79
-4.18
-5.34
-6.24
-6.90
-7.37
-7.80
-8.38
-9.36
-10.95
-13.18
-15.73
-18.07
-19.51
-19.54
-17.95
-14.96
-11.08
-6.90
-2.96
0.41
3.05
4.90
5.98
6.33
6.08
5.45
4.73
4.22
4.11
4.46
5.13
5.88
6.44
6.64
6.49
6.12
5.76
5.54
5.44
5.26
4.74
3.69
2.17
0.40
-1.26
-2.58
-3.53
-4.31
-5.23
-6.49
-8.09
-9.83
-11.43
-12.65
-13.40
-13.78
-13.94
-14.09
-14.39
-15.01
-16.08
-17.63
-19.54
-21.41
-22.67
-22.70
-21.08
-17.73
-13.06
-7.76
-2.63
1.69
4.84
6.80
7.76
8.00
7.77
7.21
6.43
5.59
4.89
4.60
4.95
5.98
7.54
9.24
10.65
11.42
11.44
10.85
9.94
8.98
8.11
7.31
6.45
5.38
4.05
2.49
0.82
-0.85
-2.41
-3.79
-4.97
-5.91
-6.63
-7.20
-7.77
-8.62
-9.99
-11.99
-14.42
-16.81
-18.49
-18.84
-17.51
-14.60
-10.55
-6.04
-1.72
1.92
4.64
6.40
7.33
7.58
7.37
6.95
6.57
6.43
6.68
7.34
8.30
9.35
10.24
10.82
11.00
10.86
10.47
9.93
9.28
8.47
7.46
6.23
4.81
3.29
1.80
0.41
-0.86
-2.06
-3.32
-4.70
-6.19
-7.67
-8.95
-9.88
-10.40
-10.63
-10.81
-11.23
-12.17
-13.76
-15.90
-18.26
-20.33
-21.49
-21.29
-19.52
-16.30
-12.05
-7.33
-2.67
1.48
4.85
7.28
8.73
9.26
9.11
8.62
8.15
7.99
8.28
8.96
9.88
10.85
11.72
12.42
12.94
13.30
13.54
13.69
13.72
13.60
13.25
12.58
11.54
10.15
8.53
6.84
5.29
4.01
3.03
2.27
1.53
0.59
-0.65
-2.20
-3.90
-5.54
-6.92
-7.96
-8.75
-9.49
-10.46
-11.91
-13.91
-16.31
-18.71
-20.57
-21.39
-20.77
-18.64
-15.17
-10.78
-6.00
-1.33
2.80
6.07
8.35
9.62
10.05
9.93
9.57
9.27
9.24
9.52
10.07
10.82
11.67
12.54
13.33
13.96
14.37
14.50
14.39
14.09
13.65
13.07
12.30
11.29
10.03
8.60
7.09
5.60
4.16
2.72
1.22
-0.36
-1.98
-3.51
-4.83
-5.84
-6.52
-6.94
-7.28
-7.79
-8.75
-10.36
-12.60
-15.18
-17.57
-19.15
-19.44
-18.28
-15.90
-12.78
-9.51
-6.55
-4.17
-2.45
-1.38
-0.90
-0.96
-1.50
-2.41
-3.54
-4.72
-5.77
-6.55
-7.02
-7.22
-7.31
-7.47
-7.89
-8.69
-9.96
-11.64
-13.63
-15.67
-17.38
-18.25
-17.72
-15.38
-11.19
-5.54
0.71
6.54
11.09
14.02
15.54
16.32
17.12
18.47
20.54
23.26
26.55
30.49
35.37
41.46
48.73
56.70
64.42
70.71
74.45
74.85
71.49
64.33
53.59
39.82
23.91
7.08
-9.24
-23.73
-35.52
-44.44
-51.01
-56.16
-60.84
-65.60
-70.45
-75.01
-78.83
-81.55
-83.02
-83.13
-81.62
-78.11
-72.34
-64.49
-55.33
-46.12
-38.12
-32.08
-27.88
-24.75
-21.70
-18.14
-14.13
-10.30
-7.30
-5.31
-3.82
-1.87
1.44
6.39
12.39
18.19
22.36
23.89
22.55
18.86
13.84
8.64
4.26
1.52
1.11
3.55
8.97
16.84
25.79
33.91
39.36
41.22
39.96
37.19
34.86
34.22
35.33
37.14
38.27
37.81
35.71
32.49
28.75
24.63
19.84
13.98
6.97
-0.79
-8.68
-16.12
-22.84
-28.84
-34.20
-38.86
-42.55
-44.92
-45.68
-44.66
-41.88
-37.51
-31.81
-25.17
-18.19
-11.73
-6.83
-4.47
-5.09
-8.14
-11.98
-14.28
-12.91
-6.91
2.95
14.48
25.07
32.87
37.57
40.16
42.13
44.39
46.77
48.26
47.80
45.00
40.41
35.12
30.09
25.65
21.34
16.32
9.95
2.18
-6.39
-14.73
-21.84
-27.03
-29.99
-30.76
-29.48
-26.38
-21.79
-16.18
-10.17
-4.29
1.29
6.96
13.41
21.21
30.17
39.12
46.21
49.70
48.85
44.37
38.15
32.37
28.53
26.85
26.44
25.98
24.51
21.89
18.58
15.24
12.11
8.90
4.94
-0.34
-7.00
-14.50
-21.87
-28.05
-32.25
-34.04
-33.36
-30.51
-26.12
-21.20
-16.99
-14.58
-14.41
-15.92
-17.65
-17.75
-14.85
-8.64
-0.00
9.47
18.13
24.95
29.61
32.27
33.20
32.57
30.45
27.05
22.82
18.41
14.38
11.05
8.32
5.84
3.13
-0.24
-4.57
-9.90
-15.98
-22.24
-27.87
-32.13
-34.47
-34.80
-33.37
-30.56
-26.71
-22.08
-17.11
-12.57
-9.55
-9.00
-11.19
-15.33
-19.72
-22.32
-21.67
-17.41
-10.28
-1.71
6.84
14.33
20.32
24.68
27.44
28.59
28.15
26.32
23.50
20.28
17.21
14.63
12.58
10.87
9.23
7.48
5.72
4.27
3.62
4.29
6.56
10.32
14.87
19.07
21.61
21.59
18.97
14.74
10.55
8.05
8.11
10.49
14.03
17.28
19.18
19.42
18.35
16.54
14.44
12.12
9.39
6.04
1.97
-2.74
-7.93
-13.40
-18.95
-24.34
-29.26
-33.29
-35.97
-36.86
-35.61
-32.00
-26.04
-18.06
-8.82
0.46
8.23
13.09
14.39
12.66
9.60
7.48
8.17
12.25
18.67
25.30
29.94
31.44
30.14
27.56
25.49
25.01
25.94
27.06
26.62
23.21
16.20
5.89
-6.69
-20.18
-33.27
-44.91
-54.44
-61.53
-66.02
-67.83
-66.87
-63.25
-57.54
-50.96
-45.22
-41.89
-41.49
-42.93
-43.68
-40.80
-32.35
-18.52
-1.61
14.95
28.25
37.06
42.10
45.27
48.33
51.91
55.26
56.81
55.05
49.27
39.81
27.83
14.85
2.39
-8.42
-16.88
-22.68
-25.88
-26.72
-25.52
-22.63
-18.58
-14.08
-10.03
-7.23
-5.94
-5.58
-4.86
-2.26
3.06
10.73
19.14
26.18
30.23
30.96
29.44
27.52
26.84
28.02
30.36
32.24
31.86
27.94
20.19
9.36
-3.04
-15.33
-26.08
-34.46
-40.19
-43.38
-44.05
-42.04
-37.24
-30.06
-21.85
-14.54
-9.79
-7.95
-7.63
-6.32
-1.73
6.86
17.96
28.57
35.67
37.74
35.32
30.48
25.54
22.01
20.15
19.12
17.48
13.87
7.48
-1.77
-13.16
-25.32
-36.63
-45.52
-51.11
-53.52
-53.42
-51.31
-47.12
-40.43
-31.18
-20.30
-9.29
-0.13
5.64
7.98
8.68
10.44
15.36
23.67
33.62
43.22
50.61
54.60
55.00
52.50
48.20
43.21
38.68
36.06
38.22
47.39
63.42
83.38
102.38
115.36
118.76
111.62
90.15
56.87
20.03
-11.36
-32.80
-45.07
-50.96
-52.17
-49.05
-42.01
-31.32
-18.57
-7.47
-0.62
1.62
2.02
5.45
16.24
35.27
60.39
86.37
105.55
111.18
99.96
71.70
31.14
-10.75
-45.06
-68.05
-75.98
-69.07
-50.88
-27.31
-5.10
10.04
14.57
7.68
-7.56
-25.21
-39.59
-46.89
-46.25
-39.66
-30.66
-23.07
-19.98
-22.33
-29.01
-38.58
-49.80
-61.92
-74.44
-86.46
-96.69
-103.95
-107.22
-105.87
-100.24
-91.21
-79.84
-67.10
-53.86
-41.05
-29.74
-20.81
-14.52
-10.77
-9.11
-9.01
-9.97
-11.51
-12.95
-13.46
-12.18
-8.61
-3.09
3.22
8.66
11.71
11.56
8.34
2.96
-3.36
-9.48
-14.66
-18.59
-21.32
-22.99
-23.69
-23.29
-21.47
-17.71
-11.48
-2.43
9.40
23.49
38.93
54.56
69.35
82.45
93.28
101.47
106.81
109.33
109.44
107.99
106.15
105.09
105.56
107.61
110.53
113.15
114.19
112.69
108.20
100.81
91.08
79.89
68.23
57.07
47.15
38.91
32.45
27.65
24.24
21.93
20.35
19.01
17.34
14.71
10.56
4.63
-2.97
-11.79
-21.13
-30.24
-38.53
-45.57
-51.16
-55.15
-57.44
-57.94
-56.63
-53.75
-49.79
-45.57
-41.96
-39.75
-39.45
-41.22
-44.99
-50.55
-57.68
-66.11
-75.46
-85.12
-94.25
-102.02
-107.85
-111.70
-114.03
-115.55
-116.84
-118.12
-119.25
-120.00
-120.36
-120.73
-121.87
-124.68
-129.89
-137.89
-148.83
-162.61
-179.09
-197.96
-218.66
-240.35
-262.01
-282.61
-301.14
-316.49
-327.30
-332.11
-329.58
-318.97
-300.32
-274.38
-242.27
-205.15
-164.14
-120.55
-76.04
-32.57
8.24
45.72
80.38
113.43
145.64
176.36
203.39
223.80
235.37
237.79
232.75
223.27
212.37
202.19
193.51
186.19
179.85
174.23
169.32
165.11
161.33
157.42
152.72
146.79
139.60
131.66
123.76
116.74
111.21
107.43
105.33
104.60
104.76
105.24
105.41
104.66
102.58
99.04
94.29
88.82
83.20
77.90
73.33
69.91
68.09
68.23
70.18
73.07
75.39
75.45
72.01
64.75
54.22
41.49
27.65
13.53
-0.25
-13.09
-24.32
-33.31
-39.70
-43.51
-45.05
-44.64
-42.42
-38.42
-32.74
-25.92
-18.90
-12.85
-8.79
-7.29
-8.36
-11.54
-16.05
-21.00
-25.49
-28.78
-30.37
-30.10
-28.09
-24.67
-20.14
-14.67
-8.29
-1.05
6.82
14.81
22.12
27.90
31.46
32.51
31.17
27.95
23.51
18.58
13.88
10.11
7.85
7.38
8.52
10.51
12.26
12.79
11.72
9.47
7.09
5.73
5.98
7.55
9.48
10.62
10.28
8.46
5.73
2.79
0.11
-2.23
-4.31
-6.17
-7.55
-8.00
-7.18
-5.14
-2.48
-0.12
0.99
0.27
-2.36
-6.48
-11.45
-16.65
-21.62
-26.07
-29.74
-32.28
-33.17
-31.87
-28.10
-21.96
-14.09
-5.51
2.64
9.48
14.56
17.95
20.04
21.29
22.05
22.48
22.62
22.47
22.13
21.70
21.35
21.18
21.32
21.89
22.95
24.49
26.32
28.06
29.27
29.65
29.14
28.04
26.83
25.99
25.75
26.03
26.41
26.29
25.09
22.49
18.49
13.49
8.09
2.88
-1.73
-5.70
-9.32
-13.08
-17.48
-22.74
-28.72
-34.84
-40.20
-43.78
-44.77
-42.76
-37.95
-31.05
-23.15
-15.38
-8.67
-3.55
-0.10
2.03
3.51
5.20
7.92
12.07
17.38
22.78
26.61
27.16
23.38
15.39
4.61
-6.67
-16.08
-21.96
-23.79
-22.22
-18.58
-14.32
-10.55
-7.87
-6.43
-6.16
-6.93
-8.61
-11.06
-14.02
-17.18
-20.18
-22.75
-24.80
-26.32
-27.37
-27.90
-27.79
-26.90
-25.26
-23.08
-20.76
-18.71
-17.18
-16.12
-15.22
-14.04
-12.18
-9.47
-6.12
-2.69
0.04
1.28
0.56
-2.09
-6.10
-10.51
-14.32
-16.79
-17.65
-17.06
-15.50
-13.55
-11.68
-10.21
-9.26
-8.75
-8.50
-8.30
-8.03
-7.77
-7.84
-8.66
-10.64
-14.02
-18.74
-24.44
-30.37
-35.32
-37.67
-35.63
-27.80
-13.82
5.12
26.33
46.29
61.76
70.80
73.22
70.38
64.33
57.01
49.63
42.68
36.23
30.35
25.26
21.25
18.51
16.84
15.81
14.86
13.58
11.90
10.07
8.53
7.72
7.85
8.78
10.11
11.25
11.63
10.84
8.75
5.50
1.43
-3.04
-7.54
-11.82
-15.76
-19.37
-22.71
-25.92
-29.09
-32.29
-35.44
-38.22
-40.12
-40.48
-38.77
-34.74
-28.65
-21.16
-13.16
-5.53
1.08
6.34
10.18
12.66
13.90
14.09
13.48
12.36
11.05
9.80
8.72
7.82
7.07
6.44
5.97
5.74
5.82
6.23
6.89
7.60
8.11
8.20
7.78
6.89
5.68
4.33
2.98
1.70
0.47
-0.77
-2.11
-3.66
-5.51
-7.65
-9.77
-11.26
-11.22
-8.84
-3.71
3.85
12.79
21.62
28.90
33.67
35.65
35.18
32.86
29.34
25.09
20.36
15.31
10.07
4.76
-0.48
-5.52
-10.22
-14.51
-18.34
-21.76
-24.84
-27.69
-30.35
-32.70
-34.57
-35.81
-36.43
-36.68
-36.99
-37.85
-39.68
-42.80
-47.46
-53.82
-61.86
-71.08
-80.31
-87.65
-90.86
-88.00
-78.21
-62.18
-42.09
-20.99
-1.85
13.28
23.74
30.14
33.84
36.22
38.19
40.01
41.39
41.91
41.27
39.53
37.12
34.62
32.60
31.49
31.54
32.83
35.16
37.74
39.15
37.71
32.21
22.86
11.62
1.57
-4.42
-5.24
-2.12
1.97
3.83
1.64
-4.26
-11.88
-18.72
-22.90
-23.59
-20.94
-15.68
-8.94
-2.15
3.11
5.52
4.59
0.99
-3.84
-8.29
-11.38
-13.07
-14.01
-14.87
-15.82
-16.51
-16.33
-14.97
-12.61
-9.83
-7.19
-4.98
-3.15
-1.41
0.47
2.51
4.47
6.00
6.73
6.37
4.75
1.80
-2.40
-7.62
-13.39
-19.06
-23.74
-26.61
-27.06
-25.08
-21.28
-16.85
-13.13
-11.03
-10.69
-11.42
-12.04
-11.50
-9.16
-5.03
0.51
6.90
13.62
20.12
25.76
29.84
31.73
31.22
28.63
24.76
20.62
17.04
14.46
12.92
12.17
11.87
11.72
11.51
11.09
10.35
9.15
7.31
4.76
1.63
-1.63
-4.34
-5.68
-5.05
-2.23
2.47
8.37
14.56
20.08
24.09
25.89
24.98
21.19
14.79
6.50
-2.54
-11.06
-17.96
-22.62
-25.07
-25.97
-26.37
-27.39
-29.74
-33.41
-37.67
-41.29
-43.08
-42.36
-39.26
-34.65
-29.78
-25.83
-23.56
-23.19
-24.48
-26.78
-29.21
-30.71
-30.24
-27.04
-20.94
-12.52
-3.03
6.05
13.40
18.37
21.02
22.00
22.19
22.31
22.69
23.26
23.72
23.68
22.92
21.48
19.61
17.67
16.01
14.78
13.89
13.03
11.81
9.88
7.08
3.53
-0.49
-4.66
-8.83
-13.09
-17.85
-23.61
-30.80
-39.40
-48.85
-57.98
-65.27
-69.26
-69.07
-64.70
-57.13
-48.16
-39.87
-34.09
-31.78
-32.80
-35.93
-39.36
-41.33
-40.64
-37.04
-31.00
-23.36
-14.78
-5.48
4.58
15.38
26.47
36.93
45.71
52.11
56.12
58.37
59.82
61.22
62.80
64.30
65.22
65.23
64.42
63.23
62.26
61.90
62.16
62.66
62.86
62.31
60.89
58.90
56.91
55.45
54.82
54.86
55.04
54.72
53.39
50.87
47.34
43.24
39.00
34.95
31.26
27.90
24.82
21.96
19.30
16.84
14.56
12.41
10.32
8.25
6.20
4.21
2.40
0.84
-0.46
-1.57
-2.64
-3.85
-5.35
-7.29
-9.74
-12.85
-16.73
-21.39
-26.62
-31.90
-36.41
-39.25
-39.72
-37.56
-33.12
-27.22
-20.94
-15.24
-10.77
-7.69
-5.85
-4.86
-4.38
-4.20
-4.21
-4.38
-4.62
-4.75
-4.50
-3.71
-2.35
-0.61
1.10
2.37
2.94
2.77
2.07
1.18
0.32
-0.44
-1.27
-2.41
-4.05
-6.21
-8.76
-11.57
-14.51
-17.56
-20.60
-23.38
-25.42
-26.17
-25.27
-22.71
-18.98
-14.86
-11.13
-8.32
-6.52
-5.48
-4.84
-4.30
-3.70
-3.01
-2.18
-1.09
0.35
2.18
4.31
6.48
8.37
9.75
10.52
10.78
10.73
10.59
10.52
10.52
10.53
10.44
10.14
9.59
8.82
7.94
7.01
6.11
5.24
4.38
3.48
2.54
1.62
0.81
0.25
0.02
0.13
0.48
0.89
1.23
1.42
1.51
1.60
1.78
2.07
2.40
2.72
3.03
3.38
3.85
4.45
5.11
5.71
6.14
6.43
6.69
7.07
7.65
8.38
9.08
9.53
9.59
9.24
8.59
7.80
7.04
6.39
5.82
5.20
4.36
3.21
1.79
0.29
-1.01
-1.82
-1.99
-1.53
-0.61
0.56
1.81
3.02
4.11
5.04
5.78
6.32
6.73
7.14
7.67
8.41
9.32
10.30
11.22
12.01
12.67
13.30
13.98
14.73
15.52
16.25
16.82
17.17
17.35
17.44
17.55
17.75
18.04
18.39
18.72
18.91
18.88
18.65
18.34
18.11
18.04
18.10
18.17
18.10
17.83
17.47
17.33
17.82
19.23
21.56
24.50
27.56
30.23
32.05
32.85
32.75
32.08
31.16
30.11
28.69
26.78
24.12
20.43
15.54
9.61
3.16
-3.09
-8.41
-12.22
-13.61
-12.25
-8.66
-4.07
0.19
3.23
4.60
4.18
1.80
-2.12
-7.83
-16.42
-29.26
-46.53
-66.48
-85.37
-98.41
-101.13
-89.70
-63.69
-26.78
14.23
52.21
81.98
101.34
110.86
105.40
84.23
52.48
19.01
-8.96
-28.53
-40.10
-45.56
-47.15
-46.98
-45.55
-43.20
-40.50
-38.65
-38.21
-38.82
-39.69
-40.19
-40.22
-39.30
-37.57
-35.80
-35.03
-35.82
-37.33
-38.61
-38.95
-38.24
-36.30
-33.37
-30.20
-27.69
-26.40
-26.41
-27.44
-29.05
-30.71
-31.61
-31.18
-29.24
-26.00
-21.76
-16.70
-10.94
-4.70
1.67
7.73
13.02
17.19
20.21
22.38
24.14
25.80
27.35
28.56
29.07
28.68
27.38
25.39
22.98
20.44
17.99
15.80
14.03
12.84
12.34
12.51
13.22
14.12
14.73
14.47
12.89
9.79
5.33
-0.04
-5.69
-11.03
-15.61
-19.13
-21.37
-22.21
-21.57
-19.58
-16.61
-13.29
-10.43
-8.74
-8.62
-10.05
-12.63
-15.72
-18.71
-21.24
-23.24
-24.91
-26.57
-28.52
-30.81
-33.20
-35.21
-36.20
-35.64
-33.27
-29.16
-23.78
-17.81
-11.99
-6.97
-3.07
-0.30
1.75
3.74
6.46
10.56
16.31
23.55
31.73
40.29
48.90
57.66
67.03
77.45
88.98
101.01
112.26
121.06
125.78
125.21
118.87
107.03
90.65
71.11
50.05
29.07
9.54
-7.58
-21.77
-32.94
-41.30
-47.32
-51.55
-54.56
-56.85
-58.77
-60.48
-61.94
-63.02
-63.63
-63.78
-63.66
-63.47
-63.31
-63.12
-62.63
-61.41
-59.06
-55.28
-49.92
-43.07
-34.97
-25.95
-16.45
-6.83
2.52
11.30
19.18
25.88
31.18
34.96
37.25
38.18
37.90
36.64
34.59
32.07
29.49
27.38
26.26
26.47
28.07
30.74
33.92
36.89
38.99
39.72
38.79
36.10
31.73
25.90
18.90
11.13
3.06
-4.74
-11.68
-17.23
-21.09
-23.25
-24.00
-23.83
-23.22
-22.54
-21.92
-21.42
-21.04
-20.87
-21.05
-21.70
-22.82
-24.26
-25.76
-27.08
-28.07
-28.76
-29.32
-29.95
-30.81
-31.92
-33.11
-34.07
-34.42
-33.83
-32.12
-29.23
-25.23
-20.19
-14.22
-7.52
-0.44
6.48
12.50
16.95
19.37
19.69
18.21
15.50
12.12
8.57
5.13
1.88
-1.18
-4.16
-7.16
-10.18
-13.19
-16.04
-18.59
-20.78
-22.69
-24.47
-26.31
-28.28
-30.37
-32.48
-34.51
-36.41
-38.17
-39.72
-41.01
-42.00
-42.84
-43.86
-45.47
-47.96
-51.28
-55.01
-58.40
-60.63
-61.05
-59.39
-55.78
-50.77
-45.21
-40.08
-36.23
-34.26
-34.32
-36.14
-39.16
-42.75
-46.37
-49.62
-52.30
-54.28
-55.44
-55.74
-55.16
-53.66
-51.09
-47.05
-41.06
-32.66
-21.85
-9.20
4.20
17.08
28.46
37.98
45.87
52.65
58.66
63.83
67.57
69.23
68.42
65.41
61.14
56.94
54.04
53.22
54.48
57.16
60.22
62.64
63.78
63.51
62.11
60.03
57.69
55.36
53.20
51.33
49.89
48.95
48.39
47.80
46.51
43.86
39.51
33.69
27.18
21.07
16.33
13.46
12.28
12.10
12.00
11.17
9.23
6.21
2.46
-1.57
-5.56
-9.39
-13.10
-16.83
-20.73
-24.87
-29.17
-33.35
-36.91
-39.18
-39.45
-37.24
-32.49
-25.68
-17.68
-9.60
-2.44
3.19
7.06
9.31
10.24
10.22
9.61
8.82
8.20
8.13
8.82
10.32
12.50
15.12
17.97
20.91
23.92
26.98
29.94
32.54
34.41
35.19
34.70
33.00
30.31
26.97
23.34
19.71
16.25
13.05
10.03
7.00
3.72
0.12
-3.58
-6.84
-8.87
-8.95
-6.68
-2.23
3.77
10.36
16.59
21.72
25.33
27.33
27.78
26.88
24.87
22.06
18.81
15.51
12.50
9.99
8.02
6.42
4.94
3.33
1.46
-0.63
-2.76
-4.76
-6.56
-8.23
-9.93
-11.81
-13.91
-16.13
-18.28
-20.17
-21.66
-22.67
-23.24
-23.49
-23.57
-23.70
-24.09
-24.90
-26.17
-27.71
-29.09
-29.72
-28.95
-26.34
-21.80
-15.68
-8.69
-1.70
4.51
9.40
12.73
14.46
14.71
13.70
11.85
9.73
8.03
7.37
8.11
10.17
13.01
15.79
17.62
17.94
16.62
14.03
10.85
7.79
5.34
3.64
2.47
1.41
0.02
-1.96
-4.58
-7.67
-10.91
-13.92
-16.40
-18.18
-19.24
-19.75
-19.99
-20.22
-20.56
-20.87
-20.72
-19.48
-16.47
-11.19
-3.51
6.25
17.34
28.77
39.51
48.71
55.78
60.53
63.18
64.30
64.76
65.41
66.76
68.61
70.04
69.68
66.26
59.18
48.79
36.28
23.05
10.18
-2.08
-14.27
-27.34
-42.06
-58.64
-76.60
-94.99
-112.70
-128.77
-142.42
-153.02
-160.10
-163.38
-162.95
-159.40
-153.74
-147.12
-140.40
-133.78
-126.78
-118.46
-108.00
-95.08
-80.09
-64.05
-48.16
-33.51
-20.79
-10.25
-1.69
5.28
11.23
16.77
22.47
28.76
35.78
43.30
50.72
57.19
61.96
64.67
65.47
64.89
63.55
61.77
59.44
56.08
51.23
44.73
37.00
28.85
21.24
14.89
10.03
6.46
3.65
1.08
-1.53
-4.03
-5.88
-6.32
-4.66
-0.59
5.67
13.34
21.36
28.64
34.36
38.11
39.90
40.00
38.77
36.58
33.78
30.73
27.88
25.67
24.51
24.54
25.63
27.38
29.21
30.60
31.17
30.80
29.53
27.51
24.96
22.03
18.90
15.75
12.72
9.88
7.22
4.59
1.76
-1.50
-5.32
-9.54
-13.67
-16.92
-18.41
-17.44
-13.80
-7.88
-0.61
6.85
13.43
18.46
21.71
23.33
23.64
22.89
21.34
19.27
17.06
15.22
14.23
14.42
15.80
18.07
20.67
22.96
24.40
24.65
23.66
21.59
18.72
15.38
11.86
8.39
5.15
2.26
-0.25
-2.51
-4.80
-7.44
-10.64
-14.26
-17.74
-20.24
-20.86
-19.04
-14.75
-8.52
-1.34
5.75
11.80
16.23
18.83
19.63
18.88
16.93
14.19
11.16
8.37
6.33
5.39
5.65
6.92
8.70
10.43
11.55
11.75
10.98
9.41
7.32
4.97
2.54
0.05
-2.54
-5.29
-8.23
-11.37
-14.74
-18.31
-21.92
-25.19
-27.51
-28.15
-26.49
-22.32
-15.95
-8.21
-0.21
6.93
12.42
15.93
17.53
17.63
16.71
15.22
13.53
11.94
10.73
10.17
10.43
11.49
13.10
14.82
16.17
16.80
16.59
15.61
14.05
12.09
9.84
7.34
4.66
1.95
-0.64
-2.92
-4.82
-6.39
-7.86
-9.52
-11.74
-14.70
-18.32
-22.10
-25.22
-26.75
-25.95
-22.59
-17.01
-10.08
-2.84
3.79
9.23
13.20
15.66
16.71
16.51
15.36
13.72
12.16
11.21
11.19
12.08
13.60
15.27
16.65
17.42
17.50
16.99
16.12
15.11
14.10
13.05
11.82
10.19
8.05
5.47
2.71
0.15
-1.95
-3.52
-4.76
-6.06
-7.87
-10.46
-13.80
-17.48
-20.79
-22.89
-23.02
-20.81
-16.37
-10.31
-3.58
2.83
8.16
12.00
14.28
15.18
14.94
13.82
12.14
10.29
8.75
7.95
8.13
9.23
10.95
12.78
14.28
15.15
15.35
14.95
14.13
13.06
11.84
10.56
9.22
7.80
6.25
4.50
2.54
0.45
-1.62
-3.47
-4.98
-6.13
-7.04
-7.93
-9.04
-10.54
-12.55
-15.11
-18.10
-21.29
-24.21
-26.24
-26.75
-25.28
-21.76
-16.56
-10.45
-4.37
0.88
4.78
7.13
8.03
7.74
6.64
5.14
3.68
2.65
2.32
2.72
3.69
4.91
6.07
7.00
7.65
8.06
8.30
8.36
8.15
7.49
6.28
4.52
2.34
0.01
-2.17
-4.00
-5.42
-6.56
-7.65
-8.95
-10.69
-12.92
-15.50
-18.04
-19.97
-20.64
-19.52
-16.39
-11.51
-5.60
0.36
5.41
8.91
10.66
10.86
9.93
8.26
6.18
3.97
1.94
0.43
-0.25
0.05
1.20
2.80
4.43
5.73
6.55
6.92
6.90
6.49
5.63
4.28
2.52
0.58
-1.25
-2.73
-3.76
-4.42
-4.92
-5.48
-6.32
-7.60
-9.40
-11.65
-14.05
-16.07
-17.04
-16.34
-13.64
-9.09
-3.31
2.82
8.39
12.77
15.69
17.22
17.58
17.00
15.68
13.77
11.53
9.31
7.49
6.39
6.09
6.40
6.98
7.43
7.50
7.10
6.31
5.20
3.84
2.17
0.14
-2.25
-4.88
-7.54
-10.01
-12.14
-13.89
-15.33
-16.63
-17.99
-19.61
-21.57
-23.84
-26.09
-27.76
-28.17
-26.67
-22.90
-16.96
-9.44
-1.23
6.71
13.60
18.93
22.51
24.34
24.60
23.58
21.72
19.54
17.57
16.19
15.54
15.51
15.81
16.11
16.19
15.96
15.39
14.42
12.97
10.92
8.23
4.99
1.45
-2.11
-5.43
-8.44
-11.16
-13.76
-16.35
-19.06
-21.92
-25.02
-28.40
-32.02
-35.66
-38.85
-40.96
-41.38
-39.78
-36.28
-31.43
-26.02
-20.83
-16.44
-13.10
-10.88
-9.72
-9.56
-10.29
-11.74
-13.56
-15.29
-16.47
-16.83
-16.41
-15.60
-14.91
-14.81
-15.43
-16.56
-17.76
-18.56
-18.69
-18.13
-17.06
-15.71
-14.23
-12.70
-11.17
-9.73
-8.49
-7.61
-7.20
-7.36
-8.15
-9.62
-11.68
-14.00
-16.03
-17.06
-16.49
-14.06
-10.05
-5.16
-0.27
3.87
6.82
8.53
9.17
8.95
8.01
6.39
4.20
1.68
-0.75
-2.61
-3.51
-3.36
-2.35
-0.96
0.31
1.02
0.98
0.17
-1.30
-3.25
-5.55
-8.10
-10.79
-13.48
-16.00
-18.22
-20.04
-21.52
-22.75
-23.89
-24.96
-25.79
-25.94
-24.84
-21.95
-17.03
-10.27
-2.35
5.79
13.15
18.96
22.86
24.84
25.13
24.07
22.02
19.28
16.18
13.11
10.47
8.59
7.62
7.46
7.79
8.16
8.18
7.58
6.30
4.47
2.24
-0.22
-2.78
-5.44
-8.18
-11.00
-13.89
-16.82
-19.77
-22.75
-25.75
-28.62
-31.02
-32.45
-32.33
-30.22
-26.01
-20.01
-12.84
-5.30
1.86
8.09
13.08
16.71
18.98
19.99
19.90
19.04
17.82
16.68
16.02
16.02
16.64
17.60
18.54
19.11
19.11
18.50
17.39
15.92
14.21
12.32
10.29
8.13
5.93
3.78
1.77
-0.06
-1.77
-3.50
-5.47
-7.89
-10.80
-14.04
-17.14
-19.46
-20.26
-19.04
-15.70
-10.59
-4.45
1.78
7.20
11.22
13.60
14.43
14.03
12.81
11.18
9.50
8.06
7.15
6.95
7.51
8.74
10.34
11.91
13.10
13.70
13.68
13.15
12.24
11.00
9.47
7.64
5.61
3.57
1.73
0.27
-0.80
-1.63
-2.49
-3.70
-5.48
-7.89
-10.71
-13.53
-15.72
-16.67
-15.90
-13.30
-9.11
-3.95
1.41
6.24
9.96
12.30
13.23
12.95
11.79
10.21
8.63
7.44
6.86
6.95
7.60
8.59
9.69
10.68
11.42
11.79
11.76
11.32
10.50
9.32
7.82
6.08
4.21
2.38
0.80
-0.37
-1.11
-1.55
-1.98
-2.68
-3.92
-5.77
-8.10
-10.55
-12.54
-13.43
-12.69
-10.10
-5.81
-0.43
5.20
10.17
13.82
15.82
16.21
15.31
13.54
11.38
9.24
7.48
6.33
5.87
6.05
6.68
7.50
8.27
8.79
8.93
8.58
7.71
6.28
4.33
1.97
-0.62
-3.24
-5.73
-7.97
-9.94
-11.71
-13.41
-15.24
-17.42
-20.03
-22.94
-25.72
-27.72
-28.26
-26.90
-23.58
-18.67
-12.84
-6.83
-1.24
3.53
7.35
10.22
12.23
13.52
14.29
14.74
15.11
15.64
16.50
17.73
19.23
20.71
21.80
22.14
21.52
19.95
17.64
14.95
12.21
9.64
7.37
5.36
3.56
1.88
0.22
-1.55
-3.54
-5.79
-8.15
-10.24
-11.53
-11.50
-9.80
-6.52
-2.09
2.73
7.16
10.58
12.67
13.40
12.93
11.51
9.41
6.95
4.51
2.52
1.35
1.19
1.95
3.30
4.79
5.95
6.51
6.36
5.58
4.34
2.83
1.25
-0.28
-1.64
-2.79
-3.77
-4.70
-5.76
-7.16
-8.98
-11.10
-13.14
-14.50
-14.60
-13.05
-9.85
-5.40
-0.38
4.41
8.33
10.91
12.03
11.78
10.47
8.54
6.48
4.75
3.65
3.27
3.52
4.19
5.05
5.91
6.68
7.28
7.63
7.62
7.17
6.24
4.89
3.25
1.47
-0.32
-2.03
-3.65
-5.14
-6.50
-7.79
-9.13
-10.70
-12.62
-14.78
-16.76
-17.86
-17.40
-14.97
-10.70
-5.23
0.50
5.57
9.35
11.57
12.31
11.78
10.30
8.21
5.91
3.86
2.47
1.99
2.39
3.39
4.53
5.35
5.51
4.93
3.70
2.05
0.22
-1.65
-3.52
-5.41
-7.41
-9.57
-11.86
-14.17
-16.35
-18.24
-19.77
-20.88
-21.63
-22.09
-22.37
-22.58
-22.76
-22.79
-22.31
-20.80
-17.73
-12.80
-6.15
1.62
9.53
16.60
22.08
25.64
27.35
27.53
26.55
24.80
22.61
20.33
18.29
16.78
15.98
15.86
16.26
16.83
17.21
17.13
16.47
15.25
13.62
11.73
9.72
7.66
5.62
3.70
1.99
0.57
-0.56
-1.45
-2.20
-2.93
-3.77
-4.87
-6.28
-7.97
-9.63
-10.75
-10.73
-9.13
-5.86
-1.29
3.88
8.86
13.02
16.00
17.70
18.20
17.70
16.46
14.82
13.14
11.79
10.99
10.81
11.16
11.87
12.71
13.46
13.92
13.93
13.34
12.08
10.10
7.48
4.33
0.88
-2.57
-5.73
-8.38
-10.46
-12.06
-13.38
-14.65
-16.10
-17.86
-19.91
-22.04
-23.81
-24.70
-24.19
-22.01
-18.25
-13.38
-8.11
-3.13
1.04
4.11
6.03
6.82
6.55
5.36
3.50
1.41
-0.42
-1.53
-1.69
-0.93
0.46
2.10
3.62
4.79
5.48
5.70
5.51
4.96
4.11
3.01
1.69
0.20
-1.38
-2.98
-4.52
-5.99
-7.42
-8.90
-10.49
-12.13
-13.63
-14.60
-14.63
-13.39
-10.84
-7.23
-3.05
1.05
4.50
6.93
8.19
8.37
7.71
6.49
5.01
3.53
2.26
1.36
0.97
1.10
1.71
2.62
3.53
4.19
4.39
4.07
3.28
2.17
0.91
-0.40
-1.67
-2.90
-4.08
-5.25
-6.47
-7.86
-9.46
-11.17
-12.73
-13.69
-13.56
-12.05
-9.15
-5.25
-0.93
3.15
6.51
8.85
10.12
10.38
9.73
8.37
6.53
4.56
2.80
1.56
0.98
1.04
1.56
2.33
3.13
3.79
4.19
4.19
3.71
2.72
1.33
-0.24
-1.72
-2.91
-3.79
-4.51
-5.32
-6.49
-8.20
-10.40
-12.86
-15.19
-16.91
-17.57
-16.86
-14.62
-10.97
-6.31
-1.25
3.50
7.30
9.76
10.77
10.50
9.34
7.68
5.88
4.20
2.82
1.86
1.42
1.52
2.10
2.95
3.80
4.34
4.37
3.81
2.73
1.33
-0.18
-1.59
-2.80
-3.81
-4.70
-5.55
-6.45
-7.47
-8.66
-10.09
-11.76
-13.56
-15.14
-16.01
-15.69
-13.89
-10.68
-6.44
-1.80
2.64
6.38
9.15
10.85
11.50
11.28
10.40
9.15
7.81
6.64
5.80
5.38
5.41
5.86
6.62
7.51
8.27
8.66
8.53
7.85
6.72
5.30
3.75
2.19
0.66
-0.79
-2.18
-3.55
-5.02
-6.66
-8.48
-10.35
-11.95
-12.89
-12.83
-11.60
-9.29
-6.21
-2.85
0.30
2.80
4.34
4.77
4.11
2.57
0.46
-1.86
-4.03
-5.82
-7.12
-7.93
-8.29
-8.30
-8.04
-7.54
-6.85
-5.96
-4.89
-3.62
-2.17
-0.54
1.21
3.01
4.72
6.19
7.25
7.77
7.64
6.80
5.31
3.34
1.24
-0.48
-1.29
-0.79
1.11
4.13
7.68
11.09
13.81
15.54
16.26
16.10
15.23
13.80
11.92
9.76
7.60
5.79
4.63
4.24
4.49
5.04
5.50
5.60
5.22
4.47
3.49
2.41
1.32
0.20
-0.94
-2.08
-3.19
-4.29
-5.46
-6.87
-8.62
-10.63
-12.57
-13.91
-14.11
-12.83
-10.10
-6.32
-2.11
1.93
5.33
7.84
9.37
9.89
9.46
8.23
6.48
4.57
2.91
1.80
1.36
1.56
2.25
3.22
4.22
5.01
5.38
5.19
4.42
3.20
1.72
0.22
-1.17
-2.43
-3.61
-4.87
-6.33
-8.06
-10.00
-11.92
-13.42
-14.03
-13.39
-11.34
-8.05
-3.96
0.34
4.22
7.25
9.16
9.92
9.68
8.66
7.13
5.39
3.73
2.43
1.74
1.79
2.55
3.79
5.11
6.10
6.43
5.98
4.84
3.27
1.56
-0.04
-1.36
-2.35
-3.10
-3.71
-4.38
-5.29
-6.55
-8.21
-10.13
-12.06
-13.58
-14.25
-13.67
-11.68
-8.40
-4.26
0.12
4.07
7.09
8.91
9.53
9.17
8.10
6.63
4.98
3.38
2.05
1.21
1.02
1.56
2.75
4.31
5.83
6.87
7.14
6.58
5.39
3.88
2.36
0.97
-0.27
-1.44
-2.60
-3.75
-4.87
-5.99
-7.21
-8.61
-10.12
-11.45
-12.12
-11.66
-9.84
-6.78
-2.93
1.09
4.70
7.50
9.31
10.12
10.02
9.13
7.65
5.85
4.00
2.42
1.37
1.01
1.40
2.38
3.69
4.98
5.91
6.26
5.98
5.16
3.97
2.56
1.07
-0.44
-1.90
-3.24
-4.38
-5.33
-6.17
-7.13
-8.40
-10.06
-11.96
-13.67
-14.63
-14.32
-12.47
-9.15
-4.81
-0.12
4.22
7.66
9.90
10.94
10.96
10.21
8.97
7.50
6.02
4.75
3.88
3.54
3.71
4.29
5.05
5.77
6.25
6.39
6.12
5.46
4.46
3.23
1.88
0.57
-0.59
-1.60
-2.51
-3.47
-4.62
-6.05
-7.78
-9.70
-11.58
-13.06
-13.68
-13.10
-11.14
-7.97
-4.05
0.02
3.68
6.60
8.66
9.93
10.46
10.24
9.26
7.58
5.48
3.45
1.97
1.40
1.77
2.79
4.02
5.02
5.54
5.50
5.01
4.21
3.19
2.00
0.68
-0.76
-2.23
-3.66
-4.96
-6.15
-7.32
-8.62
-10.10
-11.61
-12.78
-13.08
-12.09
-9.68
-6.16
-2.13
1.67
4.71
6.80
7.99
8.52
8.51
7.96
6.83
5.16
3.20
1.40
0.23
-0.04
0.57
1.73
3.00
3.97
4.41
4.24
3.48
2.17
0.31
-1.98
-4.50
-6.96
-9.08
-10.77
-12.18
-13.58
-15.21
-17.01
-18.60
-19.38
-18.82
-16.68
-13.13
-8.71
-4.09
0.13
3.57
6.04
7.48
7.86
7.18
5.56
3.27
0.77
-1.39
-2.71
-2.93
-2.13
-0.70
0.82
1.90
2.23
1.81
0.88
-0.19
-1.11
-1.73
-2.10
-2.38
-2.81
-3.55
-4.74
-6.39
-8.34
-10.29
-11.78
-12.31
-11.52
-9.30
-5.91
-1.88
2.15
5.62
8.18
9.72
10.28
9.98
8.96
7.41
5.57
3.77
2.37
1.63
1.63
2.21
3.08
3.86
4.31
4.34
4.03
3.52
2.94
2.33
1.62
0.72
-0.47
-2.00
-3.89
-6.05
-8.34
-10.46
-12.03
-12.64
-11.98
-9.97
-6.81
-2.92
1.14
4.83
7.74
9.69
10.62
10.65
9.93
8.66
7.06
5.38
3.91
2.93
2.61
2.98
3.86
4.92
5.82
6.30
6.26
5.74
4.92
3.94
2.94
1.96
0.97
-0.11
-1.41
-3.02
-4.92
-6.85
-8.42
-9.11
-8.53
-6.56
-3.42
0.36
4.17
7.50
10.01
11.59
12.23
12.00
10.96
9.26
7.19
5.12
3.47
2.54
2.45
3.06
4.03
4.98
5.53
5.50
4.84
3.68
2.22
0.66
-0.85
-2.23
-3.50
-4.75
-6.12
-7.65
-9.31
-10.86
-11.90
-12.04
-10.99
-8.72
-5.49
-1.76
1.98
5.31
7.93
9.63
10.24
9.72
8.20
6.06
3.85
2.14
1.30
1.33
1.93
2.65
3.13
3.24
3.06
2.75
2.43
2.08
1.60
0.84
-0.24
-1.65
-3.34
-5.27
-7.41
-9.64
-11.69
-13.15
-13.53
-12.47
-9.94
-6.28
-2.13
1.77
4.87
6.89
7.84
7.89
7.22
5.95
4.21
2.20
0.22
-1.38
-2.30
-2.43
-1.91
-1.02
-0.13
0.51
0.80
0.79
0.58
0.24
-0.22
-0.89
-1.89
-3.31
-5.13
-7.20
-9.23
-10.87
-11.80
-11.78
-10.74
-8.74
-5.98
-2.74
0.67
3.90
6.64
8.61
9.63
9.68
8.93
7.67
6.26
4.99
4.00
3.33
2.95
2.81
2.85
2.95
2.95
2.65
1.91
0.70
-0.82
-2.38
-3.76
-4.88
-5.93
-7.15
-8.74
-10.62
-12.38
-13.40
-13.12
-11.29
-8.08
-4.03
0.18
3.94
6.85
8.76
9.64
9.52
8.49
6.76
4.63
2.55
0.97
0.20
0.35
1.27
2.63
3.99
4.96
5.25
4.79
3.71
2.26
0.76
-0.56
-1.63
-2.57
-3.59
-4.93
-6.68
-8.70
-10.60
-11.89
-12.07
-10.88
-8.37
-4.90
-1.01
2.72
5.88
8.22
9.62
10.05
9.51
8.12
6.13
3.99
2.23
1.27
1.29
2.17
3.55
4.95
5.97
6.38
6.11
5.23
3.92
2.39
0.85
-0.52
-1.67
-2.61
-3.50
-4.50
-5.75
-7.30
-9.05
-10.71
-11.89
-12.17
-11.24
-9.03
-5.78
-1.96
1.82
5.01
7.23
8.32
8.32
7.36
5.63
3.36
0.85
-1.57
-3.48
-4.57
-4.67
-3.85
-2.43
-0.88
0.32
0.87
0.70
-0.01
-0.98
-1.89
-2.58
-3.04
-3.37
-3.71
-4.19
-4.83
-5.54
-6.13
-6.40
-6.14
-5.31
-4.02
-2.50
-1.03
0.19
1.07
1.63
1.88
1.76
1.12
-0.18
-2.16
-4.66
-7.37
-9.96
-12.23
-14.15
-15.84
-17.38
-18.77
-19.89
-20.51
-20.46
-19.69
-18.30
-16.55
-14.72
-13.10
-11.86
-11.09
-10.80
-10.95
-11.44
-12.07
-12.55
-12.57
-11.85
-10.31
-8.09
-5.56
-3.14
-1.20
0.06
0.65
0.73
0.49
0.12
-0.28
-0.62
-0.81
-0.73
-0.24
0.79
2.43
4.69
7.46
10.50
13.46
15.95
17.65
18.40
18.25
17.40
16.09
14.53
12.79
10.91
8.94
7.02
5.46
4.60
4.73
5.96
8.13
10.86
13.65
16.04
17.72
18.59
18.71
18.23
17.30
16.02
14.50
12.89
11.43
10.38
9.91
9.98
10.36
10.71
10.79
10.52
10.00
9.39
8.79
8.16
7.39
6.38
5.14
3.83
2.58
1.45
0.40
-0.64
-1.60
-2.24
-2.19
-1.15
0.97
3.91
7.24
10.46
13.20
15.28
16.66
17.32
17.27
16.51
15.12
13.28
11.30
9.52
8.25
7.67
7.79
8.43
9.32
10.09
10.42
10.08
8.98
7.19
4.93
2.51
0.22
-1.69
-3.11
-4.12
-4.90
-5.72
-6.77
-8.07
-9.47
-10.63
-11.20
-10.88
-9.54
-7.20
-4.06
-0.45
3.24
6.63
9.38
11.28
12.24
12.23
11.27
9.40
6.73
3.50
0.06
-3.14
-5.70
-7.40
-8.26
-8.51
-8.43
-8.26
-8.17
-8.24
-8.54
-9.16
-10.16
-11.52
-13.07
-14.62
-15.96
-17.00
-17.73
-18.18
-18.27
-17.87
-16.76
-14.80
-12.04
-8.73
-5.30
-2.15
0.41
2.26
3.43
4.00
4.02
3.50
2.46
1.01
-0.64
-2.19
-3.37
-4.00
-4.10
-3.80
-3.25
-2.60
-1.93
-1.33
-0.87
-0.64
-0.73
-1.17
-1.92
-2.92
-4.13
-5.55
-7.18
-8.95
-10.61
-11.75
-11.91
-10.73
-8.13
-4.37
-0.04
4.15
7.58
9.86
10.92
10.87
9.92
8.27
6.10
3.72
1.53
0.02
-0.42
0.30
1.89
3.80
5.42
6.34
6.45
5.91
4.96
3.78
2.40
0.84
-0.85
-2.55
-4.08
-5.33
-6.36
-7.28
-8.17
-8.92
-9.18
-8.52
-6.61
-3.45
0.58
4.86
8.70
11.58
13.29
13.86
13.47
12.34
10.65
8.60
6.38
4.22
2.35
0.98
0.20
-0.00
0.25
0.73
1.18
1.35
1.06
0.27
-0.96
-2.48
-4.13
-5.79
-7.44
-9.07
-10.67
-12.22
-13.64
-14.91
-15.99
-16.84
-17.35
-17.30
-16.37
-14.29
-10.94
-6.43
-1.16
4.37
9.60
14.05
17.37
19.30
19.74
18.72
16.53
13.62
10.64
8.22
6.83
6.60
7.32
8.49
9.55
10.03
9.69
8.55
6.85
4.89
2.88
0.97
-0.78
-2.33
-3.63
-4.63
-5.32
-5.81
-6.32
-7.12
-8.40
-10.21
-12.33
-14.39
-15.90
-16.41
-15.64
-13.53
-10.33
-6.46
-2.45
1.26
4.32
6.56
7.89
8.31
7.87
6.73
5.10
3.32
1.73
0.63
0.19
0.44
1.23
2.34
3.46
4.31
4.69
4.54
3.88
2.81
1.46
-0.07
-1.71
-3.38
-4.98
-6.34
-7.35
-7.98
-8.34
-8.63
-9.10
-9.84
-10.70
-11.31
-11.20
-10.05
-7.82
-4.79
-1.49
1.56
3.95
5.53
6.30
6.32
5.71
4.57
3.07
1.45
0.02
-0.97
-1.35
-1.13
-0.48
0.33
1.03
1.41
1.32
0.70
-0.45
-2.07
-4.05
-6.23
-8.42
-10.48
-12.28
-13.80
-15.12
-16.31
-17.49
-18.63
-19.62
-20.18
-19.98
-18.72
-16.21
-12.58
-8.13
-3.41
1.06
4.82
7.61
9.40
10.27
10.39
9.89
8.90
7.60
6.23
5.08
4.41
4.38
4.94
5.90
6.92
7.75
8.21
8.29
8.06
7.59
6.94
6.15
5.26
4.34
3.49
2.77
2.18
1.65
1.05
0.27
-0.71
-1.78
-2.71
-3.13
-2.67
-1.02
1.95
6.01
10.65
15.19
18.92
21.38
22.43
22.21
21.05
19.32
17.32
15.21
13.13
11.19
9.49
8.13
7.16
6.56
6.25
6.13
6.14
6.21
6.26
6.19
5.90
5.32
4.45
3.47
2.63
2.19
2.26
2.68
3.08
3.01
2.22
0.90
-0.35
-0.58
1.14
5.44
12.39
21.34
30.98
39.42
44.60
44.75
38.88
27.18
11.16
-6.66
-23.38
-36.49
-44.55
-47.41
-46.10
-42.23
-37.47
-33.09
-29.83
-27.96
-27.41
-27.91
-29.00
-30.09
-30.52
-29.86
-28.06
-25.52
-23.05
-21.45
-21.22
-22.38
-24.41
-26.50
-27.79
-27.66
-25.86
-22.65
-18.61
-14.53
-11.17
-9.04
-8.34
-8.97
-10.69
-13.32
-16.74
-20.82
-25.29
-29.58
-32.92
-34.50
-33.82
-30.95
-26.63
-22.10
-18.75
-17.64
-19.09
-22.56
-26.78
-30.22
-31.56
-30.06
-25.61
-18.59
-9.61
0.70
11.70
22.77
33.21
42.44
50.12
56.27
61.25
65.51
69.41
72.99
76.01
78.17
79.29
79.48
79.08
78.52
78.07
77.68
77.06
75.73
73.39
70.02
65.99
61.91
58.46
56.08
54.88
54.48
54.04
52.31
47.95
39.82
27.46
11.46
-6.63
-24.65
-40.53
-52.85
-61.26
-66.23
-68.69
-69.47
-68.99
-67.35
-64.53
-60.63
-55.96
-50.94
-45.87
-40.82
-35.71
-30.45
-25.12
-20.10
-15.90
-13.02
-11.64
-11.58
-12.31
-13.20
-13.72
-13.66
-13.09
-12.26
-11.51
-11.11
-11.25
-12.04
-13.47
-15.41
-17.62
-19.80
-21.72
-23.25
-24.37
-25.03
-25.00
-23.88
-21.21
-16.63
-10.07
-1.79
7.79
18.24
29.08
39.64
48.89
55.40
57.67
54.69
46.46
34.19
20.04
6.46
-4.50
-11.75
-15.23
-15.70
-14.24
-11.91
-9.49
-7.46
-6.09
-5.52
-5.77
-6.76
-8.32
-10.24
-12.30
-14.38
-16.46
-18.52
-20.46
-22.05
-22.93
-22.75
-21.31
-18.64
-15.02
-10.85
-6.52
-2.38
1.30
4.31
6.46
7.69
8.09
7.96
7.72
7.75
8.24
9.07
9.96
10.56
10.66
10.28
9.55
8.60
7.36
5.69
3.53
1.10
-1.12
-2.52
-2.73
-1.88
-0.61
0.15
-0.36
-2.38
-5.53
-8.94
-11.60
-12.71
-11.94
-9.42
-5.72
-1.54
2.38
5.46
7.34
7.86
7.05
5.10
2.31
-0.98
-4.40
-7.65
-10.48
-12.71
-14.24
-15.07
-15.38
-15.49
-15.78
-16.55
-17.83
-19.20
-19.86
-18.93
-15.76
-10.30
-3.12
4.79
12.36
18.84
23.96
27.83
30.79
33.12
34.90
36.08
36.59
36.42
35.71
34.66
33.38
31.89
30.06
27.75
24.90
21.68
18.50
15.91
14.52
14.84
17.06
21.01
26.14
31.44
35.56
36.85
33.78
25.47
12.31
-3.76
-19.63
-31.94
-38.39
-38.52
-33.79
-26.79
-20.14
-15.56
-13.63
-14.11
-16.42
-19.94
-24.10
-28.22
-31.55
-33.45
-33.63
-32.19
-29.41
-25.48
-20.29
-13.62
-5.46
3.68
12.68
20.17
24.98
26.68
25.79
23.65
21.88
21.83
24.13
28.47
33.78
38.44
40.46
37.81
29.14
14.72
-2.85
-18.88
-28.07
-26.67
-14.55
4.45
24.05
38.26
43.74
40.60
31.29
18.84
5.49
-7.69
-20.25
-31.36
-39.73
-44.20
-44.62
-42.38
-39.95
-39.49
-42.21
-47.69
-53.82
-57.54
-55.87
-47.13
-31.96
-13.29
4.85
18.36
24.62
23.32
16.44
7.51
0.68
-1.58
-1.45
-1.71
-4.25
-9.36
-14.94
-18.79
-19.08
-15.06
-7.45
1.94
11.21
18.60
23.09
24.43
22.85
19.12
14.47
10.73
9.86
12.56
16.68
18.60
15.40
6.25
-7.44
-22.96
-37.48
-48.86
-55.34
-55.63
-48.21
-32.05
-7.81
21.36
50.10
72.28
83.31
82.80
72.66
57.64
43.44
34.54
32.54
36.14
42.25
47.68
50.70
50.49
47.69
43.52
39.42
36.70
36.79
40.70
48.94
60.86
72.99
81.57
83.60
78.88
69.92
60.86
54.31
50.29
45.95
35.16
13.93
-16.81
-51.41
-83.26
-107.59
-124.29
-135.93
-145.65
-158.18
-175.36
-195.37
-214.27
-229.48
-240.32
-248.85
-256.25
-246.05
-209.58
-150.51
-81.96
-16.83
32.43
66.10
83.80
85.48
72.90
46.87
10.19
-31.21
-65.51
-80.34
-68.29
-32.70
15.77
65.47
106.01
132.73
146.89
153.01
154.51
152.49
147.48
137.42
123.04
106.00
89.15
75.35
66.35
61.62
59.15
56.17
50.97
44.06
35.92
27.73
20.72
15.90
13.37
12.61
12.37
11.23
8.50
3.69
-2.95
-10.19
-16.01
-18.40
-16.14
-9.21
1.30
14.15
28.05
41.87
54.48
64.66
71.39
74.26
74.05
72.61
72.45
75.55
82.57
92.61
103.74
113.97
121.91
126.97
129.04
128.02
123.51
114.98
102.06
84.84
64.02
40.74
16.27
-8.23
-31.86
-53.90
-73.71
-90.70
-104.36
-114.34
-120.65
-123.62
-123.92
-122.31
-119.57
-116.26
-112.70
-108.91
-104.72
-100.04
-94.95
-89.78
-85.01
-80.99
-77.73
-74.83
-71.64
-67.51
-62.14
-55.65
-48.56
-41.50
-35.01
-29.51
-25.07
-21.48
-18.36
-15.25
-11.77
-7.57
-2.47
3.45
9.63
15.24
19.56
22.16
23.08
22.75
21.68
20.21
18.25
15.01
9.86
2.77
-5.47
-13.69
-20.69
-25.60
-28.10
-28.34
-27.80
-27.81
-29.09
-31.70
-35.41
-39.77
-44.14
-47.83
-50.54
-54.43
-61.35
-71.54
-83.56
-95.42
-105.34
-112.11
-115.13
-114.50
-113.70
-115.25
-119.29
-124.21
-128.64
-132.28
-135.26
-137.58
-138.88
-142.44
-149.96
-160.19
-170.07
-177.58
-182.80
-186.94
-190.82
-170.44
-115.26
-33.55
54.26
131.17
189.11
226.06
243.76
246.59
240.41
227.19
208.67
187.34
166.00
146.40
128.84
113.75
101.99
94.34
87.99
80.42
70.97
60.88
51.66
44.48
40.29
39.80
43.06
47.74
51.36
52.98
53.28
53.19
53.21
53.37
53.42
53.11
51.44
48.18
44.32
41.53
40.72
41.61
43.05
43.64
42.18
37.61
29.57
18.66
6.29
-6.15
-17.37
-26.25
-31.99
-33.72
-31.66
-27.84
-25.77
-26.72
-30.68
-36.61
-43.11
-48.65
-51.96
-52.45
-50.18
-45.57
-38.75
-30.23
-20.94
-12.14
-4.96
0.02
2.83
3.98
4.21
4.85
6.65
9.44
12.22
13.84
13.82
12.52
10.84
9.82
11.00
15.38
23.08
33.55
46.20
60.82
77.27
94.73
106.69
107.30
95.36
75.40
53.38
32.22
11.47
-10.19
-32.40
-52.01
-63.32
-61.66
-47.15
-23.81
1.49
21.89
32.99
33.90
26.75
15.73
4.93
-3.19
-7.91
-9.85
-9.87
-8.33
-5.59
-2.21
1.33
4.37
6.03
5.52
2.58
-2.02
-6.45
-8.61
-7.00
-1.23
7.48
16.68
23.75
26.83
25.61
21.34
15.99
11.56
9.63
11.28
16.84
25.63
35.47
42.84
43.90
36.11
19.86
-1.13
-20.95
-33.78
-36.01
-27.54
-11.51
7.00
22.70
31.62
32.08
24.86
12.79
-0.35
-11.20
-18.01
-21.15
-22.66
-25.05
-30.25
-39.07
-51.20
-65.53
-80.31
-93.35
-102.31
-105.28
-101.60
-92.31
-79.89
-67.34
-57.26
-51.16
-49.38
-51.39
-56.11
-62.01
-67.28
-70.01
-68.75
-63.07
-53.88
-43.12
-33.12
-25.58
-20.99
-18.57
-16.83
-14.46
-11.09
-7.52
-5.30
-5.83
-9.46
-15.01
-19.91
-21.14
-16.47
-5.39
10.52
28.03
43.46
53.97
58.55
58.23
55.38
52.34
50.17
48.15
44.38
37.17
26.21
13.05
0.36
-9.28
-14.43
-15.03
-11.96
-6.19
1.57
10.87
21.07
31.16
39.89
46.33
50.30
52.40
53.67
55.14
57.43
60.66
64.57
68.69
72.32
74.60
74.52
71.03
63.36
51.33
35.72
18.23
1.17
-13.29
-23.72
-29.75
-31.92
-31.21
-28.55
-24.62
-19.99
-15.24
-11.02
-7.83
-5.83
-4.69
-3.81
-2.57
-0.54
2.39
6.10
10.24
14.19
16.87
16.86
12.88
4.40
-7.88
-22.03
-35.40
-45.43
-50.41
-49.94
-44.81
-36.57
-26.95
-17.34
-8.57
-1.01
5.24
10.12
13.63
15.91
17.40
18.89
21.25
25.06
30.32
36.32
41.90
45.99
47.92
47.54
45.01
40.57
34.34
26.42
17.04
6.60
-4.39
-15.47
-26.28
-36.56
-45.94
-53.86
-59.60
-62.46
-62.01
-58.20
-51.38
-42.18
-31.39
-19.85
-8.44
2.06
10.98
17.96
22.92
26.13
28.04
29.09
29.56
29.41
28.22
25.38
20.34
12.96
3.67
-6.48
-16.14
-24.03
-29.24
-31.37
-30.48
-26.99
-21.67
-15.58
-9.91
-5.65
-3.34
-2.86
-3.57
-4.68
-5.57
-6.04
-6.20
-6.29
-6.46
-6.70
-6.86
-6.71
-6.04
-4.79
-3.15
-1.71
-1.42
-3.12
-6.96
-12.00
-16.28
-17.59
-14.55
-7.38
2.17
11.72
19.38
24.51
27.64
29.77
31.49
32.59
32.26
29.71
24.68
17.78
10.20
3.31
-1.73
-4.28
-4.27
-2.07
1.65
6.05
9.98
11.82
9.53
1.15
-14.03
-34.35
-55.49
-71.56
-77.47
-71.49
-56.23
-37.53
-21.60
-12.10
-8.97
-9.52
-10.68
-10.94
-10.49
-10.00
-9.05
-5.75
2.19
15.63
33.01
50.70
64.82
73.10
75.71
74.85
73.31
73.03
74.35
76.06
76.01
72.08
63.28
50.44
36.14
23.82
16.23
13.94
15.00
15.91
13.54
6.70
-3.49
-14.76
-25.22
-34.41
-42.91
-51.15
-58.32
-62.36
-61.14
-53.88
-41.90
-28.03
-15.18
-4.85
3.36
11.17
20.28
31.18
42.71
52.37
57.39
55.83
47.55
34.53
20.15
8.15
1.03
-0.87
0.69
2.81
2.93
-0.10
-5.91
-13.21
-20.66
-27.41
-33.01
-36.92
-38.37
-36.54
-31.17
-22.95
-13.38
-4.02
4.29
11.84
19.73
29.08
40.19
52.13
62.93
70.12
71.55
65.96
53.41
35.33
14.16
-7.24
-26.36
-41.71
-53.07
-61.21
-67.20
-71.69
-74.55
-75.11
-72.75
-67.40
-59.61
-50.25
-40.00
-29.16
-17.82
-6.24
4.86
14.42
21.52
25.85
27.91
28.72
29.27
30.11
31.19
31.91
31.39
28.53
22.26
11.85
-2.54
-19.61
-37.03
-52.06
-62.41
-66.87
-65.33
-58.38
-46.87
-31.85
-14.91
1.58
14.79
22.30
23.21
18.75
11.80
5.69
2.76
3.55
7.08
11.82
16.79
22.04
28.28
35.99
44.74
53.02
58.79
60.39
57.12
49.32
37.82
23.36
6.26
-13.13
-33.72
-53.15
-68.10
-75.63
-74.66
-66.74
-55.68
-46.09
-41.65
-43.90
-51.86
-62.47
-71.58
-75.10
-70.18
-56.04
-34.23
-8.21
17.91
40.73
58.45
70.89
78.60
81.93
80.65
74.33
63.27
48.97
33.91
20.74
11.35
6.45
5.63
7.63
10.68
12.70
11.50
5.25
-6.90
-24.16
-44.01
-62.75
-76.58
-82.81
-80.67
-71.20
-56.64
-39.37
-21.26
-3.60
12.47
25.59
34.11
36.65
32.92
24.17
12.99
2.26
-5.91
-10.90
-13.43
-14.76
-15.74
-16.34
-15.76
-13.15
-8.29
-1.85
4.79
10.01
12.48
11.56
7.37
0.82
-6.68
-13.42
-17.82
-18.78
-15.95
-9.83
-1.62
7.14
14.95
20.78
24.20
25.41
25.00
23.68
22.00
20.20
18.22
15.91
13.19
10.16
7.13
4.56
3.06
3.36
6.23
12.24
21.43
33.05
45.51
56.63
64.04
65.80
60.99
50.10
35.10
18.94
4.64
-5.81
-12.06
-15.28
-17.22
-19.00
-20.46
-20.31
-17.20
-10.79
-2.32
5.81
11.21
12.54
10.02
5.12
-0.27
-4.48
-6.41
-5.52
-1.65
4.99
13.81
23.60
32.68
39.07
40.95
37.06
27.02
11.51
-7.71
-27.93
-45.93
-58.62
-63.89
-61.30
-52.22
-39.48
-26.33
-15.44
-8.12
-4.27
-2.85
-2.77
-3.52
-5.37
-9.10
-15.32
-23.90
-33.69
-42.76
-49.00
-50.70
-47.10
-38.38
-25.53
-10.00
6.45
21.87
34.31
42.19
44.85
42.83
37.87
32.19
27.66
25.18
24.69
25.53
26.80
27.53
26.67
23.06
15.79
4.74
-9.12
-23.83
-37.08
-47.13
-53.19
-55.43
-54.33
-50.22
-43.12
-33.05
-20.48
-6.51
7.34
19.57
29.07
35.34
38.37
38.58
36.76
33.91
31.17
29.48
29.33
30.56
32.44
33.98
34.46
33.67
31.72
28.65
24.11
17.44
8.30
-2.74
-13.99
-23.14
-28.25
-28.74
-25.65
-21.09
-17.04
-14.35
-12.37
-9.69
-4.94
2.25
11.05
19.82
26.86
31.15
32.55
31.88
30.04
28.04
26.47
25.48
24.85
23.97
22.12
18.69
13.92
7.92
1.52
-4.52
-9.73
-14.11
-18.04
-21.87
-25.64
-28.52
-30.73
-32.37
-33.88
-35.49
-36.73
-36.43
-33.16
-25.94
-14.02
0.68
16.06
29.95
41.16
49.65
55.96
60.45
58.49
55.23
49.41
40.52
28.20
12.61
-5.50
-24.83
-43.48
-58.99
-67.93
-68.03
-58.58
-43.84
-31.13
-25.96
-28.90
-36.15
-43.76
-48.80
-51.45
-52.83
-54.33
-55.42
-54.87
-51.37
-44.49
-34.92
-23.66
-12.38
-2.27
6.00
12.58
18.15
23.57
29.30
35.18
40.70
44.54
45.32
41.95
34.34
23.53
11.42
0.02
-9.15
-15.36
-18.97
-21.14
-23.28
-26.33
-30.23
-33.72
-34.82
-31.67
-23.42
-10.89
3.62
17.20
27.52
33.65
36.19
36.51
35.91
34.90
33.17
30.09
25.42
19.68
13.99
9.56
7.09
6.50
7.10
8.07
8.91
9.58
10.33
11.33
12.36
12.81
12.03
9.67
5.96
1.65
-2.34
-5.29
-6.90
-7.34
-7.03
-6.47
-6.09
-6.24
-7.17
-9.00
-11.63
-14.77
-17.96
-20.75
-22.81
-23.97
-24.13
-23.22
-21.14
-17.90
-13.72
-9.07
-4.51
-0.51
2.68
5.03
6.62
7.52
7.78
7.49
6.91
6.43
6.47
7.26
8.76
10.61
12.32
13.47
13.87
13.56
12.76
11.72
10.66
9.69
8.83
8.04
7.28
6.55
5.93
5.48
5.26
5.20
5.11
4.70
3.70
1.97
-0.39
-3.07
-5.66
-7.74
-9.10
-9.75
-9.92
-9.91
-9.99
-10.30
-10.82
-11.41
-11.88
-12.02
-11.68
-10.75
-9.22
-7.22
-4.98
-2.81
-0.95
0.46
1.51
2.39
3.30
4.35
5.44
6.38
6.97
7.11
6.86
6.41
5.98
5.75
5.77
6.00
6.25
6.33
6.10
5.54
4.76
4.01
3.50
3.36
3.52
3.79
3.92
3.77
3.31
2.64
1.91
1.26
0.73
0.36
0.16
0.11
0.14
0.08
-0.30
-1.21
-2.76
-4.77
-6.88
-8.54
-9.30
-8.87
-7.28
-4.80
-1.86
1.08
3.62
5.51
6.64
7.10
7.08
6.86
6.63
6.49
6.34
5.98
5.24
4.05
2.51
0.80
-0.88
-2.39
-3.72
-4.88
-5.86
-6.59
-6.99
-7.05
-6.88
-6.76
-6.96
-7.66
-8.81
-10.15
-11.28
-11.86
-11.78
-11.18
-10.39
-9.77
-9.53
-9.65
-9.97
-10.22
-10.27
-10.10
-9.81
-9.58
-9.54
-9.80
-10.45
-11.53
-12.98
-14.53
-15.77
-16.20
-15.42
-13.32
-10.11
-6.25
-2.28
1.34
4.30
6.51
8.00
8.93
9.48
9.89
10.36
11.01
11.83
12.70
13.45
13.90
13.94
13.61
13.00
12.31
11.70
11.31
11.18
11.26
11.41
11.45
11.27
10.78
10.00
9.03
8.02
7.15
6.57
6.34
6.41
6.56
6.50
6.01
4.98
3.55
2.01
0.69
-0.18
-0.58
-0.70
-0.86
-1.34
-2.26
-3.59
-5.14
-6.68
-8.03
-9.12
-9.99
-10.77
-11.64
-12.72
-14.02
-15.35
-16.41
-16.78
-16.11
-14.24
-11.26
-7.54
-3.57
0.17
3.30
5.68
7.36
8.55
9.53
10.50
11.50
12.41
13.02
13.15
12.78
12.14
11.59
11.44
11.83
12.58
13.27
13.42
12.72
11.16
9.00
6.72
4.78
3.51
3.01
3.22
3.96
4.99
6.11
7.13
7.90
8.29
8.22
7.70
6.84
5.84
4.89
4.19
3.90
4.15
5.06
6.65
8.76
10.97
12.62
12.94
11.31
7.58
2.18
-4.01
-9.87
-14.39
-16.98
-17.43
-15.97
-12.96
-8.86
-4.09
0.95
5.87
10.25
13.66
15.69
15.99
14.42
11.14
6.63
1.68
-2.90
-6.54
-9.00
-10.44
-11.12
-11.25
-10.88
-9.96
-8.57
-6.98
-5.68
-5.17
-5.68
-7.15
-9.18
-11.25
-12.93
-13.95
-14.27
-13.98
-13.25
-12.25
-11.21
-10.38
-10.05
-10.47
-11.73
-13.66
-15.82
-17.54
-18.24
-17.58
-15.63
-12.84
-9.81
-7.11
-5.06
-3.67
-2.74
-1.94
-1.01
0.18
1.60
3.10
4.47
5.57
6.34
6.85
7.19
7.48
7.72
7.87
7.85
7.65
7.33
7.00
6.75
6.53
6.18
5.52
4.42
2.88
1.08
-0.74
-2.33
-3.57
-4.46
-5.12
-5.74
-6.46
-7.35
-8.34
-9.33
-10.21
-10.97
-11.67
-12.42
-13.26
-14.10
-14.81
-15.28
-15.55
-15.81
-16.25
-16.91
-17.53
-17.62
-16.69
-14.49
-11.14
-7.10
-2.97
0.73
3.71
5.95
7.60
8.87
9.94
10.90
11.76
12.51
13.15
13.67
14.09
14.37
14.47
14.30
13.81
13.01
11.98
10.85
9.77
8.85
8.14
7.62
7.24
6.93
6.58
6.09
5.41
4.52
3.52
2.58
1.93
1.71
1.96
2.51
3.09
3.33
3.03
2.11
0.76
-0.77
-2.19
-3.36
-4.26
-5.01
-5.75
-6.56
-7.48
-8.43
-9.25
-9.74
-9.70
-8.97
-7.51
-5.44
-2.99
-0.40
2.11
4.44
6.59
8.62
10.60
12.54
14.44
16.31
18.18
20.07
21.96
23.76
25.27
26.33
26.86
26.96
26.82
26.63
26.45
26.08
25.15
23.24
20.06
15.53
9.76
2.97
-4.54
-12.31
-19.69
-25.87
-30.19
-32.38
-32.76
-32.12
-31.28
-30.63
-29.89
-28.31
-25.16
-20.30
-14.38
-8.61
-4.20
-1.75
-1.02
-1.12
-1.02
-0.01
2.01
4.68
7.45
9.89
11.80
13.19
14.14
14.68
14.82
14.50
13.74
12.52
10.78
8.46
5.46
1.91
-1.82
-5.15
-7.57
-8.96
-9.62
-10.13
-10.87
-11.63
-11.57
-9.61
-5.02
2.05
10.47
18.59
24.90
28.67
30.09
30.13
29.96
30.60
32.62
36.13
40.90
46.41
51.93
56.61
59.56
59.93
57.12
50.79
40.92
27.85
12.32
-4.47
-21.00
-35.66
-47.11
-54.74
-58.76
-60.07
-59.77
-58.67
-56.99
-54.47
-50.70
-45.50
-39.16
-32.31
-25.64
-19.71
-14.75
-10.80
-7.79
-5.66
-4.29
-3.48
-2.90
-2.18
-1.01
0.75
2.99
5.46
7.78
9.64
10.80
11.19
10.84
9.91
8.58
7.10
5.68
4.39
3.20
1.93
0.39
-1.42
-3.23
-4.57
-4.89
-3.92
-1.79
0.94
3.49
5.12
5.38
4.20
1.83
-1.21
-4.31
-6.86
-8.33
-8.39
-7.00
-4.41
-1.06
2.53
5.92
8.85
11.21
12.98
14.17
14.82
14.94
14.62
14.05
13.43
13.02
13.00
13.49
14.41
15.51
16.36
16.46
15.34
12.77
8.84
3.99
-1.16
-5.88
-9.59
-11.87
-12.58
-11.82
-9.98
-7.66
-5.55
-4.23
-4.03
-4.95
-6.63
-8.57
-10.36
-11.77
-12.75
-13.40
-13.83
-14.13
-14.41
-14.68
-14.87
-14.81
-14.24
-12.92
-10.85
-8.33
-5.88
-4.11
-3.43
-3.96
-5.48
-7.55
-9.69
-11.52
-12.83
-13.53
-13.68
-13.38
-12.77
-11.98
-11.14
-10.33
-9.63
-9.12
-8.84
-8.81
-8.93
-9.07
-9.03
-8.62
-7.73
-6.35
-4.57
-2.57
-0.64
0.94
1.97
2.41
2.34
1.98
1.54
1.16
0.86
0.57
0.22
-0.20
-0.62
-0.94
-1.07
-0.99
-0.72
-0.37
-0.05
0.18
0.27
0.23
0.08
-0.19
-0.62
-1.29
-2.26
-3.54
-5.01
-6.47
-7.67
-8.38
-8.50
-8.17
-7.66
-7.34
-7.57
-8.47
-9.93
-11.63
-13.09
-13.85
-13.61
-12.25
-9.92
-7.04
-4.16
-1.91
-0.79
-0.89
-1.87
-2.97
-3.30
-2.26
0.22
3.56
6.79
8.96
9.54
8.63
6.79
4.82
3.38
2.84
3.18
4.08
5.12
5.90
6.09
5.54
4.26
2.45
0.40
-1.48
-2.86
-3.51
-3.41
-2.72
-1.75
-0.87
-0.41
-0.54
-1.21
-2.17
-3.10
-3.70
-3.84
-3.58
-3.15
-2.80
-2.72
-2.98
-3.51
-4.15
-4.75
-5.24
-5.62
-5.97
-6.37
-6.90
-7.54
-8.19
-8.74
-9.00
-8.82
-8.06
-6.65
-4.56
-1.91
1.15
4.41
7.65
10.70
13.44
15.83
17.85
19.48
20.62
21.17
20.98
19.98
18.25
15.99
13.56
11.31
9.56
8.49
8.20
8.67
9.81
11.38
12.94
13.95
13.85
12.33
9.42
5.55
1.32
-2.65
-5.95
-8.39
-9.90
-10.48
-10.20
-9.21
-7.87
-6.72
-6.35
-7.20
-9.41
-12.72
-16.58
-20.34
-23.40
-25.37
-26.04
-25.39
-23.54
-20.73
-17.32
-13.71
-10.23
-7.09
-4.31
-1.79
0.59
2.87
5.04
7.03
8.87
10.63
12.45
14.42
16.56
18.75
20.79
22.47
23.63
24.18
24.07
23.37
22.17
20.62
18.96
17.41
16.17
15.34
14.89
14.66
14.44
14.07
13.47
12.74
12.04
11.48
11.04
10.59
9.95
8.99
7.73
6.32
4.92
3.65
2.52
1.43
0.25
-1.09
-2.58
-4.18
-5.92
-7.88
-10.15
-12.78
-15.65
-18.50
-20.98
-22.80
-23.80
-23.88
-23.00
-21.09
-18.11
-14.15
-9.51
-4.68
-0.26
3.23
5.47
6.39
6.13
4.95
3.22
1.36
-0.15
-0.94
-0.76
0.37
2.16
4.14
5.73
6.44
5.93
4.08
1.05
-2.78
-6.88
-10.64
-13.54
-15.27
-15.68
-14.85
-13.01
-10.47
-7.64
-4.97
-2.96
-2.07
-2.62
-4.69
-8.01
-12.00
-15.91
-18.98
-20.71
-20.96
-19.96
-18.19
-16.10
-13.92
-11.62
-9.01
-5.96
-2.60
0.67
3.33
4.97
5.50
5.20
4.60
4.29
4.74
6.16
8.49
11.43
14.52
17.22
19.05
19.70
19.21
17.97
16.56
15.52
15.15
15.35
15.78
16.08
16.09
15.94
15.92
16.36
17.41
19.09
21.35
24.10
27.11
29.89
31.54
31.01
27.51
20.96
12.26
2.98
-5.12
-10.73
-13.43
-13.65
-12.27
-10.17
-7.87
-5.77
-4.52
-5.32
-9.77
-18.99
-32.55
-47.78
-60.21
-65.13
-59.55
-43.89
-21.98
0.34
17.47
26.14
26.15
19.80
10.39
0.79
-7.25
-13.07
-16.54
-17.65
-16.42
-13.08
-8.29
-3.16
0.99
3.15
2.95
0.83
-2.14
-4.74
-6.04
-5.74
-4.20
-2.25
-0.78
-0.38
-1.15
-2.70
-4.38
-5.59
-6.03
-5.82
-5.44
-5.52
-6.53
-8.58
-11.33
-14.11
-16.05
-16.42
-14.85
-11.41
-6.59
-1.18
4.01
8.32
11.39
13.17
13.88
13.88
13.58
13.26
13.08
13.09
13.24
13.52
13.92
14.45
15.10
15.78
16.30
16.49
16.29
15.77
15.15
14.62
14.27
14.02
13.66
12.97
11.91
10.54
9.07
7.70
6.51
5.50
4.61
3.82
3.13
2.60
2.20
1.86
1.43
0.79
-0.14
-1.30
-2.60
-3.87
-4.98
-5.88
-6.56
-7.16
-7.85
-8.83
-10.19
-11.84
-13.47
-14.63
-14.84
-13.85
-11.72
-8.79
-5.61
-2.68
-0.34
1.32
2.39
3.08
3.57
3.98
4.37
4.76
5.12
5.43
5.63
5.65
5.43
4.98
4.40
3.85
3.46
3.30
3.29
3.28
3.04
2.44
1.47
0.25
-0.99
-2.03
-2.72
-2.97
-2.82
-2.41
-1.91
-1.51
-1.39
-1.65
-2.32
-3.34
-4.59
-5.92
-7.21
-8.37
-9.42
-10.41
-11.41
-12.38
-13.14
-13.39
-12.76
-11.03
-8.17
-4.41
-0.18
4.06
7.98
11.36
14.16
16.38
18.06
19.31
20.29
21.24
22.42
24.00
25.96
28.07
29.96
31.21
31.55
30.84
29.14
26.67
23.74
20.78
18.21
16.39
15.48
15.39
15.77
16.14
16.10
15.47
14.35
13.06
12.02
11.56
11.86
12.93
14.63
16.69
18.70
20.16
20.44
18.99
15.41
9.74
2.50
-5.36
-12.76
-18.86
-23.36
-26.50
-28.91
-31.29
-34.06
-37.17
-40.17
-42.42
-43.46
-43.14
-41.59
-39.29
-37.00
-35.63
-36.04
-38.67
-43.36
-49.23
-54.84
-58.44
-58.66
-54.96
-47.76
-38.01
-26.83
-15.15
-3.77
6.67
16.00
24.07
30.62
35.32
38.03
38.98
38.63
37.39
35.68
34.38
34.12
34.90
36.16
37.29
38.08
38.60
38.75
38.51
38.63
39.96
43.19
48.77
56.86
66.98
77.28
84.11
79.25
57.71
21.27
-22.15
-63.89
-98.41
-122.59
-133.87
-129.76
-108.43
-70.76
-22.91
24.25
58.77
72.49
64.45
41.91
12.26
-17.07
-40.09
-53.67
-57.50
-53.22
-43.38
-30.42
-16.58
-3.90
6.70
15.38
22.36
27.52
30.47
30.08
26.25
19.89
12.36
5.30
-0.03
-3.10
-3.86
-2.06
2.99
12.36
26.34
43.49
60.81
74.44
80.99
78.93
69.13
54.35
38.19
23.50
11.56
2.33
-4.92
-10.82
-15.36
-18.00
-18.15
-15.63
-11.03
-5.59
-0.72
2.46
3.41
2.21
-0.64
-4.50
-8.81
-13.20
-17.40
-21.17
-24.12
-25.75
-25.62
-23.65
-20.39
-16.99
-14.93
-15.51
-19.44
-26.69
-36.65
-48.56
-61.83
-76.16
-91.34
-106.94
-121.98
-134.90
-143.83
-147.20
-144.25
-135.43
-122.25
-106.78
-91.00
-76.14
-62.51
-49.73
-37.14
-24.19
-10.55
3.92
19.21
35.00
50.43
63.92
73.60
77.92
76.49
70.48
62.23
54.43
49.00
46.47
46.06
46.26
45.77
43.97
41.01
37.46
33.80
30.15
26.31
21.94
16.77
10.73
3.87
-3.60
-11.34
-18.73
-24.86
-28.70
-29.38
-26.54
-20.49
-12.18
-2.86
6.32
14.59
21.59
27.21
31.34
33.66
33.72
31.15
26.00
18.95
11.22
4.23
-0.88
-3.54
-3.76
-1.83
1.97
7.57
14.88
23.46
32.27
39.72
44.00
43.71
38.32
28.28
14.99
0.41
-13.24
-23.88
-29.95
-30.71
-26.50
-18.63
-9.09
-0.03
6.77
10.23
10.08
6.73
1.14
-5.44
-11.67
-16.38
-18.84
-18.90
-16.96
-13.77
-10.09
-6.45
-3.12
-0.26
2.05
3.78
5.07
6.44
8.68
12.63
18.76
26.86
35.97
44.64
51.43
55.32
55.88
53.22
47.77
40.08
30.77
20.63
10.67
2.00
-4.49
-8.52
-10.55
-11.72
-13.31
-16.18
-20.44
-25.38
-29.94
-33.21
-34.81
-34.86
-33.71
-31.51
-28.02
-22.87
-15.89
-7.57
0.90
7.85
11.80
12.01
8.83
3.71
-1.26
-3.99
-2.99
2.21
11.01
21.91
33.01
42.44
48.77
51.24
49.68
44.45
36.28
26.25
15.61
5.69
-2.41
-8.11
-11.47
-13.11
-13.82
-14.21
-14.49
-14.58
-14.30
-13.66
-12.89
-12.37
-12.29
-12.62
-13.13
-13.55
-13.80
-13.89
-13.84
-13.50
-12.58
-10.79
-8.05
-4.69
-1.29
1.49
3.24
3.94
4.01
4.07
4.71
6.25
8.62
11.47
14.36
16.95
19.12
20.96
22.67
24.35
25.93
27.25
28.09
28.42
28.35
28.13
27.95
27.87
27.77
27.42
26.63
25.30
23.45
21.14
18.43
15.31
11.77
7.87
3.79
-0.30
-4.33
-8.42
-12.89
-17.98
-23.63
-29.31
-34.12
-37.09
-37.58
-35.50
-31.30
-25.73
-19.65
-13.86
-9.19
-6.50
-6.55
-9.62
-15.08
-21.32
-26.06
-27.17
-23.50
-15.38
-4.43
7.04
16.88
23.70
27.00
27.04
24.58
20.60
16.09
11.77
7.87
3.94
-0.95
-7.77
-16.89
-27.68
-38.58
-47.62
-53.20
-54.57
-52.02
-46.47
-39.14
-31.07
-23.10
-15.84
-9.77
-5.27
-2.47
-1.22
-1.03
-1.10
-0.52
1.50
5.29
10.62
16.59
21.93
25.38
26.22
24.54
21.19
17.42
14.35
12.57
11.95
11.85
11.42
9.86
6.61
1.34
-5.94
-14.76
-24.03
-32.06
-36.96
-37.32
-32.88
-24.87
-15.65
-7.89
-3.53
-3.11
-5.85
-10.21
-14.68
-18.26
-20.45
-20.94
-19.30
-15.03
-7.83
1.93
13.13
24.05
32.99
38.77
41.14
40.70
38.54
35.77
33.20
31.16
29.63
28.34
26.95
25.09
22.39
18.38
12.60
4.81
-4.75
-15.18
-25.00
-32.59
-36.78
-37.26
-34.76
-30.70
-26.64
-23.66
-22.11
-21.69
-21.78
-21.76
-21.16
-19.57
-16.62
-12.00
-5.58
2.38
11.21
19.94
27.57
33.37
37.02
38.61
38.58
37.52
36.08
34.79
33.95
33.47
32.98
31.79
29.12
24.29
16.85
6.83
-5.21
-18.08
-30.13
-39.64
-45.26
-46.47
-43.72
-38.18
-31.27
-24.13
-17.32
-10.94
-4.90
0.76
5.81
9.92
12.88
14.76
15.87
16.54
17.01
17.29
17.28
16.86
16.04
15.03
14.27
14.34
15.78
18.86
23.38
28.47
32.84
35.00
33.72
28.31
18.81
5.93
-9.07
-24.43
-38.17
-48.34
-53.56
-53.45
-48.80
-41.41
-33.42
-26.67
-22.11
-19.66
-18.48
-17.43
-15.59
-12.62
-8.84
-5.07
-2.31
-1.21
-1.76
-3.14
-3.91
-2.58
1.77
9.05
18.21
27.47
35.04
39.49
40.12
37.02
30.98
23.33
15.72
9.75
6.49
5.98
7.01
7.38
4.71
-2.54
-14.19
-28.20
-41.24
-49.81
-51.51
-45.72
-33.65
-17.73
-0.74
14.90
27.45
35.84
39.56
38.62
33.68
26.04
17.53
10.06
5.02
2.93
3.31
5.12
7.34
9.58
12.16
15.80
20.86
26.78
31.92
33.96
30.85
21.75
7.61
-9.07
-25.10
-37.79
-45.86
-49.62
-50.36
-49.35
-47.16
-43.45
-37.61
-29.51
-19.97
-10.60
-3.02
1.96
4.80
6.94
9.99
14.84
21.20
27.81
33.09
35.97
36.33
35.18
34.18
35.11
39.23
46.84
57.05
67.88
76.63
80.46
77.18
65.87
47.29
23.89
-0.80
-23.04
-39.85
-49.69
-52.53
-49.58
-42.66
-33.72
-24.55
-16.67
-11.29
-9.27
-10.88
-15.71
-22.72
-30.46
-37.53
-42.90
-46.08
-47.05
-46.03
-43.22
-38.63
-32.07
-23.17
-11.67
2.33
17.97
33.32
45.55
51.42
48.31
35.29
13.84
-12.32
-38.20
-59.08
-71.99
-76.31
-73.43
-65.74
-55.44
-43.98
-32.11
-20.31
-9.23
0.34
7.75
12.95
16.56
19.61
22.92
26.60
29.89
31.57
30.56
26.52
20.13
12.87
6.53
2.53
1.47
2.89
5.41
7.16
6.44
2.26
-5.27
-14.92
-24.81
-33.06
-38.45
-40.78
-40.73
-39.32
-37.27
-34.62
-30.90
-25.54
-18.43
-10.12
-1.60
6.23
12.96
18.74
23.99
28.97
33.43
36.75
38.26
37.64
35.11
31.29
26.91
22.52
18.41
14.70
11.51
9.03
7.47
6.85
6.91
7.04
6.42
4.24
-0.02
-6.47
-14.77
-24.15
-33.64
-42.12
-48.57
-52.17
-52.47
-49.44
-43.40
-35.00
-24.91
-13.79
-2.14
9.53
20.64
30.45
38.18
43.21
45.31
44.73
42.08
38.13
33.45
28.37
23.03
17.66
12.75
9.19
7.95
9.70
14.43
21.33
28.91
35.43
39.20
38.80
33.14
21.75
5.07
-15.05
-35.42
-52.16
-61.96
-63.31
-57.18
-46.47
-34.74
-24.78
-17.71
-13.15
-10.01
-7.50
-5.51
-4.41
-4.53
-5.59
-6.69
-6.75
-5.03
-1.57
2.76
6.65
8.88
8.98
7.38
5.25
3.94
4.36
6.56
9.72
12.54
13.80
12.70
8.96
2.83
-5.00
-13.41
-20.93
-26.11
-27.91
-26.19
-21.69
-15.71
-9.46
-3.60
1.76
6.68
10.91
13.82
14.66
13.26
10.32
7.33
5.88
6.87
10.10
14.32
17.86
19.27
17.86
13.80
7.88
1.25
-4.95
-9.87
-13.11
-14.81
-15.62
-16.47
-18.05
-20.45
-22.96
-24.33
-23.44
-19.87
-14.22
-7.73
-1.69
3.20
6.90
9.70
11.71
12.62
11.91
9.35
5.35
1.05
-2.17
-3.22
-1.69
2.01
6.93
11.88
15.75
17.71
17.39
14.97
11.16
6.99
3.47
1.19
0.16
-0.19
-0.72
-2.27
-5.30
-9.70
-14.75
-19.30
-22.07
-22.02
-18.70
-12.37
-3.92
5.39
14.37
22.23
28.71
34.07
38.91
43.93
49.69
56.39
63.70
70.77
76.41
79.52
79.58
76.97
72.94
69.25
67.54
68.64
72.19
76.48
78.63
75.18
63.14
41.32
11.34
-22.30
-53.39
-76.26
-87.98
-89.41
-84.54
-78.36
-74.57
-74.14
-75.71
-77.09
-77.06
-76.21
-76.45
-79.52
-85.66
-93.22
-99.37
-101.50
-98.13
-89.42
-76.90
-62.49
-47.78
-33.60
-20.25
-7.97
2.54
10.47
14.96
15.52
12.39
6.60
-0.06
-5.48
-7.80
-6.24
-0.86
7.16
16.17
24.68
31.70
36.67
38.85
38.67
35.08
27.63
17.88
9.58
6.53
10.47
20.27
32.64
44.03
51.61
56.08
58.62
60.01
59.94
57.22
50.69
40.00
26.02
10.27
-4.37
-15.88
-23.49
-27.85
-30.49
-32.87
-35.66
-38.46
-40.17
-39.24
-34.67
-26.08
-13.80
1.20
17.46
33.13
46.24
55.00
58.42
56.34
49.60
39.70
28.30
16.73
5.73
-4.50
-14.15
-23.43
-32.54
-41.33
-49.22
-55.25
-58.21
-56.99
-51.01
-40.52
-26.61
-11.04
4.35
18.12
29.53
38.66
46.11
52.73
59.20
65.81
72.18
77.15
79.00
75.79
66.05
49.55
27.78
3.82
-18.40
-35.29
-44.77
-46.85
-43.50
-37.74
-32.49
-29.65
-29.66
-31.74
-34.51
-36.52
-36.71
-34.50
-29.65
-22.28
-12.80
-1.97
9.13
19.31
27.64
33.77
38.07
41.32
44.31
47.26
49.58
50.07
47.41
40.75
30.18
16.83
2.60
-10.43
-20.62
-27.19
-30.50
-31.76
-32.56
-34.16
-37.09
-40.96
-44.81
-47.64
-48.81
-48.31
-46.50
-43.90
-40.96
-37.97
-35.17
-32.62
-30.20
-27.45
-23.72
-18.48
-11.77
-4.42
2.19
6.66
8.24
7.23
4.78
2.39
1.15
1.32
2.33
3.12
2.68
0.41
-3.68
-9.11
-15.20
-21.29
-26.93
-31.91
-36.17
-39.75
-42.78
-45.41
-47.83
-50.18
-52.48
-54.58
-56.27
-57.32
-57.55
-56.76
-54.67
-50.91
-45.24
-37.71
-28.91
-19.82
-11.44
-4.42
1.13
5.58
9.29
12.30
14.13
14.10
11.73
7.16
1.34
-4.21
-7.76
-7.97
-4.26
2.81
11.65
20.00
25.63
26.97
23.67
16.65
7.71
-1.15
-8.42
-13.50
-16.82
-19.53
-23.08
-28.57
-36.13
-44.39
-50.37
-50.14
-40.13
-18.78
12.20
47.81
81.11
105.68
117.74
117.29
107.57
93.32
78.73
66.06
55.61
46.58
38.33
30.94
25.19
22.08
22.30
25.92
32.30
40.36
48.78
56.40
62.08
64.86
64.08
59.56
51.61
40.93
28.70
16.53
6.94
2.14
3.31
10.20
21.14
33.47
44.16
50.61
51.20
46.28
36.57
22.60
5.16
-13.75
-30.80
-42.12
-44.71
-37.61
-21.12
1.27
23.63
40.19
47.82
47.15
41.66
36.15
35.05
42.88
60.44
84.17
108.02
126.34
135.87
136.04
128.59
105.13
66.96
24.45
-10.51
-33.11
-45.65
-52.76
-58.36
-64.62
-72.25
-79.20
-84.21
-87.83
-91.39
-95.65
-99.24
-100.05
-96.62
-89.11
-77.76
-64.65
-53.33
-46.81
-46.48
-50.37
-54.21
-53.31
-45.12
-28.79
-6.79
15.71
32.72
40.05
36.92
25.43
9.43
-7.44
-22.06
-32.44
-36.12
-32.67
-23.99
-12.82
-1.51
9.94
21.17
31.45
39.94
45.48
47.98
48.64
49.50
51.07
53.44
55.56
55.82
52.49
44.29
31.06
14.24
-3.28
-18.57
-28.62
-31.91
-28.91
-22.09
-15.20
-12.10
-14.40
-22.76
-35.74
-50.10
-62.51
-70.78
-74.53
-74.99
-74.02
-72.97
-72.16
-70.74
-67.43
-61.87
-54.94
-48.42
-44.11
-42.84
-43.99
-45.93
-46.62
-44.55
-39.32
-31.51
-21.96
-11.17
0.88
14.45
29.30
44.56
58.72
70.01
76.93
78.78
75.73
68.81
59.47
49.16
38.97
29.37
20.20
11.02
1.56
-7.97
-16.82
-23.94
-28.40
-29.79
-28.30
-24.57
-19.30
-13.09
-6.42
0.17
6.08
10.81
14.15
16.34
18.05
20.12
23.11
26.92
30.87
34.00
35.84
36.21
35.11
32.53
28.36
22.38
14.33
4.02
-8.41
-21.89
-35.10
-46.80
-55.92
-61.57
-63.22
-60.99
-55.66
-48.29
-38.87
-27.36
-14.07
0.16
14.20
26.82
37.01
44.32
49.29
54.51
62.25
73.19
86.10
98.64
108.37
113.44
112.98
100.72
75.22
40.79
5.21
-25.36
-48.09
-62.30
-68.37
-67.46
-62.45
-53.95
-43.15
-32.11
-23.20
-17.91
-16.41
-17.66
-19.94
-21.32
-19.35
-13.10
-3.58
6.76
15.33
20.39
21.51
19.51
15.94
13.13
12.50
14.34
17.98
22.31
26.02
27.74
26.03
19.79
8.98
-5.45
-21.53
-36.84
-49.30
-57.78
-62.22
-63.21
-61.63
-58.10
-53.07
-46.81
-39.77
-32.42
-25.11
-17.41
-8.46
2.37
14.71
27.05
37.42
43.88
45.25
41.61
34.86
27.86
23.32
22.66
25.94
32.39
40.42
47.88
51.02
46.49
33.58
15.22
-3.77
-21.15
-35.69
-46.93
-53.61
-55.49
-53.12
-48.03
-42.53
-39.12
-39.20
-42.42
-47.19
-51.48
-53.27
-50.95
-44.07
-33.52
-21.19
-8.90
1.83
9.80
14.26
16.07
17.65
21.87
30.65
44.02
60.34
76.25
87.59
87.47
71.87
43.62
11.40
-15.13
-33.96
-46.18
-53.99
-57.88
-58.49
-56.05
-50.54
-42.56
-33.66
-25.72
-19.78
-15.89
-12.68
-8.59
-2.04
8.18
21.26
34.14
45.53
55.12
61.55
64.83
65.29
63.41
60.26
56.90
53.91
51.34
48.79
43.24
33.14
20.87
7.58
-5.82
-17.09
-24.03
-25.25
-20.76
-12.02
-0.88
10.30
19.10
24.22
25.21
21.88
13.43
0.36
-15.17
-29.64
-40.35
-46.41
-48.00
-46.18
-42.64
-38.98
-35.99
-34.58
-33.48
-31.75
-29.43
-27.05
-25.53
-25.94
-28.99
-34.73
-42.73
-52.29
-61.86
-70.51
-77.54
-82.49
-85.14
-85.26
-82.53
-76.64
-67.52
-55.67
-42.29
-28.77
-16.45
-6.27
1.60
7.80
13.51
19.96
27.91
37.33
47.66
58.07
67.79
76.20
82.85
87.33
89.33
88.68
85.41
79.80
72.08
62.17
49.65
34.11
15.77
-4.08
-23.20
-39.07
-49.81
-54.96
-55.59
-53.81
-51.76
-50.75
-50.84
-50.92
-49.38
-44.77
-36.42
-24.59
-10.40
4.54
18.48
30.02
38.47
44.02
47.57
50.36
53.29
56.57
59.72
61.93
62.46
60.72
56.17
48.12
35.88
19.32
-0.52
-21.15
-39.15
-51.24
-55.60
-52.48
-44.05
-33.37
-23.29
-15.61
-10.81
-8.34
-7.03
-5.59
-2.96
1.39
7.22
13.57
18.95
21.83
21.15
16.93
10.34
3.52
-1.15
-1.75
2.52
11.01
21.63
31.23
36.39
34.46
24.56
8.16
-11.19
-28.91
-40.99
-45.29
-42.12
-33.66
-22.78
-11.88
-2.32
5.51
11.69
16.40
19.84
22.37
24.57
26.96
29.47
31.29
30.96
27.14
19.40
8.84
-2.03
-10.12
-12.90
-9.41
-0.66
10.78
21.65
29.02
30.99
27.22
18.91
8.43
-1.49
-8.55
-11.68
-11.06
-7.98
-4.24
-1.35
-0.01
0.01
-0.45
-0.43
0.83
3.96
9.02
15.34
21.60
26.38
28.58
27.82
24.57
20.07
16.80
17.08
22.19
31.87
44.72
58.76
71.75
81.43
85.86
84.83
78.85
68.88
56.22
42.84
31.22
23.27
19.63
19.68
23.57
31.31
42.52
55.91
69.84
82.50
91.80
95.72
84.75
55.32
12.58
-32.03
-69.18
-95.80
-113.37
-124.45
-130.48
-131.36
-125.05
-111.80
-92.81
-71.95
-53.82
-41.65
-36.40
-36.98
-41.04
-45.06
-46.60
-45.07
-41.82
-38.63
-36.80
-36.76
-38.31
-40.90
-43.30
-44.55
-44.16
-42.28
-39.06
-34.28
-27.65
-19.36
-10.33
-1.70
5.24
9.62
11.23
10.91
10.24
10.88
13.79
18.94
25.51
32.30
38.16
42.23
44.10
43.67
41.03
36.21
29.23
20.21
9.56
-1.88
-12.94
-22.43
-29.71
-35.05
-39.54
-44.44
-50.23
-55.92
-59.21
-57.51
-49.30
-35.04
-17.12
1.19
17.08
29.11
37.17
41.86
43.80
43.48
41.58
39.30
38.22
39.63
43.74
49.30
53.96
55.29
51.72
42.92
29.59
12.67
-7.00
-28.55
-50.44
-69.94
-83.42
-87.54
-80.72
-64.21
-41.90
-18.95
0.17
13.22
20.55
24.23
26.50
28.40
29.30
27.46
21.14
9.91
-4.52
-18.31
-26.55
-25.03
-12.12
10.11
36.21
59.22
73.21
75.43
66.75
50.47
30.17
8.11
-15.06
-39.01
-62.23
-81.20
-91.35
-89.12
-74.04
-49.62
-22.25
1.15
15.78
20.44
17.40
10.77
4.43
0.62
-0.40
0.42
1.92
3.59
5.71
8.96
13.92
20.57
28.26
35.76
41.58
44.43
43.67
39.59
33.18
25.44
16.58
5.76
-8.39
-26.61
-47.82
-68.85
-85.19
-92.76
-89.58
-76.61
-57.35
-36.44
-17.99
-4.39
4.03
8.47
10.73
12.39
14.23
16.23
17.90
18.75
18.75
18.42
18.68
20.38
23.90
28.85
34.20
38.71
41.43
42.05
40.67
37.31
31.41
21.91
7.83
-10.72
-31.93
-52.39
-68.10
-75.92
-74.69
-65.67
-51.87
-36.95
-24.01
-14.75
-9.35
-6.84
-5.82
-5.08
-3.84
-1.83
1.03
4.80
9.56
15.24
21.47
27.58
32.82
36.65
38.83
39.41
38.58
36.51
33.39
29.38
24.57
18.79
11.50
1.98
-10.24
-24.80
-40.07
-53.41
-61.91
-63.54
-58.05
-47.22
-34.21
-22.48
-14.54
-11.23
-11.68
-13.97
-15.91
-15.81
-12.86
-7.19
0.42
8.92
17.31
24.94
31.48
36.87
41.04
43.74
44.66
43.67
41.14
37.70
33.82
29.22
22.77
13.02
-0.63
-16.99
-32.97
-44.53
-48.35
-43.34
-31.12
-15.30
0.02
11.84
18.95
21.78
21.57
19.52
16.34
12.29
7.38
1.80
-3.91
-8.87
-11.97
-12.32
-9.56
-4.20
2.34
8.11
11.44
11.57
8.92
4.65
-0.15
-5.19
-11.03
-18.42
-27.24
-35.95
-41.88
-42.44
-36.46
-24.99
-10.96
2.10
11.44
16.11
16.85
15.37
13.26
11.34
9.48
7.02
3.25
-2.07
-8.41
-14.53
-18.80
-19.72
-16.59
-9.90
-1.29
7.12
13.59
17.31
18.35
17.00
13.20
6.41
-3.69
-16.35
-29.26
-39.10
-42.93
-39.56
-30.15
-17.55
-4.94
5.63
13.71
20.02
25.45
30.25
33.84
35.36
34.29
30.73
25.34
18.84
11.72
4.22
-3.33
-10.11
-14.85
-16.19
-13.27
-6.16
3.99
15.26
25.29
31.83
33.17
28.63
18.82
5.73
-7.80
-18.82
-25.29
-26.60
-23.49
-17.54
-10.39
-3.35
2.77
7.48
10.58
12.21
13.00
13.92
15.84
18.86
22.00
23.49
21.44
14.88
4.36
-8.03
-19.45
-27.27
-29.89
-27.15
-20.22
-11.19
-2.47
3.78
6.19
4.45
-0.54
-6.98
-12.73
-16.05
-16.10
-13.12
-8.20
-2.72
2.13
5.71
8.00
9.39
10.48
11.75
13.38
15.09
16.11
15.46
12.43
6.98
-0.00
-6.93
-12.09
-14.34
-13.49
-10.25
-5.79
-1.27
2.42
4.63
4.96
3.28
-0.07
-4.13
-7.62
-9.42
-9.22
-7.69
-6.11
-5.53
-6.04
-6.58
-5.53
-1.69
4.90
12.89
20.23
25.03
26.26
23.87
18.41
10.63
1.28
-8.79
-18.33
-25.67
-29.09
-27.47
-20.85
-10.55
1.18
11.78
19.10
21.82
19.63
13.27
4.39
-4.81
-12.05
-15.67
-15.10
-10.98
-4.79
1.91
8.06
13.32
17.82
21.68
24.71
26.48
26.81
25.94
24.52
23.00
21.15
17.97
12.12
2.92
-8.86
-20.94
-30.27
-34.32
-32.09
-24.50
-13.99
-3.58
4.17
7.80
7.20
3.37
-1.94
-6.92
-10.17
-11.11
-10.04
-7.79
-5.21
-2.71
-0.08
3.20
7.48
12.47
17.20
20.48
21.52
20.30
17.52
14.09
10.57
6.94
2.94
-1.21
-4.47
-5.15
-1.84
5.61
15.59
25.29
31.96
34.01
31.52
25.63
17.59
7.99
-3.18
-15.79
-28.80
-40.16
-47.52
-49.32
-45.64
-38.15
-29.20
-20.80
-13.89
-8.42
-3.94
-0.20
2.73
4.65
5.66
6.19
6.74
7.53
8.38
9.02
9.49
10.38
12.53
16.37
21.46
26.51
30.12
31.46
30.69
28.58
25.73
22.07
16.95
9.86
1.22
-7.35
-13.60
-15.69
-13.06
-6.73
1.30
8.87
14.43
17.35
17.74
16.10
13.13
9.71
6.76
5.09
5.04
6.23
7.57
7.66
5.38
0.40
-6.63
-14.37
-21.14
-25.54
-26.68
-24.43
-19.50
-13.40
-8.27
-6.26
-8.89
-16.29
-26.91
-37.81
-45.68
-48.05
-44.14
-35.04
-23.06
-10.64
0.49
9.59
16.69
22.07
25.89
28.32
29.67
30.52
31.37
32.41
33.10
32.44
29.49
24.04
16.87
9.45
3.38
-0.31
-1.51
-1.01
-0.21
-0.68
-3.75
-10.13
-19.54
-30.57
-40.90
-48.01
-50.08
-46.70
-38.96
-28.83
-18.23
-8.22
1.11
10.08
18.65
26.03
30.97
32.58
30.91
27.05
22.46
18.14
14.15
9.96
5.16
0.10
-4.09
-6.15
-5.48
-2.58
1.25
4.50
6.04
5.39
2.42
-2.84
-10.15
-18.78
-27.14
-33.04
-34.38
-30.25
-21.40
-10.07
1.11
10.35
17.36
22.93
28.01
32.68
35.97
36.55
33.69
27.87
20.49
13.08
6.40
0.32
-5.70
-11.87
-17.67
-22.05
-24.03
-23.32
-20.50
-16.88
-14.01
-13.28
-15.65
-21.42
-30.02
-39.94
-48.88
-54.35
-54.48
-48.82
-38.52
-25.87
-13.32
-2.48
6.41
14.09
21.50
28.87
35.40
39.74
40.86
38.75
34.45
29.36
24.41
19.59
14.25
7.90
0.88
-5.51
-9.60
-10.36
-7.90
-3.52
1.04
4.32
5.61
4.87
2.46
-1.02
-4.69
-7.35
-7.74
-5.03
0.56
7.70
14.38
18.96
20.97
21.35
21.72
23.32
26.15
28.97
30.02
28.07
23.05
15.83
7.53
-1.29
-10.81
-21.43
-33.00
-44.22
-52.91
-56.84
-54.94
-48.02
-38.52
-29.56
-23.62
-21.72
-23.20
-26.37
-29.24
-30.23
-28.51
-23.94
-16.98
-8.49
0.44
8.74
15.62
20.79
24.47
27.11
29.06
30.16
29.77
27.00
21.16
12.17
0.71
-11.84
-23.77
-33.39
-39.37
-40.92
-37.90
-30.79
-20.65
-9.03
2.26
11.37
16.86
17.99
14.90
8.54
0.43
-7.74
-14.43
-18.48
-19.29
-16.82
-11.60
-4.59
3.09
10.36
16.45
20.88
23.47
24.20
23.10
20.34
16.21
11.19
5.91
1.01
-2.90
-5.21
-5.35
-2.82
2.58
10.57
20.21
30.09
38.64
44.60
47.23
46.39
42.36
35.65
26.90
16.87
6.49
-3.26
-11.43
-17.34
-20.73
-21.70
-20.66
-18.11
-14.56
-10.50
-6.43
-2.87
-0.39
0.47
-0.71
-4.18
-9.79
-16.95
-24.53
-31.01
-34.80
-34.69
-30.25
-21.94
-10.96
1.24
13.32
24.28
33.43
40.18
43.92
44.10
40.47
33.33
23.56
12.39
1.12
-9.20
-17.82
-24.22
-27.97
-28.75
-26.44
-21.37
-14.42
-6.92
-0.39
3.83
4.89
2.58
-2.59
-9.59
-17.02
-23.39
-27.32
-27.78
-24.20
-16.56
-5.47
7.88
21.89
34.79
45.03
51.61
54.24
53.31
49.61
43.97
37.07
29.27
20.86
12.16
3.67
-3.94
-9.99
-13.97
-15.68
-15.29
-13.34
-10.72
-8.52
-7.88
-9.69
-14.31
-21.38
-29.76
-37.74
-43.41
-45.11
-41.82
-33.42
-20.67
-5.12
11.30
26.63
39.21
47.97
52.43
52.66
49.14
42.59
33.88
23.93
13.63
3.75
-5.11
-12.51
-18.15
-21.75
-23.02
-21.80
-18.26
-13.12
-7.69
-3.64
-2.51
-5.18
-11.51
-20.30
-29.55
-36.98
-40.49
-38.66
-31.01
-18.27
-2.35
13.84
27.14
35.00
36.38
32.08
24.41
16.37
10.58
8.43
9.94
13.98
18.95
23.37
26.28
27.46
27.33
26.75
26.65
27.66
29.76
32.24
33.80
33.02
28.81
20.79
9.53
-3.45
-15.92
-25.46
-30.05
-28.74
-22.02
-11.80
-0.87
7.88
12.24
11.23
5.16
-4.65
-16.34
-28.03
-38.01
-44.99
-48.14
-47.26
-42.89
-36.20
-28.73
-21.79
-16.04
-11.26
-6.58
-1.08
5.58
12.78
19.04
22.50
21.73
16.40
7.52
-2.68
-11.38
-15.94
-14.75
-7.65
3.89
17.22
29.24
37.21
39.40
35.28
25.49
11.41
-5.17
-22.33
-38.26
-51.42
-60.63
-65.18
-64.94
-60.31
-52.26
-42.26
-32.04
-23.36
-17.54
-15.14
-15.77
-18.30
-21.36
-23.91
-25.56
-26.45
-26.82
-26.54
-24.93
-21.04
-14.23
-4.72
6.24
16.68
24.56
28.44
27.86
23.36
16.15
7.66
-0.83
-8.40
-14.44
-18.56
-20.45
-19.92
-16.94
-11.78
-5.07
2.30
9.34
15.20
19.34
21.60
22.11
21.17
19.09
16.17
12.67
8.93
5.37
2.42
0.43
-0.42
-0.14
1.10
3.03
5.37
7.84
10.17
12.10
13.41
14.00
13.93
13.41
12.69
12.00
11.43
10.94
10.41
9.75
8.91
7.89
6.75
5.59
4.49
3.54
2.75
2.08
1.41
0.60
-0.47
-1.82
-3.39
-5.03
-6.57
-7.82
-8.57
-8.65
-7.97
-6.53
-4.57
-2.44
-0.60
0.61
1.05
0.75
-0.04
-1.03
-1.98
-2.67
-2.97
-2.80
-2.16
-1.12
0.16
1.44
2.51
3.20
3.48
3.42
3.17
2.88
2.64
2.48
2.38
2.31
2.20
2.02
1.74
1.35
0.88
0.45
0.16
0.12
0.36
0.74
1.02
0.90
0.13
-1.31
-3.23
-5.22
-6.86
-7.76
-7.78
-6.92
-5.40
-3.52
-1.63
-0.03
1.02
1.43
1.28
0.77
0.16
-0.30
-0.48
-0.35
0.06
0.71
1.56
2.55
3.58
4.46
5.03
5.19
5.00
4.61
4.27
4.15
4.33
4.75
5.27
5.71
5.93
5.88
5.56
5.04
4.41
3.72
2.98
2.18
1.26
0.25
-0.78
-1.72
-2.48
-3.08
-3.67
-4.46
-5.64
-7.20
-8.94
-10.47
-11.37
-11.37
-10.42
-8.72
-6.61
-4.43
-2.39
-0.59
1.00
2.40
3.66
4.79
5.79
6.69
7.52
8.30
9.04
9.74
10.35
10.83
11.18
11.38
11.48
11.50
11.45
11.35
11.19
10.99
10.74
10.45
10.12
9.74
9.33
8.86
8.33
7.71
6.94
6.02
4.97
3.87
2.85
2.02
1.39
0.90
0.42
-0.18
-0.96
-1.91
-2.93
-3.95
-4.93
-5.86
-6.77
-7.69
-8.68
-9.76
-10.89
-11.96
-12.76
-13.02
-12.52
-11.16
-9.03
-6.43
-3.69
-1.16
0.97
2.66
3.96
4.99
5.87
6.70
7.54
8.43
9.37
10.32
11.18
11.83
12.18
12.15
11.77
11.16
10.45
9.82
9.38
9.13
9.00
8.85
8.57
8.10
7.51
6.89
6.32
5.84
5.43
5.03
4.58
4.06
3.49
2.89
2.32
1.83
1.45
1.18
0.97
0.74
0.39
-0.19
-1.03
-2.09
-3.27
-4.43
-5.47
-6.34
-7.12
-7.94
-8.97
-10.25
-11.64
-12.83
-13.45
-13.19
-11.98
-10.00
-7.59
-5.11
-2.87
-0.98
0.51
1.62
2.35
2.71
2.75
2.57
2.33
2.12
2.01
1.97
1.94
1.88
1.81
1.75
1.72
1.71
1.71
1.76
1.90
2.14
2.45
2.66
2.59
2.15
1.39
0.51
-0.25
-0.79
-1.13
-1.44
-1.86
-2.41
-3.02
-3.57
-4.04
-4.51
-5.16
-6.12
-7.43
-8.95
-10.45
-11.69
-12.46
-12.62
-12.09
-10.87
-9.04
-6.78
-4.35
-2.03
-0.04
1.51
2.63
3.42
4.04
4.60
5.17
5.81
6.55
7.40
8.31
9.18
9.88
10.28
10.32
10.05
9.58
9.07
8.65
8.40
8.34
8.43
8.56
8.59
8.38
7.84
6.99
5.89
4.69
3.52
2.49
1.67
1.08
0.71
0.51
0.38
0.16
-0.29
-1.05
-2.05
-3.16
-4.19
-5.08
-5.90
-6.79
-7.89
-9.30
-10.97
-12.75
-14.41
-15.69
-16.30
-16.03
-14.74
-12.52
-9.64
-6.53
-3.63
-1.26
0.46
1.63
2.41
2.97
3.39
3.72
4.02
4.37
4.87
5.56
6.35
7.09
7.60
7.77
7.61
7.21
6.69
6.17
5.73
5.42
5.28
5.33
5.49
5.63
5.56
5.16
4.43
3.49
2.55
1.75
1.17
0.75
0.41
0.11
-0.19
-0.46
-0.75
-1.08
-1.52
-2.10
-2.79
-3.50
-4.16
-4.70
-5.15
-5.55
-5.98
-6.52
-7.24
-8.13
-9.12
-10.05
-10.70
-10.81
-10.18
-8.72
-6.47
-3.64
-0.55
2.48
5.16
7.38
9.17
10.64
11.96
13.19
14.33
15.31
16.00
16.38
16.44
16.22
15.79
15.19
14.47
13.67
12.86
12.09
11.42
10.85
10.34
9.82
9.16
8.30
7.20
5.95
4.67
3.48
2.44
1.51
0.57
-0.50
-1.81
-3.34
-5.00
-6.62
-8.03
-9.10
-9.74
-9.94
-9.75
-9.33
-8.92
-8.78
-9.16
-10.12
-11.53
-13.08
-14.40
-15.15
-15.12
-14.27
-12.66
-10.41
-7.71
-4.76
-1.79
0.98
3.36
5.23
6.58
7.46
7.93
8.04
7.80
7.22
6.36
5.30
4.15
2.94
1.72
0.46
-0.86
-2.23
-3.61
-4.94
-6.15
-7.16
-7.92
-8.40
-8.61
-8.64
-8.64
-8.78
-9.17
-9.82
-10.60
-11.28
-11.66
-11.58
-10.99
-9.90
-8.38
-6.57
-4.64
-2.78
-1.14
0.21
1.34
2.44
3.72
5.31
7.25
9.47
11.77
13.95
15.78
17.06
17.61
17.33
16.21
14.33
11.88
9.11
6.30
3.70
1.52
-0.17
-1.43
-2.41
-3.31
-4.30
-5.42
-6.63
-7.82
-8.90
-9.79
-10.52
-11.07
-11.45
-11.62
-11.57
-11.35
-11.07
-10.87
-10.82
-10.93
-11.09
-11.17
-11.09
-10.85
-10.51
-10.11
-9.65
-9.04
-8.16
-6.91
-5.27
-3.36
-1.39
0.41
1.89
3.01
3.93
4.84
5.96
7.36
8.97
10.63
12.12
13.33
14.18
14.67
14.79
14.51
13.79
12.64
11.17
9.56
8.05
6.78
5.77
4.94
4.12
3.17
2.09
1.01
0.13
-0.37
-0.42
-0.09
0.42
0.94
1.33
1.56
1.64
1.63
1.52
1.29
0.95
0.53
0.07
-0.40
-0.85
-1.30
-1.76
-2.23
-2.73
-3.25
-3.79
-4.33
-4.79
-5.07
-5.11
-4.89
-4.51
-4.13
-3.92
-3.98
-4.30
-4.77
-5.17
-5.27
-4.91
-4.03
-2.71
-1.12
0.57
2.22
3.78
5.20
6.45
7.46
8.19
8.70
9.09
9.54
10.15
10.84
11.39
11.54
11.14
10.27
9.14
8.08
7.32
6.97
7.05
7.47
8.16
9.01
9.92
10.74
11.30
11.49
11.25
10.68
9.99
9.43
9.23
9.44
9.93
10.35
10.27
9.31
7.29
4.32
0.82
-2.66
-5.54
-7.41
-8.06
-7.51
-5.90
-3.44
-0.36
3.16
6.93
10.79
14.60
18.29
21.83
25.26
28.58
31.79
34.76
37.34
39.34
40.62
41.04
40.56
39.15
36.80
33.50
29.29
24.28
18.68
12.74
6.74
0.88
-4.70
-9.96
-14.90
-19.48
-23.58
-27.01
-29.53
-30.93
-31.17
-30.42
-29.09
-27.74
-26.94
-27.07
-28.28
-30.45
-33.33
-36.72
-40.41
-44.15
-47.54
-49.93
-50.58
-48.94
-44.88
-38.86
-31.77
-24.67
-18.46
-13.60
-10.19
-8.10
-7.13
-7.16
-8.07
-9.67
-11.62
-13.39
-14.40
-14.16
-12.44
-9.40
-5.70
-2.41
-0.71
-1.55
-5.30
-11.60
-19.53
-27.85
-35.42
-41.38
-45.14
-46.20
-44.12
-38.59
-29.74
-18.43
-6.13
5.37
14.50
20.33
22.76
22.31
19.87
16.29
12.14
7.93
4.36
2.36
2.89
6.57
13.37
22.45
32.22
40.46
45.28
45.51
40.84
31.53
18.35
2.60
-13.80
-28.37
-39.09
-44.36
-43.65
-37.95
-29.72
-22.03
-17.45
-17.16
-20.74
-27.28
-35.15
-42.49
-47.64
-49.63
-48.46
-45.27
-42.32
-38.08
-33.60
-31.32
-32.91
-37.20
-40.32
-37.84
-27.01
-8.15
15.87
40.22
60.55
74.26
80.54
79.82
72.99
61.31
46.55
30.87
16.69
6.61
2.35
3.69
8.31
12.68
13.74
10.11
2.78
-5.91
-13.30
-17.53
-18.26
-16.46
-13.78
-10.76
-8.13
-6.20
-5.17
-5.11
-5.96
-7.44
-8.96
-9.65
-8.61
-5.43
-0.23
6.26
12.90
18.63
22.82
25.37
26.52
26.65
26.05
25.20
24.87
26.01
29.36
34.97
41.90
48.30
52.04
51.54
46.45
37.86
27.75
18.26
10.89
6.19
3.79
2.84
2.39
1.73
0.50
-1.43
-4.10
-7.62
-12.02
-17.15
-22.60
-27.72
-31.78
-34.14
-34.48
-32.74
-29.18
-24.28
-18.69
-13.06
-7.90
-3.44
0.35
3.72
6.85
9.74
12.17
13.82
14.50
14.28
13.51
12.67
12.19
12.39
13.33
14.90
16.80
18.56
19.67
19.65
18.19
15.24
11.00
5.82
0.16
-5.49
-10.62
-14.74
-17.42
-18.44
-17.88
-16.19
-14.12
-12.50
-11.98
-12.82
-14.76
-17.11
-18.97
-19.48
-18.11
-14.79
-9.92
-4.23
1.47
6.56
10.69
13.79
16.01
17.54
18.58
19.25
19.74
20.23
20.88
21.73
22.62
23.25
23.24
22.32
20.45
17.87
14.93
12.00
9.29
6.84
4.50
2.10
-0.48
-3.22
-6.04
-8.80
-11.45
-14.05
-16.73
-19.62
-22.72
-25.88
-28.78
-31.05
-32.35
-32.43
-31.22
-28.84
-25.53
-21.66
-17.57
-13.57
-9.84
-6.49
-3.52
-0.89
1.47
3.61
5.63
7.62
9.64
11.71
13.78
15.70
17.33
18.55
19.35
19.84
20.19
20.54
20.95
21.37
21.68
21.74
21.46
20.80
19.80
18.48
16.95
15.31
13.69
12.21
10.88
9.63
8.29
6.73
4.94
3.02
1.17
-0.46
-1.84
-3.09
-4.38
-5.83
-7.46
-9.12
-10.64
-11.89
-12.87
-13.67
-14.41
-15.18
-15.95
-16.62
-17.07
-17.24
-17.16
-16.93
-16.70
-16.65
-16.91
-17.48
-18.26
-18.99
-19.28
-18.72
-17.02
-14.17
-10.42
-6.26
-2.24
1.19
3.81
5.61
6.73
7.35
7.65
7.80
7.92
8.15
8.54
9.04
9.54
9.88
9.96
9.76
9.39
8.99
8.68
8.49
8.39
8.26
8.05
7.72
7.34
6.96
6.60
6.25
5.84
5.30
4.68
4.06
3.59
3.40
3.48
3.77
4.08
4.24
4.15
3.80
3.20
2.42
1.53
0.64
-0.16
-0.77
-1.17
-1.41
-1.67
-2.12
-2.85
-3.86
-4.99
-6.09
-7.03
-7.83
-8.60
-9.48
-10.55
-11.78
-13.01
-13.97
-14.36
-13.90
-12.44
-10.04
-6.97
-3.68
-0.60
1.90
3.65
4.63
4.96
4.78
4.28
3.64
3.05
2.67
2.57
2.73
3.05
3.39
3.67
3.88
4.05
4.20
4.34
4.44
4.48
4.47
4.36
4.11
3.70
3.10
2.36
1.59
0.93
0.46
0.18
-0.03
-0.31
-0.81
-1.60
-2.68
-3.92
-5.17
-6.27
-7.13
-7.79
-8.39
-9.08
-9.99
-11.12
-12.40
-13.69
-14.86
-15.78
-16.29
-16.15
-15.16
-13.19
-10.34
-6.97
-3.56
-0.61
1.56
2.85
3.40
3.45
3.27
3.08
3.00
3.05
3.17
3.25
3.21
3.02
2.74
2.47
2.35
2.49
2.93
3.58
4.26
4.73
4.78
4.29
3.27
1.86
0.24
-1.41
-2.98
-4.46
-5.88
-7.27
-8.63
-9.89
-11.00
-11.93
-12.73
-13.51
-14.41
-15.55
-16.96
-18.55
-20.09
-21.31
-21.92
-21.65
-20.37
-18.03
-14.77
-10.91
-6.92
-3.30
-0.41
1.59
2.81
3.52
3.98
4.36
4.70
4.95
5.10
5.19
5.34
5.62
6.01
6.42
6.70
6.78
6.65
6.36
5.99
5.61
5.27
4.96
4.66
4.30
3.83
3.22
2.50
1.70
0.87
-0.02
-0.99
-2.08
-3.25
-4.39
-5.42
-6.25
-6.90
-7.40
-7.82
-8.20
-8.59
-9.11
-9.91
-11.09
-12.63
-14.30
-15.68
-16.27
-15.67
-13.73
-10.56
-6.54
-2.19
1.92
5.32
7.76
9.22
9.90
10.14
10.23
10.35
10.52
10.70
10.90
11.20
11.71
12.51
13.53
14.57
15.39
15.82
15.84
15.60
15.30
15.05
14.86
14.63
14.22
13.54
12.59
11.47
10.31
9.26
8.36
7.64
7.01
6.35
5.52
4.43
3.06
1.48
-0.20
-1.83
-3.30
-4.55
-5.54
-6.36
-7.15
-8.11
-9.44
-11.20
-13.19
-14.99
-16.05
-15.85
-14.12
-10.97
-6.80
-2.19
2.25
6.08
9.05
11.14
12.46
13.19
13.52
13.56
13.34
12.86
12.16
11.32
10.50
9.92
9.72
9.99
10.67
11.60
12.59
13.45
14.07
14.40
14.46
14.31
13.98
13.52
12.93
12.23
11.43
10.59
9.69
8.73
7.68
6.50
5.23
3.97
2.81
1.83
1.04
0.30
-0.59
-1.89
-3.77
-6.24
-9.09
-11.91
-14.17
-15.37
-15.21
-13.66
-10.95
-7.53
-3.94
-0.67
1.95
3.75
4.69
4.88
4.50
3.78
2.90
2.08
1.44
1.07
0.99
1.16
1.48
1.81
2.10
2.33
2.55
2.86
3.28
3.73
4.04
4.03
3.54
2.54
1.19
-0.26
-1.49
-2.30
-2.62
-2.57
-2.34
-2.12
-2.07
-2.21
-2.49
-2.77
-2.83
-2.40
-1.20
0.97
4.17
8.28
13.03
18.18
23.49
28.84
34.08
39.01
43.39
47.03
50.03
52.84
56.26
61.23
68.50
78.32
90.20
102.79
113.87
120.68
120.41
111.10
92.43
66.08
35.49
4.87
-21.99
-42.78
-57.09
-66.23
-72.42
-77.98
-84.60
-93.07
-103.13
-113.79
-123.60
-131.14
-135.35
-135.77
-132.55
-126.41
-118.39
-109.71
-101.53
-94.71
-89.56
-85.76
-82.51
-78.86
-74.10
-68.02
-60.89
-53.25
-45.61
-38.36
-31.68
-25.67
-20.33
-15.57
-11.19
-6.90
-2.44
2.31
7.28
12.24
16.91
21.06
24.58
27.42
29.58
31.11
32.02
32.37
32.14
31.37
30.06
28.28
26.11
23.74
21.35
19.13
17.23
15.71
14.58
13.75
13.05
12.25
11.09
9.33
6.83
3.64
0.08
-3.31
-5.85
-6.91
-6.16
-3.65
0.12
4.47
8.66
12.20
14.88
16.73
17.88
18.50
18.71
18.66
18.57
18.64
19.05
19.81
20.79
21.77
22.56
23.04
23.28
23.37
23.40
23.37
23.16
22.63
21.67
20.31
18.66
16.93
15.24
13.69
12.26
10.88
9.49
8.09
6.75
5.60
4.84
4.58
4.83
5.41
5.95
6.04
5.39
4.07
2.55
1.61
2.03
4.30
8.45
14.04
20.42
26.98
33.28
39.16
44.69
50.09
55.68
61.92
69.22
77.65
86.51
94.11
98.10
96.21
87.39
72.40
53.73
34.72
18.51
7.24
1.90
2.53
8.61
19.04
32.06
45.15
55.39
60.27
58.59
50.95
39.60
27.52
17.28
10.14
5.73
2.41
-1.93
-8.95
-19.15
-31.74
-45.05
-57.25
-66.97
-73.67
-77.50
-79.05
-79.04
-78.14
-76.96
-75.94
-75.31
-75.01
-74.77
-74.22
-73.14
-71.43
-69.11
-66.14
-62.37
-57.64
-52.02
-45.91
-40.09
-35.40
-32.35
-30.92
-30.57
-30.45
-29.89
-28.69
-27.20
-26.16
-26.31
-28.04
-31.07
-34.52
-37.15
-37.83
-35.89
-31.43
-25.17
-18.20
-11.47
-5.36
0.46
6.99
15.46
26.69
40.47
55.11
67.61
74.38
72.52
61.25
42.65
21.56
4.08
-4.45
-1.43
11.98
31.44
51.01
65.37
71.41
68.76
59.17
45.33
29.79
14.55
1.21
-8.71
-13.82
-13.31
-7.57
1.41
10.45
16.16
16.21
10.15
-0.49
-12.90
-24.24
-32.58
-37.48
-39.86
-41.37
-43.65
-47.70
-53.58
-60.54
-67.26
-72.40
-74.94
-74.42
-70.90
-64.84
-56.86
-47.53
-37.39
-26.94
-16.74
-7.40
0.51
6.66
11.13
14.37
17.02
19.66
22.51
25.43
28.01
29.88
30.88
31.07
30.73
30.12
29.45
28.79
28.10
27.34
26.43
25.32
23.93
22.28
20.42
18.47
16.55
14.72
13.00
11.33
9.71
8.17
6.80
5.67
4.76
3.97
3.20
2.43
1.73
1.20
0.91
0.77
0.62
0.32
-0.20
-0.88
-1.63
-2.36
-3.11
-3.97
-4.99
-6.18
-7.42
-8.50
-9.28
-9.67
-9.72
-9.61
-9.55
-9.75
-10.30
-11.19
-12.22
-13.07
-13.37
-12.80
-11.21
-8.71
-5.63
-2.39
0.62
3.14
5.09
6.52
7.55
8.27
8.74
9.05
9.29
9.58
10.07
10.79
11.68
12.59
13.35
13.85
14.11
14.23
14.33
14.45
14.54
14.49
14.17
13.58
12.77
11.88
10.99
10.15
9.32
8.48
7.66
6.94
6.41
6.11
5.94
5.76
5.39
4.74
3.84
2.84
1.89
1.13
0.58
0.12
-0.41
-1.17
-2.24
-3.59
-5.10
-6.65
-8.16
-9.65
-11.19
-12.79
-14.40
-15.82
-16.76
-16.95
-16.21
-14.50
-12.00
-8.97
-5.75
-2.71
-0.16
1.69
2.76
3.11
2.93
2.46
1.95
1.55
1.35
1.33
1.45
1.67
1.97
2.34
2.72
3.11
3.44
3.71
3.94
4.15
4.34
4.49
4.56
4.48
4.20
3.68
2.90
1.89
0.69
-0.61
-1.90
-3.11
-4.21
-5.24
-6.29
-7.47
-8.86
-10.42
-12.05
-13.50
-14.44
-14.53
-13.51
-11.34
-8.28
-4.81
-1.58
0.94
2.48
3.15
3.23
3.09
2.97
2.97
3.06
3.18
3.26
3.24
3.09
2.85
2.60
2.52
2.77
3.48
4.59
5.82
6.85
7.37
7.22
6.47
5.31
3.95
2.55
1.19
-0.12
-1.40
-2.69
-3.98
-5.27
-6.48
-7.52
-8.30
-8.80
-9.09
-9.35
-9.76
-10.43
-11.40
-12.59
-13.92
-15.26
-16.44
-17.24
-17.40
-16.71
-15.09
-12.64
-9.65
-6.49
-3.48
-0.83
1.40
3.23
4.71
5.89
6.81
7.50
7.99
8.31
8.49
8.56
8.58
8.62
8.73
8.93
9.17
9.38
9.48
9.47
9.45
9.57
9.95
10.64
11.54
12.46
13.22
13.68
13.86
13.82
13.64
13.30
12.72
11.76
10.36
8.61
6.73
5.00
3.64
2.62
1.73
0.58
-1.19
-3.75
-6.98
-10.55
-13.98
-16.85
-18.96
-20.37
-21.35
-22.29
-23.50
-25.07
-26.80
-28.19
-28.57
-27.31
-24.02
-18.70
-11.79
-4.10
3.37
9.63
13.87
15.75
15.44
13.63
11.45
10.08
10.37
12.59
16.29
20.49
24.06
26.07
26.13
24.32
21.13
17.17
13.00
9.05
5.61
2.91
1.07
0.13
-0.03
0.35
0.89
1.26
1.19
0.59
-0.45
-1.71
-2.94
-3.91
-4.51
-4.77
-4.83
-4.88
-5.12
-5.71
-6.78
-8.40
-10.58
-13.19
-15.98
-18.58
-20.53
-21.46
-21.15
-19.60
-16.97
-13.55
-9.69
-5.72
-1.94
1.43
4.28
6.59
8.45
9.96
11.16
11.97
12.28
11.97
11.08
9.79
8.36
7.04
5.97
5.16
4.54
4.08
3.74
3.54
3.46
3.40
3.22
2.82
2.15
1.28
0.35
-0.56
-1.43
-2.30
-3.24
-4.28
-5.38
-6.49
-7.55
-8.53
-9.45
-10.34
-11.25
-12.24
-13.30
-14.37
-15.28
-15.81
-15.69
-14.74
-12.91
-10.30
-7.15
-3.75
-0.37
2.74
5.42
7.60
9.23
10.32
10.91
11.10
11.03
10.87
10.79
10.91
11.24
11.69
12.06
12.18
11.97
11.46
10.81
10.17
9.62
9.16
8.70
8.14
7.41
6.45
5.24
3.79
2.15
0.40
-1.30
-2.82
-4.07
-5.04
-5.82
-6.51
-7.17
-7.79
-8.30
-8.63
-8.75
-8.74
-8.73
-8.90
-9.32
-9.97
-10.62
-10.97
-10.73
-9.67
-7.72
-4.97
-1.58
2.15
5.86
9.11
11.49
12.65
12.49
11.20
9.19
7.02
5.15
3.80
2.97
2.49
2.18
1.97
1.93
2.17
2.74
3.53
4.31
4.78
4.72
4.09
3.06
1.90
0.91
0.34
0.39
1.19
2.72
4.79
6.96
8.65
9.34
8.79
7.26
5.44
4.14
3.96
5.00
6.78
8.48
9.32
8.77
6.74
3.44
-0.80
-5.69
-10.97
-16.33
-21.33
-25.35
-27.73
-28.03
-26.17
-22.59
-18.09
-13.64
-10.06
-7.85
-7.08
-7.41
-8.33
-9.20
-9.44
-8.60
-6.42
-2.90
1.72
6.94
12.16
16.77
20.32
22.62
23.91
24.72
25.71
27.38
29.82
32.63
35.05
36.19
35.43
32.59
27.87
21.75
14.74
7.35
0.10
-6.37
-11.39
-14.44
-15.42
-14.82
-13.62
-13.00
-13.95
-16.91
-21.59
-26.90
-31.23
-32.81
-30.30
-23.36
-13.09
-1.83
7.53
12.66
12.75
8.97
3.96
0.71
1.24
5.84
13.12
20.78
26.65
29.44
28.94
25.65
20.39
13.91
6.84
-0.14
-6.28
-10.81
-13.20
-13.42
-12.04
-10.14
-8.95
-9.39
-11.73
-15.29
-18.55
-19.54
-16.57
-9.07
1.93
13.83
23.31
27.61
25.73
18.93
10.22
2.98
-0.48
0.21
3.52
7.05
8.78
7.90
4.93
1.18
-2.10
-4.28
-5.55
-6.51
-7.75
-9.49
-11.49
-13.37
-14.88
-16.15
-17.67
-19.98
-23.27
-27.06
-30.14
-31.04
-28.67
-23.07
-15.61
-8.56
-4.15
-3.52
-6.15
-10.09
-12.80
-12.30
-7.98
-0.68
7.74
15.21
20.19
21.93
20.55
16.68
11.25
5.27
-0.34
-4.80
-7.62
-8.65
-8.15
-6.81
-5.58
-5.44
-7.12
-10.83
-16.15
-22.07
-27.18
-29.96
-29.06
-23.72
-14.16
-1.82
10.77
20.72
25.82
25.53
21.40
16.49
14.10
16.25
22.78
31.53
39.33
43.49
42.83
37.90
30.42
22.26
14.74
8.37
3.15
-0.92
-3.62
-4.60
-3.82
-1.89
-0.10
-0.01
-2.74
-8.41
-15.87
-22.99
-27.42
-27.55
-23.25
-16.01
-8.50
-3.41
-2.37
-5.22
-10.17
-14.59
-16.22
-14.10
-8.81
-2.01
4.32
8.61
10.04
8.51
4.39
-1.64
-8.72
-15.89
-22.16
-26.64
-28.73
-28.26
-25.50
-21.16
-16.27
-11.94
-9.17
-8.45
-9.50
-11.20
-11.84
-9.79
-4.26
4.24
13.87
22.12
26.79
27.01
23.57
18.68
15.03
14.72
18.50
25.60
34.01
41.31
45.43
45.29
40.93
33.34
23.97
14.37
5.71
-1.36
-6.67
-10.29
-12.32
-12.91
-12.46
-11.68
-11.29
-11.81
-13.29
-15.16
-16.17
-14.92
-10.47
-3.18
5.19
12.43
16.51
16.37
12.28
6.01
0.28
-2.09
0.46
7.74
18.45
30.52
41.89
50.92
57.08
60.68
62.28
61.51
55.06
40.65
19.01
-5.67
-28.30
-44.87
-55.57
-61.14
-62.48
-60.46
-55.45
-47.95
-37.17
-24.91
-14.07
-7.57
-6.86
-11.66
-19.81
-27.65
-31.36
-28.46
-18.91
-4.46
11.97
27.53
39.81
47.30
49.71
47.52
41.61
32.68
21.59
9.43
-2.45
-12.82
-20.82
-25.88
-27.73
-26.30
-21.84
-14.69
-5.52
4.59
14.16
21.60
25.78
26.37
23.84
19.04
12.77
5.46
-2.95
-12.76
-24.07
-36.45
-48.81
-59.71
-67.87
-72.69
-74.61
-75.04
-75.91
-79.03
-85.46
-95.36
-107.90
-121.49
-134.00
-142.82
-145.22
-138.90
-122.71
-97.34
-65.31
-30.40
3.44
33.15
57.07
74.80
86.66
93.12
94.61
91.64
85.09
76.18
66.29
56.56
47.62
39.59
32.23
25.24
18.39
11.62
5.05
-0.93
-5.67
-8.33
-8.10
-4.62
1.78
10.01
18.55
25.96
31.29
34.24
34.97
33.81
31.13
27.47
23.75
21.19
20.90
23.35
27.98
33.33
37.61
39.43
38.31
34.62
29.21
22.91
16.22
9.35
2.40
-4.41
-10.71
-16.03
-19.87
-21.88
-21.88
-19.98
-16.64
-12.51
-8.26
-4.34
-0.81
2.62
6.39
10.78
15.74
20.93
25.90
30.32
34.00
36.78
38.35
38.14
35.57
30.53
23.40
15.41
8.06
2.56
-0.71
-2.22
-2.96
-3.86
-5.28
-7.22
-9.32
-11.29
-13.14
-15.19
-17.78
-21.07
-24.89
-28.61
-32.07
-34.99
-37.24
-38.70
-39.15
-38.26
-35.63
-31.09
-24.29
-16.90
-10.32
-5.89
-4.41
-5.68
-8.49
-11.00
-11.56
-8.12
-2.95
1.97
4.30
2.40
-3.76
-12.34
-20.32
-24.65
-21.42
-13.24
-2.26
8.42
15.84
18.21
15.69
10.94
9.05
19.25
43.85
84.37
136.57
190.49
233.30
253.88
247.08
198.06
139.14
79.05
27.82
-8.96
-30.32
-38.39
-36.54
-28.34
-17.06
-2.60
10.05
20.19
27.94
33.56
36.72
36.77
33.38
27.47
23.44
21.61
23.72
29.48
36.55
41.78
42.87
39.38
32.76
26.58
20.93
16.09
11.16
4.77
-3.96
-14.77
-26.29
-36.48
-42.94
-45.78
-45.81
-44.70
-43.94
-43.74
-42.79
-38.96
-30.64
-17.60
-1.87
13.91
27.54
38.13
45.97
51.78
55.76
57.33
55.61
50.20
41.78
31.94
22.38
14.22
7.51
1.59
-4.34
-10.67
-17.18
-23.20
-28.09
-31.59
-33.86
-35.40
-36.71
-38.06
-39.41
-40.47
-41.02
-41.05
-40.82
-40.77
-41.19
-42.15
-43.38
-44.48
-45.10
-45.07
-44.47
-43.47
-42.25
-40.92
-39.52
-38.10
-36.72
-35.43
-34.25
-33.12
-31.98
-30.81
-29.76
-29.04
-28.78
-28.95
-29.28
-29.38
-28.92
-27.85
-26.41
-25.05
-24.19
-24.02
-24.48
-25.28
-26.13
-26.85
-27.48
-28.17
-29.16
-30.58
-32.38
-34.40
-36.44
-38.34
-40.10
-41.85
-43.82
-46.26
-49.36
-53.13
-57.38
-61.59
-64.98
-66.68
-65.92
-62.36
-56.17
-48.03
-38.89
-29.68
-21.05
-13.39
-6.83
-1.46
2.64
5.36
6.65
6.53
5.14
2.66
-0.70
-4.68
-8.99
-13.34
-17.38
-20.79
-23.30
-24.65
-24.68
-23.27
-20.39
-16.24
-11.24
-6.03
-1.30
2.40
4.90
6.50
7.89
9.92
13.21
17.86
23.35
28.73
32.99
35.48
36.18
35.67
34.83
34.39
34.69
35.56
36.64
37.66
38.65
39.88
41.58
43.71
45.95
48.00
49.88
51.97
54.62
57.54
59.61
59.18
54.92
46.69
35.80
24.44
14.62
7.39
2.64
-0.39
-2.21
-2.69
-1.19
2.85
9.26
17.12
25.06
31.90
36.99
40.27
41.97
42.35
41.50
39.39
35.96
31.26
25.40
18.60
11.14
3.40
-4.16
-11.02
-16.76
-21.08
-23.99
-25.79
-26.95
-27.99
-29.32
-31.15
-33.47
-36.10
-38.69
-40.81
-42.13
-42.56
-42.34
-41.94
-41.77
-42.01
-42.59
-43.35
-44.27
-45.62
-47.75
-50.86
-54.63
-58.19
-60.37
-60.04
-56.51
-49.65
-39.88
-28.03
-15.18
-2.55
8.78
17.97
24.70
29.02
31.15
31.26
29.34
25.22
18.87
10.66
1.37
-7.89
-15.98
-22.03
-25.62
-26.70
-25.52
-22.42
-17.73
-11.81
-5.04
2.04
8.75
14.29
17.87
18.96
17.48
13.99
9.52
5.28
2.22
0.68
0.27
0.03
-1.04
-3.55
-7.53
-12.45
-17.56
-22.24
-26.06
-28.60
-29.16
-26.67
-20.00
-8.78
5.81
20.88
32.54
37.41
34.18
24.37
11.94
1.75
-2.17
2.03
13.64
29.85
46.83
60.79
68.92
69.82
63.60
51.74
36.64
21.20
8.30
0.31
-1.34
3.40
12.96
24.30
33.68
37.89
35.42
27.01
15.12
2.61
-8.62
-18.24
-27.07
-35.92
-44.54
-51.43
-54.41
-51.90
-43.99
-32.51
-20.25
-9.41
-0.43
8.25
18.92
32.81
48.52
61.86
67.50
61.52
43.47
16.98
-11.74
-36.59
-53.99
-63.77
-68.26
-70.24
-71.27
-71.16
-68.79
-63.33
-55.19
-46.01
-37.78
-31.81
-27.90
-24.42
-19.21
-10.56
2.07
17.78
34.65
50.42
63.18
72.09
77.50
80.18
81.05
80.84
79.80
77.62
73.59
66.65
56.49
43.95
30.38
17.81
8.44
3.70
3.55
6.43
9.42
10.32
8.47
3.64
-3.59
-12.42
-22.53
-34.29
-48.41
-65.72
-85.08
-103.35
-117.54
-124.65
-122.34
-109.48
-86.36
-51.15
-8.62
32.30
70.30
103.93
130.98
149.37
157.86
156.70
147.73
133.43
117.31
102.77
90.67
80.34
70.45
59.81
47.97
35.35
22.56
10.97
2.13
-3.81
-7.45
-9.67
-11.40
-13.41
-16.19
-20.09
-24.67
-28.88
-32.07
-33.89
-34.32
-33.81
-33.23
-33.53
-35.50
-39.12
-43.38
-46.88
-48.12
-46.03
-40.47
-32.42
-23.69
-16.34
-11.88
-10.82
-12.82
-16.91
-21.90
-26.66
-30.30
-32.01
-31.16
-27.39
-20.86
-12.33
-3.10
5.36
11.85
15.71
16.97
16.15
14.02
11.36
8.70
6.36
4.40
2.73
1.24
-0.11
-1.25
-2.02
-2.29
-2.03
-1.40
-0.67
-0.10
0.22
0.39
0.64
1.17
2.05
3.18
4.33
5.33
6.10
6.66
7.08
7.35
7.38
7.04
6.27
5.13
3.81
2.58
1.64
1.13
1.02
1.19
1.48
1.75
1.91
1.99
2.01
2.01
1.99
1.91
1.75
1.49
1.15
0.75
0.31
-0.19
-0.78
-1.47
-2.24
-3.01
-3.77
-4.49
-5.22
-6.02
-6.90
-7.85
-8.83
-9.83
-10.87
-12.01
-13.27
-14.57
-15.81
-16.90
-17.81
-18.65
-19.52
-20.50
-21.55
-22.49
-23.16
-23.44
-23.34
-22.90
-22.17
-21.13
-19.70
-17.83
-15.52
-12.91
-10.22
-7.67
-5.39
-3.43
-1.72
-0.18
1.27
2.65
3.93
5.06
6.03
6.85
7.54
8.13
8.59
8.88
8.98
8.93
8.82
8.76
8.82
8.97
9.10
9.07
8.78
8.25
7.56
6.80
6.02
5.18
4.19
3.00
1.62
0.13
-1.36
-2.78
-4.08
-5.27
-6.36
-7.35
-8.24
-8.99
-9.56
-9.88
-9.91
-9.66
-9.16
-8.46
-7.61
-6.56
-5.24
-3.58
-1.59
0.55
2.60
4.29
5.51
6.28
6.75
7.07
7.30
7.45
7.51
7.51
7.55
7.73
8.11
8.64
9.16
9.51
9.53
9.16
8.43
7.47
6.47
5.66
5.21
5.17
5.40
5.64
5.61
5.12
4.20
3.05
1.95
1.05
0.34
-0.35
-1.24
-2.42
-3.83
-5.26
-6.47
-7.32
-7.80
-8.03
-8.15
-8.29
-8.48
-8.80
-9.30
-10.09
-11.21
-12.54
-13.80
-14.53
-14.32
-12.92
-10.36
-6.97
-3.21
0.48
3.79
6.61
8.94
10.86
12.42
13.67
14.64
15.39
15.94
16.25
16.24
15.79
14.82
13.39
11.66
9.91
8.39
7.25
6.50
6.04
5.69
5.35
4.94
4.45
3.83
3.05
2.10
1.02
-0.06
-1.03
-1.80
-2.34
-2.70
-2.93
-3.07
-3.13
-3.12
-3.17
-3.41
-4.01
-5.09
-6.68
-8.74
-11.17
-13.84
-16.61
-19.24
-21.51
-23.19
-24.15
-24.30
-23.59
-21.93
-19.25
-15.56
-11.08
-6.22
-1.53
2.50
5.61
7.84
9.45
10.69
11.72
12.58
13.29
13.92
14.67
15.69
17.06
18.59
20.01
21.00
21.41
21.27
20.79
20.18
19.58
19.06
18.58
18.15
17.77
17.46
17.16
16.76
16.07
14.97
13.48
11.82
10.40
9.64
9.81
10.94
12.76
14.84
16.67
17.86
18.11
17.41
16.03
14.58
13.84
14.65
17.57
22.68
29.51
37.07
44.14
49.64
52.88
53.80
52.82
50.75
48.44
46.74
46.28
47.49
50.47
55.03
60.61
66.38
71.36
74.66
75.73
74.45
71.12
66.25
60.38
53.83
46.74
39.04
30.60
21.46
11.85
2.34
-6.38
-13.72
-19.45
-23.87
-27.80
-32.31
-38.42
-46.70
-57.10
-68.89
-80.96
-92.06
-101.18
-107.77
-111.83
-113.86
-114.62
-114.82
-114.84
-114.61
-113.56
-110.88
-105.91
-98.39
-88.69
-77.68
-66.44
-55.95
-46.85
-39.35
-33.43
-28.97
-25.85
-23.88
-22.73
-21.84
-20.57
-18.36
-14.95
-10.44
-5.15
0.52
6.19
11.41
15.57
17.93
17.89
15.35
10.97
6.09
2.20
0.33
0.61
2.28
4.17
5.26
5.10
3.78
1.75
-0.53
-2.78
-4.79
-6.43
-7.51
-7.97
-7.98
-8.08
-9.04
-11.57
-16.02
-22.01
-28.42
-33.64
-36.02
-34.42
-28.63
-19.46
-8.47
2.50
11.86
18.67
22.68
24.17
23.63
21.57
18.49
14.91
11.43
8.65
6.98
6.51
6.92
7.61
7.98
7.65
6.55
4.98
3.35
2.07
1.36
1.19
1.23
1.03
0.12
-1.79
-4.64
-8.04
-11.42
-14.26
-16.36
-17.90
-19.33
-21.20
-23.87
-27.38
-31.42
-35.33
-38.24
-39.30
-37.82
-33.57
-26.84
-18.48
-9.64
-1.47
5.18
9.90
12.70
13.86
13.76
12.73
11.09
9.15
7.21
5.58
4.46
3.93
3.94
4.33
4.87
5.28
5.30
4.67
3.21
0.87
-2.23
-5.86
-9.75
-13.72
-17.71
-21.80
-26.13
-30.80
-35.77
-40.87
-45.70
-49.74
-52.41
-53.17
-51.71
-48.13
-42.95
-37.04
-31.34
-26.50
-22.63
-19.25
-15.45
-10.27
-3.18
5.78
15.93
26.22
35.56
43.12
48.43
51.44
52.41
51.81
50.26
48.41
46.89
46.16
46.46
47.72
49.65
51.82
53.86
55.47
56.52
57.04
57.10
56.74
55.97
54.67
52.73
50.07
46.72
42.89
38.87
35.00
31.49
28.43
25.76
23.31
20.85
18.20
15.29
12.14
8.92
5.80
2.95
0.39
-1.98
-4.37
-6.97
-9.87
-13.01
-16.17
-19.10
-21.64
-23.80
-25.73
-27.76
-30.25
-33.50
-37.62
-42.36
-47.07
-50.72
-52.15
-50.44
-45.26
-37.01
-26.79
-15.99
-5.90
2.62
9.25
14.07
17.40
19.62
21.10
22.21
23.32
24.76
26.73
29.20
31.96
34.64
36.89
38.48
39.39
39.74
39.71
39.47
39.07
38.50
37.69
36.57
35.17
33.52
31.70
29.73
27.63
25.40
23.10
20.78
18.54
16.42
14.46
12.65
10.99
9.41
7.82
6.10
4.11
1.80
-0.78
-3.45
-5.99
-8.24
-10.20
-12.03
-13.98
-16.31
-19.21
-22.71
-26.63
-30.55
-33.80
-35.55
-35.05
-31.88
-26.17
-18.62
-10.30
-2.37
4.30
9.25
12.45
14.14
14.70
14.56
14.08
13.60
13.33
13.41
13.83
14.51
15.28
16.01
16.54
16.78
16.68
16.29
15.73
15.13
14.56
14.00
13.28
12.22
10.68
8.65
6.30
3.86
1.53
-0.59
-2.52
-4.40
-6.33
-8.32
-10.28
-12.03
-13.46
-14.58
-15.60
-16.84
-18.61
-21.00
-23.80
-26.48
-28.37
-28.82
-27.41
-24.08
-19.15
-13.18
-6.88
-0.95
4.05
7.78
10.17
11.40
11.82
11.86
11.94
12.35
13.21
14.45
15.85
17.15
18.15
18.76
19.05
19.16
19.25
19.41
19.56
19.52
19.01
17.78
15.74
13.02
9.91
6.85
4.29
2.57
1.86
2.08
2.92
3.90
4.56
4.58
3.91
2.70
1.23
-0.30
-1.89
-3.57
-5.32
-6.83
-7.52
-6.66
-3.66
1.66
9.14
18.31
28.52
38.91
48.42
55.83
60.03
60.42
57.18
51.24
44.02
36.85
30.47
24.91
19.69
14.35
8.81
3.49
-0.90
-3.81
-5.15
-5.37
-5.21
-5.38
-6.21
-7.61
-9.19
-10.56
-11.62
-12.62
-13.97
-16.08
-19.03
-22.61
-26.38
-29.81
-32.53
-34.42
-35.65
-36.56
-37.55
-38.87
-40.54
-42.30
-43.69
-44.16
-43.21
-40.52
-36.01
-29.84
-22.40
-14.27
-6.08
1.60
8.38
14.14
18.99
23.19
27.00
30.59
33.97
37.07
39.83
42.25
44.48
46.72
49.16
51.79
54.25
55.94
56.21
54.81
52.08
48.89
46.29
44.94
44.89
45.59
46.20
45.97
44.37
41.06
35.74
28.14
18.27
6.67
-5.54
-16.96
-26.45
-33.56
-38.64
-42.45
-45.56
-48.02
-49.33
-48.80
-46.04
-41.33
-35.54
-29.79
-25.06
-21.83
-20.07
-19.46
-19.63
-20.40
-21.71
-23.50
-25.55
-27.43
-28.70
-29.07
-28.72
-28.20
-28.20
-29.14
-30.74
-31.91
-31.09
-26.80
-18.38
-6.30
7.83
21.85
33.62
41.56
44.81
43.17
36.83
26.34
12.44
-3.87
-21.39
-38.90
-55.27
-69.60
-81.16
-89.46
-94.18
-95.29
-93.17
-88.63
-82.78
-76.69
-71.11
-66.28
-61.96
-57.69
-52.96
-47.40
-40.93
-33.64
-25.79
-17.76
-9.98
-2.89
3.37
9.16
15.30
22.72
32.02
42.91
54.10
63.42
68.31
66.91
58.80
45.21
28.49
11.33
-4.02
-16.31
-25.36
-31.99
-37.11
-41.02
-43.50
-44.24
-43.31
-41.10
-38.06
-34.34
-30.09
-24.92
-17.83
-7.99
4.44
18.09
30.80
40.43
45.36
44.17
36.52
23.57
7.67
-8.45
-22.17
-31.12
-33.68
-26.01
-8.57
12.28
27.84
33.06
28.39
17.88
6.50
-1.92
-5.68
-5.64
-3.60
-0.88
2.04
4.90
7.29
8.77
9.01
7.85
4.95
0.49
-4.83
-9.39
-11.71
-10.98
-6.99
-0.17
8.58
17.74
25.81
31.75
35.05
35.46
32.92
27.76
20.81
13.28
6.36
1.11
-1.71
-1.73
0.81
5.15
10.20
14.95
18.73
21.28
22.68
23.25
23.36
23.32
23.35
23.64
24.39
25.71
27.54
29.62
31.57
33.01
33.67
33.45
32.40
30.64
28.22
25.10
21.20
16.39
10.64
3.94
-3.70
-12.28
-21.72
-31.60
-41.15
-49.13
-54.21
-55.41
-52.68
-47.05
-40.50
-35.27
-32.98
-34.05
-37.71
-42.56
-47.17
-50.56
-52.12
-51.47
-48.32
-42.64
-35.01
-26.67
-19.22
-13.92
-11.01
-9.58
-7.99
-4.73
0.93
8.65
17.42
26.05
33.65
39.69
43.94
46.34
46.96
46.04
43.99
41.32
38.46
35.61
32.71
29.45
25.43
20.41
14.48
8.22
2.68
-0.97
-1.81
0.39
5.01
10.72
16.04
19.81
21.63
21.86
21.30
20.68
20.32
19.95
18.93
16.52
12.27
6.20
-1.05
-8.32
-14.24
-17.51
-17.37
-13.76
-7.45
0.20
7.49
12.77
14.91
13.41
8.48
0.79
-8.78
-19.22
-29.52
-38.70
-45.99
-50.90
-53.52
-54.52
-55.11
-56.40
-58.77
-61.52
-63.20
-62.28
-57.79
-49.93
-39.94
-29.76
-21.15
-14.98
-11.12
-9.00
-8.11
-8.13
-8.95
-10.39
-12.29
-14.42
-16.49
-18.38
-20.34
-22.62
-24.86
-26.01
-24.29
-19.09
-12.12
-6.78
-5.06
-6.95
-11.09
-15.23
-17.88
-17.66
-14.30
-8.62
-1.86
4.81
10.43
14.40
16.53
16.93
15.95
13.87
11.11
8.37
6.61
6.60
8.65
12.55
17.55
22.68
26.83
29.24
29.85
29.23
28.21
27.50
27.46
28.04
28.97
29.80
30.17
29.96
29.24
28.14
26.74
25.03
23.02
20.75
18.33
15.92
13.70
11.82
10.27
8.90
7.54
6.06
4.42
2.68
0.88
-0.96
-2.88
-4.76
-6.35
-7.20
-6.89
-5.25
-2.50
0.83
4.04
6.59
8.21
9.00
9.28
9.37
9.52
9.79
10.16
10.51
10.76
10.86
10.80
10.56
10.15
9.52
8.61
7.40
5.92
4.28
2.67
1.23
0.02
-1.03
-2.05
-3.23
-4.64
-6.25
-7.92
-9.48
-10.87
-12.14
-13.46
-14.96
-16.64
-18.20
-19.13
-18.89
-17.10
-13.78
-9.33
-4.40
0.31
4.29
7.33
9.50
11.00
12.08
12.93
13.67
14.34
14.99
15.69
16.49
17.46
18.57
19.69
20.61
21.10
21.08
20.67
20.14
19.83
19.92
20.34
20.81
20.98
20.57
19.54
18.09
16.49
14.97
13.62
12.38
11.11
9.70
8.07
6.22
4.21
2.12
0.07
-1.82
-3.47
-4.83
-5.95
-6.98
-8.12
-9.60
-11.54
-13.82
-16.05
-17.54
-17.51
-15.38
-11.08
-5.19
1.10
6.37
9.46
9.90
7.96
4.52
0.67
-2.71
-5.14
-6.53
-6.96
-6.45
-4.88
-2.04
2.21
7.66
13.69
19.14
22.64
23.02
19.79
13.47
5.49
-2.26
-8.23
-11.67
-12.84
-12.61
-11.92
-11.23
-10.47
-9.27
-7.37
-4.95
-2.58
-0.90
-0.28
-0.61
-1.34
-1.76
-1.33
0.16
2.55
5.47
8.47
11.18
13.32
14.70
15.17
14.68
13.31
11.25
8.79
6.17
3.56
0.99
-1.53
-3.94
-6.17
-8.09
-9.63
-10.75
-11.44
-11.69
-11.43
-10.64
-9.43
-8.00
-6.67
-5.72
-5.25
-5.12
-4.93
-4.21
-2.52
0.32
4.16
8.65
13.36
17.98
22.41
26.70
30.90
34.97
38.72
41.98
44.71
47.15
49.79
53.17
57.62
63.03
68.69
73.55
76.45
76.49
73.41
67.71
60.52
53.20
46.73
41.19
35.68
28.71
18.81
5.23
-11.63
-30.27
-48.54
-64.27
-75.83
-82.41
-83.94
-81.00
-74.58
-65.90
-56.36
-47.47
-40.78
-37.58
-38.41
-42.74
-49.08
-55.44
-59.95
-61.45
-59.79
-55.92
-51.17
-46.56
-42.58
-39.51
-37.80
-38.18
-41.32
-47.42
-56.33
-67.19
-78.12
-86.40
-89.06
-83.59
-68.48
-43.80
-11.64
23.42
55.42
78.77
89.72
86.75
70.44
42.87
8.11
-26.12
-51.30
-62.49
-59.70
-45.71
-24.03
1.89
28.76
53.72
74.72
90.14
99.39
103.27
104.14
103.89
103.87
104.63
105.87
106.48
104.26
97.19
84.54
67.47
48.41
30.21
14.92
2.97
-4.42
-8.27
-10.67
-13.62
-18.45
-25.78
-35.51
-46.93
-58.70
-69.05
-76.66
-80.88
-82.04
-81.55
-81.47
-83.52
-88.18
-94.26
-99.26
-100.81
-97.34
-88.78
-76.57
-63.00
-50.38
-40.32
-33.36
-29.03
-26.43
-24.46
-22.16
-18.90
-14.44
-8.84
-2.42
4.29
10.64
15.85
19.31
20.74
20.33
18.73
16.80
15.37
14.98
15.73
17.34
19.33
21.27
22.88
24.07
24.87
25.33
25.46
25.27
24.81
24.16
23.48
22.92
22.44
21.88
20.93
19.27
16.75
13.51
9.94
6.51
3.55
1.06
-1.25
-3.78
-6.83
-10.43
-14.37
-18.32
-21.94
-25.02
-27.43
-29.06
-29.81
-29.65
-28.72
-27.35
-25.99
-24.93
-24.09
-23.02
-20.98
-17.32
-11.88
-5.17
1.77
7.77
11.96
14.02
14.14
12.98
11.41
10.27
10.13
11.32
13.77
17.14
20.72
23.57
24.87
24.26
21.80
17.97
13.73
10.22
8.58
9.41
12.38
16.31
19.46
19.97
16.57
9.21
-1.01
-11.20
-17.96
-19.80
-18.09
-15.53
-14.46
-16.21
-19.67
-23.33
-25.91
-27.05
-27.42
-28.04
-29.07
-30.55
-32.14
-33.17
-32.92
-30.63
-25.86
-18.77
-10.03
-0.76
7.53
13.43
16.20
15.92
13.61
10.69
8.43
7.55
8.17
9.95
12.42
15.23
18.11
20.80
22.92
24.10
24.18
23.32
21.96
20.64
19.75
19.37
19.35
19.33
19.01
18.17
16.75
14.83
12.63
10.44
8.58
7.23
6.39
5.90
5.46
4.80
3.72
2.16
0.19
-2.07
-4.49
-6.96
-9.34
-11.51
-13.36
-14.83
-16.00
-17.07
-18.31
-20.01
-22.31
-25.11
-28.02
-30.43
-31.72
-31.42
-29.35
-25.69
-20.87
-15.52
-10.25
-5.60
-1.92
0.62
2.03
2.44
2.07
1.16
-0.02
-1.18
-2.07
-2.49
-2.36
-1.69
-0.59
0.83
2.49
4.35
6.35
8.35
10.10
11.29
11.62
10.96
9.44
7.35
5.10
3.07
1.41
0.12
-1.01
-2.29
-4.01
-6.35
-9.27
-12.49
-15.47
-17.52
-17.96
-16.34
-12.63
-7.26
-1.06
5.03
10.20
14.01
16.43
17.69
18.17
18.20
17.98
17.58
17.09
16.57
16.13
15.89
15.90
16.11
16.35
16.41
16.10
15.37
14.34
13.27
12.35
11.64
10.98
10.08
8.65
6.55
3.88
0.91
-1.98
-4.49
-6.46
-7.88
-8.96
-10.05
-11.56
-13.76
-16.65
-19.78
-22.38
-23.59
-22.78
-19.78
-14.96
-9.02
-2.80
2.94
7.72
11.30
13.68
15.05
15.71
16.06
16.40
16.91
17.60
18.35
19.03
19.59
20.04
20.42
20.76
21.06
21.29
21.44
21.53
21.54
21.48
21.26
20.82
20.11
19.08
17.76
16.15
14.29
12.25
10.16
8.20
6.52
5.21
4.18
3.26
2.20
0.81
-0.94
-2.97
-5.11
-7.18
-9.07
-10.79
-12.45
-14.24
-16.35
-18.94
-22.00
-25.27
-28.20
-30.05
-30.06
-27.75
-23.17
-16.88
-9.83
-3.04
2.71
7.05
10.00
11.82
12.85
13.38
13.65
13.89
14.30
15.02
16.04
17.21
18.26
18.94
19.09
18.78
18.20
17.62
17.28
17.25
17.50
17.87
18.17
18.21
17.85
16.98
15.59
13.79
11.78
9.80
8.07
6.67
5.53
4.47
3.28
1.79
-0.03
-2.07
-4.15
-6.05
-7.64
-8.88
-9.87
-10.85
-12.08
-13.83
-16.22
-19.16
-22.32
-25.15
-26.98
-27.21
-25.53
-21.95
-16.92
-11.12
-5.32
-0.19
3.87
6.68
8.32
9.02
9.04
8.69
8.20
7.80
7.59
7.65
7.96
8.48
9.10
9.70
10.12
10.22
9.97
9.41
8.65
7.84
7.04
6.23
5.30
4.16
2.72
1.04
-0.76
-2.50
-3.99
-5.13
-5.91
-6.44
-6.93
-7.63
-8.77
-10.46
-12.60
-14.87
-16.78
-17.77
-17.34
-15.26
-11.57
-6.67
-1.13
4.36
9.22
13.04
15.63
17.03
17.42
17.06
16.24
15.21
14.23
13.59
13.57
14.41
16.19
18.73
21.61
24.28
26.20
27.05
26.74
25.33
23.02
20.00
16.49
12.84
9.54
7.06
5.69
5.35
5.52
5.45
4.49
2.37
-0.68
-4.17
-7.58
-10.63
-13.30
-15.65
-17.52
-18.50
-18.00
-15.66
-11.58
-6.43
-1.20
3.18
6.20
7.87
8.64
9.06
9.53
10.20
11.05
11.97
12.90
13.78
14.56
15.11
15.30
15.10
14.65
14.20
14.02
14.23
14.72
15.21
15.42
15.19
14.54
13.56
12.36
10.95
9.28
7.25
4.79
1.91
-1.33
-4.85
-8.56
-12.47
-16.73
-21.50
-26.87
-32.62
-38.13
-42.46
-44.66
-44.12
-40.84
-35.47
-29.02
-22.54
-16.75
-11.96
-8.11
-4.98
-2.30
0.08
2.28
4.31
6.19
7.86
9.36
10.73
12.13
13.70
15.57
17.70
19.87
21.63
22.49
22.02
20.11
17.03
13.43
10.10
7.66
6.36
5.97
5.96
5.67
4.59
2.43
-0.92
-5.39
-10.75
-16.58
-22.22
-26.82
-29.57
-29.97
-28.11
-24.63
-20.62
-17.15
-14.96
-14.18
-14.42
-15.00
-15.39
-15.39
-14.98
-14.12
-12.67
-10.64
-8.59
-7.64
-9.11
-13.60
-20.29
-26.99
-30.98
-30.42
-25.30
-17.43
-9.48
-3.60
-0.50
0.51
0.73
1.15
1.96
2.68
2.67
1.57
-0.50
-3.11
-5.70
-7.96
-9.95
-12.03
-14.67
-18.07
-21.80
-24.69
-25.14
-21.76
-14.18
-3.37
8.43
18.48
24.50
25.26
20.80
12.01
0.20
-13.16
-26.46
-37.89
-45.55
-47.88
-44.23
-35.22
-22.47
-8.03
6.49
20.26
33.18
45.28
56.20
65.02
70.55
72.00
69.39
63.60
56.02
47.97
40.35
33.51
27.45
22.02
17.11
12.66
8.64
4.99
1.75
-1.01
-3.10
-4.40
-4.88
-4.64
-3.88
-2.81
-1.53
-0.17
1.15
2.12
2.31
1.28
-1.29
-5.44
-10.84
-16.90
-22.77
-27.51
-30.21
-30.20
-27.18
-21.37
-13.53
-4.77
3.71
11.01
16.74
21.01
24.29
27.03
29.58
32.14
34.72
37.09
38.65
38.55
36.01
30.74
23.34
15.22
8.14
3.44
1.60
2.12
3.91
5.89
7.35
8.05
7.99
7.18
5.58
3.23
0.38
-2.57
-5.20
-7.27
-8.81
-10.01
-11.22
-12.73
-14.64
-16.86
-19.03
-20.63
-21.22
-20.62
-19.18
-17.64
-16.88
-17.55
-19.78
-23.15
-26.90
-30.30
-32.91
-34.63
-35.56
-35.90
-35.83
-35.58
-35.49
-35.91
-37.07
-38.91
-40.93
-42.38
-42.48
-40.72
-37.07
-32.06
-26.54
-21.46
-17.54
-15.09
-13.97
-13.80
-14.15
-14.71
-15.28
-15.65
-15.53
-14.49
-12.20
-8.57
-3.90
1.17
5.92
9.78
12.52
14.19
15.07
15.44
15.53
15.48
15.40
15.34
15.36
15.43
15.46
15.35
14.99
14.33
13.39
12.33
11.32
10.61
10.37
10.70
11.53
12.61
13.61
14.18
14.09
13.27
11.80
9.92
7.94
6.14
4.74
3.80
3.23
2.79
2.14
1.05
-0.57
-2.60
-4.74
-6.68
-8.14
-8.96
-9.09
-8.55
-7.47
-6.13
-4.93
-4.28
-4.46
-5.40
-6.75
-7.92
-8.40
-7.88
-6.38
-4.12
-1.47
1.20
3.56
5.30
6.20
6.20
5.44
4.22
2.99
2.10
1.70
1.74
1.98
2.19
2.23
2.07
1.79
1.50
1.28
1.19
1.21
1.33
1.47
1.61
1.68
1.65
1.49
1.19
0.73
0.13
-0.59
-1.38
-2.17
-2.91
-3.57
-4.12
-4.55
-4.80
-4.78
-4.38
-3.57
-2.47
-1.42
-0.84
-1.06
-2.21
-4.01
-5.89
-7.16
-7.26
-6.02
-3.68
-0.78
2.00
4.12
5.31
5.62
5.26
4.55
3.77
3.10
2.64
2.45
2.56
2.94
3.54
4.21
4.77
5.09
5.10
4.91
4.71
4.71
5.04
5.73
6.63
7.52
8.12
8.18
7.52
6.13
4.13
1.82
-0.41
-2.15
-3.05
-2.95
-1.94
-0.35
1.27
2.31
2.35
1.26
-0.71
-3.01
-5.00
-6.12
-6.05
-4.76
-2.51
0.22
2.84
4.81
5.70
5.37
3.98
1.95
-0.17
-1.91
-2.98
-3.30
-3.02
-2.35
-1.54
-0.79
-0.27
-0.09
-0.33
-0.97
-1.89
-2.93
-3.88
-4.60
-5.03
-5.23
-5.32
-5.44
-5.62
-5.76
-5.72
-5.29
-4.37
-2.99
-1.32
0.38
1.89
3.09
4.01
4.74
5.37
5.82
5.83
5.14
3.60
1.38
-1.05
-3.04
-4.03
-3.75
-2.33
-0.16
2.32
4.72
6.84
8.55
9.72
10.19
9.83
8.60
6.65
4.27
1.83
-0.36
-2.11
-3.44
-4.48
-5.50
-6.77
-8.50
-10.78
-13.47
-16.24
-18.59
-20.03
-20.26
-19.31
-17.53
-15.49
-13.77
-12.74
-12.47
-12.78
-13.38
-14.05
-14.69
-15.31
-15.91
-16.37
-16.51
-16.14
-15.17
-13.68
-11.91
-10.14
-8.60
-7.36
-6.29
-5.17
-3.75
-1.84
0.64
3.58
6.75
9.82
12.44
14.33
15.35
15.47
14.80
13.52
11.82
9.90
7.95
6.19
4.82
4.00
3.78
4.07
4.69
5.37
5.87
6.01
5.74
5.08
4.10
2.92
1.64
0.38
-0.83
-1.92
-2.87
-3.67
-4.34
-4.95
-5.61
-6.43
-7.47
-8.69
-9.98
-11.25
-12.47
-13.71
-15.10
-16.69
-18.33
-19.70
-20.33
-19.83
-18.07
-15.23
-11.75
-8.20
-5.08
-2.72
-1.20
-0.49
-0.44
-0.88
-1.58
-2.30
-2.81
-2.91
-2.54
-1.75
-0.73
0.33
1.27
1.99
2.51
2.90
3.26
3.70
4.24
4.86
5.46
5.91
6.16
6.23
6.20
6.14
6.05
5.85
5.42
4.71
3.75
2.64
1.47
0.29
-0.92
-2.11
-3.18
-3.89
-4.00
-3.35
-1.92
0.08
2.39
4.68
6.76
8.50
9.89
10.94
11.70
12.17
12.32
12.12
11.56
10.69
9.67
8.67
7.85
7.29
6.96
6.76
6.63
6.52
6.45
6.40
6.31
6.01
5.33
4.15
2.54
0.67
-1.19
-2.81
-4.06
-4.93
-5.48
-5.84
-6.16
-6.56
-7.06
-7.59
-7.95
-7.90
-7.22
-5.82
-3.82
-1.54
0.60
2.29
3.34
3.83
3.94
3.94
3.96
4.01
4.03
3.90
3.59
3.12
2.63
2.25
2.07
2.14
2.43
2.85
3.31
3.76
4.20
4.69
5.28
5.95
6.59
7.03
7.16
6.98
6.54
6.00
5.48
5.03
4.59
4.02
3.24
2.27
1.18
0.02
-1.16
-2.31
-3.27
-3.86
-4.01
-3.71
-3.19
-2.72
-2.61
-2.93
-3.24
-2.85
-1.24
1.72
5.70
10.12
14.44
18.04
20.78
23.11
25.77
29.13
33.15
37.71
42.76
48.51
54.10
58.00
58.29
53.23
41.76
24.88
6.20
-9.08
-15.91
-12.84
-1.94
12.46
25.29
31.97
30.00
19.41
2.09
-18.85
-41.68
-64.95
-86.84
-100.55
-100.17
-85.18
-61.38
-40.98
-26.41
-17.68
-14.09
-12.75
-12.11
-11.62
-11.30
-11.09
-10.81
-9.87
-9.08
-9.24
-10.29
-12.10
-14.62
-18.06
-22.42
-27.60
-33.13
-39.39
-46.54
-50.83
-49.60
-42.09
-29.21
-11.81
9.36
32.92
55.42
72.55
80.98
79.43
71.07
59.06
46.60
35.64
26.65
18.93
11.91
6.03
2.77
4.22
11.60
24.80
41.30
56.95
67.24
68.64
59.82
42.70
22.81
7.72
5.11
20.04
52.77
98.15
146.12
184.38
202.76
196.74
168.16
123.81
72.44
21.34
-23.20
-54.07
-67.99
-67.31
-57.09
-41.51
-23.10
-4.02
10.08
16.92
14.96
3.71
-15.47
-39.90
-67.61
-98.99
-131.68
-158.47
-174.11
-177.10
-170.14
-157.61
-142.78
-127.16
-110.96
-94.44
-78.44
-64.34
-53.58
-47.14
-44.75
-45.20
-46.95
-48.43
-48.76
-47.80
-46.08
-44.45
-43.82
-44.39
-46.01
-50.35
-55.72
-60.93
-65.41
-69.01
-71.95
-74.70
-77.39
-80.51
-85.25
-93.21
-106.27
-124.84
-146.52
-165.84
-175.52
-168.64
-142.22
-98.87
-45.96
6.43
49.09
76.30
86.87
79.92
58.39
27.67
-5.59
-34.43
-53.48
-60.08
-54.97
-41.85
-25.97
-11.70
-2.16
1.23
-1.66
-10.54
-25.09
-44.90
-68.95
-95.16
-119.78
-138.59
-147.94
-146.03
-133.53
-113.19
-88.73
-63.48
-39.36
-16.35
6.62
30.91
57.42
86.20
116.21
144.93
168.31
181.47
180.15
162.23
128.69
83.42
31.75
-21.39
-72.82
-121.22
-166.21
-207.22
-242.86
-271.17
-290.19
-298.72
-296.50
-284.04
-262.35
-232.65
-196.46
-155.45
-111.42
-66.10
-20.85
23.75
67.99
112.90
159.66
208.87
259.86
310.38
356.80
394.88
420.81
432.35
429.72
415.76
395.04
372.22
350.29
329.58
308.33
284.32
256.83
227.77
201.25
181.89
172.93
174.83
185.09
199.29
212.18
218.96
216.10
202.05
177.71
146.43
113.29
83.64
61.61
49.06
45.60
49.32
57.71
68.31
78.80
86.79
90.06
87.02
77.46
62.95
46.44
31.26
19.83
12.98
9.95
9.17
9.01
8.08
5.17
-0.96
-11.41
-26.54
-45.26
-64.86
-81.62
-92.25
-95.31
-91.79
-84.44
-76.28
-69.16
-63.25
-57.67
-51.46
-44.18
-35.68
-25.55
-13.02
2.14
18.41
32.04
38.16
33.18
17.33
-4.56
-24.76
-36.09
-35.39
-24.88
-10.94
-0.95
-0.16
-9.88
-27.65
-48.77
-68.32
-82.48
-89.16
-87.88
-79.61
-66.38
-50.93
-36.05
-23.75
-14.58
-7.53
-0.72
7.48
17.36
27.46
35.05
37.21
32.03
19.52
1.69
-17.95
-35.40
-47.29
-51.63
-48.34
-39.16
-27.16
-16.07
-9.51
-10.28
-19.75
-37.38
-60.53
-84.73
-104.66
-115.61
-114.98
-103.10
-83.07
-59.60
-37.37
-19.60
-7.35
0.41
5.95
11.69
19.05
27.98
36.87
43.24
44.68
39.87
29.23
14.91
0.16
-11.66
-18.20
-18.72
-14.05
-6.14
2.74
10.54
15.72
17.12
14.05
6.38
-5.09
-18.49
-31.05
-39.96
-43.29
-40.75
-33.81
-25.01
-17.01
-11.55
-8.94
-8.16
-7.42
-5.09
-0.39
6.19
13.13
18.38
20.17
17.56
10.69
0.60
-11.08
-22.43
-31.57
-36.92
-37.57
-33.66
-26.60
-19.00
-13.92
-13.96
-20.37
-32.54
-48.19
-64.00
-76.62
-83.50
-83.40
-76.46
-63.91
-47.62
-29.64
-11.84
4.39
18.24
29.60
38.82
46.39
52.61
57.31
59.96
59.99
57.19
51.90
45.01
37.67
30.87
25.25
21.09
18.35
16.85
16.25
16.00
15.43
13.89
11.07
7.12
2.71
-1.26
-3.95
-4.86
-3.84
-1.02
3.32
8.80
14.87
20.89
26.28
30.80
34.61
37.99
40.82
42.27
41.08
36.30
28.08
17.97
8.32
1.26
-2.25
-2.71
-1.61
-0.58
-0.75
-2.69
-6.74
-13.31
-22.79
-35.06
-49.08
-62.88
-74.17
-81.16
-83.22
-80.94
-75.76
-69.36
-62.94
-56.84
-50.67
-43.66
-35.27
-25.52
-15.01
-4.70
4.46
11.83
17.19
20.70
22.91
24.62
26.74
29.98
34.48
39.55
43.73
45.33
43.32
37.97
31.06
25.20
22.75
24.71
30.30
37.27
42.80
44.55
41.45
33.96
23.65
12.61
2.64
-5.23
-10.86
-14.82
-18.00
-21.10
-24.37
-27.59
-30.28
-32.06
-32.91
-33.06
-32.93
-32.87
-32.99
-33.21
-33.52
-34.34
-36.54
-41.29
-49.57
-61.70
-76.99
-93.53
-108.19
-117.27
-117.22
-105.66
-82.43
-49.77
-12.07
25.27
57.39
81.28
95.74
100.95
97.91
88.04
73.73
58.06
44.12
34.14
28.85
26.97
26.51
26.46
27.49
32.08
42.28
57.41
73.68
85.87
89.33
82.49
67.55
48.71
30.80
16.92
8.06
0.91
-5.62
-10.64
-12.61
-8.43
-0.86
6.21
10.28
8.93
3.33
-3.34
-8.72
-12.88
-18.47
-29.66
-48.98
-75.93
-106.62
-134.46
-152.43
-156.06
-144.76
-121.59
-92.04
-61.28
-33.16
-10.04
7.09
17.95
22.55
21.55
16.63
10.20
4.96
2.58
2.94
4.59
5.68
4.95
2.44
-0.65
-2.92
-3.62
-3.31
-3.61
-6.12
-11.33
-18.24
-24.68
-28.35
-27.96
-23.55
-16.25
-7.39
2.30
12.77
24.27
36.65
48.88
59.24
65.94
67.91
65.27
59.27
51.70
44.12
37.41
31.50
25.65
18.86
10.43
0.29
-10.87
-21.75
-30.85
-36.99
-39.72
-39.52
-37.63
-35.60
-34.73
-35.61
-37.96
-40.79
-42.79
-42.68
-39.67
-33.64
-25.40
-16.70
-9.95
-7.59
-11.02
-19.77
-31.34
-41.99
-48.16
-48.02
-42.09
-32.83
-23.29
-15.77
-10.90
-7.74
-4.46
0.72
8.92
20.44
34.90
51.46
69.06
86.58
103.01
117.56
129.76
139.39
146.49
151.37
154.69
157.34
160.24
163.89
168.04
171.57
172.86
170.32
162.91
150.48
133.69
113.63
91.50
68.32
44.88
21.78
-0.36
-20.93
-39.29
-55.01
-67.95
-78.36
-86.78
-93.76
-99.63
-104.32
-107.45
-108.57
-107.50
-104.48
-100.03
-94.48
-87.56
-78.16
-64.72
-46.08
-22.43
4.08
29.70
50.12
62.08
64.46
58.33
46.21
31.23
16.61
5.70
1.72
6.80
20.69
39.80
57.77
67.64
64.75
48.79
23.65
-4.62
-30.70
-51.95
-68.43
-81.58
-92.50
-101.08
-106.31
-107.36
-104.50
-99.45
-94.82
-93.15
-95.56
-100.93
-106.02
-106.78
-100.31
-86.55
-68.86
-52.83
-43.91
-45.07
-55.63
-71.94
-89.35
-104.39
-116.15
-125.99
-136.23
-148.47
-162.29
-174.98
-182.44
-180.54
-166.79
-141.40
-107.54
-70.34
-35.34
-6.72
13.78
26.86
34.79
40.01
43.97
46.78
47.56
45.51
40.62
34.10
27.92
24.17
24.28
28.85
37.63
49.81
64.29
79.78
94.82
108.02
118.35
125.43
129.65
131.87
132.91
133.15
132.34
129.95
125.52
118.98
110.65
100.97
90.27
78.45
65.13
49.75
31.85
11.21
-11.90
-36.69
-61.92
-86.32
-109.14
-130.41
-150.83
-171.03
-190.89
-209.04
-223.11
-230.57
-229.86
-221.19
-206.51
-188.71
-170.39
-153.04
-136.73
-120.56
-103.39
-84.49
-63.90
-42.19
-20.09
2.21
24.85
48.00
71.51
94.63
116.16
134.79
149.63
160.51
168.28
174.01
178.43
181.67
183.35
183.03
180.44
175.60
168.69
160.20
150.33
139.02
126.21
112.16
97.43
82.65
68.28
52.14
33.73
14.13
-4.45
-19.99
-31.57
-39.34
-43.91
-45.93
-45.96
-44.19
-41.06
-37.29
-33.66
-30.63
-28.25
-26.51
-25.39
-24.97
-25.01
-25.33
-25.75
-26.20
-26.57
-26.77
-26.73
-26.47
-26.04
-25.55
-25.06
-24.67
-24.32
-23.67
-22.12
-19.04
-14.02
-7.16
1.02
9.56
17.42
23.83
28.58
32.10
35.22
38.73
43.02
47.89
52.65
56.37
58.37
58.46
56.98
54.57
51.81
48.97
45.96
42.43
38.05
32.68
26.44
19.71
12.97
6.73
1.37
-2.94
-6.28
-9.11
-12.04
-15.70
-20.49
-26.35
-32.68
-38.54
-42.92
-45.21
-45.41
-44.10
-42.14
-40.24
-38.60
-36.85
-34.41
-30.78
-25.92
-20.35
-14.94
-10.66
-8.43
-8.91
-12.27
-17.85
-24.05
-28.67
-29.76
-26.68
-20.59
-14.02
-9.72
-9.19
-11.97
-15.88
-18.29
-17.46
-13.23
-6.82
0.11
6.38
11.59
15.83
19.12
21.10
21.15
18.83
14.27
8.29
2.31
-2.26
-4.42
-3.92
-1.28
2.45
6.03
8.41
8.91
7.33
3.84
-1.17
-7.20
-13.63
-19.64
-24.18
-26.17
-24.88
-20.37
-13.52
-5.72
1.77
8.37
14.31
20.30
26.97
34.54
42.71
50.96
58.86
66.16
72.64
77.79
80.85
80.91
77.49
70.80
61.80
51.85
42.20
33.52
25.83
18.65
11.34
3.55
-4.59
-12.63
-20.05
-26.53
-31.96
-36.37
-39.71
-41.81
-42.42
-41.52
-39.34
-36.46
-33.73
-32.03
-32.07
-34.10
-37.65
-41.53
-44.09
-43.92
-40.70
-35.61
-31.16
-30.18
-34.49
-44.00
-56.60
-69.08
-78.42
-82.74
-81.67
-75.90
-66.65
-55.17
-42.70
-30.49
-19.75
-11.41
-5.66
-1.80
1.64
6.22
13.01
22.12
32.87
44.24
55.37
65.78
75.24
83.47
90.00
94.31
96.15
95.93
94.61
93.47
93.50
95.04
97.65
100.46
102.63
103.68
103.63
102.86
101.88
101.02
100.38
99.84
99.14
98.05
96.51
94.61
92.63
90.90
89.69
89.18
89.37
90.07
90.83
90.92
89.46
85.62
78.84
69.06
56.70
42.55
27.42
11.95
-3.57
-19.19
-35.15
-51.70
-68.95
-86.83
-105.10
-123.36
-141.12
-157.86
-173.27
-187.23
-199.89
-211.44
-221.84
-230.59
-236.65
-238.69
-235.53
-226.59
-212.20
-193.52
-172.16
-149.60
-126.77
-104.03
-81.39
-59.07
-37.78
-18.70
-2.93
8.93
17.05
22.08
24.71
25.33
24.28
22.17
20.06
19.05
19.54
20.55
19.95
15.47
6.08
-7.08
-21.13
-32.75
-39.85
-42.62
-43.23
-44.61
-49.00
-56.98
-67.43
-78.06
-86.27
-89.81
-87.17
-77.74
-61.76
-40.22
-14.74
12.66
39.82
64.79
86.18
103.45
117.03
128.25
138.93
150.89
165.33
182.35
200.75
218.27
232.19
240.12
240.75
234.07
221.29
204.23
184.70
164.05
143.07
122.22
101.86
82.42
64.30
47.68
32.43
18.14
4.38
-9.08
-22.20
-34.74
-46.35
-56.78
-65.91
-73.72
-80.24
-85.47
-89.42
-92.06
-93.42
-93.59
-92.77
-91.23
-89.30
-87.27
-85.30
-83.39
-81.35
-78.95
-76.01
-72.54
-68.79
-65.22
-62.29
-60.33
-59.36
-59.12
-59.16
-59.03
-58.44
-57.30
-55.74
-54.10
-52.88
-52.77
-54.47
-58.49
-64.84
-72.87
-81.36
-88.86
-94.13
-96.60
-96.41
-94.20
-90.79
-86.75
-82.36
-77.54
-72.10
-65.80
-58.51
-50.21
-41.07
-31.47
-22.00
-13.35
-6.25
-1.24
1.42
1.84
0.47
-1.98
-4.73
-7.27
-9.60
-12.32
-16.26
-21.85
-28.47
-34.21
-36.35
-32.14
-19.82
0.72
27.75
58.09
87.76
112.80
129.97
137.48
135.68
127.20
116.61
109.13
109.14
118.80
137.61
162.85
190.67
217.25
239.45
255.12
262.93
262.35
253.66
238.02
217.40
194.15
170.41
147.55
126.01
105.54
85.64
65.99
46.72
28.35
11.58
-3.03
-15.27
-25.38
-33.98
-41.85
-49.71
-57.96
-66.60
-75.26
-83.45
-90.69
-96.70
-101.36
-104.72
-106.81
-107.70
-107.49
-106.37
-104.59
-102.42
-100.06
-97.57
-94.94
-92.18
-89.40
-86.71
-84.20
-81.79
-79.26
-76.33
-72.87
-68.97
-64.95
-61.19
-57.98
-55.36
-53.11
-50.89
-48.35
-45.30
-41.84
-38.40
-35.66
-34.39
-35.23
-38.40
-43.62
-50.08
-56.67
-62.28
-66.07
-67.55
-66.62
-63.35
-57.90
-50.43
-41.12
-30.30
-18.33
-5.60
7.64
21.24
35.04
48.62
61.16
71.58
78.85
82.49
82.78
80.69
77.52
74.32
71.52
68.92
65.94
62.04
57.08
51.26
45.05
38.81
32.73
26.79
20.95
15.33
10.22
5.97
2.82
0.70
-0.80
-2.20
-3.95
-6.14
-8.50
-10.57
-12.02
-12.85
-13.52
-14.72
-17.19
-21.41
-27.43
-34.84
-42.89
-50.61
-57.08
-61.63
-64.06
-64.69
-64.26
-63.60
-63.26
-63.25
-63.04
-61.87
-59.26
-55.31
-50.67
-46.16
-42.34
-39.26
-36.62
-34.26
-32.46
-31.96
-33.55
-37.75
-44.65
-54.11
-66.02
-80.16
-95.79
-111.09
-123.32
-129.70
-128.89
-121.80
-111.41
-101.18
-93.21
-87.15
-80.44
-69.65
-51.94
-25.99
7.81
47.53
90.02
131.14
166.51
192.62
207.96
213.67
212.97
209.58
206.15
203.32
200.21
195.57
188.86
180.43
170.94
160.44
148.05
132.39
112.41
88.30
61.64
34.98
10.93
-8.68
-23.42
-34.15
-42.65
-50.92
-60.57
-72.35
-85.96
-100.07
-112.52
-120.62
-121.72
-113.99
-97.29
-73.59
-46.66
-20.90
0.10
14.50
22.43
25.33
24.97
22.84
19.86
16.49
12.87
8.78
3.65
-3.43
-13.29
-26.08
-40.88
-55.65
-67.87
-75.35
-77.06
-73.41
-66.04
-57.31
-49.56
-44.48
-42.77
-44.16
-47.76
-52.51
-57.45
-61.88
-65.21
-66.98
-66.80
-64.48
-59.97
-53.35
-44.63
-33.69
-20.42
-4.94
12.16
29.86
46.95
62.52
76.17
88.03
98.34
106.99
113.36
116.63
116.45
113.37
108.95
105.16
103.51
104.48
107.34
110.64
112.88
113.11
111.05
106.90
101.02
93.73
85.28
75.93
66.05
56.11
46.57
37.74
29.74
22.50
15.89
9.93
4.81
0.89
-1.46
-2.07
-1.15
0.70
2.67
4.05
4.53
4.33
4.11
4.62
6.27
8.85
11.50
13.05
12.45
9.30
4.07
-2.11
-7.89
-12.32
-15.20
-17.10
-19.08
-22.23
-27.33
-34.85
-44.90
-57.06
-70.07
-81.51
-88.21
-87.36
-78.06
-62.07
-43.34
-26.05
-12.54
-2.21
7.63
19.40
33.18
46.02
53.44
52.02
41.44
24.71
6.51
-9.11
-20.21
-26.84
-29.95
-30.29
-28.13
-23.65
-17.53
-11.05
-5.49
-1.62
0.48
1.08
0.34
-1.88
-5.49
-9.74
-13.10
-13.93
-11.51
-6.72
-1.77
0.86
-0.30
-4.96
-11.41
-17.53
-21.90
-24.34
-25.77
-27.50
-30.38
-34.48
-39.14
-43.46
-46.86
-49.40
-51.67
-54.40
-57.98
-62.23
-66.54
-70.11
-72.19
-72.16
-69.44
-63.60
-54.60
-43.15
-30.75
-19.33
-10.46
-4.69
-1.29
1.22
4.22
8.31
13.21
18.23
22.95
27.57
32.76
39.10
46.69
55.10
63.68
71.95
79.83
87.48
95.04
102.37
109.04
114.47
118.21
120.07
120.12
118.58
115.68
111.48
105.88
98.63
89.51
78.44
65.75
52.19
38.87
26.98
17.48
10.71
6.34
3.43
0.79
-2.50
-6.80
-11.74
-16.50
-20.22
-22.46
-23.45
-23.93
-24.72
-26.38
-29.02
-32.34
-35.97
-39.50
-42.34
-43.58
-42.11
-37.18
-28.94
-18.66
-8.13
1.22
9.21
16.84
25.56
35.94
46.91
55.85
59.70
56.38
45.66
29.18
9.64
-10.23
-28.39
-43.83
-56.29
-65.94
-73.06
-77.84
-80.18
-80.00
-77.35
-72.61
-66.53
-60.05
-53.91
-48.39
-43.22
-37.86
-31.96
-25.63
-19.50
-14.32
-10.46
-7.68
-5.25
-2.45
0.89
4.19
6.39
6.55
4.48
0.92
-2.73
-4.99
-5.01
-2.87
0.58
4.13
6.75
7.87
7.42
5.75
3.38
0.93
-0.93
-1.56
-0.53
2.20
6.15
10.43
14.04
16.24
16.80
15.92
14.07
11.68
9.02
6.22
3.42
0.82
-1.30
-2.70
-3.35
-3.38
-3.04
-2.54
-1.98
-1.36
-0.69
-0.06
0.32
0.19
-0.61
-2.04
-3.85
-5.74
-7.51
-9.21
-11.11
-13.50
-16.62
-20.48
-24.89
-29.56
-34.21
-38.69
-43.03
-47.41
-52.08
-57.29
-63.11
-69.41
-75.83
-81.80
-86.61
-89.43
-89.43
-85.86
-78.18
-66.27
-50.62
-32.21
-12.40
7.45
26.22
43.16
57.82
69.90
79.15
85.47
88.95
90.10
89.75
88.91
88.50
89.11
90.85
93.40
96.21
98.61
100.06
100.17
98.77
95.87
91.64
86.42
80.63
74.76
69.30
64.66
61.11
58.79
57.63
57.43
57.86
58.45
58.76
58.45
57.43
55.88
54.24
53.01
52.48
52.65
53.15
53.39
52.76
50.76
47.09
41.62
34.35
25.43
15.16
4.00
-7.42
-18.51
-28.78
-37.97
-46.01
-53.01
-59.10
-64.39
-68.91
-72.61
-75.44
-77.32
-78.27
-78.43
-78.01
-77.24
-76.25
-75.07
-73.67
-72.01
-70.17
-68.36
-66.84
-65.77
-65.14
-64.80
-64.56
-64.32
-64.05
-63.73
-63.21
-62.10
-59.85
-55.96
-50.19
-42.81
-34.46
-26.04
-18.34
-11.83
-6.56
-2.35
1.07
3.81
5.88
7.18
7.69
7.52
6.83
5.72
4.17
2.07
-0.60
-3.62
-6.53
-8.73
-9.76
-9.46
-8.04
-5.91
-3.40
-0.65
2.40
5.83
9.54
13.28
16.65
19.37
21.38
22.89
24.21
25.59
27.07
28.46
29.41
29.51
28.34
25.51
20.70
13.70
4.55
-6.38
-18.35
-30.40
-41.44
-50.46
-56.70
-59.73
-59.52
-56.40
-50.97
-44.03
-36.40
-28.81
-21.74
-15.31
-9.33
-3.39
2.88
9.59
16.52
23.16
28.98
33.63
37.04
39.31
40.50
40.57
39.32
36.63
32.56
27.40
21.57
15.37
9.00
2.72
-2.98
-7.28
-9.20
-8.01
-3.67
3.01
10.63
17.61
22.75
25.44
25.64
23.58
19.57
13.90
6.93
-0.74
-8.34
-15.08
-20.39
-24.20
-26.93
-29.30
-32.04
-35.56
-39.81
-44.33
-48.46
-51.60
-53.47
-54.13
-54.00
-53.65
-53.60
-54.15
-55.32
-56.81
-58.09
-58.47
-57.11
-53.14
-45.82
-34.85
-20.62
-4.24
12.70
28.72
43.06
55.93
68.32
81.37
95.63
110.66
125.14
137.51
146.54
151.79
153.41
151.70
146.61
137.44
123.13
102.76
76.26
44.81
10.74
-22.95
-53.35
-78.23
-96.37
-107.51
-112.12
-111.21
-106.22
-98.88
-90.99
-84.01
-78.68
-74.88
-71.95
-69.19
-66.44
-64.12
-62.84
-62.87
-63.67
-64.04
-62.58
-58.34
-51.24
-41.94
-31.44
-20.62
-10.03
-0.03
9.09
16.87
22.92
27.07
29.64
31.42
33.40
36.45
41.07
47.35
55.01
63.63
72.63
81.30
88.75
93.93
95.81
93.60
86.88
75.67
60.34
41.65
20.70
-0.96
-21.48
-38.97
-51.93
-59.65
-62.27
-60.60
-55.76
-48.79
-40.59
-32.02
-23.99
-17.40
-12.91
-10.58
-9.65
-8.55
-5.37
1.58
13.03
28.37
45.60
61.83
74.17
80.68
80.95
76.14
68.34
59.76
51.85
45.07
39.02
32.93
26.14
18.37
9.78
0.75
-8.18
-16.49
-23.68
-29.32
-33.04
-34.53
-33.60
-30.21
-24.50
-16.83
-7.89
1.32
9.48
15.13
16.88
13.73
5.25
-8.26
-25.74
-45.49
-65.39
-83.15
-96.65
-104.32
-105.42
-100.19
-89.81
-76.01
-60.72
-45.59
-31.92
-20.58
-12.18
-7.08
-5.38
-6.80
-10.59
-15.59
-20.38
-23.68
-24.53
-22.59
-17.99
-11.25
-3.02
6.05
15.44
24.76
33.69
42.07
49.85
57.18
64.29
71.34
78.17
83.99
87.40
86.59
79.77
65.76
44.44
16.97
-14.32
-46.36
-75.97
-100.37
-117.80
-127.76
-131.10
-129.66
-125.70
-121.26
-117.61
-115.12
-113.42
-111.65
-108.75
-103.57
-95.10
-82.75
-66.80
-48.48
-29.76
-12.65
1.71
13.52
24.12
35.17
48.07
63.62
82.01
102.47
122.96
139.90
148.60
144.70
126.14
94.62
55.54
16.30
-16.46
-38.97
-50.87
-54.35
-52.24
-46.62
-38.44
-28.01
-15.66
-2.10
11.92
25.99
40.10
54.26
67.85
79.03
85.19
83.86
74.06
57.07
36.24
15.80
-0.63
-11.23
-16.16
-16.95
-15.46
-13.04
-10.35
-7.61
-5.02
-2.97
-1.91
-2.15
-3.59
-5.68
-7.67
-8.83
-8.80
-7.76
-6.37
-5.49
-5.90
-8.02
-11.85
-16.99
-22.80
-28.56
-33.52
-36.94
-38.19
-36.87
-32.97
-26.89
-19.35
-11.16
-2.99
4.79
12.05
18.82
25.10
30.80
