1529418432.00
64.000000
-0.00
-0.00
-0.00
-0.00
-0.00
-0.00
-0.00
-0.00
-0.00
-0.00
0.00
0.01
0.01
-0.00
-0.03
-0.05
-0.05
0.00
0.13
0.36
0.66
1.01
1.37
1.72
2.06
2.40
2.79
3.24
3.80
4.42
5.06
5.66
6.20
6.68
7.15
7.68
8.31
9.14
10.09
11.04
11.88
12.56
13.14
13.76
14.65
15.96
17.91
20.32
22.90
25.38
27.58
29.57
31.68
34.32
37.81
42.54
48.15
54.10
59.83
64.97
69.58
74.14
79.34
85.71
93.76
103.00
112.62
121.73
129.77
136.75
143.30
150.75
157.77
166.64
177.95
191.79
206.97
220.57
228.25
225.36
208.53
176.87
132.76
80.05
23.07
-34.94
-92.44
-149.16
-205.23
-260.37
-313.74
-363.87
-409.83
-450.91
-486.50
-515.74
-537.23
-549.22
-549.96
-538.37
-514.21
-478.67
-433.88
-382.45
-327.02
-269.84
-212.63
-156.66
-102.95
-52.37
-5.90
35.58
71.43
101.35
125.50
144.38
158.69
169.15
176.37
180.75
182.57
182.07
179.51
175.23
169.65
163.18
156.15
148.81
141.30
133.69
126.02
118.33
110.69
103.16
95.80
88.68
81.83
75.25
68.95
62.95
57.25
51.86
46.78
42.03
37.59
33.45
29.61
26.07
22.81
19.83
17.11
14.67
12.48
10.54
8.83
7.35
6.07
4.97
4.05
3.27
2.62
2.09
1.65
1.30
1.01
0.79
0.61
0.47
0.37
0.29
0.23
0.19
0.16
0.14
0.14
0.14
0.16
0.18
0.20
0.23
0.27
0.31
0.35
0.40
0.45
0.50
0.55
0.60
0.66
0.72
0.78
0.85
0.92
1.01
1.11
1.23
1.36
1.47
1.56
1.63
1.67
1.73
1.83
2.01
2.26
2.56
2.90
3.22
3.52
3.80
4.11
4.48
4.95
5.53
6.18
6.83
7.44
7.96
8.42
8.91
9.54
10.37
11.42
12.59
13.74
14.68
15.35
15.78
16.18
16.75
17.62
18.74
19.79
20.30
19.79
18.00
14.96
11.06
6.79
2.61
-1.39
-5.40
-9.86
-15.21
-21.55
-28.52
-35.34
-41.16
-45.37
-47.85
-49.00
-49.56
-50.30
-51.84
-54.65
-58.84
-64.02
-68.93
-71.44
-69.08
-60.05
-44.36
-24.25
-3.66
13.26
23.77
27.49
26.17
22.63
19.20
17.00
15.92
15.34
14.87
14.62
15.05
16.38
18.44
20.63
22.23
22.74
22.05
20.39
18.09
15.35
12.05
7.96
3.01
-2.45
-7.47
-10.77
-11.17
-8.18
-2.28
5.02
11.75
16.18
17.36
15.40
11.31
6.43
1.96
-1.46
-3.67
-5.24
-6.51
-7.65
-8.63
-9.27
-9.43
-9.16
-8.77
-8.73
-9.50
-11.26
-13.88
-16.98
-19.94
-22.21
-23.42
-23.47
-22.54
-21.06
-19.54
-18.52
-18.43
-19.28
-20.52
-20.96
-19.09
-13.56
-3.73
10.04
26.36
43.25
58.76
71.48
80.75
86.64
89.69
90.61
90.16
88.92
87.27
85.37
83.27
81.01
78.68
76.45
74.37
72.37
70.12
67.20
63.33
58.47
52.89
46.93
40.75
34.21
26.90
18.48
8.89
-1.62
-12.64
-23.92
-35.41
-47.20
-59.23
-71.00
-81.67
-90.35
-96.49
-100.21
-102.13
-103.12
-103.78
-104.20
-104.06
-102.80
-100.00
-95.50
-89.45
-82.15
-74.01
-65.42
-56.80
-48.56
-41.04
-34.54
-29.27
-25.32
-22.68
-21.18
-20.50
-20.21
-19.85
-19.13
-17.96
-16.56
-15.40
-14.97
-15.71
-17.88
-21.47
-26.19
-31.27
-35.56
-37.68
-36.32
-30.78
-21.23
-8.70
5.25
19.01
31.45
42.04
50.71
57.63
62.88
66.39
68.18
68.41
67.59
66.33
65.17
64.31
63.51
62.28
60.08
56.73
52.44
47.82
43.47
39.69
36.20
32.21
26.67
18.62
7.55
-6.45
-22.60
-39.38
-54.75
-66.41
-72.42
-71.79
-64.82
-53.20
-39.35
-25.69
-13.88
-4.48
2.84
8.83
14.10
18.82
22.85
25.90
27.83
28.75
28.92
28.61
27.92
26.63
24.27
20.43
14.92
8.08
0.65
-6.35
-12.08
-16.20
-19.01
-21.34
-24.18
-28.38
-34.24
-41.41
-48.85
-55.06
-58.39
-57.50
-51.79
-41.61
-28.24
-13.54
0.61
12.78
22.39
29.51
34.73
38.71
41.96
44.82
47.49
50.11
52.76
55.37
57.61
58.95
58.84
56.94
53.32
48.52
43.43
38.95
35.66
33.50
31.79
29.33
24.74
16.97
5.65
-8.67
-24.52
-39.89
-52.70
-61.34
-65.15
-64.50
-60.60
-54.92
-48.74
-42.74
-37.09
-31.65
-26.41
-21.55
-17.42
-14.25
-11.94
-10.10
-8.27
-6.25
-4.24
-2.73
-2.15
-2.57
-3.59
-4.52
-4.69
-3.78
-1.92
0.33
2.22
2.98
2.00
-1.11
-6.34
-13.18
-20.62
-27.26
-31.66
-32.80
-30.36
-24.80
-17.12
-8.46
0.24
8.38
15.67
21.99
27.20
31.18
33.90
35.51
36.30
36.59
36.52
35.98
34.63
32.05
28.07
22.85
16.93
11.00
5.58
0.77
-3.73
-8.48
-14.10
-20.93
-28.93
-37.53
-45.70
-52.02
-55.04
-53.69
-47.62
-37.39
-24.33
-10.13
3.67
16.05
26.60
35.28
42.14
47.14
50.07
50.79
49.38
46.24
41.95
36.99
31.58
25.54
18.55
10.43
1.55
-7.18
-14.57
-19.63
-22.12
-22.84
-23.36
-25.48
-30.47
-38.44
-48.12
-57.25
-63.24
-64.01
-58.70
-47.81
-33.04
-16.62
-0.65
13.44
25.04
34.21
41.34
46.79
50.77
53.40
54.86
55.43
55.53
55.41
55.10
54.30
52.56
49.63
45.72
41.55
38.15
36.35
36.34
37.50
38.52
37.84
34.19
26.90
16.07
2.50
-12.51
-27.34
-40.30
-49.82
-54.86
-55.08
-51.08
-44.27
-36.41
-29.08
-23.24
-19.05
-16.11
-13.82
-11.67
-9.39
-6.88
-4.09
-0.91
2.66
6.44
9.89
12.23
12.79
11.33
8.30
4.78
2.12
1.35
2.65
5.11
6.93
6.13
1.26
-7.85
-19.91
-32.48
-42.70
-48.17
-47.61
-41.09
-29.85
-15.80
-0.97
12.99
24.95
34.37
41.15
45.43
47.56
48.02
47.48
46.64
46.06
45.97
46.09
45.79
44.29
41.11
36.26
30.29
24.08
18.40
13.65
9.77
6.31
2.69
-1.65
-7.13
-13.92
-21.82
-30.10
-37.52
-42.55
-43.87
-40.87
-33.95
-24.45
-14.13
-4.59
3.14
8.66
12.02
13.38
12.92
10.87
7.74
4.30
1.46
-0.12
-0.29
0.48
1.37
1.63
0.96
-0.41
-1.83
-2.73
-2.87
-2.55
-2.47
-3.41
-6.06
-10.79
-17.55
-25.81
-34.47
-42.00
-46.69
-47.19
-42.95
-34.51
-23.32
-11.31
-0.24
8.68
14.95
18.57
19.75
18.69
15.62
11.03
5.74
0.88
-2.57
-4.13
-4.16
-3.73
-4.18
-6.46
-10.76
-16.39
-22.15
-26.83
-29.71
-30.73
-30.52
-30.09
-30.65
-33.24
-38.40
-45.68
-53.57
-59.59
-61.07
-56.15
-44.53
-27.71
-8.46
10.30
26.48
39.32
49.23
57.14
63.79
69.34
73.43
75.58
75.53
73.50
70.10
66.05
61.88
57.66
53.06
47.54
40.75
32.81
24.38
16.35
9.44
3.87
-0.80
-5.41
-10.79
-17.48
-25.61
-34.99
-45.19
-55.48
-64.75
-71.51
-74.08
-71.20
-62.54
-49.09
-32.96
-16.68
-2.43
8.71
16.87
23.01
28.27
33.30
38.04
41.95
44.45
45.41
45.18
44.48
43.91
43.62
43.23
42.07
39.62
35.80
31.08
26.26
22.09
18.93
16.54
14.29
11.32
6.97
0.95
-6.65
-15.55
-25.41
-35.83
-46.20
-55.45
-62.05
-64.36
-61.27
-52.71
-39.96
-25.23
-11.01
0.82
9.54
15.52
19.78
23.32
26.68
29.78
32.16
33.38
33.25
31.95
29.88
27.54
25.26
23.14
21.07
18.76
15.92
12.32
7.96
3.06
-2.03
-6.94
-11.47
-15.68
-19.83
-24.25
-29.21
-34.82
-41.13
-47.96
-54.90
-61.02
-65.05
-65.59
-61.68
-53.33
-41.67
-28.66
-16.37
-6.22
1.41
7.02
11.52
15.59
19.39
22.70
25.23
26.96
28.24
29.59
31.32
33.34
35.12
35.93
35.24
32.92
29.44
25.61
22.29
20.01
18.79
18.07
17.01
14.68
10.37
3.81
-4.81
-14.71
-24.59
-32.69
-37.24
-36.92
-31.44
-21.81
-10.07
1.29
10.25
15.81
18.16
18.25
17.16
15.53
13.48
10.83
7.54
3.99
0.83
-1.27
-2.08
-1.98
-1.73
-2.17
-3.71
-6.27
-9.25
-11.96
-13.82
-14.58
-14.30
-13.22
-11.69
-10.22
-9.52
-10.40
-13.52
-19.04
-26.31
-33.88
-39.92
-42.76
-41.44
-36.07
-27.60
-17.48
-7.07
2.80
11.89
20.42
28.67
36.68
44.11
50.39
55.02
57.90
59.40
60.13
60.71
61.29
61.55
60.84
58.51
54.30
48.39
41.34
33.81
26.23
18.74
11.16
3.12
-5.81
-16.05
-27.95
-41.59
-56.64
-72.08
-86.24
-97.07
-102.71
-102.14
-95.60
-84.63
-71.57
-58.89
-48.46
-41.28
-37.42
-36.35
-37.27
-39.29
-41.61
-43.47
-44.29
-43.67
-41.51
-37.97
-33.42
-28.28
-22.84
-17.20
-11.26
-4.77
2.44
10.45
19.06
27.73
35.54
41.26
43.80
42.61
38.07
31.44
24.38
18.38
14.30
12.37
12.41
14.28
17.89
23.02
28.97
34.49
38.04
38.48
35.53
29.89
22.86
15.61
8.83
2.56
-3.51
-9.82
-16.63
-24.13
-32.54
-42.29
-53.87
-67.58
-83.03
-98.87
-112.92
-122.92
-127.49
-126.89
-122.80
-117.45
-112.25
-107.09
-100.64
-91.47
-79.15
-64.54
-49.06
-33.54
-17.53
0.33
21.09
44.27
67.62
87.93
102.54
110.54
112.97
112.01
109.79
107.50
105.09
101.84
97.03
90.57
83.17
75.95
70.00
65.82
63.09
60.89
58.13
54.07
48.69
42.63
36.79
31.87
28.01
24.56
20.31
13.84
4.00
-9.65
-26.42
-44.34
-60.43
-71.50
-75.17
-70.83
-60.08
-46.18
-32.87
-23.09
-18.25
-18.05
-21.11
-25.60
-29.72
-32.05
-31.66
-28.33
-22.77
-16.53
-11.46
-8.90
-9.04
-10.72
-11.95
-10.79
-6.06
2.34
13.67
26.73
40.21
52.73
62.86
69.20
70.62
66.54
57.16
43.46
27.09
10.16
-4.97
-15.92
-20.80
-18.77
-10.47
2.07
15.95
28.45
38.02
44.52
49.03
52.89
56.87
60.79
63.80
65.04
64.24
61.96
59.20
56.85
55.18
53.73
51.65
48.24
43.44
37.93
32.86
29.28
27.61
27.37
27.35
26.07
22.20
14.95
4.17
-9.66
-25.51
-41.83
-56.69
-68.08
-74.39
-74.91
-70.09
-61.40
-50.80
-40.11
-30.55
-22.63
-16.38
-11.74
-8.64
-6.98
-6.42
-6.31
-5.84
-4.33
-1.69
1.57
4.40
5.78
5.10
2.53
-1.14
-4.75
-7.39
-8.76
-9.24
-9.82
-11.66
-15.75
-22.61
-32.05
-43.07
-54.00
-62.68
-67.04
-65.73
-58.64
-47.04
-33.15
-19.32
-7.32
2.12
9.09
14.04
17.24
18.65
18.15
15.93
12.73
9.63
7.64
7.19
7.94
8.96
9.23
8.14
5.71
2.48
-0.84
-3.74
-6.13
-8.35
-10.97
-14.52
-19.40
-25.65
-33.01
-40.78
-47.79
-52.47
-53.21
-48.83
-39.04
-24.77
-7.91
9.27
24.80
37.59
47.42
54.71
59.88
63.10
64.13
62.72
59.01
53.76
48.17
43.35
39.76
36.89
33.54
28.38
20.77
11.07
0.56
-9.20
-17.17
-23.20
-28.11
-33.19
-39.66
-48.26
-58.99
-71.00
-82.67
-91.74
-95.83
-93.13
-83.13
-67.05
-47.55
-27.91
-10.92
2.00
10.97
17.14
21.89
26.09
29.84
32.74
34.38
34.76
34.39
33.94
33.86
34.01
33.72
32.14
28.74
23.66
17.67
11.82
6.94
3.30
0.53
-2.11
-5.33
-9.73
-15.59
-23.00
-31.77
-41.27
-50.27
-56.95
-59.34
-55.98
-46.50
-31.90
-14.32
3.67
19.84
32.96
42.89
50.27
55.89
60.16
63.03
64.15
63.34
60.88
57.53
54.15
51.28
48.83
46.11
42.23
36.61
29.30
21.01
12.70
5.19
-1.21
-6.83
-12.37
-18.67
-26.47
-36.15
-47.70
-60.60
-73.86
-85.96
-95.06
-99.37
-97.70
-89.91
-77.02
-60.99
-44.05
-28.02
-13.88
-1.80
8.57
17.64
25.56
32.26
37.60
41.54
44.21
45.79
46.38
45.96
44.44
41.75
38.00
33.42
28.38
23.33
18.69
14.73
11.45
8.54
5.32
0.96
-5.36
-14.18
-25.40
-38.14
-50.67
-60.68
-65.78
-64.34
-55.99
-42.00
-24.90
-7.74
6.93
17.81
25.09
30.01
34.14
38.59
43.64
48.79
53.25
56.46
58.35
59.38
60.13
60.93
61.70
62.07
61.79
61.04
60.29
59.98
60.03
59.57
57.18
51.49
41.74
28.11
11.48
-6.94
-25.97
-44.38
-60.72
-73.09
-79.45
-78.40
-69.86
-55.49
-38.27
-21.53
-7.75
2.13
8.71
13.46
17.80
22.42
27.11
31.16
33.83
34.80
34.26
32.76
30.87
28.91
26.88
24.51
21.52
17.76
13.32
8.44
3.40
-1.58
-6.49
-11.48
-16.86
-22.93
-30.00
-38.31
-48.05
-59.14
-71.07
-82.66
-92.02
-97.04
-96.01
-88.35
-75.05
-58.41
-41.31
-26.20
-14.37
-5.78
0.49
5.57
10.14
14.27
17.60
19.74
20.57
20.36
19.58
18.72
18.02
17.44
16.72
15.54
13.69
11.11
7.96
4.54
1.24
-1.59
-3.67
-4.91
-5.36
-5.28
-5.09
-5.42
-6.95
-10.24
-15.33
-21.50
-27.14
-30.12
-28.52
-21.46
-9.54
5.22
20.18
33.04
42.60
49.00
53.23
56.46
59.36
61.92
63.70
64.28
63.68
62.40
61.20
60.68
60.94
61.52
61.68
60.78
58.70
55.89
53.19
51.37
50.67
50.65
50.33
48.56
44.26
36.61
24.93
8.88
-11.33
-34.55
-58.49
-80.05
-96.14
-104.74
-105.68
-100.69
-92.67
-84.62
-78.61
-75.34
-74.35
-74.52
-74.71
-74.16
-72.51
-69.78
-66.14
-61.82
-57.09
-52.29
-47.85
-44.23
-41.83
-40.76
-40.88
-41.74
-42.78
-43.56
-43.90
-43.88
-43.69
-43.52
-43.39
-43.17
-42.69
-41.82
-40.63
-39.40
-38.54
-38.37
-38.77
-38.89
-37.27
-32.22
-22.52
-8.16
9.51
28.18
45.38
59.41
69.76
77.03
82.28
86.28
89.21
90.66
90.10
87.36
82.81
77.28
71.72
66.79
62.64
58.92
54.97
50.23
44.48
37.97
31.19
24.62
18.48
12.66
6.84
0.74
-5.80
-12.94
-20.91
-30.15
-41.02
-53.36
-66.07
-77.15
-84.15
-85.07
-79.19
-67.36
-51.74
-35.00
-19.36
-6.06
4.66
13.23
20.14
25.57
29.43
31.48
31.81
30.96
29.78
29.15
29.49
30.56
31.50
31.32
29.33
25.58
20.79
16.04
12.21
9.53
7.39
4.62
-0.09
-7.63
-18.14
-30.83
-44.16
-56.07
-64.34
-67.03
-63.01
-52.28
-36.15
-16.95
2.55
19.98
33.96
44.26
51.57
56.87
60.94
64.06
66.13
66.93
66.41
64.80
62.48
59.83
56.92
53.46
48.81
42.27
33.44
22.49
10.30
-1.85
-12.71
-21.53
-28.33
-33.80
-38.97
-44.87
-52.14
-60.90
-70.64
-80.20
-87.85
-91.65
-89.93
-81.91
-68.08
-50.09
-30.32
-11.06
6.09
20.50
32.26
41.82
49.58
55.76
60.41
63.56
65.34
65.87
65.31
63.78
61.36
58.09
53.92
48.64
41.85
33.18
22.52
10.28
-2.61
-14.93
-25.62
-34.24
-41.10
-46.99
-52.88
-59.40
-66.78
-74.74
-82.64
-89.52
-94.21
-95.43
-92.17
-84.07
-71.71
-56.52
-40.46
-25.29
-12.14
-1.33
7.45
14.65
20.51
24.99
27.97
29.53
30.02
29.87
29.26
27.89
25.06
20.00
12.38
2.58
-8.44
-19.50
-29.64
-38.43
-45.95
-52.60
-58.92
-65.43
-72.43
-79.66
-86.05
-89.64
-88.00
-79.06
-62.13
-38.40
-10.60
17.98
44.66
68.14
88.48
106.32
122.05
135.29
145.06
150.46
151.20
147.98
142.19
135.49
129.10
123.48
118.33
112.82
106.18
98.02
88.58
78.62
69.05
60.49
52.94
45.72
37.69
27.60
14.47
-2.04
-21.41
-42.14
-61.77
-77.28
-85.83
-85.66
-76.74
-60.99
-41.64
-22.16
-5.23
7.93
17.42
24.12
28.92
32.28
34.17
34.27
32.28
28.06
21.68
13.32
3.29
-7.99
-19.99
-32.09
-43.73
-54.41
-63.79
-71.66
-77.97
-82.75
-86.14
-88.36
-89.67
-90.27
-90.35
-90.12
-89.79
-89.68
-89.96
-90.43
-90.32
-88.31
-82.92
-73.07
-58.63
-40.54
-20.54
-0.53
17.98
34.12
47.50
57.89
64.96
68.41
68.27
65.27
60.78
56.52
53.84
53.18
53.93
54.75
54.17
51.23
45.79
38.48
30.39
22.56
15.69
9.90
4.75
-0.53
-6.89
-15.07
-25.29
-36.92
-48.40
-57.57
-62.20
-60.77
-53.07
-40.27
-24.55
-8.40
6.11
17.84
26.50
32.45
36.20
38.23
38.85
38.40
37.24
35.76
34.19
32.45
30.12
26.67
21.69
15.18
7.61
-0.31
-7.78
-14.26
-19.57
-23.91
-27.80
-31.96
-37.19
-44.08
-52.68
-62.21
-71.01
-76.91
-77.86
-72.64
-61.27
-45.07
-26.10
-6.49
12.11
28.86
43.51
56.08
66.51
74.51
79.75
82.12
81.98
80.09
77.40
74.64
72.04
69.31
65.90
61.25
55.17
47.87
39.85
31.75
24.09
17.28
11.47
6.55
2.03
-2.98
-9.49
-18.33
-29.58
-42.30
-54.63
-64.33
-69.61
-69.88
-65.96
-59.76
-53.51
-48.89
-46.59
-46.28
-47.07
-47.95
-48.25
-47.58
-45.75
-42.57
-37.79
-31.30
-23.34
-14.67
-6.46
-0.06
3.49
3.88
1.68
-1.76
-4.83
-6.23
-5.53
-3.32
-1.00
-0.25
-2.45
-8.29
-17.50
-28.97
-40.92
-51.22
-57.86
-59.40
-55.36
-46.38
-34.10
-20.64
-7.99
2.47
10.24
15.56
19.01
21.26
22.70
23.52
23.81
23.73
23.53
23.52
23.75
23.95
23.50
21.76
18.45
13.90
8.92
4.57
1.50
-0.25
-1.35
-2.83
-5.73
-10.61
-17.31
-24.84
-31.46
-35.11
-33.96
-27.01
-14.67
1.31
18.33
33.76
45.82
53.94
58.70
61.20
62.53
63.30
63.63
63.45
62.76
61.87
61.28
61.45
62.46
63.89
64.97
64.95
63.62
61.41
59.25
57.95
57.50
56.86
54.18
47.64
36.26
20.35
1.37
-18.67
-37.91
-54.93
-68.80
-78.90
-84.80
-86.43
-84.30
-79.54
-73.64
-67.98
-63.31
-59.60
-56.31
-52.82
-48.93
-44.90
-41.32
-38.64
-36.98
-36.07
-35.52
-35.10
-34.93
-35.37
-36.78
-39.19
-42.22
-45.28
-47.82
-49.65
-50.91
-51.97
-53.25
-55.08
-57.68
-61.14
-65.35
-69.90
-73.95
-76.25
-75.35
-70.01
-59.56
-44.15
-24.76
-3.04
19.19
40.26
59.08
75.20
88.77
100.21
109.84
117.81
124.05
128.53
131.36
132.84
133.30
132.98
131.92
130.12
127.61
124.56
121.25
117.89
114.57
111.25
107.84
104.21
100.17
95.32
88.99
80.36
68.75
54.01
36.76
18.32
0.41
-15.34
-27.89
-36.93
-42.88
-46.49
-48.58
-49.71
-50.17
-50.04
-49.36
-48.30
-47.16
-46.33
-46.15
-46.82
-48.35
-50.54
-53.11
-55.74
-58.18
-60.29
-62.06
-63.58
-64.96
-66.22
-67.30
-68.01
-68.19
-67.76
-66.85
-65.71
-64.67
-64.09
-64.21
-65.08
-66.57
-68.25
-69.42
-69.17
-66.54
-60.80
-51.70
-39.66
-25.69
-11.16
2.61
14.63
24.41
31.94
37.55
41.69
44.82
47.29
49.42
51.37
53.14
54.48
54.94
53.99
51.33
47.04
41.64
35.98
30.89
26.87
23.82
21.07
17.55
12.20
4.50
-5.29
-15.95
-25.72
-32.77
-35.88
-34.96
-30.97
-25.59
-20.52
-16.88
-15.00
-14.50
-14.76
-15.28
-15.86
-16.55
-17.38
-18.16
-18.49
-17.91
-16.20
-13.51
-10.41
-7.72
-6.09
-5.75
-6.43
-7.44
-7.96
-7.47
-5.96
-4.02
-2.76
-3.51
-7.46
-15.16
-26.17
-38.87
-50.62
-58.43
-59.82
-53.76
-40.97
-23.79
-5.25
11.87
25.94
36.70
44.85
51.33
56.69
60.84
63.20
63.32
61.27
57.70
53.57
49.60
45.85
41.74
36.44
29.43
20.94
12.01
4.15
-1.29
-3.69
-3.44
-1.87
-0.81
-2.00
-6.50
-14.35
-24.55
-35.20
-43.90
-48.18
-46.17
-37.13
-21.92
-3.01
16.10
32.04
42.74
48.15
50.05
51.00
53.08
56.99
61.98
66.43
68.83
68.30
64.78
58.75
50.88
41.73
31.78
21.41
11.07
1.22
-7.73
-15.61
-22.66
-29.56
-37.36
-47.24
-59.98
-75.63
-93.12
-110.41
-124.88
-133.99
-136.01
-130.58
-118.76
-102.69
-84.91
-67.46
-51.54
-37.38
-24.84
-13.91
-5.01
1.09
3.87
3.47
0.94
-2.10
-4.11
-4.33
-3.01
-1.30
-0.53
-1.55
-4.35
-8.00
-11.19
-12.83
-12.55
-10.72
-8.25
-6.15
-5.21
-5.76
-7.67
-10.24
-12.31
-12.43
-9.21
-1.89
9.29
22.98
37.20
50.03
60.33
68.06
74.12
79.75
85.90
92.82
99.98
106.39
111.05
113.23
112.70
109.50
103.75
95.35
84.03
69.57
52.09
32.39
11.81
-8.13
-26.35
-42.56
-57.40
-72.01
-87.49
-104.38
-122.33
-140.16
-155.97
-167.47
-172.22
-168.21
-154.37
-131.14
-100.67
-66.33
-31.86
-0.21
27.03
49.67
68.20
82.99
93.93
100.56
102.77
101.20
97.37
93.03
89.37
86.48
83.40
78.82
71.84
62.48
51.63
40.54
30.06
20.25
10.33
-0.79
-13.68
-27.77
-41.08
-50.74
-53.96
-49.12
-36.53
-18.46
1.73
20.69
36.20
47.60
55.49
61.00
64.99
67.65
68.76
68.12
66.00
63.04
59.96
57.03
53.75
49.22
42.63
33.94
23.92
13.85
4.83
-2.68
-9.00
-14.91
-21.15
-28.09
-35.81
-44.26
-53.49
-63.66
-74.71
-86.03
-96.27
-103.51
-105.79
-101.85
-91.67
-76.58
-58.99
-41.51
-26.23
-14.19
-5.36
0.85
5.08
7.71
8.86
8.64
7.39
5.72
4.31
3.63
3.79
4.68
6.11
8.03
10.58
14.00
18.43
23.83
29.82
35.80
40.96
44.38
45.30
43.21
38.22
31.11
23.39
17.00
13.78
14.95
20.68
30.09
41.59
53.45
64.41
73.82
81.61
87.85
92.48
95.24
95.88
94.34
90.98
86.32
80.71
73.97
65.30
53.64
38.20
18.94
-3.20
-26.51
-49.07
-69.36
-86.63
-100.95
-112.88
-123.13
-132.13
-139.94
-146.30
-150.76
-152.90
-152.30
-148.55
-141.34
-130.44
-115.95
-98.40
-78.82
-58.56
-39.05
-21.48
-6.64
5.17
14.07
20.42
24.75
27.53
29.11
29.62
28.98
26.98
23.46
18.50
12.52
6.17
0.09
-5.40
-10.51
-16.02
-22.93
-31.95
-43.10
-55.35
-66.72
-74.75
-77.23
-72.94
-62.11
-46.32
-28.00
-9.67
6.74
20.17
30.41
37.81
42.86
46.09
47.97
48.97
49.55
49.96
50.17
49.83
48.38
45.32
40.50
34.28
27.37
20.68
14.88
10.22
6.38
2.53
-2.34
-9.18
-18.40
-29.54
-41.18
-51.05
-56.66
-56.08
-48.66
-35.24
-17.89
0.82
18.65
34.22
47.11
57.51
65.82
72.29
76.96
79.78
80.77
80.11
78.14
75.21
71.58
67.36
62.53
57.06
50.97
44.44
37.62
30.57
23.08
14.68
4.73
-7.27
-21.41
-37.17
-53.36
-68.27
-79.95
-86.68
-87.41
-82.08
-71.69
-57.98
-43.04
-28.74
-16.39
-6.57
0.72
5.90
9.53
12.17
14.25
16.08
17.76
19.23
20.31
20.70
20.12
18.38
15.48
11.64
7.23
2.73
-1.54
-5.56
-9.66
-14.45
-20.44
-27.71
-35.56
-42.61
-47.01
-47.07
-41.89
-31.66
-17.61
-1.65
14.29
28.69
40.70
50.06
56.82
61.16
63.24
63.27
61.64
58.96
56.01
53.51
51.77
50.53
49.02
46.28
41.60
34.87
26.56
17.46
8.32
-0.68
-9.90
-20.08
-31.87
-45.33
-59.50
-72.46
-81.78
-85.21
-81.52
-71.04
-55.65
-38.21
-21.60
-7.81
2.46
9.70
14.92
19.05
22.49
25.06
26.18
25.13
21.28
14.19
3.73
-9.78
-25.38
-41.54
-56.44
-68.51
-76.95
-82.02
-84.86
-87.09
-90.18
-94.95
-101.22
-107.73
-112.41
-112.78
-106.76
-93.37
-73.19
-48.34
-21.83
3.38
25.23
43.00
57.10
68.50
78.27
87.13
95.40
103.03
109.54
114.13
115.80
113.69
107.50
97.72
85.74
73.42
62.59
54.43
49.09
45.68
42.59
37.90
29.91
17.62
0.99
-18.69
-38.90
-56.23
-67.19
-69.39
-62.35
-47.88
-29.50
-11.20
3.95
14.63
21.22
25.01
27.24
28.45
28.58
27.42
24.97
21.56
17.48
12.69
6.76
-0.78
-9.99
-20.13
-29.91
-37.94
-43.34
-46.11
-47.07
-47.58
-49.11
-52.95
-59.98
-70.38
-83.27
-96.60
-107.39
-112.52
-109.83
-98.98
-81.68
-60.97
-40.13
-21.36
-5.32
8.61
21.48
33.89
45.55
55.43
62.48
66.34
67.67
68.00
69.08
72.04
76.92
82.64
87.57
90.29
90.30
88.11
84.87
81.70
79.09
76.65
73.37
68.00
59.57
47.73
32.92
16.55
0.80
-11.66
-18.39
-17.99
-10.64
1.82
16.54
30.60
41.98
49.94
54.79
57.32
58.18
57.57
55.45
51.90
47.42
42.88
39.15
36.70
35.22
33.73
31.02
26.28
19.53
11.67
4.07
-2.12
-6.51
-9.67
-12.86
-17.41
-24.22
-33.53
-44.94
-57.62
-70.43
-81.90
-90.27
-93.75
-91.05
-81.92
-67.52
-50.13
-32.46
-16.78
-4.28
4.92
11.41
15.81
18.54
19.79
19.82
19.07
18.16
17.55
17.23
16.79
15.53
13.01
9.27
4.84
0.48
-3.33
-6.63
-10.06
-14.58
-21.08
-30.02
-41.04
-52.90
-63.56
-70.57
-71.79
-66.09
-53.85
-37.04
-18.66
-1.86
11.00
18.88
22.01
21.36
18.03
12.85
6.35
-1.05
-8.72
-15.83
-21.63
-25.78
-28.53
-30.63
-32.95
-35.97
-39.53
-42.86
-44.95
-45.03
-42.95
-39.29
-35.29
-32.44
-32.07
-34.84
-40.32
-46.88
-51.90
-52.58
-46.84
-34.22
-16.07
4.82
25.23
42.61
55.73
64.69
70.46
74.09
76.23
77.15
76.91
75.78
74.35
73.27
72.87
72.88
72.42
70.33
65.72
58.44
49.18
39.19
29.76
21.74
15.13
9.22
2.86
-5.12
-15.51
-28.34
-42.71
-56.82
-68.14
-74.11
-72.89
-64.12
-49.26
-31.17
-13.17
2.08
13.35
20.93
26.01
29.74
32.60
34.32
34.36
32.58
29.58
26.53
24.62
24.37
25.30
26.12
25.33
22.00
16.22
9.02
1.88
-4.02
-8.27
-11.35
-14.33
-18.31
-24.04
-31.64
-40.67
-50.15
-58.59
-64.18
-65.08
-59.91
-48.33
-31.35
-11.17
9.45
28.07
43.14
54.27
61.76
66.20
68.04
67.54
65.03
61.10
56.64
52.53
49.30
46.95
44.93
42.54
39.26
35.11
30.53
26.14
22.32
18.99
15.54
11.14
4.96
-3.40
-13.65
-24.68
-34.69
-41.57
-43.59
-40.07
-31.71
-20.54
-9.17
0.04
5.72
7.67
6.59
3.43
-1.07
-6.49
-12.53
-18.75
-24.47
-29.05
-32.20
-34.22
-35.99
-38.59
-42.75
-48.53
-55.21
-61.71
-67.03
-70.73
-73.04
-74.83
-77.23
-81.36
-87.98
-97.10
-107.67
-117.45
-123.40
-122.54
-113.12
-95.49
-72.15
-46.96
-23.64
-4.65
9.36
19.13
25.91
30.63
33.64
35.01
34.90
33.92
32.84
32.23
32.04
31.60
29.90
26.25
20.71
14.20
8.21
4.11
2.51
2.94
3.98
3.79
0.73
-6.04
-16.30
-28.60
-40.55
-49.34
-52.39
-48.12
-36.45
-18.88
2.03
23.48
43.27
60.24
74.26
85.78
95.34
103.24
109.48
113.97
116.63
117.49
116.53
113.70
108.83
101.73
92.31
80.79
67.77
54.20
41.14
29.54
19.87
11.94
4.87
-2.57
-11.62
-23.08
-37.04
-52.68
-68.35
-81.79
-90.70
-93.27
-88.79
-77.93
-62.67
-45.69
-29.53
-15.98
-5.80
1.13
5.30
7.26
7.38
6.10
4.03
2.06
1.03
1.34
2.67
3.98
3.94
1.57
-3.29
-9.90
-16.95
-23.22
-28.08
-31.73
-35.11
-39.41
-45.76
-54.78
-66.28
-79.02
-90.69
-98.32
-99.12
-91.40
-75.34
-53.05
-27.82
-3.06
18.72
36.31
49.50
58.59
63.83
65.41
63.70
59.50
53.98
48.34
43.28
38.81
34.30
28.97
22.47
15.11
7.73
1.25
-3.88
-7.98
-12.09
-17.58
-25.71
-37.09
-51.24
-66.50
-80.20
-89.30
-91.18
-84.53
-69.86
-49.40
-26.34
-3.87
15.75
31.60
43.84
53.20
60.33
65.57
68.96
70.58
70.70
69.81
68.30
66.27
63.32
58.78
52.16
43.55
33.73
23.96
15.31
8.25
2.33
-3.61
-10.93
-20.63
-33.04
-47.72
-63.35
-78.04
-89.51
-95.68
-95.17
-87.89
-75.13
-59.21
-42.74
-27.69
-14.94
-4.34
4.75
12.87
20.03
25.89
30.09
32.67
34.18
35.39
36.88
38.63
40.06
40.25
38.55
34.91
29.93
24.64
20.02
16.55
13.97
11.43
7.71
1.67
-7.36
-19.21
-32.52
-44.97
-53.64
-55.95
-50.60
-38.14
-20.85
-1.88
15.91
30.82
42.63
52.11
60.17
67.15
72.62
75.76
75.98
73.36
68.78
63.38
58.12
53.24
48.23
42.19
34.31
24.44
13.20
1.82
-8.42
-16.71
-23.10
-28.46
-34.15
-41.47
-51.27
-63.60
-77.75
-92.25
-105.08
-113.94
-116.72
-112.04
-99.78
-81.37
-59.54
-37.59
-18.37
-3.48
7.12
14.70
20.94
27.21
33.94
40.73
46.77
51.35
54.19
55.47
55.61
54.94
53.49
51.02
47.18
41.76
34.85
26.91
18.73
11.16
4.89
0.15
-3.43
-6.69
-10.66
-16.22
-23.85
-33.59
-44.95
-56.93
-67.99
-76.18
-79.56
-76.78
-67.76
-53.83
-37.47
-21.44
-7.86
2.33
9.33
13.93
16.96
18.87
19.78
19.84
19.33
18.68
18.23
17.95
17.42
15.95
12.93
8.17
1.96
-5.00
-11.84
-17.87
-22.77
-26.74
-30.34
-34.41
-39.68
-46.46
-54.33
-62.02
-67.61
-69.07
-64.99
-55.07
-40.28
-22.43
-3.51
14.96
32.19
47.92
61.87
73.35
81.26
84.45
82.43
75.77
66.09
55.55
46.06
38.66
33.31
29.15
24.97
19.89
13.64
6.57
-0.62
-7.25
-13.01
-18.02
-22.76
-27.85
-33.93
-41.50
-50.77
-61.42
-72.45
-82.03
-87.80
-87.47
-79.56
-64.04
-42.42
-17.45
7.70
30.33
48.76
62.46
71.76
77.47
80.40
81.19
80.34
78.25
75.36
72.10
68.74
65.26
61.27
56.14
49.25
40.32
29.60
17.84
6.05
-4.90
-14.62
-23.29
-31.67
-40.66
-51.02
-62.96
-75.83
-88.07
-97.45
-101.57
-98.60
-88.00
-70.77
-49.24
-26.33
-4.58
14.50
30.55
43.95
55.22
64.55
71.75
76.55
79.06
79.88
80.07
80.74
82.57
85.60
89.08
91.83
92.65
90.82
86.42
80.23
73.37
66.77
60.75
54.88
48.19
39.63
28.45
14.53
-1.60
-18.66
-34.73
-47.60
-55.16
-56.04
-50.19
-38.97
-24.93
-10.91
0.77
8.98
13.89
16.60
18.41
20.34
22.73
25.46
28.26
30.97
33.65
36.49
39.39
41.87
43.11
42.18
38.57
32.41
24.50
15.91
7.52
-0.41
-8.27
-16.87
-27.05
-39.34
-53.62
-69.05
-83.95
-95.99
-102.65
-101.85
-92.70
-75.83
-53.29
-27.99
-3.08
18.54
34.62
43.77
45.57
40.61
30.27
16.42
0.98
-14.40
-28.35
-39.75
-47.70
-51.87
-52.74
-51.76
-51.08
-52.69
-57.60
-65.36
-74.31
-82.34
-87.81
-90.35
-90.89
-91.22
-92.99
-96.61
-100.73
-102.51
-98.82
-87.66
-69.21
-45.93
-21.58
0.29
17.63
30.27
39.45
46.91
53.84
60.59
66.76
71.71
75.12
77.08
78.02
78.38
78.25
77.14
74.16
68.51
59.84
48.62
36.06
23.65
12.72
3.87
-3.06
-8.94
-14.95
-22.26
-31.69
-43.42
-56.67
-69.71
-80.04
-85.02
-82.70
-72.57
-55.85
-35.10
-13.35
6.82
24.03
38.05
49.45
58.91
66.78
72.98
77.23
79.36
79.55
78.26
76.07
73.41
70.38
66.77
62.21
56.38
49.17
40.69
31.33
21.62
12.10
3.25
-4.62
-11.49
-17.58
-23.45
-29.85
-37.59
-47.19
-58.41
-69.96
-79.53
-84.37
-82.22
-72.29
-55.81
-35.70
-15.60
1.43
13.83
21.78
26.61
29.88
32.61
34.96
36.53
36.90
36.04
34.43
32.85
31.94
31.86
32.13
31.94
30.49
27.44
23.01
17.90
12.94
8.62
4.91
1.30
-3.04
-8.89
-16.82
-26.95
-38.91
-51.62
-63.30
-71.66
-74.45
-70.17
-58.74
-41.65
-21.59
-1.51
16.21
30.30
40.61
47.60
51.95
54.14
54.51
53.39
51.24
48.62
46.13
44.16
42.71
41.44
39.67
36.72
32.11
25.84
18.43
10.74
3.58
-2.61
-7.96
-13.05
-18.66
-25.48
-33.91
-44.06
-55.63
-67.81
-79.12
-87.51
-90.76
-87.24
-76.59
-60.08
-40.18
-19.81
-1.31
14.04
26.02
34.89
40.99
44.38
45.02
43.20
39.66
35.62
32.27
30.34
29.76
29.69
28.88
26.24
21.33
14.55
6.93
-0.32
-6.35
-11.06
-15.04
-19.44
-25.43
-33.84
-44.77
-57.48
-70.36
-81.15
-87.41
-87.18
-79.75
-65.93
-47.98
-28.84
-11.23
3.18
13.93
21.51
26.61
29.74
31.06
30.67
28.99
26.86
25.27
24.82
25.36
25.96
25.31
22.37
16.94
9.80
2.35
-4.00
-8.47
-11.25
-13.35
-16.24
-21.35
-29.57
-41.01
-54.76
-68.91
-80.89
-87.95
-87.95
-80.07
-65.16
-45.53
-24.20
-3.92
13.54
27.59
38.47
46.67
52.42
55.70
56.42
54.84
51.79
48.43
45.88
44.65
44.38
43.95
42.03
37.70
30.98
22.86
14.79
8.06
3.10
-0.63
-4.43
-9.73
-17.64
-28.47
-41.68
-55.88
-68.99
-78.59
-82.45
-79.21
-68.93
-53.23
-34.72
-16.28
-0.14
12.55
21.58
27.33
30.23
30.60
28.79
25.35
21.10
16.92
13.31
10.14
6.69
1.96
-4.73
-13.30
-22.79
-31.65
-38.33
-41.83
-42.08
-39.84
-36.41
-33.15
-31.17
-31.10
-32.99
-36.23
-39.57
-41.28
-39.50
-32.87
-20.82
-3.85
16.88
40.02
64.49
89.29
112.98
133.25
147.03
151.47
145.35
130.08
109.56
88.79
71.94
60.75
54.03
48.46
40.04
25.69
4.37
-22.68
-52.45
-81.18
-105.64
-124.19
-137.20
-146.48
-154.09
-160.89
-165.92
-166.82
-161.04
-147.39
-126.75
-101.84
-76.07
-52.32
-32.18
-15.77
-2.32
9.19
19.46
28.77
37.16
44.65
51.37
57.47
62.98
67.58
70.66
71.47
69.51
64.87
58.25
50.80
43.57
37.04
30.76
23.38
13.00
-1.93
-21.79
-45.20
-69.01
-89.09
-101.64
-104.54
-97.97
-84.38
-67.44
-50.77
-36.89
-26.83
-20.35
-16.68
-15.02
-14.78
-15.47
-16.40
-16.61
-15.08
-11.23
-5.28
1.57
7.63
11.35
12.05
10.14
6.75
3.08
-0.34
-3.92
-8.76
-15.90
-25.51
-36.44
-46.27
-52.06
-51.41
-43.38
-28.86
-10.19
9.75
28.70
45.59
60.53
74.17
86.88
98.34
107.74
114.32
117.97
119.41
119.76
119.92
119.93
118.87
115.22
107.60
95.50
79.65
61.83
44.32
29.02
16.85
7.49
-0.44
-8.71
-18.93
-31.77
-46.72
-61.90
-74.44
-81.24
-79.84
-69.47
-51.36
-28.53
-4.80
16.58
33.88
47.17
57.69
66.87
75.34
82.73
88.06
90.56
90.31
88.28
85.86
83.97
82.61
80.90
77.68
72.32
65.05
56.83
48.70
41.11
33.69
25.37
14.98
1.57
-15.35
-35.94
-59.98
-86.64
-114.03
-139.21
-158.60
-169.16
-169.62
-161.12
-146.77
-130.16
-113.65
-97.45
-79.88
-58.91
-33.65
-5.29
23.47
49.69
71.62
89.23
103.58
115.71
125.69
132.50
134.59
130.90
121.42
107.15
89.63
70.39
50.68
31.47
13.51
-2.74
-17.16
-30.20
-42.68
-55.30
-67.98
-79.45
-87.51
-89.78
-84.78
-72.71
-55.46
-35.94
-17.02
-0.68
12.39
22.50
30.36
36.52
41.05
43.69
44.22
42.74
39.82
36.33
32.98
30.00
26.90
22.80
16.94
9.25
0.60
-7.50
-13.59
-17.04
-18.42
-19.31
-21.65
-27.00
-35.98
-48.07
-61.65
-74.44
-83.92
-87.98
-85.42
-76.38
-62.28
-45.40
-28.13
-12.21
1.54
13.18
23.11
31.63
38.68
44.02
47.54
49.53
50.53
51.13
51.55
51.57
50.63
48.27
44.40
39.42
33.96
28.56
23.37
18.02
11.72
3.57
-7.17
-20.84
-37.13
-54.94
-72.40
-87.05
-96.52
-99.17
-94.78
-84.61
-71.01
-56.49
-42.92
-31.07
-20.75
-11.42
-2.73
5.20
11.92
17.09
20.83
23.69
26.42
29.48
32.73
35.49
36.89
36.30
33.77
29.95
25.86
22.28
19.44
16.78
13.21
7.57
-1.00
-12.58
-26.42
-40.90
-53.76
-62.53
-65.13
-60.55
-49.29
-33.32
-15.46
1.51
15.77
26.81
35.20
41.93
47.71
52.58
56.10
57.75
57.38
55.39
52.53
49.50
46.60
43.63
40.04
35.32
29.29
22.26
14.94
8.09
2.17
-2.89
-7.65
-13.02
-19.89
-28.84
-40.00
-52.87
-66.31
-78.63
-87.76
-91.67
-88.94
-79.28
-63.77
-44.66
-24.78
-6.62
8.29
19.63
28.11
34.78
40.52
45.68
50.10
53.38
55.30
55.97
55.86
55.49
55.13
54.59
53.29
50.62
46.32
40.69
34.51
28.69
23.85
19.99
16.55
12.72
7.78
1.41
-6.35
-15.17
-24.52
-33.64
-41.37
-46.22
-46.66
-41.67
-31.32
-16.86
-0.45
15.59
29.60
40.97
50.02
57.55
64.11
69.75
74.06
76.56
77.12
76.10
74.17
71.98
69.67
66.86
62.80
56.79
48.72
39.15
29.26
20.28
13.03
7.52
3.04
-1.56
-7.46
-15.51
-26.17
-39.28
-54.02
-68.76
-81.20
-88.83
-89.62
-82.79
-69.11
-50.68
-30.25
-10.26
7.70
23.03
35.77
46.15
54.21
59.85
63.05
64.12
63.87
63.46
64.04
66.32
70.22
74.65
77.92
78.27
74.60
66.96
56.48
44.90
33.80
24.02
15.56
7.74
-0.33
-9.48
-20.33
-33.25
-48.18
-64.28
-79.73
-91.87
-98.06
-96.68
-88.05
-74.46
-59.40
-46.25
-37.04
-31.97
-29.77
-28.65
-27.31
-25.36
-23.23
-21.62
-20.99
-21.29
-22.00
-22.53
-22.51
-22.09
-21.80
-22.32
-24.11
-27.20
-31.19
-35.47
-39.47
-42.99
-46.21
-49.59
-53.69
-59.02
-65.98
-74.80
-85.38
-97.01
-108.07
-116.17
-118.65
-113.48
-100.19
-80.23
-56.59
-32.78
-11.64
5.41
18.51
28.80
37.49
45.29
52.06
57.16
59.87
59.92
57.61
53.71
49.14
44.54
40.10
35.49
30.11
23.38
15.07
5.50
-4.60
-14.31
-22.89
-30.02
-35.87
-40.96
-46.01
-51.68
-58.49
-66.65
-75.91
-85.43
-93.65
-98.56
-98.23
-91.60
-78.97
-62.10
-43.61
-26.12
-11.42
-0.15
7.94
13.40
16.73
18.09
17.67
15.93
13.68
11.83
10.92
10.77
10.43
8.66
4.56
-2.00
-10.21
-18.67
-26.03
-31.49
-35.07
-37.51
-39.94
-43.47
-48.95
-56.69
-66.27
-76.34
-84.64
-88.44
-85.33
-74.16
-55.68
-32.48
-8.21
13.73
31.27
44.14
53.50
60.95
67.59
73.54
78.10
80.42
80.14
77.70
74.14
70.56
67.63
65.27
62.80
59.35
54.34
47.71
39.86
31.35
22.48
13.15
2.82
-9.07
-22.92
-38.78
-56.49
-75.68
-95.73
-115.40
-132.55
-144.17
-147.02
-138.64
-118.40
-87.87
-50.44
-10.21
29.16
65.23
96.68
122.77
142.71
155.32
159.40
154.27
140.38
119.48
94.39
68.43
44.80
26.09
14.10
9.67
12.67
21.93
35.26
49.83
62.60
70.96
73.14
68.44
56.99
39.55
17.27
-8.24
-34.64
-58.85
-77.39
-87.19
-86.60
-76.09
-58.21
-36.78
-15.57
2.82
17.51
29.04
38.53
46.84
54.07
59.68
63.02
63.76
62.22
59.26
55.88
52.91
50.66
48.82
46.68
43.38
38.38
31.72
24.02
16.29
9.37
3.57
-1.55
-6.95
-13.78
-22.87
-34.42
-47.94
-62.19
-75.35
-85.17
-89.39
-86.23
-75.00
-56.62
-33.63
-9.62
11.75
27.90
37.93
42.65
43.89
43.60
43.18
43.31
44.19
45.88
48.36
51.22
53.28
52.50
46.63
34.10
14.98
-8.66
-33.18
-54.47
-69.11
-75.42
-73.81
-66.51
-56.83
-48.15
-43.09
-42.90
-47.33
-54.93
-63.59
-71.20
-76.10
-77.38
-74.84
-68.80
-59.76
-48.06
-33.69
-16.41
3.75
25.88
48.01
67.40
81.45
88.74
89.42
84.98
77.26
67.41
55.49
40.67
22.36
1.07
-21.23
-41.63
-57.50
-67.62
-72.67
-74.93
-77.21
-81.79
-89.59
-99.99
-111.00
-119.88
-123.69
-120.01
-107.57
-86.78
-59.79
-29.88
-0.48
25.97
48.56
67.67
84.09
98.06
108.93
115.52
116.99
113.63
107.02
99.39
92.69
87.81
84.25
80.57
75.23
67.32
57.02
45.43
33.99
23.77
15.04
7.18
-0.88
-10.19
-21.45
-34.77
-49.76
-65.42
-80.12
-91.59
-97.24
-94.84
-83.35
-63.59
-38.27
-11.19
13.83
34.17
48.90
58.66
64.95
69.22
72.31
74.33
74.98
73.96
71.36
67.69
63.68
59.90
56.49
53.09
49.11
44.09
37.95
31.09
24.09
17.48
11.41
5.63
-0.35
-7.04
-14.77
-23.65
-33.72
-45.02
-57.47
-70.46
-82.61
-91.66
-95.09
-91.04
-79.21
-61.27
-40.39
-20.09
-3.05
9.63
18.41
24.56
29.21
32.84
35.31
36.28
35.84
34.53
33.13
32.18
31.59
30.64
28.37
24.15
18.08
11.06
4.34
-1.03
-4.76
-7.44
-10.35
-14.92
-22.24
-32.64
-45.50
-59.14
-71.11
-78.66
-79.53
-72.74
-59.03
-40.77
-21.24
-3.52
10.49
20.44
27.15
31.77
35.06
37.00
37.13
35.15
31.40
26.93
22.93
20.22
18.63
17.06
13.96
8.06
-0.96
-12.26
-24.12
-34.67
-42.63
-47.77
-50.99
-53.85
-58.04
-64.82
-74.54
-86.50
-98.95
-109.39
-115.10
-113.91
-104.99
-89.19
-68.88
-47.13
-26.59
-8.64
6.72
20.43
33.39
45.82
57.08
66.02
71.82
74.39
74.44
73.11
71.30
69.30
66.77
63.13
58.13
52.16
46.17
41.17
37.65
35.24
32.74
28.71
22.00
12.26
-0.08
-13.92
-27.81
-40.12
-49.20
-53.57
-52.33
-45.51
-34.30
-20.78
-7.28
4.41
13.58
20.49
25.90
30.35
33.83
35.89
36.12
34.58
31.90
28.94
26.38
24.27
22.13
19.28
15.33
10.43
5.21
0.49
-3.26
-6.08
-8.69
-12.17
-17.62
-25.78
-36.66
-49.22
-61.42
-70.60
-74.13
-70.22
-58.65
-40.88
-19.71
1.65
20.62
35.90
47.66
57.04
65.35
73.39
81.12
87.90
92.94
95.77
96.41
95.27
92.81
89.23
84.46
78.36
71.11
63.29
55.85
49.62
44.77
40.58
35.50
27.75
15.89
-0.71
-21.79
-46.28
-72.36
-97.55
-118.76
-132.77
-137.07
-130.85
-115.62
-94.90
-73.04
-53.65
-38.31
-26.46
-16.10
-5.28
6.81
19.50
31.09
39.63
43.69
42.70
37.14
28.48
19.10
11.90
9.62
13.92
24.72
39.93
56.14
69.70
77.89
79.62
75.37
66.58
54.80
41.20
26.34
10.29
-7.14
-26.10
-46.30
-66.63
-85.08
-99.05
-106.12
-104.98
-96.09
-81.63
-64.72
-48.42
-34.77
-24.46
-17.05
-11.63
-7.38
-3.93
-1.27
0.50
1.38
1.51
1.22
0.83
0.52
0.26
-0.14
-0.91
-2.22
-3.99
-5.92
-7.63
-8.80
-9.37
-9.60
-9.98
-11.05
-13.38
-17.42
-23.56
-31.96
-42.33
-53.58
-63.67
-69.85
-69.41
-60.67
-43.77
-20.89
4.37
28.14
47.60
61.68
71.10
77.61
82.91
87.94
92.63
96.31
98.32
98.54
97.48
96.03
94.97
94.48
94.11
92.94
90.02
84.69
76.80
66.64
54.73
41.59
27.55
12.79
-2.67
-18.87
-35.95
-54.15
-73.83
-95.02
-117.07
-138.19
-155.41
-165.27
-165.01
-153.65
-132.69
-105.62
-76.83
-50.10
-27.62
-9.76
4.33
15.87
25.69
34.05
40.79
45.72
48.84
50.41
50.83
50.47
49.59
48.32
46.67
44.58
41.95
38.66
34.65
29.88
24.33
17.97
10.81
3.00
-5.16
-13.23
-20.90
-28.14
-35.47
-43.73
-53.66
-65.20
-76.96
-86.25
-89.85
-85.25
-71.72
-50.81
-25.88
-1.03
20.30
36.16
46.41
52.27
55.53
57.87
60.46
63.86
68.17
73.06
77.95
81.97
84.13
83.51
79.63
72.75
63.84
54.35
45.53
37.93
31.09
23.84
14.89
3.58
-9.81
-24.23
-38.25
-50.60
-60.46
-67.56
-72.12
-74.93
-77.22
-80.42
-85.59
-92.69
-100.19
-105.32
-105.06
-97.46
-82.59
-62.64
-41.06
-21.20
-5.17
6.61
15.03
21.38
26.57
30.75
33.55
34.56
33.77
31.71
29.22
27.00
25.22
23.51
21.10
17.38
12.23
6.11
-0.09
-5.53
-9.78
-12.94
-15.56
-18.26
-21.45
-25.21
-29.46
-34.22
-39.72
-46.27
-53.79
-61.42
-67.35
-69.33
-65.44
-54.91
-38.57
-18.64
1.99
20.62
35.40
45.59
51.42
53.78
53.85
52.86
51.86
51.57
52.25
53.73
55.59
57.39
58.82
59.80
60.40
60.72
60.83
60.66
60.01
58.65
56.33
52.92
48.51
43.43
38.20
33.31
28.99
25.07
20.91
15.60
8.26
-1.56
-13.46
-26.03
-36.95
-43.58
-43.76
-36.66
-23.17
-5.61
13.04
30.17
44.25
54.89
62.44
67.42
70.10
70.61
69.20
66.51
63.51
61.04
59.39
58.03
55.87
51.75
45.06
36.08
25.86
15.75
6.84
-0.50
-6.69
-12.63
-19.19
-26.77
-35.16
-43.72
-51.80
-59.12
-65.93
-72.92
-80.86
-90.44
-101.89
-115.00
-128.94
-142.20
-152.61
-157.69
-155.30
-144.38
-125.58
-101.20
-74.52
-48.85
-26.42
-8.03
6.80
19.10
29.78
39.17
47.07
53.16
57.29
59.72
60.94
61.45
61.51
61.03
59.76
57.65
54.87
51.92
49.33
47.28
45.51
43.30
39.83
34.60
27.72
19.93
12.27
5.63
0.42
-3.66
-7.50
-12.31
-19.28
-29.10
-41.63
-55.68
-69.07
-79.06
-83.10
-79.60
-68.58
-51.70
-31.81
-12.06
5.00
17.91
26.47
31.25
33.26
33.40
32.37
30.60
28.30
25.60
22.59
19.42
16.34
13.60
11.36
9.50
7.59
5.02
1.21
-4.06
-10.60
-17.81
-25.08
-32.04
-38.71
-45.55
-53.17
-62.11
-72.67
-84.73
-97.61
-109.92
-119.58
-124.19
-121.76
-111.45
-94.17
-72.44
-49.62
-28.79
-11.80
1.08
10.85
19.03
26.87
34.98
43.23
51.05
57.73
62.65
65.46
66.12
64.91
62.37
59.18
55.99
53.33
51.43
50.16
49.07
47.43
44.47
39.69
33.02
24.92
16.19
7.57
-0.56
-8.44
-16.89
-27.10
-40.00
-55.75
-73.20
-89.81
-102.13
-106.82
-101.83
-87.30
-65.62
-40.61
-16.24
4.57
20.61
32.17
40.36
46.45
51.43
55.96
60.48
65.27
70.33
75.33
79.58
82.24
82.66
80.57
76.25
70.41
64.00
57.92
52.74
48.50
44.67
40.31
34.48
26.61
16.79
5.79
-5.25
-15.29
-23.92
-31.54
-39.32
-48.80
-61.33
-77.40
-96.15
-115.28
-131.48
-141.34
-142.41
-134.00
-117.42
-95.45
-71.39
-48.16
-27.61
-10.49
3.30
14.31
23.18
30.56
37.00
42.95
48.70
54.28
59.52
64.17
67.98
70.88
72.90
74.15
74.66
74.35
72.99
70.30
66.05
60.12
52.61
43.85
34.28
24.34
14.33
4.24
-6.28
-17.77
-30.75
-45.21
-60.19
-73.70
-83.07
-85.80
-80.46
-67.45
-48.87
-27.93
-7.76
9.52
23.31
34.19
43.22
51.20
58.18
63.67
67.03
67.95
66.73
64.14
61.10
58.29
55.88
53.42
50.14
45.20
38.09
28.81
17.88
6.08
-5.75
-17.07
-27.70
-37.79
-47.74
-58.08
-69.21
-81.26
-93.75
-105.38
-114.03
-117.29
-113.15
-100.95
-81.80
-58.42
-34.27
-12.39
5.43
19.03
29.43
38.03
45.84
53.12
59.51
64.43
67.55
68.87
68.70
67.34
64.95
61.52
56.99
51.40
44.94
37.91
30.66
23.44
16.43
9.65
3.06
-3.41
-9.83
-16.22
-22.66
-29.34
-36.57
-44.51
-52.80
-60.28
-65.03
-65.01
-58.89
-46.76
-30.34
-12.27
4.85
19.42
31.22
40.95
49.58
57.52
64.47
69.60
72.13
71.87
69.27
65.26
60.65
55.75
50.17
43.01
33.47
21.28
7.02
-8.03
-22.36
-34.83
-45.06
-53.49
-61.12
-69.05
-78.10
-88.57
-100.11
-111.82
-122.37
-130.20
-133.95
-132.77
-126.66
-116.51
-103.96
-90.87
-78.82
-68.60
-60.17
-52.92
-46.26
-40.06
-34.90
-31.82
-31.68
-34.66
-39.95
-46.03
-51.15
-53.86
-53.29
-49.13
-41.66
-31.64
-20.41
-9.57
-0.57
5.95
10.57
14.75
20.15
27.83
38.03
50.41
64.33
78.53
90.51
96.50
92.52
76.54
50.48
20.61
-4.45
-17.33
-15.04
0.00
21.62
43.13
60.22
71.81
79.09
83.68
86.33
86.89
85.04
80.85
74.76
67.13
57.77
46.17
32.20
16.77
1.96
-9.73
-16.50
-18.15
-16.19
-13.14
-11.37
-12.31
-16.13
-21.95
-28.28
-33.37
-35.45
-33.09
-25.74
-14.12
-0.23
13.34
24.67
33.48
41.50
51.52
65.76
84.25
104.21
120.84
129.26
126.63
113.42
93.11
70.48
49.49
31.78
16.56
1.79
-14.08
-30.86
-46.58
-58.44
-64.22
-63.35
-57.00
-47.39
-37.02
-28.06
-22.10
-20.35
-23.36
-30.79
-40.97
-51.03
-57.63
-58.13
-51.62
-39.09
-22.95
-5.90
10.00
23.53
34.01
40.73
42.89
39.96
32.40
21.92
11.14
2.56
-2.44
-4.07
-3.88
-3.78
-5.06
-7.85
-11.13
-13.26
-12.91
-9.49
-3.41
4.15
11.60
17.22
19.52
17.63
11.75
3.47
-4.29
-8.00
-4.70
6.81
25.37
47.74
69.77
87.75
99.55
104.94
105.02
101.53
96.02
89.50
82.50
75.26
68.00
60.77
53.26
44.50
33.02
17.35
-3.05
-27.28
-52.80
-76.26
-94.70
-106.68
-112.81
-115.32
-117.11
-120.64
-127.10
-136.04
-145.64
-153.26
-156.15
-152.22
-140.57
-121.88
-98.07
-71.81
-45.64
-21.54
-0.64
16.56
29.82
39.07
44.36
46.11
45.17
42.81
40.40
38.88
38.57
38.87
38.57
36.35
31.45
23.98
14.96
5.85
-2.13
-8.52
-13.83
-19.40
-26.81
-37.41
-51.85
-69.65
-89.10
-107.35
-120.84
-126.21
-121.32
-106.10
-82.82
-55.42
-28.26
-4.83
13.26
26.23
35.43
42.37
47.92
52.14
54.69
55.37
54.50
52.88
51.44
50.72
50.73
50.96
50.85
50.08
48.80
47.37
46.18
45.27
44.19
42.24
38.63
32.79
24.41
13.57
0.76
-13.00
-26.07
-36.44
-42.09
-41.74
-35.33
-24.18
-10.47
3.47
16.06
26.75
35.86
43.92
51.08
56.79
60.05
60.03
56.57
50.51
43.39
36.87
32.11
29.30
27.72
26.17
23.66
19.76
14.83
9.69
5.14
1.59
-1.14
-3.72
-7.07
-12.20
-19.81
-29.99
-41.87
-53.48
-62.08
-64.97
-60.44
-48.58
-31.39
-12.11
5.92
20.38
30.50
36.90
40.85
43.52
45.50
46.83
47.32
47.00
46.21
45.55
45.45
45.85
46.02
44.71
40.61
32.83
21.35
7.06
-8.57
-23.88
-37.66
-49.42
-59.47
-68.67
-78.18
-89.03
-101.87
-116.69
-132.47
-147.17
-158.00
-162.11
-157.59
-144.30
-124.17
-100.71
-77.87
-58.68
-44.35
-34.13
-25.93
-17.40
-6.87
6.20
21.17
36.76
51.58
64.53
74.99
82.70
87.54
89.41
88.22
84.13
77.77
70.28
63.01
57.10
53.04
50.40
48.00
44.35
38.15
28.60
15.59
-0.20
-17.25
-33.25
-45.37
-50.95
-48.30
-37.53
-20.61
-0.83
18.25
34.01
45.42
52.90
57.77
61.36
64.50
67.39
69.88
71.81
73.16
74.14
74.98
75.81
76.55
76.80
75.90
73.00
67.29
58.26
45.92
30.86
14.16
-3.03
-19.80
-35.78
-51.04
-65.92
-80.71
-95.48
-109.97
-123.46
-134.71
-142.00
-143.49
-137.84
-125.05
-106.72
-85.92
-66.12
-50.04
-38.80
-31.78
-27.32
-23.63
-19.62
-15.02
-10.21
-5.70
-1.78
1.47
4.13
6.27
7.77
8.42
7.96
6.33
3.83
1.04
-1.28
-2.64
-3.09
-3.36
-4.60
-7.82
-13.41
-20.95
-29.50
-38.03
-45.72
-51.94
-55.95
-56.66
-52.72
-43.06
-27.52
-7.24
15.48
37.90
57.64
73.24
84.35
91.37
94.97
95.77
94.14
90.36
84.69
77.59
69.68
61.65
54.09
47.34
41.51
36.74
33.42
32.26
34.02
38.89
45.91
52.96
57.24
56.31
49.08
36.19
19.75
2.62
-12.38
-23.00
-27.66
-25.54
-16.60
-1.74
17.20
37.74
57.27
73.54
85.14
91.49
92.69
89.28
82.16
72.48
61.60
50.96
41.68
34.32
28.74
24.26
20.03
15.48
10.60
5.91
2.19
0.04
-0.51
-0.06
0.36
-0.25
-2.57
-6.78
-12.70
-19.99
-28.23
-36.77
-44.62
-50.41
-52.73
-50.52
-43.61
-32.83
-19.80
-6.50
5.25
14.08
18.99
19.33
14.70
5.08
-8.92
-25.94
-43.93
-60.64
-74.24
-84.01
-90.32
-94.44
-97.73
-101.01
-104.25
-106.88
-108.43
-108.98
-109.27
-110.37
-113.08
-117.59
-123.18
-128.39
-131.35
-130.12
-123.27
-110.28
-91.85
-69.74
-46.24
-23.34
-1.98
18.26
38.59
60.00
82.14
103.02
119.69
129.69
132.41
129.45
123.85
118.42
114.29
110.53
105.07
96.28
84.30
71.06
59.25
50.63
45.07
40.57
34.27
23.98
9.13
-8.90
-27.27
-42.67
-52.31
-54.78
-50.26
-40.33
-27.37
-13.86
-1.75
7.86
14.58
18.52
20.01
19.42
17.18
13.87
10.20
6.94
4.70
3.67
3.65
3.99
4.04
3.32
1.84
-0.07
-2.04
-4.06
-6.84
-11.72
-20.24
-33.36
-50.75
-70.41
-88.96
-102.47
-107.70
-103.17
-89.73
-70.21
-48.50
-28.37
-12.49
-1.96
3.47
4.99
4.09
2.22
0.59
0.02
0.83
2.75
4.99
6.54
6.55
4.70
1.31
-2.85
-6.95
-10.54
-13.74
-17.24
-22.10
-29.38
-39.73
-52.97
-67.78
-81.65
-91.37
-93.94
-87.62
-72.75
-51.77
-28.41
-6.46
11.41
24.21
32.41
37.32
40.35
42.56
44.56
46.70
49.12
51.74
54.29
56.31
57.25
56.72
54.61
51.14
46.74
41.90
36.92
31.84
26.32
19.73
11.40
0.97
-11.18
-23.69
-34.41
-41.24
-42.93
-39.86
-33.91
-27.53
-22.58
-19.46
-17.08
-13.66
-7.86
0.44
10.17
19.68
27.69
33.73
38.15
41.61
44.53
46.86
48.23
48.29
46.97
44.67
41.87
38.96
35.80
31.84
26.30
18.64
8.78
-2.82
-15.35
-27.78
-38.91
-47.42
-51.94
-51.44
-45.58
-35.05
-21.54
-7.18
6.08
17.10
25.65
32.14
37.18
41.16
44.30
46.63
48.24
49.15
49.14
47.74
44.19
37.95
29.04
18.33
7.43
-1.91
-8.50
-12.25
-14.17
-16.07
-19.77
-26.43
-36.02
-47.26
-57.76
-64.80
-66.05
-60.37
-48.28
-31.86
-13.99
2.51
15.78
25.26
31.43
35.28
37.67
39.07
39.64
39.49
38.98
38.64
38.95
40.02
41.45
42.49
42.40
40.89
38.17
34.84
31.52
28.40
25.13
20.90
14.74
5.84
-6.13
-20.75
-36.72
-51.85
-63.46
-69.01
-66.93
-57.34
-42.06
-24.10
-6.57
8.29
19.69
28.14
34.67
40.15
44.82
48.35
50.41
51.03
50.81
50.58
50.91
51.75
52.33
51.61
48.80
43.81
37.20
29.86
22.47
15.15
7.36
-1.77
-13.15
-27.25
-43.82
-61.66
-78.65
-92.05
-99.13
-98.05
-88.51
-72.01
-51.51
-30.50
-12.00
2.25
11.95
17.92
21.44
23.64
25.21
26.40
27.28
27.94
28.54
29.26
30.03
30.40
29.69
27.25
22.86
16.94
10.41
4.29
-0.78
-4.89
-8.83
-13.76
-20.76
-30.38
-42.26
-55.05
-66.58
-74.35
-76.17
-70.91
-58.99
-42.28
-23.54
-5.53
9.85
21.92
30.96
37.73
42.82
46.51
48.79
49.72
49.63
49.05
48.40
47.75
46.69
44.52
40.66
34.97
27.92
20.42
13.43
7.59
2.89
-1.32
-6.09
-12.48
-21.22
-32.39
-45.12
-57.68
-67.75
-73.04
-72.03
-64.56
-51.97
-36.69
-21.43
-8.32
1.66
8.61
13.22
16.18
17.88
18.41
17.86
16.51
14.83
13.19
11.57
9.58
6.65
2.46
-2.79
-8.34
-13.23
-16.79
-18.98
-20.53
-22.63
-26.58
-33.23
-42.67
-53.96
-65.23
-73.95
-77.61
-74.51
-64.36
-48.54
-29.69
-10.85
5.49
18.11
27.10
33.31
37.74
40.93
42.86
43.28
42.12
39.84
37.21
34.96
33.36
32.04
30.12
26.72
21.43
14.53
6.92
-0.28
-6.29
-11.05
-15.22
-19.91
-26.37
-35.44
-47.23
-60.85
-74.41
-85.35
-91.05
-89.66
-80.84
-65.88
-47.37
-28.33
-11.15
2.96
14.01
22.74
29.94
35.96
40.72
43.99
45.69
46.14
45.88
45.44
45.05
44.51
43.25
40.63
36.36
30.62
24.10
17.75
12.34
8.15
4.84
1.53
-2.81
-9.16
-18.08
-29.45
-42.30
-54.75
-64.39
-68.80
-66.43
-57.23
-42.70
-25.41
-8.05
7.40
20.13
30.28
38.45
45.07
50.19
53.57
54.98
54.51
52.64
50.07
47.45
45.04
42.65
39.66
35.36
29.32
21.59
12.71
3.40
-5.90
-15.29
-25.48
-37.35
-51.52
-67.86
-85.55
-103.21
-119.31
-132.32
-140.87
-143.85
-140.55
-130.94
-115.88
-97.10
-76.77
-56.85
-38.52
-21.94
-6.58
8.24
22.63
36.00
47.36
55.95
61.78
65.73
69.24
73.50
78.87
84.53
88.88
90.25
87.74
81.63
73.12
63.76
54.64
45.89
36.76
26.00
12.47
-4.35
-23.98
-44.88
-64.55
-79.99
-88.36
-87.83
-78.30
-61.64
-41.32
-21.28
-4.82
6.41
12.50
14.86
15.28
15.07
14.71
13.87
11.90
8.26
2.90
-3.71
-10.71
-17.09
-22.03
-25.09
-26.30
-26.04
-24.86
-23.14
-21.01
-18.31
-14.84
-10.64
-6.08
-1.86
1.23
2.48
1.37
-2.30
-8.30
-15.69
-22.72
-26.95
-25.91
-18.03
-3.38
16.04
37.02
56.20
71.30
81.67
88.14
92.25
95.43
98.43
101.29
103.68
105.15
105.38
104.14
101.29
96.72
90.49
82.88
74.42
65.73
57.34
49.49
42.13
34.99
27.74
20.10
11.98
3.37
-5.66
-15.01
-24.67
-34.80
-45.75
-57.84
-70.99
-84.29
-95.75
-102.74
-102.77
-94.54
-78.67
-57.65
-35.10
-14.54
1.70
12.90
19.75
23.62
25.80
27.10
27.86
28.19
28.17
27.86
27.16
25.66
22.63
17.22
8.80
-2.68
-16.53
-31.26
-44.82
-54.99
-60.00
-59.07
-52.68
-42.49
-30.75
-19.59
-10.45
-3.85
0.19
1.81
1.03
-2.03
-6.66
-11.23
-13.28
-10.26
-0.51
15.91
37.10
59.96
81.14
97.99
109.13
114.36
114.24
109.64
101.47
90.67
78.31
65.68
54.10
44.73
38.23
34.50
32.79
31.86
30.50
27.84
23.65
18.25
12.33
6.54
1.19
-3.78
-8.72
-14.06
-20.13
-27.12
-35.13
-43.99
-53.18
-61.53
-67.34
-68.70
-64.30
-54.01
-39.22
-22.38
-6.19
7.29
17.10
23.31
26.49
27.14
25.50
21.77
16.45
10.51
5.17
1.32
-0.93
-2.49
-4.86
-9.48
-17.04
-27.14
-38.46
-49.21
-57.88
-63.56
-66.09
-65.94
-63.87
-60.62
-56.66
-51.92
-45.81
-37.32
-25.58
-10.34
7.52
26.01
42.56
54.79
61.25
61.74
57.11
48.77
38.05
26.02
13.47
1.20
-9.82
-18.47
-23.82
-25.54
-24.14
-20.98
-17.82
-16.18
-16.72
-19.03
-21.86
-23.83
-24.12
-22.97
-21.64
-21.88
-25.39
-33.19
-45.39
-60.98
-77.90
-93.24
-103.67
-106.32
-99.59
-83.94
-61.83
-37.05
-13.46
6.14
20.61
30.35
36.48
40.09
41.78
41.69
39.86
36.65
32.83
29.25
26.48
24.44
22.44
19.48
14.89
8.67
1.62
-5.00
-10.02
-12.86
-13.69
-13.39
-13.13
-14.02
-16.81
-21.76
-28.49
-36.01
-42.83
-47.18
-47.50
-42.96
-33.77
-21.19
-7.06
6.79
19.17
29.68
38.51
46.03
52.38
57.41
60.86
62.67
63.15
62.81
62.07
61.02
59.28
56.26
51.53
45.11
37.61
29.91
22.80
16.66
11.27
6.02
0.15
-7.00
-15.75
-26.09
-37.60
-49.44
-60.32
-68.57
-72.45
-70.76
-63.22
-50.88
-35.76
-20.24
-6.31
4.94
13.35
19.28
23.15
25.20
25.62
24.70
23.10
21.64
20.94
21.09
21.50
21.23
19.50
16.18
11.81
7.45
4.07
2.06
1.06
0.01
-2.40
-7.23
-14.84
-24.45
-34.16
-41.24
-42.79
-36.71
-22.57
-2.00
21.65
44.34
62.64
74.77
80.93
82.65
81.85
79.79
76.69
72.09
65.50
56.99
47.32
37.54
28.37
19.84
11.31
2.00
-8.42
-19.57
-30.35
-39.56
-46.49
-51.28
-55.00
-59.28
-65.83
-75.91
-89.80
-106.42
-123.30
-136.99
-144.02
-142.00
-130.71
-112.21
-90.24
-68.90
-51.15
-38.00
-28.53
-20.63
-12.11
-1.61
11.20
25.76
41.16
56.44
70.73
83.06
92.21
96.78
95.61
88.37
75.99
60.64
45.05
31.60
21.35
13.79
7.16
-0.74
-11.60
-25.92
-42.82
-60.17
-75.16
-84.94
-87.49
-82.21
-70.25
-54.26
-37.50
-22.78
-11.51
-3.41
3.05
9.65
17.38
25.94
34.00
40.05
43.42
44.74
45.71
48.17
53.18
60.54
69.10
77.60
85.47
93.02
100.90
109.26
117.09
122.25
122.39
115.73
101.91
81.81
57.15
29.97
2.36
-23.44
-44.99
-60.01
-67.07
-66.26
-59.49
-49.89
-40.79
-34.62
-32.34
-33.59
-37.44
-43.10
-50.16
-58.44
-67.42
-75.94
-82.28
-84.69
-82.12
-74.68
-63.82
-51.72
-40.57
-31.82
-25.79
-21.91
-19.16
-16.81
-14.67
-13.13
-12.85
-14.36
-17.87
-23.34
-30.48
-38.78
-47.23
-54.17
-57.45
-54.97
-45.51
-29.43
-8.69
13.63
34.39
51.23
63.10
70.10
73.09
73.18
71.56
69.48
68.31
69.29
73.08
79.25
86.03
90.75
90.54
83.42
69.05
48.76
25.05
0.61
-22.64
-43.89
-63.34
-81.66
-99.50
-117.13
-134.28
-150.00
-162.66
-170.05
-169.92
-160.76
-142.61
-117.43
-88.72
-60.40
-35.43
-15.05
1.21
14.72
26.67
37.44
46.60
53.46
57.78
60.02
61.17
62.19
63.47
64.64
64.86
63.27
59.53
54.03
47.73
41.67
36.56
32.45
28.74
24.52
18.80
10.85
0.39
-12.38
-26.57
-40.54
-51.98
-58.44
-58.02
-50.10
-35.84
-17.78
0.95
17.76
31.33
41.70
49.70
56.19
61.39
64.89
65.99
64.22
59.82
53.71
47.19
41.51
37.38
34.83
33.25
31.66
29.22
25.51
20.68
15.20
9.52
3.70
-2.65
-10.19
-19.50
-30.77
-43.72
-57.70
-71.85
-85.06
-96.06
-103.42
-105.87
-102.72
-94.24
-81.72
-67.06
-52.14
-38.19
-25.59
-14.06
-3.14
7.34
17.14
25.75
32.76
38.08
42.03
45.06
47.54
49.52
50.76
50.88
49.58
46.83
42.89
38.22
33.33
28.59
24.19
20.04
15.90
11.42
6.17
-0.35
-8.63
-18.93
-30.95
-43.49
-54.41
-61.17
-61.60
-54.86
-41.87
-25.03
-7.36
8.60
21.61
31.72
39.79
46.62
52.32
56.36
57.93
56.61
52.74
47.39
41.87
37.16
33.46
30.18
26.24
20.64
12.87
3.07
-8.13
-19.94
-31.61
-42.55
-52.34
-60.84
-68.25
-75.23
-82.63
-90.95
-99.76
-107.38
-111.26
-108.83
-98.74
-81.52
-59.59
-36.29
-14.69
3.44
17.92
29.64
39.77
49.01
57.23
63.81
68.09
69.90
69.71
68.47
67.09
66.02
65.03
63.41
60.39
55.59
49.21
41.97
34.72
28.06
22.12
16.53
10.68
3.92
-4.29
-14.26
-26.06
-39.30
-52.93
-65.13
-73.57
-76.07
-71.36
-59.76
-43.12
-24.30
-6.14
9.39
21.59
30.83
37.94
43.69
48.42
52.14
54.72
56.09
56.32
55.55
53.98
51.74
48.96
45.70
41.96
37.71
32.93
27.69
22.20
16.75
11.59
6.77
2.06
-2.97
-8.89
-16.22
-25.31
-36.17
-48.22
-60.12
-69.84
-75.03
-73.74
-65.21
-50.35
-31.49
-11.71
6.23
20.74
31.65
39.87
46.65
52.91
58.92
64.33
68.49
70.85
71.15
69.53
66.48
62.62
58.50
54.46
50.59
46.64
42.11
36.19
27.89
16.22
0.71
-18.27
-39.23
-59.91
-78.00
-91.96
-101.55
-107.61
-111.35
-113.50
-113.80
-111.17
-104.47
-93.21
-78.03
-60.48
-42.37
-25.14
-9.48
4.53
17.06
28.08
37.20
43.94
48.11
50.12
50.95
51.82
53.64
56.61
60.13
63.10
64.50
63.81
61.18
57.27
52.84
48.38
43.97
39.21
33.48
26.13
16.84
5.91
-5.51
-15.49
-21.75
-22.38
-16.50
-4.74
11.03
28.15
44.12
57.10
66.18
71.19
72.29
69.72
63.71
54.59
42.99
29.85
16.33
3.49
-7.93
-17.72
-26.16
-33.79
-41.12
-48.36
-55.34
-61.67
-66.94
-71.06
-74.24
-76.98
-79.82
-83.23
-87.53
-92.88
-99.12
-105.57
-110.90
-113.25
-110.62
-101.62
-86.06
-65.01
-40.52
-14.78
10.48
34.40
56.68
77.12
95.20
109.99
120.60
126.69
128.85
128.50
127.31
126.45
125.86
124.22
119.44
109.57
93.64
72.18
46.97
20.41
-5.31
-28.86
-49.92
-69.02
-87.07
-105.00
-123.29
-141.70
-158.95
-172.81
-180.49
-179.45
-168.43
-148.12
-121.18
-91.48
-62.78
-37.60
-16.71
0.47
15.03
27.66
38.30
46.46
51.70
54.18
54.70
54.21
53.40
52.31
50.42
47.18
42.46
36.76
31.11
26.52
23.50
21.73
20.12
17.27
11.89
3.30
-8.37
-22.03
-35.79
-47.24
-53.94
-54.14
-47.33
-34.56
-18.10
-0.82
14.89
27.70
37.49
44.97
50.90
55.66
59.02
60.56
60.09
58.00
55.13
52.43
50.41
48.84
46.85
43.43
38.01
30.85
22.98
15.78
10.24
6.47
3.58
-0.03
-6.09
-15.88
-29.75
-46.88
-65.33
-82.34
-94.81
-100.10
-96.70
-84.76
-66.17
-44.03
-21.79
-2.25
13.03
23.86
30.91
35.10
37.07
37.02
34.95
30.97
25.53
19.43
13.45
8.05
3.19
-1.55
-6.64
-12.27
-18.15
-23.69
-28.24
-31.62
-34.26
-37.20
-41.76
-49.06
-59.65
-73.05
-87.81
-101.58
-111.62
-115.50
-111.76
-100.38
-82.88
-61.89
-40.33
-20.58
-3.91
9.64
20.82
30.57
39.51
47.71
54.81
60.46
64.56
67.44
69.71
71.99
74.56
77.19
79.22
79.83
78.40
74.89
69.80
63.97
58.16
52.66
47.11
40.67
32.33
21.33
7.58
-8.15
-24.35
-38.93
-49.64
-54.63
-52.86
-44.46
-30.76
-13.99
3.34
19.06
31.95
41.77
49.11
54.88
59.69
63.65
66.35
67.30
66.27
63.65
60.29
57.16
54.85
53.28
51.71
49.11
44.60
37.88
29.31
19.79
10.38
1.91
-5.28
-11.46
-17.39
-24.10
-32.70
-43.99
-58.18
-74.43
-90.82
-104.46
-112.30
-112.13
-103.53
-88.18
-69.40
-50.99
-35.92
-25.39
-18.84
-14.51
-10.45
-5.25
1.69
10.33
20.32
31.21
42.56
53.88
64.59
74.12
81.95
87.66
90.91
91.28
88.40
82.06
72.40
60.03
45.95
31.30
16.99
3.60
-8.77
-20.42
-31.98
-44.28
-57.92
-72.86
-87.96
-100.93
-108.98
-109.80
-102.69
-88.90
-71.31
-53.29
-37.48
-25.13
-16.10
-9.55
-4.65
-1.00
1.45
2.70
3.05
3.08
3.52
4.92
7.34
10.34
13.02
14.38
13.67
10.64
5.75
-0.07
-5.76
-10.55
-14.26
-17.22
-20.03
-23.24
-27.15
-31.85
-37.15
-42.54
-47.04
-49.16
-47.17
-39.76
-26.67
-9.11
10.47
29.19
44.69
55.89
63.02
67.30
70.15
72.81
76.11
80.64
86.78
94.65
103.85
113.15
120.63
124.02
121.45
112.17
96.88
77.56
56.73
36.65
18.51
2.28
-12.98
-28.53
-45.24
-63.28
-82.06
-100.45
-116.84
-129.24
-135.40
-133.22
-121.48
-100.57
-72.85
-42.22
-12.98
11.46
29.42
41.11
47.92
51.54
53.30
53.99
54.18
54.47
55.51
57.71
60.94
64.38
66.75
66.87
64.12
58.74
51.70
44.37
37.99
33.22
30.00
27.60
24.91
20.75
14.18
4.78
-7.12
-20.27
-32.68
-42.01
-46.38
-45.09
-39.00
-30.32
-21.75
-15.44
-12.21
-11.47
-11.55
-10.44
-6.37
1.79
14.39
30.76
49.13
66.73
80.20
86.48
83.75
71.92
52.61
28.43
2.08
-24.47
-50.29
-75.37
-100.23
-125.52
-151.52
-177.77
-202.66
-223.31
-235.97
-237.01
-224.29
-198.21
-162.01
-121.05
-81.09
-46.78
-20.43
-2.02
10.08
17.98
23.45
27.52
30.67
33.11
34.94
36.12
36.44
35.47
32.87
28.61
23.16
17.32
11.93
7.40
3.49
-0.68
-6.27
-14.21
-24.67
-36.69
-48.11
-56.08
-57.95
-52.22
-39.31
-21.60
-2.62
14.12
26.38
33.80
37.70
40.27
43.54
48.62
55.52
63.37
70.94
77.06
80.88
81.88
79.76
74.40
65.83
54.37
40.72
25.92
11.18
-2.51
-14.64
-25.39
-35.47
-45.84
-57.16
-69.31
-81.13
-90.56
-95.15
-92.94
-83.25
-67.06
-46.82
-25.63
-6.23
9.75
21.94
30.88
37.47
42.40
46.10
48.80
50.83
52.69
54.91
57.77
61.03
63.89
65.22
64.05
60.07
53.86
46.68
39.97
34.67
30.81
27.64
23.90
18.45
10.55
0.07
-12.45
-25.72
-37.79
-46.29
-49.12
-45.26
-35.32
-21.54
-6.93
5.79
15.08
20.71
23.24
23.38
21.43
17.63
12.56
7.57
4.55
5.10
9.66
17.17
25.41
31.88
34.85
33.85
29.52
23.06
15.55
7.58
-0.86
-10.20
-21.11
-34.14
-49.38
-66.00
-81.98
-94.36
-99.97
-96.61
-84.04
-64.21
-40.77
-17.86
0.95
13.42
18.78
17.46
10.84
1.00
-9.51
-18.11
-22.83
-22.95
-19.36
-14.46
-11.37
-12.84
-19.94
-31.31
-43.26
-50.95
-50.29
-39.80
-21.61
-0.90
15.92
23.73
20.61
8.44
-7.98
-23.00
-32.11
-33.21
-26.77
-15.00
-0.66
13.89
27.09
38.09
46.25
50.93
51.54
47.96
40.99
32.45
24.69
19.73
18.52
20.57
24.31
27.81
29.68
29.42
27.46
24.67
21.80
19.02
15.89
11.57
5.33
-3.04
-12.86
-22.45
-29.33
-30.81
-24.71
-10.21
11.63
37.89
64.31
86.34
100.18
103.58
96.10
78.91
54.27
25.08
-5.59
-34.66
-59.26
-76.96
-86.19
-86.63
-79.43
-66.99
-52.37
-38.42
-27.04
-18.88
-13.59
-10.47
-9.08
-9.60
-12.78
-19.58
-30.65
-46.06
-64.98
-85.63
-105.40
-121.10
-129.51
-128.24
-116.47
-95.32
-67.77
-37.76
-9.12
15.45
34.82
49.16
59.27
65.92
69.48
70.11
68.14
64.39
60.09
56.43
54.00
52.49
50.97
48.38
44.15
38.54
32.36
26.61
21.82
17.86
13.97
9.16
2.70
-5.70
-15.78
-26.86
-37.95
-47.82
-55.05
-58.31
-56.77
-50.42
-40.26
-28.04
-15.79
-5.19
2.76
7.86
10.49
11.37
11.39
11.44
12.32
14.64
18.60
24.02
30.40
37.09
43.51
49.14
53.58
56.55
57.92
57.80
56.64
55.03
53.49
52.22
51.01
49.23
46.10
40.99
33.77
25.08
16.44
10.01
8.08
12.34
23.15
39.22
57.76
75.20
88.26
94.97
95.05
89.85
81.66
72.79
65.00
59.14
55.19
52.54
50.29
47.43
43.13
36.76
28.05
17.19
4.82
-8.02
-20.14
-30.48
-38.44
-44.13
-48.53
-53.18
-59.69
-68.92
-80.48
-92.62
-102.86
-108.90
-109.39
-104.28
-94.52
-81.50
-66.64
-51.31
-36.90
-24.99
-17.12
-14.43
-17.18
-24.50
-34.66
-45.57
-55.38
-62.96
-67.90
-70.39
-70.79
-69.32
-65.92
-60.38
-52.68
-43.34
-33.61
-25.24
-20.07
-19.21
-22.44
-27.97
-32.69
-33.11
-26.54
-12.14
8.60
32.29
54.76
72.46
83.51
88.00
87.45
83.90
79.05
73.85
68.51
63.01
57.36
51.80
46.60
41.86
37.39
32.85
28.16
23.82
20.85
20.22
22.14
25.65
28.76
29.37
26.07
18.64
7.77
-5.62
-20.78
-36.90
-52.41
-64.55
-69.88
-65.69
-51.70
-30.71
-7.86
11.49
23.94
29.32
30.06
29.57
30.31
32.84
36.08
38.45
39.08
38.13
36.55
35.20
34.21
32.91
30.31
25.78
19.52
12.45
5.64
-0.25
-5.43
-10.81
-17.51
-26.26
-37.01
-49.01
-61.06
-72.03
-81.01
-87.40
-90.71
-90.45
-86.11
-77.28
-63.88
-46.24
-25.12
-1.75
22.15
44.46
62.84
75.19
80.26
78.06
70.03
58.57
46.34
35.45
26.95
20.72
15.83
11.09
5.62
-0.82
-7.76
-14.23
-19.22
-22.00
-22.44
-21.07
-18.91
-17.18
-17.12
-19.67
-25.26
-33.39
-42.46
-50.03
-53.41
-50.68
-41.52
-27.48
-11.48
3.32
14.66
21.89
25.79
27.85
29.36
30.90
32.30
33.16
33.44
33.58
34.35
36.22
38.95
41.41
42.16
40.00
34.62
26.67
17.41
8.15
-0.25
-7.61
-14.38
-21.32
-29.12
-38.01
-47.34
-55.46
-60.07
-59.02
-51.24
-37.49
-20.26
-2.92
11.60
21.83
28.07
31.75
34.35
36.57
38.08
38.02
35.80
31.66
26.73
22.48
20.02
19.60
20.48
21.30
20.70
17.94
13.08
6.96
0.69
-4.86
-9.47
-13.59
-18.23
-24.46
-33.12
-44.55
-58.38
-73.38
-87.52
-98.14
-102.56
-98.97
-87.16
-68.93
-47.60
-27.01
-10.15
1.66
8.97
13.47
16.93
20.39
23.88
26.80
28.52
28.90
28.39
27.75
27.55
27.79
27.91
27.05
24.58
20.40
15.12
9.75
5.36
2.61
1.49
1.43
1.43
0.44
-2.47
-7.94
-16.18
-26.71
-38.15
-48.29
-54.50
-54.67
-48.00
-35.61
-20.20
-5.13
6.78
14.17
17.32
17.55
16.38
14.82
13.03
10.63
7.14
2.49
-2.94
-8.37
-13.00
-16.35
-18.41
-19.53
-20.14
-20.46
-20.35
-19.47
-17.51
-14.64
-11.49
-9.13
-8.66
-10.86
-16.08
-24.26
-35.09
-48.01
-62.02
-75.41
-85.72
-90.08
-86.17
-73.16
-52.48
-27.66
-3.38
16.01
27.85
31.87
29.95
25.14
20.39
17.66
17.57
19.73
23.35
27.68
32.21
36.55
40.20
42.47
42.78
41.04
37.82
34.31
31.78
31.05
32.03
33.79
34.91
34.07
30.43
23.85
14.73
3.98
-7.23
-17.50
-25.31
-29.41
-29.10
-24.61
-17.11
-8.45
-0.51
5.25
8.10
7.99
5.34
0.78
-4.95
-10.93
-16.19
-19.78
-21.14
-20.41
-18.64
-17.67
-19.60
-26.02
-37.11
-51.29
-65.41
-75.75
-79.48
-75.81
-66.42
-54.73
-44.63
-38.95
-38.59
-42.49
-48.18
-52.68
-53.25
-48.05
-36.45
-19.24
1.55
23.06
42.54
58.09
69.18
76.49
81.32
84.90
87.81
90.04
91.18
90.89
89.11
86.06
82.08
77.41
72.02
65.69
58.36
50.28
42.24
35.36
30.73
28.91
29.67
31.97
34.33
35.34
33.99
29.98
23.68
16.15
9.04
4.37
4.09
9.53
20.81
36.57
54.36
71.33
85.19
94.85
100.44
102.76
102.68
100.57
96.28
89.46
80.05
68.59
56.15
44.04
33.23
23.94
15.57
7.03
-2.71
-13.98
-26.31
-38.62
-49.79
-59.30
-67.49
-75.36
-84.07
-94.54
-107.14
-121.69
-137.51
-153.33
-167.32
-177.18
-180.61
-176.07
-163.51
-144.55
-122.14
-99.58
-79.51
-63.28
-50.94
-41.81
-35.05
-30.01
-26.08
-22.29
-17.04
-8.27
5.64
25.04
48.38
72.45
93.43
108.32
116.02
117.47
114.93
110.74
106.29
101.69
96.09
88.45
78.18
65.31
50.30
33.63
15.80
-2.48
-19.85
-34.12
-42.70
-43.39
-35.60
-20.77
-2.12
16.42
31.57
41.62
46.59
47.63
46.17
43.31
39.74
36.02
32.87
31.11
31.39
33.69
37.15
40.26
41.34
39.19
33.54
25.20
15.84
7.47
1.70
-0.90
-1.14
-1.16
-3.70
-11.02
-23.86
-40.80
-58.56
-73.15
-81.25
-81.46
-74.61
-63.22
-50.35
-38.50
-28.93
-21.80
-16.71
-13.35
-11.85
-12.67
-16.12
-21.82
-28.40
-33.72
-35.61
-32.73
-25.25
-14.94
-4.38
4.00
8.84
10.19
9.06
6.68
3.72
-0.03
-5.37
-13.14
-23.71
-36.58
-50.37
-62.82
-71.34
-73.46
-67.68
-54.05
-34.42
-11.98
9.69
27.77
40.97
49.57
54.91
58.51
61.41
64.02
66.29
68.23
70.09
72.37
75.39
78.98
82.29
83.93
82.46
76.95
67.35
54.47
39.69
24.40
9.52
-4.74
-18.78
-33.32
-49.00
-66.04
-84.09
-102.08
-118.20
-130.14
-135.64
-133.16
-122.61
-105.60
-85.07
-64.44
-46.38
-32.09
-21.10
-11.82
-2.59
7.57
18.57
29.53
39.42
47.67
54.46
60.44
66.33
72.37
78.05
82.33
84.08
82.59
77.93
70.89
62.75
54.90
48.52
44.48
43.27
44.90
48.93
54.43
60.28
65.50
69.72
73.22
76.63
80.35
83.99
86.22
85.17
79.25
67.94
52.20
34.31
17.30
3.96
-3.86
-5.79
-2.94
2.62
8.54
12.99
15.05
14.69
12.27
7.97
1.46
-8.02
-20.99
-37.13
-54.91
-71.86
-85.26
-93.18
-95.14
-92.25
-86.90
-81.96
-80.11
-83.22
-91.99
-105.78
-122.66
-139.55
-152.82
-159.08
-156.13
-143.71
-123.63
-99.20
-74.17
-51.49
-32.64
-17.57
-5.30
5.29
14.82
23.34
30.50
36.09
40.19
43.27
45.85
48.18
50.09
51.07
50.60
48.44
44.78
40.19
35.40
30.97
27.21
24.09
21.38
18.78
15.97
12.48
7.71
1.03
-7.77
-17.94
-27.64
-34.18
-34.97
-28.58
-15.58
1.50
19.06
33.68
43.33
47.91
48.85
48.29
48.21
49.83
53.45
58.63
64.30
69.05
71.22
69.38
62.63
50.97
35.35
17.40
-1.07
-18.56
-34.04
-46.74
-55.85
-60.30
-59.00
-51.43
-38.35
-22.02
-5.87
6.47
12.28
10.64
2.70
-8.78
-20.43
-29.41
-34.23
-34.90
-32.56
-28.80
-24.94
-21.77
-19.56
-18.36
-18.16
-18.88
-20.21
-21.42
-21.48
-19.49
-15.16
-9.14
-2.84
2.13
4.67
4.59
2.67
0.15
-1.87
-2.93
-3.35
-4.08
-6.38
-11.41
-19.95
-32.09
-46.93
-62.57
-76.29
-85.18
-87.07
-81.24
-68.87
-52.56
-35.50
-20.37
-8.58
-0.16
5.78
10.37
14.40
18.07
21.21
23.54
24.89
25.24
24.52
22.53
18.92
13.45
6.27
-1.85
-9.66
-15.65
-18.56
-17.73
-13.38
-6.51
1.27
8.17
12.48
12.88
8.77
0.54
-10.27
-21.10
-28.88
-31.00
-26.22
-15.18
-0.37
14.91
27.66
36.23
40.55
41.75
41.18
39.69
37.49
34.37
30.30
25.77
21.69
18.98
18.13
18.85
20.17
20.85
19.93
17.12
12.88
8.17
3.98
0.84
-1.36
-3.26
-5.66
-9.11
-13.60
-18.58
-23.02
-25.62
-24.90
-19.40
-8.00
9.58
32.29
57.65
82.25
102.63
116.36
122.69
122.50
117.66
110.06
100.95
90.70
79.16
66.15
51.93
37.24
23.07
10.20
-1.19
-11.50
-21.52
-31.90
-42.71
-53.39
-62.90
-70.28
-75.06
-77.47
-78.31
-78.57
-79.16
-80.65
-83.17
-86.30
-88.88
-89.03
-84.30
-72.29
-51.45
-21.79
14.77
54.77
93.93
127.99
153.40
167.59
169.21
158.30
136.38
106.52
72.94
40.14
11.89
-9.72
-24.61
-34.33
-41.12
-46.94
-52.77
-58.53
-63.54
-67.10
-68.95
-69.49
-69.60
-70.42
-73.01
-78.05
-85.54
-94.50
-102.90
-107.93
-106.76
-97.43
-79.76
-55.47
-27.77
-0.36
23.75
42.90
56.86
66.34
72.30
75.46
76.17
74.68
71.50
67.47
63.65
60.86
59.32
58.41
56.95
53.68
47.82
39.51
29.69
19.71
10.80
3.47
-2.54
-8.19
-14.66
-23.01
-33.82
-46.96
-61.48
-75.59
-86.89
-92.85
-91.60
-82.68
-67.38
-48.40
-29.10
-12.33
0.38
8.96
14.36
17.83
20.22
21.83
22.56
22.37
21.49
20.47
19.94
20.28
21.38
22.67
23.28
22.43
19.76
15.44
10.15
4.78
0.09
-3.54
-6.23
-8.46
-10.85
-14.01
-18.43
-24.43
-32.25
-41.77
-52.27
-62.18
-69.17
-70.74
-65.12
-52.14
-33.53
-12.49
7.35
23.16
33.69
39.42
41.93
42.98
43.76
44.65
45.39
45.58
45.07
44.06
42.96
42.03
41.24
40.22
38.42
35.45
31.25
26.09
20.51
15.03
9.97
5.34
0.94
-3.54
-8.39
-13.79
-19.86
-26.82
-34.85
-43.87
-53.21
-61.35
-66.23
-65.82
-59.05
-46.37
-29.82
-12.33
3.28
15.15
22.82
26.84
28.17
27.64
25.64
22.33
17.96
13.14
8.76
5.68
4.31
4.32
4.65
4.00
1.41
-3.31
-9.45
-15.84
-21.50
-26.08
-30.12
-34.75
-41.22
-50.35
-62.13
-75.56
-88.73
-99.22
-104.64
-103.45
-95.43
-81.91
-65.44
-48.92
-34.70
-23.92
-16.41
-11.23
-7.25
-3.73
-0.43
2.63
5.51
8.55
12.30
17.16
23.08
29.46
35.28
39.55
41.67
41.77
40.51
38.83
37.51
36.92
36.86
36.64
35.35
32.02
25.93
16.94
5.73
-5.99
-15.74
-20.97
-19.90
-12.24
0.58
15.80
30.34
41.72
48.66
51.13
49.92
46.15
40.92
35.17
29.67
25.10
21.96
20.54
20.89
22.83
25.98
29.81
33.80
37.48
40.56
42.96
44.67
45.58
45.31
43.19
38.35
30.02
17.71
1.40
-18.34
-40.30
-62.55
-82.61
-97.76
-105.65
-104.93
-95.75
-79.73
-59.55
-38.17
-18.11
-0.91
13.02
24.05
33.00
40.62
47.40
53.51
58.89
63.41
66.85
68.94
69.39
67.94
64.68
60.15
55.44
51.86
50.39
51.02
52.37
51.83
46.26
33.17
11.88
-15.85
-45.89
-72.84
-91.58
-98.87
-94.41
-80.77
-62.52
-44.68
-31.19
-23.97
-22.78
-25.82
-30.76
-35.66
-39.43
-41.78
-42.84
-42.74
-41.47
-39.02
-35.70
-32.34
-30.22
-30.53
-33.84
-39.72
-46.81
-53.41
-58.15
-60.64
-61.43
-61.76
-62.85
-65.44
-69.47
-73.97
-77.28
-77.32
-72.13
-60.47
-42.50
-19.97
4.10
26.31
44.04
56.27
63.58
67.62
70.09
72.01
73.44
73.95
73.14
71.09
68.35
65.51
62.85
60.01
56.15
50.46
42.62
33.10
22.97
13.47
5.31
-1.62
-8.21
-15.62
-24.71
-35.59
-47.66
-59.83
-70.82
-79.30
-84.01
-83.85
-78.18
-67.16
-51.96
-34.67
-17.71
-3.10
8.12
16.04
21.53
25.67
29.28
32.67
35.78
38.44
40.46
41.71
42.06
41.31
39.25
35.81
31.17
25.84
20.51
15.78
11.94
8.74
5.44
0.96
-5.74
-15.24
-27.25
-40.35
-52.08
-59.46
-59.93
-52.26
-37.15
-17.10
4.36
23.91
39.38
50.20
57.06
61.16
63.54
64.67
64.64
63.53
61.65
59.49
57.48
55.58
53.24
49.57
43.79
35.69
25.80
15.20
5.13
-3.53
-10.59
-16.48
-22.16
-28.65
-36.79
-46.94
-58.74
-70.99
-81.67
-88.34
-88.85
-82.07
-68.45
-50.01
-29.72
-10.52
5.53
17.74
26.59
33.21
38.62
43.37
47.46
50.68
52.85
54.05
54.52
54.50
53.99
52.70
50.29
46.63
41.99
37.06
32.64
29.25
26.80
24.49
21.07
15.15
5.74
-7.25
-22.68
-38.19
-50.68
-57.20
-55.93
-46.79
-31.55
-13.10
5.55
22.23
36.00
46.97
55.72
62.75
68.18
71.94
74.00
74.57
74.11
73.09
71.73
69.89
67.19
63.25
57.98
51.76
45.29
39.34
34.32
30.03
25.65
19.92
11.61
-0.08
-15.03
-31.99
-48.70
-62.30
-70.20
-70.95
-64.83
-53.72
-40.49
-27.89
-17.69
-10.31
-5.17
-1.34
1.83
4.49
6.60
8.41
10.87
15.54
24.07
37.45
55.38
76.14
96.84
114.21
125.40
128.59
123.26
110.03
90.23
65.48
37.26
6.79
-25.03
-57.45
-89.61
-120.24
-147.46
-168.96
-182.36
-186.02
-179.63
-164.50
-143.36
-119.59
-96.29
-75.57
-58.31
-44.52
-33.86
-25.99
-20.70
-17.58
-15.81
-14.15
-11.33
-6.66
-0.47
5.91
10.71
12.46
10.72
6.21
0.46
-4.95
-9.01
-11.70
-13.91
-16.99
-22.24
-30.37
-41.05
-52.75
-62.90
-68.40
-66.61
-56.31
-38.32
-15.41
8.66
30.39
47.67
60.19
69.01
75.62
81.03
85.39
88.21
89.00
87.80
85.36
82.82
81.12
80.45
80.14
78.99
75.96
70.75
64.04
57.10
51.07
46.30
42.12
37.19
30.14
20.14
7.19
-7.99
-24.17
-39.86
-53.45
-63.46
-68.82
-69.37
-66.07
-60.85
-56.06
-53.58
-54.26
-57.70
-62.58
-67.36
-70.81
-72.23
-71.37
-68.21
-62.81
-55.34
-46.24
-36.34
-26.78
-18.76
-13.09
-9.95
-8.81
-8.76
-8.94
-8.97
-9.11
-10.06
-12.70
-17.65
-24.94
-33.80
-42.57
-48.95
-50.63
-45.96
-34.77
-18.55
-0.15
17.22
31.04
40.34
45.66
48.46
50.18
51.57
52.47
52.23
50.28
46.60
41.80
36.89
32.71
29.56
27.01
24.20
20.23
14.68
7.79
0.34
-6.77
-12.96
-18.18
-22.94
-28.03
-34.15
-41.83
-51.25
-62.23
-74.01
-85.13
-93.45
-96.61
-92.77
-81.49
-64.08
-43.35
-22.66
-4.78
8.96
18.79
25.99
31.97
37.63
43.05
47.78
51.31
53.44
54.42
54.79
55.07
55.43
55.52
54.66
52.11
47.47
40.92
33.26
25.54
18.64
12.92
8.13
3.58
-1.50
-7.79
-15.65
-25.09
-35.66
-46.23
-55.00
-59.74
-58.42
-50.04
-35.13
-15.84
4.72
23.45
38.31
48.73
55.47
60.01
63.71
67.27
70.59
73.07
74.09
73.40
71.17
67.73
63.27
57.56
50.21
41.04
30.51
19.79
10.39
3.46
-0.76
-3.01
-4.69
-7.20
-11.38
-17.40
-24.97
-33.71
-43.27
-53.11
-62.22
-68.93
-71.32
-67.93
-58.55
-44.49
-28.22
-12.45
0.77
10.65
17.48
22.13
25.42
27.82
29.50
30.58
31.36
32.16
33.16
34.11
34.41
33.40
30.64
26.30
21.12
16.07
11.93
8.89
6.42
3.47
-1.20
-8.50
-18.75
-31.37
-44.95
-57.36
-66.31
-69.93
-67.46
-59.44
-47.51
-33.71
-19.66
-6.08
7.16
20.53
34.11
47.39
59.40
69.33
77.24
84.41
93.21
106.35
125.71
151.16
179.87
206.64
225.33
230.94
221.57
199.05
168.16
134.58
102.59
73.63
46.42
18.19
-13.51
-49.69
-89.68
-131.72
-173.71
-213.70
-249.81
-280.10
-302.45
-314.95
-316.43
-306.86
-287.39
-259.91
-226.57
-189.37
-150.25
-111.40
-75.31
-44.57
-21.21
-6.16
1.12
2.30
-0.37
-4.87
-9.80
-14.54
-18.99
-23.17
-27.08
-30.63
-33.71
-36.25
-38.27
-39.90
-41.35
-42.87
-44.77
-47.37
-50.74
-54.55
-57.85
-59.07
-56.37
-48.23
-34.17
-15.04
6.99
29.14
48.85
64.53
75.88
83.55
88.63
91.96
93.92
94.45
93.47
91.12
87.88
84.43
81.33
78.77
76.49
73.87
70.20
64.99
58.12
49.94
41.07
32.19
23.74
15.81
8.13
0.19
-8.59
-18.69
-30.25
-42.81
-55.08
-64.84
-69.37
-66.22
-54.20
-34.10
-8.63
18.26
42.75
62.27
76.13
85.27
91.35
95.81
99.28
101.54
101.99
100.15
96.04
90.11
83.05
75.42
67.48
59.23
50.60
41.73
33.01
25.03
18.26
12.83
8.39
4.23
-0.45
-6.29
-13.66
-22.67
-33.28
-45.18
-57.48
-68.59
-76.29
-78.37
-73.48
-61.82
-45.21
-26.54
-8.75
6.07
17.03
24.23
28.33
29.96
29.64
27.82
25.06
22.10
19.72
18.43
18.27
18.69
18.74
17.40
14.07
8.82
2.39
-4.12
-9.73
-14.07
-17.44
-20.62
-24.53
-29.79
-36.65
-44.77
-53.30
-60.82
-65.53
-65.65
-59.99
-48.59
-32.88
-15.44
0.82
13.66
22.05
26.20
27.10
25.81
23.13
19.59
15.64
11.92
9.04
7.38
6.73
6.30
5.05
2.22
-2.31
-7.99
-13.88
-19.22
-23.82
-28.16
-33.31
-40.49
-50.52
-63.32
-77.50
-90.37
-98.59
-99.16
-90.61
-73.65
-51.14
-27.03
-5.14
12.03
23.76
30.73
34.32
35.84
36.10
35.54
34.39
32.94
31.53
30.38
29.35
27.90
25.28
20.88
14.62
7.14
-0.45
-7.03
-12.05
-15.83
-19.51
-24.58
-32.23
-42.76
-55.22
-67.49
-76.68
-79.92
-75.31
-62.55
-43.20
-20.25
2.89
23.39
39.71
51.73
60.20
66.12
70.20
72.79
74.01
74.13
73.56
72.81
72.15
71.53
70.46
68.31
64.66
59.56
53.55
47.48
42.08
37.54
33.37
28.48
21.58
11.63
-1.63
-17.48
-34.08
-48.85
-59.12
-62.96
-60.04
-51.89
-41.61
-32.84
-28.48
-29.76
-35.93
-44.84
-53.93
-61.14
-65.46
-66.84
-65.89
-63.54
-60.79
-58.70
-58.19
-59.85
-63.68
-69.04
-74.75
-79.56
-82.57
-83.61
-83.18
-82.35
-82.30
-84.00
-87.77
-92.88
-97.41
-98.43
-92.81
-78.32
-54.66
-23.87
10.18
43.08
71.27
92.94
108.09
117.85
123.61
126.42
126.96
125.78
123.51
120.88
118.38
115.93
112.92
108.52
102.15
93.94
84.81
76.01
68.70
63.29
59.20
55.10
49.24
40.15
27.19
10.90
-6.93
-23.49
-35.70
-41.01
-38.31
-28.25
-13.13
3.92
20.03
33.56
44.45
53.93
63.58
74.18
84.96
93.64
97.42
94.52
85.47
73.35
62.69
57.39
58.89
65.28
72.34
75.62
72.51
63.13
49.69
34.86
20.26
5.83
-9.64
-27.61
-48.79
-72.83
-98.13
-122.11
-141.46
-152.77
-153.54
-143.15
-123.38
-98.06
-72.00
-49.63
-34.08
-26.67
-26.90
-32.36
-38.96
-41.61
-35.73
-19.12
6.57
35.79
60.74
74.18
72.05
54.63
26.11
-7.39
-39.82
-66.62
-85.20
-94.73
-95.82
-90.29
-80.94
-71.04
-63.72
-61.16
-64.07
-71.57
-81.38
-90.37
-95.25
-93.25
-82.90
-64.37
-39.73
-12.40
13.66
35.24
50.68
60.29
65.76
69.22
72.17
75.03
77.31
78.20
77.27
74.89
72.02
69.72
68.57
68.23
67.63
65.40
60.59
53.18
43.99
34.34
25.36
17.50
10.43
3.26
-4.93
-14.83
-26.73
-40.46
-55.42
-70.35
-83.36
-92.07
-94.27
-88.76
-75.96
-57.99
-38.09
-19.43
-4.22
6.76
13.96
18.34
20.76
21.66
21.31
20.06
18.64
17.87
18.28
19.68
21.09
21.17
18.89
14.03
7.35
0.26
-5.96
-10.70
-14.28
-17.80
-22.70
-30.14
-40.70
-54.04
-68.80
-82.64
-92.62
-95.87
-90.57
-76.69
-56.23
-32.78
-10.43
7.58
19.72
26.31
28.88
29.21
28.56
27.43
25.83
23.84
21.96
21.04
21.82
24.39
27.99
31.17
32.42
30.87
26.61
20.69
14.58
9.64
6.58
5.30
5.01
4.60
2.96
-0.71
-6.58
-14.19
-22.31
-29.24
-33.14
-32.58
-26.98
-16.87
-3.72
10.56
24.21
36.08
45.83
53.69
60.09
65.25
69.03
71.17
71.54
70.40
68.42
66.37
64.73
63.40
61.75
59.01
54.69
48.97
42.64
36.78
32.24
29.28
27.47
25.84
23.28
18.80
11.77
2.01
-10.03
-23.04
-34.91
-43.10
-45.33
-40.56
-29.43
-14.23
2.01
16.59
28.11
36.66
43.31
49.20
54.81
59.84
63.45
64.91
64.02
61.15
57.11
52.70
48.48
44.50
40.46
35.81
30.09
23.14
15.23
6.92
-1.17
-8.70
-15.73
-22.69
-30.11
-38.46
-48.05
-59.17
-72.05
-86.67
-102.36
-117.45
-129.49
-135.89
-134.96
-126.64
-112.60
-95.55
-78.15
-62.09
-47.77
-34.69
-22.08
-9.57
2.68
14.11
24.16
32.55
39.30
44.58
48.53
51.11
52.15
51.48
49.13
45.42
40.98
36.60
32.91
30.21
28.35
26.76
24.70
21.53
16.78
10.30
2.09
-7.58
-18.09
-28.35
-36.74
-41.44
-40.98
-34.91
-24.05
-10.41
3.54
15.72
25.04
31.45
35.61
38.26
39.82
40.34
39.82
38.45
36.77
35.44
34.83
34.89
34.98
34.32
32.34
28.94
24.57
19.83
15.25
11.01
6.96
2.75
-1.96
-7.45
-13.99
-21.82
-31.00
-41.14
-51.09
-59.05
-63.01
-61.39
-53.81
-41.28
-25.94
-10.29
3.57
14.45
22.22
27.51
31.25
34.25
36.94
39.29
40.99
41.64
40.96
39.01
36.13
32.85
29.59
26.50
23.41
19.91
15.63
10.48
4.73
-1.03
-6.10
-9.88
-12.20
-13.34
-14.05
-15.41
-18.54
-24.37
-33.24
-44.59
-56.90
-67.80
-74.78
-75.89
-70.50
-59.59
-45.49
-31.09
-18.99
-10.83
-7.05
-7.15
-10.16
-15.07
-21.06
-27.52
-33.84
-39.29
-42.90
-43.73
-41.13
-35.21
-26.95
-17.95
-10.03
-4.42
-1.40
-0.22
0.47
2.03
5.18
9.78
14.88
19.03
20.71
18.78
12.85
3.55
-7.31
-17.02
-22.59
-21.65
-13.32
1.30
19.20
36.28
48.59
53.65
51.19
43.10
32.50
22.47
14.93
10.25
7.72
6.44
6.07
7.04
9.98
15.04
21.42
27.50
31.63
32.84
31.34
28.21
24.76
21.92
19.81
17.82
14.99
10.28
2.92
-7.47
-20.72
-35.96
-51.48
-64.88
-73.54
-75.35
-69.52
-56.97
-40.14
-22.24
-6.17
6.30
14.94
20.64
24.79
28.52
32.36
36.24
39.85
42.88
45.18
46.65
47.21
46.62
44.67
41.30
36.74
31.46
26.06
21.04
16.71
13.04
9.82
6.60
2.87
-1.88
-8.07
-15.95
-25.62
-36.98
-49.56
-62.28
-73.37
-80.64
-82.05
-76.50
-64.46
-47.91
-29.81
-13.03
0.46
10.11
16.55
20.96
24.46
27.59
30.31
32.21
32.85
32.01
29.85
26.81
23.42
20.03
16.76
13.44
9.91
6.13
2.30
-1.21
-4.04
-6.11
-7.61
-9.04
-10.99
-13.97
-18.34
-24.34
-32.01
-41.19
-51.33
-61.23
-69.15
-73.08
-71.41
-63.60
-50.56
-34.41
-17.87
-3.26
8.08
15.95
20.94
23.84
25.27
25.51
24.69
23.04
21.01
19.12
17.67
16.67
15.72
14.26
11.79
8.13
3.52
-1.48
-6.12
-9.84
-12.44
-14.34
-16.38
-19.70
-25.32
-33.77
-44.62
-56.40
-66.76
-72.97
-72.83
-65.32
-51.14
-32.49
-12.46
5.98
20.91
31.83
39.51
45.22
49.99
54.19
57.51
59.36
59.42
57.87
55.31
52.44
49.70
46.99
43.84
39.63
33.99
26.98
19.18
11.34
4.21
-1.90
-7.22
-12.40
-18.25
-25.40
-34.21
-44.66
-56.44
-68.83
-80.58
-89.80
-94.31
-92.28
-83.06
-67.62
-48.48
-28.79
-11.28
2.62
12.98
20.77
27.15
32.79
37.65
41.31
43.37
43.82
42.99
41.36
39.29
36.77
33.46
28.89
22.81
15.39
7.34
-0.40
-6.97
-12.05
-15.99
-19.84
-24.88
-32.27
-42.62
-55.76
-70.74
-85.85
-98.85
-107.30
-109.14
-103.23
-89.77
-70.42
-47.85
-24.98
-4.19
13.20
26.98
37.66
45.87
52.02
56.22
58.47
59.02
58.44
57.51
56.79
56.33
55.57
53.52
49.33
42.73
34.29
25.13
16.47
9.09
2.96
-2.66
-9.04
-17.51
-29.05
-43.81
-60.80
-77.71
-91.33
-98.42
-96.88
-86.60
-69.75
-49.92
-30.79
-14.84
-2.63
6.95
15.68
25.08
35.68
46.96
57.74
66.60
72.39
74.35
72.40
67.08
59.49
51.06
43.20
37.08
33.42
32.52
34.21
37.92
42.69
47.36
50.75
51.89
50.19
45.44
37.74
27.53
15.61
3.39
-7.04
-13.24
-13.02
-5.22
9.65
29.52
51.35
72.22
90.28
105.10
117.41
128.29
138.45
147.74
155.31
160.21
161.91
160.71
157.45
153.06
148.00
142.05
134.44
124.29
111.17
95.27
77.40
58.60
39.74
21.26
3.23
-14.30
-31.08
-46.58
-60.20
-71.56
-80.54
-86.89
-89.80
-87.57
-78.03
-59.59
-32.36
1.19
36.65
68.98
94.06
109.93
116.92
116.97
112.56
105.87
98.45
91.36
85.46
81.43
79.66
79.81
80.66
80.17
75.91
65.90
49.37
27.34
2.61
-20.89
-39.20
-49.65
-51.61
-46.78
-38.37
-30.07
-24.74
-23.76
-26.90
-33.08
-41.09
-50.22
-60.35
-71.47
-83.09
-93.99
-102.50
-107.28
-108.16
-106.47
-104.62
-105.25
-110.10
-119.31
-131.52
-144.46
-156.07
-165.25
-172.24
-178.45
-185.99
-197.07
-213.46
-235.96
-263.95
-295.08
-325.41
-350.21
-365.21
-368.11
-359.67
-343.79
-326.40
-313.54
-309.27
-314.35
-326.04
-339.15
-347.70
-346.79
-333.75
-308.47
-272.83
-229.62
-181.44
-130.11
-76.70
-22.31
31.19
80.90
123.30
155.39
175.77
185.14
185.94
181.23
173.36
163.32
150.80
135.00
115.68
93.90
72.01
52.89
38.98
31.39
29.45
31.09
33.49
33.95
30.61
22.83
11.29
-2.01
-14.14
-21.79
-22.15
-13.85
2.52
24.53
48.73
71.82
91.58
107.13
118.62
126.55
131.31
133.17
132.53
130.13
127.07
124.56
123.55
124.53
127.42
131.51
135.70
138.78
139.71
137.98
133.66
127.27
119.38
110.30
99.89
87.83
73.81
57.76
39.85
20.44
0.14
-19.92
-37.77
-50.82
-56.43
-53.00
-40.82
-22.25
-1.12
18.71
34.49
45.36
52.07
56.23
59.31
62.10
64.63
66.57
67.64
67.84
67.48
66.83
65.98
64.68
62.45
58.83
53.68
47.18
39.86
32.32
25.03
18.09
11.22
3.91
-4.34
-13.80
-24.37
-35.57
-46.59
-56.30
-63.35
-66.28
-63.87
-55.53
-41.66
-23.71
-3.79
16.03
34.28
50.33
64.07
75.35
83.62
87.93
87.37
81.62
71.17
57.18
41.09
24.09
7.05
-9.24
-23.86
-35.48
-42.68
-44.39
-40.46
-31.85
-20.55
-9.07
-0.00
4.32
2.13
-7.42
-23.85
-44.88
-66.49
-83.75
-92.17
-89.05
-74.32
-50.33
-20.67
11.24
43.13
74.02
103.39
130.15
152.06
166.26
170.53
164.58
150.46
132.07
113.72
98.68
88.29
82.10
78.56
75.76
71.81
64.79
52.60
33.17
5.26
-30.76
-72.38
-115.33
-154.75
-186.65
-208.87
-220.93
-222.97
-214.55
-194.10
-159.82
-111.42
-51.71
13.36
76.26
130.46
172.59
202.94
224.29
239.71
250.81
257.29
257.76
251.23
238.13
220.47
200.99
182.10
164.99
149.41
134.16
117.99
100.33
81.61
63.00
45.61
29.96
15.68
1.88
-12.18
-26.59
-40.62
-53.02
-62.62
-68.87
-72.16
-73.64
-74.80
-76.77
-79.92
-83.72
-87.11
-89.02
-88.95
-87.10
-84.17
-81.00
-78.10
-75.56
-73.19
-70.76
-68.24
-65.71
-63.26
-60.86
-58.33
-55.46
-52.22
-48.84
-45.71
-43.21
-41.52
-40.58
-40.13
-39.80
-39.33
-38.53
-37.33
-35.79
-34.05
-32.39
-31.11
-30.45
-30.39
-30.74
-31.08
-31.06
-30.53
-29.59
-28.41
-27.10
-25.55
-23.48
-20.59
-16.71
-11.84
-6.17
0.07
6.54
12.81
18.24
22.01
23.26
21.38
16.24
8.27
-1.56
-12.11
-22.22
-31.02
-37.93
-42.65
-45.17
-45.78
-45.03
-43.80
-43.13
-44.00
-46.94
-51.87
-58.00
-64.19
-69.41
-73.16
-75.65
-77.52
-79.31
-81.02
-81.93
-80.94
-77.29
-71.06
-63.50
-56.62
-52.56
-52.72
-57.19
-64.66
-72.66
-78.21
-78.62
-72.42
-59.85
-43.04
-25.53
-11.15
-2.94
-2.27
-8.73
-20.68
-35.98
-52.65
-69.07
-84.00
-96.51
-106.09
-112.93
-118.05
-123.00
-129.12
-136.83
-145.33
-152.88
-157.55
-157.91
-153.52
-144.77
-132.57
-118.06
-102.32
-86.41
-71.21
-57.23
-44.38
-32.01
-19.21
-5.49
8.81
22.42
33.57
40.72
43.12
41.13
36.12
30.13
25.45
24.16
27.76
36.92
51.37
69.95
90.87
111.99
131.18
146.58
156.78
161.12
159.81
154.08
145.92
137.56
130.75
126.15
123.07
119.80
114.31
105.10
91.68
74.54
54.77
33.54
11.83
-9.37
-29.01
-45.97
-59.36
-68.77
-74.11
-74.82
-69.23
-54.78
-29.69
4.72
42.64
74.75
91.72
88.62
67.79
38.15
11.35
-3.31
-2.38
11.43
31.69
51.65
66.65
74.70
75.72
70.51
60.21
46.33
30.91
16.23
4.35
-3.41
-6.74
-6.18
-3.09
0.77
3.37
2.94
-1.59
-10.27
-22.06
-35.36
-48.55
-60.31
-69.71
-75.95
-78.16
-75.51
-67.38
-53.74
-35.45
-14.10
8.30
29.79
48.83
64.45
76.18
84.06
88.49
90.16
89.95
88.79
87.47
86.55
86.23
86.39
86.67
86.60
85.74
83.78
80.62
76.33
71.13
65.28
59.03
52.55
45.91
39.11
32.00
24.32
15.75
6.08
-4.47
-15.08
-24.23
-30.13
-31.20
-26.68
-17.04
-3.85
10.68
24.44
35.98
44.78
50.92
54.79
56.67
56.60
54.63
50.89
45.87
40.20
34.44
28.82
23.20
17.21
10.54
3.22
-4.40
-11.78
-18.53
-24.61
-30.47
-36.82
-44.32
-53.34
-63.71
-74.87
-85.97
-96.13
-104.51
-110.26
-112.48
-110.24
-102.91
-90.34
-73.10
-52.50
-30.43
-9.17
8.99
22.04
28.84
29.40
25.21
18.79
13.12
10.53
11.97
16.86
23.51
29.82
33.83
33.97
29.65
21.98
14.23
11.28
17.52
34.26
57.93
80.47
92.33
86.82
63.55
28.85
-6.84
-33.48
-45.17
-41.68
-27.25
-7.88
11.20
26.85
37.99
44.73
47.61
46.80
42.26
34.22
23.68
12.66
3.52
-1.86
-3.02
-1.23
0.94
0.85
-3.02
-10.39
-19.45
-27.85
-33.72
-36.38
-36.40
-35.18
-34.24
-34.77
-37.47
-42.61
-50.05
-59.21
-68.89
-77.31
-82.26
-81.69
-74.28
-60.07
-40.54
-18.38
3.27
21.72
35.26
43.52
47.16
47.42
45.50
42.26
38.08
33.24
28.04
22.94
18.43
14.76
11.65
8.38
4.15
-1.50
-8.35
-15.53
-22.02
-27.05
-30.61
-33.34
-36.33
-40.60
-46.86
-55.22
-65.20
-75.65
-84.82
-90.48
-90.40
-82.96
-67.87
-46.41
-21.21
4.47
27.69
46.54
60.31
69.20
73.79
74.59
72.06
66.78
59.75
52.34
46.01
41.80
39.90
39.52
39.20
37.40
33.15
26.43
18.12
9.64
2.26
-3.43
-7.69
-11.51
-16.13
-22.63
-31.67
-43.20
-56.40
-69.53
-80.15
-85.47
-83.12
-72.08
-53.17
-29.03
-3.32
20.41
39.67
53.53
62.35
67.09
68.71
67.83
64.78
59.93
53.85
47.36
41.34
36.41
32.66
29.62
26.45
22.35
16.92
10.30
3.11
-3.90
-10.15
-15.50
-20.26
-25.09
-30.78
-38.05
-47.41
-59.01
-72.37
-86.14
-98.09
-105.35
-105.17
-95.79
-77.21
-51.40
-21.84
7.56
33.39
53.60
67.63
76.03
79.88
80.22
77.86
73.33
67.16
60.06
52.90
46.55
41.51
37.62
34.12
29.90
24.07
16.40
7.47
-1.63
-9.80
-16.51
-22.01
-27.13
-32.87
-40.02
-48.93
-59.64
-71.80
-84.64
-96.71
-105.88
-109.65
-105.86
-93.62
-73.80
-48.96
-22.61
1.95
22.44
37.94
48.65
55.25
58.39
58.55
56.10
51.60
45.86
39.88
34.55
30.35
27.25
24.81
22.61
20.49
18.73
17.76
17.74
18.03
17.03
12.40
1.83
-16.09
-41.12
-71.11
-102.28
-130.12
-150.47
-160.76
-160.61
-151.51
-135.68
-114.78
-89.25
-58.59
-22.69
16.70
55.72
89.41
113.71
127.40
132.62
133.58
134.47
137.40
141.92
146.05
148.15
148.17
147.44
147.30
147.64
146.47
141.00
129.53
112.78
93.67
75.78
61.21
49.43
37.68
22.52
1.61
-25.29
-56.53
-89.29
-120.45
-147.00
-166.09
-174.99
-171.47
-154.51
-124.98
-85.97
-42.52
-0.76
33.39
55.40
62.99
56.41
38.29
13.19
-13.00
-33.90
-43.98
-40.07
-22.76
3.32
30.62
51.13
59.16
53.18
35.70
11.58
-14.38
-39.16
-61.99
-83.43
-104.02
-123.27
-139.40
-149.77
-151.68
-143.19
-123.94
-95.64
-62.15
-28.75
-0.59
18.99
29.67
34.04
36.09
39.07
43.81
48.66
50.86
48.52
41.83
32.83
24.01
16.55
9.82
2.10
-7.81
-19.31
-29.92
-36.45
-36.84
-31.36
-22.57
-14.11
-9.05
-8.73
-12.56
-18.47
-23.75
-25.66
-21.95
-11.34
5.99
28.10
51.51
72.18
86.91
94.46
95.93
94.13
92.27
92.70
96.29
102.62
110.66
119.38
128.20
136.99
145.93
154.94
163.25
169.23
170.37
163.95
147.85
121.49
86.50
46.82
8.08
-23.76
-44.16
-51.35
-46.81
-34.29
-18.15
-1.45
14.90
31.55
49.16
66.86
81.90
90.82
91.62
85.21
75.50
67.75
66.11
71.86
83.06
95.77
106.09
111.77
112.65
110.20
106.15
101.53
96.35
89.96
81.96
72.78
63.78
56.64
52.53
51.45
52.09
52.47
50.75
46.06
38.79
30.25
22.07
15.42
10.52
6.61
2.25
-4.17
-13.84
-27.11
-43.50
-61.94
-81.25
-100.63
-119.78
-138.79
-157.75
-176.46
-194.35
-210.76
-225.19
-237.49
-247.74
-256.02
-262.22
-266.05
-267.27
-265.96
-262.76
-258.93
-256.15
-256.04
-259.44
-265.73
-272.49
-275.96
-272.15
-258.48
-234.92
-204.24
-171.03
-139.90
-113.94
-93.89
-78.60
-66.11
-54.92
-44.64
-35.82
-29.34
-25.73
-24.86
-26.05
-28.52
-31.75
-35.59
-40.19
-45.68
-52.07
-59.29
-67.46
-76.93
-88.14
-100.96
-114.10
-124.91
-129.85
-125.66
-110.74
-85.99
-54.58
-20.79
11.59
40.44
65.67
88.39
109.76
129.98
148.06
162.31
171.28
174.43
172.35
166.33
157.80
147.74
136.56
124.38
111.37
98.04
85.10
73.11
61.97
50.77
38.10
22.90
5.31
-12.77
-28.04
-36.79
-36.40
-26.42
-8.89
12.36
33.06
49.94
61.52
68.14
71.21
72.30
72.48
72.14
71.22
69.55
67.14
64.21
61.06
57.98
55.13
52.62
50.52
48.88
47.61
46.50
45.13
42.92
39.17
33.21
24.77
14.38
3.65
-4.85
-8.17
-4.07
8.03
26.62
48.51
69.94
87.93
101.08
109.50
114.12
115.91
115.44
112.94
108.56
102.40
94.32
83.72
69.63
51.22
28.71
4.03
-19.35
-37.35
-46.91
-47.29
-40.53
-30.80
-23.08
-21.49
-28.04
-42.13
-60.72
-79.30
-93.21
-99.02
-95.37
-83.16
-65.02
-44.26
-23.84
-5.73
9.21
20.82
29.17
34.27
36.20
35.34
32.51
28.75
25.00
21.64
18.50
15.15
11.32
7.20
3.43
0.72
-0.63
-1.08
-1.76
-4.16
-9.63
-18.80
-31.28
-45.52
-58.96
-68.56
-71.64
-66.70
-54.02
-35.69
-14.94
4.91
21.47
33.79
42.21
47.71
51.18
53.05
53.34
52.05
49.47
46.23
43.00
40.13
37.45
34.37
30.22
24.77
18.41
11.97
6.34
1.91
-1.62
-5.22
-10.20
-17.67
-28.05
-40.75
-54.00
-65.18
-71.43
-70.55
-61.75
-46.03
-25.82
-4.21
16.09
33.46
47.48
58.51
67.06
73.42
77.70
80.07
81.14
81.96
83.48
86.04
89.07
91.19
90.85
87.24
80.76
72.95
65.89
61.14
59.14
59.03
59.09
57.63
53.63
47.02
38.67
30.13
23.31
20.24
22.65
31.35
45.57
62.68
78.83
90.47
96.00
96.70
96.13
98.17
104.77
114.77
124.39
129.28
126.81
117.27
103.41
88.72
75.52
64.10
53.04
40.48
25.31
7.80
-10.79
-28.86
-45.20
-59.47
-72.17
-84.38
-97.26
-111.56
-127.20
-143.15
-157.65
-168.83
-175.41
-177.16
-174.90
-170.07
-164.02
-157.45
-150.41
-142.57
-133.75
-124.21
-114.60
-105.62
-97.61
-90.45
-83.73
-77.14
-70.71
-64.90
-60.43
-57.93
-57.73
-59.74
-63.59
-68.62
-74.01
-78.79
-82.08
-83.33
-82.62
-80.72
-78.91
-78.35
-79.59
-82.14
-84.71
-85.68
-83.77
-78.49
-70.19
-59.80
-48.43
-37.13
-26.72
-17.95
-11.57
-8.28
-8.56
-12.48
-19.45
-28.36
-37.81
-46.48
-53.48
-58.47
-61.59
-63.20
-63.61
-62.96
-61.29
-58.63
-55.06
-50.65
-45.46
-39.37
-32.19
-23.78
-14.27
-4.04
6.47
17.07
28.11
40.43
54.96
72.19
91.73
112.31
132.16
149.61
163.49
173.25
178.73
180.03
177.38
171.30
162.79
153.21
143.98
136.01
129.28
122.90
115.56
106.15
94.32
80.64
66.32
52.73
40.89
31.14
23.14
15.96
8.37
-0.80
-12.17
-25.34
-38.59
-49.13
-53.87
-50.67
-39.25
-21.59
-1.29
17.73
32.62
42.33
47.55
49.84
50.49
49.90
47.45
42.10
33.11
20.68
5.92
-9.55
-24.19
-37.07
-47.89
-56.71
-63.50
-68.04
-69.99
-69.45
-67.31
-65.23
-65.21
-68.90
-77.13
-89.77
-105.94
-124.33
-143.19
-160.28
-172.88
-178.22
-174.19
-160.28
-137.90
-110.14
-80.78
-53.10
-29.06
-9.13
7.31
21.16
33.05
43.06
50.88
56.09
58.48
58.14
55.55
51.52
47.04
43.19
40.89
40.63
42.29
45.07
47.62
48.32
45.84
39.42
29.20
16.18
2.02
-11.13
-20.81
-24.54
-20.43
-7.75
12.58
38.14
65.62
91.67
113.71
130.11
140.09
143.36
140.04
130.81
117.21
101.73
87.30
76.38
70.06
67.63
66.94
65.34
60.88
52.98
42.69
32.05
23.32
18.06
16.57
17.94
20.05
20.14
15.46
4.13
-14.01
-36.97
-60.97
-81.54
-94.78
-98.37
-91.83
-76.29
-53.93
-27.81
-1.49
21.20
36.95
43.94
42.47
34.93
24.93
15.94
10.17
8.14
8.97
11.10
12.98
13.53
12.25
9.18
4.68
-0.87
-7.22
-14.42
-22.76
-32.58
-44.09
-57.18
-71.34
-85.71
-99.28
-111.07
-120.48
-127.41
-132.04
-134.42
-133.95
-129.25
-118.64
-101.15
-77.42
-50.06
-22.96
0.06
16.68
26.77
32.02
34.87
37.19
39.71
42.09
43.75
44.56
45.16
46.54
49.33
53.24
56.97
58.78
57.38
52.60
45.52
37.98
31.69
27.46
24.82
22.26
17.82
9.83
-2.59
-19.14
-38.23
-57.06
-72.01
-79.45
-76.79
-63.48
-41.30
-14.02
13.89
38.72
58.52
73.33
84.40
93.05
99.81
104.12
104.91
101.36
93.61
82.81
70.73
59.06
48.81
40.08
32.31
24.75
16.86
8.57
0.26
-7.55
-14.47
-20.47
-26.00
-31.85
-38.93
-48.06
-59.77
-74.10
-90.41
-107.22
-122.10
-131.99
-133.89
-125.86
-107.82
-81.85
-51.70
-21.65
4.77
25.62
40.79
51.29
58.41
62.84
64.48
62.65
56.77
46.95
34.10
19.73
5.35
-8.09
-20.21
-31.02
-40.39
-47.77
-52.37
-53.63
-51.81
-48.05
-44.12
-41.65
-41.59
-44.07
-48.64
-54.89
-62.70
-72.19
-83.15
-94.55
-104.37
-109.97
-108.89
-99.72
-82.72
-59.82
-34.06
-8.76
13.52
31.47
45.07
55.15
62.61
67.92
70.99
71.52
69.48
65.50
60.73
56.33
52.79
49.68
45.94
40.47
32.94
23.98
14.84
6.80
0.48
-4.38
-8.54
-12.81
-17.75
-23.60
-30.55
-38.73
-47.97
-57.31
-64.67
-67.27
-62.53
-49.34
-28.73
-3.74
21.67
44.09
61.74
74.67
84.10
91.38
97.12
101.03
102.35
100.50
95.64
88.74
81.19
74.37
69.07
65.41
62.86
60.63
57.95
54.42
50.05
45.28
40.63
36.49
32.89
29.55
26.03
21.89
16.77
10.14
1.24
-10.57
-25.24
-41.32
-55.94
-65.59
-67.55
-61.10
-48.01
-31.72
-15.81
-2.67
7.13
14.42
20.47
26.07
31.27
35.59
38.53
39.92
39.95
38.96
37.22
34.83
31.74
27.93
23.48
18.62
13.66
8.82
4.05
-1.04
-7.13
-15.00
-25.25
-38.03
-52.94
-69.18
-85.86
-102.44
-118.70
-134.51
-149.31
-161.74
-169.73
-171.18
-164.81
-150.81
-130.88
-107.62
-83.64
-60.80
-39.90
-20.99
-3.86
11.39
24.17
33.61
38.99
40.16
37.78
33.18
27.96
23.43
20.06
17.48
14.69
10.66
4.85
-2.50
-10.50
-17.98
-23.99
-28.22
-31.08
-33.63
-37.22
-43.12
-52.03
-63.69
-76.71
-88.58
-96.23
-96.87
-88.97
-72.91
-50.92
-26.40
-2.78
17.55
33.70
46.07
55.68
63.35
69.37
73.51
75.50
75.44
73.91
71.75
69.70
67.92
65.86
62.56
57.11
49.18
39.30
28.60
18.33
9.30
1.48
-5.90
-13.97
-23.72
-35.76
-50.20
-66.70
-84.33
-101.40
-115.36
-123.19
-122.27
-111.38
-91.46
-65.47
-37.50
-11.37
10.54
27.64
40.76
51.24
60.06
67.46
73.13
76.60
77.76
77.01
75.18
73.16
71.48
70.06
68.23
65.12
60.14
53.44
45.82
38.42
32.07
26.85
22.05
16.49
9.16
-0.45
-12.37
-26.31
-41.81
-58.11
-73.70
-86.23
-92.89
-91.34
-80.80
-62.58
-39.74
-15.97
5.64
23.39
37.07
47.33
55.00
60.62
64.42
66.58
67.44
67.57
67.51
67.50
67.39
66.58
64.31
60.01
53.62
45.73
37.40
29.81
23.69
19.04
15.02
10.25
3.25
-7.03
-20.89
-37.51
-55.08
-70.95
-82.20
-86.39
-82.31
-70.42
-52.70
-32.05
-11.37
7.23
22.74
35.12
44.78
52.10
57.23
60.15
60.97
60.10
58.27
56.18
54.20
52.16
49.41
45.19
39.13
31.51
23.16
15.15
8.21
2.38
-3.00
-9.00
-16.79
-27.22
-40.50
-55.85
-71.46
-84.61
-92.27
-92.01
-82.93
-66.09
-44.24
-20.94
0.65
18.63
32.59
43.14
51.16
57.21
61.38
63.53
63.73
62.41
60.29
57.94
55.59
52.93
49.29
44.10
37.22
29.10
20.61
12.70
5.96
0.38
-4.63
-10.06
-17.02
-26.42
-38.71
-53.58
-69.72
-84.84
-96.07
-100.71
-97.05
-85.09
-66.48
-44.13
-21.11
0.11
18.15
32.61
43.51
50.93
54.84
55.32
52.85
48.49
43.52
39.02
35.35
32.08
28.23
22.82
15.49
6.64
-2.63
-11.06
-17.74
-22.51
-25.96
-29.22
-33.66
-40.35
-49.84
-61.70
-74.42
-85.51
-92.02
-91.39
-82.40
-65.62
-43.36
-18.94
4.42
24.45
40.26
52.01
60.29
65.51
67.71
66.83
63.20
57.80
52.15
47.72
45.25
44.36
43.70
41.67
37.19
30.24
21.83
13.45
6.28
0.69
-3.90
-8.70
-15.03
-23.95
-35.93
-50.68
-67.04
-82.91
-95.51
-102.01
-100.33
-89.98
-72.35
-50.29
-27.19
-5.94
11.90
26.08
37.25
46.14
53.09
57.99
60.56
60.82
59.35
57.10
54.99
53.44
52.12
50.19
46.72
41.26
34.14
26.34
19.02
13.03
8.50
4.82
0.94
-4.35
-12.05
-22.65
-35.91
-50.63
-64.60
-74.97
-79.00
-74.93
-62.73
-44.23
-22.62
-1.37
16.87
30.95
41.17
48.72
54.79
59.95
64.00
66.37
66.66
65.13
62.69
60.40
58.92
58.08
56.89
54.18
49.23
42.24
34.29
26.78
20.70
16.28
12.85
9.31
4.48
-2.43
-11.70
-22.91
-34.95
-45.96
-53.69
-56.04
-51.77
-41.15
-25.96
-9.00
6.79
19.25
27.40
31.36
31.89
29.97
26.50
22.25
17.90
14.01
10.84
8.25
5.70
2.47
-2.01
-7.85
-14.57
-21.26
-26.89
-30.78
-32.90
-33.92
-35.11
-37.95
-43.66
-52.64
-64.16
-76.16
-85.64
-89.49
-85.57
-73.57
-55.23
-33.76
-12.63
5.61
19.96
30.76
39.04
45.71
51.09
55.09
57.52
58.49
58.42
57.93
57.45
56.96
55.98
53.73
49.59
43.38
35.64
27.42
19.88
13.74
9.00
4.89
0.22
-6.14
-14.89
-25.88
-38.03
-49.46
-57.85
-61.17
-58.36
-49.83
-37.27
-23.09
-9.39
2.65
13.00
22.23
30.83
38.75
45.34
49.84
51.83
51.54
49.64
46.89
43.75
40.15
35.68
29.88
22.71
14.62
6.47
-0.81
-6.67
-11.22
-15.23
-19.87
-26.31
-35.33
-47.11
-60.96
-75.33
-88.01
-96.47
-98.66
-93.66
-82.11
-66.08
-48.40
-31.60
-17.16
-5.25
4.86
14.02
22.62
30.33
36.40
40.21
41.63
41.18
39.71
38.00
36.45
34.89
32.75
29.44
24.70
18.78
12.35
6.21
0.84
-3.82
-8.38
-13.63
-20.27
-28.60
-38.52
-49.58
-61.02
-71.69
-80.07
-84.50
-83.59
-76.84
-65.01
-49.97
-34.01
-19.14
-6.42
4.03
12.64
19.85
25.75
30.10
32.68
33.56
33.24
32.43
31.72
31.26
30.70
29.38
26.79
22.86
18.07
13.30
9.31
6.38
4.02
1.17
-3.51
-11.02
-21.66
-34.65
-48.16
-59.54
-66.04
-65.63
-57.83
-43.97
-26.83
-9.62
5.12
16.35
24.61
31.26
37.53
43.69
48.93
51.83
51.31
47.28
40.83
33.75
27.64
23.05
19.15
14.12
5.94
-6.54
-22.99
-41.78
-60.59
-77.58
-91.95
-104.24
-115.85
-128.39
-143.06
-160.28
-179.55
-199.42
-217.38
-230.07
-233.75
-225.37
-203.69
-170.12
-128.58
-84.34
-42.26
-5.32
25.97
52.75
76.46
97.63
115.51
128.91
137.46
142.64
147.48
155.29
167.61
182.96
197.08
204.75
202.37
189.88
170.85
150.62
133.77
121.94
113.59
105.34
94.19
79.11
61.26
43.19
28.00
18.93
19.17
31.14
54.98
87.36
121.58
149.75
166.01
169.02
162.07
150.71
139.37
129.17
118.15
103.54
84.25
61.94
40.03
21.60
7.59
-3.41
-14.04
-26.60
-41.80
-58.53
-74.41
-87.05
-95.16
-99.28
-101.54
-104.76
-111.29
-122.07
-136.50
-153.10
-170.23
-186.58
-201.17
-212.98
-220.91
-224.00
-221.88
-214.99
-204.45
-191.40
-176.46
-159.59
-140.40
-118.83
-95.57
-71.98
-49.61
-29.50
-11.85
3.74
17.77
30.27
40.64
47.94
51.54
51.59
49.11
45.62
42.43
40.02
37.95
35.13
30.32
22.67
12.11
-0.52
-13.44
-24.27
-30.55
-30.44
-23.47
-10.78
5.07
21.01
34.58
44.70
51.85
57.38
62.56
67.74
72.27
75.00
75.06
72.44
68.10
63.38
59.38
56.41
53.86
50.68
46.02
39.73
32.57
25.83
20.71
17.69
16.26
15.09
12.51
7.19
-1.55
-13.53
-27.83
-42.87
-56.46
-66.07
-69.37
-64.96
-53.11
-35.87
-16.62
1.17
15.08
24.39
29.93
33.29
35.85
38.24
40.39
41.95
42.69
42.73
42.31
41.55
40.36
38.54
36.06
33.17
30.43
28.43
27.42
27.08
26.51
24.54
20.21
13.21
4.11
-5.82
-15.05
-22.40
-27.43
-30.64
-33.30
-37.00
-43.17
-52.56
-64.79
-78.09
-89.44
-95.32
-92.85
-81.00
-61.30
-37.42
-13.88
5.64
19.56
28.54
34.71
40.20
46.17
52.48
58.22
62.59
65.39
67.02
68.01
68.60
68.47
67.11
64.22
60.12
55.74
52.25
50.38
50.02
50.18
49.43
46.54
41.09
33.65
25.51
18.08
12.25
8.02
4.62
0.91
-4.04
-10.57
-18.29
-26.38
-33.96
-40.50
-45.99
-50.95
-56.26
-62.95
-71.94
-83.58
-97.17
-110.66
-120.82
-124.06
-117.75
-101.49
-77.49
-50.03
-23.87
-2.55
12.62
22.55
29.36
35.10
40.81
46.46
51.36
54.83
56.66
57.15
56.81
56.11
55.28
54.24
52.75
50.58
47.69
44.29
40.80
37.70
35.25
33.33
31.37
28.55
24.13
17.82
9.90
1.19
-7.30
-14.81
-21.08
-26.39
-31.32
-36.46
-42.26
-49.05
-57.20
-67.04
-78.54
-90.70
-101.31
-107.23
-105.52
-94.68
-75.56
-51.26
-26.04
-3.77
13.32
24.99
32.58
37.96
42.59
47.10
51.35
54.85
57.17
58.17
58.03
57.15
55.84
54.28
52.41
50.05
47.11
43.63
39.84
36.03
32.41
28.99
25.57
21.84
17.39
11.93
5.40
-1.99
-9.78
-17.38
-24.32
-30.36
-35.61
-40.48
-45.47
-51.11
-57.90
-66.31
-76.63
-88.57
-100.80
-110.82
-115.46
-111.84
-98.73
-77.25
-50.75
-23.68
-0.03
17.91
29.96
37.47
42.33
45.97
48.98
51.32
52.80
53.48
53.70
53.85
54.12
54.40
54.24
53.22
51.09
47.95
44.19
40.29
36.61
33.29
30.26
27.31
24.21
20.76
16.72
11.94
6.33
0.02
-6.67
-13.36
-19.71
-25.62
-31.27
-37.09
-43.60
-51.42
-61.01
-72.51
-85.27
-97.53
-106.50
-109.01
-102.68
-87.03
-63.90
-37.02
-10.70
11.60
28.18
39.19
45.96
50.05
52.64
54.29
55.17
55.35
55.03
54.55
54.19
54.06
54.01
53.60
52.32
49.85
46.15
41.63
36.88
32.53
28.89
25.88
22.99
19.54
14.90
8.77
1.35
-6.73
-14.59
-21.50
-27.15
-31.75
-35.99
-40.72
-46.65
-54.29
-63.86
-75.26
-87.78
-99.78
-108.62
-111.20
-104.99
-89.24
-65.56
-37.63
-9.92
13.80
31.59
43.54
51.00
55.67
58.70
60.51
61.02
60.17
58.22
55.72
53.26
51.18
49.34
47.17
43.92
39.11
32.77
25.52
18.41
12.49
8.36
5.96
4.53
2.94
0.14
-4.36
-10.33
-16.87
-22.84
-27.49
-30.74
-33.35
-36.47
-41.22
-48.30
-57.88
-69.61
-82.53
-95.02
-104.65
-108.61
-104.55
-91.52
-70.62
-44.85
-18.11
6.08
25.54
39.69
49.13
54.87
57.80
58.63
57.94
56.47
54.97
54.04
53.84
54.07
54.07
53.09
50.62
46.62
41.57
36.29
31.57
27.87
25.00
22.22
18.52
13.06
5.67
-3.09
-12.14
-20.30
-26.86
-31.84
-35.92
-40.23
-45.90
-53.78
-64.07
-76.12
-88.17
-97.58
-101.33
-96.95
-83.51
-62.16
-35.95
-8.92
15.12
33.76
46.37
53.91
58.17
60.94
63.39
65.90
68.16
69.60
69.75
68.57
66.59
64.64
63.51
63.51
64.37
65.27
65.23
63.60
60.29
55.73
50.60
45.66
41.66
39.47
40.17
44.49
51.92
59.95
64.23
60.17
45.12
20.12
-10.00
-38.40
-59.02
-68.74
-68.03
-59.68
-46.81
-31.40
-14.13
4.71
24.25
42.79
58.57
70.79
80.32
89.39
100.59
115.66
134.53
155.00
172.84
182.92
180.68
163.86
133.85
95.74
56.91
24.36
2.05
-10.61
-18.16
-26.70
-41.00
-62.53
-89.36
-117.69
-143.83
-165.50
-181.92
-192.85
-197.78
-195.70
-185.73
-168.06
-144.44
-118.01
-92.34
-70.22
-52.94
-40.27
-31.05
-24.01
-18.29
-13.59
-9.83
-6.84
-4.22
-1.39
2.08
6.13
10.23
13.56
15.37
15.30
13.40
10.04
5.63
0.38
-5.77
-13.00
-21.50
-31.33
-42.32
-54.03
-65.66
-76.05
-83.83
-87.72
-87.11
-82.26
-74.48
-65.56
-57.01
-49.42
-42.28
-34.41
-24.92
-13.93
-2.79
6.45
12.04
13.23
10.59
5.48
-0.67
-7.04
-13.59
-20.63
-28.35
-36.37
-43.99
-50.68
-56.54
-62.49
-69.80
-79.47
-91.59
-105.33
-119.21
-131.71
-141.59
-147.84
-149.49
-145.39
-134.50
-116.49
-92.31
-64.25
-35.52
-9.12
13.00
30.41
43.87
54.56
63.24
69.96
74.18
75.38
73.62
69.79
65.22
61.21
58.33
56.27
54.03
50.48
44.93
37.51
29.03
20.60
13.03
6.60
0.90
-4.82
-11.39
-19.57
-29.77
-41.97
-55.37
-68.16
-77.74
-81.20
-76.47
-63.07
-42.57
-18.06
6.88
29.38
47.99
62.69
74.32
83.83
91.76
98.17
102.85
105.75
107.15
107.67
108.05
108.77
109.78
110.49
109.99
107.57
103.04
96.92
90.11
83.40
76.98
70.21
62.01
51.27
37.36
20.22
0.30
-21.49
-43.80
-64.63
-81.28
-90.92
-91.37
-82.18
-65.10
-43.65
-21.99
-3.55
9.97
18.66
23.82
26.87
28.79
29.88
30.11
29.58
28.65
27.90
27.72
28.00
28.03
26.75
23.19
16.96
8.51
-1.01
-10.19
-17.93
-23.93
-28.78
-33.65
-39.96
-48.85
-60.86
-75.63
-91.73
-106.60
-117.03
-119.99
-113.68
-98.30
-76.20
-51.10
-26.83
-6.05
10.37
23.05
33.28
42.15
49.92
56.17
60.18
61.51
60.40
57.65
54.41
51.63
49.56
47.73
45.02
40.37
33.30
24.29
14.59
5.65
-1.56
-7.04
-11.67
-16.79
-23.73
-33.58
-47.06
-64.28
-84.39
-105.01
-122.07
-130.41
-125.24
-103.90
-67.24
-19.78
31.37
78.61
115.96
140.35
151.97
153.60
149.31
143.12
138.02
135.59
136.06
138.71
142.18
144.53
143.10
134.74
116.73
88.33
52.17
14.30
-17.42
-36.41
-40.50
-33.11
-21.72
-14.38
-15.98
-26.59
-42.61
-59.66
-75.34
-90.04
-105.40
-121.89
-137.21
-146.79
-146.10
-133.23
-110.16
-81.87
-54.10
-30.84
-13.12
0.57
12.82
25.65
39.60
53.77
66.48
76.34
82.91
86.86
89.62
92.57
96.40
100.73
104.37
106.00
104.91
101.44
96.84
92.58
89.52
87.35
84.70
79.77
71.14
58.35
41.91
23.05
3.31
-15.61
-31.83
-43.39
-48.61
-46.65
-38.05
-24.87
-10.10
3.26
13.24
19.34
22.41
23.99
25.50
27.77
30.84
34.19
37.03
38.54
38.06
35.27
30.19
23.13
14.56
4.92
-5.56
-16.87
-29.08
-42.16
-55.75
-69.16
-81.50
-92.03
-100.38
-106.78
-112.00
-117.14
-123.31
-131.18
-140.61
-150.25
-157.55
-159.15
-151.88
-133.99
-106.05
-71.19
-34.19
-0.08
27.62
47.73
61.23
70.32
77.00
82.28
85.89
86.93
84.65
79.03
70.98
62.01
53.74
47.30
43.04
40.46
38.52
36.01
31.95
25.91
17.93
8.45
-1.90
-12.51
-22.84
-32.48
-41.21
-49.03
-56.24
-63.42
-71.10
-79.37
-87.38
-93.22
-94.34
-88.43
-74.54
-53.70
-28.87
-4.01
17.26
32.82
42.41
47.22
48.91
48.71
46.99
43.54
38.06
30.70
22.21
13.68
6.11
0.06
-4.54
-8.29
-11.96
-16.21
-21.30
-27.01
-32.82
-38.18
-42.83
-46.92
-50.97
-55.61
-61.34
-68.38
-76.62
-85.60
-94.34
-101.24
-104.15
-100.81
-89.79
-71.22
-47.10
-20.89
3.70
23.87
38.42
47.77
53.12
55.66
55.97
54.07
49.81
43.31
35.23
26.63
18.62
11.96
6.77
2.54
-1.68
-6.79
-13.27
-20.89
-28.74
-35.63
-40.45
-42.62
-42.24
-39.98
-36.80
-33.72
-31.66
-31.46
-33.75
-38.71
-45.62
-52.60
-56.88
-55.54
-46.61
-29.92
-7.33
17.96
42.43
63.36
79.40
90.54
97.63
101.80
104.03
105.00
105.01
104.17
102.38
99.58
95.82
91.33
86.51
81.71
77.15
72.77
68.34
63.52
58.14
52.31
46.43
40.99
36.42
32.80
29.75
26.57
22.24
15.73
6.21
-6.67
-22.30
-38.91
-53.60
-62.95
-64.03
-55.62
-38.74
-16.48
7.10
28.37
45.29
57.67
66.64
73.68
79.72
84.68
87.77
88.04
85.05
79.26
71.95
64.75
59.11
55.68
54.26
53.95
53.63
52.37
49.58
44.90
38.06
28.78
16.93
2.87
-12.45
-27.67
-41.51
-53.32
-63.19
-71.53
-78.36
-82.70
-82.60
-75.86
-61.18
-39.12
-12.24
15.62
40.64
60.15
73.18
80.21
82.43
80.99
76.69
70.13
61.89
52.81
43.81
35.69
28.93
23.57
19.41
16.16
13.53
11.25
8.98
6.31
2.94
-1.19
-5.88
-10.71
-15.27
-19.38
-23.19
-27.12
-31.77
-37.84
-45.84
-55.90
-67.37
-78.73
-87.65
-91.63
-88.85
-79.07
-64.05
-47.16
-32.41
-23.09
-20.83
-25.13
-33.92
-44.37
-53.94
-61.05
-65.24
-66.91
-66.82
-65.64
-63.67
-60.84
-56.95
-51.87
-45.79
-39.19
-32.85
-27.59
-24.14
-22.96
-24.14
-27.40
-32.19
-37.79
-43.49
-48.68
-52.99
-56.44
-59.48
-62.92
-67.72
-74.54
-83.30
-92.84
-100.98
-105.04
-102.80
-93.37
-77.79
-58.74
-39.75
-23.85
-12.64
-5.88
-2.02
0.81
3.79
6.96
9.47
10.23
8.75
5.39
1.20
-2.72
-5.78
-8.13
-10.56
-13.96
-18.94
-25.50
-33.23
-41.48
-49.72
-57.61
-64.97
-71.75
-77.97
-83.87
-89.98
-96.94
-105.12
-113.98
-121.62
-125.07
-121.10
-107.53
-84.17
-53.12
-18.08
16.89
48.61
75.42
97.09
114.16
127.21
136.47
141.89
143.52
141.85
137.90
132.96
128.15
124.09
120.61
116.96
112.21
105.71
97.41
87.87
78.02
68.71
60.38
53.02
46.18
39.13
31.00
20.83
7.87
-7.98
-25.73
-43.15
-57.07
-64.40
-63.13
-53.16
-36.30
-15.56
5.88
25.68
42.62
56.47
67.47
75.87
81.80
85.29
86.52
85.86
83.91
81.31
78.57
75.97
73.43
70.57
66.80
61.53
54.38
45.30
34.66
23.15
11.54
0.50
-9.52
-18.36
-26.20
-33.47
-40.79
-48.74
-57.51
-66.55
-74.47
-79.15
-78.51
-71.14
-57.01
-37.39
-14.55
9.11
31.60
51.69
68.79
82.71
93.50
101.38
106.75
110.20
112.44
114.12
115.76
117.67
119.92
122.31
124.31
125.03
123.35
118.16
108.71
94.91
77.39
57.41
36.55
16.32
-2.16
-18.24
-31.75
-42.75
-51.43
-58.16
-63.60
-68.75
-74.74
-82.21
-90.62
-98.06
-101.65
-98.73
-88.10
-70.74
-49.61
-28.61
-11.20
0.52
6.03
5.95
1.36
-6.63
-17.06
-28.97
-41.37
-53.24
-63.82
-72.66
-79.79
-85.49
-90.16
-94.16
-97.62
-100.41
-102.21
-102.59
-101.18
-97.89
-92.96
-86.91
-80.35
-73.83
-67.75
-62.42
-58.25
-55.72
-55.27
-56.89
-59.88
-62.74
-63.60
-60.84
-53.82
-43.17
-30.55
-18.08
-7.53
0.12
4.83
7.17
7.87
7.46
6.19
4.05
1.01
-2.88
-7.45
-12.60
-18.28
-24.58
-31.66
-39.62
-48.29
-57.16
-65.33
-71.76
-75.61
-76.62
-75.33
-73.02
-71.30
-71.75
-75.56
-83.26
-94.50
-107.74
-120.10
-127.61
-126.10
-112.63
-86.85
-51.53
-11.92
26.05
57.77
81.36
97.66
109.22
118.64
127.43
135.61
142.29
146.45
147.64
146.08
142.47
137.54
131.72
125.10
117.49
108.73
98.76
87.72
75.92
63.64
51.06
38.29
25.35
12.36
-0.39
-12.52
-23.69
-33.89
-43.39
-52.49
-60.94
-67.62
-70.44
-67.07
-55.92
-36.96
-12.08
15.48
42.18
65.32
83.70
97.62
108.29
116.94
124.23
130.08
133.90
135.31
134.48
132.28
129.85
127.93
126.39
124.29
120.52
114.48
106.68
98.58
91.99
88.37
88.13
90.58
94.22
97.17
97.57
93.75
84.31
68.21
45.19
16.34
-15.57
-46.31
-71.24
-86.84
-92.05
-88.76
-81.09
-73.54
-69.30
-69.13
-71.58
-74.10
-74.48
-71.75
-66.25
-59.07
-51.37
-43.94
-37.13
-31.14
-26.14
-22.43
-20.27
-19.77
-20.73
-22.70
-25.11
-27.68
-30.52
-34.28
-39.91
-48.38
-60.23
-75.36
-92.99
-111.95
-131.09
-149.70
-167.58
-184.75
-200.81
-214.33
-222.69
-222.70
-211.85
-189.45
-157.29
-119.19
-79.70
-42.65
-10.19
17.13
39.67
57.78
71.42
80.29
84.48
84.82
82.87
80.34
78.37
77.16
76.06
74.00
70.19
64.51
57.60
50.56
44.41
39.65
35.99
32.52
28.02
21.35
11.78
-0.91
-16.29
-33.10
-49.17
-61.62
-67.48
-64.76
-53.22
-34.75
-12.83
8.68
26.86
40.47
49.94
56.65
61.91
66.39
69.98
72.16
72.53
71.13
68.41
65.03
61.45
57.76
53.52
48.12
40.98
31.99
21.63
10.77
0.35
-9.02
-17.28
-24.94
-32.79
-41.58
-51.85
-63.84
-77.45
-92.07
-106.40
-118.37
-125.39
-125.13
-116.42
-99.93
-78.17
-54.65
-32.73
-14.49
-0.29
10.98
21.07
31.48
42.85
54.87
66.60
77.03
85.34
91.17
94.52
95.53
94.31
90.86
85.21
77.57
68.51
58.86
49.49
40.98
33.49
26.76
20.27
13.51
6.00
-2.69
-13.07
-25.63
-40.54
-57.09
-73.41
-86.61
-93.45
-91.57
-80.36
-61.39
-37.89
-13.68
8.05
25.50
38.47
47.77
54.51
59.51
62.99
64.88
65.14
64.01
62.10
60.07
58.33
56.68
54.43
50.72
44.97
37.31
28.47
19.52
11.41
4.51
-1.50
-7.47
-14.38
-23.05
-33.91
-46.96
-61.76
-77.21
-91.48
-102.04
-106.10
-101.48
-87.46
-65.40
-38.47
-10.70
14.27
34.23
48.76
58.71
65.37
69.73
72.24
72.96
71.97
69.58
66.21
62.25
57.72
52.34
45.74
37.81
28.94
19.86
11.38
4.00
-2.27
-7.81
-13.16
-18.77
-24.91
-31.82
-39.88
-49.89
-62.89
-79.74
-100.31
-122.78
-143.51
-157.71
-160.91
-150.63
-127.51
-95.35
-59.94
-27.26
-1.68
14.96
23.38
26.05
26.09
26.29
28.51
33.45
40.75
49.25
57.46
64.02
67.98
68.93
66.89
62.20
55.41
47.17
38.24
29.39
21.23
14.09
7.86
2.17
-3.57
-9.99
-17.54
-26.40
-36.32
-46.61
-56.07
-63.16
-66.27
-64.24
-56.73
-44.55
-29.44
-13.62
0.78
12.28
20.30
25.01
27.04
27.24
26.42
25.36
24.73
25.09
26.79
29.84
33.95
38.53
42.83
45.98
47.25
46.13
42.59
37.05
30.32
23.34
16.88
11.34
6.73
2.82
-0.75
-4.42
-8.58
-13.50
-18.98
-24.12
-27.19
-26.10
-19.14
-5.78
12.97
34.77
56.83
76.83
93.65
107.36
118.78
128.69
137.35
144.39
149.10
150.97
150.05
147.03
142.91
138.56
134.24
129.54
123.61
115.68
105.50
93.47
80.35
66.88
53.45
40.02
26.30
12.00
-3.11
-19.33
-37.14
-57.16
-79.67
-104.01
-128.16
-148.93
-162.85
-167.45
-162.20
-148.72
-130.09
-109.62
-89.80
-71.77
-55.55
-40.82
-27.47
-15.89
-6.69
-0.31
3.29
4.53
3.99
2.20
-0.48
-3.86
-7.86
-12.58
-18.37
-25.73
-35.01
-46.00
-57.66
-68.25
-75.99
-79.76
-79.69
-77.12
-74.12
-72.68
-74.00
-78.01
-83.41
-87.99
-89.33
-85.52
-75.85
-61.10
-43.29
-25.10
-8.87
4.12
13.88
21.47
28.20
34.93
41.71
47.86
52.42
54.88
55.52
55.35
55.67
57.28
59.89
62.09
61.86
57.50
48.32
34.98
19.02
2.21
-14.14
-29.32
-42.95
-54.60
-63.91
-70.90
-76.58
-83.07
-92.78
-107.08
-124.93
-142.55
-154.48
-155.59
-143.32
-118.79
-86.19
-50.98
-17.79
10.99
35.05
55.15
71.79
84.77
93.38
97.35
97.44
95.27
92.72
90.91
89.85
88.62
86.00
81.24
74.36
66.08
57.39
49.03
41.23
33.64
25.44
15.74
3.78
-10.68
-27.09
-44.00
-59.01
-69.32
-72.38
-66.81
-53.00
-33.16
-10.62
11.26
30.17
45.32
57.23
66.89
75.01
81.57
86.06
88.03
87.51
85.09
81.64
77.88
74.18
70.49
66.58
62.15
57.01
51.04
44.14
36.26
27.37
17.56
7.00
-4.06
-15.36
-26.68
-37.97
-49.37
-61.24
-73.86
-87.03
-99.70
-109.95
-115.45
-114.26
-105.70
-90.65
-71.31
-50.34
-30.01
-11.63
4.49
18.69
31.45
43.03
53.45
62.50
69.90
75.39
78.81
80.13
79.50
77.20
73.58
68.88
63.20
56.36
48.02
37.90
26.04
13.00
-0.11
-12.00
-21.51
-28.19
-32.45
-35.49
-38.85
-43.94
-51.59
-61.92
-74.24
-87.14
-98.63
-106.34
-108.01
-102.19
-88.80
-69.44
-47.09
-25.26
-6.86
6.58
15.18
20.29
23.67
26.78
30.42
34.64
39.06
43.14
46.32
48.22
48.63
47.54
45.16
41.93
38.40
35.02
32.02
29.32
26.57
23.33
19.21
14.07
8.05
1.47
-5.23
-11.81
-18.22
-24.83
-32.29
-41.38
-52.56
-65.49
-78.74
-89.84
-95.95
-94.76
-85.51
-69.35
-49.00
-27.79
-8.53
7.31
19.65
29.37
37.43
44.35
49.98
53.74
55.15
54.19
51.41
47.73
44.00
40.72
37.83
34.87
31.34
26.98
21.97
16.82
12.08
8.03
4.47
0.80
-3.76
-9.83
-17.74
-27.40
-38.41
-50.01
-60.94
-69.43
-73.34
-70.75
-60.67
-43.70
-22.10
0.80
21.54
37.53
47.60
51.88
51.36
47.25
40.65
32.44
23.32
13.88
4.52
-4.55
-13.26
-21.66
-29.71
-37.25
-44.01
-49.75
-54.37
-57.98
-61.01
-64.21
-68.60
-75.19
-84.55
-96.15
-108.17
-117.83
-122.35
-120.19
-111.77
-99.34
-85.85
-73.56
-63.10
-53.40
-42.59
-29.14
-12.60
6.40
26.69
47.07
66.60
84.34
99.19
109.85
115.32
115.40
111.10
104.50
98.16
94.18
93.40
94.99
96.94
96.89
93.09
85.06
73.62
60.40
47.13
35.14
24.96
16.47
9.01
1.64
-6.68
-16.66
-28.30
-40.45
-50.87
-56.82
-56.01
-47.57
-32.55
-13.57
6.16
23.92
38.25
48.93
56.48
61.48
64.15
64.37
62.10
57.66
51.83
45.61
39.76
34.54
29.59
24.21
17.70
9.80
0.81
-8.45
-16.97
-23.94
-29.11
-32.93
-36.36
-40.56
-46.53
-54.73
-65.00
-76.42
-87.40
-95.97
-100.09
-98.27
-90.04
-76.16
-58.45
-39.25
-20.68
-4.19
9.68
21.04
30.26
37.54
42.85
46.03
47.09
46.35
44.50
42.28
40.20
38.25
35.93
32.55
27.74
21.71
15.27
9.41
4.79
1.38
-1.61
-5.36
-10.93
-18.94
-29.24
-41.04
-52.91
-63.08
-69.70
-71.27
-67.07
-57.46
-43.77
-27.93
-11.82
3.19
16.39
27.61
36.76
43.71
48.21
50.17
49.89
48.07
45.57
43.04
40.70
38.25
35.12
30.84
25.27
18.76
11.99
5.66
0.20
-4.46
-8.92
-14.06
-20.75
-29.49
-40.16
-51.88
-63.11
-71.98
-76.70
-76.11
-69.93
-58.93
-44.59
-28.68
-12.83
1.87
14.86
25.92
34.91
41.64
45.87
47.57
47.09
45.15
42.68
40.39
38.48
36.56
33.93
30.00
24.69
18.52
12.32
6.80
2.20
-1.84
-6.01
-11.05
-17.55
-25.73
-35.51
-46.26
-56.79
-65.38
-70.11
-69.42
-62.73
-50.74
-35.19
-18.32
-2.09
12.30
24.42
34.33
42.19
47.99
51.67
53.33
53.36
52.48
51.44
50.69
50.15
49.31
47.44
44.08
39.32
33.70
27.97
22.65
17.70
12.54
6.31
-1.67
-11.69
-23.41
-35.95
-47.99
-57.93
-64.20
-65.57
-61.55
-52.68
-40.44
-26.77
-13.54
-1.88
7.89
16.04
22.82
28.13
31.47
32.32
30.68
27.26
23.35
20.25
18.63
18.26
18.10
16.88
13.63
8.20
1.11
-6.75
-14.60
-22.22
-29.92
-38.33
-48.07
-59.48
-72.47
-86.46
-100.30
-112.29
-120.33
-122.42
-117.28
-104.93
-86.91
-65.81
-44.46
-25.01
-8.52
5.02
16.12
25.16
32.17
36.89
39.27
39.60
38.63
37.16
35.66
33.99
31.56
27.66
21.99
14.91
7.33
0.32
-5.38
-9.71
-13.37
-17.49
-23.25
-31.37
-41.88
-53.99
-66.15
-76.35
-82.55
-83.10
-77.18
-65.03
-47.81
-27.30
-5.49
15.88
35.51
52.62
66.78
77.62
84.80
88.03
87.40
83.53
77.67
71.24
65.38
60.43
55.88
50.67
43.99
35.78
26.90
18.76
12.60
8.95
7.29
6.32
4.40
0.04
-7.71
-18.94
-32.70
-47.08
-59.50
-67.31
-68.66
-63.13
-51.94
-37.59
-22.93
-10.25
-0.60
6.19
11.04
14.94
18.46
21.67
24.46
26.92
29.37
32.22
35.56
38.97
41.74
43.24
43.45
43.11
43.44
45.46
49.44
54.62
59.45
62.06
60.97
55.52
46.27
34.96
24.19
16.76
14.86
19.27
28.96
41.56
54.12
64.23
70.66
73.42
73.20
70.64
65.95
58.99
49.82
39.09
28.07
18.23
10.53
4.92
0.40
-4.54
-11.16
-19.94
-30.53
-42.09
-53.81
-65.18
-76.11
-86.86
-97.81
-109.33
-121.57
-134.16
-145.95
-155.00
-158.96
-155.87
-145.07
-127.60
-106.05
-83.58
-62.85
-45.27
-30.89
-18.97
-8.78
-0.06
6.90
11.73
14.44
15.65
16.32
17.35
19.02
20.90
22.10
21.86
19.98
16.98
13.85
11.55
10.48
10.29
10.03
8.47
4.57
-2.28
-12.05
-24.00
-36.58
-47.69
-55.12
-57.11
-53.01
-43.52
-30.48
-16.25
-2.93
8.27
17.11
24.15
30.15
35.63
40.71
45.22
48.97
51.94
54.24
55.97
57.00
56.91
55.23
51.80
46.96
41.58
36.68
32.88
30.11
27.45
23.53
17.00
7.14
-5.74
-20.19
-33.81
-43.82
-47.83
-44.65
-34.76
-20.19
-3.92
11.16
23.15
31.44
36.59
39.61
41.31
42.02
41.68
40.30
38.24
36.12
34.51
33.41
32.13
29.60
24.92
17.96
9.44
0.63
-7.35
-14.08
-20.01
-26.34
-34.40
-45.17
-58.77
-74.20
-89.36
-101.51
-108.04
-107.25
-99.00
-84.79
-67.20
-49.00
-32.31
-18.10
-6.34
3.58
12.24
19.95
26.68
32.29
36.81
40.52
43.73
46.62
49.03
50.45
50.25
48.08
44.14
39.21
34.26
30.02
26.54
23.07
18.36
11.16
0.68
-13.02
-28.93
-45.16
-59.23
-68.65
-71.53
-67.27
-56.73
-42.09
-26.08
-11.16
1.25
10.85
18.18
23.94
28.46
31.56
32.83
32.08
29.66
26.36
23.13
20.54
18.61
16.89
14.84
12.17
9.07
6.09
3.75
2.20
0.97
-0.87
-4.50
-10.93
-20.58
-33.13
-47.27
-60.90
-71.55
-77.01
-76.10
-69.04
-57.42
-43.64
-30.10
-18.47
-9.38
-2.51
3.01
8.17
13.77
20.37
28.26
37.44
47.68
58.48
69.12
78.85
86.96
92.94
96.53
97.71
96.58
93.30
88.06
80.92
71.94
61.12
48.50
34.32
19.24
4.58
-7.80
-15.92
-18.45
-15.38
-8.18
0.67
8.74
14.59
18.17
20.50
22.67
25.14
27.40
28.46
27.63
24.98
21.45
18.28
16.36
15.77
15.80
15.37
13.63
10.35
6.06
1.68
-1.90
-4.36
-6.12
-8.18
-11.82
-18.09
-27.50
-39.77
-53.74
-67.44
-78.52
-84.83
-84.97
-78.91
-68.04
-54.67
-41.29
-29.69
-20.57
-13.48
-7.40
-1.53
4.14
8.74
11.00
10.04
5.95
0.02
-5.78
-9.63
-10.62
-8.99
-5.78
-2.05
1.65
5.44
9.80
15.01
20.86
26.71
31.70
35.09
36.28
34.73
30.09
22.41
12.55
2.33
-5.72
-9.15
-6.52
2.09
15.17
30.42
45.61
59.18
70.36
78.88
84.58
87.32
87.04
84.10
79.30
73.83
68.90
65.28
63.05
61.55
59.56
55.91
49.89
41.71
32.42
23.42
15.81
9.78
4.48
-1.71
-10.48
-22.83
-38.47
-55.64
-71.51
-83.01
-87.82
-85.29
-76.69
-64.80
-52.55
-41.82
-32.41
-22.32
-8.95
9.06
30.61
51.98
68.22
75.18
71.03
56.78
35.62
11.52
-11.92
-32.09
-47.39
-57.14
-61.63
-62.03
-60.45
-59.32
-60.60
-64.92
-71.60
-79.60
-88.75
-100.37
-116.40
-137.31
-160.10
-178.17
-183.50
-170.56
-139.67
-97.60
-54.91
-21.24
-1.18
6.88
8.66
10.17
14.37
20.38
25.10
25.76
21.59
13.73
4.01
-6.33
-16.75
-26.47
-33.43
-34.27
-25.65
-6.12
22.67
56.27
89.07
116.51
136.62
150.14
159.62
168.02
177.63
189.56
203.66
218.62
232.27
242.05
245.71
242.04
231.31
215.03
195.46
174.92
155.47
138.67
125.47
115.94
109.21
103.67
97.67
90.32
81.92
73.71
66.95
61.96
57.61
51.58
41.27
24.94
2.33
-25.20
-55.30
-85.37
-113.26
-137.63
-157.97
-174.34
-187.10
-196.65
-203.41
-207.89
-210.73
-212.63
-214.05
-215.01
-215.02
-213.29
-209.09
-202.10
-192.66
-181.55
-169.79
-158.22
-147.26
-136.90
-126.82
-116.69
-106.43
-96.23
-86.53
-77.79
-70.28
-63.95
-58.47
-53.34
-48.12
-42.60
-36.84
-31.06
-25.60
-20.76
-16.82
-14.01
-12.44
-12.06
-12.61
-13.71
-14.90
-15.90
-16.75
-17.81
-19.78
-23.45
-29.39
-37.61
-47.27
-56.61
-63.21
-64.51
-58.50
-44.33
-22.67
4.44
34.07
63.23
89.49
111.43
128.58
141.08
149.24
153.24
153.16
149.16
141.70
131.66
120.15
108.23
96.60
85.50
74.87
64.55
54.45
44.62
35.07
25.74
16.35
6.56
-3.93
-15.25
-27.17
-39.13
-50.33
-59.95
-67.53
-73.27
-78.14
-83.65
-91.30
-101.84
-114.79
-128.46
-140.32
-147.97
-149.80
-145.43
-135.52
-121.31
-104.11
-84.88
-64.25
-42.74
-21.07
-0.22
18.57
34.27
46.30
54.70
60.09
63.39
65.46
66.88
67.94
68.63
68.85
68.52
67.72
66.59
65.37
64.23
63.19
62.17
60.90
59.10
56.49
52.77
47.45
39.92
29.69
16.75
2.14
-12.07
-23.13
-28.54
-27.02
-18.99
-6.50
7.63
20.85
31.52
39.19
44.19
47.12
48.32
47.83
45.58
41.69
36.65
31.29
26.50
22.85
20.44
18.91
17.72
16.38
14.62
12.37
9.59
6.15
1.82
-3.57
-10.00
-17.13
-24.43
-31.29
-37.39
-42.84
-48.29
-54.86
-63.74
-75.66
-90.25
-105.70
-118.96
-126.58
-125.94
-116.20
-98.64
-76.02
-51.53
-27.57
-5.28
15.31
34.52
52.31
68.06
80.81
89.91
95.45
98.28
99.59
100.25
100.46
99.71
97.25
92.56
85.75
77.47
68.50
59.31
49.80
39.54
28.14
15.75
3.11
-8.72
-18.80
-26.73
-32.82
-37.92
-43.08
-49.24
-57.13
-67.17
-79.56
-93.97
-109.24
-123.26
-133.10
-135.78
-129.27
-113.24
-89.36
-60.82
-31.30
-3.94
19.34
37.91
52.08
62.42
69.48
73.60
75.02
74.10
71.37
67.46
63.00
58.38
53.69
48.81
43.58
38.01
32.39
27.20
22.81
19.26
16.20
12.97
9.00
4.08
-1.52
-7.19
-12.44
-17.11
-21.74
-27.39
-35.32
-46.36
-60.24
-75.32
-88.61
-96.60
-96.35
-86.57
-68.19
-44.21
-18.57
4.99
24.07
37.98
47.34
53.35
57.12
59.22
59.81
58.96
56.94
54.28
51.68
49.78
48.83
48.62
48.55
47.84
45.90
42.57
38.17
33.35
28.76
24.75
21.19
17.58
13.29
7.76
0.62
-8.47
-19.74
-33.23
-48.29
-63.24
-75.46
-81.95
-80.51
-70.78
-54.57
-35.34
-16.96
-2.39
7.18
12.33
14.70
16.03
17.48
19.36
21.39
23.05
23.97
24.11
23.76
23.38
23.39
23.99
25.04
26.16
26.92
26.98
26.27
24.90
23.08
20.91
18.38
15.41
11.86
7.66
2.71
-3.24
-10.63
-19.85
-30.82
-42.50
-52.71
-58.53
-57.16
-47.05
-28.64
-4.37
21.99
46.57
66.48
80.39
88.46
91.77
91.73
89.59
86.36
82.83
79.72
77.50
76.26
75.51
74.19
70.97
64.82
55.51
43.80
31.24
19.53
9.83
2.33
-3.78
-9.82
-17.02
-25.99
-36.56
-47.93
-59.11
-69.30
-78.17
-85.90
-93.10
-100.57
-108.97
-118.55
-128.77
-138.24
-144.96
-146.80
-142.28
-131.13
-114.39
-94.16
-72.82
-52.32
-33.81
-17.63
-3.63
8.38
18.38
26.17
31.56
34.57
35.64
35.54
35.17
35.31
36.33
38.10
40.09
41.45
41.38
39.39
35.43
29.92
23.59
17.12
10.92
4.97
-1.10
-7.82
-15.72
-25.21
-36.56
-49.84
-64.63
-79.68
-92.74
-100.93
-101.64
-93.62
-77.68
-56.66
-34.36
-14.28
1.52
12.71
20.18
25.20
28.62
30.73
31.47
30.99
29.83
28.87
28.92
30.24
32.46
34.63
35.68
34.91
32.31
28.54
24.60
21.35
19.11
17.43
15.31
11.42
4.53
-6.12
-20.52
-37.67
-55.41
-70.69
-80.17
-81.14
-72.50
-55.33
-32.61
-8.34
13.87
31.85
45.26
55.11
62.86
69.51
75.22
79.42
81.44
80.91
78.11
73.69
68.34
62.51
56.16
49.07
41.00
32.01
22.52
13.21
4.74
-2.55
-8.72
-14.26
-19.79
-25.86
-32.88
-41.12
-50.86
-62.24
-74.97
-87.87
-98.74
-104.62
-102.73
-91.55
-71.53
-45.08
-15.79
12.83
38.32
59.71
77.15
91.21
102.26
110.28
115.12
116.82
115.87
113.08
109.27
104.95
100.22
94.92
88.92
82.32
75.46
68.73
62.25
55.80
48.83
40.76
31.21
20.16
7.96
-4.84
-17.75
-30.57
-43.42
-56.61
-70.44
-84.82
-99.26
-112.72
-123.77
-130.88
-132.73
-128.53
-118.37
-103.24
-84.83
-65.11
-45.81
-28.05
-12.33
1.31
12.95
22.52
29.83
34.79
37.64
39.02
39.78
40.55
41.43
41.79
40.45
36.14
28.01
16.10
1.42
-14.30
-29.25
-42.13
-52.68
-61.60
-70.24
-79.91
-91.31
-104.11
-116.84
-127.15
-132.24
-129.65
-117.99
-97.52
-70.28
-39.70
-9.63
16.68
37.27
51.65
60.23
63.69
62.59
57.38
48.76
38.07
27.14
17.78
10.94
6.26
2.19
-3.26
-11.47
-22.52
-35.03
-46.80
-55.86
-61.33
-63.78
-64.96
-67.02
-71.67
-79.39
-89.27
-99.09
-105.77
-106.27
-98.31
-81.09
-55.63
-24.81
7.15
35.67
57.15
70.13
75.75
77.15
77.98
80.69
85.60
91.09
94.87
95.53
93.33
89.96
87.28
85.99
85.18
82.88
77.40
68.49
57.55
46.91
38.51
32.97
29.27
25.24
18.67
8.16
-6.48
-24.27
-43.29
-61.14
-75.13
-82.76
-82.32
-73.47
-57.64
-37.74
-17.32
0.58
14.31
23.81
30.15
34.69
38.35
41.41
43.72
45.08
45.49
45.26
44.80
44.41
44.10
43.60
42.55
40.66
37.97
34.90
32.08
30.11
29.24
29.27
29.50
29.05
27.07
22.85
15.82
5.57
-7.97
-24.15
-41.22
-56.39
-66.50
-69.08
-63.37
-50.73
-34.10
-16.96
-2.03
9.40
17.38
22.78
26.59
29.49
31.77
33.57
35.06
36.54
38.34
40.76
43.73
46.78
48.98
49.29
46.90
41.69
34.37
26.27
18.73
12.54
7.58
2.92
-2.76
-10.54
-20.92
-33.68
-47.74
-61.32
-72.05
-77.42
-75.39
-65.18
-47.74
-25.68
-2.53
18.47
35.28
47.54
56.11
62.33
67.19
71.03
73.62
74.74
74.50
73.47
72.43
72.02
72.43
73.26
73.78
73.23
71.28
68.14
64.60
61.60
59.68
58.64
57.42
54.49
48.36
38.12
23.64
5.53
-14.93
-35.77
-54.48
-68.17
-74.21
-71.08
-59.14
-40.86
-20.17
-1.27
12.74
20.57
22.83
21.19
17.43
12.73
7.52
1.81
-4.39
-10.80
-16.84
-22.06
-26.32
-29.93
-33.57
-37.87
-43.13
-49.22
-55.56
-61.43
-66.20
-69.62
-71.90
-73.64
-75.63
-78.59
-83.02
-89.09
-96.70
-105.36
-114.16
-121.54
-125.41
-123.57
-114.50
-98.06
-75.91
-51.03
-26.81
-5.88
10.62
22.95
32.09
38.93
43.76
46.39
46.69
45.03
42.32
39.73
38.02
37.31
37.05
36.40
34.80
32.30
29.58
27.72
27.62
29.60
33.02
36.42
37.89
35.79
29.32
18.81
5.64
-8.31
-21.07
-30.93
-36.66
-37.63
-34.04
-26.96
-18.22
-9.84
-3.30
1.02
3.95
6.92
11.13
16.69
22.54
26.95
28.47
26.68
22.38
17.19
12.73
9.96
8.81
8.50
8.09
7.10
5.72
4.58
4.31
5.13
6.71
8.33
9.16
8.52
6.02
1.47
-4.95
-12.60
-20.25
-26.19
-28.76
-26.91
-20.69
-11.30
-0.55
9.87
18.99
26.72
33.52
39.87
45.83
51.03
54.85
56.80
56.82
55.26
52.71
49.67
46.31
42.37
37.33
30.75
22.67
13.75
5.12
-2.05
-7.05
-10.02
-11.89
-14.01
-17.69
-23.83
-32.65
-43.68
-55.70
-66.90
-75.11
-78.29
-75.09
-65.40
-50.34
-32.07
-12.94
5.15
21.10
34.62
45.90
55.12
62.24
66.95
68.94
68.24
65.40
61.59
58.18
56.18
55.70
55.66
54.22
49.55
40.78
28.43
14.26
0.50
-11.18
-20.28
-27.54
-34.45
-42.47
-52.34
-63.65
-74.95
-84.02
-88.71
-87.53
-80.22
-67.70
-51.82
-34.76
-18.67
-5.41
3.55
7.14
5.06
-1.96
-11.95
-22.11
-29.53
-32.31
-30.21
-24.88
-19.18
-16.12
-17.70
-24.07
-33.62
-43.70
-51.79
-56.69
-58.97
-60.65
-64.19
-71.33
-82.30
-95.64
-108.47
-117.06
-117.42
-106.05
-80.84
-42.22
6.41
59.00
108.54
149.11
177.64
194.33
201.78
203.06
200.04
192.78
179.98
160.32
133.79
102.34
69.47
39.00
13.64
-5.83
-20.16
-30.43
-36.92
-38.67
-34.38
-24.04
-10.13
2.70
9.54
7.58
-2.39
-16.45
-29.39
-37.15
-38.03
-32.55
-22.02
-7.37
11.06
32.88
56.66
79.61
98.10
108.94
110.57
103.43
89.45
70.98
49.87
27.06
2.95
-22.12
-47.29
-71.06
-91.67
-107.51
-117.54
-121.38
-119.27
-111.91
-100.38
-85.98
-70.11
-54.22
-39.79
-28.29
-21.04
-18.83
-21.39
-27.07
-32.95
-35.67
-32.58
-22.84
-7.70
10.01
27.15
41.43
52.01
59.22
63.88
66.48
67.19
66.07
63.57
60.59
58.13
56.72
56.06
55.12
52.57
47.45
39.37
28.60
15.84
2.00
-11.86
-24.69
-35.52
-43.77
-49.44
-53.16
-55.78
-58.01
-60.00
-61.30
-61.13
-58.76
-53.96
-47.03
-38.68
-29.65
-20.42
-11.19
-2.15
6.16
12.80
16.59
16.70
13.06
6.64
-0.96
-8.06
-13.52
-17.04
-18.92
-19.67
-19.62
-18.77
-17.00
-14.35
-11.19
-8.27
-6.59
-7.18
-10.94
-18.40
-29.51
-43.27
-57.66
-69.75
-76.42
-75.23
-65.36
-48.00
-26.07
-3.30
16.88
32.22
42.00
46.73
47.70
46.34
43.96
41.52
39.68
38.80
38.88
39.63
40.54
40.95
40.30
38.33
35.20
31.42
27.60
24.19
21.26
18.40
14.92
10.12
3.44
-5.23
-15.57
-26.56
-36.55
-43.34
-44.65
-38.94
-26.04
-7.53
13.69
34.23
51.38
63.80
71.64
75.93
77.84
78.04
76.66
73.60
68.92
63.13
56.85
50.48
43.86
36.36
27.23
16.20
3.78
-8.91
-20.68
-30.89
-39.85
-48.68
-58.89
-71.68
-87.55
-105.95
-125.28
-143.07
-156.26
-161.96
-158.24
-145.00
-124.18
-99.28
-74.21
-52.01
-33.99
-19.91
-8.60
0.91
8.86
14.79
18.15
18.90
17.76
15.96
14.56
13.98
13.86
13.34
11.66
8.61
4.69
0.96
-1.57
-2.41
-1.88
-1.11
-1.60
-4.71
-11.08
-20.27
-30.61
-39.55
-44.36
-42.99
-34.81
-20.97
-3.97
13.14
27.93
39.36
47.75
54.33
60.25
65.90
70.74
73.71
73.86
70.91
65.39
58.28
50.62
43.04
35.63
28.12
20.14
11.65
3.06
-4.78
-11.00
-15.06
-17.05
-17.74
-18.37
-20.26
-24.51
-31.68
-41.52
-52.86
-63.62
-71.26
-73.42
-68.72
-57.35
-41.03
-22.41
-4.12
12.14
25.93
37.71
48.13
57.35
64.87
69.86
71.79
70.95
68.36
65.27
62.53
60.00
56.74
51.40
43.12
31.97
19.01
5.79
-6.26
-16.43
-24.78
-31.97
-38.80
-45.82
-53.27
-61.03
-68.64
-75.20
-79.28
-79.12
-73.01
-60.10
-40.90
-17.46
7.18
30.02
48.99
63.42
73.71
80.70
84.97
86.72
86.02
83.27
79.53
76.15
74.32
74.40
75.65
76.46
74.97
69.93
61.17
49.69
37.18
25.25
14.70
5.34
-3.80
-13.83
-25.51
-39.03
-53.99
-69.52
-84.16
-95.97
-102.63
-102.13
-93.52
-77.48
-56.31
-33.18
-11.01
8.38
24.43
37.33
47.05
52.95
53.89
49.00
38.69
24.89
10.73
-0.53
-6.66
-7.27
-3.81
1.18
5.14
6.50
4.93
1.21
-3.48
-8.20
-12.60
-16.93
-21.83
-28.11
-36.52
-47.45
-60.51
-74.18
-85.82
-92.18
-90.48
-79.55
-60.50
-36.44
-11.32
11.50
30.29
45.06
56.86
66.65
74.73
80.68
83.92
84.47
83.06
80.94
79.07
77.70
76.18
73.37
68.28
60.59
50.69
39.43
27.50
15.11
1.80
-13.19
-30.47
-49.98
-70.86
-91.49
-109.78
-123.53
-130.77
-130.21
-121.43
-105.20
-83.36
-58.63
-33.96
-11.99
5.57
18.11
26.00
30.17
31.62
31.08
28.92
25.24
19.95
12.95
4.17
-6.23
-17.66
-29.15
-39.31
-46.84
-50.91
-51.65
-50.27
-48.86
-49.91
-55.69
-67.50
-85.10
-106.35
-127.47
-143.85
-151.27
-147.27
-131.92
-107.74
-78.89
-49.79
-24.03
-3.85
9.75
16.60
17.06
12.06
3.33
-6.67
-15.01
-19.11
-17.48
-10.18
1.28
14.62
27.50
38.16
45.59
49.40
49.50
45.89
38.51
27.23
12.11
-6.25
-26.31
-45.48
-60.37
-67.75
-65.64
-54.21
-35.95
-14.85
4.98
20.65
31.18
37.17
40.01
40.90
40.43
38.58
35.25
30.58
25.11
19.54
14.35
9.64
5.25
1.14
-2.42
-4.75
-5.19
-3.49
-0.22
3.25
5.06
3.37
-3.13
-14.74
-30.47
-47.97
-63.79
-74.06
-75.58
-66.92
-49.03
-25.17
0.24
23.10
40.85
52.98
60.49
64.85
67.11
67.48
65.64
61.49
55.59
49.19
43.69
39.89
37.46
35.09
31.18
24.71
15.97
6.55
-1.31
-5.62
-5.64
-2.33
1.96
4.16
1.59
-7.21
-21.96
-40.67
-59.91
-75.63
-83.93
-82.13
-69.46
-47.35
-19.14
11.01
39.22
62.89
80.93
93.46
101.05
104.18
103.05
97.85
89.22
78.50
67.76
59.18
54.46
54.29
57.99
63.85
69.70
73.69
74.88
73.21
69.18
63.02
54.40
42.43
26.28
6.04
-16.64
-38.71
-56.44
-66.62
-67.78
-60.57
-47.53
-32.11
-17.63
-6.15
2.10
8.78
16.60
27.90
43.23
60.51
75.73
84.65
84.96
77.52
65.96
54.87
47.50
44.47
44.03
43.61
41.49
37.61
33.07
28.92
25.17
20.57
13.40
2.41
-12.41
-29.57
-46.36
-59.73
-67.03
-66.85
-59.49
-46.90
-32.16
-18.45
-8.08
-1.92
0.60
0.89
0.40
-0.00
-0.19
-0.48
-1.14
-1.94
-2.32
-1.69
0.12
2.71
5.26
6.97
7.41
6.70
5.25
3.59
2.03
0.50
-1.50
-4.77
-10.03
-17.38
-25.90
-33.59
-37.92
-36.69
-28.93
-15.35
2.05
20.81
38.83
54.93
68.67
79.93
88.44
93.76
95.51
93.81
89.43
83.54
77.19
70.89
64.44
57.20
48.51
38.17
26.65
14.96
4.28
-4.46
-10.94
-15.55
-19.32
-23.69
-30.15
-39.65
-52.14
-66.29
-79.65
-89.39
-93.26
-90.45
-81.97
-70.26
-58.39
-49.06
-43.66
-42.10
-43.08
-44.96
-46.62
-47.92
-49.60
-52.50
-56.81
-61.58
-65.23
-66.30
-64.16
-59.10
-51.75
-42.36
-30.72
-16.89
-2.02
11.41
20.42
23.06
19.46
11.59
1.98
-7.74
-17.32
-27.21
-37.36
-46.29
-51.53
-50.75
-43.14
-29.83
-13.40
3.32
18.28
30.55
40.14
47.49
53.26
58.18
63.02
68.39
74.60
81.47
88.30
94.14
98.05
99.48
98.48
95.76
92.37
89.22
86.55
83.72
79.11
70.60
56.22
34.90
6.98
-25.59
-59.61
-91.38
-117.60
-136.13
-146.44
-149.43
-146.90
-140.83
-132.72
-123.34
-112.89
-101.39
-89.02
-76.25
-63.76
-52.05
-41.40
-31.79
-23.24
-16.00
-10.69
-7.94
-7.96
-10.28
-13.82
-17.36
-20.10
-22.07
-24.07
-27.32
-33.08
-42.24
-55.03
-70.94
-88.45
-105.05
-117.50
-122.59
-118.09
-103.72
-81.30
-54.29
-26.53
-1.09
20.39
37.59
50.93
61.01
68.29
73.19
76.31
78.39
80.20
82.24
84.49
86.50
87.49
86.73
83.88
79.15
73.34
67.64
63.15
60.48
59.47
59.16
58.14
54.96
48.56
38.49
24.98
8.80
-8.62
-25.35
-39.07
-47.53
-49.15
-43.61
-32.06
-16.74
-0.25
15.29
28.81
40.25
50.03
58.36
64.90
68.83
69.41
66.60
61.30
55.06
49.35
44.81
40.89
36.10
28.86
18.36
5.12
-9.17
-22.36
-32.86
-40.33
-45.68
-50.54
-56.43
-64.26
-73.99
-84.76
-95.13
-103.30
-107.43
-106.03
-98.43
-85.01
-67.18
-46.89
-25.98
-5.67
13.48
31.24
47.18
60.37
69.65
74.08
73.51
68.79
61.52
53.53
46.35
40.75
36.69
33.53
30.42
26.81
22.60
18.20
14.33
11.64
10.53
10.93
12.30
13.69
13.86
11.49
5.56
-4.14
-16.43
-28.68
-37.14
-38.05
-29.02
-10.07
16.06
44.68
70.71
90.27
101.85
106.58
107.47
108.03
110.84
116.62
124.01
130.17
131.97
127.14
114.95
96.23
72.79
46.78
20.26
-4.93
-27.08
-44.65
-56.58
-62.65
-63.84
-62.22
-60.38
-60.83
-65.29
-74.72
-89.51
-109.89
-135.85
-166.64
-199.86
-231.09
-254.57
-264.66
-257.93
-234.63
-198.71
-156.42
-114.11
-76.32
-45.02
-20.07
-0.47
14.63
25.64
32.81
36.77
38.79
40.40
42.89
46.74
51.55
56.32
59.97
61.76
61.36
58.70
53.78
46.42
36.31
23.15
6.72
-12.87
-34.99
-58.38
-81.05
-100.62
-114.78
-121.96
-121.74
-115.04
-103.74
-90.01
-75.56
-61.14
-46.54
-30.97
-13.78
4.97
24.19
42.08
56.73
66.87
72.28
73.65
72.15
68.83
64.36
59.12
53.53
48.21
43.87
41.00
39.75
39.84
40.84
42.28
43.74
44.67
44.20
41.19
34.58
23.98
10.14
-4.92
-18.21
-26.53
-27.32
-19.35
-3.02
19.81
46.47
74.18
100.72
124.70
145.54
163.05
177.08
187.24
192.94
193.76
189.79
181.87
171.35
159.56
147.22
134.18
119.66
102.95
84.12
64.27
45.18
28.52
15.06
4.32
-5.16
-15.24
-27.54
-43.04
-62.08
-84.33
-108.69
-133.18
-154.93
-170.63
-177.40
-173.79
-160.38
-139.85
-116.27
-93.90
-76.13
-64.64
-59.23
-58.19
-59.16
-59.94
-59.12
-56.29
-51.80
-46.38
-40.61
-34.83
-29.19
