1553630208.00
64.000000
-0.00
-0.00
-0.00
-0.00
-0.00
-0.00
-0.00
-0.00
-0.00
-0.01
-0.00
0.00
0.01
0.01
-0.00
-0.03
-0.05
-0.05
-0.00
0.13
0.36
0.66
1.01
1.37
1.72
2.06
2.40
2.77
3.24
3.80
4.42
5.06
5.66
6.20
6.68
7.15
7.64
8.31
9.14
10.09
11.04
11.88
12.56
13.14
13.76
14.58
15.96
17.91
20.32
22.90
25.38
27.58
29.57
31.68
34.20
37.81
42.54
48.15
54.10
59.83
64.97
69.58
74.14
79.19
85.71
93.76
103.00
112.62
121.73
129.77
136.75
144.29
150.58
157.77
166.64
177.95
191.79
206.97
220.57
228.25
225.36
208.37
176.87
132.76
80.05
23.07
-34.94
-92.44
-149.16
-205.23
-260.49
-313.74
-363.87
-409.83
-450.91
-486.50
-515.74
-537.23
-549.22
-550.04
-538.37
-514.20
-478.67
-433.88
-382.45
-327.02
-269.84
-212.63
-156.70
-102.95
-52.37
-5.89
35.61
71.46
101.36
125.47
144.27
158.48
168.85
175.99
180.33
182.14
181.65
179.11
174.83
169.22
162.67
155.54
148.11
140.53
132.90
125.23
117.56
109.89
102.27
94.74
87.38
80.26
73.46
67.02
60.96
55.21
49.72
44.40
39.24
34.29
29.67
25.49
21.80
18.55
15.56
12.65
9.65
6.53
3.39
0.48
-1.95
-3.73
-4.90
-5.68
-6.42
-7.52
-9.20
-11.47
-14.05
-16.46
-18.16
-18.80
-18.41
-17.45
-16.88
-17.79
-20.85
-25.72
-30.83
-33.69
-31.73
-23.33
-8.79
9.48
27.64
41.70
48.97
48.98
43.41
35.25
27.52
22.45
21.01
23.01
27.38
32.31
35.64
35.26
30.20
21.53
12.77
8.85
14.04
29.41
51.59
73.89
88.91
91.83
82.17
63.34
40.40
17.72
-2.14
-17.96
-28.92
-34.12
-33.10
-26.87
-18.39
-11.63
-9.84
-13.91
-22.07
-30.92
-37.29
-39.64
-38.45
-35.41
-32.28
-30.10
-29.00
-28.62
-28.44
-28.14
-27.64
-27.12
-26.86
-26.95
-27.30
-27.61
-27.51
-26.80
-25.75
-24.83
-24.60
-25.24
-26.23
-26.88
-26.96
-27.22
-29.01
-32.88
-37.17
-37.83
-30.11
-11.15
17.68
50.88
81.27
103.41
115.67
119.58
117.45
109.20
93.26
68.85
38.84
10.17
-8.86
-13.04
-3.46
13.04
27.61
34.19
31.73
23.74
15.02
8.63
4.85
1.96
-1.73
-6.77
-12.70
-18.90
-25.13
-31.42
-37.76
-43.82
-49.00
-52.83
-55.09
-55.63
-53.98
-49.26
-40.57
-27.82
-12.28
3.32
15.72
22.51
23.12
19.42
15.01
13.80
18.21
28.11
40.73
51.90
57.99
57.21
50.63
42.01
36.40
37.94
48.22
65.59
85.83
103.85
114.93
115.98
105.90
85.49
57.35
25.87
-3.33
-24.93
-32.73
-24.98
-5.98
14.95
27.33
23.88
3.05
-31.60
-74.47
-120.79
-168.43
-216.12
-261.35
-299.23
-323.61
-329.57
-315.84
-285.54
-244.94
-201.80
-162.46
-130.22
-104.73
-82.87
-60.49
-34.30
-3.24
31.40
66.67
99.80
129.39
155.54
178.68
198.04
211.14
214.58
205.88
184.99
155.01
121.12
88.69
61.43
40.62
25.59
14.90
7.39
2.52
0.12
-0.13
1.10
2.88
4.53
5.87
7.14
8.64
10.28
11.45
11.23
8.84
4.07
-2.59
-10.04
-17.01
-22.39
-25.47
-26.14
-24.80
-22.20
-19.25
-16.65
-14.74
-13.44
-12.44
-11.45
-10.39
-9.36
-8.44
-7.58
-6.48
-4.78
-2.32
0.65
3.51
5.52
6.16
5.44
3.91
2.49
2.05
3.00
5.14
7.71
9.78
10.56
9.71
7.34
3.89
-0.07
-4.05
-7.57
-10.21
-11.67
-11.86
-11.03
-9.77
-8.88
-9.01
-10.35
-12.55
-14.79
-16.25
-16.39
-15.28
-13.47
-11.73
-10.61
-10.24
-10.34
-10.36
-9.91
-8.83
-7.34
-5.84
-4.75
-4.38
-4.86
-6.32
-8.88
-12.80
-18.31
-25.53
-34.26
-43.93
-53.76
-63.00
-71.25
-78.59
-85.50
-92.54
-100.03
-107.92
-115.85
-123.46
-130.56
-137.23
-143.67
-150.09
-156.67
-163.51
-170.47
-176.85
-181.08
-180.89
-173.97
-158.98
-136.53
-109.21
-80.82
-54.94
-33.71
-17.36
-4.72
5.89
16.06
27.15
40.51
57.48
79.13
105.50
135.30
166.02
194.69
218.67
236.36
247.31
252.05
251.96
248.94
245.27
243.02
243.55
246.77
251.01
253.38
250.29
238.55
216.42
185.33
150.18
118.74
99.42
97.80
113.77
140.63
167.80
184.49
185.08
170.04
144.71
115.69
87.94
63.89
44.22
30.99
26.90
36.02
59.79
95.53
136.66
175.08
204.35
220.55
223.75
213.83
191.79
157.99
113.96
63.83
14.60
-24.73
-47.37
-49.06
-40.18
-30.08
-26.43
-30.07
-34.95
-33.29
-15.81
9.35
39.03
63.87
77.87
79.00
69.60
54.37
35.29
15.76
-3.34
-21.78
-42.10
-64.94
-88.97
-110.37
-124.15
-126.50
-116.24
-97.04
-74.47
-56.24
-47.67
-50.81
-63.80
-81.90
-99.47
-111.69
-117.01
-116.03
-111.57
-105.64
-98.82
-90.33
-79.49
-67.26
-56.70
-52.66
-59.06
-77.48
-105.56
-138.29
-170.39
-199.03
-225.09
-252.32
-285.26
-326.53
-375.44
-427.69
-476.69
-515.31
-537.56
-540.10
-522.96
-489.84
-447.00
-401.47
-358.75
-321.33
-288.62
-258.37
-228.60
-199.16
-171.68
-148.39
-130.48
-117.05
-105.38
-92.25
-75.31
-53.75
-28.14
0.26
30.35
61.41
92.68
122.95
150.22
172.20
187.17
194.88
196.75
195.19
192.34
189.13
185.35
180.51
174.96
170.20
167.99
168.84
170.91
170.48
163.69
148.55
126.04
99.65
73.68
51.46
34.44
22.21
13.43
6.90
2.25
-0.17
0.21
3.44
8.59
13.86
17.40
18.17
16.52
14.00
12.50
13.09
15.32
17.51
17.83
15.63
12.04
9.35
9.74
14.12
21.70
30.85
40.18
49.28
58.57
68.48
78.83
88.78
97.41
104.37
110.11
115.48
120.91
125.98
129.57
130.52
128.43
123.80
117.72
111.25
104.95
98.87
92.84
86.81
80.92
75.47
70.64
66.52
62.98
59.71
56.30
52.33
47.49
41.74
35.29
28.52
21.88
15.80
10.71
7.04
5.17
5.29
7.18
10.21
13.48
16.02
17.26
17.07
15.82
14.07
12.24
10.43
8.45
5.98
2.94
-0.43
-3.66
-6.20
-7.76
-8.43
-8.53
-8.43
-8.31
-8.19
-8.07
-8.12
-8.74
-10.32
-13.09
-16.88
-21.26
-25.80
-30.17
-34.09
-37.10
-38.43
-37.20
-32.83
-25.54
-16.53
-7.60
-0.56
3.41
4.05
1.87
-2.16
-6.97
-11.50
-14.80
-16.10
-14.97
-11.57
-6.57
-0.97
4.32
8.85
12.58
15.73
18.46
20.75
22.36
23.14
23.24
23.03
22.96
23.27
23.77
24.00
23.43
21.81
19.38
16.79
14.83
14.09
14.77
16.66
19.26
21.91
23.95
24.83
24.20
22.04
18.64
14.53
10.31
6.54
3.54
1.35
-0.19
-1.39
-2.59
-4.06
-5.96
-8.31
-10.99
-13.85
-16.73
-19.49
-21.96
-23.89
-24.98
-25.00
-24.05
-22.56
-21.12
-20.14
-19.50
-18.71
-17.22
-14.92
-12.23
-9.75
-7.76
-5.88
-3.29
0.75
6.29
12.61
18.59
23.37
26.63
28.61
29.60
29.61
28.38
25.69
21.77
17.42
13.66
11.27
10.47
10.90
11.94
13.09
14.17
15.34
16.81
18.59
20.26
21.12
20.54
18.31
14.77
10.73
7.02
4.19
2.34
1.30
0.80
0.70
0.95
1.55
2.46
3.62
5.09
7.09
9.92
13.77
18.55
23.88
29.22
34.05
38.04
40.99
42.90
43.88
44.24
44.38
44.82
45.96
47.98
50.71
53.67
56.23
57.77
57.92
56.69
54.46
51.80
49.34
47.61
46.94
47.33
48.55
50.05
51.09
50.92
48.99
45.25
40.34
35.59
32.58
32.64
36.33
43.25
52.25
61.92
70.94
78.39
83.65
86.44
86.84
85.47
83.43
81.98
81.88
82.75
82.90
79.82
71.26
56.22
35.51
11.43
-13.10
-35.58
-54.69
-70.55
-84.47
-98.47
-114.79
-135.37
-161.33
-192.49
-227.20
-262.37
-294.09
-318.42
-332.41
-334.90
-326.81
-310.91
-290.92
-270.38
-251.57
-234.92
-219.04
-201.48
-179.84
-152.92
-121.32
-87.30
-53.95
-24.17
0.19
18.59
31.57
40.23
45.83
49.60
52.77
56.57
62.07
69.78
79.39
89.79
99.41
106.95
111.92
114.81
116.78
119.10
122.63
127.45
132.99
138.40
142.87
145.94
147.52
147.69
146.52
143.95
139.86
134.28
127.61
120.58
114.15
109.14
105.96
104.51
104.32
104.90
105.98
107.52
109.37
111.06
111.70
110.31
106.22
99.23
89.45
76.88
61.22
42.04
19.39
-5.72
-31.36
-55.39
-76.52
-94.87
-111.75
-128.58
-145.59
-161.39
-173.48
-179.53
-178.63
-171.70
-161.01
-149.21
-138.47
-130.12
-124.80
-122.65
-123.41
-126.41
-130.43
-133.90
-135.30
-133.60
-128.57
-120.73
-111.12
-100.98
-91.37
-83.09
-76.53
-71.61
-67.70
-63.73
-58.41
-50.61
-39.75
-26.09
-10.71
4.85
18.91
30.23
38.15
42.68
44.30
43.68
41.53
38.53
35.23
32.01
29.09
26.50
24.28
22.55
21.57
21.65
22.93
25.15
27.59
29.28
29.33
27.30
23.36
18.24
12.93
8.24
4.63
2.06
0.23
-1.28
-2.75
-4.34
-6.13
-8.22
-10.68
-13.55
-16.67
-19.74
-22.41
-24.40
-25.55
-25.83
-25.15
-23.24
-19.67
-14.07
-6.47
2.49
11.58
19.30
24.42
26.33
25.30
22.25
18.40
14.88
12.36
10.98
10.46
10.40
10.56
10.99
11.95
13.70
16.17
18.79
20.67
20.93
19.17
15.69
11.43
7.50
4.77
3.53
3.48
3.99
4.35
4.04
2.77
0.59
-2.18
-4.97
-7.18
-8.45
-8.83
-8.83
-9.26
-10.82
-13.84
-18.12
-22.95
-27.34
-30.17
-30.34
-27.09
-20.27
-10.64
0.12
9.82
16.46
19.02
17.74
13.95
9.37
5.36
2.50
0.59
-1.01
-2.92
-5.37
-8.12
-10.56
-11.86
-11.31
-8.63
-4.15
1.13
5.90
8.92
9.48
7.51
3.51
-1.72
-7.23
-11.96
-14.82
-14.84
-11.60
-5.59
1.66
8.02
11.48
10.96
6.73
0.24
-6.54
-11.95
-15.22
-16.60
-17.12
-17.95
-19.75
-22.23
-24.19
-23.91
-19.96
-11.90
-0.60
11.90
23.10
30.85
34.08
32.99
28.91
23.63
18.83
15.49
13.78
13.21
13.03
12.59
11.66
10.43
9.32
8.70
8.75
9.34
10.10
10.59
10.46
9.47
7.60
5.01
2.01
-1.01
-3.63
-5.56
-6.63
-6.88
-6.58
-6.10
-5.93
-6.49
-8.03
-10.57
-13.86
-17.39
-20.56
-22.94
-24.44
-25.53
-27.05
-29.78
-33.88
-38.37
-41.22
-40.02
-33.16
-20.75
-4.96
10.67
22.59
28.59
28.64
24.61
19.21
14.72
12.12
11.03
10.31
9.01
6.95
4.78
3.54
4.00
6.24
9.71
13.56
17.04
19.78
21.63
22.47
22.06
20.10
16.53
11.77
6.65
2.19
-0.86
-2.29
-2.52
-2.31
-2.41
-3.29
-5.06
-7.57
-10.56
-13.73
-16.83
-19.57
-21.77
-23.46
-24.89
-26.46
-28.41
-30.54
-32.02
-31.56
-27.88
-20.25
-8.94
4.75
18.90
31.71
42.19
50.43
57.35
64.01
70.79
77.12
81.70
83.39
82.13
79.41
77.88
80.26
88.06
100.87
116.50
132.02
145.06
154.51
160.53
163.72
164.36
161.99
155.80
145.33
131.04
114.32
96.93
80.45
65.72
52.73
40.65
28.01
12.89
-6.78
-32.71
-65.82
-105.86
-151.28
-199.39
-246.68
-289.39
-324.36
-350.26
-368.51
-383.14
-399.10
-419.46
-443.10
-464.30
-474.88
-467.85
-440.60
-395.92
-340.60
-282.59
-228.48
-182.30
-145.75
-118.73
-99.66
-85.63
-72.78
-57.31
-36.96
-11.93
15.46
42.05
65.34
84.28
99.18
111.04
120.87
129.61
138.14
147.30
157.47
168.32
178.82
187.79
194.63
199.65
203.77
207.75
211.44
213.75
213.21
208.83
200.77
190.36
179.64
170.75
165.40
164.47
167.73
173.58
179.19
180.95
175.47
160.75
137.05
106.98
74.81
45.10
21.36
5.07
-4.48
-9.70
-13.62
-18.86
-26.81
-37.19
-48.35
-57.93
-63.66
-64.23
-59.63
-51.09
-40.59
-30.30
-22.03
-17.02
-15.77
-18.10
-23.16
-29.53
-35.53
-39.67
-41.07
-39.69
-36.11
-31.17
-25.51
-19.44
-13.15
-7.03
-1.82
1.68
3.05
2.79
2.22
3.01
6.31
12.25
19.86
27.67
34.49
39.86
44.05
47.60
50.73
53.10
54.06
53.02
49.93
45.22
39.62
33.76
28.05
22.77
18.22
14.73
12.57
11.67
11.55
11.46
10.63
8.59
5.29
1.01
-3.86
-9.03
-14.33
-19.67
-24.91
-29.72
-33.69
-36.49
-38.06
-38.72
-39.10
-39.91
-41.63
-44.25
-47.23
-49.63
-50.37
-48.60
-43.97
-36.74
-27.79
-18.37
-9.73
-2.80
2.16
5.44
7.66
9.34
10.64
11.38
11.21
10.03
8.14
6.24
5.20
5.75
8.23
12.38
17.37
22.05
25.28
26.25
24.83
21.59
17.54
13.77
11.03
9.51
8.86
8.44
7.61
5.95
3.38
0.12
-3.40
-6.77
-9.74
-12.27
-14.54
-16.81
-19.37
-22.35
-25.69
-29.07
-31.94
-33.57
-33.22
-30.39
-25.01
-17.65
-9.36
-1.44
4.96
9.19
11.17
11.30
10.26
8.67
7.00
5.46
4.09
2.87
1.85
1.22
1.21
1.97
3.39
5.14
6.69
7.58
7.58
6.77
5.42
3.82
2.16
0.51
-1.08
-2.49
-3.53
-4.07
-4.14
-3.90
-3.61
-3.45
-3.56
-4.06
-5.14
-7.02
-9.81
-13.31
-17.04
-20.38
-22.91
-24.57
-25.68
-26.57
-27.31
-27.48
-26.39
-23.48
-18.62
-12.27
-5.26
1.60
7.71
12.80
16.79
19.62
21.19
21.45
20.50
18.71
16.66
15.01
14.23
14.48
15.65
17.46
19.58
21.69
23.53
24.77
25.09
24.28
22.34
19.57
16.49
13.62
11.27
9.43
7.91
6.52
5.18
4.02
3.19
2.75
2.58
2.35
1.69
0.31
-1.88
-4.77
-8.03
-11.24
-14.04
-16.28
-18.06
-19.72
-21.66
-24.00
-26.41
-28.06
-27.84
-24.83
-18.74
-10.18
-0.53
8.46
15.28
19.15
20.32
19.86
19.24
19.73
21.98
25.81
30.42
34.78
38.15
40.28
41.43
41.98
42.15
41.92
41.18
40.13
39.48
40.28
43.37
48.83
55.80
62.70
67.92
70.43
70.06
67.25
62.69
56.99
50.83
45.12
41.18
40.35
43.25
49.00
55.02
57.76
54.11
42.86
25.40
5.25
-13.46
-27.82
-37.18
-43.16
-48.45
-55.29
-64.35
-74.53
-83.81
-90.35
-93.36
-93.18
-90.72
-86.76
-81.56
-75.04
-67.28
-59.07
-51.86
-47.31
-46.47
-49.09
-53.55
-57.40
-58.37
-55.23
-48.26
-38.94
-29.13
-20.27
-12.91
-6.80
-1.47
3.31
7.24
9.80
10.60
9.72
7.73
5.42
3.46
2.21
1.56
1.10
0.39
-0.86
-2.69
-4.99
-7.68
-10.80
-14.40
-18.34
-22.18
-25.28
-27.10
-27.69
-27.70
-28.15
-29.73
-32.23
-34.57
-35.25
-33.29
-28.74
-22.68
-16.59
-11.71
-8.57
-7.10
-6.98
-7.93
-9.79
-12.35
-15.11
-17.34
-18.28
-17.51
-15.13
-11.68
-7.84
-4.08
-0.52
3.01
6.65
10.39
14.05
17.47
20.68
23.89
27.37
31.05
34.52
37.12
38.32
38.04
36.76
35.30
34.33
34.10
34.28
34.27
33.54
32.04
30.13
28.38
27.08
26.03
24.58
21.98
17.86
12.49
6.62
1.15
-3.38
-7.08
-10.62
-14.80
-20.16
-26.62
-33.60
-40.39
-46.47
-51.83
-56.77
-61.63
-66.38
-70.54
-73.38
-74.32
-73.30
-70.85
-67.78
-64.86
-62.47
-60.55
-58.82
-56.98
-54.91
-52.58
-49.98
-47.07
-43.76
-39.97
-35.62
-30.59
-24.60
-17.33
-8.58
1.49
12.20
22.43
30.98
36.86
39.64
39.45
36.92
33.01
28.81
25.30
23.10
22.29
22.39
22.50
21.80
19.94
17.35
15.13
14.55
16.50
21.05
27.41
34.17
39.79
43.08
43.39
40.75
35.83
29.77
23.99
19.90
18.46
19.88
23.44
27.69
31.01
32.20
30.95
27.83
23.84
19.72
15.45
10.35
3.47
-5.65
-16.66
-28.50
-39.90
-50.05
-58.94
-67.13
-75.34
-83.86
-92.47
-100.58
-107.73
-113.72
-118.55
-122.10
-123.83
-122.88
-118.28
-109.36
-95.81
-77.62
-54.95
-28.36
0.82
30.18
56.44
76.35
87.97
91.57
89.65
85.86
83.40
83.80
86.64
90.35
93.39
95.09
95.63
95.31
93.80
89.94
82.32
70.32
54.81
38.22
23.75
14.12
10.45
11.96
16.34
20.80
23.22
22.84
20.39
17.49
15.78
16.07
18.04
20.51
22.09
22.00
20.33
17.89
15.68
14.33
13.87
13.78
13.35
12.04
9.66
6.38
2.69
-0.79
-3.52
-5.07
-5.36
-4.61
-3.28
-1.87
-0.83
-0.41
-0.71
-1.58
-2.72
-3.66
-3.87
-3.04
-1.30
0.73
2.13
2.05
0.20
-3.06
-6.88
-10.31
-12.72
-13.91
-13.98
-13.11
-11.49
-9.31
-6.91
-4.81
-3.47
-3.05
-3.25
-3.38
-2.70
-0.78
2.23
5.73
8.97
11.38
12.86
13.66
14.28
15.14
16.48
18.24
20.20
21.98
23.22
23.61
23.05
21.67
19.85
18.09
16.89
16.49
16.80
17.38
17.67
17.16
15.70
13.42
10.72
8.05
5.79
4.14
3.11
2.56
2.22
1.81
1.09
-0.10
-1.78
-3.87
-6.21
-8.63
-10.96
-13.04
-14.68
-15.62
-15.71
-14.90
-13.40
-11.54
-9.71
-8.14
-6.86
-5.68
-4.33
-2.68
-0.71
1.40
3.46
5.33
6.97
8.42
9.72
10.83
11.67
12.11
12.10
11.66
10.95
10.19
9.58
9.22
9.09
9.01
8.77
8.23
7.40
6.44
5.55
4.85
4.31
3.78
3.09
2.16
1.00
-0.28
-1.61
-3.04
-4.67
-6.61
-8.82
-11.17
-13.43
-15.36
-16.77
-17.51
-17.50
-16.73
-15.33
-13.50
-11.49
-9.51
-7.63
-5.80
-3.93
-1.98
-0.05
1.66
2.98
3.85
4.40
4.86
5.43
6.17
6.97
7.63
7.97
7.98
7.79
7.66
7.79
8.21
8.81
9.33
9.55
9.31
8.63
7.58
6.30
4.90
3.47
2.11
0.87
-0.17
-1.00
-1.66
-2.22
-2.82
-3.59
-4.65
-6.07
-7.82
-9.79
-11.78
-13.56
-14.92
-15.70
-15.82
-15.26
-14.06
-12.36
-10.37
-8.31
-6.39
-4.72
-3.33
-2.17
-1.15
-0.19
0.80
1.88
3.06
4.31
5.50
6.46
6.99
7.01
6.55
5.79
5.04
4.58
4.60
5.06
5.76
6.34
6.51
6.09
5.18
4.07
3.08
2.42
2.12
1.98
1.82
1.48
0.98
0.40
-0.17
-0.70
-1.22
-1.83
-2.63
-3.68
-4.99
-6.53
-8.20
-9.81
-11.12
-11.92
-12.10
-11.64
-10.67
-9.33
-7.75
-6.01
-4.16
-2.23
-0.34
1.40
2.88
4.06
4.97
5.67
6.20
6.57
6.78
6.82
6.78
6.71
6.70
6.75
6.82
6.86
6.80
6.64
6.41
6.12
5.78
5.41
5.03
4.67
4.39
4.19
4.02
3.75
3.27
2.50
1.45
0.21
-1.07
-2.21
-3.15
-3.91
-4.67
-5.62
-6.88
-8.36
-9.75
-10.65
-10.75
-10.00
-8.61
-6.93
-5.27
-3.75
-2.31
-0.78
0.93
2.73
4.42
5.79
6.76
7.38
7.80
8.10
8.28
8.26
7.93
7.30
6.45
5.54
4.74
4.14
3.73
3.45
3.19
2.89
2.48
1.96
1.33
0.60
-0.18
-1.01
-1.87
-2.79
-3.79
-4.85
-5.92
-6.90
-7.73
-8.39
-9.00
-9.69
-10.54
-11.49
-12.36
-12.88
-12.80
-12.06
-10.76
-9.16
-7.50
-5.94
-4.50
-3.12
-1.75
-0.40
0.86
1.92
2.71
3.27
3.65
3.94
4.21
4.44
4.64
4.80
4.91
4.98
5.02
4.98
4.86
4.63
4.33
4.01
3.70
3.40
3.05
2.59
1.98
1.23
0.39
-0.48
-1.34
-2.14
-2.85
-3.45
-3.96
-4.40
-4.87
-5.45
-6.24
-7.27
-8.45
-9.57
-10.37
-10.62
-10.23
-9.29
-8.03
-6.72
-5.54
-4.53
-3.60
-2.66
-1.62
-0.53
0.52
1.41
2.10
2.62
3.02
3.40
3.78
4.14
4.37
4.34
3.97
3.26
2.38
1.56
1.04
0.95
1.21
1.61
1.87
1.80
1.34
0.62
-0.19
-0.91
-1.46
-1.82
-2.06
-2.30
-2.69
-3.30
-4.12
-5.02
-5.78
-6.22
-6.34
-6.31
-6.42
-6.90
-7.73
-8.71
-9.44
-9.57
-9.00
-7.86
-6.43
-5.01
-3.72
-2.54
-1.34
0.02
1.54
3.11
4.58
5.76
6.59
7.06
7.26
7.29
7.28
7.35
7.57
7.94
8.37
8.74
8.91
8.86
8.70
8.55
8.55
8.70
8.91
9.06
9.12
9.14
9.24
9.47
9.72
9.76
9.32
8.28
6.72
4.89
3.06
1.45
0.12
-0.97
-1.87
-2.63
-3.26
-3.80
-4.33
-5.01
-5.91
-7.03
-8.15
-8.91
-8.93
-7.97
-6.04
-3.40
-0.47
2.29
4.61
6.39
7.67
8.59
9.21
9.52
9.42
8.82
7.71
6.23
4.68
3.40
2.70
2.72
3.36
4.27
4.98
4.99
3.97
1.89
-0.95
-4.00
-6.63
-8.41
-9.24
-9.39
-9.32
-9.46
-9.98
-10.74
-11.50
-12.09
-12.62
-13.40
-14.70
-16.59
-18.76
-20.72
-21.98
-22.33
-21.85
-20.86
-19.66
-18.44
-17.16
-15.71
-13.95
-11.82
-9.39
-6.80
-4.26
-1.93
0.03
1.52
2.46
2.84
2.72
2.29
1.85
1.71
2.06
2.90
4.01
5.09
5.87
6.26
6.37
6.37
6.42
6.58
6.75
6.83
6.68
6.26
5.62
4.82
3.96
3.10
2.25
1.30
0.15
-1.28
-2.97
-4.75
-6.45
-7.95
-9.34
-10.81
-12.50
-14.35
-16.00
-16.92
-16.72
-15.34
-13.11
-10.60
-8.34
-6.56
-5.17
-3.88
-2.44
-0.77
0.98
2.48
3.46
3.85
3.83
3.75
3.96
4.63
5.65
6.70
7.43
7.64
7.42
7.04
6.79
6.76
6.88
6.90
6.63
6.01
5.15
4.21
3.33
2.54
1.83
1.12
0.30
-0.70
-1.90
-3.25
-4.65
-5.97
-7.16
-8.26
-9.40
-10.73
-12.26
-13.84
-15.12
-15.71
-15.35
-14.04
-12.06
-9.84
-7.76
-5.96
-4.32
-2.58
-0.51
1.90
4.44
6.72
8.42
9.38
9.68
9.57
9.33
9.14
9.08
9.13
9.28
9.53
9.92
10.44
10.99
11.37
11.37
10.87
9.93
8.77
7.71
6.95
6.50
6.18
5.74
4.96
3.80
2.37
0.82
-0.69
-2.09
-3.37
-4.56
-5.72
-6.92
-8.18
-9.50
-10.79
-11.92
-12.75
-13.15
-13.08
-12.56
-11.65
-10.40
-8.83
-6.97
-4.91
-2.79
-0.78
0.96
2.40
3.54
4.45
5.22
5.89
6.51
7.08
7.64
8.19
8.71
9.18
9.55
9.79
9.91
9.94
9.89
9.79
9.62
9.35
8.94
8.40
7.75
7.06
6.38
5.75
5.16
4.59
3.97
3.27
2.49
1.61
0.62
-0.53
-1.89
-3.45
-5.16
-6.93
-8.65
-10.28
-11.81
-13.20
-14.34
-15.06
-15.16
-14.58
-13.38
-11.74
-9.88
-7.96
-6.02
-4.08
-2.13
-0.24
1.48
2.93
4.08
4.98
5.76
6.52
7.31
8.11
8.82
9.31
9.54
9.56
9.49
9.53
9.75
10.11
10.43
10.53
10.26
9.66
8.85
8.00
7.18
6.38
5.52
4.54
3.49
2.43
1.42
0.50
-0.40
-1.33
-2.33
-3.35
-4.39
-5.48
-6.72
-8.22
-10.01
-11.93
-13.70
-14.96
-15.46
-15.14
-14.13
-12.68
-11.06
-9.43
-7.82
-6.15
-4.33
-2.32
-0.21
1.81
3.55
4.85
5.70
6.23
6.65
7.13
7.75
8.42
9.00
9.34
9.41
9.27
9.04
8.83
8.70
8.61
8.52
8.41
8.29
8.21
8.15
8.04
7.71
7.05
6.03
4.73
3.37
2.14
1.14
0.33
-0.45
-1.34
-2.39
-3.49
-4.53
-5.45
-6.36
-7.47
-8.96
-10.80
-12.75
-14.38
-15.32
-15.38
-14.62
-13.27
-11.59
-9.80
-7.98
-6.20
-4.46
-2.79
-1.19
0.33
1.79
3.15
4.36
5.36
6.13
6.71
7.15
7.48
7.69
7.73
7.64
7.52
7.51
7.72
8.13
8.64
9.07
9.32
9.38
9.30
9.15
8.92
8.57
8.00
7.17
6.10
4.92
3.74
2.67
1.78
1.05
0.39
-0.33
-1.28
-2.63
-4.41
-6.55
-8.88
-11.15
-13.12
-14.58
-15.42
-15.60
-15.17
-14.25
-13.02
-11.64
-10.24
-8.85
-7.42
-5.82
-3.96
-1.89
0.25
2.24
3.88
5.04
5.75
6.12
6.31
6.43
6.55
6.69
6.84
6.99
7.16
7.39
7.71
8.11
8.52
8.82
8.91
8.72
8.30
7.75
7.19
6.65
6.11
5.50
4.78
3.95
3.06
2.16
1.27
0.38
-0.57
-1.58
-2.64
-3.74
-4.88
-6.12
-7.54
-9.16
-10.91
-12.57
-13.86
-14.56
-14.57
-13.92
-12.81
-11.42
-9.95
-8.46
-6.96
-5.42
-3.82
-2.22
-0.68
0.64
1.68
2.45
3.05
3.61
4.22
4.91
5.59
6.18
6.61
6.90
7.14
7.41
7.70
7.96
8.10
8.06
7.85
7.50
7.07
6.60
6.11
5.64
5.20
4.78
4.34
3.78
3.02
1.98
0.68
-0.82
-2.37
-3.83
-5.06
-6.01
-6.76
-7.43
-8.22
-9.24
-10.46
-11.69
-12.68
-13.16
-12.99
-12.18
-10.85
-9.16
-7.31
-5.46
-3.78
-2.39
-1.32
-0.49
0.25
1.05
1.97
2.92
3.75
4.35
4.71
4.96
5.24
5.63
6.08
6.47
6.73
6.91
7.10
7.42
7.80
8.07
8.05
7.64
6.92
6.07
5.27
4.58
3.92
3.15
2.18
1.06
-0.07
-1.05
-1.76
-2.21
-2.51
-2.84
-3.37
-4.25
-5.53
-7.16
-8.99
-10.85
-12.52
-13.81
-14.55
-14.59
-13.85
-12.32
-10.13
-7.50
-4.71
-2.00
0.49
2.70
4.65
6.32
7.68
8.65
9.20
9.38
9.33
9.18
9.06
8.98
8.90
8.75
8.51
8.19
7.88
7.60
7.33
7.00
6.54
5.89
5.04
4.06
3.02
2.03
1.17
0.43
-0.23
-0.91
-1.75
-2.82
-4.14
-5.66
-7.26
-8.83
-10.26
-11.45
-12.35
-12.89
-13.02
-12.68
-11.85
-10.60
-9.09
-7.46
-5.86
-4.32
-2.84
-1.36
0.11
1.49
2.61
3.36
3.73
3.84
3.90
4.06
4.39
4.83
5.24
5.49
5.56
5.47
5.28
5.05
4.82
4.57
4.29
3.94
3.47
2.84
2.02
1.02
-0.12
-1.30
-2.44
-3.48
-4.37
-5.12
-5.74
-6.28
-6.86
-7.59
-8.61
-9.94
-11.46
-12.90
-13.86
-14.05
-13.33
-11.80
-9.72
-7.45
-5.24
-3.19
-1.28
0.60
2.56
4.67
6.95
9.34
11.73
13.95
15.85
17.30
18.26
18.84
19.20
19.56
20.03
20.60
21.14
21.51
21.58
21.35
20.82
20.06
19.09
17.88
16.45
14.79
12.95
10.98
8.96
6.93
4.97
3.10
1.37
-0.24
-1.74
-3.23
-4.79
-6.54
-8.56
-10.88
-13.43
-16.01
-18.34
-20.20
-21.53
-22.41
-23.00
-23.42
-23.56
-23.22
-22.22
-20.56
-18.45
-16.18
-13.99
-11.96
-10.02
-8.13
-6.32
-4.71
-3.46
-2.61
-2.10
-1.82
-1.69
-1.67
-1.74
-1.81
-1.73
-1.37
-0.69
0.18
1.02
1.59
1.79
1.67
1.38
1.10
0.90
0.74
0.46
-0.09
-0.99
-2.22
-3.59
-4.91
-5.97
-6.76
-7.36
-7.99
-8.85
-10.04
-11.53
-13.10
-14.49
-15.42
-15.74
-15.40
-14.43
-12.88
-10.82
-8.34
-5.55
-2.63
0.24
2.89
5.28
7.39
9.25
10.76
11.82
12.31
12.25
11.82
11.30
10.98
10.97
11.22
11.58
11.91
12.13
12.23
12.17
11.89
11.31
10.38
9.17
7.85
6.63
5.63
4.84
4.13
3.35
2.40
1.28
0.08
-1.12
-2.32
-3.52
-4.75
-6.01
-7.29
-8.59
-9.98
-11.59
-13.48
-15.55
-17.49
-18.88
-19.33
-18.68
-17.07
-14.84
-12.38
-9.93
-7.57
-5.20
-2.73
-0.17
2.34
4.58
6.35
7.57
8.30
8.74
9.04
9.34
9.63
9.83
9.89
9.81
9.68
9.62
9.64
9.67
9.54
9.10
8.30
7.21
6.03
4.97
4.20
3.74
3.55
3.48
3.39
3.14
2.69
2.02
1.19
0.26
-0.67
-1.55
-2.36
-3.16
-4.05
-5.21
-6.72
-8.59
-10.68
-12.73
-14.44
-15.55
-15.85
-15.26
-13.82
-11.72
-9.18
-6.48
-3.87
-1.51
0.54
2.30
3.81
5.13
6.26
7.18
7.85
8.26
8.42
8.38
8.25
8.08
7.95
7.87
7.86
7.88
7.99
8.17
8.40
8.58
8.58
8.30
7.77
7.10
6.49
6.02
5.63
5.15
4.38
3.29
2.05
0.95
0.29
0.13
0.26
0.25
-0.30
-1.55
-3.28
-4.86
-5.56
-4.72
-2.12
2.00
6.91
11.74
15.81
18.91
21.44
24.27
28.34
34.09
41.14
48.23
53.76
56.52
56.43
54.80
53.90
55.91
61.79
70.65
79.88
86.25
87.35
82.75
74.31
65.49
59.63
58.47
61.30
65.10
65.75
59.57
44.37
20.15
-10.91
-44.35
-74.13
-94.16
-100.46
-93.54
-79.33
-68.26
-71.43
-95.95
-141.20
-198.11
-252.01
-287.83
-295.66
-274.16
-230.56
-177.49
-127.99
-90.85
-68.10
-55.82
-47.24
-36.36
-20.57
-0.46
22.31
46.98
74.12
104.33
135.81
163.33
179.42
178.25
159.70
130.99
104.46
91.97
99.41
123.43
152.68
172.61
171.77
146.61
102.50
51.17
5.39
-26.01
-41.19
-45.12
-47.24
-57.79
-84.48
-130.03
-191.13
-259.03
-321.62
-366.94
-386.36
-376.79
-341.04
-286.31
-222.01
-157.18
-99.04
-52.06
-18.40
2.07
11.78
15.41
19.44
30.73
53.58
86.78
122.84
150.12
158.12
143.32
112.34
79.58
60.24
62.47
83.29
111.77
136.07
150.89
159.41
168.90
183.45
199.21
206.01
193.59
158.31
105.13
44.58
-13.09
-62.15
-101.18
-130.03
-146.39
-145.25
-121.41
-73.33
-5.38
72.66
148.18
209.58
248.77
262.65
252.44
222.67
179.58
129.87
79.29
31.15
-13.55
-55.36
-94.60
-129.87
-157.78
-174.50
-177.94
-169.51
-154.05
-137.41
-123.73
-113.26
-103.24
-90.54
-74.78
-59.22
-48.99
-47.33
-52.66
-58.88
-58.72
-48.21
-29.27
-8.76
5.33
8.33
1.03
-11.14
-21.71
-26.52
-25.15
-19.79
-12.75
-4.70
5.37
18.57
34.47
50.41
62.68
68.52
67.55
61.80
54.35
47.60
42.39
38.30
34.74
31.85
30.42
31.07
33.33
35.43
35.01
30.26
20.68
7.30
-7.76
-21.83
-32.31
-37.26
-35.92
-29.16
-19.50
-10.41
-5.04
-4.81
-8.77
-14.31
-18.64
-20.09
-18.62
-15.25
-11.19
-7.16
-3.61
-1.11
-0.55
-2.69
-7.33
-12.94
-17.18
-18.03
-15.17
-10.20
-5.73
-3.74
-4.35
-5.87
-6.10
-3.80
0.62
5.62
9.75
12.51
14.48
16.47
18.60
20.27
20.64
19.67
18.33
18.18
20.27
24.36
28.90
31.91
32.06
29.29
24.72
19.77
15.38
11.56
7.75
3.64
-0.20
-2.48
-1.98
1.32
5.79
8.76
8.13
3.63
-2.88
-8.60
-11.45
-11.33
-9.81
-8.90
-9.42
-10.52
-10.39
-7.71
-2.80
2.47
5.90
6.37
4.50
2.14
1.18
2.41
5.20
8.06
9.61
9.36
7.92
6.39
5.69
6.02
6.95
7.99
8.98
10.08
11.42
12.75
13.50
13.22
11.91
10.12
8.59
7.72
7.34
6.99
6.31
5.31
4.26
3.16
1.54
-1.21
-5.16
-9.38
-12.27
-12.58
-10.27
-6.59
-3.22
-1.13
-0.03
1.15
3.13
5.49
6.84
5.90
2.48
-2.14
-5.99
-7.48
-6.25
-3.13
0.49
3.47
5.28
6.09
6.36
6.67
7.36
8.44
9.49
9.87
9.14
7.43
5.56
4.55
4.94
6.25
7.23
6.56
3.90
0.19
-2.83
-3.71
-2.25
0.26
1.79
0.81
-2.85
-8.00
-12.75
-15.62
-16.18
-15.10
-13.53
-12.44
-12.23
-12.68
-13.33
-13.73
-13.56
-12.58
-10.51
-7.21
-2.79
2.26
7.22
11.40
14.48
16.50
17.70
18.26
18.19
17.44
16.07
14.49
13.30
12.98
13.66
14.88
15.89
15.97
14.90
13.02
10.97
9.30
8.13
7.12
5.72
3.61
0.93
-1.73
-3.59
-4.13
-3.32
-1.66
0.03
0.95
0.60
-1.08
-3.75
-6.74
-9.29
-10.79
-11.03
-10.43
-9.86
-10.16
-11.65
-13.86
-15.70
-16.09
-14.72
-12.22
-9.84
-8.75
-9.33
-11.07
-12.94
-14.02
-13.84
-12.45
-10.09
-7.04
-3.55
0.03
3.33
5.99
7.86
8.87
8.99
8.21
6.70
4.96
3.73
3.64
4.79
6.62
8.33
9.35
9.70
9.77
9.81
9.70
8.99
7.42
5.27
3.27
2.19
2.26
3.10
3.94
4.14
3.45
2.11
0.51
-0.94
-1.93
-2.23
-1.79
-0.94
-0.38
-0.98
-3.20
-6.70
-10.46
-13.32
-14.80
-15.27
-15.52
-15.96
-16.24
-15.45
-12.98
-9.13
-5.17
-2.50
-1.77
-2.42
-3.15
-2.97
-1.82
-0.60
-0.34
-1.37
-3.07
-4.40
-4.61
-3.75
-2.48
-1.37
-0.50
0.62
2.54
5.33
8.34
10.50
10.91
9.35
6.52
3.65
1.93
1.85
3.07
4.63
5.62
5.67
5.03
4.20
3.45
2.60
1.25
-0.85
-3.48
-6.07
-8.06
-9.32
-10.18
-11.23
-12.90
-15.27
-18.02
-20.68
-22.87
-24.42
-25.24
-25.14
-23.85
-21.20
-17.37
-13.08
-9.33
-7.05
-6.58
-7.49
-8.69
-8.98
-7.61
-4.65
-0.93
2.51
4.92
6.17
6.59
6.68
6.77
6.99
7.37
7.96
8.77
9.73
10.61
11.10
11.00
10.28
9.20
8.09
7.19
6.55
6.04
5.53
5.03
4.63
4.42
4.29
4.03
3.44
2.46
1.16
-0.32
-1.90
-3.58
-5.35
-7.17
-9.04
-10.98
-13.15
-15.59
-18.13
-20.27
-21.36
-20.95
-19.02
-16.10
-12.96
-10.29
-8.40
-7.26
-6.69
-6.43
-6.32
-6.15
-5.78
-5.18
-4.53
-4.15
-4.39
-5.34
-6.73
-7.96
-8.41
-7.79
-6.41
-5.09
-4.84
-6.45
-10.02
-14.84
-19.55
-22.71
-23.35
-21.47
-17.98
-14.40
-12.25
-12.56
-15.61
-20.62
-25.80
-28.66
-26.82
-19.10
-6.43
8.08
20.19
26.24
24.95
18.01
9.21
2.66
0.83
3.68
9.12
14.32
17.17
16.93
14.17
10.28
6.81
4.97
5.46
8.34
13.17
19.02
24.56
28.30
29.31
27.66
24.69
22.71
23.92
29.52
39.05
50.70
62.23
72.33
81.22
90.49
101.86
115.85
131.02
144.52
152.69
152.07
140.56
117.62
84.67
44.69
1.42
-41.06
-78.63
-108.15
-127.98
-137.57
-138.06
-131.12
-118.76
-103.44
-87.57
-73.13
-62.11
-56.31
-55.74
-60.12
-67.27
-74.81
-82.11
-90.01
-100.17
-111.19
-120.52
-124.19
-122.52
-118.17
-115.42
-117.79
-127.39
-137.65
-140.08
-128.70
-101.09
-62.31
-18.46
25.76
65.19
99.22
132.37
170.12
206.76
247.06
279.20
292.06
277.90
233.70
163.54
77.28
-13.27
-97.27
-165.34
-213.01
-236.64
-230.16
-195.76
-145.94
-97.15
-60.39
-36.05
-18.05
-2.76
13.63
34.65
59.12
86.55
116.33
146.54
173.31
192.33
199.58
194.91
181.22
161.92
140.77
120.75
103.48
89.04
76.63
64.90
53.61
42.95
32.65
22.89
14.30
7.85
4.09
2.88
3.20
3.94
4.05
2.38
-1.40
-6.83
-12.89
-18.56
-23.31
-27.16
-30.35
-33.16
-35.80
-38.11
-39.77
-40.48
-40.24
-39.34
-38.24
-37.28
-36.65
-36.50
-36.93
-38.09
-40.02
-42.61
-45.43
-47.80
-49.02
-48.57
-46.37
-42.87
-38.94
-35.57
-33.50
-32.97
-33.61
-34.66
-35.29
-34.92
-33.37
-30.84
-27.68
-24.20
-20.61
-17.06
-13.79
-11.12
-9.33
-8.50
-8.39
-8.47
-8.09
-6.71
-4.06
-0.21
4.55
9.70
14.68
18.96
22.13
23.97
24.45
23.71
21.97
19.52
16.63
13.63
10.84
8.51
6.75
5.48
4.46
3.51
2.59
1.88
1.64
1.99
2.69
3.24
3.08
1.95
0.10
-1.73
-2.66
-2.09
0.03
3.14
6.41
9.04
10.69
11.44
11.73
12.01
12.57
13.41
14.37
15.25
15.91
16.37
16.73
17.14
17.71
18.40
19.07
19.52
19.56
19.16
18.39
17.33
15.94
13.95
10.99
6.76
1.36
-4.62
-10.21
-14.42
-16.63
-16.85
-15.69
-14.13
-13.08
-13.09
-14.18
-15.93
-17.71
-18.99
-19.48
-19.28
-18.70
-18.02
-17.31
-16.33
-14.67
-12.05
-8.57
-4.72
-1.21
1.32
2.62
2.79
2.21
1.27
0.20
-0.90
-1.96
-2.86
-3.36
-3.26
-2.49
-1.19
0.32
1.70
2.68
3.22
3.44
3.54
3.68
3.89
4.06
3.99
3.50
2.58
1.38
0.19
-0.65
-0.93
-0.64
-0.03
0.55
0.72
0.23
-0.92
-2.56
-4.35
-5.90
-6.88
-7.17
-6.91
-6.43
-6.08
-6.09
-6.31
-6.36
-5.71
-4.10
-1.58
1.37
4.10
6.11
7.19
7.47
7.26
6.84
6.40
5.95
5.46
4.90
4.28
3.63
3.00
2.43
1.98
1.65
1.41
1.18
0.91
0.61
0.40
0.43
0.71
1.12
1.35
1.09
0.24
-1.04
-2.38
-3.42
-4.01
-4.25
-4.46
-4.92
-5.75
-6.94
-8.43
-10.23
-12.48
-15.22
-18.30
-21.24
-23.30
-23.84
-22.54
-19.67
-15.94
-12.24
-9.25
-7.19
-5.82
-4.70
-3.43
-1.93
-0.34
1.09
2.27
3.32
4.50
5.95
7.51
8.73
9.11
8.38
6.78
4.98
3.78
3.79
5.08
7.17
9.29
10.69
10.98
10.23
8.82
7.22
5.75
4.54
3.58
2.83
2.27
1.92
1.72
1.54
1.21
0.60
-0.37
-1.64
-3.18
-4.95
-6.90
-8.87
-10.59
-11.71
-11.93
-11.13
-9.42
-7.09
-4.48
-1.90
0.42
2.28
3.54
4.15
4.19
3.91
3.62
3.59
3.93
4.53
5.18
5.64
5.75
5.45
4.74
3.76
2.70
1.89
1.66
2.24
3.66
5.70
7.99
10.12
11.77
12.77
13.06
12.56
11.21
8.92
5.74
1.93
-2.03
-5.54
-8.11
-9.49
-9.78
-9.41
-8.96
-8.99
-9.85
-11.53
-13.65
-15.56
-16.57
-16.26
-14.69
-12.33
-9.87
-7.82
-6.26
-4.81
-2.89
-0.21
3.03
6.06
7.95
8.08
6.45
3.68
0.75
-1.49
-2.64
-2.80
-2.41
-1.96
-1.72
-1.66
-1.49
-0.92
0.19
1.75
3.47
5.03
6.20
6.93
7.23
7.09
6.38
4.84
2.23
-1.45
-5.82
-10.20
-13.76
-15.83
-16.19
-15.17
-13.47
-11.93
-11.17
-11.40
-12.43
-13.76
-14.84
-15.25
-14.72
-13.17
-10.59
-7.10
-2.98
1.31
5.09
7.71
8.80
8.51
7.47
6.61
6.67
7.86
9.72
11.31
11.73
10.51
7.89
4.68
1.91
0.35
0.30
1.54
3.53
5.68
7.49
8.64
8.93
8.29
6.80
4.69
2.28
0.01
-1.77
-2.82
-3.14
-2.88
-2.38
-1.97
-1.91
-2.27
-2.94
-3.68
-4.20
-4.27
-3.82
-2.92
-1.71
-0.35
1.09
2.69
4.52
6.67
9.08
11.55
13.78
15.44
16.31
16.29
15.51
14.15
12.47
10.63
8.73
6.78
4.84
3.01
1.48
0.44
0.04
0.34
1.27
2.68
4.34
5.96
7.24
7.88
7.68
6.63
4.95
2.97
1.03
-0.67
-2.06
-3.15
-3.90
-4.24
-4.12
-3.70
-3.36
-3.56
-4.55
-6.19
-7.94
-9.16
-9.48
-9.04
-8.39
-8.00
-7.88
-7.45
-5.81
-2.35
2.76
8.55
13.72
17.34
19.27
20.05
20.41
20.55
19.96
17.80
13.58
7.81
1.92
-2.37
-4.00
-3.18
-1.24
0.11
-0.21
-2.04
-4.17
-5.11
-4.03
-1.37
1.47
2.80
1.63
-1.90
-6.56
-10.77
-13.31
-13.77
-12.52
-10.25
-7.57
-4.74
-1.81
1.13
3.76
5.58
6.11
5.23
3.27
0.91
-1.12
-2.28
-2.44
-1.83
-0.85
0.11
0.86
1.40
1.83
2.24
2.65
3.01
3.35
3.82
4.61
5.83
7.28
8.38
8.36
6.66
3.29
-1.00
-5.00
-7.57
-8.21
-7.24
-5.64
-4.39
-3.96
-4.13
-4.25
-3.79
-2.70
-1.50
-0.85
-1.09
-2.03
-3.04
-3.47
-3.05
-2.04
-0.99
-0.36
-0.25
-0.35
-0.29
0.06
0.42
0.22
-1.07
-3.58
-6.94
-10.39
-13.22
-15.03
-15.92
-16.37
-16.87
-17.78
-19.12
-20.67
-22.15
-23.25
-23.70
-23.19
-21.49
-18.48
-14.44
-10.09
-6.51
-4.77
-5.41
-8.08
-11.45
-13.69
-13.22
-9.50
-3.26
3.76
9.66
13.27
14.66
14.93
15.57
17.58
20.98
24.85
27.88
29.05
28.02
25.13
21.11
16.68
12.34
8.26
4.45
0.96
-2.06
-4.33
-5.54
-5.52
-4.35
-2.45
-0.39
1.30
2.30
2.58
2.26
1.43
-0.01
-2.27
-5.38
-8.94
-12.03
-13.53
-12.65
-9.36
-4.57
0.25
3.61
4.70
3.58
1.08
-1.62
-3.54
-4.13
-3.44
-1.91
-0.16
1.29
2.13
2.33
2.03
1.52
1.11
1.08
1.73
3.28
5.75
8.88
12.01
14.20
14.57
12.75
9.07
4.62
0.73
-1.52
-1.83
-0.72
0.73
1.44
0.77
-1.31
-4.29
-7.57
-10.65
-13.36
-15.78
-18.02
-20.09
-21.83
-23.05
-23.61
-23.55
-23.03
-22.13
-20.76
-18.72
-15.85
-12.31
-8.62
-5.48
-3.45
-2.60
-2.55
-2.67
-2.54
-2.11
-1.79
-2.05
-3.13
-4.79
-6.41
-7.31
-6.98
-5.33
-2.61
0.75
4.28
7.59
10.48
12.82
14.64
15.97
16.80
17.04
16.62
15.59
14.20
12.93
12.21
12.24
12.79
13.31
13.24
12.36
10.92
9.48
8.51
8.11
7.95
7.53
6.50
4.86
2.89
0.87
-1.05
-2.83
-4.38
-5.39
-5.38
-4.02
-1.41
1.82
4.72
6.54
7.07
6.69
6.09
5.82
6.02
6.41
6.53
6.07
5.00
3.61
2.22
1.07
0.23
-0.38
-0.80
-0.97
-0.75
-0.05
1.08
2.28
3.01
2.74
1.18
-1.46
-4.50
-7.04
-8.34
-8.17
-6.84
-5.12
-3.82
-3.53
-4.41
-6.27
-8.66
-11.08
-13.11
-14.41
-14.90
-14.69
-14.10
-13.46
-12.89
-12.19
-10.83
-8.33
-4.55
0.11
4.77
8.46
10.51
10.91
10.15
8.95
7.89
7.13
6.50
5.73
4.75
3.78
3.24
3.46
4.42
5.66
6.50
6.31
4.82
2.30
-0.62
-3.16
-4.67
-4.78
-3.44
-0.89
2.46
6.01
9.12
11.23
12.00
11.47
10.00
8.16
6.48
5.26
4.44
3.66
2.38
0.16
-3.14
-7.27
-11.62
-15.42
-18.01
-19.06
-18.60
-16.88
-14.20
-10.79
-6.84
-2.61
1.49
4.97
7.48
8.96
9.71
10.19
10.79
11.54
12.15
12.16
11.29
9.63
7.64
5.92
4.90
4.64
4.83
5.03
4.97
4.80
4.91
5.75
7.39
9.35
10.76
10.72
8.81
5.31
1.21
-2.28
-4.20
-4.29
-2.93
-0.95
0.83
1.88
2.12
1.66
0.65
-0.85
-2.89
-5.38
-7.99
-10.20
-11.45
-11.52
-10.70
-9.68
-9.24
-9.71
-10.76
-11.44
-10.71
-8.00
-3.53
1.68
6.31
9.36
10.50
10.13
9.05
7.99
7.33
7.03
6.86
6.60
6.19
5.75
5.38
5.12
4.87
4.55
4.21
4.03
4.27
5.10
6.43
7.88
8.89
8.98
7.95
5.99
3.56
1.23
-0.59
-1.70
-2.19
-2.29
-2.26
-2.28
-2.44
-2.71
-3.04
-3.43
-4.01
-5.00
-6.57
-8.73
-11.21
-13.50
-15.07
-15.61
-15.20
-14.30
-13.52
-13.26
-13.41
-13.33
-12.20
-9.38
-4.96
0.29
5.14
8.50
9.91
9.69
8.76
8.02
7.89
8.15
8.14
7.27
5.41
2.98
0.75
-0.59
-0.67
0.44
2.42
4.86
7.38
9.64
11.30
12.06
11.74
10.33
8.10
5.47
2.96
1.02
-0.11
-0.42
-0.13
0.36
0.64
0.49
-0.08
-0.81
-1.36
-1.54
-1.48
-1.57
-2.25
-3.74
-5.92
-8.31
-10.35
-11.63
-12.14
-12.23
-12.46
-13.23
-14.53
-15.82
-16.18
-14.75
-11.20
-5.95
-0.10
4.98
8.28
9.48
9.07
7.93
6.93
6.49
6.50
6.51
6.12
5.17
3.85
2.53
1.54
1.09
1.21
1.85
2.94
4.40
6.10
7.77
9.03
9.48
8.86
7.17
4.74
2.17
0.07
-1.12
-1.35
-0.94
-0.40
-0.19
-0.50
-1.16
-1.83
-2.26
-2.39
-2.47
-2.81
-3.63
-4.95
-6.54
-8.13
-9.50
-10.51
-11.14
-11.43
-11.48
-11.53
-11.86
-12.66
-13.75
-14.51
-14.01
-11.44
-6.63
-0.34
5.98
10.73
12.89
12.44
10.27
7.67
5.68
4.72
4.56
4.65
4.50
3.90
2.95
1.90
1.04
0.60
0.73
1.51
2.96
4.96
7.26
9.42
10.89
11.13
9.83
7.12
3.67
0.50
-1.37
-1.40
0.16
2.37
4.01
4.20
2.81
0.43
-2.03
-3.83
-4.67
-4.73
-4.42
-4.11
-4.10
-4.57
-5.65
-7.31
-9.33
-11.27
-12.63
-13.14
-12.96
-12.59
-12.57
-13.05
-13.56
-13.23
-11.21
-7.23
-1.88
3.65
8.01
10.32
10.46
9.04
7.02
5.23
4.13
3.68
3.63
3.68
3.70
3.67
3.63
3.56
3.42
3.24
3.21
3.67
4.90
6.97
9.50
11.81
13.07
12.73
10.74
7.63
4.25
1.45
-0.27
-0.92
-0.88
-0.70
-0.78
-1.21
-1.78
-2.17
-2.20
-1.95
-1.73
-1.98
-3.01
-4.90
-7.48
-10.37
-13.16
-15.46
-16.99
-17.66
-17.60
-17.13
-16.66
-16.49
-16.58
-16.44
-15.36
-12.77
-8.66
-3.73
0.81
3.80
4.66
3.65
1.62
-0.44
-1.94
-2.92
-3.83
-5.13
-6.94
-8.91
-10.57
-11.60
-12.17
-12.76
-13.87
-15.65
-17.71
-19.30
-19.84
-19.31
-18.38
-18.28
-20.12
-24.47
-31.07
-38.95
-46.74
-52.98
-56.42
-56.18
-51.96
-44.15
-33.79
-22.34
-11.29
-1.83
5.33
10.03
12.46
13.20
13.21
13.77
16.31
21.82
30.45
41.28
52.77
63.46
72.60
80.30
86.75
91.31
91.99
86.11
71.83
49.74
23.43
-1.51
-19.97
-29.48
-30.87
-27.00
-20.53
-12.35
-1.70
12.11
28.11
43.35
54.64
60.79
63.49
66.16
71.14
77.03
78.30
67.57
39.71
-4.45
-56.95
-105.04
-136.06
-142.38
-124.26
-89.04
-47.68
-10.22
17.51
34.53
43.04
46.10
45.77
42.69
36.98
29.20
20.87
14.18
11.17
13.04
19.92
30.88
44.56
59.68
75.27
90.63
104.73
115.70
120.88
117.52
104.00
80.68
49.94
15.31
-19.59
-51.86
-79.21
-99.76
-112.05
-115.48
-110.95
-101.12
-89.88
-81.14
-77.50
-79.14
-83.76
-87.50
-86.61
-79.35
-67.24
-54.45
-45.59
-42.94
-44.31
-43.29
-32.05
-5.02
38.41
93.99
155.04
215.50
271.51
320.80
360.74
386.90
393.62
376.29
334.09
271.34
196.51
119.21
47.11
-15.92
-69.61
-115.61
-155.87
-191.98
-225.65
-259.07
-294.71
-333.47
-373.11
-407.89
-429.63
-430.91
-407.97
-362.42
-300.97
-232.86
-166.34
-105.81
-50.83
2.12
55.95
109.44
156.05
186.50
194.40
181.39
158.48
141.52
143.31
166.07
199.77
226.94
231.60
206.79
156.87
93.86
31.09
-21.64
-59.66
-81.94
-89.03
-82.67
-66.26
-45.37
-26.58
-14.83
-11.24
-12.92
-14.83
-12.67
-4.77
7.85
22.92
38.23
52.04
62.47
66.99
62.98
49.32
27.69
2.90
-18.77
-31.94
-34.35
-27.26
-14.57
-0.90
9.98
15.95
16.43
11.84
3.02
-9.13
-23.72
-39.89
-56.57
-72.38
-85.67
-94.76
-98.45
-96.42
-89.41
-78.94
-66.89
-54.76
-43.40
-32.85
-22.81
-13.13
-4.25
2.76
6.47
5.71
0.18
-9.19
-20.39
-30.89
-38.31
-41.26
-39.63
-34.52
-27.73
-21.11
-15.94
-12.72
-11.23
-10.94
-11.38
-12.26
-13.50
-14.96
-16.34
-17.21
-17.29
-16.64
-15.75
-15.32
-15.88
-17.44
-19.37
-20.62
-20.14
-17.15
-11.42
-3.09
7.44
19.64
32.77
45.73
57.01
64.91
68.02
65.75
58.71
48.49
37.11
26.33
17.12
9.73
3.89
-0.65
-3.98
-6.10
-7.11
-7.45
-7.66
-8.04
-8.32
-7.66
-5.04
0.11
7.57
16.24
24.57
31.21
35.40
37.14
36.88
35.23
32.58
29.11
24.93
20.29
15.74
11.91
9.32
8.00
7.55
7.27
6.55
5.18
3.42
1.80
0.69
0.03
-0.65
-1.97
-4.34
-7.78
-11.89
-16.14
-20.02
-23.11
-25.00
-25.26
-23.55
-19.97
-15.25
-10.76
-8.05
-8.32
-11.88
-18.07
-25.60
-32.99
-38.99
-42.73
-43.60
-41.28
-35.77
-27.51
-17.51
-7.09
2.38
9.99
15.43
19.00
21.36
23.30
25.51
28.37
31.82
35.37
38.17
39.46
38.87
36.74
33.94
31.51
30.12
29.82
30.22
30.82
31.44
32.21
33.30
34.54
35.35
34.99
33.03
29.62
25.42
21.11
17.07
13.11
8.79
3.81
-1.61
-6.81
-11.05
-14.01
-15.98
-17.75
-20.17
-23.73
-28.31
-33.25
-37.65
-40.73
-41.94
-41.05
-38.03
-33.04
-26.42
-18.83
-11.22
-4.65
-0.03
2.23
2.34
1.03
-0.81
-2.51
-3.84
-4.95
-6.05
-7.17
-8.00
-8.04
-6.89
-4.45
-0.97
3.04
7.02
10.60
13.54
15.87
17.64
18.91
19.69
19.93
19.58
18.70
17.42
15.95
14.51
13.28
12.34
11.64
11.02
10.25
9.08
7.29
4.77
1.56
-2.23
-6.35
-10.52
-14.45
-17.80
-20.10
-20.94
-20.03
-17.38
-13.44
-8.99
-4.89
-1.87
-0.16
0.42
0.39
0.44
1.22
3.16
6.35
10.52
15.09
19.25
22.28
23.74
23.70
22.77
21.88
21.91
23.37
26.14
29.57
32.74
34.70
34.71
32.28
27.20
19.63
10.19
-0.11
-10.01
-18.36
-24.48
-28.36
-30.66
-32.35
-34.39
-37.43
-41.62
-46.60
-51.63
-55.76
-58.05
-57.83
-54.90
-49.60
-42.60
-34.71
-26.59
-18.75
-11.52
-5.10
0.49
5.44
10.16
15.06
20.25
25.40
29.77
32.62
33.57
32.85
31.18
29.38
27.99
27.02
26.15
25.05
23.71
22.43
21.65
21.59
22.08
22.58
22.40
21.10
18.62
15.38
12.09
9.43
7.73
6.82
6.19
5.29
3.86
2.05
0.25
-1.26
-2.60
-4.28
-6.87
-10.52
-14.68
-18.23
-19.94
-19.01
-15.42
-9.88
-3.54
2.40
7.03
9.89
11.09
11.16
10.82
10.73
11.10
11.71
12.00
11.53
10.23
8.48
6.88
5.93
5.79
6.35
7.34
8.56
9.88
11.14
12.09
12.47
12.17
11.30
10.28
9.58
9.46
9.72
9.79
8.92
6.61
2.86
-1.77
-6.38
-10.11
-12.50
-13.60
-13.91
-14.20
-15.15
-17.17
-20.20
-23.74
-26.94
-28.77
-28.33
-25.21
-19.73
-12.89
-6.02
-0.27
3.80
6.27
7.64
8.44
8.95
9.19
9.14
8.88
8.66
8.74
9.21
9.90
10.52
10.85
10.87
10.71
10.46
10.02
9.18
7.73
5.67
3.22
0.69
-1.71
-3.88
-5.88
-7.68
-9.20
-10.29
-10.84
-10.90
-10.66
-10.32
-9.97
-9.59
-9.16
-8.76
-8.59
-8.85
-9.61
-10.74
-12.02
-13.23
-14.32
-15.38
-16.46
-17.48
-18.18
-18.20
-17.26
-15.33
-12.62
-9.56
-6.65
-4.32
-2.77
-1.91
-1.41
-0.81
0.26
1.83
3.63
5.20
6.14
6.36
6.12
5.82
5.74
5.94
6.24
6.42
6.41
6.31
6.31
6.51
6.81
7.00
6.91
6.53
6.04
5.74
5.84
6.39
7.28
8.31
9.30
10.19
11.06
12.04
13.36
15.16
17.49
20.15
22.74
24.68
25.45
24.80
22.87
20.10
17.08
14.27
11.94
10.11
8.71
7.71
7.15
6.95
6.84
6.27
4.56
1.31
-3.25
-8.26
-12.51
-15.03
-15.60
-14.70
-13.12
-11.49
-10.04
-8.83
-8.13
-8.55
-10.79
-15.03
-20.57
-26.07
-30.49
-33.91
-37.55
-43.13
-51.37
-61.35
-70.81
-77.48
-80.43
-80.64
-80.50
-82.59
-88.77
-99.60
-114.24
-130.61
-145.49
-154.82
-154.49
-141.61
-115.75
-79.71
-38.56
2.26
38.68
68.79
92.59
110.97
124.64
133.75
137.51
135.37
127.57
114.85
98.40
80.04
63.07
52.45
53.76
70.09
101.32
143.62
190.17
232.63
263.38
277.71
274.89
257.73
229.49
194.24
156.87
121.85
91.71
66.24
43.01
18.74
-9.48
-45.52
-90.86
-142.89
-195.84
-243.46
-281.63
-309.30
-328.10
-326.28
-298.28
-249.10
-191.68
-137.86
-93.23
-58.38
-31.60
-10.30
8.14
23.22
33.29
37.79
37.52
34.11
29.44
25.28
23.23
24.06
25.53
23.71
16.96
5.07
-11.46
-31.96
-55.19
-78.46
-97.53
-105.16
-98.85
-78.49
-47.51
-12.53
18.84
41.07
52.73
56.16
54.87
51.24
46.75
41.66
36.04
30.47
26.19
24.33
25.06
27.06
27.98
26.30
21.83
15.81
10.25
6.90
6.40
7.98
9.90
10.12
7.79
3.53
-0.90
-3.40
-2.70
1.05
6.27
10.90
13.36
13.48
12.68
12.66
14.94
20.00
27.47
36.47
45.70
53.01
55.20
48.57
30.58
2.02
-31.91
-62.68
-81.58
-83.33
-68.47
-42.55
-13.37
12.91
33.91
50.20
62.71
70.20
68.94
55.24
28.26
-7.76
-44.28
-71.72
-83.47
-78.85
-63.11
-44.86
-31.77
-28.15
-34.01
-46.22
-60.70
-74.22
-84.77
-91.03
-91.66
-84.91
-69.89
-47.50
-20.73
6.08
28.39
43.32
50.20
47.75
37.85
23.66
8.74
-3.64
-11.12
-12.46
-7.94
0.71
10.86
20.18
27.00
30.82
32.35
33.09
34.61
37.98
43.40
50.13
57.08
62.73
65.55
64.54
59.52
51.28
41.30
31.22
22.15
14.56
8.07
1.95
-4.48
-11.57
-19.45
-28.34
-38.47
-49.83
-61.74
-72.87
-81.75
-87.43
-89.96
-90.25
-89.31
-87.44
-84.07
-78.15
-69.17
-57.72
-45.39
-33.98
-24.66
-17.38
-11.11
-4.55
3.19
12.23
21.93
31.30
39.38
45.49
49.40
51.40
52.19
52.80
54.27
57.37
62.28
68.69
75.76
82.32
87.04
88.51
85.45
77.08
63.47
45.68
25.55
5.26
-13.02
-27.37
-36.27
-38.74
-34.67
-25.01
-11.76
2.54
15.54
25.80
32.94
37.33
39.39
39.11
36.07
29.87
20.69
9.49
-2.22
-12.76
-20.85
-25.59
-26.59
-23.88
-17.69
-8.53
2.97
16.01
29.60
42.51
53.35
60.68
63.42
61.30
55.18
47.01
39.44
34.94
34.85
38.68
43.95
47.01
44.38
34.22
17.27
-3.35
-23.29
-38.69
-47.55
-50.23
-48.82
-45.97
-43.69
-42.76
-42.89
-43.31
-43.31
-42.55
-41.02
-38.79
-35.85
-32.06
-27.29
-21.54
-15.10
-8.54
-2.57
2.09
5.02
6.17
5.89
4.75
3.31
1.92
0.66
-0.50
-1.54
-2.24
-2.19
-1.01
1.42
4.85
8.72
12.39
15.39
17.54
18.92
19.76
20.27
20.50
20.34
19.58
18.04
15.65
12.53
9.07
5.73
3.01
1.17
0.28
0.12
0.38
0.73
0.89
0.69
0.03
-1.10
-2.61
-4.35
-6.11
-7.77
-9.27
-10.64
-11.87
-12.90
-13.55
-13.69
-13.21
-12.18
-10.75
-9.08
-7.20
-5.07
-2.63
0.05
2.69
4.95
6.52
7.37
7.71
7.91
8.29
8.91
9.54
9.84
9.51
8.49
7.00
5.40
4.05
3.09
2.49
2.08
1.75
1.48
1.30
1.20
1.02
0.55
-0.40
-1.76
-3.24
-4.40
-4.90
-4.70
-4.03
-3.30
-2.80
-2.58
-2.44
-2.06
-1.25
-0.04
1.36
2.68
3.75
4.53
5.08
5.52
5.90
6.19
6.31
6.20
5.87
5.39
4.89
4.50
4.23
4.02
3.72
3.21
2.46
1.56
0.70
0.06
-0.25
-0.25
-0.07
0.11
0.08
-0.27
-0.98
-1.99
-3.17
-4.39
-5.56
-6.67
-7.74
-8.82
-9.86
-10.73
-11.20
-11.02
-10.04
-8.29
-6.01
-3.57
-1.35
0.40
1.60
2.36
2.83
3.19
3.55
3.95
4.42
4.97
5.64
6.41
7.19
7.80
8.05
7.84
7.26
6.53
5.95
5.74
5.94
6.39
6.85
7.10
7.07
6.82
6.45
6.04
5.52
4.79
3.75
2.45
1.07
-0.17
-1.11
-1.83
-2.53
-3.47
-4.79
-6.39
-8.05
-9.49
-10.54
-11.15
-11.39
-11.32
-10.94
-10.22
-9.13
-7.75
-6.19
-4.64
-3.25
-2.12
-1.27
-0.68
-0.30
-0.06
0.07
0.10
0.02
-0.17
-0.45
-0.75
-0.96
-0.96
-0.74
-0.37
-0.01
0.19
0.22
0.17
0.22
0.48
0.94
1.40
1.62
1.43
0.84
-0.02
-0.93
-1.75
-2.42
-3.01
-3.58
-4.15
-4.70
-5.19
-5.60
-5.93
-6.20
-6.45
-6.73
-7.10
-7.58
-8.13
-8.60
-8.74
-8.29
-7.10
-5.19
-2.73
0.02
2.82
5.47
7.84
9.81
11.31
12.33
12.96
13.35
13.71
14.13
14.61
15.03
15.22
15.05
14.49
13.58
12.44
11.21
9.97
8.77
7.61
6.44
5.18
3.77
2.23
0.60
-0.99
-2.40
-3.57
-4.52
-5.36
-6.26
-7.36
-8.75
-10.45
-12.41
-14.54
-16.69
-18.68
-20.32
-21.44
-21.98
-21.97
-21.62
-21.11
-20.61
-20.11
-19.45
-18.43
-16.89
-14.88
-12.57
-10.26
-8.17
-6.34
-4.68
-2.97
-1.05
1.07
3.22
5.12
6.57
7.57
8.31
9.10
10.18
11.65
13.34
14.98
16.28
17.13
17.53
17.62
17.53
17.29
16.82
16.00
14.71
12.99
10.97
8.87
6.85
5.01
3.32
1.63
-0.27
-2.54
-5.29
-8.47
-11.91
-15.35
-18.52
-21.29
-23.71
-25.90
-27.98
-29.89
-31.33
-31.87
-31.12
-28.92
-25.46
-21.24
-16.89
-13.02
-10.07
-8.20
-7.33
-7.15
-7.18
-6.90
-5.91
-4.08
-1.60
1.14
3.65
5.62
6.96
7.82
8.49
9.25
10.31
11.75
13.56
15.57
17.54
19.10
19.89
19.71
18.63
17.01
15.34
14.11
13.57
13.66
14.14
14.64
14.85
14.52
13.50
11.66
8.95
5.52
1.76
-1.72
-4.26
-5.47
-5.45
-4.90
-4.91
-6.56
-10.45
-16.41
-23.54
-30.56
-36.35
-40.40
-42.91
-44.61
-46.34
-48.72
-52.07
-56.47
-61.71
-67.20
-71.79
-73.79
-71.42
-63.58
-50.51
-33.94
-16.55
-0.83
11.88
21.71
29.84
37.48
45.06
52.04
57.37
60.22
60.44
58.53
55.25
51.19
46.59
41.49
36.02
30.59
25.88
22.56
21.01
21.05
22.00
22.83
22.55
20.50
16.66
11.69
6.66
2.66
0.34
-0.26
0.41
1.77
3.52
5.78
8.88
13.04
17.98
22.91
26.79
28.77
28.53
26.42
23.23
19.82
16.76
14.10
11.52
8.53
4.82
0.43
-4.27
-8.74
-12.57
-15.58
-17.84
-19.51
-20.74
-21.60
-22.14
-22.45
-22.75
-23.28
-24.08
-24.96
-25.39
-24.76
-22.61
-18.89
-14.05
-8.88
-4.33
-1.21
0.07
-0.48
-2.50
-5.47
-8.83
-12.08
-14.72
-16.22
-16.09
-14.04
-10.16
-4.93
0.92
6.78
12.42
18.01
23.84
29.97
35.98
41.08
44.49
45.91
45.71
44.70
43.75
43.34
43.43
43.61
43.40
42.57
41.13
39.15
36.60
33.31
29.17
24.34
19.37
15.06
12.08
10.53
9.80
8.69
5.86
0.45
-7.57
-17.28
-27.11
-35.32
-40.43
-41.65
-38.82
-32.42
-23.36
-12.91
-2.61
5.84
10.81
11.25
7.16
-0.16
-8.26
-14.42
-16.69
-14.70
-9.63
-3.53
1.84
5.72
8.05
8.58
6.02
-1.62
-15.65
-34.90
-55.15
-70.38
-75.48
-68.87
-53.42
-34.96
-19.33
-9.65
-5.44
-3.81
-1.75
2.07
6.91
10.93
12.66
11.86
9.48
6.91
5.16
4.53
4.49
4.16
2.82
0.09
-3.74
-7.86
-11.20
-12.78
-12.02
-8.92
-4.02
1.88
7.93
13.47
18.06
21.45
23.49
24.03
22.97
20.27
16.07
10.76
4.94
-0.64
-5.38
-8.99
-11.59
-13.72
-15.97
-18.63
-21.50
-23.87
-24.91
-24.06
-21.37
-17.53
-13.57
-10.37
-8.41
-7.62
-7.62
-7.96
-8.31
-8.55
-8.64
-8.54
-8.21
-7.67
-7.05
-6.52
-6.13
-5.80
-5.29
-4.44
-3.26
-1.95
-0.76
0.13
0.72
1.08
1.25
1.13
0.61
-0.29
-1.35
-2.19
-2.46
-2.03
-1.08
0.06
1.07
1.83
2.40
2.96
3.68
4.66
5.79
6.90
7.69
7.91
7.45
6.37
4.96
3.59
2.57
2.03
1.94
2.17
2.57
3.04
3.44
3.55
3.14
2.06
0.35
-1.69
-3.66
-5.23
-6.25
-6.82
-7.07
-7.07
-6.72
-5.87
-4.39
-2.37
-0.13
1.95
3.51
4.39
4.67
4.56
4.33
4.15
4.02
3.84
3.51
3.07
2.70
2.72
3.35
4.60
6.09
7.29
7.63
6.83
4.96
2.41
-0.32
-2.75
-4.61
-5.78
-6.28
-6.19
-5.57
-4.55
-3.30
-2.05
-0.99
-0.25
0.14
0.28
0.25
0.07
-0.42
-1.45
-3.23
-5.66
-8.24
-10.20
-10.83
-9.91
-7.85
-5.56
-3.86
-3.04
-2.71
-2.13
-0.74
1.39
3.63
5.22
5.79
5.57
5.16
5.06
5.36
5.79
6.04
6.07
6.12
6.52
7.34
8.33
9.07
9.32
9.12
8.70
8.32
8.05
7.74
7.21
6.37
5.37
4.49
4.02
4.12
4.70
5.47
6.00
5.83
4.69
2.59
-0.22
-3.27
-6.10
-8.36
-9.87
-10.59
-10.59
-10.02
-9.16
-8.31
-7.74
-7.55
-7.65
-7.80
-7.71
-7.23
-6.38
-5.30
-4.21
-3.33
-2.84
-2.84
-3.32
-4.17
-5.15
-5.96
-6.37
-6.24
-5.59
-4.57
-3.38
-2.23
-1.26
-0.55
-0.08
0.14
0.14
-0.04
-0.36
-0.79
-1.26
-1.73
-2.18
-2.63
-3.09
-3.58
-4.06
-4.47
-4.75
-4.91
-5.11
-5.54
-6.37
-7.57
-8.89
-9.91
-10.25
-9.73
-8.48
-6.89
-5.43
-4.43
-3.94
-3.71
-3.32
-2.41
-0.85
1.21
3.35
5.12
6.20
6.58
6.52
6.39
6.53
7.03
7.80
8.55
9.04
9.16
8.92
8.45
7.86
7.22
6.57
5.92
5.31
4.77
4.31
3.94
3.64
3.38
3.09
2.70
2.14
1.33
0.27
-0.98
-2.29
-3.52
-4.56
-5.34
-5.83
-6.04
-5.96
-5.60
-5.03
-4.39
-3.87
-3.59
-3.56
-3.66
-3.70
-3.49
-2.97
-2.24
-1.45
-0.74
-0.13
0.47
1.20
2.18
3.37
4.62
5.67
6.31
6.44
6.17
5.73
5.42
5.45
5.88
6.62
7.50
8.33
8.98
9.43
9.63
9.53
9.07
8.22
7.08
5.88
4.93
4.45
4.41
4.55
4.43
3.68
2.15
-0.00
-2.36
-4.50
-6.13
-7.17
-7.76
-8.07
-8.27
-8.47
-8.66
-8.74
-8.56
-7.92
-6.76
-5.18
-3.51
-2.17
-1.50
-1.57
-2.14
-2.78
-3.05
-2.71
-1.75
-0.34
1.26
2.82
4.21
5.34
6.16
6.62
6.65
6.23
5.40
4.29
3.12
2.16
1.62
1.63
2.12
2.90
3.71
4.34
4.62
4.49
3.91
2.92
1.61
0.16
-1.18
-2.16
-2.64
-2.67
-2.46
-2.30
-2.44
-2.98
-3.85
-4.87
-5.81
-6.52
-6.98
-7.26
-7.49
-7.70
-7.83
-7.70
-7.11
-5.97
-4.34
-2.51
-0.82
0.47
1.30
1.82
2.28
2.86
3.60
4.39
5.07
5.58
5.97
6.36
6.84
7.38
7.77
7.80
7.38
6.58
5.66
4.94
4.63
4.75
5.12
5.50
5.69
5.61
5.32
4.91
4.46
3.99
3.44
2.79
2.05
1.26
0.44
-0.40
-1.29
-2.26
-3.32
-4.41
-5.45
-6.36
-7.10
-7.67
-8.11
-8.49
-8.82
-9.09
-9.21
-9.03
-8.48
-7.55
-6.34
-5.02
-3.79
-2.76
-1.95
-1.27
-0.61
0.11
0.92
1.76
2.56
3.29
3.94
4.53
5.08
5.58
6.01
6.33
6.56
6.71
6.81
6.90
6.98
7.02
6.99
6.85
6.61
6.24
5.78
5.31
4.90
4.66
4.60
4.60
4.42
3.81
2.65
1.03
-0.74
-2.26
-3.29
-3.81
-4.06
-4.35
-4.95
-5.91
-7.08
-8.20
-9.04
-9.44
-9.36
-8.86
-8.03
-6.98
-5.82
-4.63
-3.50
-2.54
-1.79
-1.31
-1.03
-0.84
-0.59
-0.13
0.57
1.46
2.41
3.26
3.95
4.48
4.91
5.32
5.73
6.08
6.26
6.22
5.98
5.63
5.31
5.13
5.06
4.99
4.71
4.09
3.10
1.85
0.52
-0.75
-1.95
-3.12
-4.35
-5.66
-7.01
-8.27
-9.33
-10.17
-10.83
-11.38
-11.87
-12.27
-12.48
-12.40
-11.97
-11.18
-10.06
-8.70
-7.14
-5.47
-3.76
-2.09
-0.52
0.88
2.10
3.14
4.02
4.75
5.34
5.83
6.24
6.62
6.99
7.32
7.60
7.81
7.97
8.12
8.27
8.40
8.43
8.31
8.02
7.63
7.24
6.92
6.68
6.49
6.28
6.04
5.74
5.37
4.86
4.12
3.11
1.88
0.56
-0.70
-1.85
-2.89
-3.92
-4.97
-6.02
-6.96
-7.65
-8.04
-8.12
-7.95
-7.54
-6.88
-5.90
-4.61
-3.10
-1.58
-0.26
0.79
1.68
2.69
4.13
6.13
8.55
11.02
13.09
14.46
15.07
15.16
15.15
15.41
16.15
17.32
18.60
19.47
19.44
18.11
15.36
11.35
6.44
1.14
-4.00
-8.47
-11.91
-14.13
-15.22
-15.56
-15.74
-16.29
-17.44
-19.03
-20.56
-21.51
-21.57
-20.83
-19.62
-18.37
-17.35
-16.65
-16.22
-15.98
-15.90
-15.93
-15.92
-15.60
-14.65
-12.89
-10.34
-7.29
-4.13
-1.25
1.14
3.00
4.45
5.62
6.56
7.26
7.70
7.91
8.04
8.28
8.77
9.56
10.52
11.48
12.27
12.79
13.06
13.15
13.14
13.06
12.84
12.38
11.63
10.67
9.71
9.05
8.90
9.31
10.06
10.77
11.00
10.42
8.96
6.77
4.21
1.64
-0.63
-2.50
-4.00
-5.29
-6.55
-7.91
-9.37
-10.86
-12.24
-13.36
-14.11
-14.39
-14.11
-13.21
-11.64
-9.47
-6.85
-4.00
-1.20
1.25
3.14
4.38
5.07
5.51
6.19
7.56
9.87
12.97
16.36
19.35
21.47
22.66
23.43
24.55
26.71
30.08
34.14
37.82
40.10
40.41
39.01
36.86
35.17
34.85
36.26
39.36
43.81
48.85
53.05
54.00
48.72
34.69
11.17
-19.86
-53.94
-85.28
-108.02
-117.62
-111.72
-90.85
-58.87
-22.75
8.69
26.83
25.93
5.06
-31.48
-75.19
-115.44
-141.94
-146.63
-125.55
-80.49
-19.49
44.48
97.25
128.13
134.01
120.06
96.73
74.83
60.88
55.57
55.25
55.40
53.23
48.64
43.15
38.15
33.56
27.69
18.21
3.06
-18.67
-46.16
-76.65
-105.43
-126.24
-132.55
-119.44
-85.79
-35.70
22.14
77.06
120.24
147.58
160.41
163.48
161.70
157.69
151.57
142.66
131.62
121.07
114.10
111.86
112.31
110.66
102.07
84.26
58.39
27.76
-4.87
-39.38
-78.86
-127.98
-189.79
-262.90
-340.09
-409.56
-458.67
-478.33
-465.86
-425.42
-366.06
-299.07
-235.55
-184.55
-152.01
-140.06
-146.67
-165.33
-186.48
-200.19
-198.95
-179.45
-142.19
-90.68
-30.17
33.01
92.67
143.87
183.94
211.62
224.19
219.20
196.85
161.96
123.21
89.59
66.43
53.43
44.60
31.11
7.01
-26.98
-63.18
-90.53
-99.87
-88.20
-59.91
-22.58
14.41
43.52
61.29
68.19
67.44
62.99
57.85
54.11
52.32
52.06
53.27
56.58
63.13
74.26
91.73
112.19
135.11
161.12
191.11
225.22
261.50
294.89
317.88
322.82
305.14
266.79
215.26
160.98
113.45
77.88
53.92
37.12
21.83
4.14
-16.02
-35.96
-52.30
-63.26
-70.01
-76.34
-86.70
-103.69
-126.13
-148.72
-164.54
-167.99
-157.33
-135.41
-108.61
-84.41
-68.94
-65.36
-73.07
-88.39
-105.57
-118.39
-122.00
-114.48
-97.29
-74.31
-49.88
-27.01
-6.91
10.27
24.19
33.74
37.41
34.76
27.35
18.51
11.94
9.89
12.07
16.04
18.65
17.76
13.26
6.76
0.61
-3.42
-4.92
-4.72
-4.42
-5.50
-8.70
-13.71
-19.29
-23.67
-25.32
-23.54
-18.79
-12.55
-6.71
-2.88
-1.69
-2.62
-4.26
-4.90
-3.31
0.80
6.68
12.89
17.92
20.82
21.49
20.55
18.95
17.41
16.13
14.83
13.04
10.49
7.33
4.08
1.39
-0.17
-0.38
0.73
3.01
6.20
9.75
12.67
13.61
11.42
5.85
-1.89
-9.37
-13.82
-13.36
-7.88
0.93
10.42
18.14
22.81
24.38
23.67
21.55
18.57
14.97
10.99
7.17
4.37
3.41
4.81
8.47
13.72
19.48
24.67
28.50
30.61
31.10
30.42
29.13
27.78
26.67
25.83
25.02
23.89
22.13
19.62
16.51
13.14
9.87
7.00
4.68
2.95
1.76
1.04
0.70
0.64
0.77
1.07
1.54
2.20
3.03
3.85
4.38
4.23
3.11
0.92
-2.09
-5.32
-7.98
-9.32
-8.91
-6.79
-3.50
0.19
3.59
6.33
8.47
10.37
12.45
15.00
18.09
21.54
24.91
27.48
28.41
27.03
23.27
17.84
12.09
7.55
5.19
5.03
6.16
7.27
7.31
5.97
3.63
1.02
-1.26
-2.97
-4.19
-5.10
-5.77
-6.15
-6.24
-6.15
-6.11
-6.41
-7.29
-8.78
-10.71
-12.80
-14.73
-16.30
-17.45
-18.29
-19.08
-20.10
-21.49
-23.15
-24.71
-25.62
-25.37
-23.72
-20.79
-17.08
-13.23
-9.79
-7.05
-4.96
-3.26
-1.59
0.30
2.46
4.75
6.92
8.74
10.13
11.14
11.97
12.80
13.72
14.69
15.55
16.18
16.51
16.57
16.40
16.00
15.31
14.22
12.72
10.88
8.92
7.09
5.60
4.54
3.87
3.50
3.28
3.07
2.72
2.14
1.23
-0.10
-1.87
-4.14
-6.89
-10.04
-13.38
-16.57
-19.15
-20.62
-20.57
-18.87
-15.67
-11.51
-7.06
-3.04
0.10
2.23
3.54
4.47
5.39
6.53
7.88
9.31
10.71
12.03
13.34
14.61
15.68
16.19
15.75
14.13
11.45
8.25
5.25
3.12
2.21
2.44
3.38
4.45
5.14
5.15
4.44
3.22
1.80
0.49
-0.51
-1.16
-1.56
-1.91
-2.36
-2.97
-3.68
-4.36
-4.97
-5.56
-6.33
-7.49
-9.14
-11.21
-13.46
-15.59
-17.28
-18.27
-18.38
-17.51
-15.62
-12.86
-9.50
-5.99
-2.81
-0.29
1.50
2.76
3.85
5.11
6.60
8.15
9.46
10.25
10.43
10.15
9.68
9.25
8.97
8.72
8.32
7.56
6.42
5.00
3.57
2.37
1.55
1.10
0.85
0.60
0.20
-0.38
-1.06
-1.74
-2.34
-2.91
-3.60
-4.51
-5.68
-7.02
-8.36
-9.53
-10.45
-11.18
-11.85
-12.63
-13.65
-14.90
-16.23
-17.38
-18.02
-17.89
-16.89
-15.06
-12.62
-9.89
-7.16
-4.64
-2.39
-0.36
1.51
3.24
4.81
6.12
7.12
7.75
8.03
8.01
7.82
7.62
7.55
7.69
7.98
8.24
8.20
7.70
6.74
5.58
4.59
4.06
4.07
4.45
4.84
4.96
4.68
4.07
3.31
2.54
1.80
1.03
0.12
-0.97
-2.14
-3.23
-4.07
-4.54
-4.70
-4.75
-4.95
-5.56
-6.70
-8.24
-9.82
-10.91
-10.98
-9.70
-7.05
-3.38
0.74
4.65
7.85
10.09
11.40
12.03
12.25
12.35
12.54
12.92
13.64
14.77
16.14
17.27
17.38
15.64
11.69
5.96
-0.32
-5.60
-8.68
-9.24
-7.96
-6.06
-4.65
-4.22
-4.51
-4.98
-5.14
-4.98
-4.81
-5.03
-5.80
-6.96
-8.18
-9.16
-9.74
-10.00
-10.19
-10.49
-11.03
-11.87
-12.99
-14.33
-15.83
-17.36
-18.70
-19.50
-19.41
-18.14
-15.65
-12.18
-8.25
-4.43
-1.11
1.58
3.79
5.75
7.66
9.52
11.13
12.28
12.82
12.85
12.69
12.68
13.05
13.79
14.69
15.47
15.88
15.81
15.42
15.04
15.07
15.79
17.32
19.53
21.97
23.85
24.27
22.79
19.67
15.85
12.54
10.65
10.43
11.31
12.09
11.57
9.39
6.15
3.00
0.97
0.52
1.55
3.53
5.47
6.36
5.99
5.06
4.98
7.24
12.94
22.48
35.09
48.20
57.82
60.07
52.27
33.60
5.21
-30.14
-68.31
-102.11
-124.79
-134.25
-133.24
-126.49
-117.83
-109.49
-102.38
-96.34
-90.05
-81.44
-68.15
-48.01
-20.66
11.40
43.14
68.85
84.52
89.25
85.88
76.96
65.63
54.71
45.96
39.93
36.28
34.26
33.12
32.03
30.28
28.09
26.21
25.58
26.70
29.37
32.81
35.98
37.95
38.21
37.05
35.40
34.37
34.63
35.85
36.32
32.89
21.49
-1.58
-37.56
-83.81
-133.55
-177.38
-206.12
-213.91
-200.18
-169.57
-129.91
-89.23
-53.41
-25.13
-4.47
9.85
19.24
24.75
27.26
27.77
27.63
28.18
30.20
33.58
37.26
39.71
39.72
36.96
32.16
26.76
22.33
19.84
19.34
20.00
20.50
19.70
17.08
12.96
8.35
4.47
2.29
2.12
3.57
5.79
7.86
9.17
9.58
9.37
9.02
8.91
9.20
9.77
10.35
10.63
10.41
9.64
8.37
6.78
5.11
3.59
2.39
1.55
1.00
0.55
0.04
-0.63
-1.40
-2.12
-2.60
-2.77
-2.70
-2.60
-2.73
-3.31
-4.40
-5.92
-7.63
-9.23
-10.44
-11.13
-11.35
-11.31
-11.28
-11.51
-12.13
-13.10
-14.25
-15.36
-16.19
-16.52
-16.18
-15.10
-13.27
-10.85
-8.09
-5.30
-2.72
-0.50
1.40
3.09
4.72
6.36
7.99
9.47
10.68
11.50
11.91
12.01
11.94
11.82
11.75
11.76
11.83
11.90
11.92
11.82
11.57
11.14
10.54
9.78
8.89
7.91
6.88
5.84
4.83
3.84
2.86
1.82
0.66
-0.61
-1.96
-3.32
-4.64
-5.95
-7.35
-8.97
-10.90
-13.07
-15.27
-17.17
-18.41
-18.76
-18.14
-16.67
-14.60
-12.21
-9.74
-7.30
-4.93
-2.58
-0.24
2.10
4.36
6.47
8.33
9.87
11.02
11.78
12.16
12.29
12.27
12.23
12.25
12.34
12.47
12.57
12.59
12.51
12.33
12.02
11.56
10.93
10.10
9.10
7.97
6.79
5.65
4.58
3.60
2.66
1.69
0.63
-0.52
-1.71
-2.89
-4.04
-5.20
-6.45
-7.91
-9.63
-11.61
-13.78
-15.96
-17.93
-19.37
-19.99
-19.56
-18.06
-15.66
-12.70
-9.56
-6.54
-3.75
-1.16
1.37
3.93
6.48
8.85
10.75
11.95
12.39
12.22
11.79
11.40
11.27
11.39
11.62
11.78
11.80
11.74
11.76
11.97
12.36
12.78
12.98
12.77
12.07
10.96
9.66
8.39
7.31
6.44
5.66
4.78
3.66
2.22
0.56
-1.18
-2.82
-4.22
-5.36
-6.31
-7.25
-8.40
-9.94
-11.95
-14.36
-16.93
-19.32
-21.12
-22.00
-21.76
-20.38
-18.01
-14.93
-11.50
-8.05
-4.85
-2.00
0.46
2.60
4.51
6.23
7.74
8.99
9.92
10.56
11.01
11.35
11.65
11.91
12.05
12.00
11.77
11.47
11.25
11.25
11.50
11.85
12.05
11.90
11.29
10.30
9.13
7.98
6.99
6.11
5.20
4.05
2.55
0.74
-1.22
-3.10
-4.70
-5.93
-6.87
-7.68
-8.56
-9.66
-11.04
-12.67
-14.46
-16.27
-17.93
-19.19
-19.81
-19.58
-18.42
-16.42
-13.86
-11.08
-8.40
-5.99
-3.84
-1.80
0.29
2.49
4.70
6.70
8.26
9.29
9.84
10.13
10.38
10.73
11.17
11.55
11.73
11.63
11.32
10.91
10.55
10.30
10.12
9.94
9.71
9.39
8.96
8.40
7.68
6.76
5.69
4.54
3.42
2.38
1.38
0.31
-0.94
-2.37
-3.90
-5.36
-6.63
-7.67
-8.58
-9.52
-10.63
-11.98
-13.53
-15.19
-16.79
-18.17
-19.11
-19.42
-18.90
-17.50
-15.31
-12.58
-9.64
-6.81
-4.28
-2.06
-0.04
1.95
3.95
5.89
7.57
8.78
9.44
9.61
9.50
9.36
9.39
9.64
10.07
10.56
10.97
11.23
11.31
11.24
11.06
10.79
10.44
10.02
9.51
8.88
8.11
7.18
6.09
4.92
3.79
2.82
2.06
1.45
0.80
-0.10
-1.41
-3.13
-5.10
-7.07
-8.83
-10.27
-11.45
-12.55
-13.74
-15.10
-16.59
-18.04
-19.21
-19.83
-19.74
-18.84
-17.24
-15.13
-12.79
-10.47
-8.30
-6.25
-4.20
-2.00
0.41
2.89
5.22
7.14
8.45
9.18
9.46
9.52
9.56
9.70
9.95
10.23
10.45
10.55
10.50
10.36
10.15
9.92
9.67
9.36
8.95
8.39
7.66
6.80
5.90
5.08
4.40
3.89
3.45
2.96
2.24
1.22
-0.12
-1.65
-3.20
-4.61
-5.83
-6.84
-7.72
-8.57
-9.49
-10.54
-11.75
-13.13
-14.63
-16.17
-17.60
-18.71
-19.34
-19.33
-18.60
-17.14
-15.05
-12.50
-9.69
-6.87
-4.21
-1.85
0.16
1.86
3.32
4.60
5.76
6.77
7.56
8.07
8.30
8.33
8.28
8.30
8.45
8.71
9.00
9.21
9.28
9.25
9.20
9.18
9.18
9.11
8.88
8.44
7.79
7.03
6.23
5.43
4.60
3.67
2.57
1.31
-0.05
-1.45
-2.80
-4.07
-5.23
-6.25
-7.10
-7.77
-8.37
-9.06
-10.01
-11.31
-12.89
-14.52
-15.95
-16.92
-17.32
-17.11
-16.28
-14.82
-12.73
-10.09
-7.08
-4.01
-1.16
1.24
3.19
4.81
6.27
7.71
9.09
10.32
11.23
11.72
11.84
11.72
11.54
11.47
11.54
11.70
11.84
11.88
11.77
11.56
11.30
11.01
10.64
10.15
9.47
8.63
7.69
6.75
5.83
4.90
3.91
2.78
1.55
0.34
-0.73
-1.58
-2.26
-2.90
-3.62
-4.47
-5.38
-6.26
-7.05
-7.82
-8.71
-9.85
-11.24
-12.76
-14.22
-15.42
-16.23
-16.56
-16.38
-15.63
-14.29
-12.41
-10.13
-7.71
-5.35
-3.15
-1.10
0.91
2.87
4.67
6.07
6.86
6.97
6.58
6.00
5.55
5.41
5.57
5.86
6.09
6.13
5.97
5.65
5.28
4.91
4.57
4.25
3.88
3.41
2.80
2.10
1.40
0.81
0.36
0.03
-0.29
-0.70
-1.25
-1.92
-2.65
-3.44
-4.29
-5.27
-6.41
-7.70
-9.00
-10.13
-10.87
-11.03
-10.47
-9.15
-7.15
-4.70
-2.14
0.23
2.17
3.67
4.88
6.04
7.32
8.69
9.94
10.81
11.12
10.90
10.36
9.77
9.32
8.98
8.63
8.11
7.39
6.61
5.92
5.48
5.23
5.04
4.73
4.18
3.44
2.62
1.84
1.12
0.42
-0.38
-1.29
-2.24
-3.10
-3.74
-4.19
-4.60
-5.18
-6.10
-7.37
-8.90
-10.51
-12.06
-13.42
-14.50
-15.14
-15.21
-14.60
-13.33
-11.53
-9.45
-7.34
-5.32
-3.44
-1.65
0.07
1.69
3.16
4.38
5.31
5.91
6.23
6.34
6.35
6.39
6.53
6.77
7.00
7.07
6.85
6.31
5.56
4.82
4.34
4.22
4.38
4.63
4.76
4.62
4.27
3.86
3.54
3.35
3.17
2.82
2.17
1.24
0.20
-0.78
-1.58
-2.25
-2.91
-3.75
-4.81
-6.06
-7.37
-8.59
-9.64
-10.53
-11.25
-11.78
-11.99
-11.73
-10.90
-9.50
-7.69
-5.69
-3.73
-1.94
-0.29
1.32
2.98
4.67
6.26
7.52
8.28
8.46
8.11
7.41
6.59
5.87
5.41
5.28
5.44
5.77
6.08
6.26
6.21
6.00
5.71
5.45
5.28
5.13
4.93
4.58
4.06
3.42
2.75
2.10
1.50
0.89
0.21
-0.53
-1.33
-2.09
-2.78
-3.41
-4.06
-4.85
-5.86
-7.09
-8.47
-9.86
-11.09
-12.05
-12.64
-12.83
-12.60
-11.91
-10.79
-9.27
-7.42
-5.33
-3.13
-0.94
1.12
2.95
4.48
5.70
6.62
7.29
7.74
8.01
8.12
8.11
8.04
7.94
7.83
7.68
7.47
7.16
6.78
6.40
6.09
5.88
5.71
5.46
5.01
4.33
3.49
2.66
1.97
1.48
1.10
0.67
0.07
-0.72
-1.63
-2.51
-3.30
-3.98
-4.65
-5.37
-6.16
-6.95
-7.61
-8.10
-8.46
-8.82
-9.31
-9.98
-10.71
-11.25
-11.35
-10.81
-9.60
-7.84
-5.78
-3.66
-1.68
0.08
1.60
2.92
4.05
4.94
5.58
5.95
6.11
6.17
6.24
6.39
6.60
6.82
6.95
6.91
6.68
6.26
5.71
5.11
4.56
4.12
3.83
3.66
3.52
3.31
2.92
2.34
1.61
0.82
0.07
-0.60
-1.17
-1.71
-2.29
-2.96
-3.71
-4.48
-5.15
-5.64
-5.95
-6.15
-6.39
-6.84
-7.61
-8.68
-9.96
-11.22
-12.26
-12.87
-12.92
-12.37
-11.22
-9.57
-7.57
-5.42
-3.33
-1.47
0.05
1.21
2.07
2.73
3.27
3.72
4.09
4.37
4.53
4.60
4.62
4.61
4.61
4.59
4.55
4.47
4.37
4.28
4.23
4.23
4.24
4.23
4.11
3.86
3.47
2.98
2.44
1.89
1.31
0.68
-0.02
-0.75
-1.43
-2.01
-2.47
-2.91
-3.47
-4.23
-5.15
-6.12
-7.00
-7.72
-8.36
-9.02
-9.79
-10.64
-11.41
-11.95
-12.14
-11.96
-11.45
-10.59
-9.35
-7.66
-5.52
-3.07
-0.51
1.92
4.11
6.01
7.68
9.10
10.20
10.88
11.07
10.81
10.29
9.74
9.32
9.05
8.82
8.49
7.95
7.25
6.52
5.93
5.61
5.55
5.65
5.74
5.65
5.25
4.56
3.68
2.77
1.98
1.37
0.89
0.39
-0.26
-1.11
-2.10
-3.09
-3.93
-4.59
-5.11
-5.63
-6.29
-7.12
-8.10
-9.13
-10.10
-10.97
-11.72
-12.36
-12.89
-13.19
-13.10
-12.44
-11.13
-9.21
-6.87
-4.32
-1.73
0.85
3.40
5.91
8.25
10.23
11.66
12.50
12.84
12.89
12.87
12.85
12.78
12.52
11.96
11.11
10.07
9.04
8.19
7.59
7.25
7.08
6.98
6.87
6.68
6.38
5.94
5.34
4.62
3.83
3.05
2.41
1.94
1.62
1.35
0.95
0.29
-0.69
-1.94
-3.31
-4.62
-5.77
-6.69
-7.44
-8.11
-8.82
-9.68
-10.75
-12.03
-13.41
-14.68
-15.57
-15.76
-15.03
-13.36
-10.91
-8.01
-5.04
-2.28
0.10
2.09
3.76
5.21
6.49
7.59
8.44
9.00
9.21
9.10
8.73
8.20
7.63
7.12
6.77
6.63
6.68
6.84
6.97
6.95
6.71
6.28
5.73
5.18
4.68
4.22
3.71
3.02
2.12
1.01
-0.17
-1.26
-2.12
-2.69
-3.03
-3.31
-3.72
-4.43
-5.50
-6.83
-8.22
-9.44
-10.27
-10.55
-10.17
-9.09
-7.33
-5.02
-2.38
0.28
2.68
4.63
6.08
7.11
7.86
8.45
8.91
9.21
9.30
9.14
8.76
8.26
7.75
7.32
7.05
6.92
6.86
6.79
6.64
6.35
5.92
5.37
4.71
3.97
3.19
2.40
1.64
0.90
0.10
-0.83
-1.92
-3.11
-4.28
-5.27
-6.01
-6.56
-7.05
-7.62
-8.34
-9.18
-10.01
-10.73
-11.24
-11.48
-11.39
-10.87
-9.82
-8.23
-6.19
-3.91
-1.65
0.37
2.03
3.34
4.36
5.17
5.81
6.28
6.58
6.76
6.87
6.99
7.14
7.27
7.29
7.11
6.70
6.14
5.54
5.01
4.61
4.31
4.01
3.61
3.03
2.26
1.31
0.24
-0.90
-2.01
-2.98
-3.71
-4.14
-4.32
-4.41
-4.57
-4.94
-5.55
-6.39
-7.40
-8.57
-9.86
-11.19
-12.39
-13.22
-13.44
-12.96
-11.85
-10.34
-8.66
-6.99
-5.36
-3.70
-1.96
-0.12
1.74
3.50
5.05
6.33
7.30
7.98
8.36
8.44
8.24
7.79
7.20
6.56
6.00
5.61
5.42
5.37
5.37
5.31
5.12
4.80
4.41
4.03
3.72
3.49
3.32
3.16
2.99
2.78
2.48
2.06
1.46
0.68
-0.26
-1.26
-2.21
-3.04
-3.72
-4.34
-5.03
-5.90
-7.00
-8.29
-9.62
-10.84
-11.80
-12.41
-12.60
-12.34
-11.61
-10.46
-8.96
-7.24
-5.44
-3.64
-1.88
-0.14
1.60
3.33
4.96
6.40
7.58
8.43
8.95
9.13
8.97
8.53
7.90
7.25
6.69
6.30
6.05
5.85
5.60
5.25
4.85
4.50
4.28
4.19
4.14
3.97
3.56
2.83
1.83
0.69
-0.44
-1.43
-2.22
-2.86
-3.43
-4.03
-4.74
-5.53
-6.39
-7.27
-8.16
-9.09
-10.00
-10.80
-11.32
-11.38
-10.85
-9.74
-8.18
-6.37
-4.52
-2.73
-1.04
0.58
2.15
3.66
5.06
6.30
7.29
7.95
8.22
8.14
7.81
7.45
7.25
7.35
7.67
7.99
8.06
7.69
6.88
5.79
4.69
3.78
3.14
2.70
2.33
1.93
1.46
0.91
0.31
-0.37
-1.13
-1.98
-2.89
-3.79
-4.60
-5.26
-5.82
-6.36
-7.06
-8.03
-9.28
-10.66
-11.88
-12.65
-12.73
-12.10
-10.90
-9.37
-7.74
-6.15
-4.64
-3.18
-1.72
-0.25
1.24
2.76
4.29
5.78
7.12
8.17
8.84
9.12
9.12
8.98
8.85
8.78
8.75
8.70
8.60
8.43
8.19
7.85
7.38
6.74
5.94
5.05
4.16
3.35
2.65
2.01
1.32
0.50
-0.48
-1.58
-2.70
-3.68
-4.43
-4.94
-5.29
-5.67
-6.29
-7.29
-8.68
-10.31
-11.97
-13.41
-14.44
-14.96
-14.94
-14.37
-13.26
-11.67
-9.71
-7.54
-5.33
-3.18
-1.15
0.76
2.51
4.07
5.37
6.38
7.10
7.61
7.96
8.21
8.38
8.46
8.45
8.36
8.24
8.11
8.01
7.93
7.86
7.76
7.55
7.16
6.57
5.80
4.92
4.06
3.28
2.58
1.92
1.26
0.57
-0.11
-0.77
-1.42
-2.09
-2.82
-3.61
-4.40
-5.14
-5.84
-6.59
-7.55
-8.84
-10.47
-12.26
-13.96
-15.24
-15.88
-15.78
-14.98
-13.57
-11.72
-9.57
-7.26
-4.95
-2.71
-0.60
1.38
3.25
5.02
6.63
8.02
9.04
9.66
9.88
9.81
9.64
9.50
9.49
9.59
9.71
9.74
9.58
9.24
8.76
8.24
7.72
7.21
6.62
5.85
4.82
3.55
2.18
0.93
0.00
-0.49
-0.57
-0.45
-0.40
-0.68
-1.44
-2.62
-4.03
-5.41
-6.53
-7.32
-7.90
-8.48
-9.26
-10.39
-11.82
-13.37
-14.78
-15.78
-16.18
-15.85
-14.79
-13.10
-10.93
-8.49
-5.93
-3.36
-0.86
1.54
3.80
5.88
7.75
9.33
10.56
11.35
11.69
11.60
11.24
10.77
10.31
9.88
9.42
8.85
8.20
7.61
7.27
7.28
7.53
7.79
7.73
7.19
6.24
5.11
4.10
3.37
2.89
2.50
2.02
1.36
0.54
-0.33
-1.19
-2.01
-2.83
-3.73
-4.75
-5.85
-7.00
-8.13
-9.24
-10.32
-11.41
-12.48
-13.47
-14.30
-14.83
-14.95
-14.56
-13.61
-12.11
-10.12
-7.80
-5.32
-2.87
-0.60
1.42
3.17
4.70
6.07
7.34
8.52
9.53
10.31
10.75
10.82
10.56
10.05
9.42
8.79
8.24
7.83
7.59
7.54
7.69
7.97
8.30
8.51
8.46
8.02
7.20
6.10
4.91
3.80
2.85
2.02
1.22
0.36
-0.54
-1.42
-2.19
-2.84
-3.42
-4.05
-4.79
-5.69
-6.71
-7.81
-9.00
-10.29
-11.67
-13.08
-14.35
-15.29
-15.75
-15.62
-14.87
-13.53
-11.64
-9.31
-6.71
-4.03
-1.47
0.87
2.91
4.65
6.08
7.16
7.91
8.38
8.71
9.05
9.47
9.93
10.26
10.30
9.97
9.33
8.55
7.83
7.27
6.92
6.72
6.61
6.53
6.44
6.32
6.11
5.76
5.23
4.55
3.75
2.92
2.15
1.46
0.83
0.17
-0.61
-1.55
-2.62
-3.72
-4.76
-5.68
-6.50
-7.31
-8.19
-9.22
-10.43
-11.74
-13.04
-14.14
-14.89
-15.16
-14.92
-14.15
-12.92
-11.27
-9.30
-7.09
-4.76
-2.41
-0.13
2.02
3.97
5.63
6.89
7.67
7.97
7.98
7.94
8.07
8.44
8.92
9.30
9.38
9.14
8.71
8.26
7.90
7.61
7.27
6.81
6.27
5.79
5.51
5.41
5.33
5.03
4.33
3.23
1.91
0.67
-0.26
-0.80
-1.08
-1.31
-1.70
-2.34
-3.18
-4.09
-4.98
-5.84
-6.75
-7.80
-9.01
-10.31
-11.57
-12.67
-13.58
-14.34
-14.97
-15.38
-15.32
-14.52
-12.79
-10.21
-7.13
-4.06
-1.44
0.57
2.12
3.53
5.05
6.67
8.15
9.18
9.58
9.48
9.21
9.08
9.24
9.55
9.74
9.59
9.09
8.42
7.87
7.63
7.73
8.04
8.32
8.35
8.00
7.24
6.18
4.97
3.79
2.73
1.83
1.03
0.23
-0.64
-1.59
-2.55
-3.42
-4.09
-4.61
-5.11
-5.78
-6.79
-8.17
-9.82
-11.55
-13.18
-14.57
-15.67
-16.42
-16.73
-16.49
-15.55
-13.82
-11.38
-8.43
-5.34
-2.47
-0.07
1.80
3.26
4.55
5.89
7.35
8.80
9.94
10.49
10.28
9.40
8.15
6.89
5.92
5.35
5.10
5.00
4.91
4.80
4.70
4.63
4.56
4.37
3.94
3.23
2.33
1.43
0.72
0.28
0.04
-0.20
-0.64
-1.41
-2.49
-3.76
-5.00
-6.06
-6.86
-7.43
-7.89
-8.33
-8.81
-9.29
-9.60
-9.55
-8.94
-7.68
-5.81
-3.53
-1.12
1.12
3.01
4.48
5.61
6.51
7.24
7.82
8.18
8.27
8.11
7.84
7.58
7.42
7.26
6.91
6.17
4.97
3.50
2.10
1.12
0.74
0.87
1.20
1.41
1.29
0.86
0.30
-0.18
-0.50
-0.71
-0.94
-1.32
-1.92
-2.69
-3.60
-4.60
-5.71
-6.93
-8.24
-9.58
-10.80
-11.76
-12.32
-12.40
-11.98
-11.11
-9.87
-8.35
-6.67
-4.90
-3.12
-1.42
0.12
1.46
2.58
3.55
4.45
5.29
6.08
6.72
7.14
7.29
7.22
7.01
6.78
6.59
6.46
6.42
6.45
6.58
6.76
6.91
6.90
6.63
6.08
5.34
4.55
3.85
3.28
2.78
2.22
1.53
0.73
-0.07
-0.76
-1.31
-1.76
-2.29
-3.05
-4.17
-5.64
-7.35
-9.07
-10.56
-11.61
-12.06
-11.87
-11.09
-9.85
-8.32
-6.62
-4.83
-2.98
-1.11
0.74
2.48
4.03
5.33
6.38
7.17
7.71
8.05
8.22
8.34
8.50
8.77
9.09
9.32
9.27
8.87
8.18
7.44
6.90
6.66
6.66
6.69
6.51
6.04
5.31
4.49
3.70
3.01
2.35
1.63
0.77
-0.26
-1.43
-2.67
-3.90
-5.05
-6.07
-6.94
-7.67
-8.31
-8.92
-9.59
-10.35
-11.14
-11.83
-12.23
-12.09
-11.24
-9.59
-7.23
-4.40
-1.47
1.26
3.59
5.51
7.13
8.55
9.75
10.61
10.98
10.80
10.19
9.37
8.60
8.05
7.70
7.42
7.11
6.67
6.13
5.55
4.95
4.33
3.65
2.88
2.05
1.18
0.31
-0.53
-1.33
-2.04
-2.60
-2.97
-3.17
-3.29
-3.50
-3.94
-4.71
-5.80
-7.11
-8.49
-9.82
-11.01
-11.95
-12.51
-12.54
-11.93
-10.62
-8.72
-6.51
-4.26
-2.24
-0.53
0.93
2.31
3.71
5.16
6.55
7.69
8.41
8.66
8.51
8.12
7.65
7.22
6.83
6.48
6.20
6.04
6.10
6.37
6.78
7.12
7.14
6.69
5.79
4.61
3.41
2.41
1.64
1.02
0.35
-0.48
-1.50
-2.57
-3.52
-4.22
-4.63
-4.85
-5.08
-5.53
-6.35
-7.58
-9.14
-10.85
-12.47
-13.77
-14.57
-14.79
-14.39
-13.40
-11.87
-9.91
-7.65
-5.30
-3.08
-1.13
0.49
1.84
3.04
4.22
5.37
6.44
7.29
7.85
8.07
8.01
7.74
7.34
6.91
6.56
6.41
6.53
6.89
7.36
7.75
7.90
7.77
7.44
7.05
6.64
6.18
5.58
4.78
3.88
3.05
2.46
2.15
1.99
1.76
1.24
0.39
-0.71
-1.86
-2.89
-3.73
-4.39
-5.01
-5.70
-6.55
-7.62
-8.86
-10.22
-11.61
-12.91
-13.97
-14.62
-14.69
-14.05
-12.68
-10.73
-8.47
-6.21
-4.15
-2.35
-0.74
0.79
2.23
3.49
4.42
4.95
5.14
5.21
5.41
5.86
6.57
7.36
8.02
8.39
8.46
8.33
8.21
8.27
8.59
9.13
9.70
10.03
9.93
9.30
8.24
6.96
5.71
4.69
4.01
3.62
3.42
3.26
3.03
2.59
1.89
0.92
-0.26
-1.57
-2.89
-4.12
-5.18
-6.04
-6.70
-7.28
-7.90
-8.74
-9.87
-11.27
-12.76
-14.06
-14.92
-15.14
-14.68
-13.62
-12.08
-10.16
-8.00
-5.77
-3.64
-1.84
-0.45
0.56
1.36
2.16
3.09
4.12
5.09
5.80
6.18
6.30
6.34
6.56
7.06
7.83
8.69
9.40
9.79
9.82
9.61
9.36
9.22
9.20
9.16
8.92
8.40
7.65
6.86
6.29
6.02
5.98
5.93
5.64
4.96
3.95
2.77
1.59
0.48
-0.57
-1.62
-2.68
-3.74
-4.74
-5.67
-6.59
-7.57
-8.67
-9.90
-11.24
-12.58
-13.76
-14.62
-14.96
-14.63
-13.58
-11.89
-9.76
-7.46
-5.23
-3.25
-1.54
-0.05
1.35
2.77
4.19
5.54
6.58
7.13
7.08
6.56
5.84
5.27
5.05
5.16
5.39
5.45
5.23
4.81
4.43
4.28
4.33
4.38
4.11
3.36
2.26
1.12
0.26
-0.15
-0.23
-0.24
-0.46
-1.00
-1.78
-2.69
-3.61
-4.53
-5.46
-6.35
-7.06
-7.46
-7.53
-7.40
-7.33
-7.54
-8.08
-8.77
-9.28
-9.30
-8.68
-7.50
-5.96
-4.28
-2.61
-0.98
0.61
2.13
3.53
4.72
5.62
6.24
6.64
6.89
7.06
7.16
7.20
7.15
7.03
6.86
6.68
6.52
6.37
6.21
5.99
5.68
5.26
4.74
4.17
3.58
2.98
2.34
1.61
0.78
-0.07
-0.84
-1.42
-1.77
-1.97
-2.15
-2.43
-2.81
-3.24
-3.62
-3.97
-4.43
-5.20
-6.45
-8.18
-10.19
-12.13
-13.59
-14.29
-14.08
-13.01
-11.28
-9.18
-6.97
-4.88
-3.04
-1.49
-0.16
1.03
2.15
3.24
4.32
5.36
6.32
7.12
7.71
8.03
8.07
7.89
7.57
7.24
6.96
6.75
6.60
6.49
6.41
6.32
6.22
6.04
5.72
5.21
4.48
3.57
2.57
1.62
0.83
0.30
0.00
-0.21
-0.52
-1.12
-2.06
-3.28
-4.57
-5.72
-6.61
-7.25
-7.78
-8.35
-9.07
-9.96
-10.93
-11.86
-12.63
-13.17
-13.37
-13.08
-12.11
-10.35
-7.83
-4.80
-1.69
1.08
3.24
4.76
5.85
6.77
7.71
8.66
9.49
10.08
10.38
10.49
10.51
10.51
10.42
10.10
9.49
8.62
7.70
6.95
6.54
6.47
6.63
6.80
6.82
6.54
5.95
5.10
4.09
3.08
2.24
1.68
1.40
1.28
1.12
0.70
-0.09
-1.28
-2.72
-4.22
-5.57
-6.59
-7.26
-7.65
-7.98
-8.48
-9.32
-10.52
-11.96
-13.35
-14.41
-14.87
-14.60
-13.59
-11.94
-9.85
-7.55
-5.28
-3.19
-1.33
0.34
1.96
3.64
5.39
7.11
8.57
9.54
9.89
9.64
8.97
8.15
7.43
6.92
6.64
6.47
6.28
5.95
5.38
4.57
3.54
2.35
1.07
-0.22
-1.43
-2.52
-3.44
-4.19
-4.74
-5.12
-5.32
-5.38
-5.32
-5.19
-4.99
-4.73
-4.44
-4.15
-3.96
-4.04
-4.52
-5.50
-6.91
-8.48
-9.84
-10.57
-10.41
-9.30
-7.42
-5.05
-2.48
0.07
2.49
4.73
6.73
8.40
9.66
10.49
10.91
11.00
10.85
10.50
9.98
9.30
8.49
7.59
6.67
5.81
5.05
4.43
3.94
3.61
3.41
3.29
3.17
2.94
2.51
1.86
1.06
0.23
-0.49
-1.02
-1.41
-1.77
-2.25
-2.95
-3.89
-4.96
-6.04
-6.99
-7.71
-8.25
-8.70
-9.18
-9.73
-10.26
-10.57
-10.41
-9.64
-8.25
-6.42
-4.41
-2.43
-0.61
1.08
2.72
4.32
5.85
7.22
8.29
9.01
9.37
9.44
9.28
9.00
8.62
8.18
7.69
7.16
6.63
6.16
5.79
5.52
5.33
5.13
4.84
4.36
3.68
2.82
1.85
0.87
-0.06
-0.88
-1.61
-2.27
-2.89
-3.50
-4.13
-4.82
-5.60
-6.51
-7.56
-8.70
-9.86
-10.94
-11.85
-12.53
-12.89
-12.85
-12.29
-11.16
-9.49
-7.41
-5.15
-2.91
-0.81
1.14
2.99
4.77
6.41
7.78
8.73
9.16
9.11
8.74
8.26
7.87
7.65
7.56
7.50
7.36
7.08
6.70
6.30
5.93
5.58
5.20
4.72
4.14
3.47
2.74
2.02
1.31
0.62
-0.07
-0.75
-1.42
-2.08
-2.75
-3.40
-3.97
-4.40
-4.66
-4.85
-5.11
-5.66
-6.62
-8.03
-9.78
-11.68
-13.48
-14.90
-15.69
-15.65
-14.69
-12.86
-10.40
-7.65
-4.95
-2.52
-0.39
1.58
3.52
5.47
7.31
8.84
9.88
10.37
10.47
10.39
10.34
10.41
10.53
10.58
10.47
10.22
9.90
9.62
9.40
9.20
8.94
8.47
7.70
6.55
5.05
3.29
1.50
-0.03
-1.05
-1.46
-1.36
-1.03
-0.80
-0.95
-1.53
-2.43
-3.39
-4.22
-4.82
-5.24
-5.61
-6.08
-6.73
-7.59
-8.66
-9.92
-11.35
-12.86
-14.29
-15.39
-15.85
-15.44
-14.04
-11.76
-8.93
-5.92
-3.05
-0.49
1.78
3.87
5.84
7.67
9.20
10.24
10.75
10.80
10.59
10.33
10.13
10.00
9.87
9.70
9.48
9.26
9.09
8.95
8.76
8.44
7.92
7.19
6.27
5.21
4.09
2.98
2.01
1.23
0.67
0.29
0.01
-0.27
-0.59
-0.98
-1.44
-2.01
-2.73
-3.58
-4.50
-5.38
-6.09
-6.63
-7.13
-7.79
-8.77
-10.11
-11.67
-13.24
-14.58
-15.51
-15.93
-15.78
-15.05
-13.73
-11.87
-9.62
-7.18
-4.77
-2.55
-0.58
1.17
2.82
4.44
6.03
7.51
8.69
9.46
9.76
9.69
9.44
9.16
8.93
8.71
8.40
7.89
7.19
6.39
5.62
4.99
4.53
4.18
3.87
3.52
3.10
2.62
2.09
1.54
0.97
0.40
-0.14
-0.61
-1.02
-1.43
-1.90
-2.48
-3.16
-3.88
-4.55
-5.11
-5.62
-6.21
-7.01
-8.05
-9.27
-10.48
-11.46
-12.04
-12.15
-11.78
-10.92
-9.57
-7.75
-5.51
-3.01
-0.47
1.86
3.85
5.45
6.71
7.74
8.58
9.21
9.58
9.65
9.48
9.19
8.93
8.79
8.77
8.78
8.68
8.42
8.00
7.52
7.08
6.73
6.43
6.08
5.58
4.84
3.87
2.71
1.50
0.40
-0.48
-1.10
-1.54
-1.98
-2.57
-3.37
-4.31
-5.20
-5.88
-6.27
-6.50
-6.80
-7.39
-8.32
-9.50
-10.69
-11.65
-12.26
-12.52
-12.48
-12.18
-11.60
-10.64
-9.22
-7.34
-5.10
-2.66
-0.22
2.05
4.05
5.70
6.98
7.90
8.47
8.72
8.69
8.45
8.10
7.76
7.53
7.46
7.50
7.60
7.65
7.60
7.47
7.36
7.35
7.48
7.65
7.69
7.39
6.61
5.39
3.92
2.47
1.32
0.58
0.16
-0.12
-0.49
-1.10
-1.95
-2.93
-3.90
-4.78
-5.53
-6.18
-6.78
-7.40
-8.08
-8.87
-9.83
-10.97
-12.23
-13.50
-14.54
-15.09
-14.92
-13.91
-12.09
-9.65
-6.88
-4.12
-1.61
0.55
2.40
4.07
5.68
7.27
8.70
9.77
10.30
10.27
9.80
9.21
8.76
8.62
8.76
9.01
9.17
9.12
8.87
8.47
8.00
7.47
6.83
6.02
5.02
3.89
2.78
1.83
1.07
0.46
-0.12
-0.77
-1.54
-2.40
-3.27
-4.11
-4.93
-5.76
-6.61
-7.46
-8.21
-8.82
-9.35
-9.96
-10.84
-12.09
-13.63
-15.18
-16.44
-17.15
-17.25
-16.80
-15.91
-14.63
-12.91
-10.72
-8.11
-5.31
-2.61
-0.28
1.62
3.26
4.91
6.79
8.89
10.97
12.64
13.60
13.73
13.23
12.46
11.73
11.21
10.88
10.60
10.27
9.89
9.54
9.34
9.29
9.28
9.12
8.69
8.02
7.27
6.68
6.40
6.45
6.66
6.77
6.48
5.62
4.15
2.26
0.26
-1.49
-2.76
-3.58
-4.18
-4.94
-6.13
-7.81
-9.73
-11.51
-12.78
-13.39
-13.40
-13.04
-12.50
-11.83
-10.98
-9.86
-8.45
-6.83
-5.15
-3.55
-2.09
-0.78
0.40
1.49
2.47
3.29
3.94
4.40
4.70
4.84
4.85
4.76
4.60
4.42
4.26
4.13
4.02
3.90
3.79
3.71
3.66
3.62
3.51
3.21
2.62
1.71
0.57
-0.66
-1.80
-2.78
-3.58
-4.28
-5.00
-5.81
-6.76
-7.83
-8.97
-10.12
-11.13
-11.83
-12.01
-11.53
-10.31
-8.46
-6.16
-3.69
-1.23
1.07
3.19
5.13
6.84
8.27
9.30
9.86
9.95
9.70
9.31
8.97
8.76
8.67
8.56
8.27
7.78
7.15
6.54
6.08
5.82
5.69
5.54
5.23
4.68
3.88
2.90
1.80
0.62
-0.64
-1.96
-3.28
-4.51
-5.51
-6.19
-6.62
-7.00
-7.63
-8.73
-10.36
-12.31
-14.18
-15.58
-16.22
-16.01
-15.02
-13.36
-11.15
-8.55
-5.73
-2.96
-0.49
1.52
3.07
4.28
5.29
6.22
7.06
7.77
8.29
8.62
8.77
8.76
8.59
8.19
7.57
6.76
5.89
5.12
4.57
4.31
4.32
4.50
4.67
4.66
4.34
3.67
2.77
1.83
1.01
0.39
-0.14
-0.74
-1.58
-2.70
-4.01
-5.34
-6.55
-7.65
-8.77
-10.08
-11.69
-13.54
-15.39
-16.87
-17.63
-17.41
-16.14
-13.95
-11.09
-7.89
-4.68
-1.65
1.09
3.54
5.76
7.80
9.68
11.31
12.61
13.46
13.80
13.66
13.19
12.57
11.98
11.52
11.18
10.87
10.46
9.89
9.18
8.44
7.78
7.22
6.71
6.09
5.26
4.21
3.08
2.06
1.27
0.73
0.27
-0.34
-1.28
-2.60
-4.18
-5.79
-7.21
-8.34
-9.24
-10.10
-11.15
-12.57
-14.34
-16.23
-17.87
-18.83
-18.76
-17.51
-15.15
-11.95
-8.29
-4.55
-1.01
2.21
5.06
7.57
9.81
11.80
13.54
15.00
16.10
16.80
17.04
16.81
16.18
15.27
14.23
13.23
12.39
11.78
11.43
11.26
11.15
10.92
10.33
9.22
7.57
5.58
3.60
1.99
0.94
0.37
0.03
-0.44
-1.28
-2.52
-4.00
-5.50
-6.86
-8.03
-9.06
-10.03
-11.01
-12.02
-13.10
-14.27
-15.57
-17.03
-18.52
-19.79
-20.43
-20.06
-18.46
-15.70
-12.21
-8.55
-5.22
-2.44
-0.09
2.14
4.50
7.08
9.77
12.30
14.49
16.19
17.33
17.83
17.63
16.71
15.21
13.46
11.83
10.60
9.88
9.52
9.30
8.99
8.51
7.86
7.14
6.39
5.62
4.84
4.03
3.20
2.36
1.51
0.63
-0.35
-1.46
-2.70
-4.03
-5.39
-6.72
-7.97
-9.14
-10.29
-11.53
-12.95
-14.64
-16.56
-18.58
-20.45
-21.87
-22.57
-22.36
-21.18
-19.06
-16.16
-12.72
-9.03
-5.36
-1.93
1.17
3.96
6.52
8.91
11.07
12.87
14.19
14.92
15.14
15.00
14.69
14.35
13.95
13.39
12.55
11.44
10.27
9.29
8.75
8.64
8.75
8.70
8.16
7.02
5.43
3.70
2.15
0.98
0.18
-0.36
-0.83
-1.38
-2.13
-3.14
-4.38
-5.80
-7.27
-8.66
-9.90
-11.03
-12.16
-13.45
-15.04
-16.91
-18.88
-20.62
-21.70
-21.75
-20.62
-18.37
-15.33
-11.93
-8.53
-5.36
-2.48
0.21
2.84
5.52
8.29
11.06
13.64
15.75
17.09
17.50
17.03
15.91
14.53
13.25
12.32
11.83
11.69
11.74
11.79
11.63
11.10
10.14
8.74
7.08
5.39
3.93
2.89
2.32
2.11
2.04
1.81
1.21
0.14
-1.32
-2.92
-4.38
-5.49
-6.19
-6.63
-7.02
-7.57
-8.39
-9.48
-10.78
-12.21
-13.69
-15.13
-16.35
-17.14
-17.33
-16.77
-15.50
-13.63
-11.36
-8.90
-6.35
-3.75
-1.06
1.72
4.57
7.35
9.81
11.73
12.90
13.32
13.11
12.54
11.88
11.30
10.87
10.55
10.23
9.82
9.27
8.56
7.70
6.77
5.84
5.01
4.35
3.89
3.56
3.25
2.79
2.04
0.93
-0.50
-2.09
-3.65
-5.01
-6.16
-7.20
-8.37
-9.85
-11.71
-13.81
-15.87
-17.49
-18.36
-18.25
-17.11
-15.02
-12.18
-8.89
-5.55
-2.50
-0.02
1.77
2.95
3.72
4.32
4.99
5.82
6.81
7.84
8.74
9.30
9.44
9.17
8.68
8.20
7.94
7.93
8.01
7.89
7.36
6.36
5.05
3.69
2.49
1.48
0.59
-0.31
-1.27
-2.26
-3.18
-3.97
-4.62
-5.16
-5.63
-6.05
-6.45
-6.89
-7.48
-8.35
-9.56
-11.02
-12.52
-13.77
-14.49
-14.49
-13.69
-12.13
-9.96
-7.40
-4.71
-2.10
0.30
2.44
4.37
6.11
7.66
8.97
10.00
10.73
11.16
11.35
11.36
11.26
11.10
10.96
10.91
10.95
11.06
11.09
10.91
10.38
9.48
8.26
6.84
5.33
3.78
2.21
0.60
-1.01
-2.55
-3.87
-4.85
-5.41
-5.63
-5.72
-5.99
-6.72
-8.01
-9.77
-11.73
-13.60
-15.13
-16.24
-16.89
-17.08
-16.70
-15.60
-13.74
-11.23
-8.38
-5.60
-3.19
-1.21
0.51
2.22
4.13
6.20
8.20
9.83
10.89
11.36
11.37
11.14
10.84
10.58
10.41
10.33
10.32
10.34
10.30
10.10
9.69
9.09
8.39
7.71
7.12
6.59
6.07
5.52
4.93
4.32
3.65
2.78
1.55
-0.14
-2.17
-4.22
-5.90
-6.96
-7.48
-7.83
-8.50
-9.84
-11.86
-14.23
-16.42
-17.99
-18.68
-18.47
-17.46
-15.81
-13.65
-11.09
-8.27
-5.39
-2.67
-0.29
1.70
3.33
4.70
5.89
6.91
7.67
8.09
8.14
7.91
7.58
7.35
7.32
7.47
7.69
7.89
8.04
8.21
8.49
8.91
9.38
9.70
9.67
9.20
8.37
7.40
6.54
5.95
5.60
5.32
4.88
4.07
2.86
1.35
-0.27
-1.83
-3.26
-4.61
-5.97
-7.50
-9.31
-11.45
-13.90
-16.52
-19.09
-21.30
-22.89
-23.67
-23.60
-22.80
-21.48
-19.93
-18.41
-17.16
-16.29
-15.81
-15.60
-15.58
-15.67
-15.99
-16.73
-18.12
-20.27
-23.11
-26.35
-29.58
-32.40
-34.56
-36.02
-36.92
-37.48
-37.91
-38.26
-38.47
-38.41
-38.04
-37.46
-36.94
-36.77
-37.01
-37.43
-37.50
-36.65
-34.49
-30.90
-25.92
-19.50
-11.26
-0.59
13.08
29.79
48.72
68.31
86.76
102.58
115.01
123.93
129.39
131.32
129.58
124.23
115.96
106.26
96.92
89.38
83.91
79.52
74.59
67.83
59.04
49.24
40.25
33.64
30.15
29.11
28.88
27.90
25.51
22.18
18.97
16.78
15.64
14.89
13.36
10.21
5.67
0.98
-2.42
-3.85
-3.62
-2.76
-1.99
-1.58
-1.41
-1.28
-1.36
-2.50
-5.72
-11.34
-20.01
-29.43
-36.19
-38.71
-38.21
-36.96
-36.37
-36.29
-35.67
-34.09
-32.07
-31.05
-32.41
-36.26
-41.20
-45.48
-49.28
-52.55
-56.20
-60.67
-65.25
-68.04
-66.56
-59.04
-45.64
-28.45
-10.38
5.78
18.60
27.99
34.48
38.47
40.12
38.82
34.02
26.07
16.13
6.12
-2.13
-7.44
-9.46
-8.44
-5.17
-0.50
4.81
9.99
14.55
18.29
21.25
23.61
25.56
27.13
28.42
29.64
31.02
32.66
34.29
35.14
34.39
31.71
27.62
23.46
20.79
20.48
22.30
25.14
27.78
29.59
30.81
32.28
34.93
39.15
44.72
50.90
56.79
61.57
64.44
64.63
61.40
54.23
43.15
29.01
13.40
-1.66
-14.26
-23.13
-27.99
-29.60
-29.30
-28.48
-28.06
-28.31
-29.14
-30.47
-32.65
-36.33
-42.22
-50.46
-60.30
-70.23
-78.59
-84.29
-87.10
-87.43
-85.86
-82.66
-77.91
-71.92
-65.56
-60.15
-56.87
-56.02
-56.77
-57.59
-56.95
-54.06
-48.95
-42.24
-34.70
-26.93
-19.27
-11.96
-5.29
0.46
4.93
7.83
8.87
7.93
5.25
1.60
-1.79
-3.51
-2.59
0.82
5.50
9.81
12.50
13.33
13.03
12.76
13.29
14.48
15.21
14.29
11.27
6.85
2.45
-0.63
-1.88
-1.70
-1.03
-1.02
-2.23
-4.42
-6.91
-9.12
-10.72
-11.53
-11.26
-9.68
-7.60
-6.11
-6.11
-8.01
-11.81
-16.93
-22.01
-25.22
-24.98
-22.34
-19.21
-16.93
-15.50
-14.21
-12.02
-7.90
-1.27
7.42
14.11
14.92
8.70
-2.68
-16.39
-30.03
-41.88
-50.67
-55.60
-59.75
-66.15
-75.74
-87.67
-101.60
-118.58
-139.80
-165.49
-173.40
-149.62
-98.63
-38.97
13.99
54.91
84.79
106.81
124.22
139.12
149.24
152.39
149.10
142.68
136.73
133.35
133.32
136.79
142.80
147.69
148.52
144.97
138.60
132.31
127.76
125.78
126.84
130.24
133.74
135.52
135.31
134.26
133.82
134.73
137.43
142.33
148.59
154.77
159.50
161.96
161.81
158.66
151.41
137.79
122.87
108.02
93.62
79.44
64.91
49.46
32.71
14.69
-3.82
-21.33
-37.38
-51.59
-64.40
-77.05
-91.23
-108.37
-128.98
-152.37
-176.93
-201.68
-225.91
-249.79
-274.37
-301.26
-332.39
-369.77
-414.97
-468.05
-526.87
-585.72
-636.05
-668.92
-678.05
-662.38
-626.45
-578.34
-526.49
-477.00
-432.30
-391.97
-354.74
-320.00
-288.02
-259.31
-233.59
-209.53
-185.37
-159.90
-133.15
-106.42
-81.85
-61.27
-45.53
-34.23
-25.99
-19.19
-12.61
-5.77
1.00
7.03
11.80
15.34
18.27
21.55
25.98
31.82
38.68
45.61
51.57
55.82
58.25
59.33
59.88
60.71
62.35
64.90
68.17
71.93
76.12
80.99
86.98
94.46
103.40
113.34
123.46
132.94
141.34
148.86
156.24
164.46
174.34
186.13
199.43
213.54
227.77
241.93
256.40
271.91
289.17
308.65
330.59
355.17
382.35
411.44
440.45
465.76
482.76
487.30
477.51
454.80
423.45
388.83
355.01
323.42
293.12
262.57
231.53
201.89
176.64
157.85
145.06
135.30
124.85
111.56
96.06
81.28
70.21
63.81
60.20
55.90
48.27
37.39
26.23
18.86
17.90
22.64
29.31
33.00
30.29
21.03
8.28
-3.38
-10.16
-10.69
-6.30
0.17
6.01
9.83
11.81
13.03
14.70
17.49
21.54
26.54
31.83
36.44
38.98
37.91
32.16
21.79
8.28
-5.79
-17.65
-25.53
-29.38
-30.98
-33.09
-38.39
-48.15
-61.85
-77.22
-90.86
-99.36
-100.71
-95.29
-85.90
-76.75
-71.47
-71.71
-76.54
-83.05
-87.99
-89.48
-87.74
-84.43
-81.33
-78.73
-75.78
-71.07
-63.51
-52.83
-39.90
-26.40
-14.10
-4.23
3.78
10.61
16.79
23.22
31.17
41.60
54.32
67.91
80.33
91.96
102.67
111.55
117.69
120.50
119.71
115.57
109.72
105.27
108.56
121.00
137.31
148.75
148.56
135.71
115.77
98.41
92.34
104.28
129.59
154.60
165.27
154.97
126.16
86.90
45.90
-16.25
-97.03
-177.27
-239.15
-277.96
-296.87
-299.95
-291.16
-274.89
-255.92
-234.58
-213.04
-194.71
-181.35
-171.64
-162.28
-151.03
-137.71
-123.95
-109.05
-94.42
-82.92
-76.26
-74.22
-74.09
-73.93
-73.39
-73.47
-73.93
-75.81
-80.81
-87.59
-95.58
-102.55
-106.81
-107.80
-106.29
-102.85
-98.79
-95.83
-95.37
-98.22
-103.59
-109.50
-112.52
-108.51
-93.83
-67.88
-34.08
1.22
30.97
50.76
59.83
60.82
57.77
53.95
50.66
47.53
43.79
39.23
34.87
32.01
31.30
32.26
33.55
33.71
31.79
27.98
23.23
18.96
16.27
15.46
16.00
16.81
16.81
15.35
12.56
9.09
5.91
3.79
3.00
3.20
3.69
3.68
2.70
0.73
-1.78
-4.13
-5.67
-6.14
-5.70
-4.88
-4.42
-4.90
-6.45
-8.73
-10.92
-12.25
-12.22
-10.87
-8.76
-6.76
-5.59
-5.43
-5.70
-5.23
-2.79
2.23
9.64
18.35
26.78
33.68
38.42
41.38
43.75
46.67
51.01
57.35
65.99
76.77
88.49
98.33
101.46
94.31
75.20
46.12
12.64
-18.11
-40.37
-51.89
-54.25
-51.20
-46.31
-41.62
-37.46
-33.45
-29.60
-26.66
-25.48
-26.10
-27.51
-28.04
-26.56
-22.87
-18.06
-13.85
-11.68
-11.94
-13.72
-15.37
-15.35
-12.95
-8.49
-3.32
0.94
2.83
1.40
-3.60
-11.12
-18.30
-20.95
-15.32
-0.29
20.81
40.62
51.10
47.24
29.87
5.41
-17.38
-31.93
-36.49
-34.33
-30.96
-30.56
-34.29
-40.99
-49.04
-57.75
-67.08
-76.16
-81.61
-80.07
-68.70
-47.36
-19.70
8.33
30.94
44.80
49.87
48.51
43.69
37.83
32.28
27.78
24.99
24.66
26.96
31.12
35.37
37.83
37.47
34.37
29.96
26.12
24.64
26.80
33.35
44.07
57.20
69.37
76.06
73.14
58.88
35.48
8.42
-14.89
-29.05
-32.79
-28.84
-22.32
-17.62
-16.95
-19.28
-22.73
-26.28
-30.81
-38.89
-52.54
-70.60
-87.61
-96.90
-93.11
-76.50
-53.15
-31.78
-18.82
-15.21
-17.13
-19.46
-19.85
-19.62
-21.77
-27.32
-33.57
-35.51
-29.39
-15.69
1.01
14.81
22.28
23.83
22.38
20.70
19.50
17.96
15.26
11.86
9.86
11.57
17.64
26.86
36.45
43.37
46.05
44.84
41.74
39.47
40.19
44.50
51.40
58.59
63.37
63.68
58.66
49.11
37.08
25.29
16.50
12.78
14.94
21.86
30.46
36.51
36.72
30.77
22.14
16.45
18.11
26.94
37.04
39.46
26.97
-1.38
-38.52
-71.88
-88.33
-80.19
-48.69
-3.85
39.86
69.21
77.37
65.40
40.33
11.79
-12.55
-29.35
-39.96
-47.25
-52.65
-54.55
-50.35
-39.62
-25.12
-12.31
-6.75
-11.91
-26.68
-46.22
-64.02
-75.92
-82.83
-89.64
-103.50
-127.93
-165.26
-214.98
-274.25
-337.67
-390.93
-420.67
-418.09
-382.96
-323.02
-251.70
-182.70
-129.60
-91.58
-64.79
-45.69
-31.72
-21.18
-11.33
-1.60
9.21
22.38
39.70
61.34
85.52
109.12
129.57
147.56
164.45
181.88
200.87
222.37
246.19
271.27
295.53
318.01
341.23
366.90
395.28
424.61
452.70
477.81
499.16
515.88
509.12
468.96
396.24
303.05
205.55
116.70
43.53
-5.62
-35.74
-51.21
-51.83
-37.29
-8.93
29.17
68.31
100.55
120.34
124.95
117.16
104.75
94.65
90.07
89.40
88.26
82.87
71.78
55.35
36.25
18.03
1.87
-13.37
-30.18
-50.65
-75.09
-102.77
-133.47
-167.08
-203.29
-241.89
-281.63
-320.23
-354.97
-383.78
-406.68
-425.83
-443.97
-462.28
-479.31
-490.54
-489.97
-472.57
-436.51
-384.21
-321.62
-256.02
-193.62
-138.07
-89.90
-47.22
-6.86
33.98
76.43
119.60
160.55
195.04
218.68
228.51
223.98
207.35
182.93
155.70
130.07
109.36
96.06
92.10
98.75
115.66
139.98
166.47
189.01
202.96
207.10
203.76
197.02
189.95
182.46
170.92
149.92
114.89
64.35
1.06
-67.98
-133.15
-184.27
-213.26
-216.58
-196.47
-160.24
-117.86
-78.54
-48.03
-27.83
-16.08
-9.66
-5.84
-3.18
-1.30
-0.43
-0.82
-2.74
-6.42
-12.03
-19.51
-28.40
-37.78
-46.37
-52.90
-56.31
-56.09
-52.53
-46.81
-40.81
-36.49
-35.14
-36.86
-40.48
-43.98
-45.38
-43.48
-38.29
-30.96
-23.22
-16.72
-12.50
-10.67
-10.53
-10.92
-10.70
-9.17
-6.20
-2.16
2.26
6.41
9.82
12.31
13.85
14.48
14.29
13.38
11.98
10.42
9.05
8.16
7.82
7.96
8.35
8.80
9.12
9.14
8.72
7.71
6.06
3.85
1.30
-1.34
-3.88
-6.27
-8.57
-10.79
-12.87
-14.64
-15.96
-16.85
-17.53
-18.30
-19.38
-20.74
-22.07
-22.92
-22.92
-21.94
-20.16
-17.98
-15.86
-14.11
-12.80
-11.72
-10.50
-8.78
-6.40
-3.47
-0.30
2.75
5.37
7.39
8.78
9.57
9.78
9.46
8.74
7.84
7.06
6.67
6.78
7.31
8.01
8.64
9.03
9.17
9.13
8.93
8.53
7.81
6.66
5.09
3.23
1.32
-0.47
-1.98
-3.20
-4.12
-4.73
-5.02
-5.01
-4.84
-4.76
-5.13
-6.26
-8.20
-10.70
-13.26
-15.21
-15.99
-15.38
-13.49
-10.76
-7.70
-4.76
-2.15
0.06
1.95
3.55
4.80
5.63
5.97
5.91
5.67
5.55
5.81
6.55
7.63
8.78
9.74
10.34
10.62
10.75
10.98
11.44
12.15
12.95
13.62
13.93
13.70
12.85
11.37
9.38
7.05
4.63
2.37
0.46
-0.94
-1.82
-2.20
-2.20
-1.99
-1.81
-1.86
-2.28
-3.07
-4.07
-5.09
-5.98
-6.70
-7.35
-8.01
-8.65
-9.06
-8.94
-8.07
-6.45
-4.29
-1.97
0.19
2.05
3.66
5.20
6.80
8.46
9.98
11.14
11.80
11.98
11.96
12.05
12.49
13.31
14.31
15.21
15.84
16.22
16.57
17.10
17.86
18.66
19.19
19.14
18.42
17.17
15.68
14.21
12.92
11.76
10.57
9.19
7.52
5.63
3.67
1.88
0.42
-0.65
-1.40
-2.03
-2.73
-3.62
-4.71
-5.90
-7.02
-7.96
-8.63
-9.00
-9.04
-8.70
-7.92
-6.66
-4.93
-2.84
-0.56
1.72
3.84
5.73
7.32
8.61
9.63
10.40
11.00
11.48
11.85
12.07
12.08
11.86
11.48
11.10
10.91
11.03
11.43
11.94
12.34
12.45
12.20
11.61
10.75
9.66
8.38
6.95
5.47
4.03
2.74
1.63
0.69
-0.12
-0.86
-1.57
-2.31
-3.13
-4.04
-5.06
-6.15
-7.23
-8.27
-9.19
-9.91
-10.30
-10.20
-9.47
-8.11
-6.26
-4.19
-2.19
-0.45
1.02
2.29
3.45
4.54
5.45
6.04
6.19
5.92
5.42
4.94
4.71
4.82
5.19
5.63
5.91
5.90
5.62
5.25
4.96
4.81
4.68
4.30
3.43
1.97
0.09
-1.88
-3.59
-4.85
-5.72
-6.47
-7.45
-8.84
-10.57
-12.37
-13.96
-15.20
-16.22
-17.35
-18.91
-20.99
-23.30
-25.29
-26.38
-26.30
-25.29
-24.06
-23.50
-24.26
-26.43
-29.49
-32.56
-34.88
-36.12
-36.63
-37.22
-38.77
-41.92
-46.86
-53.28
-60.51
-67.67
-73.63
-77.15
-77.17
-73.31
-66.46
-59.02
-54.39
-55.79
-64.71
-79.91
-97.60
-112.96
-122.24
-124.22
-120.38
-113.56
-106.17
-98.96
-91.15
-81.58
-69.99
-57.47
-45.83
-36.34
-28.81
-21.75
-13.43
-3.04
8.85
20.77
31.42
40.63
49.55
59.96
73.26
89.62
107.96
126.29
142.56
155.21
163.55
167.61
167.98
165.58
161.66
157.81
155.74
156.93
162.04
170.65
181.28
191.84
200.36
205.66
207.52
206.33
202.61
196.68
188.65
178.74
167.63
156.35
145.98
137.25
130.58
126.16
123.93
123.69
124.13
122.39
114.48
96.82
67.83
29.04
-15.71
-62.18
-106.61
-147.71
-186.81
-226.96
-271.23
-320.87
-373.94
-425.37
-468.17
-493.76
-495.65
-471.75
-425.21
-363.01
-293.16
-221.98
-153.21
-88.61
-26.83
34.03
95.84
160.20
228.43
301.90
381.73
468.09
545.10
595.33
604.22
567.17
491.04
389.62
278.09
169.68
74.38
-2.27
-57.60
-93.03
-112.78
-121.99
-124.77
-122.91
-116.05
-103.20
-84.45
-60.50
-34.29
-10.96
3.28
3.38
-11.83
-38.53
-69.11
-95.26
-110.38
-112.07
-102.26
-85.52
-66.89
-50.35
-38.55
-33.05
-34.25
-41.40
-51.67
-60.90
-65.03
-62.06
-52.96
-41.15
-30.86
-25.32
-25.70
-30.46
-36.29
-39.46
-37.14
-28.12
-13.32
4.43
20.88
31.11
31.70
21.97
4.46
-16.02
-34.02
-45.54
-49.39
-47.15
-42.75
-40.23
-42.63
-51.24
-65.22
-81.57
-95.66
-102.44
-93.37
-64.02
-14.79
48.14
114.10
170.83
208.08
220.20
206.95
172.42
122.16
61.76
-4.22
-71.89
-136.67
-192.57
-233.01
-252.99
-251.63
-234.07
-209.56
-188.27
-176.91
-175.21
-175.95
-168.75
-145.62
-104.74
-51.24
6.40
60.34
106.53
145.85
181.93
217.26
250.32
275.80
287.09
280.14
254.95
214.90
165.62
112.83
60.26
9.07
-41.10
-90.53
-132.35
-156.25
-156.51
-136.40
-105.51
-73.99
-49.30
-35.07
-30.53
-32.56
-32.80
-25.56
-9.81
10.40
27.92
35.65
29.27
8.47
-23.35
-59.91
-96.48
-130.61
-160.49
-182.56
-190.99
-180.02
-147.11
-94.49
-26.36
50.43
128.56
201.68
265.23
315.69
349.28
362.30
340.09
281.11
202.25
129.35
79.08
52.51
41.89
38.44
36.96
36.53
40.75
52.12
69.41
87.48
99.57
101.84
95.73
85.40
75.17
69.43
69.83
74.73
79.33
76.17
61.56
36.83
6.52
-25.04
-55.23
-85.74
-113.45
-140.21
-172.65
-214.22
-263.13
-314.07
-361.91
-403.64
-439.25
-470.87
-472.29
-432.98
-362.28
-282.06
-209.72
-151.47
-105.81
-69.11
-38.42
-12.91
3.09
6.88
-0.43
-14.54
-30.09
-41.71
-43.97
-32.13
-4.63
32.42
70.23
100.91
120.12
127.42
125.62
119.26
112.51
107.35
101.24
91.56
78.01
62.97
49.65
40.11
34.49
31.36
28.72
23.67
15.10
4.00
-7.05
-15.46
-19.81
-20.04
-17.16
-12.58
-7.93
-4.01
-0.74
2.82
7.41
13.20
19.67
25.97
31.17
34.47
35.45
33.99
30.65
25.88
19.90
12.69
4.20
-5.64
-16.85
-29.33
-42.97
-56.88
-70.44
-83.20
-94.77
-104.44
-111.62
-116.01
-117.75
-117.49
-115.33
-111.84
-107.75
-103.53
-98.18
-90.39
-78.82
-61.94
-44.31
-27.81
-13.63
-2.33
6.37
15.51
27.90
45.02
66.51
90.61
115.99
141.07
164.70
186.42
209.80
237.46
269.79
304.80
339.86
374.38
409.30
445.50
481.74
517.47
547.99
566.21
566.36
547.76
515.65
477.56
438.66
374.40
273.55
142.38
3.40
-118.70
-209.23
-266.14
-295.78
-307.91
-311.08
-306.50
-294.03
-275.01
-253.07
-232.61
-217.65
-208.91
-205.95
-207.64
-209.99
-210.80
-210.48
-211.70
-215.01
-222.33
-234.11
-248.64
-261.59
-264.86
-251.50
-218.96
-170.85
-115.75
-64.25
-24.39
0.43
11.67
14.75
14.88
15.09
15.82
16.46
16.67
17.51
20.41
25.96
33.92
42.38
49.45
54.08
56.59
58.47
61.67
67.41
75.35
83.85
90.80
94.85
95.88
94.59
92.74
92.63
96.54
105.44
117.98
130.35
136.92
131.55
109.46
70.35
18.95
-35.98
-85.64
-124.60
-152.08
-171.93
-187.85
-205.14
-226.86
-252.17
-275.60
-290.00
-289.30
-269.49
-229.32
-170.88
-99.54
-22.11
53.44
119.88
170.94
198.17
197.29
173.46
139.47
107.90
88.14
76.96
68.58
58.23
43.76
25.31
6.62
-7.83
-15.17
-14.79
-8.76
-0.17
6.87
8.74
4.63
-3.21
-11.27
-16.62
-17.58
-13.80
-4.78
8.92
25.39
42.01
55.89
64.04
64.29
56.30
42.03
25.93
12.09
2.77
-1.17
0.16
6.11
16.05
29.12
45.10
64.77
87.73
111.63
133.13
149.20
158.41
162.11
163.80
164.65
167.24
170.74
168.26
151.08
114.48
61.67
2.40
-54.57
-104.81
-145.77
-176.42
-196.03
-201.27
-187.77
-153.80
-98.20
-32.34
26.43
62.68
68.45
44.15
-1.19
-55.21
-107.11
-151.21
-188.26
-221.25
-252.01
-268.77
-261.88
-227.63
-171.89
-105.51
-38.77
20.49
68.04
102.57
124.89
134.15
133.66
126.45
115.92
104.66
93.15
80.85
66.49
48.29
22.33
-11.48
-53.58
-101.08
-146.83
-180.80
-193.48
-180.41
-145.41
-101.51
-65.29
-51.32
-65.38
-103.24
-154.25
-207.33
-256.16
-300.64
-344.84
-391.39
-438.13
-476.89
-497.29
-492.24
-461.96
-414.27
-360.58
-310.81
-269.08
-233.49
-198.75
-160.57
-118.76
-77.18
-40.98
-13.12
7.45
25.59
47.20
76.36
113.48
155.10
195.73
230.60
257.83
279.11
298.87
322.09
352.25
390.22
434.14
480.40
524.54
561.91
588.13
599.83
595.58
576.82
547.93
514.97
483.44
456.20
432.42
408.58
380.62
345.87
303.83
255.49
201.77
142.79
78.28
9.28
-60.16
-122.57
-168.77
-190.93
-186.16
-158.39
-117.95
-78.53
-53.00
-49.51
-69.45
-107.50
-153.78
-197.17
-228.56
-242.94
-239.76
-221.92
-194.28
-161.79
-128.31
-96.09
-66.33
-39.93
-17.94
-1.45
9.10
14.80
18.06
21.37
25.51
28.06
23.78
6.72
-26.53
-74.40
-129.98
-183.10
-223.93
-246.59
-250.98
-242.08
-227.37
-213.79
-205.60
-203.63
-206.09
-209.91
-211.80
-208.81
-198.54
-179.20
-150.04
-111.80
-67.00
-19.69
25.34
63.89
93.36
113.05
123.71
126.91
124.87
120.51
117.03
116.93
120.97
127.55
133.45
135.04
130.24
119.41
105.06
90.37
77.71
67.83
60.36
55.02
52.59
54.53
61.62
72.06
81.23
83.36
74.71
55.94
32.44
11.96
0.52
-0.69
4.36
9.39
9.65
4.49
-3.01
-8.36
-9.02
-5.98
-2.87
-3.88
-11.71
-26.96
-48.57
-74.94
-104.72
-136.78
-169.62
-200.37
-224.39
-235.65
-228.19
-198.58
-147.94
-82.75
-13.42
48.83
95.77
124.44
136.77
137.66
132.04
122.88
110.65
94.79
75.26
53.34
31.15
10.96
-5.97
-19.90
-32.11
-43.96
-55.88
-66.76
-74.02
-74.60
-66.48
-49.80
-27.04
-2.20
20.78
39.33
52.95
62.70
70.33
77.39
84.92
93.35
102.81
113.31
124.62
136.23
147.46
157.75
166.67
173.60
177.60
177.30
171.69
161.06
147.53
134.41
124.69
119.43
117.13
114.64
108.89
98.33
83.36
65.59
46.91
29.04
13.54
1.86
-5.08
-7.98
-9.74
-14.94
-27.81
-49.82
-78.24
-106.87
-128.71
-139.11
-137.83
-128.82
-118.15
-111.09
-109.88
-113.21
-117.49
-118.72
-114.29
-103.71
-88.29
-70.16
-51.28
-32.91
-15.58
0.63
15.73
29.83
42.97
55.13
66.19
75.96
84.30
91.17
96.56
100.47
102.94
104.25
104.93
105.57
106.66
108.28
109.92
110.57
109.24
105.56
100.11
93.92
87.77
81.95
76.56
71.66
67.14
62.52
56.86
49.25
39.07
26.41
12.78
0.95
-6.08
-6.70
-1.37
7.63
17.17
23.87
24.12
14.93
-5.40
-36.70
-77.05
-122.97
-170.09
-211.70
-238.06
-242.47
-226.12
-196.84
-163.07
-130.52
-101.75
-77.34
-56.84
-39.38
-24.35
-11.18
0.15
9.73
16.53
20.37
21.34
19.67
16.50
13.15
10.86
9.53
8.24
5.46
-0.55
-11.34
-29.23
-54.66
-85.79
-113.46
-129.87
-129.48
-111.39
-80.44
-46.02
-20.66
-12.24
-20.94
-40.44
-63.51
-85.10
-103.82
-121.10
-139.43
-163.45
-194.53
-229.74
-263.52
-290.83
-307.23
-308.96
-293.90
-245.32
-164.91
-73.13
5.28
58.02
86.84
99.73
103.74
102.54
96.95
84.54
65.92
45.96
30.86
23.86
24.09
27.97
32.11
33.93
30.88
23.75
16.56
13.91
17.88
27.18
38.41
48.45
55.27
57.42
56.19
55.31
59.06
70.21
89.60
112.84
137.09
160.54
182.07
201.95
221.55
242.56
266.38
293.90
325.18
359.29
392.51
418.05
427.74
414.79
376.35
314.82
237.06
151.98
67.97
-9.70
-79.20
-141.13
-196.96
-248.25
-296.81
-345.24
-396.85
-453.90
-515.83
-577.72
-630.65
-664.28
-670.86
-648.51
-602.14
-541.42
-476.65
-415.20
-359.66
-308.67
-259.35
-209.87
-160.37
-112.42
-67.71
-26.77
11.36
48.70
87.72
130.69
178.79
231.44
285.89
336.94
378.07
403.42
410.16
399.82
377.96
351.90
327.91
309.27
295.16
281.83
264.85
241.39
211.47
177.79
144.38
115.09
93.00
78.45
69.07
60.80
49.31
30.93
3.25
-34.23
-79.02
-123.23
-156.82
-170.72
-160.62
-129.17
-85.63
-42.72
-11.49
3.21
6.68
7.46
12.26
23.18
38.98
58.35
82.17
113.86
157.57
218.25
293.44
372.19
438.30
477.14
481.73
454.12
403.57
321.15
213.06
97.49
-4.39
-81.24
-134.18
-169.02
-191.13
-203.91
-209.61
-206.94
-197.77
-185.56
-175.06
-170.41
-172.25
-179.98
-193.52
-213.41
-237.24
-262.95
-289.11
-309.69
-319.45
-313.21
-290.60
-257.23
-221.45
-187.83
-156.70
-124.62
-86.62
-39.15
20.14
88.35
157.62
218.04
261.83
283.93
282.30
258.21
206.44
135.09
61.85
3.32
-34.36
-54.17
-62.35
-63.69
-60.81
-55.38
-47.37
-38.50
-31.81
-29.69
-32.14
-37.05
-41.63
-44.01
-43.95
-41.10
-36.93
-33.86
-33.76
-36.55
-40.33
-42.81
-42.79
-41.15
-39.33
-39.59
-42.67
-46.20
-44.78
-32.76
-7.84
27.47
65.77
98.27
117.28
119.76
108.09
88.65
68.62
53.29
44.86
43.19
47.55
55.96
65.43
71.80
70.33
57.57
33.88
5.25
-17.80
-24.25
-9.60
21.73
57.55
82.98
87.06
67.32
30.11
-15.20
-52.66
-73.22
-77.64
-72.60
-64.91
-57.65
-50.18
-40.39
-27.47
-12.82
-0.76
5.02
3.69
-2.42
-9.03
-11.90
-8.80
0.01
12.16
23.43
30.23
31.27
27.80
22.76
19.39
19.41
23.06
28.56
32.36
31.11
23.10
8.96
-8.69
-25.30
-38.13
-45.59
-48.00
-47.46
-46.60
-47.30
-50.40
-55.81
-62.86
-70.49
-76.38
-76.79
-67.32
-45.00
-10.83
28.64
62.75
80.73
76.39
51.50
14.74
-22.24
-50.06
-65.22
-69.84
-69.06
-67.34
-66.54
-66.14
-65.42
-65.05
-66.91
-72.28
-79.78
-84.73
-81.16
-65.06
-36.79
-1.85
31.46
55.58
67.05
67.04
60.09
51.40
44.50
40.38
38.20
36.64
34.97
33.22
31.68
30.45
29.29
27.80
25.55
22.58
19.28
16.26
14.04
12.79
12.27
11.92
11.11
9.42
6.89
3.92
1.10
-1.06
-2.38
-3.04
-3.54
-4.38
-5.92
-8.16
-10.81
-13.45
-15.72
-17.47
-18.78
-19.97
-21.38
-23.23
-25.54
-28.18
-30.96
-33.69
-36.18
-38.30
-40.02
-41.30
-42.01
-41.89
-40.68
-38.15
-34.17
-28.77
-21.99
-14.18
-5.71
3.08
11.94
20.74
29.41
37.91
45.46
52.15
57.69
61.80
64.22
65.06
64.69
63.71
62.64
61.78
61.22
60.57
59.77
58.23
55.99
53.53
51.55
50.53
50.52
51.36
51.84
50.98
48.23
43.79
38.40
33.07
28.67
25.80
24.86
25.97
28.90
32.45
34.36
31.88
22.94
7.62
-11.34
-29.37
-42.16
-47.45
-46.13
-41.58
-37.75
-37.36
-41.01
-47.52
-55.06
-62.14
-67.64
-70.69
-70.26
-65.25
-55.10
-40.52
-23.76
-8.47
1.32
2.67
-5.01
-19.39
-35.87
-49.23
-55.59
-53.94
-46.23
-36.02
-26.48
-19.09
-13.50
-8.56
-3.63
0.81
3.76
4.54
3.36
1.55
0.71
2.23
7.18
16.65
31.92
54.11
83.42
116.51
148.31
172.83
184.97
182.22
165.76
139.73
109.72
80.42
54.09
30.63
8.13
-15.70
-41.67
-67.78
-89.35
-100.66
-98.22
-82.71
-58.59
-32.37
-10.38
2.91
5.09
-4.90
-26.85
-59.56
-99.51
-139.59
-170.07
-182.40
-172.83
-143.81
-102.03
-54.36
-6.14
38.75
77.24
105.59
118.91
112.95
86.72
42.92
-6.42
-44.87
-62.46
-61.11
-49.74
-37.18
-27.66
-20.95
-14.61
-6.13
4.43
14.59
21.58
24.32
23.24
20.37
17.92
17.51
19.87
23.96
27.34
27.22
22.98
14.83
4.58
-5.79
-14.59
-20.75
-24.37
-26.63
-28.79
-29.28
-28.93
-27.29
-23.78
-18.04
-10.27
-1.49
6.68
12.77
16.24
16.89
16.57
17.07
19.50
23.85
28.78
32.15
32.01
28.06
20.39
11.41
2.68
-5.94
-16.37
-30.05
-46.30
-61.41
-68.46
-66.89
-55.13
-35.71
-13.55
6.83
23.05
34.63
41.16
40.83
30.70
11.66
-11.79
-31.68
-39.25
-28.82
-0.62
39.42
83.98
119.32
138.30
142.81
140.62
139.56
142.54
146.44
145.70
134.10
109.66
77.26
44.79
19.39
7.55
11.42
26.83
45.38
60.69
71.53
80.64
93.31
110.26
126.98
136.54
133.08
111.65
73.71
27.43
-16.44
-51.61
-71.70
-78.76
-79.85
-83.61
-101.36
-137.07
-184.24
-230.14
-263.26
-277.86
-275.42
-262.25
-247.13
-244.79
-264.00
-303.14
-353.49
-405.32
-450.31
-481.84
-494.80
-446.84
-329.17
-175.32
-32.46
73.42
140.89
179.73
200.50
210.61
213.76
205.82
186.19
161.78
142.44
133.78
134.93
140.94
146.39
147.65
139.64
122.60
102.96
88.53
82.72
83.56
86.49
87.79
86.07
79.65
69.65
60.29
55.68
57.54
65.21
77.24
91.41
103.81
107.82
98.51
76.59
49.16
26.45
16.54
21.19
34.35
44.89
42.56
24.21
-4.47
-32.13
-47.72
-47.54
-35.68
-20.06
-7.44
0.45
5.95
12.29
20.99
30.57
37.70
39.96
37.04
29.74
20.67
12.48
6.83
4.03
3.20
3.09
3.05
3.32
3.38
2.98
1.42
-2.66
-10.96
-25.05
-45.77
-73.26
-98.98
-118.88
-131.44
-137.35
-138.68
-138.21
-138.82
-142.32
-148.06
-152.22
-149.69
-134.75
-104.46
-61.05
-11.98
32.89
65.42
82.65
87.19
84.21
79.44
76.80
77.79
82.21
88.45
94.89
99.18
98.34
89.50
72.36
50.05
28.60
14.78
11.91
19.52
34.06
51.07
67.04
80.38
90.68
97.67
100.87
98.92
91.57
79.80
65.33
49.97
35.06
20.76
6.39
-7.30
-21.30
-35.51
-48.85
-60.00
-67.41
-70.15
-68.21
-64.33
-58.23
-50.72
-42.28
-32.97
-23.17
-12.92
-2.63
6.75
13.99
18.20
18.14
13.42
6.98
-1.16
-10.28
-19.33
-27.43
-34.00
-38.55
-41.34
-42.64
-42.71
-42.18
-41.30
-40.25
-39.21
-38.36
-37.63
-37.17
-37.02
-37.09
-37.51
-38.28
-39.36
-40.74
-42.41
-44.33
-46.51
-48.93
-51.56
-54.39
-57.44
-60.61
-63.77
-66.70
-69.17
-70.86
-71.42
-71.88
-71.16
-68.86
-64.82
-59.07
-51.69
-42.87
-32.69
-21.24
-8.64
5.14
19.95
35.64
52.02
69.34
86.72
103.55
119.33
133.53
145.75
155.59
162.71
166.81
167.89
165.95
161.15
153.61
143.88
131.87
117.91
102.65
86.76
71.33
57.33
45.39
35.62
27.58
20.46
13.38
5.57
-3.65
-14.33
-26.12
-38.67
-51.74
-65.19
-78.92
-92.63
-103.90
-113.02
-119.81
-124.02
-125.87
-125.98
-125.38
-125.22
-126.63
-130.54
-137.75
-147.88
-159.12
-168.72
-173.46
-170.79
-160.06
-143.05
-123.26
-104.56
-90.13
-78.62
-67.42
-53.55
-34.90
-11.22
16.31
45.65
74.45
100.60
121.93
137.10
145.70
148.45
147.09
143.55
139.31
134.58
129.24
121.37
109.84
94.08
74.26
50.82
24.31
-4.49
-34.37
-63.56
-90.04
-111.05
-124.32
-127.92
-120.28
-100.47
-68.82
-27.40
20.00
67.23
109.33
143.04
167.49
183.53
192.63
195.87
193.63
188.06
177.91
163.83
146.88
128.01
107.70
85.83
61.99
35.96
8.09
-21.83
-51.10
-77.77
-100.72
-119.55
-134.52
-146.29
-155.47
-162.39
-167.36
-170.02
-170.43
-168.79
-165.47
-160.95
-155.64
-150.09
-143.58
-135.34
-124.33
-109.93
-91.91
-70.33
-45.69
-18.90
8.99
35.84
60.41
81.81
99.20
112.00
120.07
123.70
123.57
120.71
116.25
111.14
106.08
101.19
96.19
90.84
85.04
79.01
73.28
68.47
65.11
63.17
62.08
60.88
58.85
55.70
51.82
48.14
45.78
45.50
47.27
50.61
53.82
55.85
56.23
55.41
54.42
54.37
56.12
60.23
66.97
76.09
86.35
94.83
97.47
90.46
72.31
45.36
15.30
-10.82
-27.55
-33.08
-29.50
-21.15
-12.23
-5.15
-0.40
2.50
3.59
2.16
-2.70
-11.40
-23.28
-36.97
-50.91
-63.84
-74.85
-84.23
-92.31
-99.18
-104.60
-108.21
-109.85
-109.78
-108.65
-107.70
-107.27
-107.41
-107.77
-107.85
-107.27
-106.12
-104.82
-103.99
-104.49
-107.15
-112.62
-120.62
-129.37
-135.34
-134.25
-122.79
-100.52
-70.86
-39.96
-14.27
2.13
8.96
9.32
7.75
7.96
11.75
19.13
29.58
42.84
59.25
78.97
101.24
124.09
144.72
160.43
169.13
170.18
164.17
152.52
136.77
118.11
97.22
73.89
49.29
24.31
0.14
-21.84
-40.28
-54.25
-63.62
-68.83
-70.74
-70.09
-67.83
-64.47
-60.24
-55.29
-49.47
-42.92
-35.96
-28.93
-22.02
-15.57
-9.71
-4.33
0.86
6.26
12.11
18.57
25.58
32.75
39.12
43.63
45.30
43.55
38.37
30.10
19.42
6.51
-7.76
-23.04
-39.05
-55.37
-71.00
-84.30
-93.38
-96.74
-93.20
-82.71
-66.45
-46.18
-23.56
0.11
24.31
48.75
72.09
93.92
113.75
131.33
146.56
158.78
166.10
165.45
153.95
130.94
99.57
65.86
36.44
15.62
3.69
-2.47
-7.02
-12.60
-19.05
-24.06
-25.52
-23.07
-18.31
-13.68
-10.87
-10.10
-10.28
-10.22
-8.86
-6.14
-2.43
1.77
5.75
9.27
12.14
14.29
15.72
16.65
17.32
17.96
18.36
18.08
16.23
11.90
4.39
-6.62
-21.21
-39.42
-60.80
-83.43
-104.08
-118.02
-120.61
-109.58
-86.53
-56.82
-27.62
-5.11
8.13
12.94
12.49
10.08
7.66
5.61
3.69
1.94
1.09
1.99
4.64
8.05
10.63
11.18
9.39
6.30
3.63
2.84
4.41
7.47
10.51
11.88
10.71
7.14
2.28
-2.30
-4.87
-3.94
1.07
9.09
16.96
20.00
13.51
-4.49
-32.00
-63.10
-90.11
-106.76
-110.73
-104.27
-92.56
-81.01
-72.74
-68.05
-65.27
-62.34
-57.88
-51.51
-43.36
-33.27
-21.78
-9.31
3.72
16.62
28.53
38.76
46.76
52.37
55.65
56.83
56.51
55.18
52.87
48.96
42.92
35.31
28.79
27.42
35.40
54.65
83.06
114.72
141.61
157.15
158.62
147.63
128.51
105.84
82.66
59.55
37.18
15.89
-3.17
-18.41
-28.73
-34.33
-36.54
-37.26
-38.11
-39.64
-41.59
-43.01
-42.94
-40.94
-37.38
-33.25
-29.71
-27.55
-26.85
-27.21
-27.80
-27.78
-26.72
-24.68
-22.13
-19.73
-18.05
-17.33
-17.55
-18.35
-19.26
-19.81
-19.74
-19.03
-17.96
-17.05
-16.82
-17.70
-19.76
-22.62
-25.59
-27.91
-29.06
-29.04
-28.53
-28.56
-30.10
-33.61
-38.73
-44.38
-49.24
-52.29
-53.42
-53.53
-54.08
-56.18
-60.20
-65.26
-69.50
-70.70
-66.86
-56.21
-37.75
-11.61
20.23
53.50
82.11
99.97
102.85
91.53
71.43
50.27
34.77
27.96
28.57
32.73
36.72
38.61
38.83
38.72
39.05
39.36
38.39
35.14
29.71
23.31
17.56
13.94
12.87
13.62
14.81
15.04
13.47
10.13
5.74
1.40
-1.92
-3.73
-4.16
-3.79
-3.36
-3.56
-4.83
-7.24
-10.56
-14.20
