1505224915.00
64.000000
-0.00
-0.00
-0.00
-0.00
-0.00
-0.00
-0.00
-0.00
-0.00
-0.00
0.00
0.01
0.01
-0.00
-0.03
-0.05
-0.05
0.00
0.13
0.36
0.66
1.01
1.37
1.72
2.06
2.40
2.79
3.24
3.80
4.42
5.06
5.66
6.20
6.68
7.15
7.68
8.31
9.14
10.09
11.04
11.88
12.56
13.14
13.76
14.65
15.96
17.91
20.32
22.90
25.38
27.58
29.57
31.68
34.32
37.81
42.54
48.15
54.10
59.83
64.97
69.58
74.14
79.34
85.71
93.76
103.00
112.62
121.73
129.77
136.75
143.30
150.75
157.77
166.64
177.95
191.79
206.97
220.57
228.25
225.36
208.53
176.87
132.76
80.05
23.07
-34.94
-92.44
-149.16
-205.23
-260.37
-313.74
-363.87
-409.83
-450.91
-486.50
-515.74
-537.23
-549.22
-549.96
-538.37
-514.21
-478.67
-433.88
-382.45
-327.02
-269.84
-212.63
-156.66
-102.95
-52.37
-5.90
35.58
71.43
101.35
125.50
144.38
158.69
169.15
176.37
180.75
182.57
182.07
179.51
175.23
169.65
163.18
156.15
148.81
141.30
133.69
126.02
118.33
110.69
103.16
95.80
88.68
81.83
75.25
68.95
62.95
57.25
51.86
46.78
42.03
37.59
33.45
29.61
26.07
22.81
19.83
17.11
14.67
12.48
10.54
8.83
7.35
6.07
4.97
4.05
3.27
2.62
2.09
1.65
1.30
1.01
0.79
0.61
0.47
0.37
0.29
0.23
0.20
0.17
0.16
0.16
0.18
0.19
0.22
0.25
0.29
0.33
0.37
0.41
0.46
0.51
0.55
0.60
0.66
0.71
0.78
0.84
0.91
0.99
1.08
1.17
1.28
1.40
1.53
1.69
1.85
2.04
2.25
2.48
2.74
3.03
3.34
3.68
4.06
4.47
4.91
5.40
5.91
6.48
7.08
7.72
8.41
9.14
9.91
10.73
11.60
12.51
13.47
14.48
15.56
16.70
17.90
19.17
20.44
21.71
22.89
23.90
24.61
24.92
24.70
23.83
22.27
19.97
16.98
13.35
9.23
4.80
0.28
-4.13
-8.22
-11.80
-14.74
-16.98
-18.47
-19.22
-19.32
-18.84
-17.89
-16.58
-15.04
-13.38
-11.68
-9.97
-8.24
-6.50
-4.72
-2.90
-1.03
0.86
2.74
4.58
6.42
8.33
10.29
12.34
14.48
16.72
18.99
21.22
23.38
25.53
27.87
30.36
33.10
36.15
39.44
42.82
46.05
48.95
51.59
54.30
57.14
60.33
64.04
68.15
72.27
75.83
78.42
79.94
80.86
81.31
81.68
82.12
82.20
80.88
76.61
67.67
52.18
33.33
12.62
-8.56
-29.30
-49.39
-69.24
-89.67
-111.69
-136.29
-164.13
-195.68
-229.70
-262.90
-290.34
-306.84
-308.76
-295.48
-269.69
-236.22
-200.60
-166.64
-135.86
-108.12
-82.85
-60.06
-40.46
-24.79
-13.05
-4.39
2.91
10.58
19.67
30.14
40.97
50.72
58.05
62.21
62.93
60.64
56.13
50.24
43.64
36.71
29.56
22.19
14.54
6.58
-1.71
-10.29
-18.92
-26.98
-33.42
-36.91
-36.29
-31.03
-21.65
-9.50
3.62
16.16
27.19
36.50
44.28
50.74
55.93
59.73
62.06
63.05
63.07
62.60
62.07
61.75
61.69
61.74
61.63
60.99
59.48
56.89
53.17
48.52
43.23
37.60
31.83
25.99
20.08
14.06
7.85
1.29
-5.82
-13.61
-21.83
-29.61
-35.61
-38.35
-36.85
-31.11
-22.27
-12.07
-2.24
6.17
13.02
18.77
23.97
28.78
32.92
35.87
37.36
37.58
37.11
36.63
36.48
36.43
35.88
34.11
30.73
25.85
20.08
14.12
8.54
3.48
-1.31
-6.35
-12.16
-19.18
-27.58
-37.26
-47.72
-58.03
-66.88
-72.87
-74.88
-72.52
-66.26
-57.39
-47.51
-38.03
-29.80
-23.03
-17.43
-12.66
-8.48
-4.99
-2.49
-1.41
-2.05
-4.51
-8.58
-13.84
-19.60
-25.13
-29.69
-32.61
-33.37
-31.62
-27.33
-20.78
-12.60
-3.68
5.03
12.78
19.09
23.78
26.83
28.12
27.41
24.28
18.53
10.37
0.78
-8.60
-15.83
-19.26
-18.16
-12.97
-5.12
3.52
11.40
17.74
22.61
26.61
30.38
34.25
38.14
41.72
44.68
46.90
48.42
49.35
49.76
49.65
48.94
47.62
45.77
43.55
41.11
38.54
35.79
32.68
29.04
24.75
19.90
14.77
9.76
5.30
1.59
-1.45
-4.27
-7.49
-11.73
-17.27
-23.83
-30.55
-36.19
-39.50
-39.71
-36.74
-31.22
-24.19
-16.74
-9.66
-3.28
2.46
7.82
12.96
17.96
22.72
27.06
30.85
34.07
36.72
38.83
40.37
41.26
41.42
40.80
39.44
37.46
34.99
32.15
28.98
25.52
21.78
17.82
13.71
9.45
5.00
0.21
-5.12
-11.16
-17.94
-25.22
-32.36
-38.50
-42.59
-43.85
-41.97
-37.31
-30.81
-23.62
-16.73
-10.64
-5.36
-0.57
3.99
8.38
12.36
15.68
18.23
20.14
21.68
23.09
24.37
25.31
25.60
25.04
23.66
21.67
19.33
16.83
14.16
11.22
7.86
4.03
-0.16
-4.49
-8.73
-12.76
-16.65
-20.66
-25.13
-30.40
-36.65
-43.78
-51.35
-58.62
-64.66
-68.55
-69.64
-67.73
-63.14
-56.62
-49.11
-41.43
-34.12
-27.38
-21.15
-15.32
-9.82
-4.65
0.20
4.82
9.47
14.39
19.73
25.34
30.76
35.37
38.54
39.91
39.45
37.43
34.31
30.57
26.61
22.72
19.10
15.90
13.22
11.12
9.65
8.76
8.33
8.16
7.89
7.11
5.34
2.18
-2.56
-8.80
-16.09
-23.67
-30.58
-35.87
-38.75
-38.84
-36.22
-31.35
-24.96
-17.83
-10.69
-4.19
1.14
4.79
6.42
5.97
3.77
0.57
-2.62
-4.85
-5.57
-4.75
-2.87
-0.66
1.18
2.25
2.34
1.39
-0.74
-4.31
-9.63
-16.81
-25.63
-35.47
-45.54
-55.14
-63.89
-71.85
-79.45
-87.24
-95.69
-104.98
-115.01
-125.42
-135.69
-145.27
-153.63
-160.32
-164.93
-167.25
-167.30
-165.32
-161.60
-156.13
-148.34
-136.99
-120.51
-97.61
-67.79
-31.53
10.02
55.54
103.84
153.70
203.33
249.96
289.98
319.89
337.60
343.21
338.98
328.34
314.53
299.65
284.60
269.61
254.93
241.08
228.61
217.57
207.25
196.52
184.45
170.89
156.65
143.11
131.54
122.49
115.76
110.49
105.66
100.39
94.09
86.49
77.61
67.86
57.91
48.63
40.68
34.32
29.30
24.98
20.71
16.00
10.73
4.93
-1.32
-8.08
-15.46
-23.53
-32.20
-41.17
-50.09
-58.60
-66.36
-73.05
-78.35
-81.93
-83.60
-83.34
-81.24
-77.43
-72.02
-65.10
-56.91
-47.87
-38.64
-29.94
-22.32
-16.01
-10.92
-6.85
-3.76
-1.79
-1.19
-2.06
-4.19
-7.06
-10.07
-12.85
-15.34
-17.90
-21.07
-25.48
-31.66
-39.99
-50.55
-63.01
-76.68
-90.54
-103.68
-115.69
-126.92
-138.44
-151.62
-167.54
-186.59
-208.34
-231.75
-255.62
-278.90
-300.88
-321.16
-339.67
-356.80
-373.44
-390.76
-409.48
-429.10
-447.37
-460.54
-464.69
-457.26
-438.29
-410.35
-377.53
-343.59
-310.73
-279.16
-247.83
-215.55
-181.93
-147.53
-113.33
-80.11
-47.99
-16.48
15.10
47.20
79.98
113.41
147.47
181.97
216.15
248.27
275.56
295.00
304.29
302.96
292.55
276.09
256.93
237.66
219.63
203.14
188.08
174.42
162.28
151.78
142.70
134.49
126.47
118.23
109.89
102.11
95.86
91.93
90.60
91.43
93.45
95.43
96.36
95.68
93.40
89.94
85.84
81.57
77.39
73.35
69.37
65.34
61.19
56.91
52.58
48.32
44.26
40.47
36.94
33.60
30.36
27.09
23.61
19.64
14.91
9.16
2.43
-4.86
-11.91
-17.69
-21.31
-22.27
-20.62
-16.85
-11.69
-5.77
0.39
6.44
12.02
16.76
20.27
22.31
22.89
22.32
21.07
19.58
18.14
16.82
15.51
13.99
12.06
9.52
6.33
2.61
-1.25
-4.67
-7.04
-7.98
-7.55
-6.29
-5.00
-4.42
-5.04
-6.95
-9.93
-13.61
-17.61
-21.45
-24.58
-26.29
-25.82
-22.67
-16.84
-8.94
-0.03
8.68
16.28
22.38
27.04
30.64
33.52
35.88
37.75
39.15
40.21
41.16
42.25
43.56
44.98
46.23
47.00
47.07
46.34
44.84
42.64
39.82
36.47
32.68
28.48
23.81
18.54
12.55
5.76
-1.75
-9.74
-17.84
-25.64
-32.75
-38.76
-43.24
-45.80
-46.12
-44.12
-40.00
-34.24
-27.42
-20.05
-12.40
-4.54
3.58
11.90
20.25
28.27
35.57
41.86
47.00
51.12
54.53
57.63
60.84
64.42
68.46
72.91
77.59
82.23
86.38
89.39
90.52
89.10
84.76
77.57
67.99
56.59
43.86
30.10
15.53
0.48
-14.53
-28.89
-42.12
-53.98
-64.45
-73.61
-81.44
-87.79
-92.36
-94.73
-94.24
-90.07
-81.52
-68.42
-51.57
-32.81
-14.60
0.76
11.91
18.77
22.23
23.56
23.79
23.40
22.48
21.01
19.12
17.12
15.29
13.72
12.20
10.36
7.85
4.50
0.39
-4.23
-9.05
-13.89
-18.67
-23.36
-27.74
-31.34
-33.39
-33.14
-30.16
-24.63
-17.32
-9.32
-1.66
5.08
10.84
15.88
20.49
24.74
28.44
31.30
33.23
34.41
35.30
36.40
38.03
40.21
42.65
44.92
46.58
47.35
47.20
46.36
45.23
44.30
43.91
44.08
44.39
44.04
42.11
37.89
31.29
23.06
14.73
8.21
5.32
7.10
13.53
23.54
35.39
47.36
58.35
68.18
77.46
87.15
98.02
110.29
123.66
137.52
151.27
164.43
176.61
187.36
196.22
202.90
207.54
210.69
212.98
214.61
215.02
212.93
206.92
196.11
180.57
161.22
139.35
116.04
91.88
67.05
41.65
15.89
-9.96
-35.83
-62.21
-90.24
-121.55
-157.72
-199.51
-246.08
-294.64
-340.70
-379.15
-405.83
-418.91
-419.52
-411.37
-399.27
-387.40
-378.05
-371.22
-365.14
-357.24
-345.03
-326.58
-300.64
-266.62
-224.71
-175.96
-122.36
-66.69
-12.19
38.07
81.66
117.27
144.84
165.35
180.32
191.15
198.56
202.48
202.43
198.15
190.16
179.96
169.50
160.52
153.99
149.94
147.89
147.36
148.08
149.76
151.63
152.10
149.09
140.69
125.97
105.55
81.39
56.15
32.30
11.46
-5.84
-19.87
-31.24
-40.51
-48.07
-54.31
-59.76
-65.25
-71.76
-80.08
-90.46
-102.27
-114.04
-123.75
-129.40
-129.70
-124.44
-114.54
-101.64
-87.47
-73.36
-59.96
-47.48
-35.96
-25.64
-16.93
-10.23
-5.70
-3.05
-1.65
-0.79
-0.04
0.68
1.09
0.69
-1.00
-4.26
-9.10
-15.29
-22.33
-29.66
-36.86
-43.79
-50.65
-57.80
-65.39
-73.04
-79.74
-84.01
-84.51
-80.55
-72.41
-61.28
-48.78
-36.38
-25.06
-15.17
-6.61
0.88
7.52
13.43
18.66
23.27
27.32
30.78
33.52
35.32
35.92
35.17
33.13
30.09
26.47
22.67
18.94
15.26
11.34
6.68
0.75
-6.79
-15.83
-25.60
-34.73
-41.53
-44.41
-42.48
-35.84
-25.51
-13.14
-0.32
11.81
22.81
32.69
41.57
49.33
55.57
59.82
61.88
62.07
61.23
60.36
60.22
60.93
61.89
62.08
60.49
56.55
50.34
42.47
33.75
24.86
16.12
7.40
-1.74
-11.76
-22.98
-35.24
-47.73
-59.11
-67.70
-72.06
-71.44
-66.04
-57.02
-45.96
-34.32
-23.06
-12.50
-2.61
6.64
14.99
21.97
27.08
30.14
31.47
31.73
31.69
31.78
31.94
31.68
30.31
27.43
23.09
17.85
12.51
7.74
3.76
0.23
-3.52
-8.28
-14.58
-22.63
-32.16
-42.45
-52.35
-60.45
-65.36
-66.08
-62.40
-54.99
-45.31
-35.01
-25.47
-17.41
-10.88
-5.58
-1.24
2.18
4.52
5.62
5.56
4.76
3.77
3.03
2.68
2.44
1.81
0.29
-2.34
-5.90
-9.94
-13.93
-17.54
-20.83
-24.16
-28.09
-33.11
-39.44
-46.97
-55.18
-63.17
-69.78
-73.74
-73.97
-69.94
-61.81
-50.51
-37.35
-23.69
-10.49
1.74
12.87
22.84
31.44
38.38
43.37
46.46
48.02
48.76
49.33
50.10
50.99
51.49
50.95
48.85
45.09
40.00
34.22
28.37
22.84
17.62
12.33
6.42
-0.61
-9.07
-18.88
-29.45
-39.69
-48.10
-53.08
-53.42
-48.73
-39.65
-27.68
-14.63
-2.08
9.07
18.63
26.80
33.79
39.55
43.85
46.51
47.68
47.84
47.63
47.58
47.74
47.75
46.96
44.77
40.91
35.58
29.30
22.74
16.42
10.56
5.01
-0.66
-7.03
-14.62
-23.66
-33.92
-44.61
-54.45
-61.95
-65.76
-65.05
-59.80
-50.77
-39.26
-26.74
-14.45
-3.21
6.56
14.72
21.21
25.91
28.75
29.79
29.38
28.12
26.68
25.55
24.79
24.03
22.64
20.05
16.04
10.89
5.18
-0.44
-5.62
-10.39
-15.16
-20.50
-26.90
-34.60
-43.47
-52.93
-61.92
-69.08
-72.97
-72.48
-67.27
-57.86
-45.58
-32.13
-19.13
-7.81
1.19
7.73
11.92
14.18
15.01
15.06
14.97
15.24
16.01
17.09
17.94
18.02
16.90
14.45
10.85
6.46
1.68
-3.33
-8.59
-14.44
-21.28
-29.44
-38.83
-48.73
-57.74
-64.08
-66.07
-62.74
-54.25
-41.89
-27.62
-13.48
-0.93
9.44
17.76
24.45
29.88
34.16
37.14
38.73
38.97
38.10
36.44
34.22
31.54
28.43
24.88
20.96
16.81
12.57
8.23
3.58
-1.81
-8.53
-17.07
-27.58
-39.49
-51.43
-61.36
-67.18
-67.41
-61.80
-51.37
-38.13
-24.26
-11.41
-0.37
8.88
16.73
23.55
29.38
34.05
37.38
39.40
40.41
40.81
40.86
40.56
39.60
37.66
34.58
30.55
26.05
21.66
17.67
13.92
9.76
4.29
-3.31
-13.37
-25.46
-38.28
-49.82
-57.82
-60.42
-56.79
-47.41
-34.04
-19.04
-4.63
7.85
18.14
26.82
34.64
41.99
48.66
54.04
57.57
59.20
59.43
59.12
59.02
59.33
59.60
58.91
56.42
51.71
45.10
37.47
29.86
23.03
17.14
11.74
5.98
-0.99
-9.76
-20.46
-32.74
-45.69
-57.89
-67.53
-72.72
-72.08
-65.20
-52.98
-37.40
-20.94
-5.73
7.00
17.12
25.19
31.96
37.83
42.72
46.30
48.30
48.78
48.17
47.10
46.04
45.13
44.11
42.46
39.69
35.50
29.93
23.25
15.93
8.37
0.91
-6.28
-13.22
-20.06
-27.12
-34.84
-43.72
-54.08
-65.78
-77.92
-88.79
-96.10
-97.65
-92.18
-79.88
-62.46
-42.62
-23.13
-5.95
8.12
19.32
28.36
35.82
41.90
46.48
49.52
51.26
52.29
53.33
54.78
56.52
57.84
57.77
55.48
50.66
43.65
35.31
26.66
18.54
11.37
5.18
-0.28
-5.41
-10.65
-16.51
-23.51
-32.01
-41.88
-52.18
-61.21
-66.84
-67.26
-61.70
-50.74
-36.15
-20.16
-4.71
9.00
20.63
30.25
38.03
43.92
47.86
49.97
50.76
50.98
51.31
51.97
52.61
52.45
50.74
47.16
41.97
35.88
29.71
23.98
18.72
13.51
7.71
0.64
-8.20
-18.94
-31.19
-43.93
-55.48
-63.79
-67.03
-64.18
-55.52
-42.61
-27.82
-13.48
-1.27
8.15
14.95
19.67
22.73
24.39
24.76
24.04
22.63
20.97
19.41
17.99
16.44
14.34
11.34
7.34
2.41
-3.29
-9.66
-16.84
-25.14
-34.88
-46.09
-58.15
-69.66
-78.59
-82.73
-80.58
-71.92
-58.04
-41.44
-24.94
-10.78
0.01
7.62
12.94
16.96
20.21
22.73
24.22
24.47
23.53
21.72
19.47
17.09
14.63
11.95
8.79
4.93
0.21
-5.49
-12.30
-20.45
-30.17
-41.40
-53.48
-64.98
-73.85
-77.97
-75.92
-67.55
-54.15
-37.98
-21.52
-6.62
5.84
15.92
24.15
31.01
36.69
41.11
44.13
45.73
46.07
45.36
43.77
41.38
38.20
34.25
29.62
24.48
18.94
13.03
6.65
-0.45
-8.63
-18.21
-29.26
-41.30
-53.11
-62.74
-67.97
-67.08
-59.57
-46.51
-30.29
-13.65
1.25
13.57
23.72
32.70
41.22
49.19
55.69
59.66
60.55
58.78
55.52
52.15
49.55
47.70
45.76
42.59
37.39
30.08
21.38
12.37
3.99
-3.39
-10.10
-16.92
-24.74
-34.22
-45.62
-58.66
-72.58
-86.06
-97.33
-104.50
-106.12
-101.66
-91.90
-78.68
-64.21
-50.33
-37.95
-27.16
-17.64
-9.31
-2.63
1.61
2.72
0.58
-4.27
-10.90
-18.47
-26.55
-35.23
-44.83
-55.58
-67.36
-79.68
-91.89
-103.42
-113.95
-123.47
-132.23
-140.67
-149.30
-158.68
-169.23
-180.88
-192.76
-203.08
-209.33
-208.98
-200.24
-182.72
-157.74
-127.89
-96.36
-66.05
-38.95
-15.82
3.75
21.24
38.90
59.42
85.27
117.79
156.29
197.65
236.74
267.70
285.63
287.96
275.04
249.71
216.27
179.37
143.20
111.08
85.39
67.57
58.10
56.52
61.65
71.85
85.26
100.11
114.87
128.53
140.76
151.97
162.89
173.93
184.45
192.41
194.88
189.03
173.39
148.58
117.14
82.53
47.93
15.27
-14.95
-43.12
-69.72
-94.86
-118.29
-139.82
-159.69
-178.56
-197.05
-215.12
-231.84
-245.50
-254.11
-256.03
-250.26
-236.54
-215.31
-187.69
-155.38
-120.51
-85.14
-50.82
-18.34
12.13
40.52
66.32
88.55
106.26
119.27
128.71
136.83
146.17
158.40
173.42
189.24
202.57
209.93
208.73
198.04
178.66
152.81
123.36
93.14
64.33
38.33
15.67
-3.80
-20.71
-35.89
-49.92
-62.71
-73.18
-79.35
-78.98
-70.43
-53.47
-29.55
-1.46
27.58
54.78
78.18
96.61
109.34
115.78
115.49
108.52
95.72
78.66
59.31
39.37
19.74
0.47
-18.90
-38.75
-58.98
-78.91
-97.62
-114.52
-129.65
-143.66
-157.45
-171.56
-185.74
-198.96
-209.55
-215.74
-215.89
-208.88
-194.16
-172.05
-143.64
-110.78
-75.59
-39.98
-5.16
28.45
60.92
92.26
121.91
148.74
171.37
188.77
200.73
207.80
210.90
210.72
207.37
200.43
189.42
174.48
156.73
138.27
121.52
108.31
99.14
92.80
86.75
77.89
63.60
42.50
14.91
-17.18
-50.50
-81.14
-105.38
-120.60
-125.91
-122.22
-111.74
-97.07
-80.27
-62.38
-43.64
-24.19
-4.73
13.30
28.10
38.15
42.71
41.94
36.71
28.27
18.09
7.66
-1.79
-9.64
-16.19
-22.48
-29.70
-38.32
-47.59
-55.76
-60.88
-62.01
-59.75
-56.13
-53.73
-54.56
-59.44
-67.78
-77.91
-87.62
-94.79
-97.89
-96.22
-89.89
-79.34
-64.76
-45.77
-21.41
9.60
48.37
95.61
151.13
213.57
279.77
344.65
401.65
444.12
467.18
469.28
452.76
422.89
386.02
347.71
311.48
278.75
249.40
222.49
196.77
170.93
143.66
113.77
80.55
44.33
6.82
-28.91
-59.29
-81.73
-96.09
-105.04
-113.01
-123.85
-138.57
-154.38
-166.04
-168.52
-159.83
-142.09
-120.51
-100.82
-86.87
-79.55
-77.17
-76.91
-76.13
-73.21
-67.62
-59.62
-49.91
-39.33
-28.81
-19.27
-11.54
-6.41
-4.54
-6.45
-12.29
-21.76
-34.08
-48.27
-63.61
-79.98
-97.91
-118.12
-140.84
-165.19
-189.23
-210.40
-226.34
-235.26
-235.88
-226.97
-207.07
-175.08
-131.33
-78.75
-22.94
29.03
70.78
98.62
112.41
114.73
109.23
99.07
86.32
72.27
58.13
45.24
34.76
27.01
21.12
15.35
7.80
-2.83
-16.80
-33.41
-51.33
-69.01
-84.83
-97.37
-105.45
-108.41
-106.41
-100.44
-92.12
-83.32
-75.57
-69.75
-66.02
-64.02
-63.13
-62.70
-62.06
-60.59
-57.71
-52.95
-46.09
-37.28
-27.12
-16.55
-6.74
1.30
6.94
9.96
10.40
8.24
3.34
-4.38
-14.55
-26.07
-37.26
-46.43
-52.67
-56.14
-57.83
-58.78
-59.34
-58.86
-56.14
-50.12
-40.59
-28.37
-14.81
-1.29
11.36
22.93
33.72
44.25
55.01
66.30
78.15
90.33
102.40
113.81
123.99
132.44
138.80
142.81
144.35
143.50
140.59
136.33
131.64
127.40
123.92
120.54
115.67
107.39
94.40
76.89
56.75
37.01
20.57
9.03
2.05
-2.27
-6.40
-12.24
-20.55
-30.99
-42.72
-54.91
-66.95
-78.17
-87.49
-93.55
-95.06
-91.57
-84.00
-74.59
-66.26
-61.69
-62.45
-68.71
-79.55
-93.55
-109.41
-126.28
-143.80
-161.76
-179.85
-197.38
-213.25
-226.09
-234.68
-238.27
-237.06
-232.14
-225.19
-217.76
-210.53
-202.98
-193.69
-181.20
-164.91
-145.61
-125.29
-106.23
-90.08
-77.28
-67.02
-57.85
-48.32
-37.48
-24.98
-11.06
3.54
17.79
30.68
41.59
50.74
59.29
68.93
81.11
96.23
113.27
130.03
143.93
152.95
156.26
154.32
148.37
139.89
130.14
120.04
110.36
101.84
95.27
91.22
89.85
90.59
92.28
93.50
93.14
90.79
86.87
82.35
78.34
75.52
73.92
72.96
71.73
69.48
65.90
61.29
56.37
51.92
48.51
46.29
45.03
44.30
43.60
42.52
40.79
38.25
34.94
31.00
26.71
22.40
18.42
14.99
12.21
10.07
8.59
7.93
8.38
10.32
13.90
18.92
24.65
30.02
34.04
36.11
36.36
35.56
34.75
34.68
35.46
36.51
36.89
35.84
33.21
29.57
25.84
22.82
20.76
19.21
17.28
14.00
8.71
1.26
-7.93
-17.98
-27.67
-35.56
-40.30
-40.91
-37.11
-29.46
-19.21
-7.96
2.87
12.31
20.05
26.30
31.55
36.38
41.28
46.53
52.08
57.57
62.26
65.32
65.99
63.98
59.63
53.93
48.15
43.36
39.98
37.55
34.92
30.83
24.41
15.62
5.30
-5.16
-14.30
-21.21
-25.77
-28.60
-30.64
-32.72
-35.27
-38.33
-41.79
-45.73
-50.53
-56.72
-64.67
-74.43
-85.79
-98.63
-113.08
-129.46
-147.64
-166.44
-183.31
-194.80
-197.54
-189.56
-170.95
-143.70
-110.78
-74.99
-38.26
-1.67
33.99
67.63
97.66
122.25
139.80
149.18
149.77
141.31
123.95
98.56
67.24
33.52
2.17
-21.66
-33.65
-31.44
-15.33
11.82
45.19
79.40
109.79
133.54
149.99
160.30
166.44
170.14
172.21
172.51
170.48
165.74
158.47
149.21
138.48
126.36
112.45
96.19
77.44
56.92
36.20
17.31
1.97
-9.08
-16.39
-21.44
-26.07
-31.74
-39.02
-47.59
-56.43
-64.39
-70.49
-74.20
-75.31
-73.77
-69.56
-62.63
-53.08
-41.36
-28.28
-14.94
-2.49
8.20
16.74
23.24
28.21
32.21
35.60
38.35
40.03
40.11
38.40
35.25
31.66
28.88
27.94
29.12
31.82
34.60
35.76
33.84
28.09
18.90
7.79
-2.78
-10.07
-11.96
-7.77
1.27
12.34
21.93
27.12
26.49
20.43
10.68
-0.55
-11.35
-20.46
-27.13
-30.74
-30.49
-25.48
-15.11
0.57
20.62
43.41
67.00
89.60
109.89
127.00
140.42
149.82
155.03
156.11
153.48
147.99
140.75
132.94
125.54
119.15
114.11
110.63
109.02
109.75
113.22
119.22
126.53
132.78
134.97
130.49
118.17
98.78
74.73
49.17
24.70
2.62
-17.35
-36.54
-56.69
-79.41
-105.66
-135.37
-167.00
-197.59
-223.22
-240.44
-247.74
-246.39
-239.95
-232.67
-227.45
-224.72
-222.76
-219.16
-212.53
-203.29
-193.25
-184.51
-178.41
-175.37
-174.91
-175.70
-175.09
-169.09
-153.24
-124.50
-83.48
-35.56
10.25
44.19
59.38
54.15
31.96
-0.29
-34.75
-64.53
-84.55
-91.84
-85.91
-69.38
-48.03
-29.58
-21.27
-26.94
-45.43
-71.02
-95.87
-112.90
-117.77
-109.07
-87.53
-55.40
-16.75
21.84
51.98
66.32
62.28
44.47
23.45
10.57
12.10
25.95
43.35
54.48
54.52
46.17
37.28
35.41
43.15
56.85
69.38
74.37
69.44
56.64
40.23
24.03
9.72
-3.22
-16.35
-30.89
-46.93
-63.37
-78.43
-90.51
-98.58
-102.32
-102.03
-98.24
-91.50
-82.24
-70.61
-56.65
-40.53
-22.75
-4.32
13.16
27.92
38.58
44.70
47.02
47.08
46.49
46.18
45.97
44.80
41.34
34.73
24.98
12.97
0.05
-12.43
-23.63
-33.35
-41.89
-49.79
-57.49
-65.21
-72.99
-80.86
-88.84
-96.83
-104.37
-110.64
-114.58
-115.34
-112.69
-107.07
-99.48
-90.98
-82.38
-74.04
-65.98
-58.07
-50.14
-42.04
-33.59
-24.59
-14.92
-4.65
5.92
16.39
26.43
35.98
45.28
54.65
64.28
74.01
83.34
91.59
98.26
103.18
106.53
108.66
109.73
109.63
108.04
104.72
99.78
93.80
87.62
81.94
77.03
72.50
67.61
61.68
54.47
46.33
38.14
30.79
24.91
20.55
17.32
14.53
11.66
8.44
4.93
1.43
-1.73
-4.35
-6.41
-8.13
-9.90
-12.09
-15.01
-18.70
-22.95
-27.31
-31.36
-34.87
-37.88
-40.73
-43.83
-47.56
-52.09
-57.38
-63.15
-68.84
-73.66
-76.64
-76.85
-73.70
-67.21
-58.06
-47.38
-36.41
-26.05
-16.74
-8.50
-1.23
5.13
10.48
14.76
18.03
20.59
22.83
24.93
26.80
27.98
27.95
26.48
23.75
20.31
16.83
13.73
10.99
8.23
4.89
0.47
-5.25
-12.23
-20.06
-27.98
-34.89
-39.52
-40.75
-38.03
-31.65
-22.65
-12.56
-2.73
5.98
13.45
19.98
25.94
31.41
36.12
39.62
41.64
42.35
42.30
42.20
42.51
43.21
43.73
43.18
40.80
36.27
29.92
22.52
15.02
8.06
1.84
-3.89
-9.70
-16.10
-23.40
-31.57
-40.30
-48.97
-56.76
-62.68
-65.70
-65.02
-60.33
-51.99
-41.02
-28.87
-16.94
-6.24
2.88
10.54
17.14
23.04
28.34
32.94
36.69
39.52
41.52
42.86
43.68
43.99
43.71
42.69
40.94
38.56
35.74
32.60
29.09
25.06
20.28
14.70
8.48
1.97
-4.45
-10.51
-16.22
-21.87
-27.94
-34.93
-43.09
-52.17
-61.29
-68.98
-73.57
-73.70
-68.83
-59.55
-47.37
-34.24
-21.86
-11.22
-2.45
4.91
11.50
17.67
23.37
28.31
32.17
34.91
36.76
38.17
39.51
40.90
42.13
42.79
42.47
40.94
38.20
34.48
30.11
25.37
20.44
15.36
10.02
4.26
-2.15
-9.42
-17.69
-26.96
-36.99
-47.17
-56.45
-63.41
-66.61
-64.95
-58.16
-47.01
-33.22
-18.91
-5.97
4.56
12.63
18.91
24.32
29.39
34.15
38.20
41.13
42.85
43.62
43.96
44.28
44.70
44.98
44.67
43.38
40.91
37.34
32.92
27.94
22.62
17.14
11.57
6.01
0.51
-4.95
-10.47
-16.34
-22.88
-30.30
-38.35
-46.22
-52.54
-55.75
-54.61
-48.76
-38.89
-26.60
-13.83
-2.27
7.14
14.31
19.75
24.14
27.98
31.36
34.13
36.11
37.33
38.02
38.54
39.10
39.65
39.82
39.10
37.11
33.74
29.25
24.12
18.80
13.60
8.53
3.42
-1.93
-7.69
-13.96
-20.83
-28.43
-36.83
-45.83
-54.70
-62.15
-66.57
-66.60
-61.64
-52.23
-39.89
-26.62
-14.18
-3.60
4.96
11.95
17.92
23.19
27.69
31.23
33.66
35.15
36.07
36.84
37.64
38.37
38.64
38.01
36.16
33.03
28.81
23.82
18.41
12.86
7.36
1.94
-3.50
-9.18
-15.36
-22.36
-30.34
-39.24
-48.63
-57.64
-64.97
-69.14
-68.92
-63.77
-54.19
-41.62
-28.02
-15.22
-4.35
4.34
11.25
17.00
22.02
26.30
29.60
31.67
32.58
32.69
32.52
32.46
32.55
32.49
31.76
29.86
26.61
22.19
17.04
11.67
6.40
1.23
-4.07
-9.82
-16.29
-23.59
-31.75
-40.78
-50.60
-60.80
-70.47
-78.17
-82.27
-81.53
-75.64
-65.49
-52.87
-39.79
-27.78
-17.44
-8.54
-0.46
7.21
14.41
20.66
25.47
28.68
30.68
32.15
33.74
35.73
37.84
39.45
39.84
38.60
35.72
31.65
26.97
22.17
17.48
12.76
7.67
1.79
-5.23
-13.60
-23.25
-33.75
-44.30
-53.60
-60.14
-62.54
-60.00
-52.63
-41.51
-28.35
-14.89
-2.46
8.32
17.42
25.09
31.53
36.70
40.48
42.81
43.98
44.54
45.05
45.79
46.55
46.67
45.37
42.20
37.23
31.10
24.71
18.76
13.50
8.66
3.60
-2.36
-9.71
-18.58
-28.64
-39.08
-48.62
-55.68
-58.75
-56.86
-49.96
-39.03
-25.78
-12.14
0.31
10.71
18.88
25.02
29.44
32.39
34.08
34.81
35.03
35.13
35.30
35.30
34.55
32.42
28.58
23.20
16.91
10.50
4.46
-1.22
-7.00
-13.64
-21.75
-31.63
-43.01
-55.04
-66.34
-75.20
-80.00
-79.68
-74.16
-64.50
-52.55
-40.31
-29.32
-20.21
-12.85
-6.71
-1.37
3.25
7.00
9.79
11.76
13.32
14.85
16.40
17.64
17.91
16.62
13.51
8.83
3.18
-2.69
-8.33
-13.75
-19.52
-26.53
-35.61
-47.06
-60.30
-73.77
-85.23
-92.25
-92.98
-86.63
-73.73
-55.93
-35.52
-14.77
4.59
21.73
36.61
49.69
61.39
71.81
80.64
87.39
91.85
94.33
95.62
96.64
97.95
99.36
100.07
99.06
95.64
89.84
82.33
74.19
66.31
59.12
52.49
45.83
38.47
29.73
19.16
6.47
-8.20
-24.13
-39.83
-53.18
-61.88
-64.18
-59.61
-49.20
-35.04
-19.57
-4.70
8.65
20.51
31.34
41.45
50.68
58.53
64.45
68.19
69.93
70.15
69.37
67.91
65.89
63.25
59.93
55.90
51.24
45.96
40.05
33.49
26.24
18.40
10.15
1.77
-6.48
-14.42
-22.05
-29.63
-37.69
-46.92
-57.80
-70.25
-83.14
-94.46
-101.67
-102.66
-96.51
-83.92
-67.06
-48.69
-31.30
-16.34
-4.07
6.10
14.97
23.08
30.41
36.62
41.30
44.36
46.09
47.12
48.05
49.20
50.43
51.18
50.74
48.59
44.65
39.33
33.32
27.22
21.29
15.35
8.87
1.24
-7.96
-18.90
-31.39
-44.90
-58.47
-70.64
-79.60
-83.50
-81.12
-72.41
-58.62
-42.06
-25.26
-10.15
2.50
13.06
22.44
31.39
40.02
47.75
53.73
57.40
58.83
58.73
58.01
57.30
56.65
55.50
53.12
48.94
42.95
35.63
27.74
19.92
12.48
5.30
-1.93
-9.54
-17.78
-26.79
-36.71
-47.67
-59.63
-72.05
-83.64
-92.46
-96.42
-93.93
-84.64
-69.61
-51.05
-31.56
-13.33
2.38
15.37
26.10
35.24
43.22
50.14
55.88
60.37
63.67
65.97
67.49
68.31
68.37
67.62
66.14
64.23
62.27
60.46
58.63
56.17
52.26
46.19
37.75
27.34
15.87
4.41
-6.19
-15.62
-24.13
-32.51
-41.68
-52.39
-64.83
-78.36
-91.46
-102.04
-107.96
-107.67
-100.83
-88.40
-72.40
-55.15
-38.59
-23.74
-10.67
1.12
12.18
22.72
32.54
41.22
48.41
54.03
58.25
61.29
63.24
64.00
63.42
61.46
58.39
54.75
51.09
47.66
44.29
40.41
35.34
28.63
20.35
11.02
1.51
-7.32
-14.90
-21.12
-26.33
-31.28
-36.89
-43.99
-52.96
-63.55
-74.65
-84.53
-91.18
-92.90
-88.90
-79.52
-66.18
-50.87
-35.59
-21.76
-9.95
-0.00
8.62
16.43
23.61
30.02
35.34
39.36
42.09
43.86
45.06
46.00
46.73
47.04
46.57
45.00
42.13
37.97
32.66
26.47
19.69
12.65
5.64
-1.13
-7.59
-13.85
-20.17
-26.95
-34.61
-43.45
-53.33
-63.50
-72.59
-78.86
-80.73
-77.40
-69.19
-57.50
-44.27
-31.33
-19.78
-9.85
-1.16
6.78
14.20
20.88
26.40
30.39
32.84
34.12
34.75
35.14
35.38
35.16
34.00
31.50
27.50
22.20
16.08
9.65
3.30
-2.86
-8.99
-15.38
-22.35
-30.15
-38.91
-48.63
-59.06
-69.62
-79.29
-86.73
-90.54
-89.64
-83.75
-73.42
-59.92
-44.81
-29.51
-14.98
-1.76
9.93
19.99
28.27
34.68
39.21
42.11
43.93
45.33
46.95
49.06
51.50
53.58
54.43
53.21
49.51
43.48
35.77
27.26
18.79
10.87
3.65
-3.13
-9.98
-17.54
-26.44
-37.15
-49.70
-63.47
-77.02
-88.26
-94.92
-95.28
-88.83
-76.46
-60.23
-42.62
-25.75
-10.78
2.15
13.58
24.23
34.52
44.39
53.42
60.99
66.63
70.17
71.74
71.72
70.59
68.74
66.37
63.49
59.96
55.61
50.30
44.00
36.80
28.87
20.44
11.71
2.86
-5.99
-14.84
-23.82
-33.22
-43.42
-54.69
-66.82
-78.89
-89.17
-95.50
-95.94
-89.56
-76.83
-59.65
-40.63
-22.24
-6.08
7.45
18.77
28.63
37.54
45.55
52.44
57.97
62.12
65.05
67.00
68.06
68.14
67.05
64.76
61.44
57.49
53.25
48.87
44.15
38.66
31.96
23.90
14.72
5.01
-4.51
-13.27
-21.16
-28.64
-36.57
-45.92
-57.23
-70.18
-83.36
-94.53
-101.22
-101.57
-94.97
-82.31
-65.66
-47.60
-30.40
-15.47
-3.18
6.85
15.31
22.75
29.42
35.21
39.88
43.26
45.40
46.51
46.82
46.43
45.28
43.13
39.76
35.07
29.13
22.14
14.34
5.91
-3.01
-12.39
-22.24
-32.64
-43.69
-55.53
-68.29
-82.05
-96.85
-112.70
-129.44
-146.66
-163.53
-178.78
-190.98
-198.93
-202.22
-201.49
-198.21
-194.25
-191.12
-189.73
-190.53
-194.03
-201.01
-212.16
-227.23
-244.26
-259.67
-269.38
-270.49
-262.59
-247.90
-230.06
-212.38
-196.32
-181.29
-165.49
-147.21
-125.72
-101.34
-74.94
-47.44
-19.71
7.27
32.30
54.21
72.27
86.62
98.30
108.77
119.28
130.49
142.44
155.07
168.64
183.92
201.75
222.40
244.97
267.38
287.02
301.67
310.35
313.46
312.42
308.94
304.28
299.05
293.41
287.44
281.44
275.83
270.88
266.45
262.01
256.91
250.75
243.56
235.76
227.92
220.42
213.14
205.43
196.24
184.43
169.32
151.14
131.21
111.78
95.29
83.62
77.34
75.66
76.85
79.02
80.88
81.93
82.31
82.25
81.73
80.45
78.14
74.92
71.45
68.67
67.36
67.77
69.56
72.06
74.70
77.23
79.81
82.73
86.23
90.25
94.47
98.30
100.97
101.62
99.43
93.76
84.35
71.37
55.25
36.44
15.24
-8.04
-32.86
-58.15
-82.37
-103.85
-121.30
-134.17
-142.74
-147.84
-150.57
-152.15
-153.96
-157.70
-165.31
-178.58
-198.72
-225.87
-258.93
-295.75
-333.45
-368.81
-398.65
-420.19
-431.39
-431.27
-419.91
-398.36
-368.10
-330.62
-287.38
-240.15
-191.47
-144.79
-104.10
-72.91
-53.44
-46.16
-49.77
-61.38
-76.59
-90.03
-96.49
-92.58
-78.23
-56.86
-33.84
-13.75
1.88
15.05
29.62
48.62
72.34
98.33
123.20
144.67
162.60
178.25
192.83
206.19
217.05
223.95
226.36
225.12
221.74
217.61
212.93
206.87
197.89
184.78
167.24
146.05
122.87
99.57
77.64
57.70
39.30
21.15
1.58
-20.62
-45.50
-71.51
-95.90
-115.62
-128.61
-134.59
-135.00
-132.08
-127.51
-121.67
-113.58
-101.91
-86.07
-66.94
-46.61
-27.55
-11.56
0.74
9.77
16.33
20.97
23.66
24.07
22.06
18.08
13.17
8.52
4.94
2.47
0.51
-1.86
-5.33
-10.00
-15.32
-20.37
-24.19
-26.16
-26.23
-24.90
-23.15
-22.15
-23.02
-26.61
-33.27
-42.65
-53.69
-64.64
-73.36
-77.82
-76.60
-69.40
-57.13
-41.65
-25.12
-9.35
4.69
16.85
27.49
37.01
45.52
52.88
58.84
63.33
66.57
68.91
70.75
72.25
73.40
74.02
73.91
72.90
70.91
67.96
64.17
59.83
55.22
50.62
46.17
41.78
37.13
31.75
25.11
16.80
6.71
-4.75
-16.62
-27.40
-35.40
-39.13
-37.77
-31.36
-20.86
-7.74
6.47
20.57
33.89
46.18
57.38
67.42
76.11
83.21
88.58
92.23
94.40
95.46
95.75
95.52
94.79
93.35
90.80
86.66
80.61
72.65
63.32
53.49
44.19
36.11
29.39
23.46
17.42
10.34
1.63
-8.85
-20.93
-34.29
-48.53
-63.06
-76.96
-88.97
-97.73
-102.26
-102.29
-98.43
-91.96
-84.34
-76.80
-70.12
-64.53
-60.00
-56.42
-53.80
-52.29
-52.15
-53.60
-56.72
-61.38
-67.25
-73.91
-80.89
-87.84
-94.52
-100.88
-106.94
-112.80
-118.55
-124.21
-129.70
-134.82
-139.17
-142.02
-142.34
-138.96
-131.13
-119.13
-104.67
-90.66
-80.23
-75.59
-77.04
-82.96
-90.48
-96.66
-99.30
-97.28
-90.39
-78.90
-63.59
-45.81
-27.76
-12.23
-1.90
1.66
-1.29
-8.60
-16.90
-22.77
-23.81
-19.32
-10.17
1.87
15.17
28.95
43.44
59.37
77.28
96.80
116.62
134.75
149.13
158.13
160.77
156.93
147.52
134.50
120.77
109.59
103.59
103.79
109.08
116.61
122.89
125.24
122.86
117.00
110.30
105.71
105.36
109.95
118.80
130.52
143.77
157.55
171.05
183.10
191.73
194.39
188.92
174.70
153.40
128.71
105.09
86.24
73.87
67.56
65.32
64.65
63.36
60.02
54.09
46.04
37.40
30.66
28.71
34.12
48.19
70.57
99.28
131.24
163.18
192.44
217.46
237.86
254.13
267.06
277.13
284.12
287.13
284.93
276.62
262.00
241.79
217.28
189.91
160.89
131.09
101.25
72.12
44.59
19.33
-3.39
-24.02
-43.58
-63.41
-84.80
-108.64
-135.01
-163.04
-190.83
-215.70
-234.97
-246.78
-250.80
-248.31
-241.58
-232.90
-223.78
-214.59
-205.01
-194.61
-183.35
-171.63
-160.00
-148.83
-138.22
-128.12
-118.70
-110.34
-103.61
-98.97
-96.50
-95.83
-96.33
-97.32
-98.33
-99.19
-100.01
-101.00
-102.36
-104.15
-106.30
-108.70
-111.20
-113.80
-116.58
-119.76
-123.53
-127.97
-132.83
-137.48
-140.97
-142.30
-140.70
-135.94
-128.27
-118.34
-106.83
-94.30
-81.13
-67.56
-53.92
-40.61
-28.20
-17.28
-8.40
-1.93
2.00
3.48
2.88
0.75
-2.29
-5.65
-8.87
-11.62
-13.76
-15.26
-16.28
-17.12
-18.22
-20.03
-22.93
-27.13
-32.61
-39.08
-45.95
-52.26
-56.77
-58.22
-55.74
-49.21
-39.48
-28.06
-16.73
-6.85
1.01
7.10
12.21
17.08
22.04
26.84
30.91
33.61
34.59
33.84
31.55
27.96
23.23
17.49
11.09
4.78
-0.30
-2.90
-2.16
1.91
8.28
15.14
20.53
23.05
22.22
18.46
12.60
5.40
-2.74
-11.61
-20.76
-29.18
-35.33
-37.62
-35.15
-28.23
-18.39
-7.88
1.17
7.43
10.63
11.31
10.27
8.14
5.38
2.48
0.31
0.21
3.62
11.52
23.86
39.45
56.37
72.59
86.62
97.76
106.02
111.77
115.62
118.21
120.30
122.56
125.44
128.90
132.43
135.32
137.08
137.88
138.70
141.16
147.02
157.61
173.20
192.64
213.33
231.60
243.56
246.11
237.78
219.07
192.08
159.82
125.29
90.99
58.78
30.05
5.89
-13.03
-26.64
-35.77
-41.98
-47.10
-52.63
-59.21
-66.60
-74.05
-80.81
-86.59
-91.59
-96.29
-101.17
-106.53
-112.50
-119.24
-127.10
-136.50
-147.73
-160.52
-173.77
-185.71
-194.33
-198.15
-196.86
-191.57
-184.53
-178.36
-175.12
-175.52
-178.70
-182.50
-184.25
-181.60
-173.22
-159.11
-140.37
-118.82
-96.43
-74.78
-54.75
-36.51
-19.62
-3.22
13.57
31.24
49.35
66.19
78.98
84.68
81.24
68.54
48.76
25.59
2.94
-16.31
-30.93
-41.09
-47.51
-50.83
-51.27
-48.93
-44.10
-37.26
-28.71
-18.29
-5.21
11.31
31.34
53.75
76.26
96.24
111.68
121.83
127.18
128.85
127.87
124.94
120.42
114.60
107.77
100.07
91.31
81.01
68.92
55.28
40.98
27.11
14.34
2.30
-10.28
-25.07
-43.27
-64.96
-89.10
-114.11
-138.56
-161.55
-182.32
-199.20
-208.71
-205.47
-183.92
-141.28
-80.37
-10.56
54.49
101.45
122.34
117.34
94.01
63.46
35.54
15.60
3.90
-2.74
-8.41
-16.42
-28.75
-46.23
-68.72
-94.88
-121.72
-144.77
-158.90
-159.79
-145.09
-115.09
-72.02
-18.77
42.07
108.27
176.87
243.09
300.16
340.72
359.36
354.75
330.16
291.75
245.78
196.32
144.91
92.03
39.37
-8.98
-47.25
-70.34
-76.29
-67.49
-49.87
-30.52
-15.37
-7.66
-7.70
-14.10
-24.95
-38.84
-54.97
-72.72
-91.11
-108.50
-122.80
-132.06
-135.17
-132.29
-124.80
-114.87
-104.75
-96.21
-90.26
-86.99
-86.01
-86.74
-88.72
-91.60
-95.04
-98.41
-100.77
-101.06
-98.51
-93.02
-85.29
-76.46
-67.71
-59.73
-52.63
-46.16
-40.19
-35.01
-31.37
-30.18
-31.93
-36.39
-42.49
-48.74
-53.74
-56.66
-57.44
-56.64
-54.97
-52.91
-50.53
-47.58
-43.84
-39.53
-35.34
-32.25
-31.09
-32.09
-34.62
-37.42
-38.97
-38.06
-34.13
-27.45
-18.87
-9.45
-0.12
8.64
16.74
24.37
31.79
39.14
46.35
53.18
59.19
63.87
66.71
67.40
66.05
63.41
60.93
60.36
63.16
69.81
79.41
89.83
98.47
103.16
102.90
97.98
89.75
79.97
70.32
62.20
56.59
54.04
54.48
57.15
60.59
63.06
63.04
59.72
53.22
44.33
34.15
23.79
14.16
6.05
0.21
-2.81
-2.86
-0.43
3.38
7.15
9.69
10.53
10.07
9.35
9.51
11.25
14.60
19.02
23.70
27.88
31.04
32.87
33.22
32.03
29.38
25.57
21.06
16.40
11.93
7.72
3.47
-1.32
-7.27
-14.78
-23.86
-33.99
-44.05
-52.53
-57.88
-58.99
-55.49
-47.88
-37.34
-25.38
-13.30
-2.07
7.87
16.35
23.44
29.18
33.63
36.84
38.89
39.94
40.18
39.86
39.17
38.29
37.24
35.90
34.00
31.12
26.86
20.86
12.96
3.18
-8.17
-20.49
-32.68
-43.26
-50.55
-53.22
-50.72
-43.70
-33.86
-23.35
-14.06
-6.98
-2.07
1.41
4.28
6.94
9.30
10.97
11.59
11.13
9.87
8.23
6.49
4.73
2.79
0.46
-2.45
-5.96
-9.94
-14.22
-18.68
-23.35
-28.46
-34.31
-41.10
-48.65
-56.25
-62.63
-66.38
-66.38
-62.34
-54.85
-45.18
-34.64
-24.15
-13.91
-3.67
6.85
17.56
27.81
36.70
43.46
47.86
50.24
51.32
51.81
52.04
51.94
51.16
49.45
46.81
43.61
40.29
37.14
34.09
30.66
26.20
20.13
12.27
2.90
-7.12
-16.56
-23.99
-28.12
-28.18
-24.21
-17.03
-8.02
1.40
10.18
17.98
25.02
31.71
38.24
44.35
49.51
53.13
54.98
55.32
54.76
53.97
53.37
52.98
52.42
51.14
48.64
44.76
39.68
33.87
27.93
22.37
17.41
13.04
8.99
4.81
-0.02
-6.03
-13.62
-22.81
-33.04
-43.02
-50.96
-55.13
-54.35
-48.55
-38.73
-26.58
-13.91
-2.13
8.05
16.45
23.22
28.59
32.72
35.79
38.04
39.79
41.38
43.05
44.80
46.32
47.14
46.66
44.55
40.75
35.62
29.80
23.99
18.71
14.09
9.90
5.57
0.48
-5.87
-13.65
-22.67
-32.43
-42.30
-51.51
-59.19
-64.41
-66.30
-64.29
-58.42
-49.51
-38.93
-28.20
-18.52
-10.35
-3.45
2.72
8.67
14.47
19.86
24.40
27.82
30.14
31.60
32.48
32.98
33.14
32.81
31.88
30.24
27.89
24.91
21.44
17.64
13.65
9.58
5.47
1.31
-2.98
-7.54
-12.58
-18.32
-24.97
-32.56
-40.76
-48.78
-55.42
-59.32
-59.43
-55.36
-47.58
-37.33
-26.11
-15.27
-5.65
2.55
9.44
15.23
20.00
23.68
26.23
27.81
28.81
29.75
30.99
32.50
33.87
34.44
33.58
31.00
26.87
21.75
16.34
11.22
6.63
2.44
-1.81
-6.66
-12.59
-19.86
-28.36
-37.57
-46.46
-53.70
-57.87
-57.94
-53.71
-45.89
-35.99
-25.75
-16.53
-8.90
-2.62
3.01
8.58
14.22
19.54
23.90
26.87
28.49
29.24
29.80
30.65
31.82
32.87
33.18
32.15
29.59
25.70
20.95
15.83
10.70
5.59
0.41
-5.06
-11.01
-17.59
-24.96
-33.23
-42.29
-51.61
-60.13
-66.44
-69.17
-67.49
-61.53
-52.34
-41.45
-30.35
-20.03
-10.77
-2.41
5.34
12.58
19.17
24.84
29.36
32.72
35.06
36.59
37.46
37.65
37.04
35.43
32.70
28.89
24.27
19.25
14.28
9.71
5.65
1.96
-1.72
-5.86
-10.91
-17.18
-24.78
-33.48
-42.59
-51.02
-57.35
-60.22
-58.78
-52.93
-43.42
-31.58
-18.86
-6.42
5.09
15.41
24.49
32.29
38.69
43.65
47.30
50.01
52.25
54.42
56.67
58.89
60.75
61.89
62.02
61.02
58.87
55.62
51.25
45.71
38.90
30.73
21.21
10.43
-1.29
-13.33
-24.69
-34.07
-40.17
-42.09
-39.73
-33.91
-26.05
-17.76
-10.19
-3.77
1.72
6.75
11.63
16.29
20.30
23.16
24.64
24.92
24.50
23.98
23.68
23.47
22.81
20.97
17.41
12.07
5.45
-1.58
-8.21
-14.03
-19.20
-24.33
-30.13
-37.14
-45.52
-54.99
-64.83
-73.94
-81.02
-84.76
-84.31
-79.60
-71.44
-61.32
-50.91
-41.50
-33.69
-27.39
-22.14
-17.46
-13.09
-9.00
-5.26
-1.92
1.04
3.67
5.99
7.93
9.41
10.33
10.67
10.43
9.62
8.22
6.25
3.71
0.67
-2.76
-6.41
-10.19
-14.03
-17.97
-22.15
-26.75
-31.99
-37.99
-44.67
-51.53
-57.66
-61.87
-63.07
-60.58
-54.50
-45.66
-35.33
-24.79
-14.94
-6.13
1.72
8.82
15.34
21.21
26.28
30.48
33.88
36.77
39.41
41.98
44.38
46.33
47.48
47.50
46.23
43.68
39.97
35.29
29.93
24.15
18.25
12.42
6.74
1.17
-4.46
-10.34
-16.69
-23.66
-31.35
-39.66
-48.13
-55.92
-61.85
-64.73
-63.76
-58.86
-50.78
-40.85
-30.48
-20.74
-12.06
-4.34
2.74
9.38
15.48
20.66
24.57
27.09
28.47
29.26
29.98
30.92
32.02
32.90
33.12
32.37
30.58
27.89
24.58
20.88
16.95
12.85
8.63
4.31
-0.10
-4.69
-9.69
-15.47
-22.32
-30.23
-38.63
-46.36
-51.94
-53.99
-51.85
-45.80
-37.04
-27.18
-17.65
-9.27
-2.07
4.34
10.44
16.37
21.89
26.55
30.02
32.29
33.69
34.70
35.64
36.52
37.01
36.65
35.10
32.30
28.50
24.10
19.47
14.81
10.10
5.21
-0.01
-5.64
-11.76
-18.49
-26.00
-34.36
-43.32
-52.17
-59.70
-64.54
-65.57
-62.37
-55.38
-45.76
-34.94
-24.15
-14.06
-4.82
3.75
11.85
19.47
26.42
32.40
37.26
40.98
43.72
45.68
47.03
47.83
48.06
47.65
46.52
44.54
41.62
37.74
32.94
27.41
21.42
15.28
9.19
3.25
-2.61
-8.57
-14.89
-21.86
-29.65
-38.21
-47.05
-55.22
-61.39
-64.23
-62.83
-57.08
-47.80
-36.45
-24.62
-13.57
-3.93
4.36
11.72
18.60
25.22
31.49
37.10
41.68
44.99
46.99
47.89
48.00
47.67
47.13
46.44
45.51
44.13
42.07
39.15
35.31
30.59
25.17
19.35
13.42
7.68
2.25
-2.97
-8.31
-14.24
-21.11
-28.89
-36.98
-44.18
-49.00
-50.13
-46.84
-39.33
-28.68
-16.41
-4.05
7.35
17.37
26.10
33.82
40.70
46.66
51.44
54.73
56.37
56.43
55.09
52.55
48.89
44.01
37.81
30.23
21.42
11.68
1.39
-9.15
-19.80
-30.52
-41.32
-52.10
-62.60
-72.44
-81.18
-88.52
-94.36
-98.82
-102.16
-104.64
-106.48
-107.66
-108.00
-107.18
-104.74
-100.19
-93.04
-82.91
-69.72
-53.83
-36.15
-17.94
-0.54
15.10
28.68
40.56
51.44
61.93
72.18
81.85
90.38
97.31
102.56
106.40
109.20
111.18
112.27
112.23
110.93
108.45
105.18
101.61
97.99
94.10
89.18
82.23
72.48
59.86
45.21
30.11
16.42
5.62
-1.57
-5.32
-6.45
-6.10
-5.36
-5.04
-5.59
-7.08
-9.22
-11.54
-13.50
-14.76
-15.27
-15.30
-15.42
-16.30
-18.61
-22.81
-28.95
-36.51
-44.38
-51.08
-55.27
-56.26
-54.28
-50.36
-45.91
-42.11
-39.45
-37.65
-35.83
-32.96
-28.25
-21.42
-12.65
-2.50
8.34
19.18
29.44
38.56
45.98
51.15
53.69
53.49
50.93
46.84
42.34
38.63
36.59
36.55
38.17
40.45
42.00
41.43
37.69
30.37
19.81
7.02
-6.49
-19.09
-29.30
-36.17
-39.45
-39.72
-38.24
-36.60
-36.18
-37.75
-41.21
-45.72
-50.13
-53.42
-55.06
-55.08
-54.01
-52.54
-51.45
-51.36
-52.78
-56.05
-61.20
-67.93
-75.49
-82.87
-89.04
-93.25
-95.09
-94.62
-92.26
-88.59
-84.27
-79.81
-75.43
-71.05
-66.32
-60.82
-54.31
-46.81
-38.64
-30.27
-22.14
-14.63
-8.03
-2.71
0.88
2.31
1.35
-1.76
-6.24
-10.90
-14.52
-16.32
-16.32
-15.36
-14.82
-16.08
-19.96
-26.47
-34.86
-44.01
-52.77
-60.15
-65.35
-67.60
-66.19
-60.73
-51.40
-39.16
-25.59
-12.36
-0.70
9.07
17.45
25.36
33.49
41.80
49.50
55.49
59.00
60.12
59.90
59.84
61.30
64.67
69.35
73.96
77.05
77.64
75.45
70.64
63.49
54.14
42.69
29.67
16.25
4.26
-4.29
-7.90
-6.11
0.42
10.23
21.65
33.37
44.53
54.70
63.52
70.64
75.58
77.94
77.56
74.57
69.50
63.12
56.39
50.32
45.69
42.96
42.09
42.55
43.34
43.30
41.34
36.54
28.44
17.09
3.23
-11.68
-25.57
-36.16
-41.57
-40.88
-34.53
-24.09
-11.69
0.75
12.12
22.28
31.64
40.66
49.31
57.07
63.17
67.15
69.14
69.84
70.16
70.69
71.39
71.63
70.50
67.26
61.74
54.35
45.87
37.07
28.47
20.14
11.80
3.06
-6.43
-16.88
-28.30
-40.48
-52.82
-64.26
-73.30
-78.34
-78.17
-72.50
-62.19
-49.02
-35.05
-21.95
-10.47
-0.48
8.65
17.50
26.22
34.53
41.92
48.08
52.98
56.81
59.81
61.96
62.95
62.33
59.68
54.92
48.28
40.23
31.23
21.53
11.25
0.36
-11.03
-22.63
-33.98
-44.69
-54.63
-64.10
-73.78
-84.42
-96.47
-109.66
-122.92
-134.53
-142.72
-146.28
-145.02
-139.84
-132.31
-123.98
-115.86
-108.10
-100.24
-91.50
-81.28
-69.23
-55.24
-39.26
-21.19
-0.95
21.30
45.02
69.16
92.28
112.89
129.68
141.84
149.10
151.61
149.67
143.58
133.52
119.74
102.65
82.96
61.47
38.95
16.00
-6.88
-29.04
-49.43
-66.71
-79.64
-87.53
-90.59
-89.89
-86.85
-82.71
-78.14
-73.25
-67.93
-62.19
-56.37
-50.89
-45.88
-40.99
-35.40
-28.22
-18.98
-7.96
3.92
15.36
25.20
32.79
38.04
41.27
42.88
43.16
42.11
39.52
35.04
28.42
19.61
8.98
-2.68
-14.16
-24.13
-31.37
-35.17
-35.41
-32.53
-27.32
-20.65
-13.30
-5.91
1.04
7.19
12.28
16.07
18.36
18.93
17.65
14.62
10.37
5.94
2.58
1.42
2.91
6.70
11.71
16.65
20.47
22.72
23.47
23.07
21.85
19.94
17.25
13.62
8.91
3.04
-4.05
-12.31
-21.43
-30.63
-38.63
-43.79
-44.70
-40.63
-31.88
-19.71
-5.84
8.18
21.44
33.75
45.35
56.50
67.17
76.97
85.36
91.86
96.28
98.71
99.50
99.12
98.04
96.62
95.05
93.32
91.27
88.64
85.29
81.17
76.36
70.93
64.86
57.99
50.14
41.24
31.35
20.69
9.44
-2.43
-15.17
-29.10
-44.24
-60.08
-75.43
-88.70
-98.41
-103.72
-104.76
-102.57
-98.65
-94.49
-91.07
-88.80
-87.63
-87.26
-87.02
-85.71
-81.54
-72.50
-57.20
-35.67
-9.69
17.65
43.07
64.36
81.18
94.97
108.15
122.94
140.38
159.96
179.86
197.72
211.55
220.35
224.34
224.43
221.54
215.63
205.52
189.27
165.06
132.08
90.74
42.63
-9.68
-62.89
-113.20
-156.73
-190.44
-213.09
-225.84
-231.90
-235.28
-239.18
-244.87
-251.57
-257.31
-259.98
-258.06
-250.70
-237.68
-219.40
-197.09
-172.90
-149.48
-129.13
-112.90
-100.30
-89.82
-80.10
-71.14
-64.54
-62.75
-67.54
-78.66
-93.52
-108.06
-118.45
-122.50
-120.19
-112.88
-102.10
-88.43
-71.45
-50.60
-26.37
-0.87
22.52
40.47
51.10
54.73
53.74
51.58
51.62
56.14
65.92
80.24
97.38
115.33
132.58
148.76
164.67
181.76
201.16
222.89
245.56
266.70
283.73
294.86
299.50
298.22
292.23
283.01
272.12
261.16
251.84
245.73
243.99
247.17
255.14
267.18
282.07
298.15
313.27
325.01
331.03
329.73
320.73
305.06
284.76
262.10
238.81
215.63
192.43
168.63
143.81
118.00
91.66
65.34
39.20
12.71
-15.22
-45.65
-78.89
-114.01
-148.87
-180.78
-207.33
-227.18
-240.27
-247.64
-250.86
-251.49
-250.69
-249.09
-246.98
-244.44
-241.64
-238.97
-237.04
-236.48
-237.73
-240.73
-244.90
-249.34
-253.27
-256.37
-258.87
-261.38
-264.51
-268.59
-273.55
-279.01
-284.52
-289.69
-294.31
-298.41
-302.26
-306.32
-311.16
-317.23
-324.54
-332.43
-339.42
-343.44
-342.28
-334.18
-318.40
-295.45
-266.94
-235.08
-202.02
-169.31
-137.72
-107.37
-78.08
-49.66
-22.06
4.77
31.07
57.33
84.32
112.85
143.41
175.76
208.64
239.73
266.01
284.41
292.70
290.16
277.73
257.73
233.28
207.58
183.30
162.37
145.66
133.02
123.41
115.40
107.85
100.53
94.43
91.30
92.70
99.18
109.75
122.27
134.20
143.51
149.09
150.80
149.43
147.10
147.50
155.49
175.43
208.70
251.79
296.38
332.04
350.39
348.87
331.89
308.67
288.91
278.39
277.08
280.40
282.53
279.86
272.51
263.42
255.96
251.51
248.54
243.40
232.25
212.94
185.74
152.58
115.60
75.97
33.79
-11.05
-57.60
-103.32
-144.52
-177.61
-200.57
-213.85
-220.35
-224.25
-229.65
-239.16
-253.30
-270.71
-288.92
-305.58
-319.13
-329.04
-335.38
-338.23
-337.33
-332.30
-323.12
-310.29
-294.49
-275.70
-252.64
-223.20
-185.81
-141.00
-92.18
-44.96
-5.20
22.93
38.01
40.93
33.60
17.71
-5.52
-34.85
-68.24
-102.54
-133.86
-158.42
-173.39
-177.38
-170.75
-155.66
-135.87
-116.06
-100.55
-91.92
-89.92
-91.34
-91.05
-83.82
-66.08
-37.09
0.84
43.22
84.48
119.17
142.90
152.93
148.62
131.58
105.45
75.15
45.62
20.49
1.17
-13.18
-24.82
-36.05
-48.06
-60.38
-71.20
-78.22
-79.60
-74.54
-63.33
-47.15
-27.85
-7.58
11.45
27.25
38.44
44.42
45.48
42.56
36.90
29.61
21.39
12.46
2.75
-7.59
-17.70
-25.66
-28.70
-24.00
-9.91
13.13
42.39
73.74
103.23
128.54
149.60
168.16
186.34
205.35
224.73
242.43
255.66
261.80
258.99
246.52
224.90
195.95
162.77
129.29
99.46
76.16
60.41
51.24
46.32
43.14
39.93
36.11
32.09
28.76
26.91
27.09
29.66
34.89
42.96
53.71
66.42
79.74
91.99
101.52
107.29
109.00
107.24
103.15
98.13
93.49
90.20
88.75
89.21
91.30
94.48
98.14
101.73
104.94
107.85
110.98
115.07
120.75
128.14
136.64
144.99
151.60
155.10
154.76
150.62
143.35
133.89
123.14
111.72
100.06
88.49
77.36
67.03
57.75
49.55
42.14
34.92
27.24
18.59
8.72
-2.24
-13.89
-25.89
-38.03
-50.39
-63.34
-77.33
-92.90
-110.91
-132.51
-159.01
-191.14
-228.07
-266.93
-303.40
-333.17
-353.46
-363.67
-364.72
-357.76
-343.37
-321.74
-293.98
-263.01
-233.49
-210.19
-195.97
-190.48
-190.54
-192.01
-191.68
-188.41
-182.61
-175.04
-166.00
-155.58
-144.69
-135.91
-132.92
-138.59
-153.05
-172.63
-191.00
-201.68
-200.86
-188.59
-168.23
-144.29
-120.40
-98.37
-78.55
-61.02
-46.44
-35.93
-30.35
-29.68
-32.84
-38.20
-44.19
-49.64
-53.84
-56.49
-57.57
-57.26
-55.80
-53.34
-49.68
-44.24
-36.22
-25.10
-11.01
5.11
21.74
37.37
51.08
62.83
73.27
83.17
92.80
101.66
108.51
111.95
110.91
105.14
95.25
82.48
68.30
54.02
40.55
28.34
17.61
8.49
1.15
-4.12
-7.07
-7.57
-5.63
-1.38
5.03
13.43
23.54
34.85
46.62
58.01
68.33
77.19
84.51
90.38
94.77
97.51
98.37
97.25
94.37
90.25
85.51
80.64
75.77
70.68
64.99
58.38
50.83
42.66
34.39
26.62
19.70
13.73
8.50
3.63
-1.13
-5.83
-10.25
-14.02
-16.85
-18.60
-19.43
-19.63
-19.60
-19.75
-20.39
-21.65
-23.34
-24.94
-25.72
-25.08
-22.99
-20.17
-17.98
-17.84
-20.62
-26.11
-33.16
-40.18
-45.81
-49.42
-51.17
-51.71
-51.75
-51.83
-52.20
-52.98
-54.05
-55.02
-55.07
-53.26
-48.92
-42.13
-33.88
-25.60
-18.43
-12.54
-7.04
-0.52
8.01
18.38
29.16
38.34
44.21
46.04
44.22
39.81
34.10
28.27
23.37
20.45
20.32
23.23
28.44
34.13
37.81
37.01
30.11
16.73
-2.20
-24.91
-49.18
-72.65
-93.14
-108.78
-118.34
-121.46
-118.69
-111.21
-100.46
-87.70
-73.98
-60.15
-47.07
-35.60
-26.32
-19.26
-13.76
-8.70
-3.03
3.76
11.32
18.62
24.42
27.81
28.39
26.31
22.08
16.45
10.34
4.79
0.91
-0.36
1.45
6.17
13.03
20.93
28.82
36.06
42.45
48.19
53.49
58.45
62.94
66.71
69.58
71.51
72.68
73.34
73.64
73.58
72.91
71.25
68.24
63.64
57.40
49.66
40.61
30.47
19.45
7.90
-3.57
-14.02
-22.30
-27.31
-28.40
-25.61
-19.67
-11.74
-3.08
5.31
12.81
19.13
24.18
27.94
30.46
31.90
32.58
32.91
33.22
33.54
33.46
32.30
29.31
24.03
16.51
7.31
-2.66
-12.43
-21.22
-28.60
-34.58
-39.50
-43.89
-48.17
-52.35
-55.84
-57.59
-56.36
-51.34
-42.52
-30.81
-17.74
-4.84
6.78
16.72
25.06
32.04
37.79
42.18
45.08
46.51
46.88
46.86
47.12
48.05
49.50
50.95
51.68
51.19
49.36
46.50
43.19
39.96
37.05
34.31
31.27
27.28
21.82
14.64
5.93
-3.66
-13.04
-20.88
-25.95
-27.35
-24.81
-18.73
-10.05
-0.01
10.26
19.92
28.48
35.66
41.30
45.22
47.31
47.66
46.56
44.55
42.15
39.64
36.91
33.51
28.86
22.53
14.57
5.51
-3.85
-12.76
-20.97
-28.84
-37.31
-47.50
-60.24
-75.57
-92.53
-109.39
-124.07
-134.91
-141.24
-143.57
-143.35
-142.37
-142.06
-143.11
-145.35
-148.16
-151.07
-154.06
-157.55
-162.33
-169.25
-179.01
-191.77
-206.73
-221.67
-233.19
-237.42
-231.28
-213.67
-185.74
-150.15
-109.73
-66.37
-21.12
24.74
68.51
105.71
131.21
141.31
135.50
116.90
90.95
63.31
38.04
16.83
-0.57
-15.07
-27.31
-37.29
-44.65
-49.07
-50.40
-48.49
-42.99
-33.40
-19.49
-1.81
18.08
37.96
55.68
70.01
80.97
89.56
97.02
104.10
110.70
116.13
119.69
121.16
120.99
120.04
119.04
118.08
116.46
112.83
105.78
94.34
78.38
58.65
36.59
14.18
-6.33
-22.59
-32.49
-34.62
-28.69
-15.78
1.92
21.67
40.97
58.24
73.00
85.63
96.93
107.66
118.29
128.93
139.44
149.46
158.61
166.51
172.92
177.84
181.49
184.20
186.38
188.26
189.75
190.48
189.90
187.56
183.32
177.47
170.65
163.66
157.16
151.50
146.60
141.87
136.37
128.96
118.75
105.45
89.77
73.26
58.02
45.93
38.04
34.32
33.83
35.22
37.35
39.61
41.86
44.13
46.32
48.03
48.73
48.02
45.84
42.54
38.75
34.99
31.54
28.25
24.68
20.31
14.86
8.40
1.38
-5.68
-12.49
-19.19
-26.35
-34.62
-44.36
-55.39
-66.94
-78.01
-87.80
-96.02
-102.97
-109.26
-115.58
-122.43
-130.12
-138.80
-148.43
-158.61
-168.39
-176.28
-180.50
-179.48
-172.53
-160.04
-143.45
-124.83
-106.16
-88.95
-73.94
-61.26
-50.72
-42.03
-34.95
-29.22
-24.51
-20.37
-16.38
-12.26
-7.98
-3.66
0.57
4.78
9.33
14.66
21.14
28.68
36.65
43.92
49.16
51.22
49.45
43.85
35.01
23.86
11.31
-1.97
-15.76
-30.17
-45.60
-62.45
-80.99
-101.03
-121.73
-141.55
-158.45
-170.49
-176.43
-176.27
-171.34
-163.89
-156.32
-150.40
-146.77
-144.94
-143.72
-141.83
-138.48
-133.59
-127.78
-122.08
-117.53
-114.76
-113.59
-112.89
-110.66
-104.54
-92.73
-74.92
-52.92
-30.38
-11.73
-0.76
0.83
-6.28
-19.46
-35.17
-50.01
-61.48
-68.30
-70.27
-68.16
-63.55
-58.63
-55.59
-55.79
-58.88
-62.41
-62.33
-54.28
-35.01
-3.38
39.65
91.86
150.95
214.92
281.68
348.00
408.96
458.50
491.15
504.28
499.35
481.40
456.90
431.42
407.93
386.54
365.57
343.10
318.01
290.24
260.52
229.82
199.00
168.56
138.69
109.27
80.06
50.91
22.00
-6.11
-32.59
-56.56
-77.42
-94.91
-109.02
-119.72
-126.85
-130.16
-129.60
-125.57
-119.00
-111.23
-103.55
-96.83
-91.33
-86.77
-82.67
-78.73
-75.05
-72.03
-70.06
-69.23
-69.12
-68.93
-67.84
-65.40
-61.78
-57.71
-54.17
-51.95
-51.28
-51.74
-52.50
-52.55
-51.19
-48.28
-44.21
-39.93
-36.72
-35.76
-37.50
-41.06
-44.13
-43.61
-37.02
-23.82
-6.11
11.96
25.86
32.54
31.52
24.83
15.82
7.69
2.64
1.59
4.60
11.20
20.44
30.78
40.14
46.29
47.68
44.06
36.65
27.82
20.17
15.35
13.51
13.11
11.63
6.69
-2.89
-16.63
-32.60
-48.31
-61.71
-71.84
-78.86
-83.66
-87.26
-90.49
-93.89
-97.73
-102.10
-106.72
-110.83
-113.24
-112.67
-108.24
-99.87
-88.47
-75.52
-62.62
-50.97
-41.13
-33.01
-26.22
-20.33
-15.11
-10.54
-6.70
-3.60
-1.06
1.28
3.78
6.60
9.56
12.15
13.67
13.62
11.86
8.69
4.65
0.19
-4.52
-9.61
-15.33
-21.88
-29.28
-37.44
-46.24
-55.39
-64.33
-72.11
-77.58
-79.73
-78.20
-73.36
-66.10
-57.40
-47.82
-37.47
-26.23
-14.08
-1.39
11.18
22.88
33.14
41.64
48.28
53.05
55.96
57.13
56.80
55.33
53.09
50.39
47.39
44.15
40.68
36.90
32.67
27.72
21.72
14.45
5.97
-3.24
-12.47
-21.01
-28.59
-35.51
-42.51
-50.29
-58.88
-67.41
-74.26
-77.67
-76.53
-70.79
-61.43
-50.02
-38.08
-26.60
-15.89
-5.76
4.10
13.90
23.57
32.90
41.61
49.46
56.33
62.15
66.87
70.40
72.62
73.40
72.64
70.37
66.67
61.76
55.87
49.21
41.97
34.27
26.21
17.81
9.12
0.21
-8.80
-17.80
-26.69
-35.42
-43.85
-51.67
-58.21
-62.54
-63.67
-60.97
-54.46
-44.98
-33.88
-22.57
-12.05
-2.65
5.86
13.92
21.77
29.26
35.96
41.47
45.68
48.83
51.42
53.83
56.06
57.74
58.24
57.05
54.00
49.38
43.79
37.88
32.12
26.62
21.20
15.54
9.35
2.44
-5.21
-13.40
-21.73
-29.52
-35.89
-39.92
-40.92
-38.65
-33.42
-26.01
-17.36
-8.32
0.57
9.06
17.04
24.38
30.87
36.19
40.16
42.74
44.14
44.71
44.79
44.62
44.28
43.67
42.65
41.03
38.65
35.42
31.32
26.40
20.79
14.72
8.42
2.17
-3.87
-9.61
-15.07
-20.34
-25.64
-31.21
-37.32
-44.11
-51.37
-58.53
-64.56
-68.31
-68.79
-65.63
-59.13
-50.26
-40.27
-30.32
-21.22
-13.34
-6.70
-1.14
3.52
7.48
10.88
13.83
16.38
18.56
20.38
21.85
22.98
23.73
24.03
23.75
22.85
21.32
19.27
16.82
14.01
10.77
6.89
2.21
-3.27
-9.34
-15.64
-21.83
-27.74
-33.52
-39.48
-45.88
-52.61
-58.94
-63.62
-65.21
-62.63
-55.66
-45.08
-32.44
-19.53
-7.72
2.36
10.80
18.06
24.52
30.26
35.10
38.85
41.51
43.36
44.78
46.07
47.28
48.15
48.33
47.51
45.56
42.65
39.10
35.30
31.54
27.93
24.38
20.73
16.80
12.56
8.01
3.25
-1.71
-6.90
-12.31
-17.81
-23.00
-27.32
-30.14
-30.99
-29.78
-26.75
-22.39
-17.23
-11.79
-6.42
-1.39
3.09
6.82
9.69
11.68
12.94
13.73
14.29
14.77
15.20
15.43
15.30
14.66
13.47
11.83
9.88
7.81
5.71
3.60
1.33
-1.32
-4.63
-8.76
-13.70
-19.16
-24.64
-29.47
-32.96
-34.60
-34.20
-31.90
-28.17
-23.60
-18.77
-14.07
-9.68
-5.61
-1.78
1.83
5.10
7.79
9.66
10.55
10.57
10.01
9.26
8.66
8.32
8.04
7.47
6.24
4.15
1.26
-2.14
-5.75
-9.32
-12.83
-16.44
-20.39
-24.89
-30.07
-35.86
-41.98
-47.98
-53.23
-57.07
-58.93
-58.52
-55.87
-51.37
-45.59
-39.10
-32.35
-25.54
-18.77
-12.12
-5.81
-0.09
4.77
8.71
11.90
14.63
17.18
19.59
21.61
22.85
22.91
21.73
19.59
17.05
14.75
13.17
12.46
12.40
12.60
12.51
11.64
9.56
5.98
0.82
-5.69
-12.99
-20.19
-26.26
-30.28
-31.73
-30.61
-27.39
-22.84
-17.70
-12.49
-7.45
-2.66
1.85
5.97
9.51
12.33
14.39
15.86
17.02
18.24
19.73
21.50
23.36
25.04
26.24
26.84
26.89
26.53
25.89
24.99
23.68
21.73
18.89
15.05
10.28
4.81
-1.00
-6.80
-12.20
-16.86
-20.41
-22.54
-22.99
-21.73
-18.96
-15.06
-10.52
-5.74
-0.95
3.77
8.45
13.04
17.37
21.24
24.46
26.97
28.86
30.25
31.27
31.95
32.25
32.10
31.45
30.30
28.68
26.64
24.24
21.50
18.46
15.13
11.54
7.75
3.77
-0.38
-4.75
-9.40
-14.35
-19.50
-24.50
-28.86
-31.96
-33.35
-32.86
-30.69
-27.35
-23.43
-19.40
-15.48
-11.70
-7.93
-4.11
-0.30
3.32
6.57
9.34
11.59
13.38
14.75
15.68
16.06
15.82
14.95
13.62
12.02
10.40
8.92
7.58
6.30
4.97
3.51
1.96
0.38
-1.11
-2.50
-3.85
-5.37
-7.33
-10.02
-13.71
-18.47
-24.14
-30.15
-35.66
-39.68
-41.39
-40.40
-36.91
-31.60
-25.33
-18.89
-12.73
-6.97
-1.49
3.94
9.43
14.92
20.19
24.92
28.83
31.83
34.06
35.87
37.64
39.55
41.52
43.15
44.00
43.73
42.34
40.08
37.33
34.45
31.66
28.95
26.23
23.31
20.03
16.33
12.31
8.33
4.87
2.35
0.94
0.53
0.84
1.66
3.05
5.24
8.48
12.77
17.70
22.53
26.46
28.85
29.42
28.24
25.61
21.93
17.60
12.98
8.35
3.90
-0.27
-4.13
-7.60
-10.55
-12.81
-14.24
-14.77
-14.48
-13.63
-12.64
-12.03
-12.24
-13.56
-16.00
-19.25
-22.74
-25.74
-27.53
-27.48
-25.13
-20.28
-13.01
-3.83
6.45
16.72
25.87
32.93
37.32
38.89
37.94
35.04
30.88
26.13
21.27
16.58
12.14
7.92
3.83
-0.18
-4.05
-7.61
-10.68
-13.09
-14.82
-16.09
-17.28
-18.79
-20.90
-23.64
-26.71
-29.73
-32.44
-34.88
-37.50
-40.90
-45.45
-51.03
-56.86
-61.61
-63.92
-62.63
-57.08
-47.35
-34.31
-19.68
-5.79
5.04
11.25
12.73
10.82
7.80
5.82
6.04
8.35
11.66
14.73
16.80
17.75
17.96
17.81
17.41
16.65
15.42
13.77
11.92
10.18
8.75
7.67
6.77
5.68
4.05
1.60
-1.75
-5.86
-10.44
-15.10
-19.49
-23.27
-26.12
-27.77
-28.04
-26.90
-24.58
-21.39
-17.74
-13.94
-10.11
-6.27
-2.34
1.70
5.74
9.54
12.82
15.33
16.93
17.66
17.76
17.49
17.13
16.84
16.66
16.53
16.34
15.98
15.43
14.71
13.76
12.44
10.48
7.60
3.55
-1.69
-8.01
-15.08
-22.45
-29.47
-35.28
-38.93
-39.60
-36.90
-31.08
-23.07
-14.13
-5.37
2.65
9.95
16.85
23.67
30.40
36.80
42.60
47.70
52.11
55.89
58.83
60.43
60.13
57.55
52.90
47.00
41.09
36.37
33.67
33.05
33.82
34.74
34.37
31.51
25.68
17.24
7.14
-3.41
-13.41
-22.32
-29.97
-36.37
-41.43
-45.01
-47.09
-48.05
-48.75
-50.26
-53.15
-56.78
-59.27
-58.12
-51.56
-39.60
-24.50
-9.77
1.22
6.81
7.55
5.64
3.50
2.64
3.15
4.21
4.96
5.15
5.14
5.39
5.83
5.76
4.20
0.46
-5.38
-12.33
-18.96
-23.93
-26.71
-27.86
-28.86
-31.49
-37.15
-46.19
-57.70
-69.84
-80.57
-88.41
-93.02
-95.13
-96.07
-97.06
-98.74
-100.97
-103.23
-105.10
-106.67
-108.65
-111.93
-117.15
-124.20
-132.19
-139.65
-145.10
-147.51
-146.59
-142.74
-136.71
-129.18
-120.49
-110.67
-99.70
-87.89
-76.15
-65.95
-58.85
-56.00
-57.65
-62.97
-70.10
-76.63
-79.82
-77.13
-66.60
-47.48
-20.70
10.78
42.27
68.43
85.11
91.06
88.70
83.35
81.00
85.80
98.41
116.16
134.78
150.68
162.51
171.03
177.89
183.80
187.81
187.74
181.61
169.05
151.69
132.49
114.31
98.74
85.71
73.75
61.16
46.82
30.79
14.07
-1.82
-15.47
-25.92
-32.76
-36.02
-35.98
-33.02
-27.59
-20.19
-11.35
-1.66
8.31
18.00
26.87
34.50
40.65
45.31
48.76
51.49
53.98
56.59
59.32
61.90
63.80
64.58
64.01
62.16
59.33
55.84
51.91
47.52
42.55
36.86
30.44
23.44
16.07
8.54
0.95
-6.63
-14.06
-20.86
-26.16
-28.82
-27.80
-22.63
-13.67
-2.07
10.65
23.17
34.78
45.54
55.98
66.71
78.00
89.56
100.71
110.41
117.56
121.16
120.61
115.86
107.56
97.02
86.02
76.54
70.13
67.43
67.77
69.36
69.84
67.24
60.72
50.90
39.40
28.15
18.48
10.90
5.18
0.91
-2.22
-4.23
-5.20
-5.49
-5.80
-6.82
-8.89
-11.84
-15.06
-17.79
-19.52
-20.18
-20.13
-19.93
-20.13
-21.07
-22.81
-25.17
-27.82
-30.41
-32.65
-34.36
-35.56
-36.34
-36.93
-37.54
-38.26
-39.12
-40.08
-41.12
-42.32
-43.83
-45.83
-48.43
-51.60
-55.14
-58.72
-61.93
-64.47
-66.08
-66.74
-66.47
-65.42
-63.67
-61.26
-58.19
-54.48
-50.27
-45.85
-41.64
-38.04
-35.30
-33.44
-32.20
-31.17
-29.88
-28.01
-25.42
-22.17
-18.47
-14.71
-11.42
-9.19
-8.58
-9.86
-12.89
-17.12
-21.73
-25.97
-29.38
-31.90
-33.75
-35.16
-36.19
-36.69
-36.39
-35.05
-32.62
-29.24
-25.19
-20.74
-16.13
-11.52
-6.98
-2.58
1.61
5.45
8.77
11.50
13.69
15.59
17.50
19.67
22.11
24.55
26.56
27.70
27.71
26.63
24.78
22.61
20.53
18.83
17.54
16.50
15.42
13.91
11.66
8.44
4.25
-0.67
-5.88
-10.75
-14.71
-17.38
-18.63
-18.63
-17.68
-16.13
-14.29
-12.34
-10.48
-8.79
-7.31
-5.91
-4.36
-2.39
0.14
3.21
6.60
9.99
13.12
15.83
18.11
20.01
21.58
22.80
23.55
23.57
22.50
19.93
15.54
9.31
1.62
-6.71
-14.56
-20.87
-24.92
-26.52
-26.06
-24.33
-22.26
-20.62
-19.93
-20.35
-21.75
-23.82
-26.17
-28.39
-30.20
-31.50
-32.42
-33.32
-34.61
-36.68
-39.66
-43.32
-47.20
-50.72
-53.45
-55.39
-56.92
-58.68
-61.31
-65.17
-70.16
-75.70
-80.84
-84.42
-85.36
-82.94
-76.91
-67.64
-55.93
-42.87
-29.45
-16.48
-4.47
6.25
15.42
22.88
28.64
32.97
36.35
39.29
42.05
44.47
46.09
46.43
45.28
42.89
39.83
36.66
33.61
30.49
26.77
21.86
15.39
7.37
-1.72
-10.98
-19.15
-24.94
-27.21
-25.45
-19.89
-11.46
-1.46
8.94
19.08
28.78
38.13
47.07
55.24
61.99
66.78
69.49
70.57
70.78
70.89
71.19
71.41
70.87
68.83
64.93
59.40
52.88
46.20
39.95
34.34
29.15
23.92
18.17
11.52
3.66
-5.60
-16.22
-27.69
-38.92
-48.28
-54.02
-54.87
-50.63
-42.21
-31.34
-19.90
-9.24
0.16
8.48
16.16
23.46
30.26
36.11
40.58
43.49
45.01
45.59
45.70
45.65
45.48
45.01
43.97
42.14
39.45
35.97
31.84
27.16
22.02
16.49
10.66
4.70
-1.22
-7.02
-12.76
-18.75
-25.44
-33.23
-42.14
-51.50
-59.95
-65.65
-66.93
-62.91
-53.94
-41.50
-27.69
-14.42
-2.90
6.62
14.55
21.43
27.60
32.99
37.40
40.64
42.79
44.12
44.96
45.48
45.65
45.25
44.07
41.98
39.02
35.38
31.22
26.71
21.86
16.66
11.08
5.14
-1.02
-7.28
-13.58
-20.04
-27.02
-34.86
-43.62
-52.71
-60.88
-66.42
-67.77
-64.08
-55.68
-43.88
-30.54
-17.37
-5.46
4.80
13.44
20.54
26.06
29.87
32.04
32.97
33.39
34.03
35.27
36.90
38.17
38.18
36.25
32.29
26.80
20.69
14.85
9.77
5.42
1.26
-3.46
-9.41
-16.96
-26.01
-35.90
-45.54
-53.46
-58.22
-58.74
-54.68
-46.58
-35.68
-23.53
-11.46
-0.36
9.46
17.95
25.08
30.64
34.38
36.21
36.41
35.64
34.72
34.27
34.45
34.88
34.81
33.53
30.64
26.24
20.83
15.05
9.36
3.94
-1.40
-6.99
-13.21
-20.38
-28.69
-38.10
-48.26
-58.29
-66.82
-72.26
-73.26
-69.22
-60.51
-48.44
-34.78
-21.12
-8.49
2.73
12.64
21.40
29.01
35.24
39.82
42.64
43.92
44.14
43.87
43.57
43.32
42.86
41.67
39.28
35.49
30.47
24.74
18.86
13.25
7.95
2.70
-2.97
-9.39
-16.77
-25.15
-34.46
-44.52
-54.84
-64.44
-71.88
-75.55
-74.24
-67.65
-56.58
-42.74
-28.11
-14.29
-2.09
8.45
17.70
26.02
33.41
39.58
44.17
47.05
48.43
48.88
48.97
49.11
49.29
49.17
48.23
46.07
42.58
37.96
32.62
27.00
21.37
15.85
10.38
4.81
-0.97
-7.05
-13.55
-20.64
-28.55
-37.42
-47.03
-56.57
-64.59
-69.35
-69.35
-63.99
-53.80
-40.39
-25.84
-12.00
0.00
9.90
18.06
25.02
31.11
36.39
40.67
43.82
45.83
46.89
47.22
46.98
46.19
44.83
42.89
40.44
37.63
34.54
31.12
27.21
22.65
17.42
11.68
5.71
-0.23
-6.05
-11.87
-17.99
-24.71
-32.31
-40.90
-50.21
-59.51
-67.55
-72.77
-73.77
-69.84
-61.36
-49.70
-36.79
-24.38
-13.50
-4.39
3.23
9.69
15.00
18.94
21.35
22.39
22.65
22.88
23.64
24.95
26.29
26.90
26.12
23.75
20.07
15.67
11.15
6.86
2.76
-1.47
-6.27
-12.07
-19.13
-27.48
-36.84
-46.51
-55.32
-61.85
-64.73
-63.10
-56.94
-47.13
-35.13
-22.51
-10.50
0.23
9.52
17.46
24.10
29.38
33.18
35.52
36.68
37.15
37.44
37.81
38.14
37.95
36.65
33.85
29.58
24.30
18.65
13.18
8.04
2.94
-2.67
-9.38
-17.53
-27.14
-37.74
-48.41
-57.84
-64.59
-67.40
-65.62
-59.50
-50.09
-38.86
-27.16
-15.78
-4.91
5.61
15.85
25.44
33.64
39.69
43.18
44.38
44.09
43.28
42.68
42.47
42.28
41.47
39.50
36.22
31.85
26.89
21.75
16.60
11.31
5.55
-1.00
-8.52
-17.08
-26.65
-37.09
-48.01
-58.54
-67.29
-72.58
-72.99
-67.89
-57.84
-44.44
-29.82
-15.85
-3.68
6.51
15.11
22.70
29.59
35.69
40.66
44.20
46.28
47.18
47.39
47.39
47.40
47.28
46.56
44.66
41.15
35.93
29.33
21.91
14.25
6.72
-0.63
-8.00
-15.70
-24.04
-33.26
-43.57
-55.08
-67.59
-80.45
-92.36
-101.62
-106.52
-105.98
-99.94
-89.39
-75.95
-61.30
-46.72
-32.96
-20.36
-9.10
0.63
8.72
15.26
20.61
25.28
29.63
33.58
36.58
37.78
36.42
32.30
25.82
17.96
9.85
2.40
-3.98
-9.53
-14.87
-20.82
-28.15
-37.30
-48.24
-60.31
-72.16
-81.97
-87.85
-88.46
-83.49
-73.83
-61.19
-47.38
-33.65
-20.32
-7.00
6.78
20.98
34.78
46.88
56.13
62.06
65.13
66.45
67.17
68.00
68.87
69.17
68.11
65.21
60.56
54.66
48.19
41.67
35.23
28.61
21.34
12.88
2.85
-8.90
-22.25
-36.66
-51.08
-63.98
-73.57
-78.33
-77.51
-71.56
-61.98
-50.84
-40.04
-30.67
-22.86
-16.03
-9.40
-2.54
4.46
11.19
17.21
22.42
27.11
31.75
36.66
41.70
46.18
49.13
49.67
47.39
42.64
36.34
29.63
23.40
17.95
12.94
7.65
1.24
-6.88
-17.00
-29.00
-42.41
-56.21
-68.78
-78.07
-81.94
-78.93
-68.86
-53.03
-33.89
-14.24
3.78
19.08
31.72
42.35
51.53
59.41
65.76
70.35
73.21
74.84
75.90
76.90
77.86
78.26
77.31
74.35
69.14
62.03
53.82
45.41
37.44
30.06
22.88
15.24
6.45
-3.88
-15.75
-28.74
-42.05
-54.51
-64.72
-71.15
-72.52
-68.17
-58.32
-44.12
-27.33
-9.81
6.89
21.78
34.34
44.25
51.34
55.57
57.22
56.95
55.78
54.69
54.26
54.43
54.56
53.66
50.98
46.25
39.85
32.58
25.21
18.13
11.18
3.69
-5.19
-16.15
-29.37
-44.24
-59.34
-72.65
-81.92
-85.35
-82.09
-72.60
-58.49
-41.98
-25.18
-9.47
4.60
17.13
28.32
38.08
46.01
51.64
54.86
56.12
56.38
56.65
57.48
58.66
59.30
58.31
54.92
49.09
41.53
33.30
25.34
18.00
10.96
3.46
-5.32
-16.00
-28.77
-43.24
-58.49
-72.96
-84.66
-91.50
-91.94
-85.54
-73.28
-57.20
-39.79
-23.07
-8.10
5.10
16.99
27.96
37.91
46.30
52.50
56.28
57.98
58.40
58.41
58.54
58.73
58.37
56.68
53.05
47.40
40.18
32.19
24.19
16.62
9.45
2.26
-5.48
-14.24
-24.32
-35.79
-48.46
-61.76
-74.59
-85.25
-91.77
-92.46
-86.55
-74.60
-58.40
-40.31
-22.49
-6.27
7.98
20.53
31.70
41.52
49.71
56.00
60.44
63.51
65.96
68.32
70.65
72.45
72.95
71.54
68.12
63.17
57.53
51.93
46.67
41.47
35.63
28.45
19.61
9.36
-1.57
-12.30
-22.25
-31.38
-40.31
-50.15
-61.97
-76.44
-93.30
-111.21
-127.87
-140.43
-146.07
-142.68
-129.35
-106.71
-76.87
-42.92
-8.31
23.91
51.61
73.74
90.14
101.13
107.15
108.55
105.64
98.84
88.72
75.90
60.93
44.21
26.08
6.98
-12.40
-31.13
-48.28
-63.23
-75.89
-86.82
-97.02
-107.69
-119.77
-133.67
-148.97
-164.49
-178.54
-189.53
-196.48
-199.41
-199.32
-197.83
-196.61
-196.86
-199.03
-202.79
-207.18
-210.87
-212.51
-211.11
-206.45
-199.23
-190.84
-182.69
-175.39
-168.15
-159.00
-145.64
-126.59
-101.96
-73.57
-44.01
-15.47
11.21
36.64
62.22
88.86
116.09
141.81
162.86
176.05
179.18
171.61
154.34
129.62
100.65
71.15
45.11
26.32
17.74
20.68
34.25
55.51
80.15
103.81
123.26
137.11
145.77
150.79
153.97
156.63
159.45
162.47
165.37
167.76
169.23
169.39
168.03
165.17
161.11
156.34
151.17
145.55
138.74
129.47
116.29
98.11
74.75
47.27
18.09
-9.43
-31.66
-45.68
-50.15
-45.73
-34.91
-21.05
-7.39
3.95
12.21
17.78
21.58
24.43
26.68
28.18
28.45
26.95
23.42
17.97
11.20
4.02
-2.58
-7.83
-11.40
-13.34
-13.95
-13.49
-12.11
-9.89
-7.00
-3.83
-0.83
1.61
3.42
4.81
6.14
7.66
9.29
10.62
11.10
10.27
7.90
4.10
-0.77
-6.18
-11.43
-15.71
-18.11
-17.87
-14.63
-8.64
-0.77
7.70
15.51
21.77
26.12
28.61
29.50
29.04
27.44
24.93
21.87
18.77
16.11
14.22
13.02
12.02
10.41
7.32
2.20
-5.03
-13.77
-22.99
-31.46
-38.17
-42.60
-44.73
-44.95
-43.78
-41.76
-39.40
-37.18
-35.50
-34.54
-34.03
-33.24
-31.20
-27.09
-20.64
-12.31
-3.12
5.81
13.68
20.24
25.72
30.58
35.19
39.71
44.02
47.89
51.05
53.35
54.70
55.12
54.73
53.65
52.06
50.07
47.73
45.03
41.95
38.48
34.64
30.40
25.63
20.05
13.25
4.92
-5.03
-16.37
-28.56
-40.86
-52.36
-62.11
-69.11
-72.55
-71.93
-67.39
-59.71
-50.22
-40.40
-31.41
-23.80
-17.46
-11.80
-6.09
0.23
7.34
15.01
22.75
29.88
35.80
40.14
42.77
43.85
43.72
42.77
41.38
39.88
38.49
37.30
36.21
34.91
32.95
29.95
25.71
20.34
14.18
7.68
1.33
-4.40
-9.09
-12.30
-13.67
-12.99
-10.34
-6.09
-0.78
5.03
10.96
16.77
22.38
27.65
32.41
36.45
39.60
41.82
43.15
43.53
42.75
40.42
36.15
29.83
21.86
13.18
4.98
-1.67
-6.21
-8.74
-9.82
-10.28
-10.87
-12.11
-14.30
-17.51
-21.57
-26.07
-30.24
-33.10
-33.69
-31.36
-26.04
-18.29
-9.09
0.37
9.11
16.42
21.99
25.78
28.04
29.20
29.86
30.62
31.88
33.68
35.54
36.69
36.29
33.75
28.93
22.22
14.30
5.92
-2.24
-9.78
-16.54
-22.60
-28.15
-33.38
-38.32
-42.78
-46.33
-48.48
-48.84
-47.34
-44.24
-40.13
-35.65
-31.41
-27.83
-25.09
-23.20
-22.06
-21.45
-21.10
-20.67
-19.80
-18.17
-15.54
-11.89
-7.42
-2.63
1.82
5.23
7.16
7.51
6.68
5.29
3.94
2.92
2.11
1.20
0.00
-1.22
-1.74
-0.63
2.80
8.62
16.23
24.52
32.35
38.87
43.69
46.78
48.26
48.30
47.07
44.86
42.08
39.23
36.67
34.42
32.13
29.24
25.26
20.06
13.91
7.31
0.78
-5.44
-11.42
-17.43
-23.73
-30.36
-37.02
-43.05
-47.59
-49.82
-49.24
-45.84
-40.20
-33.29
-26.15
-19.56
-13.83
-8.80
-4.06
0.74
5.66
10.42
14.44
17.04
17.63
15.87
11.77
5.68
-1.76
-9.79
-17.58
-24.45
-29.93
-33.93
-36.74
-39.00
-41.58
-45.27
-50.43
-56.81
-63.39
-68.59
-70.77
-68.71
-62.09
-51.60
-38.63
-24.69
-11.03
1.57
12.59
21.41
27.22
29.16
26.82
20.63
11.99
2.84
-5.00
-10.52
-13.77
-15.65
-17.45
-20.36
-25.21
-32.36
-41.83
-53.36
-66.42
-80.24
-93.88
-106.34
-116.77
-124.49
-129.10
-130.41
-128.36
-123.17
-115.28
-105.46
-94.60
-83.50
-72.52
-61.47
-49.65
-36.17
-20.37
-2.13
17.97
38.74
58.74
76.64
91.47
102.80
110.67
115.46
117.67
117.86
116.58
114.39
111.80
109.28
107.17
105.62
104.67
104.29
104.46
105.16
106.34
107.86
109.43
110.68
111.20
110.63
108.75
105.52
101.11
95.85
90.18
84.53
79.25
74.48
70.18
66.15
62.17
58.14
54.08
50.20
46.76
43.98
41.97
40.61
39.61
38.56
37.02
34.64
31.17
26.51
20.70
13.91
6.38
-1.50
-9.27
-16.33
-22.20
-26.67
-30.19
-33.83
-39.10
-47.17
-58.12
-70.46
-81.26
-87.11
-85.35
-75.20
-57.84
-35.60
-11.16
13.21
35.50
53.64
65.34
68.86
64.26
54.24
43.56
36.93
36.55
40.68
44.49
42.74
32.70
15.80
-3.28
-19.15
-28.45
-31.03
-29.31
-26.26
-23.56
-21.02
-17.22
-11.03
-2.57
6.80
15.38
22.00
26.45
29.19
30.22
28.60
22.57
10.73
-6.68
-27.01
-45.70
-57.85
-60.31
-52.95
-38.36
-20.51
-2.84
12.86
26.52
38.96
50.77
61.78
71.21
78.23
82.43
84.00
83.57
82.31
81.96
84.59
92.02
104.94
122.07
140.19
155.24
163.91
164.80
158.54
146.70
130.47
109.90
84.21
52.96
17.33
-19.66
-54.04
-82.36
-103.01
-116.62
-125.34
-131.70
-137.38
-142.61
-146.39
-147.30
-144.29
-137.37
-127.56
-116.52
-105.83
-96.33
-87.78
-79.09
-68.84
-55.99
-40.41
-22.93
-5.10
11.14
23.90
31.45
32.54
26.60
14.15
-3.18
-22.93
-42.62
-60.73
-77.21
-93.37
-110.99
-131.08
-153.09
-174.70
-192.44
-202.65
-202.55
-190.88
-168.16
-136.61
-99.66
-61.50
-26.41
1.92
20.84
29.10
26.96
16.00
-1.25
-21.86
-43.09
-62.85
-80.06
-94.56
-106.88
-117.80
-127.89
-137.27
-145.38
-151.17
-153.23
-150.22
-141.20
-125.88
-104.80
-79.26
-51.01
-21.90
6.37
32.36
54.93
73.21
86.75
95.63
100.73
103.55
105.87
108.94
113.11
117.54
120.52
120.16
114.99
104.43
89.12
71.12
53.96
42.07
39.33
47.20
63.26
81.25
92.95
91.43
73.92
42.87
4.71
-33.20
-65.51
-90.38
-108.88
-123.09
-134.27
-142.11
-145.34
-142.94
-135.18
-123.70
-110.82
-98.56
-87.75
-78.04
-68.55
-58.88
-49.75
-42.89
-40.20
-42.63
-49.31
-57.69
-64.50
-67.08
-64.49
-57.80
-49.55
-42.67
-39.30
-40.12
-44.20
-49.46
-53.45
-54.05
-50.02
-41.23
-28.52
-13.42
2.33
17.08
29.54
38.86
44.62
46.89
46.19
43.51
40.12
37.32
36.07
36.59
38.27
39.83
39.79
37.00
31.10
22.65
12.78
2.76
-6.57
-15.09
-23.30
-31.90
-41.24
-50.95
-59.84
-66.27
-68.73
-66.41
-59.56
-49.30
-37.25
-24.96
-13.56
-3.65
4.65
11.54
17.40
22.82
28.52
35.17
43.16
52.34
61.98
70.90
77.84
81.89
82.73
80.75
76.87
72.29
68.09
64.92
62.86
61.38
59.70
57.11
53.43
49.15
45.21
42.50
41.30
40.95
39.90
36.26
28.50
16.06
-0.29
-18.79
-37.17
-53.50
-66.73
-76.97
-85.34
-93.49
-102.95
-114.56
-128.08
-142.41
-156.10
-167.95
-177.69
-186.13
-195.01
-206.53
-222.68
-244.65
-272.10
-302.77
-332.53
-356.11
-368.44
-366.29
-349.24
-319.78
-282.18
-240.88
-199.08
-158.30
-118.89
-80.94
-44.99
-11.91
17.75
44.38
69.58
95.72
125.29
160.07
200.60
245.60
291.74
334.00
366.61
384.65
385.65
370.51
343.20
309.30
273.98
240.51
209.79
181.04
153.08
125.42
98.75
74.58
54.49
39.42
29.17
22.42
17.05
10.66
1.25
-12.38
-30.25
-51.19
-73.19
-93.77
-110.67
-122.29
-128.06
-128.49
-125.09
-120.02
-115.58
-113.70
-115.50
-120.95
-128.90
-137.44
-144.55
-148.77
-149.72
-148.01
-144.78
-140.96
-136.77
-131.75
-125.10
-116.18
-104.76
-90.87
-74.48
-55.31
-33.09
-7.91
19.35
47.16
73.93
98.89
122.49
146.23
171.59
198.91
226.83
252.49
272.56
284.25
286.08
278.10
261.76
239.57
214.65
190.04
167.90
148.85
131.71
114.06
93.32
68.09
38.96
8.52
-19.52
-41.63
-55.49
-60.43
-57.27
-47.62
-33.23
-15.51
4.58
26.30
48.73
70.61
90.44
106.85
119.07
127.12
131.57
133.15
132.32
129.13
123.36
114.89
103.93
91.10
77.21
62.97
48.66
34.10
19.00
3.39
-11.98
-25.53
-35.30
-39.73
-38.32
-31.96
-22.64
-12.65
-3.84
2.93
7.76
11.28
14.20
16.89
19.46
21.79
23.76
25.28
26.27
26.56
25.94
24.17
21.09
16.78
11.46
5.48
-0.88
-7.55
-14.77
-23.07
-33.05
-44.97
-58.34
-71.73
-82.86
-89.28
-89.23
-82.29
-69.62
-53.51
-36.46
-20.34
-5.89
7.09
19.12
30.43
40.67
49.05
54.93
58.19
59.36
59.40
59.20
59.15
59.02
58.17
55.85
51.62
45.54
38.09
30.00
21.90
14.10
6.52
-1.24
-9.67
-19.15
-29.84
-41.72
-54.45
-67.37
-79.33
-88.67
-93.54
-92.37
-84.51
-70.57
-52.37
-32.39
-12.96
4.34
18.95
31.13
41.48
50.53
58.45
65.14
70.41
74.18
76.57
77.85
78.31
78.10
77.20
75.48
72.76
68.95
64.06
58.20
51.48
44.03
35.94
27.39
18.58
9.78
1.23
-7.01
-15.18
-23.80
-33.59
-45.13
-58.42
-72.52
-85.52
-94.89
-98.29
-94.39
-83.44
-67.22
-48.41
-29.68
-12.88
1.33
13.22
23.49
32.66
40.82
47.71
53.02
56.67
58.91
60.18
60.89
61.21
61.01
59.95
57.73
54.19
49.40
43.60
37.08
30.05
22.64
14.91
6.95
-1.14
-9.29
-17.54
-26.16
-35.59
-46.29
-58.41
-71.40
-83.88
-93.72
-98.66
-97.02
-88.40
-73.91
-55.81
-36.79
-19.06
-3.84
8.76
19.23
28.22
36.03
42.60
47.66
51.06
52.93
53.68
53.78
53.56
53.05
51.96
49.90
46.52
41.70
35.59
28.51
20.84
12.87
4.75
-3.53
-12.04
-20.89
-30.21
-40.14
-50.89
-62.50
-74.69
-86.57
-96.63
-102.99
-103.95
-98.61
-87.29
-71.51
-53.48
-35.41
-18.83
-4.38
8.09
19.04
28.80
37.42
44.72
50.56
55.06
58.59
61.56
64.14
66.11
66.93
66.03
63.20
58.75
53.43
48.05
43.09
38.39
33.30
26.98
18.94
9.31
-1.13
-11.35
-20.50
-28.35
-35.32
-42.32
-50.38
-60.28
-72.33
-86.13
-100.52
-113.58
-123.03
-126.67
-123.11
-112.29
-95.57
-75.33
-54.21
-34.28
-16.62
-1.33
12.06
24.03
34.81
44.30
52.25
58.56
63.42
67.21
70.33
72.97
75.04
76.15
75.89
74.05
70.74
66.42
61.70
57.07
52.66
48.23
43.19
36.97
29.26
20.24
10.57
1.13
-7.35
-14.63
-21.04
-27.35
-34.47
-43.14
-53.69
-65.98
-79.31
-92.39
-103.46
-110.51
-111.73
-106.14
-93.96
-76.70
-56.65
-36.23
-17.24
-0.56
13.69
25.80
35.97
44.26
50.60
55.10
58.09
60.08
61.50
62.55
63.05
62.68
61.14
58.37
54.61
50.21
45.45
40.39
34.84
28.51
21.15
12.81
3.80
-5.39
-14.23
-22.46
-30.12
-37.67
-45.79
-55.21
-66.36
-78.99
-92.02
-103.53
-111.19
-112.98
-107.87
-96.31
-80.04
-61.54
-43.15
-26.43
-11.89
0.65
11.61
21.14
29.04
34.95
38.71
40.61
41.34
41.73
42.40
43.48
44.58
44.94
43.79
40.63
35.45
28.72
21.15
13.40
5.87
-1.43
-8.80
-16.66
-25.46
-35.54
-47.04
-59.82
-73.26
-86.17
-96.79
-103.18
-103.71
-97.74
-85.85
-69.77
-51.76
-34.00
-17.94
-4.14
7.54
17.57
26.32
33.90
40.15
44.87
47.93
49.44
49.69
49.04
47.82
46.18
44.13
41.49
38.05
33.54
27.78
20.69
12.36
2.99
-7.04
-17.33
-27.44
-37.09
-46.21
-54.98
-63.89
-73.54
-84.36
-96.18
-107.97
-117.78
-123.20
-122.09
-113.38
-97.58
-76.64
-53.34
-30.35
-9.50
8.60
24.27
38.29
51.36
63.76
75.44
86.22
96.10
105.43
114.94
125.59
138.32
153.79
172.12
192.63
213.71
232.95
247.36
254.04
250.81
236.79
212.66
180.49
143.13
103.52
63.99
25.95
-10.11
-44.13
-76.05
-105.23
-130.29
-149.37
-160.59
-162.86
-156.44
-143.10
-125.83
-108.06
-92.81
-81.94
-76.01
-74.40
-75.84
-78.99
-82.77
-86.45
-89.64
-92.07
-93.43
-93.46
-92.08
-89.40
-85.74
-81.42
-76.63
-71.18
-64.40
-55.21
-42.37
-25.12
-3.90
19.23
40.65
56.06
61.91
56.65
41.25
18.70
-7.08
-32.51
-55.05
-73.22
-86.36
-94.23
-96.98
-95.31
-90.45
-83.79
-76.46
-68.95
-61.12
-52.59
-43.15
-33.06
-22.97
-13.59
-5.33
1.81
8.24
14.50
21.06
28.05
35.26
42.21
48.31
53.06
56.04
57.09
56.16
53.36
48.96
43.29
36.65
29.27
21.27
12.81
4.22
-3.76
-10.06
-13.39
-12.62
-7.18
2.69
15.97
31.17
46.71
61.36
74.52
86.17
96.70
106.59
116.08
125.13
133.42
140.65
146.75
152.01
156.84
161.46
165.41
167.45
165.82
158.82
145.64
127.00
105.06
83.04
64.43
52.31
48.85
54.94
69.60
89.52
109.14
121.67
121.21
105.16
75.60
38.75
2.40
-27.25
-47.92
-61.31
-71.25
-81.06
-91.86
-102.69
-112.06
-119.73
-127.64
-139.24
-157.87
-185.07
-219.74
-258.42
-296.25
-328.21
-350.15
-359.51
-355.78
-340.59
-317.46
-291.01
-265.68
-244.31
-227.35
-212.89
-197.80
-179.29
-156.18
-129.27
-100.92
-74.07
-51.14
-33.35
-20.35
-10.36
-0.95
9.93
23.03
37.45
51.08
61.78
68.56
72.15
74.59
78.13
84.05
92.33
102.03
112.01
121.48
130.06
137.37
142.79
145.59
145.44
142.91
139.78
138.72
142.61
153.59
172.36
197.85
227.52
258.15
286.77
311.53
331.88
348.02
360.04
367.03
366.96
357.29
336.25
303.86
262.40
215.86
168.88
125.66
89.41
62.18
45.02
37.93
39.82
48.50
60.94
73.90
84.40
89.87
88.27
78.26
59.98
35.71
9.82
-12.54
-27.50
-34.48
-36.60
-39.05
-46.26
-59.54
-76.59
-92.99
-104.74
-110.28
-110.72
-108.60
-106.15
-104.27
-102.71
-101.06
-99.70
-100.01
-103.80
-112.56
-126.63
-144.97
-165.62
-186.22
-204.59
-219.08
-228.58
-232.49
-230.61
-223.15
-210.66
-194.10
-174.68
-153.73
-132.60
-112.46
-94.20
-78.29
-64.69
-52.91
-42.17
-31.69
-21.00
-10.11
0.52
10.20
18.33
24.59
29.02
31.83
33.27
33.48
32.39
29.83
25.63
19.70
12.16
3.41
-5.90
-14.92
-22.72
-28.50
-31.81
-32.62
-31.38
-28.81
-25.76
-22.93
-20.69
-19.16
-18.22
-17.72
-17.59
-17.79
-18.34
-19.15
-20.06
-20.91
-21.66
-22.37
-23.31
-24.76
-26.97
-30.12
-34.28
-39.46
-45.58
-52.53
-60.15
-68.26
-76.73
-85.36
-93.83
-101.51
-107.51
-110.74
-110.26
-105.53
-96.64
-84.27
-69.54
-53.69
-37.87
-22.93
-9.36
2.65
13.15
22.26
30.11
36.78
42.27
46.57
49.68
51.56
52.18
51.45
49.30
45.71
40.82
34.89
28.22
20.99
13.16
4.50
-5.21
-15.88
-26.82
-36.77
-44.12
-47.35
-45.59
-38.85
-28.01
-14.54
-0.05
14.06
26.75
37.40
45.64
51.35
54.60
55.71
55.21
53.67
51.57
49.15
46.53
43.70
40.67
37.48
34.10
30.42
26.21
21.17
15.06
7.74
-0.84
-10.46
-20.59
-30.21
-37.88
-42.02
-41.44
-35.83
-25.92
-13.37
-0.10
12.25
22.73
31.11
37.55
42.33
45.54
47.18
47.19
45.66
42.78
38.76
33.82
28.06
21.63
14.74
7.71
0.87
-5.58
-11.76
-18.18
-25.52
-34.36
-44.75
-55.86
-66.01
-73.05
-74.96
-70.66
-60.32
-45.38
-28.12
-10.90
4.45
16.89
26.17
32.53
36.42
38.32
38.73
38.12
36.99
35.71
34.49
33.33
32.05
30.36
27.88
24.22
19.00
11.81
2.32
-9.65
-23.89
-39.54
-54.98
-67.88
-75.72
-76.47
-69.30
-55.04
-35.96
-15.11
4.58
21.14
33.93
43.46
50.81
57.07
62.90
68.44
73.43
77.49
80.26
81.51
81.13
79.02
75.01
68.91
60.61
50.14
37.73
23.66
8.20
-8.33
-25.35
-41.70
-55.60
-65.04
-68.35
-65.05
-56.07
-43.59
-30.20
-18.02
-8.18
-0.83
4.46
8.12
10.34
11.08
10.39
8.61
6.38
4.41
3.09
2.46
2.08
1.40
-0.10
-2.74
-6.71
-12.24
-19.64
-29.11
-40.36
-52.27
-62.88
-69.87
-71.38
-66.83
-57.20
-44.68
-31.77
-20.40
-11.41
-4.61
0.64
4.92
8.43
11.21
13.32
15.10
16.95
19.15
21.53
23.52
24.51
24.13
22.51
20.02
16.97
13.19
8.12
1.10
-8.08
-18.78
-29.45
-38.08
-42.75
-42.33
-36.78
-27.12
-15.03
-2.31
9.65
20.09
28.84
36.03
41.73
45.89
48.35
49.09
48.34
46.61
44.44
42.19
39.87
37.20
33.78
29.30
23.66
16.86
8.99
0.21
-9.21
-18.66
-27.10
-33.21
-35.62
-33.39
-26.40
-15.41
-1.93
12.29
25.71
37.28
46.54
53.44
58.17
60.99
62.15
61.90
60.50
58.19
55.20
51.63
47.60
43.14
38.29
33.02
27.25
20.75
13.14
4.02
-6.92
-19.57
-33.21
-46.39
-57.10
-63.31
-63.60
-57.71
-46.66
-32.47
-17.44
-3.48
8.40
17.98
25.51
31.25
35.23
37.31
37.43
35.85
33.17
30.19
27.50
25.29
23.30
20.95
17.58
12.66
5.85
-3.00
-13.76
-25.91
-38.39
-49.57
-57.53
-60.58
-57.82
-49.58
-37.33
-23.17
-9.16
3.30
13.64
21.95
28.52
33.47
36.68
37.96
37.33
35.24
32.39
29.50
26.95
24.65
22.08
18.60
13.71
7.12
-1.23
-11.25
-22.63
-34.70
-46.15
-55.22
-60.02
-59.20
-52.57
-41.16
-26.98
-12.21
1.51
13.40
23.51
32.17
39.57
45.50
49.51
51.18
50.52
48.00
44.48
40.75
37.28
34.00
30.49
26.14
20.53
13.47
4.98
-4.83
-15.80
-27.56
-39.26
-49.49
-56.50
-58.70
-55.30
-46.68
-34.28
-20.14
-6.12
6.51
17.26
26.17
33.44
39.15
43.29
45.89
47.13
47.40
47.08
46.39
45.22
43.25
40.10
35.57
29.83
23.28
16.45
9.64
2.86
-4.31
-12.52
-22.35
-34.01
-46.94
-59.80
-70.64
-77.40
-78.54
-73.59
-63.32
-49.44
-34.01
-18.69
-4.40
8.73
20.88
32.13
42.17
50.40
56.31
59.75
61.15
61.28
60.96
60.63
60.34
59.72
58.27
55.60
51.56
46.24
39.91
32.88
25.48
17.94
10.36
2.76
-4.92
-12.80
-21.03
-29.88
-39.70
-50.78
-63.00
-75.62
-87.13
-95.59
-99.21
-97.05
-89.36
-77.54
-63.52
-49.06
-35.17
-22.07
-9.50
2.72
14.38
24.84
33.36
39.50
43.33
45.41
46.44
46.95
47.06
46.51
44.92
42.02
37.88
32.92
27.66
22.54
17.70
12.95
7.90
2.08
-4.91
-13.30
-23.13
-34.12
-45.64
-56.62
-65.65
-71.26
-72.34
-68.55
-60.41
-49.20
-36.42
-23.37
-10.79
1.10
12.37
23.02
32.81
41.24
47.86
52.46
55.20
56.52
56.95
56.87
56.40
55.42
53.73
51.18
47.73
43.45
38.41
32.67
26.24
19.18
11.58
3.61
-4.52
-12.67
-20.80
-29.09
-37.82
-47.38
-57.89
-69.05
-79.92
-89.00
-94.58
-95.27
-90.51
-80.81
-67.60
-52.73
-37.80
-23.78
-10.88
1.19
12.77
23.92
34.36
43.50
50.83
56.10
59.42
61.13
61.65
61.29
60.15
58.19
55.27
51.32
46.28
40.15
32.98
24.88
16.06
6.76
-2.70
-12.11
-21.41
-30.69
-40.26
-50.53
-61.94
-74.63
-88.20
-101.43
-112.42
-118.95
-119.26
-112.71
-100.14
-83.52
-65.28
-47.37
-30.71
-15.29
-0.58
13.79
27.65
40.35
51.14
59.57
65.79
70.40
74.11
77.40
80.31
82.42
83.23
82.37
79.85
76.11
71.77
67.35
63.09
58.82
54.11
48.49
41.68
33.71
24.96
16.01
7.37
-0.61
-7.97
-15.07
-22.50
-30.91
-40.84
-52.53
-65.76
-79.69
-92.84
-103.26
-108.94
-108.38
-101.13
-88.05
-71.12
-52.80
-35.23
-19.68
-6.40
5.07
15.29
24.52
32.56
39.04
43.82
47.19
49.84
52.52
55.58
58.78
61.36
62.44
61.54
58.85
55.12
51.32
48.08
45.41
42.64
38.65
32.39
23.32
11.58
-1.97
-16.06
-29.51
-41.59
-52.21
-61.92
-71.52
-81.79
-93.11
-105.28
-117.46
-128.10
-134.96
-135.46
-127.19
-108.83
-80.95
-46.18
-8.61
27.55
59.48
86.52
109.88
131.35
152.01
171.59
188.92
202.95
213.44
220.78
225.20
225.90
221.15
209.41
190.60
166.68
140.88
115.90
92.46
68.78
41.70
8.52
-31.37
-76.08
-122.05
-165.50
-203.81
-235.98
-262.35
-283.81
-301.34
-315.95
-328.85
-341.26
-353.70
-365.16
-372.57
-371.55
-357.90
-329.44
-287.09
-234.54
-176.66
-117.72
-60.50
-6.35
43.88
89.10
127.87
158.87
181.47
195.85
202.76
203.22
198.38
189.65
178.45
165.78
151.63
134.81
113.62
87.02
55.76
22.55
-9.02
-36.01
-57.58
-75.18
-91.59
-109.36
-129.45
-151.06
-172.39
-191.70
-207.96
-220.63
-228.67
-230.06
-221.84
-201.21
-166.83
-119.62
-62.25
2.15
71.18
143.14
215.76
284.81
343.63
384.75
402.50
395.61
368.11
327.91
283.87
243.03
209.19
183.34
164.99
153.43
148.10
148.13
151.91
157.07
161.24
163.01
162.39
160.53
159.04
158.99
160.47
162.67
164.59
165.77
166.76
169.01
174.50
184.91
200.86
221.21
242.84
261.23
271.61
270.42
256.51
231.43
198.69
162.33
125.47
89.57
54.61
20.09
-13.88
-45.99
-74.00
-95.75
-110.23
-118.10
-121.32
-122.21
-122.46
-122.66
-122.70
-122.52
-122.69
-124.24
-127.93
-133.36
-138.62
-141.04
-138.34
-129.77
-116.45
-100.73
-85.19
-71.54
-60.28
-50.87
-42.40
-34.26
-26.53
-19.96
-15.58
-14.25
-16.18
-20.84
-27.04
-33.30
-38.34
-41.34
-42.21
-41.42
-39.85
-38.44
-38.06
-39.22
-42.04
-46.20
-50.99
-55.55
-59.13
-61.33
-62.22
-62.13
-61.48
-60.42
-58.71
-55.76
-51.04
-44.38
-36.24
-27.67
-19.97
-14.30
-11.44
-11.69
-15.06
-21.45
-30.77
-42.89
-57.59
-74.43
-92.80
-112.01
-131.43
-150.52
-168.77
-185.65
-200.43
-212.27
-220.36
-224.03
-222.92
-216.96
-206.30
-191.29
-172.41
-150.39
-126.21
-101.07
-76.31
-53.16
-32.52
-14.86
-0.32
11.23
19.96
26.10
29.98
32.02
32.75
32.66
31.99
30.72
28.46
24.76
19.28
12.03
3.45
-5.80
-15.01
-23.74
-31.95
-39.91
-48.04
-56.62
-65.62
-74.61
-82.84
-89.38
-93.32
-94.03
-91.31
-85.46
-77.23
-67.61
-57.58
-47.89
-38.94
-30.88
-23.71
-17.41
-11.91
-7.15
-2.98
0.78
4.26
7.42
10.08
11.95
12.79
12.51
11.18
9.02
6.29
3.16
-0.39
-4.49
-9.39
-15.33
-22.33
-30.02
-37.55
-43.65
-46.93
-46.30
-41.41
-32.72
-21.47
-9.11
3.10
14.52
25.11
35.20
45.06
54.66
63.65
71.59
78.27
83.75
88.26
91.94
94.53
95.36
93.54
88.41
79.85
68.49
55.50
42.32
30.20
19.93
11.74
5.35
0.16
-4.58
-9.59
-15.46
-22.57
-30.93
-40.00
-48.66
-55.37
-58.59
-57.29
-51.45
-42.06
-30.81
-19.46
-9.21
-0.46
7.08
13.99
20.64
27.03
32.80
37.54
41.01
43.31
44.74
45.59
45.99
45.84
44.92
43.08
40.39
37.16
33.86
30.89
28.35
25.99
23.34
19.87
15.32
9.79
3.75
-2.17
-7.48
-11.96
-15.75
-19.26
-23.04
-27.62
-33.34
-40.27
-48.00
-55.58
-61.56
-64.34
-62.63
-55.95
-44.95
-31.20
-16.68
-3.08
8.61
18.26
26.21
32.88
38.38
42.55
45.11
46.02
45.59
44.44
43.21
42.29
41.72
41.13
40.05
38.10
35.21
31.63
27.74
23.92
20.33
16.88
13.29
9.21
4.43
-1.02
-6.90
-12.74
-18.12
-22.80
-26.79
-30.40
-34.07
-38.23
-43.18
-48.97
-55.40
-61.92
-67.68
-71.50
-72.17
-68.79
-61.07
-49.60
-35.73
-21.14
-7.37
4.60
14.48
22.52
29.19
34.95
40.00
44.39
48.05
50.96
53.11
54.54
55.24
55.14
54.14
52.19
49.31
45.67
41.46
36.88
32.00
26.77
21.13
15.03
8.55
1.91
-4.65
-10.95
-17.00
-22.92
-29.02
-35.58
-42.72
-50.24
-57.50
-63.44
-66.84
-66.62
-62.21
-53.90
-42.71
-30.16
-17.80
-6.80
2.29
9.39
14.71
18.51
20.99
22.36
22.93
23.11
23.30
23.73
24.29
24.60
24.14
22.50
19.57
15.60
11.03
6.33
1.73
-2.77
-7.48
-12.77
-19.01
-26.38
-34.68
-43.27
-51.03
-56.59
-58.61
-56.23
-49.41
-38.96
-26.29
-13.00
-0.35
11.01
21.01
29.86
37.69
44.38
49.56
52.94
54.51
54.70
54.21
53.65
53.24
52.69
51.31
48.45
43.82
37.67
30.67
23.56
16.86
10.67
4.67
-1.57
-8.53
-16.47
-25.43
-35.20
-45.24
-54.60
-62.03
-66.17
-65.91
-60.82
-51.34
-38.71
-24.64
-10.78
1.79
12.63
21.91
30.05
37.36
43.93
49.55
53.97
56.99
58.65
59.12
58.65
57.50
55.80
53.60
50.92
47.69
43.84
39.30
33.99
27.90
21.11
13.86
6.52
-0.54
-7.02
-12.89
-18.42
-24.19
-30.89
-38.99
-48.43
-58.33
-67.06
-72.52
-72.88
-67.22
-55.98
-40.85
-24.23
-8.50
4.75
14.93
22.35
27.76
31.83
34.91
37.02
37.98
37.62
35.95
33.12
29.38
25.00
20.20
15.09
9.63
3.68
-2.95
-10.41
-18.69
-27.57
-36.65
-45.41
-53.36
-60.16
-65.62
-69.82
-72.94
-75.32
-77.36
-79.38
-81.44
-83.13
-83.56
-81.49
-75.82
-66.04
-52.57
-36.68
-20.07
-4.32
9.59
21.28
30.82
38.41
44.14
48.09
50.42
51.52
51.90
52.01
52.05
51.88
51.16
49.55
46.92
43.42
39.40
35.23
31.15
27.16
23.05
18.50
13.17
6.81
-0.70
-9.25
-18.43
-27.34
-34.78
-39.35
-39.97
-36.25
-28.73
-18.74
-7.90
2.40
11.40
19.02
25.52
31.17
35.88
39.35
41.29
41.70
41.04
40.01
39.34
39.33
39.74
39.91
39.04
36.59
32.53
27.28
21.52
15.82
10.46
5.29
-0.07
-6.09
-13.12
-21.24
-30.31
-39.91
-49.35
-57.63
-63.56
-65.97
-64.03
-57.63
-47.45
-34.86
-21.49
-8.76
2.42
11.75
19.42
25.77
31.09
35.54
39.14
41.94
43.99
45.39
46.18
46.33
45.72
44.20
41.75
38.54
35.00
31.70
29.17
27.67
27.03
26.70
25.87
23.73
19.78
13.91
6.33
-2.55
-12.37
-22.74
-33.13
-42.62
-49.93
-53.63
-52.71
-46.98
-37.29
-25.29
-12.73
-0.92
9.68
19.24
28.14
36.55
44.18
50.51
55.17
58.18
60.00
61.25
62.36
63.35
63.76
62.97
60.50
56.26
50.65
44.38
38.21
32.61
27.65
22.95
17.89
11.81
4.30
-4.68
-14.70
-24.91
-34.12
-41.09
-44.73
-44.48
-40.54
-33.78
-25.56
-17.24
-9.89
-4.11
-0.21
1.57
0.85
-2.74
-9.23
-18.08
-28.12
-37.96
-46.48
-53.28
-58.77
-63.88
-69.64
-76.82
-85.77
-96.26
-107.46
-117.88
-125.65
-128.94
-126.64
-118.84
-106.75
-92.21
-76.78
-61.03
-44.45
-25.95
-4.55
19.95
46.83
74.81
102.45
128.56
152.22
172.72
189.40
201.57
208.65
210.30
206.69
198.50
186.88
173.07
158.16
142.80
127.14
111.15
94.84
78.59
63.12
49.26
37.56
28.02
20.06
12.68
4.92
-3.85
-13.58
-23.50
-32.26
-38.15
-39.64
-35.77
-26.61
-13.31
1.99
16.77
28.74
36.53
39.99
40.12
38.61
37.24
37.24
38.99
42.09
45.66
48.75
50.74
51.41
50.90
49.47
47.34
44.52
40.78
35.71
28.66
18.87
5.55
-11.83
-33.08
-57.00
-81.26
-102.73
-118.17
-125.11
-122.70
-112.01
-95.75
-77.53
-60.80
-48.02
-40.29
-37.51
-38.91
-43.66
-51.25
-61.55
-74.64
-90.44
-108.56
-128.21
-148.55
-168.90
-189.06
-209.15
-229.36
-249.57
-269.20
-287.53
-304.11
-319.20
-333.53
-347.59
-360.66
-370.41
-373.42
-366.44
-347.86
-318.45
-281.02
-239.19
-196.04
-153.32
-111.55
-70.67
-30.73
7.86
44.64
79.54
113.15
146.81
182.18
220.66
262.63
306.83
350.11
388.07
416.14
431.10
431.85
419.51
396.52
365.49
328.43
286.91
242.72
198.52
157.82
124.12
99.95
86.01
81.15
82.74
87.42
91.66
92.41
87.68
77.06
61.76
44.23
27.26
12.98
2.32
-4.92
-9.51
-12.10
-13.09
-12.77
-11.75
-11.07
-11.95
-15.30
-21.30
-29.41
-38.70
-48.30
-57.67
-66.54
-74.59
-81.19
-85.38
-86.10
-82.67
-75.08
-64.16
-51.27
-38.05
-25.93
-15.96
-8.70
-4.27
-2.40
-2.60
-4.31
-7.05
-10.63
-15.16
-20.96
-28.30
-37.18
-47.21
-57.65
-67.69
-76.76
-84.77
-92.17
-99.68
-107.96
-117.25
-127.11
-136.45
-143.68
-147.01
-144.81
-136.14
-121.17
-101.59
-80.33
-60.78
-45.60
-35.65
-29.84
-25.90
-21.70
-16.39
-10.41
-4.74
0.20
5.04
11.08
19.28
29.52
40.55
50.74
58.94
64.95
69.27
72.32
74.03
73.85
71.30
66.50
60.42
54.55
50.41
49.08
50.99
56.03
63.61
72.85
82.69
91.94
99.47
104.38
106.33
105.58
102.96
99.54
96.25
93.61
91.70
90.26
89.05
88.01
87.36
87.41
88.28
89.70
90.97
91.07
88.90
83.58
74.69
62.50
48.07
32.99
19.17
8.21
1.07
-2.24
-2.53
-1.13
0.59
1.51
1.01
-1.05
-4.42
-8.59
-12.89
-16.66
-19.32
-20.47
-19.99
-18.03
-14.97
-11.35
-7.69
-4.36
-1.45
1.27
4.18
7.51
11.00
13.82
14.70
12.49
6.52
-3.01
-15.16
-28.50
-41.62
-53.41
-63.20
-70.67
-75.67
-78.09
-77.85
-75.06
-70.07
-63.59
-56.54
-49.90
-44.59
-41.25
-40.17
-41.15
-43.55
-46.31
-48.19
-48.05
-45.17
-39.50
-31.61
-22.48
-13.13
-4.34
3.44
9.97
15.01
18.22
19.13
17.40
13.00
6.34
-1.71
-10.04
-17.46
-22.95
-25.85
-25.98
-23.64
-19.47
-14.25
-8.67
-3.15
2.11
7.04
11.56
15.50
18.75
21.26
23.22
24.90
26.50
27.90
28.62
27.93
25.21
20.20
13.19
4.87
-3.97
-12.75
-21.27
-29.62
-38.05
-46.71
-55.59
-64.54
-73.25
-81.21
-87.63
-91.47
-91.68
-87.53
-79.00
-66.85
-52.46
-37.37
-22.89
-9.81
1.53
11.03
18.73
24.71
29.16
32.40
34.85
36.90
38.72
40.21
41.09
41.04
39.85
37.47
34.01
29.63
24.41
18.35
11.33
3.25
-5.90
-15.76
-25.52
-33.86
-39.17
-40.04
-35.70
-26.44
-13.52
1.14
15.67
28.82
40.17
49.96
58.60
66.27
72.76
77.62
80.49
81.31
80.36
78.03
74.63
70.20
64.65
57.96
50.31
42.11
33.82
25.71
17.72
9.43
0.24
-10.47
-22.91
-36.74
-50.87
-63.60
-72.91
-77.08
-75.22
-67.59
-55.54
-41.05
-26.04
-11.89
0.71
11.68
21.13
29.15
35.72
40.84
44.68
47.62
50.06
52.19
53.87
54.67
54.08
51.85
48.12
43.38
38.24
33.08
27.93
22.45
16.13
8.49
-0.67
-11.19
-22.44
-33.36
-42.52
-48.45
-50.00
-46.74
-39.25
-28.88
-17.43
-6.47
3.01
10.69
16.69
21.23
24.42
26.27
26.93
26.79
26.47
26.52
27.13
27.99
28.38
27.53
24.95
20.68
15.24
9.36
3.67
-1.52
-6.36
-11.29
-16.92
-23.75
-31.97
-41.30
-50.88
-59.39
-65.30
-67.28
-64.60
-57.41
-46.77
-34.26
-21.57
-10.03
-0.32
7.45
13.51
18.15
21.60
24.07
25.82
27.14
28.34
29.52
30.44
30.63
29.55
26.90
22.79
17.72
12.34
7.15
2.28
-2.54
-7.87
-14.28
-22.15
-31.40
-41.40
-50.85
-58.07
-61.35
-59.54
-52.47
-41.15
-27.42
-13.36
-0.62
9.96
18.35
24.91
30.03
33.87
36.43
37.71
37.97
37.64
37.18
36.72
36.01
34.49
31.64
27.32
21.90
16.10
10.72
6.20
2.43
-1.20
-5.54
-11.44
-19.36
-29.14
-39.91
-50.16
-58.02
-61.77
-60.42
-54.03
-43.82
-31.69
-19.58
-8.86
-0.07
7.01
12.86
17.92
22.31
25.92
28.61
30.35
31.20
31.22
30.42
28.66
25.80
21.87
17.08
11.80
6.39
1.03
-4.46
-10.51
-17.65
-26.18
-35.84
-45.70
-54.22
-59.65
-60.61
-56.57
-48.05
-36.44
-23.56
-11.04
0.06
9.30
16.76
22.67
27.29
30.79
33.31
35.03
36.14
36.75
36.77
35.91
33.83
30.32
25.47
19.72
13.71
7.98
2.76
-2.25
-7.74
-14.59
-23.45
-34.38
-46.59
-58.53
-68.15
-73.52
-73.40
-67.68
-57.39
-44.34
-30.51
-17.44
-5.89
4.10
12.89
20.81
27.90
33.93
38.62
41.95
44.24
46.10
48.07
50.39
52.76
54.49
54.77
53.01
49.14
43.54
36.92
29.99
23.27
16.96
10.98
5.01
-1.39
-8.68
-17.26
-27.30
-38.54
-50.14
-60.67
-68.34
-71.50
-69.22
-61.61
-49.88
-35.94
-21.72
-8.63
2.78
12.64
21.33
29.11
35.87
41.30
45.12
47.36
48.44
48.95
49.42
49.98
50.32
49.89
48.06
44.51
39.35
33.10
26.48
20.10
14.26
8.88
3.61
-2.01
-8.38
-15.80
-24.45
-34.32
-45.06
-55.83
-65.19
-71.45
-73.12
-69.51
-61.07
-49.25
-35.97
-22.94
-11.14
-0.75
8.54
17.01
24.60
30.92
35.51
38.21
39.31
39.55
39.69
40.23
41.09
41.73
41.33
39.26
35.24
29.53
22.75
15.61
8.71
2.33
-3.58
-9.31
-15.32
-22.13
-30.23
-39.93
-51.08
-62.89
-73.89
-82.24
-86.22
-84.85
-78.19
-67.37
-54.08
-39.97
-26.17
-13.13
-0.81
11.08
22.74
34.16
45.12
55.24
64.07
71.23
76.52
79.94
81.69
82.06
81.37
79.86
77.75
75.25
72.48
69.43
65.86
61.32
55.31
47.64
38.56
28.77
19.07
10.08
1.96
-5.65
-13.40
-21.97
-31.92
-43.47
-56.40
-69.90
-82.57
-92.59
-98.16
-98.03
-92.06
-81.24
-67.41
-52.53
-38.08
-24.77
-12.62
-1.38
9.12
18.73
27.09
33.86
38.96
42.55
44.93
46.40
47.03
46.81
45.68
43.71
41.24
38.74
36.71
35.38
34.53
33.51
31.47
27.65
21.71
13.90
4.97
-4.08
-12.34
-19.27
-24.86
-29.56
-34.07
-39.19
-45.57
-53.60
-63.17
-73.61
-83.59
-91.35
-95.13
-93.74
-86.97
-75.75
-61.78
-46.91
-32.58
-19.45
-7.60
3.13
12.71
20.77
26.84
30.69
32.59
33.31
33.77
34.71
36.32
38.21
39.63
39.78
38.16
34.69
29.68
23.67
17.16
10.47
3.71
-3.18
-10.30
-17.75
-25.67
-34.18
-43.39
-53.14
-62.78
-71.12
-76.57
-77.69
-73.71
-64.93
-52.71
-38.92
-25.41
-13.33
-3.07
5.61
13.18
19.96
26.01
31.20
35.38
38.57
40.96
42.79
44.32
45.63
46.72
47.47
47.72
47.30
46.03
43.76
40.37
35.84
30.20
23.63
16.27
8.32
-0.20
-9.39
-19.50
-30.84
-43.51
-57.09
-70.44
-81.71
-88.75
-89.79
-84.12
-72.42
-56.64
-39.30
-22.61
-7.90
4.57
15.15
24.30
32.14
38.41
42.82
45.42
46.84
48.05
50.04
53.36
57.88
62.83
67.19
70.01
70.79
69.50
66.56
62.47
57.64
52.20
46.00
38.87
30.72
21.79
12.60
3.73
-4.37
-11.62
-18.28
-24.89
-32.04
-40.28
-49.99
-61.20
-73.48
-85.83
-96.70
-104.29
-107.02
-104.06
-95.58
-82.73
-67.23
-50.85
-34.96
-20.39
-7.50
3.66
13.09
20.88
27.11
32.04
36.07
39.70
43.36
47.26
51.23
54.80
57.39
58.65
58.61
57.68
56.40
55.08
53.61
51.41
47.73
42.06
34.39
25.34
15.89
7.03
-0.61
-7.00
-12.61
-18.27
-24.79
-32.77
-42.36
-53.16
-64.17
-73.86
-80.51
-82.63
-79.44
-71.17
-59.00
-44.65
-29.83
-15.75
-2.98
8.34
18.19
26.41
32.73
36.93
39.14
39.87
39.87
39.81
40.04
40.42
40.49
39.65
37.48
33.88
29.13
23.68
18.02
12.41
6.84
1.01
-5.48
-13.02
-21.78
-31.73
-42.55
-53.53
-63.62
-71.44
-75.59
-75.04
-69.56
-59.86
-47.46
-34.11
-21.33
-9.89
0.10
8.95
16.97
24.23
30.51
35.53
39.13
41.36
42.52
42.97
42.99
42.73
42.12
40.93
38.87
35.75
31.53
26.41
20.76
14.90
8.96
2.82
-3.82
-11.21
-19.50
-28.62
-38.46
-48.93
-59.95
-71.18
-81.81
-90.45
-95.48
-95.52
-90.06
-79.71
-66.00
-50.82
-35.72
-21.50
-8.24
4.40
16.63
28.31
38.92
47.88
54.84
59.85
63.23
65.37
66.51
66.69
65.80
63.87
61.11
57.87
54.43
50.85
46.85
42.03
35.99
28.68
20.37
11.62
3.03
-4.99
-12.39
-19.47
-26.83
-35.19
-45.00
-56.22
-67.99
-78.72
-86.41
-89.25
-86.21
-77.38
-63.95
-47.72
-30.58
-14.03
1.04
14.31
25.72
35.38
43.39
49.83
54.81
58.51
61.11
62.79
63.69
63.87
63.33
61.99
59.77
56.61
52.47
47.39
41.43
34.69
27.36
19.70
11.98
4.40
-3.08
-10.76
-19.15
-28.85
-40.28
-53.47
-67.85
-82.17
-94.73
-103.61
-107.31
-105.17
-97.77
-86.69
-74.07
-61.86
-51.17
-42.16
-34.32
-27.10
-20.32
-14.40
-10.11
-8.09
-8.57
-11.13
-14.78
-18.27
-20.39
-20.42
-18.54
-15.91
-14.29
-15.27
-19.23
-24.92
-29.76
-30.89
-26.56
-17.10
-4.87
6.46
13.02
11.78
0.93
-19.86
-49.36
-84.73
-121.62
-154.78
-179.31
-191.96
-192.18
-181.99
-165.03
-145.00
-124.32
-103.66
-82.27
-58.78
-31.93
-0.85
34.74
74.43
116.85
159.47
198.71
230.64
251.96
261.03
258.24
245.71
226.42
203.35
178.80
154.41
131.22
110.01
91.39
75.77
63.25
53.58
46.14
40.13
34.82
29.79
25.08
21.03
18.11
16.60
16.44
17.35
18.93
20.89
23.03
25.13
26.87
27.78
27.44
25.70
22.87
19.62
16.78
14.97
14.34
14.56
15.00
15.03
14.30
12.78
10.66
8.03
4.61
-0.39
-8.17
-19.91
-36.34
-57.21
-81.10
-105.54
-127.41
-143.57
-151.63
-150.43
-140.35
-123.17
-101.57
-78.39
-55.95
-35.67
-18.00
-2.76
10.37
21.46
30.33
36.75
40.85
43.22
44.82
46.54
48.76
51.17
53.02
53.46
52.09
49.01
44.76
39.93
34.85
29.49
23.55
16.72
8.82
-0.15
-10.08
-20.86
-32.24
-43.70
-54.29
-62.71
-67.64
-68.24
-64.47
-57.10
-47.44
-36.79
-26.10
-15.85
-6.29
2.32
9.52
14.75
17.68
18.45
17.63
16.04
14.36
12.78
11.02
8.41
4.24
-1.85
-9.72
-18.67
-27.70
-35.82
-42.46
-47.57
-51.63
-55.47
-59.93
-65.60
-72.59
-80.39
-87.91
-93.58
-95.80
-93.49
-86.55
-75.99
-63.63
-51.27
-40.02
-29.80
-19.63
-8.38
4.51
18.57
32.55
45.13
55.55
63.91
70.91
77.35
83.60
89.47
94.35
97.53
98.50
97.06
93.29
87.36
79.49
69.89
58.82
46.61
33.72
20.59
7.52
-5.46
-18.66
-32.48
-47.08
-61.87
-75.35
-85.35
-89.62
-86.73
-76.56
-60.40
-40.51
-19.27
1.41
20.49
37.64
52.93
66.45
78.16
87.99
95.87
101.93
106.43
109.59
111.55
112.26
111.63
109.60
106.30
102.04
97.24
92.20
87.02
81.56
75.53
68.67
60.92
52.45
43.60
34.80
26.41
18.58
11.24
4.00
-3.79
-12.88
-23.80
-36.46
-49.88
-62.24
-71.31
-75.13
-72.71
-64.27
-51.12
-35.09
-17.87
-0.71
15.62
30.57
43.58
54.08
61.63
66.27
68.51
69.28
69.55
69.92
70.47
70.72
69.86
67.07
61.77
53.82
43.56
31.72
19.27
7.17
-3.86
-13.46
-21.70
-29.07
-36.24
-43.94
-52.67
-62.46
-72.62
-81.74
-87.85
-88.98
-83.81
-72.16
-55.21
-35.08
-14.14
5.71
23.40
38.74
51.94
63.23
72.57
79.79
84.84
88.07
90.18
91.97
93.92
95.88
97.15
96.72
93.79
88.13
80.15
70.59
60.10
48.86
36.48
22.22
5.41
-14.02
-35.33
-56.95
-76.86
-92.98
-103.69
-107.97
-105.51
-96.75
-82.88
-65.86
-48.20
-32.42
-20.36
-12.66
-8.62
-6.62
-4.96
-2.59
0.63
4.06
6.91
8.69
9.38
9.28
8.69
7.67
6.13
3.97
1.30
-1.58
-4.31
-6.64
-8.63
-10.60
-13.10
-16.59
-21.33
-27.23
-33.98
-41.12
-48.18
-54.84
-60.75
-65.50
-68.50
-69.08
-66.72
-61.32
-53.33
-43.72
-33.70
-24.33
-16.26
-9.59
-4.08
0.61
4.68
8.04
10.49
11.82
12.04
11.41
10.38
9.38
8.63
8.07
7.34
5.95
3.49
-0.23
-5.09
-10.70
-16.51
-22.02
-26.93
-31.27
-35.40
-39.92
-45.49
-52.66
-61.58
-71.80
-82.18
-90.93
-96.03
-95.81
-89.60
-78.12
-63.38
-47.96
-34.17
-23.31
-15.50
-10.04
-6.13
-3.31
-1.62
-1.27
-2.21
-3.95
-5.69
-6.79
-7.02
-6.74
-6.66
-7.46
-9.45
-12.46
-15.95
-19.26
-21.90
-23.69
-24.87
-25.96
-27.63
-30.53
-35.09
-41.29
-48.50
-55.52
-60.66
-62.23
-58.98
-50.54
-37.60
-21.68
-4.67
11.76
26.55
39.27
49.90
58.48
64.92
68.97
70.54
69.88
67.69
64.90
62.35
60.50
59.17
57.73
55.26
51.00
44.64
36.43
27.11
17.61
8.70
0.72
-6.51
-13.56
-21.09
-29.68
-39.65
-50.99
-63.34
-75.89
-87.33
-95.97
-100.04
-98.30
-90.52
-77.68
-61.68
-44.71
-28.60
-14.31
-1.98
8.76
18.36
27.04
34.77
41.45
47.02
51.60
55.39
58.49
60.78
61.91
61.38
58.73
53.78
46.71
38.04
28.53
18.91
9.67
0.95
-7.41
-15.84
-24.82
-34.77
-45.94
-58.28
-71.28
-83.87
-94.40
-101.00
-102.01
-96.55
-84.91
-68.54
-49.58
-30.28
-12.39
3.17
16.24
27.16
36.39
44.23
50.74
55.82
59.35
61.34
61.97
61.53
60.29
58.43
56.01
52.96
49.13
44.34
38.34
30.93
22.01
11.69
0.39
-11.30
-22.80
-33.75
-44.31
-55.18
-67.48
-82.43
-100.90
-122.75
-146.35
-168.57
-185.25
-192.31
-187.17
-169.56
-141.68
-107.38
-70.85
-35.52
-3.45
24.44
47.80
66.42
80.06
88.75
93.07
94.27
93.82
93.01
92.43
91.80
90.27
86.90
81.17
73.24
63.91
54.23
45.06
36.78
29.22
21.85
14.01
5.20
-4.89
-16.35
-29.00
-42.23
-54.81
-64.98
-70.69
-70.26
-62.97
-49.45
-31.49
-11.44
8.49
26.90
43.22
57.54
70.08
80.88
89.74
96.48
101.21
104.43
106.90
109.26
111.71
113.93
115.25
115.06
113.07
109.44
104.57
98.90
92.62
85.72
78.13
69.84
60.95
51.56
41.64
30.98
19.21
6.03
-8.60
-24.22
-39.85
-54.06
-65.25
-71.94
-73.17
-68.76
-59.31
-46.11
-30.71
-14.60
1.12
15.86
29.45
41.88
53.11
62.92
71.00
77.07
81.09
83.29
84.10
83.88
82.80
80.81
77.75
73.54
68.30
62.28
55.71
48.61
40.81
32.06
22.21
11.48
0.38
-10.39
-20.29
-29.17
-37.36
-45.64
-54.95
-66.10
-79.37
-94.27
-109.46
-122.94
-132.54
-136.41
-133.58
-124.24
-109.58
-91.50
-71.97
-52.66
-34.61
-18.39
-4.24
7.74
17.47
24.97
30.44
34.26
36.93
38.95
40.59
41.82
42.37
41.85
39.96
36.65
32.15
26.84
21.07
15.01
8.57
1.49
-6.49
-15.48
-25.33
-35.69
-46.16
-56.48
-66.67
-77.11
-88.35
-100.78
-114.23
-127.71
-139.37
-146.96
-148.50
-142.97
-130.65
-113.09
-92.52
-71.20
-50.84
-32.34
-15.97
-1.58
11.19
22.96
34.75
47.88
63.70
82.96
105.39
129.66
153.80
175.90
194.73
210.07
222.43
232.65
241.45
249.34
256.75
264.38
273.17
283.97
296.91
310.95
323.92
333.17
336.66
333.89
326.35
317.00
309.06
304.56
303.36
302.96
299.40
288.68
268.31
238.19
200.85
160.68
122.54
90.39
66.28
50.11
40.16
33.95
28.98
23.26
15.34
4.25
-10.54
-29.02
-50.45
-73.38
-95.95
-116.42
-133.76
-147.93
-159.78
-170.61
-181.53
-193.00
-204.59
-215.15
-223.29
-227.94
-228.80
-226.49
-222.30
-217.63
-213.46
-210.05
-206.95
-203.39
-198.66
-192.45
-184.84
-176.25
-167.22
-158.29
-149.96
-142.67
-136.67
-131.99
-128.32
-125.10
-121.69
-117.57
-112.52
-106.60
-100.13
-93.47
-86.92
-80.62
-74.59
-68.85
-63.44
-58.51
-54.28
-50.96
-48.69
-47.60
-47.81
-49.39
-52.27
-56.11
-60.23
-63.77
-65.99
-66.56
-65.70
-64.07
-62.45
-61.42
-61.14
-61.36
-61.57
-61.32
-60.34
-58.73
-56.84
-55.13
-53.90
-53.20
-52.77
-52.18
-51.01
-49.08
-46.49
-43.54
-40.56
-37.77
-35.15
-32.56
-29.80
-26.72
-23.33
-19.76
-16.26
-13.14
-10.74
-9.30
-8.94
-9.58
-10.95
-12.58
-13.92
-14.39
-13.61
-11.51
-8.32
-4.58
-0.90
2.20
4.48
5.96
6.92
7.73
8.72
10.02
11.59
13.19
14.51
15.26
15.31
14.69
13.66
12.58
11.80
11.48
11.55
11.70
11.45
10.33
8.08
4.75
0.61
-3.84
-8.15
-11.96
-15.05
-17.38
-18.98
-19.94
-20.43
-20.59
-20.46
-19.92
-18.66
-16.36
-12.88
-8.49
-3.79
0.42
3.51
5.25
5.91
6.06
6.24
6.80
7.75
8.92
10.04
10.88
11.24
10.96
9.88
7.93
5.23
2.03
-1.29
-4.45
-7.40
-10.27
-13.27
-16.49
-19.70
-22.39
-23.98
-24.02
-22.51
-19.88
-16.85
-14.18
-12.37
-11.47
-11.17
-10.92
-10.23
-8.86
-6.88
-4.56
-2.27
-0.18
1.67
3.45
5.36
7.52
9.90
12.28
14.30
15.65
16.12
15.76
14.75
13.40
11.95
10.44
8.74
6.57
3.66
-0.10
-4.62
-9.60
-14.60
-19.14
-22.85
-25.53
-27.20
-28.11
-28.56
-28.83
-29.02
-28.99
-28.43
-27.00
-24.52
-21.10
-17.14
-13.23
-9.93
-7.56
-6.11
-5.21
-4.32
-2.92
-0.73
2.20
5.41
8.18
9.73
9.47
7.19
3.13
-2.03
-7.41
-12.14
-15.56
-17.33
-17.40
-16.01
-13.53
-10.52
-7.59
-5.32
-4.08
-3.93
-4.54
-5.34
-5.68
-5.13
-3.56
-1.14
1.83
5.14
8.70
12.57
16.69
20.82
24.44
26.94
27.89
27.24
25.45
23.32
21.66
20.95
21.16
21.82
22.26
21.95
20.73
18.78
16.57
14.45
12.58
10.81
8.80
6.21
2.87
-1.21
-5.93
-11.31
-17.51
-24.65
-32.54
-40.32
-46.49
-49.38
-47.73
-41.21
-30.41
-16.31
0.34
19.35
40.66
63.65
86.78
107.76
124.51
135.91
141.92
142.80
138.05
126.17
105.42
75.49
38.84
0.89
-31.44
-52.08
-57.99
-50.20
-33.30
-13.67
2.64
11.59
11.99
5.37
-5.05
-15.81
-24.44
-30.14
-33.61
-36.26
-39.23
-42.87
-46.76
-50.21
-52.74
-54.30
-55.04
-55.01
-54.01
-51.71
-48.03
-43.51
-39.29
-36.75
-36.92
-40.06
-45.42
-51.55
-56.70
-59.25
-57.99
-52.26
-42.07
-28.21
-12.23
3.77
17.62
27.69
33.35
35.06
34.06
31.74
28.99
25.97
22.18
17.02
10.31
2.65
-4.71
-10.33
-13.05
-12.52
-9.14
-3.81
2.55
9.32
16.27
23.35
30.43
37.15
43.01
47.63
50.95
53.26
55.08
56.92
59.08
61.50
63.86
65.69
66.55
66.13
64.46
61.77
58.54
55.19
52.00
49.00
46.00
42.79
39.27
35.57
31.95
28.61
25.56
22.61
19.53
16.31
13.28
10.93
9.73
9.78
10.70
11.84
12.57
12.55
11.84
10.82
9.88
9.27
9.03
9.05
9.30
9.76
10.45
11.31
12.11
12.49
12.06
10.50
7.70
3.77
-0.95
-5.98
-10.86
-15.23
-18.89
-21.76
-23.84
-25.08
-25.38
-24.72
-23.21
-21.08
-18.65
-16.13
-13.53
-10.68
-7.31
-3.29
1.24
5.86
10.01
13.18
15.15
16.00
16.09
15.89
15.80
16.08
16.77
17.80
19.12
20.71
22.58
24.71
27.06
29.51
31.97
34.42
36.79
38.89
40.27
40.23
38.13
33.67
27.21
19.70
12.41
6.41
2.25
-0.21
-1.45
-2.01
-2.20
-2.09
-1.69
-1.16
-0.87
-1.24
-2.50
-4.54
-6.90
-9.03
-10.50
-11.23
-11.42
-11.49
-11.75
-12.36
-13.27
-14.29
-15.20
-15.89
-16.38
-16.80
-17.30
-18.03
-19.08
-20.49
-22.27
-24.33
-26.52
-28.59
-30.16
-30.85
-30.37
-28.64
-25.82
-22.27
-18.45
-14.73
-11.38
-8.46
-5.97
-3.86
-2.14
-0.84
0.03
0.52
0.72
0.76
0.71
0.57
0.31
-0.10
-0.65
-1.23
-1.76
-2.24
-2.78
-3.56
-4.85
-6.77
-9.31
-12.24
-15.15
-17.55
-19.05
-19.34
-18.39
-16.37
-13.59
-10.41
-7.13
-3.98
-1.10
1.46
3.70
5.61
7.19
8.37
9.08
9.26
8.92
8.23
7.41
6.71
6.28
6.12
6.07
5.90
5.34
4.23
2.47
0.12
-2.65
-5.62
-8.49
-10.96
-12.74
-13.58
-13.35
-12.07
-9.89
-7.10
-4.08
-1.25
1.09
2.72
3.55
3.59
2.94
1.75
0.29
-1.16
-2.23
-2.65
-2.25
-1.12
0.40
1.80
2.52
2.17
0.62
-2.01
-5.38
-9.12
-12.90
-16.41
-19.35
-21.42
-22.37
-22.08
-20.67
-18.39
-15.64
-12.70
-9.75
-6.86
-4.03
-1.37
0.97
2.79
4.01
4.70
5.10
5.53
6.23
7.30
8.57
9.77
10.54
10.64
9.93
8.45
6.26
3.45
0.10
-3.74
-7.92
-12.20
-16.22
-19.57
-21.83
-22.67
-21.96
-19.76
-16.39
-12.26
-7.83
-3.43
0.76
4.70
8.47
12.13
15.68
19.02
22.04
24.61
26.61
27.96
28.69
28.91
28.86
28.80
28.92
29.30
29.91
30.59
31.19
31.46
31.13
29.89
27.38
23.40
18.02
11.70
5.17
-0.68
-5.07
-7.51
-7.92
-6.53
-3.83
-0.43
3.02
5.97
8.00
8.94
8.85
7.98
6.67
5.34
4.34
3.96
4.40
5.71
7.77
10.33
13.03
15.46
17.35
18.44
18.58
17.62
15.44
11.97
7.36
1.93
-3.82
-9.33
-14.24
-18.32
-21.63
-24.26
-26.35
-28.02
-29.39
-30.63
-32.01
-33.80
-36.12
-38.87
-41.68
-43.97
-45.14
-44.79
-42.83
-39.45
-35.09
-30.19
-25.12
-20.12
-15.31
-10.79
-6.58
-2.69
0.94
4.34
7.50
10.39
12.89
14.94
16.51
17.61
18.31
18.62
18.59
18.19
17.49
16.52
15.37
14.05
12.62
11.09
9.46
7.72
5.79
3.55
0.88
-2.29
-5.91
-9.82
-13.73
-17.29
-20.12
-21.90
-22.44
-21.73
-19.96
-17.50
-14.78
-12.18
-9.90
-7.99
-6.33
-4.85
-3.47
-2.21
-1.03
0.16
1.62
3.63
6.42
9.98
13.99
17.92
21.12
23.07
23.52
22.51
20.30
17.22
13.60
9.71
5.79
2.07
-1.27
-4.03
-6.10
-7.40
-7.92
-7.70
-6.93
-5.85
-4.75
-3.88
-3.26
-2.79
-2.23
-1.35
-0.13
1.27
2.56
3.42
3.60
3.04
1.87
0.42
-0.77
-1.01
0.33
3.65
8.88
15.38
22.00
27.44
30.66
31.24
29.41
25.98
21.85
17.68
13.81
10.19
6.79
3.73
1.33
-0.02
-0.14
0.82
2.37
3.96
5.15
5.88
6.33
6.82
7.58
8.67
9.97
11.33
12.62
13.79
14.78
15.47
15.68
15.20
13.87
11.62
8.49
4.60
0.14
-4.60
-9.31
-13.71
-17.67
-21.23
-24.65
-28.13
-31.74
-35.24
-38.14
-40.00
-40.54
-39.82
-38.13
-35.82
-33.18
-30.35
-27.33
-24.13
-20.81
-17.50
-14.32
-11.39
-8.73
-6.32
-4.07
-1.93
0.07
1.77
2.90
3.20
2.45
0.58
-2.27
-5.85
-9.83
-13.86
-17.61
-20.77
-23.07
-24.31
-24.38
-23.30
-21.23
-18.41
-15.07
-11.36
-7.36
-3.05
1.55
6.29
10.82
14.65
17.34
18.64
18.66
17.80
16.59
15.50
14.75
14.31
14.01
13.69
13.28
12.82
12.33
11.74
10.82
9.26
6.76
3.25
-1.06
-5.62
-9.73
-12.66
-13.90
-13.34
-11.25
-8.13
-4.60
-1.15
1.96
4.65
6.90
8.65
9.78
10.21
9.97
9.37
8.86
8.89
9.81
11.69
14.32
17.33
20.31
22.86
24.69
25.61
25.53
24.51
22.64
20.04
16.78
12.89
8.44
3.62
-1.10
-5.07
-7.61
-8.29
-7.19
-4.90
-2.35
-0.46
0.30
0.01
-0.68
-0.94
-0.09
2.10
5.36
9.00
12.24
14.43
15.23
14.66
13.00
10.66
8.00
5.36
2.95
0.93
-0.57
-1.59
-2.28
-2.98
-4.06
-5.95
-9.00
-13.39
-19.16
-25.98
-33.05
-38.97
-41.93
-40.21
-32.92
-20.56
-5.22
9.86
21.37
27.08
26.63
21.60
14.86
9.42
7.39
9.46
14.99
22.55
30.68
38.31
44.86
50.07
53.75
55.67
55.72
54.05
51.14
47.69
44.25
41.02
37.79
34.08
29.46
23.80
17.33
10.56
4.06
-1.63
-6.13
-9.19
-10.84
-11.27
-10.89
-10.09
-9.20
-8.25
-7.07
-5.45
-3.44
-1.52
-0.71
-2.38
-7.83
-17.80
-32.09
-49.52
-68.18
-86.19
-102.27
-116.06
-128.02
-138.86
-148.90
-157.86
-164.94
-169.54
-171.74
-172.63
-173.91
-177.28
-183.67
-192.82
-203.31
-212.97
-219.47
-220.93
-216.36
-205.97
-191.20
-174.39
-158.10
-144.13
-132.43
-120.71
-104.95
-80.84
-45.69
0.01
52.41
105.44
153.01
190.97
218.27
236.48
248.45
256.94
263.81
269.78
274.59
276.95
274.59
264.53
244.04
212.05
170.44
124.18
80.09
44.45
20.87
9.27
6.41
7.56
8.32
5.78
-1.23
-12.53
-27.15
-43.76
-61.11
-78.38
-95.39
-112.41
-129.66
-146.72
-162.07
-173.26
-177.87
-174.56
-164.10
-149.43
-134.96
-125.10
-122.82
-128.69
-140.87
-155.89
-169.98
-180.07
-184.36
-182.38
-174.57
-161.88
-145.39
-126.30
-106.12
-86.61
-69.53
-56.03
-45.97
-37.62
-27.92
-13.28
9.25
40.79
79.95
122.89
164.24
198.43
221.20
230.64
227.50
214.65
196.10
175.79
156.66
140.37
127.48
118.04
111.94
108.90
108.24
108.67
108.48
106.18
101.11
93.75
85.40
77.49
70.84
65.37
60.28
54.67
48.05
40.59
32.92
25.75
19.52
14.32
9.93
5.99
2.15
-1.91
-6.47
-11.82
-18.26
-25.91
-34.63
-43.77
-52.21
-58.62
-61.83
-61.27
-57.23
-50.72
-43.05
-35.37
-28.38
-22.25
-16.96
-12.44
-8.79
-6.05
-4.04
-2.29
-0.21
2.66
6.39
10.51
14.28
16.99
18.21
17.91
16.34
13.75
10.23
5.73
0.29
-5.71
-11.41
-15.56
-16.91
-14.65
-8.70
0.24
10.96
22.12
32.61
41.67
48.83
53.76
56.22
56.13
53.74
49.67
44.87
40.25
36.38
33.22
30.19
26.48
21.40
14.65
6.41
-2.88
-12.55
-21.91
-30.14
-36.38
-39.73
-39.55
-35.67
-28.52
-19.02
-8.25
2.82
13.55
23.57
32.63
40.48
46.82
51.44
54.29
55.55
55.56
54.71
53.33
51.64
49.79
47.86
45.95
44.08
42.16
39.89
36.85
32.63
27.11
20.67
14.30
9.36
7.17
8.56
13.44
20.77
28.81
35.67
39.84
40.60
38.12
33.30
27.32
21.21
15.54
10.32
5.20
-0.20
-6.08
-12.30
-18.56
-24.46
-29.80
-34.57
-38.93
-43.30
-48.32
-54.85
-63.75
-75.51
-89.80
-105.22
-119.51
-130.27
-135.70
-135.16
-129.13
-118.68
-104.77
-87.80
-67.49
-43.31
-14.94
17.16
51.35
84.95
114.57
136.86
149.44
151.55
144.35
130.59
113.73
96.96
82.36
70.58
60.99
52.19
42.57
30.92
16.93
1.48
-13.40
-25.10
-31.19
-30.41
-23.05
-10.87
3.56
17.89
30.62
41.32
50.34
58.18
65.08
70.83
74.98
77.07
76.98
74.87
71.11
66.09
60.11
53.38
46.02
38.12
29.69
20.83
11.75
2.89
-4.93
-10.69
-13.28
-11.83
-5.88
4.64
19.42
37.72
58.21
79.02
97.90
112.91
123.19
129.34
133.28
137.31
142.95
150.11
157.17
161.82
162.30
157.99
149.15
136.18
119.01
97.52
72.42
45.95
21.33
1.51
-12.50
-22.13
-30.32
-39.60
-50.45
-61.08
-68.75
-71.66
-70.15
-66.44
-63.28
-62.32
-63.54
-65.62
-67.07
-67.08
-65.74
-63.76
-61.83
-60.38
-59.43
-58.92
-58.84
-59.43
-61.16
-64.58
-70.17
-78.21
-88.73
-101.41
-115.57
-130.09
-143.62
-154.80
-162.61
-166.61
-166.85
-163.56
-156.79
-146.32
-131.94
-113.91
-93.26
-71.65
-50.85
-31.98
-15.21
0.20
15.12
29.92
44.12
56.55
66.06
72.09
74.99
75.90
76.13
76.63
77.58
78.56
78.77
77.60
74.89
71.00
66.53
62.03
57.67
53.22
48.16
42.01
34.61
26.21
17.41
8.91
1.15
-5.85
-12.47
-19.39
-27.26
-36.64
-47.77
-60.54
-74.34
-87.94
-99.47
-106.84
-108.31
-103.13
-91.99
-76.75
-59.82
-43.20
-27.86
-13.66
0.19
14.29
28.62
42.39
54.50
64.11
71.07
75.89
79.37
82.08
84.10
85.04
84.42
82.06
78.35
74.13
70.31
67.37
65.10
62.61
58.73
52.53
43.68
32.67
20.58
8.62
-2.27
-11.80
-20.32
-28.59
-37.45
-47.52
-59.05
-71.80
-85.01
-97.33
-106.94
-111.91
-110.76
-103.10
-89.91
-73.28
-55.68
-39.11
-24.49
-11.69
0.00
11.20
21.98
31.95
40.55
47.55
53.19
58.03
62.64
67.26
71.72
75.58
78.41
79.93
80.14
79.13
76.92
73.41
68.38
61.68
53.43
44.07
34.25
24.68
15.91
8.10
1.04
-5.87
-13.39
-22.26
-32.91
-45.09
-57.74
-68.99
-76.66
-78.90
-74.91
-65.34
-52.02
-37.35
-23.44
-11.46
-1.53
6.94
14.70
22.17
29.33
35.89
41.56
46.37
50.58
54.56
58.51
62.33
65.66
68.02
69.10
68.83
67.46
65.30
62.48
58.85
54.02
47.62
39.63
30.56
21.30
12.85
5.88
0.40
-4.23
-9.12
-15.44
-24.07
-35.21
-48.25
-61.78
-73.90
-82.70
-86.87
-86.13
-81.30
-74.04
-66.12
-58.85
-52.65
-47.21
-41.93
-36.43
-30.84
-25.78
-21.99
-19.96
-19.68
-20.74
-22.55
-24.73
-27.25
-30.48
-34.83
-40.50
-47.15
-53.79
-59.03
-61.42
-60.05
-54.88
-46.93
-38.00
-30.23
-25.46
-24.82
-28.40
-35.28
-43.69
-51.40
-56.26
-56.86
-53.00
-46.00
-38.40
-33.35
-33.59
-40.47
-53.37
-69.76
-85.77
-97.32
-101.28
-96.17
-82.44
-61.99
-37.43
-11.29
14.50
38.76
60.87
80.56
97.74
112.46
124.83
135.03
143.26
149.62
154.18
156.85
157.33
155.00
149.07
138.94
124.61
107.11
88.35
70.67
56.04
45.44
38.78
35.13
33.40
32.79
32.99
33.87
35.15
36.15
35.78
32.88
26.67
17.10
4.90
-8.60
-21.93
-33.91
-43.87
-51.66
-57.42
-61.28
-63.22
-63.22
-61.36
-58.09
-54.04
-49.93
-46.17
-42.72
-39.13
-34.77
-29.16
-22.16
-14.04
-5.32
3.37
11.44
18.48
24.28
28.85
32.41
35.32
37.92
40.42
42.74
44.63
45.78
46.03
45.45
44.29
42.84
41.24
39.43
37.21
34.30
30.51
25.73
19.96
13.30
6.06
-1.27
-8.01
-13.49
-17.27
-19.31
-20.01
-19.98
-19.80
-19.74
-19.77
-19.65
-19.13
-18.18
-16.90
-15.55
-14.32
-13.33
-12.65
-12.39
-12.74
-13.92
-16.15
-19.49
-23.80
-28.71
-33.71
-38.35
-42.31
-45.57
-48.45
-51.42
-54.90
-58.93
-62.94
-65.85
-66.33
-63.35
-56.59
-46.62
-34.70
-22.35
-10.83
-0.80
7.61
14.64
20.54
25.42
29.20
31.75
32.99
32.97
31.84
29.77
26.95
23.54
19.76
15.81
11.85
7.92
3.90
-0.53
-5.81
-12.41
-20.65
-30.54
-41.51
-52.37
-61.42
-66.82
-67.20
-62.11
-52.32
-39.56
-25.92
-13.20
-2.37
6.46
13.75
20.11
25.86
31.01
35.27
38.41
40.30
41.05
40.87
39.93
38.30
35.93
32.78
28.87
24.36
19.46
14.34
9.01
3.21
-3.51
-11.59
-21.12
-31.62
-41.85
-50.13
-54.72
-54.49
-49.38
-40.44
-29.54
-18.70
-9.41
-2.29
2.85
6.57
9.44
11.63
13.03
13.41
12.75
11.31
9.51
7.66
5.78
3.58
0.58
-3.58
-8.95
-15.17
-21.58
-27.48
-32.30
-35.79
-38.03
-39.30
-39.96
-40.28
-40.36
-40.12
-39.35
-37.75
-34.94
-30.58
-24.37
-16.21
-6.25
5.02
16.94
28.72
39.76
49.58
57.97
64.82
70.09
73.79
76.01
76.93
76.87
76.14
74.95
73.35
71.28
68.58
65.16
60.99
56.14
50.74
44.94
38.83
32.45
25.71
18.40
10.20
0.86
-9.70
-21.14
-32.63
-42.89
-50.45
-53.97
-52.71
-46.64
-36.55
-23.64
-9.10
6.24
22.06
38.43
55.41
72.71
89.68
105.55
119.96
133.47
147.31
162.67
179.67
196.92
211.95
222.41
227.06
225.90
219.51
208.16
191.69
170.16
144.87
118.66
94.85
75.32
59.13
42.66
21.76
-5.47
-36.91
-66.80
-88.17
-95.63
-87.42
-65.48
-34.52
-0.43
31.09
55.27
68.69
69.78
59.13
39.64
16.31
-4.94
-18.80
-22.18
-15.09
-0.48
16.77
31.53
39.82
39.58
30.51
13.54
-9.92
-38.33
-70.03
-103.07
-135.22
-164.30
-188.59
-207.14
-219.77
-226.72
-228.33
-224.71
-215.79
-201.49
-182.10
-158.53
-132.48
-106.18
-82.06
-62.12
-47.51
-38.22
-33.25
-31.05
-30.26
-30.26
-31.73
-36.13
-45.13
-59.28
-76.87
-93.76
-104.27
-102.99
-86.57
-54.78
-10.64
40.12
89.89
130.33
153.77
155.31
134.81
97.88
54.80
17.38
-5.18
-9.17
3.03
24.99
49.52
71.14
86.96
95.84
97.49
92.28
81.99
70.55
63.57
66.74
83.23
111.84
146.89
180.12
203.67
213.01
208.12
192.81
172.49
151.66
132.20
113.25
92.58
67.95
38.45
4.81
-30.87
-65.82
-96.90
-120.84
-134.43
-135.19
-122.80
-100.19
-73.64
-51.01
-38.87
-39.96
-52.47
-71.61
-92.36
-111.83
-129.65
-146.70
-163.13
-177.44
-187.21
-190.88
-189.10
-184.62
-180.79
-179.54
-180.48
-181.61
-180.51
-175.91
-168.20
-158.88
-149.71
-141.92
-135.67
-130.29
-124.69
-117.99
-109.85
-100.58
-90.92
-81.70
-73.52
-66.58
-60.74
-55.75
-51.30
-47.18
-43.26
-39.50
-35.88
-32.43
-29.20
-26.22
-23.51
-21.06
-18.91
-17.16
-15.96
-15.45
-15.68
-16.47
-17.47
-18.21
-18.28
-17.50
-16.00
-14.17
-12.46
-11.22
-10.56
-10.34
-10.23
-9.88
-9.00
-7.45
-5.26
-2.55
0.43
3.48
6.39
9.01
11.19
12.80
13.70
13.83
13.17
11.77
9.73
7.19
4.33
1.38
-1.29
-3.26
-4.08
-3.48
-1.48
1.56
5.02
8.19
10.53
11.79
12.05
11.65
11.03
10.54
10.37
10.49
10.76
10.97
10.93
10.57
9.89
8.93
7.74
6.34
4.71
2.80
0.58
-2.06
-5.17
-8.76
-12.69
-16.65
-20.17
-22.80
-24.23
-24.49
-23.86
-22.76
-21.54
-20.38
-19.27
-18.15
-17.14
-16.65
-17.48
-20.62
-27.05
-37.38
-51.56
-68.76
-87.55
-106.25
-123.49
-138.53
-151.40
-162.63
-172.84
-182.44
-191.60
-200.50
-209.62
-219.86
-232.31
-247.73
-266.09
-286.40
-306.76
-324.84
-338.32
-345.27
-344.41
-335.36
-318.62
-295.56
-268.12
-238.38
-208.07
-178.35
-149.79
-122.65
-97.26
-74.04
-53.43
-35.56
-19.97
-5.65
8.67
24.12
41.32
60.12
79.48
97.69
112.81
123.41
129.18
131.28
131.90
133.31
136.64
141.28
145.04
145.38
140.83
131.90
120.91
110.91
104.33
101.99
102.97
105.03
105.32
100.89
89.28
69.23
41.49
9.43
-21.14
-43.26
-51.26
-43.08
-21.37
7.40
35.67
57.87
72.43
81.75
90.33
102.34
119.95
143.13
170.57
200.98
233.60
267.78
301.97
333.09
356.85
369.30
368.52
355.84
335.56
313.47
294.70
281.88
274.59
270.05
264.88
256.81
245.52
232.42
219.56
208.38
199.05
190.65
181.78
171.24
158.58
144.08
128.50
112.76
97.59
83.47
70.54
58.81
48.21
38.67
30.20
22.79
16.34
10.59
5.09
-0.60
-6.83
-13.66
-20.88
-28.06
-34.68
-40.27
-44.47
-47.03
-47.89
-47.12
-45.00
-41.95
-38.50
-35.10
-32.06
-29.49
-27.29
-25.21
-23.01
-20.45
-17.39
-13.81
-9.87
-5.94
-2.51
-0.11
0.90
0.40
-1.35
-3.87
-6.61
-9.09
-11.05
-12.40
-13.20
-13.58
-13.69
-13.68
-13.66
-13.69
-13.72
-13.65
-13.36
-12.78
-11.90
-10.76
-9.43
-7.92
-6.28
-4.55
-2.82
-1.22
0.14
1.21
2.03
2.60
2.90
2.84
2.27
1.14
-0.46
-2.30
-4.07
-5.51
-6.49
-7.02
-7.24
-7.29
-7.29
-7.29
-7.36
-7.59
-8.10
-8.96
-10.17
-11.61
-13.06
-14.31
-15.21
-15.77
-16.13
-16.56
-17.39
-18.93
-21.38
-24.65
-28.34
-31.77
-34.23
-35.21
-34.66
-33.01
-30.94
-29.08
-27.72
-26.83
-26.09
-25.17
-23.85
-22.11
-20.04
-17.75
-15.36
-12.88
-10.30
-7.53
-4.49
-1.18
2.30
5.74
8.88
11.52
13.55
14.99
15.91
16.39
16.54
16.54
16.65
17.13
17.99
18.94
19.38
18.62
16.24
12.29
7.31
2.11
-2.62
-6.47
-9.40
-11.65
-13.42
-14.89
-16.08
-16.99
-17.70
-18.38
-19.30
-20.74
-22.89
-25.80
-29.34
-33.16
-36.83
-39.85
-41.86
-42.74
-42.71
-42.24
-41.90
-42.13
-43.11
-44.78
-47.00
-49.72
-53.21
-57.93
-64.26
-72.11
-80.64
-88.32
-93.29
-94.05
-90.09
-82.13
-71.88
-61.35
-52.07
-44.55
-38.22
-31.97
-24.87
-16.78
-8.39
-0.87
4.83
8.60
11.32
14.77
21.29
33.71
55.01
87.79
133.20
189.75
252.83
315.29
369.44
409.47
433.29
442.88
442.78
437.84
431.23
423.62
413.89
400.48
382.61
360.68
335.86
309.31
281.65
252.91
222.91
191.86
160.76
131.26
105.24
84.06
68.15
56.80
48.51
41.57
34.59
26.83
18.26
9.21
-0.01
-9.43
-19.70
-31.92
-47.35
-66.97
-91.07
-119.02
-149.49
-180.70
-211.00
-239.37
-265.65
-290.59
-315.81
-343.33
-375.13
-412.21
-453.78
-496.57
-534.98
-562.06
-571.22
-558.24
-522.60
-467.94
-401.03
-329.90
-261.73
-201.31
-150.52
-108.93
-74.94
-46.84
-23.44
-4.10
11.69
24.53
35.13
44.02
51.15
56.03
58.06
56.99
53.40
48.67
44.58
42.80
44.35
49.27
56.69
65.11
72.89
78.83
82.52
84.48
85.78
87.54
90.45
94.47
98.92
102.78
105.04
104.95
102.17
96.80
89.34
80.54
71.26
62.22
53.90
46.41
39.55
32.97
26.27
19.11
11.24
2.59
-6.65
-15.93
-24.22
-30.26
-32.89
-31.53
-26.44
-18.79
-10.20
-2.20
4.40
9.75
14.86
21.20
30.21
42.99
60.04
81.08
104.81
128.76
149.38
162.63
165.11
155.07
133.23
102.44
66.68
29.48
-7.00
-42.19
-76.46
-110.13
-143.06
-174.61
-204.02
-230.68
-254.08
-273.65
-288.86
-299.69
-307.38
-314.90
-326.52
-346.57
-377.68
-419.31
-467.24
-514.47
-553.07
-576.47
-581.32
-568.12
-540.77
-504.96
-466.31
-429.02
-395.26
-365.48
-339.09
-315.08
-292.28
-269.45
-245.30
-218.81
-189.58
-158.11
-125.60
-93.43
-62.51
-32.95
-4.06
25.16
55.39
86.65
118.21
148.96
177.95
204.78
229.86
254.49
280.63
310.36
344.86
383.20
421.65
454.16
474.01
476.02
458.37
423.02
374.65
318.73
259.90
201.21
144.45
90.93
42.12
-0.39
-35.10
-60.98
-77.54
-84.68
-82.69
-72.36
-55.25
-33.53
-9.86
12.97
32.44
46.45
53.54
53.05
45.38
32.11
15.88
-0.11
-13.20
-22.19
-27.83
-32.41
-38.53
-47.62
-58.83
-69.19
-74.65
-71.83
-59.44
-38.84
-13.59
11.86
33.57
49.12
58.16
62.19
64.05
67.16
74.59
88.38
108.98
135.07
163.71
191.07
213.14
226.77
230.19
223.37
207.78
185.76
159.81
131.85
102.99
73.57
43.72
14.00
-14.22
-38.84
-57.55
-68.75
-72.17
-69.02
-61.47
-51.73
-41.36
-31.03
-20.85
-10.93
-1.70
6.12
12.00
15.89
18.38
20.37
22.63
25.42
28.34
30.58
31.27
29.84
26.15
20.41
12.95
4.06
-5.91
-16.33
-26.07
-33.43
-36.55
-34.07
-25.75
-12.71
2.90
18.69
32.83
44.51
53.85
61.40
67.61
72.54
75.94
77.55
77.42
75.94
73.71
71.18
68.46
65.31
61.27
56.00
49.38
41.54
32.59
22.55
11.28
-1.26
-14.52
-27.15
-37.08
-42.14
-40.85
-33.06
-20.07
-4.11
12.46
27.91
41.41
52.83
62.27
69.72
74.96
77.87
78.67
77.95
76.46
74.72
72.72
70.01
65.97
60.21
52.77
44.17
35.12
26.21
17.63
9.13
0.07
-10.37
-22.83
-37.42
-53.39
-69.07
-82.16
-90.39
-92.26
-87.60
-77.58
-64.28
-49.87
-36.03
-23.61
-12.77
-3.41
4.57
11.13
16.22
19.95
22.58
24.45
25.69
26.14
25.38
22.98
18.75
12.91
6.05
-1.12
-8.06
-14.54
-20.78
-27.23
-34.45
-42.77
-52.08
-61.69
-70.23
-75.83
-76.55
-70.97
-58.74
-40.74
-18.86
4.72
28.22
50.72
72.09
92.50
111.87
129.56
144.54
155.78
162.75
165.63
165.20
162.43
158.16
152.78
146.30
138.47
129.07
118.09
105.82
92.76
79.47
66.33
53.48
40.79
27.99
14.88
1.39
-12.43
-26.52
-40.77
-54.92
-68.42
-80.30
-89.29
-94.15
-94.16
-89.42
-80.87
-70.04
-58.46
-47.31
-37.13
-27.97
-19.65
-12.02
-5.13
0.78
5.50
8.96
11.33
12.99
14.30
15.49
16.56
17.29
17.41
16.74
15.29
13.19
10.71
8.03
5.29
2.53
-0.25
-3.05
-5.87
-8.68
-11.57
-14.66
-18.16
-22.22
-26.74
-31.26
-34.89
-36.44
-34.81
-29.26
-19.77
-7.02
7.82
23.38
38.48
52.28
64.31
74.41
82.63
89.13
94.13
97.83
100.34
101.71
101.88
100.82
98.56
95.17
90.72
85.22
78.63
70.87
61.98
52.14
41.67
30.92
20.18
9.59
-0.86
-11.30
-21.86
-32.61
-43.54
-54.50
-65.11
-74.69
-82.31
-87.00
-88.02
-85.19
-78.93
-70.19
-60.06
-49.48
-39.04
-29.03
-19.65
-11.17
-3.96
1.65
5.57
8.01
9.43
10.32
10.98
11.46
11.53
10.92
9.44
7.12
4.16
0.81
-2.73
-6.48
-10.62
-15.45
-21.31
-28.36
-36.50
-45.26
-53.74
-60.80
-65.31
-66.49
-64.19
-58.91
-51.60
-43.33
-34.95
-26.97
-19.66
-13.22
-7.96
-4.25
-2.32
-2.13
-3.34
-5.45
-8.04
-10.96
-14.38
-18.65
-24.02
-30.60
-38.23
-46.64
-55.61
-65.04
-75.01
-85.66
-97.16
-109.61
-122.88
-136.35
-148.79
-158.27
-162.56
-159.72
-148.89
-130.70
-107.23
-81.22
-55.16
-30.51
-7.57
13.98
34.35
53.25
69.90
83.60
94.16
101.96
107.48
110.73
111.00
107.19
98.57
85.59
69.97
54.27
40.89
31.15
24.99
21.26
18.42
15.24
11.15
6.09
0.23
-6.36
-13.62
-21.36
-29.03
-35.68
-40.22
-41.87
-40.49
-36.65
-31.49
-26.16
-21.49
-17.64
-14.31
-10.93
-7.08
-2.66
2.00
6.42
10.03
12.49
13.70
13.75
12.91
11.52
9.93
8.52
7.65
7.56
8.33
9.84
11.71
13.46
14.61
14.84
14.05
12.43
10.31
8.06
5.98
4.16
2.47
0.57
-1.98
-5.48
-9.89
-14.70
-19.04
-21.94
-22.71
-21.22
-17.86
-13.30
-8.19
-2.83
2.77
8.91
16.01
24.64
35.48
49.15
65.95
85.48
106.40
126.58
143.62
155.50
161.14
160.63
154.95
145.54
133.86
121.11
108.21
95.88
84.62
74.61
65.69
57.17
48.03
37.15
23.67
7.43
-10.86
-29.66
-46.88
-60.42
-68.77
-71.41
-68.87
-62.59
-54.37
-45.99
-38.76
-33.51
-30.58
-29.96
-31.34
-34.18
-37.80
-41.55
-44.97
-47.88
-50.36
-52.56
-54.42
-55.63
-55.70
-54.23
-51.17
-46.97
-42.49
-38.74
-36.65
-36.81
-39.36
-43.95
-49.77
-55.59
-60.02
-61.80
-60.18
-55.12
-47.32
-37.91
-28.11
-18.90
-10.83
-4.07
1.44
5.89
9.47
12.37
14.83
17.06
19.24
21.46
23.62
25.45
26.56
26.55
25.19
22.57
19.03
15.02
10.90
6.67
1.95
-3.84
-11.22
-20.35
-30.77
-41.47
-51.11
-58.35
-62.27
-62.60
-59.79
-54.73
-48.45
-41.69
-34.80
-27.70
-20.23
-12.42
-4.64
2.44
8.11
11.96
13.96
14.45
13.93
12.82
11.34
9.45
6.87
3.23
-1.74
-8.09
-15.42
-22.90
-29.42
-33.98
-36.01
-35.62
-33.51
-30.72
-28.26
-26.88
-26.89
-28.14
-30.07
-31.78
-32.21
-30.44
-25.92
-18.65
-9.18
1.66
13.09
24.54
35.74
46.58
56.88
66.35
74.53
80.96
85.36
87.74
88.43
87.96
86.82
85.34
83.52
81.13
77.82
73.28
67.38
60.24
52.19
43.68
35.21
27.17
19.69
12.66
5.69
-1.70
-9.96
-19.23
-29.19
-39.04
-47.66
-53.91
-56.94
-56.49
-52.97
-47.26
-40.38
-33.18
-26.13
-19.32
-12.67
-6.18
-0.04
5.40
9.80
12.96
14.94
16.06
16.69
17.13
17.48
17.58
17.13
15.78
13.31
9.72
5.24
0.24
-4.94
-10.06
-15.08
-20.12
-25.36
-30.99
-37.16
-43.90
-51.04
-58.10
-64.30
-68.57
-69.83
-67.32
-60.87
-51.07
-39.07
-26.31
-14.10
-3.29
5.79
13.26
19.52
24.92
29.65
33.65
36.77
38.90
40.11
40.69
40.93
40.99
40.76
39.84
37.74
34.13
29.01
22.70
15.75
8.73
2.00
-4.31
-10.29
-16.18
-22.28
-28.84
-36.11
-44.15
-52.79
-61.48
-69.28
-74.95
-77.26
-75.38
-69.23
-59.52
-47.61
-35.03
-23.00
-12.18
-2.61
6.04
14.06
21.57
28.38
34.28
39.11
42.98
46.10
48.67
50.67
51.86
51.89
50.49
47.66
43.71
39.15
34.50
30.08
25.91
21.68
16.91
11.12
4.03
-4.40
-13.84
-23.69
-33.12
-41.20
-47.08
-50.15
-50.23
-47.61
-43.02
-37.41
-31.68
-26.51
-22.31
-19.23
-17.33
-16.58
-16.90
-18.07
-19.70
-21.28
-22.37
-22.82
-22.92
-23.35
-25.00
-28.55
-34.22
-41.64
-50.03
-58.53
-66.57
-74.11
-81.76
-90.62
-101.82
-115.98
-132.54
-149.39
-163.00
-169.24
-164.52
-147.12
-117.90
-80.31
-39.48
-0.88
31.10
54.11
68.18
75.33
78.65
81.09
84.40
88.64
92.40
93.69
91.06
84.32
74.65
64.05
54.47
47.13
42.30
39.38
37.21
34.27
29.10
20.85
10.01
-1.28
-9.71
-12.08
-7.01
4.29
18.40
31.34
40.57
45.97
49.55
53.91
60.68
69.80
79.96
89.71
98.29
105.85
112.79
119.12
124.28
127.56
128.72
128.49
128.43
130.15
134.52
141.07
148.06
153.10
154.14
150.16
141.64
130.36
118.73
109.04
102.59
99.41
98.36
97.79
96.29
93.37
89.55
85.89
83.32
81.98
80.99
78.76
73.42
63.38
47.75
26.59
1.25
-25.57
-50.26
-69.08
-79.37
-80.48
-73.98
-62.96
-50.82
-40.09
-31.90
-26.26
-22.69
-20.83
-20.69
-22.37
-25.78
-30.41
-35.53
-40.47
-44.98
-49.22
-53.71
-58.91
-64.90
-71.28
-77.25
-81.91
-84.59
-85.10
-83.73
-81.09
-77.86
-74.58
-71.47
-68.46
-65.30
-61.73
-57.57
-52.90
-48.03
-43.35
-39.22
-35.81
-33.00
-30.49
-27.99
-25.41
-22.82
-20.49
-18.60
-17.22
-16.27
-15.58
-15.02
-14.62
-14.66
-15.58
-17.80
-21.43
-26.10
-31.07
-35.46
-38.62
-40.38
-41.07
-41.36
-41.93
-43.33
-45.93
-49.90
-55.25
-61.82
-69.17
-76.68
-83.75
-90.13
-96.02
-101.96
-108.41
-115.20
-121.32
-124.99
-124.30
-117.90
-105.63
-88.60
-68.81
-48.40
-28.92
-11.09
5.20
20.36
34.73
48.33
60.90
72.19
82.09
90.64
97.90
103.80
108.05
110.20
109.88
106.98
101.73
94.64
86.30
77.25
67.86
58.45
49.42
41.27
34.59
29.85
27.19
26.38
26.86
28.02
29.36
30.64
31.82
32.94
33.98
34.91
35.68
36.36
37.16
38.39
40.32
42.99
46.12
49.18
51.46
52.36
51.50
48.79
44.38
38.52
31.47
23.43
14.61
5.40
-3.54
-11.28
-16.74
-18.96
-17.37
-11.99
-3.39
7.52
19.79
32.72
45.91
59.20
72.42
85.22
96.99
107.01
114.53
119.07
120.39
118.59
113.96
106.94
98.02
87.69
76.45
64.82
53.28
42.21
31.76
21.89
12.33
2.78
-7.03
-17.22
-27.77
-38.58
-49.45
-60.08
-70.00
-78.61
-85.27
-89.53
-91.23
-90.55
-87.86
-83.56
-77.88
-70.89
-62.68
-53.44
-43.60
-33.71
-24.21
-15.32
-6.92
1.40
10.06
19.39
29.40
39.79
50.03
59.44
67.31
73.07
76.28
76.68
74.22
68.94
61.01
50.68
38.27
24.14
8.67
-7.67
-24.28
-40.26
-54.43
-65.47
-72.24
-74.22
-71.75
-66.02
-58.68
-51.30
-44.81
-39.37
-34.47
-29.38
-23.48
-16.44
-8.32
0.60
9.85
18.86
27.05
33.96
39.42
43.64
47.04
49.93
51.97
51.94
47.95
38.04
21.08
-2.70
-31.73
-63.71
-96.70
-129.85
-163.43
-198.24
-234.95
-273.69
-314.17
-355.83
-397.58
-437.16
-470.58
-492.48
-497.53
-482.34
-447.04
-395.19
-332.03
-262.18
-188.20
-111.07
-32.18
44.72
113.26
166.24
198.58
209.52
202.74
184.42
160.40
134.17
106.60
77.23
46.06
14.46
-15.26
-41.18
-62.94
-82.10
-101.26
-122.74
-147.44
-174.38
-200.80
-223.08
-237.76
-242.48
-236.55
-221.01
-198.03
-170.15
-139.42
-107.08
-73.72
-39.87
-6.54
24.72
52.20
74.75
92.27
105.76
116.73
126.35
134.90
141.64
145.30
144.78
139.82
131.16
120.29
108.83
97.88
87.70
77.74
67.10
54.98
41.10
25.86
10.27
-4.11
-15.42
-21.82
-21.93
-15.44
-3.47
11.56
26.60
38.83
46.60
49.62
48.59
44.50
38.07
29.60
19.40
8.14
-3.07
-13.14
-21.76
-29.88
-39.64
-53.66
-73.94
-100.87
-132.65
-165.59
-194.95
-216.39
-227.30
-227.58
-219.50
-206.58
-192.07
-177.73
-163.48
-148.14
-130.63
-111.02
-90.61
-71.23
-54.14
-39.27
-25.29
-10.23
7.71
29.58
55.39
83.96
112.95
139.13
158.99
169.87
171.04
164.22
153.08
141.85
133.79
130.18
130.32
132.53
135.18
137.42
139.07
140.11
140.20
138.75
135.25
129.79
123.22
116.78
111.63
108.29
106.43
105.13
103.42
100.75
97.22
93.47
90.39
88.57
88.19
88.88
89.91
90.42
89.69
87.30
83.22
77.78
71.59
65.33
59.55
54.53
50.28
46.65
43.51
40.78
38.52
36.80
35.69
35.19
35.24
35.77
36.67
37.79
38.98
40.03
40.80
41.17
41.11
40.69
40.02
39.21
38.29
37.27
36.08
34.65
32.98
31.10
29.10
27.09
25.17
23.37
21.71
20.21
18.83
17.52
16.18
14.71
13.09
11.42
9.88
8.73
8.10
7.91
7.88
7.61
6.77
5.15
2.76
-0.24
-3.62
-7.21
-10.87
-14.50
-17.96
-21.01
-23.31
-24.53
-24.42
-22.98
-20.47
-17.36
-14.24
-11.63
-9.97
-9.46
-10.11
-11.68
-13.76
-15.82
-17.35
-18.03
-17.75
-16.72
-15.25
-13.71
-12.32
-11.15
-10.13
-9.10
-7.92
-6.51
-4.82
-2.87
-0.71
1.61
4.01
6.33
8.44
10.21
11.57
12.57
13.30
13.86
14.28
14.51
14.50
14.24
13.83
13.41
13.10
12.91
12.73
12.43
11.97
11.48
11.17
11.24
11.77
12.67
13.70
14.64
15.35
15.81
16.11
16.28
16.34
16.24
15.91
15.35
14.56
13.64
12.69
11.79
10.95
10.21
9.55
8.98
8.53
8.24
8.18
8.34
8.63
8.87
8.82
8.27
7.15
5.53
3.66
1.79
0.18
-1.06
-1.94
-2.56
-3.06
-3.52
-3.97
-4.36
-4.62
-4.69
-4.55
-4.20
-3.69
-3.08
-2.47
-1.98
-1.69
-1.69
-1.94
-2.36
-2.80
-3.20
-3.55
-3.90
-4.36
-4.93
-5.53
-6.04
-6.35
-6.45
-6.42
-6.34
-6.26
-6.18
-6.02
-5.72
-5.27
-4.70
-4.09
-3.51
-2.98
-2.51
-2.11
-1.78
-1.55
-1.42
-1.37
-1.35
-1.31
-1.22
-1.11
-1.03
-1.01
-1.05
-1.12
-1.18
-1.25
-1.35
-1.54
-1.78
-1.99
-2.05
-1.86
-1.46
-0.96
-0.56
-0.38
-0.44
-0.65
-0.89
-1.10
-1.34
-1.73
-2.39
-3.29
-4.25
-4.98
-5.31
-5.24
-4.96
-4.77
-4.88
-5.31
-5.88
-6.36
-6.60
-6.60
-6.46
-6.28
-6.03
-5.56
-4.69
-3.38
-1.73
-0.01
1.49
2.60
3.25
3.50
3.41
2.97
2.13
0.83
-0.88
-2.81
-4.66
-6.08
-6.83
-6.85
-6.25
-5.26
-4.10
-2.89
-1.67
-0.43
0.83
2.06
3.17
4.08
4.80
5.39
5.92
6.42
6.88
7.24
7.43
7.43
7.26
6.98
6.62
6.24
5.87
5.57
5.38
5.28
5.25
5.20
5.04
4.71
4.21
3.57
2.89
2.27
1.77
1.38
1.02
0.54
-0.21
-1.34
-2.81
-4.53
-6.32
-8.04
-9.51
-10.66
-11.38
-11.62
-11.34
-10.57
-9.41
-7.99
-6.43
-4.82
-3.14
-1.40
0.40
2.24
4.03
5.73
7.25
8.55
9.61
10.42
10.98
11.31
