1543503212.00
64.000000
-0.00
-0.00
-0.00
-0.00
-0.00
-0.00
-0.00
-0.00
-0.00
-0.00
0.00
0.01
0.01
-0.00
-0.03
-0.05
-0.05
0.00
0.13
0.36
0.66
1.01
1.37
1.72
2.06
2.40
2.79
3.24
3.80
4.42
5.06
5.66
6.20
6.68
7.15
7.68
8.31
9.14
10.09
11.04
11.88
12.56
13.14
13.76
14.65
15.96
17.91
20.32
22.90
25.38
27.58
29.57
31.68
34.32
37.82
42.54
48.15
54.11
59.83
64.96
69.58
74.15
79.37
85.76
93.82
103.03
112.56
121.53
129.39
136.20
142.63
150.00
157.02
165.90
177.19
190.96
205.98
219.39
226.88
223.88
207.04
175.44
131.41
78.69
21.55
-36.78
-94.70
-151.83
-208.15
-263.34
-316.59
-366.61
-412.69
-454.28
-490.82
-521.26
-543.89
-556.65
-557.61
-545.80
-521.36
-485.99
-442.19
-392.64
-339.64
-284.82
-229.26
-173.88
-119.88
-68.75
-22.37
17.73
50.76
76.93
97.35
113.47
126.55
137.18
145.28
150.26
151.45
148.40
141.07
130.11
117.21
105.16
97.44
97.17
105.74
121.92
141.91
160.63
173.62
178.74
176.66
170.06
162.04
154.63
148.28
142.16
135.12
126.43
116.11
104.65
92.61
80.57
68.62
56.89
45.84
36.27
29.03
24.62
22.91
23.10
23.95
24.23
23.12
20.40
16.32
11.45
6.42
1.74
-2.29
-5.59
-8.34
-10.78
-13.05
-15.04
-16.36
-16.58
-15.56
-13.73
-11.98
-11.37
-12.40
-14.71
-17.12
-18.21
-17.06
-13.74
-9.30
-5.22
-2.70
-2.17
-3.25
-5.12
-6.93
-8.17
-8.65
-8.43
-7.71
-6.63
-5.32
-3.91
-2.54
-1.37
-0.56
-0.18
-0.16
-0.29
-0.25
0.27
1.33
2.72
3.91
4.31
3.56
1.72
-0.70
-2.95
-4.40
-4.78
-4.23
-3.17
-2.04
-1.10
-0.41
0.11
0.58
1.03
1.41
1.68
1.86
2.08
2.49
3.19
4.16
5.23
6.21
6.94
7.39
7.65
7.82
7.93
7.89
7.52
6.68
5.30
3.56
1.60
-0.37
-2.20
-3.83
-5.25
-6.46
-7.40
-8.02
-8.31
-8.33
-8.18
-8.00
-7.89
-7.88
-7.91
-7.88
-7.69
-7.27
-6.66
-5.92
-5.18
-4.56
-4.14
-3.94
-3.88
-3.83
-3.67
-3.32
-2.80
-2.22
-1.72
-1.38
-1.20
-1.12
-1.04
-0.86
-0.56
-0.18
0.20
0.49
0.63
0.61
0.46
0.27
0.13
0.10
0.23
0.49
0.87
1.29
1.74
2.18
2.59
2.92
3.13
3.22
3.20
3.10
2.98
2.86
2.80
2.82
2.95
3.17
3.44
3.65
3.69
3.49
3.05
2.47
1.92
1.57
1.51
1.72
2.09
2.44
2.58
2.42
1.94
1.27
0.59
0.12
0.06
0.49
1.39
2.56
3.70
4.42
4.37
3.37
1.42
-1.20
-4.02
-6.46
-8.05
-8.56
-8.04
-6.86
-5.48
-4.32
-3.63
-3.43
-3.59
-3.96
-4.46
-5.09
-5.88
-6.75
-7.52
-7.96
-7.86
-7.17
-6.01
-4.62
-3.27
-2.19
-1.48
-1.19
-1.29
-1.73
-2.46
-3.40
-4.40
-5.32
-6.00
-6.35
-6.35
-6.06
-5.60
-5.07
-4.58
-4.22
-4.05
-4.17
-4.61
-5.35
-6.32
-7.37
-8.34
-9.09
-9.55
-9.78
-9.89
-10.08
-10.48
-11.16
-12.05
-12.96
-13.63
-13.75
-13.11
-11.60
-9.29
-6.39
-3.27
-0.32
2.13
3.91
5.07
5.85
6.56
7.46
8.64
10.04
11.51
12.88
14.10
15.15
16.04
16.75
17.17
17.17
16.69
15.75
14.49
13.12
11.84
10.74
9.84
9.04
8.21
7.27
6.22
5.15
4.16
3.34
2.69
2.13
1.55
0.90
0.25
-0.26
-0.41
-0.12
0.62
1.63
2.71
3.69
4.49
5.15
5.73
6.30
6.88
7.43
7.86
8.08
8.01
7.56
6.73
5.59
4.35
3.29
2.69
2.73
3.38
4.35
5.23
5.59
5.15
3.90
2.06
0.03
-1.86
-3.41
-4.60
-5.56
-6.45
-7.36
-8.27
-9.06
-9.62
-9.85
-9.76
-9.39
-8.88
-8.35
-7.92
-7.67
-7.57
-7.53
-7.40
-7.01
-6.28
-5.27
-4.11
-3.03
-2.21
-1.77
-1.68
-1.84
-2.04
-2.12
-1.93
-1.45
-0.73
0.05
0.74
1.19
1.35
1.26
1.04
0.82
0.72
0.80
1.10
1.57
2.21
2.94
3.69
4.39
4.94
5.26
5.33
5.18
4.91
4.66
4.52
4.50
4.52
4.46
4.27
3.95
3.62
3.40
3.33
3.36
3.36
3.26
3.02
2.71
2.38
2.04
1.66
1.20
0.65
0.13
-0.27
-0.47
-0.53
-0.57
-0.75
-1.14
-1.71
-2.37
-3.00
-3.53
-3.92
-4.21
-4.42
-4.61
-4.75
-4.84
-4.85
-4.77
-4.60
-4.34
-4.03
-3.68
-3.28
-2.82
-2.29
-1.64
-0.91
-0.16
0.54
1.09
1.46
1.69
1.85
2.05
2.37
2.80
3.26
3.60
3.69
3.51
3.13
2.72
2.44
2.36
2.42
2.47
2.37
2.09
1.73
1.44
1.34
1.41
1.51
1.46
1.20
0.77
0.31
-0.06
-0.29
-0.46
-0.67
-0.98
-1.37
-1.71
-1.90
-1.90
-1.75
-1.58
-1.52
-1.61
-1.85
-2.15
-2.40
-2.48
-2.32
-1.89
-1.27
-0.57
0.06
0.49
0.67
0.65
0.56
0.54
0.70
1.08
1.64
2.26
2.81
3.14
3.16
2.82
2.20
1.42
0.69
0.16
-0.11
-0.15
-0.06
0.04
0.06
-0.01
-0.13
-0.27
-0.40
-0.49
-0.55
-0.58
-0.60
-0.64
-0.71
-0.83
-0.96
-1.06
-1.11
-1.13
-1.15
-1.23
-1.36
-1.47
-1.47
-1.32
-1.07
-0.78
-0.55
-0.40
-0.28
-0.14
0.03
0.15
0.14
-0.10
-0.55
-1.08
-1.55
-1.81
-1.86
-1.76
-1.61
-1.52
-1.52
-1.54
-1.51
-1.33
-0.99
-0.57
-0.21
-0.05
-0.17
-0.52
-0.96
-1.30
-1.41
-1.24
-0.89
-0.49
-0.15
0.05
0.10
0.05
-0.04
-0.12
-0.19
-0.29
-0.45
-0.69
-0.94
-1.08
-1.03
-0.77
-0.41
-0.14
-0.13
-0.43
-0.96
-1.54
-2.01
-2.29
-2.37
-2.32
-2.16
-1.89
-1.49
-0.95
-0.35
0.26
0.79
1.23
1.59
1.92
2.25
2.58
2.93
3.29
3.63
3.92
4.11
4.15
4.04
3.82
3.56
3.29
3.00
2.67
2.23
1.67
1.03
0.40
-0.14
-0.52
-0.69
-0.68
-0.55
-0.38
-0.28
-0.33
-0.57
-0.94
-1.35
-1.68
-1.84
-1.78
-1.55
-1.24
-0.94
-0.75
-0.69
-0.72
-0.77
-0.77
-0.68
-0.50
-0.27
-0.05
0.13
0.25
0.33
0.36
0.32
0.16
-0.15
-0.60
-1.13
-1.61
-1.91
-1.91
-1.61
-1.12
-0.60
-0.24
-0.15
-0.29
-0.53
-0.74
-0.79
-0.71
-0.58
-0.52
-0.60
-0.77
-0.97
-1.08
-1.06
-0.91
-0.69
-0.44
-0.18
0.08
0.32
0.51
0.61
0.60
0.52
0.42
0.36
0.36
0.39
0.39
0.31
0.13
-0.11
-0.33
-0.47
-0.55
-0.56
-0.56
-0.53
-0.43
-0.25
0.03
0.35
0.62
0.75
0.68
0.46
0.17
-0.06
-0.15
-0.09
0.05
0.18
0.23
0.21
0.16
0.15
0.21
0.34
0.49
0.56
0.54
0.43
0.30
0.19
0.10
0.01
-0.12
-0.29
-0.47
-0.65
-0.78
-0.89
-1.00
-1.14
-1.29
-1.40
-1.39
-1.25
-0.98
-0.64
-0.33
-0.11
-0.05
-0.12
-0.29
-0.49
-0.66
-0.73
-0.70
-0.59
-0.42
-0.26
-0.11
0.00
0.10
0.21
0.38
0.62
0.93
1.25
1.52
1.67
1.67
1.57
1.40
1.20
0.99
0.74
0.43
0.08
-0.26
-0.51
-0.56
-0.37
0.01
0.45
0.77
0.85
0.67
0.34
-0.00
-0.21
-0.25
-0.16
-0.04
0.05
0.11
0.16
0.20
0.19
0.07
-0.15
-0.42
-0.61
-0.67
-0.61
-0.54
-0.55
-0.71
-0.97
-1.23
-1.38
-1.36
-1.15
-0.84
-0.52
-0.34
-0.40
-0.69
-1.12
-1.50
-1.62
-1.40
-0.85
-0.15
0.51
0.98
1.19
1.18
1.02
0.74
0.37
-0.05
-0.44
-0.72
-0.80
-0.65
-0.33
0.05
0.36
0.50
0.44
0.19
-0.16
-0.52
-0.83
-1.05
-1.17
-1.20
-1.15
-1.04
-0.91
-0.79
-0.75
-0.82
-1.01
-1.28
-1.51
-1.63
-1.56
-1.32
-0.99
-0.69
-0.55
-0.59
-0.76
-0.94
-1.01
-0.90
-0.64
-0.35
-0.14
-0.06
-0.09
-0.14
-0.14
-0.06
0.06
0.16
0.20
0.17
0.12
0.09
0.10
0.14
0.14
0.03
-0.24
-0.63
-1.05
-1.39
-1.54
-1.45
-1.17
-0.81
-0.49
-0.33
-0.40
-0.71
-1.19
-1.76
-2.29
-2.70
-2.91
-2.89
-2.68
-2.36
-2.04
-1.84
-1.81
-1.91
-2.05
-2.11
-2.07
-1.95
-1.87
-1.91
-2.08
-2.29
-2.43
-2.43
-2.31
-2.14
-1.95
-1.71
-1.31
-0.65
0.28
1.36
2.41
3.24
3.78
4.02
4.03
3.88
3.61
3.28
2.98
2.80
2.81
2.97
3.18
3.28
3.16
2.82
2.37
1.94
1.67
1.60
1.65
1.71
1.64
1.40
0.99
0.53
0.14
-0.05
-0.01
0.24
0.59
0.90
1.06
1.04
0.87
0.65
0.50
0.51
0.68
0.98
1.33
1.66
1.93
2.13
2.25
2.31
2.34
2.36
2.41
2.53
2.71
2.98
3.28
3.58
3.83
4.01
4.06
3.94
3.65
3.19
2.63
2.07
1.62
1.32
1.18
1.13
1.08
0.96
0.70
0.30
-0.24
-0.92
-1.68
-2.44
-3.10
-3.56
-3.76
-3.74
-3.61
-3.50
-3.47
-3.49
-3.46
-3.27
-2.90
-2.45
-2.11
-2.04
-2.32
-2.86
-3.48
-3.94
-4.12
-3.96
-3.55
-3.04
-2.53
-2.10
-1.76
-1.49
-1.28
-1.10
-0.92
-0.74
-0.53
-0.25
0.07
0.42
0.75
1.02
1.20
1.33
1.43
1.52
1.57
1.54
1.40
1.18
0.95
0.76
0.63
0.53
0.38
0.10
-0.35
-0.94
-1.58
-2.19
-2.71
-3.09
-3.32
-3.38
-3.26
-2.99
-2.61
-2.18
-1.76
-1.39
-1.10
-0.94
-0.94
-1.11
-1.39
-1.75
-2.10
-2.37
-2.51
-2.51
-2.42
-2.28
-2.18
-2.18
-2.32
-2.60
-3.01
-3.49
-3.99
-4.42
-4.72
-4.84
-4.75
-4.48
-4.09
-3.66
-3.26
-2.95
-2.72
-2.51
-2.29
-2.03
-1.71
-1.31
-0.83
-0.24
0.46
1.24
2.02
2.70
3.22
3.56
3.83
4.13
4.58
5.14
5.69
6.06
6.14
5.95
5.66
5.45
5.41
5.49
5.55
5.41
5.04
4.54
4.10
3.89
3.96
4.20
4.44
4.52
4.36
4.03
3.68
3.41
3.25
3.11
2.90
2.55
2.09
1.64
1.31
1.17
1.20
1.30
1.37
1.35
1.26
1.13
0.97
0.78
0.55
0.28
0.04
-0.12
-0.19
-0.23
-0.35
-0.68
-1.29
-2.10
-2.99
-3.78
-4.30
-4.50
-4.45
-4.27
-4.11
-4.08
-4.18
-4.37
-4.55
-4.65
-4.64
-4.50
-4.28
-4.01
-3.74
-3.49
-3.24
-2.94
-2.51
-1.91
-1.15
-0.30
0.55
1.30
1.91
2.37
2.69
2.88
2.94
2.87
2.72
2.54
2.44
2.51
2.76
3.15
3.59
3.93
4.08
4.01
3.77
3.50
3.33
3.33
3.47
3.62
3.64
3.48
3.15
2.79
2.52
2.36
2.28
2.20
2.09
2.02
2.10
2.41
2.91
3.44
3.79
3.82
3.55
3.09
2.57
2.11
1.72
1.37
1.03
0.69
0.39
0.14
-0.01
-0.07
-0.09
-0.11
-0.18
-0.31
-0.48
-0.68
-0.87
-1.07
-1.29
-1.57
-1.91
-2.27
-2.58
-2.79
-2.88
-2.90
-2.90
-2.93
-2.94
-2.84
-2.58
-2.13
-1.54
-0.90
-0.33
0.12
0.42
0.57
0.60
0.49
0.25
-0.12
-0.57
-1.02
-1.34
-1.45
-1.30
-0.96
-0.56
-0.28
-0.24
-0.50
-0.95
-1.42
-1.70
-1.64
-1.28
-0.73
-0.17
0.29
0.58
0.72
0.75
0.71
0.64
0.58
0.60
0.75
1.04
1.40
1.68
1.77
1.60
1.20
0.67
0.14
-0.30
-0.57
-0.68
-0.64
-0.46
-0.16
0.23
0.72
1.22
1.69
2.01
2.11
1.97
1.64
1.25
0.93
0.78
0.80
0.89
0.93
0.80
0.49
0.05
-0.39
-0.72
-0.89
-0.92
-0.86
-0.78
-0.69
-0.61
-0.55
-0.49
-0.45
-0.44
-0.44
-0.44
-0.40
-0.32
-0.25
-0.25
-0.32
-0.41
-0.45
-0.35
-0.09
0.22
0.43
0.43
0.20
-0.14
-0.34
-0.20
0.36
1.23
2.19
2.99
3.50
3.75
3.82
3.84
3.83
3.76
3.56
3.20
2.76
2.29
1.87
1.47
1.05
0.52
-0.10
-0.80
-1.54
-2.26
-2.93
-3.48
-3.83
-3.90
-3.69
-3.27
-2.81
-2.46
-2.26
-2.17
-2.08
-1.95
-1.78
-1.68
-1.70
-1.86
-2.10
-2.34
-2.51
-2.61
-2.68
-2.76
-2.85
-2.94
-2.97
-2.88
-2.68
-2.40
-2.17
-2.09
-2.20
-2.47
-2.73
-2.81
-2.61
-2.13
-1.52
-0.98
-0.65
-0.58
-0.70
-0.91
-1.08
-1.13
-1.05
-0.90
-0.74
-0.61
-0.55
-0.54
-0.54
-0.51
-0.43
-0.30
-0.12
0.09
0.32
0.54
0.72
0.80
0.73
0.48
0.10
-0.36
-0.82
-1.19
-1.44
-1.51
-1.39
-1.10
-0.69
-0.26
0.09
0.30
0.35
0.34
0.37
0.52
0.74
0.94
0.97
0.82
0.55
0.34
0.29
0.42
0.61
0.76
0.78
0.73
0.72
0.83
1.08
1.36
1.54
1.52
1.26
0.83
0.32
-0.13
-0.40
-0.42
-0.22
0.10
0.36
0.45
0.36
0.21
0.11
0.14
0.27
0.39
0.42
0.37
0.33
0.35
0.48
0.67
0.84
0.94
0.96
0.93
0.89
0.81
0.69
0.53
0.35
0.21
0.16
0.19
0.26
0.30
0.27
0.16
0.01
-0.11
-0.14
-0.03
0.16
0.35
0.41
0.29
0.04
-0.25
-0.44
-0.52
-0.52
-0.60
-0.83
-1.23
-1.66
-1.95
-1.99
-1.74
-1.33
-0.92
-0.64
-0.58
-0.71
-0.97
-1.25
-1.44
-1.49
-1.40
-1.24
-1.12
-1.12
-1.22
-1.33
-1.34
-1.16
-0.83
-0.44
-0.13
0.03
0.00
-0.16
-0.39
-0.63
-0.82
-0.99
-1.11
-1.17
-1.14
-0.95
-0.57
-0.03
0.61
1.18
1.54
1.64
1.50
1.25
1.01
0.83
0.63
0.30
-0.18
-0.75
-1.22
-1.44
-1.36
-1.06
-0.73
-0.48
-0.37
-0.35
-0.34
-0.29
-0.22
-0.15
-0.12
-0.12
-0.17
-0.28
-0.44
-0.62
-0.76
-0.80
-0.70
-0.49
-0.23
0.04
0.28
0.48
0.62
0.69
0.63
0.44
0.17
-0.11
-0.37
-0.59
-0.77
-0.85
-0.75
-0.39
0.21
0.90
1.47
1.76
1.75
1.59
1.44
1.40
1.45
1.44
1.25
0.85
0.34
-0.10
-0.29
-0.15
0.29
0.88
1.45
1.82
1.90
1.70
1.34
0.98
0.73
0.60
0.47
0.20
-0.28
-0.90
-1.49
-1.83
-1.84
-1.57
-1.20
-0.93
-0.84
-0.92
-1.07
-1.18
-1.22
-1.23
-1.27
-1.41
-1.65
-1.89
-2.04
-1.99
-1.72
-1.26
-0.76
-0.36
-0.18
-0.24
-0.44
-0.62
-0.67
-0.53
-0.27
0.00
0.21
0.35
0.42
0.46
0.43
0.31
0.06
-0.27
-0.57
-0.70
-0.56
-0.16
0.39
0.89
1.19
1.21
1.05
0.81
0.65
0.60
0.63
0.63
0.54
0.35
0.14
-0.04
-0.16
-0.24
-0.34
-0.46
-0.60
-0.76
-0.97
-1.27
-1.68
-2.13
-2.53
-2.76
-2.82
-2.78
-2.76
-2.89
-3.19
-3.58
-3.93
-4.16
-4.21
-4.12
-3.94
-3.74
-3.59
-3.53
-3.62
-3.86
-4.18
-4.47
-4.62
-4.54
-4.23
-3.76
-3.26
-2.88
-2.71
-2.79
-3.11
-3.59
-4.14
-4.72
-5.25
-5.71
-6.07
-6.32
-6.42
-6.37
-6.17
-5.88
-5.59
-5.39
-5.33
-5.44
-5.67
-6.00
-6.41
-6.94
-7.70
-8.80
-10.33
-12.28
-14.52
-16.88
-19.22
-21.47
-23.69
-26.06
-28.76
-31.90
-35.46
-39.27
-43.06
-46.54
-49.44
-51.58
-52.94
-53.54
-53.46
-52.76
-51.47
-49.59
-47.15
-44.28
-41.15
-37.99
-35.04
-32.44
-30.27
-28.39
-26.44
-23.70
-19.26
-12.16
-1.86
11.43
26.62
41.93
55.50
65.96
72.86
76.62
78.15
78.26
77.28
75.05
71.23
65.66
58.61
50.74
42.79
35.32
28.52
22.34
16.69
11.54
7.05
3.40
0.71
-1.04
-2.01
-2.39
-2.33
-1.93
-1.23
-0.29
0.84
2.12
3.59
5.29
7.24
9.42
11.74
14.07
16.34
18.57
20.83
23.21
25.78
28.52
31.35
34.14
36.70
38.84
40.35
41.07
40.93
39.98
38.41
36.44
34.28
32.05
29.80
27.50
25.10
22.45
19.42
15.89
11.95
7.90
4.29
1.69
0.46
0.61
1.75
3.29
4.70
5.65
6.13
6.25
6.14
5.84
5.34
4.68
3.99
3.43
3.12
3.07
3.16
3.18
2.96
2.42
1.62
0.69
-0.20
-0.93
-1.50
-2.00
-2.62
-3.56
-4.96
-6.89
-9.25
-11.91
-14.72
-17.55
-20.27
-22.74
-24.79
-26.25
-26.97
-26.93
-26.24
-25.05
-23.56
-21.97
-20.41
-19.03
-17.98
-17.37
-17.16
-17.17
-17.01
-16.34
-14.93
-12.86
-10.42
-8.02
-5.93
-4.16
-2.51
-0.68
1.50
4.01
6.66
9.18
11.38
13.18
14.54
15.49
16.03
16.17
15.98
15.53
14.91
14.15
13.29
12.35
11.38
10.51
9.81
9.34
9.02
8.73
8.37
7.90
7.36
6.80
6.24
5.62
4.84
3.85
2.68
1.46
0.41
-0.26
-0.47
-0.27
0.18
0.64
0.94
0.99
0.83
0.56
0.29
0.09
-0.02
-0.06
-0.07
-0.07
-0.09
-0.14
-0.24
-0.39
-0.57
-0.77
-0.95
-1.12
-1.28
-1.42
-1.53
-1.59
-1.63
-1.66
-1.69
-1.72
-1.71
-1.58
-1.29
-0.87
-0.36
0.13
0.53
0.81
1.00
1.18
1.44
1.86
2.48
3.29
4.24
5.23
6.15
6.89
7.38
7.57
7.48
7.16
6.73
6.31
5.97
5.68
5.29
4.66
3.69
2.45
1.16
0.08
-0.66
-1.09
-1.37
-1.61
-1.79
-1.71
-1.15
-0.02
1.55
3.26
4.75
5.81
6.44
6.79
7.05
7.36
7.70
7.98
8.05
7.80
7.19
6.21
4.91
3.40
1.83
0.37
-0.79
-1.59
-2.07
-2.52
-3.41
-5.27
-8.49
-13.09
-18.57
-24.05
-28.53
-31.34
-32.44
-32.34
-31.87
-31.71
-32.04
-32.58
-32.81
-32.33
-31.04
-29.18
-27.04
-24.77
-22.36
-19.68
-16.71
-13.61
-10.65
-8.15
-6.28
-4.99
-4.08
-3.26
-2.28
-1.08
0.24
1.40
2.12
2.26
1.89
1.29
0.83
0.78
1.21
1.98
2.82
3.50
3.90
4.04
3.96
3.73
3.42
3.10
2.85
2.77
2.91
3.23
3.60
3.81
3.67
3.09
2.14
1.04
0.07
-0.49
-0.55
-0.17
0.41
0.93
1.22
1.24
1.05
0.76
0.46
0.16
-0.18
-0.60
-1.08
-1.56
-2.01
-2.40
-2.73
-3.02
-3.25
-3.35
-3.24
-2.83
-2.12
-1.20
-0.27
0.44
0.77
0.72
0.46
0.30
0.54
1.32
2.57
4.03
5.38
6.39
7.04
7.48
7.92
8.51
9.29
10.14
10.90
11.41
11.62
11.49
11.07
10.38
9.42
8.22
6.84
5.44
4.18
3.23
2.69
2.58
2.81
3.25
3.76
4.20
4.48
4.57
4.44
4.15
3.76
3.39
3.13
3.05
3.12
3.28
3.40
3.42
3.34
3.23
3.18
3.31
3.65
4.11
4.56
4.79
4.63
4.02
3.00
1.76
0.54
-0.44
-1.02
-1.13
-0.84
-0.24
0.51
1.22
1.72
1.90
1.68
1.13
0.34
-0.55
-1.42
-2.22
-2.87
-3.30
-3.46
-3.33
-3.01
-2.70
-2.62
-2.91
-3.56
-4.42
-5.28
-5.99
-6.47
-6.76
-6.95
-7.09
-7.19
-7.17
-6.93
-6.38
-5.48
-4.29
-2.91
-1.48
-0.13
1.07
2.09
2.92
3.55
3.95
4.09
3.95
3.55
2.94
2.17
1.31
0.42
-0.41
-1.08
-1.49
-1.61
-1.49
-1.26
-1.13
-1.23
-1.64
-2.30
-3.08
-3.83
-4.48
-5.02
-5.54
-6.12
-6.80
-7.54
-8.20
-8.63
-8.71
-8.43
-7.84
-7.10
-6.34
-5.66
-5.12
-4.70
-4.38
-4.11
-3.86
-3.58
-3.27
-2.91
-2.48
-1.98
-1.41
-0.79
-0.15
0.50
1.14
1.74
2.23
2.53
2.60
2.44
2.13
1.74
1.39
1.15
1.09
1.26
1.68
2.35
3.21
4.14
4.93
5.41
5.44
5.03
4.28
3.41
2.64
2.09
1.80
1.69
1.62
1.49
1.25
0.90
0.51
0.14
-0.17
-0.40
-0.54
-0.61
-0.63
-0.66
-0.77
-0.98
-1.26
-1.57
-1.89
-2.21
-2.58
-2.96
-3.25
-3.28
-2.93
-2.17
-1.15
-0.14
0.65
1.10
1.28
1.39
1.60
2.02
2.60
3.18
3.61
3.77
3.66
3.37
3.00
2.65
2.36
2.11
1.84
1.51
1.13
0.77
0.52
0.42
0.44
0.46
0.37
0.15
-0.12
-0.29
-0.20
0.19
0.79
1.42
1.95
2.27
2.38
2.35
2.24
2.09
1.94
1.80
1.66
1.52
1.34
1.14
0.96
0.88
0.95
1.17
1.48
1.74
1.91
1.98
2.03
2.13
2.24
2.23
1.92
1.23
0.24
-0.79
-1.54
-1.82
-1.58
-1.01
-0.33
0.27
0.76
1.21
1.73
2.32
2.85
3.12
2.98
2.40
1.56
0.70
0.05
-0.31
-0.45
-0.49
-0.56
-0.70
-0.91
-1.18
-1.51
-1.91
-2.38
-2.83
-3.20
-3.41
-3.51
-3.59
-3.74
-3.96
-4.17
-4.21
-3.99
-3.51
-2.94
-2.45
-2.18
-2.15
-2.25
-2.31
-2.24
-2.03
-1.75
-1.49
-1.33
-1.28
-1.25
-1.17
-0.96
-0.63
-0.22
0.17
0.47
0.63
0.65
0.53
0.33
0.09
-0.12
-0.28
-0.38
-0.44
-0.48
-0.55
-0.63
-0.68
-0.65
-0.49
-0.15
0.38
1.07
1.83
2.52
3.02
3.22
3.12
2.81
2.41
2.07
1.86
1.79
1.78
1.77
1.74
1.73
1.79
1.94
2.12
2.20
2.02
1.52
0.75
-0.12
-0.88
-1.35
-1.50
-1.37
-1.12
-0.84
-0.63
-0.49
-0.45
-0.49
-0.61
-0.78
-0.96
-1.08
-1.11
-1.06
-0.94
-0.84
-0.77
-0.75
-0.75
-0.77
-0.79
-0.83
-0.94
-1.09
-1.23
-1.28
-1.19
-0.98
-0.70
-0.46
-0.30
-0.21
-0.16
-0.11
-0.08
-0.12
-0.34
-0.78
-1.37
-1.97
-2.32
-2.22
-1.55
-0.43
0.85
1.91
2.47
2.47
2.08
1.60
1.30
1.26
1.36
1.43
1.34
1.12
0.89
0.76
0.78
0.86
0.89
0.77
0.55
0.31
0.20
0.30
0.60
1.01
1.41
1.67
1.68
1.41
0.87
0.17
-0.48
-0.85
-0.77
-0.20
0.72
1.68
2.36
2.58
2.38
2.01
1.73
1.72
1.96
2.25
2.40
2.31
2.00
1.65
1.44
1.43
1.61
1.84
1.97
1.91
1.64
1.18
0.60
-0.04
-0.68
-1.23
-1.60
-1.73
-1.59
-1.21
-0.72
-0.24
0.18
0.54
0.85
1.10
1.23
1.15
0.82
0.36
-0.06
-0.27
-0.21
0.02
0.19
0.16
-0.12
-0.54
-0.94
-1.19
-1.31
-1.39
-1.56
-1.86
-2.28
-2.74
-3.16
-3.48
-3.68
-3.78
-3.82
-3.83
-3.85
-3.87
-3.88
-3.85
-3.75
-3.60
-3.39
-3.11
-2.73
-2.21
-1.58
-0.92
-0.34
0.01
0.10
-0.05
-0.30
-0.51
-0.56
-0.41
-0.13
0.20
0.44
0.51
0.39
0.08
-0.34
-0.80
-1.19
-1.43
-1.51
-1.43
-1.30
-1.20
-1.24
-1.43
-1.67
-1.80
-1.66
-1.14
-0.26
0.84
1.92
2.73
3.15
3.18
2.97
2.74
2.70
2.93
3.36
3.81
4.10
4.14
3.94
3.62
3.29
2.99
2.71
2.38
1.96
1.51
1.15
0.97
0.97
1.01
0.90
0.48
-0.25
-1.13
-1.97
-2.61
-3.01
-3.20
-3.22
-3.06
-2.67
-2.04
-1.26
-0.54
-0.13
-0.14
-0.52
-1.06
-1.51
-1.67
-1.54
-1.21
-0.91
-0.79
-0.95
-1.29
-1.64
-1.76
-1.54
-1.04
-0.48
-0.11
-0.08
-0.38
-0.83
-1.25
-1.51
-1.59
-1.52
-1.35
-1.05
-0.56
0.10
0.85
1.52
1.96
2.08
1.94
1.66
1.37
1.11
0.88
0.62
0.28
-0.14
-0.55
-0.84
-0.93
-0.76
-0.37
0.16
0.74
1.25
1.61
1.74
1.61
1.24
0.68
0.04
-0.55
-0.99
-1.19
-1.07
-0.60
0.19
1.16
2.08
2.69
2.79
2.38
1.66
0.93
0.47
0.42
0.70
1.16
1.59
1.88
1.98
1.95
1.85
1.75
1.73
1.84
2.13
2.57
3.02
3.32
3.31
2.91
2.24
1.49
0.89
0.58
0.56
0.72
0.92
1.01
0.95
0.76
0.51
0.24
0.02
-0.15
-0.26
-0.33
-0.42
-0.57
-0.84
-1.25
-1.73
-2.20
-2.57
-2.80
-2.94
-3.10
-3.42
-3.95
-4.62
-5.31
-5.84
-6.07
-5.98
-5.68
-5.37
-5.25
-5.41
-5.79
-6.16
-6.25
-5.91
-5.14
-4.09
-3.00
-2.00
-1.15
-0.39
0.28
0.85
1.23
1.36
1.28
1.10
1.00
1.04
1.20
1.34
1.34
1.18
0.96
0.84
0.98
1.41
2.03
2.60
2.89
2.77
2.26
1.55
0.92
0.59
0.67
1.09
1.64
2.09
2.31
2.27
2.09
1.92
1.86
1.94
2.10
2.27
2.43
2.58
2.76
3.01
3.27
3.43
3.39
3.09
2.56
1.94
1.40
1.02
0.85
0.81
0.81
0.77
0.65
0.44
0.17
-0.13
-0.43
-0.67
-0.85
-0.95
-0.99
-1.02
-1.09
-1.21
-1.39
-1.62
-1.90
-2.26
-2.71
-3.24
-3.76
-4.15
-4.31
-4.21
-3.89
-3.49
-3.14
-2.93
-2.87
-2.87
-2.83
-2.67
-2.39
-2.08
-1.78
-1.53
-1.30
-1.00
-0.62
-0.20
0.17
0.41
0.50
0.49
0.50
0.62
0.90
1.30
1.76
2.19
2.50
2.62
2.47
2.03
1.36
0.62
0.03
-0.20
0.00
0.57
1.29
1.88
2.15
2.06
1.71
1.32
1.08
1.09
1.28
1.54
1.71
1.74
1.70
1.75
2.04
2.57
3.16
3.60
3.73
3.65
3.65
4.02
4.92
6.19
7.43
8.26
8.45
8.07
7.43
6.84
6.47
6.34
6.32
6.24
6.04
5.70
5.23
4.58
3.66
2.32
0.45
-1.97
-4.81
-7.83
-10.72
-13.17
-14.98
-16.03
-16.32
-15.88
-14.85
-13.39
-11.68
-9.90
-8.19
-6.62
-5.21
-3.96
-2.84
-1.85
-0.97
-0.24
0.25
0.39
0.07
-0.78
-2.10
-3.69
-5.26
-6.57
-7.46
-7.89
-7.92
-7.65
-7.17
-6.57
-5.95
-5.39
-4.97
-4.68
-4.43
-3.98
-3.12
-1.69
0.28
2.56
4.79
6.61
7.80
8.32
8.30
7.98
7.54
7.07
6.58
6.04
5.49
5.02
4.72
4.65
4.73
4.77
4.58
4.07
3.31
2.51
1.90
1.61
1.57
1.56
1.39
0.99
0.47
0.08
0.03
0.38
1.03
1.72
2.17
2.23
1.92
1.42
0.98
0.77
0.86
1.15
1.44
1.57
1.45
1.15
0.86
0.72
0.76
0.87
0.86
0.61
0.13
-0.46
-0.94
-1.18
-1.16
-0.96
-0.76
-0.74
-1.00
-1.53
-2.22
-2.88
-3.30
-3.36
-3.03
-2.40
-1.64
-0.95
-0.40
-0.01
0.29
0.56
0.81
0.99
1.00
0.74
0.23
-0.40
-0.94
-1.18
-1.03
-0.53
0.07
0.54
0.70
0.56
0.20
-0.20
-0.55
-0.85
-1.15
-1.50
-1.95
-2.47
-3.04
-3.58
-4.02
-4.25
-4.21
-3.91
-3.41
-2.82
-2.22
-1.67
-1.19
-0.74
-0.31
0.10
0.49
0.88
1.26
1.58
1.78
1.78
1.56
1.19
0.85
0.68
0.77
1.04
1.35
1.56
1.64
1.61
1.54
1.48
1.43
1.36
1.23
1.04
0.80
0.55
0.29
0.02
-0.24
-0.46
-0.57
-0.51
-0.24
0.18
0.67
1.10
1.37
1.48
1.48
1.46
1.45
1.44
1.35
1.14
0.87
0.67
0.70
0.99
1.44
1.82
1.95
1.75
1.33
0.87
0.52
0.32
0.23
0.20
0.17
0.11
-0.04
-0.33
-0.83
-1.50
-2.18
-2.64
-2.66
-2.21
-1.43
-0.58
0.09
0.45
0.54
0.50
0.50
0.63
0.91
1.30
1.69
1.98
2.07
1.97
1.69
1.35
1.06
0.89
0.83
0.84
0.88
0.98
1.17
1.47
1.83
2.11
2.11
1.75
1.03
0.13
-0.70
-1.22
-1.29
-0.95
-0.33
0.33
0.86
1.12
1.13
0.98
0.78
0.61
0.48
0.36
0.20
-0.02
-0.25
-0.47
-0.59
-0.60
-0.51
-0.37
-0.29
-0.35
-0.59
-0.98
-1.37
-1.63
-1.67
-1.50
-1.22
-0.99
-0.92
-1.05
-1.35
-1.70
-2.02
-2.21
-2.21
-2.01
-1.64
-1.15
-0.60
-0.04
0.49
0.96
1.29
1.40
1.24
0.82
0.26
-0.25
-0.58
-0.71
-0.77
-0.92
-1.24
-1.63
-1.87
-1.76
-1.21
-0.41
0.34
0.73
0.62
0.11
-0.55
-1.08
-1.30
-1.27
-1.15
-1.14
-1.40
-1.92
-2.60
-3.25
-3.69
-3.76
-3.40
-2.67
-1.70
-0.71
0.13
0.70
1.05
1.25
1.40
1.55
1.67
1.68
1.58
1.40
1.25
1.21
1.28
1.37
1.38
1.26
1.07
0.92
0.89
0.99
1.15
1.30
1.39
1.46
1.51
1.57
1.56
1.42
1.10
0.61
0.01
-0.60
-1.14
-1.57
-1.82
-1.87
-1.71
-1.37
-0.92
-0.46
-0.09
0.14
0.23
0.22
0.17
0.14
0.20
0.40
0.76
1.22
1.68
2.01
2.13
2.05
1.88
1.75
1.75
1.86
1.99
1.97
1.73
1.29
0.74
0.20
-0.25
-0.55
-0.72
-0.77
-0.75
-0.74
-0.80
-1.01
-1.34
-1.73
-1.99
-1.99
-1.63
-0.92
-0.00
0.95
1.75
2.27
2.41
2.20
1.75
1.16
0.62
0.22
0.06
0.15
0.43
0.79
1.09
1.18
1.01
0.61
0.10
-0.37
-0.69
-0.86
-0.98
-1.18
-1.49
-1.90
-2.25
-2.40
-2.25
-1.83
-1.21
-0.55
0.07
0.57
0.95
1.24
1.44
1.52
1.45
1.20
0.81
0.37
-0.00
-0.21
-0.19
0.01
0.33
0.64
0.89
1.02
1.03
0.92
0.67
0.29
-0.18
-0.63
-0.95
-1.07
-1.00
-0.82
-0.66
-0.58
-0.60
-0.66
-0.70
-0.68
-0.60
-0.48
-0.33
-0.12
0.18
0.56
0.95
1.25
1.35
1.16
0.69
0.04
-0.63
-1.12
-1.29
-1.13
-0.74
-0.30
0.03
0.17
0.17
0.13
0.09
0.03
-0.15
-0.54
-1.13
-1.85
-2.53
-3.06
-3.39
-3.54
-3.52
-3.36
-3.04
-2.55
-1.93
-1.30
-0.78
-0.45
-0.31
-0.26
-0.16
0.10
0.56
1.15
1.72
2.08
2.11
1.82
1.36
0.95
0.78
0.91
1.24
1.52
1.54
1.21
0.62
-0.01
-0.44
-0.55
-0.37
-0.08
0.11
0.06
-0.28
-0.81
-1.36
-1.75
-1.84
-1.59
-1.05
-0.33
0.40
1.00
1.36
1.45
1.32
1.08
0.86
0.77
0.83
1.00
1.16
1.21
1.16
1.04
0.96
0.98
1.09
1.19
1.24
1.21
1.15
1.15
1.20
1.24
1.15
0.82
0.26
-0.47
-1.21
-1.83
-2.21
-2.28
-2.04
-1.54
-0.90
-0.26
0.21
0.43
0.42
0.31
0.28
0.43
0.77
1.18
1.48
1.52
1.27
0.82
0.31
-0.13
-0.42
-0.57
-0.60
-0.55
-0.43
-0.28
-0.15
-0.08
-0.11
-0.23
-0.41
-0.62
-0.86
-1.15
-1.46
-1.72
-1.85
-1.77
-1.51
-1.18
-0.95
-0.90
-0.99
-1.07
-1.00
-0.74
-0.38
-0.08
0.05
-0.03
-0.20
-0.36
-0.42
-0.36
-0.23
-0.07
0.09
0.26
0.43
0.59
0.67
0.63
0.42
0.04
-0.45
-0.97
-1.43
-1.73
-1.79
-1.56
-1.03
-0.26
0.61
1.43
2.04
2.34
2.30
1.99
1.54
1.08
0.71
0.49
0.42
0.46
0.59
0.76
0.90
0.91
0.78
0.52
0.21
-0.01
-0.05
0.09
0.35
0.59
0.67
0.50
0.06
-0.57
-1.26
-1.89
-2.36
-2.60
-2.63
-2.49
-2.22
-1.80
-1.20
-0.44
0.41
1.16
1.66
1.79
1.60
1.22
0.80
0.43
0.16
-0.03
-0.11
-0.07
0.10
0.33
0.48
0.44
0.19
-0.13
-0.33
-0.29
-0.02
0.31
0.52
0.48
0.20
-0.22
-0.66
-1.08
-1.51
-1.93
-2.34
-2.62
-2.64
-2.36
-1.80
-1.08
-0.38
0.18
0.51
0.64
0.62
0.55
0.50
0.52
0.56
0.56
0.43
0.13
-0.30
-0.77
-1.14
-1.31
-1.25
-0.97
-0.56
-0.16
0.11
0.17
-0.01
-0.36
-0.80
-1.21
-1.51
-1.67
-1.71
-1.70
-1.72
-1.88
-2.21
-2.69
-3.18
-3.45
-3.28
-2.61
-1.53
-0.32
0.68
1.20
1.22
0.86
0.42
0.18
0.31
0.79
1.46
2.12
2.61
2.89
2.98
2.98
2.95
2.90
2.79
2.54
2.12
1.59
1.05
0.66
0.53
0.65
0.96
1.30
1.51
1.50
1.26
0.88
0.49
0.17
-0.04
-0.19
-0.31
-0.38
-0.32
-0.02
0.58
1.42
2.33
3.05
3.38
3.22
2.63
1.79
0.94
0.28
-0.09
-0.13
0.07
0.42
0.78
1.06
1.16
1.03
0.68
0.18
-0.29
-0.56
-0.51
-0.13
0.41
0.87
1.05
0.87
0.41
-0.15
-0.62
-0.92
-1.06
-1.13
-1.18
-1.21
-1.18
-1.06
-0.83
-0.54
-0.25
0.03
0.31
0.59
0.85
1.00
1.01
0.87
0.65
0.49
0.47
0.62
0.86
1.09
1.20
1.14
0.91
0.51
-0.03
-0.67
-1.33
-1.87
-2.18
-2.20
-1.98
-1.63
-1.33
-1.19
-1.25
-1.46
-1.70
-1.87
-1.89
-1.74
-1.41
-0.95
-0.39
0.19
0.74
1.18
1.45
1.50
1.34
0.99
0.54
0.12
-0.15
-0.20
-0.03
0.24
0.48
0.53
0.34
-0.05
-0.49
-0.82
-0.94
-0.79
-0.46
-0.10
0.16
0.24
0.11
-0.17
-0.51
-0.86
-1.17
-1.38
-1.46
-1.37
-1.14
-0.78
-0.33
0.14
0.61
1.04
1.41
1.71
1.91
2.01
2.01
1.90
1.69
1.39
1.01
0.63
0.30
0.11
0.07
0.12
0.16
0.09
-0.11
-0.41
-0.71
-0.90
-0.96
-0.95
-0.95
-1.05
-1.29
-1.61
-1.92
-2.13
-2.18
-2.02
-1.69
-1.22
-0.68
-0.14
0.33
0.68
0.91
1.06
1.19
1.35
1.60
1.89
2.16
2.31
2.28
2.03
1.64
1.23
0.92
0.79
0.83
0.94
1.00
0.93
0.74
0.48
0.24
0.06
-0.09
-0.30
-0.64
-1.14
-1.74
-2.32
-2.80
-3.12
-3.26
-3.20
-2.92
-2.40
-1.65
-0.79
-0.01
0.49
0.60
0.37
-0.04
-0.43
-0.64
-0.65
-0.52
-0.36
-0.26
-0.24
-0.26
-0.23
-0.14
0.02
0.14
0.10
-0.17
-0.64
-1.17
-1.54
-1.58
-1.22
-0.57
0.13
0.63
0.75
0.46
-0.10
-0.69
-1.09
-1.15
-0.86
-0.37
0.16
0.56
0.81
0.96
1.15
1.44
1.80
2.13
2.31
2.32
2.21
2.07
1.93
1.77
1.52
1.15
0.73
0.37
0.21
0.29
0.54
0.79
0.87
0.73
0.42
0.10
-0.11
-0.17
-0.18
-0.26
-0.49
-0.84
-1.16
-1.30
-1.15
-0.72
-0.14
0.43
0.86
1.09
1.14
1.07
0.98
0.91
0.89
0.88
0.85
0.76
0.60
0.42
0.26
0.16
0.07
-0.06
-0.28
-0.55
-0.79
-0.90
-0.85
-0.67
-0.54
-0.61
-0.97
-1.56
-2.20
-2.64
-2.74
-2.48
-2.04
-1.65
-1.49
-1.58
-1.80
-1.98
-2.00
-1.86
-1.66
-1.47
-1.33
-1.21
-1.06
-0.86
-0.65
-0.50
-0.42
-0.37
-0.29
-0.08
0.25
0.70
1.15
1.51
1.71
1.73
1.59
1.34
1.05
0.74
0.45
0.19
-0.03
-0.15
-0.13
0.07
0.41
0.84
1.29
1.70
2.02
2.25
2.36
2.35
2.25
2.08
1.90
1.72
1.58
1.46
1.38
1.31
1.22
1.09
0.90
0.70
0.55
0.53
0.61
0.71
0.68
0.43
-0.07
-0.70
-1.29
-1.71
-1.91
-1.96
-1.95
-1.93
-1.90
-1.78
-1.54
-1.20
-0.86
-0.63
-0.62
-0.79
-1.05
-1.24
-1.24
-1.02
-0.67
-0.28
0.02
0.20
0.28
0.31
0.31
0.31
0.30
0.30
0.32
0.38
0.47
0.59
0.67
0.65
0.53
0.35
0.16
0.04
0.01
0.08
0.16
0.16
0.03
-0.22
-0.53
-0.78
-0.84
-0.68
-0.38
-0.04
0.22
0.38
0.46
0.51
0.56
0.60
0.59
0.54
0.50
0.59
0.85
1.22
1.57
1.72
1.60
1.24
0.80
0.43
0.20
0.10
0.01
-0.13
-0.36
-0.61
-0.86
-1.07
-1.29
-1.56
-1.88
-2.20
-2.45
-2.56
-2.53
-2.36
-2.11
-1.77
-1.35
-0.85
-0.30
0.23
0.69
1.03
1.21
1.24
1.12
0.86
0.55
0.30
0.20
0.31
0.60
0.94
1.21
1.31
1.28
1.19
1.14
1.14
1.13
1.03
0.79
0.45
0.10
-0.14
-0.23
-0.23
-0.26
-0.43
-0.78
-1.21
-1.56
-1.70
-1.57
-1.24
-0.84
-0.51
-0.31
-0.20
-0.08
0.16
0.56
1.03
1.45
1.68
1.64
1.33
0.88
0.46
0.21
0.20
0.40
0.71
0.98
1.14
1.18
1.14
1.10
1.10
1.14
1.19
1.20
1.14
1.02
0.82
0.54
0.14
-0.40
-1.04
-1.68
-2.14
-2.26
-1.98
-1.35
-0.55
0.19
0.68
0.86
0.78
0.58
0.37
0.21
0.11
0.11
0.21
0.42
0.72
1.03
1.23
1.24
1.02
0.62
0.13
-0.33
-0.65
-0.71
-0.46
0.10
0.87
1.66
2.24
2.44
2.18
1.55
0.74
-0.06
-0.73
-1.24
-1.60
-1.85
-1.97
-1.95
-1.77
-1.47
-1.14
-0.90
-0.79
-0.79
-0.82
-0.78
-0.65
-0.50
-0.40
-0.42
-0.51
-0.58
-0.59
-0.59
-0.69
-0.99
-1.50
-2.08
-2.55
-2.76
-2.69
-2.44
-2.19
-2.05
-2.04
-2.07
-2.04
-1.90
-1.68
-1.43
-1.25
-1.15
-1.10
-1.04
-0.92
-0.68
-0.31
0.16
0.68
1.25
1.83
2.40
2.86
3.13
3.14
2.86
2.41
1.95
1.65
1.60
1.78
2.08
2.41
2.70
2.92
3.05
3.07
2.92
2.60
2.13
1.63
1.18
0.84
0.59
0.39
0.22
0.14
0.22
0.49
0.87
1.18
1.27
1.05
0.61
0.12
-0.22
-0.31
-0.16
0.10
0.34
0.48
0.44
0.19
-0.29
-1.05
-2.04
-3.20
-4.36
-5.42
-6.27
-6.90
-7.32
-7.56
-7.61
-7.49
-7.25
-6.98
-6.81
-6.85
-7.17
-7.78
-8.64
-9.65
-10.65
-11.43
-11.78
-11.53
-10.64
-9.16
-7.25
-5.09
-2.84
-0.63
1.43
3.25
4.76
5.94
6.81
7.45
7.94
8.34
8.67
8.92
9.04
9.01
8.82
8.48
8.05
7.63
7.33
7.28
7.50
7.91
8.35
8.62
8.62
8.33
7.84
7.26
6.66
6.04
5.42
4.84
4.39
4.19
4.30
4.66
5.07
5.32
5.27
4.90
4.32
3.70
3.10
2.59
2.14
1.74
1.39
1.14
1.00
0.95
0.94
0.87
0.72
0.48
0.18
-0.12
-0.37
-0.55
-0.66
-0.71
-0.77
-0.90
-1.17
-1.58
-2.10
-2.65
-3.13
-3.44
-3.52
-3.34
-2.94
-2.41
-1.87
-1.41
-1.09
-0.94
-0.92
-0.99
-1.12
-1.23
-1.22
-0.97
-0.44
0.35
1.18
1.84
2.14
2.03
1.64
1.17
0.84
0.71
0.74
0.80
0.71
0.40
-0.16
-0.87
-1.58
-2.18
-2.61
-2.89
-3.11
-3.37
-3.73
-4.21
-4.74
-5.19
-5.46
-5.51
-5.36
-5.10
-4.84
-4.68
-4.68
-4.80
-4.98
-5.11
-5.08
-4.84
-4.38
-3.70
-2.83
-1.80
-0.66
0.51
1.57
2.36
2.81
2.94
2.87
2.78
2.79
2.88
2.98
2.99
2.88
2.69
2.49
2.29
2.02
1.58
0.91
0.08
-0.70
-1.21
-1.29
-0.94
-0.30
0.44
1.11
1.64
2.01
2.26
2.38
2.34
2.10
1.67
1.09
0.48
-0.09
-0.60
-1.08
-1.60
-2.19
-2.78
-3.25
-3.44
-3.29
-2.87
-2.31
-1.79
-1.38
-1.03
-0.61
-0.02
0.73
1.51
2.14
2.46
2.37
1.93
1.27
0.56
-0.09
-0.60
-0.95
-1.18
-1.30
-1.34
-1.36
-1.43
-1.65
-2.06
-2.60
-3.09
-3.28
-2.98
-2.13
-0.90
0.43
1.58
2.38
2.87
3.17
3.44
3.75
4.03
4.20
4.19
4.01
3.75
3.54
3.45
3.48
3.58
3.71
3.83
3.95
4.05
4.09
4.01
3.79
3.46
3.14
2.95
2.91
2.99
3.03
2.89
2.49
1.84
1.04
0.18
-0.66
-1.39
-1.96
-2.30
-2.36
-2.14
-1.74
-1.28
-0.88
-0.61
-0.41
-0.21
0.07
0.45
0.88
1.26
1.45
1.37
1.01
0.41
-0.31
-1.01
-1.55
-1.84
-1.86
-1.61
-1.15
-0.53
0.19
0.94
1.65
2.19
2.46
2.40
2.06
1.54
1.00
0.52
0.15
-0.15
-0.41
-0.65
-0.85
-0.97
-1.02
-1.02
-1.01
-0.99
-0.88
-0.59
-0.04
0.75
1.69
2.63
3.38
3.81
3.80
3.32
2.39
1.11
-0.39
-1.96
-3.48
-4.87
-6.09
-7.10
-7.87
-8.38
-8.60
-8.58
-8.39
-8.07
-7.65
-7.10
-6.41
-5.62
-4.82
-4.11
-3.53
-3.05
-2.61
-2.14
-1.67
-1.29
-1.08
-1.05
-1.15
-1.22
-1.16
-0.92
-0.57
-0.24
-0.04
-0.02
-0.14
-0.28
-0.31
-0.16
0.16
0.55
0.89
1.10
1.17
1.18
1.19
1.24
1.29
1.30
1.21
1.01
0.76
0.51
0.32
0.17
0.02
-0.22
-0.61
-1.13
-1.69
-2.15
-2.41
-2.42
-2.25
-2.03
-1.91
-1.97
-2.17
-2.40
-2.53
-2.48
-2.20
-1.68
-0.96
-0.08
0.88
1.79
2.54
3.04
3.29
3.33
3.26
3.14
3.01
2.87
2.71
2.50
2.24
1.95
1.64
1.32
1.02
0.79
0.63
0.55
0.54
0.56
0.53
0.36
-0.03
-0.61
-1.32
-2.00
-2.48
-2.65
-2.49
-2.06
-1.49
-0.91
-0.38
0.06
0.42
0.69
0.89
1.01
1.08
1.08
0.98
0.73
0.29
-0.32
-0.97
-1.47
-1.66
-1.45
-0.96
-0.41
-0.08
-0.13
-0.57
-1.24
-1.89
-2.37
-2.64
-2.80
-2.92
-3.04
-3.06
-2.85
-2.31
-1.52
-0.66
0.07
0.53
0.77
0.91
1.08
1.35
1.67
1.94
2.07
2.05
1.93
1.77
1.63
1.51
1.44
1.40
1.41
1.47
1.55
1.60
1.61
1.61
1.62
1.66
1.69
1.62
1.37
0.89
0.24
-0.40
-0.82
-0.86
-0.48
0.18
0.94
1.56
1.92
2.02
1.96
1.88
1.88
1.97
2.03
1.95
1.66
1.21
0.77
0.50
0.49
0.68
0.95
1.15
1.19
1.09
0.88
0.58
0.18
-0.33
-0.91
-1.42
-1.70
-1.63
-1.29
-0.88
-0.64
-0.73
-1.11
-1.58
-1.92
-1.96
-1.70
-1.24
-0.70
-0.18
0.25
0.58
0.77
0.82
0.71
0.49
0.21
-0.08
-0.27
-0.28
-0.09
0.27
0.62
0.75
0.46
-0.31
-1.38
-2.37
-2.91
-2.80
-2.10
-1.13
-0.27
0.16
0.10
-0.35
-0.98
-1.61
-2.16
-2.57
-2.83
-2.84
-2.55
-1.95
-1.13
-0.28
0.41
0.83
1.03
1.14
1.33
1.65
2.06
2.40
2.54
2.44
2.16
1.80
1.41
1.02
0.56
0.02
-0.51
-0.92
-1.06
-0.87
-0.40
0.17
0.63
0.80
0.61
0.13
-0.49
-1.02
-1.31
-1.24
-0.88
-0.36
0.10
0.34
0.31
0.09
-0.16
-0.28
-0.19
0.08
0.41
0.67
0.71
0.46
-0.03
-0.64
-1.23
-1.61
-1.68
-1.41
-0.89
-0.20
0.54
1.22
1.78
2.18
2.36
2.27
1.83
1.07
0.09
-0.91
-1.67
-1.98
-1.72
-0.98
0.02
0.95
1.57
1.75
1.59
1.31
1.12
1.10
1.21
1.34
1.40
1.39
1.37
1.42
1.50
1.54
1.42
1.11
0.64
0.13
-0.31
-0.62
-0.80
-0.91
-1.01
-1.16
-1.38
-1.61
-1.83
-1.97
-2.04
-2.06
-2.08
-2.12
-2.13
-2.04
-1.78
-1.40
-1.04
-0.85
-0.93
-1.20
-1.44
-1.43
-1.07
-0.42
0.29
0.84
1.12
1.17
1.16
1.26
1.54
1.94
2.31
2.54
2.63
2.61
2.56
2.51
2.41
2.19
1.80
1.27
0.69
0.16
-0.24
-0.53
-0.71
-0.81
-0.81
-0.66
-0.38
-0.00
0.34
0.54
0.57
0.49
0.40
0.38
0.43
0.45
0.36
0.13
-0.14
-0.30
-0.27
-0.05
0.22
0.40
0.43
0.38
0.36
0.46
0.66
0.84
0.87
0.72
0.44
0.14
-0.11
-0.27
-0.40
-0.52
-0.58
-0.49
-0.18
0.34
0.93
1.42
1.67
1.68
1.58
1.54
1.63
1.77
1.79
1.50
0.88
0.10
-0.58
-0.93
-0.89
-0.59
-0.27
-0.12
-0.14
-0.25
-0.31
-0.27
-0.25
-0.41
-0.86
-1.55
-2.27
-2.75
-2.81
-2.44
-1.79
-1.14
-0.70
-0.57
-0.67
-0.83
-0.88
-0.71
-0.31
0.17
0.58
0.78
0.72
0.46
0.09
-0.26
-0.52
-0.69
-0.77
-0.81
-0.80
-0.71
-0.54
-0.32
-0.10
0.05
0.09
0.02
-0.11
-0.28
-0.47
-0.72
-1.01
-1.31
-1.51
-1.52
-1.28
-0.84
-0.32
0.12
0.40
0.50
0.44
0.32
0.19
0.08
-0.00
-0.08
-0.13
-0.11
0.01
0.27
0.64
1.01
1.26
1.26
1.00
0.58
0.18
-0.06
-0.09
-0.00
0.03
-0.14
-0.50
-0.91
-1.19
-1.21
-1.00
-0.70
-0.46
-0.36
-0.38
-0.43
-0.42
-0.35
-0.26
-0.20
-0.18
-0.17
-0.09
0.08
0.30
0.51
0.65
0.70
0.72
0.74
0.78
0.82
0.81
0.72
0.56
0.36
0.16
-0.04
-0.25
-0.47
-0.64
-0.66
-0.46
-0.07
0.41
0.75
0.83
0.60
0.20
-0.20
-0.50
-0.65
-0.70
-0.66
-0.46
-0.01
0.68
1.46
2.04
2.14
1.67
0.82
-0.02
-0.47
-0.36
0.21
0.92
1.45
1.62
1.47
1.18
0.98
0.94
1.05
1.20
1.29
1.29
1.23
1.18
1.14
1.07
0.91
0.66
0.36
0.12
0.06
0.17
0.33
0.41
0.29
0.00
-0.28
-0.38
-0.21
0.15
0.52
0.72
0.69
0.50
0.31
0.23
0.27
0.34
0.38
0.38
0.42
0.59
0.92
1.32
1.60
1.60
1.23
0.59
-0.15
-0.76
-1.12
-1.23
-1.25
-1.33
-1.57
-1.90
-2.09
-1.96
-1.42
-0.63
0.10
0.46
0.34
-0.16
-0.73
-1.04
-0.94
-0.49
0.07
0.48
0.60
0.44
0.12
-0.17
-0.33
-0.32
-0.18
0.05
0.33
0.65
1.02
1.44
1.86
2.25
2.51
2.60
2.44
2.00
1.32
0.51
-0.23
-0.69
-0.72
-0.36
0.22
0.79
1.18
1.36
1.44
1.54
1.69
1.84
1.85
1.62
1.21
0.75
0.39
0.22
0.20
0.20
0.10
-0.16
-0.54
-0.96
-1.29
-1.48
-1.56
-1.61
-1.75
-2.05
-2.52
-3.05
-3.55
-3.91
-4.12
-4.24
-4.36
-4.52
-4.67
-4.74
-4.65
-4.37
-3.95
-3.47
-2.99
-2.52
-2.02
-1.46
-0.83
-0.19
0.40
0.90
1.29
1.60
1.82
1.95
1.98
1.95
1.90
1.89
1.93
1.96
1.93
1.78
1.56
1.37
1.30
1.36
1.46
1.43
1.16
0.67
0.14
-0.23
-0.30
-0.08
0.25
0.48
0.48
0.27
-0.01
-0.18
-0.12
0.14
0.51
0.87
1.12
1.26
1.27
1.15
0.93
0.63
0.32
0.10
0.07
0.24
0.57
0.92
1.18
1.28
1.19
0.96
0.66
0.35
0.08
-0.13
-0.24
-0.25
-0.17
-0.04
0.09
0.14
0.09
-0.03
-0.17
-0.23
-0.16
0.05
0.32
0.56
0.65
0.56
0.30
-0.06
-0.40
-0.66
-0.80
-0.82
-0.80
-0.76
-0.74
-0.76
-0.82
-0.94
-1.15
-1.46
-1.87
-2.30
-2.69
-2.95
-3.03
-2.96
-2.79
-2.59
-2.39
-2.22
-2.09
-2.00
-1.97
-2.01
-2.13
-2.33
-2.57
-2.81
-2.97
-3.00
-2.88
-2.63
-2.30
-1.98
-1.80
-1.80
-2.01
-2.34
-2.65
-2.82
-2.80
-2.62
-2.38
-2.19
-2.04
-1.86
-1.49
-0.86
0.03
1.03
1.98
2.76
3.34
3.77
4.11
4.36
4.45
4.32
3.98
3.52
3.14
2.97
3.06
3.33
3.60
3.72
3.60
3.27
2.81
2.29
1.78
1.27
0.74
0.20
-0.32
-0.72
-0.94
-0.95
-0.80
-0.57
-0.39
-0.28
-0.23
-0.14
0.11
0.54
1.13
1.74
2.23
2.48
2.45
2.18
1.76
1.26
0.79
0.42
0.18
0.15
0.31
0.62
0.98
1.26
1.40
1.33
1.12
0.85
0.59
0.39
0.24
0.06
-0.19
-0.57
-1.05
-1.57
-2.03
-2.32
-2.40
-2.29
-2.04
-1.69
-1.27
-0.78
-0.22
0.37
0.90
1.21
1.21
0.92
0.47
0.08
-0.11
-0.10
0.03
0.09
0.01
-0.19
-0.37
-0.38
-0.18
0.15
0.44
0.54
0.39
0.07
-0.26
-0.47
-0.53
-0.53
-0.56
-0.67
-0.79
-0.79
-0.51
0.09
0.94
1.82
2.52
2.87
2.85
2.54
2.12
1.75
1.53
1.48
1.57
1.74
1.91
2.05
2.13
2.11
1.96
1.66
1.21
0.69
0.22
-0.09
-0.21
-0.17
-0.10
-0.11
-0.30
-0.63
-1.03
-1.38
-1.57
-1.58
-1.39
-1.03
-0.57
-0.08
0.36
0.62
0.67
0.53
0.28
0.06
-0.08
-0.12
-0.11
-0.09
-0.13
-0.19
-0.26
-0.30
-0.30
-0.27
-0.24
-0.23
-0.24
-0.30
-0.41
-0.60
-0.84
-1.10
-1.34
-1.51
-1.59
-1.54
-1.36
-1.06
-0.69
-0.31
-0.02
0.10
0.03
-0.15
-0.35
-0.47
-0.45
-0.32
-0.13
0.03
0.14
0.18
0.19
0.19
0.19
0.16
0.10
-0.01
-0.16
-0.33
-0.47
-0.57
-0.64
-0.69
-0.75
-0.82
-0.91
-0.99
-1.03
-1.08
-1.18
-1.38
-1.67
-1.96
-2.08
-1.88
-1.33
-0.53
0.29
0.89
1.13
1.06
0.79
0.50
0.28
0.13
0.01
-0.11
-0.19
-0.17
0.00
0.24
0.39
0.30
-0.08
-0.59
-0.95
-0.88
-0.29
0.63
1.50
1.95
1.80
1.17
0.35
-0.35
-0.76
-0.87
-0.80
-0.66
-0.51
-0.35
-0.18
-0.05
-0.05
-0.19
-0.39
-0.46
-0.25
0.27
0.97
1.60
1.93
1.89
1.54
1.10
0.71
0.44
0.22
-0.04
-0.35
-0.63
-0.71
-0.52
-0.09
0.38
0.69
0.74
0.55
0.28
0.06
-0.00
0.08
0.25
0.44
0.63
0.81
0.97
1.11
1.18
1.16
1.08
0.96
0.84
0.71
0.58
0.44
0.32
0.29
0.38
0.56
0.73
0.76
0.56
0.16
-0.33
-0.75
-0.98
-0.99
-0.84
-0.63
-0.44
-0.31
-0.25
-0.23
-0.27
-0.37
-0.55
-0.80
-1.06
-1.29
-1.40
-1.35
-1.15
-0.85
-0.52
-0.26
-0.12
-0.06
-0.00
0.16
0.47
0.88
1.26
1.43
1.29
0.85
0.26
-0.27
-0.56
-0.56
-0.38
-0.19
-0.16
-0.33
-0.65
-0.97
-1.15
-1.15
-1.04
-0.93
-0.92
-1.03
-1.22
-1.40
-1.53
-1.59
-1.63
-1.72
-1.88
-2.07
-2.25
-2.34
-2.32
-2.19
-1.98
-1.68
-1.31
-0.86
-0.32
0.22
0.65
0.82
0.66
0.21
-0.39
-0.93
-1.27
-1.36
-1.27
-1.13
-1.03
-1.00
-1.00
-0.99
-0.97
-1.03
-1.23
-1.55
-1.92
-2.17
-2.19
-1.94
-1.51
-1.05
-0.67
-0.40
-0.18
0.11
0.54
1.11
1.73
2.28
2.68
2.95
3.14
3.37
3.65
3.97
4.26
4.42
4.44
4.29
4.03
3.69
3.35
3.09
2.96
2.96
3.02
3.02
2.84
2.42
1.82
1.14
0.49
-0.07
-0.54
-0.94
-1.27
-1.49
-1.57
-1.48
-1.23
-0.90
-0.58
-0.34
-0.22
-0.18
-0.17
-0.13
-0.06
0.03
0.05
-0.06
-0.29
-0.57
-0.72
-0.64
-0.29
0.17
0.54
0.61
0.31
-0.22
-0.78
-1.16
-1.29
-1.23
-1.13
-1.13
-1.27
-1.52
-1.78
-1.93
-1.91
-1.73
-1.42
-1.02
-0.57
-0.07
0.46
1.01
1.56
2.05
2.41
2.60
2.61
2.55
2.57
2.80
3.26
3.86
4.38
4.61
4.46
4.00
3.39
2.83
2.36
1.96
1.48
0.84
0.04
-0.80
-1.54
-2.08
-2.37
-2.44
-2.32
-2.01
-1.55
-0.95
-0.33
0.18
0.45
0.49
0.38
0.29
0.37
0.66
1.06
1.41
1.53
1.40
1.11
0.87
0.90
1.30
2.03
2.92
3.76
4.42
4.86
5.14
5.28
5.30
5.14
4.74
4.11
3.38
2.73
2.36
2.35
2.67
3.20
3.74
4.17
4.43
4.50
4.39
4.15
3.83
3.47
3.13
2.80
2.44
1.98
1.35
0.54
-0.45
-1.55
-2.71
-3.88
-5.02
-6.09
-7.02
-7.79
-8.39
-8.80
-9.07
-9.18
-9.11
-8.85
-8.42
-7.91
-7.47
-7.25
-7.33
-7.63
-7.96
-8.07
-7.82
-7.18
-6.29
-5.38
-4.65
-4.21
-4.06
-4.10
-4.21
-4.29
-4.29
-4.22
-4.11
-3.97
-3.80
-3.59
-3.31
-2.99
-2.71
-2.60
-2.72
-3.04
-3.36
-3.48
-3.24
-2.69
-1.99
-1.39
-1.04
-0.92
-0.92
-0.89
-0.80
-0.66
-0.52
-0.36
-0.12
0.30
0.88
1.51
2.06
2.46
2.78
3.16
3.77
4.60
5.53
6.33
6.81
6.88
6.57
5.98
5.28
4.59
4.06
3.85
4.03
4.62
5.49
6.44
7.21
7.66
7.74
7.56
7.29
7.06
6.96
6.97
7.03
7.08
7.12
7.21
7.39
7.70
8.08
8.45
8.75
8.92
8.99
9.03
9.12
9.33
9.66
10.15
10.80
11.65
12.73
14.01
15.40
16.69
17.70
18.29
18.42
18.18
17.75
17.35
17.14
17.21
17.53
17.97
18.36
18.52
18.38
17.93
17.27
16.50
15.73
15.05
14.51
14.16
14.04
14.16
14.44
14.67
14.50
13.59
11.72
8.95
5.60
2.15
-0.93
-3.40
-5.30
-6.86
-8.41
-10.13
-12.03
-13.92
-15.60
-17.00
-18.16
-19.24
-20.37
-21.56
-22.70
-23.65
-24.35
-24.89
-25.44
-26.15
-27.03
-27.87
-28.38
-28.26
-27.37
-25.77
-23.63
-21.16
-18.54
-15.85
-13.14
-10.47
-7.90
-5.50
-3.36
-1.51
0.01
1.22
2.12
2.76
3.16
3.33
3.24
2.80
1.93
0.60
-1.15
-3.22
-5.49
-7.91
-10.45
-13.11
-15.80
-18.39
-20.62
-22.27
-23.22
-23.48
-23.17
-22.46
-21.51
-20.37
-19.10
-17.69
-16.15
-14.48
-12.69
-10.77
-8.77
-6.78
-4.94
-3.40
-2.27
-1.63
-1.45
-1.67
-2.19
-2.88
-3.62
-4.28
-4.75
-4.97
-4.95
-4.82
-4.73
-4.83
-5.19
-5.76
-6.44
-7.13
-7.73
-8.22
-8.54
-8.65
-8.46
-7.88
-6.87
-5.48
-3.84
-2.21
-0.89
-0.14
-0.18
-1.02
-2.53
-4.39
-6.20
-7.62
-8.47
-8.83
-8.97
-9.30
-10.15
-11.64
-13.61
-15.59
-16.99
-17.20
-15.85
-12.85
-8.48
-3.25
2.15
7.05
10.94
13.52
14.77
14.90
14.29
13.36
12.47
11.85
11.55
11.47
11.47
11.37
11.02
10.37
9.41
8.23
7.02
6.04
5.60
5.95
7.19
9.17
11.46
13.48
14.67
14.69
13.53
11.51
9.13
6.86
5.02
3.70
2.80
2.11
1.46
0.77
0.04
-0.63
-1.10
-1.29
-1.15
-0.70
-0.03
0.74
1.49
2.11
2.56
2.77
2.73
2.38
1.69
0.66
-0.64
-2.09
-3.52
-4.77
-5.79
-6.62
-7.36
-8.11
-8.87
-9.52
-9.87
-9.77
-9.19
-8.25
-7.22
-6.35
-5.81
-5.56
-5.42
-5.10
-4.30
-2.86
-0.78
1.78
4.53
7.14
9.37
11.06
12.19
12.81
13.01
12.87
12.46
11.88
11.26
10.76
10.46
10.38
10.39
10.29
9.89
9.10
7.98
6.69
5.39
4.18
3.10
2.14
1.24
0.40
-0.38
-1.11
-1.77
-2.32
-2.69
-2.80
-2.53
-1.84
-0.79
0.46
1.70
2.72
3.40
3.71
3.71
3.51
3.24
3.02
2.92
2.98
3.18
3.44
3.67
3.72
3.50
3.00
2.32
1.62
1.07
0.77
0.70
0.76
0.83
0.83
0.73
0.54
0.27
-0.07
-0.45
-0.78
-0.93
-0.76
-0.19
0.72
1.78
2.76
3.47
3.84
3.95
3.95
3.96
4.03
4.14
4.22
4.25
4.27
4.33
4.48
4.62
4.61
4.23
3.35
1.96
0.23
-1.52
-3.00
-4.01
-4.52
-4.65
-4.60
-4.54
-4.55
-4.58
-4.53
-4.31
-3.86
-3.21
-2.42
-1.58
-0.78
-0.08
0.46
0.80
0.95
0.95
0.84
0.62
0.23
-0.43
-1.37
-2.55
-3.81
-4.96
-5.86
-6.50
-6.97
-7.46
-8.10
-8.99
-10.10
-11.30
-12.41
-13.28
-13.83
-14.08
-14.19
-14.29
-14.47
-14.66
-14.68
-14.32
-13.42
-12.00
-10.14
-7.99
-5.65
-3.19
-0.64
1.93
4.44
6.81
8.97
10.91
12.60
13.96
14.92
15.38
15.34
14.89
14.21
13.41
12.55
11.58
10.43
9.11
7.71
6.40
5.30
4.42
3.68
2.93
2.09
1.18
0.33
-0.29
-0.55
-0.44
-0.05
0.47
0.99
1.38
1.57
1.58
1.45
1.25
1.05
0.91
0.84
0.84
0.94
1.13
1.43
1.80
2.15
2.38
2.38
2.10
1.59
0.98
0.37
-0.18
-0.69
-1.27
-1.96
-2.76
-3.58
-4.29
-4.76
-4.95
-4.86
-4.60
-4.27
-3.97
-3.82
-3.88
-4.16
-4.62
-5.12
-5.56
-5.83
-5.94
-5.94
-5.91
-5.89
-5.87
-5.77
-5.52
-5.09
-4.50
-3.82
-3.14
-2.50
-1.87
-1.23
-0.50
0.31
1.19
2.10
3.01
3.97
5.05
6.31
7.76
9.27
10.64
11.67
12.24
12.35
12.08
11.59
11.03
10.55
10.20
9.97
9.82
9.63
9.32
8.85
8.24
7.56
6.88
6.23
5.64
5.12
4.70
4.41
4.23
4.10
3.91
3.55
2.97
2.22
1.44
0.81
0.51
0.67
1.34
2.41
3.62
4.69
5.35
5.52
5.27
4.77
4.22
3.70
3.26
2.88
2.57
2.39
2.35
2.38
2.32
1.99
1.32
0.38
-0.61
-1.40
-1.86
-2.02
-2.08
-2.20
-2.51
-2.96
-3.42
-3.72
-3.77
-3.53
-3.05
-2.39
-1.62
-0.83
-0.15
0.29
0.41
0.21
-0.19
-0.60
-0.86
-0.91
-0.81
-0.68
-0.64
-0.68
-0.75
-0.73
-0.57
-0.29
0.00
0.21
0.26
0.16
-0.02
-0.22
-0.41
-0.59
-0.81
-1.10
-1.46
-1.82
-2.13
-2.28
-2.23
-1.96
-1.50
-0.93
-0.35
0.14
0.46
0.56
0.50
0.35
0.22
0.22
0.39
0.68
1.00
1.24
1.32
1.25
1.10
0.95
0.88
0.92
1.05
1.22
1.37
1.43
1.33
1.02
0.53
-0.07
-0.64
-1.04
-1.20
-1.16
-0.99
-0.83
-0.72
-0.69
-0.68
-0.62
-0.46
-0.16
0.23
0.68
1.12
1.51
1.83
2.07
2.14
2.01
1.60
0.95
0.17
-0.55
-1.05
-1.26
-1.25
-1.18
-1.18
-1.29
-1.43
-1.50
-1.42
-1.25
-1.14
-1.23
-1.57
-2.11
-2.64
-2.98
-2.98
-2.65
-2.11
-1.53
-1.03
-0.68
-0.39
-0.09
0.30
0.76
1.23
1.60
1.78
1.76
1.57
1.29
0.98
0.70
0.48
0.31
0.21
0.20
0.30
0.51
0.75
0.91
0.89
0.63
0.15
-0.43
-0.98
-1.38
-1.62
-1.73
-1.77
-1.78
-1.72
-1.53
-1.19
-0.71
-0.21
0.23
0.52
0.67
0.72
0.73
0.69
0.55
0.25
-0.23
-0.75
-1.14
-1.20
-0.93
-0.53
-0.33
-0.66
-1.59
-2.94
-4.32
-5.36
-5.88
-5.96
-5.83
-5.70
-5.57
-5.31
-4.73
-3.73
-2.45
-1.15
-0.09
0.58
0.88
0.97
1.02
1.06
0.99
0.68
0.03
-0.85
-1.67
-2.08
-1.86
-1.01
0.20
1.39
2.25
2.67
2.78
2.82
2.95
3.23
3.56
3.82
3.98
4.10
4.30
4.65
5.11
5.50
5.65
5.43
4.87
4.14
3.48
3.09
3.05
3.29
3.65
3.92
3.98
3.84
3.58
3.36
3.30
3.39
3.53
3.57
3.46
3.22
2.96
2.77
2.62
2.36
1.79
0.81
-0.48
-1.83
-2.91
-3.55
-3.75
-3.68
-3.55
-3.46
-3.38
-3.25
-3.05
-2.88
-2.93
-3.33
-4.07
-4.96
-5.75
-6.21
-6.30
-6.07
-5.69
-5.30
-4.95
-4.67
-4.46
-4.33
-4.33
-4.45
-4.65
-4.85
-4.97
-5.00
-4.94
-4.86
-4.74
-4.55
-4.17
-3.53
-2.61
-1.47
-0.24
0.97
2.06
3.01
3.79
4.33
4.52
4.31
3.79
3.24
3.02
3.44
4.53
5.99
7.29
7.92
7.63
6.54
5.02
3.52
2.31
1.46
0.89
0.45
0.09
-0.24
-0.53
-0.83
-1.20
-1.61
-1.95
-2.05
-1.82
-1.34
-0.84
-0.61
-0.80
-1.25
-1.54
-1.20
-0.00
1.79
3.47
4.14
3.25
0.89
-2.13
-4.62
-5.51
-4.50
-2.23
-0.11
0.30
-1.84
-6.24
-11.48
-15.58
-17.00
-15.40
-11.81
-8.18
-6.47
-7.81
-12.22
-18.93
-26.58
-33.22
-36.10
-31.96
-18.35
4.45
32.13
56.90
70.45
67.79
49.95
23.83
-1.09
-17.21
-21.97
-18.06
-10.80
-4.80
-1.72
-0.57
0.56
2.58
4.69
5.26
3.11
-1.53
-6.92
-10.77
-11.40
-8.53
-3.32
2.19
6.00
6.95
5.12
1.71
-1.55
-3.20
-2.62
-0.29
2.53
4.48
4.59
2.60
-1.16
-6.21
-12.10
-18.51
-24.93
-30.56
-34.30
-35.22
-33.09
-28.74
-23.85
-20.34
-19.53
-21.63
-25.75
-30.42
-34.25
-36.54
-37.33
-37.17
-36.67
-36.14
-35.53
-34.59
-33.22
-31.60
-30.18
-29.43
-29.56
-30.29
-31.00
-30.99
-29.77
-27.32
-24.01
-20.41
-16.96
-13.79
-10.74
-7.47
-3.71
0.70
5.73
11.28
17.30
23.81
30.92
38.58
46.45
53.77
59.50
62.60
62.45
59.15
53.54
46.96
40.82
36.19
33.67
33.29
34.72
37.41
40.71
43.93
46.44
47.77
47.68
46.22
43.68
40.43
36.83
33.15
29.53
26.02
22.61
19.26
15.93
12.61
9.31
6.07
2.95
0.12
-2.15
-3.48
-3.49
-1.91
1.29
5.89
11.41
17.18
22.49
26.70
29.37
30.35
29.74
27.87
25.14
21.95
18.65
15.45
12.50
9.89
7.63
5.65
3.84
2.08
0.31
-1.45
-3.14
-4.69
-6.10
-7.44
-8.76
-10.09
-11.35
-12.45
-13.33
-14.01
-14.58
-15.10
-15.56
-15.87
-15.91
-15.59
-14.92
-13.98
-12.90
-11.77
-10.71
-9.76
-8.98
-8.42
-8.09
-7.97
-8.03
-8.23
-8.53
-8.84
-9.05
-9.01
-8.59
-7.75
-6.63
-5.49
-4.62
-4.20
-4.22
-4.50
-4.77
-4.79
-4.44
-3.75
-2.83
-1.82
-0.88
-0.13
0.33
0.50
0.44
0.25
0.04
-0.11
-0.23
-0.35
-0.53
-0.72
-0.86
-0.92
-0.93
-0.96
-1.07
-1.25
-1.40
-1.42
-1.29
-1.12
-1.09
-1.32
-1.84
-2.53
-3.22
-3.81
-4.30
-4.76
-5.20
-5.56
-5.70
-5.54
-5.11
-4.59
-4.21
-4.14
-4.36
-4.72
-4.97
-4.94
-4.55
-3.88
-3.09
-2.34
-1.79
-1.48
-1.39
-1.42
-1.45
-1.39
-1.21
-0.95
-0.69
-0.54
-0.52
-0.62
-0.79
-0.96
-1.11
-1.22
-1.31
-1.39
-1.47
-1.57
-1.72
-1.94
-2.19
-2.42
-2.52
-2.41
-2.05
-1.49
-0.88
-0.43
-0.30
-0.54
-1.05
-1.62
-2.06
-2.29
-2.35
-2.37
-2.44
-2.57
-2.68
-2.66
-2.47
-2.12
-1.74
-1.45
-1.34
-1.40
-1.62
-1.92
-2.22
-2.48
-2.61
-2.57
-2.32
-1.87
-1.28
-0.57
0.21
1.03
1.85
2.59
3.17
3.52
3.64
3.59
3.47
3.37
3.33
3.35
3.42
3.52
3.63
3.73
3.75
3.69
3.54
3.36
3.20
3.11
3.03
2.86
2.53
2.02
1.43
0.89
0.54
0.38
0.39
0.48
0.59
0.73
0.92
1.16
1.40
1.56
1.60
1.48
1.24
0.95
0.64
0.35
0.05
-0.25
-0.58
-0.92
-1.27
-1.62
-1.95
-2.22
-2.43
-2.58
-2.76
-3.08
-3.63
-4.39
-5.20
-5.88
-6.23
-6.26
-6.09
-5.93
-5.97
-6.26
-6.75
-7.30
-7.80
-8.15
-8.24
-7.98
-7.24
-5.93
-4.10
-1.95
0.20
2.04
3.37
4.13
4.40
4.38
4.24
4.17
4.28
4.68
5.41
6.45
7.70
9.00
10.09
10.76
10.87
10.37
9.41
8.19
6.97
5.91
5.09
4.43
3.77
2.98
2.00
0.91
-0.12
-0.88
-1.25
-1.22
-0.91
-0.47
-0.06
0.26
0.46
0.54
0.52
0.40
0.17
-0.13
-0.46
-0.80
-1.12
-1.42
-1.69
-1.91
-2.02
-2.02
-1.91
-1.75
-1.63
-1.64
-1.84
-2.20
-2.66
-3.10
-3.42
-3.56
-3.53
-3.39
-3.22
-3.05
-2.86
-2.61
-2.29
-1.97
-1.73
-1.64
-1.74
-1.94
-2.16
-2.32
-2.38
-2.34
-2.19
-1.91
-1.51
-1.01
-0.51
-0.07
0.26
0.51
0.73
0.94
1.12
1.21
1.22
1.19
1.21
1.34
1.58
1.83
2.00
2.02
1.94
1.86
1.85
1.91
1.99
2.03
2.00
1.94
1.87
1.81
1.69
1.45
1.08
0.60
0.13
-0.25
-0.47
-0.56
-0.61
-0.72
-0.95
-1.25
-1.53
-1.64
-1.47
-1.02
-0.39
0.24
0.71
0.93
0.95
0.93
0.99
1.22
1.51
1.72
1.67
1.30
0.70
0.06
-0.43
-0.66
-0.62
-0.43
-0.21
-0.03
0.14
0.32
0.55
0.78
0.91
0.84
0.59
0.28
0.09
0.16
0.53
1.08
1.63
1.99
2.11
2.01
1.82
1.65
1.56
1.54
1.57
1.61
1.62
1.61
1.54
1.39
1.13
0.74
0.28
-0.15
-0.44
-0.52
-0.32
0.11
0.70
1.32
1.86
2.26
2.50
2.65
2.77
2.89
3.01
3.09
3.17
3.32
3.64
4.16
4.82
5.40
5.69
5.55
5.06
4.44
3.95
3.77
3.91
4.30
4.77
5.24
5.59
5.76
5.72
5.43
4.97
4.44
3.99
3.68
3.49
3.25
2.80
2.03
0.99
-0.15
-1.16
-1.83
-2.13
-2.13
-2.00
-1.94
-2.09
-2.51
-3.11
-3.76
-4.31
-4.69
-4.90
-5.01
-5.11
-5.19
-5.18
-5.01
-4.64
-4.16
-3.76
-3.59
-3.72
-4.05
-4.39
-4.55
-4.46
-4.21
-3.96
-3.87
-4.03
-4.38
-4.78
-5.06
-5.09
-4.85
-4.38
-3.82
-3.28
-2.86
-2.59
-2.45
-2.37
-2.24
-2.00
-1.64
-1.18
-0.72
-0.34
-0.09
0.04
0.08
0.08
0.08
0.04
-0.08
-0.36
-0.86
-1.56
-2.45
-3.41
-4.33
-5.13
-5.71
-6.04
-6.09
-5.90
-5.54
-5.17
-4.90
-4.81
-4.86
-4.90
-4.75
-4.26
-3.43
-2.42
-1.44
-0.66
-0.16
0.10
0.23
0.33
0.45
0.58
0.69
0.78
0.83
0.85
0.86
0.86
0.83
0.80
0.74
0.66
0.56
0.48
0.48
0.61
0.86
1.15
1.36
1.36
1.08
0.54
-0.12
-0.73
-1.16
-1.29
-1.15
-0.79
-0.29
0.25
0.77
1.21
1.52
1.66
1.62
1.41
1.07
0.67
0.24
-0.13
-0.41
-0.58
-0.62
-0.56
-0.41
-0.18
0.14
0.53
0.99
1.44
1.80
1.94
1.77
1.31
0.66
0.00
-0.50
-0.79
-0.89
-0.92
-1.00
-1.18
-1.41
-1.55
-1.46
-1.07
-0.40
0.43
1.24
1.88
2.24
2.29
2.10
1.74
1.35
0.98
0.70
0.51
0.37
0.22
-0.00
-0.29
-0.62
-0.94
-1.19
-1.37
-1.50
-1.62
-1.71
-1.75
-1.68
-1.51
-1.37
-1.40
-1.73
-2.38
-3.20
-3.95
-4.39
-4.40
-3.97
-3.24
-2.34
-1.43
-0.60
0.07
0.53
0.73
0.69
0.47
0.22
0.11
0.22
0.55
0.99
1.37
1.55
1.52
1.34
1.13
0.99
0.97
1.05
1.18
1.33
1.44
1.51
1.52
1.46
1.32
1.09
0.80
0.54
0.37
0.43
0.80
1.49
2.40
3.29
3.93
4.11
3.83
3.21
2.51
1.92
1.56
1.41
1.37
1.32
1.23
1.12
1.03
0.98
0.93
0.79
0.51
0.06
-0.45
-0.93
-1.25
-1.38
-1.35
-1.26
-1.21
-1.23
-1.31
-1.38
-1.40
-1.36
-1.28
-1.19
-1.07
-0.88
-0.56
-0.13
0.31
0.64
0.77
0.72
0.64
0.64
0.79
0.97
1.01
0.77
0.26
-0.37
-0.93
-1.29
-1.48
-1.58
-1.71
-1.87
-2.00
-2.01
-1.91
-1.79
-1.77
-1.93
-2.19
-2.42
-2.41
-2.09
-1.48
-0.73
-0.01
0.57
0.96
1.22
1.41
1.57
1.70
1.76
1.75
1.68
1.63
1.68
1.87
2.18
2.51
2.75
2.80
2.61
2.27
1.90
1.65
1.60
1.68
1.75
1.65
1.31
0.78
0.23
-0.21
-0.45
-0.55
-0.56
-0.52
-0.39
-0.17
0.09
0.21
-0.00
-0.61
-1.50
-2.40
-3.02
-3.23
-3.09
-2.79
-2.55
-2.44
-2.38
-2.22
-1.88
-1.35
-0.78
-0.37
-0.28
-0.59
-1.22
-1.96
-2.57
-2.84
-2.72
-2.29
-1.76
-1.37
-1.27
-1.49
-1.91
-2.32
-2.54
-2.50
-2.25
-1.92
-1.61
-1.35
-1.07
-0.67
-0.16
0.38
0.78
0.92
0.80
0.56
0.39
0.39
0.54
0.69
0.69
0.45
-0.02
-0.60
-1.15
-1.58
-1.84
-1.93
-1.88
-1.73
-1.55
-1.37
-1.24
-1.17
-1.15
-1.13
-1.05
-0.88
-0.59
-0.18
0.36
0.99
1.67
2.33
2.87
3.21
3.32
3.30
3.24
3.28
3.47
3.74
4.00
4.17
4.22
4.21
4.24
4.34
4.51
4.66
4.76
4.79
4.75
4.65
4.43
3.99
3.28
2.33
1.24
0.18
-0.72
-1.38
-1.79
-1.97
-1.96
-1.81
-1.56
-1.25
-0.90
-0.54
-0.17
0.19
0.50
0.68
0.66
0.44
0.12
-0.15
-0.20
0.03
0.47
0.97
1.34
1.50
1.45
1.31
1.18
1.07
0.90
0.56
-0.00
-0.72
-1.43
-1.96
-2.21
-2.25
-2.20
-2.22
-2.35
-2.53
-2.67
-2.66
-2.48
-2.18
-1.78
-1.26
-0.60
0.21
1.06
1.74
2.02
1.78
1.10
0.21
-0.59
-1.09
-1.25
-1.21
-1.14
-1.19
-1.39
-1.64
-1.82
-1.89
-1.86
-1.82
-1.87
-2.02
-2.23
-2.38
-2.38
-2.21
-1.92
-1.62
-1.38
-1.24
-1.19
-1.20
-1.30
-1.49
-1.74
-1.97
-2.07
-1.98
-1.74
-1.46
-1.32
-1.39
-1.67
-2.01
-2.23
-2.17
-1.80
-1.21
-0.57
-0.09
0.12
0.02
-0.29
-0.66
-0.93
-1.01
-0.89
-0.59
-0.16
0.37
0.99
1.65
2.28
2.80
3.10
3.19
3.12
3.01
2.99
3.15
3.52
4.00
4.46
4.77
4.83
4.68
4.42
4.17
4.02
3.99
3.97
3.85
3.54
3.01
2.30
1.52
0.80
0.25
-0.08
-0.21
-0.23
-0.24
-0.33
-0.52
-0.71
-0.80
-0.69
-0.39
0.01
0.44
0.86
1.29
1.74
2.18
2.54
2.69
2.59
2.28
1.83
1.35
0.87
0.39
-0.09
-0.56
-0.94
-1.19
-1.34
-1.48
-1.74
-2.15
-2.64
-3.04
-3.20
-3.03
-2.60
-2.04
-1.55
-1.25
-1.26
-1.56
-2.12
-2.83
-3.52
-4.03
-4.19
-3.91
-3.23
-2.31
-1.39
-0.70
-0.37
-0.41
-0.77
-1.36
-2.05
-2.76
-3.33
-3.65
-3.61
-3.20
-2.52
-1.71
-0.91
-0.24
0.30
0.71
0.98
1.11
1.10
1.01
0.93
0.97
1.16
1.42
1.61
1.60
1.31
0.81
0.25
-0.18
-0.31
-0.08
0.44
1.06
1.57
1.79
1.70
1.41
1.10
0.95
0.99
1.16
1.32
1.35
1.19
0.86
0.45
0.02
-0.34
-0.58
-0.67
-0.60
-0.40
-0.17
-0.02
0.00
-0.09
-0.23
-0.34
-0.38
-0.37
-0.35
-0.34
-0.36
-0.37
-0.33
-0.23
-0.06
0.13
0.34
0.56
0.77
0.98
1.20
1.43
1.64
1.81
1.88
1.82
1.62
1.28
0.86
0.38
-0.15
-0.70
-1.22
-1.62
-1.84
-1.89
-1.86
-1.86
-1.95
-2.05
-2.00
-1.68
-1.07
-0.33
0.29
0.56
0.46
0.10
-0.28
-0.52
-0.57
-0.52
-0.51
-0.62
-0.82
-1.01
-1.10
-1.05
-0.90
-0.67
-0.37
-0.00
0.50
1.14
1.89
2.71
3.54
4.31
4.91
5.31
5.42
5.30
5.04
4.81
4.76
5.01
5.59
6.42
7.31
7.97
8.09
7.44
6.00
4.00
1.89
0.12
-1.01
-1.50
-1.57
-1.57
-1.73
-2.10
-2.59
-3.05
-3.40
-3.67
-3.91
-4.18
-4.44
-4.65
-4.77
-4.74
-4.58
-4.29
-3.89
-3.44
-2.99
-2.60
-2.30
-2.06
-1.83
-1.58
-1.30
-1.02
-0.78
-0.59
-0.34
0.04
0.61
1.33
2.06
2.64
2.97
3.03
2.85
2.45
1.85
1.05
0.10
-0.88
-1.75
-2.37
-2.72
-2.85
-2.91
-3.02
-3.21
-3.48
-3.76
-4.00
-4.15
-4.15
-3.98
-3.59
-2.94
-2.09
-1.10
-0.15
0.62
1.08
1.20
1.03
0.71
0.38
0.14
0.07
0.14
0.27
0.37
0.35
0.19
-0.10
-0.48
-0.83
-1.11
-1.24
-1.25
-1.13
-0.93
-0.68
-0.43
-0.32
-0.44
-0.83
-1.42
-2.00
-2.34
-2.28
-1.84
-1.19
-0.58
-0.18
-0.04
-0.05
-0.09
-0.08
-0.05
-0.12
-0.37
-0.83
-1.48
-2.28
-3.26
-4.45
-5.88
-7.49
-9.13
-10.60
-11.76
-12.59
-13.24
-13.91
-14.72
-15.67
-16.58
-17.23
-17.48
-17.38
-17.10
-16.78
-16.38
-15.65
-14.20
-11.81
-8.51
-4.66
-0.83
2.53
5.20
7.26
8.97
10.57
12.16
13.71
15.15
16.46
17.67
18.85
19.97
20.87
21.35
21.22
20.47
19.19
17.62
15.97
14.41
12.98
11.68
10.44
9.20
7.91
6.53
5.07
3.60
2.21
1.01
0.10
-0.49
-0.80
-0.92
-0.94
-0.94
-0.95
-0.99
-1.07
-1.22
-1.48
-1.84
-2.23
-2.52
-2.57
-2.33
-1.86
-1.29
-0.81
-0.54
-0.53
-0.73
-1.06
-1.46
-1.89
-2.33
-2.79
-3.24
-3.63
-3.94
-4.16
-4.34
-4.50
-4.69
-4.88
-5.02
-5.02
-4.79
-4.33
-3.68
-2.96
-2.27
-1.65
-1.06
-0.44
0.25
0.99
1.69
2.28
2.72
3.06
3.35
3.67
4.00
4.28
4.44
4.47
4.41
4.36
4.41
4.56
4.75
4.85
4.74
4.43
3.99
3.57
3.30
3.25
3.36
3.55
3.70
3.74
3.65
3.46
3.21
2.95
2.78
2.74
2.84
2.99
3.06
2.90
2.47
1.89
1.36
1.09
1.13
1.38
1.66
1.77
1.66
1.40
1.10
0.80
0.45
-0.01
-0.61
-1.22
-1.68
-1.83
-1.70
-1.44
-1.31
-1.46
-1.86
-2.28
-2.46
-2.20
-1.52
-0.65
0.11
0.54
0.57
0.35
0.10
-0.03
0.00
0.11
0.18
0.11
-0.08
-0.31
-0.49
-0.56
-0.53
-0.46
-0.40
-0.35
-0.33
-0.38
-0.52
-0.81
-1.24
-1.81
-2.43
-3.02
-3.46
-3.67
-3.62
-3.38
-3.08
-2.90
-2.93
-3.12
-3.29
-3.25
-2.91
-2.35
-1.72
-1.22
-0.88
-0.63
-0.40
-0.14
0.05
0.06
-0.18
-0.60
-1.03
-1.27
-1.27
-1.08
-0.86
-0.76
-0.84
-1.06
-1.32
-1.50
-1.48
-1.22
-0.77
-0.24
0.21
0.48
0.55
0.55
0.59
0.78
1.12
1.51
1.84
2.04
2.17
2.34
2.64
3.03
3.39
3.56
3.46
3.13
2.71
2.35
2.14
2.06
2.05
1.98
1.79
1.50
1.11
0.65
0.15
-0.36
-0.81
-1.13
-1.32
-1.43
-1.59
-1.92
-2.51
-3.38
-4.41
-5.42
-6.24
-6.75
-6.94
-6.88
-6.69
-6.51
-6.45
-6.50
-6.56
-6.53
-6.40
-6.26
-6.20
-6.25
-6.39
-6.51
-6.32
-5.55
-4.12
-2.29
-0.58
0.55
0.84
0.31
-0.78
-1.70
-1.73
-0.49
1.73
4.05
5.50
5.49
3.97
1.53
-0.56
-0.99
1.09
5.74
12.44
20.65
30.24
41.44
51.92
58.99
60.97
58.48
53.28
46.51
38.22
28.13
16.39
4.22
-6.30
-12.94
-13.94
-9.72
-2.27
5.50
10.59
10.35
3.26
-10.86
-30.26
-51.55
-68.40
-74.88
-68.72
-52.81
-35.32
-23.12
-20.74
-28.78
-43.75
-59.42
-69.50
-70.25
-60.01
-40.63
-15.66
11.13
36.84
59.26
76.01
83.90
79.87
63.50
38.73
14.01
-2.17
-3.61
8.08
23.80
33.04
30.47
17.41
-1.51
-22.14
-43.00
-64.68
-86.11
-102.68
-108.21
-98.27
-72.70
-35.74
6.19
47.32
81.58
104.10
114.66
117.50
118.67
122.43
128.69
133.17
132.47
120.64
96.22
63.16
28.24
-2.26
-25.07
-39.85
-47.01
-48.38
-46.46
-42.59
-38.05
-35.04
-36.17
-42.58
-52.67
-62.53
-68.43
-69.26
-66.33
-62.51
-60.30
-60.24
-60.54
-58.77
-53.38
-44.98
-36.16
-29.69
-27.57
-29.99
-35.80
-43.30
-50.54
-55.56
-55.92
-48.79
-31.78
-5.11
26.96
56.52
75.09
77.47
64.49
42.75
21.45
8.29
5.92
11.55
19.18
23.25
21.29
14.56
6.69
0.94
-1.22
-0.66
0.09
-1.32
-5.68
-11.74
-17.09
-19.63
-18.79
-15.89
-12.88
-10.94
-9.41
-5.85
2.43
16.52
34.87
53.51
67.78
74.35
72.59
64.43
53.24
42.20
33.10
26.20
20.68
15.70
10.89
6.41
2.64
-0.13
-1.85
-2.59
-2.44
-1.40
0.43
2.76
5.10
6.85
7.54
6.97
5.31
3.04
0.72
-1.14
-2.31
-2.54
-1.80
-0.30
1.61
3.55
5.29
6.91
8.84
11.74
16.18
22.10
28.63
34.18
37.03
36.03
31.13
23.39
14.55
6.34
-0.14
-4.44
-6.58
-6.61
-4.50
-0.16
6.23
14.10
22.50
30.33
36.67
40.98
43.06
42.89
40.51
35.95
29.30
20.80
10.86
0.02
-11.15
-22.18
-32.71
-42.39
-50.84
-57.57
-62.15
-64.43
-64.62
-63.26
-61.01
-58.24
-54.96
-50.75
-45.10
-37.69
-28.70
-18.75
-8.87
-0.24
6.14
9.63
10.08
7.83
3.64
-1.51
-6.65
-10.95
-13.86
-15.26
-15.54
-15.59
-16.70
-20.10
-26.51
-35.65
-46.09
-55.60
-61.82
-63.06
-58.81
-49.82
-37.68
-24.27
-11.03
1.01
11.19
19.13
24.62
27.77
29.11
29.47
29.73
30.71
32.64
35.30
38.17
40.76
42.79
44.14
44.78
44.38
43.07
40.74
37.42
33.32
28.44
23.05
17.77
13.27
9.35
6.87
5.83
6.18
7.93
10.80
14.74
19.90
26.28
32.04
37.72
42.51
45.95
48.15
48.77
48.25
47.81
48.85
50.04
53.84
60.07
68.26
77.74
85.33
89.59
92.07
96.00
101.05
110.94
124.49
138.69
149.28
147.06
127.27
92.50
67.94
38.76
12.51
-9.41
-27.78
-44.86
-71.10
-111.31
-161.14
-211.87
-260.24
-301.44
-336.07
-365.66
-391.82
-426.08
-473.27
-527.29
-576.93
-616.50
-640.77
-649.84
-645.21
-564.70
-396.23
-185.41
7.23
152.04
246.78
303.20
333.31
348.22
357.14
355.66
340.75
316.21
289.23
263.88
243.79
232.54
233.60
247.44
261.71
266.77
257.68
234.40
199.83
161.37
130.11
116.94
126.86
150.99
175.36
187.48
180.03
151.51
106.82
56.17
11.71
-16.26
-24.47
-13.99
11.04
44.08
76.63
100.64
110.61
105.13
86.14
56.34
18.97
-22.43
-64.31
-103.95
-140.00
-172.80
-202.99
-229.69
-249.23
-255.75
-243.35
-209.78
-159.43
-103.33
-56.24
-29.28
-24.20
-32.25
-38.47
-28.81
3.19
53.24
108.56
151.81
171.12
164.57
137.73
97.88
50.46
-0.58
-50.15
-89.99
-113.76
-114.48
-88.18
-39.76
15.17
56.78
69.66
48.11
-3.83
-82.30
-176.30
-267.29
-335.26
-366.82
-357.91
-313.78
-248.42
-181.84
-143.07
-149.65
-198.99
-274.16
-355.45
-425.79
-472.61
-489.28
-422.75
-268.78
-80.83
78.76
185.24
244.90
273.30
284.58
288.24
289.08
280.59
261.72
241.13
229.67
231.37
240.69
248.72
247.09
230.81
193.32
137.98
78.35
32.76
8.76
1.76
-0.64
-5.78
-12.77
-24.30
-33.53
-29.09
-3.56
39.92
89.49
130.91
153.56
153.02
129.94
86.12
33.64
-11.64
-37.70
-39.72
-19.14
19.29
69.48
124.68
176.97
220.85
251.47
263.31
251.32
214.23
156.66
87.46
15.66
-55.79
-125.39
-191.29
-250.42
-298.53
-330.23
-340.28
-326.17
-271.68
-183.34
-87.14
-9.29
40.75
67.97
81.95
90.68
97.92
105.34
107.05
99.32
82.69
59.98
33.26
2.75
-32.75
-75.47
-125.22
-181.23
-237.27
-282.32
-305.33
-300.44
-269.30
-219.35
-160.45
-100.92
-47.10
-0.09
42.94
85.24
126.95
164.10
190.57
200.17
189.38
158.24
112.55
62.92
21.26
-3.71
-8.33
6.49
36.83
77.66
123.13
166.30
198.43
209.70
192.10
144.31
75.83
4.88
-48.05
-68.29
-52.39
-8.56
47.31
97.79
129.57
137.82
124.14
93.16
49.49
-3.06
-61.01
-120.82
-178.59
-229.73
-266.27
-280.72
-269.59
-235.76
-187.32
-134.03
-83.93
-41.26
-5.45
30.89
75.27
130.76
194.71
262.02
329.50
397.00
465.40
509.64
505.31
442.81
335.67
209.21
85.85
-19.48
-98.70
-150.48
-178.38
-186.20
-179.69
-167.72
-157.59
-155.01
-161.89
-175.14
-187.75
-189.86
-170.59
-125.01
-56.80
23.22
101.68
164.00
198.62
192.33
145.50
76.52
10.39
-35.61
-58.03
-63.40
-61.42
-58.48
-56.11
-51.53
-41.59
-27.26
-12.53
-1.75
2.85
0.67
-5.79
-12.02
-14.00
-9.21
-0.36
7.51
9.99
5.49
-6.52
-23.03
-38.46
-47.06
-46.70
-40.99
-35.64
-35.70
-43.21
-60.07
-85.50
-117.02
-153.24
-188.82
-222.79
-253.26
-277.34
-275.98
-246.38
-204.56
-171.69
-156.47
-151.43
-142.64
-119.63
-82.73
-41.81
-12.67
-4.10
-12.28
-24.02
-26.93
-16.94
1.98
21.17
33.71
35.13
27.75
19.26
17.69
27.10
46.37
72.22
96.02
113.83
124.05
128.81
133.51
143.86
163.15
190.70
222.34
251.95
274.65
286.60
286.67
275.86
255.65
227.29
192.61
155.60
122.53
100.50
92.87
97.40
107.12
114.12
114.24
109.28
105.60
109.29
121.77
137.63
147.48
143.68
124.23
92.97
56.15
18.14
-20.22
-59.86
-100.15
-136.09
-158.93
-160.17
-136.19
-91.88
-38.88
9.00
40.95
52.29
45.17
26.55
5.35
-10.79
-19.14
-20.77
-19.23
-19.32
-26.15
-42.98
-69.45
-101.22
-131.57
-156.67
-173.83
-180.66
-175.75
-161.05
-141.66
-123.43
-110.04
-101.48
-98.98
-100.91
-103.01
-101.90
-98.78
-98.77
-106.59
-123.31
-146.67
-179.78
-225.58
-284.03
-351.57
-422.78
-490.65
-545.89
-578.94
-547.07
-437.10
-279.57
-127.46
-15.93
49.83
82.04
97.10
107.19
117.49
121.50
114.18
96.22
74.97
58.87
52.37
56.03
67.81
84.36
98.19
105.43
109.53
114.07
124.45
143.34
170.88
205.57
244.67
281.50
309.85
326.35
330.79
325.07
311.38
292.43
271.18
249.95
228.67
206.85
185.02
164.82
148.14
135.36
125.41
116.30
106.15
93.59
78.90
63.82
50.57
40.83
34.64
30.77
27.64
24.05
19.55
14.44
9.25
4.46
0.42
-2.86
-5.42
-7.29
-8.42
-8.94
-9.21
-9.81
-11.24
-13.59
-16.51
-19.50
-22.44
-25.96
-31.29
-39.54
-50.96
-64.62
-78.80
-91.98
-103.50
-113.73
-123.41
-132.78
-141.23
-147.67
-151.24
-152.01
-150.91
-149.15
-147.45
-145.70
-143.20
-139.20
-133.41
-126.17
-117.97
-109.20
-99.79
-89.33
-77.22
-63.19
-47.57
-31.42
-16.09
-2.52
9.23
20.02
31.12
43.21
55.66
66.49
73.06
73.13
65.75
51.56
32.56
11.36
-9.30
-26.96
-39.74
-46.60
-47.71
-44.65
-39.99
-36.30
-35.11
-36.25
-37.85
-37.20
-31.96
-21.31
-6.38
10.02
24.24
32.93
34.00
27.11
13.58
-4.13
-22.96
-39.73
-51.55
-56.31
-53.10
-42.65
-27.42
-11.02
2.91
11.99
15.96
16.52
16.32
17.45
20.47
24.26
26.73
26.25
22.74
17.89
14.42
15.00
21.22
33.13
49.43
67.96
85.92
99.95
106.22
101.23
83.18
53.37
16.95
-17.79
-41.45
-46.35
-29.18
7.76
56.89
107.38
147.90
169.70
168.88
147.38
112.05
72.01
35.44
7.09
-12.69
-26.73
-38.41
-49.51
-59.30
-65.36
-65.35
-58.56
-46.36
-31.41
-16.30
-2.45
10.04
21.69
32.82
42.90
50.99
56.46
59.77
62.53
66.83
73.94
83.23
92.09
96.86
94.59
84.60
69.26
53.25
41.80
38.69
44.74
57.47
71.80
81.65
81.27
66.41
35.14
-11.72
-69.72
-130.93
-184.97
-221.60
-234.01
-221.57
-190.55
-152.10
-117.70
-94.19
-81.22
-72.71
-61.52
-44.27
-23.66
-6.83
-1.31
-11.20
-35.47
-68.75
-103.86
-134.08
-154.44
-161.89
-155.19
-135.16
-104.92
-69.60
-35.00
-5.68
16.75
33.59
47.89
62.43
78.55
95.73
112.31
126.33
136.58
142.81
145.40
144.70
140.39
131.47
116.72
95.64
69.06
39.38
10.15
-14.77
-32.16
-39.89
-37.24
-24.99
-5.25
18.77
43.23
64.13
77.76
81.32
73.29
53.88
25.20
-8.81
-42.90
-71.51
-90.02
-95.88
-89.34
-73.18
-51.70
-29.44
-10.05
4.27
12.71
15.62
14.16
10.01
5.31
2.24
2.53
6.94
14.95
24.84
34.31
41.21
44.30
43.60
40.22
35.73
31.38
27.57
23.85
19.44
13.82
7.17
0.29
-5.87
-10.68
-14.06
-16.33
-17.80
-18.51
-18.22
-16.71
-13.99
-10.43
-6.65
-3.25
-0.61
1.07
1.78
1.50
0.39
-1.31
-3.17
-4.70
-5.52
-5.42
-4.46
-2.85
-0.85
1.34
3.59
5.78
7.79
9.41
10.36
10.48
9.82
8.76
7.89
7.75
8.56
9.99
11.32
11.75
10.81
8.57
5.53
2.37
-0.54
-3.29
-6.28
-9.89
-14.04
-18.06
-20.87
-21.51
-19.73
-16.19
-12.17
-9.03
-7.45
-7.23
-7.54
-7.54
-6.99
-6.42
-6.93
-9.53
-14.60
-21.57
-29.04
-35.19
-38.32
-37.33
-32.04
-23.23
-12.46
-1.66
7.35
13.36
16.01
15.91
14.28
12.55
11.76
12.15
13.22
13.98
13.54
11.56
8.37
4.72
1.42
-1.00
-2.28
-2.39
-1.35
0.66
3.34
6.17
8.58
10.14
10.64
10.14
8.88
7.19
5.42
4.01
3.45
4.13
6.17
9.36
13.18
16.97
20.20
22.58
24.01
24.41
23.68
21.54
17.60
11.41
2.65
-8.79
-22.65
-38.40
-55.20
-71.91
-87.09
-99.06
-106.18
-107.48
-103.27
-95.43
-87.03
-81.37
-80.68
-85.18
-92.97
-100.83
-105.51
-104.87
-98.44
-87.18
-72.73
-56.68
-40.07
-23.36
-6.70
9.61
24.90
38.12
48.18
54.36
56.63
55.76
53.03
49.76
47.01
45.33
44.81
45.23
46.22
47.40
48.56
49.73
51.29
53.74
57.43
62.13
66.86
70.05
70.13
66.24
58.79
49.44
40.60
34.36
31.54
31.14
30.65
26.99
17.63
1.85
-18.97
-41.56
-61.89
-76.50
-83.50
-82.78
-75.56
-63.48
-48.08
-30.72
-12.94
3.18
15.28
21.53
21.38
16.00
7.93
-0.10
-6.21
-9.92
-11.78
-12.37
-11.51
-8.18
-1.23
9.53
22.60
35.00
43.37
45.43
40.92
31.83
21.24
11.94
5.19
0.61
-3.11
-6.92
-10.65
-13.04
-12.59
-8.63
-1.80
6.19
13.33
18.31
20.89
21.80
22.28
23.38
25.43
28.01
30.08
30.48
28.39
23.77
17.50
11.12
6.29
4.07
4.54
6.81
9.48
11.28
11.52
10.23
7.82
4.83
1.66
-1.37
-4.04
-6.00
-7.00
-7.16
-7.16
-8.20
-11.61
-18.48
-29.18
-42.93
-57.49
-69.62
-76.09
-74.96
-66.50
-53.07
-38.16
-24.75
-14.26
-6.34
0.28
6.56
12.60
17.79
21.71
24.81
28.33
33.54
40.68
48.55
55.10
58.62
58.38
54.96
49.73
44.19
39.24
35.12
31.59
28.40
25.47
22.91
20.84
19.21
17.81
16.35
14.70
12.90
11.12
9.53
8.11
6.90
5.69
4.43
2.90
1.01
-1.27
-3.72
-5.91
-7.35
-7.73
-7.19
-6.23
-5.60
-5.65
-6.15
-6.27
-5.05
-2.21
1.58
4.62
5.08
1.83
-4.80
-13.16
-21.14
-27.34
-31.74
-35.71
-41.04
-48.66
-57.80
-65.88
-69.00
-63.44
-46.49
-18.10
18.57
57.06
88.90
105.40
100.08
70.74
20.60
-41.94
-105.29
-157.32
-188.70
-195.43
-179.71
-148.93
-112.71
-79.12
-52.10
-31.32
-14.04
1.77
15.65
25.05
27.82
24.66
19.84
19.58
28.70
47.87
73.27
98.05
115.92
124.13
124.41
121.48
120.23
122.61
126.37
126.03
115.83
93.27
61.20
27.33
1.01
-10.91
-7.13
7.91
26.44
40.92
46.88
43.78
33.65
18.88
1.31
-17.66
-36.25
-51.66
-60.97
-62.33
-56.24
-45.50
-33.50
-22.48
-12.58
-2.34
9.90
24.53
40.39
55.49
68.24
78.02
84.98
89.16
89.71
84.71
71.87
49.67
18.02
-21.27
-64.29
-105.95
-140.78
-163.56
-170.28
-159.14
-131.31
-90.97
-45.18
-2.05
31.03
49.27
51.30
38.75
15.24
-14.86
-47.36
-78.78
-106.36
-128.28
-143.96
-154.23
-161.05
-166.96
-174.13
-183.50
-194.33
-204.30
-210.13
-208.55
-197.53
-177.26
-150.28
-120.73
-92.85
-69.47
-51.04
-35.87
-21.27
-4.78
14.33
34.79
53.74
68.27
76.91
80.37
81.13
82.11
85.32
91.04
98.28
105.81
113.09
120.34
128.06
136.22
143.92
149.86
152.97
152.93
149.98
144.54
136.81
126.84
114.72
100.81
85.73
70.17
54.80
40.03
25.96
12.37
-1.23
-15.31
-30.00
-44.80
-58.72
-70.56
-79.32
-84.45
-85.78
-83.28
-77.02
-67.36
-55.27
-42.27
-29.97
-19.33
-10.15
-1.17
9.10
21.33
34.94
48.27
59.42
67.20
71.57
73.44
73.99
74.04
73.78
72.84
70.81
67.58
63.44
58.87
54.34
50.13
46.32
42.83
39.50
36.02
31.93
26.68
19.88
11.50
2.14
-7.24
-15.58
-22.21
-27.02
-30.36
-32.73
-34.53
-35.98
-37.15
-38.07
-38.80
-39.17
-38.85
-37.42
-34.58
-30.41
-25.51
-20.71
-16.69
-13.57
-11.00
-8.41
-5.42
-2.07
1.29
4.22
6.53
8.35
10.03
11.92
14.10
16.39
18.49
20.12
21.23
21.95
22.55
23.21
23.90
24.41
24.36
23.50
21.65
18.98
15.80
12.45
9.17
6.00
2.84
-0.37
-3.64
-6.80
-9.70
-12.26
-14.58
-16.89
-19.37
-22.06
-24.83
-27.52
-30.08
-32.58
-35.12
-37.63
-39.73
-40.72
-39.85
-36.63
-31.15
-24.13
-16.76
-10.33
-5.81
-3.50
-2.90
-2.91
-2.23
0.09
4.30
9.83
15.62
20.56
23.88
25.25
24.64
22.15
17.97
12.60
6.96
2.42
0.32
1.49
5.77
12.10
18.89
24.60
28.19
29.25
27.88
24.43
19.35
13.17
6.51
0.05
-5.49
-9.47
-11.53
-11.61
-9.98
-7.19
-3.95
-0.98
1.20
2.39
2.68
2.28
1.36
0.03
-1.65
-3.58
-5.50
-7.15
-8.32
-8.94
-9.12
-9.07
-8.96
-8.93
-9.11
-9.56
-10.27
-11.11
-11.76
-11.82
-10.93
-9.04
-6.44
-3.72
-1.50
-0.19
0.15
-0.23
-0.95
-1.65
-2.19
-2.57
-2.95
-3.40
-3.93
-4.41
-4.69
-4.73
-4.61
-4.45
-4.31
-4.12
-3.70
-2.93
-1.89
-0.85
-0.13
0.10
-0.08
-0.41
-0.61
-0.59
-0.43
-0.30
-0.28
-0.30
-0.23
0.04
0.43
0.77
0.88
0.68
0.21
-0.36
-0.84
-1.10
-1.02
-0.61
0.07
0.88
1.68
2.31
2.69
2.74
2.48
1.95
1.22
0.48
-0.05
-0.11
0.46
1.64
3.23
4.83
6.07
6.67
6.53
5.79
4.70
3.52
2.44
1.49
0.64
-0.20
-1.06
-1.85
-2.46
-2.80
-2.92
-2.94
-3.01
-3.16
-3.30
-3.30
-3.10
-2.89
-2.95
-3.57
-4.77
-6.26
-7.57
-8.26
-8.12
-7.21
-5.79
-4.11
-2.38
-0.74
0.72
1.86
2.56
2.71
2.34
1.51
0.35
-1.04
-2.53
-3.89
-4.79
-4.89
-3.99
-2.16
0.26
2.82
5.12
7.02
8.67
10.37
12.34
14.56
16.67
18.03
17.94
15.89
11.80
6.16
0.03
-5.19
-8.17
-8.09
-5.04
-0.15
4.68
7.49
6.96
2.93
-3.44
-10.17
-15.23
-17.27
-15.97
-12.03
-6.75
-1.52
2.54
4.77
4.93
3.20
0.07
-3.74
-7.30
-9.68
-10.14
-8.39
-4.64
0.38
5.66
10.22
13.40
14.99
15.18
14.33
12.73
10.52
7.69
4.24
0.39
-3.44
-6.69
-8.88
-9.70
-9.12
-7.33
-4.74
-1.81
0.98
3.19
4.60
5.19
5.19
4.96
4.85
5.07
5.67
6.52
7.44
8.35
9.33
10.56
12.17
14.11
16.08
17.50
17.74
16.30
13.00
8.05
2.06
-4.12
-9.63
-13.78
-16.23
-17.05
-16.67
-15.73
-14.91
-14.76
-15.47
-16.91
-18.68
-20.29
-21.38
-21.89
-22.07
-22.41
-23.36
-25.15
-27.66
-30.37
-32.48
-33.20
-32.01
-28.99
-24.76
-20.29
-16.47
-13.73
-11.90
-10.39
-8.57
-6.11
-3.14
-0.16
2.10
2.91
1.73
-1.60
-6.68
-12.52
-17.51
-19.92
-18.47
-12.86
-3.97
6.44
16.40
24.40
29.76
32.59
33.46
33.03
31.86
30.29
28.62
27.15
26.15
25.80
26.02
26.38
26.20
24.70
21.42
16.39
10.28
4.19
-0.73
-3.65
-4.43
-3.54
-1.83
-0.10
1.16
1.87
2.22
2.42
2.53
2.43
1.97
1.04
-0.28
-1.82
-3.39
-4.88
-6.31
-7.71
-9.05
-10.13
-10.66
-10.41
-9.35
-7.72
-5.92
-4.35
-3.24
-2.59
-2.28
-2.12
-2.03
-1.98
-1.93
-1.83
-1.58
-1.11
-0.45
0.28
0.96
1.49
1.86
2.15
2.43
2.72
2.96
3.08
3.08
3.06
3.20
3.63
4.33
5.16
5.90
6.32
6.31
5.88
5.18
4.41
3.83
3.62
3.89
4.61
5.58
6.50
7.07
7.10
6.62
5.82
4.93
4.07
3.21
2.20
0.89
-0.68
-2.27
-3.56
-4.27
-4.34
-3.93
-3.34
-2.84
-2.56
-2.49
-2.49
-2.44
-2.32
-2.17
-2.10
-2.17
-2.37
-2.62
-2.79
-2.78
-2.55
-2.14
-1.65
-1.24
-1.08
-1.25
-1.81
-2.71
-3.85
-5.08
-6.26
-7.29
-8.13
-8.80
-9.38
-9.93
-10.48
-11.01
-11.40
-11.48
-11.15
-10.35
-9.13
-7.64
-6.09
-4.66
-3.51
-2.74
-2.37
-2.37
-2.68
-3.12
-3.53
-3.77
-3.74
-3.52
-3.24
-3.04
-2.99
-3.06
-3.17
-3.33
-3.57
-3.96
-4.55
-5.29
-6.10
-6.90
-7.70
-8.57
-9.57
-10.68
-11.73
-12.61
-13.29
-13.97
-14.99
-16.57
-18.67
-20.93
-22.77
-23.69
-23.42
-22.00
-19.67
-16.64
-12.98
-8.67
-3.79
1.38
6.23
10.05
12.29
12.71
11.52
9.24
6.47
3.71
1.31
-0.51
-1.63
-1.94
-1.48
-0.44
0.89
2.26
3.62
5.22
7.41
10.43
14.12
17.90
20.96
22.65
22.76
21.59
19.77
17.89
16.28
14.92
13.57
12.07
10.45
8.93
7.86
7.44
7.64
8.17
8.60
8.60
7.99
6.87
5.59
4.52
3.99
4.14
4.91
6.03
7.17
7.99
8.26
7.89
7.04
6.01
5.18
4.87
5.13
5.73
6.24
6.24
5.54
4.34
3.20
2.73
3.34
4.93
6.95
8.60
9.18
8.46
6.69
4.48
2.47
1.02
0.13
-0.48
-1.14
-2.05
-3.13
-4.26
-5.18
-5.95
-6.66
-7.47
-8.45
-9.42
-10.02
-9.84
-8.64
-6.55
-3.99
-1.51
0.51
1.95
3.02
4.01
5.11
6.30
7.38
8.10
8.35
8.20
7.83
7.44
7.13
6.92
6.73
6.52
6.24
5.88
5.52
5.16
4.96
4.87
4.82
4.72
4.44
3.99
3.45
2.88
2.26
1.46
0.26
-1.47
-3.68
-6.16
-8.56
-10.60
-12.18
-13.35
-14.27
-15.10
-15.81
-16.28
-16.33
-15.82
-14.70
-13.05
-11.08
-9.00
-7.07
-5.48
-4.36
-3.72
-3.49
-3.51
-3.64
-3.71
-3.71
-3.65
-3.59
-3.59
-3.62
-3.62
-3.42
-2.87
-1.97
-0.90
-0.03
0.12
-0.82
-2.91
-5.79
-8.83
-11.29
-12.69
-12.87
-12.02
-10.43
-8.28
-5.66
-2.63
0.59
3.58
5.80
6.87
6.80
5.94
4.87
4.12
3.95
4.31
4.99
5.79
6.69
7.76
9.16
10.89
12.81
14.66
16.17
17.19
17.70
17.87
17.92
17.97
18.09
18.26
18.50
18.93
19.64
20.64
21.69
22.34
22.16
21.02
19.26
17.68
17.14
18.15
20.58
23.72
26.60
28.52
29.30
29.35
29.39
30.08
31.73
34.22
37.17
40.17
42.96
45.52
48.04
50.77
53.94
57.62
61.70
65.93
69.93
73.36
76.00
77.79
78.80
79.14
78.92
78.22
77.09
75.30
72.09
65.88
54.39
35.37
7.72
-27.41
-66.34
-103.69
-134.18
-154.46
-164.06
-165.05
-160.60
-153.57
-145.75
-138.17
-131.72
-127.61
-126.85
-129.52
-134.11
-137.78
-137.62
-131.98
-121.21
-107.28
-92.81
-79.96
-69.79
-62.24
-56.42
-51.09
-45.05
-37.39
-27.87
-16.88
-5.35
5.72
15.66
24.40
32.44
40.49
49.21
59.02
70.10
82.35
95.36
108.34
120.23
129.91
136.73
140.54
141.47
139.63
134.81
126.41
113.66
95.86
72.46
43.27
8.70
-29.71
-69.05
-105.18
-133.62
-150.86
-155.42
-148.10
-131.32
-108.21
-81.82
-54.94
-30.15
-9.81
4.30
11.54
12.84
10.28
6.25
2.50
-0.30
-2.23
-3.45
-3.66
-2.13
1.71
7.84
15.54
23.82
31.99
39.89
47.76
55.75
63.53
70.28
74.89
76.55
75.07
70.98
65.30
59.32
54.22
50.93
49.94
51.20
53.89
56.31
55.99
50.22
36.88
15.41
-12.63
-43.82
-73.85
-98.83
-116.48
-126.46
-130.04
-129.20
-125.89
-121.65
-117.67
-114.99
-114.39
-116.19
-120.13
-125.39
-130.95
-135.74
-138.43
-137.33
-130.40
-115.83
-92.90
-62.43
-26.68
11.57
49.91
86.72
120.82
150.80
174.47
188.98
191.67
181.12
157.73
123.82
83.08
39.83
-1.61
-37.46
-64.97
-82.84
-91.42
-92.44
-88.43
-81.96
-75.02
-68.76
-63.54
-59.30
-55.67
-52.18
-48.26
-43.38
-37.16
-29.58
-21.19
-12.95
-5.92
-0.93
1.65
1.96
0.42
-2.43
-5.99
-9.66
-12.81
-14.87
-15.52
-14.81
-13.24
-11.61
-10.74
-11.20
-13.01
-15.50
-17.33
-16.83
-12.60
-4.25
7.28
19.75
30.29
36.39
36.86
32.22
24.40
15.88
8.66
3.65
0.58
-1.46
-3.31
-5.14
-6.42
-6.07
-2.95
3.70
14.09
27.74
43.65
60.36
76.29
89.93
100.14
106.34
108.59
107.40
103.54
97.94
91.61
85.54
80.56
77.09
75.00
73.54
71.73
68.70
64.13
58.28
51.76
45.21
39.03
33.34
28.01
22.91
17.91
13.01
8.25
3.76
-0.23
-3.45
-5.65
-6.69
-6.68
-5.95
-4.95
-4.06
-3.54
-3.42
-3.65
-4.17
-4.97
-6.01
-7.24
-8.57
-9.86
-11.00
-11.86
-12.29
-12.09
-11.00
-8.88
-5.81
-2.27
0.98
3.06
3.39
1.90
-0.90
-4.15
-7.07
-9.33
-11.09
-12.89
-15.23
-18.27
-21.69
-24.95
-27.57
-29.32
-30.32
-30.79
-30.86
-30.47
-29.46
-27.76
-25.54
-23.06
-20.50
-17.73
-14.36
-9.92
-4.23
2.39
9.23
15.35
20.03
22.95
24.25
24.38
23.85
23.06
22.15
21.10
19.84
18.34
16.65
14.89
13.16
11.54
10.01
8.48
6.93
5.35
3.84
2.43
1.16
-0.07
-1.35
-2.77
-4.33
-5.95
-7.48
-8.75
-9.53
-9.63
-8.90
-7.32
-5.06
-2.37
0.42
3.07
5.46
7.57
9.47
11.30
13.26
15.58
18.49
22.09
26.17
30.32
33.93
36.52
37.91
38.30
38.20
38.21
38.83
40.29
42.49
45.07
47.56
49.54
50.82
51.58
52.21
53.03
54.05
54.72
54.08
51.04
44.77
34.95
21.77
5.80
-12.04
-30.63
-48.70
-65.14
-79.12
-90.32
-98.92
-105.30
-109.72
-112.15
-112.44
-110.61
-107.17
-103.09
-99.69
-98.22
-99.36
-103.02
-108.24
-113.45
-116.84
-116.96
-113.06
-105.44
-95.17
-83.66
-72.20
-61.72
-52.79
-45.87
-41.31
-39.29
-39.42
-40.59
-41.10
-39.32
-34.25
-25.94
-15.38
-3.92
7.29
17.75
27.54
36.98
46.20
55.04
63.10
69.97
75.44
79.58
82.57
84.64
85.99
86.69
86.84
86.51
85.79
84.71
83.34
81.77
80.09
78.34
76.32
73.67
69.85
64.39
57.05
47.96
37.46
26.06
14.29
2.68
-8.18
-17.68
-25.25
-30.51
-33.41
-34.26
-33.59
-31.95
-29.70
-26.99
-23.83
-20.23
-16.21
-11.75
-6.75
-1.09
5.29
12.16
19.00
25.09
29.80
32.89
34.53
35.22
35.46
35.46
35.08
33.98
31.89
28.80
24.95
20.70
16.29
11.78
7.10
2.17
-2.94
-7.97
-12.49
-16.11
-18.61
-20.02
-20.58
-20.57
-20.21
-19.59
-18.64
-17.26
-15.40
-13.13
-10.61
-7.97
-5.21
-2.26
1.03
4.73
8.87
13.39
18.16
23.04
27.97
32.94
37.79
42.21
45.79
48.42
50.14
51.17
51.81
52.29
52.73
52.95
52.57
51.16
48.84
45.80
42.12
37.79
32.81
27.38
21.76
16.24
10.96
6.37
2.38
-1.64
-6.56
-13.16
-22.06
-33.96
-49.79
-70.73
-96.80
-125.24
-151.24
-170.61
-181.48
-183.73
-178.13
-166.06
-153.06
-140.49
-129.57
-121.04
-114.25
-106.93
-96.15
-79.84
-57.21
-30.92
-4.81
16.92
31.63
38.99
40.45
38.08
33.56
27.81
21.29
15.21
10.60
8.18
8.25
10.87
16.20
24.38
35.34
48.21
61.70
73.99
83.49
89.61
92.98
95.05
97.21
100.03
102.97
105.12
105.60
104.22
101.55
98.58
96.08
94.23
92.62
90.47
87.12
82.14
75.53
67.47
58.13
47.54
35.64
22.50
8.54
-5.39
-18.26
-29.21
-37.95
-45.00
-51.42
-58.22
-66.03
-74.61
-83.09
-90.31
-95.42
-98.23
-99.21
-99.03
-98.11
-96.35
-93.42
-89.32
-84.72
-80.93
-79.27
-80.38
-83.78
-88.19
-92.13
-94.78
-96.27
-97.32
-98.55
-99.97
-100.82
-100.06
-96.99
-91.54
-84.22
-75.74
-66.71
-57.40
-47.93
-38.23
-28.10
-17.15
-4.78
9.55
26.02
44.12
62.54
79.58
93.58
103.43
108.83
110.24
108.60
105.04
100.67
96.46
93.06
90.83
89.78
89.61
89.91
90.22
90.11
89.23
87.38
84.49
80.62
75.94
70.53
64.44
57.60
49.96
41.67
33.11
24.90
17.69
11.84
7.29
3.47
-0.52
-5.57
-12.20
-20.37
-29.41
-38.22
-45.74
-51.35
-55.10
-57.70
-60.07
-62.93
-66.50
-70.52
-74.48
-78.03
-81.10
-83.77
-86.02
-87.55
-87.76
-86.13
-82.45
-76.98
-70.28
-62.82
-54.72
-45.65
-34.97
-22.11
-6.72
11.10
30.75
51.28
71.46
90.00
105.74
117.96
126.38
131.21
132.90
131.89
128.51
123.01
115.65
106.86
97.19
87.24
77.38
67.70
57.95
47.69
36.54
24.43
11.66
-1.16
-13.32
-24.28
-33.81
-41.96
-48.92
-54.84
-59.84
-64.11
-68.02
-72.07
-76.60
-81.47
-85.98
-89.04
-89.79
-88.07
-84.60
-80.51
-76.70
-73.22
-69.34
-64.10
-57.14
-49.03
-41.10
-34.64
-30.16
-27.20
-24.64
-21.57
-17.84
-14.13
-11.54
-10.88
-12.19
-14.80
-17.67
-19.80
-20.51
-19.40
-16.17
-10.56
-2.39
8.26
20.85
34.41
47.65
59.31
68.47
74.71
78.10
79.04
78.04
75.48
71.63
66.64
60.72
54.09
47.01
39.74
32.47
25.34
18.50
12.13
6.41
1.51
-2.47
-5.59
-8.05
-10.16
-12.28
-14.73
-17.62
-20.85
-24.06
-26.80
-28.67
-29.47
-29.18
-27.91
-25.70
-22.44
-17.93
-12.05
-4.92
3.00
10.97
18.29
24.45
29.34
33.18
36.32
39.04
41.42
43.28
44.35
44.36
43.21
40.93
37.70
33.75
29.35
24.80
20.39
16.47
13.38
11.38
10.56
10.77
11.55
12.25
12.14
10.64
7.46
2.68
-3.28
-9.80
-16.30
-22.38
-27.86
-32.72
-36.95
-40.38
-42.66
-43.32
-41.97
-38.49
-33.19
-26.67
-19.61
-12.64
-6.15
-0.35
4.58
8.51
11.32
13.03
13.90
14.45
15.31
17.05
20.07
24.40
29.81
35.87
42.06
47.85
52.85
56.83
59.75
61.77
63.11
64.03
64.70
65.23
65.61
65.76
65.62
65.17
64.49
63.78
63.27
63.11
63.16
63.00
61.87
59.00
53.68
45.55
34.50
20.62
4.07
-14.99
-36.37
-59.90
-85.29
-112.19
-139.99
-167.82
-194.51
-218.68
-239.00
-254.35
-264.09
-268.07
-266.48
-259.57
-247.42
-229.73
-206.02
-175.99
-140.00
-99.45
-56.81
-15.21
22.34
53.68
77.95
95.54
107.57
115.30
119.71
121.48
121.14
119.33
116.74
113.91
111.01
107.78
103.69
98.26
91.23
82.72
73.15
63.10
53.13
43.62
34.80
26.83
19.76
13.53
8.08
3.45
-0.30
-3.09
-5.02
-6.30
-6.94
-7.00
-6.60
-5.86
-4.86
-3.64
-2.20
-0.52
1.49
4.60
9.37
15.93
23.91
32.81
42.21
51.89
61.62
71.19
81.14
91.47
101.31
109.22
114.06
115.45
114.02
110.95
107.57
105.73
105.94
107.13
107.20
104.41
97.99
88.05
74.54
50.65
14.24
-30.63
-75.27
-111.86
-136.44
-148.82
-151.10
-146.81
-139.44
-130.84
-121.89
-112.83
-104.75
-99.17
-98.49
-101.89
-106.59
-108.29
-102.41
-86.06
-59.26
-26.41
5.76
30.73
44.39
46.03
36.98
18.32
-8.29
-40.21
-73.34
-101.59
-119.15
-123.38
-115.66
-101.77
-91.14
-93.15
-105.89
-123.77
-139.38
-145.47
-137.18
-112.43
-70.31
-19.35
31.12
76.15
114.07
146.90
179.47
208.72
230.60
252.94
272.01
274.66
255.49
214.78
157.65
92.89
24.74
-34.91
-75.99
-99.37
-111.71
-118.65
-124.00
-129.93
-138.41
-146.82
-150.46
-145.73
-132.25
-109.72
-77.65
-35.00
8.62
42.28
60.65
65.99
63.33
55.99
46.29
36.22
26.92
18.68
12.81
10.71
12.83
17.44
21.60
23.30
22.61
20.54
18.01
16.51
17.44
22.06
29.19
37.13
44.75
51.98
59.24
66.85
75.33
84.58
93.23
98.71
98.67
92.13
80.13
64.94
49.25
35.40
24.54
16.44
9.65
2.79
-4.95
-13.51
-22.66
-31.84
-40.59
-48.75
-56.45
-64.40
-73.53
-84.86
-95.80
-104.13
-108.62
-109.51
-107.62
-103.16
-95.93
-85.88
-73.81
-61.24
-50.50
-43.44
-40.50
-40.48
-41.14
-40.53
-37.56
-32.41
-25.94
-20.05
-17.02
-18.84
-27.02
-39.97
-54.32
-65.11
-66.95
-55.41
-29.99
5.17
42.71
75.34
98.72
112.45
119.45
123.89
129.62
137.78
146.60
153.11
155.22
152.92
147.66
141.57
132.83
121.98
109.60
95.17
77.21
54.32
26.19
-6.53
-42.52
-80.09
-116.94
-145.59
-158.58
-154.05
-136.84
-113.86
-90.09
-67.94
-48.45
-31.46
-16.97
-5.07
3.96
10.42
15.19
18.92
21.56
22.78
22.81
21.15
18.79
15.88
12.14
7.15
0.21
-9.40
-21.86
-33.62
-44.74
-55.36
-65.03
-71.43
-70.23
-57.70
-33.45
-2.22
27.13
44.73
45.29
30.07
5.71
-18.50
-36.15
-45.62
-49.08
-49.59
-49.25
-47.33
-42.57
-35.46
-28.84
-27.95
-36.35
-53.18
-72.71
-86.80
-87.45
-70.38
-36.12
10.55
60.54
104.26
134.43
146.57
138.86
113.86
77.70
37.52
4.56
-13.83
-17.93
-14.47
-10.19
-7.57
-4.99
-0.08
7.66
16.64
20.64
15.75
0.66
-23.36
-53.31
-85.70
-116.89
-143.11
-152.73
-141.49
-111.59
-70.86
-29.29
4.67
26.80
37.73
41.38
42.23
41.37
38.22
31.91
22.91
13.28
5.72
2.14
2.68
5.87
8.29
7.25
2.03
-6.09
-14.74
-21.55
-25.12
-25.40
-23.42
-21.34
-20.72
-21.87
-23.70
-24.95
-24.39
-21.51
-16.63
-10.74
-5.37
-1.62
0.42
1.26
1.65
2.25
3.26
4.33
4.82
3.96
1.39
-2.25
-6.10
-9.43
-11.91
-13.84
-16.08
-19.56
-24.93
-32.13
-39.80
-46.41
-50.72
-52.14
-50.87
-47.56
-42.57
-35.17
-27.40
-18.54
-7.36
7.33
26.34
50.09
78.43
110.25
142.62
170.93
190.26
196.47
188.00
166.71
137.03
103.86
70.39
37.49
4.67
-27.55
-56.91
-79.56
-91.85
-92.26
-82.47
-66.47
-48.47
-30.94
-13.55
5.67
28.68
55.67
84.51
111.29
132.04
144.50
149.04
148.67
147.43
148.54
153.04
159.28
163.68
162.46
153.06
135.10
110.69
84.03
60.12
43.46
36.22
37.11
41.28
41.58
30.92
4.39
-38.90
-95.28
-157.07
-214.44
-258.26
-283.21
-290.03
-285.55
-279.83
-281.56
-294.05
-314.08
-334.56
-348.99
-355.00
-354.74
-351.82
-347.74
-340.18
-324.48
-296.99
-258.24
-213.27
-169.00
-130.75
-99.81
-73.51
-47.15
-16.70
19.81
62.08
108.51
157.74
209.11
261.90
313.83
360.16
394.63
412.72
412.63
396.09
367.50
332.20
294.69
257.47
221.47
187.12
156.90
132.19
111.90
92.74
71.56
48.14
25.84
10.62
8.28
24.85
60.56
109.39
161.91
209.89
249.43
280.66
305.79
327.05
349.43
374.28
398.46
415.64
419.68
407.82
380.58
341.08
268.88
160.60
30.94
-94.83
-197.28
-270.81
-318.59
-346.53
-359.77
-362.23
-353.16
-333.61
-307.62
-281.42
-261.83
-250.97
-248.93
-254.50
-265.11
-273.51
-272.60
-257.69
-224.68
-177.57
-124.62
-75.70
-38.43
-15.68
-3.55
4.00
13.13
24.48
36.51
48.60
61.04
74.44
88.53
102.03
112.01
115.31
110.34
98.32
83.54
70.85
62.10
57.77
56.27
54.84
51.17
44.13
34.14
23.00
12.90
5.84
3.22
4.91
9.00
12.17
10.81
2.70
-11.68
-29.40
-46.52
-59.87
-68.32
-72.42
-73.34
-71.88
-68.22
-62.43
-55.09
-47.48
-41.01
-36.91
-35.85
-37.90
-42.68
-49.51
-57.32
-64.87
-70.96
-75.13
-77.66
-79.27
-80.42
-80.93
-80.45
-78.99
-77.25
-76.14
-76.13
-76.96
-77.94
-78.76
-80.05
-83.04
-88.72
-96.67
-104.87
-110.26
-110.26
-104.30
-94.32
-83.97
-76.94
-75.25
-78.44
-83.95
-88.54
-89.92
-87.85
-83.95
-80.48
-79.04
-79.50
-80.27
-79.30
-75.31
-68.44
-60.19
-52.45
-46.71
-43.31
-41.44
-39.55
-36.02
-29.90
-21.10
-10.20
2.25
16.03
31.36
48.41
66.77
85.42
103.04
118.66
132.10
143.85
154.70
165.37
176.35
187.56
198.10
205.78
207.64
200.56
182.81
155.15
120.82
84.44
50.39
21.63
-0.59
-16.31
-26.24
-31.55
-33.98
-35.91
-39.77
-47.30
-58.35
-70.69
-80.48
-83.50
-76.56
-58.36
-29.98
5.43
43.50
79.98
111.61
136.74
155.24
168.01
175.92
179.07
177.13
169.73
157.40
141.67
124.70
108.46
94.18
81.97
70.96
59.66
46.31
29.45
7.72
-20.02
-54.18
-93.92
-136.82
-179.27
-217.32
-247.53
-266.77
-273.49
-268.15
-252.73
-229.71
-201.29
-169.04
-134.30
-98.48
-61.60
-24.39
11.43
43.67
70.85
92.68
109.63
122.17
130.55
138.10
147.98
161.88
179.51
199.64
221.20
243.59
266.48
289.46
315.62
346.36
379.87
411.35
435.55
448.93
449.98
438.44
392.18
302.41
178.49
45.26
-72.31
-161.00
-219.81
-254.52
-272.69
-280.96
-280.19
-270.82
-254.89
-236.17
-218.43
-203.78
-192.56
-184.40
-179.03
-173.21
-165.76
-156.52
-147.20
-140.37
-138.04
-141.46
-150.80
-164.55
-177.66
-182.80
-178.36
-167.56
-156.28
-149.18
-146.64
-144.35
-137.39
-119.20
-88.47
-49.92
-11.00
22.22
47.86
67.48
82.80
92.36
91.20
73.30
36.54
-13.91
-66.33
-106.33
-122.95
-112.33
-75.76
-20.62
43.18
106.96
164.57
211.16
241.52
250.14
233.61
193.42
136.87
75.53
21.61
-15.96
-33.27
-30.56
-10.36
23.69
66.51
110.77
147.87
170.37
174.81
162.97
140.35
113.28
86.62
63.04
44.00
31.24
26.26
28.08
31.77
29.75
15.51
-11.47
-43.92
-69.39
-76.37
-60.16
-25.37
16.62
52.86
73.67
75.17
59.10
31.66
1.82
-20.69
-28.03
-16.97
9.06
40.85
66.82
77.62
69.39
43.78
5.88
-38.37
-83.24
-122.19
-146.62
-146.48
-113.90
-48.03
42.10
138.81
221.52
273.78
288.73
269.92
228.14
176.06
124.11
79.06
45.16
25.76
23.59
39.36
70.09
108.64
145.58
172.60
185.32
183.90
171.37
151.14
125.36
95.07
61.39
26.75
-5.29
-31.46
-50.43
-63.82
-75.76
-91.74
-116.25
-150.79
-192.32
-233.02
-261.73
-267.00
-240.98
-182.35
-97.34
1.92
100.90
186.67
250.72
289.77
305.14
300.68
281.31
251.83
216.27
177.70
138.37
100.19
65.28
36.24
15.50
4.40
2.15
5.47
9.37
8.68
-0.09
-18.02
-43.90
-75.46
-110.63
-148.14
-187.53
-228.33
-269.77
-310.80
-350.70
-389.81
-429.57
-472.01
-518.56
-569.09
-621.16
-670.75
-713.40
-745.34
-764.19
-768.79
-758.66
-733.69
-694.40
-642.62
-582.01
-517.65
-454.79
-397.30
-346.39
-300.82
-257.76
-214.24
-168.10
-118.42
-65.76
-12.88
34.50
68.12
79.31
62.69
19.74
-40.06
-101.77
-150.28
-175.91
-177.25
-160.03
-133.04
-103.48
-74.70
-46.70
-18.66
8.88
33.69
53.25
66.83
76.15
84.72
95.87
110.97
128.79
145.99
158.84
165.20
165.72
163.70
163.83
170.12
184.41
205.82
231.53
258.10
283.19
306.60
330.20
357.05
390.22
432.28
484.59
546.44
614.10
680.58
736.97
774.49
787.08
772.71
734.63
679.47
614.68
545.83
475.88
406.49
338.99
274.40
212.03
150.86
89.65
28.15
-32.72
-90.64
-141.84
-182.77
-211.87
-231.70
-245.21
-254.73
-260.81
-263.55
-263.03
-258.31
-247.43
-228.26
-200.88
-165.09
-121.44
-70.86
-16.09
31.84
60.72
66.71
70.67
82.16
102.28
120.44
127.91
117.60
86.39
37.29
-21.51
-83.06
-135.80
-168.64
-179.63
-174.90
-163.01
-149.09
-133.87
-116.11
-95.66
-75.91
-60.74
-52.93
-51.61
-53.61
-54.66
-52.01
-45.10
-35.40
-26.87
-22.58
-24.98
-34.24
-48.07
-61.53
-69.36
-66.90
-51.44
-23.74
12.00
49.22
81.33
102.85
116.28
124.23
127.25
123.46
109.58
82.98
43.39
-6.12
-60.04
-107.93
-138.20
-145.15
-132.30
-109.30
-85.79
-67.44
-55.38
-47.20
-39.12
-29.83
-20.26
-12.45
-7.79
-6.24
-6.98
-9.46
-13.73
-19.21
-26.24
-34.44
-41.44
-42.99
-34.88
-14.20
14.56
43.86
66.66
78.64
79.51
72.38
61.76
51.34
42.89
36.51
32.20
30.39
31.10
33.56
36.40
37.99
37.33
33.93
28.49
22.66
18.71
18.56
22.67
29.06
33.36
30.68
17.46
-5.89
-34.37
-60.75
-78.89
-86.82
-87.22
-85.36
-86.07
-91.42
-100.60
-111.18
-120.71
-127.33
-129.42
-125.03
-112.32
-90.74
-61.96
-30.09
0.04
24.48
41.33
50.31
52.31
48.03
37.94
23.07
5.36
-12.27
-26.55
-35.05
-36.96
-32.92
-24.20
-13.81
-3.20
7.39
18.58
31.18
45.33
60.10
73.71
84.25
90.44
92.51
91.66
89.52
87.41
85.85
84.59
83.07
80.83
77.83
74.66
72.04
70.42
69.78
69.56
68.97
67.22
63.87
58.93
52.93
46.55
40.38
34.74
29.62
24.79
19.99
15.06
10.04
5.20
0.88
-2.63
-5.11
-6.48
-6.76
-6.20
-5.17
-4.21
-3.78
-4.15
-5.28
-6.88
-8.53
-9.95
-11.09
-12.23
-13.87
-16.62
-21.01
-27.28
-35.27
-44.35
-53.55
-61.88
-68.56
-73.25
-75.95
-76.80
-75.82
-72.90
-67.89
-60.86
-52.29
-42.98
-33.84
-25.56
-18.42
-12.32
-6.98
-2.15
2.19
5.91
8.88
11.09
12.69
13.93
14.99
15.93
16.62
16.90
16.65
15.96
15.02
14.08
13.29
12.58
11.84
10.87
9.64
8.19
6.70
5.26
3.85
2.37
0.65
-1.33
-3.48
-5.65
-7.73
-9.80
-12.06
-14.77
-18.07
-21.93
-26.17
-30.54
-34.86
-39.00
-42.94
-46.67
-50.19
-53.45
-56.34
-58.66
-60.15
-60.50
-59.55
-57.31
-54.01
-49.96
-45.43
-40.58
-35.47
-30.14
-24.66
-19.08
-13.28
-6.97
0.24
8.52
17.50
26.16
33.05
36.77
36.51
32.33
25.16
16.40
7.45
-0.63
-7.25
-12.27
-15.79
-18.06
-19.41
-20.20
-20.84
-21.49
-21.98
-21.65
-19.54
-14.73
-6.70
4.32
17.37
31.05
43.98
55.20
64.29
71.27
76.32
79.59
81.17
81.11
79.60
76.91
73.36
69.23
64.64
59.57
53.87
47.34
39.92
31.67
22.94
14.22
6.03
-1.34
-7.99
-14.39
-21.19
-28.84
-37.36
-46.24
-54.72
-62.13
-68.20
-73.09
-77.28
-81.30
-85.48
-89.96
-94.66
-99.24
-103.19
-105.66
-105.56
-101.53
-92.34
-77.10
-55.75
-29.08
1.52
34.46
68.54
102.96
137.00
169.46
198.28
220.78
234.44
238.07
232.36
219.83
203.73
186.73
169.95
152.78
133.73
111.56
86.11
58.47
30.57
4.49
-18.16
-36.38
-49.61
-57.45
-59.57
-55.89
-46.96
-34.17
-19.72
-6.20
4.12
10.01
11.63
10.31
8.03
6.39
6.30
7.87
10.41
13.10
15.34
17.25
19.53
23.25
29.04
37.02
46.80
57.05
65.96
71.60
72.90
69.97
64.24
57.35
50.70
44.85
38.59
29.50
14.76
-6.79
-34.04
-63.54
-91.75
-116.33
-133.70
-141.34
-140.10
-134.76
-130.84
-135.16
-147.77
-165.19
-180.98
-187.30
-178.51
-149.77
-104.90
-55.25
-16.44
-1.89
-17.69
-58.98
-111.41
-156.99
-180.81
-176.54
-146.96
-101.98
-54.28
-15.73
6.03
9.13
-3.04
-23.30
-43.32
-55.31
-54.12
-37.89
-8.67
28.20
65.02
93.19
105.08
96.11
67.01
24.03
-22.78
-63.46
-91.03
-103.20
-101.96
-91.88
-78.04
-64.20
-52.35
-42.80
-34.75
-26.78
-17.24
-4.67
11.81
32.22
55.82
81.45
107.84
133.52
156.95
176.62
191.43
200.90
205.29
205.10
200.59
191.86
179.21
163.67
146.86
130.54
115.95
103.28
91.78
80.22
67.40
52.50
35.31
16.50
-2.45
-19.41
-32.30
-39.80
-42.06
-40.75
-38.33
-37.05
-37.87
-40.26
-42.63
-43.44
-42.01
-38.86
-35.19
-32.10
-29.95
-28.30
-26.28
-23.24
-18.99
-13.75
-7.79
-1.21
6.02
13.76
21.45
28.08
32.54
33.96
31.95
26.66
18.91
10.16
2.43
-2.19
-2.32
1.85
8.32
13.79
15.03
10.18
-0.37
-14.27
-28.23
-39.29
-45.60
-46.54
-42.42
-34.11
-22.82
-10.13
2.05
11.76
17.52
18.62
15.42
9.20
1.63
-5.69
-11.73
-16.14
-19.11
-21.08
-22.45
-23.38
-24.05
-24.59
-25.33
-26.65
-28.79
-31.75
-35.25
-38.90
-42.15
-44.33
-44.50
-41.70
-35.32
-25.70
-14.38
-3.81
3.48
5.96
3.79
-1.39
-7.43
-12.96
-18.16
-24.80
-35.34
-51.66
-74.16
-101.43
-130.58
-157.86
-179.41
-191.78
-192.53
-180.43
-155.61
-119.65
-75.43
-26.87
21.53
65.13
100.08
124.17
137.32
141.49
139.89
135.61
130.58
125.06
117.90
107.47
92.46
72.42
47.83
19.90
-9.52
-37.98
-62.62
-80.77
-90.76
-92.44
-87.07
-76.69
-63.56
-49.37
-34.87
-19.81
-3.31
15.52
37.05
61.09
86.84
112.28
134.59
151.01
159.70
160.33
153.93
142.36
127.70
111.49
93.72
73.00
47.76
17.13
-18.28
-56.80
-96.38
-135.29
-169.45
-193.15
-202.58
-198.82
-187.19
-173.52
-161.81
-153.28
-146.12
-135.80
-119.31
-92.63
-54.53
-7.95
41.41
87.28
125.58
156.06
182.20
209.28
234.97
257.91
275.87
286.39
287.58
278.81
260.68
234.58
202.12
165.30
127.22
90.93
58.78
31.48
8.15
-12.61
-31.21
-46.35
-55.63
-56.67
-49.91
-39.11
-30.13
-28.22
-35.56
-50.33
-67.89
-83.12
-92.15
-93.69
-88.44
-77.90
-63.38
-45.81
-26.17
-6.03
12.41
27.02
36.24
39.78
38.72
35.03
30.64
26.65
23.05
18.89
13.10
5.08
-4.90
-15.75
-26.07
-34.74
-41.43
-46.72
-51.80
-57.90
-65.71
-74.96
-84.37
-92.06
-96.21
-95.61
-90.27
-81.42
-71.14
-61.72
-54.93
-51.54
-51.19
-52.73
-54.64
-55.39
-53.79
-48.99
-40.73
-29.48
-16.61
-4.38
4.52
7.73
4.04
-6.05
-20.42
-36.09
-50.09
-60.17
-65.24
-65.35
-61.40
-54.95
-47.76
-41.20
-35.73
-30.78
-25.49
-19.83
-15.44
-15.59
-23.85
-42.06
-68.84
-99.57
-128.08
-149.01
-159.67
-160.27
-153.00
-140.55
-125.41
-109.80
-96.08
-86.74
-83.58
-86.61
-93.38
-99.68
-101.17
-95.24
-82.17
-64.96
-47.78
-34.23
-26.04
-22.79
-22.60
-23.07
-21.99
-17.65
-8.80
5.28
24.58
47.96
73.08
96.89
116.53
130.22
137.78
140.39
139.93
138.08
135.92
133.88
132.02
130.26
128.45
126.18
122.79
117.55
109.98
100.18
88.86
77.07
65.81
55.81
47.52
41.20
37.13
35.53
36.35
39.07
42.69
45.99
47.98
48.31
47.35
45.93
44.93
44.83
45.56
46.60
47.28
47.11
45.88
43.66
40.71
37.35
33.90
30.61
27.67
25.16
23.11
21.52
20.35
19.52
18.89
18.22
17.26
15.80
13.86
11.69
9.64
8.02
6.89
6.07
5.26
4.22
2.94
1.62
0.57
0.05
0.12
0.61
1.20
1.61
1.67
1.37
0.86
0.29
-0.30
-0.95
-1.76
-2.80
-4.00
-5.21
-6.20
-6.85
-7.18
-7.31
-7.43
-7.65
-7.98
-8.33
-8.60
-8.72
-8.67
-8.47
-8.11
-7.65
-7.17
-6.83
-6.80
-7.21
-8.04
-9.13
-10.21
-10.99
-11.33
-11.19
-10.73
-10.26
-10.10
-10.55
-11.73
-13.40
-15.01
-15.86
-15.41
-13.63
-11.08
-8.69
-7.28
-7.15
-7.96
-8.93
-9.32
-8.81
-7.60
-6.23
-5.20
-4.74
-4.76
-5.00
-5.18
-5.18
-5.03
-4.81
-4.61
-4.45
-4.31
-4.13
-3.84
-3.47
-3.09
-2.91
-3.18
-4.08
-5.60
-7.51
-9.42
-10.98
-11.99
-12.51
-12.80
-13.17
-13.83
-14.75
-15.75
-16.61
-17.24
-17.77
-18.43
-19.44
-20.86
-22.52
-24.15
-25.49
-26.46
-27.09
-27.54
-27.88
-28.10
-28.04
-27.50
-26.32
-24.37
-21.50
-17.55
-12.37
-5.90
1.66
9.71
17.36
23.56
27.46
28.66
27.40
24.42
20.77
17.39
14.88
13.38
12.64
12.24
11.75
10.91
9.61
7.84
5.70
3.35
0.98
-1.19
-3.09
-4.78
-6.55
-8.72
-11.57
-15.07
-18.89
-22.51
-25.38
-27.11
-27.63
-27.07
-25.78
-24.12
-22.45
-21.03
-20.00
-19.23
-18.29
-16.58
-13.52
-8.91
-3.06
3.25
9.04
13.43
15.91
16.42
15.32
13.29
11.19
9.93
10.27
12.62
16.92
22.70
29.27
36.03
42.67
49.11
55.33
61.16
66.20
69.94
71.93
71.97
70.14
66.70
61.93
55.96
48.84
40.53
31.09
20.78
10.09
-0.29
-9.67
-17.38
-22.88
-25.77
-25.78
-22.81
-17.00
-8.83
0.87
11.03
20.65
28.97
35.56
40.34
43.55
45.53
46.60
46.97
46.78
46.26
45.68
45.31
45.27
45.44
45.37
44.41
41.99
38.01
33.13
28.51
25.28
24.01
24.41
25.57
26.20
25.27
22.51
18.58
14.41
10.42
6.23
0.60
-8.11
-21.82
-41.87
-67.95
-97.23
-125.08
-146.78
-159.32
-162.39
-158.34
-151.60
-146.75
-146.18
-148.71
-150.58
-147.66
-136.91
-117.12
-88.84
-55.05
-20.88
7.75
26.14
31.11
20.89
-4.60
-43.68
-87.32
-122.09
-137.89
-134.80
-119.18
-97.39
-73.51
-50.16
-29.58
-13.61
-4.28
-3.43
-11.48
-25.48
-40.33
-50.94
-52.33
-41.82
-19.92
8.92
37.47
58.66
69.54
71.42
68.62
65.98
66.17
68.59
69.70
65.58
50.00
23.92
-6.55
-32.69
-46.58
-44.16
-26.35
1.63
32.86
61.64
86.11
107.11
126.39
144.92
161.93
175.43
183.41
184.97
180.77
173.20
164.39
155.20
144.99
132.23
115.67
95.38
73.03
51.18
32.31
17.50
6.17
-3.32
-12.74
-22.97
-33.54
-42.85
-49.07
-51.31
-50.02
-46.49
-41.93
-36.87
-30.84
-22.56
-10.55
6.06
26.10
46.78
64.86
77.73
83.75
82.38
74.35
61.58
46.83
31.98
18.48
7.93
1.83
0.41
1.76
2.51
-0.71
-9.68
-25.55
-47.71
-73.52
-99.57
-124.05
-147.81
-173.34
-202.80
-225.87
-231.88
-216.95
-186.82
-150.87
-116.22
-86.63
-63.01
-44.37
-30.84
-22.28
-20.82
-28.50
-44.78
-66.27
-87.33
-101.64
-104.26
-88.70
-55.87
-11.60
36.93
84.01
125.71
158.92
180.33
186.52
175.22
145.89
101.99
51.23
3.32
-33.66
-55.86
-63.83
-60.94
-51.35
-39.25
-27.61
-17.89
-10.40
-4.89
-0.99
1.76
3.95
6.36
9.29
12.77
16.56
20.25
23.24
25.03
25.40
24.69
23.66
23.06
23.47
25.08
27.69
30.76
33.53
35.19
35.04
32.76
28.46
22.85
16.88
11.49
7.26
4.34
2.59
1.86
2.05
3.10
4.84
6.86
8.69
9.95
10.56
10.74
10.80
10.96
11.24
11.57
11.84
12.04
12.31
12.72
13.19
13.40
12.80
10.75
6.76
0.66
-7.17
-15.84
-24.16
-30.93
-35.31
-37.02
-36.35
-33.99
-30.84
-27.72
-25.31
-24.04
-24.14
-25.59
-28.14
-31.39
-34.80
-37.94
-40.50
-42.42
-43.79
-44.72
-45.25
-45.28
-44.65
-43.27
-41.16
-38.44
-35.12
-31.14
-26.36
-20.71
-14.40
-7.93
-1.92
3.10
7.09
10.60
14.66
20.51
29.07
40.61
54.61
69.92
85.12
98.96
110.67
119.94
126.87
131.64
134.36
134.99
133.27
128.81
121.15
110.02
95.67
79.08
61.90
46.16
33.49
24.62
19.06
15.37
11.68
6.33
-1.71
-12.78
-26.56
-42.28
-58.75
-74.49
-87.92
-97.86
-104.03
-107.35
-109.80
-113.66
-120.51
-130.39
-141.74
-152.09
-159.45
-163.36
-165.21
-167.30
-171.55
-178.32
-186.47
-194.00
-199.13
-200.69
-197.61
-188.17
-169.88
-140.78
-101.41
-56.31
-13.22
19.96
38.99
45.25
44.65
44.11
47.77
55.60
64.86
73.56
82.87
96.99
120.41
154.41
195.18
234.68
264.03
277.15
272.67
253.30
223.64
187.93
148.97
108.52
68.45
31.57
1.73
-16.98
-22.16
-14.16
3.71
26.28
47.92
63.77
70.58
66.91
53.79
33.20
7.89
-18.88
-43.36
-61.64
-70.26
-66.86
-51.12
-23.81
11.72
50.74
88.86
123.56
153.80
178.13
193.24
194.16
178.60
146.41
100.66
47.38
-5.76
-51.54
-84.71
-101.95
-101.58
-81.11
-42.18
8.09
58.79
99.80
126.22
139.63
146.86
138.94
115.00
81.30
46.65
15.85
-10.31
-32.13
-49.84
-63.80
-75.14
-82.57
-85.53
-84.21
-79.29
-71.33
-61.31
-51.81
-46.72
-49.88
-60.37
-76.31
-93.89
-108.32
-115.18
-112.38
-101.37
-86.54
-73.18
-63.62
-57.87
-53.80
-48.63
-40.32
-28.68
-15.48
-3.40
5.36
10.77
13.75
15.59
17.31
19.33
21.41
23.06
23.96
24.16
24.29
24.69
25.27
25.50
24.79
22.86
19.81
15.79
10.63
3.70
-5.75
-17.97
-32.27
-47.13
-60.87
-72.39
-81.47
-88.50
-93.67
-96.51
-95.97
-91.03
-81.69
-69.12
-55.19
-41.51
-28.72
-16.41
-3.92
8.70
20.27
28.73
32.29
30.43
24.32
16.46
9.66
6.32
7.98
15.78
30.29
51.10
75.90
99.78
115.97
118.08
103.04
72.97
34.92
-1.65
-28.44
-41.40
-41.85
-35.21
-28.06
-25.34
-28.37
-34.91
-40.62
-41.23
-34.29
-20.07
-1.32
17.90
33.97
44.90
50.57
51.76
48.87
41.53
29.10
12.35
-5.72
-20.87
-29.95
-33.19
-34.70
-40.45
-54.43
-75.55
-97.51
-112.13
-114.17
-104.56
-89.74
-77.71
-73.75
-78.41
-88.52
-99.99
-109.84
-116.56
-119.41
-117.07
-107.50
-89.25
-63.13
-32.76
-3.15
21.87
41.15
55.00
63.59
66.15
61.70
50.20
33.70
16.31
3.17
-1.52
2.73
13.29
26.87
41.29
55.24
66.92
73.63
73.42
68.36
63.26
64.50
77.15
101.63
132.45
160.74
172.30
158.85
127.86
95.66
74.79
66.90
66.11
66.05
63.57
60.58
55.80
47.65
30.77
-0.37
-47.25
-105.20
-165.06
-217.34
-246.06
-251.91
-232.89
-194.47
-145.97
-96.81
-53.52
-18.92
6.91
25.45
37.33
44.83
48.53
48.97
47.23
45.00
43.61
43.22
42.90
40.32
35.07
26.96
16.87
6.39
-2.63
-8.83
-11.75
-11.65
-9.90
-6.99
-3.72
-0.63
2.06
4.38
6.47
8.29
9.56
9.37
7.21
2.97
-2.61
-7.87
-10.73
-9.50
-3.72
5.51
15.79
24.49
29.57
30.31
27.35
22.29
17.15
13.75
13.35
16.29
21.92
28.86
35.55
41.01
45.26
49.36
54.76
62.30
71.63
81.13
88.61
92.44
92.38
89.86
87.48
88.09
93.82
105.42
121.82
140.40
157.65
170.16
175.71
173.84
165.76
153.43
138.47
121.20
100.76
75.58
44.71
8.44
-31.28
-71.31
-108.11
-138.43
-159.82
-170.87
-171.46
-162.94
-148.18
-130.93
-114.73
-101.67
-91.71
-83.01
-73.25
-61.21
-47.76
-35.33
-26.46
-22.15
-21.19
-21.04
-19.66
-17.11
-15.62
-18.21
-26.56
-39.59
-53.36
-62.77
-63.62
-54.39
-36.71
-14.37
8.30
28.00
43.29
54.22
61.75
66.63
68.93
68.41
65.16
60.25
55.69
53.80
56.38
63.82
74.70
85.92
93.41
93.08
81.92
58.82
25.17
-15.38
-57.92
-97.51
-130.71
-156.17
-174.40
-186.94
-195.15
-199.64
-200.36
-197.27
-190.86
-182.28
-172.99
-164.28
-156.47
-148.94
-140.55
-130.37
-118.33
-105.40
-93.10
-82.87
-75.40
-70.38
-66.80
-63.44
-59.51
-54.93
-50.33
-46.70
-44.95
-45.47
-47.89
-51.17
-53.72
-53.69
-49.37
-39.60
-24.26
-4.55
17.12
37.73
54.54
65.87
71.44
72.10
69.11
63.51
55.86
46.57
36.45
27.00
20.20
17.81
20.59
27.99
38.30
49.48
59.82
68.54
75.71
81.81
87.22
91.86
95.26
96.85
96.36
94.03
90.58
86.95
83.85
81.59
80.01
78.83
77.91
77.49
78.04
79.88
82.85
85.99
87.93
87.26
83.07
75.28
64.51
51.94
38.90
26.75
16.72
9.94
7.31
9.30
15.66
25.10
35.45
44.16
49.03
48.92
44.16
36.17
26.90
17.90
9.87
2.42
-5.52
-15.06
-26.82
-40.52
-55.07
-68.90
-80.70
-90.07
-97.76
-105.36
-114.31
-124.90
-135.80
-144.48
-148.51
-146.81
-140.29
-131.29
-122.30
-114.63
-107.90
-100.70
-91.73
-80.82
-69.13
-58.28
-49.31
-41.97
-34.95
-26.79
-16.83
-5.67
5.15
14.06
20.21
23.83
25.83
27.26
28.68
30.08
31.08
31.29
30.62
29.31
27.78
26.45
25.60
25.24
25.26
25.48
25.77
26.07
26.41
26.81
27.28
27.81
28.29
28.68
28.92
29.01
29.00
28.92
28.76
28.44
27.90
27.08
26.00
24.72
23.32
21.85
20.35
18.89
17.62
16.74
16.44
16.77
17.60
18.70
19.81
20.82
21.79
22.96
24.48
26.37
28.45
30.38
31.82
32.60
32.79
32.68
32.62
32.79
33.19
33.49
33.24
31.97
29.48
25.93
21.80
17.83
14.66
12.62
11.63
11.16
10.58
9.33
7.21
4.32
0.95
-2.66
-6.41
-10.41
-14.70
-19.05
-22.90
-25.49
-26.14
-24.56
-21.08
-16.50
-11.84
-7.95
-5.34
-4.15
-4.22
-5.31
-7.08
-9.20
-11.21
-12.66
-13.20
-12.69
-11.40
-9.83
-8.56
-7.96
-8.00
-8.26
-8.10
-6.93
-4.47
-0.81
3.63
8.23
12.33
15.40
17.11
17.43
16.63
15.18
13.62
12.28
11.16
10.00
8.41
6.16
3.32
0.26
-2.56
-4.75
-6.21
-7.13
-7.89
-8.87
-10.26
-12.04
-13.96
-15.70
-16.99
-17.75
-18.14
-18.46
-19.11
-20.37
-22.37
-25.07
-28.21
-31.36
-33.98
-35.52
-35.52
-33.80
-30.45
-25.80
-20.41
-14.87
-9.88
-6.08
-4.02
-4.01
-6.00
-9.55
-13.95
-18.40
-22.26
-25.20
-27.20
-28.41
-28.90
-28.58
-27.21
-24.58
-20.62
-15.47
-9.43
-2.90
3.73
10.07
15.76
20.46
23.87
25.80
26.22
25.30
23.38
21.01
18.66
16.62
14.96
13.54
12.13
10.46
8.34
5.76
2.96
0.23
-2.07
-3.55
-3.82
-2.53
0.42
4.67
9.45
13.82
16.58
16.57
13.18
6.68
-1.73
-10.25
-17.17
-21.39
-22.31
-20.43
-16.83
-12.27
-6.64
0.79
10.56
22.24
34.38
45.90
55.23
61.05
63.23
63.23
63.44
65.73
70.43
76.28
82.51
86.82
86.26
78.84
65.10
48.54
34.75
29.92
39.53
68.19
114.23
169.16
220.61
257.01
271.57
263.37
236.32
185.52
117.56
47.18
-11.67
-53.34
-79.85
-94.96
-100.73
-100.74
-101.57
-106.49
-119.41
-141.44
-168.86
-193.51
-206.38
-202.24
-182.27
-152.80
-120.83
-93.58
-76.22
-70.52
-74.46
-82.86
-88.84
-85.56
-68.01
-34.42
10.05
53.81
82.89
87.14
65.21
25.55
-17.42
-49.69
-63.87
-63.03
-58.53
-63.78
-86.95
-127.00
-174.31
-215.14
-237.20
-233.72
-204.74
-155.29
-92.32
-22.11
49.85
117.77
174.45
211.52
221.67
202.08
157.09
98.03
39.59
-5.99
-33.87
-48.10
-58.62
-75.56
-103.42
-138.46
-170.64
-188.62
-185.19
-160.12
-119.32
-71.09
-21.73
26.74
75.64
126.57
178.30
225.54
260.39
275.66
268.13
240.09
198.36
151.54
106.91
68.41
36.75
10.91
-10.00
-25.62
-34.59
-35.67
-28.96
-16.37
-1.12
13.38
24.68
31.84
35.19
35.53
33.21
27.68
17.75
2.34
-18.61
-43.55
-69.37
-92.19
-108.29
-115.09
-111.64
-98.66
-78.20
-53.03
-26.09
-0.04
23.07
41.77
55.26
63.24
65.89
63.81
57.97
49.62
40.12
30.80
22.82
17.04
14.14
14.45
17.94
24.11
31.95
40.03
46.72
50.53
50.42
45.86
36.86
23.78
7.21
-12.12
-33.25
-54.99
-75.94
-94.66
-109.90
-120.82
-127.01
-128.44
-125.17
-117.28
-104.85
-88.08
-67.46
-43.88
-18.57
7.01
31.39
53.17
71.27
84.92
93.70
97.56
96.79
92.01
84.16
74.31
63.57
52.82
42.52
32.62
22.79
12.68
2.22
-8.14
-17.54
-24.88
-29.19
-29.94
-27.25
-22.01
-15.73
-10.29
-7.34
-7.82
-11.48
-16.85
-21.61
-23.35
-20.32
-12.06
0.53
15.44
30.19
42.43
50.50
53.57
51.77
45.88
37.27
27.59
18.60
11.89
8.56
8.91
12.27
17.10
21.35
23.09
20.99
14.63
4.53
-8.19
-22.15
-36.06
-48.94
-60.18
-69.60
-77.30
-83.51
-88.39
-91.76
-93.05
-91.44
-86.07
-76.49
-62.87
-45.94
-26.80
-6.55
13.82
33.48
51.49
66.67
77.57
82.72
80.97
71.87
55.94
34.84
11.35
-10.96
-28.38
-37.94
-38.27
-30.09
-16.08
-0.09
14.00
23.29
26.39
23.44
15.56
4.34
-8.58
-21.63
-33.30
-42.21
-47.32
-48.22
-45.26
-39.54
-32.42
-25.07
-18.04
-11.22
-4.07
3.91
12.98
23.11
34.15
46.00
58.68
72.07
85.73
98.75
109.83
117.52
120.65
118.50
111.05
99.01
83.79
67.37
51.90
39.32
30.76
26.22
24.45
23.37
20.78
15.15
6.24
-4.91
-16.44
-26.46
-33.76
-38.24
-40.84
-43.01
-46.07
-50.46
-55.65
-60.30
-63.07
-63.41
-62.14
-61.35
-63.76
-71.97
-87.52
-110.10
-137.01
-163.12
-181.50
-184.95
-168.57
-132.28
-82.09
-29.03
14.30
38.38
40.40
25.05
2.18
-17.66
-27.29
-24.76
-12.72
3.95
20.35
32.80
38.75
36.34
24.17
1.89
-28.81
-63.75
-96.99
-122.33
-135.01
-133.12
-117.77
-92.30
-60.80
-26.87
7.04
39.71
70.44
98.35
121.99
139.52
149.46
151.40
146.37
136.68
125.34
115.23
108.52
106.47
109.47
117.08
128.18
140.88
153.01
162.69
168.61
170.03
166.89
159.57
148.70
135.14
119.53
102.39
83.99
64.22
42.64
19.09
-5.54
-29.19
-48.91
-62.28
-67.88
-65.59
-56.65
-44.13
-31.32
-20.47
-12.42
-6.34
-1.95
1.15
3.42
4.77
2.84
-4.58
-17.76
-34.62
-50.23
-61.75
-67.48
-67.04
-62.09
-58.15
-60.43
-70.68
-87.00
-103.01
-115.81
-124.08
-127.82
-128.99
-133.82
-147.95
-173.24
-208.25
-246.46
-285.77
-325.02
-362.98
-373.84
-340.03
-265.43
-174.63
-111.18
-75.44
-60.63
-60.05
-61.54
-57.67
-45.82
-25.32
11.10
60.06
111.65
151.11
171.70
176.41
171.49
160.47
144.57
125.14
104.11
87.25
78.28
77.61
83.77
92.92
100.20
102.30
99.92
96.85
100.55
115.65
143.19
180.38
215.51
235.74
230.50
195.88
136.19
64.81
-1.17
-46.01
-60.20
-43.84
-4.76
44.90
93.64
133.68
162.20
179.40
186.61
185.12
175.94
161.08
143.17
124.57
105.94
86.01
62.66
34.72
3.49
-27.41
-52.95
-69.15
-74.45
-70.13
-59.51
-46.72
-35.44
-27.82
-24.31
-23.78
-24.43
-24.99
-25.50
-27.55
-33.60
-45.70
-64.36
-87.92
-112.97
-135.71
-153.32
-165.10
-172.51
-178.06
-183.88
-190.36
-196.07
-198.70
-196.65
-190.11
-181.02
-172.06
-165.06
-160.31
-156.76
-153.07
-148.44
-142.75
-136.05
-127.83
-117.01
-102.44
-83.83
-62.20
-39.50
-17.89
1.22
17.57
31.85
45.02
57.80
70.34
82.30
93.00
101.61
107.47
110.12
109.49
105.85
99.73
91.75
82.64
73.26
64.51
57.26
51.98
48.55
46.19
43.83
40.66
36.52
32.05
28.27
25.97
25.15
24.91
23.94
21.09
16.09
9.64
3.25
-1.47
-3.49
-2.81
-0.49
1.77
2.29
0.18
-4.23
-9.24
-12.30
-10.78
-3.00
11.10
29.82
50.16
68.70
82.65
90.67
93.04
91.48
88.35
85.74
84.62
84.22
81.84
73.48
55.10
24.59
-16.66
-63.40
-107.81
-142.11
-161.20
-164.19
-154.23
-136.72
-117.15
-99.45
-85.59
-75.99
-70.27
-67.54
-66.39
-64.74
-60.25
-50.90
-35.97
-16.45
5.27
26.13
43.22
54.63
59.65
58.63
52.66
43.06
31.20
18.46
6.23
-4.03
-10.68
-12.05
-6.79
5.47
23.43
43.91
62.48
74.82
78.34
73.23
62.19
49.14
37.36
28.32
21.58
15.83
10.22
5.07
1.67
1.27
4.21
9.58
15.49
19.93
21.66
20.72
18.58
17.62
20.02
26.83
37.34
49.22
59.53
65.96
67.74
65.71
61.80
57.86
55.08
53.87
54.19
56.08
59.89
65.89
73.91
83.15
92.10
99.10
103.12
104.21
103.68
103.58
105.73
110.74
117.62
123.73
125.85
121.20
108.31
87.10
58.73
25.35
-10.06
-43.93
-73.00
-95.42
-111.57
-123.98
-135.93
-149.64
-164.61
-177.58
-183.92
-180.00
-164.79
-140.50
-111.52
-82.48
-56.87
-36.48
-21.63
-11.98
-6.94
-5.70
-7.25
-10.36
-13.44
-15.07
-14.32
-11.19
-6.51
-1.74
1.59
2.53
0.92
-2.46
-6.21
-8.82
-9.25
-7.26
-3.57
0.43
3.22
3.77
1.96
-1.44
-5.10
-7.78
-8.73
-8.00
-6.21
-4.20
-2.62
-1.64
-1.09
-0.69
-0.33
-0.24
-0.77
-2.07
-3.88
-5.56
-6.38
-5.98
-4.66
-3.22
-2.59
-3.36
-5.46
-8.27
-10.92
-12.74
-13.51
-13.46
-13.01
-12.53
-12.11
-11.64
-10.90
-9.76
-8.22
-6.40
-4.43
-2.32
-0.06
2.33
4.62
6.42
7.33
7.18
6.12
4.62
3.21
2.26
1.86
1.86
2.07
2.38
2.85
3.53
4.39
5.21
5.71
5.66
4.98
3.79
2.35
0.92
-0.31
-1.21
-1.74
-1.94
-1.88
-1.67
-1.49
-1.49
-1.69
-1.98
-2.06
-1.60
-0.48
1.11
2.71
3.74
3.82
2.97
1.54
0.04
-1.21
-2.26
-3.42
-5.00
-7.06
-9.36
-11.45
-12.99
-13.97
-14.62
-15.28
-16.16
-17.19
-18.09
-18.55
-18.36
-17.51
-16.16
-14.61
-13.14
-11.94
-11.12
-10.61
-10.24
-9.79
-9.09
-8.06
-6.80
-5.49
-4.33
-3.49
-3.04
-2.98
-3.28
-3.85
-4.57
-5.26
-5.75
-5.85
-5.50
-4.82
-4.08
-3.73
-4.08
-5.19
-6.61
-7.52
-6.98
-4.32
0.52
6.98
14.11
20.89
26.65
31.06
34.09
35.80
36.34
36.03
35.40
35.13
35.72
37.14
38.79
39.64
38.79
35.84
31.13
25.52
20.01
15.32
11.68
8.96
6.83
5.01
3.35
1.84
0.49
-0.69
-1.73
-2.66
-3.45
-4.02
-4.24
-4.01
-3.35
-2.44
-1.60
-1.24
-1.72
-3.17
-5.44
-8.15
-10.80
-12.93
-14.29
-14.85
-14.82
-14.51
-14.14
-13.83
-13.49
-12.90
-11.73
-9.70
-6.72
-3.12
0.21
1.81
0.13
-5.86
-15.98
-28.60
-41.06
-50.42
-54.51
-52.54
-45.21
-34.32
-22.05
-10.35
-0.58
6.51
10.73
12.29
11.69
9.70
7.19
5.00
3.82
4.01
5.58
8.04
10.62
12.49
13.03
12.11
10.12
7.76
5.77
4.66
4.51
4.98
5.50
5.52
4.73
3.23
1.41
-0.19
-1.11
-1.17
-0.52
0.47
1.36
1.82
1.74
1.23
0.51
-0.17
-0.68
-0.97
-1.09
-1.13
-1.11
-1.05
-0.89
-0.63
-0.30
-0.02
0.08
-0.10
-0.54
-1.10
-1.61
-1.93
-2.01
-1.91
-1.75
-1.65
-1.61
-1.51
-1.18
-0.45
0.73
2.26
3.88
5.31
6.34
6.91
7.16
7.25
7.30
7.33
7.22
6.85
6.15
5.19
4.20
3.44
3.14
3.38
4.10
5.05
5.95
6.48
6.45
5.83
4.71
3.31
1.85
0.52
-0.52
-1.17
-1.31
-0.94
-0.09
1.01
2.04
2.66
2.64
2.01
1.07
0.25
-0.06
0.28
1.08
1.94
2.42
2.28
1.59
0.59
-0.38
-1.10
-1.53
-1.79
-2.04
-2.41
-2.96
-3.64
-4.36
-4.98
-5.43
-5.64
-5.55
-5.12
-4.31
-3.10
-1.50
0.29
1.89
2.88
2.91
1.90
0.00
-2.53
-5.47
-8.64
-11.77
-14.37
-15.72
-15.10
-12.26
-7.63
-2.35
2.14
4.69
4.89
3.18
0.53
-1.99
-3.59
-3.98
-3.29
-1.96
-0.54
0.50
0.78
0.18
-1.25
-3.25
-5.51
-7.83
-10.19
-12.70
-15.42
-18.09
-20.08
-20.68
-19.49
-16.81
-13.87
-12.32
-13.62
-18.33
-25.94
-35.25
-44.88
-53.41
-59.02
-59.17
-50.95
-32.19
-2.99
33.60
71.97
105.74
129.78
141.53
141.01
129.96
110.61
85.05
55.30
23.71
-6.80
-33.19
-52.88
-64.42
-67.37
-62.30
-50.46
-33.52
-13.37
8.13
29.18
48.11
63.44
74.12
79.62
80.08
76.44
70.33
63.73
58.14
53.68
48.93
41.69
29.98
13.34
-6.45
-25.69
-39.66
-44.98
-41.33
-31.59
-19.94
-10.11
-3.96
-0.88
1.59
6.76
16.48
29.70
42.97
52.82
56.99
55.20
48.93
40.86
34.56
32.47
34.60
38.59
41.69
41.20
35.06
21.45
-2.26
-32.66
-59.11
-69.61
-62.88
-44.85
-23.71
-6.34
2.82
0.74
-11.10
-27.46
-42.48
-53.10
-58.80
-60.99
-60.08
-57.16
-52.56
-45.54
-35.29
-22.87
-12.47
-8.53
-13.80
-26.84
-46.62
-72.10
-101.68
-132.19
-152.39
-152.21
-129.90
-106.18
-90.76
-87.58
-91.77
-98.27
-100.56
-93.26
-75.59
-50.62
-23.21
4.08
28.04
46.11
56.34
58.21
52.17
38.76
20.08
-0.10
-15.56
-22.26
-18.70
-6.27
12.02
31.98
48.58
58.21
58.68
50.41
34.62
13.67
-9.56
-31.78
-50.10
-62.79
-67.73
-64.81
-55.81
-43.72
-30.49
-16.60
-1.25
16.59
36.85
60.41
85.13
106.03
118.47
121.80
119.63
118.21
124.14
142.02
176.62
227.11
285.60
341.15
384.14
407.48
407.46
384.48
322.18
225.40
119.73
32.58
-23.78
-52.40
-63.27
-67.37
-70.67
-75.81
-80.68
-85.07
-93.89
-111.93
-137.30
-167.15
-198.85
-230.96
-263.80
-296.23
-328.37
-362.86
-397.37
-423.52
-431.46
-414.60
-372.49
-311.04
-238.44
-150.82
-61.18
13.50
65.09
95.95
112.58
119.95
120.86
118.19
114.46
109.22
103.30
98.28
94.49
90.78
85.62
78.49
70.40
63.11
56.37
50.94
47.91
47.26
48.60
50.39
52.11
54.17
57.50
61.67
66.40
71.33
73.83
72.99
68.23
60.16
50.17
40.46
32.77
28.50
28.02
29.93
31.27
28.12
18.13
0.28
-23.14
-47.20
-65.84
-73.86
-68.89
-52.04
-27.70
-1.57
20.92
35.38
41.06
38.40
28.89
14.72
-1.35
-16.70
-28.98
-36.61
-38.80
-35.68
-28.62
-19.36
-9.59
-0.46
7.51
14.56
21.57
29.47
39.01
49.72
60.24
68.70
73.44
73.67
69.73
62.98
55.26
48.32
42.32
36.44
29.38
20.35
9.60
-1.76
-12.27
-20.90
-27.25
-32.59
-38.82
-47.63
-59.90
-75.60
-94.45
-116.19
-140.89
-162.85
-176.22
-176.88
-164.93
-144.40
-120.79
-99.01
-81.85
-69.29
-58.04
-43.67
-22.29
7.09
41.58
75.18
100.81
114.79
117.19
111.46
102.17
93.18
86.27
80.83
74.93
65.89
51.70
31.36
5.18
-25.80
-59.73
-94.00
-126.04
-150.06
-161.77
-159.25
-143.28
-116.47
-82.77
-46.51
-11.94
17.14
38.27
50.43
54.62
53.58
50.47
47.18
43.79
38.99
31.55
21.63
10.43
-0.34
-9.22
-15.45
-18.58
-17.97
-12.84
-2.99
10.67
25.61
38.52
46.80
49.47
47.30
41.90
34.79
26.75
18.17
9.27
0.65
-6.89
-12.78
-16.91
-19.40
-20.50
-19.90
-16.86
-10.93
-2.47
7.14
15.87
21.95
24.61
24.18
21.92
19.26
17.11
15.72
14.87
14.39
14.57
15.96
18.63
22.29
26.22
29.34
30.60
29.53
26.49
22.99
20.72
20.17
21.45
24.32
27.96
31.37
33.67
34.41
34.40
34.55
34.02
32.27
29.69
26.79
24.15
22.03
19.55
15.66
8.18
-6.89
-29.78
-55.39
-76.44
-86.54
-83.11
-68.26
-45.40
-18.22
8.30
32.94
57.75
83.83
110.38
135.62
147.36
139.26
129.95
127.69
127.49
126.03
120.16
108.03
89.71
66.89
43.81
24.41
8.40
-4.10
-11.66
-14.28
-13.38
-11.28
-10.44
-11.25
-13.32
-18.46
-27.22
-38.13
-48.99
-56.67
-58.00
-51.60
-38.74
-24.41
-16.73
-20.91
-35.85
-55.26
-70.59
-75.35
-68.40
-53.58
-37.35
-25.78
-21.02
-21.53
-24.95
-30.50
-39.38
-53.23
-71.48
-90.53
-104.83
-109.16
-101.09
-82.41
-58.24
-34.81
-16.82
-6.05
-1.56
-1.09
-2.46
-4.49
-6.76
-9.13
-11.38
-13.15
-14.04
-13.93
-13.05
-11.78
-10.51
-9.41
-8.52
-7.74
-6.95
-6.01
-4.84
-3.35
-1.51
0.68
3.10
5.51
7.66
9.36
10.64
11.77
13.25
15.70
19.62
25.06
31.54
38.01
43.19
45.95
45.69
42.63
37.89
33.16
30.14
29.77
31.63
33.74
32.91
25.70
9.79
-14.95
-46.13
-79.42
-109.62
-132.10
-143.71
-143.76
-133.88
-117.17
-96.98
-76.12
-56.46
-38.97
-24.00
-11.41
-1.46
5.23
8.43
9.01
8.70
9.51
12.96
19.60
29.30
40.43
50.36
56.86
59.45
59.36
58.87
60.42
65.80
76.24
90.84
106.54
119.40
126.15
124.31
112.43
90.23
54.96
10.94
-31.37
-62.31
-78.93
-83.96
-82.32
-78.08
-73.26
-67.79
-59.67
-47.47
-31.75
-15.79
-1.15
10.68
18.89
23.83
26.79
29.55
32.41
33.59
30.46
21.69
7.87
-8.47
-23.45
-33.00
-34.39
-27.89
-16.59
-4.75
4.39
9.43
10.97
10.77
10.65
11.69
13.75
15.82
16.98
17.18
17.03
17.44
19.10
22.02
25.64
28.98
31.14
31.75
31.14
30.12
29.55
29.99
31.53
33.73
36.01
38.01
39.80
41.75
44.23
47.18
50.02
51.77
51.45
48.40
42.64
34.50
24.50
13.16
0.97
-11.47
-23.35
-33.79
-42.16
-48.05
-51.54
-52.86
-52.23
-50.23
-48.12
-48.17
-53.73
-68.71
-96.05
-136.63
-187.62
-242.24
-290.87
-323.40
-332.16
-314.22
-272.40
-214.00
-149.22
-88.31
-39.08
-5.36
13.57
22.46
29.17
39.84
59.68
89.15
123.87
156.10
177.76
183.75
173.90
152.94
128.40
107.99
96.49
94.74
100.09
108.00
114.09
115.32
110.44
99.32
82.74
61.80
38.16
14.20
-7.18
-23.25
-32.36
-34.65
-32.14
-27.85
-24.78
-24.56
-26.90
-29.94
-31.25
-29.09
-23.11
-14.31
-4.18
6.08
16.16
26.33
37.03
48.08
58.58
67.16
72.56
74.29
72.92
70.10
68.30
70.54
79.76
97.88
124.59
156.58
187.77
210.71
218.76
208.34
180.21
138.89
90.54
40.36
-8.88
-56.64
-103.15
-148.07
-189.49
-224.01
-248.18
-260.45
-262.16
-257.04
-248.93
-239.72
-228.85
-213.55
-189.98
-155.17
-109.11
-55.42
-0.32
49.65
89.48
115.81
127.31
124.51
109.53
84.97
53.27
16.40
-23.59
-60.07
-84.46
-92.23
-86.23
-72.57
-56.11
-39.84
-25.83
-15.16
-7.92
-4.14
-3.34
-4.96
-7.48
-9.35
-6.59
4.40
26.10
58.39
97.21
137.08
172.64
201.50
224.36
243.16
258.46
268.62
270.74
255.77
221.41
171.37
114.48
60.87
17.53
-14.25
-37.77
-57.88
-77.40
-94.25
-103.77
-101.51
-86.36
-61.77
-34.40
-10.77
5.53
14.77
20.91
28.20
39.20
53.99
70.57
86.01
97.55
102.91
100.13
87.99
65.76
34.19
-3.71
-42.75
-76.72
-100.42
-111.51
-111.56
-105.09
-98.11
-95.70
-100.25
-110.80
-123.80
-134.69
-139.65
-136.66
-125.49
-107.58
-85.46
-62.28
-41.36
-25.46
-16.10
-13.18
-14.92
-18.45
-20.85
-19.81
-14.19
-4.00
9.94
26.26
43.37
59.63
73.84
85.60
95.52
104.77
113.99
122.38
127.42
125.78
114.84
94.05
65.25
31.93
-2.29
-34.96
-65.07
-92.58
-117.56
-139.60
-158.01
-172.27
-182.75
-190.81
-198.39
-207.18
-217.95
-230.12
-242.05
-251.65
-257.07
-257.23
-251.74
-240.50
-223.18
-199.24
-168.15
-130.14
-86.61
-40.14
6.03
48.81
85.71
115.18
136.34
148.86
153.01
149.61
140.21
126.98
112.27
98.16
86.07
76.50
69.23
63.47
58.25
52.70
46.21
38.59
30.07
21.13
12.34
4.12
-3.36
-10.25
-16.76
-23.05
-28.87
-33.68
-36.71
-37.37
-35.35
-30.71
-23.81
-15.07
-5.04
5.66
16.14
25.27
31.81
34.86
34.20
30.47
24.99
19.18
13.99
9.52
5.14
0.06
-6.06
-12.63
-18.38
-21.73
-21.59
-17.81
-11.17
-2.87
5.99
14.67
22.59
29.13
33.60
35.57
35.30
33.94
33.08
34.04
37.15
41.60
45.89
48.63
48.98
46.77
42.23
35.49
26.46
14.91
0.65
-16.27
-35.38
-55.96
-76.99
-97.44
-116.71
-134.90
-152.80
-171.27
-190.35
-208.59
-222.93
-229.47
-224.84
-207.49
-178.47
-141.21
-100.44
-60.88
-26.04
2.35
24.22
40.39
51.64
58.31
60.25
57.62
51.78
45.65
43.09
47.56
60.41
80.10
102.70
123.56
139.27
148.80
153.44
155.49
156.78
157.85
158.12
156.66
152.70
145.85
135.69
121.65
103.26
80.86
56.21
32.33
12.77
0.30
-3.89
-0.47
8.58
20.68
33.34
44.53
52.66
56.65
56.10
51.47
44.17
36.29
30.08
26.81
26.27
26.92
26.86
25.13
22.32
20.59
22.73
31.00
45.75
65.14
85.86
104.37
118.05
125.56
126.68
122.00
112.83
100.37
85.49
68.89
51.41
34.21
18.44
4.95
-5.79
-12.72
-16.04
-17.26
-18.27
-20.36
-23.36
-26.92
-31.14
-36.92
-43.61
-52.20
-65.12
-84.11
-108.56
-134.03
-155.39
-168.29
-170.15
-157.03
-129.26
-91.81
-51.08
-11.82
26.15
64.57
105.74
151.45
206.35
269.14
330.88
379.09
403.04
400.19
373.37
329.69
249.69
137.80
19.90
-77.13
-139.16
-182.38
-218.40
-252.53
-284.47
-310.66
-321.90
-312.50
-283.01
-238.40
-185.30
-127.61
-69.61
-15.46
31.54
72.70
107.77
133.66
146.67
144.93
131.27
109.40
82.70
53.67
26.25
2.35
-18.54
-37.62
-55.40
-70.06
-79.84
-83.80
-82.05
-74.74
-63.59
-51.76
-42.41
-37.26
-35.47
-34.94
-33.39
-29.14
-21.30
-10.49
1.49
12.37
20.16
23.64
22.20
15.71
4.62
-10.09
-26.94
-44.12
-59.72
-72.02
-79.83
-82.79
-81.40
-76.76
-70.19
-62.62
-54.53
-46.15
-37.93
-30.89
-26.50
-26.00
-29.63
-36.12
-42.95
-47.24
-46.89
-41.53
-32.49
-22.27
-13.37
-7.36
-4.37
-3.41
-3.05
-2.21
-0.63
1.26
2.89
3.98
4.93
6.43
9.07
12.79
16.88
20.29
22.16
22.37
21.48
20.40
19.89
20.12
20.75
21.19
21.05
20.33
19.34
18.46
17.85
17.36
16.70
15.55
13.79
11.45
8.75
5.90
3.08
0.45
-1.90
-3.90
-5.47
-6.61
-7.38
-7.92
-8.41
-9.04
-9.90
-10.91
-11.86
-12.45
-12.48
-11.87
-10.73
-9.19
-7.38
-5.30
-2.95
-0.36
2.35
4.96
7.29
9.23
10.78
11.97
12.83
13.38
13.62
13.62
13.46
13.22
12.86
12.30
11.43
10.22
8.72
7.10
5.52
4.06
2.72
1.54
0.54
-0.17
-0.54
-0.64
-0.59
-0.54
-0.55
-0.55
-0.36
0.18
1.05
2.12
3.16
4.06
4.82
5.53
6.34
7.23
8.07
8.66
8.89
8.80
8.56
8.38
8.37
8.47
8.52
8.31
7.71
6.73
5.49
4.18
2.99
2.05
1.46
1.25
1.45
1.99
2.82
3.76
4.63
5.21
5.28
4.73
3.56
1.90
-0.06
-2.12
-4.17
-6.17
-8.09
-9.90
-11.47
-12.60
-13.11
-12.92
-12.06
-10.74
-9.27
-7.98
-7.09
-6.67
-6.65
-6.79
-6.88
-6.83
-6.70
-6.64
-6.77
-7.08
-7.39
-7.52
-7.30
-6.75
-6.03
-5.28
-4.61
-3.94
-3.15
-2.17
-1.10
-0.15
0.45
0.59
0.39
0.09
-0.03
0.19
0.71
1.33
1.76
1.76
1.23
0.24
-1.05
-2.37
-3.47
-4.17
-4.42
-4.29
-3.93
-3.49
-3.02
-2.49
-1.80
-0.95
-0.03
0.69
0.98
0.76
0.17
-0.52
-1.02
-1.19
-1.11
-0.92
-0.80
-0.80
-0.81
-0.76
-0.61
-0.44
-0.39
-0.60
-1.11
-1.86
-2.71
-3.46
-3.96
-4.08
-3.84
-3.33
-2.73
-2.20
-1.76
-1.35
-0.81
-0.05
0.94
2.09
3.32
4.60
5.96
7.41
8.87
10.09
10.80
10.76
9.93
8.48
6.68
4.84
3.18
1.82
0.84
0.22
-0.09
-0.18
-0.24
-0.43
-0.92
-1.71
-2.66
-3.52
-4.06
-4.14
-3.77
-3.10
-2.28
-1.45
-0.73
-0.17
0.20
0.32
0.19
-0.11
-0.44
-0.60
-0.42
0.09
0.77
1.30
1.39
0.90
-0.07
-1.29
-2.45
-3.34
-3.88
-4.15
-4.26
-4.31
-4.32
-4.33
-4.39
-4.61
-5.04
-5.67
-6.31
-6.75
-6.86
-6.74
-6.64
-6.81
-7.28
-7.75
-7.78
-6.99
-5.35
-3.20
-1.08
0.58
1.55
1.89
1.82
1.52
1.13
0.72
0.40
0.31
0.56
1.22
2.28
3.70
5.45
7.53
9.87
12.31
14.54
16.23
17.19
17.46
17.33
17.23
17.53
18.37
19.63
20.99
22.11
22.77
22.86
22.40
21.39
19.80
17.54
14.51
10.76
6.47
1.91
-2.59
-6.72
-10.23
-12.89
-14.52
-15.02
-14.45
-13.06
-11.33
-9.89
-9.35
-10.08
-11.99
-14.52
-16.81
-18.05
-17.81
-16.12
-13.49
-10.56
-7.83
-5.49
-3.44
-1.42
0.68
2.80
4.71
6.14
6.98
7.31
7.36
7.38
7.54
7.84
8.17
8.39
8.45
8.39
8.33
8.38
8.56
8.74
8.78
8.52
7.91
7.03
6.07
5.22
4.58
4.14
3.75
3.28
2.66
2.00
1.50
1.37
1.72
2.43
3.19
3.66
3.59
2.98
2.07
1.16
0.52
0.21
0.08
-0.10
-0.54
-1.27
-2.16
-2.91
-3.26
-3.09
-2.46
-1.60
-0.77
-0.18
0.11
0.21
0.22
0.23
0.20
-0.01
-0.51
-1.30
-2.23
-3.09
-3.71
-4.04
-4.25
-4.60
-5.32
-6.54
-8.22
-10.19
-12.21
-14.07
-15.61
-16.68
-17.22
-17.16
-16.49
-15.30
-13.74
-12.07
-10.61
-9.59
-9.16
-9.29
-9.77
-10.30
-10.60
-10.49
-9.97
-9.14
-8.14
-7.10
-6.11
-5.28
-4.72
-4.54
-4.74
-5.21
-5.69
-5.97
-5.90
-5.51
-4.90
-4.24
-3.56
-2.87
-2.15
-1.38
-0.65
-0.04
0.34
0.48
0.41
0.26
0.20
0.38
0.94
1.89
3.09
4.30
5.28
5.84
6.01
5.94
5.79
5.69
5.60
5.36
4.85
4.02
2.98
1.97
1.28
1.13
1.61
2.65
4.05
5.52
6.76
7.56
7.80
7.50
6.78
5.81
4.76
3.74
2.83
2.03
1.38
0.93
0.68
0.61
0.61
0.59
0.46
0.25
0.04
-0.03
0.11
0.43
0.79
0.94
0.69
-0.02
-1.03
-2.06
-2.70
-2.66
-1.86
-0.47
1.13
2.52
3.38
3.63
3.39
2.92
2.44
2.09
1.86
1.73
1.70
1.79
2.01
2.35
2.70
2.92
2.93
2.70
2.31
1.91
1.66
1.70
1.99
2.39
2.68
2.62
2.13
1.28
0.36
-0.31
-0.48
-0.14
0.45
0.98
1.19
1.04
0.73
0.48
0.40
0.40
0.26
-0.19
-0.92
-1.67
-2.13
-2.09
-1.58
-0.85
-0.20
0.24
0.49
0.74
1.13
1.65
2.12
2.30
2.01
1.28
0.32
-0.51
-0.86
-0.50
0.51
1.89
3.17
3.94
4.00
3.46
2.67
2.07
1.95
2.36
3.16
4.11
5.03
5.83
6.39
6.59
6.24
5.21
3.54
1.51
-0.45
-1.93
-2.68
-2.69
-2.15
-1.34
-0.51
0.17
0.61
0.79
0.73
0.49
0.18
-0.09
-0.23
-0.19
0.01
0.30
0.57
0.73
0.72
0.57
0.36
0.23
0.27
0.51
0.86
1.20
1.40
1.44
1.37
1.30
1.31
1.45
1.69
2.00
2.30
2.47
2.29
1.57
0.22
-1.60
-3.52
-5.04
-5.79
-5.68
-4.89
-3.76
-2.57
-1.43
-0.32
0.79
1.77
2.37
2.30
1.45
-0.04
-1.79
-3.45
-4.73
-5.60
-6.14
-6.47
-6.61
-6.53
-6.17
-5.58
-4.91
-4.34
-4.00
-3.87
-3.86
-3.84
-3.73
-3.49
-3.10
-2.56
-1.86
-1.08
-0.31
0.37
0.96
1.53
2.14
2.79
3.31
3.52
3.28
2.64
1.84
1.13
0.65
0.37
0.16
-0.10
-0.35
-0.44
-0.23
0.33
1.07
1.78
2.22
2.30
2.02
1.49
0.78
0.00
-0.73
-1.32
-1.66
-1.70
-1.46
-1.05
-0.58
-0.19
0.11
0.31
0.43
0.44
0.31
0.01
-0.39
-0.75
-0.89
-0.69
-0.18
0.51
1.16
1.62
1.82
1.82
1.76
1.75
1.86
2.07
2.27
2.43
2.53
2.61
2.74
2.90
2.99
2.82
2.26
1.30
0.15
-0.87
-1.41
-1.28
-0.54
0.60
1.79
2.78
3.45
3.81
3.98
4.06
4.09
4.10
4.04
3.93
3.82
3.70
3.60
3.46
3.22
2.85
2.36
1.84
1.35
0.99
0.79
0.78
0.90
1.09
1.16
0.94
0.30
-0.74
-1.93
-2.91
-3.30
-2.94
-1.95
-0.72
0.36
1.00
1.20
1.13
1.03
1.11
1.38
1.78
2.14
2.37
2.40
2.26
2.03
1.79
1.65
1.65
1.77
1.96
2.07
1.97
1.59
0.96
0.25
-0.34
-0.63
-0.58
-0.31
-0.00
0.13
-0.02
-0.40
-0.90
-1.34
-1.62
-1.70
-1.61
-1.39
-1.08
-0.71
-0.31
0.07
0.34
0.46
0.43
0.30
0.18
0.15
0.25
0.43
0.66
0.88
1.03
1.10
1.02
0.77
0.26
-0.47
-1.35
-2.14
-2.60
-2.61
-2.21
-1.66
-1.32
-1.46
-2.12
-3.07
-3.95
-4.43
-4.39
-3.94
-3.32
-2.78
-2.43
-2.25
-2.18
-2.18
-2.26
-2.38
-2.37
-1.95
-0.95
0.50
1.95
2.69
2.14
0.18
-2.73
-5.68
-7.71
-8.21
-7.16
-5.05
-2.58
-0.36
1.33
2.51
3.32
3.90
4.27
4.35
4.03
3.29
2.25
1.10
0.08
-0.64
-1.07
-1.32
-1.55
-1.85
-2.21
-2.45
-2.29
-1.58
-0.34
1.18
2.66
3.86
4.71
5.34
5.91
6.50
7.11
7.67
8.12
8.46
8.75
9.06
9.45
9.97
10.65
11.53
12.58
13.70
14.70
15.37
15.57
15.33
14.86
14.45
14.35
14.60
15.03
15.22
14.66
13.02
10.28
6.80
3.20
0.07
-2.24
-3.74
-4.62
-5.06
-5.03
-4.39
-3.07
-1.32
0.34
1.27
1.07
-0.23
-2.37
-5.14
-8.82
-14.06
-21.45
-30.95
-41.53
-51.39
-58.73
-62.50
-62.85
-60.84
-57.78
-54.46
-50.98
-47.01
-42.34
-37.30
-32.62
-28.99
-26.49
-24.44
-21.71
-17.31
-10.96
-3.23
4.73
11.69
16.83
19.95
21.39
21.77
21.72
21.65
21.76
22.05
22.51
23.07
23.73
24.46
25.14
25.61
25.66
25.16
24.11
22.67
21.10
19.62
18.34
17.18
15.97
14.58
13.10
11.83
11.11
11.11
11.61
12.00
11.52
9.62
6.30
2.15
-1.89
-4.98
-6.72
-7.29
-7.19
-6.88
-6.46
-5.69
-4.20
-1.87
0.95
3.55
5.12
5.14
3.58
0.84
-2.52
-6.03
-9.42
-12.53
-15.14
-16.85
-17.22
-16.01
-13.43
-10.18
-7.19
-5.25
-4.69
-5.27
-6.40
-7.49
-8.17
-8.29
-7.86
-6.81
-4.96
-2.11
1.72
6.22
10.71
14.41
16.66
17.23
16.31
14.45
12.29
10.26
8.49
6.85
5.14
3.33
1.60
0.28
-0.41
-0.51
-0.34
-0.27
-0.50
-0.95
-1.23
-0.97
-0.05
1.30
2.58
3.35
3.36
2.72
1.75
0.77
-0.06
-0.75
-1.42
-2.09
-2.68
-2.96
-2.76
-2.10
-1.17
-0.32
0.14
0.09
-0.37
-0.99
-1.46
-1.63
-1.52
-1.27
-1.07
-1.00
-1.02
-0.98
-0.82
-0.55
-0.33
-0.38
-0.77
-1.39
-1.96
-2.20
-1.99
-1.48
-0.93
-0.59
-0.56
-0.77
-1.10
-1.49
-2.00
-2.73
-3.66
-4.62
-5.24
-5.23
-4.44
-3.04
-1.41
0.05
1.05
1.54
1.68
1.69
1.69
1.74
1.78
1.81
1.90
2.12
2.51
2.98
3.36
3.41
3.03
2.22
1.17
0.12
-0.66
-0.98
-0.75
-0.08
0.80
1.60
2.08
2.16
1.97
1.75
1.67
1.79
1.98
2.05
1.92
1.65
1.41
1.29
1.29
1.23
0.95
0.37
-0.37
-1.01
-1.25
-0.89
0.04
1.35
2.69
3.72
4.22
4.10
3.41
2.32
1.00
-0.38
-1.68
-2.83
-3.74
-4.36
-4.66
-4.65
-4.35
-3.83
-3.17
-2.49
-1.85
-1.33
-0.94
-0.65
-0.41
-0.15
0.14
0.44
0.67
0.74
0.62
0.34
0.02
-0.20
-0.18
0.08
0.49
0.85
1.00
0.89
0.63
0.46
0.53
0.83
1.17
1.25
0.87
0.07
-0.88
-1.64
-1.94
-1.72
-1.13
-0.37
0.44
1.29
2.27
3.42
4.66
5.83
6.74
7.34
7.68
7.88
7.95
7.76
7.06
5.63
3.50
0.97
-1.46
-3.29
-4.25
-4.37
-3.92
-3.26
-2.66
-2.25
-2.02
-1.87
-1.74
-1.57
-1.31
-0.97
-0.55
-0.10
0.39
0.93
1.58
2.40
3.40
4.46
5.37
5.91
5.93
5.45
4.63
3.70
2.90
2.38
2.18
2.29
2.63
3.06
3.46
3.64
3.50
3.02
2.30
1.50
0.79
0.24
-0.16
-0.50
-0.78
-0.94
-0.84
-0.43
0.21
0.88
1.36
1.50
1.32
0.97
0.66
0.53
0.59
0.74
0.82
0.71
0.32
-0.32
-1.11
-1.95
-2.69
-3.25
-3.58
-3.70
-3.67
-3.56
-3.34
-2.99
-2.45
-1.70
-0.78
0.17
0.93
1.31
1.18
0.58
-0.36
-1.41
-2.34
-3.05
-3.55
-3.95
-4.35
-4.76
-5.06
-5.11
-4.82
-4.27
-3.70
-3.39
-3.54
-4.10
-4.83
-5.37
-5.42
-4.87
-3.79
-2.38
-0.84
0.69
2.15
3.45
4.50
5.15
5.28
4.87
4.01
2.88
1.71
0.63
-0.31
-1.16
-1.99
-2.79
-3.47
-3.91
-3.98
-3.69
-3.19
-2.63
-2.12
-1.66
-1.13
-0.43
0.45
1.32
1.94
2.11
1.81
1.22
0.59
0.11
-0.22
-0.50
-0.85
-1.32
-1.75
-1.99
-1.90
-1.54
-1.07
-0.68
-0.47
-0.42
-0.48
-0.61
-0.83
-1.15
-1.54
-1.89
-2.05
-1.93
-1.56
-1.11
-0.77
-0.67
-0.75
-0.82
-0.68
-0.25
0.40
1.06
1.54
1.78
1.82
1.81
1.86
1.98
2.12
2.16
2.10
1.96
1.85
1.82
1.83
1.76
1.50
1.01
0.34
-0.40
-1.04
-1.45
-1.57
-1.38
-0.95
-0.35
0.32
0.94
1.39
1.58
1.45
1.02
0.38
-0.26
-0.73
-0.83
-0.56
0.03
0.75
1.43
1.94
2.19
2.19
1.96
1.55
1.05
0.55
0.13
-0.21
-0.56
-1.07
-1.85
-2.90
-4.04
-4.98
-5.41
-5.15
-4.25
-2.94
-1.55
-0.38
0.43
0.94
1.34
1.80
2.38
2.99
3.46
3.65
3.58
3.34
3.09
2.91
2.73
2.43
1.87
1.02
0.05
-0.82
-1.36
-1.48
-1.25
-0.83
-0.41
-0.10
0.05
0.02
-0.19
-0.56
-1.05
-1.59
-2.06
-2.36
-2.47
-2.37
-2.14
-1.84
-1.57
-1.34
-1.18
-1.07
-0.99
-0.90
-0.78
-0.62
-0.44
-0.25
-0.08
0.10
0.32
0.61
0.94
1.22
1.37
1.34
1.11
0.76
0.35
-0.10
-0.58
-1.10
-1.58
-1.91
-1.95
-1.64
-1.06
-0.41
-0.01
-0.06
-0.63
-1.58
-2.62
-3.44
-3.78
-3.50
-2.64
-1.31
0.28
1.92
3.37
4.43
4.95
4.89
4.29
3.28
2.07
0.87
-0.16
-0.86
-1.19
-1.15
-0.81
-0.29
0.23
0.59
0.68
0.46
-0.06
-0.80
-1.68
-2.60
-3.46
-4.19
-4.75
-5.20
-5.60
-6.02
-6.46
-6.85
-7.13
-7.20
-7.09
-6.88
-6.67
-6.47
-6.19
-5.71
-4.90
-3.73
-2.31
-0.82
0.59
1.84
2.97
4.06
5.17
6.27
7.28
8.08
8.65
9.14
9.74
10.65
11.90
13.29
14.62
15.77
16.95
18.53
20.83
23.75
26.65
28.57
28.58
26.32
22.22
17.31
12.89
10.04
9.35
10.87
14.14
18.40
22.74
26.29
28.36
28.57
26.88
23.48
18.61
12.41
4.89
-3.95
-13.91
-24.48
-34.82
-44.00
-51.21
-56.04
-58.60
-59.49
-59.59
-59.66
-60.04
-60.43
-60.02
-57.86
-53.24
-46.03
-36.67
-25.99
-14.95
-4.31
5.37
13.78
20.69
25.92
29.35
31.01
31.21
30.55
29.84
29.83
31.00
33.36
36.46
39.63
42.27
44.20
45.62
46.93
48.33
49.59
50.10
49.09
46.11
41.16
34.79
27.81
21.02
14.96
9.74
5.05
0.27
-5.34
-12.38
-21.09
-31.19
-41.89
-52.17
-61.06
-67.97
-72.83
-75.95
-77.84
-79.05
-80.05
-81.20
-82.73
-84.75
-87.18
-89.78
-92.16
-93.74
-93.79
-91.41
-85.79
-76.53
-63.96
-49.35
-34.63
-21.96
-13.07
-8.73
-8.66
-11.76
-16.64
-21.96
-26.69
-30.00
-31.20
-29.61
-24.74
-16.51
-5.57
6.75
18.68
28.40
34.63
36.83
35.35
31.27
26.09
21.52
19.07
19.85
24.26
31.98
42.01
53.05
63.91
73.86
82.71
90.59
97.68
104.04
109.47
113.52
115.57
114.99
111.19
103.89
93.23
79.85
65.06
50.64
38.51
30.34
27.25
29.62
37.13
48.51
61.84
74.98
86.04
93.56
96.64
95.03
89.17
80.11
68.76
55.84
42.13
28.59
16.08
5.12
-4.00
-11.22
-16.28
-19.60
-21.97
-23.90
-25.23
-25.61
-24.90
-23.20
-20.94
-18.25
-16.49
-18.05
-25.06
-38.15
-56.50
-78.45
-102.07
-126.08
-144.97
-153.46
-151.18
-142.51
-131.37
-118.74
-104.57
-90.12
-80.90
-78.16
-81.84
-90.34
-99.26
-101.75
-91.81
-67.09
-26.54
24.96
80.82
134.23
178.08
206.54
216.62
207.28
178.75
133.28
75.31
8.29
-53.82
-97.05
-117.12
-118.48
-108.88
-95.04
-80.95
-68.89
-59.84
-54.36
-54.11
-59.69
-68.14
-72.86
-67.67
-49.05
-18.08
20.14
58.59
89.65
103.57
99.68
84.17
64.72
47.02
33.19
23.11
16.17
11.18
6.79
2.68
-1.12
-6.61
-14.96
-25.95
-37.69
-47.28
-52.55
-52.83
-47.86
-38.79
-27.74
-16.48
-6.22
2.65
10.25
16.87
20.47
20.76
18.19
13.91
10.07
8.99
12.53
21.50
35.54
53.50
74.41
96.83
119.19
140.00
157.65
170.51
177.22
177.18
170.70
159.10
143.65
125.58
106.12
86.45
67.48
49.90
34.13
20.59
9.80
1.62
-3.51
-4.00
2.56
18.27
43.67
76.90
113.48
146.91
168.61
172.86
159.56
133.75
102.42
71.76
45.59
25.29
10.25
-4.44
-21.94
-41.55
-60.33
-76.45
-89.91
-100.85
-108.35
-111.82
-117.67
-131.29
-153.15
-179.50
-206.34
-231.10
-251.89
-267.03
-277.40
-293.67
-323.67
-366.16
-412.62
-454.84
-489.03
-514.93
-533.68
-501.20
-402.09
-262.12
-125.90
-18.84
58.12
113.83
151.90
181.92
206.00
213.67
197.45
159.59
108.83
56.21
7.32
-33.89
-62.13
-60.65
-27.41
24.98
77.78
118.33
142.85
153.48
155.94
156.81
159.14
157.29
146.06
126.16
103.77
85.46
74.38
70.68
72.69
77.35
78.49
72.41
60.07
45.87
34.05
26.43
22.95
22.60
23.86
24.04
21.42
16.37
10.82
6.57
4.29
4.28
6.31
10.20
15.78
22.45
29.66
36.87
43.47
48.78
52.56
55.15
57.40
60.60
65.46
72.62
82.52
94.72
107.19
116.13
116.74
102.32
73.48
34.95
-5.52
-39.79
-62.41
-72.43
-72.77
-68.11
