1561428256.00
64.000000
-0.00
-0.00
-0.00
-0.00
-0.00
-0.00
-0.00
-0.00
-0.00
-0.00
0.00
0.01
0.01
-0.00
-0.03
-0.05
-0.05
0.00
0.13
0.36
0.66
1.01
1.37
1.72
2.06
2.40
2.79
3.24
3.80
4.42
5.06
5.66
6.20
6.68
7.15
7.68
8.31
9.14
10.09
11.04
11.88
12.56
13.14
13.76
14.65
15.96
17.91
20.32
22.90
25.38
27.58
29.57
31.68
34.32
37.81
42.54
48.15
54.10
59.83
64.97
69.58
74.14
79.34
85.71
93.76
103.00
112.62
121.73
129.77
136.75
143.30
150.75
157.77
166.64
177.95
191.79
206.97
220.57
228.25
225.36
208.53
176.87
132.76
80.05
23.07
-34.94
-92.44
-149.16
-205.23
-260.37
-313.74
-363.87
-409.83
-450.91
-486.50
-515.74
-537.23
-549.22
-549.96
-538.37
-514.21
-478.67
-433.88
-382.45
-327.02
-269.84
-212.63
-156.66
-102.95
-52.37
-5.90
35.58
71.43
101.35
125.50
144.38
158.69
169.15
176.37
180.76
182.58
182.09
179.54
175.28
169.73
163.28
156.28
148.98
141.52
133.96
126.34
118.71
111.12
103.65
96.36
89.30
82.51
76.00
69.77
63.84
58.22
52.92
47.94
43.29
38.96
34.95
31.26
27.88
24.79
22.01
19.52
17.32
15.41
13.78
12.41
11.30
10.43
9.78
9.35
9.11
9.04
9.14
9.38
9.75
10.25
10.86
11.58
12.39
13.28
14.26
15.32
16.44
17.65
18.93
20.30
21.76
23.28
24.85
26.44
27.96
29.32
30.41
31.09
31.19
30.60
29.18
26.89
23.71
19.71
14.98
9.70
4.11
-1.53
-6.96
-11.94
-16.25
-19.75
-22.36
-24.04
-24.83
-24.82
-24.12
-22.87
-21.21
-19.25
-17.10
-14.82
-12.47
-10.07
-7.65
-5.25
-2.87
-0.52
1.79
4.09
6.37
8.67
11.04
13.42
15.78
18.12
20.43
22.74
25.05
27.41
29.88
32.55
35.32
38.20
41.18
44.31
47.67
51.33
55.36
59.89
65.06
70.67
76.64
82.86
89.28
95.79
102.34
108.89
115.48
122.24
128.92
135.35
141.39
146.83
151.37
154.60
155.93
154.54
152.33
149.99
147.93
146.31
145.05
143.90
142.51
140.57
137.95
134.76
130.83
126.19
120.79
114.45
106.77
97.37
86.05
73.03
59.03
44.74
30.93
17.98
5.67
-6.83
-20.56
-36.22
-53.67
-71.84
-89.18
-104.16
-116.04
-125.37
-133.87
-143.69
-156.44
-172.30
-189.79
-206.58
-220.30
-229.89
-236.16
-241.69
-249.85
-263.70
-284.87
-312.94
-345.11
-376.45
-400.92
-413.09
-410.12
-393.14
-367.28
-340.00
-318.21
-305.46
-300.47
-297.92
-291.00
-274.61
-247.27
-211.11
-169.85
-126.22
-79.99
-28.05
33.60
106.78
188.44
270.20
340.51
388.73
408.84
401.31
372.29
331.32
288.85
254.03
232.90
227.08
233.28
244.40
252.49
253.05
248.10
245.82
256.12
284.48
327.70
374.37
410.38
425.91
419.68
398.22
370.72
343.15
315.49
283.39
242.30
191.51
135.11
79.64
30.32
-11.93
-50.92
-92.80
-142.81
-203.27
-272.99
-348.05
-422.79
-490.08
-542.09
-572.05
-577.28
-561.65
-535.23
-510.27
-495.14
-489.86
-485.78
-470.25
-433.25
-372.15
-291.81
-201.02
-107.94
-18.18
63.58
131.67
179.36
201.84
200.20
182.98
163.88
156.35
168.00
197.71
236.89
273.44
296.56
299.85
282.06
245.97
196.67
139.92
81.11
24.69
-26.05
-68.90
-102.99
-128.70
-147.73
-162.90
-177.19
-192.83
-210.61
-230.50
-252.26
-275.64
-299.83
-322.37
-338.51
-341.94
-326.92
-290.64
-234.28
-162.19
-80.02
7.00
93.99
175.44
244.24
292.30
312.95
303.98
269.13
216.91
157.18
97.08
38.69
-20.74
-86.35
-161.65
-245.57
-331.59
-409.59
-469.48
-504.99
-515.83
-507.35
-487.86
-465.03
-443.22
-423.19
-403.52
-382.85
-361.43
-340.87
-322.85
-307.71
-293.94
-279.02
-260.82
-238.70
-213.70
-188.05
-163.86
-142.16
-122.63
-103.75
-83.83
-61.85
-37.95
-13.47
9.64
29.60
45.37
56.84
64.59
69.43
71.91
72.25
70.33
66.13
59.98
52.61
44.99
38.06
32.39
28.19
25.41
24.05
24.33
26.71
31.61
39.06
48.54
58.99
69.17
78.30
86.35
94.23
103.38
115.06
129.73
146.79
164.84
182.51
199.08
214.94
231.16
249.05
269.30
292.04
317.49
346.07
378.01
411.98
443.83
466.67
472.75
456.45
417.03
359.23
291.37
221.78
155.54
93.71
35.27
-19.72
-68.40
-105.99
-128.79
-136.83
-134.25
-126.83
-118.45
-108.94
-94.71
-71.53
-37.71
4.50
50.08
94.23
134.80
173.10
212.82
257.79
310.18
368.75
428.25
480.42
516.77
531.98
526.76
507.91
485.19
466.58
454.53
445.35
432.10
409.09
375.00
332.96
287.93
243.50
200.12
156.05
109.56
60.96
12.68
-32.00
-71.13
-105.59
-138.61
-174.08
-213.95
-256.36
-295.91
-325.94
-341.41
-341.21
-328.08
-306.89
-282.35
-257.54
-234.32
-214.50
-200.88
-196.86
-204.74
-224.22
-252.18
-284.25
-316.77
-348.25
-378.81
-408.85
-437.99
-464.91
-488.54
-509.56
-531.00
-556.74
-588.95
-625.62
-659.79
-681.31
-680.64
-652.70
-599.08
-527.21
-447.44
-369.39
-299.05
-238.17
-185.62
-139.40
-98.37
-62.41
-31.58
-5.18
18.58
41.93
66.45
92.25
117.99
141.36
160.28
173.80
182.26
187.02
189.70
191.35
192.11
191.15
187.17
179.18
166.96
151.21
133.33
114.85
97.02
80.51
65.48
51.74
39.19
27.98
18.49
11.22
6.54
4.51
4.89
7.23
11.01
15.79
21.21
26.96
32.71
38.10
42.78
46.59
49.61
52.18
54.84
58.07
62.14
66.95
72.12
77.19
81.95
86.59
91.69
98.08
106.43
116.98
129.41
142.99
156.83
170.37
183.48
196.54
210.28
225.58
243.37
264.33
288.46
314.61
340.24
361.78
375.60
379.35
372.83
358.11
338.58
317.58
297.23
278.08
259.64
241.17
222.45
203.88
186.23
170.15
155.94
143.50
132.50
122.50
113.03
103.65
94.03
83.98
73.51
62.83
52.25
42.11
32.76
24.58
18.02
13.46
11.15
10.97
12.53
15.29
18.79
22.89
27.76
33.68
40.74
48.61
56.53
63.56
68.96
72.42
74.35
75.63
77.32
80.16
84.21
88.94
93.41
96.78
98.67
99.27
99.33
99.86
101.77
105.43
110.30
114.69
116.08
111.99
101.16
84.39
64.30
43.97
25.02
6.76
-13.18
-36.69
-63.42
-90.22
-112.50
-126.46
-130.70
-126.46
-116.27
-102.40
-86.16
-68.25
-49.61
-31.99
-17.47
-7.43
-1.73
1.31
4.07
8.63
15.84
24.89
33.43
38.17
36.27
26.35
9.34
-11.90
-33.58
-52.44
-66.91
-77.41
-85.70
-93.51
-101.27
-108.05
-112.67
-115.04
-116.80
-120.46
-127.48
-136.47
-142.99
-141.21
-126.55
-97.82
-57.95
-12.89
30.71
67.47
94.56
111.82
121.21
125.77
128.49
131.03
133.04
131.94
124.47
108.57
85.15
58.37
34.50
19.45
16.36
24.47
39.52
55.38
65.95
66.52
54.13
27.21
-14.69
-70.14
-134.53
-199.04
-251.56
-279.78
-275.97
-240.64
-183.02
-117.93
-60.10
-18.83
4.37
14.49
19.20
24.85
34.17
46.28
58.44
68.14
74.27
77.20
78.04
77.70
76.26
73.31
68.47
62.05
55.34
50.12
47.88
48.97
52.39
56.13
58.11
57.10
53.30
48.26
44.25
43.45
47.18
55.52
67.42
81.13
94.66
106.09
113.68
115.66
110.51
97.36
76.67
50.62
22.95
-1.98
-20.62
-31.15
-33.93
-30.57
-22.77
-11.46
3.03
19.79
36.34
48.55
52.05
44.17
25.86
1.82
-21.25
-37.41
-44.03
-42.35
-36.13
-29.41
-24.80
-23.03
-23.77
-26.70
-31.78
-39.26
-49.25
-61.78
-77.45
-97.88
-125.38
-161.43
-204.65
-249.56
-288.31
-314.16
-325.34
-326.33
-325.31
-329.19
-339.05
-349.00
-349.02
-330.46
-290.36
-232.55
-165.23
-96.79
-33.07
23.19
70.91
109.11
136.48
152.48
158.21
156.43
150.67
144.06
138.73
135.63
134.60
134.30
132.54
127.00
116.36
101.17
83.59
66.25
50.64
36.45
22.17
6.49
-10.40
-26.72
-39.98
-48.47
-52.09
-52.41
-51.58
-51.31
-52.21
-53.82
-54.99
-54.33
-50.84
-44.12
-34.66
-23.73
-13.19
-4.94
-0.38
0.23
-1.96
-4.85
-5.82
-3.15
3.51
13.08
23.74
34.12
43.78
53.05
62.26
70.67
75.75
73.72
61.19
37.07
3.72
-33.50
-68.15
-95.14
-112.29
-120.72
-124.07
-126.97
-133.87
-148.14
-171.84
-205.25
-246.69
-292.06
-335.37
-369.53
-388.39
-388.47
-369.56
-334.67
-288.85
-237.96
-187.83
-143.29
-107.60
-82.11
-65.96
-56.11
-48.15
-37.19
-19.21
8.09
44.85
89.40
138.95
190.13
239.48
283.54
319.31
344.78
359.66
365.65
366.04
364.59
363.90
364.64
365.51
364.26
358.89
348.68
334.42
317.96
301.54
287.27
276.90
271.56
271.58
276.33
284.35
293.61
302.01
307.64
308.88
304.39
293.16
274.76
249.57
219.00
185.22
150.56
116.79
84.76
54.50
25.63
-2.26
-29.49
-56.44
-83.70
-111.94
-141.60
-172.61
-204.51
-236.57
-268.21
-299.16
-329.60
-360.09
-391.82
-426.72
-467.16
-514.61
-568.00
-622.40
-669.37
-699.45
-705.51
-685.74
-644.31
-589.39
-529.58
-470.94
-416.25
-366.34
-322.08
-285.25
-257.58
-238.93
-226.06
-213.33
-194.88
-167.15
-130.10
-86.52
-40.31
5.41
49.12
90.72
130.53
168.74
205.32
240.35
274.43
309.07
346.71
390.07
440.82
497.73
555.87
607.20
642.89
656.69
647.50
619.96
582.47
543.72
509.54
481.62
458.34
436.77
414.54
390.50
364.39
336.02
304.90
270.45
232.55
191.85
149.56
107.16
65.71
25.72
-12.89
-50.22
-86.22
-120.73
-153.68
-185.55
-217.49
-251.27
-288.37
-329.15
-372.58
-416.47
-458.11
-494.33
-521.57
-535.93
-534.67
-518.51
-493.03
-467.66
-452.03
-451.43
-464.02
-481.71
-494.28
-494.31
-479.89
-453.85
-420.62
-383.13
-341.95
-296.56
-247.60
-197.43
-148.96
-103.95
-61.90
-20.83
21.17
64.48
107.65
148.43
185.03
217.15
246.34
275.88
309.35
349.12
394.53
440.81
479.56
501.11
497.84
466.98
411.81
340.12
261.07
181.94
106.15
33.26
-39.42
-114.58
-192.84
-271.73
-345.74
-407.69
-450.86
-471.21
-468.80
-447.72
-414.36
-375.15
-334.76
-295.73
-259.24
-226.29
-198.11
-175.51
-157.84
-142.45
-125.45
-103.38
-74.89
-41.30
-5.80
28.00
57.91
83.99
108.42
134.51
165.51
203.63
249.02
299.26
349.14
391.52
419.17
427.21
414.60
384.16
341.10
290.79
237.17
182.36
127.70
75.20
28.53
-7.13
-26.40
-25.61
-4.37
33.74
81.77
131.10
173.80
204.91
223.73
233.29
238.33
242.77
248.02
252.79
254.41
250.51
239.94
223.10
201.54
177.29
152.26
128.16
106.42
88.19
74.09
63.82
55.86
47.69
36.54
21.09
2.37
-16.26
-30.52
-37.71
-38.85
-38.91
-44.88
-62.57
-93.90
-136.13
-183.35
-229.31
-269.54
-302.06
-326.32
-341.85
-347.81
-343.62
-330.14
-310.33
-288.56
-268.84
-253.23
-241.00
-229.55
-216.01
-198.92
-179.13
-159.28
-142.44
-130.84
-124.37
-120.65
-115.87
-105.98
-88.03
-61.05
-26.11
14.08
55.96
95.99
131.42
160.60
182.96
198.68
208.15
211.71
209.83
203.39
194.01
183.78
174.76
168.10
163.56
159.65
154.51
146.88
136.61
124.59
112.03
99.74
88.06
77.01
66.67
57.16
48.30
39.47
29.87
19.10
7.76
-2.66
-10.72
-16.18
-20.53
-26.43
-36.41
-51.53
-70.84
-91.82
-111.44
-127.06
-136.75
-139.22
-133.54
-119.57
-98.30
-72.17
-44.42
-18.14
4.71
23.59
38.79
50.51
58.44
62.07
61.51
57.68
51.75
44.39
35.17
23.00
7.28
-11.02
-29.38
-44.60
-54.57
-59.18
-60.00
-59.09
-57.80
-56.45
-54.84
-52.97
-50.87
-47.86
-41.80
-29.60
-8.85
20.41
55.18
90.64
122.31
147.96
167.97
184.21
198.22
210.06
218.49
221.99
219.84
212.45
200.83
185.92
168.17
147.88
125.57
102.45
80.36
61.35
47.34
39.68
38.76
43.81
52.95
63.48
72.65
78.30
79.54
76.96
72.22
67.46
64.34
63.44
64.00
64.46
63.14
59.10
52.54
44.70
37.29
31.74
28.69
27.83
28.16
28.38
27.20
23.57
16.75
6.48
-6.99
-23.01
-40.80
-59.88
-80.17
-101.69
-124.03
-145.90
-165.22
-179.86
-188.79
-192.75
-194.17
-196.10
-200.74
-208.44
-217.64
-225.91
-231.40
-233.83
-234.69
-236.43
-241.29
-250.37
-263.28
-278.40
-293.33
-305.34
-311.62
-309.57
-297.15
-273.51
-239.34
-196.91
-149.37
-99.82
-50.15
-0.71
49.30
100.48
151.89
200.33
240.90
268.66
280.64
277.18
261.70
239.26
214.48
189.72
164.61
136.95
104.27
65.13
19.64
-30.83
-83.74
-135.52
-181.41
-215.63
-232.46
-227.83
-200.78
-154.28
-94.82
-30.64
30.17
81.38
119.34
142.92
153.20
152.91
145.99
136.84
129.27
125.35
124.93
126.04
125.94
122.30
114.09
101.71
86.47
70.07
54.07
39.75
28.18
19.91
14.95
12.59
11.73
11.29
10.65
9.82
9.18
9.18
9.97
11.36
12.99
14.51
15.69
16.37
16.57
16.33
15.82
15.24
14.79
14.69
15.23
16.74
19.59
24.02
29.97
36.94
43.95
49.83
53.40
53.89
51.11
45.48
37.81
29.01
19.75
10.42
1.22
-7.57
-15.40
-21.48
-25.09
-25.90
-24.14
-20.45
-15.61
-10.24
-4.64
1.24
7.92
16.33
27.58
42.44
60.72
80.84
100.09
115.46
124.93
128.32
127.26
124.50
122.73
123.70
127.93
134.78
142.59
149.00
151.15
146.24
132.28
108.79
77.18
40.49
2.25
-34.76
-69.38
-101.98
-133.19
-162.45
-187.35
-204.29
-210.29
-204.78
-190.42
-172.22
-155.47
-143.43
-136.20
-131.40
-125.93
-117.90
-107.67
-97.27
-88.97
-83.84
-80.95
-77.77
-71.42
-60.15
-44.38
-26.77
-10.99
0.02
5.54
7.29
8.60
12.51
20.32
31.09
42.42
51.80
57.55
59.30
57.64
53.71
48.86
44.51
41.95
42.34
46.33
53.77
63.69
74.47
84.18
90.69
92.00
86.65
74.15
55.46
33.15
11.02
-6.90
-17.41
-19.28
-13.79
-4.49
3.61
6.00
0.49
-11.81
-26.95
-39.88
-46.91
-47.15
-42.39
-35.63
-29.38
-24.81
-22.05
-21.14
-22.31
-25.73
-30.84
-36.13
-39.71
-40.30
-38.14
-34.82
-32.30
-31.62
-32.26
-32.35
-29.95
-24.36
-16.80
-10.04
-7.28
-10.67
-20.26
-33.77
-47.34
-57.36
-62.00
-61.92
-59.64
-58.12
-59.29
-63.35
-69.13
-74.85
-78.99
-80.84
-80.59
-79.27
-78.42
-79.62
-83.98
-91.58
-101.25
-110.59
-116.55
-116.30
-108.14
-92.15
-70.17
-45.36
-21.36
-1.46
12.22
19.08
19.96
16.64
11.27
5.86
1.95
0.46
1.52
4.42
7.81
10.20
10.56
8.94
6.61
5.64
8.12
15.05
25.81
38.15
49.08
56.14
58.56
57.61
56.03
56.64
61.00
68.63
77.26
84.04
87.09
86.44
83.90
81.82
81.65
83.14
84.52
83.73
79.79
73.55
67.20
63.19
63.06
66.76
73.06
80.25
86.42
89.37
86.45
75.02
54.16
26.26
-2.57
-24.29
-32.38
-25.13
-6.73
14.58
30.40
36.08
32.35
24.13
17.38
16.00
20.32
27.77
35.02
40.03
43.07
46.27
52.37
63.36
79.57
99.72
121.61
142.81
160.96
173.88
179.42
175.65
161.22
135.94
101.22
59.92
15.94
-26.83
-65.46
-98.85
-127.91
-154.88
-181.91
-209.28
-234.70
-254.20
-264.16
-263.31
-253.52
-238.93
-223.68
-210.00
-197.49
-183.77
-166.08
-142.79
-114.34
-83.23
-53.45
-29.25
-13.88
-8.49
-11.84
-21.08
-33.33
-47.23
-62.89
-80.67
-99.36
-115.44
-124.31
-122.67
-110.63
-92.10
-73.33
-59.98
-54.72
-56.46
-61.56
-66.07
-67.78
-66.91
-65.37
-65.14
-67.05
-70.22
-72.60
-72.09
-67.65
-59.72
-49.89
-39.81
-30.22
-20.58
-9.47
4.58
22.25
43.02
65.34
87.07
106.13
121.01
131.00
136.06
136.45
132.71
125.57
116.05
105.49
95.30
86.58
79.62
73.95
68.69
63.01
56.48
49.02
40.45
30.06
16.66
-0.65
-21.30
-42.55
-59.79
-68.07
-64.26
-48.61
-24.88
1.08
23.64
39.28
47.25
48.80
45.88
39.98
32.06
23.23
15.34
11.02
12.77
21.63
36.39
53.92
70.21
82.01
87.95
88.62
85.91
81.92
78.15
75.21
73.00
71.11
69.11
66.64
63.34
58.82
52.78
45.21
36.51
27.56
19.41
13.02
8.94
7.27
7.69
9.60
12.30
15.08
17.24
18.29
17.95
16.30
13.67
10.64
7.72
5.30
3.54
2.47
2.06
2.30
3.21
4.80
7.06
9.93
13.29
16.92
20.54
23.82
26.47
28.35
29.46
29.89
29.72
28.99
27.66
25.73
23.22
20.22
16.75
12.70
7.81
1.88
-4.93
-11.81
-17.45
-20.47
-20.11
-16.73
-11.73
-7.03
-4.35
-4.57
-7.49
-12.20
-17.60
-22.92
-27.99
-33.08
-38.52
-44.35
-50.11
-54.85
-57.55
-57.41
-54.28
-48.76
-42.05
-35.51
-30.19
-26.44
-23.69
-20.78
-16.40
-9.72
-0.81
9.25
18.83
26.44
31.36
33.97
35.55
37.67
41.58
47.87
56.43
66.51
76.53
83.85
84.95
76.33
56.14
25.72
-10.04
-43.87
-68.81
-80.92
-80.70
-72.48
-62.10
-54.30
-51.11
-51.97
-54.97
-58.30
-60.85
-62.03
-61.09
-57.14
-49.49
-38.42
-25.56
-13.44
-4.56
-0.38
-0.70
-3.95
-7.94
-10.82
-11.64
-10.49
-8.23
-6.00
-4.81
-5.26
-7.41
-10.74
-14.40
-17.38
-18.97
-18.97
-17.88
-16.68
-16.39
-17.58
-19.93
-22.36
-23.53
-22.53
-19.33
-14.73
-9.93
-5.97
-3.43
-2.32
-2.34
-3.03
-3.82
-4.01
-2.78
0.46
5.73
12.27
18.70
23.57
25.87
25.43
22.91
19.35
15.61
11.98
8.08
3.18
-3.37
-11.78
-21.93
-33.75
-47.60
-64.11
-83.37
-104.16
-123.46
-137.05
-140.84
-132.66
-113.36
-86.70
-57.97
-32.04
-11.81
2.31
11.69
18.14
22.79
25.60
25.84
23.06
17.75
11.40
5.93
2.70
1.82
2.27
2.71
2.46
2.17
3.54
8.40
17.73
30.84
45.59
59.15
69.12
74.30
74.92
72.06
67.04
60.77
53.69
46.07
38.33
31.11
25.09
20.82
18.49
18.11
19.57
22.62
26.72
30.94
34.07
35.11
33.84
31.09
28.56
28.01
30.45
35.62
42.10
48.06
52.02
53.47
52.81
51.10
49.53
49.17
50.79
54.77
60.67
66.76
69.82
65.70
50.79
23.84
-12.94
-54.16
-92.94
-123.32
-142.23
-149.87
-148.87
-142.66
-133.99
-124.39
-114.50
-104.65
-95.16
-86.37
-78.38
-70.94
-63.56
-56.03
-48.39
-40.98
-34.20
-28.17
-22.53
-16.58
-9.67
-1.39
8.20
18.19
26.58
30.23
25.74
11.27
-11.43
-36.19
-53.98
-56.63
-40.80
-9.69
28.61
65.48
95.77
119.36
139.14
157.49
173.82
184.78
186.48
176.78
156.07
126.17
89.53
49.47
11.16
-18.19
-30.76
-21.55
8.56
52.40
99.30
139.59
168.35
186.21
197.19
205.29
211.96
215.83
214.20
205.26
189.44
169.35
148.52
129.84
114.30
100.94
87.75
72.86
55.43
35.86
15.05
-6.30
-27.97
-49.69
-70.33
-87.56
-98.47
-101.21
-96.49
-87.94
-80.72
-79.04
-83.87
-92.38
-99.53
-100.79
-94.47
-82.18
-67.55
-53.87
-42.72
-33.81
-26.25
-19.84
-15.48
-14.38
-16.88
-21.75
-26.58
-29.16
-28.64
-25.92
-22.94
-21.55
-22.51
-25.28
-28.55
-31.04
-32.04
-31.58
-30.13
-28.25
-26.29
-24.36
-22.47
-20.58
-18.64
-16.53
-14.07
-11.06
-7.48
-3.53
0.34
3.66
6.23
8.26
10.20
12.54
15.34
18.20
20.31
21.01
20.17
18.52
17.49
18.57
22.70
29.58
37.70
44.86
49.12
49.66
47.25
43.86
41.67
41.90
43.84
45.00
42.03
32.29
15.28
-6.71
-29.10
-46.54
-54.72
-52.01
-40.09
-23.24
-7.06
3.09
3.28
-8.16
-30.18
-58.96
-88.49
-111.88
-123.35
-120.08
-103.04
-76.51
-46.47
-18.81
1.80
12.17
10.35
-4.25
-30.39
-64.29
-99.71
-129.43
-147.56
-151.57
-143.14
-127.35
-110.82
-99.69
-97.64
-104.89
-118.18
-131.62
-138.72
-134.82
-119.04
-94.73
-68.01
-45.00
-29.08
-19.54
-12.38
-2.47
13.85
37.06
64.07
89.14
105.76
108.76
96.26
70.76
38.58
7.77
-14.60
-24.76
-23.12
-13.15
0.67
14.87
27.83
39.29
49.45
58.23
65.33
70.61
74.40
77.31
79.74
81.71
82.85
82.89
81.95
80.44
78.31
74.35
66.18
51.27
28.68
0.36
-28.90
-53.04
-67.26
-69.95
-63.08
-50.84
-37.43
-25.34
-15.05
-5.99
2.03
8.10
10.76
9.28
4.67
-0.34
-2.47
0.48
8.43
18.87
27.81
31.45
27.72
17.07
2.11
-13.58
-26.83
-35.92
-40.92
-43.24
-44.77
-46.93
-50.24
-54.35
-58.52
-62.19
-65.32
-68.27
-71.39
-74.75
-78.26
-81.98
-86.66
-93.70
-104.45
-119.38
-137.70
-158.11
-180.05
-204.37
-232.66
-265.46
-300.49
-332.45
-354.92
-363.24
-356.82
-339.25
-316.22
-292.58
-270.44
-249.19
-227.04
-202.94
-177.25
-151.14
-125.34
-99.08
-70.03
-35.20
7.75
58.81
114.50
168.13
211.39
237.08
241.98
228.38
203.46
176.62
155.83
144.96
143.14
146.19
149.26
149.06
144.71
136.96
126.93
115.07
101.30
85.80
69.76
55.27
44.53
38.49
36.12
35.01
32.63
27.84
21.50
15.74
12.59
12.67
14.76
16.62
16.28
13.13
8.14
3.26
0.30
0.19
2.60
6.23
9.56
11.37
11.04
8.28
2.93
-5.23
-16.16
-29.11
-42.38
-53.55
-60.24
-60.98
-55.69
-45.45
-31.95
-16.76
-1.11
14.06
27.93
39.70
48.81
55.07
58.76
60.39
60.48
59.33
57.10
53.89
49.97
45.63
41.15
36.80
33.00
30.60
30.88
35.09
43.85
56.53
71.13
84.95
95.55
101.65
103.47
102.31
99.73
96.71
93.52
90.03
86.39
83.27
81.51
81.41
82.08
81.51
77.22
67.55
52.45
33.85
15.03
-0.52
-10.12
-12.71
-8.87
-0.35
10.56
21.61
30.92
37.13
39.49
38.04
33.71
28.20
23.52
21.18
21.37
22.54
21.66
15.36
1.32
-20.74
-48.74
-78.99
-107.36
-130.49
-146.57
-155.32
-157.60
-154.78
-148.33
-139.54
-129.57
-119.38
-109.62
-100.48
-91.60
-82.25
-71.52
-58.70
-43.31
-25.26
-4.77
17.63
41.18
64.90
87.76
108.83
127.27
142.29
153.08
158.79
158.79
152.98
142.00
127.29
110.77
94.32
79.39
66.83
56.94
49.71
44.75
41.22
37.63
32.05
22.61
8.17
-11.07
-33.53
-56.67
-77.69
-94.33
-105.21
-109.88
-108.58
-102.03
-91.36
-78.22
-64.70
-52.98
-44.81
-40.99
-41.07
-43.59
-46.60
-48.46
-48.34
-46.31
-43.08
-39.48
-36.01
-32.77
-29.73
-27.04
-25.14
-24.61
-25.62
-27.67
-29.54
-29.75
-27.02
-20.78
-11.21
0.83
13.98
26.63
37.06
43.72
45.70
43.16
37.64
31.85
28.97
31.46
40.15
53.83
69.72
84.47
95.37
101.11
101.87
98.80
93.23
86.08
77.80
68.70
59.36
50.82
44.30
40.70
40.21
42.23
45.66
49.32
52.44
54.84
56.78
58.72
60.90
63.19
65.16
66.26
66.15
64.81
62.52
59.49
55.65
50.49
43.20
33.03
19.67
3.50
-14.42
-32.54
-49.28
-63.43
-74.47
-82.69
-88.99
-94.43
-99.70
-104.65
-108.30
-109.29
-106.63
-100.37
-91.77
-82.77
-75.09
-69.47
-65.36
-61.44
-56.45
-49.92
-42.44
-35.25
-29.63
-26.22
-24.88
-24.89
-25.39
-25.79
-25.88
-25.83
-25.94
-26.40
-27.26
-28.31
-29.25
-29.71
-29.23
-27.34
-23.70
-18.27
-11.66
-5.12
-0.20
1.97
1.43
-0.32
-0.68
3.11
12.86
28.70
48.87
70.29
89.37
102.89
108.70
106.19
96.47
82.06
66.44
52.97
44.08
40.59
41.59
45.04
48.54
50.27
49.40
46.28
41.99
37.70
34.24
31.81
30.09
28.56
26.64
23.74
19.17
12.08
1.70
-12.26
-29.28
-48.03
-66.74
-83.64
-97.39
-107.24
-112.96
-114.73
-113.16
-109.22
-104.10
-98.81
-93.81
-88.88
-83.45
-77.13
-69.92
-61.92
-52.76
-41.19
-25.45
-4.28
21.96
50.90
78.80
101.99
118.23
127.23
130.23
128.99
124.93
119.01
112.09
105.29
99.86
96.63
95.36
94.60
92.29
86.73
77.45
65.43
52.65
41.17
32.32
26.49
23.26
21.80
21.23
20.80
19.81
17.69
14.16
9.48
4.62
0.98
-0.27
1.22
4.54
7.82
9.07
7.06
2.01
-4.53
-10.31
-13.34
-12.57
-8.14
-1.27
6.20
12.04
13.86
9.65
-1.50
-18.69
-39.00
-58.28
-72.67
-80.04
-80.64
-76.48
-69.92
-62.45
-54.23
-44.91
-34.53
-24.15
-15.45
-9.85
-7.68
-8.18
-10.21
-13.10
-17.04
-22.75
-30.76
-40.83
-51.89
-62.53
-71.55
-78.31
-82.55
-84.04
-82.28
-76.61
-66.65
-52.70
-35.91
-18.00
-0.64
15.06
28.63
39.99
48.98
55.32
58.77
59.58
58.73
57.69
57.78
59.53
62.41
65.22
66.81
66.77
65.49
63.78
62.17
60.58
58.43
55.26
51.20
47.03
43.81
42.21
42.23
43.22
44.23
44.41
43.08
39.73
34.01
25.95
16.32
6.68
-0.94
-4.76
-4.02
0.62
7.36
14.10
19.25
22.27
23.47
23.45
22.45
20.13
15.89
9.43
1.32
-6.99
-13.65
-17.24
-17.44
-15.27
-12.56
-11.09
-11.82
-14.45
-17.79
-20.27
-20.66
-18.36
-13.44
-6.38
2.15
11.28
20.06
27.50
32.81
35.60
36.02
34.70
32.30
29.30
25.83
21.85
17.50
13.21
9.53
6.81
4.81
2.75
-0.28
-4.85
-10.83
-17.47
-23.88
-29.48
-34.17
-38.23
-41.96
-45.45
-48.55
-51.03
-52.69
-53.47
-53.27
-52.04
-49.81
-46.91
-43.98
-41.77
-40.67
-40.40
-39.99
-38.21
-34.27
-28.29
-21.31
-14.82
-10.06
-7.48
-6.69
-6.76
-6.70
-5.68
-3.00
2.01
9.93
20.91
34.25
48.32
60.86
69.83
74.24
74.44
71.79
67.82
63.37
58.27
51.64
42.73
31.71
19.99
9.83
3.55
2.70
7.48
16.72
28.41
40.32
50.70
58.54
63.66
66.34
67.03
66.01
63.37
59.07
53.22
46.16
38.48
30.90
24.02
18.15
13.29
9.31
6.13
3.89
2.80
2.94
3.86
4.63
3.99
0.87
-5.13
-13.60
-23.41
-33.24
-41.96
-48.96
-54.03
-57.13
-58.18
-57.09
-53.92
-49.14
-43.76
-39.29
-37.35
-39.22
-45.40
-55.39
-67.67
-80.09
-90.41
-96.95
-99.03
-96.94
-91.65
-84.15
-75.11
-64.81
-53.40
-41.29
-29.24
-18.22
-9.04
-2.05
2.87
6.08
7.90
8.37
7.28
4.39
-0.28
-6.45
-13.51
-20.72
-27.37
-32.86
-36.77
-38.90
-39.27
-38.08
-35.68
-32.60
-29.46
-26.92
-25.53
-25.47
-26.46
-27.63
-27.69
-25.28
-19.28
-9.22
4.54
20.79
37.67
53.10
65.27
73.18
76.84
77.23
75.80
73.93
72.52
71.74
71.19
70.20
68.01
63.98
57.72
49.41
40.12
32.07
28.32
31.80
44.01
64.03
88.49
112.59
131.83
143.47
147.10
144.14
136.60
126.06
113.28
98.49
82.06
64.91
48.44
34.04
22.56
14.16
8.52
5.16
3.76
4.11
5.77
7.79
8.67
6.56
-0.26
-12.97
-31.87
-56.15
-83.87
-112.15
-137.73
-157.70
-170.31
-175.33
-174.00
-168.35
-160.38
-151.41
-141.93
-131.96
-121.51
-110.86
-100.55
-91.09
-82.71
-75.31
-68.61
-62.42
-56.65
-51.34
-46.47
-41.97
-37.80
-34.20
-31.72
-31.05
-32.67
-36.31
-40.87
-44.71
-46.22
-44.55
-39.87
-33.34
-26.60
-21.30
-18.69
-19.26
-22.67
-27.70
-32.57
-35.50
-35.40
-32.25
-26.97
-20.82
-14.60
-8.20
-0.83
8.36
19.56
32.00
44.36
55.50
65.09
73.60
81.79
89.93
97.29
102.09
102.20
96.04
83.38
65.68
45.67
26.53
10.88
0.15
-5.60
-7.30
-6.35
-4.01
-1.23
1.38
3.34
4.20
3.63
1.54
-1.71
-5.38
-8.52
-10.20
-9.68
-6.49
-0.46
8.18
18.65
29.58
39.20
45.86
48.66
47.83
44.69
41.02
38.27
37.00
36.71
36.26
34.35
29.90
22.17
10.66
-4.83
-24.03
-46.02
-69.16
-91.45
-111.11
-127.20
-139.83
-149.73
-157.62
-163.64
-167.13
-166.81
-161.17
-148.92
-129.29
-102.42
-69.54
-32.96
4.18
38.57
67.35
88.68
101.91
107.46
106.73
101.85
95.48
90.37
88.81
91.92
99.25
108.99
118.72
126.37
130.90
132.43
131.93
130.63
129.56
129.17
129.20
128.80
126.83
122.26
114.66
104.49
92.97
81.64
71.75
63.78
57.43
51.90
46.31
39.91
32.22
22.66
10.41
-5.43
-25.55
-50.03
-78.18
-108.83
-140.78
-173.02
-204.40
-232.89
-255.20
-267.29
-265.67
-249.00
-219.01
-180.12
-137.87
-97.25
-61.45
-31.91
-9.07
6.83
15.53
17.25
13.25
5.99
-1.44
-6.27
-6.96
-3.47
3.08
11.12
19.26
26.72
33.41
39.69
46.07
52.81
59.80
66.55
72.30
76.41
78.61
79.09
78.41
77.25
76.09
75.10
74.10
72.74
70.73
68.00
64.70
61.19
57.89
55.05
52.59
49.98
46.29
40.44
31.56
19.37
4.39
-12.11
-28.46
-43.02
-54.66
-62.99
-68.38
-71.69
-73.76
-74.95
-74.87
-72.54
-66.87
-57.32
-44.40
-29.64
-15.30
-3.56
4.09
7.34
7.03
4.79
2.41
1.30
2.05
4.45
7.72
10.96
13.51
15.20
16.23
17.02
17.97
19.32
21.15
23.38
25.81
28.14
30.00
31.00
30.79
29.07
25.69
20.70
14.39
7.35
0.26
-6.20
-11.53
-15.49
-18.01
-19.08
-18.71
-17.01
-14.26
-10.98
-7.86
-5.55
-4.46
-4.52
-5.31
-6.12
-6.27
-5.29
-3.12
-0.05
3.40
6.89
10.40
14.36
19.34
25.69
33.14
40.75
47.21
51.36
52.66
51.32
48.09
43.89
39.40
34.94
30.61
26.47
22.70
19.58
17.26
15.63
14.26
12.53
9.93
6.26
1.69
-3.37
-8.47
-13.41
-18.28
-23.37
-29.03
-35.35
-42.04
-48.45
-53.61
-56.62
-56.74
-53.64
-47.42
-38.66
-28.37
-17.89
-8.72
-2.25
0.63
-0.19
-3.91
-9.02
-13.90
-17.40
-19.29
-20.29
-21.51
-23.85
-27.42
-31.52
-35.01
-36.86
-36.56
-34.30
-30.71
-26.58
-22.56
-19.10
-16.50
-14.97
-14.53
-14.86
-15.26
-14.74
-12.33
-7.56
-0.59
7.80
16.62
25.20
33.52
42.17
51.85
62.88
74.84
86.74
97.59
106.95
115.04
122.49
129.77
136.76
142.79
147.01
149.06
149.34
148.91
149.04
150.52
153.36
156.83
159.84
161.45
161.10
158.60
153.81
146.19
134.69
117.97
94.90
65.05
28.94
-12.25
-57.01
-103.69
-150.27
-194.16
-232.06
-260.77
-278.31
-285.16
-284.31
-280.08
-276.05
-273.30
-270.06
-262.83
-248.48
-225.85
-196.07
-161.64
-124.93
-87.51
-50.33
-14.69
17.17
42.37
58.65
65.48
64.39
58.15
49.28
39.04
27.27
13.34
-2.96
-20.83
-38.81
-55.55
-70.46
-83.59
-95.01
-104.22
-110.19
-111.88
-109.10
-102.86
-94.98
-87.29
-80.85
-75.66
-71.03
-66.15
-60.45
-53.63
-45.56
-36.03
-24.95
-12.51
0.58
13.17
24.05
32.39
38.07
41.55
43.77
45.68
48.04
51.24
55.33
60.07
65.13
70.12
74.60
78.16
80.29
80.62
79.00
75.65
71.16
66.33
61.90
58.26
55.29
52.24
47.91
41.06
30.99
18.14
4.21
-8.21
-16.69
-20.04
-18.89
-15.24
-11.38
-8.55
-6.43
-3.52
1.64
9.40
18.66
27.56
34.59
39.43
42.91
46.42
50.77
55.69
59.72
60.81
57.01
47.10
30.93
9.37
-15.70
-41.51
-64.66
-81.76
-90.27
-89.30
-79.90
-64.62
-46.51
-28.11
-10.87
4.75
18.64
30.55
39.99
46.53
50.34
52.39
54.09
56.79
61.19
67.18
73.89
79.88
83.34
82.40
75.79
63.26
45.96
26.23
6.82
-9.96
-22.96
-32.27
-38.68
-42.96
-45.49
-46.29
-45.58
-44.04
-42.89
-43.34
-46.06
-50.77
-56.39
-61.40
-64.23
-63.69
-59.05
-50.19
-37.66
-22.69
-7.07
7.23
18.69
26.60
31.19
33.24
33.55
32.69
30.97
28.78
26.67
25.34
25.09
25.56
25.77
24.64
21.65
17.30
12.89
9.79
8.62
8.80
8.79
6.93
2.35
-4.58
-12.34
-19.05
-23.28
-24.58
-23.51
-21.23
-19.02
-17.84
-18.19
-20.22
-23.94
-29.22
-35.84
-43.33
-50.86
-57.40
-61.92
-63.74
-62.72
-59.33
-54.40
-48.73
-42.89
-37.19
-31.80
-26.95
-22.86
-19.53
-16.57
-13.16
-8.34
-1.54
7.11
16.77
26.20
34.29
40.44
44.65
47.32
48.96
49.91
50.16
49.51
47.68
44.48
39.89
34.15
27.64
20.81
14.06
7.73
2.11
-2.53
-5.94
-7.88
-8.23
-7.04
-4.58
-1.28
2.38
6.00
9.34
12.57
16.35
21.78
29.98
41.59
56.11
71.75
85.84
95.72
99.74
97.84
91.36
82.36
72.71
63.52
55.17
47.68
41.10
35.69
31.59
28.57
25.84
22.35
17.15
9.82
0.79
-9.01
-18.37
-26.34
-32.44
-36.71
-39.47
-41.12
-41.95
-42.03
-41.26
-39.54
-36.85
-33.52
-30.20
-27.82
-27.33
-29.33
-33.85
-40.39
-48.17
-56.52
-65.05
-73.61
-82.08
-90.04
-96.71
-100.98
-101.76
-98.36
-90.75
-79.70
-66.65
-53.33
-41.37
-31.93
-25.44
-21.61
-19.50
-17.80
-15.11
-10.30
-2.80
7.30
19.10
31.16
41.76
49.46
53.34
53.17
49.40
42.93
34.99
26.93
20.07
15.39
13.32
13.59
15.26
17.06
17.66
16.17
12.45
7.20
1.93
-1.42
-1.06
4.00
13.54
26.03
39.16
50.64
58.98
63.94
66.33
67.31
67.64
67.35
65.91
62.76
57.92
52.09
46.39
41.72
38.35
35.83
33.37
30.30
26.45
22.07
17.49
12.83
7.77
1.87
-5.07
-12.74
-20.37
-27.01
-31.99
-35.16
-36.84
-37.63
-38.03
-38.29
-38.47
-38.53
-38.51
-38.51
-38.69
-39.11
-39.68
-40.18
-40.26
-39.58
-37.86
-35.06
-31.36
-27.13
-22.80
-18.66
-14.78
-10.96
-6.98
-2.74
1.59
5.60
8.81
10.92
11.96
12.26
12.33
12.55
13.11
13.89
14.58
14.77
14.08
12.34
9.62
6.28
2.86
-0.04
-2.15
-3.62
-4.99
-6.89
-9.61
-12.87
-15.83
-17.43
-16.84
-13.88
-9.01
-3.19
2.46
6.98
9.71
10.30
8.68
5.07
-0.03
-5.88
-11.62
-16.49
-20.01
-22.02
-22.71
-22.48
-21.77
-21.00
-20.42
-20.11
-19.96
-19.59
-18.46
-15.96
-11.65
-5.45
2.19
10.38
18.17
24.93
30.56
35.47
40.18
44.88
49.21
52.32
53.37
52.03
48.66
44.24
39.88
36.34
33.92
32.47
31.81
31.90
32.79
34.44
36.38
37.73
37.41
34.51
28.70
20.28
10.08
-0.88
-11.73
-21.97
-31.42
-40.17
-48.20
-55.08
-59.87
-61.38
-58.94
-53.25
-46.83
-43.62
-47.63
-61.41
-84.77
-114.48
-145.15
-170.72
-186.05
-187.92
-175.37
-149.49
-113.17
-70.71
-27.38
11.48
41.84
62.18
74.01
81.02
87.39
95.79
106.36
117.01
125.01
128.83
128.99
127.74
127.52
129.58
133.49
137.73
140.90
142.69
143.92
145.83
149.11
153.28
156.99
158.76
157.82
154.54
150.18
146.08
142.79
139.56
134.50
125.40
110.57
89.43
62.77
32.33
0.30
-31.12
-60.07
-85.09
-105.40
-121.14
-133.62
-145.10
-158.14
-174.46
-194.03
-214.76
-233.29
-246.49
-252.89
-253.48
-251.25
-249.98
-252.67
-260.44
-272.18
-285.08
-295.48
-300.00
-296.38
-283.98
-263.81
-238.01
-209.18
-179.60
-150.66
-122.57
-94.60
-65.45
-33.55
2.65
44.53
92.91
147.40
205.74
263.78
316.05
357.16
383.58
394.71
393.00
382.86
368.79
353.78
338.46
321.61
301.39
276.64
247.39
214.50
178.86
140.64
99.25
54.26
6.16
-43.11
-90.28
-131.78
-164.61
-186.86
-197.68
-197.00
-185.70
-166.10
-142.49
-120.74
-106.84
-104.53
-113.43
-128.97
-144.31
-153.45
-153.91
-147.70
-140.28
-138.16
-146.34
-166.71
-197.80
-235.27
-273.12
-304.90
-324.85
-328.90
-315.48
-285.55
-242.21
-189.79
-132.65
-74.39
-17.39
37.26
89.43
139.36
187.13
232.31
273.90
310.66
341.47
365.54
382.44
392.04
394.45
390.09
379.83
365.11
347.67
329.19
310.76
292.58
273.92
253.37
229.40
200.85
167.37
129.53
88.52
45.77
2.46
-40.47
-82.05
-120.87
-155.09
-182.79
-202.63
-214.52
-219.63
-219.89
-217.18
-212.69
-206.82
-199.53
-190.82
-180.96
-170.37
-159.34
-147.89
-135.84
-123.20
-110.41
-98.23
-87.56
-79.01
-72.66
-68.04
-64.37
-60.94
-57.56
-54.82
-53.88
-55.82
-60.91
-68.04
-74.89
-78.81
-77.93
-71.94
-62.13
-50.52
-38.89
-28.16
-18.53
-10.11
-3.33
1.23
3.38
3.83
4.22
6.48
12.11
21.63
34.49
49.48
65.04
79.50
91.21
98.72
101.17
98.56
91.84
82.57
72.38
62.50
53.66
46.29
40.86
37.89
37.79
40.45
45.06
50.21
54.30
56.21
55.62
53.02
49.37
45.72
42.88
41.37
41.43
43.05
45.91
49.34
52.36
53.84
52.88
49.06
42.52
33.94
24.23
14.32
5.03
-3.04
-9.54
-14.48
-18.30
-21.82
-26.02
-31.56
-38.37
-45.44
-51.09
-53.40
-51.09
-44.01
-33.31
-21.08
-9.66
-0.92
4.23
5.81
4.57
1.55
-2.23
-5.94
-8.89
-10.61
-10.82
-9.61
-7.52
-5.36
-3.99
-3.91
-5.03
-6.71
-8.03
-8.13
-6.55
-3.31
1.18
6.27
11.20
15.28
17.95
18.81
17.68
14.64
9.91
3.88
-3.02
-10.34
-17.59
-24.28
-29.93
-34.09
-36.44
-36.74
-34.91
-31.07
-25.67
-19.48
-13.66
-9.54
-8.33
-10.76
-16.61
-24.41
-31.41
-34.16
-29.46
-15.60
6.74
34.48
62.97
87.46
104.54
112.85
113.05
107.07
97.15
85.13
72.22
59.19
46.65
35.20
25.43
17.69
11.97
7.73
4.11
0.14
-4.82
-10.83
-17.35
-23.47
-28.41
-31.90
-34.34
-36.49
-39.07
-42.32
-45.85
-48.91
-50.73
-50.94
-49.54
-46.84
-43.00
-37.94
-31.48
-23.66
-15.03
-6.65
0.31
5.07
7.63
8.74
9.47
10.78
13.06
16.08
19.33
22.26
24.61
26.39
27.67
28.42
28.47
27.58
25.65
22.90
19.82
16.96
14.73
13.18
12.09
11.08
9.82
8.20
6.31
4.38
2.63
1.19
0.04
-0.98
-2.16
-3.83
-6.35
-9.90
-14.43
-19.56
-24.54
-28.51
-30.74
-30.94
-29.35
-26.65
-23.72
-21.26
-19.57
-18.47
-17.47
-15.93
-13.34
-9.38
-4.02
2.46
9.48
16.27
22.02
26.20
28.65
29.60
29.47
28.70
27.53
26.00
24.09
21.81
19.35
16.98
14.97
13.43
12.30
11.46
10.78
10.18
9.68
9.35
9.23
9.32
9.49
9.52
9.21
8.45
7.33
6.18
5.43
5.38
6.04
7.01
7.58
7.14
5.42
2.75
-0.00
-1.75
-1.67
0.57
4.62
9.49
13.74
15.83
14.55
9.49
1.24
-8.59
-17.90
-24.76
-28.11
-28.03
-25.51
-21.90
-18.31
-15.34
-13.16
-11.82
-11.53
-12.64
-15.39
-19.62
-24.69
-29.52
-33.05
-34.40
-33.23
-29.76
-24.71
-19.03
-13.71
-9.46
-6.60
-5.01
-4.34
-4.19
-4.37
-4.89
-5.86
-7.27
-8.84
-10.11
-10.68
-10.42
-9.63
-8.85
-8.65
-9.25
-10.49
-11.82
-12.61
-12.36
-10.88
-8.27
-4.89
-1.13
2.70
6.42
10.00
13.47
16.83
19.93
22.53
24.41
25.47
25.83
25.78
25.58
25.33
24.86
23.86
22.06
19.43
16.20
12.74
9.39
6.27
3.37
0.65
-1.83
-3.88
-5.22
-5.67
-5.29
-4.36
-3.28
-2.44
-2.08
-2.28
-3.05
-4.36
-6.17
-8.52
-11.40
-14.77
-18.50
-22.30
-25.81
-28.63
-30.43
-31.02
-30.30
-28.32
-25.29
-21.65
-18.01
-15.01
-13.07
-12.20
-11.89
-11.33
-9.80
-7.03
-3.28
0.85
4.82
8.45
11.87
15.36
18.97
22.46
25.34
27.23
28.03
27.96
27.39
26.58
25.49
23.91
21.65
18.67
15.18
11.43
7.57
3.53
-0.83
-5.58
-10.46
-14.85
-17.95
-19.10
-18.07
-15.25
-11.38
-7.35
-3.92
-1.54
-0.41
-0.51
-1.73
-3.88
-6.77
-10.26
-14.38
-19.23
-24.90
-31.17
-37.37
-42.39
-45.00
-44.42
-40.64
-34.54
-27.55
-21.08
-15.98
-12.31
-9.47
-6.64
-3.22
0.92
5.49
10.02
14.26
18.22
22.14
26.21
30.36
34.15
37.00
38.43
38.31
36.91
34.62
31.70
28.08
23.51
17.76
11.03
4.02
-2.19
-6.54
-8.45
-8.08
-6.35
-4.68
-4.35
-6.10
-9.76
-14.41
-18.68
-21.40
-21.98
-20.57
-17.88
-14.72
-11.64
-8.72
-5.84
-2.90
-0.21
1.52
1.45
-0.97
-5.51
-11.07
-15.99
-18.67
-18.22
-14.83
-9.58
-3.94
0.88
4.41
7.02
9.58
13.13
18.34
25.37
33.75
42.47
50.21
55.65
57.79
56.30
51.57
44.52
36.30
27.98
20.35
13.88
8.75
4.88
1.91
-0.75
-3.79
-7.69
-12.51
-17.77
-22.51
-25.63
-26.27
-24.05
-19.33
-13.13
-6.93
-2.30
-0.49
-1.92
-6.07
-11.58
-16.72
-20.04
-20.85
-19.42
-16.72
-13.89
-11.71
-10.29
-9.14
-7.41
-4.36
0.34
6.44
13.26
19.94
25.67
29.94
32.67
34.14
34.78
35.05
35.19
35.18
34.86
34.08
32.77
30.94
28.56
25.44
21.22
15.50
8.00
-1.19
-11.60
-22.44
-32.87
-42.23
-50.18
-56.82
-62.54
-67.86
-73.22
-78.78
-84.43
-89.89
-94.91
-99.34
-103.23
-106.55
-109.06
-110.23
-109.49
-106.58
-101.68
-95.30
-87.77
-78.82
-67.49
-52.51
-32.82
-8.06
21.46
54.77
90.41
126.33
159.70
187.15
205.41
212.18
206.94
190.92
166.57
136.90
104.91
73.51
45.45
23.09
7.74
-0.84
-4.44
-5.64
-6.60
-8.21
-9.99
-10.85
-10.04
-7.77
-5.09
-3.30
-3.34
-5.45
-9.39
-14.60
-20.12
-24.33
-24.88
-19.08
-4.99
17.36
45.48
74.89
100.71
119.27
128.94
129.98
123.51
110.65
92.19
69.18
43.48
17.99
-4.01
-19.96
-28.88
-31.55
-29.88
-26.02
-21.60
-17.51
-14.10
-11.52
-9.97
-9.79
-11.39
-15.19
-21.61
-30.92
-43.18
-58.13
-75.04
-92.80
-110.06
-125.42
-137.59
-145.57
-148.67
-146.68
-139.97
-129.57
-117.01
-104.03
-92.10
-82.01
-73.86
-67.17
-61.31
-55.74
-50.20
-44.54
-38.57
-32.04
-24.68
-16.42
-7.50
1.53
10.00
17.36
23.26
27.69
30.82
32.93
34.28
35.17
35.78
36.27
36.76
37.33
38.14
39.35
41.22
43.82
47.02
50.46
53.76
56.72
59.36
61.85
64.16
65.90
66.46
65.28
62.23
57.65
52.12
46.07
39.61
32.71
25.68
19.34
14.92
13.46
15.21
19.45
24.76
29.69
33.21
34.82
34.15
30.60
23.31
11.70
-3.97
-22.21
-40.59
-56.56
-68.42
-75.86
-79.99
-82.81
-86.62
-93.46
-104.83
-121.31
-142.15
-164.76
-184.50
-195.49
-192.18
-171.48
-134.31
-85.81
-33.86
13.38
50.02
73.73
85.61
88.80
86.85
82.49
77.39
72.46
68.34
65.56
64.46
64.97
66.63
68.67
70.28
70.91
70.36
68.78
66.48
63.55
59.60
53.78
45.07
32.85
17.45
0.37
-15.95
-28.87
-36.49
-38.18
-34.66
-27.53
-18.52
-8.95
0.39
9.08
16.70
22.69
26.43
27.59
26.35
23.49
20.17
17.39
15.60
14.56
13.50
11.54
7.99
2.48
-5.06
-14.35
-24.73
-35.06
-43.79
-49.45
-51.20
-49.31
-45.10
-40.39
-36.68
-34.52
-33.53
-32.90
-32.13
-31.50
-31.81
-33.81
-37.54
-42.24
-46.84
-50.64
-53.69
-56.52
-59.53
-62.39
-63.95
-62.81
-58.19
-50.36
-40.66
-30.84
-22.32
-15.74
-10.89
-6.90
-2.65
2.94
10.53
19.95
30.08
39.04
44.82
46.08
42.59
35.33
25.98
16.54
8.82
4.36
4.30
9.20
18.74
31.53
45.31
57.53
66.13
70.13
69.79
66.30
61.25
56.11
51.97
49.48
48.81
49.87
52.29
55.50
58.71
60.92
61.11
58.56
53.18
45.64
37.15
28.99
22.03
16.35
11.39
6.34
0.58
-5.92
-12.64
-18.71
-23.25
-25.65
-25.63
-23.25
-18.73
-12.48
-5.08
2.73
10.15
16.44
21.15
24.20
25.84
26.51
26.49
25.81
24.25
21.50
17.50
12.52
7.10
1.77
-3.15
-7.64
-11.77
-15.53
-18.68
-20.91
-22.05
-22.25
-21.94
-21.58
-21.35
-21.07
-20.30
-18.66
-16.11
-13.02
-9.98
-7.52
-5.81
-4.55
-3.19
-1.09
2.11
6.40
11.40
16.41
20.64
23.37
24.12
22.83
19.91
16.24
12.87
10.65
9.91
10.29
10.98
11.12
10.21
8.40
6.22
4.30
2.98
2.14
1.34
0.14
-1.65
-3.90
-6.24
-8.32
-9.99
-11.28
-12.40
-13.47
-14.40
-14.75
-13.82
-10.81
-5.03
3.77
15.30
28.70
42.72
55.98
67.28
75.80
81.15
83.33
82.57
79.18
73.47
65.75
56.37
45.77
34.59
23.58
13.57
5.27
-0.86
-4.76
-6.79
-7.64
-8.15
-9.06
-10.80
-13.35
-16.24
-18.77
-20.23
-20.20
-18.76
-16.44
-14.02
-12.29
-11.70
-12.38
-14.10
-16.47
-19.06
-21.43
-23.14
-23.82
-23.22
-21.38
-18.72
-15.93
-13.84
-13.05
-13.72
-15.50
-17.67
-19.50
-20.47
-20.56
-20.06
-19.47
-19.16
-19.26
-19.62
-19.93
-19.96
-19.60
-19.00
-18.49
-18.41
-19.01
-20.38
-22.41
-24.79
-27.18
-29.32
-31.22
-33.14
-35.42
-38.22
-41.23
-43.64
-44.31
-42.26
-37.20
-29.74
-21.30
-13.61
-8.13
-5.59
-5.91
-8.43
-12.27
-16.67
-21.08
-25.23
-29.01
-32.50
-35.85
-39.25
-42.77
-46.33
-49.60
-52.11
-53.47
-53.49
-52.35
-50.50
-48.53
-46.84
-45.45
-43.89
-41.25
-36.50
-28.80
-17.77
-3.60
13.10
31.29
49.79
67.29
82.62
94.85
103.47
108.44
110.03
108.63
104.54
97.95
89.14
78.64
67.34
56.27
46.30
37.85
30.83
24.78
19.20
13.77
8.45
3.43
-1.03
-4.74
-7.65
-9.77
-11.22
-12.10
-12.51
-12.48
-11.87
-10.42
-7.73
-3.47
2.37
9.28
16.19
21.73
24.76
24.70
21.83
17.00
11.25
5.34
-0.41
-5.90
-10.95
-15.11
-17.74
-18.36
-17.04
-14.44
-11.53
-9.10
-7.40
-6.07
-4.49
-2.22
0.73
3.91
6.75
8.87
10.35
11.57
12.97
14.66
16.30
17.16
16.51
13.92
9.62
4.38
-0.73
-4.79
-7.34
-8.43
-8.48
-7.95
-7.15
-6.25
-5.32
-4.43
-3.68
-3.10
-2.60
-2.09
-1.58
-1.32
-1.83
-3.57
-6.71
-10.98
-15.72
-20.14
-23.63
-25.91
-27.10
-27.53
-27.68
-28.08
-29.24
-31.52
-35.04
-39.51
-44.28
-48.54
-51.55
-52.92
-52.74
-51.37
-49.20
-46.46
-43.09
-38.86
-33.61
-27.37
-20.37
-12.98
-5.53
1.80
8.91
15.77
22.35
28.54
34.21
39.19
43.32
46.42
48.39
49.18
48.96
48.09
47.10
46.52
46.67
47.52
48.73
49.72
49.94
49.10
47.22
44.50
41.21
37.45
33.15
28.20
22.68
17.05
12.09
8.71
7.68
9.48
14.26
21.87
32.03
44.34
58.28
73.24
88.51
103.47
117.62
130.59
142.19
152.45
161.64
170.40
179.51
189.68
201.18
213.62
225.92
236.59
244.14
247.34
245.54
238.72
227.52
213.24
197.62
182.47
169.34
159.18
152.27
148.38
147.06
147.77
149.99
153.06
156.10
158.02
157.70
154.26
147.33
137.15
124.33
109.63
93.53
76.01
56.54
34.49
9.41
-18.39
-47.81
-77.19
-104.81
-129.66
-151.74
-172.18
-192.73
-215.04
-239.94
-267.06
-295.28
-323.20
-349.93
-375.52
-400.93
-427.70
-457.76
-493.23
-535.95
-586.51
-642.90
-699.75
-748.90
-781.53
-791.33
-776.95
-742.48
-695.62
-644.51
-594.83
-548.81
-506.04
-465.35
-426.34
-389.57
-355.83
-325.00
-295.80
-266.41
-235.52
-203.16
-170.69
-140.37
-114.09
-92.54
-74.97
-59.43
-43.75
-26.41
-7.16
13.05
32.58
50.05
65.04
78.34
91.63
106.78
125.02
146.45
170.13
194.49
218.06
240.03
260.41
279.92
299.67
320.87
344.49
370.83
398.95
426.22
448.60
461.49
461.32
446.95
420.30
385.60
347.90
311.39
278.43
249.67
224.83
203.56
185.77
171.38
159.87
149.98
140.09
128.82
115.67
101.13
86.44
72.97
61.66
52.84
46.26
41.40
37.72
34.82
32.41
30.26
28.30
26.60
25.48
25.37
26.41
28.20
29.73
29.68
27.07
21.82
14.83
7.69
1.93
-1.62
-3.06
-3.12
-2.60
-1.99
-1.40
-0.82
-0.46
-0.78
-2.21
-4.75
-7.82
-10.48
-11.96
-12.17
-11.80
-11.95
-13.64
-17.36
-22.96
-29.81
-36.99
-43.48
-48.26
-50.36
-49.13
-44.59
-37.60
-29.82
-23.21
-19.37
-18.95
-21.45
-25.53
-29.57
-32.25
-32.91
-31.54
-28.62
-24.81
-20.76
-17.07
-14.21
-12.60
-12.46
-13.74
-15.98
-18.40
-19.90
-19.36
-15.89
-9.26
-0.14
9.88
18.66
24.22
25.48
22.72
17.41
11.71
7.58
6.15
7.52
10.92
15.01
18.30
19.46
17.71
13.11
6.79
0.78
-2.60
-1.62
4.16
13.70
24.94
35.58
43.76
48.34
48.80
45.15
37.95
28.41
18.39
9.94
4.62
2.92
4.20
7.37
11.61
17.03
24.49
34.97
48.77
65.22
82.90
100.19
115.72
128.43
137.34
141.44
139.86
132.21
119.02
101.86
82.97
64.66
48.60
35.52
25.22
17.02
10.17
4.20
-1.23
-6.55
-12.57
-20.41
-31.09
-44.96
-61.33
-78.53
-94.53
-107.60
-116.87
-122.22
-124.05
-122.71
-118.36
-111.03
-100.89
-88.50
-74.78
-60.81
-47.58
-35.95
-26.71
-20.72
-18.82
-21.50
-28.41
-38.13
-48.30
-56.23
-59.76
-57.88
-51.02
-40.62
-28.48
-16.01
-3.96
7.47
18.31
28.51
37.83
46.11
53.45
60.33
67.40
75.12
83.49
91.99
99.77
106.00
110.18
112.19
112.26
110.77
108.11
104.51
99.89
93.92
86.01
75.67
62.81
48.01
32.51
17.93
5.67
-3.59
-10.20
-15.30
-20.36
-26.56
-34.24
-42.78
-50.80
-56.82
-59.84
-59.85
-57.88
-55.72
-55.26
-57.88
-63.89
-72.37
-81.38
-88.53
-91.68
-89.58
-82.24
-70.86
-57.45
-44.10
-32.50
-23.64
-17.83
-14.87
-14.16
-14.78
-15.50
-14.98
-12.17
-6.76
0.55
8.15
13.95
16.09
13.56
6.61
-3.18
-13.37
-21.28
-24.87
-23.37
-17.56
-9.48
-1.58
4.14
6.83
6.96
5.87
5.18
6.23
9.77
15.97
24.46
34.29
43.88
51.26
54.61
52.91
46.41
36.66
25.83
15.91
8.01
2.13
-2.39
-6.33
-10.08
-13.49
-16.20
-18.04
-19.23
-20.38
-22.17
-24.98
-28.72
-32.92
-36.92
-40.13
-42.26
-43.25
-43.29
-42.65
-41.55
-40.10
-38.30
-36.09
-33.32
-29.97
-26.10
-21.93
-17.72
-13.68
-9.92
-6.41
-3.11
0.11
3.40
6.98
11.07
15.68
20.48
24.79
27.73
28.53
26.87
23.10
18.14
13.36
10.16
9.63
12.16
17.19
23.22
28.24
30.30
28.34
22.59
14.44
5.85
-1.45
-6.57
-9.62
-11.35
-12.57
-13.73
-14.82
-15.48
-15.37
-14.35
-12.63
-10.69
-9.09
-8.28
-8.35
-9.07
-10.01
-10.81
-11.39
-12.00
-13.02
-14.69
-16.80
-18.74
-19.71
-19.07
-16.62
-12.62
-7.60
-2.07
3.62
9.41
15.40
21.76
28.57
35.80
43.37
51.19
59.22
67.39
75.56
83.53
91.14
98.41
105.61
113.15
121.25
129.73
137.78
144.22
147.80
147.74
143.97
137.21
128.75
120.18
113.04
108.53
107.19
108.61
111.37
113.16
111.29
103.44
88.32
66.18
38.81
9.16
-19.53
-44.61
-64.75
-80.01
-91.37
-99.96
-106.38
-110.51
-111.93
-110.67
-107.77
-105.19
-105.02
-108.46
-115.18
-123.59
-131.78
-138.64
-144.45
-150.62
-159.04
-171.35
-188.34
-209.68
-233.57
-256.91
-275.71
-286.12
-285.79
-274.72
-255.24
-230.92
-205.03
-179.47
-154.77
-130.86
-107.81
-86.08
-66.21
-48.53
-33.31
-21.31
-14.30
-14.52
-23.19
-38.83
-56.86
-70.78
-74.85
-66.63
-47.98
-23.97
-0.23
19.62
35.09
48.03
60.87
74.89
89.72
104.08
116.97
128.48
139.48
150.57
161.28
170.24
176.23
179.34
181.46
185.75
195.09
210.57
230.79
252.31
270.93
283.07
286.70
281.43
268.14
248.37
224.05
197.38
170.99
147.65
129.75
118.61
113.91
113.69
114.88
114.16
108.99
98.13
81.54
60.16
35.25
8.02
-20.56
-49.85
-79.68
-110.46
-142.84
-177.05
-212.05
-245.09
-272.29
-290.13
-297.02
-294.07
-284.41
-271.57
-258.00
-244.57
-231.44
-219.25
-209.53
-203.89
-202.65
-203.89
-203.84
-198.28
-184.06
-160.01
-126.84
-86.54
-42.13
2.64
43.53
76.60
99.29
111.28
114.33
111.42
105.58
99.14
93.74
90.69
91.21
95.95
104.46
114.89
124.55
130.98
132.93
130.78
126.07
120.53
115.32
110.73
106.50
102.26
97.94
93.68
89.56
85.24
80.00
73.00
63.87
53.03
41.61
31.00
22.19
15.37
9.92
4.82
-0.79
-7.25
-14.31
-21.36
-27.83
-33.41
-38.04
-41.81
-44.73
-46.66
-47.42
-47.08
-46.25
-46.21
-48.59
-54.76
-65.05
-78.12
-91.02
-99.93
-101.48
-94.06
-78.47
-57.60
-35.25
-14.66
2.40
15.76
26.13
34.16
39.88
42.79
42.53
39.48
35.02
31.11
29.39
30.55
34.02
38.39
42.09
44.07
44.22
43.32
42.60
43.15
45.40
48.96
52.79
55.62
56.45
54.85
50.90
45.07
37.91
29.92
21.54
13.21
5.34
-1.72
-7.73
-12.64
-16.47
-19.15
-20.56
-20.54
-19.12
-16.67
-13.93
-11.80
-11.08
-12.13
-14.74
-18.11
-21.18
-23.00
-23.15
-21.90
-20.22
-19.36
-20.38
-23.72
-28.93
-34.83
-39.95
-43.01
-43.32
-40.99
-36.64
-31.15
-25.31
-19.64
-14.39
-9.71
-5.67
-2.22
0.88
4.18
8.45
14.35
22.08
31.09
40.16
47.71
52.19
52.56
48.48
40.45
29.62
17.67
6.45
-2.37
-7.62
-8.86
-6.43
-1.22
5.65
12.96
19.53
24.18
25.87
23.86
18.01
9.03
-1.74
-12.83
-23.34
-33.39
-43.94
-56.04
-69.93
-84.34
-96.78
-104.40
-105.16
-98.73
-86.55
-71.22
-55.51
-41.62
-30.72
-23.15
-18.65
-16.58
-16.03
-15.84
-14.95
-12.67
-8.97
-4.39
0.48
5.44
11.09
18.66
29.35
43.58
60.46
77.83
92.94
103.42
108.11
107.32
102.54
95.67
88.33
81.37
75.02
69.22
64.12
60.19
58.06
57.96
59.41
61.28
62.30
61.77
60.07
58.42
58.22
60.14
63.55
66.56
66.81
62.50
53.24
40.34
26.53
15.11
8.91
9.39
16.00
25.95
34.80
37.33
29.13
8.17
-24.09
-62.75
-100.57
-130.28
-146.94
-149.49
-141.25
-128.75
-119.60
-119.77
-131.50
-152.71
-178.30
-202.62
-221.87
-235.19
-244.23
-251.65
-259.35
-267.70
-275.74
-282.28
-286.60
-288.33
-286.84
-280.41
-266.47
-242.66
-208.13
-164.23
-114.18
-61.85
-10.56
37.46
81.38
121.23
157.30
189.67
217.94
241.31
258.94
270.30
275.58
275.83
272.86
268.65
264.74
261.80
259.51
256.94
253.13
247.50
240.04
231.22
221.62
211.82
202.08
191.96
180.04
164.02
141.44
110.82
72.83
30.58
-11.07
-47.15
-74.40
-92.28
-102.74
-108.85
-113.17
-116.82
-119.44
-120.16
-118.54
-115.07
-110.91
-107.15
-104.25
-102.02
-100.03
-98.20
-97.04
-97.31
-99.44
-102.96
-106.58
-108.72
-108.33
-105.35
-100.77
-95.98
-92.02
-89.18
-87.04
-85.00
-82.77
-80.30
-77.48
-73.64
-67.59
-58.17
-45.04
-29.29
-13.04
1.51
13.36
23.34
33.66
46.90
64.87
88.12
116.07
147.39
180.05
211.20
237.09
253.68
257.96
249.12
229.14
202.01
172.22
143.16
116.48
92.38
70.61
51.23
34.77
21.79
12.36
5.91
1.51
-1.56
-3.48
-3.99
-2.61
0.76
5.67
11.07
15.61
18.09
17.87
15.17
11.02
6.95
4.42
4.41
7.14
12.20
18.72
25.75
32.42
38.14
42.69
46.28
49.41
52.58
55.74
57.95
57.36
51.80
39.84
21.81
0.17
-21.34
-39.13
-51.58
-59.77
-67.09
-77.80
-95.33
-121.42
-156.24
-198.89
-247.67
-299.58
-349.35
-389.43
-411.43
-409.01
-380.88
-332.12
-272.63
-213.49
-163.03
-124.55
-96.79
-76.36
-60.42
-47.92
-39.06
-33.71
-30.31
-26.06
-18.23
-5.61
10.89
29.04
46.76
63.54
80.58
99.86
122.48
147.43
171.42
189.92
198.92
196.41
183.11
162.08
137.56
113.61
93.18
77.70
67.39
61.71
59.81
60.83
63.86
68.00
72.23
75.55
77.14
76.61
74.05
69.87
64.57
58.30
50.84
41.72
30.59
17.70
4.00
-8.94
-19.52
-26.68
-30.34
-31.31
-30.90
-30.21
-29.67
-29.00
-27.55
-24.82
-20.87
-16.41
-12.57
-10.53
-11.23
-15.18
-22.41
-32.34
-43.74
-54.81
-63.52
-68.16
-67.86
-62.90
-54.51
-44.42
-34.38
-25.74
-19.34
-15.45
-13.92
-14.17
-15.42
-16.82
-17.67
-17.56
-16.35
-14.00
-10.49
-5.83
-0.22
5.85
11.60
16.34
19.97
23.26
27.87
35.77
48.37
65.79
86.71
108.65
128.76
144.51
154.20
157.08
153.20
143.35
128.92
111.75
93.89
77.14
62.65
50.63
40.49
31.25
21.97
12.12
1.58
-9.48
-20.65
-31.36
-40.80
-48.03
-52.24
-53.00
-50.53
-45.65
-39.59
-33.59
-28.63
-25.39
-24.11
-24.68
-26.55
-28.84
-30.52
-30.73
-29.13
-26.02
-22.15
-18.28
-14.87
-11.84
-8.78
-5.11
-0.36
5.72
13.14
21.56
30.28
38.29
44.52
48.24
49.44
48.88
47.94
48.11
50.52
55.54
62.66
70.36
76.42
78.32
74.00
62.59
44.99
23.71
2.10
-16.76
-31.09
-40.76
-47.01
-51.72
-56.57
-62.53
-69.80
-78.05
-86.84
-95.94
-105.39
-115.28
-125.46
-135.23
-143.41
-148.69
-150.37
-148.78
-145.13
-140.68
-135.65
-128.62
-117.06
-98.65
-72.95
-42.24
-11.23
14.52
30.50
34.86
28.97
16.76
3.51
-5.85
-7.98
-1.87
11.21
28.45
46.43
62.22
73.95
80.90
83.20
81.49
76.73
70.01
62.58
55.49
49.37
44.17
39.34
34.12
28.02
21.07
13.82
6.98
1.16
-3.42
-6.89
-9.70
-12.45
-15.70
-19.76
-24.60
-29.74
-34.29
-37.25
-37.81
-35.73
-31.51
-26.28
-21.36
-17.68
-15.40
-13.74
-11.42
-7.34
-1.18
6.34
13.84
19.88
23.78
25.82
27.13
29.03
32.44
37.53
43.66
49.72
54.45
56.87
56.41
53.10
47.38
40.01
31.78
23.38
15.34
7.96
1.37
-4.71
-11.00
-18.46
-27.75
-38.48
-48.88
-56.15
-57.60
-52.02
-40.55
-26.43
-13.80
-5.96
-4.36
-8.36
-16.15
-25.73
-35.51
-44.32
-50.97
-54.12
-52.57
-45.83
-34.65
-20.88
-6.75
5.97
16.53
25.11
32.30
38.52
43.84
48.14
51.51
54.41
57.54
61.47
66.29
71.44
75.86
78.36
77.89
73.93
66.49
56.37
44.98
34.21
25.99
21.86
22.70
28.65
39.20
53.18
68.97
84.62
98.02
107.22
110.80
108.30
100.35
88.57
74.84
60.97
48.24
37.31
28.40
21.53
16.72
14.09
13.70
15.11
17.81
21.52
26.39
33.13
42.50
54.87
69.88
86.31
101.11
110.77
112.26
104.20
87.52
64.95
39.83
14.72
-9.46
-35.01
-64.86
-100.77
-141.83
-184.52
-224.34
-257.85
-283.86
-303.30
-320.22
-338.50
-360.59
-386.76
-415.56
-444.93
-473.13
-499.02
-509.20
-492.82
-443.75
-364.38
-265.20
-159.91
-60.16
26.94
98.46
154.43
194.66
219.85
231.72
233.09
227.67
219.14
210.31
202.75
197.13
192.12
186.24
178.46
168.80
158.17
147.84
138.77
131.31
125.62
120.79
116.02
110.83
105.26
99.65
94.39
89.62
85.22
81.34
77.96
75.29
73.57
72.87
72.73
72.15
69.96
64.67
55.62
43.00
27.70
10.74
-7.05
-25.38
-44.49
-63.95
-83.92
-104.31
-124.97
-145.45
-164.34
-178.75
-184.57
-177.91
-157.24
-125.02
-87.50
-52.61
-26.94
-13.28
-10.18
-13.57
-19.23
-24.81
-30.12
-36.08
-43.20
-50.80
-57.40
-61.66
-63.15
-62.39
-60.44
-57.72
-53.91
-47.92
-38.50
-24.72
-6.61
14.74
37.41
58.73
76.93
90.95
100.54
106.01
108.14
107.78
105.68
102.45
98.56
94.40
90.07
85.95
81.51
76.60
71.41
66.41
62.21
59.40
58.23
58.29
58.71
58.39
56.69
53.81
50.47
47.77
46.60
47.26
49.54
53.07
57.60
62.57
66.58
67.14
61.99
50.68
35.86
22.63
16.35
19.76
30.88
44.34
53.85
55.31
48.29
35.38
20.11
4.82
-9.84
-24.16
-37.91
-49.83
-58.06
-61.32
-59.83
-55.12
-49.72
-45.98
-45.28
-47.57
-51.71
-55.95
-58.55
-58.36
-55.09
-49.40
-42.48
-35.64
-29.75
-25.57
-23.21
-22.18
-21.45
-19.80
-16.44
-11.24
-4.98
1.21
5.65
7.23
5.96
3.13
0.67
0.34
3.03
8.37
15.46
22.11
26.05
25.55
20.13
11.26
2.78
0.92
12.78
43.96
93.45
154.12
214.62
263.28
291.96
298.23
285.41
257.82
223.11
185.80
149.00
114.73
84.77
60.29
41.12
26.08
13.43
1.90
-14.11
-38.31
-71.38
-110.76
-152.78
-194.79
-235.02
-272.44
-306.08
-341.11
-381.17
-426.95
-475.48
-522.78
-566.85
-607.79
-647.56
-653.69
-609.62
-518.81
-401.25
-276.27
-153.99
-39.56
62.41
146.21
207.83
240.15
248.95
245.37
243.37
255.07
280.84
314.66
346.67
368.26
371.70
356.52
328.05
292.43
255.62
219.73
185.56
154.72
131.22
117.40
114.20
119.49
129.43
140.93
152.81
166.87
184.75
204.04
215.99
210.51
182.86
138.91
94.25
65.99
63.96
85.10
115.04
135.02
131.95
103.87
59.77
14.46
-17.99
-28.94
-16.72
14.03
54.10
92.10
117.22
122.07
104.79
69.25
22.82
-26.80
-74.29
-117.04
-154.13
-184.62
-206.93
-219.87
-224.28
-223.94
-224.54
-231.56
-247.50
-270.59
-295.35
-314.44
-321.09
-310.80
-282.16
-236.84
-179.08
-115.37
-53.77
-2.89
29.62
38.94
24.66
-8.86
-53.39
-98.84
-135.83
-157.91
-163.09
-154.17
-137.83
-122.51
-116.60
-126.61
-155.82
-202.98
-261.73
-320.90
-366.79
-387.31
-376.66
-339.43
-290.41
-249.07
-231.15
-241.36
-271.40
-304.55
-323.90
-318.75
-288.80
-242.07
-189.09
-137.23
-88.39
-40.88
6.90
54.05
99.20
140.51
177.26
210.27
241.74
274.07
308.08
342.09
372.43
397.95
418.69
436.00
451.49
466.77
482.86
499.34
513.67
506.16
463.85
386.60
288.47
187.88
98.33
25.68
-30.11
-72.74
-107.10
-134.74
-156.82
-172.58
-180.61
-179.12
-166.31
-142.22
-110.28
-77.38
-50.17
-38.04
-47.99
-82.87
-139.43
-208.42
-277.10
-333.02
-367.21
-374.93
-357.18
-319.13
-268.55
-213.09
-158.34
-107.56
-62.40
-23.78
8.24
33.96
54.98
73.69
92.87
114.96
141.30
171.71
204.48
236.56
263.77
281.73
286.83
277.94
257.51
231.28
206.44
188.80
180.51
179.49
180.82
179.22
171.44
157.39
139.49
120.99
104.34
90.14
77.50
64.98
51.39
36.37
20.11
2.85
-15.69
-36.19
-59.07
-83.44
-106.43
-123.65
-130.60
-124.77
-107.12
-82.04
-55.47
-32.19
-13.82
1.29
16.19
32.78
50.14
65.19
74.89
78.58
78.76
79.88
85.80
97.68
113.85
130.98
146.18
158.33
168.01
176.16
182.61
185.52
182.39
171.78
154.82
135.41
118.90
109.57
108.40
112.54
116.70
115.82
107.57
93.15
76.49
61.99
52.64
49.38
51.41
57.14
64.62
71.72
76.05
75.30
67.74
52.69
30.47
1.75
-33.08
-74.04
-120.82
-171.48
-221.46
-264.03
-292.09
-300.79
-289.59
-262.81
-228.16
-193.90
-166.04
-146.97
-135.78
-129.65
-125.37
-120.25
-111.76
-97.54
-75.61
-45.42
-8.92
29.31
63.17
86.83
96.91
93.47
79.67
60.84
43.10
31.87
30.69
40.22
57.85
78.39
95.92
105.83
106.47
99.54
88.86
78.59
71.50
68.15
67.55
68.11
68.43
67.48
64.38
57.86
47.05
32.21
15.35
0.15
-9.32
-10.53
-5.29
2.17
6.31
4.24
-2.36
-8.92
-11.39
-8.52
-2.46
3.50
7.21
7.87
5.78
1.16
-6.88
-20.50
-40.83
-68.33
-101.92
-138.53
-173.47
-201.29
-217.19
-218.62
-205.96
-182.16
-151.79
-119.30
-87.91
-59.48
-35.13
-16.18
-4.49
-1.81
-8.36
-21.99
-38.06
-50.64
-54.59
-47.24
-29.20
-4.02
23.26
47.65
65.38
74.64
75.62
70.12
61.12
52.14
46.47
46.41
52.66
64.17
78.61
93.23
105.79
115.33
122.32
128.25
134.78
142.86
152.35
162.07
170.55
176.78
180.66
182.89
184.24
185.16
185.46
184.97
184.04
183.63
184.73
187.35
190.23
191.66
191.17
190.60
193.72
204.20
222.83
246.10
267.29
279.34
278.16
264.20
241.55
215.42
189.68
165.84
143.73
123.16
104.96
91.02
83.46
83.31
90.08
101.95
116.52
131.61
145.68
157.74
166.98
172.33
172.29
165.17
149.61
125.15
92.56
53.78
11.40
-31.87
-73.75
-112.61
-147.36
-177.27
-201.71
-220.11
-232.27
-238.52
-239.95
-238.14
-234.82
-231.27
-228.05
-225.08
-222.02
-218.90
-216.62
-217.03
-222.34
-234.38
-253.77
-279.59
-309.89
-342.33
-375.19
-407.91
-441.02
-475.71
-513.34
-555.18
-601.96
-653.14
-706.02
-755.18
-793.18
-812.40
-807.78
-778.65
-729.04
-665.96
-596.62
-526.23
-457.28
-390.31
-325.06
-261.38
-198.96
-136.63
-72.08
-2.21
75.92
164.09
262.25
368.03
476.15
578.37
664.41
723.89
749.09
737.24
691.26
618.69
529.20
432.09
334.63
241.83
156.91
81.72
16.81
-38.89
-88.31
-136.02
-186.79
-243.52
-305.07
-365.41
-414.56
-442.26
-442.59
-417.27
-375.79
-331.56
-296.02
-273.74
-261.44
-251.05
-235.04
-210.70
-180.93
-151.89
-128.97
-114.07
-105.50
-100.01
-95.26
-91.01
-88.83
-90.30
-95.51
-102.59
-108.42
-110.01
-105.81
-96.27
-83.45
-69.92
-57.72
-47.51
-38.65
-29.84
-19.95
-8.85
2.36
11.80
17.51
18.18
13.68
4.96
-6.32
-18.39
-29.86
-39.93
-48.37
-55.22
-60.65
-64.73
-67.50
-69.07
-69.70
-69.91
-70.28
-71.37
-73.58
-77.00
-81.42
-86.46
-91.65
-96.57
-100.90
-104.46
-107.11
-108.81
-109.58
-109.42
-108.38
-106.54
-104.00
-100.89
-97.34
-93.40
-89.09
-84.41
-79.39
-74.11
-68.77
-63.66
-59.09
-55.33
-52.50
-50.51
-49.09
-47.86
-46.47
-44.70
-42.48
-39.45
-36.12
-32.37
-27.81
-21.80
-13.63
-2.79
10.81
26.72
44.64
63.28
82.20
101.49
121.78
143.75
167.69
193.05
218.46
243.17
264.47
281.81
295.97
308.81
322.50
338.47
356.65
375.48
395.76
412.48
425.32
435.68
446.13
459.30
477.06
500.19
528.38
566.35
604.56
638.29
661.23
667.08
651.54
613.98
557.83
489.01
423.13
353.22
280.11
203.92
126.89
55.15
-2.11
-35.96
-41.62
-7.98
44.06
104.93
166.74
226.02
284.02
344.42
410.20
400.48
409.86
415.94
410.84
389.28
350.34
297.48
236.71
173.98
112.58
65.69
18.86
-27.50
-69.66
-100.71
-113.34
-102.91
-69.63
-18.32
53.60
128.20
198.62
258.48
302.01
325.37
328.39
315.68
295.34
281.74
272.87
267.76
261.33
248.01
225.23
194.53
159.97
125.15
94.22
62.84
29.54
-5.54
-40.14
-71.07
-96.18
-115.76
-132.43
-148.53
-168.01
-191.50
-217.42
-242.99
-265.74
-284.81
-301.37
-318.11
-337.93
-362.58
-391.98
-424.45
-457.55
-489.36
-519.19
-547.85
-577.36
-610.33
-649.32
-695.65
-748.29
-802.91
-852.02
-886.62
-899.00
-885.58
-848.29
-793.81
-730.88
-667.21
-607.37
-552.67
-502.52
-456.18
-413.68
-375.70
-342.56
-313.64
-287.36
-261.99
-236.55
-211.20
-187.11
-165.75
-148.06
-133.92
-122.22
-111.27
-99.52
-86.13
-71.18
-55.56
-40.44
-26.73
-14.79
-4.34
5.29
14.80
24.59
34.70
44.81
54.56
63.69
72.24
80.49
88.83
97.61
107.00
116.87
126.83
136.30
144.61
151.16
155.57
157.76
158.05
157.10
155.74
154.76
154.73
155.81
157.83
160.48
163.55
167.18
171.85
178.25
186.96
198.14
211.42
226.05
241.15
256.08
270.66
285.10
299.94
315.88
333.80
354.52
378.38
404.61
430.74
452.76
466.10
467.18
454.77
430.48
397.96
361.46
324.36
288.46
254.40
222.36
192.76
166.26
143.20
123.12
104.66
86.15
66.42
45.50
24.57
5.52
-9.96
-21.05
-28.07
-32.14
-34.55
-36.17
-37.08
-36.79
-34.72
-30.66
-24.91
-18.23
-11.52
-5.54
-0.82
2.47
4.57
6.29
9.06
14.61
24.37
38.70
56.43
75.00
91.19
102.22
106.60
104.42
97.03
86.41
74.52
62.88
52.50
43.86
37.09
31.95
28.00
24.63
21.30
17.67
13.63
9.26
4.76
0.26
-4.23
-8.91
-14.14
-20.36
-27.93
-37.06
-47.83
-60.10
-73.44
-87.09
-99.86
-110.31
-116.97
-118.84
-115.65
-107.99
-97.04
-84.13
-70.45
-56.80
-43.78
-31.95
-22.01
-14.53
-9.72
-7.17
-5.98
-5.11
-3.85
-1.98
0.22
2.33
4.07
5.51
6.89
8.56
10.70
13.35
16.33
19.32
21.89
23.52
23.75
22.33
19.40
15.43
11.12
7.19
4.15
2.29
1.69
2.25
3.76
5.85
8.02
9.81
11.00
11.64
12.03
12.53
13.30
14.15
14.59
14.02
12.12
8.96
5.11
1.36
-1.54
-3.15
-3.38
-2.47
-0.79
1.24
3.25
4.95
6.12
6.64
6.57
6.11
5.52
4.98
4.42
3.50
1.67
-1.58
-6.53
-13.01
-20.35
-27.64
-33.96
-38.69
-41.72
-43.33
-44.00
-44.03
-43.44
-41.97
-39.27
-35.20
-30.10
-24.70
-19.94
-16.70
-15.50
-16.48
-19.39
-23.69
-28.57
-33.05
-36.13
-37.14
-36.06
-33.72
-31.62
-31.26
-33.39
-37.57
-42.22
-45.28
-45.05
-40.81
-32.99
-22.82
-11.71
-0.69
9.73
19.59
29.07
38.20
46.69
53.94
59.26
62.32
63.32
63.04
62.56
62.71
63.63
64.75
65.10
63.91
60.92
56.51
51.25
45.59
39.57
32.99
25.63
17.58
9.21
0.99
-6.76
-13.98
-20.74
-27.02
-32.60
-37.03
-39.92
-41.12
-40.82
-39.45
-37.54
-35.57
-33.78
-32.23
-30.82
-29.31
-27.53
-25.51
-23.59
-22.33
-22.38
-24.10
-27.30
-31.20
-34.67
-36.64
-36.49
-34.19
-30.24
-25.44
-20.59
-16.28
-12.77
-10.01
-7.67
-5.39
-2.92
-0.45
1.38
1.55
-0.86
-6.17
-13.71
-21.99
-29.11
-33.62
-35.00
-33.81
-31.37
-29.10
-28.02
-28.29
-29.09
-28.73
-25.22
-16.91
-3.44
13.83
31.96
47.37
57.13
59.93
56.38
48.39
38.18
27.52
17.51
8.86
2.15
-2.04
-3.48
-2.62
-0.62
1.08
1.41
0.13
-2.10
-4.11
-4.82
-3.70
-0.92
2.76
6.32
8.85
9.82
9.27
7.69
5.93
4.85
5.07
6.65
9.00
11.05
11.53
9.53
4.96
-1.17
-7.02
-10.51
-10.14
-5.64
1.78
9.89
16.40
19.88
20.46
19.73
19.88
22.58
27.93
34.25
38.63
38.17
31.21
18.10
1.06
-16.58
-31.54
-41.74
-46.96
-49.09
-51.99
-60.81
-80.56
-114.01
-159.46
-209.83
-253.77
-279.15
-277.56
-247.84
-196.91
-137.07
-81.24
-38.32
-10.97
3.50
10.15
13.23
14.70
14.72
13.37
11.96
13.05
19.16
31.12
47.34
64.10
77.35
84.46
85.24
81.69
76.86
73.37
72.40
73.51
75.10
75.40
73.19
68.33
61.65
54.59
48.55
44.46
42.44
41.84
41.64
40.92
39.39
37.56
36.65
38.09
42.96
51.52
62.94
75.38
86.33
93.26
94.22
88.50
76.79
61.02
43.72
27.27
13.25
2.10
-6.71
-14.21
-21.38
-28.80
-36.54
-44.26
-51.48
-57.61
-62.12
-64.58
-64.77
-62.70
-58.73
-53.43
-47.47
-41.36
-35.30
-29.15
-22.68
-15.84
-8.96
-2.78
1.85
4.39
4.95
4.35
3.90
4.77
7.47
11.45
15.23
16.95
15.17
9.50
0.76
-9.23
-18.26
-24.46
-26.76
-25.20
-21.18
-17.47
-17.85
-25.85
-43.05
-67.66
-94.43
-116.18
-126.61
-122.79
-106.16
-81.51
-54.61
-29.85
-9.27
7.00
19.44
28.15
32.83
33.47
30.95
27.04
23.63
21.80
21.50
21.73
21.27
19.37
16.17
12.50
9.49
8.01
8.41
10.51
13.76
17.50
21.14
24.35
27.03
29.28
31.28
33.10
34.59
35.44
35.20
33.54
30.46
26.27
21.43
16.41
11.47
6.69
2.15
-1.98
-5.44
-7.97
-9.49
-10.19
-10.45
-10.63
-10.98
-11.58
-12.47
-13.68
-15.31
-17.41
-19.91
-22.63
-25.38
-28.08
-30.72
-33.20
-35.25
-36.39
-36.15
-34.34
-31.22
-27.39
-23.63
-20.50
-18.18
-16.53
-15.17
-13.72
-11.83
-9.28
-5.95
-1.81
3.04
8.36
13.77
18.84
23.10
26.18
27.89
28.30
27.72
26.63
25.48
24.46
23.52
22.34
20.62
18.15
14.98
11.34
7.58
4.08
1.09
-1.17
-2.71
-3.64
-4.26
-4.88
-5.74
-6.90
-8.29
-9.80
-11.54
-13.80
-16.98
-21.20
-26.08
-30.70
-34.05
-35.47
-35.10
-33.84
-32.89
-33.18
-34.94
-37.66
-40.40
-42.28
-42.74
-41.67
-39.25
-35.68
-31.16
-25.85
-20.01
-14.05
-8.37
-3.28
1.23
5.51
10.14
15.65
22.23
29.59
37.03
43.76
49.30
53.65
57.25
60.64
64.08
67.40
70.07
71.46
71.15
69.08
65.49
60.78
55.33
49.43
43.25
36.89
30.39
23.74
16.90
9.81
2.49
-4.98
-12.44
-19.61
-26.17
-31.79
-36.23
-39.44
-41.60
-43.07
-44.26
-45.39
-46.42
-47.08
-47.15
-46.59
-45.65
-44.68
-43.90
-43.19
-42.28
-40.86
-38.85
-36.41
-33.76
-30.94
-27.83
-24.16
-19.82
-14.92
-9.78
-4.74
0.05
4.65
9.14
13.47
17.32
20.19
21.62
21.42
19.78
17.24
14.46
12.00
10.08
8.56
7.07
5.25
2.97
0.41
-2.01
-3.92
-5.15
-5.83
-6.21
-6.60
-7.17
-7.96
-8.96
-10.12
-11.42
-12.78
-14.10
-15.25
-16.19
-17.00
-17.84
-18.95
-20.45
-22.32
-24.37
-26.30
-27.80
-28.66
-28.76
-28.02
-26.39
-23.71
-19.82
-14.54
-7.82
0.12
8.82
17.55
25.56
32.20
37.09
40.12
41.44
41.38
40.26
38.42
36.09
33.44
30.57
27.59
24.61
21.77
19.26
17.22
15.72
14.68
13.92
13.23
12.45
11.52
10.49
9.45
8.44
7.41
6.29
5.03
3.71
2.54
1.71
1.32
1.25
1.19
0.79
-0.20
-1.74
-3.59
-5.40
-6.96
-8.31
-9.71
-11.44
-13.62
-16.07
-18.28
-19.66
-19.78
-18.45
-15.80
-12.11
-7.71
-2.85
2.32
7.65
13.07
18.47
23.87
29.31
34.91
40.76
46.81
52.90
58.76
64.22
69.21
73.94
78.76
84.07
90.15
97.07
104.58
112.24
119.56
126.22
132.26
138.13
144.48
151.93
160.73
170.66
181.19
191.69
201.75
211.23
220.30
229.26
238.58
248.76
260.22
272.94
286.04
297.66
305.37
306.96
301.37
289.28
272.80
254.75
237.54
222.52
209.90
199.20
189.82
181.37
173.72
166.71
159.97
152.97
145.23
136.52
127.00
117.07
107.15
97.50
88.02
78.42
68.33
57.58
46.27
34.77
23.54
12.92
3.03
-6.30
-15.31
-24.15
-32.74
-40.83
-48.16
-54.68
-60.68
-66.74
-73.50
-81.25
-89.81
-98.51
-106.52
-113.29
-118.88
-124.04
-129.88
-137.41
-147.03
-158.36
-170.38
-182.12
-192.99
-203.09
-212.98
-223.28
-234.42
-246.81
-261.30
-279.13
-300.99
-325.46
-348.00
-361.52
-359.33
-338.89
-303.98
-263.95
-229.67
-208.69
-202.25
-205.90
-213.19
-219.89
-226.17
-235.63
-252.41
-278.37
-312.44
-352.22
-396.14
-443.84
-494.77
-545.74
-589.19
-614.40
-611.57
-577.05
-516.68
-444.79
-378.80
-331.80
-306.95
-296.76
-287.56
-266.48
-227.26
-171.85
-107.59
-42.17
20.09
79.24
137.71
197.39
257.93
317.45
374.76
430.91
488.63
549.73
612.43
669.95
712.13
729.37
716.82
676.69
617.29
549.50
482.61
421.79
368.06
320.22
277.00
238.03
203.33
172.16
142.52
111.65
77.30
38.59
-3.87
-48.56
-94.11
-139.83
-185.60
-231.49
-277.11
-321.66
-364.34
-404.80
-443.47
-481.81
-522.01
-566.49
-616.42
-670.21
-722.70
-765.83
-791.15
-793.14
-771.73
-732.63
-685.12
-638.46
-598.77
-567.85
-544.20
-525.17
-508.68
-493.84
-480.20
-466.75
-451.53
-432.16
-406.81
-375.10
-338.16
-298.25
-257.77
-218.38
-180.61
-144.07
-107.94
-71.60
-35.12
0.76
34.90
66.28
94.32
119.05
140.84
160.07
176.77
190.50
200.50
205.96
206.45
202.11
193.68
182.36
169.55
156.60
144.58
134.29
126.11
120.12
116.08
113.60
112.17
111.35
110.92
110.86
111.45
113.05
115.89
119.91
124.78
130.05
135.40
140.92
147.12
154.85
164.92
177.74
193.10
210.23
228.11
245.83
262.99
279.77
296.81
315.07
335.64
359.52
387.19
417.97
449.48
477.67
497.74
505.61
499.53
480.64
452.59
419.96
386.59
354.59
324.37
295.52
267.81
241.69
218.01
197.36
179.62
163.90
148.96
133.84
118.14
102.19
86.82
73.00
61.52
52.70
46.24
41.43
37.42
33.76
30.62
28.68
28.57
30.27
32.74
34.06
32.16
25.61
14.24
-0.77
-17.14
-32.20
-43.41
-48.96
-48.28
-42.09
-32.41
-22.17
-14.70
-13.13
-19.49
-33.86
-53.74
-74.33
-89.69
-94.82
-87.57
-69.54
-45.41
-20.96
-0.69
13.40
21.73
25.88
27.19
26.16
22.90
17.82
12.21
7.86
6.24
7.75
11.48
15.61
18.22
18.15
15.34
10.73
5.74
1.61
-0.94
-1.90
-1.73
-1.02
-0.14
0.82
1.99
3.47
5.14
6.60
7.28
6.68
4.65
1.54
-1.87
-4.66
-6.12
-5.99
-4.49
-2.21
0.16
2.09
3.27
3.66
3.34
2.41
0.90
-1.14
-3.67
-6.53
-9.51
-12.29
-14.59
-16.25
-17.20
-17.52
-17.29
-16.49
-14.94
-12.45
-8.97
-4.81
-0.65
2.63
4.34
4.28
2.95
1.29
0.39
0.96
3.16
6.59
10.59
14.39
17.19
18.24
17.12
14.04
10.16
7.37
7.59
11.73
19.07
27.21
33.16
34.54
30.42
21.34
8.73
-5.81
-20.73
-34.42
-45.06
-50.81
-50.37
-43.57
-31.57
-16.45
-0.62
13.58
24.24
29.80
29.31
22.77
11.15
-4.05
-21.85
-42.42
-66.49
-93.67
-121.09
-143.41
-154.56
-150.51
-131.06
-99.54
-60.66
-17.93
27.41
75.38
125.00
172.77
212.92
239.78
250.42
245.98
230.86
210.37
188.37
166.33
143.86
120.21
96.00
74.02
58.59
54.02
62.35
81.87
107.00
129.92
143.41
143.74
132.12
113.90
95.96
83.53
78.05
76.87
74.95
67.19
50.37
23.81
-11.14
-52.08
-96.28
-141.04
-183.63
-221.43
-252.46
-276.30
-294.63
-311.10
-330.09
-354.82
-385.33
-417.35
-443.24
-454.66
-446.00
-416.97
-372.82
-322.15
-273.22
-230.94
-195.50
-163.49
-130.57
-93.78
-52.69
-9.25
33.47
72.61
106.29
134.37
158.78
182.95
210.80
244.60
283.21
321.51
352.03
366.99
361.76
336.55
295.42
244.24
188.31
131.33
75.96
25.70
-15.75
-44.42
-57.24
-54.53
-40.04
-19.95
-1.09
10.79
12.46
1.03
-24.57
-62.23
-107.38
-153.16
-192.68
-221.76
-240.78
-253.40
-266.76
-286.65
-306.79
-317.30
-308.30
-277.08
-231.56
-192.97
-168.95
-158.46
-153.83
-144.43
-120.15
-78.18
-23.18
34.85
85.28
122.33
144.60
155.93
163.20
172.17
185.60
203.14
222.80
242.82
263.28
283.75
303.42
320.99
334.09
339.73
335.08
318.35
289.86
252.83
211.55
170.52
133.24
101.07
73.78
49.89
27.60
5.34
-18.01
-43.75
-72.96
-105.69
-140.61
-174.67
-201.86
-215.30
-211.05
-191.38
-164.30
-138.51
-118.24
-104.52
-89.82
-65.65
-25.81
31.55
103.38
182.72
259.08
320.41
356.69
363.42
342.20
299.84
245.35
186.76
128.93
73.70
22.20
-24.91
-66.85
-103.15
-134.08
-160.99
-185.80
-210.49
-235.29
-256.38
-269.07
-270.10
-258.57
-236.38
-207.80
-178.04
-152.75
-135.29
-123.07
-111.85
-98.96
-83.01
-64.32
-44.49
-25.57
-11.16
-4.26
-3.30
-7.06
-17.07
-34.46
-58.95
-88.30
-107.64
-104.57
-94.41
-86.83
-79.35
-73.62
-70.31
-67.86
-62.36
-49.44
-28.77
-3.83
22.62
46.34
61.21
64.67
57.88
44.22
26.50
3.78
-26.78
-64.22
-96.66
-112.42
-103.48
-71.07
-24.32
25.48
68.96
101.06
122.99
138.42
149.20
156.38
160.50
162.23
162.37
161.11
158.08
153.17
146.15
135.51
119.99
99.23
74.00
45.77
17.81
-8.28
-31.63
-51.86
-69.43
-84.50
-96.71
-105.39
-109.86
-110.21
-107.70
-103.98
-100.61
-99.26
-101.32
-107.33
-116.04
-123.90
-125.57
-116.09
-92.94
-57.96
-17.43
20.20
47.73
62.19
65.39
62.27
57.67
54.28
51.96
49.04
44.15
37.42
30.54
25.62
23.98
25.28
27.86
29.28
27.67
22.56
14.84
6.57
0.10
-2.71
-1.26
4.81
15.63
31.15
50.60
71.52
89.71
99.92
98.80
86.75
68.22
49.97
37.94
34.71
38.79
46.05
52.18
54.87
53.62
48.86
40.89
29.27
13.20
-7.54
-31.82
-57.27
-80.84
-99.77
-112.37
-117.99
-117.09
-110.85
-100.66
-87.73
-73.07
-57.27
-40.21
-23.05
-6.41
9.13
22.96
34.56
43.29
48.66
50.68
49.78
46.84
43.27
39.82
36.75
33.71
29.83
24.12
15.97
4.79
-9.68
-27.09
-46.23
-64.20
-76.66
-79.28
-69.73
-48.48
-21.74
2.63
18.31
22.65
17.30
6.55
-5.26
-15.66
-24.27
-32.26
-40.13
-47.03
-51.51
-52.44
-49.76
-44.55
-38.62
-33.17
-28.73
-24.80
-20.23
-13.99
-5.93
3.24
12.13
19.24
23.52
24.65
23.26
20.43
17.40
14.82
12.74
10.71
8.11
4.51
-0.25
-5.87
-11.82
-17.27
-21.81
-25.33
-28.00
-30.18
-32.05
-33.79
-35.41
-36.72
-36.98
-35.67
-32.30
-26.43
-17.74
-6.03
8.65
26.03
43.06
58.82
72.81
84.72
94.37
101.61
106.32
108.28
107.41
103.81
98.23
91.49
84.58
78.44
73.68
70.41
68.02
65.74
62.80
59.08
54.92
51.18
48.86
48.68
50.65
53.83
57.07
59.39
60.45
60.54
60.64
61.77
64.74
71.15
80.09
90.52
100.30
106.12
104.05
91.06
66.66
33.79
-1.85
-33.75
-56.58
-68.31
-70.33
-66.17
-59.52
-52.70
-46.29
-39.98
-33.39
-26.44
-19.57
-13.33
-7.84
-2.69
2.87
9.78
18.08
27.20
36.27
44.26
50.58
55.39
59.61
64.57
71.64
81.25
93.27
107.10
121.62
135.37
146.68
153.94
155.57
153.67
149.10
142.79
135.53
127.57
118.69
108.49
96.92
84.61
72.74
62.00
52.81
44.99
38.16
32.19
27.38
24.33
23.34
23.87
24.20
22.54
17.89
10.69
2.62
-4.13
-7.89
-8.21
-5.81
-2.34
0.55
1.70
0.54
-2.97
-8.51
-15.40
-22.67
-29.11
-33.62
-35.32
-33.93
-29.78
-23.94
-17.92
-13.34
-11.52
-13.06
-17.87
-25.24
-34.52
-45.34
-57.57
-70.85
-83.85
-94.25
-99.31
-97.28
-88.43
-75.45
-62.34
-52.67
-48.13
-48.03
-50.11
-52.01
-52.64
-52.29
-52.33
-54.21
-58.71
-65.91
-75.49
-87.04
-99.66
-111.47
-119.42
-120.06
-111.00
-92.31
-66.94
-39.68
-15.45
2.73
14.40
21.08
24.87
27.13
28.10
27.51
25.50
23.02
21.43
21.57
22.87
23.46
20.96
13.68
1.30
-14.85
-32.62
-50.09
-66.20
-80.95
-94.80
-108.19
-121.22
-133.87
-146.20
-158.31
-170.05
-180.49
-187.97
-190.68
-187.67
-179.52
-168.34
-156.72
-146.62
-138.59
-131.93
-125.63
-119.31
-113.67
-110.00
-109.29
-111.39
-114.82
-117.41
-117.23
-113.50
-106.75
-98.38
-89.95
-82.49
-76.34
-71.24
-66.75
-62.56
-58.56
-54.77
-51.16
-47.54
-43.49
-38.38
-31.49
-22.22
-10.44
3.20
17.30
30.06
39.95
46.33
49.61
50.90
51.25
51.12
49.93
46.52
39.72
28.96
14.50
-2.72
-21.06
-38.23
-51.22
-56.80
-52.36
-37.19
-13.28
14.88
41.67
62.40
74.84
79.72
79.80
78.23
77.18
77.40
78.69
80.72
83.73
88.38
95.33
104.68
115.68
126.74
135.99
141.87
143.42
140.79
134.89
127.15
118.91
111.15
104.28
98.23
92.53
86.42
79.19
70.27
59.66
47.97
36.41
26.47
19.38
15.68
15.17
17.24
21.25
26.92
34.13
42.46
50.76
57.19
59.94
58.23
52.86
46.00
40.31
37.60
37.84
39.24
39.03
34.66
24.61
8.58
-13.17
-40.11
-71.76
-107.59
-146.57
-187.30
-228.61
-270.23
-312.86
-357.02
-401.53
-442.39
-473.21
-487.14
-479.63
-450.22
-402.64
-342.89
-276.92
-208.75
-140.52
-73.54
-9.67
48.45
98.14
138.10
169.07
193.44
213.97
232.27
248.25
260.49
267.10
266.96
260.55
249.61
236.51
223.19
210.42
197.66
183.50
166.37
145.47
121.29
95.52
70.62
49.26
33.28
23.33
18.27
15.15
9.55
-3.36
-27.64
-65.36
-115.50
-173.51
-231.40
-279.27
-307.97
-312.48
-294.30
-261.68
-226.73
-200.60
-188.77
-188.87
-192.27
-188.40
-169.59
-134.09
-85.84
-31.84
21.00
68.01
107.14
138.00
160.93
176.58
185.94
190.47
191.98
192.01
191.08
188.64
183.39
174.18
160.74
143.68
123.77
101.23
75.22
44.52
8.64
-30.98
-70.62
-105.18
-129.65
-140.52
-136.50
-118.52
-89.12
-51.71
-10.24
31.38
69.56
101.41
125.20
140.31
147.21
146.83
140.38
128.94
113.17
93.03
67.65
35.70
-3.60
-49.02
-96.51
-139.54
-171.07
-186.03
-183.44
-166.71
-142.10
-115.98
-92.55
-72.91
-55.98
-39.93
-23.59
-6.79
9.99
26.24
41.62
55.81
68.30
78.42
85.69
90.08
92.11
92.47
91.63
89.51
85.47
78.55
67.75
52.41
32.50
9.00
-15.96
-39.33
-58.04
-70.17
-75.74
-76.69
-75.86
-75.57
-76.55
-78.06
-78.81
-78.32
-77.79
-80.12
-88.98
-107.35
-135.87
-171.80
-208.93
-238.91
-253.51
-247.12
-218.62
-171.76
-114.03
-54.29
-0.37
42.72
73.23
92.15
102.12
106.22
107.02
106.17
104.38
101.65
97.78
92.70
86.78
80.59
74.87
70.40
67.87
67.83
70.36
75.06
81.18
88.05
95.50
103.98
114.19
126.41
140.11
153.82
165.76
174.48
179.21
179.88
176.73
169.95
159.66
146.30
130.97
115.57
102.27
92.65
86.91
83.77
80.91
75.94
67.45
55.44
41.08
26.07
11.74
-1.48
-13.89
-26.02
-38.03
-49.41
-59.20
-66.46
-70.89
-73.02
-74.16
-75.88
-79.56
-85.87
-94.49
-104.32
-113.73
-121.23
-126.13
-128.87
-130.95
-134.59
-142.00
-154.41
-171.31
-190.00
-205.64
-212.20
-203.98
-177.61
-133.59
-76.74
-15.18
41.97
87.27
116.85
130.89
132.59
126.32
116.09
104.79
94.31
86.01
80.97
79.87
82.64
88.32
95.13
101.04
104.27
103.44
97.30
84.67
64.66
37.16
3.65
-32.78
-67.96
-97.75
-119.18
-131.07
-133.82
-128.85
-118.07
-103.61
-87.92
-73.94
-64.71
-62.47
-67.43
-77.12
-86.81
-91.14
-86.06
-70.36
-45.97
-16.86
12.69
39.68
63.19
83.96
103.31
122.24
140.70
157.88
172.62
183.92
191.22
194.35
193.45
188.85
181.11
171.05
159.75
148.47
137.77
127.22
114.97
98.67
76.70
49.51
20.22
-6.07
-24.16
-30.93
-26.71
-15.14
-1.73
8.38
12.19
9.60
2.85
-4.80
-10.50
-12.57
-10.66
-5.13
3.60
15.53
30.97
50.01
72.06
95.46
117.76
136.02
147.41
149.84
142.31
125.33
100.71
71.15
39.53
8.03
-22.21
-50.99
-78.22
-103.15
-123.92
-137.75
-141.72
-133.84
-113.71
-82.67
-43.58
-0.12
43.75
84.35
118.62
144.28
159.64
163.50
155.25
135.20
105.24
69.15
32.33
0.40
-22.44
-34.92
-39.13
-39.55
-41.50
-49.47
-66.28
-92.78
-128.22
-170.34
-215.49
-258.98
-295.89
-322.58
-337.99
-344.18
-345.44
-346.45
-350.25
-357.23
-365.39
-371.74
-373.85
-370.66
-362.31
-349.20
-331.15
-307.15
-275.84
-236.39
-189.21
-136.07
-79.52
-22.12
34.21
88.50
140.38
190.03
237.68
283.77
329.23
375.78
425.67
480.62
540.20
600.57
654.52
693.30
709.67
700.83
669.77
624.11
573.32
525.23
483.96
449.57
419.58
390.97
361.76
331.39
300.27
268.99
237.99
207.58
178.26
150.87
126.53
106.16
89.95
77.04
65.75
54.09
40.48
24.14
5.36
-14.89
-35.23
-54.38
-71.41
-85.96
-98.30
-109.31
-120.26
-132.41
-146.57
-162.76
-180.18
-197.53
-213.48
-227.16
-238.53
-248.47
-258.46
-270.45
-286.43
-307.94
-335.10
-365.71
-395.03
-416.83
-425.48
-418.54
-398.21
-370.91
-344.96
-327.48
-321.92
-327.31
-339.30
-352.03
-360.43
-361.36
-354.27
-341.24
-326.63
-316.09
-315.11
-327.36
-353.32
-390.06
-431.98
-472.20
-504.16
-522.90
-525.72
-512.48
-485.33
-448.16
-405.70
-362.55
-322.08
-286.09
-254.73
-227.04
-201.66
-177.47
-153.75
-130.33
-107.28
-84.94
-63.70
-43.87
-25.54
-8.63
7.20
22.46
37.69
53.33
69.55
86.22
102.91
119.06
134.24
148.38
161.90
175.61
190.45
207.12
225.88
246.32
267.70
289.20
310.23
330.66
350.82
371.29
392.95
417.08
445.00
477.51
513.65
550.04
581.10
600.65
604.00
590.02
561.53
524.02
483.48
444.47
409.21
378.10
350.61
326.03
303.69
282.60
261.35
238.37
212.79
184.90
156.15
128.32
102.52
78.61
55.17
30.33
2.87
-27.06
-57.94
-87.56
-114.06
-136.60
-155.45
-171.41
-185.24
-197.36
-208.03
-217.82
-227.65
-238.39
-250.39
-263.09
-275.12
-284.74
-290.24
-290.20
-283.41
-268.99
-246.75
-217.86
-185.06
-152.31
-123.71
-102.31
-89.25
-83.77
-83.82
-86.86
-90.63
-93.38
-94.10
-92.54
-89.31
-85.71
-83.04
-82.10
-82.33
-82.12
-79.35
-72.41
-60.83
-45.04
-25.89
-4.01
20.27
46.60
73.89
100.02
122.19
137.81
145.68
146.30
141.72
134.52
126.85
119.72
112.97
105.83
97.61
88.31
78.73
70.13
63.56
59.29
56.54
53.68
49.12
41.75
31.80
20.63
10.30
2.67
-1.44
-2.54
-2.20
-2.38
-4.52
-8.81
-14.22
-18.96
-21.41
-20.78
-17.33
-12.05
-5.99
0.30
7.00
14.62
23.57
33.70
44.32
54.48
63.40
70.68
76.40
80.86
84.46
87.61
90.71
93.95
97.14
99.60
100.19
97.82
91.88
82.56
70.71
57.37
43.17
28.17
12.15
-5.07
-23.23
-41.93
-60.99
-80.60
-100.79
-120.42
-136.47
-144.47
-140.31
-122.52
-93.67
-60.03
-29.17
-7.05
3.97
5.31
0.42
-7.32
-16.03
-25.19
-34.53
-43.00
-48.77
-50.19
-47.03
-40.95
-34.78
-31.36
-32.06
-36.44
-42.53
-48.10
-51.60
-52.75
-52.50
-52.57
-54.61
-59.58
-67.08
-75.38
-82.01
-84.73
-82.61
-76.50
-68.74
-62.09
-58.54
-58.80
-62.41
-68.52
-76.43
-85.67
-95.61
-104.79
-110.69
-110.11
-100.15
-79.22
-47.66
-7.59
37.80
85.16
132.08
177.62
222.49
268.64
318.13
371.70
427.32
479.94
522.56
548.54
554.45
541.74
516.77
488.63
465.90
453.82
453.31
461.81
475.13
489.18
500.71
506.92
504.85
491.23
463.15
419.19
360.46
290.73
215.68
141.35
72.58
11.77
-41.32
-88.85
-133.76
-178.32
-223.33
-267.96
-310.71
-350.18
-386.03
-419.12
-450.95
-483.23
-517.46
-554.94
-596.77
-643.07
-692.03
-738.79
-775.66
-794.04
-787.37
-753.78
-697.01
-625.01
-546.88
-469.95
-398.11
-332.01
-270.45
-211.96
-155.47
-100.29
-45.78
8.73
63.74
119.10
174.07
227.61
278.71
327.26
374.37
422.52
474.68
532.59
594.84
655.78
706.32
736.74
740.41
716.57
670.69
612.26
551.04
493.86
443.32
398.75
358.25
320.61
285.73
254.17
225.95
200.16
175.18
149.50
122.34
93.87
65.13
37.26
11.12
-13.15
-36.08
-58.51
-81.32
-105.00
-129.48
-154.17
-178.05
-199.97
-219.00
-234.60
-246.90
-256.74
-265.45
-274.51
-285.13
-297.82
-312.32
-328.06
-344.44
-361.36
-379.48
-399.93
-424.10
-453.49
-489.68
-533.87
-586.04
-643.63
-700.73
-748.72
-778.51
-783.71
-763.16
-721.39
-666.73
-607.98
-551.47
-499.90
-453.18
-410.25
-370.69
-334.98
-303.74
-276.64
-252.16
-228.12
-202.81
-175.86
-148.26
-121.98
-98.86
-79.82
-64.41
-51.11
-38.09
-24.02
-8.68
6.93
21.15
32.41
40.00
44.47
47.47
51.10
57.08
66.07
77.35
89.17
99.53
107.10
111.82
115.08
119.15
126.28
137.54
152.33
168.48
183.04
193.55
199.19
201.22
202.78
207.78
219.27
237.91
260.95
282.37
294.34
289.77
265.04
221.76
166.95
111.07
64.97
36.94
30.40
42.75
65.61
86.75
93.56
77.32
36.78
-20.98
-82.92
-135.08
-167.86
-178.97
-172.66
-156.23
-136.01
-115.20
-94.34
-73.44
-53.74
-37.72
-27.65
-23.88
-24.35
-25.60
-24.47
-19.68
-12.22
-4.75
-0.00
0.54
-2.67
-7.54
-11.29
-11.67
-7.80
-0.30
9.15
18.80
27.51
35.09
42.17
49.64
58.27
68.32
79.67
92.00
105.09
118.92
133.56
149.09
165.36
182.04
198.72
215.06
231.09
247.38
265.07
285.60
309.88
337.26
364.99
388.37
402.10
402.09
387.05
359.08
322.69
283.32
245.71
212.90
185.95
164.12
145.39
127.24
107.64
86.20
64.46
45.09
30.12
19.38
10.57
0.73
-11.09
-22.23
-26.99
-19.04
5.76
47.81
104.07
169.31
236.89
299.11
347.07
371.90
368.01
336.19
285.05
229.18
183.93
159.85
159.36
177.11
203.61
229.84
250.33
263.71
271.34
275.51
278.51
282.46
289.29
300.16
314.71
330.23
342.12
345.33
336.43
314.97
283.62
247.04
210.17
176.87
148.98
126.92
110.10
97.35
87.28
78.50
69.77
60.49
50.90
41.91
34.64
29.99
28.08
28.24
29.26
29.90
29.33
27.39
24.51
21.37
18.50
15.97
13.32
9.76
4.56
-2.64
-11.68
-21.98
-32.86
-43.98
-55.45
-67.82
-81.82
-97.85
-115.76
-134.78
-153.79
-171.89
-188.83
-205.15
-222.04
-240.78
-262.14
-286.00
-311.50
-337.29
-362.15
-385.45
-407.34
-428.83
-451.71
-478.26
-510.47
-548.73
-590.53
-629.83
-658.25
-667.35
-651.56
-610.07
-547.13
-470.68
-389.86
-313.02
-246.28
-193.11
-154.38
-128.82
-113.54
-104.63
-98.28
-91.33
-81.75
-68.49
-51.18
-29.92
-5.53
20.50
46.04
68.68
86.39
97.71
101.96
99.11
89.70
74.73
55.60
34.05
11.83
-9.48
-28.60
-44.61
-57.30
-67.59
-77.47
-89.30
-104.39
-121.58
-136.72
-143.90
-137.64
-115.00
-76.69
-26.31
31.22
91.11
149.20
201.57
244.11
272.90
285.58
282.71
268.23
248.29
229.06
214.54
205.35
198.80
189.91
173.20
144.21
101.05
45.44
-17.03
-77.86
-127.79
-159.42
-169.42
-159.29
-134.52
-102.61
-70.78
-44.23
-25.54
-14.94
-11.24
-12.60
-17.21
-23.46
-29.94
-35.49
-39.31
-41.12
-41.20
-40.31
-39.39
-39.24
-40.17
-42.00
-44.32
-46.73
-49.06
-51.30
-53.37
-55.00
-55.72
-54.86
-51.54
-44.76
-33.58
-17.73
1.87
22.77
41.66
55.66
63.42
65.56
63.75
59.59
53.55
45.07
33.58
19.29
2.94
-15.50
-37.72
-66.68
-104.31
-148.77
-193.21
-227.39
-241.62
-230.74
-196.22
-144.66
-84.40
-21.96
39.39
98.57
154.50
204.43
244.22
270.03
280.58
277.88
266.52
251.49
236.05
220.49
201.78
175.55
139.00
93.70
46.39
7.12
-14.87
-15.69
0.92
24.82
44.01
50.02
41.42
23.43
4.30
-9.26
-15.05
-15.18
-13.44
-12.24
-11.36
-8.77
-2.66
6.99
18.47
29.33
38.06
44.77
51.12
58.92
68.93
80.21
90.26
95.96
94.68
85.40
68.91
47.30
23.08
-2.12
-28.49
-58.23
-94.50
-139.20
-190.84
-243.40
-287.49
-313.27
-313.71
-286.80
-235.63
-166.85
-88.91
-10.76
58.62
110.81
139.12
140.54
117.39
77.29
31.03
-10.97
-41.76
-59.31
-65.49
-64.08
-58.78
-52.12
-45.49
-39.58
-34.73
-30.92
-27.72
-24.34
-19.96
-13.87
-5.96
2.92
10.74
14.71
12.46
3.32
-10.93
-26.56
-39.52
-47.36
-50.41
-51.30
-53.51
-59.71
-71.02
-87.06
-106.74
-128.95
-152.80
-177.62
-203.01
-229.16
-256.72
-286.31
-317.35
-347.06
-370.74
-383.21
-380.96
-363.71
-334.44
-297.81
-258.17
-218.33
-179.76
-143.84
-113.01
-90.84
-80.71
-84.12
-99.52
-122.52
-147.36
-168.86
-183.77
-191.33
-192.79
-190.29
-185.73
-179.99
-172.88
-163.52
-151.09
-135.37
-116.95
-96.92
-76.25
-55.38
-34.12
-12.01
11.08
34.53
57.05
77.20
94.10
107.80
119.20
129.57
139.90
150.44
160.70
169.82
177.25
183.23
188.99
196.23
206.66
221.08
239.19
259.65
280.69
300.72
318.85
335.01
349.60
363.35
377.13
392.02
408.92
427.80
446.96
462.78
470.67
466.76
449.79
421.71
386.91
350.24
315.02
282.34
251.76
222.84
196.25
173.79
157.26
147.16
142.15
139.61
136.95
132.71
126.93
120.61
114.88
110.07
105.56
100.26
93.24
84.46
74.72
65.23
56.80
49.07
40.38
28.23
10.24
-15.04
-47.57
-85.54
-125.49
-162.68
-191.94
-208.66
-210.23
-196.72
-171.10
-138.22
-103.25
-70.18
-40.95
-15.74
6.20
25.43
41.78
54.35
62.14
64.72
62.42
56.27
47.58
37.55
27.11
16.96
7.82
0.54
-3.91
-4.94
-2.57
2.38
8.49
14.19
18.40
20.88
22.24
23.69
26.60
32.00
40.22
50.74
62.32
73.30
82.25
88.43
92.20
94.70
97.39
101.22
106.03
110.42
112.18
109.20
100.25
85.55
66.85
47.10
29.83
18.25
14.51
18.97
29.91
43.68
55.81
62.55
62.57
57.86
53.10
53.66
62.92
80.30
100.77
116.61
120.60
109.53
86.06
58.29
36.76
30.33
42.77
71.40
108.54
144.50
171.17
184.17
183.22
170.81
150.16
123.78
93.15
59.37
24.09
-10.07
-39.93
-62.92
-78.15
-87.12
-93.37
-101.15
-113.94
-133.22
-158.46
-187.69
-218.30
-247.27
-271.30
-287.04
-291.72
-284.33
-266.49
-242.29
-216.74
-193.95
-175.70
-161.33
-148.98
-137.31
-126.26
-116.93
-110.61
-107.91
-108.31
-109.92
-109.86
-105.20
-94.30
-78.37
-61.80
-50.95
-51.33
-64.59
-87.10
-111.16
-128.45
-133.87
-127.47
-113.63
-97.91
-83.79
-71.06
-56.65
-36.92
-10.11
23.02
59.74
96.79
131.82
163.97
193.08
218.34
237.27
245.60
238.82
213.88
171.21
115.16
52.67
-9.15
-65.22
-113.49
-154.44
-189.83
-221.77
-251.93
-281.11
-308.88
-333.05
-349.40
-351.97
-335.14
-296.56
-240.00
-174.78
-112.69
-63.40
-30.70
-11.59
1.58
17.27
40.62
70.74
103.24
133.23
157.62
175.73
188.22
196.50
202.70
208.48
213.04
215.84
216.85
216.11
212.66
203.86
186.84
160.92
125.96
79.35
20.46
-47.95
-119.87
-187.89
-246.43
-291.50
-319.62
-331.49
-335.40
-340.14
-351.66
-371.65
-399.16
-434.40
-477.59
-527.16
-550.39
-526.94
-457.48
-363.89
-271.68
-195.66
-140.92
-118.33
-116.55
-125.80
-143.00
-165.25
-188.33
-207.87
-212.11
-200.25
-176.93
-146.29
-113.59
-85.39
-64.86
-51.42
-41.64
-31.47
-19.57
-4.96
14.67
39.05
64.44
86.81
103.67
114.98
122.75
128.67
134.86
144.15
156.99
171.45
185.09
196.32
205.24
213.51
222.56
234.16
250.26
271.55
297.48
326.68
356.84
384.60
405.94
416.87
415.70
404.44
388.18
373.45
365.29
365.13
370.58
377.42
382.33
384.84
386.85
390.31
394.91
397.22
392.18
375.80
347.16
308.69
264.50
217.90
170.02
120.26
68.15
15.68
-32.15
-68.81
-89.26
-92.53
-82.64
-67.37
-55.38
-53.28
-63.88
-86.27
-117.47
-154.00
-193.25
-233.48
-273.43
-311.98
-348.41
-383.08
-417.56
-453.60
-491.13
-526.67
-553.29
-562.53
-547.64
-506.71
-443.79
-367.66
-288.33
-213.89
-148.50
-92.40
-43.67
0.20
41.52
82.56
125.68
172.74
223.69
275.07
320.15
350.46
358.47
340.51
298.17
237.83
168.52
99.20
36.52
-16.01
-57.83
-90.13
-114.35
-131.04
-139.51
-138.65
-128.55
-111.90
-94.00
-81.15
-77.77
-84.49
-98.08
-113.67
-127.70
-139.52
-150.70
-162.81
-175.41
-186.16
-192.81
-196.02
-199.83
-209.69
-228.79
-255.54
-283.74
-305.74
-316.11
-313.72
-301.22
-282.61
-261.12
-238.43
-215.54
-193.94
-176.02
-163.88
-157.89
-155.88
-153.67
-146.82
-132.41
-109.99
-81.18
-48.61
-14.89
18.10
49.33
78.33
104.91
128.96
150.55
170.06
188.74
208.90
233.20
263.12
297.12
329.77
352.91
358.70
343.38
309.36
264.54
219.12
181.55
155.87
141.37
134.13
128.99
120.72
104.12
74.20
27.52
-35.72
-109.94
-184.48
-246.64
-286.04
-298.13
-285.32
-255.25
-217.18
-178.64
-143.69
-113.04
-85.60
-59.96
-35.27
-11.26
12.31
35.97
60.41
86.17
113.32
141.45
170.16
199.59
230.50
263.60
298.47
332.66
361.70
380.21
383.85
371.11
344.28
308.65
270.72
236.16
208.38
188.33
175.13
167.04
162.06
158.27
153.87
147.28
137.62
124.97
110.46
95.78
82.59
71.64
62.44
53.52
43.08
29.73
12.91
-6.98
-28.61
-50.25
-70.06
-86.69
-99.52
-108.63
-114.80
-119.06
-122.50
-126.08
-130.69
-137.16
-146.19
-158.35
-173.74
-192.07
-212.79
-235.40
-259.59
-285.17
-311.55
-337.14
-359.08
-373.70
-377.40
-367.87
-344.89
-310.37
-267.66
-220.48
-171.96
-124.17
-78.10
-34.19
7.43
46.83
84.33
120.69
157.10
194.95
235.28
278.02
321.39
361.84
394.75
415.90
422.93
416.22
398.65
374.31
346.79
318.04
288.23
256.71
223.36
189.45
157.50
130.09
108.59
92.49
79.75
68.02
55.90
43.59
32.65
24.78
20.65
19.45
19.21
17.91
14.58
9.62
4.45
0.65
-0.81
0.11
2.76
6.24
9.83
13.15
16.03
18.44
20.34
21.71
22.59
23.05
23.17
23.12
23.04
23.01
22.92
22.47
21.16
18.47
14.15
8.44
2.06
-3.97
-8.76
-11.85
-13.38
-13.88
-14.01
-14.26
-14.90
-16.00
-17.65
-19.97
-23.05
-26.78
-30.79
-34.55
-37.56
-39.68
-41.12
-42.29
-43.49
-44.61
-45.11
-44.25
-41.49
-36.79
-30.80
-24.60
-19.40
-16.21
-15.51
-17.16
-20.48
-24.39
-27.74
-29.60
-29.52
-27.49
-23.93
-19.40
-14.43
-9.48
-4.90
-1.06
1.69
3.18
3.46
2.95
2.19
1.65
1.47
1.46
1.22
0.51
-0.66
-2.16
-3.93
-6.14
-9.02
-12.56
-16.25
-19.17
-20.38
-19.39
-16.50
-12.65
-8.90
-6.03
-4.33
-3.70
-3.90
-4.83
-6.42
-8.57
-11.05
-13.50
-15.63
-17.34
-18.87
-20.52
-22.57
-25.04
-27.68
-30.18
-32.24
-33.73
-34.52
-34.42
-33.22
-30.75
-27.09
-22.56
-17.56
-12.40
-7.20
-1.93
3.37
8.53
13.24
17.31
20.78
24.08
27.85
32.63
38.75
46.14
54.46
63.15
71.55
79.04
85.14
89.69
92.82
94.83
96.06
96.62
96.36
94.96
92.16
87.85
82.28
76.04
70.03
65.32
62.81
62.96
65.45
69.08
72.16
73.07
70.95
66.11
60.00
54.64
51.80
52.18
54.87
57.53
57.13
50.98
37.74
17.91
-6.34
-31.65
-54.54
-72.22
-83.17
-87.16
-84.84
-77.07
-64.44
-47.24
-25.56
0.11
28.44
56.98
82.17
99.89
106.35
98.98
77.21
42.91
0.04
-46.34
-91.28
-131.11
-163.94
-189.42
-207.96
-220.06
-226.12
-226.77
-223.43
-218.25
-213.65
-211.22
-210.87
-210.32
-205.97
-194.26
-173.39
-144.36
-110.97
-78.74
-53.15
-38.03
-34.56
-41.22
-54.58
-70.43
-84.87
-95.09
-99.81
-99.14
-94.33
-87.22
-79.65
-73.14
-68.57
-66.27
-65.97
-66.98
-68.18
-68.18
-65.78
-60.38
-52.33
-42.82
-33.19
-23.90
-14.02
-1.42
16.12
39.36
66.86
95.05
119.58
137.07
146.24
148.22
145.71
141.77
138.88
138.53
141.42
147.49
155.90
164.62
170.47
169.75
159.52
139.11
110.77
79.03
48.94
24.18
5.92
-6.95
-16.54
-24.48
-31.27
-36.48
-39.65
-41.01
-41.62
-42.85
-45.63
-50.01
-55.13
-59.66
-62.28
-62.11
-59.03
-53.66
-47.23
-41.16
-36.45
-33.45
-31.83
-31.09
-30.87
-31.19
-32.07
-33.25
-33.86
-32.74
-28.88
-21.93
-12.21
-0.54
12.15
24.99
37.12
47.60
55.56
60.49
62.55
62.54
61.48
60.02
58.13
55.15
50.45
43.99
36.63
29.91
25.36
23.92
25.59
29.77
35.68
42.81
50.91
59.70
68.77
77.79
87.05
97.79
111.61
129.23
148.99
166.37
174.90
168.48
143.82
101.87
47.58
-11.76
-68.65
-116.95
-152.77
-174.69
-183.82
-183.49
-178.46
-173.39
-171.32
-172.69
-175.66
-177.55
-176.58
-172.74
-167.54
-162.74
-159.09
-155.86
-151.29
-143.53
-131.36
-114.50
-93.52
-69.65
-44.70
-20.73
0.23
16.88
29.26
38.86
48.30
60.39
77.10
98.93
124.76
152.32
178.92
202.21
220.64
233.74
242.25
247.70
252.13
257.56
265.84
278.39
295.78
317.05
339.25
357.55
366.33
361.07
340.08
305.20
261.04
213.02
165.21
119.15
74.31
29.59
-14.88
-57.03
-93.60
-121.52
-139.43
-148.28
-150.91
-150.87
-151.04
-152.58
-154.93
-156.46
-155.50
-151.28
-144.25
-135.70
-127.03
-119.00
-111.34
-103.25
-94.03
-83.95
-74.58
-68.32
-67.41
-72.89
-84.20
-99.43
-116.22
-132.59
-147.40
-160.20
-170.98
-179.92
-187.57
-195.07
-203.96
-215.61
-230.23
-246.51
-261.81
-273.45
-280.03
-282.29
-282.85
-284.98
-290.99
-301.11
-313.60
-325.65
-334.81
-339.80
-340.51
-337.20
-329.59
-316.57
-296.94
-270.69
-239.90
-208.50
-180.64
-158.61
-141.45
-125.19
-104.74
-76.25
-38.87
5.21
52.06
98.01
140.92
180.48
217.66
253.55
288.82
323.86
359.39
396.75
437.34
481.10
525.11
563.22
587.54
591.23
571.32
530.02
473.87
411.24
349.50
293.35
244.75
203.89
170.39
143.65
122.91
107.02
94.52
83.98
74.44
65.28
55.94
45.97
34.72
21.66
6.29
-12.09
-34.28
-60.59
-90.15
-120.30
-147.15
-167.32
-179.87
-187.24
-194.40
-206.08
-224.05
-245.70
-265.10
-275.84
-274.36
-261.60
-242.33
-222.57
-206.49
-194.73
-184.68
-172.40
-155.02
-132.24
-106.47
-81.54
-61.07
-46.97
-39.18
-36.19
-35.92
-36.64
-37.17
-36.84
-35.10
-31.46
-25.71
-18.34
-10.65
-4.52
-1.81
-3.58
-9.83
-19.60
-31.61
-44.71
-58.28
-72.04
-85.74
-98.71
-109.68
-116.91
-118.69
-113.86
-102.39
-85.46
-65.22
-44.19
-24.52
-7.38
7.08
19.36
29.78
38.12
43.81
46.58
47.21
47.55
49.94
56.18
66.75
80.62
95.78
110.24
122.69
132.88
141.31
148.59
155.01
160.31
163.79
164.72
162.60
157.22
148.76
137.61
124.39
109.84
94.79
80.14
66.67
54.93
45.12
37.07
30.38
24.59
19.41
14.81
10.85
7.50
4.41
0.91
-3.84
-10.41
-18.87
-28.50
-37.96
-45.47
-49.33
-48.23
-41.58
-29.66
-13.58
4.89
23.63
40.64
54.38
64.15
70.13
73.12
74.16
74.18
73.72
73.00
72.03
70.83
69.46
67.97
66.26
64.07
61.02
56.65
50.72
43.20
34.36
24.73
14.89
5.35
-3.58
-11.85
-19.70
-27.42
-35.46
-44.50
-55.44
-69.10
-85.59
-103.84
-121.56
-135.98
-144.75
-146.92
-143.47
-137.04
-131.35
-130.20
-136.60
-151.89
-175.08
-202.68
-229.26
-248.67
-255.76
-247.71
-224.50
-188.40
-142.92
-91.79
-38.61
13.05
59.67
98.22
126.74
145.09
154.88
158.86
159.84
159.57
158.38
155.40
149.33
139.24
125.28
108.89
92.53
79.13
71.17
70.09
75.90
87.32
102.30
118.58
134.12
147.18
156.31
160.41
158.95
152.15
141.07
127.21
112.01
96.44
80.85
65.21
49.50
33.83
18.50
3.88
-9.64
-21.56
-31.32
-38.42
-42.67
-44.52
-44.93
-45.09
-45.88
-47.55
-49.88
-52.46
-55.07
-57.78
-60.65
-63.47
-65.60
-66.19
-64.56
-60.64
-54.99
-48.48
-41.79
-34.99
-27.60
-19.01
-8.92
2.23
13.45
23.64
32.20
39.38
46.27
54.35
64.92
78.52
94.64
111.76
127.79
140.76
149.47
154.03
155.73
156.32
157.05
158.03
158.15
155.77
149.66
139.65
126.76
112.61
98.50
84.99
72.00
59.20
46.41
33.92
22.29
12.23
4.40
-1.12
-4.62
-6.51
-7.24
-7.30
-7.19
-7.51
-9.17
-13.44
-22.58
-38.76
-62.86
-93.70
-128.03
-161.09
-187.87
-204.38
-208.71
-202.44
-189.66
-175.72
-166.00
-165.08
-176.66
-203.70
-245.53
-297.11
-349.64
-391.91
-414.15
-411.41
-385.09
-342.61
-294.96
-255.97
-228.34
-210.95
-200.37
-192.87
-186.06
-179.27
-172.64
-165.57
-156.04
-140.62
-117.34
-86.12
-49.10
-9.91
27.65
61.20
90.67
118.28
147.63
181.17
219.80
262.90
308.74
355.01
399.01
437.70
467.77
486.23
490.46
479.71
455.50
421.23
380.88
337.53
292.48
245.62
197.16
149.06
105.88
73.39
55.77
53.07
60.76
71.66
79.46
81.48
79.15
76.05
74.82
75.10
73.86
67.73
55.73
40.26
26.06
17.76
17.47
24.00
33.78
42.62
47.47
47.66
44.83
41.99
42.08
46.71
55.68
67.33
79.53
90.80
100.78
110.15
120.06
131.41
144.39
158.40
172.23
184.19
192.40
195.07
190.80
178.96
159.86
134.60
104.85
72.53
39.42
6.94
-24.08
-53.58
-82.35
-111.70
-143.00
-177.04
-213.85
-252.67
-291.84
-328.82
-360.09
-381.94
-391.64
-388.64
-375.18
-355.38
-333.07
-309.24
-281.33
-244.95
-197.33
-140.60
-82.73
-35.12
-8.14
-7.08
-30.53
-71.65
-121.58
-172.72
-220.58
-263.97
-303.49
-339.77
-372.33
-399.30
-418.28
-427.33
-425.61
-413.85
-393.88
-368.00
-338.22
-306.40
-274.59
-245.36
-221.58
-205.34
-196.72
-193.05
-189.44
-180.48
-162.29
-133.75
-96.99
-56.54
-17.78
14.42
36.62
47.24
46.51
36.37
20.49
3.86
-8.00
-10.31
-0.35
21.63
52.51
87.48
121.68
151.70
176.43
196.88
215.34
234.53
256.88
283.81
315.25
349.26
382.31
409.92
427.62
432.02
421.53
397.02
361.80
320.83
279.02
239.33
201.97
165.25
127.76
90.41
57.03
32.46
19.87
18.37
22.98
26.84
24.34
13.43
-4.39
-25.74
-47.39
-67.33
-84.82
-99.82
-112.76
-125.12
-139.67
-159.82
-187.76
-222.71
-260.04
-292.33
-312.27
-315.80
-304.25
-283.65
-261.92
-245.01
-234.36
-226.85
-217.38
-202.20
-181.15
-157.52
-135.77
-118.98
-107.43
-99.11
-91.58
-83.80
-76.62
-71.54
-68.95
-66.93
-61.92
-50.80
-33.11
-11.91
7.42
19.98
24.21
22.85
21.91
27.85
44.84
73.49
111.43
155.23
202.08
250.77
300.97
352.24
403.11
450.94
492.67
525.57
547.83
558.33
556.51
542.01
514.65
474.76
424.05
366.88
310.48
263.68
233.64
222.71
226.52
235.31
237.73
225.12
194.28
146.91
87.19
19.46
-51.96
-121.38
-180.55
-220.26
-234.31
-223.36
-195.76
-164.11
-139.57
-127.36
-126.13
-130.70
-135.79
-138.66
-138.90
-136.99
-132.84
-125.79
-115.84
-104.54
-94.69
-89.01
-88.75
-93.17
-100.09
-106.91
-111.54
-112.75
-110.20
-104.37
-96.32
-87.38
-78.84
-71.71
-66.55
-63.56
-62.79
-64.05
-66.70
-69.39
-70.06
-66.54
-57.39
-42.66
-24.05
-4.35
13.70
28.36
39.28
47.16
52.92
57.20
60.08
61.53
61.71
61.36
61.64
63.74
68.28
74.88
82.15
87.89
89.89
86.77
78.54
66.61
53.16
40.20
28.91
19.47
11.57
4.89
-0.66
-5.32
-9.84
-15.34
-22.76
-31.91
-41.05
-47.37
-48.38
-43.37
-34.05
-24.02
-16.97
-15.02
-17.85
-23.09
-27.74
-29.64
-28.34
-25.04
-21.80
-20.47
-22.15
-26.84
-33.77
-41.75
-49.64
-56.48
-61.56
-64.41
-64.75
-62.67
-58.81
-54.37
-50.96
-50.16
-52.95
-59.19
-67.78
-77.01
-85.32
-91.98
-97.36
-102.71
-109.50
-118.66
-129.80
-140.85
-148.23
-147.73
-135.82
-111.04
-74.95
-32.07
11.28
48.91
76.67
93.61
101.57
103.91
103.80
103.08
102.22
101.00
99.35
97.67
96.67
96.66
97.21
97.26
95.65
91.80
85.94
78.94
71.74
65.05
59.28
54.67
51.43
49.79
50.02
52.12
55.81
60.35
64.72
67.82
68.89
67.83
65.02
61.19
56.88
52.26
47.35
42.34
37.79
34.47
32.80
32.19
31.22
28.24
22.51
14.85
7.37
2.48
1.56
4.37
9.15
13.59
15.81
15.14
12.03
7.71
3.64
0.95
0.29
1.75
4.93
9.01
12.91
15.31
14.79
10.19
1.08
-11.91
-26.98
-41.53
-52.98
-59.54
-60.72
-57.31
-50.89
-43.24
-35.87
-29.83
-25.68
-23.54
-23.16
-23.99
-25.23
-25.97
-25.25
-22.28
-16.75
-9.22
-1.29
4.73
6.77
4.00
-2.69
-11.03
-18.58
-23.95
-27.37
-30.17
-33.70
-38.36
-43.43
-47.86
-51.31
-54.56
-59.25
-66.72
-77.13
-89.06
-99.85
-106.56
-106.89
-99.88
-86.08
-67.39
-46.51
-26.26
-8.97
3.96
12.27
16.56
17.88
17.40
16.18
15.15
15.20
17.23
21.82
28.99
37.88
46.93
54.34
58.70
59.60
57.67
54.29
50.96
48.74
47.89
48.04
48.57
48.99
49.13
49.13
49.13
49.22
49.26
48.97
48.07
46.36
43.88
40.81
37.49
34.22
31.13
28.01
24.25
18.96
11.26
0.82
-11.75
-24.90
-36.56
-44.88
-49.04
-49.55
-47.95
-46.27
-46.18
-48.52
-53.05
-58.83
-64.59
-69.27
-72.28
-73.47
-73.03
-71.19
-67.98
-63.33
-57.23
-50.11
-42.94
-37.10
-33.74
-33.37
-35.57
-39.19
-42.90
-45.61
-46.67
-45.86
-43.26
-39.23
-34.42
-29.65
-25.46
-22.02
-19.00
-15.85
-12.34
-8.85
-5.93
-3.56
-0.73
4.03
11.23
19.63
26.41
28.72
25.54
18.32
10.14
3.75
0.14
-1.54
-2.58
-3.09
-1.63
3.83
14.05
27.17
39.06
45.10
42.18
29.85
9.86
-15.25
-43.19
-72.69
-103.21
-134.13
-163.78
-189.02
-205.62
-209.59
-198.76
-173.80
-138.32
-97.49
-56.21
-17.71
16.75
47.12
73.46
95.25
111.58
121.86
126.63
127.66
127.42
127.97
130.33
134.15
138.05
140.28
139.37
134.75
126.99
117.68
108.94
102.75
100.07
100.60
102.79
104.46
103.61
99.07
90.88
80.27
69.21
59.70
53.14
49.81
48.96
49.27
49.48
49.06
48.35
48.39
50.21
54.43
60.80
68.29
75.57
81.59
86.14
90.07
95.23
103.87
117.75
136.92
159.07
179.57
192.50
192.38
175.69
141.80
93.17
34.66
-27.42
-86.33
-135.94
-171.67
-191.25
-195.13
-186.19
-168.69
-146.94
-124.18
-102.15
-81.58
-63.01
-47.09
-34.55
-25.78
-20.57
-18.53
-19.73
-25.04
-35.83
-52.96
-75.53
-100.55
-123.62
-140.59
-149.34
-150.44
-146.61
-141.04
-135.83
-131.32
-126.42
-119.97
-111.56
-101.59
-90.54
-78.19
-63.65
-46.22
-26.35
-5.92
12.51
27.29
38.61
48.22
57.88
67.66
75.32
77.47
71.78
58.75
41.91
26.00
14.61
8.57
6.22
4.98
3.21
0.92
-1.14
-2.60
-4.35
-8.34
-15.84
-26.28
-36.88
-43.85
-44.32
-37.82
-26.53
-14.24
-4.68
-0.21
-1.31
-6.89
-14.96
-23.24
-29.78
-33.31
-33.66
-31.90
-29.93
-29.72
-32.33
-37.33
-43.03
-47.33
-48.94
-47.89
-45.58
-43.85
-43.98
-46.06
-48.96
-50.83
-49.79
-44.30
-33.22
-15.82
7.97
37.20
69.58
101.60
129.36
149.72
161.32
164.88
162.59
156.95
149.90
142.41
134.86
127.62
121.40
116.94
114.50
113.33
111.82
108.21
101.49
92.01
81.37
71.70
64.57
60.33
58.01
55.88
52.49
47.29
40.89
34.74
30.40
28.86
30.34
34.41
40.31
47.39
55.21
63.44
71.68
79.48
86.27
91.73
95.88
99.11
102.14
105.92
111.59
120.14
131.92
145.88
159.21
167.61
166.39
151.77
122.14
78.51
24.39
-35.07
-94.14
-147.59
-191.46
-223.66
-244.14
-254.61
-258.13
-258.14
-257.75
-259.04
-262.80
-268.49
-274.75
-279.82
-282.16
-280.93
-276.22
-268.98
-260.42
-251.31
-241.17
-228.20
-209.50
-182.02
-144.08
-96.72
-44.25
6.50
48.01
74.70
84.83
80.84
68.27
53.39
41.09
33.72
31.38
33.22
38.47
46.69
57.04
67.56
74.94
75.76
68.22
53.30
34.80
17.62
5.58
-0.05
-0.46
2.05
5.76
10.47
17.15
26.81
39.44
53.92
68.73
82.94
96.60
110.72
126.41
143.83
161.60
176.53
184.24
180.23
161.68
128.75
85.27
37.93
-5.67
-39.39
-60.62
-70.97
-75.58
-81.29
-94.32
-118.39
-153.62
-196.65
-241.59
-281.62
-310.73
-325.21
-324.17
-309.33
-284.23
-252.85
-218.74
-184.50
-151.79
-121.29
-92.73
-64.95
-36.23
-5.15
28.41
62.46
93.31
116.91
130.78
135.36
134.08
132.03
133.74
141.39
153.99
167.96
178.82
182.91
178.81
167.73
153.01
138.92
129.16
125.57
127.53
132.28
136.05
135.57
129.27
117.97
104.39
92.11
84.25
82.34
85.94
92.91
100.40
106.02
108.73
109.13
109.35
112.19
120.02
133.64
151.13
167.74
176.85
171.95
149.18
108.92
55.90
-2.27
-57.40
-102.94
-135.13
-153.14
-158.39
-153.80
-143.08
-130.21
-118.84
-111.34
-108.24
-108.08
-108.33
-107.11
-104.90
-105.23
-113.67
-135.06
-170.22
-214.34
-257.84
-289.96
-303.19
-295.97
-272.33
-238.74
-200.53
-160.07
-117.58
-73.61
-30.96
5.53
31.42
45.40
50.39
52.15
56.35
65.68
79.17
93.41
104.92
112.34
116.96
121.90
130.30
143.68
161.22
180.16
197.32
210.45
219.40
225.96
232.91
242.45
255.05
269.27
282.41
291.62
294.80
290.93
279.67
261.00
234.96
201.65
161.64
115.87
65.50
11.36
-46.07
-105.90
-165.53
-219.77
-261.46
-283.98
-284.52
-266.35
-238.53
-212.73
-198.46
-199.32
-211.81
-227.59
-237.72
-236.52
-223.29
-201.46
-176.17
-151.72
-130.40
-112.63
-97.91
-85.79
-76.35
-69.79
-65.86
-63.40
-60.42
-55.05
-46.45
-35.46
-24.33
-15.67
-11.11
-10.49
-11.88
-12.56
-10.28
-4.23
4.73
14.67
23.32
28.90
30.50
28.25
23.16
16.81
10.80
6.20
2.99
0.06
-4.07
-10.49
-19.03
-28.21
-36.13
-41.45
-44.15
-45.41
-46.77
-49.18
-52.54
-56.06
-58.84
-60.32
-60.23
-58.38
-54.64
-49.22
-43.14
-38.26
-36.68
-39.66
-46.81
-56.10
-64.68
-70.10
-71.14
-67.91
-61.15
-51.67
-39.99
-26.46
-11.52
4.12
19.51
33.70
45.69
54.68
60.21
62.41
62.24
61.26
61.24
63.39
67.97
74.10
80.28
85.15
87.95
88.55
86.95
83.02
76.54
67.64
57.31
47.36
39.90
36.23
36.33
38.61
40.82
41.07
38.63
34.07
28.76
24.12
21.05
19.97
20.83
23.37
27.09
31.06
34.08
34.97
33.01
28.18
21.40
14.01
7.44
2.65
-0.04
-0.92
-0.73
-0.34
-0.47
-1.45
-3.10
-4.80
-5.71
-5.17
-2.88
0.90
5.53
10.35
14.89
18.99
22.91
27.18
32.37
38.98
47.21
56.72
66.54
75.09
80.54
81.42
77.23
68.65
57.52
46.10
36.33
29.36
25.36
23.79
23.96
25.25
26.99
28.27
27.92
24.88
18.84
10.56
1.74
-5.77
-10.93
-14.04
-16.51
-20.13
-25.96
-33.82
-42.34
-49.64
-54.19
-55.41
-53.65
-49.88
-45.18
-40.15
-34.79
-28.60
-20.94
-11.75
-1.90
7.02
13.33
15.86
14.66
10.84
6.05
1.64
-1.88
-4.73
-7.46
-10.33
-13.12
-15.31
-16.56
-17.12
-17.78
-19.52
-22.85
-27.48
-32.46
-36.64
-39.33
-40.50
-40.70
-40.48
-40.00
-39.09
-37.45
-35.21
-32.97
-31.47
-30.94
-30.74
-29.55
-26.25
-20.72
-14.19
-8.64
-5.70
-5.71
-7.60
-9.63
-10.37
-9.38
-7.11
-4.31
-1.29
2.18
6.54
11.90
17.67
22.86
26.59
28.56
29.20
29.36
29.87
31.27
33.63
36.77
40.39
44.21
47.96
51.40
54.32
56.57
58.17
59.26
60.04
60.80
61.81
63.24
65.02
66.67
67.27
65.77
61.23
53.30
42.47
30.07
18.01
8.31
2.59
1.58
5.01
11.68
19.91
28.08
35.12
40.68
44.97
48.47
51.46
53.91
55.68
56.77
57.61
59.04
62.12
67.34
73.99
79.87
81.78
76.62
62.64
40.18
11.38
-20.67
-53.15
-84.13
-112.31
-136.35
-154.35
-164.29
-164.94
-156.98
-143.19
-127.46
-113.28
-102.32
-94.14
-86.94
-78.98
-69.62
-59.64
-50.66
-44.09
-40.23
-38.20
-36.47
-33.70
-29.47
-24.40
-19.71
-16.50
-15.08
-14.88
-14.73
-13.64
-11.32
-8.27
-5.52
-4.02
-4.09
-5.36
-7.10
-8.60
-9.75
-10.91
-12.54
-14.74
-16.92
-18.14
-17.57
-15.15
-11.76
-8.83
-7.61
-8.58
-11.18
-14.14
-16.09
-16.19
-14.39
-11.30
-7.80
-4.65
-2.20
-0.38
1.21
3.11
5.85
9.69
14.49
19.56
23.80
25.85
24.66
19.76
11.59
1.29
-9.68
-20.08
-29.27
-37.25
-44.34
-50.71
-56.13
-59.71
-60.26
-56.63
-48.15
-34.94
-17.99
0.88
19.42
35.37
47.13
54.24
57.55
58.86
60.23
63.08
67.69
73.22
78.20
81.39
82.41
81.94
81.31
81.87
84.40
88.80
93.86
97.21
95.51
85.06
62.98
28.76
-14.89
-62.27
-106.24
-140.53
-161.65
-169.51
-166.60
-156.17
-140.75
-121.73
-99.90
-76.34
-52.88
-31.68
-14.24
-0.74
10.04
20.07
30.98
43.32
56.36
68.54
78.23
84.49
87.38
87.87
87.40
87.22
87.97
89.51
90.98
91.29
89.57
85.56
79.73
73.11
66.88
61.94
58.56
56.33
54.41
51.87
48.08
42.93
36.78
30.37
24.54
19.92
16.70
14.46
12.20
8.78
3.44
-3.69
-11.45
-17.99
-21.75
-22.06
-19.55
-15.73
-12.23
-10.02
-9.23
-9.39
-10.02
-10.99
-12.49
-14.68
-17.44
-20.27
-22.38
-23.00
-21.91
-19.36
-16.23
-13.64
-12.26
-11.95
-11.93
-11.59
-11.19
-12.02
-15.89
-23.87
-35.43
-48.26
-59.27
-65.88
-67.01
-63.23
-55.98
-46.56
-35.66
-23.64
-11.40
-1.03
4.26
1.20
-11.65
-32.17
-54.25
-69.65
-71.58
-58.48
-35.81
-13.86
-2.89
-8.20
-27.63
-53.35
-76.48
-91.73
-99.28
-103.15
-107.63
-114.13
-120.55
-122.93
-118.07
-105.41
-86.95
-65.96
-45.40
-26.86
-10.48
4.66
19.54
34.55
48.98
61.24
69.50
72.65
70.98
66.26
60.97
57.17
55.56
55.17
54.07
50.48
43.80
34.98
26.01
18.85
14.46
12.52
11.80
10.98
9.35
6.99
4.47
2.41
1.15
0.70
1.08
2.42
4.92
8.58
12.95
17.25
20.70
23.05
24.80
27.01
30.67
36.16
42.90
49.58
54.85
57.67
57.87
55.78
52.09
47.55
43.03
39.55
38.11
39.20
42.22
45.26
45.67
40.94
29.52
11.18
-13.21
-42.03
-73.11
-103.56
-129.89
-148.28
-155.65
-150.76
-134.97
-111.86
-86.13
-61.97
-41.95
-26.68
-15.45
-6.97
-0.17
5.46
10.12
13.86
16.82
19.37
21.92
24.64
27.33
29.47
30.56
30.42
29.32
27.83
26.48
25.42
24.32
22.47
19.20
14.27
8.04
1.35
-4.85
-9.83
-13.47
-16.07
-18.22
-20.31
-22.30
-23.73
-23.99
-22.79
-20.49
-18.06
-16.63
-16.72
-17.76
-18.31
-16.56
-11.39
-3.03
7.09
17.08
25.40
31.05
33.31
31.48
25.30
15.92
6.45
1.30
4.06
14.98
29.83
41.28
42.49
30.91
10.01
-12.34
-27.91
-32.20
-26.31
-15.60
-6.08
-1.20
-0.56
-0.98
1.03
7.12
16.26
25.73
32.93
36.79
38.14
38.92
40.95
45.03
50.99
58.00
64.97
70.75
74.04
73.37
67.48
56.02
40.04
22.01
5.06
-8.01
-15.70
-18.12
-16.94
-14.64
-13.71
-16.07
-22.49
-32.65
-45.25
-58.54
-70.69
-80.23
-86.08
-87.55
-84.41
-77.13
-66.99
-55.79
-45.32
-36.67
-29.78
-23.52
-16.35
-7.24
3.93
16.33
28.48
38.85
46.24
50.16
50.85
49.28
46.76
44.56
43.29
42.63
41.56
38.94
34.35
28.42
22.51
17.93
15.22
13.86
12.64
10.42
6.80
2.32
-1.93
-4.93
-6.33
-6.50
-6.30
-6.64
-8.09
-10.66
-13.92
-17.34
-20.30
-22.44
-23.74
-24.33
-24.31
-23.89
-23.55
-24.16
-26.71
-31.59
-38.09
-44.22
-47.54
-46.40
-40.96
-33.25
-26.18
-21.93
-20.71
-20.77
-19.44
-14.73
-6.44
4.01
14.45
23.15
29.50
33.85
36.80
38.70
39.55
38.91
36.66
33.17
29.23
25.71
23.19
21.73
20.97
20.55
20.23
20.00
19.87
19.62
18.84
17.08
14.10
10.01
5.13
-0.26
-6.11
-12.59
-19.87
-27.66
-35.25
-41.54
-45.49
-46.55
-44.87
-41.14
-36.30
-31.17
-26.18
-21.39
-16.63
-11.64
-6.34
-0.85
4.57
9.55
13.85
17.39
20.31
22.85
25.28
27.73
30.22
32.62
34.77
36.46
37.50
37.76
37.15
35.69
33.43
30.52
27.20
23.77
20.58
18.06
16.51
16.03
16.35
16.86
16.83
15.70
13.23
9.74
5.86
2.30
-0.40
-1.94
-2.49
-2.77
-3.97
-7.36
-13.68
-22.49
-32.08
-40.01
-44.10
-43.41
-38.72
-32.03
-25.59
-20.84
-17.97
-16.10
-13.94
-10.40
-4.86
2.81
12.44
23.37
34.24
43.00
47.59
46.68
40.43
30.69
20.38
12.33
8.15
7.80
9.92
12.75
15.05
16.49
17.42
18.25
18.87
18.62
16.68
12.77
7.39
1.84
-2.28
-3.86
-2.79
0.04
3.06
4.63
3.81
0.62
-4.24
-10.14
-17.15
-25.97
-37.39
-51.42
-66.99
-82.28
-95.62
-106.08
-113.63
-118.58
-120.86
-119.95
-115.29
-107.08
-96.56
-85.70
-76.25
-68.82
-62.68
-56.25
-48.32
-38.54
-27.38
-15.59
-3.88
7.48
18.51
29.14
39.17
48.24
56.07
62.59
68.05
72.95
77.98
83.81
90.79
98.89
107.55
116.02
123.63
130.02
135.36
140.26
145.54
151.81
159.13
166.81
173.34
176.99
176.19
170.28
159.66
145.72
130.09
114.09
98.16
81.94
64.75
46.15
26.41
6.42
-12.67
-30.09
-45.81
-60.66
-75.94
-92.83
-111.70
-131.64
-150.54
-165.70
-174.78
-176.63
-171.64
-161.51
-148.61
-135.38
-123.78
-115.10
-109.93
-108.10
-108.78
-110.55
-111.44
-108.85
-99.74
-81.29
-52.30
-14.57
26.63
63.39
87.58
93.83
81.80
56.47
26.27
-0.17
-17.11
-23.16
-20.74
-14.03
-6.81
-1.08
2.89
5.59
7.20
6.99
3.62
-3.84
-14.88
-27.17
-37.26
-42.20
-40.96
-35.10
-27.97
-23.11
-22.47
-25.48
-29.48
-31.20
-28.26
-20.06
-7.74
6.76
21.55
35.40
47.81
58.64
67.77
74.93
79.81
82.12
81.73
78.85
74.04
68.38
63.19
59.69
58.50
59.34
61.03
61.90
60.34
55.30
46.62
34.95
21.69
8.54
-2.96
-11.83
-17.90
-21.78
-24.46
-26.71
-28.83
-30.56
-31.46
-31.45
-31.01
-30.99
-32.07
-34.43
-37.67
-41.22
-44.78
-48.40
-52.18
-55.85
-58.49
-58.88
-56.17
-50.41
-42.66
-34.47
-27.14
-21.18
-16.34
-12.01
-7.75
-3.43
0.88
5.25
10.02
15.73
22.65
30.51
38.35
44.82
48.62
49.08
46.39
41.44
35.65
30.58
27.58
27.67
31.30
38.09
46.81
55.59
62.30
65.37
64.42
60.27
54.27
47.75
40.99
33.54
25.10
16.41
9.38
6.05
7.18
11.32
15.23
15.29
9.24
-3.12
-20.51
-41.32
-64.43
-88.97
-113.25
-134.23
-148.09
-151.85
-145.30
-131.48
-115.46
-101.96
-93.25
-88.44
-84.71
-79.19
-70.42
-58.71
-45.69
-32.81
-20.72
-9.23
2.25
14.06
25.88
36.87
46.04
52.70
56.78
58.76
59.39
59.40
59.28
59.14
58.82
58.07
56.74
54.89
52.81
50.85
49.27
48.16
47.38
46.73
45.98
45.04
43.94
42.82
41.71
40.32
38.00
33.97
27.73
19.49
10.35
1.90
-4.33
-7.52
-7.81
-6.25
-4.16
-2.57
-1.84
-1.71
-1.61
-1.07
0.18
2.12
4.69
7.82
11.48
15.60
20.02
24.52
28.81
32.65
35.87
38.33
39.80
39.89
38.10
34.02
27.63
19.42
10.26
1.08
-7.51
-15.48
-23.28
-31.51
-40.48
-49.98
-59.29
-67.48
-73.76
-77.78
-79.64
-79.70
-78.27
-75.42
-70.92
-64.28
-54.84
-42.17
-26.38
-8.35
10.19
27.17
40.83
50.32
55.85
58.48
59.31
59.07
58.10
56.67
55.17
53.77
51.74
47.17
37.54
21.10
-1.64
-27.72
-53.00
-74.14
-90.04
-101.80
-111.24
-119.13
-124.50
-125.48
-121.17
-112.71
-102.97
-94.83
-89.34
-85.20
-79.68
-70.54
-57.48
-42.43
-28.78
-19.76
-17.32
-21.69
-31.70
-45.63
-61.89
-79.29
-97.12
-114.79
-131.70
-147.12
-160.42
-171.42
-180.81
-190.30
-202.40
-219.58
-243.15
-272.20
-303.19
-330.48
-347.83
-350.34
-336.13
-306.72
-266.38
-220.37
-173.06
-126.82
-81.97
-37.52
7.85
54.88
103.24
151.50
197.26
237.55
269.38
290.41
299.62
297.72
287.05
270.97
253.11
236.41
222.66
212.30
204.77
198.87
193.32
187.11
179.62
170.76
160.84
150.55
140.70
132.14
125.49
120.88
117.98
116.14
114.70
113.16
111.21
108.65
105.33
101.16
96.22
90.97
86.08
82.11
79.21
76.91
74.42
70.99
66.42
61.24
56.48
53.06
51.32
50.85
50.71
50.07
48.57
46.52
44.62
43.57
43.62
44.50
45.61
46.41
46.62
46.43
46.38
47.02
48.60
50.84
52.86
53.43
51.33
45.96
37.74
28.08
18.97
12.33
9.20
9.39
11.58
13.87
14.57
12.74
8.31
1.91
-5.57
-13.23
-20.37
-26.47
-31.16
-34.33
-36.11
-36.98
-37.54
-38.29
-39.39
-40.72
-41.97
-42.99
-44.00
-45.34
-47.24
-49.45
-51.28
-51.82
-50.46
-47.22
-42.76
-38.07
-33.91
-30.48
-27.38
-23.96
-19.80
-15.00
-10.14
-5.98
-3.04
-1.37
-0.69
-0.56
-0.66
-0.87
-1.19
-1.66
-2.23
-2.87
-3.68
-4.91
-6.95
-10.04
-14.14
-18.79
-23.27
-26.84
-29.11
-30.21
-30.72
-31.43
-32.92
-35.39
-38.59
-42.02
-45.18
-47.68
-49.20
-49.47
-48.27
-45.58
-41.86
-38.02
-35.17
-34.05
-34.56
-35.63
-35.59
-32.98
-27.19
-18.76
-9.07
0.35
8.42
14.88
19.96
24.04
27.25
29.42
30.25
29.56
27.49
24.47
21.11
18.03
15.69
14.29
13.72
13.60
13.41
12.68
11.22
9.18
6.95
4.86
2.93
0.83
-1.93
-5.66
-10.18
-14.86
-18.86
-21.54
-22.69
-22.68
-22.27
-22.34
-23.56
-26.16
-29.88
-34.08
-38.01
-41.03
-42.76
-43.05
-41.93
-39.39
-35.48
-30.43
-24.71
-19.04
-14.10
-10.19
-7.09
-4.24
-1.07
2.57
6.32
9.59
11.96
13.43
14.43
15.50
16.95
18.70
20.32
21.34
21.52
20.97
20.04
19.08
18.21
17.19
15.55
12.82
8.84
3.83
-1.64
-6.92
-11.56
-15.52
-19.10
-22.72
-26.62
-30.74
-34.69
-37.95
-39.99
-40.40
-38.90
-35.44
-30.21
-23.60
-16.20
-8.60
-1.33
5.32
11.23
16.43
20.99
25.00
28.59
31.79
34.54
36.64
37.81
37.96
37.27
36.27
35.61
35.74
36.70
38.12
39.47
40.40
40.90
41.19
41.49
41.85
42.07
41.92
41.33
40.49
39.68
39.12
38.76
38.36
37.55
36.10
33.99
31.35
28.37
25.11
21.56
17.71
13.75
10.17
7.65
6.90
8.29
11.63
16.04
20.18
22.65
22.38
19.05
13.08
5.54
-2.21
-8.77
-13.08
-14.59
-13.26
-9.58
-4.24
2.08
8.88
15.88
22.98
30.06
36.94
43.47
49.54
55.13
60.25
64.62
67.61
68.20
65.14
57.30
43.98
25.04
1.11
-26.49
-55.85
-84.79
-111.14
-133.25
-150.19
-161.73
-168.30
-170.66
-169.60
-165.92
-160.34
-153.42
-145.52
-136.66
-126.38
-114.06
-99.13
-81.49
-61.79
-41.24
-21.36
-3.43
11.80
24.28
34.39
42.75
49.84
55.86
60.70
64.06
65.56
64.98
62.47
58.62
54.54
51.53
50.69
52.44
56.29
61.03
65.22
67.85
68.67
68.16
67.05
65.81
64.39
62.34
59.24
55.10
50.39
45.78
41.79
38.47
35.47
32.29
28.45
23.68
17.92
11.24
3.82
-3.95
-11.51
-18.28
-23.73
-27.63
-30.04
-31.26
-31.61
-31.26
-30.20
-28.35
-25.66
-22.28
-18.47
-14.63
-11.07
-7.90
-4.89
-1.64
2.27
6.95
12.00
16.57
19.67
20.66
19.64
17.56
15.91
15.98
18.37
22.65
27.57
31.68
33.91
33.95
32.25
29.70
27.22
25.49
24.79
25.06
25.83
26.15
25.09
22.22
18.34
15.65
17.23
25.57
41.03
60.73
78.78
87.89
82.07
58.94
20.86
-25.71
-72.48
-111.93
-139.31
-153.37
-155.56
-148.71
-135.76
-119.08
-100.47
-81.60
-64.19
-49.79
-39.30
-32.61
-28.64
-25.88
-23.03
-19.58
-15.95
-13.16
-12.25
-13.69
-17.05
-21.14
-24.48
-25.85
-24.71
-21.40
-16.87
-12.25
-8.37
-5.54
-3.50
-1.61
0.80
4.14
8.42
13.22
17.88
21.81
24.68
26.53
27.67
28.54
29.42
30.37
31.24
31.78
31.86
31.53
30.97
30.50
30.38
30.73
31.47
32.30
32.80
32.65
31.68
29.99
27.85
25.50
23.07
20.46
17.54
14.32
11.05
8.12
5.94
4.70
4.28
4.38
4.55
4.45
3.89
2.95
1.96
1.55
2.36
4.80
8.83
13.89
19.21
24.17
28.75
33.47
39.21
46.64
55.88
66.41
77.25
87.32
95.55
100.92
102.58
99.94
93.00
82.49
69.83
56.68
44.46
33.97
25.32
18.11
11.70
5.39
-1.57
-9.90
-20.21
-32.75
-47.27
-62.99
-78.75
-93.04
-104.17
-110.63
-111.70
-108.20
-102.74
-99.00
-100.33
-108.26
-121.69
-137.43
-151.60
-161.05
-164.29
-161.17
-152.33
-138.47
-120.25
-98.55
-74.66
-50.24
-27.02
-6.62
9.52
20.08
24.18
21.84
14.42
4.49
-5.06
-12.13
-16.30
-18.78
-21.46
-25.82
-31.95
-38.56
-43.74
-45.97
-44.74
-40.63
-34.62
-27.62
-20.19
-12.74
-6.01
-1.02
1.43
1.55
1.08
2.82
9.38
21.74
38.53
56.40
71.51
81.25
85.20
84.80
82.25
79.17
75.96
72.05
66.48
58.53
47.94
34.70
18.90
0.84
-18.68
-38.24
-55.84
-69.42
-77.49
-79.58
-76.26
-68.77
-58.44
-46.28
-32.84
-18.38
-3.20
12.10
26.57
39.11
48.81
55.37
59.21
61.37
63.13
65.51
69.04
73.54
78.11
81.32
81.54
77.53
69.13
57.58
45.38
35.47
30.13
29.92
33.62
38.84
43.31
46.00
47.42
49.08
52.46
58.17
65.55
72.81
77.54
77.28
70.25
56.08
36.14
13.42
-8.28
-25.57
-36.58
-41.27
-41.12
-38.10
-33.79
-29.02
-23.97
-18.55
-12.67
-6.44
-0.32
4.67
6.93
4.73
-2.98
-15.76
-31.48
-46.93
-59.09
-66.38
-69.11
-68.89
-67.49
-65.80
-63.69
-60.49
-55.90
-50.45
-45.20
-41.09
-38.25
-35.94
-33.16
-29.38
-25.00
-21.35
-19.88
-21.45
-25.89
-32.08
-38.56
-44.16
-48.34
-51.15
-52.98
-54.10
-54.48
-53.79
-51.65
-47.93
-42.95
-37.46
-32.26
-27.86
-24.01
-19.76
-14.08
-6.49
2.50
11.41
18.47
22.43
23.12
21.48
19.00
16.94
15.82
15.31
14.52
12.57
9.09
4.34
-0.85
-5.41
-8.35
-9.08
-7.55
-4.25
-0.07
3.95
6.87
8.12
7.65
6.04
4.44
4.32
7.03
13.33
23.09
35.32
48.53
61.30
72.61
82.04
89.45
94.81
97.90
98.50
96.59
92.63
87.43
81.87
76.54
71.41
66.03
59.89
52.96
45.83
39.77
36.24
36.44
40.88
49.19
60.15
71.99
82.79
90.87
95.25
96.09
94.78
93.66
94.85
98.87
103.79
105.15
97.33
75.53
37.86
-13.40
-72.03
-129.53
-177.51
-209.97
-224.63
-222.74
-207.81
-184.00
-154.83
-122.78
-89.86
-58.33
-31.04
-10.98
-0.23
1.16
-4.67
-14.22
-23.96
-31.68
-36.97
-40.73
-44.54
-49.52
-56.02
-63.71
-71.85
-79.82
-87.27
-94.05
-100.01
-104.76
-107.47
-106.98
-102.23
-92.67
-78.68
-61.63
-43.42
-26.07
-11.18
0.24
7.51
9.98
6.89
-2.30
-17.36
-36.83
-58.23
-78.73
-96.07
-109.18
-118.28
-124.32
-128.50
-131.97
-135.69
-140.32
-145.64
-150.24
-151.64
-147.19
-135.38
-116.97
-95.01
-73.51
-55.84
-43.50
-36.08
-32.29
-31.05
-31.77
-34.15
-37.41
-40.17
-41.05
-39.58
-36.53
-33.48
-31.74
-31.53
-32.09
-32.34
-31.60
-29.70
-26.30
-20.46
-10.74
3.78
22.31
42.20
59.93
72.89
80.78
85.50
89.82
95.21
100.87
104.11
102.21
94.64
83.81
74.13
70.03
73.75
84.49
99.21
114.25
127.10
137.20
145.41
152.77
159.43
164.29
165.65
162.27
154.14
142.50
129.24
115.87
103.10
90.81
78.62
66.40
54.67
44.46
36.78
32.20
30.53
30.93
32.21
33.25
33.23
31.79
28.99
25.19
20.92
16.75
13.15
10.33
8.21
6.59
5.31
4.41
4.13
4.73
6.24
8.35
10.45
11.92
12.48
12.29
11.93
12.12
13.38
15.80
19.10
22.71
25.97
28.40
29.79
30.27
30.29
30.38
30.96
32.18
33.85
35.67
37.37
39.02
40.99
43.72
47.38
51.67
55.89
59.29
61.47
62.58
63.19
64.02
65.56
68.01
71.41
75.76
81.14
87.71
95.58
104.76
115.23
127.01
140.07
154.18
168.59
182.03
193.16
201.17
206.34
209.88
213.08
216.09
217.13
212.61
198.41
171.52
131.31
80.03
22.27
-36.14
-89.38
-132.85
-164.22
-183.99
-195.36
-203.14
-211.87
-224.00
-238.83
-252.87
-261.61
-261.81
-253.40
-240.09
-228.54
-226.36
-239.54
-270.13
-314.98
-365.97
-412.00
-442.22
-449.53
-432.73
-396.52
-349.33
-300.05
-255.32
-218.22
-188.79
-165.50
-146.42
-129.82
-113.79
-95.97
-73.76
-45.36
-10.74
27.88
66.64
101.41
129.27
149.29
162.33
170.12
174.28
175.73
174.64
170.75
163.89
154.20
142.28
129.14
116.18
104.99
97.01
93.08
93.06
95.81
99.46
102.14
102.60
100.54
96.53
91.49
86.13
80.64
74.78
68.13
60.44
51.72
42.21
32.23
22.27
12.99
5.21
-0.33
-3.34
-4.23
-3.99
-3.81
-4.46
-5.96
-7.63
-8.52
-8.03
-6.14
-3.36
-0.28
2.73
5.69
8.77
12.00
15.13
17.91
20.33
22.89
26.33
31.16
37.16
43.22
47.72
49.34
47.70
43.61
38.79
35.13
33.95
35.64
39.64
44.82
50.04
54.41
57.54
59.50
60.73
61.79
63.08
64.56
65.67
65.51
63.08
57.59
48.67
36.37
21.07
3.52
-15.17
-33.55
-50.01
-63.27
-72.88
-79.42
-84.28
-88.87
-93.98
-99.33
-103.85
-106.35
-106.26
-103.85
-100.03
-95.70
-91.06
-85.48
-77.90
-67.46
-54.00
-38.30
-21.64
-5.57
8.52
19.54
26.90
30.61
31.46
30.78
30.04
30.14
31.12
32.36
33.11
33.18
32.99
33.24
34.05
34.50
32.89
27.55
17.82
4.48
-10.70
-25.69
-39.12
-50.76
-61.39
-72.26
-84.52
-98.53
-113.45
-127.23
-137.03
-140.14
-135.10
-122.36
-104.30
-84.22
-65.13
-48.83
-35.80
-25.95
-19.47
-16.97
-18.83
-24.27
-30.85
-35.10
-33.99
-26.39
-13.57
1.64
16.47
29.58
41.32
53.01
65.65
79.04
91.75
101.91
108.17
110.25
108.96
105.71
101.83
98.14
94.77
91.41
87.63
83.20
78.26
73.14
68.06
62.89
57.08
49.96
41.23
31.22
20.95
11.73
4.61
-0.07
-2.78
-4.57
-6.52
-9.28
-12.92
-17.09
-21.41
-25.84
-30.78
-36.83
-44.44
-53.58
-63.78
-74.40
-84.97
-95.17
-104.59
-112.25
-116.60
-115.86
-108.88
-95.81
-78.30
-58.92
-40.18
-23.75
-10.17
0.71
9.21
15.45
19.51
21.73
22.92
24.19
26.47
30.10
34.65
39.26
43.10
45.68
47.03
47.53
47.62
47.58
47.47
47.22
46.72
45.98
45.10
44.26
43.63
43.27
43.13
43.10
43.04
42.82
42.35
41.56
40.38
38.78
36.80
34.52
32.07
29.53
26.89
24.07
20.99
17.68
14.30
11.12
8.42
6.30
4.66
3.27
1.86
0.24
-1.59
-3.56
-5.57
-7.55
-9.46
-11.25
-12.80
-13.95
-14.56
-14.61
-14.17
-13.37
-12.28
-10.92
-9.19
-7.02
-4.37
-1.29
2.03
5.32
8.26
10.51
11.85
12.23
11.78
10.74
9.34
7.75
5.99
4.09
2.13
0.29
-1.12
-1.83
-1.78
-1.13
-0.29
0.23
0.03
-1.06
-2.87
-4.91
-6.63
-7.58
-7.67
-7.19
-6.72
-6.80
-7.74
-9.48
-11.63
-13.74
-15.50
-16.82
-17.89
-18.94
-20.13
-21.48
-22.85
-24.07
-25.05
-25.78
-26.30
-26.61
-26.58
-26.05
-24.90
-23.12
-20.81
-18.11
-15.08
-11.70
-7.88
-3.54
1.29
6.47
11.85
17.29
22.61
27.62
32.04
35.58
38.02
39.27
39.52
39.09
38.38
37.82
37.73
38.20
39.11
40.05
40.47
39.91
38.21
35.55
32.34
28.87
25.01
20.25
13.93
5.72
-4.15
-14.84
-25.26
-34.47
-41.96
-47.60
-51.53
-53.87
-54.62
-53.75
-51.45
-48.13
-44.49
-41.30
-39.16
-38.26
-38.41
-38.99
-39.28
-38.71
-37.01
-34.26
-30.83
-27.07
-23.24
-19.41
-15.52
-11.52
-7.49
-3.66
-0.29
2.46
4.63
6.46
8.30
10.37
12.74
15.22
17.54
19.36
20.53
21.06
21.12
20.91
20.62
20.41
20.27
20.23
20.18
20.04
19.74
19.23
18.54
17.74
16.94
16.20
15.60
15.15
14.83
14.55
14.18
13.48
12.21
10.22
7.56
4.57
1.75
-0.50
-1.95
-2.78
-3.38
-4.25
-5.67
-7.71
-10.14
-12.64
-14.99
-17.03
-18.75
-20.14
-21.19
-21.80
-21.85
-21.21
-19.69
-17.22
-13.76
-9.46
-4.65
0.20
4.63
8.28
11.03
12.95
14.24
15.09
15.59
15.74
15.44
14.67
13.50
12.10
10.69
9.50
8.72
8.34
8.32
8.53
8.81
8.99
8.95
8.61
7.94
7.00
5.84
4.54
3.18
1.82
0.50
-0.75
-1.87
-2.88
-3.84
-4.82
-5.89
-7.02
-8.04
-8.79
-9.21
-9.38
-9.55
-9.98
-10.77
-11.73
-12.45
-12.42
-11.24
-8.84
-5.43
-1.39
2.86
7.03
11.00
14.80
18.52
22.18
25.70
28.88
31.50
33.35
34.31
34.24
33.02
30.54
26.83
22.14
17.01
12.11
8.18
5.75
5.00
5.79
7.80
10.58
13.70
16.83
19.68
22.09
24.04
25.67
27.17
28.79
30.60
32.50
34.28
35.66
36.43
36.51
35.82
34.27
31.69
27.92
22.99
17.26
11.34
6.00
1.82
-0.98
-2.56
-3.34
-3.71
-3.89
-3.79
-3.10
-1.37
1.85
6.78
13.32
20.87
28.41
34.73
38.84
40.43
40.04
39.01
39.14
42.14
49.14
60.21
74.04
87.74
97.28
98.40
88.12
66.24
36.12
4.05
-22.86
-39.54
-45.36
-44.86
-46.20
-57.86
-85.05
-127.41
-179.03
-230.80
-273.63
-301.15
-310.62
-302.33
-278.16
-240.51
-192.20
-137.01
-80.01
-26.97
17.25
50.41
73.57
90.39
104.97
119.57
133.38
143.01
144.22
134.10
112.42
81.72
46.18
10.01
-23.77
-53.60
-78.90
-99.28
-114.07
-122.49
-124.21
-119.94
-111.49
-101.30
-91.54
-83.43
-77.02
-71.48
-65.65
-58.57
-49.77
-39.23
-27.36
-14.91
-2.93
7.47
15.30
20.11
22.00
21.48
19.08
15.04
9.20
1.42
-8.12
-18.74
-29.45
-39.35
-47.85
-54.57
-58.86
-59.69
-55.83
-46.53
-32.19
-14.63
3.38
19.07
30.65
37.75
41.19
42.24
42.02
41.19
40.15
39.37
39.54
41.43
45.44
51.39
58.49
65.70
72.23
77.96
83.51
89.91
98.02
107.97
118.92
129.26
137.31
141.96
143.22
142.03
139.90
138.17
137.62
138.29
139.55
140.18
138.33
131.74
118.26
96.94
69.08
38.60
11.16
-7.88
-15.59
-12.83
-3.90
5.44
10.34
8.48
0.21
-12.65
-28.34
-45.92
-64.98
-84.71
-103.24
-117.94
-126.56
-128.51
-125.33
-120.02
-115.53
-113.42
-113.39
-113.94
-113.60
-111.95
-109.67
-107.90
-107.34
-107.81
-108.53
-108.72
-108.17
-107.33
-106.82
-106.96
-107.40
-107.29
-105.69
-102.06
-96.51
-89.77
-82.84
-76.60
-71.61
-67.87
-65.01
-62.28
-58.81
-53.76
-46.47
-36.54
-23.93
-8.91
7.86
25.37
42.52
58.17
71.38
81.46
88.03
91.00
90.48
86.86
80.67
72.63
63.62
54.62
46.62
40.51
36.95
36.18
37.96
41.58
45.91
49.65
51.59
50.89
47.31
41.27
33.79
26.27
20.13
16.52
15.95
18.22
22.48
27.50
32.08
35.37
37.00
37.05
35.91
34.08
32.04
30.19
28.83
28.21
28.50
29.91
32.64
36.93
42.89
50.32
58.49
66.21
72.15
75.22
75.11
72.36
68.28
64.45
62.25
62.28
64.22
66.91
68.71
68.09
64.22
57.24
48.23
38.79
30.51
24.50
21.34
21.06
23.01
25.55
25.84
20.41
6.32
-17.28
-48.19
-81.55
-111.44
-133.08
-144.40
-146.27
-141.28
-132.19
-120.72
-107.68
-93.73
-80.17
-69.17
-62.97
-62.86
-68.29
-76.91
-85.34
-90.46
-90.43
-85.27
-76.42
-65.89
-55.30
-45.35
-35.93
-26.61
-17.28
-8.45
-1.10
3.80
5.79
5.26
3.41
1.84
2.02
4.86
10.30
17.37
24.55
30.24
33.37
33.69
31.71
28.39
24.67
21.11
17.81
14.60
11.31
7.93
4.64
1.62
-1.03
-3.35
-5.40
-7.21
-8.61
-9.35
-9.25
-8.34
-6.93
-5.42
-4.16
-3.21
-2.32
-1.09
0.90
3.90
7.94
12.89
18.56
24.64
30.79
36.57
41.57
45.48
48.31
50.37
52.12
53.98
56.13
58.40
60.38
61.61
61.80
60.94
59.37
57.57
56.04
55.09
54.73
54.74
54.65
54.00
52.45
49.88
46.33
41.95
36.81
30.89
24.07
16.29
7.79
-1.01
-9.50
-17.19
-23.76
-29.12
-33.22
-35.97
-37.24
-37.02
-35.60
-33.56
-31.62
-30.31
-29.77
-29.72
-29.61
-28.92
-27.34
-24.87
-21.77
-18.38
-15.03
-11.97
-9.26
-6.90
-4.82
-3.02
-1.63
-0.83
-0.77
-1.45
-2.76
-4.49
-6.39
-8.26
-9.91
-11.18
-11.89
-11.94
-11.29
-10.06
-8.39
-6.44
-4.28
-1.89
0.77
3.55
6.01
7.25
6.16
1.78
-6.04
-16.23
-26.48
-33.94
-36.23
-32.45
-23.55
-11.89
-0.20
9.44
16.13
20.01
21.63
21.39
19.34
15.47
10.11
4.08
-1.52
-5.78
-8.41
-9.82
-10.88
-12.33
-14.44
-16.84
-18.74
-19.35
-18.21
-15.36
-11.25
-6.59
-2.07
1.71
4.34
5.70
6.01
5.82
5.79
6.56
8.40
11.15
14.36
17.50
20.25
22.54
24.52
26.32
28.02
29.60
31.03
32.24
33.14
33.59
33.43
32.58
31.24
29.93
29.50
30.82
34.59
40.97
49.53
59.27
68.84
76.87
82.26
84.52
83.81
81.04
77.64
75.23
75.16
77.99
83.02
88.20
90.47
86.54
74.08
52.63
24.10
-7.59
-37.69
-62.22
-79.25
-89.45
-95.48
-100.59
-107.06
-115.12
-123.02
-128.00
-127.72
-121.47
-110.63
-98.44
-88.89
-85.45
-89.88
-101.33
-116.43
-130.13
-137.36
-134.78
-121.88
-100.96
-75.89
-50.51
-27.21
-6.63
11.68
28.12
42.41
53.76
61.82
67.40
72.33
78.54
86.72
95.75
103.11
106.28
104.16
97.51
88.35
78.69
69.41
60.12
49.87
38.17
25.29
11.96
-1.47
-15.34
-30.26
-46.25
-62.07
-75.32
-83.44
-84.87
-79.73
-69.66
-56.91
-43.32
-29.92
-17.03
-4.79
6.52
16.49
24.87
31.51
36.11
37.68
34.51
24.75
7.56
-16.05
-43.04
-69.18
-90.43
-104.27
-110.16
-109.36
-104.16
-97.03
-90.03
-84.53
-81.08
-79.35
-78.30
-76.51
-72.69
-66.07
-56.65
-45.10
-32.55
-20.19
-9.21
-0.53
5.41
8.80
10.39
11.12
11.76
12.55
13.33
13.86
14.16
14.76
16.46
19.85
24.94
31.05
37.14
42.30
46.05
48.45
49.87
50.70
51.16
51.40
51.56
51.83
52.46
53.59
55.22
57.19
59.18
60.89
62.13
62.82
63.12
63.43
64.21
65.74
67.63
68.66
66.95
60.69
49.08
32.95
14.83
-1.73
-13.21
-17.32
-13.58
-3.48
9.98
23.09
32.36
35.39
31.31
20.83
5.77
-11.65
-29.41
-46.18
-61.15
-73.85
-83.82
-90.55
-93.60
-92.70
-87.95
-79.89
-69.53
-58.34
-47.90
-39.56
-34.00
-31.06
-29.89
-29.46
-29.03
-28.43
-27.98
-28.06
-28.83
-30.03
-31.17
-31.76
-31.59
-30.70
-29.33
-27.65
-25.74
-23.55
-21.06
-18.36
-15.73
-13.58
-12.32
-12.19
-13.19
-14.99
-17.00
-18.54
-18.86
-17.37
-13.78
-8.18
-1.09
6.70
14.36
21.31
27.30
32.41
36.78
40.46
43.29
45.02
45.48
44.70
42.97
40.69
38.19
35.58
32.76
29.50
25.70
21.49
17.34
13.92
11.92
11.82
13.69
17.27
22.01
27.34
32.76
37.91
42.52
46.40
49.52
51.96
53.99
55.87
57.79
59.71
61.34
62.27
62.16
60.88
58.58
55.59
52.28
48.93
45.69
42.44
38.90
34.77
29.84
24.10
17.86
11.56
5.60
0.17
-4.89
-9.95
-15.39
-21.42
-27.95
-34.67
-41.27
-47.54
-53.52
-59.35
-65.19
-71.00
-76.60
-81.65
-85.89
-89.27
-92.06
-94.74
-97.81
-101.63
-106.17
-111.03
-115.47
-118.57
-119.36
-116.90
-110.48
-99.86
-85.33
-67.84
-48.74
-29.50
-11.35
4.96
19.14
31.24
41.38
49.61
55.91
60.24
62.68
63.47
63.02
61.86
60.51
59.42
58.87
58.92
59.41
60.05
60.55
60.72
60.54
60.07
59.41
58.65
57.75
56.67
55.37
53.87
52.30
50.68
49.00
47.09
44.76
41.90
38.56
34.99
31.52
28.41
25.81
23.61
21.59
19.47
17.06
14.38
11.61
9.04
6.99
5.72
5.28
5.56
6.36
7.43
8.58
9.66
10.51
10.92
10.65
9.52
7.46
4.64
1.49
-1.44
-3.65
-4.86
-5.01
-4.22
-2.58
-0.15
3.08
7.04
11.49
15.97
20.00
23.20
25.50
27.08
28.14
28.65
28.22
26.20
22.05
15.70
7.66
-1.12
-9.62
-17.18
-23.70
-29.64
-35.67
-42.30
-49.64
-57.40
-65.06
-72.14
-78.34
-83.56
-87.70
-90.59
-91.89
-91.24
-88.48
-83.81
-77.76
-71.07
-64.38
-58.03
-52.05
-46.22
-40.29
-34.11
-27.66
-21.04
-14.33
-7.64
-1.05
5.31
11.30
16.84
21.93
26.71
31.34
35.87
40.23
44.22
47.54
49.95
51.29
51.51
50.67
48.95
46.56
43.77
40.83
37.99
35.59
34.06
33.83
34.99
36.95
38.30
37.16
31.79
21.46
6.77
-10.44
-27.76
-42.99
-54.61
-61.97
-65.09
-64.49
-61.01
-55.77
-49.88
-44.27
-39.35
-34.93
-30.38
-25.08
-18.76
-11.69
-4.52
2.03
7.52
11.93
15.59
19.01
22.69
26.93
31.72
36.68
41.13
44.19
45.04
43.23
38.90
32.74
25.80
19.14
13.48
9.07
5.82
3.54
2.11
1.49
1.65
2.35
3.21
3.82
3.93
3.54
2.95
2.48
2.30
2.31
2.17
1.53
0.19
-1.73
-3.84
-5.68
-6.83
-7.18
-6.95
-6.64
-6.81
-7.91
-10.05
-12.96
-16.13
-19.00
-21.22
-22.81
-24.10
-25.55
-27.59
-30.44
-34.05
-38.07
-41.83
-44.50
-45.22
-43.44
-39.07
-32.66
-25.13
-17.56
-10.71
-4.88
0.07
4.43
8.50
12.39
16.14
19.78
23.40
27.05
30.59
33.69
35.91
36.96
36.88
36.01
34.89
33.91
33.21
32.57
31.67
30.22
28.14
25.56
22.69
19.77
16.88
14.05
11.17
8.10
4.69
0.83
-3.52
-8.27
-13.12
-17.81
-22.12
-26.02
-29.64
-33.24
-36.94
-40.68
-44.11
-46.76
-48.27
-48.44
-47.35
-45.15
-41.98
-37.81
-32.53
-26.12
-18.81
-11.03
-3.11
4.99
13.85
24.35
37.19
52.33
68.78
84.85
98.74
109.24
115.95
119.07
119.00
115.96
110.02
101.42
90.96
80.01
70.07
62.20
56.36
51.54
46.19
39.01
29.52
18.22
6.29
-5.03
-14.86
-22.97
-29.51
-34.90
-39.49
-43.53
-47.18
-50.67
-54.19
-57.76
-61.05
-63.22
-63.24
-60.26
-54.11
-45.52
-36.03
-27.45
-21.20
-17.91
-17.32
-18.57
-20.64
-22.69
-24.19
-24.78
-24.27
-22.54
-19.62
-15.75
-11.41
-7.22
-3.76
-1.47
-0.47
-0.60
-1.35
-2.08
-2.16
-1.20
0.76
3.27
5.63
7.17
7.49
6.50
4.48
1.84
-0.90
-3.28
-4.94
-5.77
-5.99
-6.06
-6.47
-7.55
-9.21
-10.94
-12.03
-11.86
-10.16
-7.18
-3.52
0.04
2.77
4.20
4.12
2.51
-0.49
-4.64
-9.60
-14.90
-19.97
-24.22
-27.20
-28.70
-28.81
-27.88
-26.25
-24.13
-21.48
-18.15
-14.07
-9.34
-4.28
0.75
5.52
10.02
14.37
18.70
22.96
26.98
30.50
33.36
35.48
36.87
37.53
37.39
36.40
34.61
32.23
29.64
27.26
25.34
23.90
22.67
21.26
19.23
16.29
12.34
7.48
2.03
-3.63
-9.04
-13.82
-17.73
-20.65
-22.59
-23.66
-24.08
-24.18
-24.35
-24.97
-26.36
-28.61
-31.59
-34.96
-38.35
-41.44
-44.12
-46.50
-48.79
-51.18
-53.70
-56.03
-57.60
-57.69
-55.68
-51.30
-44.80
-36.86
-28.35
-20.04
-12.30
-5.14
1.70
8.51
15.37
22.13
28.41
33.78
37.86
40.43
41.50
41.22
39.93
38.03
35.96
34.09
32.69
31.86
31.65
31.97
32.68
33.50
34.04
33.86
32.65
30.30
26.95
22.99
18.83
14.72
10.70
6.50
1.78
-3.75
-10.10
-16.97
-23.75
