1556219881.00
64.000000
-0.00
-0.00
-0.00
-0.00
-0.00
-0.00
-0.00
-0.00
-0.00
-0.00
0.00
0.01
0.01
-0.00
-0.03
-0.05
-0.05
0.00
0.13
0.36
0.66
1.01
1.37
1.72
2.06
2.40
2.79
3.24
3.80
4.42
5.06
5.66
6.20
6.68
7.15
7.68
8.31
9.15
10.09
11.05
11.89
12.56
13.13
13.75
14.66
15.99
17.97
20.38
22.93
25.32
27.37
29.18
31.08
33.56
36.94
41.61
47.19
53.10
58.75
63.75
68.19
72.59
77.67
83.99
92.07
101.33
110.91
119.84
127.55
134.11
140.24
147.39
154.30
163.20
174.54
188.22
202.87
215.54
222.02
217.93
200.18
168.05
123.86
71.13
13.80
-45.26
-104.60
-163.70
-222.19
-279.23
-333.65
-384.06
-430.04
-471.57
-508.67
-540.63
-565.70
-581.40
-585.17
-575.44
-551.95
-516.36
-471.50
-420.81
-367.67
-314.86
-264.08
-215.57
-168.05
-119.15
-66.61
-9.50
50.90
111.10
166.51
213.04
248.47
272.77
287.50
294.61
295.59
291.27
282.27
269.50
254.41
238.62
223.43
209.34
196.12
183.09
169.66
155.62
141.21
127.03
113.69
101.62
90.98
81.56
73.00
64.89
56.94
49.07
41.42
34.28
27.96
22.75
18.57
15.16
12.13
9.20
6.19
3.15
0.28
-2.17
-4.02
-5.27
-6.04
-6.57
-7.04
-7.57
-8.11
-8.62
-8.99
-9.20
-9.31
-9.33
-9.26
-9.06
-8.70
-8.21
-7.67
-7.22
-6.95
-6.88
-6.92
-6.90
-6.65
-6.02
-5.01
-3.74
-2.46
-1.46
-0.93
-0.89
-1.16
-1.50
-1.69
-1.68
-1.55
-1.44
-1.43
-1.47
-1.43
-1.20
-0.76
-0.20
0.33
0.71
0.83
0.63
0.11
-0.65
-1.53
-2.36
-3.00
-3.34
-3.41
-3.29
-3.08
-2.90
-2.81
-2.84
-2.97
-3.15
-3.26
-3.23
-2.99
-2.57
-2.02
-1.39
-0.73
-0.07
0.57
1.12
1.53
1.81
2.02
2.28
2.68
3.21
3.78
4.28
4.64
4.90
5.10
5.22
5.18
4.85
4.17
3.13
1.85
0.52
-0.71
-1.77
-2.70
-3.58
-4.42
-5.19
-5.76
-6.01
-5.88
-5.44
-4.86
-4.34
-4.05
-4.05
-4.30
-4.65
-4.97
-5.15
-5.14
-4.95
-4.59
-4.04
-3.37
-2.65
-2.01
-1.56
-1.37
-1.42
-1.56
-1.65
-1.59
-1.34
-1.01
-0.72
-0.59
-0.61
-0.70
-0.74
-0.63
-0.35
0.02
0.36
0.61
0.74
0.79
0.81
0.86
0.94
1.05
1.13
1.15
1.10
0.99
0.84
0.67
0.51
0.37
0.28
0.26
0.33
0.48
0.67
0.87
1.02
1.11
1.12
1.06
0.98
0.88
0.80
0.70
0.56
0.37
0.13
-0.18
-0.54
-0.92
-1.32
-1.71
-2.06
-2.34
-2.54
-2.65
-2.70
-2.72
-2.75
-2.83
-2.99
-3.23
-3.59
-4.05
-4.59
-5.10
-5.46
-5.55
-5.30
-4.73
-3.95
-3.09
-2.31
-1.65
-1.13
-0.72
-0.38
-0.09
0.14
0.32
0.45
0.53
0.58
0.59
0.58
0.57
0.55
0.55
0.55
0.54
0.52
0.52
0.58
0.74
1.01
1.38
1.76
2.05
2.16
2.06
1.81
1.54
1.38
1.44
1.71
2.07
2.36
2.43
2.24
1.84
1.40
1.05
0.85
0.78
0.74
0.65
0.44
0.14
-0.22
-0.62
-1.04
-1.47
-1.85
-2.09
-2.10
-1.84
-1.38
-0.89
-0.56
-0.51
-0.75
-1.13
-1.51
-1.72
-1.69
-1.44
-1.02
-0.50
0.07
0.62
1.15
1.61
1.97
2.23
2.36
2.38
2.29
2.15
1.99
1.83
1.67
1.52
1.36
1.22
1.12
1.07
1.06
1.05
1.05
1.06
1.14
1.36
1.73
2.21
2.69
3.04
3.20
3.15
2.95
2.70
2.48
2.34
2.29
2.31
2.38
2.51
2.70
2.95
3.18
3.30
3.23
2.95
2.49
1.96
1.44
1.03
0.69
0.37
0.02
-0.41
-0.86
-1.25
-1.51
-1.67
-1.77
-1.94
-2.26
-2.72
-3.20
-3.57
-3.73
-3.69
-3.56
-3.49
-3.61
-3.92
-4.30
-4.62
-4.74
-4.59
-4.18
-3.57
-2.90
-2.28
-1.81
-1.49
-1.29
-1.12
-0.95
-0.76
-0.60
-0.47
-0.36
-0.20
0.07
0.47
0.91
1.28
1.46
1.47
1.38
1.32
1.37
1.56
1.84
2.16
2.48
2.78
3.09
3.39
3.65
3.86
3.99
4.06
4.08
4.07
4.01
3.90
3.77
3.65
3.62
3.68
3.78
3.79
3.60
3.14
2.47
1.71
1.00
0.45
0.11
-0.04
-0.06
-0.00
0.03
-0.03
-0.27
-0.72
-1.35
-2.11
-2.87
-3.54
-4.04
-4.37
-4.54
-4.62
-4.72
-4.88
-5.15
-5.47
-5.77
-5.91
-5.80
-5.39
-4.73
-3.92
-3.08
-2.32
-1.66
-1.14
-0.74
-0.47
-0.32
-0.26
-0.25
-0.21
-0.09
0.14
0.44
0.78
1.08
1.34
1.54
1.71
1.87
1.99
2.01
1.90
1.69
1.46
1.33
1.40
1.70
2.14
2.60
2.98
3.19
3.22
3.10
2.84
2.52
2.19
1.95
1.85
1.89
1.98
2.01
1.83
1.36
0.62
-0.30
-1.21
-1.97
-2.53
-2.90
-3.20
-3.57
-4.09
-4.70
-5.25
-5.52
-5.40
-4.88
-4.10
-3.23
-2.42
-1.73
-1.17
-0.72
-0.34
-0.03
0.19
0.33
0.41
0.48
0.57
0.69
0.83
0.96
1.06
1.15
1.25
1.43
1.74
2.15
2.59
2.96
3.16
3.16
3.04
2.88
2.77
2.76
2.84
2.96
3.11
3.26
3.38
3.49
3.56
3.63
3.72
3.84
3.97
4.03
3.93
3.63
3.12
2.53
1.99
1.63
1.47
1.41
1.27
0.90
0.24
-0.63
-1.52
-2.22
-2.58
-2.54
-2.20
-1.74
-1.33
-1.12
-1.18
-1.49
-1.99
-2.56
-3.11
-3.56
-3.91
-4.18
-4.44
-4.76
-5.16
-5.64
-6.12
-6.48
-6.59
-6.36
-5.76
-4.84
-3.75
-2.69
-1.80
-1.17
-0.78
-0.57
-0.46
-0.39
-0.32
-0.19
0.02
0.34
0.77
1.27
1.74
2.10
2.29
2.28
2.09
1.84
1.64
1.63
1.87
2.32
2.86
3.32
3.60
3.71
3.74
3.81
3.99
4.26
4.56
4.81
4.97
5.00
4.91
4.66
4.23
3.66
3.03
2.48
2.11
1.95
1.92
1.86
1.62
1.13
0.42
-0.37
-1.11
-1.67
-1.99
-2.07
-1.99
-1.85
-1.75
-1.72
-1.79
-1.93
-2.09
-2.26
-2.46
-2.68
-2.96
-3.29
-3.64
-3.99
-4.36
-4.78
-5.29
-5.82
-6.23
-6.36
-6.05
-5.26
-4.12
-2.87
-1.75
-0.95
-0.52
-0.36
-0.32
-0.25
-0.08
0.18
0.44
0.66
0.87
1.11
1.40
1.72
1.94
1.99
1.86
1.64
1.47
1.45
1.57
1.76
1.93
2.07
2.24
2.54
2.99
3.50
3.91
4.13
4.14
4.02
3.86
3.66
3.39
3.00
2.50
1.98
1.56
1.29
1.13
0.95
0.62
0.11
-0.51
-1.13
-1.69
-2.17
-2.64
-3.12
-3.60
-4.00
-4.24
-4.34
-4.38
-4.51
-4.75
-5.01
-5.10
-4.84
-4.21
-3.36
-2.54
-1.96
-1.63
-1.43
-1.13
-0.61
0.10
0.82
1.36
1.64
1.72
1.76
1.94
2.33
2.85
3.31
3.51
3.35
2.88
2.25
1.70
1.40
1.41
1.68
2.08
2.49
2.85
3.18
3.50
3.80
4.04
4.15
4.07
3.82
3.47
3.15
2.96
2.88
2.85
2.73
2.45
2.03
1.54
1.11
0.78
0.52
0.21
-0.20
-0.72
-1.22
-1.59
-1.75
-1.75
-1.71
-1.75
-1.90
-2.10
-2.27
-2.33
-2.33
-2.36
-2.53
-2.87
-3.36
-3.86
-4.29
-4.62
-4.88
-5.15
-5.49
-5.86
-6.12
-6.12
-5.75
-5.01
-4.02
-2.96
-1.97
-1.14
-0.49
-0.01
0.30
0.45
0.46
0.42
0.42
0.53
0.76
1.03
1.26
1.40
1.47
1.55
1.71
1.96
2.23
2.43
2.50
2.50
2.51
2.64
2.91
3.23
3.46
3.50
3.34
3.07
2.84
2.75
2.84
3.03
3.21
3.30
3.27
3.12
2.90
2.62
2.30
1.95
1.59
1.26
1.00
0.79
0.57
0.32
0.00
-0.33
-0.62
-0.87
-1.10
-1.39
-1.79
-2.28
-2.79
-3.20
-3.43
-3.49
-3.48
-3.47
-3.54
-3.63
-3.71
-3.77
-3.85
-4.06
-4.46
-5.00
-5.51
-5.77
-5.63
-5.07
-4.22
-3.29
-2.47
-1.83
-1.39
-1.04
-0.71
-0.35
0.02
0.36
0.62
0.84
1.04
1.29
1.60
1.94
2.22
2.34
2.29
2.12
1.95
1.86
1.90
2.00
2.08
2.08
2.03
1.96
1.95
2.00
2.11
2.27
2.47
2.76
3.16
3.60
3.99
4.17
4.08
3.77
3.35
2.98
2.70
2.45
2.10
1.56
0.85
0.09
-0.50
-0.80
-0.82
-0.71
-0.67
-0.87
-1.34
-2.00
-2.69
-3.27
-3.66
-3.88
-4.02
-4.18
-4.42
-4.76
-5.13
-5.46
-5.66
-5.67
-5.47
-5.09
-4.57
-3.95
-3.27
-2.58
-1.89
-1.24
-0.65
-0.13
0.28
0.57
0.71
0.74
0.73
0.79
1.00
1.34
1.72
2.03
2.17
2.16
2.09
2.08
2.19
2.40
2.62
2.76
2.79
2.75
2.72
2.74
2.84
2.96
3.06
3.09
3.04
2.91
2.73
2.51
2.31
2.16
2.09
2.09
2.08
1.97
1.67
1.19
0.58
-0.03
-0.56
-0.96
-1.27
-1.58
-1.94
-2.36
-2.79
-3.14
-3.37
-3.49
-3.60
-3.84
-4.27
-4.88
-5.52
-6.03
-6.20
-5.96
-5.30
-4.36
-3.32
-2.37
-1.66
-1.26
-1.13
-1.15
-1.11
-0.85
-0.32
0.39
1.10
1.63
1.91
1.99
2.02
2.15
2.39
2.67
2.86
2.88
2.73
2.52
2.38
2.39
2.54
2.74
2.92
3.03
3.06
3.07
3.12
3.23
3.41
3.63
3.80
3.89
3.85
3.71
3.51
3.30
3.08
2.84
2.59
2.31
2.04
1.77
1.51
1.19
0.74
0.15
-0.53
-1.18
-1.68
-1.92
-1.92
-1.77
-1.59
-1.51
-1.62
-1.95
-2.49
-3.17
-3.88
-4.47
-4.82
-4.87
-4.65
-4.34
-4.15
-4.26
-4.71
-5.37
-5.98
-6.30
-6.15
-5.51
-4.52
-3.36
-2.23
-1.28
-0.57
-0.14
0.06
0.11
0.15
0.29
0.60
1.08
1.64
2.19
2.64
2.99
3.22
3.34
3.32
3.14
2.81
2.43
2.16
2.14
2.38
2.80
3.24
3.54
3.64
3.56
3.39
3.18
2.97
2.75
2.57
2.50
2.60
2.85
3.16
3.36
3.31
3.01
2.56
2.13
1.83
1.69
1.62
1.47
1.16
0.69
0.17
-0.29
-0.58
-0.68
-0.64
-0.58
-0.60
-0.80
-1.21
-1.77
-2.37
-2.85
-3.11
-3.11
-2.90
-2.62
-2.42
-2.44
-2.74
-3.34
-4.14
-5.00
-5.77
-6.30
-6.46
-6.19
-5.50
-4.48
-3.27
-2.02
-0.87
0.05
0.67
0.93
0.85
0.50
0.04
-0.30
-0.32
0.06
0.81
1.72
2.55
3.11
3.35
3.35
3.24
3.12
3.02
2.90
2.71
2.46
2.20
1.99
1.88
1.87
1.94
2.07
2.26
2.49
2.78
3.08
3.36
3.60
3.76
3.85
3.86
3.75
3.47
3.00
2.38
1.70
1.10
0.67
0.44
0.34
0.27
0.15
0.00
-0.14
-0.22
-0.26
-0.35
-0.59
-1.00
-1.51
-2.00
-2.34
-2.51
-2.61
-2.74
-2.98
-3.32
-3.64
-3.87
-4.03
-4.21
-4.53
-5.04
-5.65
-6.15
-6.29
-5.94
-5.08
-3.91
-2.69
-1.67
-0.99
-0.64
-0.50
-0.41
-0.29
-0.09
0.15
0.40
0.68
1.01
1.44
1.96
2.47
2.85
3.00
2.90
2.61
2.28
2.01
1.83
1.71
1.60
1.49
1.41
1.44
1.63
1.99
2.40
2.74
2.88
2.82
2.65
2.52
2.54
2.72
2.97
3.11
3.04
2.74
2.32
1.94
1.71
1.62
1.58
1.48
1.23
0.87
0.47
0.15
-0.03
-0.11
-0.16
-0.29
-0.56
-0.95
-1.38
-1.79
-2.14
-2.47
-2.83
-3.25
-3.67
-4.02
-4.21
-4.25
-4.22
-4.25
-4.42
-4.70
-4.99
-5.13
-5.02
-4.68
-4.17
-3.60
-3.05
-2.55
-2.09
-1.63
-1.11
-0.53
0.06
0.57
0.89
0.99
0.90
0.75
0.68
0.78
1.04
1.37
1.63
1.73
1.65
1.46
1.26
1.10
1.00
0.96
0.99
1.13
1.42
1.87
2.47
3.09
3.63
3.96
4.05
3.92
3.65
3.29
2.85
2.31
1.64
0.93
0.30
-0.10
-0.19
-0.02
0.21
0.30
0.11
-0.35
-0.94
-1.46
-1.80
-1.98
-2.12
-2.41
-2.92
-3.62
-4.35
-4.92
-5.21
-5.23
-5.06
-4.76
-4.37
-3.87
-3.24
-2.50
-1.75
-1.11
-0.68
-0.51
-0.54
-0.67
-0.78
-0.75
-0.51
-0.05
0.56
1.19
1.69
1.94
1.95
1.83
1.71
1.69
1.79
1.94
2.06
2.13
2.14
2.15
2.15
2.15
2.11
2.05
2.01
2.08
2.32
2.69
3.12
3.49
3.71
3.75
3.63
3.42
3.12
2.75
2.30
1.79
1.24
0.73
0.30
-0.03
-0.28
-0.50
-0.69
-0.86
-0.99
-1.06
-1.11
-1.17
-1.29
-1.45
-1.66
-1.86
-2.04
-2.19
-2.30
-2.37
-2.43
-2.51
-2.71
-3.05
-3.54
-4.08
-4.55
-4.85
-4.99
-5.04
-5.09
-5.12
-5.04
-4.66
-3.90
-2.81
-1.62
-0.62
-0.01
0.18
0.08
-0.11
-0.23
-0.27
-0.27
-0.29
-0.34
-0.33
-0.15
0.27
0.86
1.50
2.01
2.26
2.23
2.03
1.79
1.64
1.63
1.76
1.98
2.26
2.55
2.82
3.01
3.11
3.07
2.94
2.79
2.69
2.72
2.83
2.92
2.89
2.67
2.29
1.86
1.48
1.18
0.89
0.48
-0.13
-0.93
-1.78
-2.48
-2.85
-2.85
-2.58
-2.24
-2.04
-2.17
-2.66
-3.45
-4.36
-5.16
-5.59
-5.54
-4.98
-4.04
-2.93
-1.87
-1.04
-0.51
-0.24
-0.18
-0.21
-0.25
-0.22
-0.07
0.20
0.56
0.96
1.35
1.67
1.88
1.94
1.86
1.67
1.48
1.38
1.46
1.73
2.10
2.48
2.77
2.91
2.93
2.87
2.81
2.78
2.82
2.93
3.09
3.24
3.37
3.42
3.41
3.36
3.26
3.09
2.82
2.39
1.86
1.31
0.89
0.68
0.66
0.72
0.75
0.62
0.33
-0.08
-0.55
-1.02
-1.46
-1.88
-2.27
-2.65
-2.99
-3.29
-3.53
-3.73
-3.90
-4.05
-4.22
-4.44
-4.72
-5.07
-5.46
-5.83
-6.12
-6.24
-6.12
-5.70
-4.98
-4.01
-2.92
-1.93
-1.22
-0.89
-0.91
-1.09
-1.23
-1.16
-0.87
-0.41
0.08
0.56
1.02
1.47
1.93
2.32
2.54
2.52
2.27
1.92
1.63
1.56
1.80
2.30
2.94
3.55
3.98
4.14
4.06
3.83
3.59
3.46
3.50
3.67
3.90
4.09
4.13
3.97
3.57
2.99
2.30
1.64
1.10
0.73
0.52
0.42
0.39
0.40
0.43
0.44
0.38
0.18
-0.18
-0.68
-1.26
-1.78
-2.15
-2.34
-2.35
-2.28
-2.23
-2.32
-2.60
-3.10
-3.79
-4.60
-5.45
-6.21
-6.75
-6.97
-6.81
-6.31
-5.54
-4.64
-3.74
-2.95
-2.33
-1.88
-1.54
-1.21
-0.83
-0.36
0.16
0.63
0.97
1.15
1.22
1.29
1.48
1.84
2.34
2.87
3.32
3.60
3.70
3.63
3.48
3.35
3.33
3.47
3.72
3.98
4.10
3.98
3.66
3.31
3.13
3.27
3.73
4.32
4.81
4.99
4.81
4.34
3.72
3.09
2.50
1.95
1.39
0.86
0.38
0.04
-0.13
-0.18
-0.18
-0.24
-0.41
-0.69
-1.04
-1.39
-1.71
-2.00
-2.30
-2.63
-3.00
-3.40
-3.81
-4.19
-4.55
-4.87
-5.16
-5.41
-5.65
-5.88
-6.14
-6.40
-6.58
-6.56
-6.21
-5.48
-4.45
-3.33
-2.36
-1.73
-1.49
-1.50
-1.58
-1.53
-1.27
-0.82
-0.30
0.21
0.69
1.18
1.71
2.28
2.82
3.20
3.31
3.12
2.74
2.38
2.22
2.34
2.67
3.07
3.37
3.55
3.64
3.73
3.88
4.03
4.12
4.11
4.03
3.98
4.04
4.22
4.41
4.46
4.26
3.82
3.21
2.55
1.87
1.19
0.47
-0.26
-0.90
-1.32
-1.48
-1.43
-1.31
-1.29
-1.48
-1.90
-2.48
-3.10
-3.71
-4.28
-4.83
-5.39
-5.96
-6.48
-6.89
-7.09
-7.01
-6.59
-5.88
-4.97
-4.02
-3.16
-2.52
-2.09
-1.83
-1.61
-1.33
-0.91
-0.33
0.38
1.14
1.86
2.47
2.93
3.23
3.39
3.45
3.48
3.50
3.55
3.62
3.70
3.74
3.74
3.70
3.67
3.68
3.75
3.89
4.09
4.31
4.55
4.81
5.07
5.29
5.42
5.35
5.06
4.54
3.88
3.20
2.63
2.20
1.91
1.66
1.38
1.01
0.56
0.13
-0.17
-0.28
-0.23
-0.10
-0.01
-0.03
-0.18
-0.45
-0.82
-1.28
-1.85
-2.52
-3.20
-3.77
-4.12
-4.22
-4.16
-4.13
-4.32
-4.84
-5.67
-6.67
-7.66
-8.48
-9.00
-9.15
-8.85
-8.10
-6.92
-5.46
-3.93
-2.57
-1.57
-0.96
-0.65
-0.47
-0.24
0.12
0.57
1.02
1.38
1.68
1.99
2.39
2.92
3.47
3.89
4.03
3.85
3.46
3.07
2.88
2.98
3.31
3.70
3.97
4.03
3.97
3.91
4.00
4.25
4.57
4.78
4.76
4.49
4.09
3.71
3.49
3.44
3.45
3.37
3.06
2.45
1.56
0.49
-0.60
-1.59
-2.38
-2.96
-3.33
-3.55
-3.70
-3.82
-3.99
-4.29
-4.78
-5.47
-6.29
-7.09
-7.65
-7.77
-7.36
-6.50
-5.37
-4.22
-3.22
-2.40
-1.70
-1.03
-0.33
0.39
1.08
1.69
2.25
2.77
3.24
3.60
3.74
3.63
3.30
2.87
2.48
2.27
2.27
2.50
2.91
3.47
4.11
4.69
5.03
5.01
4.64
4.07
3.57
3.36
3.53
3.98
4.50
4.85
4.94
4.78
4.47
4.09
3.72
3.38
3.09
2.89
2.82
2.82
2.78
2.56
2.05
1.24
0.29
-0.60
-1.25
-1.59
-1.67
-1.66
-1.69
-1.88
-2.24
-2.73
-3.26
-3.77
-4.19
-4.50
-4.73
-4.92
-5.15
-5.52
-6.07
-6.80
-7.63
-8.40
-8.91
-8.97
-8.49
-7.49
-6.16
-4.75
-3.53
-2.67
-2.20
-2.00
-1.90
-1.68
-1.21
-0.47
0.50
1.54
2.45
3.08
3.37
3.37
3.20
3.00
2.86
2.81
2.86
3.00
3.26
3.62
4.04
4.41
4.62
4.65
4.53
4.36
4.27
4.30
4.44
4.61
4.76
4.87
4.94
4.99
4.97
4.82
4.47
3.88
3.11
2.29
1.54
0.96
0.56
0.25
-0.12
-0.67
-1.45
-2.38
-3.31
-4.04
-4.43
-4.49
-4.32
-4.12
-4.09
-4.33
-4.86
-5.55
-6.29
-6.93
-7.42
-7.72
-7.77
-7.53
-6.98
-6.14
-5.12
-4.09
-3.20
-2.50
-1.96
-1.47
-0.90
-0.18
0.70
1.67
2.63
3.44
3.99
4.25
4.26
4.10
3.89
3.73
3.66
3.66
3.73
3.84
3.99
4.14
4.26
4.30
4.25
4.14
4.03
3.98
4.00
4.03
4.03
3.95
3.79
3.56
3.27
2.94
2.60
2.32
2.14
2.07
2.05
1.97
1.69
1.16
0.39
-0.51
-1.38
-2.10
-2.59
-2.87
-3.00
-3.09
-3.25
-3.56
-4.05
-4.73
-5.56
-6.44
-7.26
-7.84
-8.03
-7.69
-6.83
-5.60
-4.26
-3.06
-2.18
-1.63
-1.30
-1.01
-0.66
-0.19
0.37
0.97
1.59
2.20
2.79
3.30
3.69
3.93
4.04
4.05
4.03
4.01
3.96
3.85
3.67
3.48
3.35
3.36
3.57
3.92
4.29
4.53
4.56
4.41
4.18
3.98
3.89
3.87
3.83
3.66
3.31
2.84
2.39
2.09
1.98
2.00
2.02
1.86
1.46
0.86
0.18
-0.39
-0.73
-0.78
-0.62
-0.37
-0.19
-0.16
-0.31
-0.59
-0.95
-1.36
-1.74
-2.05
-2.23
-2.26
-2.21
-2.19
-2.34
-2.73
-3.30
-3.92
-4.42
-4.73
-4.87
-5.02
-5.33
-5.91
-6.72
-7.58
-8.22
-8.37
-7.82
-6.58
-4.86
-3.00
-1.44
-0.48
-0.19
-0.38
-0.71
-0.83
-0.52
0.20
1.15
2.10
2.87
3.37
3.60
3.62
3.48
3.19
2.81
2.40
2.10
2.02
2.19
2.56
2.99
3.30
3.37
3.20
2.89
2.60
2.47
2.56
2.80
3.09
3.29
3.34
3.27
3.16
3.09
3.06
3.03
2.93
2.68
2.28
1.80
1.33
0.91
0.55
0.19
-0.20
-0.65
-1.10
-1.49
-1.75
-1.86
-1.84
-1.80
-1.80
-1.93
-2.22
-2.64
-3.16
-3.73
-4.32
-4.89
-5.42
-5.90
-6.30
-6.54
-6.50
-6.11
-5.38
-4.45
-3.53
-2.82
-2.40
-2.17
-1.97
-1.63
-1.10
-0.46
0.17
0.68
1.05
1.36
1.66
1.95
2.21
2.37
2.39
2.30
2.18
2.11
2.13
2.22
2.31
2.35
2.31
2.25
2.22
2.29
2.46
2.70
2.91
3.04
3.07
3.03
2.94
2.86
2.77
2.64
2.46
2.20
1.90
1.59
1.33
1.16
1.07
0.96
0.73
0.33
-0.24
-0.89
-1.45
-1.79
-1.85
-1.71
-1.50
-1.36
-1.36
-1.50
-1.71
-1.91
-2.07
-2.25
-2.48
-2.78
-3.12
-3.43
-3.64
-3.73
-3.75
-3.79
-3.91
-4.11
-4.38
-4.69
-5.01
-5.35
-5.66
-5.85
-5.81
-5.40
-4.61
-3.53
-2.38
-1.39
-0.75
-0.49
-0.51
-0.63
-0.62
-0.38
0.09
0.68
1.24
1.61
1.78
1.79
1.76
1.77
1.86
1.98
2.06
2.04
1.96
1.88
1.91
2.13
2.51
2.98
3.39
3.65
3.71
3.60
3.41
3.24
3.12
3.04
2.97
2.89
2.78
2.67
2.61
2.57
2.52
2.39
2.17
1.86
1.52
1.21
0.94
0.66
0.31
-0.15
-0.67
-1.14
-1.42
-1.45
-1.30
-1.14
-1.17
-1.52
-2.13
-2.86
-3.48
-3.88
-4.04
-4.06
-4.04
-4.01
-3.94
-3.81
-3.63
-3.49
-3.53
-3.85
-4.44
-5.17
-5.82
-6.19
-6.17
-5.76
-5.01
-4.07
-3.03
-2.05
-1.21
-0.58
-0.16
0.09
0.27
0.47
0.76
1.13
1.49
1.76
1.86
1.82
1.68
1.54
1.45
1.42
1.44
1.47
1.53
1.63
1.78
1.98
2.19
2.37
2.50
2.59
2.67
2.78
2.95
3.16
3.41
3.66
3.86
3.99
4.01
3.90
3.66
3.34
3.01
2.69
2.41
2.14
1.84
1.50
1.14
0.78
0.44
0.13
-0.16
-0.41
-0.58
-0.65
-0.64
-0.59
-0.56
-0.63
-0.84
-1.18
-1.64
-2.19
-2.79
-3.37
-3.88
-4.26
-4.49
-4.62
-4.75
-5.01
-5.45
-6.07
-6.77
-7.39
-7.75
-7.69
-7.15
-6.19
-4.99
-3.82
-2.91
-2.35
-2.10
-2.02
-1.92
-1.70
-1.32
-0.83
-0.26
0.36
0.99
1.57
2.02
2.25
2.27
2.19
2.17
2.35
2.77
3.30
3.77
4.00
3.93
3.64
3.27
3.02
2.98
3.16
3.45
3.74
3.94
4.02
4.06
4.14
4.31
4.53
4.71
4.73
4.52
4.09
3.53
2.94
2.38
1.88
1.39
0.91
0.45
0.07
-0.14
-0.15
0.02
0.28
0.46
0.44
0.17
-0.34
-0.96
-1.61
-2.20
-2.72
-3.19
-3.60
-3.93
-4.13
-4.21
-4.24
-4.34
-4.62
-5.13
-5.84
-6.59
-7.20
-7.54
-7.50
-7.05
-6.23
-5.15
-3.95
-2.83
-1.95
-1.41
-1.19
-1.17
-1.17
-1.07
-0.81
-0.41
0.05
0.50
0.94
1.35
1.74
2.06
2.24
2.27
2.18
2.10
2.14
2.34
2.64
2.96
3.23
3.43
3.65
3.93
4.29
4.66
4.92
5.00
4.90
4.70
4.48
4.30
4.13
3.89
3.53
3.04
2.51
2.04
1.71
1.53
1.41
1.21
0.83
0.21
-0.60
-1.49
-2.35
-3.06
-3.56
-3.87
-4.03
-4.12
-4.21
-4.40
-4.76
-5.33
-6.07
-6.90
-7.64
-8.10
-8.08
-7.49
-6.38
-4.95
-3.50
-2.30
-1.48
-1.03
-0.81
-0.63
-0.38
-0.03
0.38
0.80
1.21
1.65
2.19
2.82
3.48
4.02
4.32
4.34
4.16
3.90
3.74
3.75
3.96
4.27
4.59
4.82
4.90
4.87
4.76
4.63
4.50
4.35
4.14
3.90
3.66
3.49
3.44
3.47
3.49
3.40
3.16
2.80
2.44
2.16
2.00
1.86
1.63
1.21
0.58
-0.17
-0.93
-1.60
-2.10
-2.45
-2.69
-2.89
-3.11
-3.40
-3.78
-4.27
-4.92
-5.73
-6.68
-7.65
-8.44
-8.82
-8.65
-7.92
-6.80
-5.53
-4.38
-3.46
-2.75
-2.13
-1.50
-0.82
-0.16
0.40
0.84
1.20
1.57
2.01
2.53
3.08
3.60
4.04
4.37
4.59
4.70
4.71
4.62
4.45
4.28
4.16
4.15
4.25
4.39
4.49
4.51
4.46
4.41
4.43
4.54
4.68
4.75
4.67
4.43
4.11
3.78
3.47
3.17
2.82
2.43
2.05
1.77
1.66
1.73
1.85
1.86
1.60
1.01
0.19
-0.67
-1.35
-1.72
-1.81
-1.78
-1.82
-2.04
-2.46
-2.93
-3.35
-3.65
-3.87
-4.12
-4.52
-5.08
-5.76
-6.50
-7.25
-7.99
-8.68
-9.25
-9.54
-9.40
-8.75
-7.61
-6.15
-4.62
-3.29
-2.31
-1.70
-1.35
-1.09
-0.75
-0.27
0.35
1.05
1.77
2.45
3.05
3.51
3.80
3.91
3.87
3.81
3.84
4.05
4.43
4.87
5.26
5.48
5.50
5.36
5.16
4.97
4.79
4.63
4.48
4.36
4.32
4.36
4.45
4.50
4.45
4.26
3.96
3.59
3.23
2.89
2.56
2.23
1.87
1.47
1.04
0.55
0.04
-0.50
-1.02
-1.51
-1.92
-2.28
-2.62
-2.97
-3.37
-3.84
-4.36
-4.89
-5.37
-5.77
-6.10
-6.43
-6.85
-7.40
-8.04
-8.57
-8.77
-8.45
-7.59
-6.33
-4.92
-3.64
-2.63
-1.91
-1.39
-0.93
-0.46
0.06
0.64
1.27
1.98
2.73
3.49
4.12
4.51
4.61
4.43
4.10
3.81
3.68
3.77
4.00
4.28
4.48
4.59
4.67
4.79
5.00
5.27
5.50
5.58
5.47
5.19
4.82
4.47
4.19
4.03
3.93
3.82
3.61
3.23
2.67
1.97
1.28
0.73
0.40
0.26
0.16
-0.05
-0.46
-1.04
-1.66
-2.18
-2.55
-2.80
-3.03
-3.32
-3.66
-4.00
-4.26
-4.45
-4.63
-4.90
-5.34
-5.93
-6.61
-7.29
-7.89
-8.35
-8.61
-8.58
-8.14
-7.24
-5.92
-4.40
-2.93
-1.77
-1.04
-0.66
-0.46
-0.23
0.18
0.78
1.51
2.27
2.99
3.64
4.19
4.69
5.15
5.55
5.86
5.99
5.88
5.54
5.03
4.50
4.13
4.04
4.24
4.61
4.95
5.08
4.95
4.63
4.32
4.20
4.37
4.73
5.08
5.24
5.07
4.62
4.02
3.39
2.75
2.08
1.32
0.50
-0.27
-0.85
-1.09
-1.00
-0.67
-0.31
-0.10
-0.17
-0.54
-1.13
-1.77
-2.29
-2.60
-2.70
-2.71
-2.78
-3.02
-3.42
-3.89
-4.28
-4.55
-4.74
-4.98
-5.41
-6.07
-6.89
-7.73
-8.40
-8.79
-8.82
-8.49
-7.82
-6.89
-5.83
-4.78
-3.88
-3.17
-2.66
-2.21
-1.71
-1.02
-0.14
0.88
1.89
2.71
3.24
3.44
3.43
3.36
3.41
3.65
4.02
4.36
4.49
4.34
4.01
3.70
3.63
3.89
4.41
4.99
5.42
5.57
5.42
5.06
4.62
4.20
3.83
3.52
3.24
2.96
2.66
2.31
1.95
1.59
1.29
1.06
0.87
0.62
0.25
-0.30
-0.97
-1.66
-2.23
-2.61
-2.81
-2.95
-3.14
-3.45
-3.90
-4.42
-4.98
-5.58
-6.23
-6.92
-7.55
-7.95
-7.93
-7.40
-6.42
-5.20
-3.99
-2.97
-2.21
-1.63
-1.09
-0.49
0.17
0.86
1.51
2.09
2.59
3.07
3.53
3.98
4.35
4.57
4.60
4.43
4.13
3.84
3.66
3.67
3.86
4.13
4.39
4.55
4.60
4.60
4.60
4.65
4.75
4.85
4.89
4.83
4.68
4.43
4.10
3.70
3.19
2.58
1.87
1.11
0.36
-0.28
-0.76
-1.09
-1.33
-1.56
-1.86
-2.24
-2.67
-3.06
-3.33
-3.50
-3.63
-3.84
-4.20
-4.75
-5.42
-6.13
-6.82
-7.46
-8.05
-8.52
-8.74
-8.58
-7.91
-6.75
-5.24
-3.63
-2.19
-1.14
-0.56
-0.41
-0.51
-0.64
-0.58
-0.18
0.54
1.46
2.39
3.13
3.61
3.81
3.83
3.73
3.55
3.33
3.09
2.91
2.87
2.99
3.26
3.60
3.90
4.10
4.16
4.13
4.05
4.00
4.02
4.10
4.16
4.09
3.78
3.20
2.41
1.55
0.78
0.21
-0.20
-0.57
-1.06
-1.74
-2.54
-3.31
-3.88
-4.14
-4.13
-4.00
-3.92
-4.02
-4.34
-4.83
-5.39
-5.95
-6.42
-6.71
-6.74
-6.42
-5.75
-4.78
-3.68
-2.59
-1.67
-0.93
-0.32
0.25
0.87
1.53
2.16
2.68
3.06
3.32
3.54
3.79
4.08
4.36
4.53
4.56
4.48
4.37
4.29
4.28
4.31
4.33
4.31
4.22
4.05
3.80
3.46
3.04
2.58
2.16
1.84
1.64
1.54
1.48
1.40
1.26
1.05
0.80
0.53
0.30
0.12
-0.01
-0.11
-0.26
-0.53
-0.95
-1.49
-2.06
-2.54
-2.85
-2.98
-2.97
-2.90
-2.88
-2.99
-3.30
-3.85
-4.61
-5.49
-6.34
-6.98
-7.26
-7.08
-6.49
-5.60
-4.59
-3.63
-2.82
-2.16
-1.58
-1.01
-0.41
0.20
0.77
1.27
1.73
2.23
2.82
3.49
4.09
4.47
4.52
4.30
3.96
3.69
3.57
3.54
3.47
3.22
2.80
2.30
1.90
1.72
1.79
2.04
2.34
2.59
2.73
2.79
2.78
2.76
2.73
2.69
2.61
2.47
2.26
2.02
1.80
1.63
1.49
1.31
1.02
0.58
0.03
-0.53
-1.00
-1.31
-1.47
-1.54
-1.58
-1.64
-1.77
-1.99
-2.31
-2.74
-3.25
-3.78
-4.22
-4.53
-4.69
-4.75
-4.78
-4.88
-5.16
-5.66
-6.38
-7.18
-7.82
-8.04
-7.65
-6.68
-5.33
-3.90
-2.72
-1.93
-1.52
-1.36
-1.28
-1.15
-0.91
-0.53
0.03
0.74
1.54
2.34
3.00
3.43
3.61
3.59
3.47
3.33
3.26
3.30
3.49
3.80
4.18
4.51
4.68
4.59
4.27
3.82
3.41
3.15
3.11
3.23
3.41
3.53
3.52
3.40
3.23
3.06
2.95
2.88
2.81
2.68
2.43
2.04
1.56
1.07
0.66
0.40
0.26
0.14
-0.10
-0.56
-1.24
-2.04
-2.79
-3.38
-3.81
-4.20
-4.69
-5.37
-6.19
-7.01
-7.64
-7.92
-7.80
-7.30
-6.49
-5.46
-4.32
-3.18
-2.20
-1.52
-1.20
-1.17
-1.29
-1.35
-1.19
-0.76
-0.07
0.77
1.63
2.39
2.95
3.25
3.27
3.06
2.72
2.38
2.15
2.12
2.27
2.56
2.89
3.18
3.39
3.49
3.50
3.43
3.34
3.28
3.28
3.34
3.39
3.32
3.04
2.51
1.78
0.95
0.11
-0.65
-1.28
-1.78
-2.18
-2.51
-2.82
-3.13
-3.48
-3.89
-4.31
-4.73
-5.12
-5.48
-5.85
-6.21
-6.52
-6.69
-6.64
-6.31
-5.70
-4.90
-4.02
-3.18
-2.45
-1.85
-1.34
-0.84
-0.29
0.33
0.99
1.60
2.05
2.29
2.37
2.38
2.48
2.73
3.13
3.57
3.92
4.12
4.19
4.22
4.30
4.46
4.62
4.69
4.61
4.44
4.27
4.22
4.31
4.46
4.51
4.35
3.92
3.33
2.72
2.24
1.93
1.73
1.53
1.24
0.84
0.42
0.06
-0.17
-0.29
-0.39
-0.57
-0.87
-1.27
-1.67
-1.96
-2.14
-2.27
-2.46
-2.79
-3.25
-3.72
-4.08
-4.24
-4.21
-4.14
-4.18
-4.45
-4.94
-5.56
-6.17
-6.67
-7.00
-7.18
-7.19
-7.00
-6.57
-5.87
-4.95
-3.95
-3.02
-2.27
-1.73
-1.34
-1.01
-0.67
-0.28
0.14
0.56
0.98
1.41
1.87
2.37
2.87
3.34
3.71
3.97
4.10
4.11
4.02
3.89
3.79
3.76
3.82
3.94
4.04
4.05
3.96
3.79
3.60
3.47
3.43
3.47
3.58
3.70
3.79
3.80
3.65
3.28
2.64
1.76
0.74
-0.24
-0.99
-1.36
-1.35
-1.06
-0.71
-0.52
-0.58
-0.90
-1.36
-1.86
-2.38
-2.94
-3.55
-4.20
-4.76
-5.12
-5.20
-5.08
-4.90
-4.85
-5.03
-5.43
-5.91
-6.30
-6.42
-6.18
-5.57
-4.71
-3.74
-2.83
-2.10
-1.59
-1.28
-1.07
-0.89
-0.66
-0.34
0.11
0.67
1.31
1.93
2.46
2.83
3.06
3.19
3.33
3.52
3.78
4.07
4.38
4.70
5.05
5.42
5.77
6.01
6.05
5.85
5.49
5.09
4.79
4.65
4.61
4.56
4.39
4.05
3.56
3.00
2.44
1.89
1.34
0.75
0.11
-0.56
-1.21
-1.82
-2.36
-2.83
-3.29
-3.75
-4.21
-4.65
-5.02
-5.28
-5.44
-5.57
-5.74
-6.00
-6.37
-6.75
-7.01
-7.00
-6.63
-5.94
-5.05
-4.12
-3.28
-2.60
-2.03
-1.48
-0.87
-0.18
0.55
1.19
1.66
1.93
2.02
2.01
2.02
2.11
2.30
2.58
2.90
3.19
3.41
3.52
3.54
3.49
3.43
3.38
3.41
3.53
3.75
4.04
4.34
4.55
4.62
4.49
4.18
3.71
3.14
2.51
1.86
1.21
0.57
-0.07
-0.75
-1.49
-2.28
-3.09
-3.81
-4.37
-4.74
-4.98
-5.21
-5.54
-5.98
-6.47
-6.83
-6.88
-6.51
-5.78
-4.84
-3.92
-3.19
-2.73
-2.45
-2.19
-1.76
-1.04
-0.05
1.06
2.10
2.90
3.41
3.68
3.87
4.06
4.31
4.56
4.71
4.73
4.65
4.57
4.63
4.87
5.26
5.66
5.96
6.06
5.97
5.73
5.40
5.04
4.69
4.34
4.00
3.68
3.38
3.11
2.86
2.63
2.38
2.07
1.69
1.23
0.71
0.18
-0.34
-0.82
-1.26
-1.65
-2.01
-2.32
-2.55
-2.71
-2.81
-2.90
-3.05
-3.30
-3.67
-4.14
-4.65
-5.13
-5.53
-5.86
-6.14
-6.44
-6.79
-7.20
-7.61
-7.93
-8.05
-7.88
-7.38
-6.56
-5.53
-4.45
-3.47
-2.71
-2.20
-1.84
-1.51
-1.08
-0.50
0.21
0.97
1.69
2.35
2.93
3.48
4.02
4.51
4.92
5.16
5.23
5.15
5.00
4.89
4.91
5.11
5.46
5.89
6.29
6.52
6.51
6.24
5.78
5.30
4.94
4.81
4.87
4.99
4.98
4.68
4.05
3.15
2.14
1.19
0.41
-0.15
-0.54
-0.85
-1.12
-1.36
-1.56
-1.73
-1.89
-2.08
-2.34
-2.68
-3.03
-3.30
-3.44
-3.46
-3.46
-3.53
-3.73
-4.03
-4.38
-4.72
-5.06
-5.40
-5.80
-6.25
-6.68
-6.99
-7.06
-6.78
-6.13
-5.16
-4.02
-2.89
-1.96
-1.37
-1.18
-1.33
-1.64
-1.88
-1.85
-1.43
-0.66
0.33
1.37
2.28
3.00
3.52
3.92
4.24
4.46
4.54
4.46
4.26
4.07
4.02
4.18
4.54
4.99
5.36
5.53
5.45
5.17
4.80
4.40
4.01
3.61
3.14
2.60
1.98
1.35
0.74
0.18
-0.37
-0.96
-1.64
-2.43
-3.28
-4.15
-4.96
-5.66
-6.17
-6.43
-6.44
-6.27
-6.05
-5.94
-6.02
-6.23
-6.39
-6.28
-5.78
-4.91
-3.85
-2.79
-1.89
-1.16
-0.55
0.04
0.64
1.23
1.76
2.18
2.53
2.84
3.17
3.49
3.76
3.90
3.90
3.82
3.81
4.02
4.49
5.15
5.81
6.25
6.34
6.09
5.65
5.18
4.81
4.57
4.46
4.44
4.47
4.52
4.52
4.34
3.92
3.25
2.40
1.53
0.78
0.17
-0.34
-0.88
-1.54
-2.32
-3.15
-3.88
-4.44
-4.80
-5.03
-5.24
-5.50
-5.84
-6.30
-6.86
-7.50
-8.12
-8.56
-8.60
-8.08
-6.95
-5.41
-3.76
-2.38
-1.52
-1.24
-1.38
-1.64
-1.71
-1.38
-0.62
0.45
1.60
2.59
3.31
3.76
4.05
4.29
4.53
4.71
4.73
4.58
4.36
4.24
4.38
4.81
5.41
5.98
6.34
6.42
6.24
5.90
5.50
5.07
4.66
4.25
3.86
3.51
3.18
2.87
2.54
2.14
1.66
1.08
0.45
-0.17
-0.73
-1.17
-1.47
-1.67
-1.80
-1.94
-2.11
-2.35
-2.62
-2.90
-3.15
-3.37
-3.59
-3.84
-4.17
-4.59
-5.10
-5.67
-6.28
-6.90
-7.47
-7.90
-8.07
-7.85
-7.17
-6.06
-4.66
-3.22
-1.96
-1.07
-0.62
-0.57
-0.77
-1.02
-1.09
-0.84
-0.22
0.64
1.56
2.34
2.89
3.23
3.47
3.73
4.06
4.46
4.86
5.17
5.35
5.42
5.37
5.22
4.98
4.70
4.44
4.29
4.31
4.50
4.75
4.91
4.81
4.39
3.74
2.99
2.30
1.74
1.26
0.74
0.07
-0.76
-1.67
-2.52
-3.19
-3.70
-4.08
-4.40
-4.71
-5.02
-5.34
-5.72
-6.18
-6.73
-7.24
-7.51
-7.34
-6.66
-5.55
-4.25
-3.00
-2.00
-1.30
-0.81
-0.42
-0.05
0.33
0.71
1.07
1.44
1.84
2.30
2.84
3.44
4.04
4.57
4.91
4.99
4.77
4.32
3.75
3.23
2.89
2.81
2.97
3.30
3.70
4.07
4.33
4.42
4.31
3.99
3.52
3.00
2.56
2.31
2.27
2.35
2.32
2.00
1.23
0.06
-1.34
-2.70
-3.77
-4.46
-4.80
-4.90
-4.88
-4.85
-4.88
-5.03
-5.35
-5.86
-6.49
-7.08
-7.40
-7.30
-6.75
-5.91
-5.01
-4.26
-3.69
-3.22
-2.73
-2.14
-1.46
-0.75
-0.02
0.77
1.68
2.72
3.80
4.73
5.36
5.59
5.48
5.20
4.94
4.86
5.05
5.47
6.03
6.55
6.87
6.89
6.62
6.16
5.69
5.36
5.21
5.21
5.23
5.17
4.97
4.63
4.17
3.64
3.04
2.41
1.78
1.16
0.57
-0.01
-0.58
-1.11
-1.53
-1.74
-1.70
-1.47
-1.22
-1.11
-1.24
-1.57
-1.95
-2.25
-2.39
-2.44
-2.55
-2.83
-3.32
-3.88
-4.33
-4.54
-4.53
-4.43
-4.46
-4.74
-5.31
-6.05
-6.82
-7.53
-8.14
-8.62
-8.90
-8.87
-8.41
-7.48
-6.23
-4.89
-3.71
-2.85
-2.28
-1.87
-1.46
-0.95
-0.31
0.37
1.00
1.53
1.98
2.41
2.90
3.46
4.05
4.58
4.95
5.12
5.15
5.15
5.21
5.35
5.54
5.67
5.68
5.57
5.40
5.24
5.13
5.04
4.94
4.80
4.62
4.44
4.26
4.06
3.79
3.38
2.85
2.25
1.66
1.15
0.71
0.29
-0.18
-0.77
-1.48
-2.28
-3.10
-3.88
-4.58
-5.13
-5.49
-5.67
-5.70
-5.68
-5.75
-5.99
-6.44
-7.07
-7.74
-8.30
-8.56
-8.41
-7.77
-6.72
-5.39
-4.03
-2.85
-1.98
-1.42
-1.06
-0.74
-0.33
0.19
0.80
1.42
2.03
2.63
3.23
3.85
4.44
4.94
5.28
5.40
5.33
5.16
4.96
4.83
4.81
4.92
5.13
5.39
5.61
5.69
5.58
5.26
4.81
4.38
4.11
4.07
4.22
4.43
4.52
4.39
4.05
3.60
3.17
2.78
2.38
1.83
1.03
0.02
-1.05
-1.97
-2.57
-2.80
-2.75
-2.59
-2.49
-2.57
-2.84
-3.22
-3.62
-3.97
-4.26
-4.54
-4.82
-5.12
-5.39
-5.60
-5.78
-6.00
-6.38
-6.99
-7.81
-8.64
-9.24
-9.39
-8.99
-8.13
-7.01
-5.86
-4.87
-4.06
-3.38
-2.73
-2.02
-1.18
-0.23
0.81
1.88
2.92
3.88
4.70
5.34
5.79
6.05
6.15
6.13
6.04
5.93
5.81
5.70
5.63
5.58
5.57
5.56
5.52
5.45
5.33
5.19
5.06
4.97
4.88
4.75
4.52
4.14
3.64
3.09
2.59
2.19
1.86
1.54
1.15
0.71
0.28
-0.04
-0.19
-0.20
-0.18
-0.26
-0.51
-0.89
-1.29
-1.56
-1.61
-1.48
-1.29
-1.18
-1.27
-1.60
-2.15
-2.87
-3.67
-4.49
-5.26
-5.92
-6.39
-6.63
-6.63
-6.49
-6.39
-6.53
-6.96
-7.60
-8.18
-8.34
-7.86
-6.72
-5.16
-3.57
-2.29
-1.54
-1.26
-1.26
-1.29
-1.14
-0.74
-0.11
0.69
1.55
2.40
3.17
3.79
4.21
4.41
4.40
4.24
4.02
3.88
3.91
4.17
4.61
5.11
5.52
5.70
5.63
5.36
5.03
4.70
4.39
4.07
3.67
3.17
2.62
2.10
1.66
1.33
1.07
0.86
0.68
0.50
0.26
-0.13
-0.77
-1.69
-2.78
-3.88
-4.77
-5.32
-5.51
-5.45
-5.34
-5.37
-5.65
-6.19
-6.85
-7.42
-7.65
-7.39
-6.64
-5.54
-4.32
-3.20
-2.31
-1.65
-1.15
-0.69
-0.20
0.35
0.96
1.57
2.16
2.74
3.33
3.94
4.58
5.19
5.72
6.10
6.30
6.33
6.20
5.93
5.57
5.15
4.75
4.48
4.42
4.57
4.83
5.05
5.06
4.81
4.37
3.90
3.52
3.29
3.13
2.90
2.50
1.91
1.21
0.55
0.02
-0.39
-0.71
-1.05
-1.46
-1.98
-2.56
-3.19
-3.84
-4.46
-5.02
-5.48
-5.81
-6.01
-6.10
-6.14
-6.22
-6.44
-6.85
-7.43
-8.03
-8.45
-8.47
-7.99
-7.04
-5.84
-4.63
-3.61
-2.85
-2.27
-1.72
-1.08
-0.31
0.54
1.39
2.16
2.83
3.38
3.82
4.18
4.49
4.76
5.03
5.27
5.44
5.48
5.39
5.24
5.12
5.09
5.17
5.28
5.34
5.36
5.36
5.44
5.60
5.78
5.86
5.70
5.26
4.64
3.97
3.41
3.03
2.79
2.58
2.30
1.88
1.33
0.73
0.13
-0.42
-0.94
-1.48
-2.03
-2.50
-2.80
-2.87
-2.72
-2.48
-2.28
-2.22
-2.30
-2.50
-2.75
-3.07
-3.51
-4.10
-4.81
-5.53
-6.12
-6.49
-6.61
-6.57
-6.54
-6.67
-7.03
-7.60
-8.20
-8.58
-8.53
-7.93
-6.85
-5.51
-4.22
-3.24
-2.68
-2.45
-2.36
-2.15
-1.62
-0.71
0.52
1.90
3.21
4.29
5.08
5.58
5.89
6.07
6.18
6.23
6.23
6.18
6.09
5.98
5.86
5.69
5.47
5.22
5.01
4.91
4.99
5.20
5.43
5.52
5.36
4.92
4.31
3.67
3.12
2.68
2.30
1.89
1.37
0.76
0.12
-0.44
-0.81
-0.98
-0.96
-0.85
-0.80
-0.90
-1.21
-1.65
-2.08
-2.34
-2.36
-2.23
-2.15
-2.32
-2.87
-3.71
-4.62
-5.33
-5.64
-5.54
-5.18
-4.80
-4.65
-4.84
-5.37
-6.14
-7.03
-7.90
-8.58
-8.91
-8.70
-7.85
-6.42
-4.65
-2.91
-1.56
-0.81
-0.65
-0.85
-1.12
-1.18
-0.90
-0.28
0.59
1.55
2.49
3.30
3.94
4.37
4.61
4.75
4.84
4.93
5.06
5.17
5.24
5.27
5.29
5.35
5.50
5.71
5.91
6.01
5.95
5.72
5.40
5.06
4.76
4.51
4.24
3.88
3.39
2.77
2.04
1.25
0.48
-0.23
-0.86
-1.41
-1.94
-2.53
-3.21
-3.94
-4.66
-5.27
-5.70
-5.93
-6.00
-6.01
-6.06
-6.25
-6.62
-7.17
-7.82
-8.40
-8.70
-8.52
-7.79
-6.57
-5.10
-3.65
-2.44
-1.56
-0.95
-0.50
-0.08
0.33
0.73
1.09
1.42
1.78
2.27
2.91
3.66
4.36
4.88
5.13
5.15
5.05
4.99
5.08
5.33
5.71
6.10
6.38
6.44
6.28
5.95
5.57
5.29
5.18
5.24
5.34
5.34
5.13
4.67
4.04
3.36
2.72
2.14
1.60
1.03
0.44
-0.12
-0.61
-1.01
-1.35
-1.71
-2.14
-2.64
-3.14
-3.55
-3.75
-3.71
-3.47
-3.16
-2.92
-2.90
-3.16
-3.68
-4.36
-5.04
-5.60
-5.97
-6.22
-6.44
-6.78
-7.31
-8.02
-8.75
-9.29
-9.41
-8.97
-7.99
-6.63
-5.15
-3.79
-2.71
-1.96
-1.49
-1.17
-0.90
-0.57
-0.13
0.47
1.24
2.16
3.16
4.10
4.88
5.39
5.62
5.61
5.46
5.30
5.22
5.26
5.42
5.64
5.84
5.96
5.99
5.95
5.89
5.88
5.93
6.05
6.19
6.29
6.28
6.11
5.73
5.12
4.30
3.33
2.28
1.26
0.35
-0.40
-0.95
-1.29
-1.47
-1.54
-1.59
-1.71
-1.96
-2.31
-2.68
-2.95
-3.05
-2.96
-2.75
-2.53
-2.42
-2.48
-2.71
-3.09
-3.55
-4.04
-4.49
-4.86
-5.10
-5.24
-5.32
-5.45
-5.72
-6.19
-6.84
-7.57
-8.21
-8.56
-8.46
-7.87
-6.83
-5.52
-4.18
-3.00
-2.12
-1.56
-1.24
-1.01
-0.73
-0.28
0.38
1.23
2.17
3.07
3.83
4.39
4.79
5.05
5.22
5.28
5.24
5.13
5.01
4.98
5.13
5.47
5.94
6.47
6.95
7.31
7.51
7.52
7.34
6.96
6.43
5.82
5.20
4.62
4.06
3.51
2.91
2.25
1.54
0.82
0.16
-0.41
-0.88
-1.32
-1.83
-2.49
-3.34
-4.32
-5.32
-6.20
-6.84
-7.20
-7.31
-7.23
-7.07
-6.93
-6.94
-7.18
-7.63
-8.17
-8.58
-8.63
-8.20
-7.30
-6.11
-4.85
-3.73
-2.86
-2.26
-1.84
-1.49
-1.10
-0.61
0.02
0.73
1.47
2.17
2.80
3.39
3.95
4.48
4.92
5.21
5.33
5.31
5.26
5.28
5.42
5.64
5.85
5.98
6.03
6.05
6.13
6.28
6.46
6.53
6.36
5.86
5.07
4.14
3.26
2.56
2.05
1.64
1.15
0.44
-0.53
-1.70
-2.96
-4.20
-5.34
-6.31
-7.09
-7.67
-8.04
-8.24
-8.36
-8.50
-8.73
-9.03
-9.29
-9.30
-8.89
-7.98
-6.67
-5.19
-3.85
-2.85
-2.27
-1.95
-1.66
-1.16
-0.34
0.71
1.82
2.79
3.52
4.03
4.42
4.81
5.26
5.77
6.27
6.65
6.85
6.91
6.90
6.94
7.10
7.38
7.67
7.88
7.90
7.69
7.31
6.85
6.41
6.06
5.82
5.66
5.52
5.31
4.98
4.50
3.86
3.05
2.10
1.06
0.03
-0.87
-1.52
-1.89
-2.01
-2.03
-2.13
-2.42
-2.91
-3.49
-4.01
-4.34
-4.45
-4.44
-4.42
-4.49
-4.67
-4.91
-5.15
-5.35
-5.53
-5.74
-6.08
-6.58
-7.24
-7.98
-8.72
-9.36
-9.76
-9.82
-9.42
-8.51
-7.17
-5.54
-3.89
-2.47
-1.47
-0.94
-0.78
-0.75
-0.63
-0.24
0.49
1.49
2.61
3.69
4.61
5.32
5.85
6.23
6.55
6.81
7.03
7.21
7.32
7.38
7.43
7.53
7.68
7.88
8.07
8.18
8.18
8.07
7.90
7.70
7.46
7.11
6.58
5.80
4.75
3.52
2.21
0.99
-0.02
-0.76
-1.23
-1.51
-1.72
-1.96
-2.27
-2.60
-2.82
-2.84
-2.65
-2.31
-1.95
-1.71
-1.67
-1.81
-2.06
-2.36
-2.70
-3.14
-3.70
-4.41
-5.17
-5.84
-6.25
-6.33
-6.09
-5.72
-5.43
-5.44
-5.84
-6.58
-7.46
-8.18
-8.48
-8.18
-7.24
-5.81
-4.16
-2.59
-1.39
-0.68
-0.44
-0.50
-0.60
-0.49
0.00
0.89
2.05
3.26
4.33
5.10
5.52
5.62
5.48
5.22
4.98
4.84
4.87
5.12
5.53
6.05
6.58
7.02
7.30
7.33
7.08
6.55
5.84
5.08
4.43
3.98
3.71
3.51
3.20
2.66
1.82
0.73
-0.52
-1.83
-3.10
-4.26
-5.25
-6.03
-6.57
-6.89
-7.06
-7.20
-7.44
-7.86
-8.44
-9.05
-9.45
-9.42
-8.79
-7.61
-6.05
-4.44
-3.07
-2.12
-1.61
-1.40
-1.28
-1.02
-0.48
0.35
1.39
2.53
3.63
4.63
5.50
6.24
6.86
7.33
7.57
7.55
7.26
6.79
6.29
5.94
5.85
6.03
6.39
6.76
7.04
7.17
7.20
7.19
7.15
6.99
6.61
5.91
4.92
3.80
2.74
1.89
1.30
0.89
0.55
0.20
-0.18
-0.55
-0.93
-1.35
-1.91
-2.63
-3.50
-4.38
-5.11
-5.55
-5.65
-5.44
-5.06
-4.68
-4.44
-4.43
-4.66
-5.03
-5.44
-5.78
-6.01
-6.18
-6.35
-6.62
-7.03
-7.55
-8.13
-8.62
-8.91
-8.87
-8.40
-7.51
-6.30
-4.92
-3.61
-2.52
-1.74
-1.26
-0.97
-0.74
-0.44
-0.00
0.62
1.39
2.28
3.24
4.21
5.10
5.80
6.21
6.26
6.00
5.55
5.13
4.90
4.95
5.25
5.68
6.12
6.47
6.72
6.91
7.07
7.22
7.30
7.25
6.97
6.42
5.60
4.59
3.49
2.43
1.49
0.69
-0.01
-0.68
-1.34
-1.97
-2.49
-2.83
-2.94
-2.83
-2.57
-2.25
-1.94
-1.72
-1.64
-1.75
-2.05
-2.49
-3.02
-3.53
-3.97
-4.34
-4.65
-4.92
-5.09
-5.13
-5.00
-4.77
-4.58
-4.58
-4.88
-5.46
-6.20
-6.95
-7.54
-7.86
-7.84
-7.41
-6.54
-5.27
-3.74
-2.21
-0.97
-0.20
0.07
-0.04
-0.28
-0.43
-0.34
0.05
0.75
1.69
2.79
3.93
4.94
5.67
6.03
6.04
5.83
5.55
5.36
5.33
5.44
5.66
5.92
6.15
6.31
6.38
6.36
6.30
6.24
6.20
6.17
6.07
5.76
5.18
4.31
3.24
2.06
0.90
-0.20
-1.24
-2.20
-3.09
-3.88
-4.58
-5.20
-5.80
-6.40
-6.99
-7.52
-7.97
-8.32
-8.64
-8.97
-9.32
-9.60
-9.67
-9.38
-8.67
-7.60
-6.32
-5.04
-3.91
-3.03
-2.36
-1.81
-1.27
-0.63
0.13
0.97
1.80
2.53
3.11
3.56
3.93
4.28
4.64
4.99
5.27
5.45
5.55
5.58
5.59
5.63
5.71
5.86
6.10
6.41
6.73
6.97
7.06
6.96
6.68
6.29
5.85
5.34
4.73
3.97
3.09
2.16
1.29
0.54
-0.09
-0.64
-1.18
-1.76
-2.38
-3.04
-3.74
-4.52
-5.38
-6.24
-6.97
-7.41
-7.48
-7.23
-6.83
-6.54
-6.54
-6.92
-7.62
-8.45
-9.19
-9.62
-9.56
-8.96
-7.89
-6.54
-5.15
-3.97
-3.14
-2.67
-2.47
-2.34
-2.14
-1.75
-1.10
-0.22
0.86
2.04
3.26
4.40
5.41
6.19
6.70
6.90
6.80
6.48
6.08
5.76
5.65
5.80
6.17
6.62
7.02
7.27
7.36
7.33
7.24
7.09
6.89
6.60
6.19
5.67
5.07
4.37
3.56
2.61
1.51
0.35
-0.75
-1.59
-2.07
-2.18
-2.06
-1.91
-1.90
-2.09
-2.37
-2.59
-2.65
-2.58
-2.50
-2.57
-2.86
-3.31
-3.82
-4.28
-4.69
-5.12
-5.64
-6.23
-6.80
-7.20
-7.37
-7.32
-7.15
-6.96
-6.85
-6.82
-6.85
-6.88
-6.79
-6.44
-5.71
-4.59
-3.21
-1.81
-0.66
0.05
0.33
0.33
0.24
0.23
0.38
0.68
1.15
1.76
2.54
3.45
4.38
5.17
5.67
5.83
5.73
5.53
5.41
5.46
5.68
5.99
6.30
6.53
6.69
6.79
6.85
6.84
6.72
6.43
5.96
5.36
4.69
4.00
3.34
2.68
1.98
1.17
0.20
-0.95
-2.25
-3.61
-4.92
-6.01
-6.78
-7.20
-7.34
-7.35
-7.38
-7.56
-7.90
-8.35
-8.81
-9.12
-9.16
-8.84
-8.13
-7.11
-5.89
-4.64
-3.50
-2.55
-1.81
-1.21
-0.67
-0.10
0.53
1.24
2.03
2.90
3.79
4.65
5.42
6.05
6.50
6.74
6.77
6.64
6.43
6.25
6.21
6.32
6.55
6.78
6.94
7.00
7.03
7.09
7.22
7.38
7.44
7.28
6.85
6.18
5.38
4.55
3.72
2.89
2.01
1.07
0.11
-0.78
-1.51
-2.01
-2.31
-2.43
-2.48
-2.53
-2.65
-2.84
-3.06
-3.23
-3.28
-3.21
-3.12
-3.14
-3.38
-3.88
-4.54
-5.18
-5.64
-5.87
-5.90
-5.83
-5.79
-5.89
-6.16
-6.63
-7.27
-8.03
-8.82
-9.49
-9.87
-9.76
-9.02
-7.66
-5.87
-3.95
-2.25
-1.05
-0.47
-0.42
-0.66
-0.90
-0.86
-0.41
0.48
1.71
3.14
4.60
5.91
6.93
7.59
7.89
7.86
7.59
7.19
6.78
6.49
6.45
6.69
7.16
7.70
8.10
8.17
7.86
7.30
6.71
6.27
6.08
6.06
6.07
5.93
5.58
5.02
4.34
3.60
2.88
2.20
1.57
0.97
0.37
-0.26
-0.95
-1.69
-2.42
-3.07
-3.58
-3.94
-4.21
-4.45
-4.71
-5.00
-5.27
-5.47
-5.60
-5.67
-5.74
-5.85
-5.99
-6.17
-6.39
-6.67
-7.07
-7.63
-8.32
-9.02
-9.53
-9.64
-9.23
-8.30
-7.02
-5.62
-4.35
-3.33
-2.59
-2.01
-1.48
-0.87
-0.15
0.63
1.40
2.13
2.81
3.50
4.24
5.02
5.74
6.30
6.60
6.63
6.49
6.30
6.21
6.27
6.48
6.75
7.01
7.21
7.32
7.37
7.38
7.39
7.42
7.47
7.51
7.46
7.23
6.72
5.92
4.89
3.78
2.71
1.74
0.88
0.11
-0.56
-1.13
-1.57
-1.92
-2.23
-2.60
-3.07
-3.61
-4.14
-4.54
-4.74
-4.77
-4.67
-4.56
-4.53
-4.64
-4.89
-5.26
-5.68
-6.04
-6.31
-6.49
-6.67
-6.95
-7.42
-8.10
-8.91
-9.69
-10.19
-10.20
-9.56
-8.27
-6.51
-4.61
-2.92
-1.69
-0.99
-0.71
-0.64
-0.55
-0.29
0.21
0.95
1.89
3.00
4.20
5.37
6.37
7.11
7.52
7.64
7.55
7.32
7.05
6.80
6.61
6.54
6.60
6.78
7.00
7.18
7.28
7.28
7.23
7.17
7.06
6.83
6.37
5.63
4.68
3.64
2.68
1.85
1.15
0.49
-0.18
-0.82
-1.36
-1.70
-1.85
-1.89
-1.95
-2.16
-2.54
-3.01
-3.44
-3.72
-3.80
-3.75
-3.72
-3.87
-4.28
-4.92
-5.62
-6.19
-6.48
-6.49
-6.38
-6.38
-6.71
-7.42
-8.39
-9.38
-10.10
-10.36
-10.09
-9.38
-8.40
-7.32
-6.32
-5.51
-4.98
-4.74
-4.74
-4.84
-4.88
-4.69
-4.17
-3.32
-2.22
-0.98
0.28
1.48
2.61
3.66
4.68
5.69
6.71
7.73
8.70
9.58
10.29
10.79
11.06
11.15
11.12
11.09
11.09
11.10
11.01
10.70
10.08
9.14
7.99
6.77
5.57
4.42
3.26
2.01
0.63
-0.83
-2.27
-3.57
-4.64
-5.47
-6.06
-6.49
-6.82
-7.09
-7.35
-7.65
-8.03
-8.48
-8.93
-9.23
-9.19
-8.65
-7.60
-6.18
-4.65
-3.31
-2.32
-1.68
-1.25
-0.83
-0.28
0.44
1.27
2.12
2.93
3.71
4.46
5.17
5.80
6.29
6.59
6.69
6.65
6.58
6.55
6.62
6.75
6.89
6.99
7.01
7.00
6.99
6.98
6.95
6.80
6.46
5.88
5.10
4.19
3.23
2.27
1.34
0.43
-0.47
-1.42
-2.43
-3.53
-4.68
-5.78
-6.69
-7.28
-7.51
-7.46
-7.33
-7.33
-7.64
-8.30
-9.14
-9.92
-10.33
-10.17
-9.37
-8.06
-6.48
-4.92
-3.63
-2.73
-2.19
-1.91
-1.72
-1.45
-0.97
-0.23
0.77
1.98
3.29
4.56
5.65
6.45
6.89
7.00
6.86
6.63
6.45
6.46
6.67
7.04
7.45
7.79
7.97
8.00
7.95
7.88
7.83
7.77
7.63
7.33
6.84
6.18
5.43
4.68
3.96
3.27
2.57
1.82
0.98
0.03
-0.98
-1.97
-2.80
-3.36
-3.59
-3.49
-3.20
-2.88
-2.70
-2.75
-3.01
-3.37
-3.72
-3.98
-4.14
-4.25
-4.38
-4.58
-4.88
-5.28
-5.72
-6.13
-6.43
-6.56
-6.55
-6.48
-6.50
-6.75
-7.25
-7.91
-8.52
-8.84
-8.69
-8.03
-6.93
-5.59
-4.22
-3.01
-2.05
-1.38
-0.92
-0.59
-0.26
0.12
0.61
1.18
1.84
2.56
3.33
4.10
4.83
5.44
5.89
6.20
6.41
6.58
6.75
6.94
7.16
7.42
7.72
8.05
8.36
8.56
8.57
8.32
7.85
7.21
6.50
5.73
4.94
4.07
3.14
2.15
1.15
0.17
-0.79
-1.74
-2.70
-3.67
-4.60
-5.42
-6.06
-6.51
-6.75
-6.86
-6.89
-6.92
-7.03
-7.28
-7.77
-8.51
-9.42
-10.28
-10.78
-10.67
-9.81
-8.30
-6.48
-4.71
-3.31
-2.39
-1.82
-1.38
-0.86
-0.14
0.77
1.77
2.79
3.74
4.61
5.41
6.14
6.79
7.33
7.73
7.95
8.00
7.92
7.81
7.74
7.78
7.93
8.12
8.26
8.28
8.19
8.00
7.77
7.49
7.14
6.69
6.10
5.38
4.60
3.83
3.10
2.43
1.76
1.01
0.11
-0.95
-2.10
-3.21
-4.12
-4.75
-5.09
-5.22
-5.24
-5.20
-5.09
-4.86
-4.51
-4.13
-3.87
-3.88
-4.21
-4.76
-5.35
-5.79
-6.01
-6.07
-6.10
-6.25
-6.64
-7.33
-8.30
-9.44
-10.57
-11.40
-11.64
-11.09
-9.77
-7.90
-5.90
-4.16
-2.93
-2.18
-1.69
-1.17
-0.45
0.50
1.54
2.48
3.26
3.93
4.62
5.43
6.32
7.14
7.69
7.85
7.71
7.45
7.31
7.39
7.68
8.04
8.33
8.48
8.50
8.45
8.37
8.26
8.06
7.73
7.21
6.52
5.69
4.80
3.90
3.05
2.31
1.73
1.31
1.04
0.81
0.51
0.01
-0.75
-1.73
-2.80
-3.75
-4.40
-4.74
-4.85
-4.94
-5.19
-5.67
-6.29
-6.89
-7.29
-7.40
-7.25
-6.96
-6.71
-6.64
-6.85
-7.37
-8.18
-9.15
-10.08
-10.72
-10.79
-10.14
-8.78
-6.94
-4.97
-3.25
-1.97
-1.16
-0.63
-0.16
0.40
1.11
1.91
2.73
3.50
4.22
4.87
5.43
5.90
6.27
6.59
6.92
7.26
7.56
7.72
7.70
7.51
7.24
7.05
7.03
7.17
7.39
7.57
7.59
7.45
7.22
7.00
6.82
6.61
6.24
5.58
4.60
3.39
2.17
1.13
0.39
-0.10
-0.48
-0.96
-1.65
-2.50
-3.37
-4.09
-4.51
-4.65
-4.62
-4.59
-4.72
-5.11
-5.74
-6.52
-7.26
-7.75
-7.86
-7.58
-7.11
-6.75
-6.80
-7.42
-8.54
-9.83
-10.88
-11.29
-10.87
-9.66
-7.90
-5.91
-4.02
-2.49
-1.44
-0.89
-0.74
-0.78
-0.80
-0.57
0.04
1.06
2.40
3.87
5.25
6.37
7.14
7.57
7.74
7.75
7.69
7.58
7.41
7.20
6.98
6.84
6.86
7.06
7.35
7.63
7.76
7.71
7.47
7.12
6.70
6.20
5.62
4.92
4.12
3.30
2.49
1.75
1.06
0.39
-0.28
-0.93
-1.54
-2.04
-2.40
-2.63
-2.76
-2.87
-3.01
-3.20
-3.41
-3.58
-3.61
-3.50
-3.33
-3.26
-3.43
-3.92
-4.69
-5.57
-6.38
-6.95
-7.23
-7.29
-7.30
-7.42
-7.79
-8.44
-9.28
-10.09
-10.63
-10.65
-10.01
-8.79
-7.23
-5.67
-4.42
-3.67
-3.40
-3.44
-3.61
-3.74
-3.77
-3.66
-3.40
-2.95
-2.23
-1.21
0.01
1.30
2.45
3.32
3.88
4.25
4.63
5.22
6.15
7.40
8.84
10.22
11.32
11.98
12.17
11.99
11.57
11.06
10.54
10.04
9.54
9.00
8.35
7.54
6.50
5.23
3.82
2.44
1.28
0.44
-0.14
-0.63
-1.29
-2.25
-3.46
-4.71
-5.76
-6.40
-6.63
-6.61
-6.55
-6.62
-6.92
-7.44
-8.09
-8.75
-9.30
-9.60
-9.52
-8.98
-7.98
-6.62
-5.13
-3.75
-2.68
-1.95
-1.49
-1.11
-0.61
0.08
0.94
1.88
2.77
3.59
4.34
5.10
5.89
6.64
7.25
7.58
7.59
7.32
6.93
6.62
6.54
6.73
7.14
7.60
7.98
8.17
8.16
8.01
7.82
7.63
7.41
7.10
6.61
5.93
5.06
4.08
3.07
2.09
1.17
0.33
-0.44
-1.15
-1.79
-2.37
-2.85
-3.24
-3.52
-3.71
-3.83
-3.91
-4.01
-4.15
-4.36
-4.65
-5.02
-5.47
-5.93
-6.34
-6.60
-6.70
-6.65
-6.56
-6.54
-6.71
-7.12
-7.77
-8.60
-9.50
-10.28
-10.74
-10.67
-9.96
-8.65
-6.91
-5.04
-3.37
-2.12
-1.40
-1.12
-1.08
-1.03
-0.76
-0.15
0.78
1.93
3.18
4.42
5.59
6.65
7.55
8.19
8.47
8.34
7.89
7.33
6.91
6.80
7.04
7.52
8.07
8.53
8.84
8.98
8.97
8.84
8.57
8.14
7.55
6.82
6.01
5.18
4.39
3.69
3.08
2.54
2.05
1.56
1.05
0.48
-0.18
-0.91
-1.69
-2.46
-3.13
-3.68
-4.10
-4.43
-4.76
-5.15
-5.59
-6.08
-6.58
-7.07
-7.50
-7.84
-8.03
-8.03
-7.86
-7.62
-7.47
-7.55
-7.98
-8.72
-9.61
-10.38
-10.73
-10.44
-9.48
-8.03
-6.38
-4.82
-3.55
-2.56
-1.70
-0.83
0.13
1.12
2.01
2.70
3.17
3.49
3.81
4.23
4.78
5.41
6.05
6.62
7.06
7.36
7.54
7.63
7.66
7.68
7.71
7.77
7.86
7.98
8.11
8.23
8.30
8.28
8.09
7.69
7.01
6.05
4.85
3.54
2.29
1.28
0.61
0.28
0.15
0.04
-0.26
-0.86
-1.76
-2.82
-3.86
-4.69
-5.21
-5.42
-5.41
-5.36
-5.41
-5.62
-6.00
-6.45
-6.83
-7.09
-7.20
-7.24
-7.32
-7.54
-7.99
-8.67
-9.53
-10.38
-10.99
-11.10
-10.53
-9.27
-7.47
-5.44
-3.52
-1.95
-0.87
-0.21
0.12
0.29
0.42
0.64
1.06
1.76
2.77
4.03
5.40
6.66
7.61
8.10
8.16
7.91
7.54
7.23
7.06
7.03
7.09
7.21
7.37
7.61
7.91
8.19
8.37
8.35
8.09
7.65
7.13
6.58
6.00
5.33
4.48
3.44
2.26
1.10
0.10
-0.63
-1.10
-1.39
-1.63
-1.87
-2.16
-2.49
-2.84
-3.18
-3.50
-3.77
-3.98
-4.11
-4.19
-4.25
-4.35
-4.53
-4.81
-5.21
-5.68
-6.20
-6.68
-7.09
-7.37
-7.54
-7.66
-7.85
-8.22
-8.84
-9.70
-10.70
-11.65
-12.30
-12.39
-11.76
-10.38
-8.45
-6.34
-4.46
-3.14
-2.47
-2.35
-2.53
-2.71
-2.67
-2.28
-1.52
-0.42
0.95
2.48
4.05
5.54
6.81
7.79
8.48
8.94
9.32
9.74
10.29
10.99
11.78
12.50
12.99
13.15
12.94
12.43
11.72
10.92
10.11
9.35
8.65
8.03
7.45
6.87
6.21
5.40
4.41
3.26
2.01
0.76
-0.41
-1.43
-2.28
-2.95
-3.52
-4.05
-4.60
-5.16
-5.69
-6.12
-6.37
-6.46
-6.45
-6.48
-6.66
-7.06
-7.70
-8.55
-9.50
-10.41
-11.12
-11.43
-11.22
-10.41
-9.05
-7.31
-5.42
-3.69
-2.35
-1.50
-1.10
-0.93
-0.72
-0.26
0.51
1.53
2.64
3.74
4.76
5.70
6.54
7.19
7.57
7.62
7.44
7.19
7.07
7.20
7.54
7.94
8.26
8.41
8.38
8.23
8.05
7.85
7.65
7.44
7.19
6.90
6.55
6.10
5.55
4.89
4.14
3.32
2.43
1.45
0.39
-0.68
-1.68
-2.48
-3.03
-3.35
-3.52
-3.66
-3.82
-3.96
-4.01
-3.89
-3.61
-3.28
-3.04
-3.05
-3.34
-3.88
-4.56
-5.27
-5.91
-6.43
-6.85
-7.15
-7.39
-7.61
-7.87
-8.28
-8.90
-9.68
-10.45
-10.94
-10.84
-9.99
-8.43
-6.43
-4.41
-2.76
-1.77
-1.47
-1.64
-1.94
-1.99
-1.56
-0.59
0.77
2.31
3.81
5.14
6.25
7.17
7.90
8.42
8.65
8.55
8.18
7.70
7.34
7.24
7.44
7.83
8.25
8.55
8.62
8.42
7.98
7.34
6.59
5.86
5.25
4.85
4.64
4.50
4.27
3.81
3.09
2.24
1.42
0.79
0.39
0.15
-0.08
-0.42
-0.93
-1.57
-2.23
-2.80
-3.20
-3.40
-3.47
-3.49
-3.57
-3.82
-4.33
-5.13
-6.16
-7.24
-8.14
-8.65
-8.69
-8.35
-7.88
-7.57
-7.64
-8.19
-9.15
-10.35
-11.52
-12.40
-12.71
-12.31
-11.16
-9.41
-7.34
-5.28
-3.54
-2.28
-1.53
-1.19
-1.07
-1.00
-0.82
-0.39
0.33
1.29
2.36
3.36
4.14
4.63
4.86
4.92
4.95
5.07
5.41
6.02
6.92
8.00
9.11
10.06
10.70
10.94
10.82
10.44
9.94
9.45
9.03
8.67
8.36
8.03
7.60
7.02
6.25
5.31
4.24
3.14
2.07
1.05
0.09
-0.83
-1.69
-2.45
-3.07
-3.56
-3.96
-4.36
-4.82
-5.37
-5.93
-6.40
-6.72
-6.89
-7.01
-7.23
-7.67
-8.43
-9.47
-10.66
-11.73
-12.38
-12.28
-11.29
-9.51
-7.25
-4.97
-3.07
-1.79
-1.12
-0.89
-0.87
-0.82
-0.61
-0.13
0.62
1.60
2.70
3.81
4.78
5.54
6.04
6.27
6.23
5.92
5.39
4.73
4.13
3.76
3.75
4.11
4.73
5.40
5.88
5.99
5.64
4.87
3.86
2.81
1.90
1.20
0.68
0.25
-0.20
-0.72
-1.36
-2.16
-3.21
-4.57
-6.22
-8.04
-9.76
-11.12
-11.87
-11.90
-11.17
-9.72
-7.67
-5.21
-2.66
-0.38
1.31
2.28
2.64
2.72
2.85
3.27
3.93
4.56
4.83
4.47
3.51
2.21
1.04
0.43
0.62
1.58
3.06
4.70
6.19
7.35
8.19
8.92
9.83
11.23
13.31
15.97
18.73
20.69
20.90
18.62
13.82
7.39
0.94
-3.78
-5.64
-4.57
-1.59
1.72
3.94
4.36
3.16
1.08
-1.13
-3.10
-4.87
-6.65
-8.51
-10.25
-11.49
-11.82
-11.07
-9.43
-7.46
-5.80
-4.98
-5.13
-6.03
-7.18
-7.87
-7.58
-6.28
-4.49
-3.08
-2.88
-4.09
-6.39
-9.15
-11.43
-12.43
-11.78
-9.72
-6.80
-3.77
-0.87
1.92
4.70
8.02
12.48
18.39
25.51
33.23
40.68
47.54
53.74
56.90
55.01
47.59
36.40
24.33
14.98
7.87
1.82
-4.16
-10.54
-16.88
-21.79
-23.69
-21.51
-15.30
-6.55
2.62
9.74
12.75
11.11
5.77
-1.37
-8.42
-14.13
-18.29
-21.07
-22.93
-24.31
-25.23
-25.43
-24.72
-23.21
-21.30
-19.64
-18.51
-17.96
-17.78
-17.65
-17.24
-16.55
-15.88
-15.73
-16.61
-18.62
-21.49
-24.58
-27.07
-28.20
-27.61
-25.47
-22.37
-19.11
-16.31
-14.27
-12.87
-11.77
-10.54
-8.96
-6.99
-4.77
-2.48
-0.22
2.03
4.42
7.13
10.29
13.88
17.64
21.19
24.04
25.88
26.63
26.53
25.98
25.35
24.80
24.26
23.51
22.29
20.50
18.18
15.52
12.63
9.59
6.37
3.01
-0.36
-3.31
-5.29
-5.74
-4.29
-0.98
3.66
8.71
13.09
15.80
16.25
14.42
10.81
6.32
2.00
-1.21
-2.71
-2.38
-0.52
2.26
5.21
7.66
9.10
9.34
8.46
6.73
4.46
1.87
-1.04
-4.41
-8.38
-12.92
-17.70
-22.06
-25.20
-26.35
-25.05
-21.28
-15.49
-8.50
-1.26
5.31
10.54
14.02
15.67
15.65
14.28
11.99
9.27
6.54
4.10
2.07
0.44
-0.84
-1.78
-2.30
-2.34
-1.87
-1.01
0.10
1.34
2.69
4.17
5.81
7.48
8.99
10.11
10.73
10.90
10.82
10.61
10.26
9.59
8.37
6.45
3.92
1.04
-1.84
-4.44
-6.60
-8.31
-9.59
-10.48
-11.01
-11.30
-11.55
-12.02
-12.96
-14.41
-16.17
-17.84
-18.99
-19.30
-18.70
-17.34
-15.53
-13.59
-11.84
-10.56
-9.98
-10.23
-11.23
-12.66
-13.95
-14.51
-13.90
-12.08
-9.35
-6.27
-3.33
-0.81
1.34
3.36
5.47
7.75
10.02
12.00
13.45
14.27
14.59
14.70
14.87
15.29
15.98
16.83
17.65
18.26
18.55
18.49
18.11
17.48
16.70
15.87
15.05
14.27
13.50
12.73
11.94
11.12
10.28
9.42
8.54
7.62
6.69
5.78
4.95
4.25
3.67
3.17
2.70
2.18
1.55
0.79
-0.07
-0.99
-1.88
-2.64
-3.21
-3.59
-3.83
-4.10
-4.56
-5.38
-6.58
-8.05
-9.49
-10.50
-10.72
-9.95
-8.27
-6.02
-3.70
-1.76
-0.50
0.04
0.00
-0.30
-0.58
-0.59
-0.23
0.50
1.51
2.60
3.52
4.07
4.13
3.72
3.00
2.21
1.60
1.33
1.50
2.07
2.90
3.76
4.39
4.57
4.22
3.48
2.61
1.96
1.75
1.99
2.49
2.96
3.13
2.87
2.20
1.19
-0.06
-1.49
-2.98
-4.37
-5.45
-6.11
-6.33
-6.27
-6.16
-6.19
-6.46
-6.91
-7.41
-7.88
-8.29
-8.71
-9.19
-9.72
-10.25
-10.73
-11.13
-11.48
-11.79
-12.03
-12.11
-11.91
-11.31
-10.21
-8.58
-6.48
-4.06
-1.53
0.82
2.74
4.10
4.94
5.45
5.87
6.44
7.26
8.26
9.30
10.21
10.83
11.10
11.01
10.62
10.06
9.44
8.93
8.64
8.66
8.99
9.57
10.22
10.71
10.80
10.24
8.90
6.80
4.12
1.15
-1.76
-4.32
-6.38
-7.90
-8.96
-9.70
-10.21
-10.57
-10.83
-11.00
-11.07
-11.05
-10.88
-10.57
-10.07
-9.43
-8.71
-8.02
-7.46
-7.11
-6.96
-6.98
-7.08
-7.14
-7.04
-6.72
-6.22
-5.70
-5.36
-5.39
-5.81
-6.42
-6.86
-6.78
-5.93
-4.35
-2.31
-0.22
1.50
2.57
2.94
2.74
2.27
1.81
1.63
1.83
2.38
3.13
3.90
4.51
4.83
4.82
4.53
4.04
3.48
2.95
2.53
2.26
2.12
2.12
2.22
2.43
2.69
2.95
3.10
3.05
2.77
2.32
1.79
1.32
1.02
0.92
0.97
1.02
0.92
0.55
-0.10
-0.91
-1.74
-2.46
-3.01
-3.45
-3.87
-4.36
-4.92
-5.53
-6.14
-6.76
-7.38
-7.98
-8.45
-8.63
-8.35
-7.54
-6.27
-4.77
-3.33
-2.20
-1.50
-1.19
-1.10
-1.00
-0.71
-0.16
0.63
1.54
2.42
3.15
3.70
4.05
4.22
4.23
4.11
3.89
3.67
3.56
3.65
3.96
4.42
4.85
5.08
5.00
4.61
4.04
3.43
2.92
2.54
2.23
1.90
1.46
0.90
0.29
-0.27
-0.69
-0.93
-1.01
-1.04
-1.11
-1.35
-1.81
-2.46
-3.20
-3.89
-4.44
-4.80
-5.03
-5.23
-5.49
-5.87
-6.36
-6.92
-7.52
-8.10
-8.63
-9.01
-9.10
-8.78
-7.99
-6.83
-5.48
-4.19
-3.12
-2.31
-1.65
-0.99
-0.23
0.64
1.51
2.25
2.78
3.15
3.44
3.74
4.10
4.45
4.69
4.74
4.61
4.37
4.15
4.06
4.14
4.35
4.67
5.03
5.39
5.72
5.97
6.07
5.95
5.56
4.89
4.03
3.09
2.25
1.65
1.33
1.26
1.28
1.25
1.07
0.75
0.38
0.03
-0.27
-0.52
-0.76
-1.02
-1.27
-1.55
-1.88
-2.34
-2.99
-3.85
-4.80
-5.70
-6.42
-6.86
-7.06
-7.14
-7.25
-7.54
-8.04
-8.71
-9.34
-9.67
-9.49
-8.76
-7.57
-6.17
-4.78
-3.54
-2.47
-1.53
-0.68
0.09
0.74
1.27
1.73
2.17
2.63
3.10
3.52
3.82
3.98
4.08
4.17
4.33
4.57
4.88
5.21
5.50
5.74
5.94
6.13
6.30
6.43
6.47
6.35
6.04
5.61
5.13
4.69
4.33
3.99
3.61
3.16
2.69
2.25
1.90
1.65
1.41
1.13
0.76
0.35
-0.03
-0.32
-0.53
-0.70
-0.90
-1.19
-1.57
-2.04
-2.57
-3.14
-3.73
-4.30
-4.84
-5.33
-5.78
-6.22
-6.71
-7.27
-7.93
-8.64
-9.32
-9.82
-9.99
-9.69
-8.89
-7.65
-6.14
-4.61
-3.27
-2.22
-1.48
-0.93
-0.41
0.20
0.94
1.80
2.72
3.60
4.36
4.94
5.31
5.45
5.42
5.27
5.11
5.00
5.01
5.17
5.49
5.94
6.45
6.90
7.20
7.25
7.05
6.64
6.13
5.63
5.21
4.88
4.59
4.26
3.81
3.20
2.47
1.65
0.86
0.18
-0.33
-0.65
-0.85
-1.00
-1.22
-1.61
-2.20
-2.98
-3.85
-4.70
-5.37
-5.80
-6.01
-6.12
-6.32
-6.74
-7.41
-8.23
-9.00
-9.51
-9.60
-9.21
-8.36
-7.12
-5.61
-3.96
-2.38
-1.06
-0.13
0.44
0.81
1.20
1.81
2.66
3.63
4.51
5.11
5.42
5.52
5.58
5.72
5.96
6.23
6.46
6.59
6.66
6.73
6.88
7.11
7.39
7.62
7.68
7.53
7.17
6.68
6.14
5.62
5.12
4.62
4.11
3.62
3.24
3.02
2.94
2.91
2.78
2.45
1.88
1.20
0.52
-0.02
-0.40
-0.71
-1.05
-1.54
-2.22
-3.07
-3.98
-4.84
-5.56
-6.06
-6.31
-6.32
-6.16
-5.98
-5.95
-6.26
-6.98
-8.01
-9.11
-9.93
-10.19
-9.73
-8.62
-7.09
-5.46
-4.02
-2.94
-2.28
-1.97
-1.81
-1.61
-1.14
-0.30
0.87
2.21
3.51
4.59
5.41
5.99
6.39
6.64
6.71
6.58
6.32
6.07
6.00
6.22
6.69
7.21
7.52
7.48
7.10
6.55
6.02
5.62
5.32
4.96
4.39
3.56
2.59
1.67
0.97
0.56
0.40
0.35
0.30
0.19
0.00
-0.26
-0.65
-1.20
-1.97
-2.95
-4.05
-5.18
-6.24
-7.20
-8.06
-8.83
-9.53
-10.13
-10.58
-10.78
-10.64
-10.06
-9.03
-7.60
-5.94
-4.29
-2.85
-1.74
-0.94
-0.35
0.17
0.71
1.33
2.02
2.79
3.62
4.51
5.41
6.22
6.85
7.22
7.33
7.31
7.29
7.42
7.75
8.18
8.54
8.64
8.36
7.74
6.93
6.14
5.54
5.20
5.08
5.08
5.09
5.03
4.91
4.68
4.34
3.83
3.14
2.29
1.38
0.53
-0.15
-0.60
-0.83
-0.94
-1.06
-1.32
-1.81
-2.55
-3.46
-4.42
-5.27
-5.88
-6.18
-6.19
-6.05
-5.91
-5.97
-6.34
-7.02
-7.93
-8.85
-9.51
-9.65
-9.13
-7.97
-6.37
-4.66
-3.13
-1.99
-1.23
-0.69
-0.17
0.48
1.30
2.21
3.08
3.79
4.28
4.55
4.65
4.62
4.53
4.47
4.49
4.64
4.92
5.35
5.90
6.56
7.22
7.78
8.08
8.05
7.67
7.05
6.34
5.69
5.15
4.71
4.30
3.85
3.34
2.75
2.08
1.38
0.69
0.09
-0.39
-0.75
-1.07
-1.46
-2.00
-2.70
-3.50
-4.27
-4.94
-5.46
-5.90
-6.35
-6.89
-7.51
-8.15
-8.68
-8.99
-8.99
-8.68
-8.07
-7.21
-6.18
-5.06
-4.01
-3.13
-2.53
-2.18
-1.97
-1.67
-1.11
-0.18
1.06
2.40
3.65
4.60
5.21
5.51
5.63
5.67
5.73
5.82
5.94
6.09
6.22
6.29
6.26
6.11
5.84
5.49
5.12
4.79
4.54
4.36
4.23
4.10
3.93
3.67
3.30
2.81
2.23
1.61
1.05
0.58
0.23
-0.06
-0.37
-0.78
-1.32
-1.98
-2.71
-3.42
-4.09
-4.66
-5.17
-5.67
-6.25
-6.98
-7.83
-8.71
-9.42
-9.75
-9.53
-8.74
-7.51
-6.08
-4.72
-3.63
-2.90
-2.45
-2.11
-1.69
-1.08
-0.25
0.73
1.77
2.75
3.63
4.34
4.86
5.19
5.34
5.39
5.44
5.51
5.63
5.74
5.82
5.88
5.98
6.11
6.22
6.19
5.92
5.44
4.88
4.43
4.19
4.16
4.18
4.08
3.80
3.35
2.80
2.20
1.57
0.89
0.19
-0.44
-0.89
-1.09
-1.10
-1.04
-1.07
-1.29
-1.72
-2.30
-2.90
-3.43
-3.81
-4.01
-4.08
-4.09
-4.15
-4.34
-4.71
-5.25
-5.93
-6.71
-7.56
-8.38
-9.02
-9.26
-8.92
-7.96
-6.56
-5.04
-3.78
-3.02
-2.79
-2.93
-3.11
-3.05
-2.55
-1.57
-0.26
1.16
2.44
3.41
4.02
4.32
4.41
4.38
4.31
4.21
4.12
4.08
4.12
4.25
4.43
4.60
4.72
4.79
4.83
4.81
4.67
4.31
3.71
2.94
2.15
1.52
1.13
0.91
0.68
0.25
-0.46
-1.39
-2.39
-3.28
-3.94
-4.34
-4.53
-4.63
-4.77
-5.06
-5.60
-6.37
-7.28
-8.13
-8.65
-8.62
-7.97
-6.76
-5.27
-3.84
-2.75
-2.10
-1.82
-1.68
-1.42
-0.86
0.01
1.08
2.17
3.15
3.98
4.71
5.36
5.92
6.28
6.37
6.14
5.67
5.16
4.77
4.66
4.83
5.22
5.67
6.04
6.21
6.12
5.80
5.34
4.83
4.37
3.96
3.59
3.19
2.71
2.11
1.43
0.73
0.06
-0.53
-1.02
-1.39
-1.66
-1.86
-2.01
-2.19
-2.44
-2.77
-3.15
-3.54
-3.91
-4.24
-4.60
-5.05
-5.65
-6.41
-7.28
-8.14
-8.86
-9.31
-9.37
-8.99
-8.15
-6.94
-5.53
-4.16
-3.05
-2.36
-2.07
-2.05
-2.03
-1.78
-1.15
-0.11
1.23
2.69
4.08
5.22
5.99
6.33
6.27
5.90
5.39
4.87
4.49
4.29
4.29
4.43
4.66
4.91
5.14
5.32
5.38
5.27
4.95
4.46
3.86
3.21
2.56
1.91
1.29
0.73
0.29
0.01
-0.13
-0.22
-0.40
-0.78
-1.40
-2.20
-3.06
-3.84
-4.44
-4.85
-5.13
-5.35
-5.61
-6.00
-6.57
-7.32
-8.17
-8.95
-9.45
-9.48
-8.93
-7.82
-6.36
-4.85
-3.59
-2.74
-2.28
-2.00
-1.64
-0.98
0.02
1.26
2.54
3.67
4.54
5.16
5.57
5.83
5.97
6.01
6.00
5.99
6.05
6.19
6.37
6.52
6.59
6.52
6.33
6.07
5.77
5.47
5.18
4.92
4.66
4.35
3.97
3.49
2.91
2.27
1.59
0.91
0.23
-0.41
-0.92
-1.22
-1.27
-1.14
-0.96
-0.95
-1.21
-1.73
-2.37
-2.97
-3.41
-3.71
-3.97
-4.32
-4.85
-5.54
-6.34
-7.15
-7.87
-8.45
-8.83
-8.96
-8.80
-8.35
-7.65
-6.78
-5.88
-5.04
-4.30
-3.66
-2.99
-2.16
-1.06
0.35
1.97
3.58
4.95
5.86
6.25
6.18
5.85
5.51
5.32
5.36
5.52
5.68
5.73
5.61
5.40
5.18
5.02
4.92
4.88
4.83
4.75
4.66
4.54
4.37
4.11
3.72
3.22
2.65
2.10
1.63
1.23
0.87
0.48
-0.02
-0.64
-1.37
-2.14
-2.86
-3.47
-3.92
-4.25
-4.52
-4.84
-5.31
-5.99
-6.87
-7.85
-8.75
-9.36
-9.50
-9.09
-8.13
-6.78
-5.27
-3.91
-2.93
-2.44
-2.37
-2.47
-2.39
-1.90
-0.88
0.53
2.09
3.51
4.61
5.32
5.72
5.88
5.91
5.84
5.72
5.60
5.53
5.56
5.72
5.96
6.22
6.41
6.41
6.20
5.78
5.25
4.76
4.42
4.28
4.25
4.19
3.94
3.37
2.49
1.40
0.26
-0.75
-1.49
-1.88
-1.94
-1.77
-1.56
-1.52
-1.74
-2.26
-2.95
-3.67
-4.27
-4.68
-4.92
-5.07
-5.21
-5.42
-5.72
-6.13
-6.58
-7.00
-7.27
-7.27
-6.94
-6.29
-5.40
-4.45
-3.60
-3.00
-2.66
-2.49
-2.31
-1.94
-1.27
-0.32
0.81
1.99
3.10
4.07
4.84
5.35
5.57
5.48
5.17
4.77
4.45
4.34
4.47
4.78
5.16
5.49
5.70
5.74
5.62
5.35
4.97
4.53
4.07
3.63
3.22
2.88
2.61
2.42
2.28
2.13
1.88
1.46
0.87
0.20
-0.40
-0.83
-1.07
-1.19
-1.28
-1.41
-1.60
-1.80
-2.02
-2.30
-2.70
-3.22
-3.79
-4.24
-4.41
-4.29
-3.99
-3.79
-3.91
-4.50
-5.50
-6.72
-7.88
-8.72
-9.06
-8.80
-7.99
-6.78
-5.43
-4.21
-3.35
-2.89
-2.73
-2.67
-2.50
-2.12
-1.51
-0.76
0.06
0.93
1.84
2.77
3.67
4.41
4.91
5.12
5.12
5.02
4.98
5.02
5.14
5.24
5.24
5.10
4.86
4.56
4.28
4.06
3.90
3.80
3.69
3.50
3.15
2.63
1.97
1.30
0.74
0.36
0.13
-0.09
-0.45
-1.05
-1.83
-2.66
-3.34
-3.76
-3.93
-3.94
-3.93
-4.06
-4.39
-4.94
-5.67
-6.50
-7.32
-7.95
-8.25
-8.08
-7.43
-6.38
-5.16
-4.03
-3.18
-2.70
-2.50
-2.39
-2.15
-1.65
-0.83
0.24
1.43
2.58
3.53
4.19
4.53
4.63
4.59
4.53
4.55
4.69
4.95
5.25
5.54
5.73
5.77
5.60
5.26
4.81
4.38
4.11
4.08
4.27
4.59
4.86
4.96
4.77
4.29
3.53
2.55
1.45
0.33
-0.70
-1.55
-2.15
-2.52
-2.75
-2.94
-3.19
-3.54
-3.97
-4.42
-4.88
-5.36
-5.89
-6.49
-7.17
-7.85
-8.47
-8.93
-9.14
-9.06
-8.64
-7.95
-7.09
-6.23
-5.49
-4.93
-4.50
-4.08
-3.52
-2.75
-1.74
-0.56
0.67
1.87
2.97
3.89
4.62
5.16
5.54
5.81
6.01
6.11
6.10
5.97
5.74
5.52
5.37
5.37
5.46
5.57
5.56
5.35
4.94
4.44
3.95
3.59
3.38
3.26
3.12
2.86
2.45
1.91
1.32
0.75
0.26
-0.17
-0.59
-1.09
-1.73
-2.51
-3.36
-4.20
-4.91
-5.44
-5.83
-6.19
-6.66
-7.32
-8.14
-8.95
-9.51
-9.63
-9.20
-8.30
-7.13
-5.93
-4.95
-4.31
-4.02
-3.95
-3.90
-3.64
-3.00
-1.93
-0.51
1.12
2.73
4.16
5.27
6.02
6.46
6.68
6.79
6.88
7.02
7.21
7.41
7.58
7.69
7.70
7.61
7.39
7.03
6.59
6.17
5.87
5.74
5.73
5.71
5.55
5.16
4.57
3.86
3.13
2.45
1.84
1.31
0.85
0.47
0.17
-0.08
-0.35
-0.66
-1.07
-1.57
-2.18
-2.88
-3.62
-4.30
-4.80
-5.07
-5.16
-5.23
-5.48
-6.03
-6.89
-7.92
-8.90
-9.68
-10.13
-10.24
-9.99
-9.35
-8.34
-7.02
-5.56
-4.19
-3.10
-2.39
-1.97
-1.67
-1.28
-0.64
0.26
1.34
2.51
3.66
4.74
5.69
6.47
7.01
7.30
7.32
7.15
6.90
6.67
6.54
6.54
6.64
6.78
6.87
6.84
6.64
6.27
5.79
5.29
4.85
4.51
4.23
3.94
3.54
2.97
2.23
1.36
0.47
-0.36
-1.03
-1.53
-1.92
-2.30
-2.75
-3.31
-3.94
-4.55
-5.01
-5.28
-5.37
-5.41
-5.59
-6.06
-6.89
-8.01
-9.20
-10.12
-10.45
-10.00
-8.80
-7.12
-5.36
-3.90
-2.95
-2.51
-2.36
-2.23
-1.91
-1.27
-0.31
0.88
2.19
3.48
4.62
5.49
6.03
6.25
6.25
6.17
6.14
6.24
6.45
6.73
6.98
7.15
7.19
7.08
6.84
6.51
6.11
5.67
5.22
4.77
4.35
4.01
3.78
3.64
3.54
3.36
3.02
2.51
1.91
1.34
0.94
0.77
0.74
0.68
0.39
-0.28
-1.31
-2.57
-3.82
-4.83
-5.48
-5.79
-5.89
-5.95
-6.06
-6.28
-6.60
-7.01
-7.52
-8.16
-8.88
-9.52
-9.85
-9.59
-8.66
-7.13
-5.30
-3.56
-2.23
-1.47
-1.21
-1.25
-1.27
-1.00
-0.31
0.79
2.14
3.48
4.58
5.30
5.64
5.72
5.68
5.65
5.68
5.73
5.77
5.79
5.83
5.94
6.15
6.40
6.57
6.57
6.36
5.97
5.52
5.10
4.74
4.42
4.08
3.67
3.21
2.72
2.27
1.88
1.57
1.29
0.99
0.59
0.04
-0.68
-1.53
-2.45
-3.31
-4.04
-4.63
-5.10
-5.49
-5.84
-6.15
-6.40
-6.60
-6.82
-7.13
-7.59
-8.19
-8.81
-9.23
-9.25
-8.78
-7.85
-6.65
-5.43
-4.43
-3.79
-3.47
-3.31
-3.08
-2.58
-1.71
-0.50
0.91
2.36
3.72
4.93
5.91
6.57
6.79
6.53
5.91
5.17
4.63
4.47
4.69
5.09
5.30
5.04
4.25
3.07
1.73
0.40
-0.79
-1.69
-2.13
-1.99
-1.27
-0.03
1.57
3.36
5.15
6.80
8.35
9.83
11.21
12.41
13.49
14.65
16.15
18.11
20.55
23.52
26.99
30.71
33.04
31.86
25.48
13.63
-2.63
-21.66
-41.73
-61.41
-79.24
-93.32
-100.93
-99.09
-85.92
-62.23
-31.98
-1.29
23.43
38.08
42.36
39.38
33.49
28.12
24.63
22.03
19.61
17.53
16.70
17.29
17.79
15.40
8.21
-2.86
-13.27
-16.10
-7.72
9.35
27.21
36.95
33.72
19.95
1.86
-13.37
-21.21
-21.79
-18.46
-14.98
-13.19
-12.50
-11.25
-8.49
-4.60
-1.04
0.26
-1.54
-5.75
-10.27
-12.62
-11.06
-5.29
3.27
12.15
18.62
20.87
18.54
12.62
4.85
-3.11
-10.20
-16.00
-20.57
-24.19
-27.04
-29.16
-30.46
-30.80
-30.20
-28.81
-26.85
-24.61
-22.32
-20.07
-17.74
-15.09
-11.85
-7.86
-3.11
2.22
7.92
13.73
19.37
24.50
28.76
31.79
33.38
33.50
32.36
30.31
27.76
25.10
22.59
20.45
18.75
17.49
16.55
15.72
14.77
13.52
11.94
10.14
8.29
6.56
5.04
3.68
2.41
1.19
0.07
-0.82
-1.35
-1.44
-1.19
-0.79
-0.48
-0.38
-0.54
-0.91
-1.45
-2.16
-3.07
-4.17
-5.34
-6.36
-7.01
-7.18
-6.95
-6.52
-6.09
-5.76
-5.51
-5.30
-5.06
-4.82
-4.62
-4.45
-4.27
-4.00
-3.64
-3.26
-2.99
-2.92
-3.01
-3.15
-3.20
-3.10
-2.90
-2.75
-2.77
-3.02
-3.46
-4.02
-4.63
-5.18
-5.57
-5.65
-5.29
-4.41
-2.99
-1.11
1.08
3.37
5.56
7.38
8.59
8.96
8.38
6.93
4.90
2.72
0.85
-0.34
-0.72
-0.32
0.68
2.08
3.75
5.58
7.48
9.23
10.44
10.63
9.33
6.42
2.23
-2.42
-6.50
-9.23
-10.39
-10.51
-10.59
-11.62
-14.16
-18.09
-22.76
-27.18
-30.20
-30.64
-27.44
-20.10
-9.08
3.94
16.32
25.29
28.90
26.82
20.34
11.79
3.58
-2.61
-6.04
-6.81
-5.41
-2.51
1.25
5.17
8.61
11.03
12.20
12.19
11.37
10.23
9.21
8.59
8.45
8.71
9.14
9.49
9.54
9.17
8.40
7.41
6.50
5.94
5.90
6.32
6.93
7.37
7.32
6.67
5.55
4.23
3.00
2.04
1.37
0.87
0.36
-0.25
-0.98
-1.74
-2.41
-2.91
-3.25
-3.46
-3.58
-3.67
-3.75
-3.87
-4.13
-4.62
-5.37
-6.29
-7.15
-7.66
-7.58
-6.87
-5.71
-4.45
-3.44
-2.88
-2.73
-2.79
-2.79
-2.52
-1.92
-1.06
-0.07
0.92
1.84
2.69
3.46
4.11
4.61
4.95
5.14
5.20
5.18
5.14
5.09
5.07
5.09
5.13
5.12
4.99
4.69
4.27
3.80
3.40
3.16
3.08
3.12
3.17
3.12
2.92
2.55
2.01
1.36
0.67
0.03
-0.46
-0.78
-0.97
-1.10
-1.29
-1.57
-1.92
-2.30
-2.67
-3.00
-3.29
-3.55
-3.81
-4.10
-4.47
-4.96
-5.58
-6.28
-6.91
-7.32
-7.36
-7.02
-6.38
-5.62
-4.91
-4.34
-3.87
-3.39
-2.77
-1.94
-0.96
0.03
0.87
1.49
1.90
2.23
2.65
3.24
4.00
4.82
5.53
5.98
6.10
5.88
5.40
4.76
4.09
3.52
3.14
2.99
3.02
3.17
3.34
3.48
3.59
3.69
3.78
3.77
3.57
3.13
2.46
1.67
0.95
0.44
0.17
0.08
0.04
-0.06
-0.28
-0.60
-0.94
-1.23
-1.43
-1.55
-1.61
-1.67
-1.76
-1.93
-2.18
-2.48
-2.79
-3.06
-3.28
-3.48
-3.74
-4.11
-4.62
-5.25
-5.93
-6.56
-7.07
-7.38
-7.39
-7.04
-6.32
-5.29
-4.12
-3.02
-2.21
-1.79
-1.68
-1.68
-1.54
-1.06
-0.23
0.81
1.83
2.64
3.18
3.51
3.75
3.96
4.11
4.11
3.89
3.50
3.09
2.82
2.77
2.88
2.98
2.96
2.78
2.52
2.28
2.11
1.96
1.71
1.23
0.53
-0.33
-1.16
-1.84
-2.31
-2.56
-2.63
-2.57
-2.44
-2.28
-2.14
-2.06
-2.09
-2.26
-2.58
-3.04
-3.62
-4.27
-4.93
-5.51
-5.93
-6.13
-6.07
-5.77
-5.28
-4.69
-4.10
-3.62
-3.30
-3.14
-3.06
-2.89
-2.49
-1.74
-0.67
0.56
1.72
2.60
3.08
3.21
3.14
3.07
3.15
3.39
3.71
4.02
4.22
4.28
4.20
4.03
3.79
3.52
3.23
2.95
2.70
2.47
2.24
1.98
1.66
1.28
0.83
0.34
-0.14
-0.53
-0.77
-0.83
-0.76
-0.69
-0.72
-0.91
-1.20
-1.48
-1.64
-1.68
-1.72
-1.89
-2.33
-3.01
-3.79
-4.50
-4.94
-5.03
-4.78
-4.24
-3.52
-2.72
-1.94
-1.27
-0.78
-0.50
-0.38
-0.28
-0.10
0.25
0.78
1.41
2.06
2.60
3.01
3.25
3.36
3.38
3.37
3.38
3.42
3.49
3.55
3.55
3.49
3.40
3.31
3.24
3.16
3.03
2.83
2.57
2.33
2.16
2.12
2.19
2.28
2.30
2.17
1.84
1.33
0.71
0.11
-0.36
-0.61
-0.66
-0.57
-0.46
-0.44
-0.60
-0.91
-1.30
-1.68
-1.94
-2.04
-1.99
-1.89
-1.84
-1.94
-2.22
-2.63
-3.10
-3.54
-3.94
-4.30
-4.67
-5.06
-5.46
-5.88
-6.29
-6.66
-6.95
-7.05
-6.87
-6.37
-5.62
-4.78
-4.04
-3.55
-3.30
-3.19
-3.05
-2.74
-2.21
-1.46
-0.55
0.48
1.57
2.62
3.51
4.13
4.44
4.47
4.38
4.32
4.39
4.58
4.77
4.86
4.77
4.52
4.18
3.83
3.52
3.25
2.98
2.68
2.37
2.06
1.74
1.43
1.10
0.78
0.47
0.20
-0.03
-0.24
-0.46
-0.72
-1.03
-1.38
-1.72
-2.03
-2.29
-2.52
-2.75
-3.04
-3.48
-4.12
-4.96
-5.90
-6.74
-7.27
-7.30
-6.79
-5.87
-4.77
-3.76
-3.03
-2.62
-2.43
-2.30
-2.06
-1.63
-0.99
-0.16
0.81
1.87
2.93
3.83
4.46
4.72
4.63
4.34
4.03
3.89
3.97
4.23
4.52
4.67
4.60
4.32
3.95
3.60
3.36
3.18
2.99
2.68
2.25
1.76
1.35
1.11
1.06
1.09
1.10
1.00
0.81
0.60
0.45
0.40
0.43
0.45
0.40
0.19
-0.21
-0.82
-1.56
-2.33
-3.04
-3.60
-4.01
-4.33
-4.65
-5.03
-5.49
-6.02
-6.53
-6.92
-7.02
-6.72
-5.97
-4.87
-3.70
-2.81
-2.44
-2.59
-3.03
-3.31
-3.08
-2.18
-0.76
0.86
2.33
3.41
4.01
4.22
4.17
3.97
3.71
3.44
3.24
3.18
3.27
3.48
3.73
3.95
4.08
4.14
4.12
4.06
3.93
3.71
3.38
2.97
2.53
2.13
1.81
1.51
1.16
0.69
0.11
-0.50
-1.04
-1.41
-1.59
-1.63
-1.61
-1.62
-1.73
-1.98
-2.36
-2.87
-3.49
-4.15
-4.83
-5.52
-6.20
-6.87
-7.46
-7.86
-7.92
-7.55
-6.73
-5.61
-4.44
-3.46
-2.85
-2.59
-2.52
-2.38
-1.94
-1.10
0.06
1.34
2.50
3.35
3.86
4.08
4.17
4.25
4.39
4.64
4.98
5.40
5.85
6.27
6.58
6.68
6.53
6.15
5.63
5.11
4.74
4.58
4.60
4.70
4.73
4.59
4.25
3.76
3.21
2.72
2.35
2.12
1.99
1.88
1.73
1.49
1.18
0.84
0.52
0.24
-0.01
-0.22
-0.39
-0.51
-0.56
-0.55
-0.51
-0.47
-0.45
-0.47
-0.57
-0.76
-1.13
-1.69
-2.43
-3.25
-4.01
-4.57
-4.90
-5.08
-5.25
-5.56
-6.09
-6.82
-7.63
-8.35
-8.80
-8.81
-8.32
-7.40
-6.22
-5.04
-4.09
-3.46
-3.11
-2.86
-2.49
-1.87
-0.99
0.06
1.14
2.15
3.05
3.84
4.52
5.06
5.39
5.49
5.37
5.12
4.89
4.79
4.89
5.13
5.42
5.63
5.66
5.50
5.20
4.82
4.38
3.92
3.43
2.91
2.40
1.95
1.56
1.24
0.95
0.62
0.24
-0.21
-0.68
-1.13
-1.55
-1.97
-2.43
-2.97
-3.55
-4.09
-4.50
-4.74
-4.92
-5.19
-5.73
-6.62
-7.71
-8.72
-9.28
-9.16
-8.36
-7.08
-5.70
-4.56
-3.87
-3.59
-3.53
-3.41
-3.00
-2.18
-0.95
0.53
2.08
3.49
4.60
5.33
5.70
5.77
5.65
5.43
5.21
5.06
5.05
5.23
5.57
6.00
6.36
6.49
6.32
5.87
5.29
4.75
4.35
4.14
4.03
3.93
3.81
3.65
3.50
3.36
3.22
3.00
2.65
2.15
1.57
1.04
0.64
0.41
0.33
0.29
0.21
0.03
-0.26
-0.61
-0.98
-1.37
-1.78
-2.23
-2.70
-3.13
-3.48
-3.72
-3.89
-4.08
-4.36
-4.80
-5.40
-6.16
-6.99
-7.81
-8.44
-8.71
-8.45
-7.60
-6.27
-4.73
-3.34
-2.36
-1.87
-1.72
-1.57
-1.14
-0.27
0.95
2.30
3.51
4.40
4.97
5.36
5.72
6.12
6.51
6.76
6.77
6.54
6.15
5.78
5.55
5.45
5.37
5.17
4.74
4.11
3.44
2.89
2.60
2.57
2.67
2.73
2.62
2.28
1.76
1.15
0.53
-0.00
-0.43
-0.77
-1.08
-1.44
-1.93
-2.55
-3.25
-3.91
-4.40
-4.67
-4.73
-4.68
-4.68
-4.91
-5.47
-6.40
-7.58
-8.75
-9.57
-9.75
-9.13
-7.82
-6.12
-4.41
-3.02
-2.07
-1.53
-1.20
-0.88
-0.43
0.24
1.16
2.29
3.56
4.85
6.01
6.91
7.43
7.54
7.26
6.70
6.00
5.32
4.80
4.54
4.57
4.82
5.14
5.36
5.32
4.95
4.28
3.45
2.69
2.17
2.00
2.12
2.36
2.52
2.48
2.21
1.80
1.33
0.88
0.45
0.04
-0.33
-0.64
-0.86
-1.04
-1.25
-1.62
-2.17
-2.85
-3.51
-3.99
-4.20
-4.20
-4.17
-4.30
-4.72
-5.41
-6.24
-7.03
-7.64
-7.98
-8.02
-7.74
-7.13
-6.20
-5.02
-3.77
-2.65
-1.79
-1.21
-0.80
-0.36
0.28
1.14
2.14
3.12
3.95
4.57
5.00
5.32
5.58
5.78
5.87
5.82
5.58
5.19
4.69
4.17
3.71
3.34
3.07
2.87
2.74
2.63
2.53
2.40
2.18
1.83
1.34
0.76
0.14
-0.42
-0.87
-1.19
-1.39
-1.49
-1.54
-1.57
-1.61
-1.73
-1.94
-2.22
-2.55
-2.87
-3.14
-3.39
-3.70
-4.13
-4.72
-5.43
-6.14
-6.68
-6.86
-6.54
-5.70
-4.45
-3.04
-1.76
-0.80
-0.20
0.16
0.54
1.13
1.98
3.01
4.08
5.05
5.91
6.69
7.41
7.99
8.26
8.07
7.40
6.43
5.44
4.74
4.50
4.69
5.06
5.30
5.17
4.62
3.78
2.88
2.13
1.59
1.20
0.83
0.37
-0.18
-0.73
-1.16
-1.38
-1.38
-1.23
-1.06
-0.94
-0.94
-1.04
-1.18
-1.27
-1.24
-1.08
-0.84
-0.64
-0.62
-0.88
-1.43
-2.15
-2.90
-3.50
-3.87
-4.00
-3.98
-3.96
-4.08
-4.42
-5.03
-5.83
-6.66
-7.29
-7.50
-7.14
-6.21
-4.87
-3.41
-2.10
-1.15
-0.56
-0.19
0.22
0.86
1.78
2.90
4.04
5.04
5.84
6.42
6.80
6.96
6.88
6.51
5.91
5.20
4.53
4.00
3.65
3.43
3.26
3.08
2.87
2.60
2.25
1.78
1.17
0.47
-0.18
-0.64
-0.84
-0.81
-0.66
-0.54
-0.55
-0.71
-1.00
-1.35
-1.69
-1.99
-2.21
-2.33
-2.33
-2.25
-2.15
-2.12
-2.22
-2.48
-2.83
-3.20
-3.46
-3.59
-3.56
-3.43
-3.26
-3.13
-3.13
-3.34
-3.83
-4.54
-5.31
-5.89
-5.99
-5.44
-4.27
-2.73
-1.19
0.03
0.77
1.12
1.33
1.68
2.32
3.25
4.33
5.36
6.16
6.65
6.82
6.74
6.50
6.18
5.86
5.56
5.30
5.07
4.84
4.54
4.11
3.52
2.78
1.93
1.04
0.23
-0.46
-1.00
-1.38
-1.61
-1.68
-1.64
-1.54
-1.48
-1.52
-1.72
-2.03
-2.37
-2.64
-2.77
-2.80
-2.80
-2.89
-3.17
-3.63
-4.18
-4.64
-4.84
-4.71
-4.32
-3.87
-3.62
-3.76
-4.33
-5.20
-6.10
-6.71
-6.82
-6.33
-5.28
-3.83
-2.24
-0.76
0.38
1.08
1.40
1.55
1.79
2.30
3.10
4.06
5.00
5.79
6.42
6.90
7.24
7.38
7.21
6.66
5.75
4.67
3.68
2.98
2.67
2.66
2.78
2.85
2.74
2.46
2.08
1.68
1.33
0.97
0.53
-0.08
-0.85
-1.67
-2.36
-2.78
-2.89
-2.79
-2.65
-2.64
-2.81
-3.14
-3.50
-3.80
-3.99
-4.09
-4.16
-4.26
-4.40
-4.60
-4.87
-5.25
-5.73
-6.23
-6.62
-6.69
-6.31
-5.40
-4.05
-2.44
-0.87
0.43
1.32
1.78
1.97
2.09
2.38
2.94
3.79
4.79
5.77
6.55
7.02
7.19
7.12
6.94
6.73
6.54
6.35
6.09
5.71
5.17
4.51
3.82
3.17
2.63
2.19
1.79
1.37
0.88
0.31
-0.32
-0.95
-1.53
-2.00
-2.33
-2.49
-2.49
-2.35
-2.16
-1.96
-1.80
-1.68
-1.61
-1.60
-1.70
-1.96
-2.37
-2.85
-3.27
-3.48
-3.44
-3.22
-3.02
-3.05
-3.46
-4.24
-5.23
-6.18
-6.84
-7.00
-6.57
-5.56
-4.16
-2.64
-1.32
-0.43
-0.02
0.06
0.10
0.38
1.06
2.10
3.33
4.53
5.53
6.29
6.80
7.06
7.10
6.94
6.62
6.22
5.85
5.57
5.40
5.24
5.00
4.57
3.97
3.27
2.59
2.04
1.65
1.41
1.23
1.05
0.82
0.54
0.25
-0.02
-0.25
-0.42
-0.54
-0.64
-0.76
-0.97
-1.32
-1.79
-2.34
-2.86
-3.27
-3.49
-3.51
-3.37
-3.10
-2.79
-2.52
-2.36
-2.36
-2.48
-2.63
-2.71
-2.69
-2.62
-2.61
-2.79
-3.19
-3.79
-4.50
-5.25
-5.99
-6.68
-7.18
-7.30
-6.90
-5.92
-4.51
-2.98
-1.65
-0.68
-0.05
0.45
1.02
1.77
2.64
3.53
4.31
4.94
5.47
5.95
6.42
6.83
7.13
7.25
7.18
6.93
6.57
6.15
5.71
5.24
4.74
4.22
3.70
3.21
2.76
2.38
2.01
1.63
1.18
0.66
0.09
-0.52
-1.11
-1.66
-2.12
-2.41
-2.48
-2.31
-1.95
-1.51
-1.15
-0.99
-1.06
-1.33
-1.66
-1.94
-2.06
-2.04
-1.95
-1.91
-1.97
-2.16
-2.44
-2.76
-3.06
-3.31
-3.46
-3.47
-3.34
-3.14
-3.02
-3.15
-3.66
-4.53
-5.56
-6.43
-6.85
-6.62
-5.75
-4.42
-2.87
-1.39
-0.18
0.65
1.13
1.37
1.55
1.86
2.38
3.11
3.93
4.71
5.35
5.78
6.02
6.08
6.01
5.83
5.58
5.28
4.97
4.62
4.22
3.73
3.16
2.52
1.90
1.34
0.83
0.34
-0.21
-0.82
-1.48
-2.09
-2.55
-2.81
-2.91
-2.94
-3.03
-3.25
-3.61
-4.00
-4.30
-4.38
-4.21
-3.86
-3.46
-3.17
-3.06
-3.13
-3.27
-3.35
-3.27
-3.07
-2.89
-2.96
-3.43
-4.31
-5.44
-6.52
-7.23
-7.32
-6.71
-5.49
-3.89
-2.20
-0.67
0.49
1.24
1.62
1.79
1.94
2.24
2.76
3.48
4.30
5.09
5.71
6.07
6.19
6.11
5.92
5.69
5.48
5.27
5.05
4.83
4.62
4.45
4.28
4.10
3.83
3.47
3.05
2.66
2.36
2.16
2.02
1.86
1.62
1.28
0.87
0.50
0.21
0.05
-0.01
-0.03
-0.06
-0.09
-0.10
-0.04
0.12
0.32
0.51
0.62
0.62
0.55
0.47
0.46
0.48
0.47
0.29
-0.15
-0.86
-1.74
-2.61
-3.28
-3.65
-3.71
-3.60
-3.51
-3.59
-3.94
-4.59
-5.49
-6.59
-7.75
-8.80
-9.50
-9.64
-9.06
-7.82
-6.14
-4.41
-3.03
-2.29
-2.20
-2.56
-3.02
-3.22
-2.98
-2.29
-1.36
-0.47
0.18
0.49
0.51
0.35
0.08
-0.26
-0.63
-0.96
-1.12
-0.94
-0.32
0.73
2.05
3.36
4.44
5.13
5.43
5.51
5.56
5.70
5.94
6.17
6.23
5.99
5.45
4.70
3.89
3.16
2.55
2.07
1.64
1.22
0.80
0.36
-0.09
-0.55
-1.04
-1.55
-2.08
-2.61
-3.14
-3.72
-4.42
-5.27
-6.25
-7.17
-7.81
-7.92
-7.39
-6.28
-4.82
-3.34
-2.11
-1.29
-0.85
-0.61
-0.36
0.08
0.79
1.71
2.72
3.65
4.38
4.88
5.23
5.52
5.84
6.14
6.35
6.35
6.15
5.84
5.58
5.47
5.51
5.60
5.57
5.33
4.89
4.35
3.83
3.43
3.18
3.03
2.93
2.80
2.62
2.37
2.07
1.73
1.35
0.92
0.42
-0.13
-0.72
-1.27
-1.70
-1.96
-2.03
-2.01
-2.01
-2.17
-2.56
-3.15
-3.83
-4.46
-4.93
-5.24
-5.46
-5.76
-6.24
-6.96
-7.87
-8.83
-9.69
-10.22
-10.25
-9.64
-8.42
-6.79
-5.08
-3.64
-2.69
-2.23
-2.03
-1.77
-1.19
-0.22
1.02
2.32
3.51
4.49
5.29
5.93
6.44
6.80
6.98
6.96
6.80
6.59
6.45
6.45
6.58
6.78
6.90
6.82
6.48
5.89
5.17
4.46
3.89
3.53
3.35
3.26
3.16
2.97
2.72
2.47
2.29
2.23
2.22
2.13
1.84
1.31
0.63
-0.04
-0.53
-0.78
-0.86
-0.91
-1.10
-1.53
-2.19
-3.00
-3.81
-4.50
-4.98
-5.25
-5.40
-5.54
-5.78
-6.21
-6.87
-7.73
-8.71
-9.64
-10.31
-10.49
-10.03
-8.88
-7.24
-5.42
-3.79
-2.64
-2.03
-1.79
-1.62
-1.27
-0.58
0.42
1.61
2.82
3.94
4.93
5.75
6.39
6.79
6.92
6.83
6.60
6.36
6.19
6.10
6.02
5.88
5.64
5.34
5.04
4.78
4.55
4.31
4.02
3.70
3.37
3.07
2.76
2.36
1.77
0.97
0.06
-0.77
-1.32
-1.50
-1.42
-1.29
-1.36
-1.80
-2.58
-3.53
-4.41
-5.05
-5.41
-5.57
-5.68
-5.89
-6.28
-6.86
-7.57
-8.28
-8.79
-8.89
-8.44
-7.41
-5.98
-4.48
-3.23
-2.46
-2.16
-2.11
-2.00
-1.59
-0.80
0.29
1.55
2.83
4.05
5.15
6.09
6.78
7.15
7.21
7.02
6.75
6.53
6.43
6.43
6.44
6.39
6.24
6.05
5.84
5.65
5.48
5.31
5.09
4.83
4.53
4.21
3.86
3.49
3.09
2.70
2.37
2.18
2.13
2.17
2.20
2.09
1.79
1.35
0.86
0.42
0.08
-0.21
-0.52
-0.93
-1.47
-2.07
-2.67
-3.18
-3.61
-3.97
-4.35
-4.80
-5.35
-6.04
-6.88
-7.92
-9.14
-10.44
-11.58
-12.28
-12.25
-11.39
-9.83
-7.94
-6.21
-4.98
-4.36
-4.15
-3.99
-3.54
-2.65
-1.36
0.13
1.61
2.97
4.19
5.28
6.20
6.85
7.13
7.03
6.67
6.25
5.95
5.81
5.76
5.69
5.50
5.21
4.92
4.72
4.62
4.51
4.31
3.96
3.48
3.01
2.63
2.36
2.13
1.83
1.37
0.70
-0.14
-1.08
-2.01
-2.81
-3.41
-3.77
-3.93
-4.01
-4.18
-4.59
-5.29
-6.27
-7.43
-8.62
-9.65
-10.31
-10.42
-9.84
-8.60
-6.89
-5.04
-3.46
-2.40
-1.89
-1.71
-1.51
-0.95
0.11
1.61
3.30
4.92
6.29
7.31
7.96
8.28
8.27
8.00
7.52
6.99
6.53
6.26
6.16
6.18
6.21
6.17
6.04
5.83
5.57
5.22
4.76
4.18
3.52
2.87
2.35
1.98
1.73
1.48
1.10
0.55
-0.11
-0.74
-1.17
-1.37
-1.44
-1.59
-2.03
-2.84
-3.90
-4.96
-5.74
-6.08
-6.03
-5.83
-5.78
-6.15
-7.07
-8.45
-10.06
-11.51
-12.40
-12.44
-11.47
-9.66
-7.37
-5.10
-3.31
-2.22
-1.73
-1.52
-1.16
-0.36
0.96
2.66
4.47
6.13
7.44
8.33
8.78
8.81
8.52
8.04
7.58
7.34
7.41
7.75
8.17
8.43
8.39
8.01
7.39
6.66
5.93
5.25
4.66
4.19
3.87
3.73
3.73
3.74
3.61
3.23
2.61
1.84
1.08
0.42
-0.11
-0.53
-0.91
-1.27
-1.61
-1.90
-2.13
-2.33
-2.57
-2.89
-3.29
-3.73
-4.15
-4.52
-4.84
-5.17
-5.59
-6.20
-7.05
-8.14
-9.39
-10.61
-11.55
-11.93
-11.57
-10.47
-8.80
-6.89
-5.08
-3.58
-2.42
-1.47
-0.53
0.51
1.67
2.88
4.04
5.09
6.02
6.83
7.49
7.98
8.23
8.23
8.00
7.60
7.10
6.58
6.12
5.77
5.57
5.50
5.50
5.46
5.30
4.98
4.54
4.04
3.54
3.08
2.62
2.13
1.60
1.07
0.60
0.23
-0.05
-0.28
-0.53
-0.85
-1.25
-1.68
-2.10
-2.48
-2.78
-3.02
-3.21
-3.37
-3.52
-3.69
-3.91
-4.20
-4.55
-4.98
-5.49
-6.14
-6.99
-8.11
-9.46
-10.88
-12.02
-12.52
-12.09
-10.67
-8.50
-6.05
-3.86
-2.29
-1.47
-1.21
-1.14
-0.91
-0.26
0.83
2.25
3.77
5.20
6.38
7.23
7.77
8.02
8.05
7.93
7.70
7.41
7.13
6.93
6.84
6.89
7.02
7.15
7.16
6.96
6.52
5.89
5.21
4.64
4.26
4.08
3.99
3.84
3.52
3.02
2.42
1.86
1.44
1.21
1.13
1.11
1.09
1.04
0.97
0.91
0.83
0.71
0.50
0.18
-0.25
-0.71
-1.11
-1.39
-1.52
-1.56
-1.64
-1.90
-2.46
-3.36
-4.50
-5.70
-6.75
-7.51
-8.00
-8.35
-8.77
-9.43
-10.36
-11.47
-12.51
-13.23
-13.39
-12.87
-11.64
-9.83
-7.72
-5.63
-3.92
-2.78
-2.22
-2.00
-1.79
-1.28
-0.33
1.01
2.53
3.97
5.16
6.04
6.61
6.96
7.15
7.19
7.09
6.87
6.59
6.30
6.07
5.92
5.85
5.78
5.65
5.40
4.99
4.47
3.85
3.18
2.47
1.76
1.08
0.48
0.05
-0.20
-0.28
-0.26
-0.25
-0.31
-0.51
-0.87
-1.41
-2.12
-3.00
-3.96
-4.88
-5.60
-6.02
-6.15
-6.17
-6.32
-6.81
-7.70
-8.86
-10.00
-10.77
-10.89
-10.24
-8.91
-7.15
-5.31
-3.67
-2.43
-1.59
-1.03
-0.55
0.07
0.97
2.16
3.57
5.02
6.35
7.41
8.14
8.54
8.65
8.52
8.23
7.84
7.43
7.08
6.80
6.59
6.39
6.14
5.86
5.60
5.43
5.38
5.39
5.33
5.10
4.66
4.08
3.50
3.03
2.71
2.48
2.23
1.90
1.52
1.15
0.85
0.64
0.46
0.23
-0.16
-0.75
-1.50
-2.30
-3.00
-3.47
-3.69
-3.76
-3.85
-4.14
-4.69
-5.45
-6.26
-6.97
-7.50
-7.88
-8.23
-8.65
-9.20
-9.89
-10.67
-11.44
-12.06
-12.32
-11.99
-10.93
-9.20
-7.08
-5.00
-3.34
-2.32
-1.85
-1.64
-1.34
-0.69
0.37
1.75
3.26
4.71
5.93
6.84
7.41
7.66
7.68
7.57
7.43
7.33
7.29
7.29
7.31
7.31
7.24
7.03
6.66
6.12
5.44
4.75
4.18
3.84
3.76
3.86
4.00
4.01
3.76
3.25
2.59
1.95
1.48
1.24
1.18
1.17
1.10
0.90
0.58
0.19
-0.23
-0.63
-1.00
-1.37
-1.74
-2.14
-2.61
-3.14
-3.74
-4.33
-4.85
-5.21
-5.44
-5.62
-5.90
-6.47
-7.42
-8.78
-10.39
-11.95
-13.10
-13.47
-12.89
-11.38
-9.25
-6.93
-4.85
-3.32
-2.38
-1.91
-1.68
-1.45
-1.04
-0.35
0.65
1.91
3.34
4.77
6.06
7.10
7.82
8.23
8.38
8.32
8.12
7.85
7.56
7.34
7.24
7.24
7.31
7.34
7.23
6.94
6.46
5.86
5.22
4.63
4.11
3.64
3.17
2.66
2.11
1.49
0.83
0.13
-0.59
-1.27
-1.81
-2.17
-2.35
-2.41
-2.48
-2.69
-3.10
-3.72
-4.47
-5.26
-5.97
-6.53
-6.90
-7.14
-7.37
-7.79
-8.55
-9.65
-10.87
-11.86
-12.18
-11.58
-10.07
-7.96
-5.70
-3.75
-2.34
-1.48
-0.94
-0.45
0.16
0.98
1.99
3.13
4.40
5.76
7.12
8.33
9.19
9.60
9.55
9.17
8.66
8.15
7.73
7.38
7.07
6.84
6.72
6.75
6.88
6.97
6.88
6.57
6.08
5.58
5.20
5.00
4.92
4.82
4.60
4.19
3.66
3.10
2.63
2.32
2.18
2.12
2.00
1.66
1.03
0.14
-0.84
-1.71
-2.27
-2.50
-2.48
-2.36
-2.33
-2.47
-2.84
-3.42
-4.16
-5.00
-5.82
-6.51
-6.96
-7.18
-7.29
-7.50
-8.04
-9.02
-10.39
-11.92
-13.21
-13.85
-13.57
-12.31
-10.29
-7.90
-5.61
-3.78
-2.56
-1.89
-1.54
-1.21
-0.64
0.30
1.60
3.13
4.65
5.92
6.79
7.24
7.37
7.34
7.26
7.18
7.07
6.88
6.61
6.36
6.20
6.19
6.26
6.30
6.18
5.86
5.35
4.76
4.16
3.66
3.30
3.09
3.00
2.94
2.80
2.43
1.81
1.01
0.22
-0.39
-0.72
-0.87
-1.00
-1.32
-1.91
-2.72
-3.62
-4.44
-5.10
-5.61
-6.04
-6.50
-7.06
-7.77
-8.63
-9.59
-10.53
-11.28
-11.60
-11.29
-10.25
-8.55
-6.47
-4.44
-2.83
-1.84
-1.41
-1.23
-0.89
-0.11
1.17
2.76
4.37
5.76
6.83
7.63
8.24
8.70
8.91
8.82
8.41
7.84
7.36
7.14
7.25
7.55
7.84
7.96
7.84
7.57
7.25
6.95
6.66
6.32
5.88
5.35
4.76
4.19
3.69
3.27
2.97
2.78
2.66
2.58
2.47
2.28
1.98
1.60
1.17
0.74
0.29
-0.16
-0.64
-1.14
-1.63
-2.08
-2.47
-2.80
-3.14
-3.57
-4.13
-4.87
-5.71
-6.52
-7.16
-7.55
-7.72
-7.83
-8.10
-8.71
-9.73
-11.04
-12.38
-13.45
-13.94
-13.65
-12.53
-10.72
-8.53
-6.41
-4.74
-3.78
-3.48
-3.56
-3.60
-3.25
-2.31
-0.85
0.87
2.55
3.98
5.06
5.82
6.33
6.65
6.82
6.89
6.90
6.88
6.90
6.97
7.06
7.10
7.03
6.77
6.34
5.79
5.20
4.67
4.24
3.92
3.68
3.45
3.16
2.76
2.27
1.68
1.05
0.37
-0.34
-1.08
-1.84
-2.59
-3.29
-3.93
-4.45
-4.86
-5.15
-5.36
-5.56
-5.87
-6.39
-7.18
-8.27
-9.55
-10.82
-11.77
-12.12
-11.65
-10.34
-8.40
-6.24
-4.31
-2.95
-2.23
-1.93
-1.65
-1.06
0.01
1.48
3.12
4.71
6.08
7.17
7.97
8.46
8.62
8.45
8.03
7.48
7.00
6.75
6.78
7.04
7.38
7.63
7.68
7.48
7.08
6.61
6.17
5.84
5.62
5.47
5.35
5.23
5.11
4.97
4.74
4.35
3.75
2.99
2.25
1.73
1.58
1.80
2.17
2.39
2.21
1.54
0.52
-0.55
-1.40
-1.89
-2.06
-2.12
-2.28
-2.70
-3.41
-4.33
-5.33
-6.29
-7.14
-7.82
-8.33
-8.69
-8.96
-9.30
-9.86
-10.76
-11.99
-13.35
-14.47
-14.96
-14.51
-13.09
-10.95
-8.54
-6.36
-4.78
-3.83
-3.31
-2.84
-2.10
-0.97
0.46
1.96
3.30
4.42
5.38
6.26
7.07
7.72
8.00
7.81
7.21
6.45
5.84
5.58
5.69
5.96
6.14
6.06
5.72
5.25
4.85
4.61
4.55
4.57
4.62
4.65
4.66
4.68
4.66
4.54
4.25
3.74
3.05
2.24
1.42
0.64
-0.08
-0.74
-1.38
-2.00
-2.61
-3.16
-3.64
-4.04
-4.36
-4.64
-4.97
-5.45
-6.20
-7.28
-8.68
-10.23
-11.65
-12.56
-12.63
-11.73
-9.96
-7.70
-5.46
-3.67
-2.49
-1.84
-1.44
-0.99
-0.30
0.68
1.87
3.22
4.67
6.19
7.68
8.97
9.82
10.06
9.68
8.87
7.91
7.12
6.68
6.62
6.85
7.22
7.56
7.75
7.74
7.52
7.14
6.65
6.13
5.58
5.03
4.47
3.94
3.50
3.22
3.12
3.14
3.17
3.10
2.90
2.60
2.28
2.00
1.76
1.51
1.21
0.83
0.37
-0.16
-0.76
-1.39
-2.00
-2.56
-3.03
-3.45
-3.89
-4.46
-5.17
-5.96
-6.70
-7.24
-7.55
-7.72
-7.95
-8.46
-9.41
-10.80
-12.46
-14.06
-15.18
-15.48
-14.77
-13.12
-10.87
-8.53
-6.55
-5.21
-4.54
-4.29
-4.11
-3.69
-2.86
-1.58
0.02
1.78
3.52
5.08
6.30
7.07
7.36
7.25
6.87
6.40
6.01
5.79
5.80
6.05
6.48
7.03
7.56
7.88
7.85
7.40
6.60
5.68
4.87
4.33
4.03
3.79
3.38
2.69
1.78
0.83
0.08
-0.34
-0.45
-0.41
-0.42
-0.65
-1.18
-1.94
-2.81
-3.63
-4.30
-4.80
-5.23
-5.75
-6.49
-7.52
-8.78
-10.10
-11.30
-12.18
-12.61
-12.51
-11.84
-10.65
-9.07
-7.33
-5.70
-4.41
-3.54
-2.98
-2.48
-1.76
-0.60
1.00
2.90
4.85
6.61
8.04
9.08
9.78
10.16
10.24
10.04
9.59
9.00
8.44
8.05
7.93
8.06
8.28
8.40
8.28
7.89
7.36
6.84
6.49
6.36
6.39
6.42
6.29
5.90
5.29
4.58
3.91
3.40
3.07
2.84
2.62
2.32
1.92
1.50
1.13
0.87
0.68
0.46
0.07
-0.53
-1.28
-2.04
-2.65
-3.05
-3.28
-3.52
-3.91
-4.55
-5.37
-6.24
-7.01
-7.60
-8.04
-8.40
-8.82
-9.36
-10.07
-10.98
-12.08
-13.31
-14.51
-15.40
-15.68
-15.07
-13.53
-11.26
-8.69
-6.32
-4.49
-3.33
-2.64
-2.10
-1.37
-0.29
1.12
2.68
4.21
5.58
6.77
7.77
8.59
9.19
9.53
9.57
9.37
9.03
8.70
8.46
8.33
8.26
8.18
8.02
7.75
7.36
6.87
6.32
5.82
5.46
5.32
5.37
5.51
5.53
5.25
4.64
3.81
2.98
2.38
2.12
2.14
2.28
2.35
2.20
1.79
1.17
0.41
-0.35
-1.01
-1.49
-1.78
-1.95
-2.11
-2.45
-3.04
-3.88
-4.84
-5.72
-6.38
-6.80
-7.07
-7.36
-7.89
-8.79
-10.10
-11.69
-13.36
-14.73
-15.41
-15.09
-13.62
-11.21
-8.34
-5.64
-3.66
-2.65
-2.45
-2.63
-2.63
-2.07
-0.84
0.89
2.82
4.64
6.17
7.30
7.99
8.26
8.16
7.79
7.31
6.90
6.73
6.87
7.26
7.76
8.15
8.25
7.97
7.36
6.60
5.93
5.51
5.36
5.37
5.35
5.16
4.75
4.20
3.64
3.18
2.85
2.58
2.27
1.80
1.11
0.26
-0.61
-1.34
-1.83
-2.10
-2.24
-2.39
-2.66
-3.05
-3.50
-3.96
-4.39
-4.85
-5.39
-6.03
-6.71
-7.40
-8.09
-8.88
-9.89
-11.15
-12.49
-13.54
-13.86
-13.14
-11.37
-8.89
-6.27
-4.07
-2.63
-1.95
-1.75
-1.63
-1.24
-0.41
0.85
2.39
4.03
5.56
6.86
7.85
8.51
8.91
9.11
9.18
9.19
9.17
9.12
9.07
9.03
8.98
8.86
8.60
8.13
7.45
6.66
5.88
5.25
4.84
4.63
4.56
4.57
4.64
4.72
4.73
4.58
4.19
3.58
2.85
2.18
1.69
1.43
1.29
1.14
0.87
0.47
-0.02
-0.54
-1.03
-1.50
-1.94
-2.39
-2.84
-3.31
-3.86
-4.49
-5.22
-5.96
-6.63
-7.13
-7.50
-7.83
-8.30
-9.09
-10.27
-11.79
-13.44
-14.91
-15.84
-15.93
-15.04
-13.25
-10.89
-8.44
-6.36
-4.93
-4.16
-3.79
-3.44
-2.76
-1.58
0.04
1.94
3.87
5.61
7.03
8.04
8.67
8.96
8.97
8.78
8.47
8.12
7.78
7.53
7.40
7.40
7.48
7.53
7.44
7.18
6.75
6.27
5.82
5.45
5.12
4.77
4.37
3.94
3.57
3.33
3.21
3.12
2.92
2.50
1.83
1.01
0.16
-0.57
-1.10
-1.46
-1.73
-2.05
-2.53
-3.25
-4.16
-5.13
-5.99
-6.65
-7.09
-7.44
-7.88
-8.58
-9.64
-11.01
-12.50
-13.81
-14.60
-14.58
-13.65
-11.89
-9.62
-7.26
-5.22
-3.72
-2.75
-2.11
-1.49
-0.64
0.54
2.03
3.68
5.34
6.89
8.28
9.49
10.49
11.21
11.55
11.46
10.93
10.12
9.25
8.54
8.10
7.95
7.99
8.08
8.09
7.96
7.67
7.23
6.66
5.99
5.28
4.56
3.90
3.32
2.87
2.52
2.22
1.87
1.39
0.74
-0.01
-0.76
-1.40
-1.92
-2.39
-2.91
-3.57
-4.31
-4.96
-5.37
-5.47
-5.37
-5.30
-5.52
-6.17
-7.25
-8.61
-10.02
-11.23
-12.02
-12.22
-11.78
-10.75
-9.35
-7.92
-6.85
-6.40
-6.65
-7.36
-8.09
-8.33
-7.67
-6.00
-3.54
-0.75
1.85
3.84
5.05
5.54
5.57
5.42
5.36
5.55
6.10
7.01
8.20
9.51
10.69
11.50
11.82
11.64
11.11
10.45
9.90
9.61
9.62
9.89
10.32
10.75
11.03
11.06
10.77
10.21
9.51
8.83
8.28
7.87
7.50
7.05
6.39
5.53
4.57
3.66
2.94
2.44
2.13
1.93
1.72
1.43
1.01
0.40
-0.45
-1.58
-3.01
-4.71
-6.59
-8.53
-10.41
-12.09
-13.52
-14.72
-15.80
-16.95
-18.34
-20.03
-21.88
-23.55
-24.59
-24.56
-23.21
-20.57
-17.05
-13.24
-9.78
-7.14
-5.44
-4.52
-3.99
-3.40
-2.41
-0.86
1.22
3.64
6.13
8.38
10.11
11.17
11.54
11.36
10.86
10.30
9.86
9.63
9.62
9.77
10.00
10.22
10.36
10.33
10.14
9.82
9.43
9.07
8.81
8.67
8.64
8.68
8.73
8.75
8.71
8.57
8.32
7.98
7.57
7.11
6.60
6.00
5.29
4.43
3.43
2.35
1.23
0.15
-0.86
-1.79
-2.66
-3.54
-4.47
-5.50
-6.68
-8.01
-9.44
-10.88
-12.21
-13.33
-14.18
-14.83
-15.40
-16.09
-17.10
-18.48
-20.19
-21.96
-23.43
-24.17
-23.85
-22.36
-19.86
-16.78
-13.65
-10.93
-8.87
-7.44
-6.38
-5.37
-4.14
-2.56
-0.65
1.49
3.69
5.80
7.68
9.17
10.15
10.62
10.66
10.43
10.14
9.93
9.90
10.03
10.23
10.42
10.51
10.48
10.31
10.01
9.62
9.16
8.67
8.19
7.72
7.23
6.67
6.00
5.21
4.35
3.49
2.71
1.98
1.27
0.50
-0.38
-1.32
-2.23
-3.02
-3.66
-4.23
-4.85
-5.59
-6.44
-7.28
-7.92
-8.28
-8.43
-8.63
-9.17
-10.27
-11.91
-13.76
-15.31
-16.02
-15.56
-13.92
-11.45
-8.66
-6.10
-4.16
-2.93
-2.22
-1.70
-1.00
0.14
1.76
3.76
5.88
7.90
9.63
10.97
11.89
12.42
12.60
12.50
12.22
11.90
11.66
11.57
11.62
11.74
11.78
11.63
11.22
10.58
9.77
8.92
8.14
7.50
7.02
6.66
6.36
6.07
5.76
5.41
5.01
4.55
4.04
3.53
3.06
2.67
2.37
2.07
1.68
1.12
0.40
-0.41
-1.19
-1.82
-2.28
-2.64
-3.02
-3.56
-4.31
-5.28
-6.38
-7.48
-8.48
-9.30
-9.95
-10.48
-11.01
-11.70
-12.68
-14.01
-15.59
-17.14
-18.23
-18.40
-17.37
-15.19
-12.27
-9.25
-6.74
-5.09
-4.26
-3.88
-3.43
-2.50
-0.92
1.17
3.46
5.60
7.34
8.59
9.40
9.87
10.08
10.11
10.03
9.90
9.82
9.85
9.99
10.18
10.31
10.31
10.16
9.90
9.57
9.19
8.71
8.11
7.37
6.54
5.70
4.92
4.20
3.49
2.77
2.01
1.26
0.61
0.13
-0.19
-0.43
-0.73
-1.24
-2.01
-3.01
-4.12
-5.16
-6.02
-6.60
-6.96
-7.19
-7.49
-8.06
-9.04
-10.50
-12.36
-14.39
-16.19
-17.35
-17.46
-16.33
-14.07
-11.05
-7.86
-5.12
-3.24
-2.31
-2.07
-2.03
-1.68
-0.70
0.94
3.07
5.35
7.49
9.28
10.62
11.44
11.75
11.62
11.21
10.75
10.43
10.35
10.48
10.67
10.78
10.75
10.59
10.34
10.05
9.69
9.23
8.69
8.13
7.65
7.27
6.96
6.59
6.07
5.33
4.43
3.47
2.58
1.86
1.38
1.15
1.10
1.09
0.98
0.65
0.10
-0.59
-1.30
-1.96
-2.56
-3.19
-3.90
-4.71
-5.56
-6.36
-7.03
-7.57
-7.99
-8.37
-8.74
-9.16
-9.70
-10.42
-11.43
-12.74
-14.33
-16.05
-17.62
-18.66
-18.79
-17.74
-15.50
-12.42
-9.07
-6.11
-4.03
-2.95
-2.64
-2.60
-2.32
-1.48
-0.06
1.77
3.74
5.67
7.40
8.86
9.93
10.53
10.58
10.17
9.51
8.87
8.49
8.49
8.81
9.31
9.80
10.14
10.22
9.98
9.41
8.52
7.42
6.29
5.30
4.57
4.09
3.77
3.46
3.03
2.45
1.73
0.93
0.12
-0.64
-1.33
-2.00
-2.71
-3.52
-4.42
-5.35
-6.20
-6.86
-7.32
-7.62
-7.92
-8.40
-9.19
-10.37
-11.93
-13.72
-15.44
-16.69
-17.04
-16.24
-14.28
-11.53
-8.60
-6.08
-4.36
-3.42
-2.94
-2.40
-1.40
0.20
2.25
4.43
6.42
8.02
9.18
9.98
10.52
10.86
11.04
11.11
11.15
11.26
11.49
11.80
12.08
12.20
12.07
11.72
11.24
10.75
10.30
9.89
9.46
8.99
8.46
7.88
7.29
6.70
6.11
5.49
4.87
4.27
3.70
3.19
2.70
2.22
1.71
1.14
0.52
-0.14
-0.81
-1.47
-2.09
-2.64
-3.12
-3.56
-3.99
-4.48
-5.07
-5.77
-6.54
-7.33
-8.05
-8.67
-9.23
-9.79
-10.46
-11.30
-12.36
-13.62
-15.06
-16.58
-18.02
-19.12
-19.55
-19.03
-17.40
-14.78
-11.57
-8.35
-5.65
-3.79
-2.73
-2.16
-1.62
-0.74
0.64
2.44
4.44
6.36
8.00
9.25
10.11
10.59
10.70
10.49
10.03
9.45
8.96
8.71
8.81
9.24
9.84
10.39
10.66
10.49
9.87
8.89
7.75
6.61
5.65
4.93
4.43
4.10
3.85
3.56
3.17
2.66
2.05
1.40
0.74
0.05
-0.72
-1.62
-2.65
-3.75
-4.82
-5.79
-6.58
-7.22
-7.76
-8.31
-8.97
-9.84
-11.01
-12.48
-14.15
-15.76
-16.94
-17.31
-16.65
-14.98
-12.58
-9.91
-7.42
-5.47
-4.13
-3.27
-2.58
-1.73
-0.50
1.18
3.19
5.29
7.24
8.86
10.07
10.86
11.30
11.45
11.38
11.15
10.88
10.65
10.53
10.52
10.57
10.55
10.37
9.98
9.41
8.75
8.11
7.59
7.20
6.91
6.61
6.19
5.59
4.88
4.14
3.52
3.11
2.89
2.76
2.59
2.22
1.61
0.77
-0.19
-1.16
-2.02
-2.68
-3.14
-3.46
-3.78
-4.25
-4.99
-6.01
-7.19
-8.34
-9.28
-9.95
-10.41
-10.82
-11.43
-12.42
-13.87
-15.70
-17.62
-19.20
-19.95
-19.49
-17.72
-14.88
-11.54
-8.36
-5.88
-4.31
-3.52
-3.11
-2.61
-1.63
-0.01
2.22
4.80
7.42
9.74
11.51
12.63
13.14
13.17
12.92
12.55
12.20
11.96
11.89
12.01
12.28
12.61
12.86
12.92
12.74
12.36
11.86
11.36
10.96
10.67
10.46
10.25
9.93
9.44
8.79
8.06
7.39
6.89
6.65
6.67
6.85
7.06
7.17
7.10
6.79
6.23
5.38
4.16
2.50
0.37
-2.15
-4.90
-7.66
-10.24
-12.53
-14.51
-16.21
-17.65
-18.82
-19.73
-20.43
-21.06
-21.80
-22.79
-24.05
-25.48
-26.84
-27.80
-27.98
-27.08
-24.91
-21.57
-17.43
-13.09
-9.18
-6.12
-4.01
-2.57
-1.36
0.06
1.92
4.22
6.81
9.49
12.06
14.38
16.29
17.68
18.47
18.68
18.44
17.94
17.40
16.99
16.77
16.73
16.78
16.80
16.61
16.07
15.10
13.73
12.14
10.54
9.17
8.15
7.50
7.07
6.70
6.19
5.42
4.38
3.16
1.95
0.97
0.40
0.36
0.81
1.60
2.47
3.13
3.34
2.96
1.96
0.39
-1.60
-3.86
-6.23
-8.56
-10.76
-12.73
-14.41
-15.71
-16.63
-17.22
-17.62
-17.98
-18.50
-19.30
-20.47
-21.93
-23.48
-24.69
-25.04
-24.12
-21.76
-18.19
-14.02
-10.02
-6.86
-4.84
-3.80
-3.27
-2.65
-1.51
0.31
2.69
5.37
8.06
10.51
12.59
14.17
15.19
15.57
15.31
14.47
13.25
11.92
10.75
9.94
9.51
9.38
9.34
9.23
8.95
8.53
8.06
7.65
7.36
7.16
6.96
6.66
6.21
5.67
5.14
4.73
4.49
4.38
4.24
3.90
3.30
2.44
1.44
0.37
-0.74
-1.97
-3.41
-5.09
-6.90
-8.61
-9.99
-10.92
-11.48
-11.84
-12.26
-12.92
-13.87
-15.05
-16.32
-17.50
-18.36
-18.63
-18.06
-16.49
-13.95
-10.74
-7.30
-4.18
-1.77
-0.17
0.81
1.59
2.57
4.01
5.88
7.97
9.97
11.63
12.86
13.69
14.21
14.51
14.64
14.63
14.48
14.27
14.10
14.01
14.02
14.07
14.04
13.83
13.40
12.81
12.21
11.72
11.47
11.43
11.55
11.69
11.77
11.75
11.67
11.62
11.71
12.03
12.55
13.16
13.57
13.50
12.68
11.02
8.63
5.79
2.81
-0.04
-2.66
-5.04
-7.28
-9.52
-11.82
-14.21
-16.61
-18.89
-20.95
-22.73
-24.26
-25.62
-26.87
-28.04
-29.09
-29.99
-30.71
-31.20
-31.33
-30.87
-29.50
-26.97
-23.26
-18.66
-13.71
-8.95
-4.80
-1.37
1.47
3.93
6.19
8.31
10.27
11.96
13.31
14.26
14.77
14.81
14.38
13.55
12.45
11.24
10.09
9.12
8.34
7.73
7.18
6.62
6.01
5.36
4.73
4.13
3.58
3.06
2.54
2.00
1.45
0.93
0.47
0.11
-0.10
-0.16
-0.13
-0.13
-0.30
-0.77
-1.53
-2.48
-3.39
-4.04
-4.31
-4.24
-3.99
-3.76
-3.72
-3.88
-4.16
-4.45
-4.66
-4.82
-5.03
-5.42
-6.12
-7.19
-8.55
-9.99
-11.24
-11.99
-11.99
-11.17
-9.64
-7.72
-5.78
-4.13
-2.88
-1.88
-0.86
0.44
2.15
4.21
6.46
8.69
10.73
12.50
13.98
15.12
15.88
16.19
16.02
15.43
14.54
13.55
12.65
11.95
11.45
11.08
10.73
10.29
9.71
8.98
8.13
7.21
6.26
5.33
4.50
3.84
3.37
3.08
2.86
2.60
2.19
1.60
0.87
0.12
-0.55
-1.10
-1.55
-2.01
-2.58
-3.33
-4.22
-5.12
-5.90
-6.43
-6.68
-6.72
-6.70
-6.83
-7.25
-7.97
-8.90
-9.83
-10.59
-11.08
-11.30
-11.37
-11.44
-11.64
-12.03
-12.62
-13.33
-13.99
-14.30
-13.95
-12.65
-10.29
-7.07
-3.40
0.12
3.00
4.96
6.08
6.66
7.07
7.59
8.29
9.06
9.71
10.12
10.25
10.18
9.98
9.70
9.33
8.88
8.37
7.87
7.46
7.13
6.83
6.45
5.90
5.11
4.08
2.86
1.55
0.32
-0.68
-1.34
-1.67
-1.84
-2.11
-2.68
-3.61
-4.73
-5.77
-6.42
-6.59
-6.38
-6.03
-5.82
-5.88
-6.20
-6.65
-7.11
-7.51
-7.86
-8.20
-8.56
-8.96
-9.40
-9.94
-10.64
-11.53
-12.52
-13.36
-13.74
-13.34
-12.02
-9.93
-7.46
-5.10
-3.28
-2.16
-1.63
-1.34
-0.92
-0.10
1.21
2.88
4.68
6.40
7.88
9.03
9.79
10.15
10.12
9.76
9.22
8.67
8.30
8.23
8.51
9.14
10.04
11.14
12.30
13.35
14.09
14.36
14.11
13.43
12.50
11.55
10.71
10.05
9.53
9.03
8.47
7.76
6.92
5.99
5.04
4.17
3.41
2.72
1.99
1.07
-0.15
-1.67
-3.36
-5.01
-6.44
-7.56
-8.37
-8.95
-9.39
-9.75
-10.01
-10.14
-10.09
-9.85
-9.47
-9.08
-8.86
-9.04
-9.79
-11.18
-13.10
-15.20
-17.05
-18.15
-18.13
-16.86
-14.42
-11.20
-7.72
-4.56
-2.19
-0.83
-0.35
-0.35
-0.29
0.29
1.64
3.68
6.12
8.55
10.61
12.07
12.84
12.98
12.63
11.98
11.24
10.60
10.17
9.96
9.92
9.92
9.87
9.69
9.34
8.82
8.14
7.34
6.48
5.58
4.66
3.72
2.74
1.69
0.62
-0.38
-1.15
-1.56
-1.51
-1.03
-0.28
0.51
1.07
1.20
0.79
-0.12
-1.38
-2.78
-4.13
-5.28
-6.21
-6.96
-7.67
-8.50
-9.64
-11.19
-13.15
-15.34
-17.40
-18.89
-19.48
-19.03
-17.75
-16.04
-14.44
-13.33
-12.82
-12.71
-12.57
-11.92
-10.44
-8.05
-4.98
-1.64
1.51
4.12
5.99
7.12
7.67
7.83
7.78
7.67
7.58
7.57
7.69
7.92
8.22
8.55
8.85
9.13
9.42
9.75
10.16
10.60
10.97
11.12
10.95
10.46
9.77
9.09
8.62
8.47
8.62
8.92
9.20
9.32
9.29
9.19
9.14
9.24
9.52
9.91
10.28
10.47
10.36
9.84
8.86
7.41
5.56
3.42
1.14
-1.12
-3.24
-5.15
-6.84
-8.32
-9.62
-10.77
-11.76
-12.62
-13.39
-14.19
-15.14
-16.38
-17.96
-19.75
-21.45
-22.60
-22.74
-21.61
-19.28
-16.17
-12.90
-10.06
-7.96
-6.56
-5.53
-4.42
-2.89
-0.80
1.76
4.59
7.41
9.99
12.16
13.83
14.98
15.64
15.88
15.76
15.39
14.81
14.14
13.45
12.85
12.40
12.08
11.78
11.37
10.75
9.90
8.95
8.10
7.52
7.25
7.19
7.15
6.91
6.37
5.57
4.66
3.84
3.26
2.94
2.80
2.70
2.49
2.06
1.44
0.70
-0.06
-0.79
-1.49
-2.24
-3.12
-4.18
-5.40
-6.75
-8.21
-9.77
-11.38
-12.89
-14.05
-14.56
-14.23
-13.04
-11.25
-9.29
-7.62
-6.56
-6.16
-6.21
-6.33
-6.10
-5.25
-3.68
-1.56
0.83
3.13
5.05
6.40
7.15
7.38
7.27
7.03
6.91
7.03
7.45
8.03
8.60
8.96
9.03
8.85
8.52
8.15
7.79
7.44
7.07
6.70
6.35
6.00
5.60
5.02
4.18
3.07
1.81
0.61
-0.36
-1.05
-1.54
-1.99
-2.52
-3.23
-4.13
-5.18
-6.38
-7.65
-8.92
-10.01
-10.76
-11.04
-10.81
-10.23
-9.52
-8.95
-8.72
-8.88
-9.39
-10.09
-10.78
-11.29
-11.53
-11.51
-11.35
-11.21
-11.24
-11.46
-11.72
-11.77
-11.24
-9.88
-7.66
-4.80
-1.74
1.05
3.19
4.58
5.38
5.92
6.55
7.50
8.79
10.32
11.87
13.23
14.19
14.61
14.43
13.69
12.57
11.27
10.03
8.99
8.21
7.66
7.24
6.85
6.43
5.93
5.38
4.76
4.13
3.53
3.01
2.62
2.34
2.16
2.02
1.92
1.84
1.80
1.78
1.74
1.60
1.31
0.86
0.27
-0.42
-1.17
-1.97
-2.81
-3.68
-4.53
-5.33
-6.08
-6.79
-7.51
-8.28
-9.07
-9.85
-10.52
-11.05
-11.40
-11.64
-11.84
-12.14
-12.64
-13.43
-14.45
-15.48
-16.15
-16.03
-14.82
-12.54
-9.52
-6.32
-3.52
-1.52
-0.35
0.24
0.65
1.23
2.18
3.52
5.09
6.69
8.12
9.25
10.04
10.52
10.75
10.76
10.57
10.17
9.62
9.04
8.58
8.36
8.39
8.58
8.74
8.70
8.42
7.91
7.31
6.71
6.12
5.46
4.64
3.64
2.54
1.53
0.77
0.32
0.09
-0.10
-0.46
-1.06
-1.83
-2.62
-3.29
-3.81
-4.31
-4.95
-5.86
-6.99
-8.14
-9.03
-9.45
-9.34
-8.82
-8.10
-7.40
-6.83
-6.43
-6.19
-6.10
-6.12
-6.20
-6.23
-6.04
-5.50
-4.58
-3.39
-2.17
-1.19
-0.61
-0.43
-0.46
-0.38
0.09
1.13
2.71
4.65
6.65
8.44
9.82
10.74
11.20
11.27
11.00
10.45
9.69
8.85
8.10
7.54
7.22
7.08
7.01
6.88
6.62
6.23
5.69
5.03
4.27
3.45
2.62
1.87
1.28
0.87
0.61
0.43
0.24
-0.03
-0.43
-0.96
-1.59
-2.30
-3.04
-3.73
-4.33
-4.78
-5.12
-5.43
-5.83
-6.41
-7.19
-8.08
-8.96
-9.67
-10.14
-10.40
-10.56
-10.80
-11.28
-12.12
-13.30
-14.67
-15.91
-16.62
-16.40
-15.01
-12.45
-8.98
-5.08
-1.27
2.00
4.45
6.01
6.78
6.96
6.85
6.75
6.91
7.45
8.29
9.22
9.99
10.40
10.41
10.11
9.66
9.20
8.78
8.38
7.99
7.61
7.27
6.98
6.68
6.31
5.83
5.30
4.81
4.47
4.32
4.28
4.24
4.07
3.70
3.14
2.49
1.85
1.29
0.91
0.68
0.57
0.47
0.26
-0.19
-0.92
-1.92
-3.07
-4.22
-5.24
-6.05
-6.65
-7.12
-7.54
-8.01
-8.59
-9.31
-10.15
-11.05
-11.92
-12.65
-13.21
-13.66
-14.17
-14.93
-16.04
-17.44
-18.81
-19.73
-19.75
-18.70
-16.67
-14.07
-11.41
-9.16
-7.56
-6.52
-5.72
-4.73
-3.24
-1.11
1.52
4.39
7.17
9.63
11.63
13.17
14.28
15.01
15.42
15.53
15.41
15.17
14.93
14.82
14.88
15.08
15.27
15.25
14.85
14.04
12.94
11.76
10.73
9.98
9.50
9.18
8.87
8.47
7.95
7.33
6.64
5.94
5.27
4.68
4.17
3.67
3.08
2.30
1.32
0.20
-0.90
-1.84
-2.54
-3.05
-3.48
-3.97
-4.60
-5.38
-6.21
-6.98
-7.66
-8.27
-8.89
-9.65
-10.62
-11.85
-13.28
-14.80
-16.25
-17.41
-18.02
-17.83
-16.72
-14.75
-12.26
-9.69
-7.47
-5.80
-4.62
-3.71
-2.77
-1.64
-0.33
1.07
2.49
3.89
5.31
6.75
8.13
9.29
10.04
10.29
10.09
9.61
9.07
8.65
8.44
8.45
8.61
8.80
8.91
8.88
8.66
8.29
7.82
7.33
6.90
6.55
6.29
6.08
5.86
5.57
5.18
4.72
4.25
3.85
3.56
3.33
3.07
2.67
2.12
1.48
0.87
0.36
-0.08
-0.51
-0.99
-1.54
-2.10
-2.63
-3.14
-3.75
-4.58
-5.66
-6.89
-8.03
-8.85
-9.26
-9.37
-9.45
-9.82
-10.74
-12.28
-14.25
-16.27
-17.82
-18.44
-17.85
-16.09
-13.44
-10.41
-7.51
-5.13
-3.42
-2.33
-1.62
-0.98
-0.14
1.02
2.52
4.26
6.06
7.78
9.24
10.33
10.95
11.05
10.68
9.96
9.12
8.40
7.98
7.90
8.05
8.23
8.23
7.97
7.46
6.84
6.27
5.85
5.61
5.47
5.33
5.06
4.57
3.81
2.81
1.69
0.61
-0.26
-0.83
-1.14
-1.35
-1.64
-2.18
-3.01
-4.03
-5.07
-5.96
-6.64
-7.15
-7.66
-8.40
-9.52
-11.01
-12.70
-14.18
-15.01
-14.85
-13.61
-11.50
-8.95
-6.46
-4.37
-2.84
-1.78
-1.00
-0.30
0.51
1.58
2.99
4.76
6.79
8.86
10.64
11.87
12.41
12.32
11.82
11.16
10.55
10.10
9.83
9.74
9.82
10.03
10.29
10.43
10.28
9.72
8.80
7.72
6.78
6.20
6.10
6.36
6.72
6.93
6.82
6.39
5.76
5.07
4.45
3.92
3.48
3.11
2.78
2.47
2.14
1.72
1.15
0.41
-0.47
-1.39
-2.22
-2.84
-3.23
-3.48
-3.77
-4.23
-4.98
-5.96
-7.04
-8.02
-8.82
-9.47
-10.10
-10.91
-12.02
-13.45
-15.08
-16.71
-18.05
-18.82
-18.79
-17.78
-15.81
-13.10
-10.06
-7.18
-4.86
-3.31
-2.40
-1.86
-1.31
-0.49
0.72
2.25
3.95
5.62
7.07
8.21
8.98
9.43
9.57
9.46
9.15
8.68
8.17
7.75
7.55
7.62
7.90
8.19
8.28
7.99
7.31
6.40
5.46
4.68
4.11
3.72
3.38
2.98
2.48
1.92
1.34
0.81
0.37
0.02
-0.26
-0.54
-0.92
-1.53
-2.43
-3.59
-4.87
-6.04
-6.90
-7.36
-7.47
-7.43
-7.49
-7.85
-8.65
-9.88
-11.37
-12.83
-13.86
-14.09
-13.29
-11.55
-9.17
-6.69
-4.57
-3.09
-2.20
-1.63
-0.98
0.03
1.47
3.22
5.07
6.79
8.25
9.40
10.26
10.83
11.12
11.13
10.91
10.54
10.16
9.87
9.76
9.82
9.95
10.01
9.87
9.46
8.75
7.84
6.87
5.98
5.28
4.78
4.41
4.10
3.82
3.57
3.38
3.23
3.03
2.65
1.98
1.06
0.05
-0.83
-1.39
-1.60
-1.62
-1.67
-1.97
-2.62
-3.57
-4.70
-5.86
-6.95
-7.90
-8.69
-9.35
-9.93
-10.53
-11.25
-12.20
-13.39
-14.70
-15.85
-16.48
-16.26
-15.03
-12.93
-10.31
-7.68
-5.51
-4.02
-3.17
-2.68
-2.21
-1.45
-0.27
1.29
3.06
4.82
6.38
7.62
8.45
8.85
8.86
8.61
8.25
7.98
7.92
8.08
8.41
8.77
9.02
9.06
8.84
8.35
7.61
6.72
5.77
4.92
4.28
3.94
3.86
3.94
3.98
3.82
3.37
2.65
1.83
1.08
0.55
0.24
-0.02
-0.44
-1.20
-2.30
-3.59
-4.79
-5.70
-6.21
-6.45
-6.61
-6.89
-7.43
-8.24
-9.30
-10.57
-11.99
-13.43
-14.64
-15.28
-15.01
-13.67
-11.41
-8.70
-6.11
-4.15
-2.97
-2.40
-2.00
-1.35
-0.21
1.38
3.22
5.10
6.84
8.37
9.63
10.59
11.18
11.39
11.27
10.90
10.41
9.88
9.36
8.86
8.43
8.12
7.98
8.03
8.17
8.27
8.17
7.78
7.15
6.42
5.74
5.26
5.03
4.99
5.04
5.04
4.86
4.43
3.79
3.05
2.36
1.86
1.58
1.46
1.33
1.07
0.62
0.04
-0.58
-1.15
-1.63
-2.08
-2.60
-3.25
-4.09
-5.09
-6.19
-7.28
-8.23
-8.93
-9.38
-9.67
-9.99
-10.55
-11.50
-12.87
-14.54
-16.28
-17.75
-18.61
-18.56
-17.42
-15.26
-12.41
-9.36
-6.67
-4.69
-3.52
-2.95
-2.56
-1.95
-0.89
0.66
2.55
4.58
6.52
8.23
9.57
10.47
10.83
10.67
10.06
9.18
8.27
7.59
7.31
7.51
8.07
8.77
9.33
9.52
9.26
8.62
7.77
6.88
6.09
5.42
4.82
4.24
3.64
3.04
2.50
2.03
1.64
1.30
1.00
0.74
0.50
0.21
-0.20
-0.80
-1.63
-2.63
-3.66
-4.59
-5.33
-5.87
-6.31
-6.75
-7.30
-8.01
-8.89
-9.96
-11.24
-12.68
-14.15
-15.34
-15.89
-15.45
-13.91
-11.48
-8.63
-5.98
-4.00
-2.87
-2.39
-2.13
-1.65
-0.66
0.84
2.68
4.60
6.43
8.09
9.55
10.78
11.72
12.28
12.39
12.07
11.46
10.72
10.01
9.44
8.99
8.64
8.32
8.03
7.77
7.57
7.43
7.31
7.14
6.81
6.27
5.53
4.69
3.87
3.20
2.75
2.50
2.35
2.22
2.03
1.75
1.38
0.94
0.42
-0.16
-0.79
-1.45
-2.12
-2.77
-3.41
-4.06
-4.75
-5.45
-6.09
-6.60
-6.92
-7.09
-7.24
-7.61
-8.41
-9.78
-11.67
-13.87
-15.98
-17.55
-18.17
-17.56
-15.70
-12.89
-9.67
-6.66
-4.39
-3.07
-2.53
-2.37
-2.08
-1.31
0.02
1.76
3.67
5.48
7.04
8.23
9.03
9.41
9.39
9.06
8.57
8.10
7.81
7.76
7.89
8.04
8.07
7.85
7.41
6.81
6.18
5.63
5.17
4.77
4.33
3.78
3.12
2.38
1.64
1.00
0.55
0.31
0.29
0.43
0.60
0.69
0.58
0.25
-0.27
-0.90
-1.56
-2.21
-2.87
-3.57
-4.33
-5.11
-5.85
-6.46
-6.92
-7.25
-7.56
-7.97
-8.59
-9.48
-10.60
-11.84
-12.96
-13.69
-13.74
-12.98
-11.44
-9.39
-7.23
-5.34
-3.95
-3.03
-2.31
-1.48
-0.33
1.17
2.87
4.55
6.09
7.43
8.60
9.59
10.33
10.74
10.76
10.43
9.91
9.38
9.02
8.87
8.90
8.97
8.96
8.79
8.41
7.85
7.17
6.45
5.75
5.14
4.65
4.31
4.11
4.01
3.99
3.96
3.89
3.72
3.44
3.12
2.81
2.62
2.54
2.53
2.46
2.22
1.78
1.17
0.50
-0.13
-0.67
-1.16
-1.66
-2.24
-2.89
-3.58
-4.27
-4.96
-5.67
-6.41
-7.16
-7.89
-8.56
-9.19
-9.85
-10.65
-11.69
-12.94
-14.31
-15.59
-16.54
-16.89
-16.46
-15.16
-13.14
-10.67
-8.18
-6.06
-4.53
-3.60
-3.00
-2.38
-1.44
-0.04
1.74
3.65
5.41
6.83
7.82
8.40
8.64
8.58
8.30
7.86
7.37
6.97
6.75
6.71
6.75
6.73
6.52
6.08
5.50
4.91
4.46
4.18
4.03
3.91
3.73
3.47
3.15
2.80
2.42
2.00
1.50
0.92
0.30
-0.29
-0.75
-1.05
-1.21
-1.30
-1.45
-1.76
-2.27
-2.97
-3.79
-4.62
-5.41
-6.14
-6.88
-7.73
-8.79
-10.06
-11.43
-12.70
-13.58
-13.82
-13.24
-11.86
-9.83
-7.47
-5.12
-3.05
-1.41
-0.16
0.85
1.82
2.88
4.09
5.43
6.82
8.23
9.63
10.97
12.17
13.11
13.68
13.87
13.75
13.48
13.19
12.95
12.77
12.59
12.41
12.23
12.10
11.98
11.76
11.30
10.49
9.36
8.08
6.89
6.00
5.45
5.17
4.94
4.59
4.02
3.29
2.52
1.87
1.39
0.98
0.51
-0.15
-0.99
-1.88
-2.63
-3.10
-3.33
-3.46
-3.72
-4.26
-5.13
-6.29
-7.62
-9.01
-10.36
-11.59
-12.59
-13.30
-13.75
-14.07
-14.46
-15.19
-16.41
-18.16
-20.26
-22.40
-24.13
-25.01
-24.74
-23.26
-20.80
-17.80
-14.80
-12.21
-10.21
-8.75
-7.60
-6.52
-5.28
-3.77
-1.97
0.12
2.45
4.90
7.25
9.24
10.67
11.42
11.57
11.29
10.84
10.42
10.16
10.10
10.18
10.34
10.46
10.46
10.27
9.89
9.36
8.79
8.26
7.84
7.53
7.26
6.95
6.54
5.94
5.17
4.28
3.39
2.67
2.21
2.00
1.93
1.77
1.35
0.62
-0.33
-1.30
-2.08
-2.53
-2.63
-2.47
-2.19
-1.97
-1.94
-2.22
-2.86
-3.84
-5.04
-6.33
-7.54
-8.52
-9.26
-9.79
-10.26
-10.86
-11.76
-13.01
-14.51
-15.96
-16.92
-17.00
-15.98
-13.95
-11.29
-8.53
-6.16
-4.44
-3.31
-2.49
-1.67
-0.59
0.81
2.43
4.14
5.81
7.38
8.77
9.94
10.78
11.20
11.23
10.99
10.69
10.49
10.46
10.51
10.48
10.23
9.74
9.11
8.48
7.98
7.63
7.38
7.11
6.71
6.17
5.54
4.91
4.36
3.92
3.56
3.19
2.74
2.24
1.73
1.34
1.14
1.09
1.08
0.93
0.52
-0.16
-1.04
-2.03
-3.04
-4.03
-5.02
-5.97
-6.87
-7.66
-8.38
-9.15
-10.13
-11.37
-12.78
-14.01
-14.60
-14.21
-12.73
-10.40
-7.66
-5.03
-2.84
-1.21
-0.04
0.87
1.70
2.56
3.53
4.63
5.83
7.07
8.24
9.21
9.88
10.21
10.17
9.85
9.33
8.75
8.24
7.96
7.96
8.22
8.62
8.93
8.97
8.64
8.00
7.20
6.46
5.97
5.82
5.96
6.24
6.47
6.46
6.11
5.47
4.66
3.85
3.19
2.71
2.40
2.18
1.97
1.70
1.35
0.92
0.40
-0.16
-0.75
-1.39
-2.08
-2.88
-3.79
-4.77
-5.75
-6.62
-7.29
-7.75
-8.07
-8.37
-8.83
-9.59
-10.71
-12.16
-13.75
-15.22
-16.22
-16.47
-15.77
-14.13
-11.77
-9.11
-6.61
-4.63
-3.30
-2.52
-1.96
-1.27
-0.27
1.06
2.54
3.99
5.27
6.39
7.40
8.33
9.14
9.70
9.92
9.76
9.31
8.78
8.35
8.14
8.12
8.22
8.28
8.21
7.99
7.64
7.20
6.72
6.18
5.59
4.92
4.23
3.59
3.06
2.66
2.37
2.10
1.78
1.37
0.93
0.51
0.15
-0.17
-0.52
-1.02
-1.73
-2.63
-3.65
-4.67
-5.60
-6.35
-6.94
-7.39
-7.76
-8.09
-8.46
-8.99
-9.81
-11.06
-12.70
-14.52
-16.07
-16.82
-16.36
-14.62
-11.92
-8.87
-6.18
-4.27
-3.24
-2.79
-2.46
-1.85
-0.75
0.81
2.64
4.56
6.39
8.05
9.47
10.57
11.26
11.48
11.28
10.77
10.20
9.77
9.63
9.76
9.98
10.09
9.95
9.53
8.94
8.38
7.96
7.72
7.56
7.34
7.00
6.56
6.10
5.74
5.49
5.28
4.99
4.55
3.97
3.32
2.73
2.25
1.83
1.33
0.64
-0.29
-1.34
-2.36
-3.17
-3.72
-4.06
-4.39
-4.87
-5.57
-6.44
-7.34
-8.11
-8.68
-9.11
-9.53
-10.10
-10.95
-12.11
-13.51
-14.97
-16.22
-16.95
-16.88
-15.90
-14.10
-11.77
-9.33
-7.14
-5.41
-4.14
-3.17
-2.29
-1.32
-0.14
1.28
2.89
4.60
6.25
7.67
8.72
9.33
9.52
9.38
9.03
8.63
8.32
8.19
8.27
8.49
8.74
8.85
8.72
8.34
7.80
7.21
6.68
6.22
5.77
5.27
4.67
4.01
3.36
2.79
2.33
2.01
1.78
1.62
1.48
1.33
1.13
0.87
0.52
0.09
-0.40
-0.93
-1.52
-2.18
-2.94
-3.81
-4.72
-5.61
-6.37
-6.97
-7.40
-7.77
-8.19
-8.83
-9.79
-11.11
-12.69
-14.26
-15.46
-15.91
-15.37
-13.83
-11.59
-9.09
-6.81
-5.05
-3.86
-3.04
-2.29
-1.29
0.09
1.82
3.73
5.57
7.15
8.34
9.12
9.52
9.65
9.58
9.40
9.18
8.97
8.85
8.82
8.89
9.01
9.11
9.13
9.00
8.73
8.33
7.87
7.45
7.10
6.85
6.67
6.50
6.27
5.95
5.51
5.00
4.44
3.91
3.45
3.11
2.85
2.63
2.37
2.00
1.48
0.84
0.11
-0.63
-1.32
-1.90
-2.36
-2.75
-3.12
-3.57
-4.15
-4.88
-5.74
-6.65
-7.55
-8.39
-9.11
-9.72
-10.25
-10.80
-11.49
-12.43
-13.65
-14.99
-16.14
-16.74
-16.49
-15.28
-13.28
-10.82
-8.37
-6.28
-4.76
-3.78
-3.15
-2.56
-1.71
-0.44
1.21
3.05
4.82
6.29
7.36
8.05
8.41
8.53
8.45
8.20
7.87
7.57
7.42
7.49
7.75
8.11
8.40
8.51
8.40
8.07
7.57
6.97
6.28
5.54
4.77
4.05
3.45
3.03
2.79
2.68
2.60
2.48
2.26
1.96
1.59
1.19
0.73
0.19
-0.49
-1.30
-2.21
-3.16
-4.04
-4.81
-5.44
-5.93
-6.32
-6.72
-7.27
-8.11
-9.36
-10.98
-12.78
-14.36
-15.29
-15.18
-13.92
-11.71
-9.00
-6.37
-4.29
-2.95
-2.24
-1.86
-1.43
-0.71
0.40
1.83
3.44
5.09
6.66
8.04
9.15
9.89
10.21
10.14
9.77
9.27
8.82
8.53
8.43
8.47
8.54
8.54
8.45
8.29
8.11
7.96
7.82
7.66
7.42
7.05
6.56
5.98
5.35
4.75
4.22
3.80
3.49
3.30
3.20
3.14
3.07
2.88
2.52
1.97
1.27
0.52
-0.17
-0.68
-1.00
-1.16
-1.28
-1.46
-1.78
-2.25
-2.83
-3.48
-4.21
-5.02
-5.92
-6.86
-7.74
-8.46
-8.99
-9.36
-9.71
-10.20
-10.98
-12.12
-13.54
-15.05
-16.34
-17.03
-16.81
-15.53
-13.30
-10.51
-7.68
-5.28
-3.59
-2.60
-2.09
-1.70
-1.14
-0.23
1.04
2.58
4.21
5.72
6.96
7.86
8.39
8.63
8.66
8.54
8.31
8.02
7.71
7.50
7.42
7.48
7.57
7.56
7.33
6.89
6.35
5.89
5.59
5.41
5.21
4.85
4.26
3.53
2.83
2.31
2.03
1.91
1.80
1.60
1.30
0.94
0.61
0.33
0.07
-0.25
-0.69
-1.29
-2.03
-2.84
-3.65
-4.41
-5.09
-5.70
-6.26
-6.81
-7.36
-7.93
-8.55
-9.28
-10.19
-11.33
-12.64
-13.87
-14.64
-14.58
-13.48
-11.43
-8.86
-6.32
-4.30
-3.04
-2.42
-2.12
-1.74
-1.02
0.09
1.46
2.89
4.21
5.32
6.25
7.01
7.61
8.03
8.25
8.29
8.28
8.31
8.47
8.70
8.91
8.94
8.71
8.25
7.69
7.17
6.80
6.58
6.47
6.38
6.23
6.00
5.67
5.25
4.75
4.22
3.70
3.23
2.87
2.61
2.40
2.20
1.97
1.71
1.42
1.14
0.85
0.51
0.09
-0.44
-1.05
-1.66
-2.23
-2.73
-3.16
-3.60
-4.10
-4.74
-5.52
-6.41
-7.34
-8.20
-8.97
-9.66
-10.40
-11.32
-12.49
-13.92
-15.42
-16.74
-17.54
-17.55
-16.64
-14.86
-12.46
-9.82
-7.33
-5.29
-3.82
-2.87
-2.25
-1.73
-1.14
-0.37
0.61
1.78
3.12
4.55
5.94
7.16
8.09
8.65
8.85
8.77
8.53
8.27
8.07
7.98
8.00
8.08
8.11
7.97
7.58
6.91
6.03
5.13
4.41
4.01
3.93
4.05
4.16
4.09
3.79
3.30
2.74
2.20
1.74
1.34
0.93
0.46
-0.07
-0.63
-1.16
-1.64
-2.11
-2.60
-3.19
-3.89
-4.68
-5.49
-6.24
-6.89
-7.46
-8.05
-8.82
-9.89
-11.30
-12.95
-14.54
-15.67
-15.96
-15.20
-13.44
-11.01
-8.36
-5.94
-4.02
-2.69
-1.84
-1.32
-0.93
-0.45
0.30
1.47
3.10
5.06
7.09
8.83
10.02
10.58
10.64
10.46
10.28
10.24
10.32
10.42
10.43
10.30
10.06
9.74
9.40
9.03
8.61
8.11
7.57
7.02
6.57
6.26
6.12
6.09
6.07
5.95
5.70
5.35
5.01
4.76
4.64
4.57
4.45
4.21
3.85
3.38
2.86
2.26
1.52
0.63
-0.37
-1.31
-2.06
-2.54
-2.83
-3.12
-3.60
-4.39
-5.48
-6.71
-7.90
-8.94
-9.76
-10.40
-10.95
-11.50
-12.19
-13.10
-14.26
-15.61
-16.93
-17.91
-18.22
-17.63
-16.11
-13.84
-11.19
-8.59
-6.42
-4.90
-4.03
-3.64
-3.38
-2.92
-2.01
-0.58
1.27
3.33
5.36
7.12
8.49
9.38
9.82
9.87
9.64
9.30
9.01
8.91
9.03
9.32
9.62
9.81
9.76
9.46
8.99
8.48
8.05
7.71
7.43
7.08
6.58
5.91
5.18
4.52
4.03
3.75
3.59
3.41
3.11
2.69
2.19
1.73
1.36
1.08
0.78
0.32
-0.36
-1.23
-2.15
-2.98
-3.65
-4.20
-4.75
-5.42
-6.23
-7.11
-7.97
-8.75
-9.52
-10.47
-11.74
-13.33
-15.03
-16.41
-17.00
-16.45
-14.73
-12.08
-9.03
-6.16
-3.91
-2.48
-1.74
-1.34
-0.89
-0.08
1.19
2.84
4.66
6.43
7.98
9.21
10.09
10.63
10.85
10.80
10.55
10.20
9.89
9.70
9.67
9.79
9.94
10.02
9.92
9.61
9.11
8.50
7.87
7.32
6.90
6.61
6.39
6.19
5.91
5.51
5.05
4.61
4.30
4.16
4.16
4.18
4.10
3.81
3.33
2.73
2.10
1.47
0.85
0.21
-0.46
-1.14
-1.75
-2.25
-2.63
-2.97
-3.39
-4.01
-4.92
-6.06
-7.32
-8.50
-9.46
-10.13
-10.60
-11.02
-11.57
-12.41
-13.59
-15.01
-16.48
-17.68
-18.22
-17.78
-16.22
-13.66
-10.52
-7.35
-4.67
-2.83
-1.83
-1.42
-1.23
-0.89
-0.20
0.92
2.39
4.10
5.87
7.49
8.78
9.57
9.83
9.66
9.24
8.79
8.46
8.27
8.15
7.98
7.73
7.42
7.14
6.95
6.85
6.74
6.54
6.21
5.79
5.36
4.97
4.61
4.22
3.74
3.17
2.57
2.05
1.68
1.48
1.39
1.32
1.18
0.92
0.48
-0.18
-1.08
-2.17
-3.33
-4.39
-5.22
-5.77
-6.13
-6.48
-7.05
-8.00
-9.40
-11.15
-13.06
-14.79
-16.00
-16.38
-15.75
-14.14
-11.79
-9.11
-6.56
-4.46
-2.99
-2.06
-1.45
-0.83
0.05
1.37
3.09
5.04
6.94
8.52
9.63
10.25
10.51
10.56
10.52
10.44
10.32
10.15
9.96
9.79
9.67
9.57
9.41
9.11
8.65
8.08
7.50
6.98
6.57
6.25
5.95
5.67
5.39
5.16
5.01
4.95
4.96
4.95
4.85
4.58
4.11
3.50
2.84
2.22
1.72
1.29
0.85
0.31
-0.34
-1.02
-1.62
-2.06
-2.38
-2.73
-3.27
-4.13
-5.28
-6.55
-7.72
-8.62
-9.20
-9.55
-9.86
-10.31
-11.07
-12.22
-13.76
-15.60
-17.46
-18.95
-19.61
-19.09
-17.30
-14.48
-11.15
-7.92
-5.30
-3.54
-2.54
-1.99
-1.50
-0.75
0.39
1.89
3.57
5.22
6.65
7.74
8.46
8.85
9.01
9.05
9.04
9.00
8.94
8.85
8.74
8.63
8.52
8.41
8.27
8.04
7.70
7.26
6.79
6.35
5.96
5.65
5.38
5.16
4.98
4.88
4.85
4.82
4.69
4.40
3.92
3.28
2.56
1.82
1.06
0.23
-0.68
-1.70
-2.76
-3.78
-4.69
-5.49
-6.18
-6.80
-7.36
-7.88
-8.39
-9.00
-9.85
-11.11
-12.81
-14.74
-16.50
-17.56
-17.48
-16.11
-13.69
-10.72
-7.79
-5.35
-3.61
-2.48
-1.75
-1.16
-0.50
0.40
1.64
3.29
5.27
7.36
9.20
10.41
10.77
10.34
9.41
8.41
7.70
7.46
7.63
7.99
8.36
8.60
8.71
8.75
8.76
8.74
8.64
8.39
7.99
7.45
6.86
6.29
5.81
5.45
5.19
5.02
4.89
4.77
4.63
4.46
4.22
3.89
3.43
2.84
2.16
1.44
0.73
0.09
-0.44
-0.86
-1.22
-1.58
-2.01
-2.60
-3.38
-4.33
-5.37
-6.41
-7.35
-8.14
-8.78
-9.36
-9.99
-10.81
-11.92
-13.37
-15.09
-16.85
-18.32
-19.13
-18.97
-17.74
-15.55
-12.76
-9.81
-7.09
-4.86
-3.15
-1.85
-0.73
0.38
1.61
2.95
4.33
5.66
6.83
7.80
8.59
9.21
9.68
9.99
10.09
10.00
9.74
9.42
9.19
9.18
9.47
10.00
10.62
11.11
11.29
11.09
10.57
9.90
9.25
8.73
8.34
7.96
7.48
6.85
6.10
5.29
4.51
3.78
3.08
2.37
1.56
0.59
-0.59
-2.00
-3.63
-5.38
-7.13
-8.73
-10.12
-11.29
-12.28
-13.19
-14.09
-15.01
-15.85
-16.46
-16.55
-15.88
-14.34
-12.03
-9.29
-6.58
-4.31
-2.66
-1.58
-0.83
-0.12
0.73
1.78
2.99
4.30
5.64
6.93
8.01
8.70
8.87
8.52
7.82
7.06
6.48
6.18
6.05
5.87
5.45
4.72
3.75
2.69
1.61
0.54
-0.52
-1.56
-2.43
-2.97
-3.01
-2.54
-1.65
-0.58
0.45
1.31
1.99
2.60
3.28
4.13
5.14
6.24
7.23
7.91
8.11
7.69
6.65
5.07
3.09
0.89
-1.32
-3.40
-5.27
-6.95
-8.52
-10.09
-11.67
-13.18
-14.43
-15.18
-15.27
-14.74
-13.80
-12.80
-12.11
-11.98
-12.47
-13.46
-14.62
-15.50
-15.65
-14.70
-12.54
-9.43
-5.89
-2.59
-0.03
1.60
2.45
2.92
3.41
4.16
5.16
6.26
7.31
8.20
8.90
9.41
9.72
9.83
9.78
9.66
9.63
9.82
10.30
10.98
11.71
12.33
12.70
12.79
12.62
12.24
11.66
10.86
9.81
8.57
7.22
5.89
4.70
3.67
2.76
1.86
0.88
-0.22
-1.38
-2.53
-3.62
-4.71
-5.88
-7.20
-8.60
-9.90
-10.86
-11.38
-11.50
-11.50
-11.70
-12.37
-13.56
-15.11
-16.69
-17.89
-18.36
-17.87
-16.35
-13.94
-10.95
-7.82
-4.98
-2.73
-1.15
-0.09
0.73
1.62
2.82
4.40
6.28
8.25
10.07
11.53
12.50
12.98
13.09
13.01
12.89
12.84
12.85
12.90
12.92
12.83
12.60
12.18
11.55
10.75
9.88
9.09
8.53
8.25
8.23
8.30
8.27
8.01
7.48
6.81
6.17
5.73
5.57
5.69
5.97
6.26
6.40
6.30
5.90
5.21
4.31
3.29
2.30
1.46
0.82
0.34
-0.11
-0.69
-1.52
-2.66
-4.06
-5.62
-7.25
-8.87
-10.50
-12.24
-14.24
-16.58
-19.17
-21.72
-23.75
-24.77
-24.48
-22.89
-20.37
-17.49
-14.83
-12.75
-11.30
-10.27
-9.32
-8.15
-6.58
-4.63
-2.47
-0.33
1.59
3.18
4.44
5.46
6.31
6.99
7.47
7.74
7.86
7.99
8.25
8.69
9.19
9.57
9.66
9.43
8.99
8.52
8.20
8.09
8.13
8.24
8.27
8.12
7.64
6.75
5.47
3.91
2.33
0.96
-0.08
-0.86
-1.58
-2.44
-3.54
-4.82
-6.06
-7.06
-7.69
-7.99
-8.11
-8.27
-8.65
-9.36
-10.43
-11.82
-13.34
-14.71
-15.51
-15.34
-13.99
-11.52
-8.33
-5.03
-2.17
-0.05
1.40
2.49
3.65
5.18
7.18
9.50
11.90
14.07
15.76
16.79
17.07
16.64
15.63
14.23
12.63
11.05
9.63
8.50
7.69
7.21
6.96
6.77
6.51
6.04
5.33
4.46
3.55
2.71
2.03
1.52
1.11
0.73
0.26
-0.38
-1.18
-2.07
-2.93
-3.62
-4.10
-4.47
-4.89
-5.57
-6.61
-7.96
-9.42
-10.71
-11.63
-12.11
-12.22
-12.13
-12.05
-12.15
-12.56
-13.30
-14.25
-15.11
-15.45
-14.87
-13.15
-10.39
-6.98
-3.46
-0.32
2.17
3.97
5.25
6.25
7.19
8.19
9.34
10.62
11.97
13.28
14.41
15.23
15.63
15.58
15.10
14.24
13.11
11.84
10.55
9.30
8.05
6.73
5.25
3.56
1.74
-0.06
-1.65
-2.85
-3.62
-4.03
-4.24
-4.44
-4.77
-5.27
-5.89
-6.48
-6.86
-6.93
-6.65
-6.13
-5.52
-4.95
-4.46
-4.05
-3.65
-3.26
-2.93
-2.73
-2.73
-2.94
-3.41
-4.19
-5.39
-7.08
-9.15
-11.30
-13.03
-13.82
-13.34
-11.66
-9.18
-6.56
-4.38
-2.96
-2.21
-1.77
-1.16
-0.03
1.67
3.76
5.93
7.85
9.36
10.39
11.00
11.25
11.22
10.93
10.44
9.76
8.91
7.90
6.75
5.50
4.23
3.05
2.06
1.34
0.88
0.69
0.75
1.03
1.49
2.04
2.56
2.93
3.08
3.05
2.91
2.79
2.76
2.84
2.96
3.07
3.12
3.05
2.84
2.40
1.65
0.57
-0.79
-2.24
-3.55
-4.51
-5.06
-5.29
-5.39
-5.59
-6.03
-6.77
-7.80
-9.03
-10.32
-11.46
-12.15
-12.12
-11.19
-9.40
-7.09
-4.74
-2.81
-1.59
-1.06
-0.95
-0.89
-0.52
0.34
1.74
3.56
5.62
7.66
9.37
10.53
11.00
10.83
10.23
9.50
8.91
8.59
8.52
8.58
8.66
8.70
8.74
8.83
9.02
9.26
9.44
9.44
9.17
8.70
8.16
7.78
7.73
8.10
8.89
10.06
11.51
13.05
14.29
14.64
13.42
10.17
4.95
-1.51
-8.01
-13.33
-16.72
-18.16
-18.27
-17.90
-17.69
-17.84
-18.16
-18.37
-18.32
-18.13
-18.07
-18.34
-18.98
-19.84
-20.68
-21.35
-21.78
-22.00
-21.98
-21.59
-20.68
-19.11
-16.96
-14.49
-12.11
-10.16
-8.82
-7.96
-7.27
-6.36
-4.94
-2.92
-0.37
2.48
5.36
7.98
10.11
11.59
12.38
12.59
12.42
12.11
11.86
11.74
11.74
11.79
11.84
11.88
11.93
11.97
11.91
11.65
11.12
10.37
9.53
8.76
8.16
7.71
7.35
6.96
6.51
6.02
5.53
5.09
4.72
4.40
4.13
3.90
3.67
3.41
3.03
2.51
1.85
1.11
0.38
-0.29
-0.90
-1.44
-1.94
-2.39
-2.75
-3.03
-3.27
-3.56
-4.00
-4.61
-5.36
-6.10
-6.71
-7.11
-7.34
-7.56
-7.94
-8.62
-9.62
-10.85
-12.17
-13.44
-14.53
-15.27
-15.46
-14.92
-13.58
-11.53
-9.08
-6.69
-4.73
-3.37
-2.48
-1.74
-0.81
0.53
2.23
4.07
5.79
7.21
8.33
9.23
10.00
10.69
11.26
11.68
11.93
12.04
12.08
12.10
12.12
12.12
12.13
12.20
12.35
12.58
12.84
13.01
13.02
12.87
12.60
12.29
11.95
11.57
11.12
10.60
10.07
9.54
8.96
8.14
6.86
4.93
2.33
-0.75
-3.97
-7.02
-9.66
-11.81
-13.50
-14.79
-15.75
-16.46
-17.00
-17.50
-18.03
-18.59
-19.05
-19.23
-18.94
-18.10
-16.78
-15.23
-13.80
-12.85
-12.62
-13.12
-14.09
-15.08
-15.54
-15.08
-13.56
-11.23
-8.56
-6.10
-4.22
-3.03
-2.37
-1.95
-1.52
-0.94
-0.17
0.77
1.90
3.29
4.96
6.84
8.68
10.16
11.01
11.17
10.83
10.32
9.96
9.86
9.90
9.82
9.38
8.47
7.17
5.65
4.08
2.55
1.08
-0.35
-1.77
-3.19
-4.64
-6.11
-7.61
-9.07
-10.28
-10.95
-10.71
-9.24
-6.43
-2.41
2.41
7.45
12.07
15.77
18.28
19.65
20.18
20.26
20.20
20.14
19.99
19.53
18.57
17.06
15.09
12.87
10.63
8.54
6.66
4.97
3.39
1.81
0.12
-1.74
-3.81
-5.99
-8.08
-9.79
-10.79
-10.82
-9.85
-8.10
-6.03
-4.22
-3.13
-2.94
-3.47
-4.28
-4.79
-4.59
-3.53
-1.74
0.45
2.62
4.42
5.58
5.97
5.56
4.46
2.92
1.22
-0.28
-1.34
-1.84
-1.82
-1.51
-1.15
-0.94
-1.00
-1.34
-1.88
-2.54
-3.26
-4.00
-4.70
-5.29
-5.75
-6.08
-6.37
-6.69
-7.08
-7.49
-7.78
-7.82
-7.56
-7.13
-6.72
-6.55
-6.72
-7.15
-7.61
-7.84
-7.67
-7.12
-6.38
-5.74
-5.47
-5.70
-6.45
-7.56
-8.82
-9.95
-10.69
-10.82
-10.20
-8.82
-6.86
-4.64
-2.55
-0.91
0.13
0.66
0.95
1.32
2.04
3.20
4.75
6.54
8.36
10.04
11.49
12.66
13.55
14.15
14.44
14.47
14.27
13.98
13.72
13.57
13.56
13.63
13.68
13.61
13.37
12.96
12.41
11.79
11.15
10.54
9.95
9.37
8.71
7.91
6.95
5.91
4.92
4.14
3.66
3.44
3.30
3.07
2.60
1.93
1.18
0.54
0.15
0.08
0.28
0.65
1.03
1.26
1.10
0.40
-0.92
-2.79
-4.96
-7.12
-9.00
-10.47
-11.58
-12.53
-13.56
-14.87
-16.55
-18.48
-20.37
-21.80
-22.36
-21.77
-20.05
-17.50
-14.65
-12.05
-10.05
-8.70
-7.76
-6.89
-5.82
-4.43
-2.79
-1.10
0.48
1.86
3.05
4.09
5.00
5.69
6.06
5.98
5.46
4.66
3.84
3.30
3.22
3.60
4.30
5.12
5.90
6.54
7.05
7.44
7.71
7.81
7.69
7.33
6.80
6.20
5.69
5.35
5.22
5.24
5.31
5.32
5.19
4.86
4.34
3.63
2.75
1.74
0.66
-0.38
-1.31
-2.05
-2.60
-3.00
-3.35
-3.73
-4.26
-4.98
-5.92
-7.08
-8.41
-9.85
-11.30
-12.60
-13.52
-13.80
-13.23
-11.71
-9.32
-6.34
-3.18
-0.26
2.08
3.70
4.68
5.24
5.69
6.27
7.11
8.15
9.17
9.89
10.07
9.64
8.67
7.37
6.00
4.75
3.73
2.99
2.53
2.31
2.29
2.39
2.50
2.55
2.51
2.40
2.29
2.23
2.26
2.39
2.59
2.78
2.90
2.87
2.66
2.26
1.72
1.10
0.43
-0.22
-0.81
-1.25
-1.44
-1.34
-0.99
-0.54
-0.19
-0.09
-0.27
-0.62
-0.98
-1.21
-1.27
-1.18
-1.06
-0.96
-0.97
-1.11
-1.40
-1.85
-2.44
-3.08
-3.69
-4.23
-4.72
-5.28
-6.10
-7.29
-8.77
-10.23
-11.24
-11.34
-10.34
-8.36
-5.83
-3.33
-1.28
0.16
1.12
1.93
2.87
4.09
5.55
7.10
8.61
10.04
11.38
12.64
13.79
14.73
15.37
15.69
15.73
15.59
15.35
14.98
14.39
13.47
12.17
10.58
8.91
7.37
6.12
5.19
4.49
3.88
3.20
2.39
1.47
0.53
-0.33
-1.03
-1.54
-1.88
-2.09
-2.23
-2.30
-2.28
-2.15
-1.97
-1.84
-1.92
-2.32
-3.03
-3.86
-4.54
-4.85
-4.75
-4.43
-4.19
-4.34
-5.05
-6.27
-7.83
-9.46
-10.91
-11.96
-12.42
-12.19
-11.27
-9.81
-8.11
-6.55
-5.46
-4.99
-5.05
-5.35
-5.54
-5.36
-4.75
-3.86
-2.93
-2.17
-1.67
-1.43
-1.35
-1.35
-1.34
-1.24
-0.95
-0.35
0.62
1.93
3.42
4.86
6.02
6.77
7.09
7.03
6.70
6.20
5.66
5.19
4.88
4.79
4.93
5.26
5.68
6.10
6.46
6.73
6.91
7.03
7.09
7.05
6.92
6.66
6.28
5.78
5.22
4.65
4.15
3.79
3.59
3.51
3.36
2.88
1.84
0.16
-2.02
-4.37
-6.51
-8.20
-9.41
-10.29
-11.10
-12.03
-13.16
-14.40
-15.62
-16.71
-17.50
-17.85
-17.54
-16.40
-14.44
-11.91
-9.29
-7.11
-5.74
-5.19
-5.13
-5.05
-4.51
-3.29
-1.46
0.74
3.01
5.12
6.91
8.27
9.12
9.41
9.18
8.56
7.79
7.11
6.72
6.69
6.95
7.36
7.76
8.01
8.02
7.78
7.28
6.56
5.64
4.60
3.50
2.45
1.54
0.81
0.29
-0.05
-0.24
-0.35
-0.40
-0.43
-0.50
-0.67
-1.02
-1.57
-2.31
-3.18
-4.12
-5.09
-6.10
-7.17
-8.28
-9.35
-10.28
-10.99
-11.47
-11.78
-12.04
-12.39
-12.92
-13.64
-14.45
-15.16
-15.50
-15.20
-14.08
-12.18
-9.74
-7.25
-5.17
-3.78
-3.07
-2.71
-2.27
-1.41
-0.05
1.66
3.45
5.06
6.35
7.34
8.14
8.80
9.35
9.72
9.88
9.83
9.65
9.45
9.30
9.19
9.06
8.84
8.48
8.01
7.51
7.07
6.73
6.45
6.17
5.85
5.50
5.18
4.93
4.74
4.52
4.22
3.84
3.44
3.11
2.90
2.73
2.41
1.77
0.72
-0.68
-2.22
-3.66
-4.79
-5.59
-6.18
-6.79
-7.63
-8.81
-10.32
-11.99
-13.61
-14.99
-16.06
-16.83
-17.35
-17.73
-18.03
-18.35
-18.76
-19.34
-20.07
-20.83
-21.28
-20.98
-19.51
-16.68
-12.64
-7.89
-3.13
0.99
4.10
6.22
7.64
8.82
10.13
11.78
13.76
15.94
18.16
20.23
21.99
23.28
24.01
24.15
23.75
22.98
22.03
21.06
20.21
19.48
18.87
18.27
17.61
16.80
15.82
14.67
13.41
12.11
10.83
9.59
8.39
7.21
6.01
4.83
3.68
2.60
1.60
0.67
-0.20
-1.06
-1.93
-2.82
-3.71
-4.57
-5.36
-6.08
-6.78
-7.59
-8.62
-9.93
-11.47
-13.03
-14.37
-15.32
-15.83
-15.99
-16.01
-16.09
-16.31
-16.64
-16.91
-16.92
-16.46
-15.44
-13.88
-11.95
-9.92
-8.07
-6.60
-5.57
-4.85
-4.20
-3.35
-2.11
-0.43
1.63
3.94
6.32
8.58
10.52
11.99
12.86
13.11
12.86
12.33
11.76
11.34
11.16
11.20
11.37
11.58
11.75
11.80
11.67
11.31
10.75
10.08
9.47
9.09
9.03
9.25
9.59
9.86
9.90
9.68
9.23
8.66
8.07
7.56
7.18
6.95
6.78
6.54
6.05
5.18
3.88
2.27
0.53
-1.12
-2.56
-3.77
-4.83
-5.88
-7.03
-8.33
-9.75
-11.21
-12.60
-13.86
-14.97
-15.96
-16.92
-17.89
-18.95
-20.11
-21.32
-22.43
-23.13
-23.09
-22.02
-19.87
-16.87
-13.57
-10.54
-8.26
-6.82
-5.99
-5.33
-4.41
-3.01
-1.17
0.90
2.97
4.84
6.43
7.69
8.61
9.15
9.35
9.26
9.00
8.75
8.62
8.67
8.89
9.16
9.37
9.41
9.21
8.79
8.20
7.55
6.95
6.46
6.11
5.86
5.63
5.35
4.97
4.46
3.81
3.07
2.30
1.61
1.11
0.86
0.83
0.88
0.80
0.38
-0.48
-1.71
-3.12
-4.40
-5.35
-5.91
-6.24
-6.59
-7.24
-8.34
-9.84
-11.55
-13.20
-14.45
-14.99
-14.61
-13.25
-11.03
-8.30
-5.52
-3.12
-1.35
-0.23
0.49
1.10
1.87
2.90
4.14
5.48
6.82
8.13
9.36
10.48
11.36
11.90
11.99
11.67
11.05
10.34
9.72
9.31
9.14
9.16
9.26
9.30
9.20
8.89
8.38
7.75
7.11
6.60
6.31
6.18
6.09
5.88
5.43
4.78
4.04
3.38
2.90
2.60
2.37
2.10
1.69
1.14
0.51
-0.12
-0.74
-1.35
-1.99
-2.67
-3.36
-4.04
-4.69
-5.32
-5.96
-6.57
-7.14
-7.62
-7.99
-8.31
-8.72
-9.32
-10.17
-11.27
-12.56
-13.95
-15.33
-16.54
-17.31
-17.36
-16.47
-14.62
-12.08
-9.31
-6.81
-4.91
-3.66
-2.82
-2.09
-1.19
-0.01
1.41
2.93
4.45
5.90
7.25
8.44
9.39
9.97
10.08
9.75
9.11
8.39
7.86
7.68
7.88
8.34
8.84
9.15
9.13
8.77
8.20
7.58
7.05
6.63
6.23
5.72
5.04
4.23
3.43
2.80
2.40
2.21
2.11
1.97
1.67
1.14
0.35
-0.73
-2.03
-3.44
-4.78
-5.88
-6.67
-7.22
-7.68
-8.22
-8.93
-9.83
-10.91
-12.14
-13.50
-14.87
-16.03
-16.65
-16.39
-15.09
-12.84
-10.02
-7.13
-4.64
-2.82
-1.71
-1.08
-0.61
0.02
1.02
2.43
4.13
5.93
7.61
8.96
9.88
10.33
10.36
10.07
9.59
9.06
8.61
8.34
8.31
8.50
8.82
9.13
9.31
9.23
8.86
8.25
7.52
6.84
6.35
6.08
5.93
5.79
5.50
5.00
4.33
3.59
2.91
2.35
1.92
1.57
1.26
0.93
0.61
0.31
0.02
-0.28
-0.67
-1.21
-1.90
-2.70
-3.52
-4.26
-4.88
-5.43
-5.99
-6.62
-7.34
-8.10
-8.80
-9.43
-9.99
-10.60
-11.35
-12.33
-13.56
-14.96
-16.38
-17.59
-18.28
-18.16
-17.05
-14.97
-12.21
-9.26
-6.61
-4.61
-3.31
-2.53
-1.94
-1.24
-0.27
1.00
2.48
4.07
5.66
7.13
8.36
9.24
9.71
9.77
9.51
9.07
8.64
8.36
8.35
8.60
9.03
9.48
9.75
9.72
9.38
8.79
8.11
7.45
6.85
6.28
5.68
5.03
4.32
3.58
2.86
2.17
1.51
0.89
0.32
-0.19
-0.59
-0.88
-1.13
-1.39
-1.79
-2.41
-3.29
-4.36
-5.44
-6.36
-7.01
-7.41
-7.70
-8.14
-8.94
-10.21
-11.85
-13.64
-15.18
-16.12
-16.16
-15.21
-13.36
-10.92
-8.31
-5.91
-4.00
-2.61
-1.62
-0.79
0.12
1.24
2.61
4.17
5.84
7.50
9.02
10.29
11.15
11.53
11.43
10.95
10.31
9.75
9.40
9.31
9.38
9.46
9.45
9.30
9.07
8.82
8.60
8.41
8.25
8.11
7.99
7.88
7.74
7.48
7.00
6.29
5.42
4.58
3.92
3.54
3.38
3.27
3.06
2.63
1.96
1.10
0.13
-0.86
-1.80
-2.61
-3.22
-3.63
-3.89
-4.11
-4.47
-5.08
-5.99
-7.15
-8.39
-9.54
-10.45
-11.09
-11.56
-12.05
-12.78
-13.90
-15.40
-17.12
-18.71
-19.76
-19.90
-18.92
-16.88
-14.08
-11.03
-8.21
-6.00
-4.47
-3.51
-2.79
-2.03
-1.05
0.18
1.61
3.14
4.71
6.24
7.63
8.76
9.50
9.76
9.59
9.13
8.67
8.46
8.66
9.24
10.01
10.66
10.95
10.75
10.14
9.29
8.43
7.69
7.07
6.52
5.94
5.32
4.71
4.16
3.68
3.22
2.71
2.09
1.42
0.84
0.45
0.25
0.11
-0.20
-0.87
-1.95
-3.32
-4.73
-5.97
-6.91
-7.60
-8.17
-8.80
-9.62
-10.67
-11.93
-13.30
-14.61
-15.62
-16.07
-15.75
-14.59
-12.71
-10.37
-7.94
-5.73
-3.92
-2.56
-1.54
-0.71
0.11
1.07
2.25
3.64
5.17
6.70
8.09
9.25
10.12
10.69
10.98
11.06
10.97
10.81
10.70
10.71
10.88
11.17
11.48
11.71
11.79
11.70
11.44
10.99
10.34
9.53
8.66
7.90
7.39
7.15
7.11
7.07
6.87
6.41
5.75
5.01
4.36
3.87
3.54
3.30
3.05
2.71
2.25
1.67
1.06
0.52
0.12
-0.15
-0.40
-0.79
-1.47
-2.46
-3.70
-5.02
-6.29
-7.45
-8.53
-9.61
-10.75
-12.00
-13.39
-14.97
-16.76
-18.69
-20.51
-21.81
-22.11
-21.09
-18.73
-15.44
-11.85
-8.63
-6.21
-4.67
-3.80
-3.26
-2.75
-2.07
-1.19
-0.07
1.23
2.67
4.09
5.32
6.17
6.54
6.48
6.14
5.72
5.40
5.26
5.33
5.60
6.03
6.54
7.00
7.26
7.20
6.82
6.24
5.69
5.38
5.42
5.72
6.08
6.26
6.14
5.76
5.30
4.98
4.95
5.21
5.58
5.82
5.72
5.17
4.18
2.84
1.28
-0.35
-1.94
-3.37
-4.59
-5.66
-6.77
-8.27
-10.44
-13.39
-16.91
-20.45
-23.31
-24.92
-24.99
-23.64
-21.33
-18.63
-16.04
-13.86
-12.15
-10.78
-9.50
-8.05
-6.21
-3.90
-1.16
1.81
4.76
7.45
9.70
11.41
12.60
13.36
13.85
14.22
14.61
15.11
15.69
16.31
16.85
17.19
17.28
17.06
16.54
15.73
14.72
13.62
12.55
11.63
10.87
10.20
9.49
8.64
7.64
6.58
5.59
4.80
4.26
3.87
3.51
2.99
2.21
1.13
-0.15
-1.47
-2.65
-3.54
-4.14
-4.52
-4.90
-5.46
-6.31
-7.43
-8.68
-9.89
-10.90
-11.63
-12.10
-12.43
-12.76
-13.27
-14.09
-15.26
-16.76
-18.41
-19.89
-20.80
-20.78
-19.63
-17.37
-14.33
-10.98
-7.86
-5.34
-3.61
-2.55
-1.92
-1.38
-0.67
0.36
1.74
3.39
5.18
6.91
8.39
9.48
10.11
10.32
10.20
9.92
9.64
9.48
9.48
9.63
9.83
9.99
10.02
9.87
9.54
9.03
8.43
7.82
7.26
6.82
6.48
6.17
5.79
5.27
4.57
3.75
2.91
2.20
1.73
1.53
1.52
1.53
1.35
0.80
-0.19
-1.55
-3.07
-4.49
-5.60
-6.33
-6.77
-7.16
-7.71
-8.52
-9.62
-10.92
-12.34
-13.79
-15.10
-16.01
-16.18
-15.32
-13.37
-10.54
-7.36
-4.40
-2.12
-0.64
0.23
0.87
1.68
2.87
4.50
6.45
8.50
10.44
12.06
13.27
14.07
14.58
14.97
15.35
15.77
16.14
16.28
16.08
15.45
14.43
13.13
11.62
9.99
8.29
6.59
4.97
3.50
2.19
1.04
0.00
-0.95
-1.80
-2.50
-3.04
-3.43
-3.78
-4.18
-4.65
-5.14
-5.52
-5.66
-5.54
-5.26
-4.95
-4.72
-4.62
-4.60
-4.62
-4.63
-4.66
-4.76
-4.98
-5.34
-5.82
-6.37
-6.92
-7.39
-7.72
-7.89
-7.96
-8.11
-8.54
-9.46
-10.92
-12.82
-14.89
-16.70
-17.84
-18.01
-17.07
-15.14
-12.52
-9.67
-7.02
-4.86
-3.30
-2.21
-1.36
-0.48
0.63
2.04
3.71
5.49
7.17
8.56
9.50
9.96
10.00
9.80
9.56
9.44
9.49
9.64
9.81
9.90
9.89
9.79
9.64
9.44
9.16
8.74
8.18
7.54
6.94
6.49
6.25
6.16
6.08
5.84
5.36
4.64
3.81
3.03
2.41
2.00
1.69
1.36
0.87
0.16
-0.79
-1.91
-3.10
-4.27
-5.33
-6.26
-7.07
-7.84
-8.70
-9.79
-11.17
-12.81
-14.51
-15.92
-16.72
-16.61
-15.48
-13.45
-10.86
-8.17
-5.79
-4.01
-2.86
-2.16
-1.59
-0.83
0.33
1.88
3.69
5.52
7.19
8.59
9.71
10.60
11.28
11.77
12.05
12.13
12.03
11.80
11.52
11.22
10.94
10.71
10.55
10.49
10.55
10.69
10.84
10.86
10.65
10.20
9.56
8.88
8.30
7.88
7.62
7.44
7.26
7.03
6.78
6.53
6.29
6.02
5.66
5.16
4.48
3.67
2.75
1.77
0.75
-0.30
-1.41
-2.61
-3.93
-5.42
-7.08
-8.90
-10.76
-12.52
-14.05
-15.26
-16.18
-16.88
-17.45
-17.99
-18.56
-19.22
-20.02
-20.96
-21.91
-22.61
-22.68
-21.74
-19.64
-16.55
-13.01
-9.74
-7.34
-6.08
-5.80
-5.98
-6.05
-5.57
-4.38
-2.63
-0.63
1.32
3.07
4.57
5.87
6.98
7.89
8.53
8.88
9.01
9.06
9.21
9.62
10.29
11.15
12.03
12.75
13.21
13.38
13.29
12.97
12.43
11.65
10.66
9.54
8.41
7.44
6.70
6.17
5.72
5.21
4.52
3.67
2.78
1.96
1.27
0.68
0.01
-0.86
-1.98
-3.27
-4.54
-5.61
-6.40
-6.95
-7.42
-8.02
-8.87
-10.02
-11.43
-13.00
-14.58
-15.95
-16.83
-16.92
-15.99
-14.05
-11.34
-8.33
-5.54
-3.32
-1.68
-0.36
1.03
2.78
4.93
7.23
9.30
10.80
11.58
11.74
11.51
11.14
10.79
10.48
10.14
9.69
9.14
8.62
8.25
8.13
8.23
8.35
8.29
7.89
7.16
6.26
5.45
4.95
4.82
4.97
5.19
5.32
5.24
4.94
4.43
3.76
2.94
2.01
1.04
0.14
-0.56
-0.97
-1.13
-1.19
-1.35
-1.79
-2.59
-3.63
-4.72
-5.65
-6.29
-6.65
-6.89
-7.18
-7.65
-8.31
-9.03
-9.67
-10.15
-10.45
-10.65
-10.84
-11.09
-11.42
-11.87
-12.51
-13.38
-14.41
-15.36
-15.83
-15.42
-13.92
-11.46
-8.55
-5.82
-3.80
-2.71
-2.39
-2.45
-2.52
-2.40
-2.09
-1.68
-1.20
-0.61
0.22
1.32
2.59
3.83
4.77
5.28
5.40
5.32
5.27
5.41
5.81
6.42
7.19
8.08
9.09
10.22
11.40
12.52
13.44
14.09
14.46
14.63
14.70
14.75
14.78
14.73
14.54
14.15
13.56
12.80
11.94
11.01
10.00
8.87
7.55
6.00
4.21
2.21
0.09
-2.02
-3.99
-5.71
-7.17
-8.47
-9.83
-11.48
-13.53
-15.89
-18.25
-20.14
-21.10
-20.87
-19.42
-17.04
-14.17
-11.29
-8.81
-6.95
-5.73
-4.99
-4.46
-3.80
-2.74
-1.11
1.06
3.56
6.02
8.05
9.36
9.85
9.69
9.16
8.62
8.32
8.34
8.61
9.01
9.41
9.76
10.08
10.37
10.63
10.81
10.86
10.72
10.41
9.97
9.44
8.87
8.25
7.57
6.86
6.16
5.52
5.00
4.60
4.28
3.96
3.55
3.02
2.41
1.73
1.02
0.29
-0.49
-1.38
-2.37
-3.47
-4.64
-5.86
-7.10
-8.34
-9.53
-10.62
-11.52
-12.20
-12.66
-12.95
-13.19
-13.53
-14.07
-14.88
-15.94
-17.13
-18.21
-18.88
-18.81
-17.79
-15.79
-13.02
-9.89
-6.89
-4.40
-2.64
-1.55
-0.92
-0.46
0.09
0.88
1.96
3.31
4.83
6.37
7.77
8.83
9.43
9.52
9.20
8.64
8.07
7.64
7.47
7.53
7.75
8.07
8.40
8.69
8.85
8.83
8.56
8.01
7.16
6.11
4.95
3.82
2.81
1.98
1.26
0.60
-0.08
-0.83
-1.61
-2.35
-3.00
-3.54
-4.03
-4.57
-5.26
-6.11
-7.06
-7.98
-8.70
-9.13
-9.28
-9.28
-9.36
-9.75
-10.61
-11.95
-13.59
-15.18
-16.33
-16.66
-15.97
-14.31
-11.94
-9.25
-6.63
-4.36
-2.51
-1.02
0.29
1.58
2.98
4.54
6.22
7.96
9.68
11.28
12.68
13.79
14.54
14.87
14.81
14.43
13.85
13.25
12.77
12.46
12.33
12.27
12.16
11.87
11.37
10.71
9.96
9.23
8.57
7.99
7.46
6.97
6.49
6.01
5.53
5.03
4.47
3.86
3.26
2.72
2.31
2.04
1.87
1.73
1.54
1.28
0.93
0.49
-0.04
-0.64
-1.25
-1.81
-2.31
-2.79
-3.35
-4.09
-5.06
-6.21
-7.41
-8.51
-9.41
-10.11
-10.68
-11.22
-11.82
-12.59
-13.56
-14.76
-16.14
-17.52
-18.63
-19.14
-18.71
-17.19
-14.70
-11.63
-8.52
-5.89
-4.04
-2.95
-2.33
-1.81
-1.07
0.06
1.54
3.27
5.08
6.82
8.35
9.51
10.22
10.41
10.12
9.44
8.47
7.35
6.22
5.22
4.50
4.12
4.03
4.11
4.14
3.94
3.42
2.62
1.70
0.82
0.12
-0.35
-0.64
-0.83
-1.02
-1.25
-1.54
-1.86
-2.19
-2.55
-2.96
-3.45
-4.06
-4.83
-5.75
-6.76
-7.79
-8.70
-9.36
-9.68
-9.61
-9.20
-8.57
-7.91
-7.48
-7.53
-8.24
-9.64
-11.49
-13.29
-14.38
-14.22
-12.57
-9.66
-6.08
-2.57
0.32
2.38
3.68
4.51
5.15
5.81
6.60
7.62
8.94
10.53
12.29
13.98
15.30
16.03
16.09
15.55
14.61
13.50
12.44
11.60
11.11
10.97
11.07
11.19
11.14
10.75
10.08
9.26
8.53
8.05
7.90
8.01
8.24
8.43
8.47
8.30
7.90
7.33
6.69
6.08
5.58
5.25
5.06
4.95
4.81
4.54
4.09
3.48
2.82
2.19
1.69
1.31
1.00
0.67
0.18
-0.53
-1.50
-2.73
-4.17
-5.75
-7.37
-8.89
-10.21
-11.32
-12.30
-13.35
-14.69
-16.44
-18.52
-20.59
-22.16
-22.74
-22.01
-19.97
-16.95
-13.51
-10.18
-7.35
-5.16
-3.51
-2.17
-0.88
0.55
2.21
4.07
6.04
7.95
9.62
10.83
11.46
11.49
11.02
10.23
9.37
8.61
8.04
7.67
7.40
7.14
6.79
6.31
5.72
5.07
4.47
3.97
3.61
3.37
3.18
2.95
2.62
2.20
1.80
1.50
1.38
1.41
1.48
1.47
1.30
0.98
0.59
0.23
-0.07
-0.34
-0.64
-1.06
-1.63
-2.33
-3.13
-3.94
-4.68
-5.30
-5.77
-6.11
-6.42
-6.84
-7.52
-8.56
-9.96
-11.55
-13.05
-14.09
-14.32
-13.51
-11.67
-9.04
-6.10
-3.40
-1.39
-0.29
0.04
-0.03
-0.01
0.45
1.49
3.03
4.83
6.64
8.25
9.55
10.44
10.83
10.72
10.14
9.29
8.41
7.78
7.55
7.73
8.14
8.54
8.73
8.60
8.15
7.48
6.74
6.04
5.45
4.99
4.64
4.41
4.27
4.21
4.14
3.97
3.62
3.09
2.45
1.88
1.54
1.53
1.79
2.11
2.26
2.02
1.33
0.25
-1.04
-2.37
-3.64
-4.82
-5.90
-6.86
-7.70
-8.40
-9.03
-9.67
-10.38
-11.18
-12.01
-12.80
-13.52
-14.26
-15.16
-16.35
-17.82
-19.41
-20.80
-21.59
-21.47
-20.33
-18.28
-15.68
-12.95
-10.50
-8.55
-7.14
-6.11
-5.25
-4.34
-3.26
-1.94
-0.36
1.44
3.40
5.36
7.14
8.58
9.59
10.18
10.45
10.54
10.59
10.67
10.77
10.86
10.86
10.71
10.38
9.91
9.33
8.69
7.98
7.18
6.26
5.25
4.23
3.33
2.68
2.30
2.17
2.18
2.26
2.38
2.55
2.79
3.10
3.36
3.44
3.27
2.83
2.27
1.79
1.55
1.58
1.76
1.84
1.58
0.87
-0.24
-1.53
-2.76
-3.77
-4.54
-5.20
-5.94
-6.93
-8.30
-10.02
-11.95
-13.78
-15.12
-15.58
-14.93
-13.17
-10.61
-7.71
-4.99
-2.82
-1.32
-0.40
0.17
0.64
1.17
1.90
2.88
4.11
5.53
6.97
8.21
9.02
9.22
8.79
7.90
6.77
5.68
4.83
4.31
4.08
3.98
3.81
3.42
2.75
1.90
1.06
0.48
0.27
0.41
0.67
0.78
0.49
-0.24
-1.29
-2.34
-3.02
-3.01
-2.09
-0.23
2.39
5.39
8.29
10.64
12.18
12.90
13.01
12.78
12.39
11.90
11.24
10.34
9.19
7.87
6.45
4.97
3.35
1.52
-0.59
-3.00
-5.65
-8.48
-11.38
-14.24
-16.83
-18.87
-20.04
-20.13
-19.11
-17.17
-14.67
-12.07
-9.77
-8.05
-6.95
-6.34
-5.90
-5.30
-4.26
-2.72
-0.81
1.20
2.99
4.34
5.20
5.65
5.83
5.91
5.98
6.09
6.28
6.57
6.98
7.53
8.14
8.73
9.17
9.36
9.30
9.05
8.70
8.35
8.07
7.88
7.75
7.66
7.60
7.54
7.46
7.36
7.20
6.95
6.61
6.15
5.54
4.77
3.85
2.83
1.80
0.88
0.18
-0.28
-0.54
-0.74
-1.06
-1.65
-2.60
-3.88
-5.34
-6.79
-8.01
-8.90
-9.47
-9.87
-10.33
-11.09
-12.31
-14.01
-16.00
-17.94
-19.36
-19.79
-18.95
-16.82
-13.72
-10.23
-7.00
-4.53
-3.05
-2.45
-2.38
-2.43
-2.25
-1.65
-0.63
0.69
2.05
3.15
3.75
3.68
2.92
1.62
0.03
-1.58
-2.93
-3.85
-4.25
-4.12
-3.55
-2.68
-1.65
-0.59
0.39
1.27
2.09
2.92
3.88
5.04
6.44
7.99
9.51
10.80
11.65
12.01
11.92
11.52
10.96
10.34
9.67
8.94
8.14
7.26
6.33
5.35
4.34
3.31
2.30
1.34
0.44
-0.48
-1.52
-2.82
-4.44
-6.38
-8.49
-10.55
-12.23
-13.22
-13.30
-12.37
-10.59
-8.27
-5.83
-3.64
-1.93
-0.71
0.17
0.98
1.98
3.31
4.94
6.73
8.39
9.69
10.49
10.80
10.75
10.52
10.21
9.84
9.36
8.75
8.04
7.31
6.69
6.24
5.93
5.69
5.43
5.12
4.77
4.44
4.19
4.04
3.95
3.87
3.77
3.62
3.41
3.15
2.87
2.57
2.27
1.97
1.62
1.18
0.60
-0.09
-0.86
-1.59
-2.22
-2.75
-3.24
-3.79
-4.45
-5.20
-5.97
-6.65
-7.18
-7.57
-7.90
-8.30
-8.92
-9.88
-11.27
-13.12
-15.35
-17.74
-19.94
-21.49
-22.00
-21.24
-19.26
-16.42
-13.27
-10.41
-8.28
-7.05
-6.56
-6.41
-6.12
-5.29
-3.73
-1.47
1.27
4.16
6.86
