1562704125.00
64.000000
-0.00
-0.00
-0.00
-0.00
-0.00
-0.00
-0.00
-0.00
-0.00
-0.00
0.00
0.01
0.01
-0.00
-0.03
-0.05
-0.05
0.00
0.13
0.36
0.66
1.01
1.37
1.72
2.06
2.40
2.79
3.24
3.80
4.42
5.06
5.67
6.21
6.69
7.15
7.68
8.30
9.13
10.09
11.06
11.93
12.63
13.17
13.71
14.45
15.56
17.30
19.54
22.02
24.45
26.62
28.56
30.53
32.97
36.22
40.72
46.18
52.11
57.92
63.17
67.83
72.27
77.14
83.02
90.56
99.41
108.87
118.03
126.15
133.03
139.04
145.44
151.09
158.56
168.84
182.26
197.55
211.41
218.94
215.00
196.07
161.54
114.45
59.40
1.22
-56.91
-114.06
-170.91
-228.44
-286.69
-344.42
-399.16
-448.83
-491.91
-527.73
-556.07
-576.63
-588.85
-591.96
-585.38
-568.72
-541.89
-504.39
-455.16
-393.21
-318.88
-234.98
-146.97
-61.77
14.63
78.98
131.56
175.11
212.64
245.62
273.34
293.70
304.63
305.30
296.35
279.46
256.90
231.31
205.61
182.85
165.43
154.27
148.40
145.42
142.69
138.59
132.88
125.97
118.07
108.43
95.65
78.76
58.12
35.46
13.27
-6.17
-21.10
-29.91
-30.82
-22.04
-2.96
24.62
56.14
85.31
106.20
115.29
112.32
99.55
80.32
57.61
33.60
10.16
-10.73
-26.87
-36.50
-39.21
-36.33
-30.51
-24.59
-20.63
-19.13
-19.28
-19.64
-19.02
-17.00
-14.07
-11.20
-9.41
-9.28
-10.77
-13.25
-15.66
-16.89
-16.16
-13.49
-9.69
-6.18
-4.35
-4.79
-7.06
-9.83
-11.55
-11.26
-8.97
-5.46
-1.91
0.45
0.67
-2.00
-7.93
-16.60
-26.28
-33.98
-36.52
-31.90
-20.63
-5.72
8.59
18.63
22.83
22.12
18.92
15.55
13.03
10.90
8.03
3.78
-1.31
-5.66
-7.52
-5.94
-1.43
4.22
8.77
10.49
8.81
4.55
-0.50
-4.44
-6.02
-5.09
-2.48
0.50
2.72
3.77
3.87
3.66
3.63
3.90
4.13
3.86
2.89
1.35
-0.28
-1.47
-1.92
-1.72
-1.21
-0.74
-0.54
-0.55
-0.57
-0.37
0.12
0.78
1.41
1.83
1.97
1.90
1.71
1.51
1.25
0.80
-0.04
-1.35
-3.00
-4.64
-5.82
-6.11
-5.29
-3.51
-1.27
0.77
2.05
2.35
1.90
1.18
0.79
1.21
2.48
4.06
5.10
4.85
3.11
0.41
-2.17
-3.43
-2.42
0.79
5.03
8.50
9.59
7.75
3.71
-0.80
-3.72
-3.28
1.20
8.97
18.19
26.44
31.11
29.99
21.67
5.11
-17.44
-40.32
-56.47
-60.89
-53.40
-38.76
-24.31
-16.25
-16.85
-23.51
-30.92
-34.16
-31.05
-22.75
-12.54
-3.71
2.12
5.36
7.96
11.88
17.40
23.19
27.30
28.27
26.01
21.88
18.05
16.59
18.17
21.75
25.01
25.44
21.57
13.81
4.29
-4.09
-8.77
-8.69
-4.52
1.78
7.98
12.29
13.94
13.36
11.82
10.91
11.80
14.77
19.12
23.45
26.31
26.90
25.47
23.18
21.52
21.69
24.33
29.52
36.87
45.37
52.86
55.84
50.16
32.74
3.60
-33.11
-69.99
-99.21
-115.64
-118.84
-112.68
-103.08
-95.08
-90.99
-90.28
-90.94
-91.19
-90.39
-88.78
-86.43
-82.38
-74.57
-60.79
-40.02
-13.47
15.39
41.87
61.85
73.29
76.87
75.29
71.85
68.82
66.64
64.22
59.97
53.02
43.83
33.98
25.37
19.32
16.18
15.34
15.82
16.69
17.36
17.50
16.97
15.63
13.49
10.77
7.88
5.28
3.28
1.90
0.80
-0.63
-3.19
-7.63
-14.29
-22.80
-31.88
-39.59
-43.86
-43.34
-37.92
-28.86
-18.25
-8.19
-0.08
5.59
9.12
11.09
12.10
12.52
12.64
12.72
12.98
13.57
14.48
15.59
16.73
17.82
18.82
19.74
20.54
21.12
21.39
21.25
20.62
19.47
17.73
15.40
12.54
9.45
6.63
4.68
4.11
5.08
7.27
10.00
12.47
14.06
14.58
14.23
13.53
13.06
13.25
14.26
15.97
18.01
19.77
20.47
19.35
15.89
10.05
2.33
-6.24
-14.47
-21.30
-26.09
-28.76
-29.66
-29.41
-28.66
-27.91
-27.41
-27.17
-26.97
-26.52
-25.56
-24.04
-22.12
-20.10
-18.30
-16.92
-15.97
-15.28
-14.62
-13.78
-12.64
-11.15
-9.35
-7.30
-5.09
-2.88
-0.81
0.99
2.43
3.55
4.40
5.08
5.65
6.19
6.79
7.59
8.76
10.45
12.67
15.26
17.89
20.20
21.89
22.77
22.85
22.20
20.99
19.39
17.65
15.98
14.62
13.74
13.39
13.46
13.72
13.81
13.31
11.82
9.05
4.89
-0.43
-6.43
-12.49
-17.97
-22.38
-25.46
-27.12
-27.38
-26.39
-24.33
-21.46
-17.97
-14.01
-9.60
-4.74
0.47
5.76
10.66
14.68
17.44
18.85
19.06
18.35
16.99
15.12
12.75
9.72
5.70
0.27
-6.92
-15.81
-25.73
-35.40
-43.28
-48.14
-49.48
-47.67
-43.69
-38.65
-33.34
-28.04
-22.68
-17.06
-11.15
-5.11
0.81
6.35
11.35
15.68
19.16
21.59
22.77
22.60
21.16
18.73
15.72
12.65
9.98
8.07
7.04
6.73
6.75
6.48
5.32
2.87
-0.89
-5.57
-10.46
-14.76
-17.83
-19.33
-19.27
-17.94
-15.72
-12.96
-9.84
-6.41
-2.64
1.47
5.76
9.88
13.43
16.01
17.42
17.70
17.08
15.95
14.67
13.55
12.77
12.34
12.18
12.08
11.87
11.46
10.85
10.13
9.40
8.70
8.01
7.28
6.53
5.84
5.28
4.88
4.59
4.24
3.69
2.88
1.87
0.83
-0.06
-0.72
-1.17
-1.52
-1.86
-2.24
-2.63
-2.97
-3.20
-3.32
-3.35
-3.30
-3.19
-3.02
-2.81
-2.61
-2.47
-2.41
-2.39
-2.37
-2.27
-2.04
-1.72
-1.35
-1.05
-0.87
-0.85
-0.97
-1.15
-1.29
-1.31
-1.16
-0.85
-0.44
-0.02
0.38
0.73
1.04
1.28
1.40
1.32
0.98
0.42
-0.26
-0.89
-1.36
-1.60
-1.68
-1.69
-1.72
-1.75
-1.76
-1.66
-1.45
-1.18
-0.97
-0.91
-1.03
-1.30
-1.63
-1.91
-2.07
-2.06
-1.87
-1.54
-1.13
-0.75
-0.52
-0.47
-0.60
-0.84
-1.08
-1.26
-1.38
-1.50
-1.71
-2.05
-2.50
-2.93
-3.21
-3.22
-2.95
-2.47
-1.92
-1.41
-0.99
-0.59
-0.13
0.49
1.26
2.12
2.90
3.47
3.72
3.66
3.36
2.94
2.50
2.09
1.74
1.42
1.14
0.88
0.67
0.52
0.43
0.38
0.35
0.38
0.51
0.78
1.22
1.71
2.12
2.27
2.08
1.56
0.86
0.18
-0.29
-0.48
-0.45
-0.35
-0.34
-0.56
-1.01
-1.56
-2.03
-2.26
-2.15
-1.72
-1.10
-0.48
-0.00
0.26
0.32
0.27
0.24
0.32
0.53
0.84
1.19
1.50
1.71
1.82
1.87
1.93
2.05
2.30
2.66
3.09
3.50
3.81
4.01
4.15
4.36
4.74
5.32
6.03
6.72
7.24
7.46
7.30
6.75
5.77
4.36
2.58
0.54
-1.51
-3.32
-4.72
-5.69
-6.41
-7.12
-7.98
-8.97
-9.87
-10.38
-10.33
-9.72
-8.77
-7.78
-6.92
-6.20
-5.52
-4.75
-3.87
-3.01
-2.33
-1.91
-1.73
-1.65
-1.55
-1.42
-1.37
-1.53
-1.94
-2.49
-2.89
-2.86
-2.23
-1.06
0.36
1.64
2.49
2.77
2.58
2.13
1.61
1.10
0.59
-0.00
-0.73
-1.57
-2.46
-3.29
-3.98
-4.54
-4.98
-5.34
-5.62
-5.74
-5.64
-5.30
-4.74
-4.06
-3.36
-2.67
-2.00
-1.29
-0.51
0.33
1.17
1.90
2.44
2.71
2.70
2.41
1.92
1.39
1.02
1.00
1.44
2.32
3.50
4.82
6.10
7.26
8.20
8.85
9.09
8.86
8.19
7.22
6.18
5.26
4.56
4.08
3.71
3.36
2.97
2.52
1.98
1.29
0.35
-0.90
-2.41
-3.99
-5.36
-6.23
-6.45
-6.04
-5.16
-4.05
-2.92
-1.91
-1.10
-0.49
-0.12
0.03
-0.01
-0.18
-0.40
-0.53
-0.50
-0.24
0.19
0.66
1.05
1.24
1.23
1.12
1.07
1.19
1.53
2.05
2.65
3.25
3.78
4.21
4.53
4.74
4.90
5.12
5.52
6.20
7.12
8.07
8.75
8.87
8.25
6.93
5.10
2.98
0.78
-1.33
-3.23
-4.74
-5.70
-5.98
-5.60
-4.80
-3.94
-3.39
-3.35
-3.81
-4.53
-5.20
-5.56
-5.48
-5.03
-4.38
-3.75
-3.35
-3.30
-3.66
-4.35
-5.21
-5.99
-6.50
-6.57
-6.15
-5.26
-3.99
-2.46
-0.85
0.64
1.85
2.67
3.14
3.41
3.66
4.02
4.49
4.97
5.32
5.46
5.42
5.24
5.03
4.84
4.70
4.61
4.57
4.58
4.60
4.59
4.49
4.30
4.06
3.91
4.01
4.53
5.55
7.05
8.88
10.84
12.70
14.23
15.18
15.33
14.42
12.25
8.81
4.31
-0.72
-5.66
-9.91
-13.11
-15.18
-16.32
-16.86
-17.13
-17.34
-17.63
-18.02
-18.55
-19.20
-19.98
-20.81
-21.54
-21.89
-21.51
-20.08
-17.44
-13.72
-9.25
-4.56
-0.10
3.76
6.85
9.04
10.24
10.35
9.34
7.37
4.78
2.13
-0.07
-1.45
-2.01
-2.02
-1.90
-2.04
-2.62
-3.59
-4.71
-5.65
-6.12
-5.87
-4.80
-2.85
-0.06
3.41
7.28
11.18
14.68
17.41
19.14
19.79
19.50
18.51
17.11
15.57
14.03
12.51
10.98
9.41
7.80
6.22
4.72
3.35
2.08
0.90
-0.17
-1.09
-1.81
-2.35
-2.80
-3.26
-3.77
-4.27
-4.60
-4.64
-4.37
-3.89
-3.40
-3.03
-2.83
-2.76
-2.77
-2.89
-3.25
-3.93
-4.95
-6.21
-7.46
-8.51
-9.19
-9.43
-9.23
-8.61
-7.60
-6.29
-4.83
-3.42
-2.23
-1.33
-0.69
-0.25
0.06
0.25
0.27
0.03
-0.50
-1.30
-2.30
-3.35
-4.25
-4.80
-4.78
-4.04
-2.52
-0.33
2.33
5.20
8.06
10.78
13.31
15.59
17.49
18.82
19.40
19.17
18.25
16.94
15.64
14.69
14.20
14.03
13.87
13.38
12.40
11.02
9.45
7.93
6.51
5.06
3.35
1.25
-1.17
-3.68
-5.93
-7.69
-8.86
-9.50
-9.69
-9.51
-9.01
-8.28
-7.46
-6.70
-6.13
-5.78
-5.60
-5.51
-5.44
-5.38
-5.30
-5.20
-5.05
-4.82
-4.54
-4.25
-3.98
-3.72
-3.45
-3.13
-2.75
-2.35
-2.01
-1.81
-1.79
-1.96
-2.31
-2.74
-3.14
-3.41
-3.49
-3.42
-3.30
-3.21
-3.19
-3.15
-2.97
-2.56
-1.94
-1.22
-0.60
-0.21
-0.10
-0.19
-0.36
-0.50
-0.57
-0.59
-0.55
-0.47
-0.31
-0.05
0.26
0.57
0.82
0.97
1.06
1.18
1.36
1.59
1.73
1.69
1.44
1.08
0.79
0.82
1.27
2.08
2.99
3.65
3.81
3.44
2.76
2.18
2.11
2.79
4.15
5.77
7.17
8.02
8.27
8.24
8.47
9.60
12.16
16.45
22.23
28.86
35.08
38.90
37.89
30.06
15.00
-5.45
-27.35
-46.12
-57.72
-60.12
-54.04
-42.45
-29.00
-16.52
-6.22
2.12
8.82
14.38
19.12
23.08
25.99
27.51
27.06
23.27
14.38
-1.53
-24.08
-49.72
-72.60
-86.81
-88.54
-77.37
-56.26
-27.02
4.26
30.14
45.89
51.29
48.91
41.84
33.34
25.34
19.60
16.77
16.89
19.41
23.32
27.63
31.48
34.31
35.37
33.61
27.62
17.43
5.09
-6.14
-13.54
-16.35
-16.03
-15.26
-15.89
-17.88
-18.87
-15.90
-7.84
3.29
13.09
17.18
13.65
4.02
-7.78
-17.40
-22.05
-21.45
-17.40
-12.30
-7.92
-4.83
-2.87
-1.93
-2.30
-4.60
-9.05
-15.01
-20.99
-25.37
-27.52
-28.47
-30.77
-37.33
-49.61
-66.19
-82.70
-93.24
-92.87
-79.86
-56.60
-28.68
-2.70
16.28
26.52
29.79
30.05
31.23
35.53
42.89
51.69
60.03
65.75
67.01
62.19
50.40
32.16
9.76
-12.27
-27.89
-31.93
-23.14
-5.75
11.96
21.73
19.75
8.58
-4.55
-12.11
-10.58
-1.98
8.36
15.61
18.26
18.17
18.30
20.12
22.62
23.19
19.48
11.33
0.89
-8.54
-14.06
-14.62
-11.16
-5.85
-1.22
0.91
0.25
-1.74
-2.55
0.34
7.55
17.84
28.57
36.60
39.36
36.43
29.92
23.41
20.83
23.47
30.65
40.20
49.04
53.65
52.10
44.92
34.66
25.85
21.23
23.18
32.88
48.93
66.16
78.25
80.01
67.52
41.37
3.16
-42.05
-84.95
-114.79
-126.75
-123.73
-113.49
-110.10
-115.75
-131.35
-154.92
-182.74
-204.78
-214.54
-207.80
-183.33
-143.85
-86.94
-24.50
27.98
61.90
78.46
82.59
79.08
70.85
59.61
48.51
37.76
29.38
25.79
27.72
32.68
37.24
38.89
37.02
32.59
26.21
20.04
16.60
17.07
20.29
24.12
26.63
26.90
25.26
21.91
18.04
15.12
13.85
13.66
13.51
12.65
10.94
8.77
6.29
3.85
1.76
0.07
-1.47
-3.01
-4.53
-5.79
-6.56
-6.84
-6.55
-5.67
-4.19
-2.22
0.04
2.34
4.47
6.26
7.68
8.83
9.87
10.93
12.07
13.24
14.32
15.21
15.79
16.02
15.88
15.39
14.60
13.54
12.27
10.80
9.18
7.45
5.68
3.98
2.45
1.20
0.28
-0.29
-0.53
-0.53
-0.36
-0.11
0.13
0.30
0.34
0.17
-0.24
-0.94
-1.88
-2.94
-3.95
-4.74
-5.20
-5.35
-5.26
-5.05
-4.78
-4.43
-3.92
-3.18
-2.18
-0.99
0.27
1.48
2.54
3.40
4.07
4.58
4.98
5.24
5.33
5.15
4.69
3.96
3.08
2.19
1.46
1.00
0.80
0.80
0.86
0.86
0.71
0.40
-0.02
-0.49
-0.94
-1.36
-1.72
-2.07
-2.44
-2.90
-3.51
-4.35
-5.45
-6.74
-8.05
-9.14
-9.83
-10.05
-9.91
-9.61
-9.39
-9.38
-9.57
-9.83
-9.96
-9.84
-9.43
-8.79
-8.07
-7.36
-6.74
-6.18
-5.54
-4.67
-3.40
-1.67
0.48
2.89
5.31
7.51
9.32
10.69
11.72
12.61
13.54
14.66
15.94
17.25
18.37
19.07
19.23
18.80
17.87
16.57
15.03
13.35
11.64
9.96
8.41
7.02
5.81
4.70
3.63
2.57
1.53
0.57
-0.27
-1.00
-1.68
-2.37
-3.08
-3.72
-4.17
-4.32
-4.14
-3.73
-3.22
-2.73
-2.31
-1.93
-1.57
-1.19
-0.82
-0.46
-0.12
0.23
0.63
1.08
1.53
1.93
2.22
2.38
2.46
2.51
2.60
2.74
2.86
2.86
2.63
2.14
1.46
0.76
0.22
-0.05
-0.05
0.06
0.10
-0.07
-0.51
-1.15
-1.90
-2.65
-3.35
-3.96
-4.44
-4.78
-4.98
-5.13
-5.37
-5.81
-6.51
-7.39
-8.29
-9.06
-9.59
-9.93
-10.22
-10.61
-11.28
-12.28
-13.61
-15.13
-16.68
-18.06
-19.10
-19.65
-19.58
-18.80
-17.23
-14.83
-11.68
-8.00
-4.14
-0.51
2.52
4.69
5.93
6.28
5.93
5.10
4.05
2.98
2.03
1.25
0.55
-0.22
-1.21
-2.42
-3.59
-4.29
-3.95
-2.19
1.03
5.33
10.02
14.31
17.60
19.61
20.46
20.46
20.00
19.36
18.63
17.79
16.72
15.37
13.78
12.09
10.52
9.25
8.40
8.00
8.00
8.26
8.52
8.49
7.83
6.38
4.24
1.82
-0.27
-1.51
-1.65
-0.85
0.39
1.52
2.13
2.10
1.54
0.66
-0.34
-1.34
-2.19
-2.80
-3.04
-2.89
-2.43
-1.83
-1.26
-0.89
-0.75
-0.77
-0.85
-0.90
-0.87
-0.77
-0.59
-0.37
-0.12
0.11
0.23
0.16
-0.13
-0.60
-1.10
-1.45
-1.53
-1.31
-0.89
-0.45
-0.16
-0.12
-0.34
-0.75
-1.25
-1.70
-1.99
-2.01
-1.70
-1.06
-0.24
0.53
0.96
0.81
-0.01
-1.41
-3.11
-4.73
-5.96
-6.62
-6.71
-6.43
-5.99
-5.58
-5.24
-4.93
-4.58
-4.13
-3.59
-3.01
-2.43
-1.83
-1.12
-0.27
0.73
1.75
2.61
3.14
3.27
3.05
2.67
2.34
2.22
2.34
2.59
2.79
2.79
2.53
2.05
1.50
1.03
0.78
0.81
1.07
1.50
1.94
2.26
2.34
2.09
1.52
0.68
-0.31
-1.32
-2.23
-2.95
-3.50
-3.89
-4.19
-4.44
-4.64
-4.72
-4.62
-4.30
-3.77
-3.12
-2.45
-1.82
-1.19
-0.52
0.24
1.05
1.82
2.42
2.71
2.70
2.46
2.15
1.92
1.81
1.82
1.82
1.73
1.50
1.17
0.82
0.51
0.25
0.06
-0.09
-0.17
-0.14
0.02
0.26
0.49
0.57
0.43
0.10
-0.32
-0.73
-1.00
-1.11
-1.14
-1.19
-1.41
-1.87
-2.54
-3.27
-3.84
-4.04
-3.81
-3.18
-2.35
-1.51
-0.82
-0.35
-0.08
0.09
0.26
0.50
0.81
1.14
1.36
1.31
0.90
0.11
-0.93
-2.00
-2.83
-3.23
-3.10
-2.56
-1.80
-1.07
-0.52
-0.21
-0.07
0.03
0.21
0.49
0.85
1.18
1.42
1.50
1.43
1.22
0.92
0.59
0.29
0.08
-0.00
0.03
0.09
0.09
-0.08
-0.48
-1.07
-1.72
-2.26
-2.54
-2.48
-2.13
-1.65
-1.16
-0.74
-0.34
0.13
0.76
1.55
2.38
3.09
3.56
3.73
3.68
3.54
3.41
3.37
3.43
3.55
3.69
3.82
3.92
3.98
3.99
3.91
3.71
3.34
2.80
2.09
1.24
0.33
-0.56
-1.32
-1.89
-2.26
-2.49
-2.71
-3.01
-3.44
-3.93
-4.43
-4.83
-5.12
-5.34
-5.54
-5.79
-6.09
-6.42
-6.72
-6.90
-6.91
-6.70
-6.24
-5.54
-4.65
-3.68
-2.72
-1.84
-1.04
-0.27
0.55
1.48
2.49
3.46
4.21
4.60
4.57
4.20
3.65
3.09
2.62
2.23
1.86
1.42
0.94
0.50
0.24
0.24
0.53
0.99
1.45
1.71
1.66
1.29
0.71
0.10
-0.37
-0.61
-0.63
-0.56
-0.53
-0.67
-1.01
-1.52
-2.11
-2.68
-3.16
-3.47
-3.59
-3.54
-3.35
-3.04
-2.65
-2.19
-1.64
-1.03
-0.37
0.30
0.90
1.39
1.72
1.91
2.01
2.07
2.13
2.20
2.19
2.02
1.60
0.96
0.18
-0.60
-1.27
-1.78
-2.19
-2.53
-2.84
-3.07
-3.12
-2.98
-2.66
-2.25
-1.83
-1.41
-0.96
-0.44
0.09
0.52
0.68
0.48
-0.09
-0.89
-1.76
-2.49
-3.00
-3.27
-3.37
-3.42
-3.46
-3.48
-3.43
-3.20
-2.74
-2.09
-1.39
-0.78
-0.38
-0.14
0.08
0.49
1.23
2.36
3.78
5.29
6.68
7.75
8.41
8.62
8.42
7.89
7.13
6.24
5.34
4.57
4.03
3.77
3.74
3.82
3.83
3.64
3.25
2.78
2.44
2.38
2.60
2.91
2.98
2.45
1.06
-1.19
-4.04
-7.05
-9.67
-11.42
-12.02
-11.47
-10.02
-8.11
-6.22
-4.73
-3.83
-3.48
-3.46
-3.49
-3.29
-2.72
-1.75
-0.47
0.98
2.41
3.65
4.52
4.88
4.70
4.10
3.33
2.69
2.40
2.52
2.91
3.34
3.55
3.43
3.01
2.40
1.77
1.26
0.94
0.82
0.89
1.11
1.40
1.68
1.90
2.02
2.05
2.05
2.09
2.21
2.35
2.39
2.19
1.70
0.98
0.19
-0.47
-0.87
-0.96
-0.83
-0.63
-0.50
-0.56
-0.86
-1.42
-2.21
-3.15
-4.12
-4.96
-5.53
-5.71
-5.46
-4.84
-3.95
-3.01
-2.18
-1.59
-1.24
-1.01
-0.70
-0.16
0.63
1.56
2.45
3.12
3.50
3.62
3.62
3.62
3.73
3.97
4.32
4.73
5.12
5.41
5.51
5.33
4.89
4.28
3.67
3.27
3.17
3.36
3.67
3.85
3.72
3.21
2.42
1.55
0.81
0.32
0.08
-0.02
-0.10
-0.26
-0.50
-0.81
-1.10
-1.32
-1.44
-1.48
-1.50
-1.59
-1.81
-2.26
-2.98
-3.93
-5.00
-5.99
-6.66
-6.82
-6.42
-5.58
-4.52
-3.49
-2.62
-1.92
-1.30
-0.68
-0.02
0.63
1.21
1.66
2.00
2.25
2.45
2.60
2.65
2.57
2.36
2.07
1.78
1.55
1.39
1.29
1.20
1.06
0.86
0.60
0.29
-0.01
-0.26
-0.37
-0.34
-0.21
-0.07
-0.08
-0.30
-0.73
-1.23
-1.63
-1.79
-1.73
-1.59
-1.56
-1.78
-2.27
-2.93
-3.59
-4.15
-4.55
-4.80
-4.87
-4.75
-4.40
-3.83
-3.09
-2.27
-1.43
-0.60
0.19
0.95
1.60
2.08
2.35
2.46
2.50
2.61
2.85
3.21
3.61
3.94
4.15
4.18
4.07
3.86
3.64
3.46
3.38
3.37
3.39
3.37
3.27
3.06
2.75
2.37
1.94
1.51
1.13
0.81
0.54
0.30
0.00
-0.39
-0.89
-1.45
-1.98
-2.43
-2.80
-3.13
-3.49
-3.90
-4.35
-4.78
-5.16
-5.49
-5.77
-5.98
-6.06
-5.89
-5.43
-4.68
-3.74
-2.77
-1.87
-1.05
-0.26
0.56
1.40
2.13
2.60
2.73
2.60
2.40
2.33
2.51
2.90
3.33
3.61
3.66
3.47
3.16
2.85
2.60
2.43
2.31
2.22
2.15
2.11
2.11
2.11
2.04
1.86
1.55
1.14
0.70
0.30
0.02
-0.14
-0.22
-0.29
-0.41
-0.63
-0.92
-1.23
-1.52
-1.76
-1.98
-2.22
-2.53
-2.94
-3.45
-4.03
-4.63
-5.14
-5.44
-5.44
-5.09
-4.45
-3.67
-2.94
-2.35
-1.92
-1.51
-1.00
-0.31
0.49
1.27
1.90
2.37
2.72
3.02
3.28
3.40
3.26
2.83
2.21
1.60
1.19
1.09
1.23
1.43
1.56
1.52
1.38
1.21
1.08
1.02
0.99
0.95
0.89
0.85
0.83
0.83
0.78
0.63
0.34
-0.08
-0.53
-0.89
-1.09
-1.13
-1.09
-1.09
-1.21
-1.44
-1.71
-1.94
-2.10
-2.24
-2.47
-2.86
-3.40
-3.99
-4.42
-4.56
-4.35
-3.86
-3.25
-2.63
-2.07
-1.51
-0.85
-0.05
0.88
1.83
2.66
3.29
3.72
3.99
4.14
4.18
4.04
3.68
3.13
2.51
2.00
1.75
1.79
2.01
2.24
2.32
2.18
1.90
1.60
1.39
1.31
1.33
1.36
1.31
1.11
0.77
0.32
-0.17
-0.63
-1.00
-1.26
-1.44
-1.59
-1.77
-2.00
-2.27
-2.51
-2.69
-2.82
-2.97
-3.20
-3.55
-4.02
-4.51
-4.90
-5.03
-4.79
-4.17
-3.25
-2.21
-1.23
-0.48
-0.00
0.28
0.53
0.89
1.40
2.01
2.58
2.99
3.16
3.08
2.83
2.49
2.17
1.94
1.86
1.94
2.10
2.24
2.26
2.10
1.76
1.31
0.87
0.49
0.24
0.14
0.18
0.38
0.69
1.03
1.29
1.30
0.98
0.35
-0.46
-1.26
-1.86
-2.17
-2.18
-1.99
-1.75
-1.61
-1.67
-1.99
-2.57
-3.39
-4.38
-5.41
-6.35
-7.04
-7.33
-7.12
-6.40
-5.23
-3.74
-2.13
-0.58
0.75
1.77
2.44
2.78
2.85
2.73
2.50
2.27
2.13
2.15
2.36
2.73
3.20
3.69
4.11
4.42
4.58
4.59
4.45
4.18
3.78
3.29
2.77
2.31
2.01
1.95
2.12
2.40
2.61
2.55
2.15
1.48
0.75
0.21
-0.01
0.08
0.33
0.59
0.77
0.87
0.97
1.14
1.40
1.72
2.03
2.22
2.13
1.56
0.30
-1.71
-4.32
-7.17
-9.73
-11.58
-12.57
-12.84
-12.74
-12.63
-12.72
-13.00
-13.31
-13.49
-13.46
-13.18
-12.65
-11.80
-10.54
-8.76
-6.41
-3.52
-0.17
3.51
7.37
11.15
14.53
17.13
18.61
18.77
17.64
15.47
12.63
9.52
6.51
3.88
1.84
0.53
-0.01
0.16
0.85
1.77
2.61
3.10
3.08
2.54
1.58
0.36
-0.96
-2.27
-3.50
-4.67
-5.76
-6.75
-7.56
-8.07
-8.22
-8.00
-7.51
-6.86
-6.18
-5.49
-4.71
-3.75
-2.55
-1.15
0.33
1.70
2.84
3.70
4.29
4.67
4.84
4.79
4.54
4.12
3.66
3.31
3.18
3.27
3.46
3.61
3.59
3.36
2.93
2.39
1.80
1.23
0.74
0.36
0.10
-0.07
-0.21
-0.37
-0.62
-0.96
-1.36
-1.78
-2.17
-2.52
-2.82
-3.13
-3.46
-3.85
-4.31
-4.82
-5.34
-5.79
-6.10
-6.20
-6.04
-5.57
-4.82
-3.83
-2.68
-1.47
-0.29
0.78
1.68
2.36
2.82
3.05
3.09
2.99
2.83
2.65
2.48
2.31
2.13
1.98
1.92
2.02
2.32
2.77
3.24
3.62
3.79
3.72
3.46
3.11
2.72
2.37
2.06
1.78
1.55
1.36
1.19
1.01
0.74
0.34
-0.16
-0.68
-1.13
-1.45
-1.68
-1.94
-2.35
-2.99
-3.81
-4.64
-5.32
-5.74
-5.86
-5.74
-5.44
-4.97
-4.33
-3.51
-2.55
-1.58
-0.72
-0.06
0.42
0.86
1.41
2.16
3.06
3.91
4.49
4.67
4.49
4.16
3.91
3.94
4.19
4.52
4.72
4.66
4.39
4.03
3.72
3.48
3.28
3.01
2.67
2.32
2.01
1.78
1.56
1.21
0.68
0.02
-0.64
-1.13
-1.39
-1.54
-1.75
-2.19
-2.89
-3.73
-4.58
-5.29
-5.81
-6.12
-6.17
-5.89
-5.20
-4.14
-2.85
-1.58
-0.50
0.32
1.01
1.72
2.54
3.40
4.13
4.57
4.71
4.69
4.78
5.19
5.97
6.94
7.84
8.41
8.55
8.30
7.83
7.29
6.78
6.30
5.83
5.35
4.87
4.42
4.00
3.57
3.04
2.31
1.35
0.24
-0.94
-2.07
-3.17
-4.31
-5.60
-7.08
-8.65
-10.11
-11.20
-11.74
-11.74
-11.37
-10.89
-10.48
-10.20
-9.90
-9.36
-8.40
-6.95
-5.07
-2.94
-0.79
1.19
2.78
3.83
4.24
3.97
3.11
1.85
0.44
-0.84
-1.79
-2.25
-2.15
-1.51
-0.41
1.01
2.54
3.96
5.12
5.93
6.42
6.65
6.73
6.71
6.64
6.48
6.13
5.41
4.16
2.24
-0.34
-3.44
-6.83
-10.27
-13.62
-16.84
-19.94
-22.85
-25.42
-27.39
-28.57
-28.94
-28.70
-28.27
-28.11
-28.65
-30.10
-32.44
-35.35
-38.25
-40.30
-40.51
-37.97
-32.08
-22.87
-11.12
1.76
14.10
24.48
32.03
36.70
38.97
39.63
39.35
38.57
37.48
36.20
34.93
33.90
33.30
33.08
32.94
32.42
31.15
29.05
26.33
23.48
20.93
18.94
17.48
16.28
15.01
13.48
11.66
9.71
7.89
6.40
5.35
4.68
4.26
3.88
3.38
2.71
1.94
1.19
0.59
0.15
-0.20
-0.54
-0.93
-1.33
-1.65
-1.81
-1.81
-1.75
-1.78
-2.01
-2.46
-3.03
-3.60
-4.03
-4.29
-4.42
-4.50
-4.65
-4.93
-5.32
-5.77
-6.19
-6.51
-6.74
-6.91
-7.03
-7.10
-7.05
-6.75
-6.11
-5.09
-3.74
-2.19
-0.61
0.84
2.03
2.89
3.42
3.66
3.71
3.72
3.75
3.82
3.84
3.70
3.35
2.84
2.32
1.98
1.91
2.12
2.47
2.80
3.00
2.99
2.79
2.46
2.08
1.73
1.45
1.27
1.16
1.05
0.87
0.57
0.13
-0.39
-0.90
-1.34
-1.64
-1.77
-1.78
-1.74
-1.76
-1.93
-2.26
-2.65
-2.96
-3.07
-2.98
-2.86
-2.91
-3.31
-4.13
-5.25
-6.46
-7.50
-8.15
-8.29
-7.95
-7.22
-6.27
-5.28
-4.34
-3.45
-2.53
-1.45
-0.18
1.20
2.51
3.53
4.13
4.30
4.13
3.76
3.33
2.88
2.45
2.06
1.76
1.60
1.58
1.61
1.58
1.36
0.97
0.51
0.15
0.01
0.08
0.21
0.21
-0.01
-0.40
-0.80
-1.10
-1.27
-1.42
-1.72
-2.25
-2.98
-3.75
-4.38
-4.78
-4.96
-5.01
-5.05
-5.15
-5.30
-5.45
-5.53
-5.48
-5.31
-5.01
-4.64
-4.22
-3.76
-3.20
-2.53
-1.73
-0.86
-0.01
0.72
1.28
1.69
2.01
2.34
2.72
3.17
3.64
4.09
4.50
4.84
5.10
5.23
5.20
5.00
4.65
4.21
3.75
3.37
3.07
2.86
2.71
2.57
2.40
2.17
1.89
1.61
1.40
1.31
1.33
1.37
1.32
1.06
0.55
-0.16
-0.97
-1.73
-2.37
-2.82
-3.11
-3.27
-3.34
-3.34
-3.33
-3.35
-3.47
-3.76
-4.27
-4.96
-5.73
-6.38
-6.65
-6.35
-5.44
-4.06
-2.51
-1.13
-0.19
0.25
0.30
0.17
0.11
0.31
0.83
1.60
2.51
3.40
4.12
4.57
4.70
4.55
4.20
3.80
3.45
3.23
3.17
3.19
3.20
3.09
2.79
2.28
1.59
0.79
-0.05
-0.83
-1.47
-1.92
-2.14
-2.16
-2.04
-1.90
-1.86
-1.98
-2.21
-2.45
-2.61
-2.62
-2.50
-2.31
-2.13
-2.00
-1.95
-1.99
-2.19
-2.55
-3.09
-3.76
-4.45
-5.01
-5.31
-5.26
-4.85
-4.11
-3.14
-2.10
-1.13
-0.35
0.21
0.61
0.98
1.49
2.22
3.17
4.20
5.12
5.75
5.97
5.80
5.41
4.97
4.62
4.43
4.34
4.30
4.26
4.22
4.21
4.20
4.11
3.84
3.33
2.62
1.90
1.35
1.09
1.10
1.23
1.26
1.04
0.56
-0.08
-0.72
-1.20
-1.49
-1.62
-1.72
-1.91
-2.27
-2.82
-3.49
-4.15
-4.67
-5.02
-5.21
-5.37
-5.61
-5.99
-6.44
-6.82
-6.98
-6.84
-6.41
-5.78
-5.01
-4.14
-3.15
-2.03
-0.84
0.30
1.24
1.92
2.36
2.72
3.13
3.64
4.18
4.60
4.74
4.59
4.23
3.78
3.39
3.10
2.88
2.72
2.61
2.58
2.65
2.78
2.87
2.85
2.66
2.30
1.85
1.39
1.01
0.74
0.59
0.54
0.54
0.55
0.51
0.34
0.02
-0.47
-1.10
-1.82
-2.54
-3.18
-3.70
-4.08
-4.37
-4.63
-5.00
-5.54
-6.28
-7.16
-8.05
-8.77
-9.16
-9.15
-8.74
-8.04
-7.18
-6.34
-5.58
-4.94
-4.34
-3.74
-3.10
-2.45
-1.84
-1.35
-1.08
-1.08
-1.33
-1.70
-1.89
-1.49
-0.18
2.16
5.30
8.74
11.86
14.19
15.54
15.99
15.79
15.13
14.14
12.83
11.27
9.57
7.94
6.61
5.68
5.11
4.71
4.23
3.52
2.56
1.48
0.48
-0.29
-0.80
-1.15
-1.45
-1.75
-2.02
-2.21
-2.31
-2.38
-2.58
-3.05
-3.79
-4.74
-5.66
-6.32
-6.52
-6.19
-5.37
-4.21
-2.94
-1.76
-0.82
-0.16
0.28
0.56
0.75
0.87
0.94
0.97
0.99
1.04
1.09
1.14
1.15
1.15
1.19
1.29
1.45
1.60
1.67
1.59
1.35
1.02
0.66
0.31
-0.03
-0.37
-0.71
-1.02
-1.22
-1.29
-1.23
-1.14
-1.13
-1.29
-1.64
-2.15
-2.74
-3.36
-3.96
-4.55
-5.13
-5.66
-6.12
-6.41
-6.43
-6.12
-5.48
-4.58
-3.59
-2.68
-1.99
-1.53
-1.19
-0.81
-0.24
0.56
1.48
2.31
2.84
3.01
2.85
2.58
2.38
2.40
2.62
2.91
3.10
3.08
2.84
2.46
2.06
1.68
1.36
1.07
0.82
0.63
0.52
0.47
0.42
0.34
0.21
0.11
0.09
0.16
0.21
0.06
-0.40
-1.15
-1.97
-2.63
-2.91
-2.80
-2.42
-1.93
-1.47
-1.02
-0.52
0.11
0.86
1.64
2.30
2.75
2.94
2.91
2.74
2.50
2.25
2.01
1.81
1.66
1.59
1.59
1.62
1.59
1.44
1.19
0.92
0.78
0.90
1.32
1.97
2.65
3.16
3.32
3.08
2.51
1.74
0.95
0.32
-0.06
-0.16
-0.08
0.00
-0.09
-0.47
-1.09
-1.80
-2.41
-2.82
-3.05
-3.24
-3.48
-3.80
-4.16
-4.49
-4.74
-4.94
-5.12
-5.25
-5.19
-4.82
-4.06
-3.00
-1.83
-0.75
0.13
0.86
1.54
2.28
3.06
3.79
4.37
4.76
5.03
5.29
5.61
5.94
6.19
6.22
5.95
5.38
4.62
3.79
3.02
2.37
1.88
1.48
1.09
0.65
0.12
-0.44
-0.93
-1.26
-1.36
-1.29
-1.18
-1.20
-1.43
-1.85
-2.30
-2.62
-2.68
-2.46
-2.07
-1.69
-1.50
-1.65
-2.11
-2.76
-3.42
-3.90
-4.11
-4.09
-3.95
-3.85
-3.90
-4.18
-4.63
-5.15
-5.56
-5.70
-5.44
-4.72
-3.62
-2.33
-1.08
-0.07
0.64
1.09
1.42
1.75
2.13
2.51
2.82
3.00
3.09
3.17
3.31
3.50
3.66
3.73
3.66
3.50
3.34
3.25
3.30
3.50
3.79
4.10
4.31
4.32
4.07
3.59
2.98
2.39
1.95
1.67
1.49
1.27
0.93
0.49
0.05
-0.31
-0.53
-0.65
-0.74
-0.85
-0.99
-1.15
-1.32
-1.53
-1.81
-2.15
-2.51
-2.79
-2.97
-3.10
-3.30
-3.72
-4.42
-5.32
-6.21
-6.85
-7.05
-6.74
-6.01
-5.06
-4.12
-3.34
-2.76
-2.31
-1.84
-1.24
-0.42
0.63
1.84
3.06
4.13
4.92
5.34
5.39
5.17
4.81
4.44
4.14
3.89
3.67
3.45
3.24
3.05
2.91
2.79
2.64
2.40
2.08
1.76
1.59
1.69
2.07
2.60
3.06
3.21
2.95
2.34
1.59
0.96
0.59
0.52
0.63
0.78
0.82
0.70
0.43
0.09
-0.26
-0.58
-0.85
-1.09
-1.33
-1.58
-1.84
-2.12
-2.45
-2.86
-3.43
-4.14
-4.90
-5.51
-5.75
-5.51
-4.82
-3.86
-2.86
-1.99
-1.30
-0.76
-0.32
-0.02
0.08
-0.12
-0.58
-1.19
-1.77
-2.16
-2.28
-2.11
-1.72
-1.21
-0.62
-0.02
0.59
1.17
1.69
2.10
2.38
2.48
2.36
2.01
1.46
0.82
0.25
-0.08
-0.09
0.17
0.53
0.77
0.72
0.34
-0.25
-0.85
-1.27
-1.42
-1.32
-1.10
-0.94
-0.96
-1.23
-1.72
-2.34
-2.98
-3.55
-4.01
-4.37
-4.67
-4.93
-5.16
-5.36
-5.53
-5.66
-5.73
-5.69
-5.43
-4.87
-3.96
-2.78
-1.53
-0.40
0.44
0.98
1.29
1.54
1.81
2.13
2.44
2.70
2.91
3.13
3.45
3.87
4.32
4.66
4.80
4.72
4.47
4.14
3.77
3.38
2.96
2.55
2.25
2.12
2.19
2.40
2.66
2.82
2.83
2.64
2.27
1.76
1.16
0.54
0.00
-0.37
-0.53
-0.52
-0.44
-0.39
-0.46
-0.66
-0.96
-1.30
-1.62
-1.91
-2.17
-2.46
-2.81
-3.28
-3.86
-4.49
-5.12
-5.70
-6.22
-6.65
-6.99
-7.13
-6.99
-6.49
-5.65
-4.60
-3.51
-2.51
-1.65
-0.87
-0.10
0.70
1.48
2.17
2.76
3.28
3.77
4.27
4.69
4.92
4.88
4.59
4.19
3.88
3.84
4.12
4.64
5.23
5.71
5.91
5.74
5.20
4.34
3.30
2.24
1.32
0.64
0.25
0.15
0.28
0.56
0.84
0.96
0.79
0.32
-0.33
-0.94
-1.29
-1.33
-1.16
-1.01
-1.10
-1.48
-2.05
-2.61
-3.02
-3.26
-3.40
-3.58
-3.87
-4.27
-4.72
-5.16
-5.56
-5.91
-6.17
-6.27
-6.10
-5.62
-4.87
-3.97
-3.02
-2.12
-1.25
-0.38
0.56
1.59
2.58
3.38
3.83
3.94
3.87
3.86
4.19
5.01
6.26
7.60
8.56
8.83
8.35
7.39
6.31
5.55
5.47
6.12
7.18
8.09
8.42
8.05
7.12
5.96
5.01
4.79
5.53
6.86
8.00
8.25
7.28
5.30
2.89
0.97
0.68
2.81
7.24
12.94
18.33
21.47
20.11
11.68
-6.54
-33.95
-65.10
-92.06
-108.58
-112.11
-103.46
-85.52
-62.28
-37.70
-15.00
3.09
14.33
17.52
12.83
2.50
-9.08
-16.87
-16.90
-7.46
10.14
32.13
53.89
72.13
82.75
83.81
75.41
59.77
40.70
22.60
9.21
2.59
3.15
9.33
18.51
27.82
35.20
39.76
41.50
40.87
35.88
26.85
16.22
6.99
0.58
-3.36
-6.04
-8.54
-11.37
-14.36
-16.64
-17.72
-17.60
-16.82
-15.55
-13.57
-10.55
-6.47
-2.03
1.69
3.29
1.81
-2.73
-9.22
-16.17
-22.52
-27.90
-32.53
-36.79
-41.12
-45.70
-50.44
-54.96
-58.91
-62.00
-64.01
-64.78
-64.21
-62.34
-59.39
-55.62
-51.15
-45.99
-39.99
-33.07
-25.35
-17.12
-8.82
-0.93
6.01
11.46
15.03
16.63
16.60
15.60
14.46
13.98
14.80
17.24
21.26
26.48
32.28
37.93
42.71
46.10
47.98
48.80
49.12
49.32
49.42
49.30
48.85
48.19
47.63
47.59
48.67
50.86
53.29
54.65
54.05
51.56
48.15
45.26
44.13
45.83
50.03
54.91
58.04
57.80
54.20
48.75
43.78
41.50
43.87
51.11
61.30
71.04
76.94
76.51
68.29
51.73
22.89
-17.00
-60.73
-98.97
-126.07
-141.66
-148.64
-150.76
-151.00
-150.43
-147.13
-137.52
-118.73
-90.60
-56.08
-20.69
9.22
29.21
38.69
40.15
37.86
35.33
33.90
33.48
33.71
34.55
36.26
38.98
42.14
44.41
43.44
36.89
24.38
8.32
-6.85
-15.91
-14.81
-2.09
21.53
53.87
88.12
116.29
133.85
141.48
142.66
143.01
142.04
137.11
125.19
104.35
75.25
40.87
6.53
-22.83
-44.00
-56.48
-61.08
-59.75
-55.26
-50.65
-49.37
-55.57
-72.76
-101.93
-141.18
-185.33
-228.34
-264.50
-289.21
-299.13
-293.35
-273.13
-241.93
-205.93
-172.67
-149.05
-137.89
-136.32
-136.54
-130.92
-115.54
-92.06
-67.27
-49.02
-41.51
-41.90
-41.59
-26.49
9.55
61.23
115.64
162.17
198.32
225.15
245.30
255.84
253.84
237.55
209.48
177.01
148.21
126.95
110.85
93.78
70.16
39.83
8.20
-17.01
-25.68
-14.23
9.34
30.41
38.08
30.20
12.21
-8.14
-24.37
-32.22
-30.12
-18.80
-0.92
19.12
35.44
43.15
40.82
31.85
22.54
17.45
16.60
14.65
6.59
-9.16
-28.81
-44.72
-49.60
-40.69
-21.92
-1.82
10.88
12.20
3.91
-8.21
-17.79
-21.22
-19.03
-14.79
-12.75
-15.31
-21.69
-28.34
-31.40
-27.85
-17.53
-2.19
16.10
35.94
56.22
75.10
89.15
93.96
86.33
66.44
38.89
11.09
-9.98
-20.76
-22.14
-18.13
-13.09
-9.26
-6.41
-3.04
1.59
6.34
8.85
7.39
2.30
-4.06
-8.73
-10.07
-8.74
-7.25
-8.57
-14.35
-23.89
-34.64
-43.72
-49.17
-50.47
-48.32
-43.98
-39.50
-36.27
-35.51
-38.11
-44.07
-52.18
-60.20
-65.78
-67.67
-66.45
-64.59
-64.87
-69.60
-79.58
-93.53
-108.00
-117.95
-118.08
-103.13
-74.06
-35.83
3.87
37.37
59.88
70.96
73.82
73.02
72.81
73.63
74.77
75.29
74.97
74.54
75.10
77.24
80.63
84.29
86.88
88.24
89.21
90.95
93.94
97.17
98.11
93.68
81.79
62.41
38.30
13.79
-6.96
-21.44
-29.41
-32.36
-32.46
-31.48
-30.43
-29.45
-28.40
-27.28
-26.20
-25.28
-24.49
-23.65
-22.49
-20.82
-18.60
-16.00
-13.36
-11.03
-9.27
-8.10
-7.29
-6.37
-4.80
-2.15
1.75
6.72
12.36
18.14
23.49
27.74
30.02
29.20
24.23
14.65
1.08
-14.62
-29.85
-42.05
-49.65
-52.50
-51.68
-48.84
-45.44
-42.25
-39.38
-36.60
-33.76
-30.97
-28.54
-26.76
-25.80
-25.62
-26.04
-26.74
-27.27
-27.05
-25.46
-22.11
-17.07
-10.89
-4.51
1.26
6.00
9.94
13.70
17.82
22.42
26.98
30.68
32.72
32.80
31.23
28.74
26.18
24.12
22.75
21.95
21.47
21.10
20.78
20.52
20.36
20.24
20.02
19.48
18.51
17.12
15.47
13.80
12.36
11.33
10.81
10.75
11.02
11.44
11.81
11.82
11.25
10.04
8.57
7.44
7.22
8.13
10.00
12.30
14.16
14.93
14.51
13.70
13.69
15.11
17.52
19.49
19.20
15.06
6.79
-4.49
-16.07
-25.00
-29.34
-28.52
-22.91
-13.32
-1.24
11.33
21.26
25.23
19.92
2.86
-26.64
-65.81
-106.61
-139.17
-157.85
-164.92
-165.87
-164.13
-158.29
-143.43
-114.76
-71.60
-21.18
29.50
72.58
103.19
120.42
126.51
124.96
118.71
109.38
97.42
83.68
67.59
51.47
38.05
28.85
23.68
21.11
19.27
16.43
12.00
6.01
-0.36
-5.81
-9.57
-11.58
-12.52
-13.42
-15.28
-17.59
-18.84
-16.86
-10.64
-1.22
8.46
14.55
13.67
4.05
-13.03
-33.93
-53.67
-67.80
-73.31
-68.91
-54.79
-31.01
-1.32
27.82
49.77
60.70
60.23
50.56
35.58
19.82
7.95
1.04
-1.04
0.73
4.86
9.80
14.46
18.56
22.53
26.31
29.73
32.93
36.11
39.29
42.24
44.71
46.74
48.76
51.30
54.50
58.17
61.46
62.92
60.97
54.46
43.23
28.14
10.59
-8.06
-26.73
-45.03
-63.26
-82.43
-103.77
-128.21
-155.48
-183.39
-207.42
-221.32
-218.97
-196.76
-155.81
-102.33
-46.15
2.47
36.31
53.23
56.14
50.87
43.36
37.52
34.70
34.43
35.79
38.31
41.99
46.65
51.37
54.58
54.67
50.93
44.03
35.88
28.87
24.79
24.20
26.25
29.21
31.21
30.98
28.30
23.89
19.03
14.97
12.42
11.38
11.22
11.08
10.23
8.39
5.79
2.98
0.52
-1.20
-2.21
-2.77
-3.26
-3.92
-4.77
-5.59
-6.09
-6.07
-5.49
-4.48
-3.28
-2.13
-1.17
-0.40
0.24
0.83
1.44
2.04
2.57
2.99
3.26
3.44
3.55
3.65
3.73
3.77
3.76
3.69
3.60
3.53
3.54
3.61
3.70
3.78
3.75
3.56
3.17
2.59
1.87
1.15
0.52
0.07
-0.22
-0.41
-0.61
-0.94
-1.46
-2.22
-3.21
-4.38
-5.61
-6.76
-7.69
-8.26
-8.46
-8.31
-7.96
-7.51
-7.04
-6.53
-5.91
-5.12
-4.13
-2.98
-1.79
-0.67
0.32
1.12
1.77
2.27
2.64
2.88
3.01
3.03
2.93
2.73
2.44
2.09
1.75
1.52
1.45
1.50
1.56
1.45
1.04
0.31
-0.57
-1.42
-2.05
-2.41
-2.60
-2.77
-3.03
-3.35
-3.61
-3.66
-3.43
-3.01
-2.52
-2.15
-1.93
-1.84
-1.80
-1.74
-1.62
-1.46
-1.27
-1.05
-0.80
-0.53
-0.28
-0.02
0.31
0.84
1.69
2.91
4.37
5.86
7.12
7.96
8.29
8.15
7.59
6.68
5.46
4.05
2.60
1.29
0.27
-0.38
-0.70
-0.77
-0.69
-0.52
-0.32
-0.16
-0.13
-0.29
-0.65
-1.10
-1.47
-1.62
-1.49
-1.13
-0.70
-0.34
-0.12
0.01
0.13
0.34
0.67
1.05
1.39
1.54
1.43
1.06
0.49
-0.14
-0.68
-1.03
-1.14
-1.09
-1.02
-1.10
-1.50
-2.29
-3.41
-4.62
-5.60
-6.05
-5.77
-4.81
-3.39
-1.81
-0.36
0.80
1.71
2.51
3.37
4.38
5.49
6.51
7.16
7.19
6.44
4.97
2.94
0.66
-1.57
-3.50
-4.96
-5.83
-6.05
-5.63
-4.69
-3.46
-2.21
-1.23
-0.69
-0.65
-1.02
-1.63
-2.27
-2.76
-3.00
-2.96
-2.70
-2.35
-2.03
-1.84
-1.79
-1.83
-1.86
-1.86
-1.86
-1.95
-2.20
-2.57
-2.93
-3.13
-3.08
-2.85
-2.65
-2.73
-3.24
-4.16
-5.33
-6.51
-7.51
-8.24
-8.71
-8.94
-8.93
-8.67
-8.13
-7.31
-6.29
-5.16
-4.00
-2.83
-1.64
-0.40
0.89
2.21
3.48
4.64
5.56
6.13
6.28
6.00
5.41
4.70
4.09
3.74
3.65
3.74
3.86
3.90
3.84
3.70
3.53
3.37
3.23
3.11
3.05
3.07
3.17
3.27
3.28
3.09
2.71
2.19
1.67
1.25
1.02
0.97
1.03
1.12
1.11
0.95
0.60
0.06
-0.59
-1.24
-1.79
-2.12
-2.20
-2.08
-1.88
-1.74
-1.79
-2.07
-2.50
-2.93
-3.17
-3.13
-2.87
-2.53
-2.31
-2.33
-2.59
-2.96
-3.28
-3.40
-3.26
-2.92
-2.47
-1.99
-1.53
-1.06
-0.56
-0.07
0.33
0.54
0.49
0.24
-0.05
-0.22
-0.11
0.25
0.76
1.22
1.53
1.66
1.70
1.76
1.92
2.15
2.37
2.51
2.51
2.41
2.33
2.35
2.52
2.78
3.02
3.13
3.04
2.76
2.33
1.80
1.24
0.66
0.14
-0.27
-0.51
-0.55
-0.45
-0.27
-0.07
0.11
0.30
0.54
0.87
1.30
1.85
2.51
3.25
4.04
4.81
5.47
5.91
6.09
6.02
5.79
5.50
5.22
4.99
4.78
4.57
4.36
4.16
4.01
3.90
3.81
3.69
3.52
3.29
3.03
2.77
2.53
2.29
2.02
1.68
1.25
0.77
0.31
-0.06
-0.27
-0.32
-0.27
-0.20
-0.24
-0.46
-0.87
-1.40
-1.92
-2.37
-2.72
-3.05
-3.42
-3.87
-4.36
-4.81
-5.16
-5.39
-5.57
-5.76
-6.01
-6.29
-6.56
-6.80
-6.99
-7.16
-7.28
-7.28
-7.06
-6.56
-5.78
-4.80
-3.74
-2.72
-1.83
-1.10
-0.51
-0.04
0.39
0.80
1.22
1.62
1.96
2.17
2.25
2.25
2.24
2.29
2.41
2.58
2.75
2.86
2.90
2.85
2.72
2.56
2.38
2.24
2.21
2.27
2.41
2.54
2.57
2.44
2.15
1.77
1.42
1.17
1.00
0.85
0.62
0.27
-0.20
-0.68
-1.07
-1.30
-1.38
-1.35
-1.32
-1.37
-1.55
-1.84
-2.16
-2.45
-2.67
-2.86
-3.09
-3.41
-3.80
-4.18
-4.39
-4.31
-3.91
-3.29
-2.59
-1.97
-1.49
-1.18
-0.99
-0.89
-0.83
-0.78
-0.71
-0.57
-0.38
-0.16
0.05
0.20
0.29
0.34
0.41
0.54
0.74
0.99
1.23
1.41
1.49
1.44
1.29
1.07
0.83
0.62
0.45
0.31
0.14
-0.09
-0.39
-0.73
-1.04
-1.24
-1.27
-1.15
-0.93
-0.75
-0.70
-0.85
-1.12
-1.43
-1.67
-1.78
-1.82
-1.89
-2.07
-2.35
-2.66
-2.86
-2.87
-2.66
-2.25
-1.70
-1.07
-0.40
0.24
0.79
1.18
1.39
1.45
1.41
1.38
1.41
1.51
1.69
1.92
2.17
2.41
2.58
2.62
2.50
2.22
1.87
1.55
1.37
1.36
1.49
1.66
1.80
1.81
1.69
1.44
1.09
0.69
0.28
-0.11
-0.45
-0.71
-0.91
-1.07
-1.22
-1.38
-1.59
-1.85
-2.14
-2.44
-2.73
-2.98
-3.20
-3.37
-3.49
-3.49
-3.34
-2.97
-2.36
-1.55
-0.63
0.30
1.15
1.87
2.43
2.83
3.07
3.17
3.13
3.00
2.82
2.64
2.47
2.34
2.23
2.14
2.06
1.98
1.87
1.73
1.56
1.38
1.24
1.18
1.22
1.30
1.34
1.25
0.99
0.54
-0.00
-0.56
-1.03
-1.40
-1.66
-1.80
-1.81
-1.63
-1.25
-0.70
-0.12
0.30
0.44
0.26
-0.14
-0.60
-0.98
-1.25
-1.47
-1.73
-2.09
-2.55
-3.00
-3.33
-3.50
-3.50
-3.41
-3.25
-3.01
-2.61
-1.99
-1.14
-0.22
0.58
1.08
1.21
1.03
0.73
0.49
0.41
0.54
0.80
1.11
1.42
1.68
1.88
2.06
2.22
2.37
2.51
2.63
2.69
2.68
2.58
2.43
2.28
2.15
2.07
2.02
1.99
1.97
1.95
1.90
1.82
1.68
1.47
1.20
0.87
0.53
0.18
-0.15
-0.48
-0.81
-1.15
-1.47
-1.74
-1.98
-2.22
-2.54
-2.98
-3.55
-4.18
-4.81
-5.40
-6.00
-6.70
-7.53
-8.44
-9.24
-9.77
-9.93
-9.80
-9.54
-9.33
-9.24
-9.19
-9.05
-8.74
-8.34
-8.03
-7.97
-8.18
-8.50
-8.62
-8.29
-7.45
-6.35
-5.43
-5.12
-5.64
-6.83
-8.16
-8.86
-8.24
-5.91
-1.94
3.21
8.99
15.06
21.47
28.51
36.39
44.89
53.18
60.14
64.74
66.50
65.24
60.84
52.81
40.48
23.80
4.22
-15.21
-31.00
-40.91
-45.17
-46.14
-46.69
-48.18
-49.66
-48.71
-43.44
-34.18
-23.62
-15.29
-11.42
-11.72
-13.74
-14.59
-12.67
-8.36
-3.51
0.01
1.34
0.95
0.05
-0.13
0.96
3.01
5.19
6.68
7.14
6.79
6.29
6.28
7.10
8.58
10.20
11.31
11.51
10.78
9.47
8.06
6.98
6.37
6.11
5.90
5.47
4.70
3.67
2.57
1.62
0.97
0.64
0.60
0.72
0.89
0.98
0.87
0.51
-0.08
-0.79
-1.44
-1.85
-1.93
-1.67
-1.19
-0.62
-0.07
0.38
0.68
0.80
0.68
0.26
-0.42
-1.28
-2.10
-2.69
-2.95
-2.89
-2.67
-2.48
-2.44
-2.59
-2.84
-3.04
-3.08
-2.91
-2.57
-2.11
-1.59
-1.04
-0.45
0.20
0.89
1.57
2.15
2.57
2.80
2.88
2.86
2.83
2.85
2.91
3.03
3.17
3.36
3.62
4.01
4.51
5.01
5.35
5.35
4.90
4.05
3.02
2.07
1.44
1.17
1.15
1.17
1.08
0.87
0.66
0.60
0.74
1.00
1.25
1.36
1.33
1.25
1.23
1.32
1.47
1.62
1.72
1.80
1.90
2.01
2.03
1.82
1.30
0.48
-0.47
-1.34
-1.95
-2.25
-2.31
-2.26
-2.17
-2.09
-1.96
-1.76
-1.45
-1.04
-0.56
-0.02
0.51
0.98
1.31
1.40
1.23
0.84
0.37
-0.01
-0.17
-0.08
0.17
0.43
0.55
0.48
0.27
0.04
-0.11
-0.12
-0.02
0.13
0.30
0.45
0.60
0.80
1.07
1.40
1.70
1.85
1.73
1.26
0.50
-0.36
-1.12
-1.61
-1.80
-1.78
-1.72
-1.72
-1.79
-1.86
-1.88
-1.87
-1.92
-2.11
-2.44
-2.83
-3.16
-3.34
-3.39
-3.41
-3.49
-3.63
-3.76
-3.73
-3.46
-2.96
-2.35
-1.77
-1.30
-0.94
-0.61
-0.24
0.16
0.51
0.70
0.67
0.45
0.16
-0.00
0.12
0.59
1.32
2.12
2.78
3.17
3.21
2.99
2.64
2.32
2.15
2.18
2.36
2.59
2.73
2.71
2.55
2.27
1.93
1.55
1.15
0.73
0.36
0.16
0.22
0.55
0.99
1.31
1.29
0.87
0.16
-0.61
-1.21
-1.54
-1.65
-1.64
-1.63
-1.69
-1.80
-1.95
-2.11
-2.31
-2.54
-2.82
-3.12
-3.43
-3.74
-4.02
-4.24
-4.31
-4.15
-3.69
-2.99
-2.17
-1.44
-0.96
-0.81
-0.98
-1.35
-1.83
-2.35
-2.88
-3.41
-3.93
-4.37
-4.69
-4.90
-5.02
-5.11
-5.17
-5.16
-5.01
-4.67
-4.17
-3.58
-3.00
-2.48
-1.99
-1.48
-0.88
-0.14
0.74
1.72
2.79
3.90
5.02
6.06
6.92
7.48
7.66
7.43
6.85
6.04
5.15
4.32
3.66
3.22
2.97
2.84
2.70
2.46
2.05
1.49
0.84
0.24
-0.20
-0.36
-0.20
0.23
0.79
1.32
1.68
1.80
1.74
1.63
1.61
1.76
2.03
2.32
2.52
2.56
2.44
2.23
1.97
1.71
1.46
1.23
1.10
1.12
1.32
1.64
1.91
1.97
1.72
1.21
0.59
0.06
-0.24
-0.33
-0.29
-0.20
-0.12
-0.01
0.15
0.36
0.52
0.56
0.45
0.24
0.03
-0.10
-0.13
-0.14
-0.21
-0.42
-0.80
-1.28
-1.75
-2.10
-2.23
-2.12
-1.83
-1.46
-1.11
-0.81
-0.52
-0.13
0.42
1.17
2.06
2.94
3.69
4.26
4.66
4.98
5.30
5.70
6.18
6.69
7.19
7.68
8.20
8.82
9.62
10.56
11.53
12.34
12.78
12.76
12.31
11.58
10.79
10.11
9.61
9.23
8.82
8.23
7.35
6.15
4.68
3.06
1.36
-0.37
-2.10
-3.77
-5.32
-6.71
-7.99
-9.31
-10.85
-12.66
-14.59
-16.35
-17.64
-18.41
-18.89
-19.48
-20.53
-22.08
-23.82
-25.25
-25.98
-25.89
-25.22
-24.38
-23.72
-23.40
-23.34
-23.34
-23.12
-22.49
-21.30
-19.46
-16.91
-13.63
-9.62
-4.99
0.02
5.05
9.59
13.23
15.72
17.14
17.83
18.30
18.95
19.94
21.16
22.34
23.19
23.55
23.44
23.01
22.37
21.64
20.81
19.88
18.83
17.68
16.49
15.30
14.13
12.96
11.75
10.46
9.12
7.75
6.46
5.34
4.44
3.75
3.18
2.63
1.99
1.24
0.36
-0.65
-1.84
-3.25
-4.92
-6.81
-8.81
-10.81
-12.71
-14.48
-16.13
-17.65
-18.96
-19.90
-20.32
-20.16
-19.47
-18.42
-17.25
-16.16
-15.21
-14.33
-13.39
-12.23
-10.76
-9.02
-7.11
-5.16
-3.28
-1.47
0.30
2.02
3.64
5.01
5.93
6.25
5.96
5.23
4.35
3.66
3.37
3.57
4.18
5.03
5.91
6.69
7.27
7.59
7.62
7.31
6.69
5.90
5.17
4.74
4.74
5.08
5.47
5.54
4.95
3.60
1.66
-0.52
-2.57
-4.24
-5.44
-6.26
-6.83
-7.28
-7.69
-8.10
-8.53
-8.93
-9.19
-9.20
-8.83
-8.09
-7.06
-5.92
-4.86
-3.97
-3.22
-2.54
-1.83
-1.06
-0.26
0.49
1.11
1.48
1.51
1.16
0.44
-0.50
-1.46
-2.22
-2.64
-2.68
-2.35
-1.73
-0.86
0.17
1.27
2.29
3.05
3.47
3.52
3.32
3.02
2.72
2.49
2.30
2.10
1.87
1.61
1.37
1.20
1.16
1.26
1.50
1.84
2.21
2.55
2.81
2.94
2.93
2.81
2.57
2.26
1.91
1.58
1.27
0.97
0.67
0.35
0.06
-0.13
-0.15
0.06
0.46
0.96
1.44
1.83
2.12
2.33
2.53
2.73
2.95
3.15
3.32
3.44
3.48
3.42
3.27
3.09
2.96
3.00
3.27
3.77
4.36
4.86
5.12
5.08
4.80
4.39
4.01
3.74
3.60
3.55
3.53
3.51
3.45
3.36
3.24
3.12
2.97
2.78
2.48
2.03
1.41
0.68
-0.08
-0.76
-1.30
-1.70
-2.03
-2.34
-2.61
-2.75
-2.68
-2.35
-1.81
-1.22
-0.74
-0.48
-0.38
-0.31
-0.14
0.14
0.44
0.57
0.40
-0.06
-0.62
-1.07
-1.25
-1.16
-0.91
-0.69
-0.58
-0.58
-0.60
-0.55
-0.43
-0.28
-0.18
-0.14
-0.15
-0.19
-0.23
-0.26
-0.26
-0.18
0.01
0.33
0.72
1.07
1.26
1.20
0.90
0.43
-0.07
-0.51
-0.87
-1.19
-1.52
-1.86
-2.13
-2.22
-2.04
-1.59
-0.98
-0.33
0.24
0.72
1.15
1.60
2.09
2.55
2.90
3.05
3.03
2.91
2.81
2.80
2.90
3.06
3.20
3.31
3.38
3.47
3.60
3.78
3.92
3.95
3.82
3.52
3.13
2.71
2.34
2.04
1.77
1.51
1.23
0.95
0.69
0.45
0.22
-0.01
-0.23
-0.42
-0.57
-0.67
-0.78
-1.00
-1.37
-1.90
-2.49
-3.00
-3.31
-3.38
-3.29
-3.22
-3.30
-3.62
-4.11
-4.61
-4.93
-4.92
-4.52
-3.79
-2.84
-1.85
-0.96
-0.23
0.33
0.77
1.14
1.47
1.75
1.95
2.06
2.06
1.99
1.85
1.65
1.39
1.14
0.95
0.89
1.00
1.23
1.49
1.67
1.71
1.58
1.32
0.96
0.56
0.17
-0.16
-0.36
-0.42
-0.39
-0.34
-0.40
-0.63
-1.02
-1.50
-1.97
-2.37
-2.71
-3.03
-3.36
-3.71
-4.02
-4.26
-4.42
-4.54
-4.69
-4.90
-5.16
-5.39
-5.51
-5.46
-5.24
-4.89
-4.46
-3.96
-3.39
-2.72
-1.99
-1.29
-0.72
-0.36
-0.20
-0.17
-0.14
-0.03
0.18
0.39
0.53
0.55
0.49
0.40
0.32
0.25
0.12
-0.07
-0.30
-0.46
-0.48
-0.36
-0.16
0.03
0.11
0.08
-0.02
-0.12
-0.22
-0.35
-0.53
-0.82
-1.17
-1.53
-1.82
-2.03
-2.20
-2.42
-2.74
-3.16
-3.60
-3.93
-4.04
-3.91
-3.60
-3.25
-2.98
-2.90
-2.99
-3.18
-3.36
-3.45
-3.46
-3.39
-3.30
-3.20
-3.12
-3.04
-2.97
-2.90
-2.83
-2.78
-2.76
-2.79
-2.90
-3.07
-3.28
-3.52
-3.76
-4.00
-4.21
-4.36
-4.31
-3.94
-3.15
-1.95
-0.54
0.81
1.81
2.34
2.44
2.25
1.96
1.70
1.52
1.42
1.37
1.39
1.55
1.89
2.45
3.21
4.15
5.23
6.34
7.33
8.02
8.30
8.15
7.70
7.25
7.20
7.78
8.82
9.83
10.15
9.38
7.61
5.45
3.83
3.70
5.44
8.46
11.39
12.75
11.73
8.60
4.61
1.59
1.26
4.31
9.76
15.46
19.18
19.55
16.68
11.96
7.39
5.14
6.56
11.49
18.66
26.14
31.50
31.79
23.91
5.28
-22.45
-51.28
-69.53
-67.91
-45.10
-8.20
30.96
61.07
75.43
74.23
64.38
52.16
42.10
36.43
35.36
37.66
41.21
42.92
39.90
29.53
9.46
-21.28
-60.25
-101.69
-138.18
-163.06
-173.32
-169.56
-155.47
-136.36
-116.80
-99.34
-84.52
-71.96
-57.49
-40.10
-20.33
1.02
23.43
46.02
66.37
80.94
86.70
83.28
72.61
59.14
47.28
39.34
34.96
32.06
28.70
23.99
18.91
14.74
13.23
15.15
20.04
26.42
32.59
37.20
39.17
37.65
29.72
14.22
-8.01
-33.76
-58.41
-77.31
-87.38
-89.50
-83.71
-70.54
-50.27
-24.16
4.85
32.10
52.32
61.65
59.32
48.31
31.81
14.62
0.33
-9.73
-15.97
-19.09
-19.08
-15.37
-7.52
3.44
15.64
26.52
33.88
36.49
34.41
28.50
20.26
11.86
5.54
3.50
6.34
12.59
19.39
24.36
26.93
28.77
32.70
38.61
44.06
44.29
34.64
13.39
-16.77
-50.21
-80.39
-101.55
-109.55
-101.76
-77.61
-39.25
7.76
55.26
93.77
115.09
115.18
95.16
60.58
18.58
-24.22
-64.76
-99.49
-124.42
-135.32
-128.73
-103.88
-63.98
-16.06
31.37
68.51
91.12
100.28
99.78
93.27
82.46
67.48
48.52
27.32
7.49
-7.68
-15.94
-17.47
-14.21
-8.74
-3.05
1.94
6.07
9.25
11.55
13.02
13.68
13.80
13.70
13.52
12.85
10.72
5.89
-2.48
-14.83
-31.21
-50.54
-70.83
-89.25
-102.56
-107.78
-102.85
-86.98
-60.68
-25.71
15.45
59.70
103.35
142.07
171.18
186.50
185.65
169.07
140.17
104.52
68.26
36.39
11.82
-4.75
-14.07
-17.35
-15.66
-9.96
-1.52
7.73
15.35
19.13
17.71
10.92
-0.35
-14.65
-30.49
-46.66
-62.34
-76.98
-90.35
-102.63
-114.37
-126.11
-138.00
-149.28
-158.30
-162.99
-161.67
-153.70
-139.83
-121.87
-102.03
-82.33
-64.28
-48.89
-36.89
-28.90
-25.39
-26.28
-30.73
-37.03
-43.04
-46.62
-46.23
-41.23
-31.97
-19.59
-5.58
8.53
21.47
32.37
40.86
46.93
50.86
53.02
53.72
53.16
51.53
49.15
46.58
44.61
44.02
45.30
48.40
52.77
57.57
61.99
65.62
68.51
71.16
74.09
77.59
81.51
85.31
88.31
89.97
90.08
88.79
86.44
83.34
79.67
75.40
70.42
64.68
58.47
52.38
47.23
43.72
42.25
42.82
45.02
48.19
51.63
54.82
57.52
59.73
61.45
62.78
63.78
64.42
64.49
63.70
61.79
58.67
54.36
48.53
40.99
31.72
20.90
8.77
-4.45
-18.46
-32.99
-47.82
-63.43
-79.69
-95.51
-109.31
-120.03
-127.76
-133.58
-138.82
-144.20
-150.31
-155.93
-158.48
-155.67
-147.24
-135.38
-123.62
-115.33
-112.77
-117.99
-130.72
-148.21
-166.11
-179.95
-185.88
-181.03
-164.02
-126.56
-70.31
-6.57
49.96
90.00
112.44
121.11
120.68
115.30
106.80
94.81
80.05
64.61
50.11
35.49
16.94
-9.19
-43.46
-81.73
-116.15
-136.10
-132.41
-101.59
-47.98
18.11
84.42
141.06
181.82
203.71
207.17
195.22
172.58
144.53
116.66
90.46
68.43
51.77
39.58
30.18
22.09
15.67
9.81
3.87
-2.11
-6.92
-9.27
-8.60
-4.83
1.17
7.72
12.64
14.65
13.76
11.67
10.45
11.73
15.99
22.31
28.77
33.08
33.74
30.44
24.27
17.06
10.89
7.66
8.33
12.56
18.52
23.52
24.81
20.81
11.63
-0.89
-13.96
-25.04
-32.94
-38.10
-41.97
-46.19
-51.82
-59.13
-67.76
-76.95
-85.80
-93.41
-99.04
-102.26
-103.19
-102.45
-100.74
-98.36
-94.83
-89.14
-80.53
-69.20
-56.51
-44.40
-34.40
-26.68
-20.01
-12.46
-2.51
10.09
24.25
38.21
50.52
60.72
69.26
76.77
83.21
87.60
88.35
84.28
75.45
63.36
50.44
39.09
30.67
25.23
21.66
18.49
14.54
9.38
3.37
-2.61
-7.56
-10.72
-11.77
-10.89
-8.51
-5.21
-1.41
2.56
6.36
9.49
11.26
10.98
8.29
3.39
-2.97
-9.73
-15.86
-20.62
-23.57
-24.54
-23.50
-20.60
-16.14
-10.64
-4.70
1.19
6.76
11.97
16.86
21.37
25.27
28.19
29.89
30.39
30.03
29.31
28.69
28.33
28.08
27.53
26.27
24.13
21.23
18.01
14.97
12.53
10.83
9.77
9.04
8.36
7.53
6.52
5.44
4.38
3.38
2.35
1.18
-0.21
-1.77
-3.35
-4.73
-5.76
-6.41
-6.77
-7.02
-7.32
-7.72
-8.21
-8.69
-9.07
-9.28
-9.32
-9.22
-9.04
-8.83
-8.64
-8.49
-8.38
-8.30
-8.26
-8.25
-8.31
-8.45
-8.66
-8.87
-8.96
-8.74
-8.08
-6.94
-5.39
-3.66
-2.06
-0.83
-0.09
0.17
0.13
-0.05
-0.22
-0.31
-0.34
-0.32
-0.30
-0.30
-0.35
-0.45
-0.61
-0.78
-0.93
-0.98
-0.93
-0.81
-0.68
-0.61
-0.60
-0.63
-0.67
-0.68
-0.69
-0.73
-0.85
-1.05
-1.29
-1.54
-1.80
-2.09
-2.45
-2.88
-3.33
-3.74
-4.03
-4.19
-4.27
-4.33
-4.40
-4.44
-4.32
-3.97
-3.36
-2.55
-1.71
-0.97
-0.41
0.00
0.38
0.82
1.34
1.87
2.33
2.65
2.89
3.14
3.51
3.99
4.47
4.80
4.82
4.52
3.98
3.38
2.87
2.53
2.30
2.10
1.87
1.60
1.33
1.09
0.87
0.62
0.31
-0.05
-0.41
-0.70
-0.90
-1.06
-1.28
-1.61
-2.04
-2.47
-2.79
-2.96
-2.97
-2.89
-2.75
-2.56
-2.27
-1.88
-1.44
-1.02
-0.69
-0.50
-0.40
-0.32
-0.20
-0.04
0.13
0.24
0.24
0.13
-0.07
-0.29
-0.50
-0.65
-0.75
-0.80
-0.79
-0.71
-0.56
-0.32
-0.03
0.31
0.69
1.11
1.56
1.99
2.36
2.56
2.55
2.32
1.96
1.58
1.25
1.01
0.85
0.72
0.64
0.66
0.85
1.22
1.69
2.14
2.43
2.48
2.29
1.94
1.49
0.97
0.38
-0.27
-0.92
-1.47
-1.82
-1.96
-1.96
-1.97
-2.11
-2.42
-2.83
-3.17
-3.27
-3.04
-2.48
-1.67
-0.71
0.31
1.31
2.24
3.06
3.72
4.17
4.37
4.32
4.06
3.67
3.24
2.85
2.54
2.26
1.96
1.55
1.00
0.34
-0.34
-0.94
-1.39
-1.62
-1.62
-1.44
-1.11
-0.70
-0.25
0.20
0.59
0.92
1.14
1.24
1.22
1.10
0.93
0.74
0.51
0.21
-0.22
-0.78
-1.40
-1.97
-2.36
-2.54
-2.59
-2.64
-2.84
-3.26
-3.80
-4.29
-4.52
-4.35
-3.78
-2.93
-2.00
-1.18
-0.58
-0.22
-0.02
0.09
0.19
0.29
0.43
0.62
0.88
1.18
1.45
1.64
1.70
1.65
1.57
1.54
1.61
1.79
2.06
2.37
2.70
3.05
3.39
3.67
3.81
3.78
3.58
3.25
2.87
2.50
2.17
1.86
1.57
1.29
1.05
0.86
0.76
0.71
0.68
0.55
0.26
-0.26
-0.98
-1.78
-2.55
-3.17
-3.63
-3.99
-4.33
-4.70
-5.08
-5.36
-5.44
-5.24
-4.79
-4.17
-3.50
-2.90
-2.41
-2.03
-1.72
-1.42
-1.08
-0.70
-0.31
0.06
0.33
0.49
0.53
0.47
0.36
0.21
0.05
-0.07
-0.12
-0.03
0.18
0.48
0.77
0.94
0.92
0.72
0.41
0.13
-0.01
0.06
0.37
0.86
1.45
2.05
2.58
2.98
3.21
3.25
3.10
2.79
2.34
1.83
1.30
0.80
0.39
0.06
-0.17
-0.35
-0.51
-0.69
-0.90
-1.17
-1.48
-1.78
-1.99
-2.07
-1.96
-1.68
-1.27
-0.80
-0.36
0.00
0.29
0.55
0.84
1.19
1.56
1.87
2.01
1.97
1.79
1.61
1.50
1.50
1.54
1.53
1.43
1.27
1.17
1.22
1.43
1.72
1.94
1.96
1.74
1.33
0.88
0.54
0.39
0.44
0.62
0.83
0.96
0.93
0.69
0.27
-0.29
-0.87
-1.32
-1.56
-1.55
-1.36
-1.14
-1.03
-1.15
-1.50
-1.99
-2.52
-2.97
-3.31
-3.53
-3.64
-3.64
-3.56
-3.37
-3.10
-2.73
-2.30
-1.84
-1.41
-1.07
-0.82
-0.60
-0.35
0.01
0.49
1.01
1.48
1.83
2.07
2.29
2.55
2.86
3.14
3.25
3.12
2.75
2.27
1.84
1.59
1.53
1.57
1.60
1.56
1.43
1.29
1.20
1.17
1.16
1.09
0.92
0.63
0.33
0.08
-0.09
-0.21
-0.38
-0.64
-0.98
-1.28
-1.44
-1.41
-1.23
-1.01
-0.88
-0.90
-1.06
-1.33
-1.67
-2.06
-2.48
-2.87
-3.16
-3.25
-3.09
-2.71
-2.15
-1.48
-0.77
-0.07
0.59
1.16
1.62
1.92
2.08
2.13
2.15
2.16
2.21
2.28
2.33
2.31
2.19
1.94
1.61
1.24
0.92
0.70
0.60
0.63
0.73
0.85
0.93
0.91
0.73
0.36
-0.16
-0.76
-1.37
-1.89
-2.31
-2.61
-2.83
-3.01
-3.16
-3.30
-3.45
-3.60
-3.78
-3.96
-4.14
-4.33
-4.55
-4.84
-5.23
-5.72
-6.25
-6.75
-7.13
-7.33
-7.35
-7.21
-6.93
-6.53
-5.98
-5.26
-4.39
-3.39
-2.33
-1.31
-0.35
0.54
1.44
2.45
3.64
5.05
6.63
8.34
10.17
12.17
14.39
16.84
19.43
21.99
24.34
26.33
27.97
29.40
30.83
32.40
34.15
35.87
37.18
37.61
36.78
34.48
30.76
25.84
19.96
13.23
5.55
-3.33
-13.59
-25.15
-37.62
-50.23
-61.97
-71.70
-78.24
-80.56
-78.03
-70.66
-59.32
-45.65
-31.69
-19.33
-9.76
-3.25
0.74
3.14
4.89
6.55
8.37
10.30
12.22
13.99
15.51
16.66
17.33
17.43
16.97
16.06
14.89
13.67
12.55
11.60
10.77
9.93
8.87
7.40
5.41
2.96
0.27
-2.39
-4.76
-6.71
-8.27
-9.56
-10.68
-11.62
-12.24
-12.38
-11.94
-10.90
-9.30
-7.27
-4.93
-2.47
-0.09
1.97
3.56
4.62
5.21
5.45
5.42
5.10
4.48
3.55
2.43
1.28
0.29
-0.47
-0.99
-1.34
-1.56
-1.60
-1.39
-0.87
-0.08
0.84
1.73
2.51
3.18
3.81
4.49
5.21
5.90
6.46
6.82
7.00
7.09
7.18
7.36
7.60
7.82
7.93
7.87
7.64
7.30
6.94
6.62
6.35
6.08
5.74
5.30
4.75
4.13
3.52
2.95
2.45
2.04
1.70
1.41
1.10
0.74
0.27
-0.28
-0.88
-1.42
-1.84
-2.16
-2.41
-2.67
-3.00
-3.40
-3.85
-4.32
-4.78
-5.22
-5.65
-6.04
-6.36
-6.56
-6.62
-6.53
-6.28
-5.91
-5.43
-4.88
-4.28
-3.67
-3.13
-2.72
-2.50
-2.46
-2.53
-2.58
-2.48
-2.18
-1.72
-1.21
-0.76
-0.47
-0.31
-0.23
-0.14
-0.00
0.14
0.24
0.22
0.10
-0.11
-0.34
-0.56
-0.77
-0.98
-1.20
-1.43
-1.64
-1.78
-1.82
-1.76
-1.61
-1.41
-1.23
-1.11
-1.13
-1.28
-1.56
-1.90
-2.24
-2.53
-2.75
-2.92
-3.08
-3.21
-3.27
-3.17
-2.84
-2.29
-1.63
-0.99
-0.51
-0.21
-0.02
0.17
0.44
0.79
1.16
1.49
1.76
2.00
2.27
2.59
2.95
3.28
3.51
3.62
3.61
3.52
3.43
3.38
3.45
3.65
3.94
4.21
4.33
4.15
3.60
2.73
1.73
0.83
0.23
0.02
0.15
0.44
0.66
0.63
0.31
-0.25
-0.84
-1.30
-1.51
-1.46
-1.29
-1.16
-1.23
-1.53
-1.96
-2.36
-2.64
-2.74
-2.74
-2.74
-2.78
-2.81
-2.71
-2.43
-1.95
-1.40
-0.92
-0.58
-0.38
-0.20
0.09
0.56
1.20
1.88
2.46
2.79
2.83
2.60
2.23
1.86
1.62
1.58
1.73
1.98
2.26
2.47
2.57
2.55
2.46
2.31
2.11
1.87
1.63
1.41
1.22
1.06
0.93
0.78
0.62
0.42
0.20
-0.02
-0.23
-0.45
-0.67
-0.88
-1.07
-1.23
-1.39
-1.59
-1.85
-2.17
-2.49
-2.76
-2.93
-3.00
-2.98
-2.91
-2.85
-2.82
-2.84
-2.90
-2.92
-2.85
-2.60
-2.18
-1.64
-1.07
-0.55
-0.07
0.43
1.02
1.70
2.37
2.87
3.08
2.98
2.71
2.48
2.46
2.68
3.05
3.40
3.59
3.58
3.43
3.23
3.06
3.00
3.06
3.23
3.48
3.76
4.00
4.15
4.19
4.10
3.91
3.59
3.12
2.48
1.71
0.88
0.09
-0.59
-1.13
-1.54
-1.89
-2.21
-2.50
-2.78
-3.04
-3.30
-3.60
-3.95
-4.31
-4.60
-4.70
-4.53
-4.07
-3.41
-2.68
-2.04
-1.59
-1.35
-1.24
-1.12
-0.87
-0.46
0.04
0.54
0.92
1.15
1.26
1.35
1.49
1.69
1.91
2.04
2.01
1.78
1.42
1.04
0.78
0.73
0.85
1.05
1.16
1.08
0.81
0.43
0.09
-0.08
-0.06
0.12
0.34
0.54
0.68
0.75
0.73
0.64
0.44
0.14
-0.25
-0.67
-1.02
-1.22
-1.25
-1.14
-0.99
-0.93
-1.04
-1.35
-1.78
-2.22
-2.56
-2.76
-2.84
-2.81
-2.70
-2.50
-2.18
-1.80
-1.40
-1.06
-0.79
-0.54
-0.22
0.22
0.72
1.19
1.51
1.64
1.62
1.55
1.47
1.38
1.24
1.00
0.71
0.46
0.38
0.55
0.95
1.45
1.86
2.04
1.92
1.56
1.10
0.72
0.52
0.55
0.71
0.87
0.89
0.70
0.33
-0.14
-0.58
-0.95
-1.27
-1.58
-1.91
-2.22
-2.46
-2.55
-2.49
-2.36
-2.23
-2.15
-2.07
-1.91
-1.59
-1.13
-0.64
-0.27
-0.08
-0.06
-0.08
-0.03
0.13
0.38
0.65
0.87
1.05
1.22
1.39
1.58
1.75
1.88
1.93
1.91
1.82
1.65
1.44
1.22
1.03
0.93
0.94
1.05
1.16
1.19
1.06
0.75
0.28
-0.25
-0.75
-1.11
-1.27
-1.23
-1.07
-0.92
-0.91
-1.11
-1.53
-2.10
-2.70
-3.19
-3.49
-3.55
-3.37
-3.00
-2.52
-2.02
-1.55
-1.13
-0.76
-0.41
-0.07
0.23
0.45
0.55
0.50
0.33
0.11
-0.05
-0.09
0.04
0.33
0.70
1.08
1.39
1.59
1.66
1.62
1.54
1.47
1.46
1.54
1.67
1.78
1.81
1.68
1.40
0.97
0.50
0.05
-0.29
-0.51
-0.61
-0.65
-0.70
-0.84
-1.09
-1.39
-1.64
-1.74
-1.64
-1.40
-1.19
-1.17
-1.46
-2.01
-2.66
-3.19
-3.44
-3.38
-3.09
-2.67
-2.24
-1.79
-1.30
-0.72
-0.06
0.58
1.09
1.37
1.40
1.27
1.09
0.97
0.95
1.03
1.15
1.23
1.28
1.31
1.38
1.49
1.58
1.58
1.46
1.26
1.06
0.96
1.00
1.11
1.19
1.14
0.95
0.67
0.40
0.22
0.14
0.12
0.08
-0.04
-0.25
-0.53
-0.86
-1.18
-1.41
-1.50
-1.42
-1.19
-0.91
-0.69
-0.66
-0.87
-1.28
-1.77
-2.21
-2.52
-2.71
-2.85
-2.99
-3.12
-3.15
-2.97
-2.52
-1.88
-1.21
-0.68
-0.35
-0.18
-0.04
0.15
0.39
0.62
0.74
0.72
0.58
0.39
0.19
-0.03
-0.32
-0.73
-1.25
-1.84
-2.45
-3.04
-3.62
-4.24
-4.97
-5.84
-6.84
-7.86
-8.78
-9.42
-9.70
-9.65
-9.39
-9.07
-8.81
-8.55
-8.13
-7.32
-6.01
-4.23
-2.21
-0.24
1.46
2.87
4.10
5.35
6.78
8.39
10.04
11.53
12.69
13.42
13.74
13.73
13.48
13.13
12.82
12.67
12.74
13.03
13.45
13.87
14.16
14.25
14.14
13.89
13.64
13.48
13.53
13.83
14.36
15.02
15.65
16.05
16.04
15.46
14.21
12.27
9.72
6.81
3.92
1.45
-0.33
-1.40
-2.04
-2.64
-3.52
-4.79
-6.32
-7.93
-9.54
-11.21
-13.07
-15.15
-17.28
-19.09
-20.23
-20.53
-20.09
-19.21
-18.19
-17.24
-16.39
-15.67
-15.14
-15.00
-15.44
-16.49
-17.96
-19.49
-20.74
-21.55
-22.00
-22.30
-22.53
-22.50
-21.86
-20.24
-17.55
-14.05
-10.21
-6.45
-2.87
0.71
4.61
8.96
13.60
18.11
22.03
25.10
27.35
28.95
30.04
30.55
30.24
28.85
26.32
22.91
19.12
15.55
12.61
10.46
9.01
8.00
7.24
6.57
5.96
5.41
4.92
4.46
3.98
3.45
2.88
2.30
1.77
1.34
1.01
0.77
0.54
0.21
-0.34
-1.24
-2.53
-4.19
-6.05
-7.92
-9.59
-10.88
-11.72
-12.09
-12.04
-11.66
-11.10
-10.50
-10.02
-9.71
-9.54
-9.39
-9.13
-8.72
-8.22
-7.75
-7.40
-7.17
-6.94
-6.54
-5.86
-4.90
-3.79
-2.69
-1.71
-0.93
-0.29
0.27
0.85
1.53
2.33
3.24
4.22
5.16
6.01
6.71
7.28
7.74
8.09
8.31
8.36
8.24
8.01
7.76
7.56
7.45
7.40
7.31
7.14
6.90
6.67
6.57
6.65
6.88
7.17
7.48
7.82
8.25
8.88
9.78
10.98
12.40
13.94
15.57
17.28
19.07
20.83
22.41
23.69
24.62
25.06
25.01
24.61
24.16
23.96
24.08
24.36
24.55
24.45
23.66
22.06
19.92
17.83
16.24
15.11
13.86
11.82
8.51
3.45
-3.28
-10.75
-17.45
-22.03
-23.99
-23.70
-22.01
-20.04
-19.68
-22.89
-30.87
-43.70
-60.26
-78.59
-96.30
-111.27
-118.17
-114.80
-104.21
-93.34
-87.69
-87.22
-87.25
-82.03
-68.10
-45.78
-19.01
7.59
30.80
49.18
62.25
69.34
69.17
61.54
48.49
33.69
21.36
14.69
14.65
20.07
27.26
32.59
34.75
34.40
32.64
30.04
26.54
22.14
17.41
13.11
10.29
9.81
11.82
15.62
20.03
23.87
26.31
27.05
26.22
24.52
23.01
22.56
23.14
24.42
25.65
26.05
25.03
22.51
19.13
16.03
14.36
14.62
16.42
18.49
19.25
17.62
13.36
7.08
-0.32
-7.98
-15.33
-21.77
-26.62
-29.20
-29.36
-27.82
-26.15
-26.12
-28.62
-33.10
-37.63
-40.06
-39.28
-35.95
-32.25
-30.74
-33.13
-39.44
-48.15
-56.86
-63.32
-66.20
-65.26
-61.07
-54.63
-46.88
-38.62
-30.42
-22.72
-15.85
-10.05
-5.39
-1.74
1.21
3.96
6.92
10.36
14.21
18.10
21.45
23.79
24.82
24.48
22.92
20.36
17.01
13.10
8.92
4.83
1.20
-1.60
-3.31
-3.83
-3.18
-1.49
1.04
4.10
7.28
10.08
12.14
13.31
13.80
14.05
14.54
15.44
16.62
17.64
18.03
17.54
16.24
14.44
12.45
10.47
8.49
6.40
4.11
1.61
-1.00
-3.64
-6.30
-9.01
-11.80
-14.64
-17.40
-19.93
-22.07
-23.74
-24.91
-25.64
-26.08
-26.42
-26.85
-27.53
-28.45
-29.35
-29.74
-29.03
-26.69
-22.46
-16.38
-8.80
-0.20
8.89
18.01
26.75
34.85
42.15
48.60
54.27
59.26
63.67
67.53
70.82
73.51
75.58
77.13
78.36
79.50
80.79
82.39
84.29
86.28
87.95
88.71
88.01
85.51
81.31
76.02
70.54
65.82
62.36
60.05
58.05
55.00
49.45
40.22
26.77
9.36
-10.95
-32.50
-53.32
-71.48
-85.47
-94.54
-98.82
-99.23
-97.11
-93.85
-90.46
-87.34
-84.38
-81.14
-77.17
-72.28
-66.58
-60.45
-54.34
-48.65
-43.65
-39.41
-35.82
-32.63
-29.57
-26.36
-22.82
-18.94
-14.77
-10.47
-6.18
-2.06
1.76
5.13
7.93
10.14
11.78
13.00
13.92
14.58
14.96
14.96
14.52
13.62
12.33
10.80
9.20
7.66
6.27
5.03
3.86
2.65
1.33
-0.10
-1.53
-2.81
-3.84
-4.59
-5.18
-5.74
-6.40
-7.20
-8.12
-9.08
-10.05
-11.02
-12.01
-13.02
-14.03
-14.97
-15.75
-16.38
-16.91
-17.49
-18.27
-19.32
-20.58
-21.82
-22.67
-22.76
-21.84
-19.95
-17.34
-14.47
-11.79
-9.61
-8.01
-6.91
-6.17
-5.69
-5.46
-5.53
-5.89
-6.49
-7.20
-7.97
-8.80
-9.69
-10.56
-11.14
-10.95
-9.53
-6.62
-2.26
3.13
9.02
14.86
20.28
24.99
28.77
31.39
32.63
32.44
30.94
28.46
25.37
21.98
18.49
15.05
11.79
8.88
6.48
4.63
3.20
1.96
0.69
-0.66
-1.94
-2.91
-3.37
-3.30
-2.85
-2.26
-1.70
-1.18
-0.54
0.40
1.70
3.25
4.88
6.42
7.85
9.24
10.67
12.13
13.48
14.51
15.06
15.12
14.79
14.25
13.61
12.93
12.19
11.38
10.48
9.53
8.60
7.79
7.16
6.75
6.54
6.45
6.35
6.16
5.79
5.21
4.41
3.46
2.44
1.54
1.01
1.03
1.71
2.94
4.50
6.11
7.56
8.81
9.90
10.92
11.96
13.02
14.12
15.18
16.05
16.41
15.86
14.02
10.74
6.21
0.96
-4.33
-9.04
-12.83
-15.68
-17.75
-19.30
-20.50
-21.46
-22.26
-22.95
-23.62
-24.27
-24.76
-24.82
-24.16
-22.56
-20.05
-16.89
-13.51
-10.35
-7.71
-5.66
-4.14
-3.00
-2.11
-1.45
-0.99
-0.75
-0.65
-0.60
-0.50
-0.32
-0.10
0.06
0.10
0.00
-0.18
-0.35
-0.41
-0.28
0.09
0.72
1.57
2.58
3.66
4.75
5.80
6.82
7.83
8.84
9.83
10.72
11.40
11.81
11.95
11.91
11.84
11.85
12.00
12.24
12.48
12.63
12.69
12.71
12.78
12.97
13.25
13.55
13.75
13.78
13.59
13.16
12.51
11.62
10.52
9.27
7.99
6.84
5.93
5.29
4.87
4.52
4.10
3.53
2.86
2.18
1.63
1.29
1.16
1.20
1.35
1.60
1.95
2.42
2.95
3.42
3.68
3.60
3.16
2.44
1.61
0.81
0.09
-0.59
-1.37
-2.34
-3.48
-4.67
-5.70
-6.40
-6.70
-6.67
-6.49
-6.33
-6.29
-6.37
-6.50
-6.55
-6.46
-6.19
-5.74
-5.15
-4.49
-3.86
-3.37
-3.08
-2.98
-3.00
-3.03
-2.96
-2.79
-2.57
-2.41
-2.41
-2.64
-3.09
-3.67
-4.22
-4.57
-4.58
-4.16
-3.39
-2.41
-1.45
-0.72
-0.34
-0.30
-0.48
-0.75
-0.98
-1.06
-0.96
-0.70
-0.34
0.05
0.41
0.71
0.96
1.23
1.52
1.79
1.97
2.00
1.83
1.50
1.11
0.75
0.52
0.43
0.45
0.49
0.45
0.30
0.02
-0.33
-0.70
-1.03
-1.31
-1.58
-1.88
-2.24
-2.62
-2.93
-3.07
-3.00
-2.80
-2.65
-2.72
-3.07
-3.65
-4.25
-4.69
-4.86
-4.82
-4.67
-4.51
-4.34
-4.04
-3.48
-2.65
-1.62
-0.58
0.29
0.91
1.29
1.53
1.71
1.89
2.01
2.05
1.97
1.84
1.73
1.71
1.77
1.85
1.82
1.63
1.30
0.91
0.59
0.38
0.23
0.04
-0.28
-0.74
-1.25
-1.66
-1.88
-1.89
-1.78
-1.71
-1.78
-2.03
-2.40
-2.75
-2.96
-2.95
-2.69
-2.26
-1.76
-1.33
-1.12
-1.19
-1.56
-2.12
-2.69
-3.10
-3.20
-2.96
-2.45
-1.82
-1.16
-0.58
-0.07
0.35
0.69
0.92
1.02
0.97
0.81
0.58
0.35
0.17
0.05
0.00
-0.01
-0.02
-0.02
-0.00
0.09
0.34
0.79
1.39
2.04
2.57
2.84
2.83
2.64
2.47
2.51
2.85
3.43
4.02
4.38
4.35
3.91
3.20
2.41
1.70
1.15
0.77
0.51
0.29
0.03
-0.32
-0.79
-1.40
-2.08
-2.74
-3.24
-3.45
-3.31
-2.84
-2.13
-1.34
-0.65
-0.20
-0.10
-0.37
-0.96
-1.72
-2.51
-3.22
-3.79
-4.26
-4.66
-5.03
-5.32
-5.49
-5.48
-5.30
-4.98
-4.56
-4.01
-3.24
-2.17
-0.81
0.73
2.17
3.25
3.82
3.90
3.65
3.30
3.06
3.02
3.16
3.39
3.59
3.64
3.47
3.07
2.47
1.75
0.99
0.27
-0.39
-0.99
-1.59
-2.19
-2.81
-3.37
-3.80
-4.00
-3.92
-3.55
-2.96
-2.25
-1.51
-0.81
-0.17
0.42
0.95
1.38
1.69
1.82
1.79
1.67
1.52
1.42
1.40
1.45
1.51
1.54
1.48
1.33
1.14
0.98
0.89
0.89
0.92
0.91
0.81
0.59
0.30
0.00
-0.25
-0.43
-0.56
-0.70
-0.88
-1.08
-1.32
-1.60
-1.97
-2.46
-3.06
-3.70
-4.23
-4.51
-4.46
-4.11
-3.62
-3.15
-2.82
-2.60
-2.36
-1.96
-1.31
-0.49
0.34
1.00
1.36
1.43
1.33
1.20
1.13
1.14
1.16
1.14
1.02
0.84
0.65
0.53
0.58
0.83
1.28
1.89
2.58
3.28
3.90
4.41
4.79
5.03
5.08
4.86
4.31
3.42
2.28
1.09
0.01
-0.85
-1.53
-2.14
-2.78
-3.50
-4.24
-4.90
-5.39
-5.69
-5.82
-5.79
-5.58
-5.12
-4.42
-3.56
-2.70
-2.02
-1.62
-1.43
-1.27
-0.94
-0.35
0.45
1.32
2.04
2.51
2.70
2.67
2.53
2.34
2.14
1.95
1.80
1.70
1.69
1.79
1.97
2.18
2.35
2.44
2.45
2.40
2.31
2.16
1.94
1.61
1.19
0.72
0.31
0.03
-0.08
-0.06
0.01
0.04
0.00
-0.08
-0.13
-0.08
0.06
0.26
0.43
0.49
0.38
0.16
-0.09
-0.24
-0.20
0.05
0.45
0.89
1.26
1.53
1.74
1.93
2.14
2.40
2.73
3.18
3.77
4.46
5.10
5.47
5.37
4.72
3.67
2.49
1.45
0.71
0.27
0.00
-0.24
-0.51
-0.80
-1.04
-1.20
-1.30
-1.40
-1.56
-1.78
-2.06
-2.36
-2.67
-2.96
-3.16
-3.17
-2.92
-2.38
-1.64
-0.84
-0.15
0.34
0.66
0.90
1.17
1.50
1.82
2.00
1.95
1.65
1.17
0.67
0.26
-0.00
-0.15
-0.29
-0.54
-0.97
-1.58
-2.32
-3.08
-3.75
-4.24
-4.54
-4.61
-4.49
-4.21
-3.85
-3.47
-3.12
-2.84
-2.63
-2.46
-2.30
-2.18
-2.10
-2.06
-2.05
-1.98
-1.78
-1.43
-0.94
-0.43
-0.01
0.22
0.23
0.08
-0.13
-0.29
-0.31
-0.20
0.02
0.28
0.54
0.80
1.07
1.37
1.69
1.96
2.15
2.20
2.11
1.92
1.68
1.42
1.15
0.85
0.52
0.20
-0.07
-0.28
-0.43
-0.60
-0.85
-1.26
-1.80
-2.36
-2.80
-2.97
-2.82
-2.41
-1.89
-1.40
-1.02
-0.73
-0.41
0.03
0.61
1.27
1.88
2.29
2.45
2.37
2.13
1.78
1.35
0.82
0.21
-0.42
-0.94
-1.21
-1.17
-0.83
-0.31
0.23
0.65
0.87
0.86
0.64
0.23
-0.32
-0.92
-1.49
-1.96
-2.30
-2.53
-2.72
-2.97
-3.28
-3.62
-3.89
-3.99
-3.89
-3.66
-3.38
-3.15
-3.00
-2.89
-2.78
-2.64
-2.53
-2.52
-2.68
-3.00
-3.38
-3.71
-3.84
-3.73
-3.36
-2.77
-2.02
-1.20
-0.40
0.27
0.70
0.86
0.78
0.57
0.36
0.26
0.30
0.43
0.57
0.67
0.73
0.84
1.13
1.68
2.47
3.39
4.21
4.74
4.86
4.61
4.12
3.54
3.03
2.64
2.40
2.28
2.24
2.22
2.14
1.96
1.66
1.31
0.97
0.71
0.55
0.43
0.31
0.14
-0.07
-0.27
-0.41
-0.48
-0.51
-0.51
-0.49
-0.40
-0.22
0.02
0.29
0.51
0.64
0.68
0.69
0.70
0.77
0.91
1.11
1.37
1.66
1.92
2.06
2.02
1.78
1.40
0.98
0.67
0.52
0.49
0.51
0.45
0.27
-0.03
-0.37
-0.67
-0.86
-0.96
-0.99
-1.01
-1.05
-1.13
-1.23
-1.34
-1.46
-1.59
-1.75
-1.90
-2.03
-2.05
-1.90
-1.54
-1.02
-0.41
0.16
0.59
0.85
0.97
1.00
0.99
0.96
0.89
0.78
0.66
0.60
0.65
0.82
1.02
1.10
0.94
0.51
-0.11
-0.76
-1.31
-1.69
-1.91
-2.04
-2.14
-2.20
-2.16
-1.95
-1.54
-0.97
-0.37
0.10
0.31
0.21
-0.12
-0.53
-0.85
-0.97
-0.89
-0.70
-0.54
-0.47
-0.44
-0.35
-0.11
0.34
0.93
1.54
2.06
2.45
2.69
2.79
2.76
2.53
2.06
1.38
0.60
-0.11
-0.59
-0.79
-0.77
-0.69
-0.70
-0.85
-1.06
-1.17
-1.06
-0.70
-0.17
0.40
0.87
1.22
1.47
1.66
1.83
1.99
2.14
2.29
2.48
2.74
3.05
3.35
3.53
3.49
3.20
2.69
2.08
1.50
1.05
0.74
0.50
0.24
-0.09
-0.50
-0.92
-1.27
-1.50
-1.67
-1.86
-2.14
-2.55
-3.03
-3.50
-3.88
-4.15
-4.33
-4.49
-4.64
-4.72
-4.66
-4.36
-3.82
-3.11
-2.37
-1.72
-1.17
-0.68
-0.15
0.48
1.17
1.81
2.27
2.46
2.39
2.17
1.91
1.71
1.62
1.68
1.87
2.17
2.55
2.97
3.33
3.57
3.65
3.58
3.41
3.20
3.00
2.81
2.62
2.38
2.10
1.81
1.53
1.31
1.16
1.08
1.02
0.97
0.88
0.72
0.47
0.11
-0.31
-0.73
-1.07
-1.32
-1.51
-1.75
-2.11
-2.62
-3.19
-3.73
-4.17
-4.53
-4.87
-5.24
-5.62
-5.83
-5.70
-5.12
-4.15
-3.01
-1.96
-1.22
-0.83
-0.68
-0.58
-0.34
0.10
0.71
1.35
1.85
2.11
2.11
1.94
1.72
1.60
1.63
1.80
2.01
2.17
2.22
2.17
2.07
1.97
1.88
1.80
1.70
1.59
1.46
1.33
1.15
0.90
0.54
0.12
-0.25
-0.46
-0.43
-0.20
0.11
0.31
0.29
0.03
-0.38
-0.80
-1.13
-1.35
-1.51
-1.69
-1.93
-2.24
-2.59
-2.97
-3.33
-3.67
-3.92
-4.01
-3.86
-3.44
-2.80
-2.06
-1.33
-0.71
-0.21
0.21
0.59
0.94
1.24
1.41
1.44
1.30
1.06
0.81
0.65
0.67
0.92
1.38
1.98
2.57
3.04
3.29
3.31
3.13
2.84
2.49
2.14
1.77
1.40
1.04
0.74
0.55
0.47
0.44
0.40
0.29
0.09
-0.13
-0.33
-0.47
-0.55
-0.62
-0.69
-0.75
-0.80
-0.84
-0.93
-1.14
-1.51
-2.01
-2.53
-2.96
-3.23
-3.39
-3.50
-3.63
-3.78
-3.90
-3.90
-3.73
-3.39
-2.90
-2.31
-1.65
-0.95
-0.21
0.56
1.33
2.01
2.52
2.80
2.81
2.62
2.33
2.05
1.82
1.63
1.46
1.30
1.21
1.24
1.46
1.80
2.17
2.48
2.65
2.68
2.61
2.46
2.21
1.89
1.55
1.31
1.26
1.43
1.69
1.85
1.69
1.16
0.34
-0.57
-1.31
-1.74
-1.80
-1.58
-1.24
-0.89
-0.63
-0.50
-0.47
-0.55
-0.73
-1.05
-1.53
-2.18
-2.96
-3.76
-4.47
-4.96
-5.12
-4.95
-4.51
-3.92
-3.29
-2.71
-2.21
-1.75
-1.27
-0.71
-0.09
0.53
1.08
1.49
1.73
1.85
1.90
1.94
1.99
2.01
1.97
1.82
1.60
1.37
1.24
1.28
1.50
1.80
2.07
2.23
2.24
2.18
2.14
2.19
2.34
2.50
2.58
2.52
2.35
2.13
1.92
1.76
1.55
1.20
0.65
-0.06
-0.78
-1.34
-1.62
-1.66
-1.63
-1.71
-2.03
-2.58
-3.21
-3.72
-3.97
-3.96
-3.78
-3.55
-3.35
-3.18
-2.98
-2.68
-2.28
-1.82
-1.37
-0.98
-0.67
-0.43
-0.25
-0.12
-0.00
0.12
0.32
0.63
1.03
1.45
1.81
2.05
2.20
2.36
2.59
2.90
3.20
3.35
3.27
2.96
2.56
2.24
2.10
2.09
2.08
1.91
1.53
1.05
0.68
0.57
0.75
1.06
1.28
1.19
0.77
0.14
-0.48
-0.90
-1.04
-0.97
-0.82
-0.72
-0.78
-1.03
-1.47
-2.07
-2.79
-3.52
-4.15
-4.60
-4.80
-4.78
-4.61
-4.34
-4.01
-3.57
-2.97
-2.21
-1.34
-0.50
0.19
0.67
0.97
1.17
1.36
1.58
1.82
2.03
2.18
2.26
2.28
2.26
2.17
2.02
1.83
1.65
1.56
1.59
1.74
1.98
2.24
2.47
2.64
2.72
2.66
2.44
2.05
1.54
1.00
0.51
0.14
-0.09
-0.19
-0.22
-0.17
-0.08
0.01
0.05
-0.02
-0.23
-0.57
-0.98
-1.38
-1.74
-2.08
-2.44
-2.89
-3.45
-4.06
-4.67
-5.20
-5.56
-5.74
-5.73
-5.59
-5.40
-5.24
-5.15
-5.09
-4.93
-4.56
-3.94
-3.15
-2.37
-1.77
-1.41
-1.25
-1.13
-0.95
-0.72
-0.57
-0.66
-1.04
-1.60
-2.10
-2.30
-1.99
-1.13
0.15
1.67
3.25
4.82
6.40
8.09
9.96
12.14
14.62
17.31
20.01
22.55
24.84
27.03
29.47
32.44
36.36
41.29
46.87
52.41
57.13
60.61
63.04
65.22
68.05
72.64
79.40
87.84
96.65
104.33
109.81
113.14
115.55
118.37
122.68
127.58
130.06
125.76
110.58
82.29
41.20
-8.09
-62.96
-118.95
-170.79
-212.37
-237.98
-244.51
-233.62
-211.98
-188.91
-172.71
-166.26
-166.63
-167.31
-162.19
-148.76
-128.62
-105.62
-83.00
-62.01
-41.72
-21.09
-0.45
18.35
32.99
42.18
46.45
48.00
49.43
52.89
58.88
66.33
73.25
77.70
78.68
76.44
72.29
67.84
64.40
62.33
60.86
58.26
52.36
41.21
23.74
0.31
-27.29
-56.05
-82.56
-103.91
-118.48
-126.19
-128.16
-125.99
-121.05
-114.10
-105.52
-95.62
-85.04
-74.67
-65.39
-57.71
-51.72
-47.29
-44.41
-43.30
-44.18
-46.78
-50.10
-52.45
-52.05
-47.68
-39.21
-27.50
-14.02
-0.28
12.59
23.93
33.36
40.64
45.70
48.70
50.23
51.19
52.57
55.04
58.77
63.32
67.95
71.90
74.69
76.27
76.90
77.04
77.11
77.44
78.17
79.30
80.66
82.05
83.20
83.82
83.62
82.38
80.03
76.74
72.94
69.19
65.90
63.10
60.37
57.13
52.95
47.89
42.44
37.24
32.63
28.41
24.08
19.21
13.84
8.47
3.66
-0.51
-4.61
-9.49
-15.75
-23.11
-30.51
-36.50
-39.99
-40.67
-39.03
-35.93
-32.19
-28.36
-24.78
-21.86
-20.17
-20.24
-22.27
-25.81
-29.88
-33.30
-35.30
-35.76
-35.26
-34.65
-34.61
-35.21
-35.92
-35.84
-34.19
-30.67
-25.56
-19.52
-13.30
-7.48
-2.46
1.50
4.14
5.23
4.68
2.66
-0.31
-3.53
-6.38
-8.57
-10.23
-11.77
-13.64
-15.99
-18.66
-21.25
-23.38
-24.80
-25.50
-25.55
-25.02
-23.95
-22.38
-20.47
-18.45
-16.57
-14.92
-13.38
-11.61
-9.20
-5.90
-1.72
3.05
7.98
12.62
16.66
19.95
22.52
24.45
25.81
26.64
26.88
26.47
25.39
23.69
21.49
18.98
16.39
13.94
11.82
10.11
8.76
7.59
6.39
5.03
3.52
2.04
0.74
-0.30
-1.24
-2.31
-3.62
-5.04
-6.14
-6.44
-5.68
-3.97
-1.78
0.25
1.65
2.21
2.05
1.45
0.70
-0.04
-0.74
-1.48
-2.32
-3.27
-4.20
-4.93
-5.26
-5.12
-4.61
-3.93
-3.33
-2.92
-2.71
-2.56
-2.33
-2.01
-1.67
-1.43
-1.35
-1.36
-1.30
-1.05
-0.59
-0.02
0.51
0.87
1.02
1.05
1.07
1.15
1.29
1.42
1.44
1.30
1.00
0.61
0.21
-0.13
-0.35
-0.45
-0.43
-0.33
-0.20
-0.12
-0.13
-0.26
-0.46
-0.68
-0.88
-1.05
-1.17
-1.25
-1.28
-1.27
-1.28
-1.38
-1.59
-1.90
-2.17
-2.28
-2.16
-1.89
-1.61
-1.50
-1.59
-1.78
-1.82
-1.52
-0.83
0.17
1.26
2.26
3.05
3.60
3.91
3.99
3.82
3.38
2.75
2.09
1.58
1.38
1.55
2.01
2.55
2.93
2.97
2.63
1.98
1.16
0.32
-0.42
-1.01
-1.42
-1.60
-1.53
-1.19
-0.62
0.10
0.82
1.41
1.72
1.71
1.44
1.07
0.80
0.76
0.99
1.40
1.80
2.02
1.98
1.68
1.19
0.59
-0.06
-0.68
-1.24
-1.71
-2.09
-2.41
-2.77
-3.23
-3.81
-4.44
-4.98
-5.32
-5.36
-5.07
-4.50
-3.71
-2.82
-1.95
-1.19
-0.61
-0.20
0.09
0.36
0.67
1.02
1.38
1.68
1.87
1.93
1.89
1.80
1.70
1.65
1.72
1.93
2.31
2.82
3.38
3.91
4.34
4.63
4.77
4.74
4.50
4.09
3.56
2.99
2.49
2.10
1.85
1.71
1.65
1.67
1.75
1.91
2.14
2.41
2.69
2.94
3.11
3.18
3.10
2.85
2.44
1.94
1.45
1.06
0.82
0.65
0.47
0.13
-0.44
-1.23
-2.16
-3.08
-3.82
-4.25
-4.29
-3.98
-3.46
-2.89
-2.41
-2.08
-1.84
-1.61
-1.30
-0.93
-0.55
-0.27
-0.13
-0.13
-0.21
-0.30
-0.34
-0.29
-0.09
0.39
1.22
2.42
3.87
5.33
6.51
7.16
7.14
6.49
5.38
4.01
2.59
1.30
0.31
-0.22
-0.17
0.55
1.87
3.57
5.32
6.72
7.50
7.49
6.75
5.44
3.77
1.98
0.29
-1.04
-1.71
-1.45
-0.23
1.72
3.84
5.47
6.14
5.70
4.42
2.76
1.13
-0.26
-1.38
-2.17
-2.47
-2.05
-0.83
0.91
2.55
3.39
2.99
1.48
-0.55
-2.33
-3.32
-3.41
-2.93
-2.49
-2.71
-4.09
-6.86
-10.95
-15.99
-21.34
-26.26
-30.11
-32.60
-33.83
-34.17
-34.01
-33.54
-32.67
-31.22
-29.15
-26.73
-24.45
-22.85
-22.18
-22.33
-22.92
-23.60
-24.18
-24.67
-24.93
-24.49
-22.56
-18.50
-12.35
-5.03
1.93
7.14
10.04
11.11
11.48
12.20
13.57
15.12
16.00
15.64
14.14
12.22
10.81
10.56
11.64
13.80
16.54
19.42
22.12
24.51
26.54
28.21
29.47
30.19
30.23
29.48
28.05
26.23
24.44
23.06
22.23
21.78
21.33
20.43
18.80
16.42
13.59
10.72
8.22
6.31
5.01
4.12
3.37
2.55
1.54
0.42
-0.59
-1.25
-1.35
-0.89
-0.05
0.81
1.33
1.29
0.67
-0.34
-1.45
-2.47
-3.38
-4.24
-5.15
-6.09
-6.89
-7.36
-7.38
-6.95
-6.24
-5.44
-4.66
-3.88
-3.04
-2.13
-1.23
-0.47
0.01
0.19
0.15
0.02
-0.05
0.00
0.24
0.65
1.23
1.94
2.67
3.30
3.71
3.86
3.84
3.81
3.99
4.48
5.30
6.32
7.35
8.20
8.76
9.03
9.07
9.02
8.98
8.99
9.05
9.10
9.12
9.10
9.10
9.18
9.34
9.50
9.51
9.21
8.47
7.25
5.63
3.71
1.63
-0.50
-2.59
-4.58
-6.41
-7.98
-9.20
-9.99
-10.30
-10.18
-9.78
-9.30
-8.94
-8.82
-8.92
-9.10
-9.18
-8.98
-8.44
-7.66
-6.85
-6.19
-5.78
-5.57
-5.42
-5.20
-4.85
-4.45
-4.11
-3.90
-3.78
-3.63
-3.34
-2.88
-2.33
-1.86
-1.57
-1.49
-1.54
-1.61
-1.63
-1.60
-1.56
-1.55
-1.56
-1.56
-1.54
-1.51
-1.54
-1.68
-1.94
-2.33
-2.79
-3.27
-3.74
-4.19
-4.61
-5.02
-5.39
-5.64
-5.69
-5.47
-4.94
-4.13
-3.14
-2.10
-1.09
-0.16
0.74
1.66
2.64
3.66
4.67
5.60
6.38
6.96
7.29
7.32
7.04
6.47
5.70
4.90
4.25
3.88
3.83
4.02
4.30
4.46
4.33
3.82
2.94
1.82
0.67
-0.33
-1.06
-1.53
-1.82
-2.03
-2.23
-2.46
-2.70
-2.96
-3.27
-3.61
-3.94
-4.14
-4.13
-3.88
-3.48
-3.07
-2.78
-2.67
-2.70
-2.83
-3.06
-3.43
-3.97
-4.64
-5.28
-5.77
-6.02
-6.14
-6.33
-6.79
-7.63
-8.74
-9.89
-10.78
-11.16
-10.93
-10.17
-9.07
-7.83
-6.62
-5.51
-4.47
-3.40
-2.19
-0.81
0.69
2.18
3.54
4.68
5.58
6.25
6.76
7.13
7.39
7.55
7.58
7.50
7.29
7.00
6.67
6.32
5.99
5.66
5.31
4.91
4.44
3.90
3.26
2.48
1.55
0.50
-0.59
-1.58
-2.37
-2.89
-3.17
-3.31
-3.41
-3.56
-3.79
-4.09
-4.45
-4.89
-5.42
-6.02
-6.58
-6.96
-7.04
-6.77
-6.25
-5.67
-5.24
-5.09
-5.18
-5.33
-5.35
-5.08
-4.44
-3.44
-2.09
-0.44
1.44
3.41
5.23
6.67
7.57
7.92
7.83
7.49
7.03
6.53
5.98
5.37
4.69
4.01
3.39
2.88
2.51
2.27
2.11
1.99
1.89
1.82
1.82
1.93
2.14
2.39
2.61
2.71
2.66
2.49
2.22
1.88
1.43
0.82
0.07
-0.73
-1.42
-1.87
-2.06
-2.07
-2.03
-2.03
-2.04
-1.96
-1.71
-1.30
-0.89
-0.67
-0.79
-1.22
-1.83
-2.39
-2.70
-2.71
-2.43
-2.03
-1.63
-1.35
-1.24
-1.27
-1.36
-1.39
-1.27
-0.92
-0.37
0.33
1.07
1.78
2.38
2.85
3.19
3.37
3.34
3.04
2.43
1.59
0.68
-0.07
-0.43
-0.33
0.15
0.81
1.41
1.81
1.97
1.95
1.83
1.67
1.50
1.36
1.28
1.31
1.46
1.62
1.64
1.41
0.87
0.13
-0.65
-1.28
-1.70
-1.91
-2.06
-2.23
-2.48
-2.74
-2.93
-2.97
-2.82
-2.54
-2.19
-1.83
-1.49
-1.23
-1.08
-1.07
-1.22
-1.43
-1.57
-1.45
-0.99
-0.17
0.87
1.93
2.85
3.55
4.04
4.34
4.50
4.49
4.30
3.94
3.51
3.13
2.89
2.81
2.80
2.71
2.45
1.97
1.38
0.78
0.27
-0.12
-0.43
-0.74
-1.04
-1.33
-1.55
-1.70
-1.83
-2.04
-2.37
-2.80
-3.22
-3.46
-3.45
-3.21
-2.91
-2.77
-2.94
-3.40
-4.03
-4.62
-5.01
-5.09
-4.91
-4.50
-3.96
-3.30
-2.55
-1.72
-0.83
0.10
1.08
2.16
3.38
4.69
5.97
7.01
7.60
7.63
7.13
6.30
5.41
4.71
4.33
4.25
4.31
4.30
4.06
3.55
2.81
1.96
1.07
0.16
-0.74
-1.58
-2.25
-2.61
-2.61
-2.30
-1.83
-1.41
-1.18
-1.22
-1.50
-1.91
-2.32
-2.63
-2.74
-2.58
-2.18
-1.63
-1.09
-0.73
-0.65
-0.82
-1.16
-1.55
-1.92
-2.26
-2.61
-3.00
-3.36
-3.57
-3.50
-3.07
-2.33
-1.38
-0.39
0.49
1.19
1.72
2.11
2.42
2.66
2.84
2.90
2.85
2.72
2.58
2.52
2.57
2.71
2.88
3.02
3.09
3.13
3.16
3.20
3.23
3.16
2.96
2.64
2.23
1.78
1.31
0.77
0.14
-0.53
-1.17
-1.65
-1.94
-2.04
-2.05
-2.04
-2.11
-2.27
-2.53
-2.83
-3.16
-3.48
-3.80
-4.11
-4.45
-4.83
-5.26
-5.70
-6.11
-6.41
-6.55
-6.49
-6.18
-5.60
-4.73
-3.61
-2.37
-1.18
-0.25
0.32
0.50
0.43
0.27
0.20
0.30
0.58
0.98
1.44
1.95
2.47
3.00
3.49
3.86
4.03
4.00
3.78
3.47
3.18
2.98
2.92
2.99
3.11
3.16
3.03
2.64
2.04
1.30
0.59
0.05
-0.29
-0.46
-0.55
-0.66
-0.83
-1.07
-1.38
-1.74
-2.14
-2.57
-3.00
-3.35
-3.56
-3.59
-3.48
-3.33
-3.23
-3.20
-3.16
-2.99
-2.59
-1.90
-0.98
0.03
0.97
1.74
2.32
2.76
3.18
3.67
4.28
4.95
5.50
5.66
5.19
4.09
2.59
1.15
0.20
0.09
0.81
1.95
2.91
3.18
2.58
1.13
-0.98
-3.60
-6.19
-8.13
-8.95
-8.68
-7.99
-8.08
-10.34
-15.65
-24.15
-34.50
-44.71
-52.95
-58.24
-60.38
-59.58
-56.17
-50.27
-42.15
-31.62
-18.82
-4.51
9.99
23.41
35.09
45.00
53.81
59.04
58.63
52.37
42.40
31.44
21.26
12.68
5.93
2.03
0.25
0.52
2.81
6.84
11.96
17.52
23.29
27.86
30.76
31.68
31.23
30.20
29.19
28.37
27.62
26.71
25.39
23.70
21.51
19.11
16.84
14.84
13.05
11.23
9.21
6.86
4.37
1.87
-0.31
-1.95
-2.99
-3.57
-3.88
-4.06
-4.13
-3.96
-3.54
-2.87
-2.10
-1.40
-0.95
-0.80
-0.89
-1.10
-1.29
-1.46
-1.60
-1.75
-1.89
-1.99
-2.02
-2.03
-2.14
-2.42
-2.84
-3.26
-3.46
-3.25
-2.63
-1.73
-0.87
-0.36
-0.39
-1.03
-2.18
-3.65
-5.18
-6.53
-7.50
-7.97
-7.95
-7.57
-7.05
-6.60
-6.34
-6.26
-6.23
-6.16
-6.02
-5.86
-5.78
-5.82
-5.93
-6.03
-6.02
-5.86
-5.60
-5.34
-5.16
-5.12
-5.20
-5.32
-5.40
-5.32
-4.96
-4.25
-3.16
-1.76
-0.18
1.45
2.96
4.25
5.28
6.00
6.41
6.52
6.35
6.00
5.59
5.28
5.23
5.53
6.18
7.06
8.02
8.92
9.69
10.38
11.03
11.65
12.19
12.53
12.57
12.32
11.84
11.19
10.31
9.05
7.23
4.82
2.03
-0.71
-2.94
-4.42
-5.25
-5.82
-6.58
-7.78
-9.36
-10.96
-12.12
-12.55
-12.17
-11.14
-9.75
-8.25
-6.75
-5.28
-3.81
-2.32
-0.85
0.52
1.75
2.86
3.90
4.94
5.96
6.84
7.37
7.36
6.80
5.86
4.84
4.07
3.72
3.74
3.90
3.94
3.71
3.19
2.44
1.50
0.35
-1.06
-2.69
-4.36
-5.79
-6.74
-7.18
-7.29
-7.42
-7.86
-8.75
-9.95
-11.20
-12.22
-12.85
-13.12
-13.15
-13.11
-13.12
-13.20
-13.35
-13.53
-13.70
-13.82
-13.83
-13.60
-13.00
-11.94
-10.46
-8.75
-7.11
-5.80
-4.99
-4.59
-4.37
-4.02
-3.34
-2.32
-1.17
-0.16
0.52
0.85
0.96
1.07
1.30
1.68
2.10
2.46
2.71
2.89
3.05
3.24
3.39
3.39
3.13
2.59
1.85
1.05
0.31
-0.30
-0.80
-1.25
-1.71
-2.20
-2.69
-3.12
-3.46
-3.74
-3.97
-4.21
-4.46
-4.73
-5.03
-5.39
-5.84
-6.41
-7.07
-7.74
-8.32
-8.72
-8.93
-8.97
-8.95
-8.94
-8.95
-8.94
-8.80
-8.47
-7.98
-7.41
-6.90
-6.55
-6.35
-6.19
-5.92
-5.38
-4.55
-3.52
-2.46
-1.48
-0.61
0.25
1.27
2.50
3.88
5.24
6.37
7.12
7.52
7.70
7.78
7.85
7.86
7.70
7.28
6.62
5.79
4.94
4.18
3.54
3.01
2.57
2.21
1.97
1.87
1.90
1.97
1.95
1.72
1.25
0.56
-0.25
-1.06
-1.76
-2.27
-2.58
-2.67
-2.60
-2.49
-2.45
-2.60
-2.92
-3.29
-3.53
-3.45
-2.98
-2.20
-1.25
-0.30
0.53
1.21
1.76
2.18
2.49
2.69
2.81
2.91
3.05
3.23
3.41
3.48
3.39
3.17
2.92
2.73
2.68
2.71
2.72
2.62
2.39
2.11
1.94
1.96
2.17
2.47
2.68
2.67
2.40
1.95
1.49
1.14
0.92
0.79
0.62
0.33
-0.05
-0.43
-0.72
-0.86
-0.93
-1.06
-1.35
-1.84
-2.44
-3.04
-3.55
-3.98
-4.46
-5.07
-5.84
-6.63
-7.24
-7.45
-7.17
-6.47
-5.55
-4.64
-3.96
-3.60
-3.53
-3.61
-3.65
-3.46
-2.88
-1.90
-0.58
0.91
2.36
3.64
4.66
5.44
6.03
6.47
6.81
7.04
7.14
7.08
6.90
6.63
6.37
6.14
5.96
5.76
5.49
5.10
4.63
4.18
3.83
3.64
3.54
3.41
3.10
2.56
1.84
1.08
0.41
-0.09
-0.46
-0.81
-1.27
-1.92
-2.75
-3.64
-4.43
-5.00
-5.26
-5.17
-4.75
-4.03
-3.08
-2.04
-1.07
-0.30
0.17
0.40
0.50
0.61
0.85
1.20
1.55
1.79
1.85
1.71
1.46
1.21
1.05
1.01
1.07
1.20
1.36
1.52
1.70
1.87
1.98
1.98
1.80
1.47
1.06
0.65
0.31
0.05
-0.17
-0.43
-0.79
-1.25
-1.76
-2.25
-2.66
-2.95
-3.11
-3.21
-3.34
-3.61
-4.09
-4.77
-5.51
-6.08
-6.22
-5.79
-4.82
-3.51
-2.16
-1.08
-0.40
-0.06
0.12
0.37
0.82
1.46
2.18
2.82
3.28
3.57
3.75
3.93
4.13
4.31
4.40
4.38
4.29
4.25
4.37
4.69
5.13
5.49
5.57
5.24
4.55
3.67
2.83
2.21
1.86
1.72
1.67
1.65
1.59
1.49
1.30
1.00
0.52
-0.13
-0.91
-1.66
-2.22
-2.46
-2.39
-2.13
-1.86
-1.77
-1.95
-2.33
-2.79
-3.17
-3.40
-3.53
-3.67
-3.90
-4.21
-4.46
-4.45
-4.04
-3.23
-2.18
-1.11
-0.22
0.43
0.86
1.20
1.52
1.86
2.21
2.54
2.85
3.12
3.32
3.44
3.46
3.45
3.47
3.56
3.69
3.75
3.65
3.39
3.06
2.84
2.83
3.01
3.22
3.28
3.05
2.55
1.91
1.33
0.97
0.89
1.07
1.36
1.62
1.70
1.54
1.16
0.66
0.21
-0.11
-0.28
-0.37
-0.47
-0.66
-0.96
-1.32
-1.67
-1.95
-2.13
-2.27
-2.42
-2.66
-2.99
-3.30
-3.46
-3.35
-2.92
-2.22
-1.38
-0.53
0.26
0.97
1.61
2.20
2.69
3.01
3.14
3.09
2.97
2.86
2.82
2.80
2.74
2.60
2.42
2.27
2.22
2.27
2.33
2.31
2.15
1.91
1.67
1.54
1.50
1.46
1.33
1.10
0.85
0.74
0.90
1.29
1.74
2.01
1.92
1.45
0.78
0.14
-0.27
-0.43
-0.47
-0.56
-0.84
-1.29
-1.79
-2.20
-2.41
-2.44
-2.40
-2.44
-2.62
-2.87
-3.04
-2.94
-2.49
-1.70
-0.74
0.16
0.81
1.17
1.27
1.25
1.22
1.23
1.24
1.15
0.95
0.68
0.45
0.39
0.56
0.94
1.44
1.92
2.27
2.41
2.36
2.16
1.86
1.50
1.08
0.61
0.12
-0.32
-0.65
-0.84
-0.90
-0.93
-1.02
-1.24
-1.54
-1.80
-1.90
-1.77
-1.50
-1.26
-1.21
-1.48
-2.01
-2.66
-3.25
-3.70
-4.00
-4.22
-4.42
-4.53
-4.47
-4.13
-3.51
-2.71
-1.90
-1.18
-0.58
-0.01
0.61
1.32
2.05
2.67
3.10
3.27
3.24
3.06
2.77
2.42
2.08
1.80
1.65
1.64
1.76
1.93
2.10
2.25
2.37
2.43
2.41
2.27
2.00
1.66
1.33
1.11
1.02
1.05
1.15
1.30
1.49
1.75
2.08
2.43
2.71
2.87
2.89
2.82
2.70
2.54
2.33
2.05
1.66
1.20
0.71
0.21
-0.28
-0.79
-1.31
-1.82
-2.29
-2.69
-3.04
-3.41
-3.82
-4.28
-4.68
-4.90
-4.85
-4.54
-4.06
-3.55
-3.11
-2.76
-2.44
-2.08
-1.63
-1.11
-0.58
-0.11
0.29
0.60
0.86
1.07
1.23
1.34
1.37
1.34
1.27
1.18
1.09
0.98
0.87
0.75
0.64
0.53
0.47
0.44
0.46
0.55
0.73
1.04
1.46
1.89
2.22
2.31
2.14
1.77
1.34
0.97
0.73
0.60
0.50
0.33
0.06
-0.30
-0.65
-0.94
-1.13
-1.25
-1.37
-1.58
-1.92
-2.39
-2.98
-3.63
-4.32
-5.04
-5.75
-6.37
-6.76
-6.76
-6.30
-5.40
-4.22
-3.02
-1.99
-1.25
-0.79
-0.52
-0.33
-0.17
0.00
0.21
0.51
0.97
1.60
2.33
2.98
3.35
3.29
2.84
2.19
1.63
1.38
1.51
1.94
2.46
2.87
3.09
3.12
3.01
2.82
2.55
2.20
1.80
1.41
1.07
0.80
0.57
0.34
0.07
-0.21
-0.45
-0.63
-0.73
-0.82
-0.92
-1.06
-1.25
-1.45
-1.70
-2.04
-2.49
-3.07
-3.71
-4.34
-4.91
-5.40
-5.85
-6.29
-6.73
-7.09
-7.24
-7.02
-6.35
-5.26
-3.88
-2.40
-1.01
0.18
1.11
1.84
2.42
2.91
3.33
3.68
3.93
4.08
4.13
4.12
4.07
3.97
3.85
3.70
3.57
3.48
3.45
3.46
3.50
3.51
3.48
3.40
3.27
3.07
2.78
2.37
1.85
1.28
0.75
0.34
0.09
-0.02
-0.10
-0.24
-0.51
-0.90
-1.31
-1.66
-1.89
-2.02
-2.15
-2.40
-2.81
-3.36
-3.95
-4.51
-5.01
-5.49
-5.98
-6.47
-6.86
-7.01
-6.82
-6.30
-5.58
-4.82
-4.20
-3.78
-3.52
-3.29
-2.95
-2.39
-1.59
-0.62
0.40
1.36
2.20
2.93
3.59
4.23
4.84
5.36
5.69
5.74
5.49
5.01
4.44
3.93
3.64
3.62
3.82
4.15
4.45
4.61
4.59
4.42
4.16
3.89
3.67
3.51
3.42
3.36
3.28
3.13
2.87
2.50
2.06
1.58
1.09
0.63
0.20
-0.16
-0.39
-0.46
-0.43
-0.42
-0.63
-1.16
-1.99
-2.92
-3.73
-4.22
-4.39
-4.37
-4.37
-4.52
-4.82
-5.17
-5.44
-5.52
-5.38
-5.02
-4.44
-3.66
-2.74
-1.76
-0.84
-0.09
0.46
0.88
1.27
1.72
2.23
2.69
2.97
2.98
2.77
2.50
2.40
2.63
3.23
4.09
5.03
5.85
6.46
6.82
6.99
6.98
6.78
6.39
5.80
5.10
4.43
3.91
3.58
3.37
3.10
2.62
1.84
0.76
-0.52
-1.84
-3.06
-4.07
-4.82
-5.34
-5.66
-5.80
-5.79
-5.61
-5.31
-4.92
-4.53
-4.21
-3.98
-3.86
-3.82
-3.87
-4.03
-4.28
-4.53
-4.63
-4.45
-3.93
-3.12
-2.19
-1.31
-0.60
-0.08
0.28
0.56
0.80
1.04
1.29
1.60
1.97
2.41
2.85
3.25
3.54
3.71
3.80
3.83
3.84
3.83
3.75
3.59
3.37
3.16
3.00
2.95
2.96
2.93
2.74
2.30
1.67
0.99
0.52
0.41
0.69
1.22
1.68
1.79
1.37
0.44
-0.79
-2.08
-3.19
-3.99
-4.44
-4.53
-4.30
-3.81
-3.20
-2.69
-2.51
-2.82
-3.62
-4.66
-5.63
-6.19
-6.16
-5.53
-4.45
-3.13
-1.78
-0.55
0.46
1.19
1.66
1.93
2.12
2.38
2.83
3.53
4.46
5.51
6.52
7.30
7.71
7.69
7.28
6.62
5.89
5.28
4.89
4.74
4.86
5.19
5.68
6.20
6.52
6.37
5.51
3.84
1.45
-1.37
-4.19
-6.64
-8.42
-9.38
-9.50
-8.91
-7.82
-6.50
-5.24
-4.24
-3.60
-3.27
-3.16
-3.17
-3.26
-3.42
-3.62
-3.82
-3.95
-4.00
-4.00
-4.08
-4.30
-4.64
-4.98
-5.18
-5.15
-4.91
-4.60
-4.33
-4.18
-4.16
-4.25
-4.47
-4.86
-5.47
-6.27
-7.18
-8.05
-8.74
-9.15
-9.19
-8.76
-7.78
-6.20
-4.08
-1.58
1.01
3.42
5.44
6.99
8.07
8.73
9.00
8.88
8.42
7.72
7.03
6.60
6.66
7.27
8.36
9.70
11.05
12.20
13.08
13.74
14.35
15.15
16.31
17.84
19.57
21.15
22.17
22.42
21.92
21.00
20.11
19.60
19.65
20.15
20.88
21.53
21.74
21.05
18.95
15.02
9.14
1.73
-6.39
-14.14
-20.65
-25.49
-28.73
-30.83
-32.31
-33.47
-34.29
-34.49
-33.69
-31.67
-28.51
-24.62
-20.65
-17.21
-14.70
-13.16
-12.36
-11.99
-11.90
-12.11
-12.72
-13.75
-14.96
-15.90
-16.10
-15.31
-13.65
-11.53
-9.49
-7.95
-7.05
-6.63
-6.39
-6.09
-5.66
-5.26
-5.14
-5.52
-6.47
-7.87
-9.52
-11.25
-13.01
-14.81
-16.76
-18.88
-21.07
-23.20
-25.10
-26.67
-27.92
-28.92
-29.80
-30.69
-31.76
-33.21
-35.25
-37.99
-41.39
-45.16
-48.82
-51.88
-53.87
-54.48
-53.52
-50.90
-46.64
-40.91
-34.03
-26.53
-19.02
-12.06
-6.02
-1.02
3.10
6.63
9.91
13.18
16.59
20.23
24.17
28.44
33.05
37.93
42.90
47.71
52.13
56.01
59.34
62.16
64.52
66.38
67.58
67.98
67.45
66.04
63.91
61.28
58.39
55.38
52.29
49.15
45.95
42.77
39.67
36.72
33.90
31.17
28.48
25.82
23.27
20.90
18.74
16.75
14.77
12.68
10.49
8.31
6.37
4.87
3.85
3.22
2.86
2.66
2.61
2.76
3.13
3.65
4.19
4.61
4.80
4.78
4.58
4.25
3.84
3.39
2.91
2.46
2.08
1.80
1.60
1.48
1.43
1.40
1.35
1.20
0.86
0.30
-0.43
-1.20
-1.81
-2.12
-2.08
-1.75
-1.25
-0.77
-0.44
-0.34
-0.49
-0.87
-1.43
-2.09
-2.77
-3.38
-3.85
-4.18
-4.40
-4.61
-4.84
-5.11
-5.39
-5.63
-5.83
-6.03
-6.26
-6.53
-6.75
-6.84
-6.72
-6.43
-6.05
-5.72
-5.51
-5.43
-5.40
-5.34
-5.20
-5.00
-4.76
-4.50
-4.19
-3.79
-3.29
-2.71
-2.13
-1.63
-1.27
-1.05
-0.93
-0.87
-0.81
-0.71
-0.56
-0.33
-0.07
0.16
0.27
0.19
-0.10
-0.52
-0.91
-1.15
-1.16
-1.01
-0.81
-0.68
-0.66
-0.73
-0.81
-0.84
-0.79
-0.69
-0.60
-0.55
-0.57
-0.64
-0.79
-1.04
-1.39
-1.81
-2.18
-2.39
-2.36
-2.13
-1.85
-1.67
-1.69
-1.92
-2.27
-2.62
-2.92
-3.16
-3.40
-3.68
-3.99
-4.26
-4.37
-4.25
-3.91
-3.40
-2.82
-2.22
-1.63
-1.01
-0.37
0.30
0.92
1.44
1.81
2.03
2.14
2.16
2.13
2.06
2.00
1.98
2.05
2.21
2.39
2.52
2.54
2.43
2.22
1.95
1.61
1.17
0.64
0.11
-0.30
-0.45
-0.34
-0.08
0.12
0.06
-0.29
-0.85
-1.43
-1.83
-1.99
-1.97
-1.94
-2.03
-2.29
-2.71
-3.20
-3.67
-4.08
-4.40
-4.60
-4.65
-4.55
-4.35
-4.18
-4.21
-4.56
-5.25
-6.16
-7.06
-7.71
-7.91
-7.60
-6.82
-5.73
-4.49
-3.30
-2.27
-1.47
-0.90
-0.47
-0.07
0.43
1.06
1.82
2.57
3.18
3.51
3.53
3.30
2.93
2.57
2.31
2.17
2.11
2.08
2.00
1.78
1.32
0.55
-0.53
-1.84
-3.24
-4.52
-5.55
-6.24
-6.61
-6.75
-6.78
-6.85
-7.06
-7.46
-7.98
-8.49
-8.77
-8.67
-8.11
-7.11
-5.76
-4.16
-2.38
-0.51
1.35
3.05
4.45
5.40
5.88
5.92
5.68
5.33
5.05
4.96
5.12
5.50
6.03
6.62
7.20
7.71
8.13
8.42
8.58
8.57
8.39
8.07
7.64
7.14
6.62
6.14
5.76
5.54
5.50
5.60
5.70
5.67
5.41
4.90
4.24
3.56
3.01
2.69
2.58
2.62
2.70
2.76
2.78
2.78
2.79
2.77
2.65
2.39
1.98
1.47
0.95
0.44
-0.07
-0.64
-1.28
-1.97
-2.61
-3.11
-3.46
-3.72
-4.03
-4.47
-5.05
-5.67
-6.19
-6.51
-6.60
-6.49
-6.25
-5.91
-5.49
-5.00
-4.41
-3.72
-2.97
-2.20
-1.49
-0.90
-0.49
-0.28
-0.25
-0.35
-0.51
-0.64
-0.67
-0.58
-0.38
-0.17
-0.02
-0.00
-0.11
-0.29
-0.47
-0.58
-0.61
-0.58
-0.53
-0.49
-0.48
-0.51
-0.59
-0.74
-0.97
-1.24
-1.52
-1.80
-2.15
-2.64
-3.36
-4.26
-5.19
-5.95
-6.37
-6.43
-6.24
-5.98
-5.76
-5.56
-5.30
-4.92
-4.45
-4.03
-3.83
-3.93
-4.25
-4.56
-4.67
-4.46
-4.00
-3.43
-2.89
-2.41
-1.90
-1.25
-0.39
0.60
1.57
2.33
2.78
2.92
2.88
2.79
2.74
2.74
2.76
2.79
2.83
2.93
3.13
3.41
3.70
3.89
3.92
3.77
3.45
3.02
2.57
2.18
1.94
1.88
1.95
2.06
2.07
1.91
1.56
1.11
0.66
0.29
0.01
-0.22
-0.44
-0.66
-0.86
-0.98
-0.99
-0.91
-0.82
-0.85
-1.11
-1.65
-2.45
-3.37
-4.24
-4.91
-5.28
-5.35
-5.15
-4.76
-4.22
-3.58
-2.86
-2.10
-1.34
-0.62
0.04
0.68
1.33
2.04
2.84
3.69
4.52
5.25
5.80
6.16
6.39
6.59
6.87
7.26
7.68
8.01
8.11
7.96
7.66
7.41
7.41
7.69
8.10
8.33
8.03
6.97
5.14
2.74
0.07
-2.52
-4.80
-6.60
-7.85
-8.55
-8.80
-8.71
-8.47
-8.25
-8.14
-8.18
-8.28
-8.37
-8.39
-8.29
-8.07
-7.77
-7.40
-7.06
-6.84
-6.84
-7.06
-7.44
-7.81
-7.98
-7.80
-7.24
-6.35
-5.26
-4.06
-2.88
-1.76
-0.75
0.10
0.79
1.30
1.64
1.86
2.00
2.14
2.32
2.59
2.95
3.37
3.81
4.17
4.43
4.57
4.62
4.65
4.70
4.80
4.89
4.89
4.72
4.34
3.78
3.15
2.57
2.14
1.88
1.72
1.58
1.38
1.05
0.56
-0.08
-0.82
-1.59
-2.31
-2.91
-3.38
-3.74
-4.08
-4.46
-4.93
-5.49
-6.08
-6.61
-6.98
-7.12
-7.01
-6.67
-6.13
-5.43
-4.58
-3.57
-2.40
-1.12
0.20
1.47
2.62
3.63
4.54
5.40
6.27
7.12
7.86
8.36
8.48
8.17
7.51
6.67
5.93
5.51
5.50
5.80
6.16
6.34
6.19
5.73
5.10
4.50
4.01
3.62
3.24
2.79
2.28
1.83
1.57
1.61
1.91
2.34
2.70
2.86
2.74
2.38
1.86
1.28
0.70
0.18
-0.28
-0.69
-1.12
-1.60
-2.13
-2.62
-2.91
-2.81
-2.21
-1.14
0.28
1.84
3.39
4.89
6.43
8.12
10.04
12.12
14.24
16.23
18.00
19.54
20.91
22.20
23.49
24.82
26.21
27.54
28.58
28.91
28.05
25.61
21.47
15.90
9.53
3.12
-2.68
-7.46
-11.18
-13.97
-16.06
-17.64
-18.87
-19.91
-20.95
-22.18
-23.74
-25.65
-27.80
-30.01
-32.03
-33.69
-34.82
-35.35
-35.27
-34.62
-33.55
-32.25
-30.89
-29.57
-28.26
-26.86
-25.24
-23.31
-21.10
-18.75
-16.42
-14.19
-12.11
-10.16
-8.30
-6.56
-4.99
-3.63
-2.48
-1.42
-0.31
0.96
2.42
3.99
5.50
6.79
7.79
8.51
9.05
9.50
9.86
10.09
10.12
9.92
9.51
8.97
8.38
7.82
7.33
6.92
6.61
6.38
6.23
6.16
6.14
6.14
6.12
6.04
5.86
5.56
5.14
4.63
4.06
3.45
2.81
2.19
1.64
1.26
1.11
1.20
1.46
1.72
1.81
1.64
1.25
0.77
0.34
0.10
0.07
0.19
0.32
0.33
0.15
-0.25
-0.77
-1.28
-1.63
-1.70
-1.45
-0.93
-0.23
0.55
1.36
2.21
3.11
4.08
5.08
6.04
6.86
7.46
7.81
7.93
7.88
7.76
7.64
7.54
7.46
7.35
7.15
6.83
6.39
5.87
5.34
4.87
4.49
4.20
3.93
3.61
3.19
2.68
2.15
1.68
1.31
0.98
0.53
-0.18
-1.24
-2.61
-4.15
-5.69
-7.08
-8.24
-9.19
-9.94
-10.50
-10.81
-10.84
-10.57
-10.03
-9.35
-8.63
-7.96
-7.31
-6.61
-5.77
-4.76
-3.68
-2.67
-1.85
-1.30
-0.95
-0.69
-0.39
-0.00
0.41
0.77
0.97
1.04
1.06
1.12
1.34
1.69
2.09
2.36
2.39
2.11
1.61
1.02
0.52
0.15
-0.09
-0.31
-0.57
-0.86
-1.13
-1.31
-1.38
-1.40
-1.44
-1.61
-1.95
-2.46
-3.10
-3.80
-4.44
-4.88
-4.99
-4.67
-3.91
-2.82
-1.58
-0.39
0.64
1.49
2.19
2.82
3.38
3.89
4.30
4.55
4.65
4.58
4.40
4.15
3.91
3.72
3.64
3.68
3.85
4.09
4.33
4.49
4.50
4.32
3.94
3.35
2.55
1.58
0.53
-0.50
-1.43
-2.22
-2.91
-3.59
-4.37
-5.29
-6.28
-7.22
-7.95
-8.31
-8.23
-7.70
-6.85
-5.89
-5.06
-4.60
-4.60
-5.06
-5.88
-6.95
-8.11
-9.25
-10.20
-10.74
-10.68
-9.88
-8.36
-6.28
-3.87
-1.39
0.95
3.04
4.81
6.28
7.52
8.64
9.76
10.97
12.28
13.55
14.58
15.17
15.21
14.74
13.94
13.06
12.28
11.67
11.22
10.82
10.37
9.82
9.17
8.45
7.67
6.87
6.06
5.21
4.29
3.17
1.69
-0.21
-2.51
-5.05
-7.55
-9.72
-11.34
-12.31
-12.60
-12.30
-11.55
-10.56
-9.58
-8.80
-8.31
-8.07
-7.94
-7.82
-7.63
-7.39
-7.10
-6.68
-6.02
-5.00
-3.65
-2.12
-0.65
0.57
1.50
2.28
3.08
3.99
4.99
5.90
6.53
6.78
6.63
6.21
5.67
5.17
4.78
4.50
4.27
4.02
3.70
3.32
2.97
2.71
2.57
2.53
2.49
2.38
2.16
1.89
1.63
1.45
1.34
1.23
1.01
0.64
0.12
-0.44
-0.92
-1.25
-1.41
-1.48
-1.59
-1.88
-2.41
-3.16
-4.01
-4.76
-5.25
-5.40
-5.18
-4.64
-3.84
-2.81
-1.59
-0.26
1.08
2.27
3.22
3.88
4.29
4.52
4.61
4.58
4.41
4.12
3.75
3.42
3.20
3.14
3.23
3.41
3.62
3.82
3.95
3.96
3.78
3.41
2.80
1.96
0.86
-0.47
-1.94
-3.40
-4.64
-5.56
-6.17
-6.62
-7.10
-7.73
-8.44
-9.07
-9.44
-9.43
-9.06
-8.46
-7.75
-6.98
-6.18
-5.35
-4.48
-3.64
-2.84
-2.09
-1.38
-0.67
0.08
0.93
1.95
3.15
4.51
5.91
7.17
8.11
8.66
8.84
8.77
8.56
8.29
7.93
7.44
6.76
5.89
4.88
3.83
2.80
1.83
0.96
0.21
-0.37
-0.81
-1.13
-1.44
-1.84
-2.39
-3.08
-3.76
-4.25
-4.36
-4.01
-3.23
-2.15
-0.94
0.20
1.14
1.82
2.26
2.56
2.85
3.23
3.69
4.16
4.53
4.70
4.65
4.45
4.21
4.05
4.01
4.02
3.97
3.76
3.35
2.82
2.26
1.75
1.35
1.06
0.85
0.70
0.60
0.51
0.37
0.13
-0.28
-0.85
-1.53
-2.25
-2.94
-3.59
-4.22
-4.85
-5.44
-5.91
-6.15
-6.06
-5.59
-4.78
-3.71
-2.54
-1.45
-0.53
0.18
0.73
1.24
1.79
2.40
3.03
3.60
4.03
4.30
4.43
4.43
4.32
4.08
3.71
3.22
2.64
2.03
1.46
0.99
0.70
0.67
0.92
1.38
1.89
2.26
2.37
2.22
1.93
1.67
1.53
1.50
1.46
1.27
0.86
0.28
-0.37
-1.01
-1.61
-2.19
-2.80
-3.45
-4.12
-4.75
-5.33
-5.85
-6.29
-6.58
-6.57
-6.10
-5.09
-3.61
-1.92
-0.35
0.78
1.32
1.32
1.03
0.74
0.69
0.94
1.43
2.00
2.51
2.90
3.17
3.40
3.65
3.93
4.22
4.44
4.57
4.61
4.63
4.72
4.97
5.38
5.91
6.45
6.84
6.88
6.37
5.19
3.30
0.87
-1.82
-4.40
-6.54
-8.06
-8.92
-9.25
-9.25
-9.11
-8.99
-8.95
-9.02
-9.18
-9.38
-9.57
-9.73
-9.86
-9.98
-10.13
-10.28
-10.33
-10.18
-9.76
-9.10
-8.32
-7.56
-6.92
-6.37
-5.84
-5.25
-4.59
-3.89
-3.22
-2.56
-1.85
-1.03
-0.08
0.88
1.69
2.18
2.27
1.98
1.41
0.68
-0.14
-0.95
-1.73
-2.41
-2.99
-3.44
-3.76
-3.95
-4.03
-4.01
-3.92
-3.80
-3.66
-3.48
-3.23
-2.95
-2.68
-2.56
-2.68
-3.05
-3.58
-4.08
-4.39
-4.44
-4.26
-3.91
-3.47
-2.92
-2.22
-1.36
-0.41
0.52
1.35
2.02
2.59
3.15
3.76
4.49
5.36
6.38
7.55
8.84
10.19
11.48
12.55
13.32
13.76
13.89
13.81
13.60
13.30
12.93
12.49
11.98
11.41
10.83
10.24
9.65
9.02
8.30
7.45
6.48
5.47
4.56
3.84
3.36
3.07
2.90
2.75
2.61
2.48
2.38
2.26
2.04
1.64
1.03
0.31
-0.37
-0.79
-0.83
-0.44
0.23
0.97
1.53
1.71
1.45
0.85
0.11
-0.52
-0.88
-0.91
-0.72
-0.46
-0.33
-0.40
-0.67
-1.05
-1.44
-1.80
-2.12
-2.45
-2.79
-3.10
-3.32
-3.37
-3.22
-2.85
-2.28
-1.53
-0.61
0.42
1.47
2.42
3.13
3.57
3.73
3.72
3.64
3.57
3.58
3.69
3.90
4.18
4.44
4.62
4.65
4.54
4.39
4.30
4.37
4.60
4.92
5.23
5.45
5.54
5.52
5.40
5.23
5.06
4.96
4.96
5.07
5.20
5.27
5.17
4.93
4.61
4.35
4.26
4.30
4.36
4.28
3.95
3.33
2.49
1.58
0.74
-0.01
-0.70
-1.34
-1.97
-2.66
-3.43
-4.21
-4.82
-4.99
-4.59
-3.57
-1.96
0.08
2.27
4.27
5.78
6.62
6.82
6.38
5.52
4.64
4.08
3.92
4.02
4.19
4.46
5.18
6.41
8.47
11.87
16.79
22.70
28.46
32.91
35.38
35.87
33.77
29.34
23.76
18.30
13.49
9.13
4.93
1.05
-1.85
-4.90
-8.52
-12.11
-15.02
-17.54
-20.90
-26.67
-36.37
-51.21
-74.11
-105.21
-140.59
-173.80
-199.07
-213.65
-218.61
-218.08
-201.43
-167.47
-124.47
-82.65
-45.96
-13.31
16.71
43.98
67.55
86.76
99.10
103.68
101.70
95.49
87.10
78.02
69.54
62.79
58.33
54.27
49.28
43.75
38.86
35.34
33.02
31.23
29.47
27.65
24.95
21.46
18.17
16.16
15.62
15.85
15.87
15.03
13.24
10.36
6.75
3.23
0.56
-1.02
-1.61
-1.58
-1.25
-0.79
-0.40
-0.14
0.13
0.51
0.95
1.29
1.37
1.13
0.69
0.21
-0.18
-0.42
-0.53
-0.55
-0.48
-0.26
0.21
0.99
2.07
3.35
4.71
6.01
7.20
8.25
9.19
10.04
10.82
11.53
12.20
12.82
13.36
13.73
13.82
13.51
12.82
11.89
10.98
10.30
9.96
9.89
9.95
9.99
9.95
9.82
9.60
9.24
8.61
7.66
6.40
4.94
3.45
2.06
0.78
-0.48
-1.78
-3.18
-4.61
-5.93
-7.00
-7.73
-8.14
-8.35
-8.57
-9.04
-9.90
-11.12
-12.53
-13.93
-15.17
-16.27
-17.38
-18.66
-20.18
-21.78
-23.17
-24.02
-24.10
-23.39
-22.06
-20.36
-18.54
-16.76
-15.12
-13.75
-12.84
-12.57
-13.01
-13.92
-14.73
-14.66
-13.09
-9.86
-5.41
-0.54
3.91
7.49
10.19
12.26
13.92
15.15
15.77
15.59
14.75
13.66
12.86
12.72
13.29
14.25
15.21
15.84
16.07
15.96
15.66
15.20
14.50
13.44
11.92
9.97
7.71
5.24
2.51
-0.68
-4.61
-9.37
-14.82
-20.49
-25.87
-30.59
-34.62
-38.18
-41.49
-44.51
-46.90
-48.17
-47.97
-46.36
-43.79
-40.86
-38.04
-35.44
-32.93
-30.39
-27.92
-25.91
-24.86
-25.13
-26.67
-29.08
-31.79
-34.36
-36.69
-38.94
-41.33
-43.86
-46.18
-47.74
-48.00
-46.69
-43.85
-39.69
-34.46
-28.30
-21.34
-13.76
-5.89
1.80
8.91
15.27
20.99
26.34
31.57
36.71
41.62
46.06
49.86
53.04
55.72
58.05
60.07
61.72
62.82
63.24
62.91
61.92
60.38
58.46
56.26
53.87
51.30
48.59
45.79
43.03
40.45
38.13
36.07
34.14
32.17
30.01
27.71
25.43
23.44
21.88
20.69
19.68
18.57
17.22
15.67
14.11
12.75
11.65
10.74
9.85
8.86
7.76
6.68
5.80
5.18
4.77
4.41
3.94
3.32
2.64
2.05
1.68
1.51
1.47
1.46
1.42
1.41
1.50
1.70
1.95
2.09
2.03
1.74
1.32
0.93
0.69
0.65
0.80
1.06
1.33
1.57
1.73
1.84
1.87
1.83
1.66
1.34
0.84
0.22
-0.48
-1.18
-1.84
-2.47
-3.08
-3.71
-4.33
-4.88
-5.29
-5.50
-5.48
-5.25
-4.88
-4.46
-4.09
-3.85
-3.80
-3.93
-4.20
-4.50
-4.73
-4.79
-4.64
-4.28
-3.72
-3.03
-2.27
-1.53
-0.92
-0.51
-0.32
-0.35
-0.56
-0.89
-1.30
-1.77
-2.31
-2.90
-3.55
-4.23
-4.91
-5.52
-6.01
-6.32
-6.39
-6.21
-5.84
-5.37
-4.89
-4.45
-4.07
-3.77
-3.54
-3.44
-3.49
-3.71
-4.02
-4.35
-4.60
-4.68
-4.56
-4.22
-3.63
-2.80
-1.80
-0.77
0.10
0.67
0.89
0.88
0.86
1.03
1.46
2.07
2.67
3.09
3.25
3.22
3.12
3.08
3.07
2.97
2.59
1.77
0.52
-0.97
-2.42
-3.53
-4.09
-4.08
-3.62
-2.92
-2.25
-1.78
-1.60
-1.67
-1.87
-2.05
-2.11
-2.00
-1.77
-1.48
-1.17
-0.87
-0.60
-0.41
-0.39
-0.59
-1.01
-1.55
-2.10
-2.55
-2.90
-3.19
-3.47
-3.76
-3.93
-3.85
-3.40
-2.57
-1.46
-0.27
0.85
1.79
2.58
3.28
3.95
4.56
5.01
5.16
4.91
4.29
3.38
2.37
1.49
0.94
0.88
1.45
2.63
4.27
6.09
7.69
8.78
9.21
9.07
8.64
8.24
8.08
8.16
8.34
8.38
8.09
7.40
6.39
5.21
4.03
2.95
2.01
1.15
0.24
-0.92
-2.57
-4.94
-8.18
-12.25
-16.84
-21.39
-25.18
-27.60
-28.31
-27.38
-25.25
-22.57
-19.98
-17.93
-16.61
-15.97
-15.86
-16.11
-16.59
-17.18
-17.80
-18.35
-18.74
-18.95
-18.98
-18.90
-18.78
-18.67
-18.61
-18.66
-18.90
-19.33
-19.90
-20.40
-20.54
-19.97
-18.44
-15.85
-12.26
-7.88
-2.93
2.32
7.65
12.80
17.49
21.46
24.49
26.46
27.40
27.47
26.94
26.08
25.13
24.23
23.38
22.52
21.60
20.59
19.56
18.59
17.75
17.05
16.41
15.68
14.76
13.59
12.26
10.96
9.88
9.14
8.72
8.42
7.97
7.15
5.94
4.49
3.11
2.08
1.52
1.36
1.38
1.34
1.10
0.62
-0.08
-0.89
-1.75
-2.61
-3.40
-4.04
-4.48
-4.67
-4.66
-4.52
-4.37
-4.28
-4.26
-4.25
-4.17
-3.96
-3.64
-3.24
-2.85
-2.53
-2.32
-2.25
-2.34
-2.57
-2.90
-3.21
-3.44
-3.52
-3.51
-3.49
-3.57
-3.76
-4.00
-4.13
-4.03
-3.64
-3.02
-2.29
-1.60
-1.03
-0.59
-0.23
0.12
0.49
0.86
1.21
1.49
1.69
1.88
2.10
2.36
2.60
2.72
2.65
2.39
2.05
1.77
1.64
1.67
1.74
1.70
1.47
1.00
0.37
-0.31
-0.91
-1.33
-1.53
-1.55
-1.45
-1.36
-1.33
-1.40
-1.54
-1.71
-1.93
-2.25
-2.75
-3.49
-4.41
-5.36
-6.17
-6.66
-6.79
-6.59
-6.17
-5.63
-5.03
-4.37
-3.66
-2.87
-2.05
-1.24
-0.52
0.09
0.58
1.01
1.43
1.86
2.31
2.73
3.07
3.26
3.29
3.24
3.20
3.25
3.42
3.64
3.84
3.92
3.88
3.76
3.62
3.48
3.30
3.06
2.71
2.26
1.76
1.29
0.89
0.55
0.25
-0.09
-0.49
-0.99
-1.56
-2.10
-2.55
-2.81
-2.90
-2.83
-2.61
-2.21
-1.59
-0.72
0.29
1.26
1.92
2.12
1.90
1.47
1.09
0.96
1.14
1.52
1.97
2.41
2.86
3.35
3.89
4.40
4.73
4.78
4.52
4.05
3.53
3.08
2.75
2.44
2.06
1.54
0.91
0.25
-0.31
-0.72
-1.01
-1.26
-1.57
-1.99
-2.50
-3.01
-3.44
-3.69
-3.71
-3.48
-3.00
-2.32
-1.56
-0.83
-0.26
0.10
0.27
0.30
0.27
0.23
0.18
0.10
0.01
-0.04
0.00
0.21
0.57
1.00
1.36
1.48
1.26
0.72
-0.01
-0.70
-1.15
-1.23
-0.99
-0.61
-0.27
-0.13
-0.21
-0.50
-0.93
-1.45
-2.02
-2.55
-2.93
-3.01
-2.71
-2.06
-1.24
-0.44
0.16
0.50
0.66
0.79
1.00
1.33
1.70
2.02
2.20
2.23
2.13
1.93
1.64
1.27
0.81
0.30
-0.18
-0.54
-0.75
-0.83
-0.90
-1.05
-1.32
-1.67
-2.04
-2.38
-2.71
-3.07
-3.50
-3.92
-4.23
-4.34
-4.26
-4.08
-3.97
-4.00
-4.18
-4.40
-4.57
-4.66
-4.69
-4.71
-4.71
-4.65
-4.46
-4.11
-3.62
-3.02
-2.41
-1.81
-1.24
-0.69
-0.18
0.31
0.75
1.09
1.30
1.39
1.42
1.50
1.69
2.01
2.36
2.61
2.66
2.51
2.30
2.18
2.24
2.46
2.71
2.82
2.71
2.44
2.15
2.00
2.05
2.28
2.55
2.68
2.54
2.11
1.46
0.76
0.18
-0.15
-0.21
-0.08
0.09
0.19
0.13
-0.07
-0.38
-0.75
-1.15
-1.59
-2.04
-2.47
-2.81
-3.00
-3.00
-2.86
-2.70
-2.65
-2.85
-3.35
-4.11
-4.97
-5.75
-6.21
-6.26
-5.88
-5.17
-4.27
-3.31
-2.37
-1.49
-0.68
0.05
0.69
1.25
1.75
2.24
2.73
3.22
3.65
3.98
4.16
4.23
4.21
4.15
4.10
4.06
4.03
4.02
4.02
4.04
4.05
4.02
3.92
3.68
3.29
2.73
2.06
1.34
0.67
0.09
-0.39
-0.82
-1.24
-1.63
-1.95
-2.11
-2.09
-1.96
-1.88
-1.96
-2.28
-2.78
-3.32
-3.73
-3.95
-3.97
-3.90
-3.86
-3.90
-4.05
-4.25
-4.44
-4.57
-4.63
-4.61
-4.50
-4.24
-3.82
-3.23
-2.53
-1.79
-1.09
-0.44
0.20
0.85
1.54
2.22
2.77
3.10
3.15
2.97
2.67
2.37
2.12
1.93
1.72
1.44
1.09
0.76
0.54
0.53
0.73
1.05
1.37
1.56
1.54
1.36
1.07
0.77
0.53
0.36
0.25
0.14
-0.05
-0.36
-0.78
-1.28
-1.78
-2.21
-2.54
-2.74
-2.82
-2.79
-2.73
-2.73
-2.90
-3.32
-3.95
-4.63
-5.15
-5.35
-5.13
-4.55
-3.74
-2.82
-1.87
-0.96
-0.09
0.69
1.36
1.89
2.28
2.58
2.81
2.95
2.97
2.84
2.59
2.33
2.16
2.14
2.24
2.34
2.32
2.12
1.78
1.44
1.26
1.35
1.72
2.27
2.84
3.22
3.27
2.98
2.44
1.84
1.38
1.14
1.11
1.20
1.30
1.39
1.51
1.72
1.99
2.22
2.27
2.05
1.61
1.05
0.51
0.07
-0.25
-0.48
-0.65
-0.70
-0.60
-0.36
-0.03
0.26
0.45
0.51
0.50
0.45
0.36
0.20
-0.07
-0.46
-0.90
-1.29
-1.53
-1.61
-1.56
-1.44
-1.28
-1.07
-0.78
-0.41
0.01
0.37
0.56
0.50
0.21
-0.27
-0.82
-1.36
-1.83
-2.19
-2.43
-2.54
-2.54
-2.49
-2.50
-2.61
-2.85
-3.16
-3.44
-3.57
-3.50
-3.23
-2.79
-2.22
-1.50
-0.59
0.49
1.69
2.83
3.74
4.27
4.38
4.15
3.73
3.28
2.95
2.77
2.73
2.78
2.85
2.88
2.86
2.77
2.64
2.51
2.40
2.28
2.12
1.89
1.57
1.19
0.81
0.48
0.25
0.13
0.14
0.29
0.58
0.95
1.33
1.61
1.70
1.64
1.54
1.56
1.82
2.34
3.07
3.88
4.70
5.49
6.27
7.05
7.78
8.37
8.69
8.67
8.25
7.46
6.36
5.02
3.50
1.89
0.22
-1.43
-3.04
-4.56
-5.96
-7.21
-8.28
-9.11
-9.68
-9.97
-9.98
-9.73
-9.28
-8.71
-8.08
-7.41
-6.66
-5.78
-4.72
-3.51
-2.20
-0.91
0.22
1.07
1.61
1.82
1.79
1.63
1.49
1.47
1.61
1.90
2.27
2.66
3.04
3.41
3.81
4.28
4.77
5.21
5.50
5.58
5.45
5.16
4.78
4.40
4.03
3.69
3.38
3.09
2.81
2.53
2.19
1.75
1.19
0.57
0.01
-0.37
-0.48
-0.37
-0.12
0.09
0.16
0.04
-0.21
-0.49
-0.69
-0.75
-0.67
-0.54
-0.45
-0.43
-0.49
-0.56
-0.56
-0.48
-0.36
-0.26
-0.21
-0.15
0.03
0.43
0.98
1.54
1.87
1.83
1.45
0.90
0.41
0.15
0.11
0.20
0.27
0.24
0.11
-0.06
-0.25
-0.44
-0.66
-0.90
-1.15
-1.37
-1.50
-1.55
-1.54
-1.52
-1.55
-1.65
-1.83
-2.05
-2.25
-2.39
-2.47
-2.52
-2.59
-2.70
-2.80
-2.79
-2.60
-2.19
-1.63
-1.03
-0.51
-0.15
0.07
0.24
0.43
0.71
1.04
1.38
1.66
1.83
1.87
1.81
1.67
1.47
1.23
1.00
0.80
0.65
0.57
0.53
0.52
0.53
0.51
0.40
0.16
-0.22
-0.69
-1.17
-1.53
-1.71
-1.75
-1.79
-1.97
-2.33
-2.80
-3.19
-3.34
-3.19
-2.88
-2.63
-2.60
-2.83
-3.20
-3.53
-3.67
-3.61
-3.41
-3.16
-2.87
-2.48
-1.94
-1.27
-0.57
0.01
0.36
0.48
0.48
0.50
0.62
0.85
1.13
1.38
1.55
1.61
1.57
1.48
1.37
1.28
1.27
1.31
1.37
1.35
1.20
0.95
0.71
0.57
0.59
0.69
0.75
0.65
0.34
-0.12
-0.62
-1.06
-1.42
-1.73
-2.04
-2.40
-2.77
-3.12
-3.37
-3.49
-3.50
-3.47
-3.50
-3.68
-4.04
-4.52
-4.98
-5.30
-5.38
-5.24
-4.95
-4.55
-4.06
-3.44
-2.64
-1.73
-0.79
0.02
0.62
0.99
1.24
1.50
1.83
2.24
2.63
2.89
2.93
2.77
2.48
2.16
1.93
1.83
1.86
1.95
2.04
2.06
2.00
1.88
1.77
1.69
1.66
1.63
1.54
1.35
1.06
0.73
0.42
0.15
-0.12
-0.44
-0.84
-1.29
-1.71
-2.01
-2.16
-2.24
-2.35
-2.56
-2.87
-3.20
-3.46
-3.64
-3.77
-3.92
-4.10
-4.23
-4.18
-3.83
-3.19
-2.36
-1.51
-0.78
-0.22
0.18
0.52
0.87
1.25
1.67
2.07
2.42
2.68
2.83
2.92
2.97
3.03
3.08
3.10
3.02
2.82
2.50
2.11
1.73
1.40
1.13
0.87
0.59
0.28
-0.05
-0.36
-0.64
-0.89
-1.13
-1.36
-1.57
-1.73
-1.84
-1.91
-1.97
-2.08
-2.29
-2.62
-3.05
-3.50
-3.88
-4.07
-3.96
-3.53
-2.80
-1.90
-0.96
-0.15
0.47
0.85
0.99
0.93
0.71
0.39
0.06
-0.18
-0.25
-0.13
0.11
0.37
0.53
0.52
0.37
0.13
-0.11
-0.30
-0.42
-0.51
-0.60
-0.70
-0.82
-0.92
-0.98
-1.01
-1.03
-1.10
-1.27
-1.58
-2.03
-2.61
-3.27
-3.96
-4.60
-5.09
-5.33
-5.20
-4.68
-3.83
-2.82
-1.86
-1.08
-0.52
-0.08
0.36
0.91
1.60
2.39
3.16
3.83
4.30
4.53
4.54
4.40
4.23
4.11
4.09
4.10
4.05
3.88
3.63
3.44
3.42
3.63
3.95
4.22
4.25
3.99
3.53
3.02
2.60
2.33
2.14
1.94
1.66
1.27
0.83
0.43
0.12
-0.12
-0.37
-0.76
-1.36
-2.18
-3.07
-3.83
-4.23
-4.16
-3.62
-2.75
-1.71
-0.69
0.23
1.03
1.80
2.57
3.37
4.11
4.67
4.92
4.81
4.40
3.90
3.50
3.33
3.36
3.47
3.47
3.29
2.96
2.62
2.38
2.28
2.23
2.13
1.90
1.55
1.20
0.96
0.85
0.81
0.71
0.45
-0.02
-0.62
-1.24
-1.74
-2.08
-2.26
-2.35
-2.43
-2.53
-2.65
-2.81
-3.01
-3.32
-3.82
-4.54
-5.40
-6.22
-6.77
-6.89
-6.52
-5.77
-4.80
-3.76
-2.73
-1.71
-0.68
0.33
1.26
2.02
2.56
2.91
3.14
3.32
3.49
3.64
3.79
3.92
4.05
4.15
4.21
4.22
4.15
4.02
3.86
3.70
3.51
3.26
2.91
2.49
2.03
1.59
1.23
0.94
0.73
0.56
0.38
0.18
-0.06
-0.32
-0.56
-0.74
-0.83
-0.86
-0.94
-1.21
-1.81
-2.75
-3.93
-5.10
-5.96
-6.30
-6.05
-5.27
-4.15
-2.90
-1.69
-0.63
0.24
0.93
1.47
1.90
2.25
2.57
2.85
3.06
3.17
3.13
2.98
2.78
2.63
2.60
2.68
2.81
2.88
2.80
2.57
2.26
2.00
1.89
1.96
2.12
2.22
2.09
1.65
0.91
0.02
-0.83
-1.49
-1.89
-2.08
-2.17
-2.24
-2.34
-2.48
-2.67
-2.94
-3.37
-3.99
-4.74
-5.43
-5.81
-5.69
-5.03
-3.95
-2.68
-1.44
-0.37
0.52
1.29
2.00
2.63
3.16
3.51
3.63
3.55
3.29
2.93
2.57
2.28
2.17
2.26
2.53
2.89
3.17
3.24
3.01
2.53
1.92
1.35
0.95
0.78
0.79
0.89
0.98
0.98
0.87
0.66
0.37
-0.01
-0.48
-1.04
-1.63
-2.17
-2.59
-2.88
-3.11
-3.39
-3.80
-4.33
-4.85
-5.19
-5.19
-4.82
-4.12
-3.24
-2.29
-1.35
-0.45
0.37
1.10
1.68
2.08
2.31
2.42
2.48
2.55
2.66
2.80
2.97
3.18
3.44
3.70
3.89
3.90
3.65
3.14
2.51
1.91
1.49
1.23
1.03
0.76
0.35
-0.16
-0.62
-0.91
-1.01
-1.01
-1.08
-1.33
-1.79
-2.39
-2.99
-3.50
-3.90
-4.20
-4.43
-4.59
-4.67
-4.68
-4.63
-4.55
-4.46
-4.37
-4.21
-3.95
-3.51
-2.87
-2.02
-0.98
0.21
1.50
2.81
4.05
5.12
5.97
6.53
6.80
6.78
6.54
6.20
5.89
5.74
5.81
6.03
6.25
6.29
6.06
5.59
4.99
4.39
3.85
3.35
2.82
2.25
1.68
1.21
0.86
0.61
0.34
-0.07
-0.67
-1.38
-2.02
-2.44
-2.60
-2.57
-2.50
-2.53
-2.73
-3.05
-3.44
-3.83
-4.20
-4.58
-4.97
-5.40
-5.83
-6.25
-6.63
-6.95
-7.14
-7.12
-6.80
-6.13
-5.19
-4.14
-3.14
-2.29
-1.54
-0.78
0.14
1.29
2.56
3.74
4.61
4.98
4.87
4.42
3.87
3.48
3.40
3.64
4.10
4.61
5.01
5.26
5.36
5.34
5.24
5.02
4.65
4.14
3.52
2.90
2.34
1.91
1.59
1.32
1.05
0.73
0.38
0.03
-0.28
-0.51
-0.68
-0.84
-1.09
-1.50
-2.06
-2.68
-3.24
-3.64
-3.90
-4.12
-4.41
-4.80
-5.17
-5.32
-5.06
-4.35
-3.32
-2.15
-1.04
-0.09
0.72
1.40
1.96
2.36
2.56
2.59
2.55
2.55
2.65
2.82
2.96
2.98
2.84
2.60
2.38
2.30
2.40
2.61
2.80
2.81
2.53
1.92
1.06
0.12
-0.75
-1.36
-1.68
-1.72
-1.64
-1.63
-1.84
-2.35
-3.08
-3.88
-4.55
-4.94
-5.01
-4.84
-4.60
-4.48
-4.60
-5.01
-5.63
-6.29
-6.76
-6.85
-6.46
-5.58
-4.36
-2.98
-1.63
-0.44
0.52
1.26
1.82
2.28
2.70
3.12
3.55
3.99
4.47
4.93
5.31
5.50
5.42
5.06
4.54
4.04
3.73
3.73
3.98
4.26
4.38
4.27
4.02
3.81
3.80
4.06
4.53
4.98
5.20
5.08
4.78
4.54
4.56
4.88
5.45
6.14
6.68
6.79
6.41
5.79
5.27
5.11
5.36
5.94
6.85
7.75
8.29
8.32
8.02
7.79
7.90
8.43
9.27
10.22
10.36
8.46
3.57
-4.62
-15.74
-29.08
-43.85
-59.19
-71.92
-78.73
-78.16
-71.55
-61.70
-50.74
-39.77
-29.26
-20.15
-11.90
-4.74
0.71
4.21
6.13
7.42
9.06
11.40
14.61
18.70
23.14
27.14
30.41
31.92
31.26
28.57
24.52
20.11
16.13
13.60
11.84
10.32
8.88
7.78
7.37
7.21
7.13
7.05
6.86
6.38
5.73
5.08
4.67
4.59
4.77
5.18
5.76
6.43
6.99
7.39
7.60
7.64
7.57
7.39
7.19
6.97
6.72
6.32
5.79
5.18
4.59
4.14
3.86
3.74
3.65
3.46
3.02
2.31
1.40
0.38
-0.61
-1.48
-2.17
-2.68
-3.07
-3.42
-3.78
-4.16
-4.52
-4.86
-5.19
-5.57
-6.06
-6.66
-7.28
-7.77
-7.97
-7.83
-7.49
-7.15
-7.03
-7.20
-7.55
-7.85
-7.88
-7.49
-6.68
-5.53
-4.18
-2.76
-1.36
-0.07
1.04
1.94
2.63
3.13
3.52
3.87
4.21
4.49
4.63
4.54
4.16
3.52
2.76
2.07
1.64
1.59
1.88
2.34
2.75
2.93
2.77
2.31
1.65
0.96
0.36
-0.05
-0.26
-0.29
-0.20
-0.06
0.03
0.03
-0.11
-0.32
-0.52
-0.63
-0.59
-0.42
-0.24
-0.18
-0.35
-0.80
-1.43
-2.08
-2.53
-2.59
-2.22
-1.52
-0.69
0.03
0.48
0.63
0.62
0.63
0.84
1.32
2.00
2.78
3.48
3.99
4.28
4.33
4.17
3.83
3.31
2.66
1.94
1.24
0.66
0.25
0.03
-0.06
-0.12
-0.23
-0.43
-0.76
-1.25
-1.89
-2.64
-3.38
-3.98
-4.28
-4.23
-3.93
-3.55
-3.36
-3.49
-3.97
-4.63
-5.25
-5.66
-5.80
-5.76
-5.74
-5.89
-6.28
-6.90
-7.64
-8.37
-8.99
-9.39
-9.51
-9.27
-8.67
-7.73
-6.57
-5.30
-4.03
-2.83
-1.70
-0.60
0.50
1.57
2.55
3.35
3.90
4.22
4.40
4.54
4.72
4.94
5.12
5.17
5.05
4.82
4.62
4.54
4.64
4.83
4.97
4.95
4.73
4.39
4.03
3.71
3.45
3.20
2.90
2.57
2.26
2.05
1.97
1.98
1.94
1.74
1.32
0.72
0.05
-0.58
-1.15
-1.70
-2.32
-3.07
-3.94
-4.84
-5.64
-6.17
-6.25
-5.79
-4.77
-3.29
-1.56
0.18
1.74
3.05
4.16
5.19
6.20
7.16
7.93
8.34
8.27
7.79
7.08
6.40
6.01
6.00
6.19
6.22
5.57
3.75
0.46
-4.38
-10.61
-17.79
-25.17
-31.70
-36.13
-37.33
-34.71
-28.52
-19.95
-10.73
-2.52
3.58
7.35
9.25
10.00
10.19
10.11
9.78
9.25
8.66
8.25
8.24
8.63
9.18
9.53
9.33
8.42
6.87
4.95
3.08
1.64
0.88
0.84
1.33
2.03
2.65
3.01
3.13
3.19
3.39
3.83
4.45
5.08
5.53
5.70
5.65
5.48
5.27
4.98
4.47
3.61
2.34
0.73
-1.00
-2.65
-4.09
-5.30
-6.39
-7.42
-8.41
-9.26
-9.79
-9.84
-9.34
-8.37
-7.09
-5.72
-4.42
-3.27
-2.22
-1.20
-0.13
0.99
2.07
2.99
3.68
4.11
4.37
4.53
4.69
4.90
5.20
5.59
6.04
6.47
6.88
7.29
7.76
8.38
9.20
10.28
11.63
13.13
14.57
15.80
16.77
17.54
18.23
18.95
19.81
20.83
21.78
22.44
22.72
22.77
22.91
23.42
24.45
25.97
27.82
29.31
29.92
29.67
29.15
29.17
30.27
32.57
35.89
39.85
43.06
44.38
43.52
41.23
38.66
36.67
35.56
35.29
35.58
34.46
30.31
22.82
13.25
3.34
-5.91
-14.54
-23.33
-33.16
-46.83
-66.08
-90.65
-118.18
-145.85
-172.15
-197.15
-221.84
-234.20
-225.40
-195.00
-152.84
-110.84
-75.98
-49.93
-31.50
-18.55
-9.06
-3.84
-3.18
-6.28
-10.71
-13.73
-13.73
-10.84
-6.36
-2.16
-3.42
-11.86
-27.59
-48.07
-68.67
-83.62
-87.46
-76.65
-48.30
-9.75
29.25
59.93
78.02
84.29
83.08
79.28
76.00
73.71
70.28
64.70
57.39
51.48
48.93
50.76
56.20
63.03
68.72
70.98
69.94
66.99
64.28
63.58
66.02
71.63
79.63
88.58
96.37
101.27
101.30
95.06
82.39
64.83
45.18
26.49
11.17
-1.46
-11.03
-17.81
-22.29
-24.90
-25.77
-25.13
-23.53
-21.88
-21.06
-21.21
-22.16
-23.31
-23.96
-23.57
-22.10
-19.96
-17.80
-16.25
-15.37
-15.08
-15.02
-14.71
-13.75
-12.01
-9.62
-6.93
-4.33
-1.96
0.05
1.70
3.07
4.26
5.32
6.23
6.96
7.48
7.86
8.15
8.38
8.56
8.64
8.58
8.40
8.17
7.99
7.98
8.18
8.45
8.63
8.50
7.92
6.82
5.27
3.39
1.34
-0.74
-2.76
-4.67
-6.45
-8.09
-9.56
-10.81
-11.79
-12.49
-12.93
-13.12
-13.07
-12.74
-12.06
-11.01
-9.63
-8.01
-6.30
-4.65
-3.12
-1.77
-0.62
0.29
0.94
1.29
1.38
1.26
1.03
0.78
0.52
0.24
-0.15
-0.74
-1.58
-2.69
-4.01
-5.49
-7.02
-8.48
-9.75
-10.70
-11.28
-11.52
-11.55
-11.52
-11.55
-11.65
-11.80
-11.93
-11.96
-11.84
-11.51
-10.92
-10.10
-9.15
-8.33
-7.90
-8.02
-8.73
-9.87
-11.24
-12.64
-13.90
-14.86
-15.38
-15.29
-14.59
-13.42
-12.07
-10.87
-9.99
-9.42
-8.96
-8.44
-7.81
-7.16
-6.69
-6.50
-6.51
-6.49
-6.18
-5.42
-4.29
-3.04
-1.98
-1.35
-1.18
-1.33
-1.55
-1.69
-1.76
-1.90
-2.35
-3.25
-4.60
-6.23
-7.94
-9.59
-11.14
-12.65
-14.23
-15.88
-17.59
-19.23
-20.69
-21.85
-22.56
-22.64
-21.92
-20.29
-17.73
-14.41
-10.62
-6.65
-2.75
1.01
4.68
8.36
12.10
15.88
19.59
23.09
26.26
29.06
31.50
33.66
35.60
37.35
38.83
39.96
40.64
40.85
40.63
40.03
39.14
37.96
36.48
34.67
32.50
30.04
27.34
24.51
21.59
18.64
15.72
12.91
10.35
8.21
6.57
5.42
4.58
3.81
2.89
1.77
0.56
-0.50
-1.16
-1.33
-1.12
-0.79
-0.61
-0.78
-1.29
-1.98
-2.62
-2.93
-2.69
-1.78
-0.19
1.82
3.81
5.18
5.41
4.23
1.76
-1.57
-5.17
-8.48
-11.16
-13.10
-14.37
-15.07
-15.36
-15.39
-15.30
-15.23
-15.27
-15.43
-15.70
-16.07
-16.55
-17.18
-18.03
-19.22
-20.93
-23.34
-26.53
-30.45
-34.82
-39.14
-42.93
-45.97
-48.35
-50.49
-52.83
-55.62
-58.98
-62.82
-66.94
-71.15
-75.31
-79.19
-82.43
-84.53
-84.81
-83.04
-79.21
-73.60
-66.72
-59.08
-51.04
-42.76
-34.18
-24.81
-14.35
-2.42
11.28
26.68
43.23
59.90
75.38
87.15
95.52
100.43
102.44
102.38
100.97
98.68
95.77
92.35
88.52
84.62
80.61
76.47
72.14
67.55
62.77
57.97
53.39
49.27
45.87
43.03
40.47
37.86
34.90
31.42
27.45
23.16
18.82
14.76
10.98
7.34
3.53
-0.79
-5.85
-11.72
-18.16
-24.71
-30.68
-35.50
-38.72
-40.16
-39.92
-38.28
-35.56
-32.04
-28.00
-23.68
-19.43
-15.57
-12.37
-9.91
-8.13
-6.79
-5.69
-4.68
-3.70
-2.72
-1.75
-0.73
0.38
1.59
2.82
3.92
4.72
5.11
5.07
4.78
4.48
4.44
4.76
5.33
5.84
5.92
5.35
4.19
2.76
1.48
0.67
0.38
0.44
0.58
0.60
0.37
-0.14
-0.97
-2.15
-3.61
-5.15
-6.44
-7.19
-7.30
-6.96
-6.59
-6.59
-7.18
-8.28
-9.64
-10.95
-11.98
-12.63
-12.89
-12.91
-12.95
-13.37
-14.49
-16.31
-18.42
-20.14
-20.81
-20.19
-18.50
-16.32
-14.24
-12.59
-11.36
-10.32
-9.29
-8.25
-7.28
-6.53
-6.09
-5.96
-6.12
-6.53
-7.15
-7.84
-8.48
-8.95
-9.25
-9.48
-9.71
-9.92
-9.93
-9.48
-8.40
-6.67
-4.39
-1.80
0.94
3.74
6.57
9.42
12.18
14.66
16.63
17.94
18.62
18.84
18.87
18.94
19.12
19.32
19.36
19.07
18.41
17.44
16.30
15.14
14.05
13.05
12.15
11.32
10.55
9.80
9.04
8.23
7.38
6.50
5.66
4.85
4.07
3.30
2.54
1.83
1.27
0.93
0.82
0.88
0.97
1.02
1.03
1.07
1.24
1.55
1.92
2.18
2.19
1.90
1.42
0.93
0.62
0.54
0.63
0.75
0.80
0.74
0.63
0.53
0.49
0.50
0.48
0.38
0.17
-0.17
-0.59
-1.02
-1.35
-1.51
-1.45
-1.23
-0.98
-0.84
-0.90
-1.16
-1.51
-1.81
-1.94
-1.90
-1.76
-1.59
-1.48
-1.42
-1.40
-1.42
-1.48
-1.63
-1.87
-2.15
-2.34
-2.32
-1.99
-1.36
-0.56
0.23
0.87
1.33
1.67
1.99
2.36
2.78
3.17
3.45
3.57
3.56
3.50
3.45
3.42
3.40
3.31
3.10
2.75
2.27
1.72
1.18
0.74
0.46
0.31
0.21
0.08
-0.18
-0.59
-1.11
-1.69
-2.24
-2.72
-3.09
-3.36
-3.52
-3.61
-3.68
-3.80
-4.01
-4.33
-4.73
-5.14
-5.52
-5.84
-6.08
-6.30
-6.51
-6.71
-6.83
-6.79
-6.48
-5.89
-5.08
-4.21
-3.44
-2.90
-2.59
-2.44
-2.33
-2.19
-2.02
-1.85
-1.73
-1.62
-1.45
-1.15
-0.72
-0.26
0.06
0.13
-0.11
-0.59
-1.18
-1.73
-2.16
-2.44
-2.58
-2.60
-2.51
-2.33
-2.11
-1.92
-1.82
-1.82
-1.86
-1.86
-1.74
-1.44
-0.97
-0.35
0.37
1.16
1.99
2.78
3.49
4.04
4.43
4.68
4.83
4.91
4.91
4.80
4.56
4.24
3.91
3.65
3.47
3.34
3.21
3.04
2.90
2.91
3.18
3.74
4.47
5.18
5.66
5.81
5.64
5.27
4.85
4.51
4.29
4.15
3.98
3.70
3.27
2.72
2.12
1.57
1.14
0.85
0.67
0.54
0.42
0.32
0.23
0.15
0.07
-0.04
-0.20
-0.40
-0.59
-0.76
-0.87
-0.96
-1.05
-1.18
-1.33
-1.47
-1.49
-1.37
-1.12
-0.86
-0.77
-0.98
-1.48
-2.15
-2.76
-3.10
-3.10
-2.84
-2.50
-2.24
-2.15
-2.19
-2.31
-2.46
-2.60
-2.72
-2.74
-2.56
-2.09
-1.34
-0.43
0.45
1.14
1.54
1.69
1.66
1.54
1.39
1.18
0.91
0.55
0.16
-0.21
-0.48
-0.66
-0.77
-0.86
-0.96
-1.03
-1.03
-0.88
-0.58
-0.18
0.20
0.45
0.53
0.46
0.32
0.21
0.20
0.32
0.58
1.01
1.61
2.38
3.21
3.98
4.57
4.89
4.97
4.92
4.91
5.08
5.51
6.17
6.94
7.67
8.23
8.58
8.76
8.91
9.22
9.85
10.90
12.34
14.08
15.98
17.93
19.88
21.81
23.75
25.80
28.01
30.42
32.97
35.48
37.68
39.21
39.80
39.33
37.87
35.70
33.16
30.52
27.91
25.29
22.55
19.58
16.35
12.91
9.27
5.41
1.21
-3.44
-8.55
-13.93
-19.26
-24.15
-28.32
-31.66
-34.20
-36.07
-37.38
-38.21
-38.59
-38.53
-38.09
-37.34
-36.38
-35.26
-34.00
-32.62
-31.19
-29.80
-28.55
-27.48
-26.56
-25.66
-24.61
-23.30
-21.73
-19.99
-18.23
-16.60
-15.18
-13.97
-12.95
-12.06
-11.26
-10.47
-9.64
-8.72
-7.73
-6.75
-5.90
-5.30
-5.00
-5.00
-5.21
-5.55
-5.94
-6.35
-6.80
-7.33
-7.96
-8.69
-9.48
-10.22
-10.78
-11.02
-10.89
-10.38
-9.56
-8.49
-7.23
-5.75
-4.03
-2.07
0.04
2.17
4.13
5.80
7.14
8.17
8.90
9.33
9.40
9.04
8.27
7.18
5.96
4.78
3.78
3.04
2.53
2.22
2.07
2.04
2.09
2.18
2.26
2.26
2.21
2.14
2.13
2.29
2.63
3.13
3.71
4.26
4.70
5.03
5.31
5.65
6.16
6.89
7.84
8.98
10.25
11.62
13.07
14.60
16.19
17.81
19.40
20.88
22.16
23.15
23.79
23.99
23.69
22.80
21.27
19.03
16.10
12.59
8.74
4.95
1.61
-0.90
-2.34
-2.71
-2.20
-1.19
-0.13
0.59
0.76
0.39
-0.27
-0.86
-1.06
-0.68
0.24
1.51
2.90
4.24
5.48
6.67
7.89
9.23
10.75
12.45
14.17
15.57
16.18
15.54
13.35
9.72
5.06
-0.13
-5.52
-11.11
-17.11
-23.57
-30.10
-35.81
-39.67
-40.93
-39.60
-36.40
-32.48
-28.86
-26.12
-24.23
-22.86
-21.65
-20.46
-19.34
-18.39
-17.59
-16.74
-15.58
-13.92
-11.79
-9.48
-7.40
-5.94
-5.32
-5.47
-6.07
-6.65
-6.76
-6.14
-4.74
-2.81
-0.74
1.11
2.51
3.45
4.06
4.55
5.03
5.55
6.03
6.37
6.50
6.42
6.17
5.83
5.43
5.05
4.76
4.61
4.61
4.67
4.61
4.21
3.34
2.01
0.37
-1.35
-2.92
-4.18
-5.08
-5.57
-5.65
-5.32
-4.62
-3.73
-2.88
-2.36
-2.36
-2.91
-3.87
-4.97
-5.90
-6.39
-6.31
-5.63
-4.47
-3.07
-1.65
-0.39
0.65
1.48
2.19
2.80
3.30
3.61
3.69
3.58
3.39
3.28
3.35
3.57
3.79
3.84
3.62
3.16
2.57
1.99
1.46
0.95
0.41
-0.16
-0.67
-1.00
-1.10
-1.05
-1.06
-1.34
-1.98
-2.94
-4.06
-5.18
-6.25
-7.25
-8.21
-9.06
-9.65
-9.85
-9.66
-9.23
-8.83
-8.73
-9.03
-9.58
-10.02
-9.87
-8.70
-6.28
-2.72
1.62
6.13
10.21
13.35
15.35
16.27
16.42
16.16
15.77
15.35
14.87
14.23
13.40
12.41
11.38
10.38
9.43
8.47
7.44
6.28
5.00
3.60
2.10
0.54
-0.99
-2.36
-3.39
-3.92
-3.90
-3.44
-2.73
-2.03
-1.50
-1.23
-1.20
-1.33
-1.52
-1.70
-1.77
-1.66
-1.35
-0.86
-0.32
0.08
0.13
-0.27
-1.13
-2.32
-3.65
-4.93
-5.99
-6.75
-7.23
-7.48
-7.68
-7.98
-8.56
-9.43
-10.52
-11.66
-12.69
-13.57
-14.40
-15.39
-16.70
-18.35
-20.18
-21.93
-23.36
-24.39
-25.14
-25.85
-26.79
-28.09
-29.76
-31.67
-33.58
-35.30
-36.72
-37.85
-38.83
-39.82
-40.95
-42.20
-43.37
-44.11
-43.95
-42.47
-39.41
-34.77
-28.80
-21.97
-14.82
-7.85
-1.41
4.35
9.41
13.82
17.66
20.93
23.65
25.79
27.41
28.57
29.33
29.77
29.93
29.86
29.68
29.47
29.34
29.38
29.60
29.98
30.49
31.14
31.94
32.87
33.92
35.05
36.19
37.33
38.39
39.28
39.87
40.04
39.69
38.83
37.54
35.96
34.23
32.50
30.84
29.29
27.83
26.40
24.90
23.26
21.46
19.58
17.76
16.14
14.81
13.77
12.96
12.26
11.57
10.82
9.99
9.10
8.21
7.35
6.58
5.88
5.26
4.68
4.18
3.75
3.41
3.11
2.80
2.45
2.06
1.69
1.39
1.21
1.10
0.99
0.82
0.57
0.32
0.11
-0.02
-0.10
-0.22
-0.41
-0.63
-0.79
-0.79
-0.57
-0.19
0.24
0.58
0.77
0.80
0.72
0.58
0.42
0.25
0.07
-0.11
-0.28
-0.49
-0.80
-1.23
-1.78
-2.32
-2.71
-2.79
-2.50
-1.91
-1.20
-0.54
-0.06
0.18
0.23
0.15
0.04
-0.01
0.07
0.34
0.75
1.22
1.58
1.71
1.55
1.13
0.53
-0.09
-0.64
-1.06
-1.34
-1.52
-1.65
-1.81
-2.06
-2.43
-2.93
-3.49
-4.04
-4.47
-4.74
-4.83
-4.75
-4.55
-4.24
-3.88
-3.53
-3.27
-3.14
-3.16
-3.25
-3.34
-3.32
-3.20
-3.01
-2.86
-2.80
-2.88
-3.06
-3.28
-3.45
-3.48
-3.31
-2.90
-2.26
-1.47
-0.65
0.07
0.61
0.98
1.25
1.52
1.87
2.36
2.94
3.51
3.95
4.19
4.21
4.10
4.02
4.05
4.23
4.42
4.44
4.10
3.36
2.29
1.05
-0.19
-1.33
-2.33
-3.19
-3.86
-4.29
-4.48
-4.46
-4.34
-4.21
-4.17
-4.21
-4.27
-4.29
-4.24
-4.15
-4.06
-4.02
-4.03
-4.08
-4.18
-4.38
-4.70
-5.11
-5.53
-5.84
-5.97
-5.89
-5.64
-5.25
-4.71
-4.03
-3.21
-2.30
-1.40
-0.63
-0.08
0.25
0.42
0.52
0.63
0.75
0.87
0.96
0.99
0.94
0.85
0.78
0.79
0.93
1.17
1.44
1.65
1.72
1.63
1.39
1.05
0.66
0.29
0.00
-0.15
-0.15
-0.02
0.12
0.15
-0.04
-0.45
-1.00
-1.55
-1.99
-2.28
-2.48
-2.67
-2.90
-3.18
-3.43
-3.58
-3.60
-3.51
-3.39
-3.34
-3.45
-3.71
-4.03
-4.30
-4.40
-4.28
-3.96
-3.55
-3.12
-2.74
-2.38
-2.02
-1.62
-1.17
-0.72
-0.32
-0.01
0.22
0.42
0.61
0.81
0.97
1.04
0.97
0.77
0.49
0.20
-0.02
-0.12
-0.07
0.13
0.46
0.88
1.29
1.62
1.78
1.73
1.48
1.11
0.72
0.39
0.17
0.04
-0.04
-0.17
-0.40
-0.72
-1.05
-1.30
-1.40
-1.34
-1.18
-1.04
-1.02
-1.13
-1.37
-1.68
-1.96
-2.20
-2.38
-2.54
-2.75
-3.01
-3.32
-3.62
-3.82
-3.87
-3.76
-3.50
-3.17
-2.77
-2.30
-1.74
-1.09
-0.42
0.19
0.66
0.96
1.12
1.17
1.15
1.06
0.91
0.73
0.57
0.49
0.52
0.64
0.76
0.81
0.73
0.56
0.36
0.21
0.15
0.19
0.28
0.39
0.48
0.51
0.46
0.33
0.14
-0.05
-0.18
-0.22
-0.19
-0.16
-0.23
-0.45
-0.82
-1.24
-1.63
-1.92
-2.10
-2.18
-2.24
-2.32
-2.46
-2.70
-3.02
-3.42
-3.86
-4.28
-4.63
-4.89
-5.01
-4.99
-4.84
-4.58
-4.25
-3.93
-3.68
-3.51
-3.40
-3.24
-2.91
-2.33
-1.48
-0.45
0.65
1.68
2.52
3.13
3.54
3.80
4.00
4.21
4.45
4.71
4.93
5.06
5.05
4.90
4.66
4.36
4.06
3.74
3.37
2.94
2.45
1.95
1.52
1.20
1.02
0.96
0.94
0.89
0.77
0.56
0.30
0.05
-0.11
-0.18
-0.20
-0.24
-0.33
-0.50
-0.72
-0.98
-1.27
-1.59
-1.92
-2.17
-2.24
-2.04
-1.59
-1.02
-0.49
-0.12
0.08
0.22
0.45
0.83
1.32
1.78
2.08
2.16
2.06
1.87
1.67
1.49
1.34
1.22
1.13
1.11
1.18
1.31
1.49
1.65
1.75
1.75
1.65
1.47
1.27
1.13
1.07
1.11
1.16
1.16
1.05
0.84
0.57
0.30
0.04
-0.23
-0.53
-0.87
-1.23
-1.58
-1.88
-2.13
-2.31
-2.42
-2.47
-2.51
-2.61
-2.84
-3.18
-3.59
-3.93
-4.06
-3.93
-3.54
-2.94
-2.20
-1.39
-0.59
0.11
0.62
0.91
1.03
1.08
1.22
1.50
1.89
2.25
2.46
2.46
2.32
2.16
2.09
2.16
2.34
2.55
2.70
2.77
2.75
2.66
2.54
2.39
2.25
2.16
2.13
2.16
2.21
2.24
2.17
1.98
1.72
1.46
1.24
1.06
0.87
0.56
0.08
-0.52
-1.10
-1.47
-1.51
-1.22
-0.75
-0.34
-0.15
-0.26
-0.63
-1.14
-1.71
-2.28
-2.86
-3.40
-3.85
-4.15
-4.26
-4.24
-4.14
-4.05
-3.96
-3.82
-3.52
-3.01
-2.33
-1.60
-0.96
-0.47
-0.13
0.15
0.46
0.85
1.25
1.58
1.76
1.75
1.63
1.46
1.31
1.23
1.19
1.20
1.25
1.36
1.52
1.73
1.95
2.12
2.20
2.18
2.07
1.92
1.76
1.65
1.59
1.54
1.47
1.35
1.19
1.02
0.90
0.85
0.87
0.91
0.89
0.75
0.51
0.21
-0.06
-0.23
-0.29
-0.26
-0.24
-0.28
-0.43
-0.71
-1.11
-1.61
-2.13
-2.61
-2.91
-2.94
-2.65
-2.07
-1.31
-0.52
0.20
0.78
1.23
1.58
1.85
2.01
2.03
1.87
1.55
1.14
0.78
0.61
0.70
1.05
1.54
2.01
2.31
2.39
2.30
2.16
2.06
2.01
1.99
1.93
1.80
1.63
1.48
1.39
1.35
1.30
1.16
0.90
0.52
0.08
-0.34
-0.71
-0.99
-1.18
-1.31
-1.38
-1.45
-1.56
-1.77
-2.09
-2.54
-3.09
-3.68
-4.22
-4.64
-4.86
-4.86
-4.68
-4.39
-4.08
-3.79
-3.55
-3.33
-3.03
-2.58
-1.95
-1.15
-0.26
0.58
1.24
1.65
1.78
1.69
1.52
1.38
1.37
1.47
1.62
1.72
1.74
1.70
1.67
1.72
1.86
2.02
2.15
2.16
2.08
1.93
1.77
1.63
1.48
1.30
1.03
0.69
0.32
-0.05
-0.41
-0.76
-1.12
-1.53
-1.97
-2.43
-2.88
-3.30
-3.66
-3.96
-4.22
-4.44
-4.56
-4.51
-4.19
-3.55
-2.65
-1.63
-0.69
-0.00
0.40
0.57
0.66
0.75
0.90
1.06
1.15
1.12
1.00
0.88
0.85
0.96
1.16
1.36
1.43
1.32
1.05
0.72
0.45
0.30
0.26
0.28
0.28
0.25
0.22
0.22
0.26
0.28
0.20
-0.04
-0.44
-0.91
-1.34
-1.65
-1.84
-1.99
-2.24
-2.63
-3.14
-3.63
-3.94
-3.93
-3.56
-2.92
-2.15
-1.40
-0.75
-0.22
0.24
0.69
1.15
1.59
1.94
2.17
2.26
2.26
2.23
2.24
2.31
2.39
2.43
2.36
2.16
1.87
1.56
1.29
1.09
0.89
0.64
0.28
-0.16
-0.60
-0.92
-1.04
-0.94
-0.69
-0.39
-0.11
0.13
0.31
0.44
0.47
0.36
0.08
-0.34
-0.81
-1.19
-1.44
-1.55
-1.63
-1.79
-2.08
-2.48
-2.87
-3.10
-3.09
-2.83
-2.38
-1.84
-1.34
-0.90
-0.56
-0.29
-0.06
0.16
0.40
0.70
1.07
1.48
1.88
2.21
2.41
2.50
2.56
2.65
2.80
2.99
3.16
3.27
3.32
3.34
3.37
3.42
3.44
3.39
3.26
3.07
2.85
2.65
2.47
2.29
2.10
1.86
1.56
1.18
0.72
0.20
-0.28
-0.66
-0.87
-0.95
-0.98
-1.04
-1.21
-1.49
-1.82
-2.17
-2.49
-2.82
-3.15
-3.50
-3.87
-4.22
-4.50
-4.62
-4.51
-4.11
-3.44
-2.57
-1.62
-0.75
-0.08
0.31
0.46
0.50
0.53
0.68
1.00
1.43
1.86
2.17
2.25
2.13
1.87
1.57
1.34
1.18
1.08
0.97
0.82
0.63
0.43
0.25
0.07
-0.10
-0.32
-0.59
-0.93
-1.31
-1.69
-2.04
-2.32
-2.55
-2.79
-3.12
-3.62
-4.33
-5.20
-6.12
-6.95
-7.58
-7.97
-8.17
-8.32
-8.55
-8.95
-9.51
-10.13
-10.67
-10.99
-11.01
-10.67
-9.93
-8.79
-7.23
-5.28
-3.05
-0.71
1.51
3.44
5.02
6.29
7.41
8.52
9.66
10.76
11.73
12.45
12.92
13.23
13.53
13.93
14.42
14.92
15.24
15.20
14.74
13.91
12.92
11.99
11.30
10.92
10.81
10.83
10.85
10.81
10.68
10.50
10.26
9.95
9.51
8.95
8.30
7.67
7.15
6.77
6.51
6.23
5.83
5.23
4.42
3.45
2.41
1.34
0.27
-0.86
-2.06
-3.34
-4.64
-5.89
-7.02
-8.00
-8.84
-9.59
-10.25
-10.84
-11.31
-11.66
-11.86
-11.89
-11.75
-11.42
-10.93
-10.30
-9.63
-9.00
-8.45
-8.01
-7.64
-7.34
-7.11
-7.02
-7.09
-7.32
-7.64
-7.93
-8.10
-8.11
-8.04
-7.98
-8.00
-8.07
-8.09
-7.91
-7.43
-6.66
-5.70
-4.71
-3.80
-3.00
-2.27
-1.50
-0.63
0.35
1.38
2.40
3.37
4.26
5.12
5.94
6.70
7.35
7.81
8.01
7.97
7.76
7.48
7.21
7.03
6.91
6.81
6.73
6.69
6.73
6.93
7.27
7.74
8.22
8.62
8.89
9.02
9.05
9.02
8.93
8.74
8.40
7.82
6.97
5.84
4.47
2.93
1.27
-0.43
-2.14
-3.80
-5.34
-6.68
-7.72
-8.44
-8.80
-8.85
-8.63
-8.22
-7.70
-7.11
-6.48
-5.81
-5.05
-4.17
-3.17
-2.09
-1.02
-0.10
0.61
1.08
1.36
1.50
1.56
1.57
1.56
1.56
1.57
1.57
1.46
1.11
0.46
-0.42
-1.38
-2.19
-2.68
-2.80
-2.61
-2.23
-1.80
-1.41
-1.13
-0.99
-1.00
-1.10
-1.24
-1.34
-1.38
-1.44
-1.61
-1.95
-2.44
-2.95
-3.30
-3.37
-3.15
-2.71
-2.18
-1.66
-1.18
-0.72
-0.30
0.06
0.29
0.34
0.26
0.15
0.15
0.41
0.94
1.64
2.33
2.82
3.04
3.04
2.91
2.76
2.62
2.43
2.11
1.59
0.90
0.12
-0.63
-1.31
-1.96
-2.67
-3.49
-4.33
-5.04
-5.39
-5.29
-4.83
-4.24
-3.78
-3.60
-3.71
-3.93
-4.09
-4.14
-4.16
-4.27
-4.56
-4.97
-5.34
-5.48
-5.33
-4.95
-4.52
-4.21
-4.13
-4.20
-4.29
-4.25
-3.98
-3.54
-3.02
-2.57
-2.29
-2.17
-2.19
-2.25
-2.29
-2.27
-2.18
-2.08
-2.01
-2.03
-2.15
-2.30
-2.39
-2.32
-2.04
-1.61
-1.10
-0.61
-0.15
0.34
0.96
1.81
2.89
4.10
5.28
6.28
7.02
7.54
7.93
8.30
8.66
8.96
9.10
9.01
8.73
8.41
8.20
8.21
8.37
8.51
8.44
8.08
7.51
6.90
6.44
6.22
6.21
6.28
6.34
6.33
6.26
6.19
6.12
6.06
6.00
5.94
5.97
6.20
6.72
7.52
8.48
9.35
9.90
10.02
9.80
9.47
9.34
9.59
10.19
10.93
11.59
12.07
12.45
13.01
13.97
15.45
17.28
19.18
20.80
21.96
22.72
23.37
24.32
25.93
28.36
31.46
34.86
38.06
40.62
42.39
43.51
44.35
45.33
46.72
48.48
50.33
51.79
52.31
51.48
49.05
45.22
40.69
36.67
34.49
35.12
38.64
43.98
49.21
52.19
51.19
45.13
33.53
16.24
-6.71
-34.75
-66.44
-99.20
-129.80
-155.18
-173.24
-183.16
-185.18
-180.24
-169.78
-155.94
-141.72
-130.50
-124.87
-125.29
-129.39
-132.84
-131.36
-122.88
-108.48
-91.60
-76.03
-63.79
-54.37
-45.59
-35.28
-22.63
-8.52
5.25
17.15
26.69
34.30
40.65
45.95
49.77
51.27
49.78
45.24
38.36
30.41
22.85
16.82
12.94
11.13
10.75
10.97
11.09
10.80
10.22
9.70
9.55
9.86
10.42
10.94
11.19
11.14
11.01
11.08
11.63
12.79
14.50
16.56
18.70
20.69
22.36
23.68
24.71
25.52
26.17
26.68
27.01
27.14
27.01
26.58
25.79
24.61
23.05
21.23
19.31
17.49
15.89
14.53
13.31
12.11
10.90
9.77
8.85
8.26
7.98
7.91
7.88
7.77
7.55
7.26
6.96
6.69
6.43
6.08
5.55
4.74
3.67
2.42
1.17
0.09
-0.71
-1.23
-1.56
-1.87
-2.23
-2.64
-2.99
-3.13
-2.99
-2.55
-1.90
-1.12
-0.26
0.63
1.54
2.45
3.36
4.26
5.19
6.13
7.04
7.85
8.44
8.69
8.59
8.25
7.80
7.41
7.15
6.98
6.82
6.59
6.28
5.93
5.61
5.36
5.15
4.92
4.59
4.13
3.55
2.91
2.26
1.66
1.13
0.72
0.43
0.29
0.27
0.34
0.47
0.63
0.80
0.94
1.00
0.96
0.84
0.68
0.57
0.59
0.76
1.05
1.37
1.65
1.82
1.86
1.79
1.63
1.40
1.08
0.67
0.17
-0.37
-0.92
-1.46
-2.00
-2.55
-3.14
-3.80
-4.54
-5.32
-6.04
-6.60
-6.87
-6.81
-6.45
-5.90
-5.32
-4.82
-4.42
-4.07
-3.66
-3.14
-2.50
-1.82
-1.18
-0.62
-0.16
0.21
0.48
0.63
0.63
0.47
0.17
-0.18
-0.51
-0.75
-0.86
-0.85
-0.73
-0.54
-0.31
-0.06
0.20
0.45
0.67
0.78
0.75
0.59
0.40
0.29
0.35
0.56
0.80
0.90
0.80
0.54
0.25
0.05
-0.02
-0.01
-0.04
-0.18
-0.38
-0.52
-0.46
-0.14
0.42
1.08
1.73
2.25
2.64
3.01
3.47
4.13
5.00
6.03
7.12
8.16
9.08
9.87
10.54
11.09
11.56
11.95
12.35
12.83
13.44
14.18
14.93
15.57
16.00
16.24
16.41
16.67
17.14
17.83
18.64
19.35
19.75
19.69
19.13
18.16
16.95
15.60
14.19
12.64
10.81
8.60
6.02
3.19
0.31
-2.50
-5.23
-8.08
-11.40
-15.62
-21.16
-28.31
-37.11
-47.12
-57.29
-65.99
-71.39
-72.06
-67.49
-58.43
-46.62
-34.23
-23.09
-14.22
-7.74
-3.22
-0.04
2.21
3.78
4.83
5.65
6.58
7.93
9.79
11.95
14.00
15.54
16.36
16.53
16.31
16.01
15.86
15.91
16.05
16.10
15.89
15.34
14.43
13.26
11.96
10.66
9.49
8.51
7.71
7.03
6.33
5.50
4.46
3.23
1.93
0.73
-0.18
-0.67
-0.67
-0.15
0.90
2.45
4.44
6.76
9.22
11.67
14.01
16.24
18.40
20.55
22.64
24.53
26.05
27.00
27.23
26.70
25.46
23.63
21.44
19.11
16.87
14.86
13.06
11.37
9.60
7.61
5.27
2.51
-0.78
-4.76
-9.61
-15.46
-22.23
-29.70
-37.44
-45.02
-52.06
-58.30
-63.53
-67.57
-70.24
-71.39
-71.01
-69.25
-66.36
-62.60
-58.14
-53.10
-47.59
-41.85
-36.25
-31.19
-27.04
-23.95
-21.84
-20.47
-19.51
-18.64
-17.63
-16.36
-14.79
-12.98
-11.02
-8.99
-6.97
-4.96
-2.90
-0.74
1.59
4.10
6.75
9.48
12.18
14.76
17.13
19.22
20.99
22.42
23.51
24.25
24.62
24.60
24.21
23.49
22.54
21.48
20.42
19.44
18.61
17.95
17.48
17.22
17.13
17.13
17.11
16.98
16.74
16.42
16.15
15.99
15.92
15.88
15.79
15.61
15.39
15.20
15.15
15.23
15.39
15.52
15.47
15.14
14.54
13.73
12.82
11.94
11.14
10.44
9.78
9.13
8.46
7.80
7.15
6.51
5.84
5.12
4.36
3.60
2.88
2.23
1.66
1.12
0.62
0.16
-0.25
-0.60
-0.95
-1.38
-1.93
-2.60
-3.31
-3.92
-4.32
-4.46
-4.39
-4.23
-4.09
-4.03
-4.04
-4.09
-4.11
-4.12
-4.14
-4.24
-4.46
-4.83
-5.34
-5.93
-6.53
-7.05
-7.41
-7.59
-7.62
-7.58
-7.54
-7.52
-7.43
-7.20
-6.78
-6.20
-5.53
-4.87
-4.23
-3.61
-2.93
-2.19
-1.42
-0.73
-0.22
0.07
0.20
0.27
0.44
0.79
1.32
1.92
2.41
2.62
2.45
1.95
1.25
0.55
0.02
-0.28
-0.36
-0.31
-0.17
0.03
0.31
0.68
1.11
1.59
2.05
2.45
2.77
3.02
3.20
3.33
3.42
3.48
3.52
3.56
3.59
3.61
3.63
3.63
3.60
3.49
3.26
2.87
2.37
1.82
1.31
0.92
0.67
0.53
0.45
0.37
0.26
0.08
-0.15
-0.46
-0.79
-1.11
-1.32
-1.38
-1.32
-1.21
-1.20
-1.40
-1.83
-2.41
-2.98
-3.38
-3.51
-3.32
-2.88
-2.28
-1.61
-0.98
-0.45
-0.02
0.32
0.64
1.01
1.47
2.01
2.58
3.11
3.53
3.78
3.88
3.84
3.73
3.61
3.52
3.46
3.38
3.25
3.06
2.84
2.62
2.41
2.19
1.94
1.61
1.20
0.72
0.22
-0.26
-0.69
-1.03
-1.28
-1.47
-1.66
-1.90
-2.25
-2.69
-3.14
-3.48
-3.60
-3.45
-3.06
-2.51
-1.90
-1.33
-0.82
-0.38
0.06
0.57
1.16
1.80
2.36
2.72
2.80
2.60
2.19
1.68
1.13
0.61
0.13
-0.28
-0.61
-0.84
-0.94
-0.95
-0.90
-0.84
-0.82
-0.86
-0.96
-1.07
-1.12
-1.05
-0.87
-0.65
-0.52
-0.59
-0.92
-1.43
-1.98
-2.46
-2.80
-3.02
-3.16
-3.24
-3.25
-3.11
-2.80
-2.31
-1.70
-1.02
-0.33
0.37
1.03
1.60
1.97
2.08
1.93
1.62
1.34
1.23
1.35
1.65
2.01
2.34
2.60
2.80
2.95
2.99
2.83
2.41
1.79
1.10
0.55
0.30
0.32
0.49
0.62
0.59
0.40
0.15
-0.04
-0.13
-0.18
-0.26
-0.44
-0.70
-0.98
-1.22
-1.38
-1.48
-1.58
-1.70
-1.87
-2.06
-2.25
-2.39
-2.46
-2.41
-2.18
-1.77
-1.22
-0.60
0.02
0.59
1.08
1.47
1.71
1.77
1.65
1.40
1.14
0.99
1.04
1.28
1.61
1.91
2.10
2.11
1.97
1.71
1.38
1.04
0.74
0.52
0.41
0.41
0.49
0.61
0.70
0.71
0.62
0.42
0.12
-0.24
-0.57
-0.84
-1.01
-1.10
-1.15
-1.21
-1.32
-1.52
-1.80
-2.15
-2.53
-2.88
-3.10
-3.13
-2.96
-2.62
-2.19
-1.75
-1.34
-0.95
-0.53
-0.07
0.38
0.70
0.77
0.58
0.22
-0.16
-0.36
-0.31
-0.02
0.43
0.91
1.35
1.70
1.94
2.08
2.12
2.06
1.95
1.79
1.60
1.31
0.95
0.57
0.33
0.42
0.94
1.91
3.24
4.81
6.57
8.59
11.02
13.96
17.46
21.43
25.68
29.98
34.07
37.75
40.90
43.59
46.01
48.45
51.17
54.22
57.41
60.36
62.69
64.21
64.98
65.20
65.11
64.80
64.12
62.74
60.25
56.34
50.98
44.47
37.44
30.77
25.38
21.94
20.48
20.12
19.22
15.87
8.75
-2.38
-16.46
-31.52
-45.62
-57.69
-67.95
-77.66
-88.45
-101.65
-118.15
-137.82
-159.19
-179.34
-194.40
-200.53
-195.26
-178.51
-152.74
-122.77
-93.63
-68.69
-48.74
-32.57
-18.32
-4.65
8.79
21.73
32.65
40.18
43.61
42.99
38.78
31.52
21.97
11.50
2.05
-5.72
-11.89
-17.26
-23.04
-30.91
-42.95
-61.04
-86.21
-109.91
-124.01
-124.23
-112.38
-93.62
-72.50
-51.83
-33.51
-19.19
-9.98
-6.88
-8.75
-11.74
-10.43
-0.39
19.33
45.61
72.82
95.52
109.59
114.07
110.88
103.26
93.92
84.16
74.31
64.88
57.18
52.61
51.27
52.43
54.57
55.87
54.97
51.60
46.70
41.79
37.64
33.91
29.79
24.49
17.96
10.84
4.03
-1.99
-6.85
-10.53
-13.01
-14.25
-14.61
-15.19
-17.57
-23.12
-31.55
-40.15
-45.52
-45.03
-37.96
-25.93
-12.03
0.69
10.66
16.87
19.62
19.94
18.89
17.33
15.64
13.96
12.41
11.19
10.55
10.71
11.48
12.33
12.77
12.41
11.34
10.03
9.07
8.92
9.73
11.24
12.89
14.18
14.84
15.03
15.25
15.96
17.49
19.95
23.13
26.61
29.93
32.77
35.04
36.74
37.82
38.31
38.38
38.31
38.40
38.86
39.81
41.20
42.92
44.58
46.00
47.28
48.65
50.24
52.10
54.31
57.07
60.61
64.33
67.63
70.08
71.14
70.07
66.21
59.48
50.33
39.37
25.68
8.80
-10.58
-30.94
-50.90
-69.40
-85.90
-100.60
-114.41
-130.46
-149.84
-170.33
-187.89
-199.31
-203.46
-201.29
-195.13
-187.88
-184.81
-188.25
-196.39
-205.04
-210.36
-209.69
-201.41
-184.86
-143.86
-77.81
-2.57
62.32
107.21
132.28
141.89
141.05
134.40
126.10
116.63
106.87
98.59
93.02
89.54
86.62
83.43
80.32
78.36
75.58
70.73
64.23
57.48
51.65
47.47
45.47
45.78
47.90
49.34
48.40
45.08
40.55
35.98
32.06
29.10
27.03
25.82
24.58
22.94
21.14
19.70
18.84
18.18
17.23
15.55
12.81
8.52
2.53
-4.71
-12.39
-19.60
-25.93
-31.15
-35.20
-38.29
-40.92
-43.53
-46.38
-49.60
-53.24
-57.84
-63.32
-68.92
-73.51
-76.39
-77.46
-77.38
-77.24
-77.93
-80.33
-84.05
-87.44
-88.48
-85.69
-78.12
-65.60
-48.75
-25.94
-0.60
20.60
32.42
34.56
30.76
25.93
23.94
25.39
29.19
33.13
35.93
37.92
40.46
43.62
47.47
51.62
55.61
58.97
60.80
60.87
59.82
58.71
58.29
59.12
61.03
63.74
66.70
68.81
69.22
67.90
65.36
62.18
59.25
56.87
55.47
55.10
55.02
54.09
51.15
44.91
33.87
17.17
-7.59
-38.43
-69.18
-92.97
-106.01
-108.27
-101.99
-92.32
-80.30
-66.44
-51.08
-35.25
-20.69
-9.10
-1.25
2.84
4.08
4.10
3.91
4.30
5.45
7.09
8.84
10.59
12.38
14.28
16.45
18.55
20.45
22.03
23.10
23.39
22.61
20.56
17.38
13.83
10.82
9.36
10.02
12.60
16.12
19.06
19.98
18.12
13.70
7.53
0.74
-5.53
-10.39
-13.25
-14.18
-13.73
-12.65
-11.54
-10.85
-10.69
-10.82
-10.71
-9.86
-8.42
-6.95
-6.23
-6.83
-9.08
-13.09
-18.75
-25.77
-31.50
-33.90
-32.89
-30.73
-30.21
-32.52
-36.81
-41.06
-43.37
-42.70
-39.47
-34.71
-29.26
-23.43
-17.40
-11.82
-7.63
-5.38
-4.39
-2.99
0.90
8.50
19.32
31.09
40.77
46.03
46.41
43.39
39.27
35.97
34.20
33.59
33.29
32.80
32.32
32.57
33.90
35.48
35.23
30.58
19.82
3.08
-17.58
-38.99
-57.99
-71.89
-78.40
-75.71
-62.80
-40.71
-13.67
11.02
25.08
22.22
0.91
-33.56
-71.28
-101.54
-116.15
-111.77
-90.14
-56.82
-19.09
16.29
44.37
62.86
71.74
72.89
69.04
63.07
57.81
55.57
57.26
61.56
65.08
61.89
47.28
20.16
-16.06
-55.00
-89.60
-114.45
-126.52
-124.58
-109.07
-81.64
-45.79
-7.13
27.56
52.51
65.15
65.72
59.30
51.21
44.61
40.24
37.06
33.98
30.91
28.66
28.04
29.31
31.49
33.26
33.56
32.21
29.89
27.73
26.90
28.24
32.14
38.44
45.27
50.34
51.24
46.26
35.21
19.84
3.33
-10.80
-20.28
-24.81
-25.69
-24.92
-24.12
-23.82
-23.65
-23.01
-21.64
-19.93
-18.62
-18.12
-18.31
-18.70
-18.73
-18.07
-16.90
-15.67
-14.94
-15.07
-15.95
-17.14
-18.01
-18.03
-16.94
-14.88
-12.24
-9.61
-7.46
-6.04
-5.25
-4.77
-4.17
-3.07
-1.52
0.33
2.19
3.85
5.20
6.26
7.11
7.82
8.40
8.77
8.96
9.02
9.07
9.20
9.42
9.63
9.72
9.61
9.32
8.93
8.49
7.96
7.25
6.32
5.19
3.95
2.73
1.59
0.49
-0.60
-1.73
-2.84
-3.83
-4.61
-5.20
-5.71
-6.26
-6.85
-7.36
-7.59
-7.36
-6.59
-5.36
-3.78
-1.97
-0.01
2.03
4.00
5.70
6.94
7.62
7.78
7.65
7.51
7.57
7.92
8.51
9.19
9.81
10.29
10.64
10.87
10.95
10.80
10.30
9.38
8.12
6.69
5.35
4.24
3.38
2.63
1.74
0.49
-1.26
-3.47
-5.99
-8.56
-10.88
-12.68
-13.78
-14.18
-14.03
-13.56
-13.02
-12.54
-12.11
-11.68
-11.19
-10.63
-10.06
-9.53
-9.05
-8.61
-8.20
-7.85
-7.60
-7.45
-7.36
-7.19
-6.83
-6.20
-5.38
-4.52
