1530626659.00
64.000000
-0.00
-0.00
-0.00
-0.00
-0.00
-0.00
-0.00
-0.00
-0.00
-0.00
0.00
0.01
0.01
-0.00
-0.03
-0.05
-0.05
0.00
0.13
0.36
0.66
1.01
1.37
1.72
2.06
2.40
2.79
3.24
3.80
4.42
5.06
5.66
6.20
6.68
7.15
7.68
8.31
9.14
10.09
11.04
11.88
12.56
13.14
13.76
14.65
15.96
17.91
20.32
22.90
25.38
27.58
29.57
31.68
34.32
37.81
42.54
48.15
54.10
59.83
64.97
69.58
74.14
79.34
85.71
93.76
103.00
112.62
121.73
129.77
136.75
143.30
150.75
157.77
166.64
177.95
191.79
206.97
220.57
228.25
225.36
208.53
176.87
132.76
80.05
23.07
-34.94
-92.44
-149.16
-205.23
-260.37
-313.74
-363.87
-409.83
-450.91
-486.50
-515.74
-537.23
-549.22
-549.96
-538.37
-514.21
-478.67
-433.88
-382.45
-327.02
-269.84
-212.63
-156.66
-102.95
-52.37
-5.90
35.58
71.43
101.35
125.50
144.38
158.69
169.15
176.37
180.75
182.57
182.07
179.51
175.23
169.65
163.18
156.15
148.81
141.30
133.69
126.02
118.33
110.69
103.16
95.80
88.68
81.83
75.25
68.95
62.95
57.25
51.86
46.78
42.03
37.59
33.45
29.61
26.07
22.81
19.83
17.11
14.67
12.48
10.54
8.83
7.35
6.07
4.97
4.05
3.27
2.62
2.09
1.65
1.30
1.01
0.79
0.61
0.47
0.37
0.28
0.22
0.18
0.14
0.12
0.11
0.11
0.11
0.13
0.14
0.17
0.20
0.23
0.27
0.31
0.36
0.40
0.44
0.49
0.54
0.59
0.64
0.70
0.76
0.82
0.89
0.97
1.05
1.14
1.25
1.36
1.49
1.64
1.80
1.99
2.19
2.42
2.67
2.95
3.26
3.60
3.97
4.37
4.81
5.29
5.80
6.35
6.93
7.56
8.24
8.95
9.71
10.51
11.36
12.25
13.19
14.18
15.23
16.34
17.52
18.75
20.00
21.25
22.43
23.45
24.19
24.55
24.40
23.64
22.18
19.99
17.09
13.56
9.48
5.06
0.50
-3.99
-8.21
-11.96
-15.10
-17.53
-19.19
-20.06
-20.19
-19.68
-18.67
-17.29
-15.70
-13.99
-12.23
-10.41
-8.53
-6.57
-4.59
-2.67
-0.90
0.65
1.96
3.05
4.05
5.09
6.33
7.73
9.22
10.71
12.12
13.45
14.81
16.41
18.51
21.36
24.74
28.31
31.73
34.65
36.96
38.81
40.66
43.07
46.56
50.84
55.37
59.46
62.45
64.04
64.50
64.61
65.33
67.42
70.37
73.15
74.32
72.48
66.68
56.69
42.67
24.41
5.63
-12.83
-31.17
-50.43
-72.08
-97.72
-128.40
-164.07
-202.85
-240.53
-271.96
-291.48
-295.15
-282.63
-257.39
-225.51
-193.37
-165.53
-143.52
-126.75
-112.98
-100.38
-88.61
-78.85
-72.64
-71.18
-74.69
-82.04
-91.35
-99.35
-102.92
-100.17
-90.73
-75.11
-54.84
-32.33
-10.59
6.65
17.09
19.95
16.52
10.57
7.91
13.74
30.18
55.21
83.11
108.23
126.46
136.23
134.07
119.39
95.68
68.89
47.74
32.61
22.81
18.38
18.11
21.92
30.35
43.73
62.06
85.14
112.14
142.52
174.18
202.86
223.23
231.06
224.73
205.81
178.45
147.36
117.13
90.28
67.31
47.95
32.53
22.11
17.81
19.90
26.99
36.80
46.00
50.97
48.73
37.93
19.24
-4.94
-31.35
-57.07
-79.76
-97.77
-109.60
-113.52
-108.51
-95.73
-79.61
-67.20
-65.41
-77.54
-101.27
-129.52
-153.82
-168.51
-173.07
-171.51
-169.35
-170.27
-174.25
-178.31
-178.73
-173.18
-161.73
-146.02
-127.75
-107.26
-83.39
-54.56
-20.40
17.24
54.71
88.07
115.13
136.59
155.76
176.74
202.28
232.24
263.59
291.64
311.87
321.45
319.85
308.57
290.38
268.27
244.84
221.80
199.96
179.37
159.84
141.25
123.43
106.07
88.55
70.04
49.90
28.40
7.00
-11.80
-25.20
-31.01
-28.31
-17.49
0.20
23.21
50.03
78.84
107.06
131.21
147.60
153.54
148.30
133.59
112.75
89.59
67.20
47.29
30.54
17.09
7.08
0.64
-2.29
-2.13
0.19
3.60
7.09
9.82
11.06
10.01
5.99
-1.48
-12.34
-26.04
-41.58
-57.64
-72.88
-85.99
-95.89
-101.78
-103.43
-101.26
-96.32
-90.13
-84.52
-81.31
-82.20
-88.49
-100.87
-119.28
-142.80
-170.00
-199.31
-229.50
-259.76
-289.35
-317.29
-341.83
-360.82
-371.98
-373.53
-364.52
-344.80
-314.79
-275.37
-228.05
-175.12
-119.88
-66.39
-18.80
19.48
46.72
63.30
71.46
74.51
75.59
76.70
78.10
78.61
76.51
70.63
61.28
50.72
42.82
42.16
52.26
73.99
104.85
139.63
172.63
199.78
219.91
234.12
243.87
249.28
248.94
241.22
226.04
205.91
185.00
167.20
154.35
145.72
139.01
132.09
124.09
115.39
106.83
98.90
91.38
83.46
74.19
62.83
49.16
33.61
17.28
1.75
-11.42
-21.11
-26.88
-28.80
-27.08
-21.84
-13.22
-1.79
11.06
23.20
32.33
36.61
35.18
28.26
16.75
1.83
-15.36
-33.74
-52.10
-69.23
-83.91
-95.40
-103.39
-107.94
-109.27
-107.54
-102.84
-95.38
-85.84
-75.51
-66.10
-59.26
-56.02
-56.42
-59.47
-63.65
-67.56
-70.57
-72.95
-75.44
-78.43
-81.36
-82.52
-79.74
-71.43
-57.62
-40.05
-21.54
-4.64
9.61
21.94
34.12
47.35
60.99
72.08
76.45
70.61
53.34
26.00
-8.38
-46.45
-84.96
-120.00
-146.24
-157.66
-150.19
-125.20
-91.08
-61.25
-48.55
-59.22
-89.81
-129.29
-165.08
-189.28
-201.51
-207.11
-212.55
-221.16
-232.15
-242.43
-249.43
-252.71
-253.17
-251.29
-245.44
-232.15
-207.56
-169.49
-118.66
-58.75
4.59
65.03
116.58
154.56
176.30
181.57
172.70
154.13
131.18
108.83
90.51
77.44
68.83
62.79
57.30
51.25
44.78
38.99
35.30
34.37
35.62
37.14
36.38
31.23
21.11
7.54
-6.17
-16.03
-19.04
-14.44
-4.09
8.38
19.33
26.98
32.39
38.78
50.29
69.78
97.40
130.12
162.12
185.77
193.35
179.07
141.22
84.16
18.48
-41.11
-80.36
-91.21
-75.81
-46.96
-23.58
-23.11
-53.92
-111.66
-181.27
-243.52
-283.16
-294.40
-281.51
-254.68
-224.38
-196.89
-173.36
-151.93
-130.79
-110.31
-92.45
-78.85
-69.14
-60.70
-49.89
-34.18
-13.52
9.87
32.52
51.56
65.88
76.40
85.42
95.45
107.98
122.56
136.98
147.97
152.85
150.83
143.41
133.68
124.49
116.69
108.33
95.72
75.09
44.55
5.10
-39.75
-85.16
-126.17
-158.69
-179.81
-187.85
-182.44
-164.50
-135.95
-99.16
-56.24
-8.89
41.01
90.41
134.55
167.34
183.19
179.02
155.55
117.46
72.13
27.89
-7.50
-27.80
-28.80
-9.07
29.28
80.44
135.59
185.02
220.60
237.43
234.02
211.13
170.75
115.93
51.49
-14.94
-73.37
-113.33
-126.73
-110.27
-66.10
-0.88
75.80
153.17
220.15
266.38
283.66
267.90
221.09
152.17
75.71
8.28
-36.49
-52.66
-44.03
-22.86
-5.03
-3.59
-23.53
-60.25
-102.52
-138.48
-161.36
-171.81
-175.75
-179.27
-184.17
-186.51
-179.14
-156.22
-116.49
-63.79
-4.23
57.66
121.02
187.98
260.12
334.75
403.57
454.82
477.98
468.46
429.68
371.59
306.44
244.00
188.69
139.37
91.20
38.59
-22.33
-91.81
-166.21
-238.51
-300.11
-343.25
-363.12
-358.74
-332.36
-287.86
-229.84
-163.57
-95.87
-35.42
8.52
28.71
22.33
-8.18
-56.46
-114.48
-174.59
-230.06
-274.66
-302.60
-309.29
-292.69
-254.06
-197.80
-130.48
-59.77
5.74
56.65
83.49
79.40
43.33
-17.63
-89.11
-153.53
-195.96
-208.79
-192.93
-155.51
-105.55
-50.34
5.88
60.82
112.19
156.49
189.59
208.51
212.91
205.78
192.09
176.85
163.36
152.57
143.43
134.14
123.35
110.88
97.87
86.11
77.14
71.61
68.88
67.55
66.14
63.91
60.91
57.66
54.41
50.64
45.23
37.00
25.32
10.29
-7.40
-26.81
-46.92
-66.70
-85.07
-101.09
-114.41
-125.50
-135.57
-146.00
-157.75
-170.96
-185.32
-200.66
-217.51
-236.79
-258.72
-281.67
-301.64
-313.22
-311.55
-294.27
-262.53
-220.23
-172.19
-121.87
-70.23
-16.24
41.13
100.60
157.61
205.13
236.39
247.66
239.85
217.77
187.73
154.84
121.42
87.29
51.53
14.23
-22.80
-56.61
-84.61
-105.46
-119.35
-127.25
-130.15
-128.59
-123.04
-114.11
-102.92
-90.83
-78.92
-67.56
-56.55
-45.38
-33.67
-21.14
-7.48
7.75
24.98
44.14
64.32
83.81
100.79
114.14
124.08
132.13
140.34
150.31
162.48
175.95
188.90
199.04
204.02
201.89
191.69
173.91
150.79
125.87
102.79
84.10
70.47
60.66
52.26
42.68
29.83
12.48
-9.75
-36.21
-64.90
-92.42
-114.41
-126.77
-127.04
-115.34
-94.23
-67.59
-39.02
-10.83
16.18
42.01
66.57
89.21
108.88
124.76
136.91
146.34
154.66
163.27
172.65
182.19
190.52
196.13
197.97
195.84
190.23
182.02
172.31
162.40
153.85
148.18
146.20
147.21
148.67
146.89
138.51
122.17
99.38
74.02
50.81
33.47
23.39
19.46
18.98
18.83
16.60
11.10
2.51
-8.09
-19.08
-28.95
-36.71
-42.16
-45.71
-48.02
-49.36
-49.27
-46.55
-39.77
-27.93
-10.93
10.28
34.03
58.52
82.32
104.48
124.36
141.32
154.66
163.75
168.43
169.17
167.08
163.41
159.16
154.84
150.62
146.65
143.11
139.99
136.83
132.58
125.91
115.91
102.69
87.64
73.03
61.14
53.54
50.63
51.85
56.24
62.91
71.05
79.68
87.23
91.51
90.12
81.19
64.14
39.87
10.41
-21.73
-54.33
-85.67
-114.29
-138.58
-156.72
-167.24
-169.85
-166.10
-159.39
-153.95
-153.51
-160.08
-173.34
-191.04
-209.79
-226.06
-237.00
-240.83
-237.00
-226.21
-210.25
-191.65
-173.06
-156.71
-143.91
-134.95
-129.37
-126.24
-124.50
-122.93
-120.27
-115.11
-106.29
-93.25
-76.40
-57.14
-37.42
-19.10
-3.35
9.51
19.78
27.94
34.36
39.21
42.65
45.01
46.66
47.86
48.32
47.07
42.93
35.03
23.59
10.19
-2.46
-11.28
-13.78
-8.88
2.82
19.27
37.73
55.60
71.08
83.34
92.31
98.21
101.38
102.31
101.86
101.43
102.76
107.32
115.59
126.66
138.36
147.94
152.91
151.83
144.50
131.94
115.92
98.45
81.46
66.46
54.47
45.88
40.45
37.21
34.64
30.79
23.87
12.80
-2.27
-19.89
-37.73
-53.43
-65.40
-73.31
-77.87
-80.32
-81.81
-82.91
-83.75
-84.21
-84.28
-84.09
-83.85
-83.58
-82.98
-81.53
-78.66
-74.01
-67.72
-60.40
-53.07
-46.74
-42.17
-39.64
-38.88
-39.32
-40.36
-41.75
-43.65
-46.49
-50.57
-55.56
-60.37
-63.35
-62.86
-58.02
-49.05
-37.18
-24.14
-11.39
0.26
10.75
20.35
29.44
38.06
46.12
53.50
60.08
65.87
70.83
74.86
77.89
79.99
81.43
82.66
84.04
85.43
86.17
85.20
81.53
74.81
65.57
55.10
45.11
37.10
31.88
29.39
28.70
28.52
27.66
25.35
21.39
16.06
9.93
3.58
-2.43
-7.75
-12.28
-16.14
-19.82
-23.96
-29.28
-36.26
-45.13
-55.92
-68.60
-83.17
-99.52
-117.13
-134.86
-151.04
-163.89
-171.93
-174.52
-171.87
-164.97
-155.42
-144.96
-135.30
-127.68
-122.91
-120.94
-121.20
-122.63
-124.10
-124.76
-124.09
-122.03
-118.78
-114.69
-110.06
-105.02
-99.49
-93.32
-86.55
-79.48
-72.67
-66.68
-61.86
-58.11
-55.05
-52.17
-49.16
-45.99
-42.73
-39.35
-35.53
-30.86
-25.13
-18.69
-12.36
-7.13
-3.63
-1.76
-0.91
-0.32
0.33
0.79
0.61
-0.47
-2.00
-3.18
-3.35
-2.55
-1.50
-1.11
-1.90
-3.62
-5.41
-6.36
-6.07
-4.83
-3.48
-2.88
-3.48
-5.15
-7.30
-9.16
-10.08
-9.75
-8.21
-5.83
-3.01
-0.13
2.55
4.77
6.11
6.06
4.20
0.63
-4.06
-8.82
-12.55
-14.55
-14.79
-13.74
-12.13
-10.64
-9.62
-9.11
-8.91
-8.64
-7.84
-6.11
-3.31
0.37
4.51
8.62
12.37
15.79
19.00
21.96
24.46
26.01
26.33
25.43
23.77
21.98
20.52
19.61
19.00
18.40
17.47
16.04
14.03
11.38
8.24
4.80
1.46
-1.35
-3.32
-4.41
-4.94
-5.41
-6.38
-8.09
-10.44
-13.03
-15.24
-16.63
-17.21
-17.40
-17.92
-19.45
-22.38
-26.57
-31.56
-36.73
-41.32
-44.68
-46.22
-45.52
-42.56
-37.75
-32.00
-26.43
-22.07
-19.46
-18.46
-18.33
-18.16
-17.20
-15.25
-12.68
-10.29
-8.90
-9.02
-10.62
-13.17
-15.91
-18.27
-20.25
-22.39
-25.58
-30.73
-38.24
-48.08
-59.67
-72.10
-84.39
-95.73
-105.78
-114.63
-122.75
-130.84
-139.53
-149.22
-159.71
-170.21
-179.27
-185.35
-187.23
-184.64
-178.25
-169.49
-159.99
-151.07
-143.40
-136.82
-130.48
-122.77
-111.73
-95.44
-72.73
-44.10
-11.93
19.98
47.54
67.31
76.82
74.33
58.91
31.07
-6.18
-46.86
-82.79
-106.10
-112.09
-100.88
-77.06
-47.16
-16.67
11.83
38.62
65.06
91.78
117.93
141.92
162.80
181.01
198.07
215.21
232.23
247.14
257.06
260.06
256.46
249.02
241.57
237.23
236.88
238.99
240.75
239.66
234.62
225.95
214.58
201.21
185.90
168.33
148.36
126.37
103.30
80.20
57.69
35.70
13.67
-9.18
-33.25
-58.13
-82.53
-104.70
-122.97
-136.49
-145.56
-151.62
-156.50
-161.62
-167.36
-172.79
-176.31
-176.53
-172.94
-166.06
-156.95
-146.44
-134.82
-121.97
-107.89
-93.05
-78.44
-65.13
-53.70
-44.17
-36.30
-30.04
-25.79
-24.06
-24.87
-27.37
-29.97
-31.03
-29.77
-26.79
-23.75
-22.79
-25.40
-31.98
-41.69
-52.51
-61.77
-66.43
-64.02
-53.35
-35.20
-12.16
12.16
34.58
53.45
68.93
82.36
95.03
107.18
117.71
125.05
128.06
126.97
123.29
118.99
115.65
113.70
112.54
111.04
108.40
104.52
100.03
96.01
93.02
90.73
87.87
82.60
73.37
59.53
41.64
21.02
-0.69
-22.18
-42.27
-59.68
-72.78
-79.83
-79.88
-73.41
-62.72
-51.25
-42.47
-38.47
-39.48
-44.02
-49.96
-55.48
-59.49
-61.59
-61.51
-58.73
-52.49
-42.25
-28.14
-11.29
6.19
21.71
32.99
38.73
39.25
36.41
33.02
31.69
33.83
38.85
44.54
48.06
47.26
41.59
31.97
20.25
8.26
-2.57
-11.18
-16.53
-17.54
-13.49
-4.53
8.02
22.05
35.58
47.53
58.14
68.34
78.85
89.23
97.92
102.68
101.85
95.08
83.55
69.65
56.14
45.25
38.07
34.37
32.92
32.08
30.49
27.46
22.98
17.37
10.91
3.59
-4.65
-13.69
-22.99
-31.72
-39.08
-44.66
-48.52
-50.76
-51.05
-48.49
-41.94
-30.86
-15.83
1.35
18.36
33.20
44.93
53.68
60.18
65.22
69.25
72.44
74.89
76.77
78.24
79.35
79.95
79.78
78.71
76.94
74.94
73.29
72.32
71.92
71.53
70.31
67.53
62.94
56.77
49.70
42.47
35.53
28.83
21.84
13.88
4.65
-5.49
-15.35
-23.13
-26.99
-25.68
-18.82
-7.12
7.94
24.57
41.17
56.65
70.43
82.26
91.85
98.81
102.61
102.83
99.46
92.98
84.33
74.58
64.71
55.31
46.62
38.58
31.07
24.12
17.87
12.53
8.26
5.07
2.81
1.24
0.01
-1.35
-3.50
-7.29
-13.61
-23.05
-35.55
-50.07
-64.53
-76.18
-82.35
-81.39
-73.22
-59.44
-42.71
-25.82
-10.72
1.90
12.46
21.99
31.41
41.18
51.24
61.12
70.16
77.61
82.83
85.61
86.63
87.49
90.48
97.82
110.85
129.33
151.44
174.27
194.67
210.19
219.47
222.50
220.24
214.26
206.16
197.08
187.45
176.97
164.97
150.95
135.17
118.87
104.14
93.40
88.56
90.46
98.55
111.02
125.44
139.47
151.35
160.24
166.24
170.13
173.02
175.80
178.60
180.44
179.43
173.37
160.69
141.22
116.23
88.06
59.00
30.65
3.56
-22.39
-47.52
-72.01
-96.03
-119.87
-144.14
-169.26
-195.10
-220.58
-244.14
-264.32
-280.34
-292.32
-300.87
-306.52
-309.42
-309.47
-306.60
-301.00
-293.06
-282.87
-270.02
-253.82
-233.90
-210.91
-186.74
-163.83
-144.16
-128.35
-115.39
-103.31
-90.34
-75.64
-59.73
-44.05
-30.32
-20.06
-14.38
-13.93
-18.80
-28.25
-40.50
-52.86
-62.39
-66.93
-65.77
-59.65
-50.12
-38.57
-25.52
-10.64
6.60
26.34
47.90
70.05
91.45
111.05
128.03
141.69
151.26
155.95
155.42
150.03
140.78
129.06
116.00
102.25
88.00
73.15
57.68
41.78
25.81
10.31
-4.12
-16.70
-26.60
-33.24
-36.61
-37.44
-37.00
-36.58
-36.88
-37.76
-38.33
-37.64
-35.24
-31.55
-27.74
-25.23
-25.21
-28.23
-34.24
-42.59
-52.04
-60.73
-66.40
-66.80
-60.69
-48.73
-33.73
-19.97
-11.61
-10.82
-16.84
-26.31
-35.11
-40.28
-41.32
-39.99
-38.93
-40.01
-43.32
-47.46
-50.69
-52.11
-52.12
-52.06
-53.14
-55.66
-58.78
-61.18
-61.86
-60.70
-58.56
-56.62
-55.76
-56.20
-57.51
-59.03
-60.22
-60.95
-61.42
-62.00
-63.01
-64.56
-66.58
-68.76
-70.72
-72.00
-72.22
-71.18
-68.98
-66.05
-63.05
-60.71
-59.66
-60.31
-62.82
-66.93
-71.87
-76.33
-78.58
-77.01
-70.68
-59.71
-45.47
-30.12
-15.77
-3.76
5.61
12.78
18.25
22.22
24.50
25.01
24.33
23.80
25.11
29.54
37.26
47.22
57.55
66.37
72.47
75.66
76.46
75.51
73.20
69.45
63.99
56.74
48.03
38.55
29.18
20.62
13.35
7.70
3.97
2.36
2.85
5.03
8.06
10.97
13.04
14.03
14.18
13.88
13.47
13.05
12.65
12.32
12.22
12.38
12.63
12.60
11.90
10.42
8.49
6.67
5.30
4.23
2.71
-0.12
-4.61
-10.25
-15.71
-19.72
-21.63
-21.91
-21.78
-22.54
-24.75
-27.95
-31.02
-32.80
-32.82
-31.43
-29.60
-28.48
-28.92
-31.29
-35.37
-40.47
-45.43
-49.03
-50.20
-48.53
-44.36
-38.62
-32.50
-26.95
-22.50
-19.05
-16.19
-13.21
-9.37
-4.12
2.70
10.53
18.15
23.85
26.12
24.27
18.64
10.52
1.53
-6.94
-14.14
-19.87
-24.21
-27.12
-28.41
-27.80
-25.27
-21.20
-16.38
-11.64
-7.57
-4.38
-1.90
0.18
2.09
3.87
5.45
6.71
7.61
8.18
8.56
8.96
9.61
10.61
11.94
13.27
14.18
14.33
13.69
12.56
11.33
10.30
9.49
8.70
7.65
6.24
4.49
2.48
0.19
-2.44
-5.39
-8.50
-11.24
-12.98
-13.13
-11.47
-8.25
-4.09
0.14
3.58
5.62
6.14
5.59
4.82
4.76
5.94
8.25
11.02
13.36
14.69
14.93
14.45
13.69
12.85
11.78
10.27
8.30
6.21
4.46
3.36
2.70
1.90
0.37
-2.13
-5.27
-8.46
-11.11
-13.08
-14.58
-15.89
-17.04
-17.69
-17.31
-15.53
-12.36
-8.11
-3.28
1.68
6.53
11.06
15.11
18.41
20.81
22.36
23.44
24.83
27.39
31.65
37.59
44.42
50.66
54.62
54.81
50.46
41.72
29.52
15.30
0.53
-13.49
-25.81
-35.80
-43.22
-48.15
-51.07
-52.68
-53.68
-54.61
-55.56
-56.29
-56.47
-55.80
-54.32
-52.25
-49.86
-47.24
-44.28
-40.77
-36.55
-31.75
-26.80
-22.30
-18.77
-16.41
-14.98
-13.96
-12.79
-11.12
-8.94
-6.47
-4.04
-1.96
-0.33
0.86
1.49
1.26
-0.29
-3.60
-8.60
-14.60
-20.50
-25.37
-29.01
-32.13
-35.85
-40.93
-47.29
-54.09
-60.38
-65.88
-71.07
-76.79
-83.25
-89.66
-94.58
-96.73
-95.91
-92.93
-88.91
-84.37
-78.83
-71.25
-61.07
-48.98
-36.75
-26.30
-18.50
-12.68
-7.15
-0.36
8.05
17.14
25.27
31.09
34.38
36.01
37.34
39.55
43.30
48.68
55.65
64.22
74.49
86.31
99.19
112.23
124.46
135.25
144.32
151.75
157.54
161.33
162.32
159.50
151.96
139.31
121.87
100.42
76.08
49.73
21.99
-6.65
-35.56
-63.74
-89.87
-112.64
-131.26
-145.63
-156.45
-164.79
-171.58
-177.23
-181.35
-183.02
-180.98
-174.13
-161.76
-143.99
-122.01
-98.14
-75.28
-55.91
-41.11
-30.37
-22.05
-14.34
-6.22
2.34
10.84
18.87
26.66
34.80
43.73
53.11
61.93
68.97
73.71
76.52
78.39
80.25
82.30
84.07
84.90
84.59
83.73
83.56
85.58
90.99
100.51
114.55
133.43
157.30
185.71
216.78
246.87
271.16
284.92
285.35
272.64
249.76
221.25
191.24
162.06
133.72
104.57
72.30
35.17
-7.20
-53.39
-100.13
-142.76
-176.14
-195.96
-200.07
-189.38
-167.81
-141.42
-116.92
-100.09
-94.82
-102.81
-124.00
-157.16
-200.20
-249.93
-301.67
-349.17
-385.27
-403.72
-401.23
-379.17
-343.44
-302.44
-263.92
-232.19
-207.15
-185.37
-162.62
-136.31
-106.52
-75.46
-45.87
-19.54
3.28
23.56
42.43
60.45
77.34
92.55
105.95
118.26
130.73
144.47
159.50
174.53
187.24
195.34
197.59
194.40
187.56
179.47
172.11
166.47
162.60
160.14
158.87
158.96
160.76
164.46
169.77
175.94
182.01
187.11
190.79
192.89
193.48
192.60
190.07
185.55
178.68
169.34
157.84
145.07
132.07
119.83
108.73
98.57
88.70
78.52
67.73
56.47
45.10
33.90
23.03
12.45
2.10
-7.92
-17.50
-26.57
-35.33
-44.03
-52.88
-61.63
-69.68
-76.18
-80.25
-81.41
-79.65
-75.49
-69.80
-63.69
-58.24
-54.54
-53.59
-56.11
-62.43
-72.19
-84.26
-96.98
-108.67
-118.31
-125.97
-132.86
-140.84
-151.56
-165.77
-183.02
-201.83
-220.16
-236.01
-247.71
-254.01
-254.12
-247.79
-235.43
-218.16
-197.79
-176.32
-155.50
-136.34
-118.93
-102.47
-85.55
-66.49
-43.88
-17.00
13.93
47.67
82.36
116.05
147.26
175.26
199.90
221.26
239.14
253.04
262.44
267.23
267.88
265.32
260.48
253.87
245.34
234.20
219.53
200.53
176.82
148.73
117.41
84.80
53.43
25.89
4.23
-10.51
-18.54
-21.09
-19.98
-16.99
-13.46
-10.20
-7.35
-4.55
-1.00
4.21
11.77
21.81
33.63
45.91
57.22
66.54
73.66
79.03
83.38
87.09
90.03
91.69
91.49
89.32
85.58
81.01
76.31
71.93
67.96
64.24
60.56
56.78
52.87
48.82
44.56
40.05
35.22
30.13
24.93
19.89
15.33
11.43
8.21
5.49
2.90
0.11
-3.05
-6.52
-10.00
-13.12
-15.44
-16.63
-16.45
-14.86
-12.13
-8.87
-5.90
-3.94
-3.41
-4.13
-5.51
-6.85
-7.74
-8.20
-8.56
-9.13
-9.96
-10.73
-11.02
-10.53
-9.36
-7.96
-7.05
-7.25
-8.83
-11.61
-14.93
-17.88
-19.64
-19.87
-18.81
-17.27
-16.23
-16.41
-18.00
-20.63
-23.64
-26.36
-28.37
-29.44
-29.42
-28.12
-25.36
-21.14
-15.77
-9.87
-4.17
0.85
5.24
9.76
15.54
23.65
34.53
47.77
62.15
76.09
88.09
96.97
102.05
102.98
99.57
91.84
80.03
64.86
47.52
29.69
13.16
-0.52
-10.52
-16.86
-20.43
-22.62
-24.83
-28.19
-33.33
-40.58
-49.92
-60.88
-72.44
-82.95
-90.53
-93.66
-92.00
-86.46
-78.97
-71.58
-65.63
-61.38
-58.26
-55.58
-53.03
-50.91
-49.77
-49.99
-51.32
-53.08
-54.45
-54.88
-54.35
-53.24
-52.10
-51.22
-50.70
-50.43
-50.20
-49.99
-49.71
-49.09
-47.40
-43.67
-37.12
-27.81
-16.93
-6.59
0.98
4.47
4.01
1.17
-1.94
-3.59
-3.33
-1.78
-0.10
0.98
1.52
2.19
3.72
6.15
8.70
10.13
9.40
6.21
1.17
-4.36
-9.17
-12.50
-14.51
-16.04
-18.15
-21.68
-26.86
-33.37
-40.54
-47.76
-54.67
-61.27
-67.76
-74.40
-81.36
-88.69
-96.27
-103.85
-111.22
-118.13
-124.71
-131.37
-138.90
-148.13
-159.74
-173.93
-190.33
-208.13
-226.07
-242.70
-256.59
-266.71
-272.77
-275.32
-275.36
-273.84
-271.05
-266.43
-258.84
-247.30
-231.56
-212.25
-190.61
-167.93
-145.15
-122.80
-101.12
-80.32
-60.55
-41.84
-23.94
-6.33
11.65
30.78
51.81
75.31
101.36
129.23
157.20
182.72
203.04
216.04
220.95
218.48
210.44
198.90
185.50
171.10
155.88
139.90
123.38
106.86
91.13
76.98
65.10
56.20
51.11
50.72
55.65
65.76
79.79
95.56
110.55
122.78
131.40
136.81
140.17
142.67
145.08
147.58
150.19
153.14
156.99
162.43
169.76
178.56
187.77
196.09
202.58
207.12
210.39
213.82
219.05
227.54
240.00
256.02
273.83
290.38
302.12
306.00
300.63
286.74
266.87
244.30
221.75
200.56
180.61
160.89
140.14
117.33
91.72
62.85
30.89
-3.16
-37.15
-68.22
-93.61
-111.61
-122.16
-126.76
-127.71
-127.35
-127.41
-128.83
-131.86
-136.27
-141.35
-145.99
-148.86
-148.72
-144.92
-137.74
-128.25
-117.93
-108.16
-99.82
-93.16
-87.89
-83.44
-79.18
-74.71
-69.95
-65.28
-61.31
-58.64
-57.50
-57.59
-58.08
-58.00
-56.63
-53.72
-49.57
-44.63
-39.32
-33.89
-28.49
-23.31
-18.67
-15.00
-12.58
-11.62
-12.14
-14.05
-17.18
-21.19
-25.55
-29.72
-33.28
-36.04
-38.23
-40.16
-42.14
-44.30
-46.53
-48.71
-50.72
-52.60
-54.40
-56.17
-57.79
-59.09
-59.92
-60.30
-60.31
-60.02
-59.31
-57.95
-55.73
-52.66
-49.04
-45.38
-42.04
-38.91
-35.44
-30.87
-24.66
-16.83
-7.99
0.90
8.99
15.81
21.16
25.15
27.86
29.39
29.98
29.96
29.80
29.85
30.17
30.46
30.24
29.20
27.30
24.85
22.31
20.02
18.09
16.28
14.25
11.71
8.61
5.03
1.24
-2.61
-6.55
-10.77
-15.54
-20.87
-26.39
-31.37
-34.84
-36.03
-34.69
-31.19
-26.37
-21.11
-15.98
-11.14
-6.51
-2.13
1.75
4.62
6.01
5.81
4.38
2.42
0.63
-0.43
-0.52
0.46
2.42
5.14
8.15
10.70
12.01
11.55
9.41
6.22
2.84
-0.02
-2.16
-3.81
-5.35
-6.98
-8.58
-9.92
-10.98
-12.17
-14.11
-17.14
-20.99
-24.71
-27.10
-27.27
-25.02
-20.84
-15.58
-10.06
-4.75
0.16
4.61
8.61
12.09
15.09
17.73
20.15
22.36
24.14
25.16
25.19
24.32
22.92
21.41
20.05
18.70
17.13
15.01
12.34
9.41
6.73
4.73
3.55
2.87
2.09
0.63
-1.82
-5.12
-8.80
-12.34
-15.53
-18.57
-21.83
-25.60
-29.55
-32.91
-34.66
-34.14
-31.37
-27.02
-22.10
-17.39
-13.25
-9.48
-5.76
-1.91
1.98
5.58
8.56
10.65
11.80
12.04
11.64
11.07
10.92
11.69
13.47
15.85
17.94
18.79
17.83
15.15
11.41
7.53
4.21
1.65
-0.34
-2.24
-4.55
-7.62
-11.74
-17.05
-23.36
-30.06
-36.11
-40.23
-41.39
-39.18
-34.03
-27.01
-19.42
-12.37
-6.46
-1.82
1.87
5.07
8.22
11.48
14.70
17.44
19.25
19.85
19.33
18.08
16.52
14.88
13.21
11.50
9.83
8.38
7.31
6.51
5.45
3.37
-0.37
-5.95
-12.92
-20.44
-27.57
-33.61
-38.25
-41.59
-43.88
-45.31
-45.90
-45.47
-43.62
-40.04
-34.54
-27.29
-18.78
-9.72
-0.80
7.44
14.59
20.50
25.13
28.55
30.85
32.21
32.83
32.95
32.85
32.80
32.98
33.40
33.73
33.39
31.70
28.25
23.15
17.00
10.79
5.31
0.86
-2.82
-6.32
-10.14
-14.50
-19.34
-24.51
-29.91
-35.45
-40.84
-45.39
-48.03
-47.68
-43.83
-36.83
-27.85
-18.50
-10.04
-3.07
2.65
7.71
12.61
17.40
21.70
25.05
27.35
28.94
30.44
32.32
34.51
36.43
37.27
36.45
33.93
30.24
26.34
23.06
20.90
19.77
19.10
18.02
15.63
11.34
5.01
-2.87
-11.48
-19.83
-27.04
-32.40
-35.35
-35.46
-32.47
-26.56
-18.37
-8.99
0.40
8.91
16.19
22.39
27.87
32.89
37.41
41.12
43.72
45.08
45.24
44.39
42.80
40.70
38.38
36.10
34.08
32.39
30.92
29.43
27.64
25.50
22.98
20.22
17.28
14.11
10.55
6.45
1.74
-3.51
-9.15
-15.03
-21.04
-27.00
-32.54
-37.09
-39.94
-40.55
-38.72
-34.64
-28.74
-21.53
-13.47
-4.94
3.48
11.14
17.37
21.79
24.40
25.65
26.11
26.23
26.32
26.53
26.87
27.32
27.72
27.84
27.45
26.52
25.28
24.06
23.10
22.32
21.31
19.60
16.93
13.45
9.69
6.14
3.08
0.35
-2.43
-5.79
-10.03
-15.16
-20.87
-26.69
-32.13
-36.61
-39.54
-40.22
-38.12
-33.05
-25.53
-16.69
-7.91
-0.39
5.37
9.59
12.92
16.01
19.14
22.24
25.07
27.55
29.80
32.10
34.55
37.13
39.67
42.08
44.30
46.34
48.14
49.54
50.48
50.99
51.36
52.08
53.60
56.12
59.38
62.77
65.39
66.57
66.13
64.72
63.88
65.78
72.60
85.59
104.07
125.05
143.64
154.57
154.04
140.95
117.14
86.35
52.61
19.06
-12.47
-41.35
-67.79
-92.51
-116.38
-139.83
-162.23
-181.59
-195.32
-201.53
-200.38
-194.63
-188.53
-185.97
-188.83
-196.56
-207.15
-218.75
-230.67
-243.28
-256.98
-271.21
-284.07
-293.09
-296.28
-293.14
-284.96
-274.34
-264.19
-256.54
-251.83
-248.71
-244.77
-237.66
-226.09
-210.53
-192.92
-175.80
-161.11
-149.40
-139.66
-130.12
-119.27
-106.80
-93.79
-81.96
-72.47
-65.18
-58.44
-49.93
-37.86
-21.81
-3.07
15.94
32.66
45.19
52.83
55.92
55.58
52.94
49.04
44.65
40.54
37.44
35.72
34.90
33.26
28.19
17.24
-0.40
-22.89
-45.89
-63.98
-72.72
-70.30
-57.93
-38.77
-16.42
6.69
29.60
52.46
75.54
98.79
121.71
143.82
164.98
185.36
205.09
223.60
239.50
251.00
256.60
255.91
249.80
240.06
228.35
215.60
201.80
186.66
170.39
154.18
139.91
129.22
122.54
118.74
115.53
110.33
101.20
87.28
68.61
46.05
21.23
-3.12
-23.18
-34.45
-33.33
-18.60
7.54
39.83
71.88
98.46
117.35
129.45
137.51
144.05
149.61
152.40
148.98
135.62
109.41
69.07
15.44
-47.89
-114.43
-175.51
-222.21
-248.10
-251.64
-236.92
-212.25
-187.00
-168.40
-159.61
-159.93
-166.43
-176.05
-186.54
-196.32
-203.52
-205.57
-199.45
-182.95
-155.84
-120.38
-80.95
-42.47
-8.73
18.75
40.84
59.79
77.77
95.68
112.84
127.40
137.53
142.45
142.81
140.48
137.70
136.09
136.11
137.07
137.62
136.51
133.09
127.48
120.43
112.86
105.39
98.05
90.15
80.59
68.27
52.62
34.02
13.95
-5.22
-20.75
-30.14
-31.65
-24.83
-10.64
8.71
30.22
50.83
68.21
81.21
90.01
95.66
99.43
102.26
104.55
106.29
107.37
107.82
107.75
107.21
105.85
103.11
98.44
91.75
83.68
75.43
68.26
62.90
59.15
55.95
51.81
45.48
36.44
25.05
12.38
-0.32
-12.06
-22.51
-32.17
-42.23
-54.12
-68.89
-86.53
-105.66
-123.58
-136.96
-142.75
-139.09
-125.75
-104.19
-76.96
-47.01
-16.96
11.39
37.07
59.80
79.71
97.42
113.49
128.22
141.68
153.79
164.32
173.08
179.66
183.46
184.23
181.98
176.95
169.65
160.91
151.56
142.39
133.62
124.85
116.14
107.44
98.47
88.95
78.83
68.08
57.24
46.54
35.68
26.49
20.12
16.47
14.51
13.69
13.94
17.65
26.85
42.06
66.97
102.67
146.09
191.05
231.50
262.43
284.90
301.26
313.38
329.81
355.76
390.14
426.54
458.24
479.54
493.41
503.74
512.53
529.33
559.00
598.24
637.40
667.01
679.58
679.48
672.97
602.74
441.55
204.16
-58.30
-293.57
-452.99
-556.81
-626.86
-678.15
-718.61
-742.10
-738.03
-702.06
-639.71
-562.72
-486.94
-418.99
-361.96
-316.36
-273.33
-226.26
-176.19
-131.42
-101.33
-93.31
-103.79
-125.92
-153.55
-178.27
-195.74
-207.16
-217.52
-231.21
-250.84
-272.48
-291.14
-303.32
-305.89
-298.92
-285.88
-272.09
-261.98
-258.16
-259.27
-263.00
-267.66
-271.66
-274.24
-275.29
-274.53
-270.84
-262.56
-247.50
-224.68
-195.08
-161.37
-127.08
-95.38
-68.20
-45.83
-27.07
-10.09
6.82
24.63
43.33
61.97
79.03
92.76
101.54
104.23
100.33
90.14
74.76
55.98
36.10
17.40
1.75
-9.80
-17.05
-20.53
-21.08
-19.56
-16.76
-13.50
-10.56
-8.77
-8.81
-11.01
-15.24
-20.81
-26.48
-30.45
-30.60
-24.97
-12.42
6.63
30.01
54.23
75.52
91.04
99.63
101.92
99.57
94.56
88.37
81.86
75.40
69.18
63.27
57.54
51.58
44.78
36.57
26.88
16.18
5.39
-4.49
-12.77
-19.30
-24.43
-28.68
-32.55
-36.36
-40.40
-45.12
-51.11
-58.98
-68.99
-80.90
-93.79
-106.35
-117.03
-124.38
-127.35
-125.39
-118.78
-108.60
-96.59
-84.62
-73.75
-63.54
-51.96
-36.13
-13.90
14.79
47.36
79.32
105.89
123.70
131.74
131.21
124.49
114.04
101.64
88.40
75.20
62.90
52.39
44.11
37.85
32.67
27.30
20.59
11.93
1.45
-10.33
-22.82
-35.81
-49.53
-64.41
-80.62
-97.60
-113.97
-127.78
-136.91
-139.65
-135.04
-123.20
-105.33
-83.70
-61.11
-40.30
-23.31
-10.97
-2.99
1.72
4.53
6.68
9.06
12.33
16.94
23.04
30.38
38.24
45.58
51.53
55.65
58.09
59.41
60.05
60.02
58.92
56.30
52.05
46.87
42.10
39.35
40.13
45.35
55.12
68.92
85.46
102.75
118.23
129.08
133.02
129.11
118.23
102.90
86.49
72.14
61.83
56.09
54.13
54.51
55.79
57.06
58.10
59.20
60.72
62.61
64.24
64.59
62.66
58.05
51.09
42.81
34.47
27.02
20.93
16.04
11.76
7.28
1.68
-5.95
-16.28
-29.53
-45.12
-61.60
-76.90
-88.76
-95.34
-95.72
-90.33
-80.77
-69.52
-59.14
-51.54
-47.49
-46.60
-47.67
-49.30
-50.46
-50.75
-50.34
-49.53
-48.37
-46.55
-43.67
-39.66
-35.21
-31.57
-30.10
-31.59
-35.92
-42.06
-48.74
-55.00
-60.73
-66.51
-73.22
-81.53
-91.69
-103.38
-115.90
-128.17
-138.57
-145.04
-145.30
-137.51
-120.97
-96.67
-67.18
-36.04
-6.79
17.99
37.02
50.21
58.21
61.90
62.15
59.88
56.12
52.10
48.98
47.52
47.65
48.51
48.68
46.85
42.33
35.44
27.27
19.01
11.34
3.97
-4.11
-14.12
-26.78
-41.74
-57.51
-71.88
-82.44
-87.29
-85.47
-77.11
-63.53
-46.90
-29.73
-14.34
-2.15
6.58
12.52
16.78
20.36
23.67
26.67
29.19
31.28
33.28
35.53
38.01
40.10
40.83
39.34
35.29
28.98
21.08
12.13
2.31
-8.62
-21.06
-35.29
-51.22
-68.26
-85.25
-100.61
-112.54
-119.56
-120.90
-116.87
-108.83
-98.55
-87.53
-76.50
-65.30
-53.38
-40.32
-26.30
-12.07
1.47
13.61
24.24
33.77
42.79
51.80
60.74
68.99
75.47
79.07
79.00
75.17
68.12
58.87
48.69
38.64
29.34
20.84
12.57
3.63
-6.89
-19.21
-32.49
-44.61
-52.62
-53.73
-46.35
-30.91
-9.86
13.21
34.74
52.26
64.88
73.00
77.74
80.20
81.19
81.27
80.95
80.83
81.55
83.53
86.81
90.97
95.11
98.18
99.17
97.38
92.57
85.03
75.45
64.68
53.40
42.02
30.59
19.08
7.39
-4.49
-16.49
-28.53
-40.21
-50.83
-59.11
-63.41
-62.19
-54.65
-41.22
-23.58
-4.25
14.26
30.14
42.61
51.65
57.63
60.76
61.14
58.89
54.59
49.32
44.46
41.10
39.55
39.26
39.06
37.82
35.01
30.77
25.80
20.72
15.79
10.78
4.97
-2.40
-12.01
-24.08
-38.21
-53.13
-66.73
-76.48
-80.03
-76.08
-64.97
-48.67
-30.17
-12.47
2.35
13.66
21.97
28.28
33.42
37.61
40.67
42.26
42.33
41.23
39.58
37.93
36.44
34.72
32.16
28.22
22.86
16.54
10.00
3.92
-1.46
-6.32
-11.25
-16.91
-23.87
-32.38
-42.23
-52.61
-62.05
-68.81
-71.25
-68.61
-61.36
-51.09
-40.02
-30.13
-22.68
-18.13
-16.41
-17.26
-20.35
-25.25
-31.17
-37.04
-41.83
-44.96
-46.64
-47.80
-49.46
-52.24
-56.00
-59.86
-62.73
-63.89
-63.43
-62.18
-61.38
-62.13
-65.06
-70.16
-76.71
-83.61
-89.32
-92.29
-91.10
-85.01
-74.23
-60.00
-44.38
-29.54
-17.20
-8.14
-2.21
1.32
3.26
4.11
4.07
3.09
1.28
-1.09
-3.50
-5.46
-6.67
-7.07
-6.80
-6.06
-5.11
-4.25
-3.89
-4.60
-7.00
-11.63
-18.57
-27.29
-36.46
-44.04
-47.65
-45.33
-36.16
-20.61
-0.62
21.17
42.26
61.08
77.14
90.68
102.02
111.04
117.29
120.43
120.61
118.81
116.39
114.47
113.38
112.37
110.06
105.16
97.08
86.31
74.22
62.51
52.69
45.56
41.13
38.72
37.18
35.18
31.51
25.40
16.86
6.93
-2.44
-8.84
-10.22
-5.72
3.87
16.35
28.76
38.49
44.18
45.86
44.65
41.98
38.93
35.96
33.11
30.34
27.81
25.89
24.99
25.25
26.42
27.86
28.73
28.29
26.03
21.97
16.47
10.17
3.63
-3.01
-10.03
-18.00
-27.40
-38.25
-50.06
-62.16
-73.98
-85.40
-96.56
-107.45
-117.40
-125.01
-128.43
-125.99
-116.90
-101.60
-81.61
-59.17
-36.64
-16.05
1.19
14.47
23.82
29.82
33.47
35.86
38.03
40.76
44.43
48.85
53.47
57.31
59.36
58.91
55.82
50.67
44.56
38.64
33.81
30.31
27.79
25.56
22.95
19.46
14.87
9.17
2.36
-5.72
-15.30
-26.62
-39.55
-53.29
-66.24
-76.22
-81.08
-79.52
-71.66
-59.04
-44.00
-28.73
-14.62
-2.04
9.22
19.38
28.22
35.14
39.54
41.36
41.22
40.28
39.76
40.45
42.47
45.37
48.37
50.69
51.65
50.83
48.03
43.40
37.41
30.91
24.87
20.10
16.97
15.19
13.86
11.84
8.11
2.23
-5.37
-13.42
-19.96
-22.82
-20.30
-11.81
1.86
18.65
35.96
51.52
64.02
73.25
79.69
83.93
86.31
86.98
86.34
85.42
85.98
90.12
99.48
114.41
133.31
152.91
168.94
177.53
176.30
165.21
146.27
122.67
97.66
73.42
50.86
29.67
8.99
-11.79
-32.46
-51.50
-65.78
-70.78
-61.54
-34.32
11.37
71.47
137.53
198.69
244.94
270.16
273.62
259.22
233.21
201.67
168.85
137.11
107.66
81.49
59.45
41.72
27.12
13.26
-2.72
-22.70
-46.73
-73.05
-98.91
-121.99
-141.41
-157.93
-173.67
-191.19
-212.65
-238.87
-268.88
-299.86
-327.73
-348.41
-358.97
-358.72
-349.17
-333.34
-314.48
-295.06
-276.46
-259.26
-243.99
-231.53
-223.01
-219.13
-219.40
-221.79
-223.03
-219.52
-208.26
-187.70
-158.32
-122.61
-84.85
-50.41
-24.66
-11.65
-13.02
-27.22
-50.29
-76.88
-102.02
-122.63
-137.76
-148.24
-155.52
-161.23
-166.90
-174.25
-185.00
-200.01
-218.33
-236.66
-250.07
-253.86
-245.47
-225.66
-198.10
-167.70
-138.61
-113.18
-91.84
-73.92
-58.62
-45.46
-34.12
-24.19
-14.93
-5.36
5.62
19.35
37.07
59.36
85.60
113.20
137.69
153.80
157.36
147.07
125.27
97.21
69.00
45.42
28.82
19.57
17.58
23.22
36.88
57.42
80.83
101.04
112.49
113.47
107.77
103.40
108.59
127.53
158.27
194.06
227.01
252.02
268.35
278.74
286.80
294.66
302.27
308.28
311.62
312.72
313.59
316.82
323.79
333.32
341.53
342.91
332.56
308.15
270.82
224.27
172.72
119.04
64.33
9.10
-44.93
-93.80
-132.18
-155.59
-162.72
-156.28
-141.81
-125.19
-110.15
-97.54
-86.05
-74.14
-61.58
-49.56
-39.70
-32.52
-26.61
-19.03
-6.86
11.33
34.68
60.60
86.42
110.80
134.27
158.40
184.36
211.77
238.57
261.75
278.50
287.07
286.91
278.33
262.14
239.50
211.85
180.81
147.96
114.35
80.42
46.16
11.42
-23.75
-59.15
-94.69
-130.61
-167.54
-206.37
-248.17
-294.15
-345.36
-401.95
-462.13
-521.48
-573.26
-610.05
-626.32
-620.50
-595.73
-558.64
-516.82
-476.20
-439.61
-406.82
-375.78
-344.06
-309.66
-271.20
-227.61
-178.40
-124.11
-66.97
-10.95
39.19
79.42
108.24
127.34
141.14
155.06
173.35
197.57
226.32
256.19
283.42
305.53
321.95
333.74
342.34
348.26
350.37
346.24
333.44
311.21
281.64
249.38
220.15
198.60
186.49
182.27
181.93
180.86
175.33
163.43
144.89
120.57
91.93
60.75
29.11
-0.88
-27.35
-48.99
-65.33
-76.58
-83.64
-87.82
-90.76
-94.15
-99.29
-106.51
-114.66
-121.26
-123.30
-118.60
-106.95
-90.38
-72.58
-57.44
-47.64
-43.82
-44.71
-47.95
-51.25
-53.22
-53.53
-52.69
-51.56
-51.33
-53.07
-57.27
-62.90
-67.21
-66.45
-57.46
-39.87
-17.49
1.90
9.06
-2.94
-34.96
-80.62
-128.01
-163.98
-179.15
-170.95
-143.82
-106.46
-68.05
-35.24
-11.16
3.86
10.76
10.64
5.09
-3.03
-9.28
-8.70
2.12
23.40
51.59
80.70
104.35
118.03
120.15
111.76
95.61
74.98
53.03
32.56
15.86
4.53
-0.75
-0.60
3.19
8.24
12.52
15.09
16.21
16.83
17.63
18.44
18.21
15.72
10.69
4.20
-1.49
-4.10
-2.47
2.89
10.19
17.39
23.22
27.46
30.43
32.01
30.98
25.25
12.79
-7.14
-33.11
-61.65
-88.30
-108.96
-121.23
-124.66
-120.25
-109.43
-93.18
-71.75
-45.38
-15.21
16.25
45.49
69.21
85.67
95.25
100.01
102.46
104.34
106.04
107.03
106.67
105.02
102.81
101.02
100.13
99.89
99.50
98.50
97.53
98.50
104.08
116.44
135.96
160.64
186.49
208.86
223.96
229.86
226.58
215.41
198.03
175.88
150.12
122.04
93.36
66.27
43.09
25.66
14.94
10.84
12.36
17.89
25.61
33.59
39.87
42.50
39.61
29.92
13.30
-8.67
-32.76
-54.72
-70.38
-76.98
-74.11
-63.99
-51.17
-41.70
-41.57
-54.83
-81.70
-117.58
-153.80
-180.20
-188.74
-176.52
-146.82
-107.42
-67.17
-32.57
-5.97
14.00
30.34
45.36
59.32
70.61
76.80
76.02
67.73
52.71
32.54
9.03
-16.16
-41.59
-65.94
-87.99
-106.90
-122.34
-134.57
-144.19
-151.64
-156.80
-158.93
-156.97
-150.16
-138.51
-122.97
-105.15
-86.80
-69.40
-53.94
-40.91
-30.42
-22.26
-15.99
-10.93
-6.34
-1.61
3.58
9.26
15.11
20.72
25.73
29.99
33.57
36.67
39.43
41.71
43.03
42.65
39.88
34.36
26.26
16.23
5.05
-6.75
-19.19
-32.76
-47.97
-64.82
-82.29
-98.33
-110.53
-116.89
-116.65
-110.66
-101.11
-90.69
-81.81
-75.79
-72.70
-71.66
-71.42
-71.06
-70.22
-69.02
-67.67
-66.05
-63.58
-59.33
-52.53
-42.92
-30.98
-17.76
-4.49
7.83
18.83
28.74
38.11
47.43
56.98
66.63
76.06
84.98
93.12
100.20
105.69
108.80
108.68
105.03
98.51
90.92
84.76
82.42
85.35
93.65
106.25
121.44
137.46
152.97
167.06
179.26
189.39
197.30
202.81
205.67
205.76
203.29
199.04
194.19
189.94
186.79
184.23
180.80
174.76
164.94
151.41
135.48
119.23
104.66
93.02
84.57
78.64
74.09
69.74
64.81
59.01
52.59
46.12
40.27
35.57
32.32
30.49
29.75
29.42
28.56
26.16
21.33
13.68
3.55
-7.99
-19.45
-29.48
-37.35
-43.26
-48.08
-53.01
-58.92
-66.01
-73.82
-81.40
-87.80
-92.26
-94.44
-94.29
-92.07
-88.26
-83.50
-78.60
-74.20
-70.79
-68.51
-67.13
-66.23
-65.43
-64.38
-62.97
-61.22
-59.13
-56.58
-53.31
-48.91
-43.10
-35.88
-27.61
-19.05
-11.04
-4.25
0.93
4.52
6.94
8.71
10.38
12.27
14.47
16.82
19.13
21.30
23.16
24.47
24.73
23.29
19.62
13.64
5.90
-2.55
-10.62
-17.69
-23.93
-30.17
-37.36
-46.03
-55.95
-66.25
-75.70
-83.28
-88.30
-90.52
-90.12
-87.38
-82.70
-76.51
-69.38
-62.00
-55.13
-49.42
-45.25
-42.72
-41.57
-41.26
-41.20
-40.78
-39.53
-37.26
-34.19
-30.94
-28.40
-27.53
-28.94
-32.70
-38.31
-44.96
-51.88
-58.73
-65.52
-72.42
-79.37
-85.87
-91.09
-94.21
-94.82
-93.14
-89.81
-85.70
-81.53
-77.60
-73.76
-69.48
-63.97
-56.66
-47.36
-36.46
-25.03
-14.28
-5.03
3.00
11.26
22.05
37.49
58.50
84.02
110.99
135.10
151.94
158.34
153.12
137.12
112.44
81.29
45.27
5.22
-38.32
-84.28
-130.49
-173.37
-208.25
-230.00
-234.33
-219.30
-186.59
-142.06
-95.07
-56.54
-36.05
-39.25
-66.28
-111.97
-167.69
-223.62
-271.19
-304.31
-319.74
-316.99
-297.69
-264.85
-222.22
-173.94
-124.58
-78.79
-40.57
-11.92
8.44
25.09
44.04
69.82
102.69
137.90
167.55
184.32
184.99
171.81
151.09
130.06
113.92
104.57
101.35
102.73
107.59
115.29
124.94
134.79
142.11
144.05
138.89
126.94
110.71
94.10
81.01
73.92
72.89
75.77
79.03
79.31
74.75
65.66
54.11
42.89
34.38
29.59
28.07
28.48
29.43
30.21
31.19
33.95
40.68
53.26
71.98
94.42
115.38
128.42
128.85
116.83
98.63
84.88
86.29
108.57
149.66
200.39
248.39
282.89
298.20
294.50
276.50
251.14
225.44
204.97
192.75
188.53
189.24
189.90
185.63
173.42
152.88
125.51
93.22
57.18
17.58
-25.29
-69.99
-113.35
-151.32
-180.50
-199.65
-210.07
-214.93
-217.87
-221.28
-225.52
-229.13
-229.98
-226.65
-219.33
-209.75
-200.28
-192.73
-187.44
-183.42
-179.03
-173.04
-165.32
-156.70
-148.37
-141.09
-134.74
-128.34
-120.72
-111.02
-99.13
-85.60
-71.37
-57.49
-44.79
-34.03
-25.65
-19.84
-16.28
-14.19
-12.69
-11.02
-9.04
-7.03
-5.65
-5.36
-6.27
-8.07
-10.36
-12.90
-15.80
-19.53
-24.60
-31.22
-39.24
-48.04
-56.77
-64.65
-71.09
-75.93
-79.49
-82.54
-85.98
-90.41
-95.76
-101.10
-104.93
-105.87
-103.34
-97.97
-91.28
-85.08
-80.95
-79.86
-82.45
-89.23
-100.73
-117.26
-138.53
-163.54
-190.76
-218.65
-246.07
-272.41
-297.26
-319.84
-338.74
-352.00
-357.72
-354.88
-343.79
-326.07
-304.23
-280.78
-257.62
-235.73
-215.27
-195.95
-177.51
-159.80
-142.73
-126.13
-109.63
-92.77
-75.22
-56.97
-38.35
-19.85
-1.87
15.48
32.44
49.44
66.90
84.98
103.49
122.00
140.12
157.56
174.34
190.67
206.71
222.53
238.10
253.44
268.63
283.57
297.59
309.10
315.64
314.29
302.52
278.92
243.95
200.27
152.90
108.74
75.37
59.12
62.96
85.22
119.65
157.14
188.49
206.99
210.07
199.76
181.78
163.73
153.14
155.24
171.48
199.02
231.27
259.42
274.94
272.01
249.38
210.75
163.40
115.40
72.49
36.33
4.75
-25.65
-56.08
-83.43
-100.67
-100.15
-77.80
-35.83
17.36
70.42
112.99
138.75
146.13
137.32
116.67
89.48
61.62
39.22
27.94
31.40
49.44
76.98
104.95
122.84
122.77
103.20
70.48
37.39
18.65
25.08
58.81
112.09
169.99
216.34
239.71
236.77
211.78
172.70
126.31
75.34
18.70
-45.12
-114.27
-181.59
-235.96
-266.41
-266.44
-236.83
-185.05
-122.17
-58.91
-2.73
42.96
77.61
101.68
115.49
119.01
112.44
96.70
73.12
42.70
5.30
-40.03
-93.82
-154.42
-216.70
-272.46
-312.23
-328.26
-316.82
-279.38
-222.00
-153.73
-84.22
-21.43
29.81
68.47
96.91
119.54
141.03
164.60
191.04
218.91
245.79
269.71
290.06
307.35
322.17
334.11
341.43
341.55
332.30
312.94
284.59
249.86
211.77
172.89
134.57
97.10
60.28
23.71
-13.01
-50.53
-89.62
-130.49
-172.02
-211.42
-244.88
-269.17
-283.24
-288.79
-289.40
-288.75
-288.81
-289.41
-289.01
-286.22
-281.01
-274.78
-269.63
-267.26
-268.56
-273.65
-282.15
-293.18
-304.82
-313.88
-316.43
-308.71
-288.60
-256.48
-215.03
-168.04
-119.04
-70.12
-22.20
24.38
68.92
110.02
146.03
176.09
200.56
220.93
238.70
254.67
268.80
281.12
292.81
306.30
324.08
346.75
371.81
394.23
408.74
412.28
405.31
390.86
372.32
351.32
327.22
298.27
263.48
223.72
181.40
138.92
97.36
56.38
15.14
-26.09
-65.13
-98.41
-122.58
-136.14
-140.24
-138.12
-133.67
-129.65
-126.89
-124.63
-121.80
-118.27
-115.31
-114.95
-118.83
-127.10
-138.19
-149.67
-159.34
-166.37
-171.69
-177.56
-186.69
-201.10
-221.37
-246.14
-272.12
-294.54
-308.34
-309.79
-298.15
-276.38
-250.52
-227.44
-212.12
-205.51
-204.20
-202.03
-192.78
-172.85
-142.38
-104.49
-63.63
-23.55
13.69
47.66
78.60
106.32
129.75
147.17
157.12
159.36
155.31
147.72
139.57
132.98
128.52
125.47
122.57
119.05
115.18
112.00
110.57
111.12
112.44
112.33
108.36
98.90
83.79
64.46
43.52
23.87
8.10
-2.03
-5.70
-2.96
5.31
17.36
30.80
42.93
51.50
55.32
54.58
50.54
44.80
38.52
32.02
25.10
17.49
9.58
2.42
-2.66
-4.83
-4.28
-2.20
-0.30
0.16
-1.19
-3.80
-6.63
-8.96
-10.63
-12.25
-14.85
-19.39
-26.50
-36.21
-47.81
-59.89
-70.41
-77.13
-78.14
-72.60
-61.09
-45.44
-28.24
-11.95
1.68
11.91
18.89
23.35
26.36
28.97
32.13
36.33
41.53
47.14
52.28
56.26
58.80
60.10
60.61
60.66
60.40
59.87
59.20
58.80
59.24
60.96
64.00
67.78
71.40
73.89
74.68
73.59
71.00
67.64
64.56
63.10
64.66
70.27
80.15
93.49
108.62
123.58
136.78
147.53
156.08
163.23
169.53
174.76
177.78
177.02
171.12
159.63
143.13
122.92
100.46
76.75
52.25
26.98
0.96
-25.51
-51.78
-77.31
-101.75
-125.10
-147.27
-167.60
-184.89
-197.72
-205.21
-207.55
-205.98
-202.12
-197.05
-190.73
-182.20
-170.33
-154.80
-136.62
-117.71
-100.17
-85.35
-73.49
-63.97
-56.01
-49.24
-43.86
-40.47
-39.35
-40.16
-41.81
-42.92
-42.39
-39.84
-35.86
-31.53
-27.89
-25.39
-23.82
-22.51
-20.84
-18.53
-15.77
-12.92
-10.34
-8.28
-6.96
-6.73
-7.86
-10.34
-13.56
-16.45
-17.81
-16.98
-14.21
-10.48
-6.96
-4.32
-2.47
-0.77
1.49
4.63
8.46
12.59
16.68
20.74
24.98
29.65
34.87
40.71
47.01
53.45
59.45
64.14
66.62
66.45
63.86
59.92
56.14
53.80
53.37
54.07
54.20
51.67
44.93
33.44
17.94
0.01
-18.46
-35.94
-51.60
-65.26
-77.16
-87.66
-97.27
-106.75
-117.05
-129.03
-142.81
-157.55
-171.49
-182.58
-189.28
-191.13
-188.67
-182.75
-173.62
-160.39
-141.33
-114.92
-81.18
-42.38
-2.78
32.59
59.59
76.25
83.04
82.32
77.04
69.56
61.23
52.57
44.01
36.27
30.48
27.62
28.02
31.17
35.85
40.71
44.89
48.45
52.28
57.52
64.92
74.33
84.49
93.37
98.86
99.45
94.72
85.43
73.29
60.36
48.45
38.59
30.87
24.51
18.33
11.41
3.45
-5.00
-13.00
-19.54
-24.15
-27.10
-29.07
-30.79
-32.67
-34.60
-36.21
-37.18
-37.61
-37.91
-38.62
-40.10
-42.30
-44.81
-47.09
-48.69
-49.52
-49.85
-50.18
-50.99
-52.48
-54.55
-56.83
-58.87
-60.36
-61.18
-61.34
-60.87
-59.84
-58.16
-56.04
-53.90
-52.44
-52.31
-53.67
-56.03
-58.44
-60.14
-61.16
-62.46
-65.41
-70.82
-78.13
-85.17
-88.90
-86.39
-76.04
-58.01
-34.08
-6.98
20.51
46.08
68.13
85.77
98.70
106.94
110.84
110.84
107.44
101.23
92.86
83.24
73.29
63.86
55.38
47.78
40.53
32.93
24.56
15.40
5.99
-2.78
-10.06
-15.25
-18.16
-18.93
-17.98
-15.97
-13.70
-12.01
-11.41
-11.80
-12.30
-11.52
-8.19
-1.62
7.77
18.55
28.84
36.99
42.17
44.62
45.20
44.88
44.18
42.92
40.55
36.77
31.84
26.68
22.40
19.64
18.14
16.94
14.92
11.53
7.12
2.78
-0.39
-1.87
-2.06
-2.13
-3.39
-6.67
-11.86
-18.00
-23.73
-27.77
-29.49
-28.98
-26.95
-24.21
-21.32
-18.40
-15.22
-11.55
-7.38
-2.99
1.24
5.06
8.46
11.52
14.19
16.30
17.62
18.25
18.69
19.70
22.05
26.09
31.46
37.34
42.66
46.54
48.57
48.71
47.12
43.92
39.17
32.95
25.56
17.71
10.38
4.62
1.21
0.50
2.28
5.87
10.27
14.38
17.18
17.99
16.71
13.80
10.11
6.51
3.39
0.64
-2.14
-5.25
-8.47
-11.11
-12.55
-12.66
-12.07
-11.83
-12.74
-14.99
-17.99
-20.76
-22.55
-23.21
-23.12
-23.03
-23.58
-25.11
-27.51
-30.37
-33.08
-34.96
-35.31
-33.52
-29.30
-22.77
-14.55
-5.71
2.58
9.30
13.89
16.40
17.37
17.51
17.48
17.73
18.39
19.47
20.79
22.10
23.21
23.94
24.15
23.77
22.78
21.22
19.17
16.85
14.48
12.26
10.29
8.39
6.19
3.32
-0.36
-4.45
-8.16
-10.57
-10.99
-9.31
-6.04
-2.04
1.75
4.63
6.32
6.97
7.01
6.97
7.10
7.31
7.27
6.60
5.18
3.28
1.41
0.06
-0.57
-0.70
-0.84
-1.46
-2.86
-5.06
-7.83
-10.79
-13.58
-15.96
-17.84
-19.34
-20.71
-22.17
-23.67
-24.84
-25.06
-23.76
-20.72
-16.25
-11.07
-6.11
-2.00
1.08
3.41
5.46
7.47
9.46
11.07
11.92
11.77
10.70
9.19
7.82
7.11
7.28
8.19
9.36
10.24
10.48
10.04
9.34
8.84
8.95
9.71
10.77
11.61
11.76
11.15
10.18
9.47
9.59
10.61
12.10
13.20
13.10
11.36
8.19
4.22
0.40
-2.40
-3.46
-2.39
0.83
5.64
10.81
14.70
15.89
13.94
9.94
6.28
5.56
9.25
16.67
25.08
30.83
31.05
24.90
13.89
0.87
-11.37
-21.43
-29.77
-38.21
-48.88
-63.11
-80.77
-100.05
-117.90
-130.50
-133.87
-124.70
-101.48
-66.03
-24.33
13.98
38.14
40.08
18.06
-21.94
-68.19
-107.67
-131.23
-136.70
-128.73
-115.66
-105.32
-101.98
-105.69
-113.79
-123.01
-131.32
-138.00
-143.09
-146.40
-147.05
-144.09
-137.53
-129.22
-122.57
-121.11
-126.42
-136.55
-146.06
-147.88
-136.67
-111.45
-76.94
-41.65
-14.72
-2.10
-4.47
-17.44
-33.60
-45.65
-48.74
-41.77
-26.83
-7.64
12.20
30.42
46.38
60.46
73.08
84.03
92.43
97.31
98.20
95.59
90.64
84.62
78.27
71.77
65.20
59.12
55.02
54.92
60.66
72.85
90.07
109.09
125.72
136.53
140.02
137.23
131.06
124.84
120.93
119.83
120.45
121.20
121.21
120.77
121.09
123.39
128.04
134.26
140.56
145.50
148.35
149.27
148.95
148.20
147.39
146.51
145.42
144.11
142.75
141.50
140.04
137.47
132.53
124.02
111.42
95.20
76.55
57.17
38.70
22.62
10.05
1.84
-1.54
-0.27
4.79
12.13
19.93
26.50
30.61
31.71
29.95
25.98
20.75
15.28
10.38
6.49
3.71
1.78
0.36
-0.76
-1.66
-2.21
-2.31
-2.01
-1.62
-1.60
-2.45
-4.41
-7.39
-11.00
-14.82
-18.56
-22.24
-26.01
-29.79
-33.05
-34.73
-33.65
-28.86
-20.21
-8.30
5.61
19.93
32.97
42.93
48.32
48.15
42.43
32.28
19.80
7.32
-3.19
-10.63
-14.78
-15.98
-14.72
-11.67
-7.75
-4.16
-2.33
-3.27
-7.01
-12.42
-17.56
-20.65
-20.90
-18.92
-16.20
-14.27
-13.61
-13.20
-11.03
-5.02
5.90
21.38
39.86
59.01
76.17
88.36
92.73
87.39
72.89
52.78
33.08
19.87
16.14
19.93
24.83
22.89
8.60
-18.37
-53.23
-88.49
-117.56
-137.25
-148.19
-153.49
-156.61
-159.86
-163.88
-168.15
-171.81
-174.24
-175.47
-175.83
-175.66
-174.80
-172.40
-167.14
-157.83
-144.16
-127.19
-109.13
-92.34
-78.37
-67.15
-57.23
-46.59
-33.52
-16.95
3.49
27.64
54.41
81.06
102.83
113.47
107.28
81.43
37.71
-17.82
-77.22
-133.60
-183.10
-224.83
-259.11
-285.60
-302.69
-308.35
-301.97
-285.57
-263.69
-241.73
-224.28
-214.05
-212.10
-218.47
-232.71
-253.66
-278.69
-303.56
-323.18
-333.32
-332.02
-320.26
-301.16
-278.37
-254.59
-231.03
-207.77
-184.79
-162.70
-142.65
-125.65
-111.71
-99.49
-86.79
-71.51
-52.64
-30.86
-8.25
12.66
29.97
43.24
53.63
63.36
74.73
89.50
108.56
131.88
158.34
185.16
207.76
220.46
218.45
200.27
169.31
133.34
101.81
82.21
77.35
85.07
100.24
117.83
135.16
152.23
170.43
190.78
212.95
235.57
257.38
278.03
298.35
319.84
343.80
370.85
400.99
433.89
469.13
506.04
543.32
578.70
609.00
630.55
640.04
635.19
615.18
580.73
533.90
477.74
415.91
352.11
289.59
230.54
175.68
124.55
75.89
28.32
-19.00
-66.46
-114.54
-164.51
-218.49
-278.34
-343.79
-410.79
-471.47
-516.17
-536.87
-530.14
-498.17
-447.47
-386.29
-322.36
-262.14
-211.14
-174.17
-154.62
-152.61
-163.70
-179.15
-188.54
-183.24
-159.17
-117.33
-62.46
-0.67
62.48
122.83
177.13
222.42
255.58
273.56
274.20
257.11
224.50
181.30
134.51
91.70
59.15
40.21
34.54
38.74
48.00
57.96
66.18
72.20
76.78
80.72
84.06
85.97
85.30
81.27
73.82
63.45
50.95
37.08
22.54
8.16
-4.96
-15.68
-23.06
-26.78
-27.19
-25.24
-22.06
-18.79
-16.30
-15.11
-15.41
-17.03
-19.52
-22.30
-24.69
-26.10
-26.20
-24.96
-22.74
-20.02
-17.26
-14.47
-11.11
-6.27
0.86
10.47
21.92
33.83
44.64
53.26
59.52
64.16
68.41
73.53
80.19
88.41
97.66
107.06
115.71
122.74
127.32
128.67
126.24
120.07
110.92
100.39
90.48
83.01
79.02
78.47
80.51
84.01
87.90
91.34
93.25
92.12
85.87
72.65
51.88
25.12
-3.92
-30.49
-50.58
-62.49
-67.43
-68.78
-70.45
-75.23
-83.92
-95.60
-108.64
-121.75
-134.41
-146.76
-158.89
-170.27
-179.81
-186.20
-188.68
-187.56
-184.14
-180.30
-177.59
-176.78
-177.57
-178.92
-179.66
-178.82
-175.82
-170.42
-162.68
-153.10
-142.82
-133.61
-127.50
-126.03
-129.44
-136.54
-144.93
-151.95
-155.44
-154.42
-149.01
-140.02
-128.47
-115.16
-100.58
-85.07
-68.99
-52.88
-37.32
-22.84
-9.65
2.41
13.75
24.64
34.87
43.73
50.15
53.34
53.25
50.69
47.08
43.80
41.56
40.17
38.60
35.57
30.03
21.53
10.34
-2.71
-16.47
-29.53
-40.33
-47.15
-48.47
-43.40
-32.08
-15.83
3.19
22.62
40.63
56.36
69.81
81.30
90.94
98.38
102.81
103.62
100.71
94.75
86.92
78.38
69.86
61.55
53.35
45.25
37.65
31.43
27.47
26.18
27.11
28.97
30.11
28.93
24.43
16.40
5.34
-7.69
-21.23
-33.54
-42.93
-47.97
-47.91
-42.79
-33.33
-20.73
-6.27
8.91
23.86
37.69
49.53
58.52
63.98
65.73
64.14
60.03
54.39
47.98
41.02
33.16
23.61
11.68
-2.73
-18.82
-34.83
-48.45
-57.37
-59.97
-55.72
-45.37
-30.68
-13.99
2.30
16.33
27.08
34.55
39.51
43.21
46.90
51.47
57.20
63.90
71.11
78.27
84.92
90.65
95.07
97.70
98.04
95.76
90.92
84.11
76.31
68.58
61.68
55.73
50.17
44.07
36.63
27.57
17.24
6.40
-4.19
-14.13
-23.58
-33.12
-43.48
-55.18
-68.23
-81.94
-94.99
-105.64
-112.25
-113.85
-110.48
-103.10
-93.22
-82.17
-70.71
-58.91
-46.51
-33.35
-19.68
-6.10
6.70
18.25
28.38
37.14
44.46
50.08
53.38
53.70
50.47
43.42
32.71
19.03
3.44
-12.79
-28.43
-42.72
-55.46
-67.03
-78.01
-88.76
-98.99
-107.72
-113.67
-115.63
-112.95
-105.67
-94.39
-80.01
-63.62
-46.50
-30.16
-16.33
-6.44
-1.04
0.58
0.54
1.60
6.29
16.00
30.66
49.03
69.20
89.22
107.41
122.48
133.52
140.11
142.40
141.18
137.73
133.42
129.22
125.48
121.86
117.89
113.39
108.88
105.52
104.60
107.03
112.95
121.71
132.21
143.29
154.08
164.04
172.83
180.31
186.52
191.81
196.83
202.17
208.08
213.98
218.63
220.47
218.22
211.32
200.01
184.99
167.00
146.54
123.85
99.11
72.58
44.74
16.05
-13.05
-42.17
-70.76
-97.99
-122.63
-143.43
-159.44
-170.42
-176.79
-179.43
-179.21
-176.75
-172.39
-166.50
-159.56
-152.18
-144.79
-137.40
-129.64
-120.90
-110.74
-99.12
-86.50
-73.55
-60.93
-49.03
-38.00
-27.82
-18.52
-10.38
-3.96
-0.07
0.44
-3.07
-10.67
-21.81
-35.35
-49.79
-63.68
-75.81
-85.43
-92.19
-96.09
-97.22
-95.62
-91.23
-83.95
-73.97
-61.89
-48.83
-36.16
-25.02
-16.02
-8.97
-3.12
2.49
8.54
15.21
22.03
28.12
32.36
33.73
31.47
25.38
15.97
4.39
-7.80
-19.15
-28.78
-36.67
-43.53
-50.55
-58.79
-68.90
-80.86
-94.00
-107.01
-118.20
-125.75
-128.21
-124.92
-116.41
-104.43
-91.44
-79.79
-70.96
-65.15
-61.36
-58.04
-53.79
-47.91
-40.45
-32.07
-23.55
-15.46
-7.95
-0.76
6.59
14.62
23.46
32.74
41.54
48.72
53.43
55.58
56.03
56.16
57.19
59.51
62.46
64.66
64.71
61.90
56.50
49.56
42.51
36.80
33.68
34.34
39.66
50.06
65.24
84.09
105.01
126.46
147.37
167.21
185.65
201.99
214.76
221.82
220.96
210.76
191.31
164.47
133.42
101.70
72.17
46.14
23.33
2.34
-18.33
-39.40
-60.49
-80.34
-97.53
-111.09
-120.75
-126.68
-129.00
-127.43
-121.34
-110.24
-94.37
-75.09
-54.85
-36.60
-22.99
-15.52
-14.08
-17.02
-21.88
-26.44
-29.54
-31.43
-33.31
-36.38
-40.94
-46.08
-50.21
-52.01
-51.21
-49.08
-48.09
-51.16
-61.34
-81.48
-113.84
-159.31
-215.93
-277.92
-336.22
-380.96
-405.17
-407.63
-393.10
-369.44
-343.54
-318.22
-292.39
-263.74
-232.10
-200.61
-174.14
-155.72
-143.71
-131.90
-112.47
-80.23
-35.36
16.77
68.23
112.22
145.63
169.41
186.97
202.02
216.63
230.76
243.06
252.14
257.90
261.68
265.53
270.93
277.64
283.53
285.42
280.55
267.87
248.59
225.70
202.72
182.32
165.47
151.26
137.62
122.33
104.01
82.53
58.75
33.99
9.46
-13.88
-35.04
-52.37
-63.50
-65.76
-57.20
-37.59
-8.78
25.99
63.21
100.26
135.53
167.66
194.57
212.90
218.72
209.00
183.32
144.52
98.24
51.36
10.00
-21.73
-42.23
-52.07
-53.22
-48.36
-40.18
-31.11
-23.00
-17.21
-14.47
-15.07
-18.81
-25.02
-32.61
-40.13
-45.97
-48.62
-46.96
-40.30
-28.56
-12.08
8.44
32.01
57.32
82.82
106.49
126.16
139.79
146.01
144.72
137.20
125.84
113.45
102.46
94.36
89.83
89.04
91.99
98.47
107.86
118.87
129.81
139.16
146.21
151.23
155.07
158.23
160.12
158.96
152.36
138.35
116.13
86.36
50.74
11.25
-30.41
-73.06
-116.26
-160.12
-205.15
-251.69
-299.11
-345.17
-386.08
-417.68
-437.17
-444.69
-443.59
-438.88
-434.73
-432.72
-431.62
-429.02
-423.38
-414.90
-404.50
-391.96
-374.70
-348.47
-309.97
-259.50
-202.10
-146.15
-100.09
-69.29
-54.22
-51.07
-53.64
-55.77
-52.78
-41.95
-22.39
5.34
39.07
74.99
107.86
131.88
142.54
138.38
121.91
99.01
76.85
60.96
53.29
51.78
51.91
49.17
41.20
28.57
13.93
0.35
-10.28
-17.88
-23.82
-29.85
-37.14
-45.66
-54.38
-61.86
-66.92
-69.10
-68.56
-65.81
-61.12
-54.36
-45.06
-32.69
-17.26
0.42
18.69
35.25
47.82
54.86
56.25
53.61
50.14
49.85
56.50
72.43
97.69
130.04
165.74
200.80
232.30
259.12
281.62
300.66
316.47
328.17
334.13
333.18
325.71
314.03
301.66
291.79
285.82
282.56
278.61
269.70
252.19
224.32
186.49
140.74
89.69
35.78
-19.26
-74.13
-127.64
-178.59
-225.67
-267.78
-304.13
-334.20
-357.48
-373.39
-381.58
-382.41
-376.88
-366.14
-350.22
-327.08
-292.48
-241.48
-171.25
-83.99
11.61
101.84
172.27
213.17
223.87
213.13
195.41
184.50
187.77
203.73
223.94
237.81
237.36
219.68
186.52
142.30
92.68
44.00
3.22
-23.23
-31.64
-23.04
-3.42
18.54
35.07
42.27
40.60
32.96
22.21
9.67
-4.24
-18.27
-29.49
-34.25
-30.44
-19.50
-6.35
2.74
3.01
-6.81
-24.60
-46.49
-68.99
-90.22
-109.88
-128.36
-145.73
-161.45
-174.39
-183.10
-185.80
-180.10
-163.11
-132.21
-86.63
-28.99
34.21
93.96
141.43
171.13
182.85
181.20
173.08
164.28
157.07
149.61
137.73
117.47
87.31
48.96
6.65
-34.45
-69.89
-96.82
-114.46
-123.82
-127.08
-126.95
-125.97
-125.91
-127.51
-130.56
-134.14
-137.16
-138.74
-138.53
-136.82
-134.50
-132.87
-133.32
-136.97
-144.31
-154.85
-167.03
-178.43
-186.10
-187.35
-180.36
-164.66
-141.22
-111.90
-78.23
-40.60
2.01
50.61
104.19
158.10
204.44
234.94
244.79
235.23
213.26
188.17
167.03
151.57
138.47
122.33
99.51
70.08
37.10
3.67
-29.71
-65.61
-107.66
-157.33
-211.73
-263.97
-305.53
-329.92
-335.22
-324.30
-302.95
-277.03
-250.01
-222.68
-194.40
-165.19
-136.97
-113.26
-97.43
-90.89
-92.13
-97.25
-101.46
-100.48
-91.46
-73.36
-46.75
-13.79
22.11
56.61
85.38
104.88
113.08
109.77
96.35
75.69
51.70
28.48
9.73
-2.05
-6.11
-3.18
5.14
17.14
31.26
45.75
58.59
67.87
72.93
75.53
79.90
91.15
112.77
144.35
181.32
216.71
244.09
259.96
264.47
260.37
250.96
238.39
222.92
203.13
176.86
142.12
97.74
43.83
-17.58
-82.50
-144.92
-197.74
-234.28
-249.82
-243.09
-216.40
-174.75
-124.32
-70.52
-16.63
36.68
90.76
147.43
207.32
268.53
326.31
373.94
404.68
414.22
402.30
373.10
333.94
292.72
255.69
225.96
203.46
185.76
169.41
150.91
127.52
97.68
61.33
20.02
-23.33
-65.15
-102.10
-132.25
-156.11
-176.99
-200.52
-232.81
-277.86
-335.05
-398.43
-458.24
-504.35
-530.25
-535.27
-524.17
-504.47
-482.89
-463.07
-445.33
-428.03
-409.37
-388.31
-364.45
-337.39
-306.39
-270.63
-230.04
-185.78
-140.12
-95.71
-54.55
-17.14
17.77
52.91
91.63
136.51
188.03
243.47
297.12
341.59
370.29
379.67
370.45
347.08
315.86
282.67
251.50
224.24
201.43
183.17
169.60
160.60
155.37
151.93
147.38
138.51
122.81
99.28
68.89
34.57
0.34
-29.81
-53.31
-69.97
-82.13
-93.84
-109.33
-131.05
-158.50
-188.15
-214.42
-231.78
-236.58
-227.99
-207.67
-178.56
-143.93
-106.87
-70.71
-39.08
-15.37
-1.25
4.48
5.93
8.56
16.79
32.08
52.72
75.29
96.61
115.01
130.14
142.10
150.53
154.75
154.46
150.51
144.71
138.91
134.04
129.66
124.49
117.47
108.67
99.28
91.15
85.90
84.29
85.91
89.51
93.23
94.94
92.43
83.94
68.74
47.89
24.48
3.02
-11.85
-17.19
-12.91
-1.85
11.54
23.25
31.46
36.99
42.30
49.55
59.02
68.55
74.50
73.58
64.49
48.48
28.93
9.90
-5.45
-15.86
-21.89
-25.17
-27.27
-29.15
-31.13
-33.41
-36.56
-41.42
-48.40
-56.60
-63.59
-65.93
-60.45
-45.57
-22.15
6.72
36.76
63.85
85.31
100.79
112.15
122.64
135.54
152.65
173.49
195.46
214.94
229.04
236.86
239.73
240.45
241.78
245.01
249.43
252.56
250.79
240.35
218.25
183.35
137.32
85.42
36.23
0.02
-14.40
-3.27
29.88
74.54
116.46
142.81
146.55
128.16
94.18
53.24
11.92
-27.45
-66.07
-105.71
-145.67
-182.12
-209.93
-226.11
-232.63
-235.99
-243.90
-260.90
-285.54
-310.95
-328.57
-332.66
-322.84
-303.20
-278.88
-252.70
-224.47
-192.79
-158.15
-124.49
-98.00
-83.90
-83.47
-92.94
-104.98
-111.99
-109.11
-95.54
-73.64
-46.67
-16.45
17.90
59.39
110.88
172.67
240.78
307.22
362.17
397.35
408.95
398.75
373.07
340.01
306.65
277.47
254.18
236.65
223.93
214.71
207.28
199.42
188.55
172.29
149.27
119.65
85.35
49.64
16.31
-11.43
-31.82
-44.67
-50.78
-51.02
-45.69
-34.76
-18.63
0.88
20.15
34.58
40.15
35.08
20.34
-1.00
-25.21
-49.39
-71.99
-92.46
-110.40
-125.02
-135.36
-140.85
-141.99
-140.52
-138.79
-138.74
-140.76
-143.33
-143.37
-137.50
-123.24
-100.08
-69.45
-33.89
4.32
44.06
85.25
127.75
169.91
207.92
236.41
250.39
247.31
228.34
197.94
162.18
126.52
94.01
65.04
37.87
9.92
-21.09
-56.71
-97.98
-145.55
-199.37
-257.81
-316.79
-369.83
-409.57
-430.76
-433.02
-421.87
-406.92
-398.01
-400.80
-414.23
-431.41
-442.88
-440.88
-422.05
-387.66
-341.55
-287.54
-228.16
-165.04
-100.57
-39.09
13.40
50.98
70.50
73.25
64.68
52.43
43.41
41.55
47.03
57.37
69.28
80.24
89.22
96.29
101.82
105.83
107.72
106.66
102.09
94.23
84.38
74.45
66.24
60.32
55.56
48.85
36.10
13.72
-19.75
-62.58
-109.96
-155.29
-192.06
-215.71
-224.90
-221.46
-209.75
-195.09
-182.20
-173.79
-169.96
-168.17
-164.20
-153.61
-133.30
-102.55
-63.35
-19.62
23.99
63.55
96.59
122.38
141.21
153.67
160.16
160.96
156.89
149.73
142.00
136.16
133.25
132.16
129.90
123.06
109.54
90.00
67.87
48.27
36.32
35.71
47.99
72.67
107.56
149.11
192.83
233.82
267.41
290.14
300.35
298.08
284.47
260.88
228.46
188.37
142.51
94.15
47.86
8.46
-20.42
-37.40
-43.61
-41.61
-33.96
-22.25
-7.02
11.18
30.73
48.27
59.14
58.57
43.29
12.35
-32.60
-87.76
-147.78
-206.37
-256.97
-293.65
-312.33
-311.67
-293.60
-262.41
-223.35
-180.99
-138.17
-95.75
-53.30
-10.14
33.80
77.43
118.69
154.97
183.81
203.43
213.26
213.84
206.62
193.49
176.38
157.18
137.68
119.59
104.37
92.78
84.55
78.38
72.33
64.54
54.17
41.78
29.37
19.78
15.63
18.39
27.96
42.76
60.32
78.17
94.71
109.59
123.35
136.56
148.94
158.97
164.32
162.79
153.35
136.67
114.72
90.06
64.95
40.89
18.55
-2.04
-21.23
-39.61
-57.91
-76.62
-95.94
-115.61
-135.15
-153.98
-171.32
-185.93
-195.89
-199.12
-194.28
-181.71
-163.92
-144.66
-127.49
-114.25
-104.49
-96.15
-86.97
-75.94
-63.68
-51.97
-42.58
-36.25
-32.39
-29.48
-26.03
-21.34
-15.70
-10.02
-5.11
-1.09
2.65
6.97
12.33
18.34
23.85
27.43
28.12
25.82
21.28
15.81
10.72
6.99
4.99
4.58
5.18
6.00
6.37
5.92
4.60
2.60
0.21
-2.31
-4.75
-6.86
-8.30
-8.74
-8.18
-6.99
-6.00
-6.25
-8.62
-13.39
-20.10
-27.79
-35.28
-41.75
-46.88
-50.78
-53.66
-55.41
-55.60
-53.63
-49.23
-42.69
-34.83
-26.66
-18.84
-11.52
-4.37
3.12
11.39
20.79
31.79
44.96
60.66
78.77
98.41
118.20
136.67
152.72
165.52
174.35
178.20
176.03
167.35
152.79
134.15
113.82
93.90
75.74
60.09
47.68
39.45
36.32
38.27
43.84
50.44
55.42
57.41
56.78
55.24
54.44
54.79
55.07
52.84
45.80
32.67
13.67
-9.67
-35.18
-60.58
-84.00
-104.22
-120.75
-133.83
-144.33
-153.48
-162.59
-172.73
-184.31
-197.08
-210.32
-223.25
-235.50
-247.31
-259.46
-272.78
-287.67
-303.54
-318.57
-329.84
-333.80
-327.21
-308.13
-276.44
-233.88
-183.65
-129.28
-73.85
-19.52
32.73
82.81
131.18
178.01
222.32
261.29
290.53
305.48
303.23
284.06
251.31
209.73
163.39
114.39
63.41
11.33
-39.29
-84.39
-120.06
-144.76
-160.19
-170.15
-178.07
-184.81
-188.39
-185.61
-174.42
-155.47
-132.05
-108.45
-88.01
-71.99
-59.71
-49.53
-40.05
-30.72
-21.68
-13.33
-5.84
0.99
7.34
13.14
17.79
20.33
19.83
15.80
8.56
-0.67
-9.83
-16.62
-19.02
-15.99
-7.83
3.95
17.18
29.79
40.50
49.01
55.81
61.61
66.79
71.19
74.31
75.78
75.66
74.56
73.42
72.95
73.45
74.65
76.00
76.91
76.88
75.55
72.64
68.02
61.77
54.34
46.44
38.83
31.93
25.55
18.88
10.86
0.75
-11.38
-24.47
-36.71
-46.03
-50.82
-50.40
-45.17
-36.46
-26.04
-15.63
-6.45
0.87
6.27
10.13
12.96
15.26
17.43
19.71
22.19
24.87
27.61
30.19
32.44
34.31
36.11
38.37
41.75
46.63
52.76
59.31
65.07
69.06
70.95
71.30
71.20
71.77
73.67
76.82
80.49
83.53
84.58
82.37
75.98
65.29
51.29
36.16
22.85
14.19
11.87
15.85
24.27
34.26
42.93
48.36
50.02
48.54
45.13
40.95
36.75
32.84
29.27
26.06
23.35
21.30
19.85
18.71
17.23
14.67
10.43
4.33
-3.32
-11.85
-20.39
-28.29
-35.28
-41.48
-47.27
-52.95
-58.56
-63.83
-68.37
-71.97
-74.71
-76.84
-78.40
-78.93
-77.42
-72.78
-64.34
-52.23
-37.31
-20.70
-3.21
14.77
32.94
50.73
67.06
80.72
90.93
97.77
102.19
105.41
108.28
110.90
112.95
114.19
114.95
116.17
118.91
123.74
130.40
137.89
144.82
149.89
152.03
150.45
144.74
135.04
122.38
108.60
95.96
86.22
79.86
75.58
70.80
62.68
49.38
30.71
8.16
-15.72
-38.30
-57.45
-71.94
-81.38
-86.02
-86.62
-84.30
-80.33
-75.95
-72.06
-69.06
-66.87
-65.12
-63.42
-61.56
-59.48
-57.15
-54.40
-50.87
-46.16
-40.08
-32.95
-25.51
-18.79
-13.64
-10.43
-8.89
-8.31
-7.95
-7.24
-6.09
-4.63
-3.24
-2.27
-2.03
-2.79
-4.66
-7.66
-11.54
-15.92
-20.24
-24.05
-27.16
-29.89
-32.97
-37.23
-43.13
-50.30
-57.39
-62.30
-62.77
-57.09
-44.78
-26.77
-5.17
17.39
38.66
57.27
73.03
86.40
97.84
107.15
113.20
114.29
108.87
96.33
77.36
53.79
27.96
2.15
-21.82
-42.77
-60.16
-74.14
-85.53
-95.60
-105.53
-115.73
-125.40
-132.68
-135.35
-131.93
-122.54
-109.01
-94.25
-81.17
-71.62
-65.91
-62.99
-61.24
-59.25
-56.39
-52.81
-48.97
-45.12
-41.01
-35.95
-29.27
-20.81
-11.11
-1.17
8.07
16.17
23.33
30.05
36.78
43.60
50.12
55.70
59.80
62.11
62.61
61.56
59.27
56.09
52.27
47.98
43.23
37.88
31.71
24.52
16.18
6.65
-3.93
-15.32
-27.03
-38.19
-47.56
-53.72
-55.39
-52.00
-43.98
-32.72
-20.25
-8.52
1.19
8.57
14.05
18.36
22.06
25.34
28.14
30.41
32.23
33.87
35.47
37.02
38.28
38.96
38.87
37.90
36.02
33.13
29.12
24.03
18.17
12.15
6.65
2.15
-1.21
-3.71
-5.92
-8.54
-12.36
-18.06
-25.94
-35.57
-45.66
-54.21
-59.13
-59.10
-54.06
-45.31
-34.94
-24.94
-16.54
-9.92
-4.47
0.61
5.79
11.03
15.88
19.77
22.39
23.91
24.81
25.71
27.02
28.74
30.50
31.76
32.07
31.18
29.19
26.38
23.02
19.23
14.84
9.66
3.54
-3.44
-11.14
-19.46
-28.58
-38.74
-49.90
-61.22
-71.05
-77.18
-77.77
-72.19
-61.50
-48.12
-34.97
-24.42
-17.51
-13.87
-12.11
-10.63
-8.18
-4.25
0.94
6.88
13.14
19.64
26.54
33.92
41.49
48.51
54.04
57.36
58.37
57.50
55.48
52.77
49.35
44.80
38.73
31.10
22.26
12.69
2.59
-8.32
-20.50
-33.98
-47.72
-59.60
-66.97
-67.76
-61.48
-49.62
-34.94
-20.37
-7.79
2.45
11.09
19.02
26.32
32.20
35.51
35.74
33.52
30.48
28.47
28.62
30.73
33.54
35.38
35.04
32.28
27.78
22.65
17.77
13.45
9.33
4.65
-1.30
-8.89
-17.94
-27.73
-37.06
-44.55
-48.91
-49.31
-45.68
-38.78
-29.92
-20.65
-12.22
-5.30
-0.01
3.90
6.75
8.66
9.57
9.39
8.21
6.35
4.39
2.95
2.40
2.61
2.88
2.22
-0.26
-4.89
-11.21
-18.08
-24.28
-29.06
-32.53
-35.61
-39.62
-45.73
-54.51
-65.66
-77.96
-89.50
-98.01
-101.51
-98.82
-90.02
-76.55
-60.64
-44.66
-30.19
-17.73
-6.72
3.93
15.13
27.21
39.63
51.18
60.32
65.71
66.57
62.99
55.86
46.54
36.41
26.31
16.45
6.58
-3.53
-13.66
-23.05
-30.59
-35.39
-37.10
-36.13
-33.29
-29.44
-25.04
-20.01
-13.93
-6.36
2.71
12.89
23.56
34.08
44.15
53.66
62.63
70.88
78.03
83.64
87.48
89.70
90.80
91.39
91.80
92.01
91.52
89.67
85.83
79.69
71.24
60.72
48.50
35.06
20.82
6.19
-8.43
-22.63
-36.10
-48.76
-61.01
-73.65
-87.59
-103.22
-119.95
-136.15
-149.68
-158.83
-162.91
-162.41
-158.38
-151.70
-142.50
-130.28
-114.45
-95.08
-73.16
-50.48
-28.86
-9.65
6.71
20.53
32.51
43.27
52.99
61.39
67.83
71.70
72.73
71.11
67.47
62.60
57.11
51.09
44.18
35.57
24.47
10.31
-6.69
-25.55
-44.50
-61.36
-73.98
-80.78
-80.98
-74.70
-62.87
-46.99
-28.98
-10.90
5.48
19.11
29.89
38.63
46.57
54.83
63.93
73.62
83.21
92.07
99.82
106.51
112.30
117.22
121.05
123.45
124.16
123.25
121.13
118.34
115.43
112.64
109.82
106.45
101.77
95.09
86.00
74.77
62.37
50.42
40.79
35.00
33.53
35.50
38.73
40.31
37.60
29.09
15.04
-2.64
-20.89
-36.34
-46.08
-48.22
-42.14
-28.57
-9.73
10.83
28.76
40.03
42.29
35.79
23.46
9.68
-1.41
-7.51
-8.70
-6.84
-4.32
-2.82
-2.83
-3.88
-5.31
-6.83
-8.69
-11.34
-15.03
-19.57
-24.32
-28.56
-31.81
-34.08
-36.02
-38.63
-42.79
-49.02
-57.15
-66.56
-76.49
-86.24
-95.22
-102.69
-107.68
-109.08
-106.02
-98.41
-87.11
-73.90
-60.66
-48.63
-37.96
-27.90
-17.60
-6.91
3.32
11.74
17.37
20.41
22.13
24.11
27.19
30.82
33.33
33.01
29.10
22.32
14.44
7.29
1.89
-1.80
-4.48
-6.83
-8.91
-10.27
-10.36
-8.98
-6.74
-4.88
-4.96
-8.39
-15.83
-26.99
-40.53
-54.40
-66.26
-74.20
-77.13
-75.07
-69.05
-60.63
-51.41
-42.56
-34.60
-27.48
-20.87
-14.49
-8.27
-2.42
2.75
7.03
10.42
13.16
15.63
18.11
20.74
23.40
25.81
27.58
28.37
27.96
26.34
23.74
20.55
17.16
13.80
10.41
6.74
2.46
-2.67
-8.71
-15.66
-23.45
-31.80
-40.03
-46.95
-50.99
-50.73
-45.51
-35.83
-23.32
-10.14
1.75
11.24
18.25
23.32
27.12
29.99
31.93
32.82
32.78
32.33
32.15
32.74
34.12
35.75
36.85
36.78
35.34
32.75
29.47
25.83
21.90
17.52
12.46
6.67
0.29
-6.42
-13.32
-20.56
-28.43
-37.14
-46.33
-54.84
-60.84
-62.38
-58.22
-48.45
-34.65
-19.32
-4.95
6.84
15.69
22.27
27.58
32.34
36.60
39.90
41.74
41.98
41.09
39.91
39.42
40.17
42.11
44.52
46.29
46.37
44.07
39.40
32.88
25.42
17.96
11.10
5.10
-0.20
-5.25
-10.61
-16.84
-24.32
-33.08
-42.52
-51.35
-57.77
-59.91
-56.53
-47.58
-34.36
-19.03
-3.95
9.10
19.37
27.00
32.58
36.70
39.62
41.34
41.74
40.84
38.76
35.74
32.05
27.87
23.44
19.00
14.72
10.66
6.80
3.09
-0.42
-3.49
-5.93
-7.81
-9.58
-12.15
-16.51
-23.36
-32.61
-43.21
-53.36
-60.92
-64.17
-62.24
-55.46
-45.07
-32.90
-20.76
-9.96
-1.09
5.98
11.71
16.61
20.94
24.69
27.66
29.72
30.94
31.61
32.19
33.02
34.18
35.35
35.97
35.46
33.43
29.90
25.15
19.69
13.94
8.13
2.29
-3.76
-10.27
-17.54
-25.83
-35.37
-46.13
-57.63
-68.72
-77.60
-82.33
-81.43
-74.62
-63.04
-48.93
-34.82
-22.61
-13.02
-5.60
0.69
6.84
13.30
19.90
26.10
31.43
35.70
39.06
41.83
44.15
45.93
46.82
46.47
44.76
41.94
38.54
35.08
31.74
28.21
23.86
17.98
10.21
0.53
-10.69
-22.95
-35.66
-47.97
-58.77
-66.52
-69.75
-67.49
-59.86
-48.14
-34.45
-20.96
-9.25
0.08
7.29
12.98
17.70
21.66
24.82
27.10
28.58
29.62
30.72
32.29
34.38
36.62
38.31
38.70
37.35
34.32
30.12
25.40
20.63
15.90
11.06
5.87
0.27
-5.68
-11.98
-18.87
-26.74
-35.77
-45.47
-54.47
-60.86
-62.87
-59.56
-51.28
-39.49
-26.28
-13.60
-2.77
5.67
11.81
16.08
19.01
21.03
22.41
23.33
23.93
24.38
24.89
25.68
26.88
28.37
29.74
30.35
29.60
27.21
23.33
18.48
13.32
8.25
3.30
-1.79
-7.36
-13.68
-20.89
-29.06
-38.29
-48.50
-59.17
-69.09
-76.43
-79.26
-76.36
-67.84
-55.21
-40.93
-27.54
-16.90
-9.78
-6.00
-4.76
-5.16
-6.48
-8.25
-10.18
-12.10
-13.84
-15.21
-16.06
-16.24
-15.70
-14.51
-12.79
-10.73
-8.48
-6.03
-3.27
0.03
4.26
10.02
18.04
28.99
43.04
59.50
76.73
92.59
105.14
113.34
117.44
118.68
118.69
118.95
120.51
124.02
129.81
137.86
147.59
157.80
166.95
173.67
177.46
178.76
178.59
177.76
176.07
172.31
164.76
152.12
134.29
112.43
88.58
64.80
42.58
22.50
4.50
-11.73
-26.44
-39.67
-51.43
-61.93
-71.64
-81.33
-91.81
-103.81
-117.75
-133.81
-151.69
-170.56
-188.94
-204.56
-214.55
-215.89
-206.22
-184.64
-152.37
-112.58
-69.84
-28.94
6.34
33.94
53.72
66.79
74.85
79.41
81.50
81.89
81.22
80.32
80.06
81.22
84.15
88.52
93.46
97.56
99.25
97.09
90.15
78.11
61.35
40.77
17.47
-7.53
-33.51
-59.93
-86.23
-111.57
-134.80
-154.59
-169.77
-179.54
-183.42
-181.16
-172.65
-158.17
-138.67
-115.95
-92.43
-70.48
-51.67
-36.31
-23.60
-12.14
-0.67
11.43
24.18
37.30
50.41
63.23
75.33
86.04
94.54
100.08
102.38
101.65
98.56
93.73
87.41
79.32
68.91
55.73
39.87
21.97
3.11
-15.44
-32.41
-46.75
-57.64
-64.67
-67.92
-68.09
-66.25
-63.68
-61.44
-60.24
-60.27
-61.37
-63.15
-65.15
-66.99
-68.31
-68.93
-68.81
-68.08
-66.92
-65.46
-63.81
-62.06
-60.37
-58.91
-57.82
-57.08
-56.47
-55.56
-53.85
-50.85
-46.24
-40.11
-33.05
-26.19
-20.92
-18.54
-19.75
-24.33
-31.07
-38.02
-43.05
-44.31
-40.71
-32.14
-19.48
-4.40
11.10
25.19
36.70
45.34
51.54
56.16
59.98
63.45
66.58
69.09
70.58
70.72
69.40
66.68
62.79
58.08
52.82
47.05
40.68
33.53
25.58
17.13
8.81
1.23
-5.29
-10.91
-16.16
-21.65
-27.76
-34.63
-42.29
-50.80
-60.21
-70.21
-79.82
-87.41
-91.05
-89.35
-82.10
-70.49
-56.73
-43.16
-31.49
-22.37
-15.48
-10.00
-5.01
0.10
5.53
11.11
16.38
20.81
23.93
25.55
25.74
24.87
23.41
21.69
19.91
18.00
15.82
13.26
10.35
7.27
4.14
0.96
-2.53
-6.75
-12.02
-18.37
-25.42
-32.65
-39.57
-45.88
-51.35
-55.50
-57.57
-56.66
-52.20
-44.49
-34.78
-24.92
-16.53
-10.42
-6.30
-3.23
-0.28
2.96
6.19
8.78
10.21
10.44
9.94
9.41
9.47
10.29
11.49
12.35
12.15
10.48
7.49
3.75
-0.09
-3.55
-6.62
-9.66
-13.11
-17.29
-22.34
-28.25
-35.02
-42.56
-50.45
-57.74
-62.95
-64.56
-61.49
-53.75
-42.41
-29.27
-16.19
-4.46
5.38
13.48
20.19
25.72
29.98
32.70
33.70
33.13
31.55
29.84
28.91
29.34
31.14
33.73
36.14
37.43
36.96
34.64
30.78
25.89
20.46
14.85
9.31
3.97
-1.23
-6.51
-12.34
-19.34
-27.96
-38.10
-48.92
-58.93
-66.18
-68.95
-66.24
-58.14
-45.86
-31.29
-16.46
-3.03
8.09
16.70
23.13
27.91
31.52
34.39
36.88
39.36
42.13
45.31
48.71
51.91
54.49
56.15
56.91
56.96
56.47
55.47
53.89
51.68
48.91
45.82
42.61
39.29
35.57
31.03
25.31
18.19
9.58
-0.52
-11.94
-24.08
-35.81
-45.44
-51.19
-51.84
-47.27
-38.47
-27.11
-14.99
-3.45
6.64
14.85
21.04
25.27
27.87
29.48
30.79
32.36
34.35
36.55
38.52
39.76
40.00
39.14
37.38
35.03
32.47
29.97
27.59
25.15
22.28
18.67
14.26
9.20
3.77
-1.83
-7.56
-13.54
-19.87
-26.64
-33.91
-41.64
-49.68
-57.46
-63.89
-67.54
-67.02
-61.56
-51.40
-37.82
-22.71
-8.03
4.81
15.10
22.80
28.22
31.89
34.32
36.01
37.40
38.82
40.48
42.37
44.32
45.96
46.85
46.55
44.80
41.56
37.07
31.76
26.11
20.59
15.49
10.81
6.19
0.90
-5.90
-14.98
-26.68
-40.74
-56.32
-72.00
-86.11
-96.95
-103.10
-103.81
-99.30
-90.66
-79.70
-68.28
-57.78
-48.69
-40.67
-32.79
-24.16
-14.23
-2.99
9.12
21.38
32.95
43.05
51.14
56.98
60.71
62.72
63.53
63.56
63.05
62.13
60.70
58.60
55.61
51.52
46.30
40.22
33.66
26.97
20.25
13.08
4.77
-5.20
-16.78
-29.01
-40.04
-47.81
-50.57
-47.60
-39.44
-27.78
-14.86
-3.03
5.83
10.60
11.01
7.61
1.55
-5.60
-12.33
-17.33
-19.85
-19.74
-17.41
-13.61
-9.26
-5.19
-2.11
-0.47
-0.42
-1.91
-4.58
-8.02
-11.88
-16.02
-20.57
-25.90
-32.42
-40.35
-49.40
-58.49
-65.92
-69.76
-68.52
-61.75
-50.31
-36.06
-21.18
-7.54
3.83
12.72
19.44
24.35
27.60
29.15
29.03
27.54
25.35
23.22
21.74
21.02
20.67
19.98
18.26
15.27
11.23
6.77
2.46
-1.51
-5.47
-10.05
-15.91
-23.33
-32.26
-42.34
-53.13
-64.01
-74.15
-82.27
-86.77
-86.22
-79.82
-68.07
-52.66
-35.98
-20.30
-6.90
4.13
13.60
22.47
31.15
39.21
45.72
49.88
51.55
51.49
50.98
51.13
52.34
54.05
55.04
54.13
50.76
45.20
38.35
31.24
24.53
18.31
12.31
6.01
-1.01
-9.02
-18.17
-28.21
-38.45
-47.58
-53.90
-55.79
-52.31
-43.75
-31.50
-17.59
-3.91
8.23
18.33
26.43
32.68
37.21
40.12
41.57
41.93
41.65
41.16
40.72
40.45
40.37
40.33
40.05
39.01
36.71
32.81
27.37
20.92
14.19
7.90
2.31
-2.77
-7.91
-13.86
-21.25
-30.41
-41.23
-52.89
-63.83
-71.94
-75.03
-71.59
-61.53
-46.29
-28.44
-10.79
4.50
16.44
25.16
31.42
35.93
38.97
40.49
40.41
39.06
37.27
36.11
36.36
38.16
40.73
42.76
42.90
40.37
35.24
28.35
20.87
13.83
7.79
2.71
-1.80
-6.28
-11.37
-17.62
-25.58
-35.50
-47.10
-59.19
-69.69
-76.04
-76.03
-68.68
-54.71
-36.53
-17.33
0.04
13.91
24.07
31.35
36.76
40.88
43.53
44.15
42.38
38.51
33.63
29.25
26.63
26.21
27.38
28.72
28.56
25.65
19.60
10.92
0.86
-9.09
-17.62
-23.94
-27.88
-29.90
-30.88
-32.10
-34.90
-40.44
-49.12
-60.24
-71.73
-80.66
-84.02
-79.80
-67.78
-49.64
-28.46
-7.61
10.30
23.94
33.36
39.32
42.82
44.66
45.44
45.65
45.86
46.67
48.49
51.27
54.46
57.07
58.10
56.95
53.71
49.03
43.81
38.73
33.96
29.20
24.02
18.12
11.56
4.68
-2.08
-8.64
-15.26
-22.49
-30.80
-40.08
-49.27
-56.45
-59.22
-55.58
-44.68
-27.39
-6.06
16.12
36.15
52.03
63.22
70.33
74.46
76.72
77.76
77.95
77.61
77.17
77.20
78.13
80.07
82.60
84.97
86.39
86.37
84.87
82.27
79.05
75.47
71.42
66.38
59.71
51.04
40.55
29.10
17.97
8.39
0.84
-5.21
-11.21
-18.81
-29.02
-41.54
-54.69
-66.12
-73.65
-76.12
-73.47
-66.32
-55.48
-41.79
-26.39
-10.98
2.31
11.52
15.64
14.92
10.21
1.97
-10.43
-28.45
-52.95
-82.92
-114.88
-143.91
-165.78
-178.67
-183.89
-185.05
-186.19
-190.30
-198.56
-210.46
-224.42
-238.15
-248.89
-253.60
-249.64
-235.71
-212.58
-183.02
-150.93
-119.86
-91.82
-67.07
-44.66
-23.58
-3.62
14.60
30.06
42.22
51.44
58.82
65.64
72.47
78.90
83.78
85.65
83.62
77.64
68.52
57.51
45.72
33.73
21.44
8.35
-6.16
-22.50
-40.70
-60.14
-79.53
-96.87
-109.70
-115.80
-113.95
-104.39
-88.63
-68.76
-46.71
-23.86
-1.09
20.71
40.55
57.38
70.67
80.81
89.24
98.00
109.08
123.71
142.17
163.69
186.68
209.01
228.50
243.37
252.76
256.98
257.36
255.89
254.42
254.16
254.87
254.68
250.42
238.61
217.06
186.13
149.15
111.49
78.62
54.18
38.83
30.70
26.76
24.56
23.03
22.35
22.95
24.60
26.19
26.08
23.07
17.00
8.92
0.57
-6.33
-10.80
-12.79
-13.06
-12.76
-13.06
-15.04
-19.53
-27.24
-38.59
-53.57
-71.49
-90.75
-108.91
-123.05
-130.73
-130.78
-123.87
-112.39
-99.52
-88.22
-80.24
-76.07
-75.47
-78.28
-84.90
-96.07
-111.99
-131.59
-152.28
-170.51
-182.93
-187.40
-183.52
-172.45
-156.31
-137.32
-117.22
-97.10
-77.48
-58.73
-41.34
-25.99
-13.37
-3.99
2.02
4.79
4.56
1.59
-3.94
-11.81
-21.73
-33.24
-45.86
-59.12
-72.69
-86.54
-100.77
-115.44
-130.14
-143.65
-153.76
-157.74
-153.18
-139.19
-117.06
-90.15
-62.92
-39.37
-21.90
-10.94
-5.50
-3.97
-5.15
-8.53
-14.09
-21.95
-31.89
-43.10
-54.28
-63.91
-70.73
-74.05
-73.82
-70.27
-63.59
-53.43
-39.04
-19.89
3.76
30.23
56.76
80.32
98.78
111.60
119.86
125.47
130.11
134.46
137.83
138.39
133.63
120.83
97.63
62.96
17.68
-34.62
-87.62
-133.55
-165.09
-177.47
-169.81
-145.20
-109.35
-68.85
-29.35
5.64
34.94
59.40
81.02
101.98
123.78
146.76
169.99
191.78
210.36
224.49
233.82
238.72
239.84
237.82
233.15
226.26
217.75
208.43
199.18
190.63
182.74
174.74
165.25
152.77
136.23
115.27
90.34
62.47
33.24
4.57
-21.30
-42.03
-55.72
-61.44
-59.69
-52.37
-42.32
-32.35
-24.59
-19.98
-18.32
-18.69
-19.87
-20.73
-20.60
-19.27
-17.11
-14.71
-12.69
-11.30
-10.24
-8.93
-6.82
-3.93
-1.19
-0.23
-2.75
-10.17
-23.34
-42.63
-67.96
-98.35
-130.97
-160.71
-180.98
-185.81
-172.38
-142.55
-102.27
-58.89
-18.09
18.06
50.79
82.59
115.07
148.03
180.24
210.84
240.25
269.70
299.93
330.02
357.37
378.73
391.74
395.95
392.81
384.67
373.57
360.07
343.07
320.67
291.43
255.69
216.12
177.15
143.48
118.31
102.24
93.31
88.04
83.02
76.10
66.78
55.70
43.89
32.31
22.01
14.40
11.25
13.85
21.91
32.80
42.04
44.92
38.69
23.91
4.21
-15.40
-30.99
-41.18
-47.26
-51.92
-57.52
-65.11
-74.40
-84.32
-93.60
-100.87
-104.66
-103.46
-96.28
-83.38
-66.71
-49.64
-36.00
-28.81
-29.38
-37.12
-49.91
-65.01
-79.82
-92.43
-101.87
-107.99
-111.17
-112.04
-111.20
-109.17
-106.37
-103.18
-99.85
-96.40
-92.55
-87.92
-82.32
-75.96
-69.59
-64.23
-60.65
-59.02
-58.91
-59.47
-59.99
-60.30
-60.65
-61.57
-63.45
-66.28
-69.75
-73.42
-76.91
-80.01
-82.52
-84.20
-84.65
-83.52
-80.62
-76.15
-70.73
-65.18
-60.35
-57.02
-55.68
-56.60
-59.65
-64.23
-69.38
-73.96
-77.04
-78.30
-78.23
-77.93
-78.69
-81.29
-85.59
-90.55
-94.54
-96.14
-94.70
-90.64
-85.23
-79.94
-75.84
-73.20
-71.52
-69.90
-67.59
-64.23
-59.89
-54.85
-49.31
-43.32
-36.75
-29.53
-21.79
-13.96
-6.76
-1.12
2.11
2.38
-0.47
-6.03
-13.33
-20.90
-27.16
-30.92
-31.97
-31.38
-31.20
-33.80
-40.83
-52.49
-67.51
-83.69
-98.80
-111.30
-120.81
-127.74
-132.87
-136.89
-140.31
-143.48
-146.70
-150.26
-154.12
-157.87
-160.63
-161.22
-158.53
-152.16
-142.75
-132.07
-122.67
-117.10
-117.18
-123.06
-132.94
-143.17
-149.27
-147.16
-134.72
-112.55
-83.83
-53.14
-24.73
-1.17
17.13
31.46
43.63
54.77
64.89
73.07
78.02
78.84
75.34
68.00
57.99
46.88
36.49
28.46
24.01
23.48
26.22
30.70
34.87
36.91
35.75
31.66
26.37
22.73
23.82
31.93
47.90
70.86
98.73
128.99
159.43
188.39
214.72
237.39
255.54
268.54
276.27
279.00
277.06
270.80
261.31
251.38
245.79
250.02
267.40
296.23
328.99
354.50
362.34
347.29
311.06
260.72
204.65
148.91
95.86
45.47
-2.14
-44.99
-79.43
-102.16
-112.25
-111.80
-105.05
-96.21
-87.32
-77.36
-63.02
-41.13
-11.07
23.75
56.60
79.87
88.10
80.24
59.59
32.14
3.98
-20.72
-40.09
-53.89
-62.57
-66.56
-66.52
-63.77
-60.46
-59.13
-61.88
-69.68
-82.12
-97.86
-115.28
-133.12
-150.74
-167.95
-184.63
-200.51
-214.90
-226.65
-233.92
-234.20
-224.41
-201.76
-164.98
-115.61
-58.46
-0.75
49.85
87.59
110.31
119.74
120.18
116.59
112.87
111.08
111.65
114.11
117.81
122.10
126.25
129.17
129.35
125.31
116.08
101.73
83.39
62.88
42.07
22.13
3.50
-13.91
-30.06
-44.34
-55.71
-63.10
-66.19
-65.69
-63.14
-60.30
-58.30
-57.40
-56.99
-56.35
-55.27
-54.27
-54.52
-57.19
-62.90
-71.39
-81.69
-92.44
-102.49
-111.45
-119.84
-128.97
-140.45
-155.42
-173.96
-194.57
-214.25
-229.02
-234.93
-229.18
-211.00
-181.88
-145.15
-105.19
-66.45
-32.70
-6.59
10.84
20.17
23.53
24.32
26.24
32.25
43.58
59.26
76.56
92.17
103.70
110.36
113.15
114.03
114.85
116.67
119.67
123.61
128.36
134.15
141.27
149.63
158.31
165.79
170.63
172.29
171.41
169.64
168.72
169.74
172.84
177.21
181.63
184.77
185.23
181.72
173.23
159.58
141.75
122.03
103.35
88.43
79.00
75.32
76.39
80.42
85.24
88.65
88.79
84.61
76.20
64.97
53.20
43.23
36.61
33.53
32.92
32.90
31.45
26.92
18.37
5.70
-10.28
-28.03
-45.81
-62.27
-77.12
-91.08
-105.41
-120.95
-137.34
-152.90
-165.01
-171.12
-169.60
-160.16
-143.87
-122.78
-99.35
-76.17
-55.38
-38.50
-26.13
-17.98
-13.08
-10.19
-8.28
-6.70
-5.29
-4.11
-3.27
-2.87
-2.85
-3.16
-3.60
-3.84
-3.47
-2.05
0.58
4.10
7.78
10.63
11.76
10.61
7.16
1.75
-5.06
-12.62
-20.30
-27.41
-33.34
-37.65
-40.17
-41.00
-40.49
-39.21
-37.79
-36.74
-36.48
-37.12
-38.60
-40.68
-43.19
-46.07
-49.34
-53.06
-57.02
-60.72
-63.51
-64.85
-64.64
-63.44
-62.27
-62.25
-64.23
-68.46
-74.66
-82.28
-90.76
-99.85
-109.58
-120.07
-131.23
-142.45
-152.50
-159.91
-163.50
-162.77
-158.10
-150.42
-140.69
-129.45
-116.74
-102.43
-86.90
-71.43
-58.04
-48.87
-45.29
-47.44
-54.34
-64.20
-74.79
-83.39
-86.89
-82.08
-66.70
-40.73
-7.08
28.84
60.77
83.91
96.67
100.86
100.35
98.88
98.54
99.25
99.57
98.12
94.45
89.17
83.35
77.78
72.45
66.75
59.96
51.92
43.16
34.63
27.16
20.91
15.20
8.86
0.91
-8.74
-18.91
-27.43
-31.83
-30.49
-23.48
-12.82
-1.95
5.42
6.62
1.04
-9.63
-22.10
-32.53
-37.73
-36.12
-27.90
-14.78
0.73
16.12
29.35
39.33
45.79
49.20
50.47
50.69
50.98
52.35
55.79
61.96
71.15
83.00
96.44
109.82
121.16
128.73
131.39
128.91
121.81
111.19
98.29
84.23
69.94
56.20
43.63
32.71
23.70
16.63
11.21
6.87
2.80
-1.90
-7.98
-15.46
-23.47
-30.26
-33.80
-32.73
-27.02
-18.20
-8.66
-0.73
4.27
6.30
6.31
5.46
4.61
4.10
3.96
4.17
4.70
5.35
5.61
4.56
1.22
-5.00
-13.93
-24.62
-35.59
-45.53
-53.79
-60.47
-66.23
-71.78
-77.45
-83.09
-88.33
-92.89
-96.85
-100.68
-104.96
-110.09
-116.11
-122.61
-128.88
-134.01
-136.94
-136.68
-132.56
-124.51
-113.20
-99.95
-86.24
-73.11
-60.74
-48.41
-35.07
-20.11
-4.00
11.69
25.03
34.72
40.85
44.84
48.69
53.91
60.84
68.67
76.15
82.28
86.64
89.25
90.23
89.45
86.68
81.76
74.71
65.67
54.70
41.85
27.33
11.89
-3.01
-15.43
-23.40
-25.38
-20.51
-8.60
9.92
34.07
62.05
91.29
118.59
140.65
154.89
160.18
157.29
148.64
137.73
127.88
121.39
118.81
118.93
119.46
117.83
111.89
100.26
82.34
58.20
28.66
-4.61
-39.05
-71.58
-99.22
-119.94
-133.29
-140.34
-143.35
-145.00
-147.76
-153.38
-162.52
-174.60
-187.74
-198.99
-204.98
-203.07
-192.30
-174.00
-151.50
-129.00
-110.30
-97.60
-91.17
-89.56
-90.16
-89.88
-85.59
-74.66
-55.50
-28.02
6.26
44.47
83.06
118.56
148.10
169.71
182.33
185.83
181.16
170.25
155.78
140.48
126.39
114.33
103.87
93.84
82.92
70.21
55.44
39.10
22.49
7.51
-3.69
-9.33
-8.87
-3.46
4.08
9.98
10.84
4.78
-7.93
-25.11
-43.61
-60.33
-73.02
-80.30
-81.62
-76.93
-66.69
-52.01
-34.72
-17.21
-1.95
9.08
14.84
15.26
11.07
3.48
-6.18
-16.60
-26.65
-35.62
-43.30
-50.02
-56.40
-62.79
-68.78
-72.91
-72.96
-66.75
-53.08
-32.46
-7.28
18.82
42.01
59.38
69.64
73.18
71.57
66.91
61.28
56.52
54.17
55.45
60.99
70.39
82.01
93.07
100.33
101.07
94.00
79.55
59.58
36.51
12.50
-11.01
-33.28
-54.06
-73.35
-91.40
-108.70
-125.68
-142.21
-157.12
-168.07
-172.18
-167.26
-152.96
-131.21
-105.86
-81.32
-61.22
-47.35
-39.52
-36.15
-35.05
-34.29
-32.48
-28.79
-22.82
-14.31
-3.29
9.95
24.73
40.18
55.40
69.65
82.40
93.16
101.27
105.89
106.23
102.00
93.85
83.51
73.40
65.93
62.68
63.46
66.13
67.01
61.96
48.11
25.36
-2.79
-29.90
-48.57
-53.20
-42.14
-18.45
11.31
39.53
60.25
70.80
71.96
66.79
58.96
51.48
46.06
43.23
42.75
44.05
46.36
48.78
50.34
50.02
47.05
41.09
32.52
22.56
12.97
5.62
1.71
1.37
3.39
5.70
6.00
2.70
-4.63
-15.03
-26.42
-36.09
-41.30
-39.90
-30.93
-14.82
6.67
30.90
55.11
77.11
95.77
110.98
123.37
133.89
143.25
151.85
159.78
167.01
173.55
179.34
183.98
186.49
185.29
178.64
165.30
145.33
120.29
92.86
65.88
41.36
19.83
0.59
-17.59
-35.54
-53.19
-69.68
-83.96
-95.54
-104.83
-112.98
-121.51
-131.72
-144.36
-159.38
-175.86
-191.91
-204.86
-211.65
-209.69
-197.79
-176.72
-149.18
-118.95
-89.57
-63.43
-41.30
-22.71
-6.79
6.99
18.50
27.26
32.95
35.93
37.30
38.51
40.77
44.38
48.62
52.03
53.13
51.12
46.29
39.82
33.16
27.28
22.23
17.17
10.86
2.16
-9.48
-23.90
-40.27
-57.21
-72.84
-84.98
-91.63
-91.54
-84.79
-72.84
-58.24
-43.64
-30.93
-20.71
-12.39
-4.80
3.12
11.84
21.18
30.61
39.58
47.69
54.73
60.58
65.03
67.87
68.92
68.21
65.99
62.69
58.75
54.50
50.04
45.32
40.22
34.67
28.58
21.84
14.31
5.75
-4.12
-15.60
-28.81
-43.48
-58.65
-72.48
-82.49
-86.22
-82.03
-69.90
-51.57
-30.15
-9.02
9.16
23.12
33.05
40.11
45.73
51.01
56.52
62.20
67.71
72.53
76.22
78.36
78.66
76.91
73.05
67.32
60.32
52.99
46.38
41.27
37.88
35.73
33.81
31.00
26.42
19.75
11.20
1.32
-9.19
-19.68
-29.63
-38.58
-46.20
-52.26
-56.80
-60.14
-62.97
-66.15
-70.64
-77.28
-86.39
-97.50
-108.92
-117.93
-121.32
-116.42
-102.21
-79.90
-52.69
-24.69
0.48
20.77
36.05
47.50
56.64
64.64
72.07
79.20
86.22
93.37
100.70
107.78
113.73
117.42
118.05
115.45
110.09
102.72
93.98
84.14
73.19
61.15
48.41
35.71
24.06
14.24
6.52
0.41
-5.24
-11.79
-20.25
-30.77
-42.55
-54.15
-64.05
-71.27
-75.59
-77.65
-78.59
-79.72
-82.28
-87.25
-95.05
-105.24
-116.18
-125.19
-129.04
-125.00
-111.83
-90.51
-64.01
-36.43
-11.70
7.69
21.29
30.38
37.06
43.12
49.25
54.99
59.22
61.00
60.08
57.18
53.54
50.38
48.37
47.44
47.02
46.28
44.58
41.58
37.30
31.95
25.83
19.13
11.97
4.50
-3.05
-10.24
-16.51
-21.46
-25.05
-27.78
-30.60
-34.60
-40.64
-49.14
-60.01
-72.66
-85.91
-98.03
-106.72
-109.52
-104.45
-90.95
-70.36
-45.63
-20.48
1.84
19.51
32.25
40.83
46.26
49.34
50.42
49.90
48.46
47.05
46.62
47.67
50.00
52.78
54.94
55.59
54.35
51.38
47.27
42.73
38.20
33.62
28.51
22.12
13.94
4.09
-6.74
-17.39
-26.83
-34.71
-41.50
-48.35
-56.58
-67.16
-80.33
-95.41
-110.89
-124.54
-133.79
-136.16
-129.99
-114.92
-92.34
-65.05
-36.65
-10.60
10.55
25.64
34.80
39.06
39.93
38.91
37.29
36.04
35.72
36.46
38.01
39.85
41.40
42.19
42.02
40.95
39.22
37.09
34.63
31.72
28.05
23.29
17.25
10.00
1.85
-6.70
-15.06
-22.66
-29.24
-35.01
-40.74
-47.60
-56.59
-67.86
-80.27
-91.38
-98.11
-97.83
-89.24
-72.95
-51.21
-27.21
-4.14
15.67
31.15
42.45
50.52
56.45
61.11
64.85
67.69
69.68
71.22
73.12
76.27
81.27
88.05
95.98
104.09
111.47
117.37
121.08
121.82
118.67
110.85
98.17
81.36
61.94
41.84
22.73
5.59
-9.67
-24.03
-38.83
-55.17
-73.15
-91.58
-108.12
-120.18
-125.86
-124.89
-118.76
-110.09
-101.54
-94.71
-89.75
-85.63
-80.90
-74.49
-66.02
-55.64
-43.66
-30.35
-15.93
-0.85
13.90
26.82
36.32
41.31
41.77
38.81
34.22
29.61
25.63
21.76
16.58
8.63
-2.94
-18.00
-35.55
-54.08
-71.97
-87.76
-100.32
-109.23
-115.04
-119.42
-124.85
-133.58
-146.37
-161.52
-174.93
-181.35
-176.46
-158.88
-131.04
-98.42
-67.51
-43.55
-28.82
-22.41
-21.09
-20.77
-17.77
-9.67
4.40
23.62
45.60
66.76
83.24
92.10
92.65
86.88
78.76
72.60
71.24
74.80
81.04
86.68
89.12
87.83
84.50
82.15
83.37
88.94
97.31
105.32
109.73
108.68
102.57
93.59
84.64
77.99
74.58
74.25
76.58
81.48
89.08
98.98
109.53
118.04
121.94
120.26
114.33
107.32
102.58
102.10
105.72
111.53
117.06
120.27
119.87
115.02
105.00
89.28
67.95
42.28
14.61
-12.41
-36.83
-58.07
-76.92
-94.89
-113.33
-132.85
-153.18
-173.29
-191.78
-206.93
-216.86
-219.52
-213.14
-196.60
-169.81
-133.80
-90.27
-40.98
12.76
69.93
129.05
187.35
240.46
283.10
310.53
320.17
312.59
291.22
261.04
227.10
193.33
162.41
136.09
115.77
102.61
97.27
99.35
107.04
117.37
126.83
132.32
131.97
125.46
113.87
99.21
83.52
68.37
54.32
40.95
27.13
11.52
-7.17
-29.99
-57.51
-89.61
-124.96
-160.73
-192.85
-216.84
-229.23
-228.61
-216.26
-195.61
-171.23
-147.46
-127.43
-112.90
-104.19
-100.62
-100.85
-103.17
-105.92
-107.84
-108.32
-107.41
-105.44
-102.59
-98.94
-94.42
-89.01
-82.64
-75.06
-65.80
-54.70
-42.77
-32.66
-28.13
-32.41
-46.29
-66.84
-88.10
-103.40
-108.05
-101.32
-86.18
-67.59
-49.97
-35.66
-24.76
-16.13
-8.62
-1.61
4.85
10.54
15.39
19.52
23.12
26.27
28.92
31.00
32.49
33.41
33.69
33.12
31.28
27.52
21.08
11.32
-1.85
-17.52
-33.63
-47.30
-55.60
-56.59
-49.90
-36.77
-19.49
-0.63
17.62
33.67
46.59
56.10
62.67
67.46
72.06
77.83
85.24
93.66
101.59
107.25
108.95
105.01
93.83
74.37
47.43
17.15
-8.57
-19.45
-6.63
33.30
95.71
168.72
237.19
288.16
315.00
318.57
305.06
282.30
256.40
230.49
205.23
180.31
155.60
131.55
108.81
87.66
67.86
48.75
29.75
10.70
-8.14
-26.03
-42.15
-56.11
-68.25
-79.63
-91.45
-104.32
-117.62
-129.56
-137.98
-141.42
-139.96
-135.09
-128.95
-123.18
-118.43
-114.39
-110.46
-106.44
-102.73
-100.16
-99.39
-100.59
-103.40
-107.13
-111.01
-114.42
-116.82
-117.83
-117.06
-114.28
-109.54
-103.27
-96.24
-89.34
-83.25
-78.17
-73.80
-69.44
-64.31
-57.98
-50.49
-42.38
-34.43
-27.30
-21.42
-16.81
-13.27
-10.60
-8.65
-7.41
-6.87
-6.96
-7.48
-8.08
-8.43
-8.27
-7.42
-5.91
-3.87
-1.62
0.34
1.39
1.08
-0.68
-3.38
-6.17
-8.19
-8.96
-8.65
-7.81
-7.06
-6.69
-6.60
-6.52
-6.24
-5.95
-5.99
-6.67
-8.11
-10.22
-12.93
-16.36
-20.66
-25.79
-31.17
-35.72
-38.18
-37.68
-34.17
-28.49
-22.08
-16.42
-12.76
-11.85
-13.82
-18.18
-23.70
-28.69
-31.48
-31.14
-27.88
-23.09
-18.73
-16.31
-16.30
-18.01
-20.26
-22.22
-23.86
-25.74
-28.44
-31.94
-35.39
-37.63
-37.83
-36.06
-33.40
-31.45
-31.72
-34.92
-40.74
-47.93
-54.95
-60.52
-64.20
-66.57
-68.95
-72.76
-79.05
-87.95
-98.68
-109.96
-120.34
-128.69
-134.37
-137.31
-137.83
-136.57
-134.34
-132.01
-130.44
-130.20
-131.38
-133.33
-134.74
-133.88
-129.08
-119.44
-105.12
-87.37
-67.96
-48.41
-29.37
-10.31
9.90
32.16
56.45
81.57
105.54
126.52
143.64
157.32
169.22
181.37
195.45
211.96
229.95
247.15
260.64
267.75
266.79
257.74
242.13
222.55
201.73
181.75
163.62
147.31
132.49
118.81
106.31
95.04
84.81
74.93
64.27
51.89
37.54
22.09
7.31
-4.80
-12.84
-16.59
-16.99
-15.89
-15.61
-18.76
-27.71
-43.59
-65.13
-87.90
-105.11
-109.69
-97.43
-69.18
-31.10
7.59
38.08
55.01
57.80
49.61
35.18
18.71
3.05
-10.36
-20.82
-28.13
-32.80
-36.16
-40.09
-46.33
-55.46
-66.27
-75.93
-81.04
-79.04
-69.51
-54.22
-36.60
-20.32
-8.07
-0.89
1.74
1.16
-1.00
-3.46
-5.27
-5.99
-5.57
-4.37
-3.01
-2.23
-2.57
-4.23
-7.10
-10.73
-14.54
-18.04
-20.86
-22.96
-24.69
-26.71
-29.76
-34.26
-39.88
-45.48
-49.25
-49.36
-44.63
-35.05
-21.87
-7.15
6.89
18.74
27.94
35.05
41.11
47.04
53.13
59.04
64.13
67.92
70.45
72.18
73.67
75.10
76.21
76.49
75.68
74.02
72.20
71.01
70.74
71.04
70.94
69.45
66.08
61.11
55.48
50.19
45.96
42.90
40.73
39.08
37.71
36.58
35.62
34.70
33.43
31.40
28.30
24.21
19.58
15.11
11.56
9.68
10.02
12.72
17.52
23.51
29.47
34.25
37.34
39.15
40.89
43.93
49.11
56.29
64.40
72.07
78.28
82.84
86.27
89.17
91.51
92.19
89.19
80.10
62.87
36.51
1.30
-41.09
-87.98
-136.08
-181.88
-222.30
-255.26
-280.08
-297.55
-309.75
-319.33
-328.77
-339.72
-352.67
-367.06
-381.65
-395.11
-406.55
-415.75
-423.06
-429.15
-434.56
-439.47
-443.62
-446.35
-446.77
-443.81
-436.40
-423.62
-404.98
-380.70
-351.77
-319.87
-286.85
-254.21
-222.82
-192.86
-164.01
-135.88
-108.16
-80.66
-53.35
-26.27
0.42
26.41
51.37
74.88
96.64
116.51
134.64
151.45
167.63
183.91
200.74
217.93
234.46
248.64
258.66
263.24
262.29
256.96
249.34
241.70
235.81
232.47
231.49
231.90
232.40
231.57
228.15
221.27
210.83
197.75
183.95
171.89
163.85
161.11
163.50
169.43
176.48
182.23
185.04
184.36
180.75
175.45
169.90
165.27
162.26
161.09
161.60
163.44
166.17
169.36
172.49
175.00
176.28
175.85
173.36
168.61
161.55
152.28
141.17
129.02
117.12
107.05
100.19
97.20
97.59
99.53
99.89
94.97
81.25
56.72
21.96
-19.26
-60.53
-94.62
-115.89
-122.19
-115.20
-99.11
-78.24
-55.16
-30.22
-2.48
28.66
62.48
97.08
130.55
161.90
191.25
218.98
244.47
265.56
279.01
281.99
273.44
254.71
229.09
200.59
172.62
146.99
123.85
102.01
79.72
55.24
27.06
-6.30
-46.60
-95.84
-155.31
-223.95
-297.12
-366.41
-421.46
-453.27
-457.43
-435.75
-395.30
-345.36
-293.90
-245.26
-200.04
-156.70
-113.53
-69.66
-24.91
21.02
68.94
119.50
172.06
223.90
270.66
307.66
331.71
342.33
341.53
332.60
318.55
301.09
280.54
256.45
228.36
196.27
160.67
122.24
81.59
39.28
-4.14
-47.98
-91.25
-132.46
-169.67
-200.59
-223.00
-235.43
-237.55
-230.25
-215.20
-194.09
-168.18
-138.16
-104.42
-67.69
-29.32
8.74
44.31
75.42
100.61
119.05
130.26
134.10
130.71
120.60
104.84
85.10
63.57
42.78
25.17
12.76
6.63
6.57
10.94
17.09
22.07
23.58
20.77
14.38
6.27
-1.40
-7.00
-9.85
-10.17
-8.70
-6.45
-4.47
-3.83
-5.51
-9.97
-16.97
-25.39
-33.55
-39.78
-42.87
-42.22
-37.72
-29.58
-18.22
-4.43
10.42
24.45
35.59
42.19
43.61
40.33
33.76
25.59
17.29
9.77
3.48
-1.39
-4.81
-6.78
-7.49
-7.36
-6.90
-6.70
-7.36
-9.41
-13.26
-19.03
-26.33
-34.19
-41.21
-46.06
-48.11
-47.70
-46.04
-44.54
-44.08
-44.39
-44.33
-42.46
-37.88
-30.68
-21.85
-12.67
-4.15
3.30
9.84
15.74
21.19
26.19
30.76
35.09
39.63
44.90
51.31
59.06
68.31
79.30
92.31
107.14
122.56
136.05
144.20
143.79
132.93
111.66
81.73
45.59
5.65
-36.10
-77.55
-116.01
-148.01
-170.07
-179.95
-177.75
-166.02
-148.85
-130.44
-113.83
-100.56
-90.86
-84.41
-80.83
-79.87
-81.23
-84.27
-87.98
-91.08
-92.41
-91.26
-87.66
-82.23
-75.92
-69.52
-63.42
-57.53
-51.53
-45.22
-38.73
-32.63
-27.68
-24.47
-23.36
-24.36
-27.27
-31.69
-37.12
-42.90
-48.23
-52.51
-55.43
-57.23
-58.65
-60.63
-63.89
-68.51
-73.59
-77.27
-77.11
-70.84
-57.05
-35.73
-8.40
22.19
52.48
78.83
98.16
108.41
109.11
101.46
88.08
72.32
57.39
45.48
37.50
33.11
31.38
31.27
31.98
32.73
32.58
30.22
24.13
13.04
-3.63
-25.47
-51.11
-78.52
-105.56
-130.45
-152.20
-170.69
-186.52
-200.65
-214.06
-227.34
-240.54
-253.02
-263.46
-270.18
-271.45
-265.88
-252.89
-232.84
-207.04
-177.47
-146.37
-115.75
-87.15
-61.44
-38.82
-18.84
-0.58
17.03
34.75
52.58
69.58
83.92
93.64
97.22
94.15
85.11
71.63
55.85
40.13
26.88
18.13
15.17
17.80
24.29
31.66
36.60
36.63
30.82
19.93
5.87
-8.85
-21.54
-29.61
-30.67
-23.13
-6.75
16.71
43.80
70.16
91.76
106.06
112.49
112.09
106.71
98.23
88.00
76.90
65.64
55.01
46.07
39.86
37.03
37.48
40.32
44.07
47.18
48.42
47.26
43.84
38.63
32.30
25.29
17.79
9.63
0.37
-10.51
-23.59
-39.21
-57.33
-77.17
-96.96
-113.99
-124.96
-126.79
-117.79
-98.47
-71.80
-42.49
-15.68
4.62
16.51
20.30
17.99
12.20
5.24
-1.26
-6.37
-9.49
-10.25
-8.39
-3.98
2.35
9.45
15.85
20.23
21.87
20.89
18.23
15.16
12.81
11.63
11.19
10.31
7.57
1.73
-7.80
-20.78
-36.19
-52.19
-66.43
-76.17
-78.96
-73.28
-59.21
-38.65
-14.90
8.24
27.55
41.23
49.02
51.83
51.08
48.01
43.58
38.47
33.34
29.04
26.52
26.59
29.60
35.17
42.17
48.97
53.93
55.91
54.64
50.69
45.12
39.00
33.05
27.55
22.34
17.07
11.28
4.64
-2.93
-10.99
-18.42
-23.57
-24.57
-20.07
-9.80
5.05
22.09
38.47
51.71
60.53
64.91
65.91
64.98
63.41
61.99
60.89
59.84
58.35
55.98
52.58
48.24
43.30
38.20
33.28
28.75
24.65
20.92
17.59
14.68
12.19
9.91
7.45
4.32
0.20
-4.94
-10.90
-17.50
-24.84
-33.13
-42.42
-51.94
-59.85
-63.58
-60.58
-49.50
-30.94
-7.48
17.11
39.21
56.48
68.27
75.44
79.47
81.91
83.87
86.11
89.25
93.79
100.03
107.76
116.23
124.18
130.35
133.96
134.95
134.13
132.65
131.53
131.21
131.31
130.95
129.29
126.15
122.29
119.24
118.58
121.03
125.95
131.52
135.61
137.08
136.60
136.68
140.43
149.78
163.93
178.91
188.89
188.16
173.11
143.21
100.81
50.77
0.13
-41.93
-65.29
-61.45
-27.18
32.68
105.29
173.66
222.57
243.82
238.08
212.52
176.02
134.88
91.43
45.48
-2.78
-51.02
-95.19
-131.56
-158.88
-179.11
-196.57
-215.62
-238.67
-265.29
-292.62
-317.16
-336.56
-350.81
-362.32
-374.81
-391.87
-415.39
-444.81
-477.00
-507.03
-529.50
-540.14
-537.02
-521.02
-495.26
-463.86
-430.50
-397.43
-365.35
-334.03
-303.06
-272.33
-241.94
-211.77
-181.16
-149.03
-114.34
-76.61
-36.28
5.61
47.84
89.44
130.19
170.53
211.46
254.13
299.11
345.81
392.10
434.56
469.32
493.23
504.75
504.14
492.75
472.11
443.34
407.35
365.76
321.69
279.69
244.64
220.00
206.50
201.79
201.40
200.29
194.28
180.90
159.52
130.88
96.59
58.76
19.68
-18.30
-52.89
-82.15
-104.63
-119.51
-126.88
-127.83
-124.42
-119.28
-114.86
-112.67
-112.75
-113.82
-114.03
-111.86
-106.88
-99.82
-92.21
-85.51
-80.66
-77.81
-76.56
-76.06
-74.95
-71.24
-62.66
-47.48
-25.62
0.49
26.36
46.68
57.42
57.27
48.08
33.83
18.82
6.24
-2.58
-7.34
-7.81
-3.35
6.72
21.76
39.14
54.54
63.80
65.06
60.09
53.67
51.04
55.02
64.18
73.62
77.64
72.96
60.27
43.66
27.76
14.81
3.59
-9.48
-27.42
-50.27
-74.14
-92.72
-99.61
-90.58
-64.39
-22.44
31.63
92.40
152.77
204.81
241.47
258.73
257.05
241.15
218.16
194.99
176.42
164.42
158.83
158.29
160.92
164.46
166.60
165.49
160.33
151.81
141.68
131.61
122.27
112.86
101.63
86.89
67.90
44.96
19.11
-8.44
-36.57
-64.02
-89.20
-110.33
-126.22
-136.84
-143.58
-148.42
-152.81
-156.70
-158.65
-156.89
-150.62
-141.01
-130.97
-124.19
-123.80
-131.52
-147.25
-169.21
-194.39
-219.05
-239.64
-253.67
-260.39
-261.03
-258.25
-255.19
-254.58
-258.15
-266.44
-278.65
-292.69
-305.30
-312.68
-311.34
-299.13
-275.97
-243.54
-204.58
-162.01
-118.53
-76.63
-38.94
-8.09
13.88
26.13
29.32
25.28
16.31
4.62
-7.72
-18.45
-25.07
-25.20
-17.47
-2.21
18.48
41.45
63.62
82.81
97.82
108.07
113.10
112.61
106.81
96.66
84.04
71.14
59.64
50.17
42.08
33.86
23.94
11.54
-2.96
-18.11
-32.10
-43.65
-52.67
-60.44
-68.93
-79.88
-93.76
-109.24
-123.45
-132.98
-135.11
-128.76
-114.82
-95.61
-73.94
-52.16
-31.70
-13.02
3.89
19.11
32.58
44.20
54.00
62.27
69.41
75.69
80.97
84.65
85.87
83.95
78.79
71.10
62.17
53.42
45.82
39.60
34.31
29.40
24.64
20.56
18.21
18.61
22.12
28.16
35.35
42.07
47.10
50.00
50.95
50.50
49.19
47.32
44.93
41.94
38.34
34.29
30.20
26.59
23.95
22.54
22.22
22.52
22.77
22.27
20.51
17.39
13.12
8.16
2.93
-2.47
-8.34
-15.26
-23.79
-34.07
-45.52
-56.90
-66.55
-72.76
-74.32
-70.79
-62.67
-51.20
-38.06
-24.88
-12.85
-2.51
6.18
13.48
19.63
24.61
28.30
30.71
32.16
33.29
34.73
36.76
39.14
41.21
42.26
41.83
39.89
36.85
33.26
29.55
25.89
22.13
17.96
13.06
7.19
0.25
-7.71
-16.33
-24.87
-32.16
-36.83
-37.57
-33.65
-25.16
-13.12
0.93
15.50
29.58
42.88
55.68
68.37
81.05
93.30
104.33
113.33
119.77
123.76
125.87
126.91
127.47
127.73
127.44
126.09
123.33
119.15
114.01
108.77
104.37
101.61
100.82
101.81
104.01
106.61
108.94
110.67
112.01
113.69
116.88
122.94
133.06
147.76
166.31
186.47
204.83
217.81
223.17
221.22
214.98
209.19
208.35
214.66
226.87
240.66
250.30
250.85
239.92
218.20
188.72
155.36
121.39
88.75
58.07
29.24
2.03
-23.66
-47.87
-70.63
-91.81
-110.74
-125.84
-134.97
-136.31
-129.59
-116.75
-101.59
-88.42
-80.41
-78.49
-81.37
-86.57
-91.71
-95.32
-96.94
-96.50
-93.87
-88.85
-81.70
-73.76
-67.62
-66.66
-73.91
-90.94
-117.19
-150.10
-185.86
-220.54
-251.02
-275.52
-293.59
-305.80
-313.26
-317.13
-318.23
-316.73
-312.16
-303.59
-290.15
-271.57
-248.58
-222.93
-197.22
-174.22
-156.18
-144.21
-137.92
-135.53
-134.43
-131.91
-125.95
-115.75
-101.68
-84.94
-66.96
-48.97
-31.85
-16.20
-2.51
8.76
17.18
22.66
25.62
27.11
28.85
32.72
40.29
52.07
67.27
83.97
99.73
112.50
121.21
125.84
127.05
125.58
121.82
115.79
107.35
96.56
83.84
70.07
56.41
44.12
34.22
27.20
22.81
20.18
18.26
16.17
13.69
11.08
8.81
7.09
5.66
3.87
1.11
-2.73
-7.19
-11.38
-14.33
-15.41
-14.56
-12.22
-9.07
-5.70
-2.42
0.83
4.30
8.14
12.13
15.68
18.05
18.55
16.82
12.78
6.69
-0.88
-8.96
-16.26
-21.24
-22.63
-19.80
-13.07
-3.61
7.00
17.30
26.46
34.29
41.18
47.74
54.45
61.59
69.09
76.53
83.20
88.39
91.66
93.07
93.20
92.95
93.08
93.96
95.47
97.09
98.29
98.66
98.02
96.33
93.66
90.15
86.18
82.26
78.91
76.37
74.47
72.77
71.01
69.40
68.63
69.57
72.69
77.70
83.42
88.20
90.21
87.86
79.94
65.76
45.40
19.86
-8.77
-37.67
-63.92
-85.25
-100.64
-110.31
-115.39
-117.27
-117.21
-116.08
-114.38
-112.44
-110.51
-108.81
-107.49
-106.63
-106.08
-105.66
-105.01
-103.65
-101.03
-96.58
-89.80
-80.45
-68.61
-54.62
-39.14
-22.98
-6.97
8.29
22.54
35.74
47.88
58.64
67.26
72.74
74.18
71.26
64.45
54.69
43.03
30.20
16.56
2.37
-11.98
-25.93
-39.11
-51.80
-65.01
-80.14
-98.21
-119.30
-142.38
-165.76
-187.69
-206.78
-221.90
-231.92
-235.66
-232.22
-221.63
-205.10
-184.90
-163.41
-142.35
-122.25
-102.90
-84.12
-66.45
-51.15
-39.51
-31.95
-27.55
-24.26
-19.79
-12.61
-2.44
9.76
22.37
33.73
42.58
48.23
50.65
50.24
47.77
44.12
40.15
36.36
32.80
29.10
24.76
19.40
13.08
6.25
-0.36
-5.97
-9.94
-11.72
-10.89
-7.16
-0.61
8.12
17.84
26.99
34.03
37.78
37.47
32.74
23.49
10.05
-6.54
-24.31
-40.57
-52.58
-58.36
-57.34
-50.46
-39.68
-27.23
-14.96
-4.03
5.00
11.95
16.83
19.88
21.52
22.31
22.94
23.92
25.57
27.86
30.55
33.14
35.15
36.23
36.32
35.70
34.90
34.48
34.75
35.69
36.89
37.80
37.96
37.25
35.87
34.20
32.62
31.24
29.98
28.59
26.79
24.42
21.45
17.87
13.57
8.41
2.26
-4.87
-12.72
-20.84
-28.65
-35.69
-41.68
-46.72
-51.08
-55.13
-59.12
-63.11
-66.81
-69.68
-71.08
-70.36
-67.11
-61.22
-52.88
-42.53
-30.79
-18.41
-6.09
5.60
16.55
27.21
38.34
50.69
64.43
78.78
92.19
102.86
109.50
111.94
111.29
109.40
108.06
108.06
108.66
107.92
103.52
93.91
79.47
62.55
46.65
35.04
29.39
29.21
32.28
35.59
36.20
31.46
19.19
-1.85
-30.65
-63.18
-92.57
-111.34
-114.67
-103.19
-83.37
-64.72
-55.26
-57.35
-66.35
-72.61
-65.79
-39.11
8.27
71.63
142.91
213.62
276.97
328.35
365.18
386.18
390.63
378.66
351.68
312.62
265.67
215.01
163.18
110.29
54.77
-4.49
-65.46
-121.88
-164.83
-186.26
-183.11
-159.34
-124.84
-91.55
-68.96
-61.08
-66.15
-79.01
-94.13
-107.82
-118.61
-126.22
-130.34
-130.00
-124.14
-112.52
-96.49
-78.99
-63.63
-53.31
-49.16
-50.34
-54.55
-59.08
-61.81
-61.86
-59.51
-55.76
-51.62
-47.61
-43.54
-38.61
-31.97
-23.33
-13.45
-4.16
2.12
3.29
-1.66
-12.18
-26.33
-41.37
-54.31
-62.59
-64.35
-58.79
-46.37
-28.72
-8.15
12.97
32.81
50.50
66.03
79.86
92.53
104.41
115.60
126.00
135.33
143.16
148.96
152.34
153.23
151.99
149.42
146.29
143.27
140.76
138.92
137.79
137.10
136.07
133.23
126.83
115.38
98.43
76.95
53.20
30.20
10.98
-1.93
-7.06
-4.35
4.37
15.46
24.02
25.39
16.86
-0.92
-23.88
-46.06
-62.10
-69.49
-69.46
-66.09
-64.08
-66.53
-73.71
-83.59
-93.27
-100.70
-105.48
-108.50
-111.07
-113.89
-116.79
-119.13
-120.57
-121.46
-122.75
-125.38
-129.50
-134.20
-137.68
-137.92
-133.47
-124.05
-110.59
-94.87
-78.86
-64.09
-51.36
-40.73
-31.94
-24.72
-18.94
-14.66
-11.95
-10.84
-11.24
-12.88
-15.22
-17.39
-18.31
-17.04
-13.20
-7.30
-0.69
4.87
7.90
7.80
4.96
0.42
-4.66
-9.56
-14.15
-18.81
-24.12
-30.58
-38.42
-47.43
-57.01
-66.15
-73.66
-78.38
-79.42
-76.47
-69.86
-60.52
-49.83
-39.14
-29.59
-21.76
-15.76
-11.28
-7.91
-5.31
-3.23
-1.50
0.15
2.06
4.65
8.18
12.64
17.74
22.86
27.38
30.67
32.40
32.64
31.89
31.03
31.09
32.70
35.80
39.52
42.30
42.56
39.16
31.70
20.63
7.03
-7.57
-21.38
-32.59
-39.54
-41.07
-36.91
-27.79
-15.39
-1.78
11.13
22.16
31.04
38.14
44.02
49.04
53.12
55.93
57.23
57.18
56.43
55.94
56.52
58.61
62.05
66.25
70.51
74.21
77.04
78.89
79.71
79.42
77.95
75.33
71.79
67.69
63.42
59.24
55.22
51.35
47.55
43.83
40.16
36.40
32.20
27.06
20.61
12.80
4.05
-4.91
-13.17
-19.95
-24.74
-27.26
-27.47
-25.44
-21.42
-15.80
-9.14
-2.17
4.33
9.79
13.93
16.78
18.62
19.65
20.00
19.70
18.86
17.62
16.30
15.09
13.92
12.41
9.92
6.06
0.85
-5.26
-11.60
-17.69
-23.48
-29.27
-35.38
-41.87
-48.33
-53.98
-58.00
-59.68
-58.62
-54.74
-48.25
-39.68
-29.87
-19.80
-10.53
-2.92
2.50
5.62
6.60
5.80
3.65
0.47
-3.38
-7.48
-11.34
-14.40
-16.34
-17.31
-17.98
-19.34
-22.41
-27.79
-35.49
-45.08
-55.92
-67.52
-79.64
-92.22
-105.15
-118.09
-130.66
-142.65
-154.19
-165.65
-177.35
-189.13
-200.21
-209.21
-214.46
-214.59
-209.10
-198.96
-186.47
-174.59
-165.43
-159.03
-152.81
-142.30
-122.95
-92.00
-49.42
2.53
60.39
120.32
177.80
227.04
261.27
274.64
265.07
236.42
197.92
160.65
132.89
116.95
109.26
103.62
95.27
83.34
70.34
59.35
51.37
44.30
34.44
19.09
-1.39
-23.34
-41.26
-50.28
-48.27
-36.51
-18.99
-0.62
14.82
26.00
34.41
43.78
58.74
83.35
119.91
168.23
225.49
286.56
344.86
393.57
427.03
441.86
437.64
416.67
382.99
341.15
295.02
247.31
199.60
152.93
108.16
66.05
27.22
-8.08
-39.85
-68.15
-92.71
-113.04
-128.81
-140.38
-148.97
-156.29
-163.89
-172.46
-181.50
-189.76
-195.93
-199.27
-199.85
-198.34
-195.62
-192.35
-188.81
-185.02
-180.87
-176.20
-170.83
-164.55
-157.21
-148.73
-139.23
-128.88
-117.74
-105.65
-92.28
-77.31
-60.88
-43.74
-27.14
-12.47
-0.67
8.02
14.04
18.14
20.80
22.01
21.26
18.01
11.96
3.30
-7.34
-19.05
-30.79
-41.28
-48.78
-51.10
-46.01
-31.99
-9.07
20.76
53.81
85.53
111.62
128.87
135.56
131.43
117.47
95.74
69.00
40.39
12.77
-11.88
-32.84
-50.54
-66.05
-80.29
-93.46
-104.81
-113.02
-116.77
-115.40
-109.23
-99.43
-87.33
-73.65
-57.99
-38.89
-14.58
16.14
52.95
93.86
135.61
174.57
207.64
232.82
249.30
257.31
258.03
253.50
246.53
240.21
236.96
237.46
240.06
240.97
235.62
220.55
194.90
160.85
122.75
85.29
51.85
23.66
0.22
-19.79
-37.41
-52.96
-66.25
-77.08
-85.75
-93.02
-99.76
-106.45
-112.85
-118.05
-120.90
-120.53
-116.79
-110.37
-102.52
-94.65
-88.04
-83.52
-81.38
-81.37
-82.67
-84.09
-84.38
-82.59
-78.51
-72.78
-66.80
-62.27
-60.68
-62.85
-68.64
-76.94
-85.85
-92.96
-95.86
-92.55
-82.05
-64.56
-41.68
-15.89
9.93
33.16
51.87
65.01
72.10
72.78
66.38
51.91
28.45
-4.11
-44.42
-89.62
-135.93
-179.92
-219.74
-255.67
-289.53
-323.12
-356.49
-387.02
-409.86
-419.61
-412.37
-387.08
-345.38
-290.52
-226.01
-155.16
-81.32
-8.62
58.07
114.12
156.69
185.95
204.96
218.28
230.02
242.27
254.60
264.79
270.03
268.29
259.07
243.59
224.39
204.51
186.64
172.32
161.60
153.20
145.15
135.32
121.95
103.91
80.96
53.90
24.65
-3.85
-28.26
-45.56
-53.70
-52.14
-41.84
-24.95
-4.48
16.34
34.60
48.33
56.90
61.10
62.67
63.68
65.72
69.50
74.88
81.09
87.09
91.81
94.26
93.64
89.56
82.30
73.02
63.65
56.38
52.85
53.11
55.22
55.33
49.00
32.74
5.82
-28.93
-65.74
-97.67
-119.07
-127.58
-124.76
-115.32
-105.20
-99.51
-101.16
-110.27
-124.49
-139.62
-150.54
-152.02
-139.63
-110.75
-65.45
-7.02
58.20
121.97
175.99
214.04
233.48
235.70
225.11
207.37
187.49
168.72
152.53
139.39
129.62
123.93
123.15
127.76
137.52
151.53
168.72
188.35
210.09
233.65
258.20
281.83
301.57
314.08
316.61
307.95
289.01
262.41
231.65
199.97
169.40
140.47
112.39
83.70
52.77
18.21
-20.75
-63.86
-109.43
-154.18
-193.61
-222.97
-238.89
-240.64
-230.65
-213.75
-195.61
-181.12
-173.33
-173.35
-180.82
-194.47
-212.51
-232.65
-252.26
-268.80
-280.34
-286.11
-286.65
-283.50
-278.49
-272.98
-267.34
-260.85
-252.03
-239.13
-220.75
-196.32
-166.36
-132.25
-95.91
-59.41
-24.70
6.41
32.18
50.92
61.18
62.22
54.56
40.35
23.24
7.61
-2.76
-5.89
-2.52
4.29
10.40
12.23
8.09
-1.56
-14.85
-29.52
-43.71
-56.13
-65.88
-72.24
-74.66
-72.85
-66.88
-56.86
-42.68
-23.70
0.70
30.48
64.19
98.85
130.71
156.34
173.77
182.73
184.46
180.99
174.48
166.78
159.39
153.37
149.35
147.40
146.94
146.87
145.85
142.69
136.81
128.33
118.23
107.97
99.15
92.79
88.70
85.21
79.55
68.76
50.84
25.63
-4.96
-37.53
-68.26
-93.95
-112.77
-124.44
-130.06
-131.46
-130.55
-128.63
-126.00
-122.14
-116.20
-107.71
-97.03
-85.30
-74.10
-64.74
-57.93
-53.68
-51.49
-50.62
-50.13
-49.11
-46.64
-42.07
-35.25
-26.59
-16.95
-7.36
1.33
8.54
14.19
18.71
23.25
29.49
38.97
52.26
67.99
82.77
92.02
91.57
79.26
55.67
23.82
-12.06
-47.77
-79.98
-106.34
-125.34
-136.08
-138.47
-133.45
-123.01
-109.77
-96.04
-83.16
-71.20
-59.42
-47.04
-33.92
-20.81
-8.98
0.48
7.24
11.77
14.99
17.63
19.75
20.85
20.37
18.19
14.87
11.41
8.69
7.18
6.89
7.53
8.77
10.33
11.94
13.26
14.00
14.03
13.53
13.05
13.21
14.49
17.03
20.60
24.80
29.17
33.27
36.70
38.97
39.59
38.17
34.63
29.28
22.77
16.07
10.03
5.08
1.08
-2.63
-6.82
-11.86
-17.52
-23.07
-27.58
-30.35
-30.92
-28.97
-23.91
-14.74
-0.19
20.78
48.32
81.28
117.23
153.09
185.95
213.75
235.49
251.04
260.58
264.31
262.33
254.94
242.88
227.43
210.07
192.11
174.24
156.51
138.67
120.56
102.30
84.38
67.43
51.90
38.01
25.62
14.21
2.96
-9.20
-23.39
-40.55
-61.45
-86.68
-116.67
-151.60
-191.13
-234.10
-278.27
-320.38
-356.62
-383.49
-398.77
-402.11
-395.10
-380.83
-363.07
-345.45
-330.89
-321.24
-317.19
-318.19
-322.39
-326.97
-328.44
-323.58
-310.50
-289.62
-263.99
-238.57
-218.65
-207.66
-205.91
-210.07
-214.47
-213.10
-201.67
-178.53
-144.33
-101.06
-51.37
1.33
52.52
96.58
128.29
144.85
147.65
142.21
136.04
135.42
142.61
155.13
167.35
173.39
169.80
156.75
137.49
116.56
97.87
83.61
74.17
68.83
66.94
68.64
74.98
87.10
104.98
126.84
149.36
169.07
183.93
194.11
201.67
209.16
218.10
228.10
237.28
243.38
244.89
241.56
234.08
223.33
209.76
193.44
174.22
152.14
127.20
99.17
67.66
32.89
-3.27
-36.62
-61.14
-70.91
-62.42
-36.57
1.14
42.21
77.78
101.02
108.35
99.28
75.57
40.45
-1.80
-45.98
-86.30
-117.20
-134.42
-136.03
-122.97
-98.97
-69.69
-41.40
-19.67
-8.09
-7.83
-17.60
-34.37
-54.39
-74.07
-90.46
-101.28
-104.72
-99.30
-84.19
-59.52
-26.78
11.11
50.23
86.47
116.55
138.70
153.00
161.07
165.21
167.48
168.97
169.59
168.34
163.91
155.25
142.09
125.10
105.65
85.48
66.32
49.36
34.81
21.83
8.76
-6.29
-24.89
-47.84
-75.00
-105.43
-137.60
-169.66
-199.69
-226.00
-247.10
-261.67
-268.20
-265.00
-250.56
-224.48
-188.38
-146.31
-104.07
-67.68
-41.45
-26.79
-22.35
-25.11
-32.13
-41.38
-51.97
-63.56
-75.62
-87.12
-96.65
-102.70
-104.03
-99.94
-90.48
-76.49
-59.36
-40.52
-21.05
-1.41
18.23
37.62
55.91
71.73
83.58
90.32
91.32
86.34
75.28
58.02
34.90
7.10
-23.17
-53.11
-80.11
-102.57
-120.06
-132.93
-141.90
-147.76
-151.73
-155.80
-162.68
-174.91
-193.60
-217.17
-241.43
-260.82
-270.46
-268.21
-255.43
-236.20
-215.54
-197.48
-184.08
-175.48
-170.57
-167.69
-164.95
-160.06
-150.57
-134.30
-110.00
-77.87
-39.41
3.43
49.17
97.16
147.25
198.97
250.72
299.46
341.04
370.99
385.56
382.70
362.73
328.57
285.38
239.45
196.79
161.60
135.53
117.86
106.43
98.98
93.91
90.74
89.86
92.20
99.01
111.97
132.94
163.67
204.88
255.40
311.62
367.76
417.05
453.30
472.42
473.23
457.34
428.43
391.01
349.39
307.05
266.30
228.48
194.12
163.13
134.88
108.21
81.39
52.36
19.28
-18.77
-60.96
-104.61
-145.51
-178.84
-200.54
-208.60
-203.67
-188.95
-169.32
-149.87
-134.58
-125.48
-122.62
-124.73
-130.08
-137.16
-144.84
-152.17
-158.14
-161.78
-162.44
-160.25
-156.20
-151.76
-148.21
-146.06
-144.89
-143.68
-141.23
-136.51
-128.83
-117.84
-103.54
-86.55
-68.15
-50.12
-34.17
-21.34
-11.60
-4.02
2.64
9.27
15.94
22.05
26.73
29.48
30.46
30.52
30.67
31.61
33.38
35.38
36.80
37.21
37.02
37.49
40.25
46.42
55.86
66.84
76.47
81.61
80.14
71.73
57.99
41.97
27.01
15.68
9.07
6.53
6.25
5.75
2.50
-5.47
-19.07
-37.49
-58.08
-76.63
-88.70
-91.38
-84.69
-71.96
-58.63
-50.00
-49.21
-56.24
-68.51
-82.41
-94.94
-104.52
-110.93
-114.53
-115.84
-115.35
-113.68
-111.65
-109.82
-107.79
-103.66
-94.09
-75.21
-44.10
-0.05
54.77
115.68
176.60
231.44
275.28
305.09
319.71
319.60
306.45
282.77
251.47
215.44
176.86
136.79
94.93
50.25
2.10
-48.47
-97.98
-141.01
-171.85
-186.55
-184.53
-168.72
-144.46
-117.37
-91.64
-69.10
-49.50
-31.47
-13.69
4.49
22.98
41.16
58.23
73.16
84.57
90.89
90.68
83.50
70.45
54.17
38.16
25.30
16.70
11.06
5.33
-3.92
-18.99
-40.18
-65.85
-93.25
-119.58
-142.64
-160.96
-173.79
-180.85
-182.38
-179.17
-172.49
-163.83
-154.46
-145.18
-136.22
-127.48
-119.05
-111.32
-104.97
-100.57
-98.30
-97.86
-98.52
-99.56
-100.45
-101.10
-101.76
-102.76
-104.31
-106.16
-107.74
-108.45
-108.24
-107.84
-108.46
-111.16
-115.92
-121.39
-125.32
-125.57
-121.12
-112.47
-101.13
-88.63
-75.70
-61.89
-46.06
-26.98
-4.01
22.79
52.58
84.33
117.09
150.19
183.15
215.21
245.11
270.89
290.36
301.77
304.52
299.47
288.51
273.99
257.95
241.65
225.77
210.44
195.39
179.68
161.59
138.91
109.89
74.46
34.92
-4.29
-38.01
-62.18
-75.49
-80.04
-80.61
-83.00
-92.35
-111.76
-141.82
-180.88
-225.57
-271.91
-316.03
-354.87
-386.38
-409.34
-422.88
-426.16
-418.43
-399.53
-370.62
-334.68
-296.10
-259.68
-229.30
-207.00
-192.79
-185.29
-182.52
-182.61
-183.96
-184.94
-183.82
-178.69
-167.89
-150.68
-127.67
-100.69
-72.32
-44.93
-19.98
2.19
22.11
40.59
58.20
74.99
90.54
104.23
115.73
125.34
134.01
143.23
154.78
170.22
190.47
215.30
242.82
269.48
290.46
300.86
297.41
279.95
252.17
220.58
192.45
173.18
164.52
164.53
169.24
174.95
179.83
183.98
188.11
192.18
194.76
193.70
187.57
176.68
163.23
150.07
139.25
131.20
124.80
118.45
111.25
103.42
96.09
90.32
86.20
82.75
78.29
71.35
61.35
48.90
35.47
22.65
11.59
2.83
-3.51
-7.34
-8.37
-6.29
-1.09
6.72
16.15
26.13
36.08
46.14
56.80
68.45
80.70
92.46
102.35
109.66
114.72
118.85
123.48
129.06
134.48
137.43
135.65
128.27
116.57
103.34
91.37
81.85
73.66
64.10
50.41
31.50
8.51
-15.71
-37.84
-55.51
-67.69
-74.60
-76.90
-75.05
-69.29
-59.97
-48.06
-35.31
-23.82
-15.34
-10.56
-8.75
-8.09
-6.43
-2.24
4.85
14.04
23.84
32.78
39.71
43.90
44.98
42.87
37.96
31.29
24.45
19.14
16.67
17.67
22.09
29.65
39.91
52.38
66.15
79.58
90.37
96.14
95.21
87.35
73.95
57.55
40.97
26.55
15.46
7.83
2.88
-0.61
-3.96
-8.28
-14.28
-21.92
-30.00
-36.26
-38.16
-33.97
-24.16
-11.76
-1.56
1.49
-6.09
-25.40
-55.16
-92.31
-132.43
-170.20
-199.89
-216.52
-217.30
-202.95
-177.76
-148.21
-120.56
-98.66
-83.16
-72.34
-63.86
-56.18
-49.10
-43.27
-39.19
-36.62
-34.61
-32.23
-29.04
-25.41
-22.41
-21.05
-21.78
-24.24
-27.63
-31.20
-34.86
-39.16
-44.81
-51.94
-59.44
-65.11
-66.49
-61.94
-51.45
-36.76
-20.65
-5.82
6.05
14.75
21.22
26.86
32.67
38.82
44.72
49.48
52.46
53.67
53.71
53.42
53.40
53.68
53.70
52.80
50.61
47.45
44.16
41.66
40.45
40.25
40.02
38.49
34.67
28.36
20.38
12.39
6.48
4.52
7.63
15.75
27.67
41.38
54.75
66.19
75.07
81.72
87.00
91.81
96.53
100.88
103.99
104.99
103.53
100.17
96.23
93.33
92.63
94.22
97.05
99.08
98.04
92.14
80.65
64.26
45.08
26.31
11.54
3.56
3.08
7.97
13.53
13.88
4.05
-18.10
-51.03
-90.30
-130.04
-165.02
-191.91
-209.58
-218.53
-219.86
-214.44
-202.78
-185.25
-162.70
-136.73
-109.60
-83.62
-60.45
-40.63
-23.72
-9.00
3.75
13.95
20.48
22.58
20.72
16.79
13.48
13.15
16.76
23.63
31.87
39.44
45.06
48.59
50.66
52.14
53.46
54.66
55.56
56.04
56.10
55.85
55.22
53.89
51.45
47.61
42.37
36.10
29.40
22.87
16.94
11.92
7.89
4.86
2.63
0.91
-0.86
-3.27
-6.93
-12.15
-18.77
-26.25
-33.81
-40.81
-46.97
-52.25
-56.67
-60.08
-62.18
-62.86
-62.40
-61.53
-61.22
-62.10
-64.16
-66.72
-68.83
-69.73
-69.20
-67.52
-65.20
-62.70
-60.22
-57.74
-55.01
-51.74
-47.65
-42.62
-36.76
-30.41
-24.09
-18.30
-13.42
-9.70
-7.18
-5.81
-5.44
-5.84
-6.69
-7.75
-8.71
-9.41
-9.80
-9.92
-9.86
-9.84
-10.10
-10.95
-12.52
-14.71
-17.21
-19.64
-21.82
-23.75
-25.68
-27.92
-30.69
-34.03
-37.88
-42.18
-46.86
-51.75
-56.51
-60.61
-63.54
-65.15
-65.86
-66.62
-68.54
-72.37
-77.98
-84.36
-90.02
-93.62
-94.70
-93.91
-92.90
-93.74
-98.21
-107.11
-120.02
-135.49
-151.45
-165.92
-177.72
-186.70
-193.80
-200.58
-208.61
-218.78
-230.85
-243.38
-253.94
-259.76
-258.55
-249.25
-232.53
-210.69
-186.87
-163.81
-142.81
-123.28
-103.19
-80.09
-52.21
-19.14
18.13
57.57
96.63
132.64
163.05
185.96
200.61
207.75
209.50
208.80
208.23
209.12
211.23
213.11
213.10
210.31
205.16
199.11
193.91
190.60
188.84
187.07
183.17
175.44
163.38
147.91
130.87
114.35
99.94
88.50
80.18
74.62
71.27
69.48
68.51
67.65
66.23
63.77
60.15
55.76
51.18
47.09
43.76
40.71
36.90
31.17
23.02
13.23
3.76
-2.91
-4.82
-1.36
6.52
16.83
27.37
36.40
43.03
47.04
48.62
48.02
45.39
40.83
34.50
26.87
18.88
11.89
7.35
6.46
9.69
16.52
25.62
35.19
43.53
49.40
52.32
52.45
50.33
46.63
41.83
36.15
29.71
22.70
15.56
8.91
3.27
-1.28
-5.33
-10.10
-16.90
-26.65
-39.27
-53.56
-67.55
-79.00
-85.93
-86.85
-80.77
-67.23
-46.54
-20.02
9.98
40.27
67.57
89.21
103.75
111.02
111.85
107.52
99.44
88.94
77.30
65.71
55.11
46.07
38.71
32.82
28.07
24.11
20.66
17.52
14.74
12.48
10.95
10.20
9.96
9.60
8.39
5.78
1.79
-3.13
-8.24
-13.00
-17.23
-21.13
-25.10
-29.50
-34.65
-40.77
-47.99
-56.14
-64.59
-72.24
-77.76
-80.06
-78.68
-73.94
-66.78
-58.27
-49.26
-40.22
-31.34
-22.77
-14.74
-7.58
-1.58
3.10
6.47
8.71
9.97
10.34
9.92
8.67
6.60
3.68
0.04
-4.13
-8.55
-12.95
-17.14
-21.03
-24.62
-27.88
-30.65
-32.70
-33.94
-34.60
-35.28
-36.81
-39.70
-43.81
-48.15
-51.19
-51.42
-47.89
-40.52
-30.04
-17.59
-4.45
8.19
19.39
28.46
35.08
39.34
41.75
42.92
43.33
43.17
42.33
40.77
38.68
36.53
34.89
34.11
34.13
34.52
34.61
33.75
31.58
28.02
23.32
17.93
12.30
6.84
1.69
-3.25
-8.43
-14.39
-21.65
-30.27
-39.73
-48.92
-56.35
-60.59
-60.71
-56.52
-48.66
-38.34
-26.91
-15.51
-4.79
5.00
13.89
21.88
28.80
34.37
38.36
40.81
42.04
42.58
42.86
42.91
42.28
40.24
36.14
29.83
21.78
13.03
4.80
-1.94
-6.75
-9.86
-11.90
-13.75
-16.19
-19.79
-24.69
-30.55
-36.55
-41.49
-44.15
-43.75
-40.36
-35.03
-29.34
-24.75
-21.86
-20.19
-18.36
-14.98
-9.34
-1.76
6.71
14.78
21.66
27.14
31.41
34.74
37.08
38.11
37.47
34.99
30.89
25.66
19.92
14.15
8.62
3.25
-2.20
-8.13
-14.90
-22.74
-31.51
-40.61
-49.00
-55.48
-59.00
-59.08
-55.97
-50.60
-44.22
-37.99
-32.62
-28.26
-24.54
-20.95
-17.08
-12.80
-8.22
-3.59
0.69
4.22
6.58
7.44
6.73
4.78
2.24
-0.07
-1.58
-2.16
-2.19
-2.31
-3.02
-4.45
-6.23
-7.77
-8.64
-8.75
-8.47
-8.44
-9.36
-11.71
-15.62
-20.67
-25.67
-28.73
-27.66
-20.65
-7.22
11.39
32.41
52.49
68.99
80.82
88.63
94.11
99.02
104.28
109.75
114.42
116.85
115.70
109.97
99.36
84.39
66.39
47.36
29.36
13.98
2.05
-6.36
-11.38
-12.96
-10.62
-3.74
7.80
22.99
39.51
54.20
63.99
67.06
63.53
55.36
45.54
36.92
31.17
28.37
27.40
26.79
25.51
23.35
20.74
18.28
16.26
14.48
12.64
10.70
9.25
9.42
12.36
18.66
27.85
38.48
48.56
56.41
61.11
62.73
62.03
60.00
57.45
54.86
52.42
50.27
48.49
47.19
46.30
45.58
44.70
43.31
41.17
38.20
34.32
29.38
23.20
15.61
6.60
-3.49
-14.05
-24.27
-33.28
-40.30
-44.84
-46.67
-45.89
-42.90
-38.29
-32.69
-26.66
-20.58
-14.68
-9.18
-4.45
-0.96
0.90
1.10
0.01
-1.61
-3.02
-3.87
-4.36
-5.14
-6.95
-10.20
-14.70
-19.84
-24.89
-29.30
-33.03
-36.52
-40.43
-45.58
-52.57
-61.71
-72.94
-85.65
-98.72
-110.65
-119.88
-125.15
-125.95
-122.56
-116.01
-107.73
-99.16
-91.44
-85.11
-80.13
-75.91
-71.61
-66.46
-60.08
-52.58
-44.50
-36.57
-29.35
-23.15
-17.88
-13.21
-8.69
-3.86
1.69
8.35
16.32
25.53
35.43
45.07
53.44
59.93
64.78
68.97
73.68
79.38
85.18
88.80
87.46
79.28
64.38
45.21
25.83
10.63
3.09
5.06
16.52
35.83
59.76
83.72
102.28
110.14
103.56
81.74
47.36
5.82
-36.49
-74.17
-104.00
-125.07
-137.88
-143.42
-142.66
-136.72
-127.17
-116.12
-105.71
-97.42
-91.59
-87.52
-84.20
-80.92
-77.77
-75.34
-74.30
-75.14
-78.05
-83.10
-90.27
-99.50
-110.64
-123.63
-138.73
-156.63
-178.05
-203.06
-230.39
-257.34
-280.67
-297.90
-308.52
-313.94
-316.40
-317.30
-316.00
-309.81
-295.31
-270.23
-234.55
-190.66
-142.12
-91.88
-41.18
10.49
63.86
118.29
170.84
217.01
252.78
276.71
290.96
300.36
310.07
323.29
340.15
358.50
375.87
391.20
405.03
418.28
430.20
437.27
434.16
416.57
384.47
343.64
304.23
276.71
267.04
273.63
288.04
298.95
297.46
280.59
251.44
216.19
180.20
145.76
112.61
80.34
50.61
27.45
15.48
16.99
30.04
48.75
65.56
74.37
72.94
63.37
50.58
39.60
33.32
31.31
30.49
26.73
16.73
-1.28
-27.79
-62.51
-104.12
-149.23
-191.73
-223.76
-238.69
-234.82
-217.21
-196.22
-182.95
-184.07
-199.36
-223.08
-248.19
-270.51
-289.76
-307.35
-322.80
-331.83
-327.81
-305.60
-265.25
-213.06
-159.12
-113.24
-81.20
-63.61
-57.43
-58.94
-66.01
-78.59
-97.12
-120.45
-144.54
-162.96
-169.09
-158.62
-131.10
-89.82
-40.14
12.48
63.87
111.46
153.80
189.73
218.09
237.68
247.48
246.86
235.58
213.62
181.17
138.74
87.37
28.86
-33.96
-97.01
-154.99
-201.70
-231.07
-238.55
-222.73
-186.27
-135.66
-79.38
-25.19
22.38
63.00
99.30
134.44
169.54
202.69
230.17
248.86
258.44
262.01
264.64
270.72
281.72
295.51
307.63
313.54
310.74
299.55
282.52
262.96
243.24
224.15
205.03
184.80
163.15
141.05
120.36
102.77
88.76
77.14
65.51
51.19
32.21
7.89
-21.10
-52.80
-84.30
-112.26
-133.63
-146.51
-150.87
-148.45
-142.07
-134.47
-127.27
-120.77
-114.33
-107.33
-99.82
-92.48
-85.95
-80.22
-74.36
-67.05
-57.48
-45.94
-33.85
-23.10
-15.17
-10.35
-7.67
-5.19
-0.74
7.44
20.19
37.13
56.46
75.11
89.27
95.26
90.70
75.27
50.67
19.82
-14.45
-50.21
-86.39
-122.26
-156.53
-187.22
-212.11
-229.77
-240.22
-244.98
-246.23
-246.04
-245.90
-246.73
-249.36
-254.64
-263.21
-274.98
-288.71
-302.22
-312.94
-318.83
-318.88
-313.15
-302.37
-287.38
-268.83
-247.22
-223.27
-198.15
-173.48
-150.89
-131.50
-115.47
-102.03
-89.83
-77.63
-64.77
-51.38
-37.98
-24.89
-11.80
2.59
20.25
43.44
73.87
111.81
155.41
200.55
241.53
272.67
290.07
293.10
284.60
269.82
254.59
243.03
236.12
231.51
224.51
209.92
183.98
145.59
96.76
41.87
-13.47
-63.93
-105.48
-136.14
-155.74
-165.65
-168.15
-165.86
-161.32
-156.32
-151.61
-146.91
-141.43
-134.55
-126.47
-118.37
-112.05
-109.16
-110.72
-116.71
-126.34
-138.48
-151.81
-165.07
-176.89
-185.88
-191.02
-192.10
-190.07
-186.96
-185.21
-186.85
-192.73
-202.11
-212.82
-221.88
-226.36
-224.27
-214.94
-199.12
-178.61
-155.55
-131.70
-108.07
-84.97
-62.23
-39.57
-16.85
5.98
29.09
52.71
77.14
102.13
126.75
149.41
168.15
181.42
188.60
190.02
186.62
179.30
168.54
154.49
137.41
118.09
98.06
79.23
63.36
51.50
43.66
38.96
35.98
33.40
30.31
26.53
22.46
18.78
15.93
14.03
12.71
11.47
9.92
8.06
6.18
4.54
2.99
0.91
-2.61
-8.35
-16.51
-26.48
-36.90
-46.07
-52.37
-54.57
-51.90
-43.94
-30.37
-11.23
12.89
40.50
69.20
96.22
119.20
136.96
149.62
158.18
163.80
167.18
168.49
167.76
165.37
162.13
158.86
155.61
151.22
143.62
130.66
111.17
85.56
55.63
23.77
-7.72
-36.87
-61.87
-80.78
-91.81
-94.04
-88.23
-77.05
-64.24
-53.15
-45.32
-40.07
-35.12
-28.07
-17.64
-4.25
10.40
24.22
35.67
44.23
50.28
54.70
58.31
61.52
64.16
65.69
65.53
63.43
59.73
55.38
51.67
49.78
50.24
52.68
55.78
57.63
56.28
50.45
40.15
26.78
12.93
1.56
-4.77
-4.73
1.65
13.03
27.36
42.48
56.55
68.51
78.14
86.22
94.17
103.54
115.20
128.55
141.22
149.70
150.80
143.38
129.34
113.22
100.39
94.69
96.80
104.04
111.75
115.29
111.69
100.22
81.85
58.50
32.47
6.46
-16.29
-32.31
-38.70
-34.24
-20.13
0.19
22.19
41.70
56.23
65.47
70.93
74.91
79.47
85.66
93.28
101.00
106.61
107.56
101.58
87.64
66.81
42.78
21.32
8.56
8.58
21.42
42.58
64.47
79.34
82.06
71.66
51.07
25.36
-0.15
-21.25
-35.11
-39.96
-35.00
-20.46
1.84
28.64
55.99
80.63
101.21
118.50
134.50
150.78
167.02
180.82
188.51
186.91
174.80
153.44
126.05
96.42
67.73
41.84
19.37
0.17
-16.37
-31.07
-45.04
-59.68
-76.41
-96.13
-118.61
-142.22
-164.09
-180.86
-189.95
-190.50
-183.85
-173.09
-161.82
-152.74
-146.58
-142.05
-136.66
-128.16
-115.64
-99.84
-82.63
-65.88
-50.51
-36.14
-21.55
-5.45
12.66
32.27
52.17
71.10
88.17
103.12
115.97
126.76
135.37
141.67
146.00
149.23
152.63
157.14
162.58
167.40
168.94
164.63
153.11
134.98
112.66
89.55
68.80
52.34
40.50
32.16
25.29
17.63
7.33
-6.63
-24.05
-43.53
-62.79
-79.22
-90.63
-95.80
-94.68
-88.20
-77.88
-65.38
-52.22
-39.59
-28.26
-18.52
-10.18
-2.61
5.02
13.31
22.41
31.71
39.99
45.89
48.36
47.13
42.73
36.23
28.72
20.89
12.83
4.05
-6.08
-18.19
-32.44
-48.54
-65.64
-82.42
-97.25
-108.39
-114.38
-114.50
-109.31
-100.90
-92.64
-88.38
-91.22
-102.26
-119.90
-140.16
-157.96
-168.76
-169.98
-161.45
-144.92
-123.12
-98.66
-73.58
-49.40
-27.24
-8.06
7.49
19.39
28.26
35.14
41.03
46.41
51.05
54.26
55.29
53.76
49.87
44.31
37.99
31.68
25.86
20.68
16.01
11.64
7.42
3.37
-0.38
-3.64
-6.28
-8.44
-10.50
-13.03
-16.63
-21.63
-27.86
-34.61
-40.66
-44.62
-45.32
-42.15
-35.33
-25.86
-15.26
-5.10
3.45
9.94
14.52
17.77
20.37
22.82
25.39
28.19
31.26
34.63
38.34
42.39
46.66
51.01
55.15
58.79
61.61
63.36
63.83
62.92
60.65
57.08
52.33
46.51
39.78
32.32
24.36
16.00
7.10
-2.59
-13.33
-24.95
-36.64
-46.97
-54.33
-57.51
-56.22
-51.18
-43.67
-34.99
-25.91
-16.55
-6.68
3.71
14.20
23.93
32.06
38.25
42.86
46.82
51.20
56.72
63.48
70.94
78.23
84.47
89.13
92.11
93.72
94.53
95.13
95.98
97.24
98.79
100.34
101.65
102.65
103.52
104.54
105.93
107.71
109.63
111.15
111.53
109.74
104.60
94.87
79.61
58.44
31.81
0.83
-33.11
-68.98
-106.27
-144.92
-184.63
-224.29
-261.76
-294.28
-319.39
-335.75
-343.64
-344.70
-341.08
-334.48
-325.60
-314.07
-298.94
-279.43
-255.48
-227.96
-198.50
-169.03
-141.42
-117.17
-97.31
-82.43
-72.64
-67.46
-65.77
-65.91
-66.12
-65.09
-62.49
-59.03
-56.08
-54.91
-55.89
-58.12
-59.76
-58.64
-53.18
-42.92
-28.68
-12.14
4.77
20.53
34.31
45.85
55.18
62.24
66.84
68.89
68.70
67.13
65.43
64.80
65.87
68.41
71.50
73.98
75.09
74.70
73.29
71.61
70.20
69.16
68.07
66.13
62.46
56.32
47.35
35.71
22.23
8.39
-3.93
-12.86
-17.05
-16.17
-11.04
-3.29
5.07
12.37
17.57
20.44
21.27
20.68
19.20
17.18
14.62
11.30
6.93
1.49
-4.52
-10.06
-13.86
-15.17
-14.16
-12.03
-10.56
-11.11
-14.06
-18.56
-23.20
-26.80
-29.04
-30.58
-32.54
-35.95
-41.23
-48.19
-56.18
-64.30
-71.49
-76.52
-78.11
-75.14
-67.12
-54.43
-38.34
-20.77
-3.75
11.10
22.84
31.33
36.97
40.43
42.37
43.29
43.52
43.27
42.68
41.89
40.94
39.82
38.43
36.68
34.52
31.96
29.08
25.87
22.28
18.21
13.62
8.59
3.21
-2.60
-9.20
-17.08
-26.51
-37.01
-47.17
-54.90
-58.10
-55.49
-47.18
-34.61
-19.97
-5.46
7.34
17.68
25.49
31.04
34.70
36.88
37.96
38.37
38.50
38.70
39.27
40.33
41.82
43.48
44.81
45.23
44.24
41.69
37.82
33.16
28.35
23.83
19.66
15.58
11.07
5.58
-1.32
-9.77
-19.60
-30.17
-40.45
-49.11
-54.74
-56.20
-52.94
-45.27
-34.31
-21.84
-9.72
0.61
8.44
13.94
17.84
20.95
23.79
26.39
28.41
29.47
29.40
28.32
26.55
24.37
21.84
18.76
14.91
10.17
4.78
-0.80
-5.93
-10.12
-13.29
-15.82
-18.47
-22.10
-27.48
-34.95
-44.33
-54.82
-64.99
-73.11
-77.45
-76.76
-70.74
-60.02
-46.07
-30.64
-15.26
-0.97
11.69
22.59
31.70
39.00
44.52
48.46
51.21
53.34
55.43
57.88
60.76
63.78
66.36
67.74
67.27
64.57
59.79
53.59
46.92
40.71
35.53
31.35
27.70
23.89
19.27
13.42
6.16
-2.44
-12.00
-21.68
-30.17
-35.83
-37.18
-33.47
-24.99
-13.09
0.34
13.47
24.90
33.98
40.56
44.82
47.03
47.58
47.02
46.03
45.32
45.38
46.39
48.14
50.06
51.45
51.73
50.58
47.93
43.94
38.79
32.68
25.74
18.20
10.40
2.76
-4.36
-10.76
-16.46
-21.72
-26.91
-32.46
-38.80
-46.29
-55.23
-65.58
-76.83
-87.78
-96.80
-102.13
-102.55
-97.79
-88.57
-76.41
-63.12
-50.34
-39.30
-30.76
-24.98
-21.76
-20.37
-19.58
-17.93
-14.10
-7.36
2.16
13.60
25.77
37.48
47.93
56.66
63.48
68.34
71.26
72.38
72.00
70.51
68.28
65.46
61.95
57.42
51.45
43.71
34.18
23.27
11.88
1.32
-6.98
-11.91
-13.07
-10.97
-6.93
-2.66
0.39
1.47
0.70
-1.17
-3.13
-4.46
-4.88
-4.48
-3.51
-2.14
-0.39
1.75
4.11
6.24
7.63
8.00
7.64
7.33
8.09
10.69
15.28
21.32
27.87
33.99
38.98
42.50
44.39
44.54
42.75
38.90
33.17
26.29
19.55
14.69
13.40
16.79
24.91
36.55
49.49
61.12
69.17
72.40
70.75
65.25
57.48
48.99
40.83
33.46
26.80
20.58
14.57
8.81
3.52
-1.07
-4.81
-7.71
-9.90
-11.53
-12.71
-13.69
-14.90
-17.07
-21.03
-27.53
-36.89
-48.89
-62.74
-77.36
-91.76
-105.38
-118.19
-130.54
-142.62
-153.95
-163.24
-168.66
-168.61
-162.46
-151.02
-136.34
-121.03
-107.28
-96.29
-88.04
-81.66
-76.05
-70.50
-65.00
-60.15
-56.58
-54.33
-52.47
-49.26
-42.94
-32.71
-19.42
-5.38
6.51
14.10
17.06
16.91
16.26
17.48
21.86
29.46
39.75
52.29
66.74
82.35
97.23
108.52
113.27
110.06
100.12
87.31
76.78
73.03
78.44
92.84
114.21
139.81
166.82
192.49
213.91
227.95
232.01
225.08
208.57
186.36
163.97
146.84
138.62
139.85
147.59
156.27
159.54
152.50
133.78
106.10
75.38
48.19
28.98
18.37
13.44
10.13
6.35
4.16
9.29
28.36
65.03
117.29
177.35
234.31
278.17
303.11
308.69
298.63
278.27
252.28
223.54
193.48
163.03
133.40
106.08
82.16
61.68
43.36
24.89
3.64
-22.56
-54.72
-92.07
-131.74
-169.16
-198.94
-216.57
-219.94
-210.03
-190.22
-164.56
-136.13
-106.52
-76.72
-48.71
-26.58
-15.71
-20.34
-40.70
-71.58
-103.80
-127.90
-138.34
-135.70
-125.79
-115.92
-110.71
-109.83
-108.69
-101.57
-84.91
-58.98
-27.13
6.40
38.60
68.39
95.75
120.40
141.06
155.83
163.27
163.30
157.30
147.45
135.60
122.41
107.09
87.78
62.71
31.76
-2.24
-33.08
-52.45
-52.86
-30.89
10.67
63.15
114.90
155.36
178.51
183.96
175.58
158.65
137.38
113.90
88.87
62.88
37.32
14.21
-4.82
-19.63
-32.06
-45.33
-62.70
-86.08
-115.18
-147.65
-180.20
-210.11
-236.47
-260.77
-286.36
-317.08
-355.58
-401.84
-452.67
-502.27
-543.37
-568.88
-573.39
-554.53
-513.83
-456.70
-391.70
-328.55
-275.90
-238.96
-218.02
-208.84
-204.82
-200.28
-193.15
-185.41
-181.01
-182.50
-188.43
-193.15
-189.46
-172.18
-140.57
-98.18
-50.42
-2.08
43.68
84.32
116.29
134.65
134.91
115.80
80.94
37.96
-4.83
-42.00
-72.74
-99.84
-126.88
-155.18
-182.85
-206.04
-221.33
-227.62
-226.45
-220.67
-212.57
-202.70
-189.90
-172.69
-150.79
-125.90
-101.06
-79.21
-61.62
-47.47
-34.53
-20.66
-5.12
11.05
25.82
37.48
45.68
51.68
57.83
66.56
79.33
96.11
115.40
134.84
152.08
165.53
174.89
180.93
184.97
188.05
190.38
191.19
189.20
183.44
173.93
162.04
150.21
141.26
137.47
139.87
147.92
159.73
172.58
183.84
191.71
195.63
196.26
194.98
193.20
191.59
189.89
187.07
181.97
173.91
163.08
150.38
137.02
123.94
111.61
100.00
88.92
78.32
68.44
59.77
52.79
47.50
43.27
38.88
33.03
24.82
14.24
2.14
-10.21
-21.75
-32.05
