1536845174.00
64.000000
-0.00
-0.00
-0.00
-0.00
-0.00
-0.00
-0.00
-0.00
-0.00
-0.00
0.00
0.01
0.01
-0.00
-0.03
-0.05
-0.05
0.00
0.13
0.36
0.66
1.01
1.37
1.72
2.06
2.40
2.79
3.24
3.80
4.42
5.06
5.66
6.20
6.68
7.15
7.68
8.31
9.14
10.09
11.04
11.88
12.56
13.14
13.76
14.65
15.96
17.91
20.32
22.90
25.38
27.58
29.57
31.68
34.32
37.81
42.54
48.15
54.10
59.83
64.97
69.58
74.14
79.34
85.71
93.76
103.00
112.62
121.73
129.77
136.75
143.30
150.75
157.77
166.64
177.95
191.79
206.97
220.57
228.25
225.36
208.53
176.87
132.76
80.05
23.07
-34.94
-92.44
-149.16
-205.23
-260.37
-313.74
-363.87
-409.83
-450.91
-486.50
-515.74
-537.23
-549.22
-549.96
-538.37
-514.21
-478.67
-433.88
-382.45
-327.02
-269.84
-212.63
-156.66
-102.95
-52.37
-5.90
35.58
71.42
101.35
125.50
144.38
158.70
169.18
176.41
180.78
182.56
181.98
179.33
174.97
169.33
162.82
155.79
148.47
140.96
133.32
125.58
117.80
110.07
102.48
95.11
88.01
81.17
74.56
68.16
61.97
56.04
50.44
45.25
40.49
36.13
32.06
28.17
24.35
20.60
16.99
13.70
10.88
8.61
6.80
5.23
3.65
1.85
-0.23
-2.39
-4.35
-5.80
-6.61
-6.90
-7.05
-7.51
-8.58
-10.32
-12.41
-14.35
-15.72
-16.33
-16.35
-16.19
-16.32
-17.05
-18.56
-20.93
-24.12
-27.73
-30.84
-31.97
-29.57
-22.75
-11.94
1.04
13.61
23.47
29.50
31.95
31.97
30.77
29.04
26.92
24.38
21.69
19.57
18.81
19.83
22.38
25.54
28.12
29.06
27.83
24.67
20.45
16.38
13.55
12.51
13.03
14.27
15.24
15.22
14.05
12.08
9.83
7.73
5.95
4.44
3.16
2.20
1.73
1.92
2.74
4.03
5.49
6.80
7.69
7.97
7.60
6.72
5.74
5.23
5.71
7.40
10.01
12.82
14.98
15.79
14.92
12.55
8.96
4.62
0.04
-4.35
-8.19
-11.25
-13.50
-15.00
-15.89
-16.29
-16.27
-16.00
-15.70
-15.63
-15.97
-16.57
-17.07
-16.99
-16.08
-14.41
-12.33
-10.33
-8.82
-8.05
-8.06
-8.74
-9.84
-10.92
-11.45
-10.93
-9.19
-6.39
-3.06
0.15
2.66
4.12
4.40
3.61
2.02
0.08
-1.75
-2.94
-3.23
-2.54
-1.15
0.48
1.79
2.33
1.84
0.39
-1.66
-3.78
-5.43
-6.24
-6.13
-5.32
-4.18
-3.17
-2.69
-3.07
-4.41
-6.53
-9.01
-11.22
-12.40
-12.04
-10.02
-6.68
-2.72
1.10
4.17
6.25
7.42
7.98
8.26
8.50
8.84
9.22
9.58
9.80
9.86
9.73
9.39
8.80
7.89
6.68
5.33
4.06
3.10
2.50
2.10
1.54
0.43
-1.54
-4.41
-7.92
-11.54
-14.57
-16.38
-16.48
-14.73
-11.36
-7.00
-2.55
1.11
3.34
4.05
3.64
2.87
2.48
2.93
4.31
6.31
8.47
10.27
11.34
11.47
10.71
9.28
7.59
6.09
5.12
4.83
5.05
5.39
5.38
4.70
3.26
1.25
-0.96
-3.10
-5.01
-6.71
-8.28
-9.72
-10.83
-11.32
-11.04
-10.01
-8.55
-6.99
-5.57
-4.25
-2.79
-0.99
1.23
3.66
5.95
7.75
8.89
9.37
9.36
9.10
8.80
8.58
8.49
8.48
8.44
8.26
7.85
7.15
6.17
5.01
3.77
2.59
1.54
0.60
-0.38
-1.61
-3.33
-5.61
-8.35
-11.16
-13.50
-14.88
-15.02
-13.93
-11.94
-9.50
-7.06
-4.93
-3.26
-2.07
-1.32
-0.92
-0.79
-0.86
-1.07
-1.44
-2.02
-2.84
-3.88
-5.03
-6.19
-7.29
-8.37
-9.55
-10.98
-12.81
-15.08
-17.73
-20.62
-23.54
-26.33
-28.92
-31.34
-33.69
-36.16
-38.96
-42.26
-46.07
-50.04
-53.35
-54.66
-52.50
-45.68
-33.84
-17.74
0.79
19.28
35.27
46.82
52.92
53.57
49.62
42.60
34.33
26.61
20.83
17.70
17.13
18.40
20.43
22.20
23.02
22.65
21.25
19.21
16.92
14.69
12.71
11.01
9.62
8.47
7.53
6.77
6.17
5.85
5.98
6.77
8.38
10.74
13.63
16.66
19.45
21.78
23.57
24.91
25.89
26.59
26.99
27.07
26.85
26.37
25.75
25.08
24.38
23.61
22.68
21.51
20.11
18.54
16.99
15.64
14.63
13.93
13.37
12.70
11.67
10.19
8.35
6.36
4.44
2.72
1.17
-0.30
-1.82
-3.49
-5.34
-7.35
-9.47
-11.54
-13.31
-14.47
-14.74
-13.98
-12.33
-10.16
-7.94
-6.12
-4.91
-4.29
-4.06
-3.95
-3.71
-3.26
-2.58
-1.77
-0.99
-0.34
0.08
0.28
0.32
0.27
0.21
0.20
0.24
0.33
0.42
0.43
0.25
-0.20
-0.92
-1.85
-2.84
-3.71
-4.38
-4.89
-5.41
-6.14
-7.22
-8.62
-10.14
-11.47
-12.30
-12.39
-11.69
-10.27
-8.33
-6.09
-3.83
-1.77
-0.05
1.24
2.16
2.78
3.13
3.21
2.98
2.43
1.65
0.84
0.22
-0.10
-0.17
-0.21
-0.48
-1.13
-2.10
-3.19
-4.17
-4.91
-5.45
-5.96
-6.60
-7.47
-8.61
-9.97
-11.53
-13.25
-14.97
-16.42
-17.22
-16.99
-15.55
-13.01
-9.81
-6.46
-3.44
-0.97
0.97
2.56
3.96
5.24
6.33
7.12
7.52
7.54
7.29
6.94
6.64
6.47
6.39
6.31
6.10
5.66
4.99
4.11
3.08
1.96
0.80
-0.39
-1.60
-2.88
-4.26
-5.78
-7.47
-9.32
-11.27
-13.14
-14.72
-15.76
-16.05
-15.47
-14.04
-11.93
-9.38
-6.70
-4.14
-1.85
0.10
1.79
3.30
4.76
6.26
7.85
9.53
11.21
12.76
14.01
14.77
14.92
14.45
13.46
12.13
10.65
9.20
7.88
6.69
5.59
4.55
3.53
2.53
1.55
0.57
-0.46
-1.63
-3.04
-4.77
-6.85
-9.14
-11.39
-13.19
-14.13
-13.91
-12.48
-10.14
-7.42
-4.95
-3.22
-2.47
-2.62
-3.37
-4.33
-5.20
-5.79
-6.06
-6.04
-5.81
-5.47
-5.15
-5.03
-5.28
-6.01
-7.21
-8.74
-10.37
-11.87
-13.00
-13.53
-13.31
-12.22
-10.36
-8.06
-5.85
-4.39
-4.19
-5.36
-7.57
-10.14
-12.27
-13.37
-13.21
-11.97
-10.03
-7.80
-5.60
-3.57
-1.73
-0.08
1.38
2.60
3.55
4.26
4.79
5.29
5.85
6.49
7.15
7.69
8.00
8.04
7.88
7.65
7.46
7.31
7.07
6.51
5.42
3.66
1.31
-1.41
-4.11
-6.38
-7.86
-8.32
-7.73
-6.19
-3.95
-1.35
1.27
3.62
5.46
6.72
7.43
7.78
7.93
8.04
8.16
8.23
8.14
7.83
7.29
6.54
5.67
4.71
3.67
2.57
1.49
0.55
-0.13
-0.53
-0.78
-1.16
-2.02
-3.55
-5.74
-8.29
-10.71
-12.47
-13.14
-12.56
-10.84
-8.35
-5.51
-2.72
-0.23
1.88
3.65
5.15
6.43
7.49
8.28
8.81
9.09
9.17
9.10
8.91
8.61
8.18
7.60
6.85
5.93
4.87
3.74
2.60
1.51
0.47
-0.61
-1.80
-3.18
-4.80
-6.59
-8.53
-10.52
-12.44
-14.07
-15.10
-15.23
-14.28
-12.33
-9.75
-6.98
-4.42
-2.17
-0.11
1.98
4.21
6.49
8.50
9.91
10.57
10.52
10.02
9.36
8.77
8.33
8.01
7.71
7.34
6.81
6.07
5.12
3.97
2.67
1.29
-0.13
-1.54
-2.95
-4.37
-5.86
-7.50
-9.38
-11.49
-13.63
-15.44
-16.47
-16.39
-15.08
-12.78
-9.93
-7.03
-4.43
-2.27
-0.47
1.12
2.59
3.93
5.04
5.84
6.29
6.46
6.49
6.51
6.62
6.81
6.94
6.83
6.34
5.44
4.24
2.93
1.69
0.60
-0.43
-1.61
-3.14
-5.16
-7.60
-10.23
-12.69
-14.59
-15.60
-15.56
-14.41
-12.26
-9.32
-5.88
-2.24
1.31
4.53
7.24
9.34
10.81
11.70
12.07
12.07
11.86
11.56
11.31
11.07
10.77
10.26
9.42
8.25
6.84
5.38
4.02
2.80
1.64
0.36
-1.26
-3.33
-5.89
-8.75
-11.62
-14.03
-15.50
-15.65
-14.33
-11.68
-8.14
-4.31
-0.77
2.11
4.21
5.68
6.78
7.73
8.62
9.40
9.99
10.30
10.34
10.21
9.98
9.71
9.35
8.82
8.00
6.84
5.39
3.78
2.20
0.85
-0.21
-1.03
-1.84
-2.94
-4.59
-6.94
-9.91
-13.19
-16.23
-18.43
-19.31
-18.63
-16.52
-13.39
-9.82
-6.35
-3.34
-0.94
0.87
2.23
3.30
4.22
5.13
6.09
7.10
8.08
8.92
9.54
9.92
10.05
9.96
9.60
8.94
7.98
6.79
5.51
4.24
3.03
1.82
0.49
-1.10
-3.07
-5.43
-8.13
-11.01
-13.80
-16.14
-17.65
-18.01
-17.09
-15.01
-12.13
-8.90
-5.75
-2.94
-0.58
1.35
2.91
4.09
4.89
5.32
5.49
5.56
5.70
5.96
6.23
6.26
5.82
4.82
3.34
1.65
0.09
-1.13
-1.92
-2.40
-2.80
-3.36
-4.27
-5.60
-7.31
-9.17
-10.83
-11.87
-11.92
-10.78
-8.54
-5.52
-2.17
1.11
4.08
6.68
8.92
10.82
12.36
13.47
14.18
14.60
14.85
15.01
15.07
14.88
14.30
13.26
11.83
10.18
8.51
6.96
5.59
4.37
3.15
1.81
0.18
-1.87
-4.39
-7.31
-10.38
-13.18
-15.23
-16.07
-15.46
-13.45
-10.42
-6.88
-3.37
-0.21
2.49
4.79
6.83
8.66
10.25
11.43
12.12
12.30
12.11
11.75
11.39
11.07
10.65
9.91
8.67
6.92
4.85
2.81
1.09
-0.23
-1.34
-2.56
-4.19
-6.35
-8.94
-11.77
-14.63
-17.40
-19.93
-22.02
-23.31
-23.40
-22.01
-19.12
-15.07
-10.41
-5.76
-1.58
1.91
4.75
7.10
9.11
10.87
12.39
13.64
14.62
15.39
16.00
16.45
16.68
16.58
16.02
15.00
13.62
12.10
10.64
9.38
8.29
7.23
6.03
4.59
2.86
0.89
-1.24
-3.47
-5.72
-8.01
-10.32
-12.65
-14.94
-17.05
-18.77
-19.83
-19.98
-19.12
-17.30
-14.75
-11.84
-8.83
-5.87
-2.92
0.12
3.24
6.25
8.80
10.51
11.22
11.02
10.25
9.37
8.68
8.29
8.07
7.78
7.21
6.27
5.03
3.64
2.25
0.89
-0.49
-2.06
-3.99
-6.41
-9.29
-12.43
-15.48
-18.01
-19.60
-19.92
-18.88
-16.62
-13.44
-9.78
-6.01
-2.44
0.76
3.50
5.74
7.50
8.84
9.88
10.75
11.56
12.33
12.97
13.30
13.14
12.39
11.06
9.34
7.44
5.61
4.02
2.68
1.53
0.37
-1.03
-2.89
-5.33
-8.35
-11.80
-15.33
-18.46
-20.68
-21.55
-20.87
-18.69
-15.35
-11.40
-7.36
-3.66
-0.51
2.10
4.31
6.26
8.01
9.52
10.70
11.48
11.88
12.02
12.03
11.98
11.84
11.52
10.90
9.94
8.69
7.27
5.86
4.59
3.52
2.61
1.66
0.43
-1.35
-3.82
-6.94
-10.46
-13.93
-16.84
-18.68
-19.12
-18.04
-15.59
-12.13
-8.17
-4.19
-0.54
2.65
5.42
7.91
10.22
12.32
14.10
15.38
16.09
16.24
15.93
15.29
14.42
13.34
12.05
10.57
8.96
7.33
5.81
4.50
3.40
2.44
1.40
0.01
-1.99
-4.76
-8.22
-11.99
-15.41
-17.78
-18.58
-17.68
-15.37
-12.22
-8.82
-5.56
-2.56
0.23
2.86
5.28
7.32
8.85
9.86
10.49
10.95
11.41
11.81
11.95
11.60
10.62
9.10
7.31
5.55
4.05
2.87
1.84
0.77
-0.58
-2.36
-4.67
-7.48
-10.67
-13.91
-16.70
-18.47
-18.74
-17.33
-14.46
-10.67
-6.61
-2.79
0.49
3.20
5.44
7.33
8.92
10.20
11.14
11.76
12.11
12.25
12.21
11.96
11.49
10.77
9.81
8.65
7.34
5.97
4.60
3.27
1.91
0.41
-1.40
-3.68
-6.48
-9.69
-13.03
-16.01
-18.11
-18.90
-18.11
-15.81
-12.29
-8.08
-3.73
0.27
3.60
6.18
8.13
9.62
10.87
11.97
12.96
13.78
14.33
14.55
14.43
13.99
13.29
12.36
11.21
9.86
8.31
6.66
4.98
3.37
1.84
0.32
-1.38
-3.44
-6.00
-9.06
-12.39
-15.61
-18.18
-19.61
-19.56
-17.95
-15.04
-11.30
-7.27
-3.41
0.01
2.89
5.24
7.09
8.48
9.44
10.06
10.46
10.77
11.03
11.20
11.15
10.79
10.06
9.03
7.78
6.43
5.06
3.74
2.49
1.26
-0.05
-1.64
-3.69
-6.29
-9.32
-12.37
-14.89
-16.29
-16.19
-14.59
-11.78
-8.27
-4.59
-1.11
1.98
4.64
6.85
8.56
9.73
10.33
10.46
10.36
10.26
10.31
10.49
10.61
10.42
9.75
8.58
7.08
5.45
3.91
2.55
1.34
0.17
-1.16
-2.83
-4.91
-7.41
-10.15
-12.78
-14.88
-15.98
-15.77
-14.20
-11.50
-8.11
-4.55
-1.20
1.73
4.27
6.51
8.51
10.27
11.70
12.74
13.40
13.72
13.81
13.69
13.35
12.75
11.92
10.91
9.82
8.72
7.61
6.42
5.11
3.66
2.10
0.46
-1.31
-3.29
-5.64
-8.38
-11.41
-14.42
-16.95
-18.51
-18.76
-17.58
-15.11
-11.79
-8.14
-4.65
-1.67
0.71
2.58
4.12
5.51
6.83
8.06
9.12
9.96
10.61
11.18
11.75
12.33
12.79
12.89
12.45
11.41
9.94
8.32
6.84
5.64
4.60
3.46
1.93
-0.14
-2.71
-5.59
-8.51
-11.19
-13.31
-14.58
-14.74
-13.71
-11.61
-8.86
-5.97
-3.41
-1.43
-0.00
1.06
1.95
2.81
3.60
4.29
4.88
5.42
5.98
6.55
6.98
7.07
6.68
5.78
4.54
3.18
1.90
0.75
-0.36
-1.59
-3.07
-4.81
-6.76
-8.79
-10.74
-12.42
-13.59
-14.01
-13.48
-11.99
-9.71
-7.00
-4.30
-1.89
0.12
1.79
3.27
4.63
5.88
6.88
7.51
7.69
7.45
6.89
6.15
5.32
4.43
3.46
2.40
1.28
0.15
-0.90
-1.85
-2.72
-3.61
-4.69
-6.11
-7.97
-10.21
-12.63
-14.85
-16.43
-16.95
-16.15
-14.03
-10.87
-7.17
-3.47
-0.22
2.35
4.23
5.59
6.60
7.40
8.00
8.35
8.43
8.28
8.01
7.74
7.53
7.30
6.95
6.36
5.53
4.55
3.55
2.63
1.81
0.95
-0.11
-1.55
-3.46
-5.73
-8.14
-10.30
-11.82
-12.39
-11.88
-10.38
-8.14
-5.47
-2.67
0.01
2.42
4.44
6.00
7.10
7.81
8.22
8.46
8.62
8.73
8.79
8.73
8.49
8.00
7.20
6.11
4.80
3.45
2.25
1.31
0.58
-0.14
-1.10
-2.50
-4.43
-6.77
-9.32
-11.76
-13.76
-15.00
-15.24
-14.40
-12.58
-10.08
-7.28
-4.54
-2.11
-0.03
1.77
3.40
4.87
6.09
6.96
7.38
7.43
7.26
7.05
6.86
6.59
6.07
5.14
3.82
2.34
1.00
0.03
-0.56
-1.01
-1.69
-2.91
-4.83
-7.33
-10.12
-12.76
-14.83
-15.99
-16.06
-15.05
-13.16
-10.75
-8.25
-6.00
-4.19
-2.82
-1.78
-0.89
-0.03
0.84
1.71
2.55
3.31
3.97
4.46
4.72
4.69
4.38
3.83
3.14
2.41
1.66
0.88
-0.01
-1.09
-2.48
-4.21
-6.29
-8.62
-10.99
-13.09
-14.53
-14.99
-14.28
-12.45
-9.73
-6.51
-3.19
-0.13
2.43
4.37
5.73
6.61
7.19
7.63
8.00
8.32
8.48
8.36
7.91
7.16
6.26
5.38
4.63
4.03
3.47
2.83
1.95
0.73
-0.90
-2.95
-5.41
-8.14
-10.91
-13.35
-15.08
-15.73
-15.12
-13.31
-10.57
-7.31
-3.96
-0.86
1.77
3.85
5.42
6.57
7.39
7.97
8.38
8.65
8.79
8.78
8.61
8.22
7.61
6.76
5.70
4.49
3.24
2.03
0.92
-0.10
-1.12
-2.32
-3.86
-5.86
-8.22
-10.65
-12.62
-13.60
-13.17
-11.22
-8.04
-4.22
-0.45
2.67
4.85
6.12
6.74
7.02
7.24
7.53
7.90
8.30
8.63
8.80
8.65
8.06
6.91
5.19
3.06
0.82
-1.19
-2.71
-3.73
-4.54
-5.56
-7.22
-9.69
-12.77
-15.92
-18.47
-19.87
-19.87
-18.59
-16.36
-13.58
-10.57
-7.49
-4.48
-1.64
0.88
2.96
4.56
5.75
6.63
7.27
7.66
7.74
7.48
6.93
6.23
5.53
4.94
4.45
3.96
3.32
2.37
1.02
-0.79
-3.06
-5.69
-8.46
-11.08
-13.16
-14.38
-14.47
-13.38
-11.22
-8.30
-4.98
-1.64
1.44
4.08
6.23
7.89
9.09
9.85
10.18
10.11
9.68
8.97
8.12
7.33
6.79
6.62
6.83
7.21
7.41
7.04
5.82
3.69
0.84
-2.33
-5.37
-7.83
-9.38
-9.79
-8.97
-6.98
-4.07
-0.63
2.86
5.92
8.24
9.79
10.76
11.50
12.26
13.12
13.96
14.52
14.64
14.30
13.64
12.82
11.98
11.08
10.04
8.79
7.34
5.71
3.94
1.95
-0.40
-3.22
-6.44
-9.76
-12.73
-14.84
-15.69
-15.16
-13.39
-10.72
-7.61
-4.49
-1.67
0.65
2.48
3.87
4.91
5.65
6.09
6.18
5.90
5.29
4.44
3.51
2.61
1.81
1.07
0.32
-0.56
-1.63
-2.96
-4.56
-6.41
-8.45
-10.51
-12.38
-13.75
-14.33
-13.88
-12.30
-9.70
-6.43
-2.98
0.16
2.63
4.31
5.27
5.72
5.84
5.74
5.40
4.76
3.78
2.50
1.03
-0.45
-1.81
-2.97
-3.96
-4.88
-5.88
-7.08
-8.52
-10.20
-12.05
-13.97
-15.85
-17.51
-18.69
-19.10
-18.49
-16.81
-14.23
-11.20
-8.25
-5.81
-4.10
-3.02
-2.25
-1.46
-0.41
0.95
2.49
4.02
5.38
6.50
7.40
8.15
8.80
9.33
9.71
9.87
9.76
9.33
8.48
7.06
4.99
2.33
-0.58
-3.18
-4.82
-5.02
-3.75
-1.39
1.40
3.90
5.73
6.81
7.41
7.81
8.21
8.60
8.86
8.86
8.55
7.96
7.13
6.12
4.92
3.56
2.12
0.69
-0.62
-1.80
-3.01
-4.43
-6.25
-8.42
-10.62
-12.31
-12.94
-12.14
-9.87
-6.40
-2.21
2.20
6.45
10.30
13.60
16.22
18.07
19.12
19.41
19.08
18.29
17.16
15.81
14.31
12.78
11.38
10.19
9.24
8.40
7.56
6.60
5.48
4.23
2.86
1.35
-0.32
-2.11
-3.81
-5.07
-5.46
-4.69
-2.74
0.06
3.16
5.97
8.09
9.36
9.94
10.07
10.01
9.83
9.48
8.78
7.62
6.02
4.16
2.32
0.77
-0.38
-1.12
-1.59
-1.99
-2.51
-3.31
-4.53
-6.22
-8.31
-10.57
-12.60
-13.95
-14.22
-13.29
-11.31
-8.69
-5.87
-3.24
-1.01
0.76
2.09
3.08
3.81
4.39
4.92
5.37
5.70
5.75
5.46
4.80
3.86
2.78
1.70
0.72
-0.14
-0.93
-1.79
-2.88
-4.32
-6.13
-8.14
-10.03
-11.41
-11.95
-11.53
-10.22
-8.27
-5.94
-3.49
-1.14
0.89
2.46
3.48
4.04
4.27
4.33
4.33
4.26
4.09
3.81
3.44
3.00
2.50
1.90
1.14
0.19
-0.92
-2.15
-3.43
-4.78
-6.26
-7.86
-9.48
-10.83
-11.62
-11.53
-10.47
-8.52
-5.96
-3.15
-0.39
2.09
4.17
5.84
7.06
7.86
8.27
8.38
8.35
8.31
8.33
8.34
8.31
8.21
8.08
7.97
7.90
7.76
7.42
6.74
5.74
4.50
3.19
1.98
1.06
0.59
0.74
1.63
3.30
5.68
8.64
11.95
15.31
18.40
20.81
22.21
22.40
21.36
19.26
16.44
13.25
9.97
6.83
3.93
1.36
-0.86
-2.70
-4.20
-5.45
-6.58
-7.76
-9.19
-10.99
-13.23
-15.83
-18.64
-21.44
-23.95
-25.90
-26.99
-26.99
-25.84
-23.66
-20.81
-17.79
-15.03
-12.77
-11.00
-9.55
-8.20
-6.82
-5.46
-4.25
-3.36
-2.93
-2.96
-3.37
-4.01
-4.71
-5.35
-5.87
-6.27
-6.60
-7.00
-7.59
-8.55
-9.98
-11.89
-14.15
-16.44
-18.35
-19.48
-19.60
-18.75
-17.18
-15.24
-13.30
-11.52
-9.91
-8.33
-6.64
-4.71
-2.56
-0.28
1.94
3.85
5.23
5.95
6.00
5.52
4.75
3.94
3.26
2.81
2.58
2.48
2.35
1.99
1.21
-0.13
-1.99
-4.19
-6.35
-8.04
-8.86
-8.57
-7.18
-4.93
-2.26
0.40
2.72
4.59
6.09
7.35
8.50
9.53
10.37
10.91
11.08
10.89
10.41
9.78
9.09
8.41
7.75
7.07
6.37
5.68
5.09
4.66
4.34
3.91
3.06
1.50
-0.82
-3.71
-6.67
-9.06
-10.35
-10.20
-8.64
-6.04
-3.00
-0.15
2.08
3.53
4.34
4.78
5.11
5.45
5.74
5.88
5.78
5.48
5.10
4.79
4.61
4.52
4.37
4.03
3.44
2.68
1.89
1.23
0.70
0.16
-0.60
-1.77
-3.41
-5.40
-7.50
-9.45
-10.99
-11.86
-11.84
-10.79
-8.76
-6.03
-3.02
-0.20
2.12
3.89
5.25
6.36
7.31
8.04
8.43
8.47
8.28
8.08
8.06
8.25
8.51
8.58
8.27
7.50
6.36
5.04
3.76
2.67
1.82
1.15
0.47
-0.47
-1.90
-3.93
-6.48
-9.23
-11.73
-13.51
-14.22
-13.71
-12.08
-9.60
-6.62
-3.50
-0.55
2.03
4.15
5.84
7.19
8.27
9.14
9.82
10.29
10.54
10.60
10.48
10.23
9.88
9.41
8.78
7.95
6.92
5.76
4.61
3.60
2.77
2.04
1.26
0.23
-1.14
-2.86
-4.85
-7.05
-9.43
-11.91
-14.26
-16.13
-17.03
-16.62
-14.83
-11.96
-8.53
-5.10
-2.02
0.64
2.96
5.08
7.02
8.68
9.90
10.56
10.67
10.37
9.85
9.30
8.87
8.57
8.33
8.00
7.46
6.68
5.73
4.75
3.85
3.05
2.22
1.20
-0.16
-1.87
-3.86
-6.02
-8.26
-10.53
-12.73
-14.69
-16.12
-16.67
-16.15
-14.52
-12.00
-8.96
-5.81
-2.86
-0.28
1.90
3.73
5.26
6.50
7.43
8.00
8.20
8.05
7.67
7.21
6.83
6.58
6.42
6.21
5.79
5.11
4.19
3.14
2.07
0.99
-0.21
-1.67
-3.50
-5.67
-7.95
-9.99
-11.43
-12.01
-11.64
-10.41
-8.52
-6.18
-3.59
-0.89
1.78
4.28
6.47
8.21
9.39
10.00
10.11
9.88
9.53
9.21
8.99
8.80
8.45
7.74
6.58
5.02
3.26
1.53
0.00
-1.31
-2.51
-3.78
-5.28
-7.14
-9.41
-12.04
-14.87
-17.61
-19.83
-21.07
-20.95
-19.34
-16.39
-12.53
-8.30
-4.22
-0.63
2.37
4.81
6.81
8.46
9.79
10.80
11.50
11.87
11.96
11.78
11.37
10.77
10.01
9.13
8.11
6.96
5.63
4.15
2.54
0.87
-0.82
-2.53
-4.33
-6.31
-8.48
-10.76
-12.91
-14.60
-15.53
-15.53
-14.64
-13.04
-10.96
-8.61
-6.09
-3.50
-0.92
1.51
3.62
5.25
6.36
6.99
7.30
7.48
7.67
7.90
8.13
8.22
8.01
7.42
6.41
5.06
3.52
1.92
0.33
-1.28
-2.98
-4.86
-6.95
-9.19
-11.43
-13.40
-14.81
-15.36
-14.85
-13.26
-10.75
-7.68
-4.43
-1.37
1.29
3.48
5.21
6.56
7.57
8.32
8.86
9.20
9.34
9.19
8.69
7.82
6.67
5.42
4.22
3.17
2.25
1.33
0.22
-1.22
-3.13
-5.59
-8.62
-12.09
-15.67
-18.85
-20.99
-21.59
-20.45
-17.75
-14.04
-10.02
-6.29
-3.20
-0.76
1.25
3.15
5.17
7.33
9.46
11.26
12.49
13.03
12.90
12.23
11.21
10.02
8.84
7.85
7.16
6.78
6.59
6.31
5.60
4.12
1.72
-1.56
-5.39
-9.23
-12.39
-14.23
-14.27
-12.45
-9.15
-5.11
-1.13
2.19
4.61
6.26
7.41
8.33
9.14
9.84
10.34
10.57
10.49
10.10
9.37
8.34
7.05
5.64
4.25
3.07
2.23
1.77
1.60
1.49
1.15
0.28
-1.28
-3.52
-6.15
-8.73
-10.74
-11.76
-11.56
-10.14
-7.70
-4.56
-1.10
2.35
5.54
8.31
10.60
12.41
13.74
14.62
15.08
15.17
14.88
14.21
13.13
11.65
9.87
7.92
6.01
4.29
2.81
1.51
0.24
-1.20
-2.97
-5.20
-7.88
-10.93
-14.11
-17.04
-19.28
-20.41
-20.13
-18.40
-15.40
-11.52
-7.24
-3.03
0.78
3.97
6.48
8.32
9.58
10.39
10.85
11.05
11.02
10.73
10.15
9.26
8.12
6.85
5.59
4.47
3.56
2.86
2.31
1.86
1.38
0.69
-0.45
-2.24
-4.71
-7.57
-10.26
-12.09
-12.47
-11.18
-8.38
-4.58
-0.34
3.85
7.71
11.10
13.92
16.08
17.47
18.03
17.84
17.11
16.11
15.12
14.31
13.71
13.21
12.63
11.79
10.56
8.94
7.02
4.97
2.92
0.90
-1.17
-3.48
-6.22
-9.43
-12.94
-16.32
-19.00
-20.42
-20.23
-18.43
-15.34
-11.49
-7.47
-3.70
-0.44
2.27
4.43
6.10
7.27
7.95
8.20
8.12
7.87
7.57
7.31
7.06
6.74
6.24
5.52
4.64
3.72
2.88
2.12
1.36
0.38
-1.08
-3.14
-5.73
-8.50
-10.96
-12.58
-12.97
-12.03
-9.93
-7.04
-3.76
-0.45
2.62
5.29
7.42
8.92
9.74
9.94
9.66
9.12
8.54
7.99
7.47
6.82
5.93
4.74
3.32
1.81
0.30
-1.16
-2.66
-4.32
-6.23
-8.47
-10.98
-13.60
-16.07
-18.03
-19.09
-18.88
-17.21
-14.14
-10.00
-5.34
-0.77
3.17
6.18
8.24
9.53
10.39
11.08
11.71
12.22
12.43
12.18
11.46
10.42
9.34
8.42
7.71
7.07
6.26
5.08
3.44
1.38
-1.00
-3.62
-6.37
-9.13
-11.62
-13.45
-14.16
-13.43
-11.19
-7.74
-3.64
0.45
4.01
6.79
8.79
10.22
11.26
12.07
12.65
12.98
13.03
12.82
12.39
11.79
11.02
10.10
9.03
7.87
6.72
5.64
4.63
3.57
2.28
0.60
-1.56
-4.16
-6.99
-9.72
-11.97
-13.33
-13.48
-12.32
-9.95
-6.76
-3.24
0.14
3.04
5.33
7.04
8.20
8.86
9.04
8.78
8.19
7.45
6.77
6.24
5.91
5.70
5.49
5.14
4.52
3.60
2.41
1.04
-0.41
-1.88
-3.44
-5.22
-7.29
-9.60
-11.81
-13.46
-14.09
-13.41
-11.46
-8.58
-5.29
-2.11
0.60
2.74
4.34
5.57
6.50
7.14
7.44
7.38
7.11
6.88
6.95
7.45
8.30
9.20
9.77
9.74
9.05
7.88
6.46
5.02
3.63
2.22
0.68
-1.07
-2.96
-4.77
-6.19
-6.95
-6.88
-6.01
-4.56
-2.82
-1.12
0.31
1.35
1.98
2.26
2.25
2.05
1.77
1.56
1.55
1.86
2.43
3.10
3.60
3.69
3.23
2.23
0.84
-0.71
-2.21
-3.55
-4.76
-5.98
-7.42
-9.25
-11.54
-14.16
-16.76
-18.86
-19.92
-19.53
-17.57
-14.20
-9.90
-5.26
-0.88
2.79
5.54
7.36
8.36
8.71
8.56
8.08
7.45
6.88
6.54
6.51
6.73
7.04
7.20
7.05
6.55
5.70
4.57
3.17
1.50
-0.45
-2.59
-4.71
-6.44
-7.42
-7.34
-6.06
-3.74
-0.72
2.47
5.31
7.43
8.70
9.20
9.14
8.71
8.02
7.08
5.90
4.56
3.21
2.03
1.06
0.28
-0.51
-1.45
-2.66
-4.12
-5.73
-7.45
-9.25
-11.16
-13.15
-15.13
-16.86
-18.03
-18.33
-17.58
-15.78
-13.21
-10.28
-7.48
-5.16
-3.49
-2.42
-1.74
-1.30
-0.99
-0.86
-1.03
-1.56
-2.44
-3.48
-4.46
-5.22
-5.70
-5.93
-6.03
-6.02
-5.89
-5.59
-5.19
-4.89
-5.03
-5.90
-7.55
-9.63
-11.46
-12.29
-11.58
-9.27
-5.78
-1.87
1.72
4.58
6.71
8.45
10.28
12.51
15.15
17.84
20.01
21.12
20.82
19.12
16.37
13.14
10.06
7.69
6.38
6.28
7.24
8.83
10.38
11.00
9.96
6.89
2.11
-3.41
-8.37
-11.58
-12.42
-11.01
-8.02
-4.35
-0.75
2.42
5.09
7.30
9.03
10.20
10.69
10.56
10.03
9.48
9.25
9.54
10.30
11.24
11.89
11.82
10.74
8.72
6.14
3.65
1.86
1.05
1.04
1.27
1.08
0.06
-1.70
-3.71
-5.31
-6.02
-5.79
-4.91
-3.79
-2.73
-1.79
-0.87
0.10
1.04
1.68
1.70
0.90
-0.69
-2.80
-5.06
-7.11
-8.71
-9.76
-10.32
-10.52
-10.57
-10.68
-11.04
-11.77
-12.88
-14.25
-15.72
-17.12
-18.36
-19.41
-20.21
-20.69
-20.67
-19.99
-18.56
-16.44
-13.86
-11.11
-8.48
-6.17
-4.26
-2.72
-1.51
-0.58
0.09
0.53
0.81
1.00
1.24
1.60
2.12
2.73
3.30
3.68
3.74
3.45
2.83
1.94
0.87
-0.33
-1.55
-2.65
-3.39
-3.53
-2.85
-1.32
0.91
3.49
6.03
8.21
9.87
11.03
11.82
12.34
12.63
12.63
12.23
11.40
10.22
8.87
7.66
6.81
6.46
6.56
6.93
7.30
7.38
6.91
5.69
3.61
0.66
-2.98
-6.92
-10.58
-13.35
-14.74
-14.63
-13.27
-11.22
-9.09
-7.34
-6.16
-5.49
-5.14
-4.95
-4.80
-4.70
-4.65
-4.62
-4.52
-4.22
-3.65
-2.80
-1.77
-0.77
-0.02
0.35
0.36
0.11
-0.22
-0.54
-0.91
-1.50
-2.47
-3.83
-5.35
-6.64
-7.28
-7.01
-5.82
-3.94
-1.72
0.49
2.43
3.98
5.11
5.83
6.17
6.14
5.80
5.21
4.49
3.71
2.85
1.84
0.55
-1.05
-2.89
-4.77
-6.47
-7.84
-8.94
-9.95
-11.13
-12.64
-14.48
-16.47
-18.39
-19.98
-21.02
-21.30
-20.64
-18.96
-16.28
-12.82
-8.92
-5.04
-1.60
1.12
2.95
3.88
4.04
3.64
3.03
2.55
2.52
3.08
4.12
5.31
6.22
6.47
5.95
4.79
3.37
2.05
1.02
0.20
-0.66
-1.85
-3.42
-5.10
-6.35
-6.62
-5.55
-3.20
-0.01
3.42
6.52
8.95
10.69
11.86
12.65
13.17
13.44
13.47
13.33
13.10
12.88
12.65
12.26
11.45
10.04
8.01
5.59
3.17
1.06
-0.60
-2.01
-3.53
-5.52
-8.16
-11.23
-14.25
-16.53
-17.47
-16.69
-14.16
-10.24
-5.61
-1.05
2.68
5.08
6.00
5.70
4.66
3.41
2.35
1.64
1.26
1.13
1.20
1.57
2.48
4.21
6.91
10.44
14.31
17.77
20.08
20.80
19.97
18.09
15.79
13.54
11.46
9.40
7.24
5.15
3.52
2.89
3.60
5.65
8.75
12.62
17.10
22.18
27.71
33.26
38.08
41.34
42.52
41.68
39.40
36.47
33.52
30.70
27.79
24.41
20.39
15.90
11.31
6.95
2.81
-1.44
-6.32
-12.21
-19.11
-26.69
-34.41
-41.76
-48.41
-54.22
-59.15
-63.13
-66.07
-67.85
-68.41
-67.84
-66.29
-64.00
-61.19
-58.07
-54.81
-51.54
-48.34
-45.25
-42.29
-39.48
-36.91
-34.67
-32.91
-31.69
-31.01
-30.75
-30.77
-30.93
-31.16
-31.49
-31.99
-32.76
-33.86
-35.31
-37.02
-38.76
-40.13
-40.62
-39.71
-37.00
-32.33
-25.83
-17.84
-8.87
0.47
9.56
17.82
24.81
30.32
34.40
37.30
39.29
40.62
41.44
41.89
42.14
42.42
42.92
43.69
44.57
45.27
45.47
44.96
43.70
41.79
39.34
36.38
32.92
28.90
24.39
19.51
14.53
9.81
5.74
2.74
1.08
0.85
1.93
3.96
6.52
9.17
11.57
13.52
14.91
15.70
15.89
15.54
14.72
13.55
12.16
10.70
9.29
8.04
7.02
6.28
5.78
5.42
5.06
4.53
3.67
2.34
0.48
-1.96
-4.85
-7.95
-10.81
-12.91
-13.80
-13.22
-11.24
-8.19
-4.57
-0.85
2.62
5.63
8.08
9.94
11.18
11.84
12.01
11.79
11.35
10.78
10.16
9.54
8.96
8.49
8.14
7.83
7.35
6.47
5.01
2.94
0.41
-2.35
-5.14
-7.84
-10.35
-12.51
-14.07
-14.66
-14.01
-12.03
-8.93
-5.14
-1.16
2.63
6.00
8.92
11.40
13.39
14.83
15.67
15.99
16.03
16.09
16.37
16.88
17.41
17.69
17.52
16.89
15.98
15.01
14.19
13.55
12.98
12.25
11.09
9.29
6.76
3.57
0.01
-3.40
-6.11
-7.60
-7.69
-6.51
-4.49
-2.12
0.19
2.21
3.91
5.35
6.57
7.55
8.22
8.60
8.73
8.73
8.67
8.52
8.16
7.43
6.24
4.63
2.76
0.84
-0.92
-2.45
-3.78
-5.00
-6.22
-7.59
-9.24
-11.28
-13.72
-16.39
-18.90
-20.74
-21.43
-20.74
-18.80
-16.02
-12.94
-9.94
-7.17
-4.59
-2.06
0.42
2.68
4.42
5.44
5.73
5.55
5.29
5.24
5.48
5.81
5.92
5.53
4.54
3.01
1.10
-0.98
-3.03
-4.76
-5.81
-5.88
-4.91
-3.22
-1.45
-0.34
-0.32
-1.34
-2.89
-4.30
-5.07
-5.15
-4.84
-4.60
-4.68
-5.03
-5.29
-5.05
-4.15
-2.71
-1.15
0.05
0.56
0.38
-0.25
-0.97
-1.55
-2.00
-2.46
-3.13
-4.01
-4.94
-5.67
-6.00
-5.95
-5.76
-5.81
-6.50
-8.06
-10.49
-13.47
-16.44
-18.76
-19.86
-19.47
-17.71
-14.97
-11.75
-8.45
-5.19
-1.97
1.28
4.48
7.42
9.84
11.62
12.76
13.43
13.78
13.96
14.01
13.98
13.93
13.94
14.05
14.21
14.32
14.27
13.92
13.18
11.96
10.21
7.93
5.19
2.20
-0.85
-3.75
-6.36
-8.57
-10.26
-11.32
-11.70
-11.47
-10.85
-10.11
-9.51
-9.14
-8.96
-8.83
-8.63
-8.36
-8.06
-7.79
-7.46
-6.91
-5.91
-4.34
-2.25
0.09
2.33
4.11
5.30
5.97
6.37
6.73
7.13
7.49
7.62
7.43
7.01
6.71
6.94
8.07
10.28
13.48
17.37
21.51
25.36
28.43
30.28
30.66
29.54
27.15
23.93
20.39
16.97
13.94
11.41
9.32
7.55
5.97
4.49
3.03
1.59
0.18
-1.15
-2.31
-3.15
-3.57
-3.55
-3.20
-2.82
-2.83
-3.66
-5.58
-8.56
-12.19
-15.80
-18.62
-20.10
-20.01
-18.56
-16.19
-13.43
-10.69
-8.16
-5.87
-3.78
-1.87
-0.18
1.20
2.22
2.89
3.31
3.61
3.93
4.36
4.92
5.58
6.26
6.84
7.21
7.28
7.00
6.41
5.57
4.52
3.23
1.58
-0.56
-3.23
-6.23
-9.15
-11.44
-12.63
-12.52
-11.25
-9.22
-6.92
-4.71
-2.78
-1.13
0.34
1.67
2.92
4.06
5.09
6.03
6.93
7.78
8.54
9.12
9.43
9.40
9.03
8.35
7.43
6.33
5.06
3.59
1.90
-0.02
-2.14
-4.38
-6.63
-8.79
-10.75
-12.44
-13.70
-14.38
-14.30
-13.34
-11.50
-8.94
-5.94
-2.84
0.03
2.45
4.30
5.54
6.21
6.39
6.26
6.06
6.06
6.48
7.37
8.60
9.93
11.08
11.87
12.24
12.24
11.94
11.43
10.74
9.86
8.77
7.41
5.74
3.78
1.64
-0.38
-1.90
-2.55
-2.16
-0.84
1.09
3.16
5.01
6.45
7.45
8.09
8.43
8.49
8.24
7.70
6.94
6.14
5.50
5.13
5.02
5.00
4.84
4.30
3.32
1.94
0.35
-1.25
-2.69
-3.95
-5.10
-6.20
-7.34
-8.59
-10.01
-11.64
-13.47
-15.35
-16.96
-17.91
-17.81
-16.50
-14.12
-11.09
-7.92
-5.09
-2.86
-1.26
-0.17
0.55
1.01
1.22
1.18
0.86
0.35
-0.25
-0.77
-1.11
-1.26
-1.30
-1.39
-1.62
-2.02
-2.49
-2.88
-3.09
-3.13
-3.15
-3.32
-3.81
-4.68
-5.92
-7.42
-8.94
-10.19
-10.81
-10.52
-9.22
-7.05
-4.37
-1.57
1.06
3.43
5.57
7.55
9.28
10.55
11.17
11.09
10.46
9.63
8.90
8.44
8.15
7.78
7.08
5.91
4.29
2.41
0.43
-1.47
-3.28
-5.02
-6.81
-8.72
-10.82
-13.08
-15.35
-17.40
-18.94
-19.66
-19.36
-18.00
-15.71
-12.83
-9.78
-6.96
-4.64
-2.91
-1.72
-0.95
-0.48
-0.26
-0.21
-0.24
-0.22
-0.06
0.24
0.55
0.65
0.42
-0.15
-0.86
-1.47
-1.83
-1.94
-1.96
-2.13
-2.63
-3.53
-4.80
-6.37
-8.12
-9.89
-11.49
-12.64
-13.13
-12.82
-11.70
-9.91
-7.63
-5.06
-2.37
0.32
2.92
5.33
7.43
9.09
10.16
10.58
10.38
9.70
8.72
7.59
6.36
4.98
3.34
1.38
-0.85
-3.22
-5.53
-7.67
-9.60
-11.40
-13.16
-14.98
-16.86
-18.70
-20.27
-21.28
-21.43
-20.53
-18.61
-15.90
-12.74
-9.49
-6.43
-3.67
-1.25
0.84
2.56
3.86
4.69
5.03
4.93
4.48
3.84
3.18
2.64
2.34
2.30
2.51
2.88
3.36
3.88
4.40
4.90
5.30
5.50
5.37
4.79
3.75
2.39
1.00
-0.02
-0.26
0.51
2.29
4.75
7.43
9.80
11.48
12.27
12.19
11.36
9.98
8.26
6.38
4.54
2.89
1.59
0.74
0.38
0.48
0.94
1.58
2.14
2.37
2.01
0.90
-1.07
-3.89
-7.43
-11.45
-15.57
-19.29
-22.12
-23.64
-23.65
-22.24
-19.74
-16.65
-13.48
-10.67
-8.44
-6.84
-5.79
-5.10
-4.60
-4.06
-3.28
-2.02
-0.11
2.49
5.58
8.74
11.39
12.96
13.15
12.00
9.92
7.49
5.23
3.46
2.21
1.36
0.68
-0.04
-1.01
-2.40
-4.27
-6.48
-8.70
-10.44
-11.20
-10.68
-8.87
-5.98
-2.39
1.51
5.38
8.89
11.75
13.65
14.42
14.03
12.74
10.98
9.28
8.07
7.57
7.67
8.08
8.43
8.47
8.15
7.62
7.08
6.67
6.34
5.87
4.97
3.44
1.25
-1.38
-4.10
-6.49
-8.21
-9.13
-9.31
-9.01
-8.50
-8.00
-7.61
-7.29
-6.95
-6.52
-5.97
-5.30
-4.52
-3.62
-2.59
-1.40
-0.04
1.53
3.32
5.31
7.45
9.54
11.28
12.31
12.36
11.36
9.49
7.04
4.32
1.52
-1.34
-4.18
-6.85
-8.98
-10.15
-10.06
-8.72
-6.51
-4.00
-1.72
0.02
1.21
1.98
2.48
2.72
2.63
2.11
1.26
0.32
-0.36
-0.51
-0.05
0.86
1.95
2.99
3.84
4.52
5.03
5.34
5.30
4.71
3.42
1.40
-1.20
-4.08
-6.90
-9.27
-10.95
-11.81
-11.91
-11.39
-10.42
-9.11
-7.51
-5.65
-3.64
-1.64
0.13
1.54
2.55
3.24
3.74
4.16
4.56
4.95
5.30
5.59
5.76
5.73
5.41
4.77
3.87
2.88
2.02
1.42
1.05
0.73
0.16
-0.95
-2.75
-5.15
-7.81
-10.15
-11.53
-11.41
-9.58
-6.19
-1.79
2.97
7.46
11.34
14.59
17.40
20.01
22.53
24.91
26.96
28.48
29.42
29.84
29.92
29.76
29.43
28.88
28.06
27.01
25.86
24.79
23.89
23.11
22.22
20.92
18.96
16.29
13.06
9.60
6.27
3.43
1.34
0.15
-0.15
0.29
1.14
2.02
2.60
2.66
2.19
1.31
0.28
-0.65
-1.22
-1.19
-0.45
1.01
3.00
5.16
7.03
8.16
8.26
7.29
5.44
3.06
0.55
-1.76
-3.77
-5.52
-7.29
-9.36
-12.00
-15.25
-18.98
-22.81
-26.28
-28.91
-30.31
-30.29
-28.86
-26.22
-22.73
-18.81
-14.85
-11.12
-7.78
-4.86
-2.36
-0.33
1.15
2.02
2.25
1.92
1.23
0.34
-0.60
-1.54
-2.49
-3.49
-4.52
-5.54
-6.51
-7.44
-8.37
-9.40
-10.62
-12.10
-13.85
-15.78
-17.67
-19.11
-19.62
-18.78
-16.38
-12.53
-7.57
-2.00
3.72
9.22
14.25
18.58
21.97
24.23
25.25
25.14
24.17
22.71
21.13
19.69
18.46
17.38
16.28
15.01
13.46
11.63
9.59
7.47
5.36
3.27
1.08
-1.40
-4.32
-7.74
-11.50
-15.25
-18.51
-20.82
-21.80
-21.26
-19.28
-16.16
-12.34
-8.33
-4.56
-1.29
1.34
3.38
4.92
6.06
6.91
7.56
8.12
8.74
9.57
10.66
11.93
13.17
14.09
14.46
14.20
13.41
12.29
11.06
9.79
8.43
6.78
4.64
1.94
-1.19
-4.38
-7.12
-8.82
-9.04
-7.54
-4.44
-0.19
4.51
8.90
12.38
14.62
15.60
15.52
14.67
13.28
11.51
9.51
7.46
5.58
4.10
3.10
2.45
1.88
1.11
-0.03
-1.48
-3.03
-4.43
-5.54
-6.41
-7.19
-8.08
-9.19
-10.47
-11.82
-13.01
-13.85
-14.11
-13.65
-12.34
-10.18
-7.30
-3.96
-0.49
2.72
5.42
7.48
8.98
10.10
11.03
11.84
12.43
12.56
11.98
10.55
8.31
5.50
2.45
-0.49
-3.09
-5.20
-6.75
-7.70
-8.06
-7.85
-7.20
-6.33
-5.58
-5.37
-6.10
-8.07
-11.28
-15.39
-19.68
-23.25
-25.23
-25.08
-22.81
-18.94
-14.37
-10.03
-6.60
-4.35
-3.20
-2.77
-2.64
-2.41
-1.79
-0.60
1.17
3.39
5.69
7.58
8.53
8.18
6.50
3.85
0.86
-1.81
-3.60
-4.31
-4.03
-3.07
-1.87
-0.84
-0.27
-0.29
-0.87
-1.81
-2.81
-3.54
-3.74
-3.29
-2.22
-0.65
1.25
3.31
5.40
7.39
9.18
10.68
11.85
12.71
13.22
13.39
13.19
12.62
11.76
10.76
9.77
8.93
8.27
7.79
7.41
7.05
6.66
6.11
5.24
3.90
1.95
-0.65
-3.81
-7.32
-10.85
-14.02
-16.39
-17.53
-17.19
-15.38
-12.39
-8.73
-5.01
-1.72
0.83
2.53
3.42
3.58
3.13
2.21
1.00
-0.21
-1.16
-1.66
-1.73
-1.61
-1.63
-2.09
-3.08
-4.49
-6.02
-7.41
-8.52
-9.42
-10.27
-11.26
-12.45
-13.80
-15.18
-16.41
-17.25
-17.46
-16.73
-14.79
-11.53
-7.10
-1.93
3.39
8.23
12.18
15.09
17.15
18.66
19.98
21.34
22.81
24.25
25.40
25.97
25.72
24.53
22.50
19.87
17.00
14.24
11.85
9.88
8.19
6.49
4.40
1.65
-1.80
-5.63
-9.20
-11.69
-12.44
-11.17
-8.17
-4.22
-0.25
3.04
5.52
7.63
10.16
13.83
18.83
24.68
30.34
34.64
36.61
35.80
32.23
26.32
18.74
10.41
2.39
-4.18
-8.36
-9.69
-8.44
-5.54
-2.31
-0.06
0.33
-1.40
-4.84
-9.10
-13.07
-15.74
-16.42
-14.94
-11.57
-6.95
-1.82
3.18
7.57
11.05
13.48
14.80
15.05
14.33
12.89
11.04
9.10
7.35
5.89
4.63
3.28
1.47
-1.09
-4.50
-8.56
-12.93
-17.30
-21.58
-25.87
-30.43
-35.39
-40.60
-45.62
-49.89
-52.99
-54.78
-55.46
-55.39
-54.87
-53.97
-52.54
-50.31
-47.12
-42.97
-38.08
-32.78
-27.32
-21.87
-16.54
-11.39
-6.60
-2.42
0.91
3.25
4.64
5.26
5.35
5.10
4.55
3.60
2.09
-0.09
-2.94
-6.26
-9.61
-12.47
-14.26
-14.57
-13.26
-10.49
-6.66
-2.30
2.16
6.38
10.18
13.42
16.01
17.88
19.05
19.64
19.83
19.79
19.59
19.18
18.43
17.24
15.67
13.87
12.11
10.59
9.36
8.35
7.32
6.04
4.31
2.06
-0.61
-3.46
-6.14
-8.25
-9.43
-9.43
-8.18
-5.82
-2.67
0.87
4.37
7.47
9.98
11.81
13.00
13.61
13.73
13.45
12.88
12.12
11.30
10.50
9.78
9.11
8.40
7.54
6.45
5.12
3.60
1.99
0.36
-1.32
-3.18
-5.30
-7.67
-10.01
-11.84
-12.61
-11.95
-9.80
-6.52
-2.75
0.81
3.66
5.62
6.79
7.47
7.93
8.32
8.64
8.78
8.64
8.21
7.59
6.95
6.41
6.07
5.89
5.80
5.67
5.36
4.74
3.63
1.89
-0.55
-3.60
-6.93
-10.06
-12.45
-13.68
-13.57
-12.26
-10.15
-7.73
-5.44
-3.51
-1.95
-0.66
0.41
1.24
1.72
1.75
1.36
0.70
-0.02
-0.62
-1.01
-1.27
-1.50
-1.79
-2.18
-2.65
-3.22
-3.99
-5.10
-6.69
-8.74
-11.10
-13.42
-15.23
-16.11
-15.75
-14.09
-11.34
-7.96
-4.51
-1.51
0.72
2.13
2.88
3.25
3.47
3.61
3.61
3.32
2.62
1.52
0.18
-1.15
-2.26
-3.13
-3.83
-4.55
-5.42
-6.48
-7.69
-8.96
-10.25
-11.51
-12.68
-13.59
-13.96
-13.43
-11.80
-9.11
-5.68
-2.01
1.42
4.30
6.58
8.34
9.70
10.72
11.35
11.53
11.23
10.54
9.64
8.69
7.79
6.93
6.01
4.95
3.72
2.39
1.03
-0.34
-1.77
-3.37
-5.21
-7.22
-9.06
-10.30
-10.52
-9.46
-7.22
-4.13
-0.67
2.69
5.66
8.08
9.95
11.31
12.20
12.62
12.57
12.06
11.16
10.02
8.83
7.76
6.95
6.43
6.09
5.81
5.41
4.74
3.71
2.25
0.37
-1.78
-3.90
-5.54
-6.17
-5.44
-3.22
0.28
4.62
9.29
13.82
17.92
21.40
24.16
26.11
27.19
27.42
26.85
25.60
23.84
21.70
19.31
16.78
14.19
11.58
8.96
6.32
3.71
1.17
-1.21
-3.47
-5.71
-8.13
-10.85
-13.76
-16.47
-18.39
-18.93
-17.77
-15.06
-11.30
-7.23
-3.53
-0.63
1.36
2.53
3.12
3.31
3.22
2.88
2.34
1.64
0.88
0.12
-0.57
-1.17
-1.71
-2.25
-2.85
-3.59
-4.54
-5.74
-7.23
-9.05
-11.19
-13.61
-16.08
-18.26
-19.66
-19.82
-18.48
-15.67
-11.81
-7.49
-3.34
0.14
2.75
4.52
5.65
6.36
6.86
7.19
7.32
7.21
6.81
6.18
5.42
4.67
3.98
3.33
2.64
1.78
0.67
-0.74
-2.49
-4.57
-6.94
-9.44
-11.77
-13.47
-14.09
-13.31
-11.12
-7.79
-3.82
0.18
3.73
6.54
8.52
9.78
10.47
10.74
10.67
10.30
9.64
8.73
7.60
6.34
5.00
3.67
2.39
1.20
0.12
-0.91
-2.01
-3.37
-5.20
-7.62
-10.56
-13.74
-16.58
-18.46
-18.86
-17.55
-14.70
-10.78
-6.46
-2.32
1.19
3.84
5.58
6.43
6.52
6.02
5.13
4.05
2.88
1.62
0.20
-1.47
-3.43
-5.64
-8.01
-10.46
-12.97
-15.57
-18.34
-21.36
-24.73
-28.49
-32.64
-37.04
-41.33
-44.99
-47.38
-48.00
-46.56
-43.15
-38.10
-31.86
-24.87
-17.41
-9.71
-2.01
5.42
12.24
18.18
23.09
26.93
29.75
31.63
32.62
32.81
32.31
31.26
29.82
28.07
26.03
23.64
20.79
17.44
13.64
9.55
5.51
1.95
-0.66
-1.89
-1.57
0.20
3.07
6.49
9.91
12.97
15.48
17.40
18.79
19.62
19.85
19.45
18.49
17.19
15.92
15.02
14.72
14.98
15.50
15.81
15.41
13.97
11.39
7.74
3.24
-1.88
-7.32
-12.72
-17.60
-21.40
-23.64
-24.05
-22.75
-20.16
-16.86
-13.38
-10.06
-7.01
-4.26
-1.87
-0.05
0.97
1.03
0.17
-1.33
-3.06
-4.59
-5.59
-5.97
-5.81
-5.31
-4.71
-4.21
-3.97
-4.12
-4.79
-6.13
-8.21
-10.96
-14.06
-16.98
-19.08
-19.74
-18.64
-15.80
-11.57
-6.49
-1.09
4.24
9.28
13.91
18.10
21.77
24.88
27.36
29.21
30.44
31.14
31.33
31.03
30.22
28.86
26.95
24.55
21.78
18.77
15.63
12.38
9.00
5.49
2.01
-1.14
-3.54
-4.81
-4.76
-3.49
-1.44
0.84
2.77
4.02
4.50
4.36
3.88
3.28
2.67
2.03
1.29
0.42
-0.50
-1.28
-1.72
-1.65
-1.06
-0.05
1.14
2.27
3.06
3.28
2.74
1.30
-0.99
-3.87
-6.79
-9.03
-9.86
-8.84
-5.91
-1.51
3.67
8.84
13.40
16.97
19.44
20.87
21.42
21.28
20.66
19.77
18.83
17.93
17.08
16.22
15.20
13.93
12.41
10.72
8.96
7.20
5.38
3.30
0.70
-2.58
-6.44
-10.44
-13.88
-15.96
-16.10
-14.12
-10.37
-5.61
-0.75
3.38
6.25
7.68
7.79
6.84
5.20
3.23
1.28
-0.34
-1.47
-2.12
-2.48
-2.83
-3.44
-4.40
-5.65
-7.02
-8.39
-9.77
-11.31
-13.24
-15.73
-18.75
-22.01
-24.95
-26.86
-26.98
-24.81
-20.32
-13.96
-6.69
0.40
6.41
10.92
14.03
16.15
17.79
19.23
20.53
21.51
21.98
21.90
21.36
20.52
19.57
18.55
17.44
16.16
14.66
12.93
10.95
8.62
5.72
2.08
-2.28
-6.98
-11.27
-14.25
-15.23
-14.00
-10.96
-6.89
-2.66
1.07
4.06
6.34
8.05
9.30
10.05
10.24
9.85
8.96
7.74
6.41
5.15
4.04
3.07
2.14
1.10
-0.19
-1.79
-3.72
-5.94
-8.42
-11.14
-14.09
-17.11
-19.88
-21.90
-22.61
-21.63
-18.93
-14.89
-10.15
-5.39
-1.13
2.42
5.26
7.54
9.36
10.69
11.43
11.46
10.74
9.44
7.79
6.03
4.32
2.66
0.95
-0.90
-2.92
-5.11
-7.42
-9.88
-12.57
-15.55
-18.78
-22.00
-24.71
-26.30
-26.21
-24.13
-20.17
-14.81
-8.81
-2.97
2.11
6.19
9.34
11.85
13.94
15.65
16.86
17.33
16.94
15.78
14.18
12.52
11.15
10.13
9.30
8.36
6.99
5.03
2.50
-0.40
-3.49
-6.55
-9.40
-11.86
-13.69
-14.58
-14.26
-12.56
-9.57
-5.64
-1.33
2.77
6.17
8.61
10.11
10.79
10.84
10.41
9.56
8.36
6.93
5.48
4.25
3.43
3.09
3.13
3.33
3.42
3.17
2.41
1.12
-0.65
-2.80
-5.16
-7.50
-9.56
-11.01
-11.58
-11.05
-9.38
-6.70
-3.32
0.34
3.88
6.98
9.47
11.37
12.81
13.95
14.85
15.50
15.79
15.59
14.92
13.87
12.59
11.21
9.75
8.16
6.34
4.32
2.18
0.02
-2.14
-4.35
-6.68
-9.01
-11.03
-12.24
-12.19
-10.74
-8.10
-4.83
-1.63
0.99
2.82
4.00
4.83
5.64
6.57
7.63
8.64
9.38
9.70
9.56
9.10
8.59
8.29
8.35
8.68
9.02
9.00
8.31
6.77
4.46
1.62
-1.40
-4.22
-6.48
-7.87
-8.17
-7.29
-5.40
-2.81
-0.00
2.56
4.54
5.86
6.61
7.01
7.23
7.33
7.11
6.29
4.63
2.19
-0.64
-3.11
-4.47
-4.22
-2.38
0.59
3.90
6.79
8.69
9.29
8.44
6.16
2.64
-1.65
-5.89
-9.07
-10.24
-8.88
-5.12
0.22
5.91
10.75
13.92
15.19
14.96
13.97
13.00
12.60
12.89
13.61
14.24
14.21
13.13
10.86
7.55
3.53
-0.83
-5.18
-9.28
-12.94
-16.01
-18.45
-20.34
-22.00
-23.83
-26.21
-29.16
-32.28
-34.79
-35.86
-34.92
-31.98
-27.63
-22.74
-18.23
-14.72
-12.49
-11.51
-11.60
-12.56
-14.24
-16.48
-19.07
-21.70
-24.02
-25.68
-26.44
-26.25
-25.24
-23.72
-22.04
-20.47
-19.15
-18.06
-17.09
-16.12
-15.08
-13.92
-12.61
-10.99
-8.76
-5.60
-1.27
4.18
10.32
16.40
21.55
25.10
26.73
26.54
24.87
22.19
18.92
15.45
12.19
9.59
8.10
7.97
9.10
11.06
13.17
14.81
15.63
15.56
14.73
13.19
10.79
7.17
1.97
-4.81
-12.60
-20.30
-26.55
-30.21
-30.70
-28.18
-23.42
-17.45
-11.23
-5.45
-0.50
3.40
6.13
7.59
7.78
6.88
5.25
3.36
1.67
0.50
-0.04
-0.03
0.31
0.76
1.11
1.26
1.13
0.66
-0.25
-1.70
-3.73
-6.29
-9.12
-11.78
-13.73
-14.44
-13.52
-10.86
-6.64
-1.34
4.37
9.76
14.17
17.12
18.41
18.05
16.25
13.28
9.47
5.14
0.60
-3.86
-7.98
-11.61
-14.76
-17.54
-20.12
-22.55
-24.77
-26.61
-27.89
-28.55
-28.74
-28.81
-29.15
-30.00
-31.34
-32.79
-33.82
-33.95
-32.91
-30.83
-28.07
-25.12
-22.38
-20.03
-18.11
-16.53
-15.17
-13.95
-12.82
-11.68
-10.44
-8.96
-7.11
-4.72
-1.70
1.96
6.11
10.48
14.75
18.61
21.87
24.35
25.93
26.41
25.61
23.47
20.13
15.94
11.46
7.21
3.60
0.80
-1.20
-2.56
-3.50
-4.16
-4.64
-4.91
-4.91
-4.55
-3.84
-2.79
-1.49
0.07
1.93
4.12
6.51
8.85
10.76
11.90
12.17
11.69
10.79
9.76
8.76
7.82
6.87
6.00
5.41
5.38
6.11
7.62
9.69
11.97
14.12
15.91
17.26
18.21
18.87
19.31
19.62
19.80
19.82
19.57
18.92
17.82
16.29
14.52
12.73
11.15
9.92
9.00
8.26
7.52
6.57
5.25
3.48
1.30
-1.08
-3.24
-4.67
-4.93
-3.79
-1.30
2.19
6.23
10.40
14.39
18.01
21.19
23.89
26.09
27.86
29.30
30.59
31.84
33.08
34.18
34.95
35.19
34.77
33.70
32.03
29.86
27.21
24.06
20.40
16.19
11.46
6.26
0.68
-5.17
-11.06
-16.62
-21.36
-24.77
-26.50
-26.46
-24.95
-22.46
-19.54
-16.62
-13.88
-11.38
-9.15
-7.30
-6.00
-5.41
-5.51
-6.10
-6.86
-7.49
-7.87
-8.04
-8.17
-8.44
-8.95
-9.73
-10.73
-11.89
-13.11
-14.32
-15.43
-16.39
-17.20
-17.98
-18.87
-20.00
-21.35
-22.80
-24.07
-24.83
-24.77
-23.67
-21.49
-18.32
-14.44
-10.22
-6.07
-2.34
0.73
3.07
4.73
5.89
6.71
7.33
7.82
8.20
8.46
8.56
8.48
8.17
7.59
6.74
5.65
4.42
3.12
1.86
0.67
-0.40
-1.39
-2.32
-3.28
-4.34
-5.55
-6.87
-8.14
-9.09
-9.39
-8.81
-7.30
-5.00
-2.26
0.56
3.12
5.25
6.95
8.30
9.42
10.33
11.01
11.42
11.54
11.46
11.26
11.04
10.80
10.48
10.03
9.44
8.78
8.18
7.71
7.35
6.97
6.45
5.69
4.69
3.51
2.24
0.93
-0.40
-1.70
-2.87
-3.76
-4.15
-3.93
-3.07
-1.69
-0.04
1.65
3.19
4.46
5.48
6.34
7.10
7.77
8.27
8.51
8.47
8.17
7.74
7.34
7.09
7.01
7.02
6.96
6.69
6.15
5.38
4.52
3.70
3.00
2.38
1.76
1.00
0.04
-1.09
-2.28
-3.34
-4.15
-4.62
-4.71
-4.41
-3.76
-2.84
-1.77
-0.69
0.22
0.88
1.26
1.36
1.21
0.80
0.11
-0.88
-2.08
-3.35
-4.46
-5.20
-5.47
-5.34
-4.94
-4.49
-4.16
-4.04
-4.15
-4.45
-4.90
-5.48
-6.15
-6.88
-7.61
-8.26
-8.81
-9.27
-9.69
-10.07
-10.42
-10.62
-10.59
-10.26
-9.61
-8.71
-7.63
-6.40
-5.03
-3.49
-1.79
-0.05
1.55
2.81
3.61
3.94
3.91
3.70
3.49
3.38
3.39
3.49
3.63
3.76
3.86
3.95
4.03
4.12
4.15
4.04
3.69
3.00
1.95
0.57
-1.02
-2.70
-4.34
-5.79
-6.92
-7.61
-7.75
-7.31
-6.37
-5.16
-3.95
-3.01
-2.47
-2.29
-2.34
-2.41
-2.40
-2.30
-2.20
-2.21
-2.38
-2.69
-3.01
-3.23
-3.25
-3.06
-2.74
-2.41
-2.17
-2.11
-2.22
-2.45
-2.71
-2.95
-3.19
-3.48
-3.92
-4.55
-5.34
-6.21
-7.00
-7.55
-7.74
-7.48
-6.80
-5.76
-4.49
-3.14
-1.84
-0.69
0.27
1.02
1.54
1.79
1.76
1.47
0.99
0.42
-0.14
-0.65
-1.09
-1.48
-1.85
-2.23
-2.63
-3.04
-3.44
-3.80
-4.10
-4.35
-4.62
-5.01
-5.61
-6.50
-7.67
-8.98
-10.20
-11.05
-11.24
-10.59
-9.08
-6.89
-4.37
-1.90
0.17
1.68
2.66
3.24
3.61
3.89
4.08
4.14
4.02
3.74
3.36
3.00
2.70
2.46
2.21
1.89
1.40
0.74
-0.08
-1.03
-2.05
-3.14
-4.32
-5.65
-7.21
-9.12
-11.42
-14.05
-16.83
-19.41
-21.41
-22.53
-22.66
-21.97
-20.79
-19.53
-18.49
-17.81
-17.52
-17.54
-17.86
-18.48
-19.35
-20.33
-21.09
-21.24
-20.48
-18.66
-15.88
-12.36
-8.34
-4.00
0.57
5.26
9.90
14.23
17.92
20.72
22.46
23.18
22.97
22.01
20.47
18.54
16.38
14.23
12.33
10.86
9.92
9.48
9.40
9.50
9.68
9.87
10.10
10.40
10.76
11.13
11.40
11.45
11.22
10.68
9.91
9.03
8.20
7.53
7.07
6.77
6.50
6.09
5.44
4.53
3.47
2.37
1.35
0.41
-0.54
-1.63
-2.95
-4.54
-6.33
-8.22
-10.05
-11.65
-12.83
-13.40
-13.21
-12.20
-10.44
-8.14
-5.59
-3.06
-0.75
1.25
2.97
4.44
5.68
6.63
7.22
7.44
7.35
7.11
6.88
6.76
6.75
6.72
6.51
6.01
5.19
4.14
2.96
1.77
0.56
-0.69
-2.00
-3.41
-4.90
-6.46
-8.08
-9.70
-11.24
-12.47
-13.17
-13.13
-12.23
-10.54
-8.18
-5.35
-2.23
1.00
4.19
7.14
9.66
11.59
12.86
13.53
13.73
13.60
13.26
12.75
12.10
11.35
10.55
9.80
9.16
8.65
8.23
7.78
7.23
6.51
5.66
4.74
3.78
2.75
1.52
-0.05
-2.02
-4.23
-6.32
-7.85
-8.41
-7.80
-6.12
-3.64
-0.77
2.14
4.82
7.12
8.99
10.41
11.41
12.11
12.62
13.05
13.45
13.77
13.90
13.75
13.30
12.56
11.59
10.44
9.11
7.56
5.76
3.73
1.48
-0.94
-3.54
-6.39
-9.51
-12.87
-16.24
-19.24
-21.44
-22.44
-22.07
-20.41
-17.78
-14.61
-11.35
-8.38
-5.96
-4.27
-3.37
-3.23
-3.67
-4.44
-5.24
-5.90
-6.34
-6.61
-6.85
-7.21
-7.75
-8.47
-9.29
-10.06
-10.64
-10.95
-11.03
-11.03
-11.22
-11.92
-13.31
-15.37
-17.77
-19.97
-21.35
-21.42
-20.01
-17.23
-13.45
-9.11
-4.63
-0.29
3.74
7.38
10.59
13.35
15.65
17.52
18.98
20.05
20.74
21.03
20.87
20.25
19.21
17.83
16.29
14.74
13.30
11.98
10.70
9.29
7.62
5.57
3.08
0.14
-3.18
-6.69
-10.06
-12.87
-14.70
-15.29
-14.60
-12.84
-10.32
-7.40
-4.33
-1.30
1.59
4.26
6.63
8.68
10.40
11.81
12.94
13.79
14.40
14.78
15.00
15.15
15.26
15.32
15.23
14.90
14.22
13.21
11.89
10.29
8.42
6.23
3.69
0.89
-1.93
-4.43
-6.22
-7.00
-6.66
-5.25
-3.02
-0.30
2.57
5.25
7.50
9.15
10.20
10.70
10.82
10.68
10.39
9.97
9.45
8.83
8.11
7.35
6.58
5.84
5.17
4.55
3.92
3.18
2.18
0.79
-1.07
-3.37
-5.92
-8.39
-10.37
-11.50
-11.51
-10.37
-8.23
-5.40
-2.32
0.65
3.19
5.16
6.50
7.29
7.66
7.72
7.57
7.26
6.79
6.12
5.24
4.15
2.87
1.42
-0.18
-1.94
-3.83
-5.84
-7.92
-10.09
-12.42
-15.03
-18.03
-21.39
-24.83
-27.87
-29.93
-30.56
-29.61
-27.35
-24.35
-21.27
-18.58
-16.50
-14.86
-13.33
-11.48
-8.99
-5.70
-1.60
3.15
8.27
13.46
18.37
22.74
26.36
29.17
31.14
32.32
32.80
32.65
31.93
30.64
28.72
26.07
22.65
18.57
14.21
10.13
6.95
5.14
4.85
5.86
7.71
9.85
11.83
13.40
14.48
15.12
15.39
15.37
15.14
14.73
14.17
13.44
12.48
11.22
9.64
7.79
5.75
3.64
1.56
-0.44
-2.32
-4.10
-5.79
-7.44
-9.14
-10.98
-13.03
-15.22
-17.30
-18.86
-19.45
-18.80
-16.90
-14.08
-10.84
-7.66
-4.81
-2.31
-0.03
2.19
4.36
6.35
7.95
9.02
9.59
9.83
9.99
10.21
10.51
10.76
10.78
10.47
9.87
9.13
8.44
7.86
7.26
6.40
5.02
2.99
0.47
-2.15
-4.33
-5.60
-5.68
-4.61
-2.67
-0.26
2.22
4.51
6.48
8.09
9.35
10.21
10.66
10.74
10.56
10.31
10.15
10.12
10.16
10.09
9.77
9.14
8.27
7.28
6.25
5.19
4.00
2.56
0.78
-1.31
-3.56
-5.75
-7.58
-8.78
-9.17
-8.69
-7.43
-5.61
-3.50
-1.34
0.67
2.44
3.92
5.15
6.16
7.00
7.72
8.36
8.91
9.27
9.33
8.96
8.10
6.84
5.39
4.03
3.01
2.43
2.22
2.13
1.86
1.17
-0.03
-1.68
-3.51
-5.21
-6.46
-7.03
-6.80
-5.79
-4.14
-2.08
0.10
2.12
3.74
4.85
5.42
5.57
5.48
5.29
5.12
4.98
4.84
4.67
4.45
4.17
3.88
3.57
3.29
3.04
2.84
2.65
2.38
1.93
1.20
0.22
-0.86
-1.74
-2.10
-1.70
-0.45
1.53
3.97
6.53
8.91
10.86
12.28
13.20
13.72
13.94
13.92
13.68
13.20
12.55
11.85
11.28
10.94
10.83
10.76
10.48
9.78
8.63
7.16
5.57
4.02
2.52
0.99
-0.63
-2.26
-3.68
-4.61
-4.84
-4.37
-3.36
-2.12
-0.92
0.06
0.72
1.05
1.05
0.69
-0.06
-1.13
-2.37
-3.54
-4.41
-4.87
-4.97
-4.95
-5.12
-5.68
-6.64
-7.79
-8.78
-9.31
-9.27
-8.77
-8.07
-7.38
-6.74
-6.04
-5.10
-3.84
-2.31
-0.71
0.77
2.05
3.17
4.23
5.28
6.24
6.96
7.26
7.05
6.32
5.21
3.90
2.61
1.51
0.72
0.26
0.02
-0.19
-0.63
-1.55
-3.06
-5.14
-7.63
-10.23
-12.55
-14.25
-15.05
-14.88
-13.88
-12.32
-10.55
-8.82
-7.26
-5.88
-4.61
-3.42
-2.30
-1.32
-0.57
-0.12
-0.05
-0.35
-0.97
-1.78
-2.61
-3.29
-3.68
-3.77
-3.66
-3.51
-3.51
-3.80
-4.41
-5.31
-6.43
-7.68
-8.94
-10.05
-10.80
-10.96
-10.42
-9.16
-7.36
-5.26
-3.10
-1.05
0.84
2.52
3.96
5.03
5.60
5.59
5.04
4.14
3.16
2.34
1.83
1.65
1.75
2.02
2.41
2.84
3.25
3.59
3.76
3.76
3.66
3.63
3.89
4.60
5.75
7.16
8.54
9.61
10.23
10.46
10.43
10.35
10.38
10.63
11.15
11.95
12.95
13.96
14.72
14.91
14.30
12.80
10.50
7.62
4.40
1.01
-2.41
-5.78
-8.96
-11.77
-14.03
-15.60
-16.43
-16.53
-15.97
-14.84
-13.28
-11.50
-9.78
-8.43
-7.68
-7.58
-7.97
-8.62
-9.25
-9.78
-10.27
-10.86
-11.68
-12.75
-13.97
-15.21
-16.31
-17.10
-17.46
-17.30
-16.61
-15.48
-14.16
-12.86
-11.82
-11.12
-10.83
-10.97
-11.55
-12.50
-13.67
-14.78
-15.51
-15.64
-15.13
-14.12
-12.83
-11.44
-10.02
-8.53
-6.95
-5.31
-3.79
-2.62
-1.96
-1.85
-2.16
-2.62
-3.01
-3.18
-3.08
-2.79
-2.42
-2.06
-1.81
-1.82
-2.29
-3.51
-5.73
-9.02
-13.22
-17.91
-22.45
-26.21
-28.77
-29.98
-30.03
-29.31
-28.19
-26.86
-25.34
-23.52
-21.34
-18.88
-16.43
-14.27
-12.59
-11.41
-10.53
-9.72
-8.77
-7.61
-6.27
-4.85
-3.43
-2.08
-0.85
0.18
0.95
1.44
1.65
1.63
1.41
1.03
0.49
-0.19
-0.96
-1.66
-2.14
-2.26
-1.95
-1.25
-0.28
0.85
2.05
3.34
4.81
6.56
8.73
11.37
14.48
17.92
21.55
25.13
28.45
31.33
33.64
35.35
36.49
37.14
37.38
37.25
36.78
35.98
34.87
33.47
31.79
29.81
27.50
24.82
21.81
18.60
15.34
12.25
9.46
6.97
4.76
2.72
0.78
-1.07
-2.79
-4.28
-5.45
-6.23
-6.56
-6.42
-5.81
-4.77
-3.42
-1.87
-0.29
1.18
2.44
3.33
3.72
3.46
2.51
0.97
-0.91
-2.80
-4.39
-5.56
-6.36
-6.99
-7.67
-8.53
-9.59
-10.78
-12.04
-13.35
-14.69
-16.05
-17.37
-18.61
-19.73
-20.74
-21.63
-22.39
-22.92
-23.04
-22.63
-21.63
-20.08
-18.14
-15.99
-13.80
-11.69
-9.73
-8.01
-6.57
-5.44
-4.57
-3.87
-3.25
-2.68
-2.21
-1.91
-1.87
-2.13
-2.66
-3.47
-4.57
-6.01
-7.78
-9.81
-11.97
-14.08
-16.03
-17.75
-19.21
-20.40
-21.27
-21.75
-21.78
-21.38
-20.57
-19.39
-17.79
-15.68
-13.02
-9.89
-6.53
-3.23
-0.31
2.08
3.89
5.24
6.21
6.90
7.35
7.58
7.57
7.36
6.94
6.37
5.72
5.12
4.72
4.64
4.84
5.12
5.17
4.65
3.39
1.44
-0.92
-3.25
-5.14
-6.35
-6.90
-6.98
-6.91
-6.94
-7.13
-7.32
-7.24
-6.60
-5.35
-3.62
-1.73
-0.04
1.24
2.12
2.77
3.34
3.84
4.06
3.72
2.63
0.86
-1.24
-3.14
-4.44
-4.98
-4.96
-4.75
-4.75
-5.10
-5.65
-6.05
-5.98
-5.31
-4.16
-2.87
-1.75
-1.01
-0.67
-0.59
-0.63
-0.70
-0.76
-0.86
-0.99
-1.07
-1.01
-0.71
-0.15
0.64
1.57
2.59
3.61
4.59
5.43
6.06
6.40
6.44
6.21
5.82
5.37
4.95
4.60
4.31
4.11
3.97
3.96
4.12
4.53
5.23
6.19
7.33
8.46
9.35
9.77
9.54
8.61
7.06
5.08
2.91
0.79
-1.08
-2.60
-3.71
-4.47
-4.98
-5.38
-5.83
-6.48
-7.43
-8.75
-10.40
-12.26
-14.10
-15.60
-16.46
-16.48
-15.56
-13.82
-11.49
-8.85
-6.15
-3.56
-1.20
0.86
2.54
3.78
4.60
5.06
5.28
5.40
5.52
5.67
5.80
5.81
5.62
5.17
4.49
3.65
2.78
1.96
1.23
0.60
0.00
-0.62
-1.32
-2.08
-2.85
-3.46
-3.74
-3.56
-2.85
-1.70
-0.30
1.13
2.46
3.63
4.70
5.72
6.69
7.51
8.05
8.21
7.99
7.50
6.91
6.41
6.06
5.85
5.65
5.27
4.54
3.33
1.60
-0.63
-3.25
-6.07
-8.83
-11.25
-13.05
-14.09
-14.36
-13.99
-13.18
-12.09
-10.79
-9.22
-7.30
-4.99
-2.40
0.25
2.67
4.59
5.80
6.26
6.03
5.35
4.54
3.96
3.88
4.44
5.54
6.92
8.24
9.19
9.60
9.48
8.93
8.10
7.07
5.89
4.66
3.54
2.75
2.47
2.81
3.66
4.80
5.95
6.92
7.63
8.10
8.36
8.40
8.10
7.34
6.09
4.44
2.66
1.04
-0.24
-1.15
-1.84
-2.51
-3.29
-4.14
-4.92
-5.48
-5.74
-5.81
-5.88
-6.10
-6.53
-7.10
-7.62
-7.91
-7.85
-7.40
-6.60
-5.53
-4.30
-2.99
-1.67
-0.37
0.87
2.02
2.97
3.60
3.78
3.43
2.59
1.42
0.17
-0.93
-1.78
-2.46
-3.16
-4.11
-5.50
-7.38
-9.66
-12.14
-14.52
-16.43
-17.47
-17.28
-15.65
-12.63
-8.52
-3.87
0.74
4.80
8.05
10.46
12.22
13.59
14.76
15.79
16.62
17.14
17.26
17.01
16.46
15.72
14.83
13.75
12.43
10.81
8.91
6.81
4.56
2.18
-0.34
-2.99
-5.64
-8.02
-9.76
-10.55
-10.16
-8.55
-5.91
-2.55
1.15
4.83
8.19
11.04
13.31
15.01
16.23
17.10
17.76
18.31
18.76
19.07
19.14
18.93
18.48
17.92
17.42
17.11
17.01
17.01
16.90
16.44
15.44
13.84
11.73
9.34
7.00
5.04
3.69
3.02
2.96
3.26
3.68
4.02
4.17
4.12
3.92
3.61
3.20
2.69
2.11
1.51
1.00
0.62
0.40
0.27
0.15
-0.09
-0.52
-1.22
-2.28
-3.72
-5.55
-7.56
-9.37
-10.40
-10.05
-7.90
-3.94
1.39
7.33
13.02
17.78
21.30
23.63
25.05
25.90
26.42
26.71
26.81
26.73
26.52
26.24
25.88
25.34
24.46
23.05
20.98
18.22
14.87
11.11
7.20
3.41
-0.03
-2.98
-5.42
-7.40
-8.96
-10.05
-10.53
-10.26
-9.18
-7.41
-5.26
-3.07
-1.15
0.34
1.38
2.04
2.36
2.34
1.94
1.17
0.10
-1.11
-2.22
-3.08
-3.61
-3.86
-3.96
-4.04
-4.24
-4.65
-5.32
-6.28
-7.46
-8.71
-9.70
-10.09
-9.63
-8.27
-6.23
-3.93
-1.86
-0.43
0.12
-0.28
-1.50
-3.29
-5.27
-7.02
-8.15
-8.39
-7.70
-6.23
-4.29
-2.22
-0.29
1.35
2.67
3.74
4.62
5.36
6.04
6.69
7.39
8.23
9.26
10.46
11.81
13.19
14.55
15.88
17.23
18.62
20.04
21.43
22.66
23.63
24.29
24.64
24.75
24.63
24.29
23.72
22.94
22.05
21.17
20.40
19.77
19.22
18.62
17.88
17.03
16.17
15.49
15.11
15.04
15.12
15.07
14.61
13.56
11.95
10.03
8.14
6.63
5.65
5.20
5.10
5.15
5.18
5.10
4.85
4.32
3.39
1.92
-0.10
-2.54
-5.09
-7.36
-9.01
-9.86
-9.90
-9.29
-8.26
-7.09
-6.07
-5.50
-5.69
-6.86
-9.16
-12.53
-16.75
-21.41
-26.04
-30.16
-33.42
-35.66
-36.89
-37.30
-37.16
-36.78
-36.52
-36.69
-37.60
-39.43
-42.16
-45.53
-49.03
-52.06
-54.17
-55.12
-55.05
-54.31
-53.30
-52.39
-51.84
-51.80
-52.41
-53.70
-55.52
-57.46
-58.85
-58.94
-57.12
-53.20
-47.44
-40.48
-33.07
-25.88
-19.25
-13.30
-8.03
-3.42
0.40
3.32
5.31
6.49
7.10
7.45
7.74
8.10
8.57
9.17
9.87
10.61
11.26
11.59
11.29
10.05
7.63
4.05
-0.41
-5.16
-9.40
-12.33
-13.33
-12.22
-9.28
-5.21
-0.89
2.84
5.42
6.62
6.58
5.63
4.19
2.62
1.08
-0.43
-2.02
-3.81
-5.84
-7.97
-9.96
-11.50
-12.27
-12.04
-10.69
-8.28
-5.00
-1.19
2.72
6.28
9.17
11.25
12.66
13.75
15.04
16.97
19.81
23.53
27.80
32.18
36.23
39.66
42.35
44.32
45.57
46.09
45.82
44.77
43.04
40.81
38.36
35.92
33.59
31.43
29.38
27.38
25.40
23.36
21.18
18.75
15.92
12.67
9.09
5.49
2.30
-0.03
-1.15
-0.98
0.31
2.31
4.52
6.50
7.95
8.77
9.01
8.86
8.48
8.05
7.69
7.48
7.46
7.60
7.85
8.10
8.14
7.78
6.86
5.32
3.19
0.64
-2.11
-4.85
-7.44
-9.89
-12.23
-14.47
-16.50
-18.08
-18.89
-18.68
-17.38
-15.16
-12.40
-9.53
-6.94
-4.85
-3.32
-2.28
-1.63
-1.27
-1.12
-1.09
-1.15
-1.23
-1.31
-1.39
-1.47
-1.58
-1.73
-1.95
-2.24
-2.61
-3.05
-3.52
-4.01
-4.58
-5.34
-6.39
-7.77
-9.35
-10.89
-12.02
-12.49
-12.22
-11.31
-9.97
-8.41
-6.72
-4.83
-2.59
0.12
3.30
6.80
10.33
13.54
16.10
17.76
18.43
18.22
17.44
16.47
15.68
15.34
15.60
16.46
17.81
19.48
21.26
22.95
24.38
25.51
26.40
27.16
27.85
28.46
28.92
29.20
29.44
29.96
31.09
32.95
35.27
37.39
38.50
37.92
35.47
31.44
26.54
21.56
17.11
13.47
10.64
8.49
6.89
5.79
5.14
4.84
4.62
4.04
2.69
0.29
-3.11
-7.11
-11.06
-14.29
-16.27
-16.82
-16.08
-14.48
-12.52
-10.66
-9.16
-8.09
-7.33
-6.67
-5.89
-4.82
-3.41
-1.71
0.12
1.82
3.16
3.94
4.03
3.36
1.93
-0.24
-3.00
-6.14
-9.29
-12.05
-14.04
-14.97
-14.77
-13.59
-11.70
-9.49
-7.35
-5.63
-4.65
-4.72
-6.13
-9.08
-13.57
-19.28
-25.53
-31.40
-35.91
-38.38
-38.64
-37.14
-34.69
-32.23
-30.41
-29.54
-29.51
-30.01
-30.65
-31.07
-30.93
-30.04
-28.36
-26.12
-23.78
-21.92
-21.01
-21.25
-22.39
-23.95
-25.36
-26.14
-26.02
-24.88
-22.76
-19.85
-16.45
-12.96
-9.82
-7.34
-5.61
-4.48
-3.62
-2.65
-1.34
0.31
2.15
3.96
5.57
6.93
8.14
9.31
10.49
11.55
12.29
12.45
11.89
10.62
8.85
6.89
5.13
3.97
3.74
4.63
6.60
9.37
12.50
15.51
18.06
20.06
21.61
22.93
24.17
25.31
26.16
26.43
25.88
24.42
22.19
19.46
16.60
13.92
11.65
9.88
8.59
7.65
6.89
6.13
5.19
3.99
2.50
0.79
-1.08
-3.00
-4.88
-6.55
-7.86
-8.61
-8.65
-7.91
-6.43
-4.35
-1.87
0.77
3.35
5.67
7.55
8.83
9.36
9.00
7.72
5.59
2.87
-0.10
-2.96
-5.42
-7.28
-8.45
-8.88
-8.62
-7.74
-6.42
-4.90
-3.38
-2.02
-0.80
0.37
1.56
2.74
3.81
4.72
5.46
6.15
6.92
7.79
8.63
9.16
9.02
7.91
5.66
2.32
-1.83
-6.36
-10.71
-14.30
-16.69
-17.58
-16.90
-14.82
-11.74
-8.20
-4.95
-2.73
-2.18
-3.65
-7.03
-11.69
-16.66
-20.84
-23.29
-23.52
-21.58
-17.97
-13.57
-9.33
-6.08
-4.40
-4.53
-6.32
-9.33
-12.90
-16.32
-19.01
-20.60
-21.05
-20.57
-19.52
-18.30
-17.23
-16.48
-16.13
-16.10
-16.28
-16.48
-16.48
-16.06
-15.00
-13.16
-10.43
-6.83
-2.46
2.48
7.73
13.04
18.14
22.84
26.99
30.57
33.56
36.02
38.04
39.77
41.41
43.16
45.16
47.39
49.64
51.50
52.45
52.00
49.81
45.75
39.95
32.77
24.73
16.38
8.28
0.94
-5.29
-10.19
-13.75
-16.06
-17.34
-17.83
-17.73
-17.22
-16.43
-15.50
-14.60
-13.89
-13.48
-13.39
-13.51
-13.70
-13.85
-13.91
-13.90
-13.87
-13.81
-13.65
-13.41
-13.17
-13.17
-13.68
-14.87
-16.68
-18.78
-20.68
-21.85
-21.96
-20.94
-18.95
-16.27
-13.19
-9.95
-6.76
-3.81
-1.32
0.51
1.51
1.68
1.19
0.31
-0.64
-1.41
-1.88
-2.06
-2.07
-2.04
-2.18
-2.69
-3.75
-5.48
-7.88
-10.76
-13.77
-16.46
-18.42
-19.33
-19.07
-17.76
-15.66
-13.15
-10.58
-8.22
-6.17
-4.41
-2.86
-1.44
-0.13
0.98
1.79
2.23
2.31
2.16
1.93
1.69
1.45
1.06
0.41
-0.58
-1.87
-3.38
-4.98
-6.60
-8.18
-9.64
-10.83
-11.54
-11.52
-10.60
-8.75
-6.12
-3.01
0.18
3.11
5.50
7.22
8.34
8.97
9.34
9.58
9.81
10.06
10.27
10.42
10.45
10.32
9.93
9.19
7.99
6.27
4.05
1.45
-1.37
-4.23
-7.06
-9.85
-12.58
-15.14
-17.25
-18.49
-18.51
-17.14
-14.56
-11.17
-7.54
-4.11
-1.17
1.25
3.26
4.96
6.42
7.59
8.39
8.78
8.75
8.39
7.81
7.11
6.39
5.69
5.01
4.33
3.60
2.80
1.91
0.87
-0.36
-1.86
-3.66
-5.68
-7.64
-9.14
-9.76
-9.18
-7.33
-4.44
-0.96
2.63
5.92
8.74
11.09
13.02
14.57
15.69
16.27
16.23
15.60
14.55
13.33
12.16
11.18
10.36
9.56
8.57
7.27
5.65
3.78
1.76
-0.42
-2.85
-5.63
-8.73
-11.87
-14.56
-16.19
-16.33
-14.86
-12.03
-8.39
-4.51
-0.92
2.13
4.54
6.35
7.64
8.47
8.90
8.96
8.72
8.21
7.49
6.62
5.66
4.68
3.71
2.74
1.69
0.48
-0.97
-2.70
-4.70
-6.97
-9.49
-12.17
-14.82
-17.11
-18.64
-19.02
-18.10
-15.94
-12.85
-9.26
-5.59
-2.14
0.89
3.44
5.47
7.00
8.07
8.79
9.23
9.49
9.62
9.62
9.46
9.11
8.55
7.78
6.80
5.62
4.29
2.80
1.17
-0.67
-2.80
-5.23
-7.81
-10.17
-11.83
-12.28
-11.24
-8.75
-5.13
-0.92
3.37
7.34
10.78
13.54
15.58
16.84
17.30
17.01
16.08
14.68
13.01
11.23
9.49
7.87
6.37
4.96
3.54
2.02
0.28
-1.77
-4.21
-7.09
-10.35
-13.84
-17.22
-20.00
-21.69
-21.93
-20.61
-17.97
-14.49
-10.74
-7.20
-4.12
-1.54
0.65
2.54
4.16
5.42
6.21
6.46
6.20
5.52
4.57
3.46
2.27
1.01
-0.35
-1.86
-3.55
-5.52
-7.87
-10.71
-14.10
-17.95
-21.98
-25.75
-28.69
-30.29
-30.24
-28.61
-25.73
-22.20
-18.60
-15.33
-12.53
-10.08
-7.79
-5.52
-3.32
-1.31
0.33
1.53
2.35
2.90
3.30
3.58
3.71
3.66
3.49
3.36
3.48
3.94
4.64
5.25
5.38
4.78
3.51
1.98
0.86
0.84
2.32
5.36
9.61
14.53
19.55
24.23
28.29
31.61
34.11
35.78
36.64
36.82
36.49
35.82
34.90
33.71
32.16
30.13
27.65
24.83
21.87
18.92
15.98
12.95
9.61
5.82
1.50
-3.25
-8.18
-12.90
-16.91
-19.66
-20.74
-19.99
-17.63
-14.21
-10.43
-6.91
-4.06
-1.95
-0.50
0.44
0.97
1.04
0.55
-0.58
-2.33
-4.57
-7.06
-9.57
-11.92
-14.07
-16.08
-18.10
-20.26
-22.61
-25.13
-27.84
-30.76
-33.92
-37.21
-40.31
-42.65
-43.54
-42.48
-39.31
-34.40
-28.47
-22.38
-16.81
-12.10
-8.30
-5.22
-2.67
-0.55
1.15
2.39
3.16
3.48
3.48
3.32
3.15
3.04
2.97
2.81
2.39
1.59
0.32
-1.43
-3.63
-6.13
-8.68
-10.82
-11.98
-11.59
-9.33
-5.30
-0.01
5.73
11.13
15.63
19.04
21.46
23.11
24.19
24.83
25.02
24.76
24.03
22.84
21.26
19.39
17.41
15.43
13.51
11.63
9.67
7.52
5.11
2.40
-0.60
-3.88
-7.28
-10.49
-13.01
-14.17
-13.40
-10.48
-5.66
0.37
6.70
12.52
17.32
20.97
23.58
25.36
26.48
27.02
27.05
26.64
25.91
25.01
24.08
23.21
22.41
21.61
20.73
19.64
18.27
16.52
14.31
11.52
8.08
4.00
-0.42
-4.60
-7.81
-9.32
-8.76
-6.17
-2.11
2.65
7.34
11.46
14.87
17.70
20.18
22.48
24.56
26.25
27.29
27.51
26.93
25.80
24.46
23.22
22.22
21.40
20.58
19.55
18.15
16.29
13.91
10.95
7.39
3.35
-0.82
-4.51
-7.01
-7.71
-6.39
-3.28
0.97
5.55
9.75
13.14
15.62
17.29
18.34
18.87
18.94
18.53
17.64
16.29
14.58
12.60
10.48
8.30
6.09
3.81
1.40
-1.23
-4.15
-7.43
-11.12
-15.24
-19.66
-24.06
-27.84
-30.28
-30.80
-29.14
-25.56
-20.74
-15.52
-10.58
-6.30
-2.72
0.30
2.87
4.99
6.51
7.31
7.34
6.72
5.66
4.44
3.24
2.13
1.09
-0.03
-1.36
-3.00
-5.00
-7.36
-10.06
-13.01
-16.09
-19.00
-21.35
-22.63
-22.41
-20.44
-16.79
-11.86
-6.26
-0.67
4.36
8.49
11.64
13.90
15.41
16.33
16.73
16.67
16.16
15.26
14.02
12.51
10.81
8.98
7.08
5.16
3.28
1.47
-0.35
-2.35
-4.77
-7.79
-11.45
-15.47
-19.31
-22.25
-23.64
-23.09
-20.63
-16.73
-12.10
-7.48
-3.38
-0.02
2.69
4.94
6.90
8.57
9.85
10.60
10.76
10.36
9.55
8.51
7.41
6.34
5.34
4.38
3.37
2.17
0.59
-1.50
-4.20
-7.44
-11.01
-14.53
-17.50
-19.40
-19.79
-18.48
-15.59
-11.53
-6.94
-2.45
1.46
4.62
7.08
9.06
10.75
12.25
13.50
14.37
14.69
14.40
13.52
12.16
10.45
8.51
6.40
4.17
1.88
-0.43
-2.75
-5.11
-7.60
-10.29
-13.15
-15.98
-18.38
-19.84
-19.86
-18.21
-15.00
-10.69
-5.96
-1.51
2.19
5.01
7.08
8.72
10.24
11.78
13.31
14.67
15.67
16.17
16.10
15.44
14.20
12.39
10.12
7.53
4.86
2.33
0.05
-1.96
-3.84
-5.73
-7.77
-9.96
-12.15
-14.03
-15.20
-15.26
-13.97
-11.33
-7.63
-3.37
0.90
4.75
7.89
10.22
11.72
12.42
12.33
11.56
10.26
8.65
6.96
5.31
3.71
2.10
0.40
-1.41
-3.21
-4.85
-6.21
-7.31
-8.30
-9.47
-11.11
-13.46
-16.50
-19.95
-23.31
-25.97
-27.41
-27.33
-25.75
-22.96
-19.43
-15.66
-12.06
-8.90
-6.30
-4.20
-2.50
-1.04
0.25
1.40
2.33
2.98
3.28
3.30
3.12
2.87
2.63
2.40
2.15
1.78
1.21
0.33
-0.97
-2.83
-5.34
-8.50
-12.16
-15.97
-19.38
-21.78
-22.59
-21.52
-18.67
-14.53
-9.85
-5.42
-1.73
1.04
3.02
4.46
5.57
6.41
6.95
7.17
7.07
6.75
6.29
5.75
5.14
4.44
3.67
2.86
2.04
1.20
0.29
-0.77
-2.09
-3.78
-5.93
-8.51
-11.32
-13.91
-15.66
-15.99
-14.58
-11.52
-7.26
-2.48
2.18
6.29
9.68
12.40
14.55
16.25
17.57
18.53
19.11
19.33
19.19
18.75
18.05
17.09
15.87
14.35
12.56
10.59
8.58
6.66
4.83
2.94
0.74
-2.01
-5.42
-9.37
-13.53
-17.42
-20.50
-22.28
-22.47
-21.05
-18.28
-14.66
-10.75
-7.06
-3.92
-1.46
0.37
1.69
2.65
3.37
3.97
4.52
5.06
5.59
5.99
6.12
5.84
5.05
3.74
2.02
0.08
-1.84
-3.61
-5.19
-6.77
-8.57
-10.77
-13.29
-15.78
-17.67
-18.44
-17.80
-15.84
-12.98
-9.80
-6.77
-4.16
-2.02
-0.30
1.03
1.95
2.37
2.27
1.72
0.92
0.07
-0.67
-1.30
-1.89
-2.54
-3.29
-4.10
-4.85
-5.42
-5.80
-6.12
-6.57
-7.39
-8.72
-10.54
-12.63
-14.60
-15.95
-16.23
-15.13
-12.65
-9.04
-4.75
-0.29
3.94
7.68
10.82
13.33
15.22
16.48
17.15
17.26
16.92
16.26
15.46
14.68
14.00
13.45
12.98
12.54
12.06
11.56
11.05
10.52
9.86
8.87
7.36
5.25
2.75
0.35
-1.34
-1.81
-0.79
1.62
5.06
9.06
13.15
16.93
20.07
22.28
23.36
23.22
21.93
19.72
16.87
13.63
10.15
6.53
2.85
-0.74
-4.05
-6.91
-9.30
-11.32
-13.14
-14.94
-16.76
-18.62
-20.52
-22.50
-24.66
-26.93
-29.04
-30.52
-30.83
-29.65
-27.04
-23.47
-19.59
-15.99
-12.99
-10.63
-8.75
-7.20
-5.88
-4.76
-3.80
-2.91
-1.96
-0.88
0.33
1.57
2.62
3.31
3.50
3.17
2.35
1.12
-0.48
-2.49
-4.96
-7.87
-11.06
-14.09
-16.36
-17.25
-16.34
-13.59
-9.35
-4.30
0.79
5.31
8.94
11.70
13.79
15.44
16.82
17.88
18.53
18.61
18.09
17.11
15.86
14.59
13.42
12.38
11.34
10.16
8.72
6.93
4.76
2.21
-0.71
-3.88
-7.02
-9.65
-11.24
-11.31
-9.63
-6.34
-1.95
2.84
7.34
11.07
13.84
15.74
16.94
17.57
17.64
17.11
15.99
14.43
12.69
11.02
9.57
8.29
6.99
5.44
3.55
1.39
-0.84
-2.93
-4.75
-6.32
-7.76
-9.22
-10.78
-12.39
-13.89
-15.09
-15.83
-16.11
-16.01
-15.69
-15.26
-14.67
-13.75
-12.33
-10.33
-7.85
-5.18
-2.68
-0.64
0.78
1.58
1.89
1.83
1.53
1.06
0.44
-0.33
-1.22
-2.23
-3.38
-4.70
-6.26
-8.15
-10.41
-12.94
-15.45
-17.49
-18.60
-18.44
-16.95
-14.34
-11.04
-7.49
-4.01
-0.79
2.09
4.55
6.47
7.71
8.16
7.82
6.76
5.14
3.16
0.98
-1.22
-3.33
-5.30
-7.20
-9.22
-11.58
-14.52
-18.13
-22.40
-27.09
-31.76
-35.84
-38.69
-39.83
-39.06
-36.62
-33.12
-29.35
-25.98
-23.39
-21.60
-20.41
-19.57
-19.03
-18.87
-19.23
-20.14
-21.47
-22.90
-24.13
-24.95
-25.24
-25.03
-24.34
-23.17
-21.48
-19.26
-16.55
-13.36
-9.63
-5.11
0.53
7.65
16.40
26.56
37.54
48.43
58.20
65.96
71.14
73.62
73.76
72.27
70.00
67.68
65.74
64.18
62.68
60.72
57.87
53.93
49.01
43.50
37.89
32.66
28.09
24.28
21.08
18.22
15.38
12.22
8.54
4.29
-0.34
-4.93
-8.84
-11.43
-12.17
-10.90
-7.84
-3.57
1.19
5.76
9.69
12.75
14.84
15.84
15.53
13.66
10.09
4.93
-1.41
-8.28
-14.95
-20.88
-25.80
-29.80
-33.20
-36.43
-39.93
-44.01
-48.76
-54.02
-59.29
-63.83
-66.81
-67.56
-65.83
-61.91
-56.51
-50.54
-44.70
-39.31
-34.23
-29.09
-23.54
-17.48
-11.10
-4.76
1.19
6.51
11.09
14.91
17.97
20.24
21.69
22.39
22.50
22.24
21.82
21.33
20.82
20.35
20.11
20.46
21.83
24.53
28.57
33.56
38.85
43.73
47.72
50.69
52.78
54.22
55.11
55.38
54.81
53.28
50.88
47.93
44.87
42.07
39.68
37.59
35.54
33.26
30.57
27.40
23.71
19.52
14.86
9.89
4.95
0.56
-2.72
-4.49
-4.66
-3.47
-1.38
1.08
3.55
5.85
7.97
9.89
11.45
12.37
12.30
11.00
8.51
5.19
1.64
-1.53
-3.85
-5.21
-5.84
-6.16
-6.66
-7.74
-9.61
-12.26
-15.48
-18.84
-21.76
-23.59
-23.74
-21.82
-17.78
-11.93
-4.89
2.61
9.88
16.41
21.88
26.18
29.29
31.21
31.99
31.71
30.53
28.64
26.29
23.65
20.81
17.79
14.58
11.21
7.76
4.29
0.78
-2.87
-6.76
-10.87
-14.96
-18.57
-21.20
-22.49
-22.37
-21.11
-19.19
-17.12
-15.24
-13.69
-12.44
-11.38
-10.46
-9.74
-9.30
-9.22
-9.50
-10.00
-10.50
-10.76
-10.65
-10.20
-9.61
-9.18
-9.17
-9.76
-10.99
-12.78
-14.93
-17.17
-19.14
-20.39
-20.54
-19.32
-16.71
-13.00
-8.67
-4.24
-0.11
3.52
6.64
9.33
11.64
13.56
15.05
16.04
16.51
16.47
16.01
15.21
14.20
13.08
11.92
10.76
9.55
8.22
6.70
5.00
3.23
1.59
0.33
-0.31
-0.16
0.81
2.52
4.74
7.12
9.30
11.02
12.12
12.62
12.60
12.20
11.50
10.51
9.24
7.71
5.97
4.10
2.19
0.29
-1.56
-3.37
-5.14
-6.92
-8.73
-10.66
-12.81
-15.23
-17.85
-20.41
-22.47
-23.50
-23.13
-21.30
-18.31
-14.78
-11.41
-8.68
-6.81
-5.62
-4.81
-4.07
-3.28
-2.45
-1.72
-1.21
-0.93
-0.83
-0.77
-0.70
-0.64
-0.69
-1.00
-1.66
-2.68
-4.00
-5.59
-7.39
-9.35
-11.36
-13.16
-14.37
-14.58
-13.57
-11.38
-8.41
-5.27
-2.55
-0.63
0.40
0.68
0.45
-0.10
-0.89
-1.90
-3.06
-4.21
-5.10
-5.52
-5.41
-4.85
-4.08
-3.32
-2.65
-2.10
-1.69
-1.54
-1.89
-2.91
-4.60
-6.59
-8.34
-9.27
-9.08
-7.84
-5.88
-3.64
-1.42
0.70
2.74
4.74
6.59
8.07
8.97
9.17
8.72
7.81
6.69
5.63
4.83
4.42
4.40
4.68
5.05
5.24
4.99
4.09
2.47
0.20
-2.45
-4.99
-6.88
-7.62
-6.97
-5.06
-2.41
0.27
2.33
3.41
3.52
2.98
2.12
1.20
0.26
-0.78
-1.97
-3.27
-4.55
-5.73
-6.80
-7.88
-9.10
-10.54
-12.14
-13.79
-15.33
-16.75
-18.08
-19.40
-20.72
-21.89
-22.60
-22.48
-21.34
-19.18
-16.35
-13.35
-10.70
-8.76
-7.62
-7.15
-7.10
-7.25
-7.47
-7.73
-8.04
-8.42
-8.78
-9.02
-9.02
-8.75
-8.20
-7.40
-6.37
-5.07
-3.51
-1.75
0.03
1.55
2.64
3.26
3.65
4.22
5.43
7.55
10.57
14.18
17.89
21.23
23.86
25.60
26.45
26.50
25.92
24.89
23.59
22.16
20.66
19.09
17.41
15.56
13.51
11.23
8.72
5.98
3.05
-0.05
-3.30
-6.64
-9.93
-12.97
-15.43
-16.98
-17.34
-16.40
-14.32
-11.47
-8.37
-5.48
-3.13
-1.46
-0.43
0.10
0.25
0.14
-0.12
-0.42
-0.64
-0.67
-0.49
-0.18
0.10
0.13
-0.27
-1.14
-2.38
-3.87
-5.46
-7.12
-8.82
-10.50
-11.95
-12.82
-12.77
-11.61
-9.44
-6.68
-3.86
-1.44
0.35
1.53
2.31
2.86
3.24
3.39
3.21
2.63
1.70
0.57
-0.57
-1.59
-2.43
-3.12
-3.74
-4.34
-5.03
-5.90
-7.05
-8.51
-10.21
-11.89
-13.17
-13.65
-13.04
-11.28
-8.59
-5.36
-2.04
0.93
3.29
4.91
5.83
6.18
6.12
5.75
5.07
4.00
2.48
0.53
-1.73
-4.08
-6.31
-8.33
-10.20
-12.04
-14.01
-16.23
-18.79
-21.80
-25.26
-29.06
-32.89
-36.23
-38.52
-39.35
-38.61
-36.55
-33.64
-30.40
-27.26
-24.41
-21.94
-19.82
-18.03
-16.52
-15.29
-14.27
-13.34
-12.38
-11.26
-9.99
-8.64
-7.37
-6.31
-5.57
-5.16
-5.09
-5.37
-6.04
-7.07
-8.31
-9.45
-10.04
-9.68
-8.12
-5.41
-1.87
2.03
5.82
9.14
11.85
13.95
15.51
16.58
17.23
17.47
17.35
16.95
16.35
15.63
14.81
13.88
12.86
11.74
10.59
9.45
8.32
7.10
5.63
3.79
1.52
-1.00
-3.43
-5.27
-6.04
-5.39
-3.25
0.14
4.24
8.44
12.11
14.86
16.59
17.46
17.80
17.93
18.06
18.23
18.33
18.22
17.76
16.90
15.66
14.10
12.30
10.32
8.27
6.21
4.17
2.08
-0.16
-2.59
-5.11
-7.41
-9.01
-9.43
-8.39
-5.95
-2.53
1.27
4.82
7.77
10.02
11.70
13.02
14.08
14.84
15.20
15.08
14.53
13.69
12.76
11.83
10.87
9.74
8.28
6.49
4.43
2.28
0.13
-2.01
-4.17
-6.27
-8.04
-9.08
-9.01
-7.71
-5.39
-2.53
0.34
2.87
4.94
6.59
7.85
8.67
8.89
8.47
7.50
6.23
5.01
4.02
3.30
2.71
2.06
1.23
0.22
-0.92
-2.16
-3.55
-5.24
-7.35
-9.82
-12.37
-14.49
-15.58
-15.23
-13.35
-10.22
-6.41
-2.53
0.94
3.75
5.86
7.34
8.28
8.77
8.86
8.63
8.12
7.40
6.46
5.33
4.03
2.66
1.29
0.03
-1.10
-2.17
-3.27
-4.57
-6.16
-8.06
-10.08
-11.87
-12.98
-12.94
-11.48
-8.59
-4.64
-0.22
4.06
7.76
10.72
13.04
14.93
16.58
18.01
19.14
19.83
20.01
19.71
19.03
18.05
16.82
15.34
13.58
11.54
9.27
6.82
4.18
1.34
-1.71
-4.89
-7.97
-10.58
-12.30
-12.78
-11.86
-9.60
-6.32
-2.45
1.55
5.29
8.51
11.09
13.05
14.49
15.50
16.18
16.55
16.61
16.33
15.67
14.63
13.26
11.60
9.79
7.92
6.06
4.25
2.42
0.43
-1.87
-4.60
-7.79
-11.26
-14.61
-17.28
-18.72
-18.54
-16.65
-13.37
-9.22
-4.80
-0.53
3.38
6.92
10.11
12.90
15.19
16.79
17.63
17.74
17.29
16.56
15.77
15.10
14.52
13.92
13.10
11.90
10.30
8.41
6.42
4.55
2.86
1.26
-0.47
-2.56
-5.17
-8.29
-11.73
-15.16
-18.14
-20.25
-21.12
-20.54
-18.50
-15.22
-11.08
-6.51
-1.87
2.61
6.83
10.74
14.24
17.22
19.54
21.15
22.11
22.57
22.73
22.74
22.64
22.35
21.77
20.81
19.49
17.95
16.38
14.95
13.72
12.61
11.37
9.78
7.69
5.13
2.26
-0.64
-3.34
-5.70
-7.69
-9.44
-11.15
-13.07
-15.40
-18.20
-21.33
-24.45
-27.05
-28.59
-28.62
-26.95
-23.70
-19.28
-14.27
-9.25
-4.66
-0.68
2.69
5.58
8.11
10.31
12.14
13.60
14.70
15.56
16.26
16.85
17.27
17.37
17.07
16.32
15.26
14.04
12.84
11.74
10.70
9.62
8.39
6.95
5.34
3.63
1.90
0.14
-1.67
-3.62
-5.76
-8.11
-10.65
-13.35
-16.16
-18.91
-21.34
-23.07
-23.69
-22.90
-20.64
-17.14
-12.86
-8.31
-3.97
-0.14
3.07
5.68
7.80
9.50
10.86
11.89
12.63
13.09
13.33
13.39
13.31
13.13
12.85
12.46
11.96
11.34
10.62
9.80
8.87
7.79
6.52
5.05
3.45
1.77
0.11
-1.48
-3.04
-4.67
-6.50
-8.60
-10.87
-13.01
-14.59
-15.19
-14.54
-12.67
-9.87
-6.58
-3.23
-0.12
2.68
5.24
7.69
10.08
12.34
14.27
15.69
16.50
16.71
16.49
16.02
15.46
14.88
14.22
13.44
12.52
11.52
10.53
9.63
8.76
7.81
6.63
5.09
3.19
1.05
-1.14
-3.21
-5.05
-6.71
-8.27
-9.81
-11.28
-12.48
-13.07
-12.78
-11.50
-9.34
-6.65
-3.83
-1.19
1.10
3.00
4.52
5.64
6.28
6.41
6.12
5.62
5.24
5.21
5.61
6.29
6.95
7.24
6.97
6.11
4.80
3.25
1.65
0.11
-1.29
-2.53
-3.64
-4.65
-5.65
-6.76
-8.10
-9.76
-11.73
-13.86
-15.89
-17.47
-18.20
-17.83
-16.28
-13.69
-10.47
-7.07
-3.88
-1.10
1.30
3.42
5.37
7.10
8.52
9.49
9.98
10.07
9.88
9.56
9.16
8.70
8.13
7.45
6.68
5.86
5.05
4.24
3.42
2.54
1.57
0.42
-0.96
-2.62
-4.62
-6.95
-9.53
-12.21
-14.81
-17.06
-18.72
-19.56
-19.41
-18.25
-16.12
-13.23
-9.84
-6.28
-2.79
0.44
3.38
6.00
8.23
9.89
10.73
10.62
9.62
8.05
6.37
4.96
3.94
3.17
2.36
1.25
-0.19
-1.80
-3.31
-4.54
-5.49
-6.33
-7.25
-8.42
-9.88
-11.63
-13.62
-15.76
-17.92
-19.83
-21.13
-21.43
-20.48
-18.31
-15.21
-11.64
-8.07
-4.78
-1.85
0.73
3.01
4.92
6.36
7.27
7.71
7.88
8.01
8.20
8.41
8.46
8.16
7.44
6.36
5.10
3.83
2.64
1.53
0.44
-0.69
-1.94
-3.38
-5.10
-7.16
-9.48
-11.84
-13.81
-14.94
-14.86
-13.47
-10.99
-7.87
-4.61
-1.60
1.00
3.20
5.11
6.78
8.18
9.18
9.70
9.73
9.40
8.93
8.53
8.31
8.20
8.01
7.54
6.65
5.38
3.89
2.38
1.02
-0.14
-1.16
-2.12
-3.15
-4.36
-5.78
-7.43
-9.20
-10.84
-12.05
-12.48
-11.90
-10.26
-7.70
-4.53
-1.11
2.23
5.22
7.74
9.73
11.22
12.21
12.76
12.87
12.57
11.92
11.02
10.02
9.05
8.21
7.49
6.82
6.08
5.19
4.12
2.87
1.46
-0.09
-1.80
-3.70
-5.78
-8.05
-10.49
-12.98
-15.35
-17.31
-18.58
-18.90
-18.15
-16.42
-13.97
-11.17
-8.39
-5.88
-3.78
-2.07
-0.67
0.48
1.38
1.97
2.19
2.01
1.52
0.87
0.23
-0.28
-0.68
-1.11
-1.70
-2.56
-3.67
-4.93
-6.28
-7.68
-9.20
-10.92
-12.84
-14.85
-16.64
-17.84
-18.09
-17.18
-15.15
-12.29
-9.07
-5.95
-3.25
-1.08
0.67
2.17
3.53
4.75
5.70
6.29
6.51
6.45
6.23
5.92
5.52
4.93
4.05
2.87
1.48
-0.01
-1.47
-2.90
-4.37
-6.05
-8.07
-10.47
-13.11
-15.68
-17.75
-18.84
-18.66
-17.16
-14.57
-11.33
-7.88
-4.56
-1.51
1.25
3.73
5.90
7.61
8.72
9.20
9.14
8.76
8.29
7.85
7.41
6.84
6.01
4.86
3.43
1.84
0.24
-1.30
-2.76
-4.18
-5.65
-7.29
-9.21
-11.43
-13.80
-16.01
-17.58
-18.08
-17.24
-15.10
-11.99
-8.39
-4.75
-1.38
1.59
4.18
6.46
8.46
10.16
11.52
12.46
12.94
12.91
12.35
11.28
9.78
7.96
5.99
4.01
2.12
0.37
-1.23
-2.72
-4.22
-5.86
-7.80
-10.06
-12.51
-14.79
-16.42
-16.93
-16.08
-13.93
-10.85
-7.34
-3.87
-0.74
1.96
4.28
6.30
8.06
9.48
10.46
10.93
10.86
10.38
9.60
8.65
7.57
6.35
4.96
3.41
1.77
0.15
-1.42
-3.01
-4.79
-7.01
-9.81
-13.14
-16.69
-19.89
-22.14
-22.90
-21.99
-19.58
-16.16
-12.35
-8.70
-5.47
-2.69
-0.25
1.99
4.06
5.90
7.39
8.47
9.12
9.35
9.20
8.71
7.96
7.01
5.94
4.76
3.48
2.07
0.53
-1.14
-2.96
-5.03
-7.48
-10.33
-13.40
-16.20
-18.10
-18.52
-17.19
-14.31
-10.43
-6.28
-2.39
0.96
3.78
6.21
8.34
10.13
11.51
12.40
12.80
12.83
12.60
12.18
11.58
10.73
9.57
8.09
6.34
4.45
2.56
0.73
-1.07
-2.97
-5.13
-7.67
-10.53
-13.45
-15.99
-17.63
-17.93
-16.68
-14.01
-10.32
-6.20
-2.21
1.28
4.13
6.44
8.39
10.10
11.58
12.70
13.34
13.43
13.00
12.16
11.05
9.78
8.43
7.06
5.68
4.26
2.73
0.96
-1.18
-3.78
-6.84
-10.18
-13.43
-16.10
-17.67
-17.74
-16.18
-13.17
-9.20
-4.85
-0.65
3.09
6.30
9.04
11.39
13.38
14.94
15.97
16.47
16.50
16.17
15.58
14.78
13.74
12.43
10.85
9.06
7.17
5.29
3.44
1.49
-0.75
-3.49
-6.82
-10.55
-14.23
-17.21
-18.89
-18.90
-17.23
-14.21
-10.34
-6.13
-1.93
2.08
5.80
9.14
11.96
14.09
15.45
16.10
16.22
16.05
15.78
15.45
14.98
14.18
12.94
11.24
9.24
7.13
5.12
3.26
1.46
-0.50
-2.89
-5.87
-9.43
-13.31
-17.03
-20.02
-21.73
-21.82
-20.25
-17.27
-13.35
-9.06
-4.87
-1.10
2.14
4.86
7.13
8.96
10.35
11.23
11.63
11.64
11.39
11.02
10.57
10.00
9.24
8.21
6.96
5.60
4.21
2.74
1.03
-1.16
-3.96
-7.28
-10.76
-13.81
-15.79
-16.23
-14.90
-11.93
-7.75
-2.96
1.84
6.20
9.89
12.88
15.22
16.98
18.19
18.84
18.92
18.46
17.55
16.29
14.75
12.99
11.08
9.07
7.03
5.02
3.06
1.07
-1.10
-3.61
-6.59
-10.07
-13.85
-17.52
-20.47
-22.05
-21.74
-19.37
-15.21
-9.92
-4.34
0.75
4.92
8.11
10.55
12.56
14.35
15.97
17.29
18.12
18.35
17.98
17.10
15.88
14.47
12.94
11.35
9.67
7.89
5.96
3.82
1.37
-1.52
-4.93
-8.81
-12.85
-16.51
-19.11
-20.03
-18.94
-15.94
-11.59
-6.68
-1.98
2.01
5.15
7.58
9.52
11.12
12.33
13.03
13.08
12.49
11.41
10.10
8.76
7.53
6.39
5.23
3.96
2.46
0.68
-1.47
-4.06
-7.13
-10.65
-14.45
-18.16
-21.30
-23.27
-23.60
-22.04
-18.69
-13.97
-8.52
-3.01
2.07
6.44
10.06
13.02
15.45
17.37
18.78
19.62
19.88
19.62
18.95
18.04
17.05
16.10
15.23
14.43
13.63
12.74
11.61
10.13
8.13
5.48
2.11
-1.84
-6.02
-9.81
-12.52
-13.56
-12.68
-10.04
-6.18
-1.80
2.46
6.23
9.39
12.04
14.32
16.30
17.95
19.14
19.74
19.65
18.87
17.50
15.67
13.56
11.32
9.07
6.94
4.95
3.14
1.43
-0.29
-2.24
-4.66
-7.74
-11.47
-15.56
-19.36
-22.07
-22.97
-21.70
-18.43
-13.75
-8.50
-3.40
1.10
4.91
8.13
10.88
13.19
14.97
16.09
16.53
16.36
15.76
14.92
13.99
13.09
12.26
11.48
10.64
9.55
8.00
5.80
2.87
-0.84
-5.24
-10.19
-15.42
-20.47
-24.73
-27.53
-28.34
-26.95
-23.63
-18.99
-13.81
-8.75
-4.22
-0.35
2.91
5.64
7.87
9.54
10.65
11.24
11.42
11.31
10.98
10.43
9.64
8.60
7.37
6.01
4.57
3.04
1.34
-0.63
-2.94
-5.64
-8.70
-12.03
-15.32
-18.13
-19.88
-20.06
-18.42
-15.17
-10.87
-6.26
-1.98
1.66
4.65
7.20
9.51
11.62
13.44
14.78
15.55
15.80
15.64
15.22
14.62
13.83
12.79
11.50
9.99
8.37
6.72
5.12
3.57
2.01
0.32
-1.67
-4.06
-6.87
-9.90
-12.79
-15.02
-16.12
-15.81
-14.14
-11.42
-8.15
-4.80
-1.68
1.08
3.47
5.48
7.09
8.26
8.99
9.30
9.26
8.96
8.45
7.77
6.93
5.98
4.95
3.90
2.84
1.75
0.58
-0.75
-2.28
-4.09
-6.23
-8.70
-11.39
-14.04
-16.28
-17.67
-17.90
-16.87
-14.75
-11.90
-8.76
-5.69
-2.87
-0.33
1.98
4.03
5.69
6.75
7.06
6.64
5.71
4.58
3.51
2.57
1.63
0.51
-0.91
-2.53
-4.13
-5.50
-6.59
-7.57
-8.70
-10.20
-12.09
-14.24
-16.37
-18.17
-19.39
-19.79
-19.20
-17.56
-14.94
-11.64
-8.10
-4.78
-2.09
-0.22
0.79
0.98
0.44
-0.77
-2.47
-4.43
-6.27
-7.62
-8.25
-8.14
-7.55
-6.90
-6.64
-7.04
-8.09
-9.48
-10.81
-11.68
-11.94
-11.66
-11.11
-10.58
-10.31
-10.37
-10.72
-11.26
-11.84
-12.37
-12.68
-12.66
-12.18
-11.11
-9.43
-7.17
-4.46
-1.47
1.60
4.53
7.12
9.28
10.96
12.23
13.20
13.96
14.58
15.06
15.39
15.55
15.56
15.46
15.28
15.02
14.62
14.02
13.21
12.26
11.36
10.68
10.38
10.50
11.01
11.82
12.86
14.11
15.58
17.29
19.22
21.32
23.51
25.71
27.78
29.66
31.20
32.30
32.86
32.84
32.25
31.14
29.63
27.88
25.98
24.01
22.00
19.94
17.86
15.80
13.81
11.92
10.17
8.52
6.85
5.00
2.81
0.20
-2.76
-5.78
-8.38
-10.09
-10.57
-9.75
-7.86
-5.35
-2.71
-0.32
1.57
2.93
3.81
4.34
4.61
4.67
4.47
3.93
2.93
1.43
-0.49
-2.66
-4.83
-6.78
-8.41
-9.69
-10.69
-11.46
-12.04
-12.48
-12.86
-13.39
-14.28
-15.72
-17.63
-19.69
-21.43
-22.40
-22.36
-21.42
-19.84
-17.90
-15.66
-13.02
-9.89
-6.34
-2.82
0.04
1.63
1.71
0.48
-1.41
-3.12
-3.92
-3.43
-1.66
1.00
3.94
6.51
8.11
8.34
7.05
4.34
0.53
-3.98
-8.77
-13.48
-17.83
-21.59
-24.56
-26.58
-27.55
-27.40
-26.18
-24.04
-21.18
-17.91
-14.56
-11.45
-8.83
-6.94
-5.88
-5.70
-6.30
-7.47
-8.89
-10.21
-11.15
-11.56
-11.50
-11.12
-10.64
-10.26
-10.11
-10.24
-10.65
-11.28
-12.01
-12.77
-13.63
-14.83
-16.72
-19.58
-23.34
-27.48
-31.11
-33.28
-33.36
-31.25
-27.39
-22.54
-17.48
-12.70
-8.42
-4.64
-1.34
1.46
3.72
5.41
6.61
7.50
8.31
9.16
10.03
10.75
11.04
10.68
9.59
7.88
5.79
3.65
1.70
0.14
-0.95
-1.58
-1.84
-1.84
-1.69
-1.51
-1.31
-1.06
-0.76
-0.39
-0.05
0.14
0.10
-0.13
-0.34
-0.23
0.44
1.71
3.44
5.29
6.95
8.18
8.87
9.00
8.64
7.83
6.68
5.34
4.00
2.86
2.01
1.46
1.02
0.45
-0.51
-2.02
-4.13
-6.74
-9.63
-12.43
-14.67
-15.80
-15.40
-13.28
-9.63
-5.02
-0.26
3.86
6.80
8.37
8.77
8.44
7.86
7.44
7.40
7.76
8.44
9.26
10.04
10.68
11.07
11.16
10.87
10.11
8.90
7.31
5.52
3.73
2.05
0.37
-1.54
-3.94
-6.90
-10.18
-13.25
-15.46
-16.27
-15.47
-13.22
-10.01
-6.45
-3.08
-0.24
1.93
3.49
4.56
5.28
5.77
6.10
6.32
6.44
6.47
6.41
6.26
6.02
5.67
5.17
4.50
3.63
2.57
1.38
0.12
-1.20
-2.56
-3.98
-5.41
-6.63
-7.26
-6.88
-5.17
-2.12
1.96
6.48
10.83
14.53
17.38
19.40
20.70
21.35
21.37
20.77
19.65
18.21
16.74
15.45
14.45
13.63
12.76
11.59
10.02
8.06
5.93
3.83
1.87
-0.06
-2.17
-4.75
-7.97
-11.66
-15.39
-18.50
-20.36
-20.54
-19.01
-16.07
-12.23
-8.05
-3.95
-0.22
3.03
5.77
8.01
9.77
11.03
11.78
11.99
11.71
11.01
10.03
8.89
7.66
6.28
4.66
2.80
0.82
-0.99
-2.37
-3.23
-3.72
-4.23
-5.19
-6.89
-9.31
-12.16
-14.85
-16.75
-17.26
-16.06
-13.17
-8.96
-4.01
1.05
5.76
9.89
13.42
16.38
18.75
20.44
21.39
21.63
21.29
20.55
19.56
18.33
16.78
14.85
12.51
9.85
7.03
4.19
1.36
-1.52
-4.57
-7.95
-11.69
-15.71
-19.74
-23.35
-26.05
-27.41
-27.16
-25.32
-22.19
-18.28
-14.21
-10.50
-7.43
-5.06
-3.23
-1.72
-0.41
0.71
1.54
1.92
1.75
1.04
-0.12
-1.60
-3.25
-4.93
-6.49
-7.85
-8.97
-9.91
-10.84
-11.98
-13.53
-15.60
-18.19
-21.16
-24.26
-27.07
-29.07
-29.72
-28.55
-25.39
-20.44
-14.30
-7.82
-1.82
3.12
6.84
9.51
11.49
13.09
14.45
15.52
16.23
16.52
16.48
16.26
15.99
15.64
15.12
14.26
12.97
11.30
9.38
7.35
5.28
3.15
0.83
-1.79
-4.77
-8.01
-11.25
-14.05
-15.87
-16.21
-14.79
-11.67
-7.24
-2.19
2.79
7.19
10.80
13.64
15.84
17.50
18.57
19.04
18.91
18.39
17.74
17.21
16.88
16.60
16.09
15.11
13.63
11.81
9.96
8.33
6.98
5.74
4.31
2.39
-0.11
-3.06
-6.03
-8.45
-9.75
-9.54
-7.76
-4.66
-0.76
3.37
7.27
10.71
13.67
16.22
18.36
20.00
21.02
21.35
21.07
20.43
19.70
19.06
18.50
17.87
16.94
15.59
13.88
11.98
10.13
8.47
6.99
5.58
4.02
2.14
-0.17
-2.94
-6.09
-9.40
-12.54
-15.05
-16.47
-16.49
-15.07
-12.46
-9.13
-5.60
-2.24
0.73
3.35
5.68
7.80
9.69
11.28
12.44
13.08
13.21
12.91
12.38
11.84
11.48
11.36
11.39
11.34
10.95
10.10
8.80
7.27
5.75
4.41
3.24
2.10
0.78
-0.90
-3.00
-5.49
-8.21
-10.94
-13.40
-15.27
-16.26
-16.17
-14.96
-12.76
-9.83
-6.52
-3.17
-0.08
2.53
4.55
5.99
6.95
7.59
8.05
8.45
8.83
9.16
9.37
9.37
9.12
8.62
7.97
7.27
6.64
6.10
5.61
5.04
4.29
3.31
2.16
0.93
-0.31
-1.54
-2.80
-4.13
-5.57
-7.12
-8.78
-10.58
-12.52
-14.56
-16.47
-17.89
-18.41
-17.76
-15.94
-13.27
-10.29
-7.56
-5.42
-3.97
-3.05
-2.45
-1.97
-1.55
-1.16
-0.78
-0.37
0.11
0.63
1.12
1.46
1.58
1.48
1.28
1.06
0.90
0.75
0.54
0.15
-0.49
-1.37
-2.45
-3.63
-4.83
-6.00
-7.15
-8.35
-9.68
-11.17
-12.70
-14.02
-14.81
-14.78
-13.84
-12.13
-9.97
-7.70
-5.62
-3.85
-2.41
-1.25
-0.31
0.39
0.86
1.08
1.07
0.85
0.43
-0.11
-0.73
-1.34
-1.87
-2.27
-2.51
-2.63
-2.66
-2.69
-2.83
-3.14
-3.68
-4.44
-5.35
-6.29
-7.13
-7.81
-8.33
-8.79
-9.31
-10.00
-10.91
-11.97
-13.07
-13.99
-14.51
-14.40
-13.51
-11.83
-9.50
-6.80
-4.05
-1.52
0.66
2.51
4.18
5.76
7.28
8.65
9.76
10.53
10.95
11.11
11.12
11.06
10.99
10.91
10.81
10.68
10.49
10.20
9.73
9.07
8.19
7.13
5.97
4.78
3.65
2.63
1.72
0.88
0.04
-0.95
-2.18
-3.69
-5.36
-6.94
-8.10
-8.55
-8.12
-6.85
-4.97
-2.85
-0.82
0.89
2.19
3.15
3.87
4.44
4.95
5.40
5.81
6.15
6.40
6.51
6.43
6.15
5.66
5.01
4.27
3.52
2.81
2.10
1.36
0.50
-0.51
-1.64
-2.82
-3.97
-5.01
-5.95
-6.84
-7.78
-8.89
-10.27
-11.93
-13.78
-15.58
-16.97
-17.61
-17.24
-15.81
-13.55
-10.84
-8.14
-5.79
-3.93
-2.55
-1.54
-0.77
-0.17
0.30
0.70
1.13
1.65
2.28
2.88
3.21
3.02
2.13
0.60
-1.30
-3.21
-4.78
-5.81
-6.23
-6.11
-5.56
-4.76
-3.92
-3.27
-3.07
-3.47
-4.46
-5.88
-7.49
-9.06
-10.52
-11.88
-13.17
-14.35
-15.22
-15.48
-14.89
-13.35
-10.98
-8.06
-5.03
-2.26
-0.03
1.59
2.64
3.32
3.80
4.19
4.54
4.86
5.14
5.38
5.62
5.85
6.05
6.14
6.04
5.67
5.01
4.10
3.00
1.80
0.56
-0.72
-2.03
-3.41
-4.92
-6.60
-8.47
-10.54
-12.69
-14.75
-16.39
-17.27
-17.08
-15.73
-13.39
-10.40
-7.21
-4.19
-1.52
0.75
2.70
4.42
5.96
7.35
8.61
9.70
10.57
11.17
11.44
11.40
11.10
10.64
10.08
9.43
8.64
7.69
6.63
5.52
4.46
3.46
2.44
1.21
-0.43
-2.56
-5.12
-7.87
-10.43
-12.42
-13.50
-13.49
-12.36
-10.28
-7.57
-4.64
-1.85
0.47
2.20
3.36
4.09
4.56
4.90
5.15
5.30
5.37
5.42
5.53
5.73
5.97
6.12
6.04
5.66
5.03
4.26
3.42
2.51
1.39
-0.09
-2.04
-4.44
-7.17
-10.01
-12.67
-14.81
-16.09
-16.21
-15.03
-12.66
-9.40
-5.68
-1.92
1.61
4.74
7.43
9.60
11.19
12.13
12.46
12.32
11.91
11.40
10.91
10.43
9.91
9.33
8.68
8.00
7.32
6.63
5.86
4.93
3.71
2.03
-0.26
-3.22
-6.80
-10.73
-14.56
-17.75
-19.77
-20.26
-19.14
-16.64
-13.17
-9.25
-5.31
-1.68
1.47
4.09
6.17
7.74
8.83
9.49
9.77
9.75
9.48
9.04
8.48
7.84
7.14
6.41
5.61
4.69
3.55
2.11
0.35
-1.74
-4.13
-6.76
-9.61
-12.58
-15.48
-17.95
-19.51
-19.72
-18.32
-15.39
-11.37
-6.88
-2.52
1.33
4.54
7.17
9.29
10.90
11.93
12.32
12.12
11.51
10.76
10.08
9.59
9.24
8.91
8.46
7.83
7.00
5.93
4.59
2.83
0.54
-2.29
-5.55
-8.93
-11.99
-14.25
-15.31
-14.89
-12.96
-9.74
-5.65
-1.20
3.18
7.16
10.65
13.66
16.25
18.42
20.11
21.20
21.62
21.37
20.53
19.31
17.94
16.62
15.46
14.44
13.42
12.24
10.77
9.00
6.96
4.68
2.11
-0.87
-4.32
-8.08
-11.66
-14.33
-15.39
-14.39
-11.40
-6.93
-1.80
3.21
7.54
10.96
13.51
15.39
16.82
17.95
18.83
19.45
19.76
19.66
19.11
18.10
16.69
15.03
13.26
11.52
9.90
8.41
6.96
5.42
3.59
1.28
-1.63
-5.06
-8.64
-11.78
-13.82
-14.18
-12.66
-9.48
-5.28
-0.83
3.15
6.23
8.34
9.67
10.51
11.13
11.68
12.16
12.46
12.46
12.11
11.46
10.68
9.95
9.33
8.76
8.04
6.99
5.52
3.68
1.58
-0.71
-3.20
-5.87
-8.59
-10.94
-12.39
-12.40
-10.73
-7.54
-3.35
1.14
5.31
8.77
11.41
13.30
14.57
15.37
15.76
15.77
15.41
14.72
13.77
12.65
11.46
10.28
9.11
7.91
6.62
5.16
3.54
1.72
-0.38
-2.86
-5.84
-9.30
-12.95
-16.19
-18.34
-18.79
-17.30
-14.11
-9.80
-5.11
-0.68
3.14
6.24
8.70
10.64
12.10
13.05
13.46
13.34
12.81
12.02
11.13
10.22
9.32
8.37
7.29
6.07
4.73
3.29
1.80
0.25
-1.47
-3.49
-5.91
-8.76
-11.83
-14.73
-16.87
-17.70
-16.86
-14.34
-10.53
-6.09
-1.72
2.03
4.93
7.03
8.56
9.75
10.74
11.47
11.87
11.81
11.30
10.45
9.40
8.27
7.10
5.87
4.57
3.21
1.89
0.67
-0.45
-1.60
-2.98
-4.83
-7.29
-10.30
-13.51
-16.36
-18.19
-18.51
-17.13
-14.29
-10.53
-6.51
-2.76
0.42
2.97
4.97
6.56
7.82
8.79
9.50
10.01
10.33
10.50
10.47
10.19
9.62
8.75
7.61
6.29
4.86
3.45
2.11
0.87
-0.34
-1.69
-3.33
-5.37
-7.67
-9.93
-11.65
-12.37
-11.81
-10.00
-7.23
-3.95
-0.61
2.47
5.10
7.25
8.95
10.29
11.36
12.23
12.92
13.44
13.78
13.94
13.95
13.82
13.54
13.05
12.30
11.30
10.09
8.80
7.51
6.20
4.76
2.98
0.75
-1.94
-4.83
-7.54
-9.64
-10.74
-10.68
-9.51
-7.44
-4.85
-2.11
0.45
2.59
4.23
5.42
6.31
7.03
7.65
8.14
8.38
8.28
7.80
7.04
6.14
5.23
4.40
3.64
2.89
2.11
1.28
0.38
-0.59
-1.64
-2.84
-4.23
-5.84
-7.61
-9.39
-10.94
-11.95
-12.18
-11.51
-10.04
-8.02
-5.80
-3.66
-1.77
-0.15
1.17
2.19
2.84
3.09
2.94
2.49
1.91
1.39
1.04
0.89
0.86
0.82
0.62
0.17
-0.55
-1.47
-2.49
-3.54
-4.55
-5.59
-6.76
-8.15
-9.74
-11.36
-12.67
-13.30
-12.93
-11.45
-9.02
-5.99
-2.85
-0.02
2.25
3.92
5.06
5.77
6.08
5.94
5.33
4.34
3.19
2.15
1.40
0.97
0.71
0.37
-0.26
-1.22
-2.42
-3.66
-4.76
-5.65
-6.38
-7.06
-7.85
-8.81
-9.98
-11.27
-12.58
-13.77
-14.73
-15.32
-15.40
-14.87
-13.69
-11.95
-9.84
-7.68
-5.76
-4.27
-3.28
-2.75
-2.56
-2.62
-2.88
-3.34
-3.95
-4.69
-5.53
-6.45
-7.45
-8.56
-9.79
-11.15
-12.56
-13.89
-14.98
-15.70
-15.98
-15.91
-15.63
-15.37
-15.27
-15.41
-15.70
-15.94
-15.87
-15.26
-13.95
-11.93
-9.31
-6.31
-3.16
-0.10
2.70
5.10
7.03
8.45
9.41
9.99
10.33
10.56
10.76
10.94
11.10
11.25
11.44
11.78
12.29
12.92
13.49
13.76
13.50
12.59
11.06
9.04
6.76
4.52
2.62
1.38
1.02
1.66
3.24
5.60
8.47
11.58
14.63
17.37
19.54
20.97
21.58
21.41
20.61
19.42
18.05
16.69
15.51
14.54
13.76
13.04
12.22
11.09
9.47
7.29
4.51
1.16
-2.68
-6.97
-11.59
-16.33
-20.87
-24.74
-27.46
-28.63
-28.05
-25.80
-22.22
-17.84
-13.23
-8.90
-5.18
-2.20
0.11
1.89
3.29
4.40
5.22
5.69
5.75
5.36
4.56
3.47
2.27
1.14
0.19
-0.53
-1.10
-1.62
-2.21
-2.89
-3.61
-4.24
-4.67
-4.81
-4.60
-3.97
-2.82
-1.04
1.37
4.23
7.15
9.66
11.36
12.12
12.07
11.51
10.70
9.77
8.66
7.19
5.26
2.92
0.39
-2.02
-3.99
-5.37
-6.14
-6.44
-6.46
-6.40
-6.47
-6.83
-7.66
-9.13
-11.35
-14.26
-17.55
-20.71
-23.12
-24.25
-23.83
-21.90
-18.80
-14.99
-10.90
-6.89
-3.15
0.18
2.96
5.05
6.35
6.87
6.77
6.33
5.83
5.45
5.21
4.88
4.20
2.90
0.92
-1.64
-4.53
-7.44
-10.20
-12.73
-15.14
-17.64
-20.40
-23.50
-26.86
-30.21
-33.21
-35.52
-36.86
-37.11
-36.33
-34.69
-32.50
-30.08
-27.76
-25.76
-24.19
-23.03
-22.20
-21.58
-21.02
-20.36
-19.39
-17.82
-15.39
-11.96
-7.63
-2.78
1.99
6.05
8.89
10.28
10.29
9.24
7.55
5.58
3.55
1.47
-0.73
-3.09
-5.55
-7.87
-9.69
-10.66
-10.57
-9.41
-7.35
-4.64
-1.58
1.55
4.54
7.25
9.62
11.61
13.13
13.87
13.37
11.13
6.83
0.52
-7.32
-15.87
-24.14
-31.17
-36.17
-38.62
-38.35
-35.59
-30.97
-25.45
-20.02
-15.49
-12.16
-9.83
-7.88
-5.47
-1.82
3.66
11.14
20.28
30.16
39.38
46.39
50.00
49.82
46.51
41.56
36.76
33.57
32.60
33.60
35.66
37.77
39.11
39.27
38.17
35.96
32.91
29.41
26.00
23.22
21.46
20.76
20.77
20.81
20.19
18.44
15.48
11.68
7.72
4.33
2.14
1.48
2.32
4.28
6.79
9.21
11.00
11.82
11.50
10.09
7.72
4.66
1.33
-1.75
-4.00
-5.02
-4.72
-3.46
-1.91
-0.74
-0.42
-0.93
-1.89
-2.76
-3.10
-2.78
-1.95
-0.98
-0.21
0.10
-0.07
-0.62
-1.32
-1.93
-2.24
-2.15
-1.65
-0.81
0.25
1.39
2.56
3.76
5.08
6.60
8.42
10.51
12.73
14.69
15.94
16.06
14.82
12.38
9.30
6.35
4.33
3.73
4.64
6.66
9.11
11.24
12.48
12.66
12.03
11.12
10.56
10.83
12.12
14.28
16.91
19.57
21.85
23.59
24.81
25.73
26.67
27.94
29.67
31.69
33.46
34.10
32.73
28.82
22.51
14.67
6.61
-0.39
-5.58
-8.92
-10.84
-11.81
-11.90
-10.74
-7.74
-2.53
4.62
12.82
20.85
27.57
32.34
35.11
36.25
36.31
35.77
34.85
33.59
31.92
29.84
27.36
24.48
21.14
17.11
12.19
6.34
-0.11
-6.51
-12.12
-16.41
-19.39
-21.53
-23.62
-26.36
-30.00
-34.33
-38.77
-42.71
-45.80
-48.14
-50.31
-53.15
-57.49
-63.74
-71.69
-80.46
-88.75
-95.17
-98.71
-99.00
-96.36
-91.58
-85.62
-79.24
-72.83
-66.46
-60.12
-53.88
-47.99
-42.80
-38.51
-35.10
-32.24
-29.49
-26.49
-23.07
-19.29
-15.35
-11.55
-8.16
-5.51
-3.84
-3.30
-3.74
-4.70
-5.45
-5.28
-3.70
-0.72
3.24
7.46
11.28
14.22
16.12
17.00
16.96
16.12
14.64
12.83
11.09
9.83
9.25
9.18
9.16
8.67
7.39
5.43
3.30
1.61
0.73
0.59
0.65
0.19
-1.42
-4.40
-8.50
-13.14
-17.57
-21.14
-23.49
-24.48
-24.27
-23.16
-21.47
-19.48
-17.42
-15.26
-12.85
-9.97
-6.44
-2.31
2.00
5.57
7.16
5.81
1.38
-5.04
-11.35
-15.26
-15.38
-11.88
-6.32
-0.91
2.57
3.38
1.85
-1.17
-4.90
-8.90
-12.94
-16.68
-19.61
-21.19
-21.16
-19.67
-17.12
-13.83
-10.04
-5.78
-1.06
3.95
8.98
13.78
18.18
22.14
25.62
28.53
30.66
31.85
32.10
31.66
31.04
30.68
30.83
31.33
31.74
31.58
30.53
28.58
25.99
23.08
20.04
16.92
13.60
10.02
6.14
2.02
-2.22
-6.41
-10.32
-13.53
-15.54
-15.85
-14.24
-10.97
-6.77
-2.61
0.61
2.41
2.85
2.36
1.46
0.53
-0.32
-1.15
-2.10
-3.23
-4.55
-6.01
-7.54
-9.07
-10.43
-11.42
-11.79
-11.46
-10.50
-9.20
-7.94
-7.03
-6.61
-6.60
-6.75
-6.69
-6.02
-4.42
-1.68
2.22
7.03
12.30
17.42
21.82
25.07
26.99
27.67
27.41
26.61
25.62
24.69
23.85
23.02
22.02
20.70
19.06
17.20
15.35
13.69
12.32
11.17
10.08
8.82
7.22
5.17
2.60
-0.51
-4.09
-7.94
-11.62
-14.58
-16.24
-16.20
-14.41
-11.12
-6.79
-1.89
3.21
8.30
13.20
17.75
21.71
24.87
27.12
28.43
28.89
28.63
27.73
26.20
24.11
21.55
18.73
15.87
13.16
10.60
8.04
5.21
1.84
-2.22
-6.99
-12.32
-17.95
-23.52
-28.54
-32.51
-34.90
-35.41
-34.05
-31.22
-27.64
-24.09
-21.17
-19.12
-17.73
-16.49
-14.83
-12.31
-8.83
-4.58
0.03
4.51
8.49
11.74
14.21
15.90
16.86
17.07
16.57
15.44
13.85
11.99
10.06
8.15
6.28
4.41
2.54
0.68
-1.06
-2.67
-4.08
-5.24
-6.07
-6.42
-6.09
-4.82
-2.40
1.35
6.42
12.52
19.11
25.41
30.68
34.40
36.48
37.15
36.83
35.88
34.52
32.86
31.02
29.32
28.19
28.01
28.92
30.75
33.08
35.35
37.11
38.07
38.15
37.40
35.94
33.93
31.52
28.79
25.87
22.86
19.96
17.38
15.35
14.03
13.48
13.60
14.21
15.02
15.69
15.84
15.11
13.22
10.04
5.68
0.55
-4.82
-9.94
-14.56
-18.69
-22.53
-26.22
-29.75
-32.87
-35.31
-36.98
-38.16
-39.37
-41.18
-43.88
-47.33
-51.04
-54.40
-56.94
-58.39
-58.46
-56.66
-52.24
-44.51
-33.28
-19.28
-4.08
10.31
22.17
30.59
35.58
37.66
37.48
35.45
31.87
27.19
22.23
18.04
15.58
15.21
16.58
18.77
20.78
21.91
22.04
21.51
20.75
20.06
19.49
18.92
18.40
18.22
18.88
20.83
24.15
28.46
33.07
37.24
40.58
43.18
45.51
48.21
51.84
56.64
62.48
68.93
75.35
81.10
85.61
88.53
89.79
89.52
88.07
85.77
82.86
79.33
74.84
68.77
60.29
48.70
33.65
15.39
-5.13
-26.46
-46.98
-65.37
-80.95
-93.84
-104.63
-114.01
-122.16
-128.63
-132.41
-132.45
-128.20
-119.92
-108.67
-95.94
-83.19
-71.47
-61.28
-52.72
-45.64
-39.84
-34.95
-30.51
-25.89
-20.44
-13.69
-5.60
3.31
12.07
19.48
24.62
27.14
27.40
26.32
24.96
24.12
24.07
24.57
25.06
24.91
23.57
20.65
15.90
9.26
0.86
-8.87
-19.24
-29.33
-38.25
-45.32
-50.20
-52.90
-53.67
-52.96
-51.29
-49.26
-47.38
-46.01
-45.19
-44.73
-44.26
-43.50
-42.38
-41.01
-39.53
-37.91
-35.90
-33.14
-29.36
-24.64
-19.42
-14.29
-9.77
-6.09
-3.16
-0.75
1.34
3.10
4.39
5.13
5.44
5.71
6.42
7.94
10.28
13.02
15.45
16.83
16.63
14.50
10.25
3.57
-5.88
-18.43
-34.04
-52.08
-71.31
-90.11
-106.75
-119.53
-126.81
-127.07
-119.18
-102.88
-79.33
-51.18
-22.18
3.91
24.37
38.25
46.36
50.56
52.90
54.90
57.23
59.91
62.71
65.43
68.02
70.46
72.60
74.04
74.22
72.58
68.91
63.52
57.26
51.26
46.55
43.68
42.55
42.57
42.95
43.10
42.79
42.20
41.74
41.80
42.53
43.74
45.00
45.79
45.72
44.66
42.66
39.92
36.64
32.97
29.04
25.01
21.15
17.75
15.06
13.11
11.72
10.58
9.35
7.84
6.07
4.23
2.58
1.37
0.71
0.62
0.99
1.72
2.74
4.08
5.75
7.62
9.32
10.15
9.33
6.27
0.94
-6.06
-13.55
-20.21
-25.03
-27.52
-27.87
-26.64
-24.58
-22.34
-20.34
-18.79
-17.76
-17.17
-16.86
-16.56
-15.94
-14.67
-12.54
-9.61
-6.16
-2.72
0.21
2.24
3.21
3.27
2.64
1.57
0.18
-1.51
-3.55
-5.90
-8.44
-10.96
-13.19
-14.93
-16.11
-16.75
-17.03
-17.20
-17.59
-18.49
-20.04
-22.18
-24.55
-26.62
-27.77
-27.58
-25.92
-23.07
-19.63
-16.35
-13.81
-12.31
-11.80
-11.98
-12.45
-12.86
-12.96
-12.67
-11.96
-10.93
-9.71
-8.43
-7.18
-5.99
-4.85
-3.78
-2.83
-2.15
-1.89
-2.18
-3.07
-4.47
-6.21
-8.02
-9.57
-10.48
-10.42
-9.22
-6.91
-3.79
-0.30
3.08
6.01
8.32
10.00
11.12
11.77
12.01
11.89
11.46
10.78
9.89
8.79
7.51
6.08
4.66
3.45
2.67
2.46
2.83
3.65
4.64
5.48
5.87
5.60
4.61
3.07
1.32
-0.12
-0.76
-0.31
1.21
3.39
5.62
7.35
8.24
8.25
7.62
6.65
5.61
4.62
3.76
3.04
2.46
2.00
1.56
1.06
0.41
-0.34
-1.07
-1.64
-1.93
-1.96
-1.82
-1.61
-1.41
-1.23
-0.99
-0.56
0.21
1.48
3.38
5.91
8.93
12.07
14.80
16.58
17.07
16.26
14.49
12.32
10.30
8.73
7.64
6.79
5.90
4.81
3.52
2.18
0.97
0.01
-0.68
-1.22
-1.76
-2.46
-3.42
-4.69
-6.25
-8.03
-9.92
-11.76
-13.31
-14.31
-14.51
-13.78
-12.19
-10.05
-7.81
-5.93
-4.67
-4.01
-3.73
-3.48
-3.05
-2.38
-1.61
-0.99
-0.72
-0.88
-1.45
-2.26
-3.14
-3.98
-4.69
-5.29
-5.82
-6.36
-7.01
-7.85
-8.94
-10.21
-11.48
-12.46
-12.80
-12.23
-10.65
-8.20
-5.18
-1.99
0.98
3.53
5.59
7.19
8.40
9.22
9.64
9.65
9.30
8.68
7.94
7.18
6.40
5.58
4.67
3.67
2.64
1.66
0.80
0.03
-0.73
-1.58
-2.62
-3.91
-5.45
-7.14
-8.81
-10.17
-10.87
-10.63
-9.35
-7.14
-4.36
-1.46
1.18
3.31
4.87
5.95
6.65
7.03
7.09
6.77
6.03
4.88
3.38
1.63
-0.27
-2.23
-4.22
-6.18
-8.12
-9.99
-11.75
-13.35
-14.77
-16.12
-17.52
-19.12
-20.96
-22.89
-24.57
-25.62
-25.68
-24.61
-22.54
-19.81
-16.90
-14.19
-11.94
-10.18
-8.75
-7.40
-5.93
-4.23
-2.38
-0.62
0.75
1.52
1.63
1.22
0.50
-0.31
-1.12
-1.99
-3.00
-4.19
-5.53
-6.90
-8.22
-9.46
-10.64
-11.71
-12.47
-12.61
-11.80
-9.92
-7.09
-3.73
-0.33
2.70
5.19
7.17
8.82
10.31
11.70
12.93
13.86
14.32
14.24
13.61
12.53
11.14
9.65
8.25
7.12
6.37
6.00
5.88
5.77
5.42
4.59
3.14
1.07
-1.44
-4.11
-6.57
-8.46
-9.51
-9.60
-8.78
-7.20
-5.12
-2.80
-0.51
1.56
3.28
4.61
5.60
6.35
6.98
7.56
8.08
8.49
8.74
8.84
8.82
8.71
8.55
8.32
8.03
7.69
7.35
7.05
6.76
6.42
5.91
5.10
3.90
2.32
0.49
-1.33
-2.82
-3.72
-3.89
-3.34
-2.22
-0.74
0.92
2.65
4.37
6.00
7.47
8.73
9.75
10.59
11.30
11.91
12.38
12.63
12.56
12.12
11.32
10.25
9.03
7.82
6.75
5.92
5.31
4.84
4.31
3.53
2.32
0.62
-1.53
-3.93
-6.34
-8.42
-9.90
-10.58
-10.45
-9.69
-8.63
-7.58
-6.75
-6.18
-5.75
-5.34
-4.89
-4.46
-4.19
-4.23
-4.66
-5.48
-6.63
-8.04
-9.69
-11.55
-13.61
-15.78
-17.94
-19.96
-21.80
-23.52
-25.31
-27.42
-30.08
-33.40
-37.31
-41.52
-45.49
-48.49
-49.74
-48.60
-44.76
-38.44
-30.34
-21.46
-12.83
-5.17
1.15
6.13
9.92
12.74
14.73
15.99
16.67
16.95
17.02
17.06
17.14
17.32
17.59
18.02
18.63
19.50
20.61
21.86
23.01
23.70
23.54
22.27
19.86
16.62
13.15
10.19
8.37
7.96
8.82
10.38
11.93
12.88
12.91
12.07
10.66
9.00
7.29
5.53
3.57
1.20
-1.74
-5.30
-9.44
-13.96
-18.42
-22.06
-23.93
-23.09
-19.10
-12.34
-4.07
3.98
10.12
13.36
13.62
11.66
8.62
5.59
3.32
2.13
2.07
2.99
4.69
6.92
9.42
11.93
14.23
16.16
17.66
18.78
19.66
20.50
21.46
22.57
23.70
24.56
24.85
24.41
23.31
21.82
20.32
19.11
18.28
17.74
17.21
16.38
14.99
12.91
10.21
7.16
4.19
1.76
0.32
0.14
1.27
3.54
6.57
9.89
13.01
15.56
17.32
18.30
18.70
18.73
18.59
18.25
17.59
16.46
14.82
12.84
10.83
9.12
7.89
7.12
6.53
5.84
4.80
3.39
1.71
-0.08
-1.89
-3.72
-5.61
-7.49
-9.04
-9.79
-9.23
-7.06
-3.39
1.30
6.26
10.76
14.38
17.04
18.98
20.56
22.01
23.35
24.41
24.99
24.98
24.48
23.70
22.85
21.97
20.89
19.28
16.79
13.20
8.50
2.84
-3.52
-10.38
-17.49
-24.61
-31.36
-37.22
-41.63
-44.06
-44.24
-42.27
-38.65
-34.13
-29.44
-25.13
-21.39
-18.14
-15.19
-12.42
-9.95
-8.07
-7.07
-7.06
-7.87
-9.07
-10.18
-10.81
-10.84
-10.33
-9.51
-8.61
-7.80
-7.23
-6.99
-7.21
-7.99
-9.36
-11.24
-13.30
-15.08
-16.02
-15.70
-13.95
-10.95
-7.18
-3.25
0.27
3.00
4.84
5.92
6.46
6.69
6.78
6.76
6.62
6.32
5.87
5.33
4.82
4.38
4.04
3.64
3.04
2.07
0.64
-1.22
-3.47
-6.00
-8.72
-11.48
-14.01
-15.92
-16.76
-16.14
-13.94
-10.38
-6.01
-1.57
2.27
5.13
6.96
8.03
8.66
9.15
9.57
9.85
9.84
9.42
8.58
7.40
6.02
4.60
3.29
2.20
1.36
0.76
0.27
-0.29
-1.13
-2.40
-4.15
-6.30
-8.61
-10.71
-12.21
-12.74
-12.12
-10.44
-8.02
-5.30
-2.75
-0.67
0.87
1.94
2.73
3.37
3.94
4.42
4.77
4.96
4.98
4.80
4.44
3.88
3.14
2.26
1.31
0.33
-0.64
-1.67
-2.82
-4.20
-5.85
-7.70
-9.53
-11.01
-11.77
-11.52
-10.17
-7.86
-4.95
-1.88
0.98
3.40
5.37
7.00
8.47
9.87
11.19
12.32
13.13
13.55
13.59
13.36
12.98
12.54
12.08
11.54
10.83
9.91
8.79
7.50
6.10
4.61
3.02
1.36
-0.20
-1.37
-1.76
-1.06
0.83
3.72
7.13
10.46
13.22
15.14
16.19
16.55
16.45
16.13
15.75
15.42
15.19
15.07
15.03
15.00
14.94
14.81
14.67
14.57
14.56
14.65
14.74
14.70
14.37
13.61
12.35
10.70
8.90
7.35
6.46
6.46
7.30
8.63
9.90
10.64
10.59
9.83
8.68
7.42
6.25
5.12
3.87
2.29
0.23
-2.35
-5.43
-8.93
-12.70
-16.57
-20.34
-23.87
-27.09
-29.97
-32.47
-34.51
-35.98
-36.79
-36.95
-36.58
-35.83
-34.73
-33.23
-31.17
-28.46
-25.21
-21.70
-18.28
-15.15
-12.30
-9.52
-6.57
-3.40
-0.21
2.66
4.83
6.14
6.68
6.70
6.53
6.40
6.46
6.76
7.33
8.15
9.23
10.48
11.78
13.01
14.09
15.07
16.16
17.67
19.90
22.95
26.71
30.78
34.70
38.08
40.75
42.79
44.36
45.56
46.41
46.84
46.83
46.44
45.80
45.02
44.03
42.66
40.72
38.09
34.81
30.90
26.30
20.83
14.30
6.72
-1.47
-9.47
-16.30
-21.16
-23.68
-24.00
-22.68
-20.40
-17.78
-15.15
-12.67
-10.35
-8.28
-6.63
-5.70
-5.75
-6.88
-8.89
-11.38
-13.93
-16.26
-18.34
-20.32
-22.32
-24.35
-26.23
-27.80
-29.00
-30.00
-31.04
-32.22
-33.33
-33.92
-33.44
-31.55
-28.27
-23.95
-19.06
-14.02
-9.07
-4.30
0.25
4.48
8.24
11.30
13.48
14.63
14.76
13.91
12.25
9.96
7.25
4.41
1.73
-0.50
-2.10
-3.07
-3.55
-3.80
-4.01
-4.23
-4.28
-3.87
-2.78
-1.06
0.99
2.87
4.09
4.38
3.77
2.55
1.12
-0.11
-0.88
-1.12
-0.87
-0.19
0.86
2.26
3.98
5.98
8.13
10.26
12.17
13.71
14.82
15.48
15.72
15.53
14.89
13.75
12.18
10.34
8.49
6.85
5.53
4.41
3.18
1.51
-0.88
-4.05
-7.89
-12.18
-16.61
-20.81
-24.35
-26.69
-27.39
-26.20
-23.20
-18.87
-13.93
-9.12
-5.03
-1.98
-0.03
0.93
1.11
0.73
0.05
-0.70
-1.36
-1.87
-2.31
-2.75
-3.26
-3.80
-4.28
-4.60
-4.73
-4.75
-4.77
-4.90
-5.21
-5.70
-6.32
-7.06
-7.87
-8.71
-9.48
-10.01
-10.09
-9.52
-8.19
-6.19
-3.78
-1.39
0.52
1.62
1.81
1.27
0.36
-0.51
-1.00
-0.95
-0.45
0.23
0.69
0.57
-0.38
-2.20
-4.74
-7.69
-10.70
-13.55
-16.19
-18.84
-21.84
-25.54
-30.09
-35.32
-40.65
-45.28
-48.40
-49.56
-48.85
-46.86
-44.44
-42.26
-40.57
-39.06
-37.12
-34.17
-29.94
-24.59
-18.61
-12.55
-6.88
-1.89
2.24
5.32
7.23
7.95
7.73
7.04
6.49
6.60
7.52
8.99
10.45
11.27
10.99
9.57
7.35
4.96
3.10
2.28
2.68
4.10
6.06
7.94
9.24
9.70
9.40
8.67
7.94
7.54
7.55
7.72
7.56
6.44
3.92
-0.01
-4.70
-8.84
-10.83
-9.31
-3.84
4.82
14.79
23.60
29.02
29.63
25.17
16.51
5.25
-6.60
-17.05
-24.42
-27.63
-26.49
-21.74
-14.92
-7.97
-2.64
0.02
-0.22
-2.72
-6.37
-9.94
-12.41
-13.20
-12.23
-9.88
-6.82
-3.85
-1.70
-0.90
-1.71
-4.17
-8.09
-13.03
-18.40
-23.39
-27.16
-28.92
-28.12
-24.59
-18.48
-10.28
-0.65
9.62
19.80
29.24
37.57
44.63
50.47
55.19
58.82
61.27
62.34
61.88
59.91
56.64
52.42
47.59
42.37
36.79
30.72
24.05
16.74
8.95
1.01
-6.63
-13.51
-19.27
-23.70
-26.73
-28.48
-29.16
-29.13
-28.83
-28.73
-29.19
-30.37
-32.20
-34.48
-37.03
-39.87
-43.22
-47.28
-52.03
-57.04
-61.53
-64.61
-65.67
-64.53
-61.47
-56.95
-51.46
-45.32
-38.71
-31.83
-24.96
-18.49
-12.70
-7.69
-3.28
0.89
5.17
9.72
14.39
18.70
22.05
23.89
23.95
22.42
19.97
17.55
16.06
16.09
17.65
20.16
22.68
24.30
24.30
22.48
19.14
15.05
11.24
8.97
9.51
13.81
22.04
33.27
45.57
56.61
64.61
69.03
70.62
70.77
70.57
70.16
68.79
65.50
59.85
52.38
44.27
36.73
30.30
24.79
19.57
14.20
8.73
3.59
-0.71
-3.87
-6.04
-7.74
-9.58
-12.02
-15.20
-18.87
-22.56
-25.81
-28.30
-29.97
-30.90
-31.16
-30.67
-29.22
-26.59
-22.72
-17.79
-12.27
-6.74
-1.75
2.30
5.25
7.19
8.36
9.14
9.79
10.43
10.90
10.87
9.99
8.10
5.39
2.27
-0.69
-3.06
-4.60
-5.30
-5.30
-4.69
-3.51
-1.77
0.47
2.95
5.20
6.66
6.88
5.75
3.68
1.43
-0.11
-0.33
0.84
2.93
5.15
6.77
7.38
7.00
5.98
4.74
3.62
2.73
2.04
1.47
0.85
0.05
-1.05
-2.45
-4.04
-5.48
-6.40
-6.46
-5.62
-4.24
-3.03
-2.75
-3.91
-6.44
-9.67
-12.54
-14.05
-13.69
-11.69
-8.82
-6.08
-4.17
-3.22
-2.75
-2.01
-0.46
1.93
4.62
6.74
7.56
6.86
5.02
2.76
0.81
-0.39
-0.68
0.06
1.98
5.27
9.73
14.48
18.04
19.01
16.85
12.37
7.45
4.07
3.33
4.88
7.20
8.54
7.77
4.90
0.94
-2.83
-5.41
-6.48
-6.42
-5.92
-5.62
-5.85
-6.67
-8.04
-10.16
-13.55
-18.75
-25.93
-34.25
-41.82
-46.24
-45.68
-39.87
-30.44
-20.40
-12.82
-9.63
-10.88
-14.96
-19.56
-22.75
-23.76
-22.91
-21.08
-19.02
-16.93
-14.43
-11.09
-6.81
-2.03
2.53
6.24
8.97
11.08
13.27
16.09
19.70
23.77
27.64
30.63
32.34
32.67
31.81
30.15
28.06
25.88
23.82
21.93
20.15
18.31
16.28
14.05
11.85
10.08
9.17
9.40
10.75
12.88
15.26
17.39
18.98
20.03
20.64
20.93
20.85
20.17
18.57
15.90
12.31
8.29
4.53
1.61
-0.17
-0.94
-1.12
-1.17
-1.42
-1.91
-2.51
-3.07
-3.57
-4.22
-5.33
-7.17
-9.80
-13.01
-16.31
-19.10
-20.76
-20.87
-19.26
-16.14
-11.96
-7.37
-2.98
0.71
3.43
5.16
6.10
6.67
7.45
9.02
11.70
15.40
19.43
22.71
24.14
23.14
19.89
15.33
10.73
7.15
5.09
4.38
4.44
4.70
4.79
4.61
4.21
3.66
2.99
2.31
1.87
2.07
3.38
6.07
10.13
15.22
20.82
26.35
31.37
35.61
38.93
41.31
42.71
43.13
42.56
41.00
38.38
34.56
29.45
23.09
15.79
8.17
0.93
-5.39
-10.66
-15.25
-19.83
-25.03
-31.16
-38.17
-45.68
-53.22
-60.36
-66.73
-71.94
-75.64
-77.62
-77.94
-76.99
-75.37
-73.59
-71.79
-69.56
-66.11
-60.61
-52.62
-42.31
-30.45
-18.20
-6.73
3.03
10.55
15.59
18.15
18.29
16.20
12.23
6.91
0.90
-5.14
-10.70
-15.54
-19.73
-23.46
-26.92
-30.16
-32.94
-34.78
-35.14
-33.58
-30.00
-24.65
-18.12
-11.10
-4.09
2.63
9.01
15.03
20.52
25.16
28.56
30.43
30.71
29.59
27.39
24.42
20.92
17.05
12.94
8.75
4.69
1.02
-2.06
-4.43
-6.13
-7.42
-8.69
-10.34
-12.60
-15.30
-17.94
-19.75
-20.02
-18.41
-15.08
-10.66
-5.99
-1.86
1.22
3.08
3.82
3.73
3.25
3.00
3.64
5.64
9.08
13.46
17.87
21.41
23.56
24.53
25.06
26.04
28.08
31.17
34.74
37.90
39.69
39.32
36.21
30.09
21.07
9.79
-2.52
-14.30
-23.98
-30.45
-33.31
-33.02
-30.57
-27.19
-23.82
-20.92
-18.34
-15.59
-12.15
-7.81
-2.75
2.55
7.57
11.88
15.25
17.59
18.87
19.11
18.46
17.23
15.87
14.83
14.37
14.42
14.66
14.64
14.00
12.57
10.40
7.68
4.63
1.41
-1.89
-5.29
-8.80
-12.31
-15.49
-17.80
-18.75
-18.09
-16.00
-13.04
-9.88
-7.02
-4.56
-2.25
0.35
3.54
7.31
11.41
15.40
18.91
21.69
23.58
24.50
24.43
23.47
21.88
20.07
18.48
17.43
16.96
16.85
16.71
16.23
15.24
13.80
12.01
9.92
7.41
4.26
0.23
-4.75
-10.47
-16.45
-21.97
-26.22
-28.57
-28.67
-26.65
-23.07
-18.76
-14.60
-11.27
-9.19
-8.47
-8.95
-10.22
-11.69
-12.69
-12.81
-12.02
-10.80
-9.76
-9.32
-9.36
-9.33
-8.72
-7.52
-6.42
-6.49
-8.42
-12.07
-16.40
-20.01
-22.00
-22.36
-21.93
-21.80
-22.69
-24.69
-27.27
-29.64
-30.90
-30.14
-26.50
-19.43
-9.09
3.44
16.19
26.98
34.23
37.63
38.23
37.91
38.42
40.66
44.42
48.69
52.32
54.52
55.13
54.48
53.10
51.44
49.66
47.74
45.58
43.13
40.50
37.86
35.35
32.96
30.50
27.65
24.07
19.55
14.14
8.15
2.05
-3.65
-8.66
-12.90
-16.53
-19.79
-22.87
-25.79
-28.48
-30.81
-32.74
-34.37
-35.88
-37.49
-39.33
-41.33
-43.20
-44.52
-44.84
-43.81
-41.36
-37.68
-33.19
-28.38
-23.63
-19.08
-14.65
-10.09
-5.12
0.36
6.27
12.34
18.15
23.30
27.49
30.58
32.62
33.80
34.30
34.24
33.58
32.18
29.91
26.76
22.95
18.90
15.08
11.88
9.51
7.97
7.10
6.62
6.24
5.68
4.68
3.14
1.07
-1.28
-3.54
-5.26
-6.09
-5.92
-4.87
-3.30
-1.60
-0.14
0.92
1.60
2.08
2.57
3.24
4.17
5.31
6.51
7.64
8.58
9.35
9.99
10.62
11.25
11.82
12.15
12.05
11.39
10.16
8.49
6.56
4.52
2.44
0.28
-2.00
-4.42
-6.88
-9.27
-11.44
-13.29
-14.74
-15.71
-16.11
-15.80
-14.71
-12.82
-10.25
-7.22
-4.02
-0.91
1.90
4.30
6.23
7.72
8.76
9.41
9.72
9.76
9.69
9.65
9.75
10.02
10.33
10.50
10.35
9.78
8.89
7.83
6.80
5.84
4.86
3.65
2.00
-0.20
-2.89
-5.83
-8.70
-11.22
-13.17
-14.43
-14.99
-14.87
-14.11
-12.74
-10.79
-8.32
-5.46
-2.39
0.65
3.38
5.57
7.03
7.76
7.88
7.69
7.52
7.64
8.10
8.72
9.18
9.16
8.47
7.14
5.34
3.32
1.27
-0.75
-2.82
-5.03
-7.40
-9.79
-11.86
-13.22
-13.52
-12.64
-10.72
-8.15
-5.49
-3.25
-1.74
-1.06
-1.07
-1.55
-2.29
-3.22
-4.31
-5.56
-6.88
-8.09
-8.96
-9.33
-9.20
-8.71
-8.11
-7.60
-7.24
-6.98
-6.75
-6.56
-6.52
-6.78
-7.42
-8.40
-9.60
-10.89
-12.17
-13.41
-14.53
-15.36
-15.66
-15.18
-13.85
-11.82
-9.49
-7.31
-5.63
-4.56
-3.98
-3.67
-3.47
-3.29
-3.14
-3.04
-3.01
-3.00
-3.01
-3.11
-3.38
-3.96
-4.88
-6.09
-7.46
-8.81
-10.02
-11.00
-11.74
-12.31
-12.85
-13.59
-14.73
-16.34
-18.25
-20.02
-21.04
-20.86
-19.26
-16.45
-12.90
-9.11
-5.47
-2.12
0.90
3.54
5.67
7.08
7.62
7.30
6.30
4.87
3.25
1.63
0.07
-1.38
-2.72
-3.94
-5.05
-6.08
-7.08
-8.12
-9.31
-10.76
-12.61
-14.97
-17.82
-20.98
-24.07
-26.56
-27.95
-27.81
-25.95
-22.46
-17.58
-11.68
-5.06
2.07
9.60
17.38
25.15
32.46
38.80
43.72
46.96
48.49
48.50
47.29
45.16
42.41
39.31
36.10
32.95
30.01
27.31
24.83
22.54
20.37
18.28
16.17
13.96
11.55
8.97
6.38
4.09
2.42
1.57
1.51
2.01
2.74
3.41
3.89
4.20
4.42
4.59
4.66
4.50
4.03
3.24
2.31
1.45
0.88
0.71
0.91
1.31
1.72
2.03
2.30
2.69
3.44
4.68
6.39
8.41
10.54
12.56
14.32
15.68
16.49
16.64
16.04
14.72
12.80
10.36
7.38
3.68
-0.96
-6.64
-13.15
-19.94
-26.32
-31.62
-35.49
-37.94
-39.23
-39.66
-39.35
-38.18
-35.93
-32.52
-28.14
-23.27
-18.43
-14.04
-10.21
-6.86
-3.86
-1.21
0.85
2.02
2.09
1.06
-0.79
-3.05
-5.25
-7.00
-7.92
-7.70
-6.09
-2.96
1.56
7.09
13.08
18.94
24.26
28.94
33.13
37.18
41.43
46.10
51.12
56.19
60.81
64.33
66.22
66.15
64.18
60.68
56.25
51.53
46.98
42.87
39.31
36.30
33.71
31.26
28.50
24.95
20.22
14.32
7.55
0.35
-7.06
-14.78
-23.08
-31.95
-40.77
-48.31
-53.13
-54.22
-51.50
-45.82
-38.51
-30.82
-23.53
-16.88
-11.00
-6.13
-2.81
-1.66
-3.12
-7.26
-13.78
-22.17
-31.91
-42.57
-53.73
-64.96
-75.69
-85.29
-93.10
-98.61
-101.44
-101.46
-98.78
-93.76
-86.93
-78.95
-70.48
-62.02
-53.75
-45.45
-36.60
-26.60
-15.08
-2.11
11.78
25.80
39.09
50.86
60.46
67.26
70.67
70.29
66.14
58.87
49.77
40.49
32.59
27.08
24.14
23.15
22.90
21.98
19.26
14.23
7.19
-0.87
-8.69
-15.20
-19.89
-22.84
-24.50
-25.40
-25.90
-26.25
-26.70
-27.58
-29.14
-31.22
-33.10
-33.54
-31.23
-25.43
-16.37
-5.25
6.06
15.80
22.76
26.61
27.71
26.81
24.72
21.97
18.90
15.61
12.12
8.52
4.94
1.63
-1.14
-3.17
-4.33
-4.64
-4.22
-3.23
-1.87
-0.31
1.28
2.79
4.15
5.28
6.17
6.80
7.23
7.51
7.74
8.02
8.39
8.76
8.95
8.69
7.79
6.18
4.00
1.57
-0.72
-2.55
-3.73
-4.27
-4.32
-4.18
-4.14
-4.47
-5.33
-6.64
-8.07
-9.07
-9.00
-7.35
-4.00
0.77
6.35
12.05
17.23
21.46
24.44
25.92
25.72
23.82
20.46
16.24
11.95
8.37
6.00
4.90
4.74
4.97
5.09
4.80
4.05
2.95
1.73
0.55
-0.48
-1.37
-2.17
-2.92
-3.60
-4.10
-4.18
-3.58
-2.13
0.23
3.37
7.01
10.82
14.51
17.90
20.90
23.52
25.80
27.78
29.46
30.86
32.02
32.94
33.65
34.07
34.13
33.69
32.65
30.99
28.71
25.92
22.75
19.34
15.77
12.03
8.02
3.54
-1.58
-7.34
-13.49
-19.53
-24.76
-28.58
-30.58
-30.74
-29.37
-26.95
-24.00
-20.95
-18.09
-15.58
-13.51
-11.87
-10.59
-9.52
-8.48
-7.25
-5.72
-3.86
-1.82
0.13
1.66
2.49
2.50
1.79
0.60
-0.77
-2.16
-3.58
-5.19
-7.19
-9.70
-12.67
-15.85
-18.88
-21.35
-22.92
-23.40
-22.83
-21.46
-19.69
-17.88
-16.24
-14.75
-13.23
-11.43
-9.19
-6.55
-3.70
-0.93
1.52
3.48
4.94
5.94
6.53
6.76
6.61
6.16
5.48
4.74
4.10
3.65
3.35
3.06
2.54
1.64
0.33
-1.19
-2.60
-3.52
-3.65
-2.83
-1.11
1.25
3.91
6.51
8.85
10.85
12.56
14.08
15.41
16.52
17.30
17.70
17.76
17.58
17.28
16.93
16.47
15.84
14.96
13.84
12.59
11.35
10.23
9.27
8.38
7.46
6.44
5.33
4.24
3.36
2.81
2.65
2.84
3.28
3.89
4.63
5.53
6.61
7.87
9.26
10.65
11.87
12.78
13.28
13.35
13.07
12.56
11.94
11.25
10.43
9.35
7.86
5.88
3.47
0.81
-1.88
-4.34
-6.42
-8.03
-9.16
-9.81
-10.09
-10.13
-10.13
-10.29
-10.77
-11.59
-12.61
-13.59
-14.25
-14.45
-14.14
-13.50
-12.74
-12.03
-11.41
-10.76
-9.91
-8.72
-7.24
-5.64
-4.20
-3.14
-2.52
-2.27
-2.17
-1.98
-1.59
-1.03
-0.47
-0.14
-0.23
-0.83
-1.91
-3.34
-5.00
-6.75
-8.56
-10.40
-12.28
-14.18
-15.97
-17.45
-18.33
-18.34
-17.33
-15.35
-12.63
-9.52
-6.36
-3.39
-0.75
1.53
3.44
4.92
5.94
6.52
6.76
6.81
6.84
6.93
7.08
7.27
7.46
7.62
7.80
8.02
8.28
8.54
8.67
8.55
8.06
7.12
5.76
4.10
2.41
1.06
0.40
0.69
1.93
3.92
6.23
8.44
10.24
11.50
12.25
12.63
12.74
12.67
12.46
12.13
11.69
11.18
10.55
9.80
8.89
7.86
6.77
5.71
4.76
3.95
3.23
2.54
1.82
1.03
0.11
-0.98
-2.26
-3.65
-4.99
-5.99
-6.38
-5.97
-4.76
-2.99
-1.03
0.76
2.16
3.13
3.78
4.30
4.78
5.20
5.47
5.43
5.02
4.25
3.28
2.31
1.48
0.86
0.38
-0.09
-0.70
-1.57
-2.70
-4.00
-5.33
-6.57
-7.66
-8.61
-9.49
-10.36
-11.18
-11.84
-12.18
-12.07
-11.45
-10.41
-9.11
-7.72
-6.37
-5.06
-3.74
-2.39
-1.04
0.19
1.12
1.65
1.75
1.52
1.12
0.68
0.27
-0.10
-0.49
-0.90
-1.31
-1.63
-1.78
-1.78
-1.74
-1.85
-2.25
-2.98
-3.87
-4.68
-5.11
-4.96
-4.17
-2.84
-1.18
0.58
2.26
3.76
5.03
6.06
6.81
7.26
7.37
7.17
6.74
6.17
5.55
4.89
4.12
3.13
1.84
0.27
-1.43
-3.09
-4.54
-5.73
-6.74
-7.79
-9.07
-10.69
-12.62
-14.65
-16.47
-17.73
-18.16
-17.70
-16.45
-14.66
-12.61
-10.55
-8.62
-6.86
-5.30
-3.95
-2.86
-2.06
-1.56
-1.29
-1.18
-1.13
-1.07
-0.96
-0.80
-0.59
-0.34
-0.09
0.07
0.05
-0.22
-0.78
-1.61
-2.63
-3.79
-5.01
-6.28
-7.55
-8.77
-9.81
-10.50
-10.68
-10.23
-9.15
-7.54
-5.56
-3.42
-1.32
0.58
2.17
3.36
4.13
4.49
4.51
4.26
3.87
3.46
3.19
3.17
3.43
3.88
4.34
4.58
4.40
3.71
2.52
0.90
-1.08
-3.34
-5.76
-8.16
-10.26
-11.76
-12.47
-12.36
-11.54
-10.19
-8.50
-6.57
-4.49
-2.37
-0.39
1.28
2.49
3.16
3.37
3.24
2.89
2.43
1.91
1.41
0.96
0.61
0.35
0.16
-0.05
-0.40
-0.98
-1.88
-3.08
-4.57
-6.25
-8.00
-9.64
-10.97
-11.73
-11.71
-10.82
-9.10
-6.77
-4.18
-1.69
0.38
1.92
2.99
3.77
4.48
5.30
6.22
7.11
7.75
7.91
7.47
6.48
5.14
3.68
2.28
1.02
-0.08
-1.08
-2.02
-2.95
-3.96
-5.15
-6.60
-8.25
-9.88
-11.09
-11.48
-10.75
-8.89
-6.17
-3.05
-0.01
2.57
4.51
5.87
6.82
7.56
8.22
8.81
9.28
9.54
9.58
9.44
9.19
8.85
8.42
7.82
7.05
6.14
5.14
4.11
3.03
1.80
0.29
-1.58
-3.77
-6.09
-8.22
-9.82
-10.62
-10.52
-9.66
-8.34
-6.92
-5.65
-4.57
-3.50
-2.22
-0.60
1.25
3.06
4.54
5.52
6.06
6.35
6.60
6.86
7.02
6.89
6.34
5.39
4.26
3.19
2.29
1.47
0.47
-1.01
-3.05
-5.48
-7.86
-9.68
-10.57
-10.41
-9.31
-7.56
-5.44
-3.14
-0.77
1.54
3.67
5.42
6.67
7.41
7.76
7.90
7.96
7.99
7.91
7.62
7.07
6.29
5.41
4.50
3.60
2.68
1.71
0.68
-0.37
-1.43
-2.53
-3.76
-5.19
-6.75
-8.18
-9.13
-9.26
-8.46
-6.84
-4.71
-2.39
-0.06
2.23
4.53
6.85
9.08
11.03
12.51
13.42
13.81
13.82
13.58
13.19
12.65
11.94
11.03
9.94
8.73
7.51
6.38
5.38
4.49
3.56
2.38
0.76
-1.40
-4.02
-6.82
-9.40
-11.33
-12.28
-12.17
-11.08
-9.29
-7.13
-4.90
-2.82
-0.98
0.61
1.96
3.08
3.97
4.59
4.93
5.02
4.90
4.65
4.30
3.88
3.37
2.73
1.96
1.05
0.03
-1.10
-2.41
-3.98
-5.88
-8.11
-10.51
-12.81
-14.62
-15.61
-15.59
-14.56
-12.70
-10.27
-7.56
-4.84
-2.26
0.10
2.24
4.19
5.98
7.61
9.06
10.29
11.27
11.96
12.31
12.25
11.71
10.72
9.44
8.11
6.97
6.12
5.45
4.70
3.57
1.91
-0.25
-2.69
-5.11
-7.29
-9.06
-10.28
-10.86
-10.71
-9.84
-8.32
-6.37
-4.20
-1.96
0.29
2.54
4.79
6.94
8.80
10.18
10.95
11.17
11.05
10.83
10.74
10.82
10.97
11.01
10.77
10.18
9.28
8.19
7.05
5.93
4.85
3.76
2.54
1.06
-0.80
-3.02
-5.42
-7.69
-9.37
-10.10
-9.67
-8.14
-5.77
-2.93
0.01
2.78
5.19
7.16
8.67
9.73
10.37
10.63
10.54
10.13
9.45
8.56
7.53
6.41
5.23
4.03
2.86
1.77
0.79
-0.13
-1.10
-2.25
-3.69
-5.46
-7.48
-9.61
-11.66
-13.39
-14.51
-14.77
-13.98
-12.09
-9.26
-5.83
-2.22
1.16
4.06
6.38
8.13
9.44
10.43
11.24
12.00
12.80
13.58
14.17
14.29
13.69
12.28
10.19
7.76
5.41
3.46
2.04
1.01
0.06
-1.13
-2.79
-4.97
-7.49
-10.01
-12.12
-13.42
-13.62
-12.68
-10.73
-8.06
-5.00
-1.82
1.31
4.26
6.97
9.38
11.42
13.02
14.20
15.00
15.51
15.75
15.72
15.35
14.62
13.54
12.19
10.67
9.00
7.18
5.21
3.15
1.13
-0.75
-2.46
-4.11
-5.92
-8.09
-10.60
-13.24
-15.66
-17.51
-18.56
-18.74
-18.09
-16.69
-14.65
-12.11
-9.28
-6.43
-3.85
-1.76
-0.24
0.75
1.30
1.56
1.67
1.74
1.83
1.95
2.02
1.92
1.55
0.88
0.00
-0.96
-1.86
-2.64
-3.34
-4.07
-4.96
-6.14
-7.60
-9.27
-10.95
-12.38
-13.27
-13.42
-12.73
-11.23
-9.05
-6.37
-3.41
-0.37
2.56
5.23
7.56
9.46
10.91
11.88
12.35
12.35
11.93
11.23
10.41
9.60
8.86
8.19
7.48
6.67
5.75
4.76
3.79
2.88
1.96
0.93
-0.37
-2.05
-4.13
-6.45
-8.71
-10.52
-11.46
-11.27
-9.92
-7.64
-4.80
-1.83
0.97
3.45
5.63
7.52
9.11
10.30
11.05
11.40
11.53
11.69
12.06
12.59
13.07
13.20
12.75
11.73
10.33
8.87
7.58
6.56
5.73
4.88
3.82
2.41
0.61
-1.55
-3.99
-6.56
-9.02
-11.08
-12.47
-12.93
-12.37
-10.89
-8.70
-6.13
-3.53
-1.18
0.79
2.35
3.59
4.60
5.47
6.21
6.76
7.05
7.02
6.64
5.98
5.13
4.20
3.29
2.42
1.57
0.68
-0.28
-1.32
-2.41
-3.53
-4.78
-6.25
-8.03
-10.07
-12.14
-13.85
-14.85
-14.91
-14.02
-12.33
-10.07
-7.43
-4.53
-1.45
1.67
4.61
7.15
9.11
10.47
11.29
11.74
11.98
12.09
12.11
12.03
11.82
11.47
10.94
10.24
9.38
8.41
7.39
6.43
5.58
4.86
4.20
3.46
2.50
1.22
-0.32
-1.91
-3.21
-3.85
-3.58
-2.38
-0.46
1.79
3.97
5.77
7.08
7.95
8.57
9.11
9.66
10.29
10.98
11.73
12.50
13.24
13.80
14.01
13.70
12.84
11.55
10.08
8.74
7.73
7.09
6.72
6.41
5.98
5.34
4.46
3.40
2.28
1.24
0.42
-0.05
-0.12
0.15
0.67
1.32
2.03
2.73
3.34
3.74
3.77
3.36
2.55
1.50
0.38
-0.67
-1.68
-2.74
-3.93
-5.20
-6.39
-7.33
-7.95
-8.37
-8.82
-9.52
-10.54
-11.77
-13.00
-14.12
-15.19
-16.41
-17.95
-19.79
-21.60
-22.82
-22.87
-21.47
-18.75
-15.22
-11.58
-8.38
-5.84
-3.84
-2.04
-0.09
2.16
4.64
7.11
9.23
10.70
11.28
10.79
9.12
6.34
2.70
-1.29
-4.96
-7.68
-9.05
-9.06
-8.07
-6.73
-5.71
-5.51
-6.39
-8.22
-10.58
-12.86
-14.36
-14.52
-13.12
-10.34
-6.72
-2.93
0.44
3.04
4.85
5.96
6.54
6.69
6.51
6.11
5.65
5.28
5.05
4.89
4.66
4.22
3.54
2.72
1.88
1.08
0.30
-0.61
-1.84
-3.46
-5.44
-7.56
-9.51
-10.97
-11.75
-11.82
-11.33
-10.48
-9.48
-8.40
-7.18
-5.72
-3.98
-2.07
-0.28
1.10
1.86
2.00
1.67
1.09
0.40
-0.40
-1.40
-2.66
-4.03
-5.21
-5.78
-5.47
-4.29
-2.50
-0.55
1.16
2.34
2.90
2.81
2.07
0.61
-1.57
-4.31
-7.27
-9.91
-11.73
-12.38
-11.78
-10.15
-7.90
-5.47
-3.25
-1.44
-0.12
0.77
1.30
1.50
1.33
0.74
-0.28
-1.59
-2.89
-3.76
-3.90
-3.21
-1.93
-0.51
0.54
0.85
0.34
-0.86
-2.43
-4.08
-5.56
-6.78
-7.75
-8.56
-9.23
-9.80
-10.20
-10.32
-10.04
-9.20
-7.65
-5.27
-2.01
2.00
6.46
10.85
14.57
17.04
17.89
17.07
14.87
11.79
8.38
5.19
2.62
0.93
0.20
0.35
1.10
2.05
2.74
2.73
1.75
-0.27
-3.16
-6.52
-9.85
-12.62
-14.39
-14.91
-14.13
-12.23
-9.54
-6.48
-3.51
-1.01
0.80
1.90
2.48
2.83
3.21
3.69
4.10
4.21
3.85
3.11
2.28
1.73
1.69
2.07
2.56
2.78
2.47
1.61
0.38
-0.99
-2.43
-4.00
-5.85
-8.02
-10.31
-12.27
-13.38
-13.24
-11.87
-9.63
-7.07
-4.70
-2.77
-1.27
-0.03
1.09
2.08
2.86
3.35
3.57
3.65
3.75
3.93
4.12
4.19
3.96
3.37
2.41
1.14
-0.37
-2.10
-4.04
-6.14
-8.30
-10.36
-12.16
-13.58
-14.59
-15.23
-15.53
-15.46
-14.94
-13.86
-12.17
-9.96
-7.39
-4.70
-2.13
0.15
2.06
3.59
4.80
5.77
6.57
7.27
7.87
8.32
8.55
8.50
8.14
7.53
6.81
6.13
5.62
5.31
5.10
4.82
4.26
3.29
1.91
0.24
-1.47
-2.95
-3.98
-4.36
-4.05
-3.00
-1.30
0.91
3.41
5.88
8.05
9.68
10.74
11.36
11.74
12.09
12.47
12.82
13.00
12.88
12.39
11.59
10.56
9.37
8.07
6.72
5.33
3.96
2.59
1.16
-0.45
-2.39
-4.69
-7.25
-9.81
-12.05
-13.66
-14.47
-14.45
-13.67
-12.25
-10.36
-8.18
-5.92
-3.79
-1.99
-0.66
0.16
0.57
0.72
0.76
0.78
0.74
0.55
0.12
-0.54
-1.37
-2.22
-3.02
-3.76
-4.50
-5.33
-6.30
-7.37
-8.53
-9.77
-11.17
-12.83
-14.70
-16.54
-17.94
-18.44
-17.75
-15.90
-13.18
-10.09
-7.06
-4.34
-1.92
0.30
2.49
4.70
6.82
8.68
10.16
11.19
11.84
12.20
12.34
12.26
11.85
11.04
9.76
8.10
6.20
4.26
2.44
0.81
-0.64
-2.01
-3.41
-4.91
-6.48
-7.97
-9.11
-9.56
-9.02
-7.42
-4.90
-1.85
1.28
4.10
6.41
8.23
9.71
10.99
12.11
12.99
13.54
13.70
13.51
13.12
12.66
12.23
11.82
11.32
10.61
9.58
8.23
6.56
4.66
2.61
0.47
-1.68
-3.83
-5.98
-8.14
-10.32
-12.46
-14.37
-15.75
-16.28
-15.72
-14.03
-11.37
-8.11
-4.69
-1.51
1.21
3.35
4.96
6.14
6.96
7.51
7.79
7.84
7.68
7.37
6.97
6.49
5.91
5.18
4.22
3.02
1.66
0.23
-1.16
-2.51
-3.90
-5.48
-7.30
-9.22
-10.95
-12.08
-12.31
-11.49
-9.72
-7.21
-4.20
-0.92
2.43
5.64
8.40
10.42
11.48
11.55
10.88
9.91
9.06
8.62
8.67
9.05
9.50
9.75
9.56
8.83
7.52
5.71
3.59
1.38
-0.71
-2.56
-4.20
-5.81
-7.57
-9.55
-11.64
-13.54
-14.91
-15.45
-15.03
-13.71
-11.68
-9.22
-6.64
-4.30
-2.49
-1.43
-1.13
-1.43
-2.06
-2.67
-2.96
-2.75
-2.02
-0.89
0.36
1.38
1.80
1.40
0.17
-1.67
-3.76
-5.73
-7.34
-8.53
-9.44
-10.30
-11.36
-12.81
-14.68
-16.77
-18.65
-19.80
-19.71
-18.15
-15.23
-11.37
-7.11
-2.97
0.76
3.98
6.69
8.91
10.57
11.56
11.83
11.49
10.78
9.98
9.29
8.75
8.26
7.70
7.03
6.30
5.62
5.04
4.52
3.90
2.99
1.67
-0.06
-2.05
-4.04
-5.71
-6.73
-6.87
-6.01
-4.23
-1.74
1.20
4.34
7.49
10.50
13.24
15.59
17.47
18.84
19.68
20.01
19.87
19.34
18.55
17.63
16.66
15.63
14.43
12.94
11.16
9.24
7.38
5.78
4.42
3.11
1.55
-0.48
-3.04
-5.97
-8.94
-11.62
-13.70
-14.98
-15.36
-14.85
-13.54
-11.55
-9.01
-6.06
-2.84
0.49
3.70
6.56
8.86
10.41
11.14
11.11
10.46
9.43
8.22
6.99
5.82
4.70
3.63
2.65
1.85
1.34
1.19
1.26
1.23
0.66
-0.86
-3.48
-6.96
-10.72
-13.98
-16.06
-16.56
-15.47
-13.12
-10.01
-6.64
-3.32
-0.26
2.47
4.81
6.69
8.01
8.68
8.69
8.15
7.25
6.27
5.43
4.86
4.52
4.21
3.65
2.63
1.12
-0.76
-2.78
-4.73
-6.53
-8.22
-9.88
-11.55
-13.05
-14.08
-14.31
-13.51
-11.72
-9.22
-6.39
-3.57
-0.95
1.50
3.90
6.33
8.74
10.92
12.54
13.31
13.12
12.07
10.46
8.64
6.89
5.31
3.81
2.27
0.65
-0.99
-2.42
-3.50
-4.22
-4.81
-5.64
-7.06
-9.16
-11.71
-14.19
-15.93
-16.43
-15.45
-13.14
-9.90
-6.24
-2.57
0.81
3.79
6.31
8.35
9.86
10.84
11.32
11.39
11.11
10.57
9.75
8.69
7.45
6.17
4.98
4.02
3.25
2.54
1.62
0.25
-1.69
-4.16
-6.99
-9.97
-12.90
-15.68
-18.22
-20.38
-21.99
-22.79
-22.58
-21.27
-18.94
-15.83
-12.24
-8.48
-4.79
-1.35
1.69
4.22
6.19
7.65
8.71
9.51
10.15
10.61
10.83
10.74
10.33
9.69
8.91
8.04
7.00
5.65
3.85
1.54
-1.22
-4.26
-7.40
-10.43
-13.10
-15.09
-16.08
-15.82
-14.24
-11.49
-7.93
-4.04
-0.22
3.25
6.25
8.76
10.81
12.45
13.71
14.65
15.33
15.80
16.07
16.08
15.79
15.19
14.36
13.41
12.44
11.46
10.36
8.96
7.07
4.60
1.61
-1.70
-5.01
-7.96
-10.20
-11.36
-11.17
-9.54
-6.67
-3.05
0.69
4.00
6.60
8.55
10.09
11.42
12.61
13.49
13.84
13.51
12.55
11.19
9.71
8.31
7.09
6.01
4.99
3.93
2.80
1.63
0.46
-0.70
-1.94
-3.47
-5.56
-8.42
-12.03
-16.03
-19.85
-22.86
-24.58
-24.78
-23.56
-21.15
-17.84
-13.88
-9.48
-4.88
-0.42
3.55
6.70
8.84
10.03
10.50
10.59
10.60
10.65
10.69
10.56
10.10
9.26
8.14
6.95
5.88
5.01
4.27
3.43
2.20
0.36
-2.20
-5.43
-9.06
-12.66
-15.69
-17.58
-17.90
-16.44
-13.36
-9.09
-4.22
0.61
4.95
8.55
11.36
13.42
14.79
15.47
15.49
14.92
13.94
12.79
11.70
10.78
10.03
9.35
8.67
7.97
7.25
6.44
5.35
3.75
1.45
-1.56
-5.09
-8.76
-12.19
-15.00
-16.91
-17.72
-17.29
-15.62
-12.87
-9.37
-5.56
-1.83
1.60
4.72
7.63
10.45
13.19
15.71
17.78
19.17
19.76
19.52
18.52
16.91
14.84
12.48
10.01
7.57
5.31
3.31
1.54
-0.13
-1.98
-4.31
-7.38
-11.26
-15.76
-20.39
-24.41
-27.06
-27.75
-26.32
-23.14
-19.02
-14.96
-11.84
-10.06
-9.50
-9.56
-9.45
-8.54
-6.52
-3.55
-0.08
3.32
6.14
8.12
9.24
9.64
9.53
9.04
8.24
7.16
5.88
4.52
3.20
1.90
0.42
-1.57
-4.24
-7.41
-10.51
-12.71
-13.25
-11.82
-8.68
-4.49
-0.08
3.90
7.19
9.87
12.22
14.48
16.78
18.99
20.90
22.19
22.62
22.04
20.48
18.15
15.39
12.61
10.15
8.21
6.80
5.70
4.57
3.11
1.08
-1.57
-4.76
-8.24
-11.64
-14.51
-16.36
-16.80
-15.68
-13.22
-9.89
-6.31
-2.98
-0.13
2.28
4.45
6.51
8.43
9.96
10.81
10.82
10.09
8.89
7.58
6.37
5.27
4.12
2.74
1.07
-0.79
-2.64
-4.30
-5.74
-7.09
-8.58
-10.37
-12.50
-14.77
-16.84
-18.31
-18.82
-18.15
-16.32
-13.50
-10.06
-6.42
-2.99
-0.04
2.34
4.20
5.63
6.71
7.40
7.62
7.30
6.51
5.48
4.54
3.98
3.92
4.23
4.61
4.72
4.34
3.41
1.99
0.14
-2.08
-4.62
-7.30
-9.78
-11.58
-12.26
-11.54
-9.55
-6.69
-3.50
-0.42
2.35
4.89
7.33
9.76
12.08
14.14
15.80
17.03
17.90
18.48
18.75
18.65
18.12
17.24
16.18
15.09
14.02
12.79
11.09
8.60
5.15
0.84
-4.00
-8.84
-13.05
-15.96
-17.11
-16.23
-13.45
-9.27
-4.46
0.18
3.97
6.57
7.98
8.54
8.74
9.09
9.94
11.35
13.10
14.75
15.88
16.15
15.50
14.06
12.08
9.82
7.44
5.02
2.57
0.04
-2.66
-5.63
-8.96
-12.59
-16.26
-19.46
-21.58
-22.06
-20.63
-17.43
-12.97
-7.97
-3.13
1.07
4.40
6.85
8.57
9.71
10.39
10.74
10.85
10.78
10.57
10.18
9.51
8.46
6.95
4.97
2.54
-0.31
-3.50
-6.89
-10.28
-13.40
-15.90
-17.49
-17.94
-17.17
-15.24
-12.32
-8.63
-4.42
0.05
4.57
8.90
12.85
16.26
19.02
21.06
22.42
23.21
23.56
23.57
23.19
22.34
20.85
18.64
15.72
12.21
8.31
4.24
0.27
-3.32
-6.34
-8.72
-10.62
-12.36
-14.26
-16.45
-18.70
-20.53
-21.35
-20.78
-18.77
-15.61
-11.75
-7.59
-3.45
0.47
3.92
6.69
8.60
9.62
9.94
9.84
9.63
9.47
9.37
9.24
8.97
8.52
7.91
7.16
6.26
5.18
3.90
2.42
0.69
-1.33
-3.78
-6.73
-10.11
-13.65
-16.83
-19.12
-20.07
-19.54
-17.70
-14.95
-11.73
-8.44
-5.35
-2.62
-0.37
1.38
2.62
3.45
4.02
4.51
5.06
5.67
6.28
6.72
6.83
6.53
5.82
4.82
3.70
2.61
1.61
0.68
-0.33
-1.58
-3.22
-5.31
-7.79
-10.48
-13.15
-15.48
-17.16
-17.88
-17.45
-15.82
-13.11
-9.63
-5.76
-1.92
1.55
4.43
6.59
8.03
8.83
9.17
9.27
9.32
9.40
9.47
9.37
8.93
8.07
6.80
5.26
3.58
1.88
0.23
-1.30
-2.67
-3.86
-4.95
-6.10
-7.44
-9.06
-10.82
-12.37
-13.32
-13.35
-12.42
-10.68
-8.44
-6.02
-3.59
-1.24
1.00
3.02
4.68
5.79
6.24
6.06
5.45
4.68
4.06
3.79
3.97
4.47
5.08
5.53
5.60
5.20
4.38
3.27
2.08
0.99
0.13
-0.52
-1.11
-1.90
-3.14
-4.91
-7.03
-9.07
-10.52
-10.96
-10.30
-8.74
-6.71
-4.58
-2.59
-0.75
1.04
2.80
4.42
5.64
6.20
5.96
5.01
3.58
1.99
0.52
-0.71
-1.65
-2.40
-3.05
-3.64
-4.15
-4.50
-4.59
-4.33
-3.74
-2.99
-2.34
-2.12
-2.55
-3.66
-5.17
-6.60
-7.42
-7.27
-6.05
-3.91
-1.17
1.87
4.92
7.74
10.08
11.72
12.43
12.11
10.87
9.03
7.03
5.29
4.08
3.41
3.13
2.97
2.68
2.15
1.34
0.30
-0.94
-2.38
-4.02
-5.80
-7.60
-9.28
-10.73
-12.00
-13.27
-14.71
-16.38
-18.10
-19.50
-20.08
-19.43
-17.39
-14.07
-9.89
-5.42
-1.25
2.18
4.66
6.26
7.18
7.68
7.96
8.08
8.03
7.77
7.29
6.60
5.77
4.88
3.99
3.15
2.40
1.72
1.06
0.35
-0.53
-1.73
-3.34
-5.46
-8.06
-10.95
-13.73
-15.86
-16.78
-16.12
-13.86
-10.39
-6.33
-2.34
1.11
3.84
5.89
7.44
8.62
9.52
10.14
10.50
10.65
10.66
10.60
10.49
10.27
9.87
9.22
8.28
7.09
5.71
4.30
2.96
1.77
0.70
-0.39
-1.64
-3.11
-4.79
-6.55
-8.19
-9.54
-10.44
-10.76
-10.38
-9.21
-7.27
-4.66
-1.62
1.52
4.44
6.89
8.71
9.86
10.36
10.26
9.66
8.72
7.64
6.65
5.96
5.66
5.70
5.90
5.97
5.69
4.94
3.73
2.15
0.31
-1.77
-4.07
-6.59
-9.28
-12.02
-14.60
-16.83
-18.48
-19.38
-19.44
-18.61
-16.99
-14.75
-12.13
-9.34
-6.55
-3.89
-1.44
0.63
2.18
3.10
3.40
3.21
2.73
2.17
1.63
1.14
0.67
0.20
-0.25
-0.66
-1.06
-1.52
-2.15
-3.05
-4.19
-5.52
-6.91
-8.26
-9.54
-10.72
-11.78
-12.60
-12.98
-12.70
-11.62
-9.70
-7.11
-4.10
-1.00
1.91
4.45
6.48
7.97
8.89
9.29
9.26
8.95
8.51
8.11
7.87
7.84
7.97
8.12
8.08
7.63
6.62
5.05
3.04
0.83
-1.39
-3.56
-5.76
-8.12
-10.68
-13.22
-15.29
-16.36
-16.03
-14.23
-11.30
-7.85
-4.53
-1.79
0.28
1.88
3.34
4.95
6.76
8.56
9.99
10.67
10.38
9.12
7.10
4.67
2.15
-0.24
-2.36
-4.21
-5.81
-7.24
-8.63
-10.15
-12.07
-14.61
-17.88
-21.72
-25.63
-28.94
-30.98
-31.37
-30.14
-27.75
-24.87
-22.09
-19.73
-17.81
-16.15
-14.52
-12.78
-10.88
-8.80
-6.53
-4.10
-1.69
0.36
1.61
1.72
0.65
-1.30
-3.52
-5.45
-6.74
-7.41
-7.83
-8.47
-9.65
-11.36
-13.24
-14.71
-15.16
-14.13
-11.40
-7.05
-1.40
4.98
11.40
17.18
21.77
24.89
26.57
27.03
26.56
25.38
23.65
21.48
19.08
16.71
14.67
13.22
12.47
12.37
12.80
13.56
14.36
14.87
14.76
13.77
11.87
9.36
6.80
4.87
4.18
5.03
7.34
10.70
14.42
17.77
20.16
21.28
21.16
20.06
18.39
16.49
14.57
12.70
10.89
9.16
7.62
6.42
5.68
5.44
5.67
6.26
7.09
7.99
8.75
9.12
8.85
7.82
6.11
4.06
2.18
1.07
1.23
2.85
5.79
9.62
13.71
17.43
20.33
22.15
22.84
22.53
21.42
19.80
18.00
16.30
14.87
13.64
12.32
10.44
7.56
3.49
-1.64
-7.44
-13.35
-18.91
-23.84
-28.01
-31.35
-33.70
-34.83
-34.46
-32.44
-28.94
-24.38
-19.41
-14.69
-10.72
-7.71
-5.67
-4.47
-4.02
-4.26
-5.18
-6.74
-8.80
-11.15
-13.54
-15.71
-17.48
-18.76
-19.53
-19.90
-20.01
-20.03
-20.10
-20.34
-20.79
-21.48
-22.40
-23.45
-24.45
-25.05
-24.88
-23.61
-21.08
-17.33
-12.47
-6.65
0.02
7.28
14.66
21.48
27.00
30.75
32.75
33.43
33.45
33.28
33.00
32.26
30.57
27.64
23.57
18.89
14.36
10.74
8.54
7.85
8.43
9.75
11.28
12.68
13.88
15.01
16.16
17.31
18.26
18.77
18.72
18.24
17.56
16.87
16.16
15.25
13.87
11.95
9.70
7.54
5.93
5.08
4.90
5.03
4.96
4.30
2.85
0.68
-2.00
-4.90
-7.78
-10.47
-12.88
-14.92
-16.43
-17.28
-17.32
-16.50
-14.89
-12.64
-10.00
-7.19
-4.41
-1.82
0.49
2.54
4.44
6.41
8.66
11.33
14.41
17.75
21.13
24.30
27.05
29.20
30.47
30.63
29.46
26.99
23.43
19.19
14.71
10.32
6.13
2.18
-1.52
-4.85
-7.55
-9.31
-9.91
-9.34
-7.81
-5.71
-3.44
-1.33
0.45
1.88
3.01
3.86
4.41
4.59
4.36
3.67
2.52
0.91
-1.21
-3.82
-6.78
-9.78
-12.42
-14.30
-15.21
-15.27
-14.88
-14.61
-15.01
-16.42
-18.84
-21.92
-25.07
-27.63
-29.03
-28.98
-27.51
-24.90
-21.54
-17.83
-14.10
-10.60
-7.54
-5.02
-3.01
-1.30
0.36
2.16
4.09
5.87
7.16
7.70
7.47
6.74
5.88
5.22
4.84
4.63
4.30
3.60
2.39
0.71
-1.21
-2.99
-4.21
-4.48
-3.56
-1.47
1.59
5.27
9.19
13.01
16.41
19.15
21.07
22.15
22.49
22.31
21.79
21.04
20.00
18.51
16.46
13.85
10.90
7.96
5.39
3.47
2.28
1.72
1.51
1.24
0.46
-1.20
-3.89
-7.39
-11.23
-14.77
-17.42
-18.86
-19.08
-18.31
-16.89
-15.05
-12.91
-10.47
-7.76
-4.94
-2.30
-0.22
0.99
1.14
0.26
-1.46
-3.70
-6.13
-8.45
-10.42
-11.90
-12.83
-13.32
-13.60
-14.09
-15.27
-17.55
-21.12
-25.74
-30.80
-35.35
-38.44
-39.35
-37.87
-34.25
-29.18
-23.49
-17.92
-12.98
-8.93
-5.82
-3.56
-2.02
-1.01
-0.32
0.27
0.96
1.85
2.92
4.00
4.86
5.28
5.20
4.72
4.00
3.21
2.38
1.43
0.18
-1.39
-3.16
-4.76
-5.73
-5.67
-4.39
-1.97
1.31
5.07
8.98
12.83
16.48
19.86
22.92
25.52
27.56
28.91
29.49
29.31
28.45
27.05
25.29
23.31
21.18
18.94
16.60
14.17
11.70
9.29
7.03
4.91
2.83
0.59
-1.95
-4.79
-7.77
-10.54
-12.76
-14.19
-14.74
-14.51
-13.66
-12.33
-10.65
-8.69
-6.53
-4.27
-2.01
0.13
1.98
3.36
4.09
4.08
3.39
2.23
0.89
-0.38
-1.44
-2.33
-3.23
-4.36
-5.88
-7.85
-10.19
-12.76
-15.30
-17.41
-18.64
-18.50
-16.68
-13.19
-8.43
-3.14
1.86
5.92
8.75
10.48
11.46
12.06
12.45
12.52
11.98
10.58
8.28
5.32
2.11
-0.94
-3.62
-5.92
-8.02
-10.14
-12.47
-15.07
-17.90
-20.82
-23.65
-26.12
-27.92
-28.77
-28.52
-27.23
-25.17
-22.66
-20.01
-17.32
-14.59
-11.80
-8.94
-6.16
-3.61
-1.44
0.29
1.61
2.56
3.15
3.34
3.07
2.31
1.15
-0.27
-1.78
-3.25
-4.70
-6.22
-7.90
-9.72
-11.48
-12.87
-13.55
-13.31
-12.14
-10.25
-7.91
-5.36
-2.75
-0.09
2.66
5.51
8.43
11.35
14.18
16.86
19.30
21.38
22.94
23.87
24.05
23.50
22.36
20.82
19.14
17.55
16.23
15.21
14.46
13.81
13.08
12.13
10.94
9.66
8.51
7.74
7.47
7.66
8.10
8.49
8.54
8.05
6.93
5.23
3.03
0.47
-2.32
-5.17
-7.87
-10.20
-11.92
-12.88
-13.09
-12.67
-11.88
-10.99
-10.24
-9.74
-9.49
-9.40
-9.34
-9.22
-8.93
-8.39
-7.51
-6.21
-4.43
-2.16
0.49
3.34
6.09
8.44
10.17
11.21
11.62
11.55
11.01
9.89
7.90
4.76
0.36
-5.10
-11.13
-17.07
-22.30
-26.42
-29.24
-30.80
-31.24
-30.73
-29.52
-27.83
-25.96
-24.17
-22.69
-21.66
-21.08
-20.82
-20.68
-20.38
-19.67
-18.41
-16.59
-14.30
-11.67
-8.77
-5.57
-2.03
1.89
6.10
10.35
14.32
17.66
20.13
21.64
22.23
22.00
21.14
19.84
18.35
16.90
15.69
14.82
14.28
13.93
13.63
13.28
12.80
12.12
11.17
9.88
8.21
6.31
4.43
2.92
2.07
2.00
2.63
3.81
5.40
7.29
9.42
11.68
13.92
15.90
17.42
18.40
18.85
18.86
18.51
17.91
17.11
16.18
15.19
14.16
13.06
11.81
10.29
8.45
6.33
4.03
1.66
-0.72
-3.11
-5.57
-8.19
-10.99
-13.86
-16.57
-18.77
-20.11
-20.35
-19.48
-17.72
-15.48
-13.17
-11.06
-9.20
-7.54
-6.01
-4.63
-3.54
-2.84
-2.55
-2.56
-2.72
-2.94
-3.24
-3.71
-4.41
-5.35
-6.42
-7.56
-8.72
-9.99
-11.41
-13.04
-14.85
-16.78
-18.79
-20.91
-23.14
-25.44
-27.63
-29.39
-30.37
-30.27
-28.95
-26.47
-23.04
-18.96
-14.54
-10.01
-5.52
-1.16
2.94
6.69
9.93
12.53
14.42
15.61
16.21
16.33
16.13
15.69
15.08
14.35
13.52
12.58
11.43
9.92
7.89
5.24
1.98
-1.77
-5.82
-9.94
-13.93
-17.67
-21.06
-24.08
-26.81
-29.39
-31.85
-33.80
-34.35
-32.31
-26.61
-16.96
-4.15
10.10
23.70
34.87
42.67
47.03
48.44
47.55
45.02
41.56
38.12
35.82
35.68
38.09
42.55
47.77
52.16
54.47
54.18
51.61
47.63
43.17
38.93
35.23
32.11
29.53
27.42
25.75
24.41
23.18
21.74
19.86
17.48
14.90
12.68
11.52
12.04
14.48
18.60
23.73
28.92
33.24
35.97
36.74
35.50
32.46
28.04
22.77
17.25
12.05
7.57
3.97
1.13
-1.28
-3.61
-6.09
-8.77
-11.53
-14.14
-16.44
-18.34
-19.85
-21.06
-22.08
-22.97
-23.76
-24.43
-24.91
-25.12
-24.98
-24.39
-23.37
-21.99
-20.47
-19.11
-18.17
-17.78
-17.88
-18.27
-18.69
-18.93
-18.98
-18.96
-19.00
-19.17
-19.37
-19.39
-18.97
-17.95
-16.24
-13.83
-10.73
-6.99
-2.77
1.61
5.70
9.00
11.20
12.33
12.78
13.16
14.04
15.67
17.91
20.33
22.41
23.79
24.37
24.28
23.73
22.88
21.75
20.26
18.35
16.06
13.52
10.87
8.18
5.40
2.42
-0.85
-4.34
-7.82
-10.97
-13.53
-15.44
-16.84
-18.00
-19.16
-20.43
-21.74
-22.90
-23.72
-24.06
-23.81
-22.91
-21.32
-19.08
-16.30
-13.19
-9.98
-6.91
-4.10
-1.61
0.53
2.33
3.81
5.01
6.02
6.94
7.79
8.56
9.17
9.51
9.54
9.29
8.78
8.01
6.95
5.53
3.72
1.62
-0.59
-2.64
-4.28
-5.26
-5.42
-4.66
-2.95
-0.43
2.61
5.65
8.14
9.65
10.05
9.55
8.61
7.67
7.03
6.68
6.44
6.06
5.39
4.43
3.29
2.10
0.94
-0.15
-1.21
-2.29
-3.51
-5.00
-6.90
-9.34
-12.33
-15.81
-19.59
-23.42
-26.89
-29.56
-31.01
-31.01
-29.66
-27.49
-25.36
-24.18
-24.54
-26.48
-29.50
-32.79
-35.61
-37.60
-38.79
-39.44
-39.83
-40.08
-40.05
-39.49
-38.12
-35.77
-32.46
-28.43
-24.08
-19.89
-16.28
-13.48
-11.48
-10.03
-8.75
-7.19
-4.93
-1.57
3.22
9.53
17.17
25.53
33.72
40.77
45.95
48.90
49.73
48.86
46.88
44.41
41.99
40.12
39.17
39.35
40.58
42.43
44.23
45.14
44.46
41.83
37.27
31.16
24.01
16.34
8.56
1.00
-5.98
-11.94
-16.38
-18.86
-19.16
-17.36
-13.86
-9.28
-4.35
0.23
3.98
6.61
8.09
8.56
8.20
7.18
5.63
3.66
1.45
-0.70
-2.45
-3.53
-3.82
-3.48
-2.91
-2.60
-2.93
-3.94
-5.34
-6.56
-7.10
-6.76
-5.88
-5.20
-5.62
-7.75
-11.47
-15.90
-19.58
-21.10
-19.64
-15.58
-10.33
-5.88
-4.07
-5.79
-10.79
-17.91
-25.62
-32.18
-35.71
-34.29
-26.67
-13.19
3.75
19.99
31.23
34.90
31.39
23.71
15.78
10.30
7.56
5.77
2.63
-3.07
-10.72
-18.48
-24.47
-27.71
-28.39
-27.45
-25.88
-24.45
-23.51
-23.00
-22.78
-22.72
-22.79
-23.05
-23.59
-24.39
-25.26
-25.80
-25.53
-24.17
-21.79
-18.91
-16.33
-14.83
-14.80
-16.00
-17.61
-18.48
-17.59
-14.38
-8.99
-2.14
5.14
11.91
17.58
22.06
25.59
28.50
30.97
32.96
34.24
34.63
34.10
32.90
31.45
30.19
29.42
29.14
29.11
28.96
28.32
26.93
24.73
21.79
18.30
14.54
10.83
7.55
5.14
3.96
4.19
5.73
8.19
10.94
13.33
14.85
15.29
14.81
13.76
12.61
11.71
11.22
11.12
11.29
11.62
12.07
12.66
13.41
14.25
15.01
15.46
15.42
14.84
13.82
12.57
11.30
10.11
8.99
7.85
6.57
5.06
3.27
1.17
-1.18
-3.64
-5.96
-7.76
-8.68
-8.45
-7.02
-4.61
-1.63
1.41
4.14
6.42
8.38
10.27
12.39
14.88
17.71
20.62
23.29
25.37
26.61
26.89
26.21
24.69
22.46
19.65
16.35
12.66
8.67
4.54
0.47
-3.40
-6.99
-10.27
-13.21
-15.70
-17.68
-19.20
-20.42
-21.55
-22.54
-22.99
-22.07
-18.96
-13.23
-5.23
3.93
12.84
20.35
25.96
29.90
32.81
35.25
37.47
39.37
40.67
41.17
40.77
39.47
37.21
33.74
28.75
22.11
14.19
5.89
-1.55
-6.91
-9.51
-9.49
-7.70
-5.37
-3.58
-2.91
-3.35
-4.48
-5.83
-7.14
-8.45
-9.97
-11.88
-14.13
