1533220432.00
64.000000
-0.00
-0.00
-0.00
-0.00
-0.00
-0.00
-0.00
-0.00
-0.00
-0.00
0.00
0.01
0.01
-0.00
-0.03
-0.05
-0.05
0.00
0.13
0.36
0.66
1.01
1.37
1.72
2.06
2.40
2.79
3.24
3.80
4.42
5.06
5.66
6.20
6.68
7.15
7.68
8.31
9.14
10.09
11.04
11.88
12.56
13.14
13.76
14.65
15.96
17.91
20.32
22.90
25.38
27.58
29.57
31.68
34.32
37.81
42.54
48.15
54.10
59.83
64.97
69.58
74.14
79.34
85.71
93.76
103.00
112.62
121.73
129.77
136.75
143.30
150.75
157.77
166.64
177.95
191.79
206.97
220.57
228.25
225.36
208.53
176.87
132.76
80.05
23.07
-34.94
-92.44
-149.16
-205.23
-260.37
-313.74
-363.87
-409.83
-450.91
-486.50
-515.74
-537.23
-549.22
-549.96
-538.37
-514.21
-478.67
-433.88
-382.45
-327.02
-269.84
-212.63
-156.66
-102.95
-52.37
-5.90
35.58
71.43
101.35
125.50
144.38
158.69
169.15
176.37
180.75
182.57
182.07
179.51
175.23
169.65
163.18
156.15
148.81
141.30
133.69
126.02
118.33
110.69
103.16
95.80
88.68
81.83
75.25
68.95
62.95
57.25
51.86
46.78
42.03
37.59
33.45
29.61
26.07
22.81
19.83
17.11
14.67
12.48
10.54
8.83
7.35
6.07
4.97
4.05
3.27
2.62
2.09
1.65
1.30
1.01
0.79
0.61
0.47
0.37
0.29
0.23
0.19
0.17
0.16
0.16
0.17
0.18
0.21
0.24
0.29
0.35
0.40
0.44
0.43
0.39
0.33
0.27
0.24
0.27
0.35
0.44
0.53
0.57
0.55
0.51
0.48
0.51
0.63
0.82
1.03
1.21
1.30
1.29
1.23
1.22
1.35
1.69
2.19
2.72
3.11
3.25
3.10
2.80
2.59
2.72
3.30
4.27
5.35
6.16
6.40
6.01
5.24
4.57
4.49
5.26
6.77
8.52
9.80
10.09
9.22
7.52
5.63
4.15
3.33
2.89
2.11
0.16
-3.59
-9.40
-17.25
-26.66
-36.66
-45.61
-51.40
-51.99
-46.34
-35.15
-20.94
-7.25
2.77
7.58
7.73
5.30
2.71
1.60
2.26
3.92
5.55
6.55
6.98
7.41
8.36
9.89
11.47
12.10
10.97
7.96
3.85
0.10
-1.75
-0.89
2.42
6.92
11.02
13.52
13.99
12.70
10.18
6.76
2.41
-2.95
-9.07
-15.04
-19.43
-20.84
-18.65
-13.36
-6.60
-0.51
3.08
3.20
0.06
-5.32
-11.49
-17.17
-21.51
-24.17
-25.23
-25.01
-24.03
-22.86
-21.96
-21.49
-21.15
-20.36
-18.34
-14.56
-8.95
-2.11
5.01
11.35
16.28
19.69
21.96
23.69
25.40
27.38
29.62
31.97
34.17
35.97
37.17
37.65
37.46
36.80
35.93
35.12
34.54
34.16
33.72
32.87
31.23
28.55
24.71
19.76
13.76
6.89
-0.64
-8.53
-16.49
-24.27
-31.62
-38.29
-43.88
-47.82
-49.44
-48.30
-44.43
-38.50
-31.60
-24.85
-19.03
-14.27
-10.20
-6.26
-2.01
2.57
7.21
11.48
15.04
17.81
19.89
21.48
22.72
23.61
23.97
23.48
21.80
18.81
14.71
10.01
5.39
1.40
-1.73
-4.18
-6.36
-8.72
-11.58
-15.06
-19.18
-23.85
-28.88
-33.85
-38.04
-40.46
-40.17
-36.65
-30.17
-21.81
-13.08
-5.41
0.39
4.35
7.15
9.70
12.67
16.22
20.04
23.59
26.40
28.30
29.43
30.06
30.40
30.53
30.42
29.98
29.21
28.15
26.89
25.39
23.46
20.84
17.29
12.82
7.77
2.70
-1.75
-5.19
-7.66
-9.63
-11.85
-15.07
-19.71
-25.57
-31.87
-37.35
-40.65
-40.77
-37.41
-31.07
-22.92
-14.38
-6.68
-0.55
3.94
7.17
9.76
12.20
14.65
17.03
19.03
20.42
21.11
21.22
20.97
20.53
19.93
19.01
17.64
15.79
13.70
11.81
10.59
10.31
10.85
11.79
12.52
12.52
11.54
9.65
7.14
4.37
1.54
-1.29
-4.15
-7.07
-10.09
-13.24
-16.64
-20.46
-24.77
-29.33
-33.47
-36.23
-36.58
-33.91
-28.27
-20.49
-11.87
-3.73
2.99
8.01
11.61
14.34
16.69
18.90
20.92
22.58
23.80
24.64
25.32
26.04
26.84
27.59
28.02
27.86
27.05
25.70
24.12
22.63
21.41
20.42
19.41
17.99
15.81
12.69
8.58
3.61
-2.06
-8.34
-15.12
-22.19
-29.06
-34.94
-38.83
-39.86
-37.64
-32.41
-25.04
-16.71
-8.58
-1.42
4.49
9.32
13.53
17.56
21.63
25.55
28.84
30.90
31.29
30.00
27.47
24.37
21.26
18.32
15.37
12.07
8.28
4.20
0.28
-3.09
-5.86
-8.29
-10.77
-13.60
-16.76
-20.10
-23.46
-27.00
-31.08
-36.12
-42.21
-48.91
-55.22
-59.90
-61.87
-60.58
-56.12
-49.16
-40.59
-31.14
-21.27
-11.10
-0.73
9.55
19.01
26.63
31.47
33.01
31.46
27.66
22.79
18.01
14.04
11.11
9.02
7.37
5.76
3.88
1.59
-1.17
-4.36
-7.87
-11.56
-15.29
-18.95
-22.52
-26.04
-29.52
-32.88
-35.89
-38.18
-39.27
-38.73
-36.35
-32.22
-26.77
-20.64
-14.53
-8.97
-4.24
-0.33
2.87
5.49
7.50
8.77
9.09
8.35
6.67
4.35
1.82
-0.52
-2.56
-4.43
-6.57
-9.50
-13.68
-19.29
-26.12
-33.60
-40.86
-47.03
-51.57
-54.57
-56.95
-60.25
-66.22
-76.23
-90.63
-108.34
-126.97
-143.40
-154.54
-158.24
-153.77
-141.84
-124.36
-103.80
-82.66
-62.91
-45.54
-30.50
-16.77
-2.88
12.51
29.97
49.02
68.35
86.28
101.46
113.21
121.58
127.12
130.65
133.13
135.63
139.22
144.78
152.59
162.03
171.56
179.07
182.51
180.61
173.31
161.77
147.81
133.04
118.05
102.08
83.52
60.89
33.84
3.73
-26.87
-55.07
-78.75
-97.04
-110.00
-117.98
-121.13
-119.25
-112.44
-101.53
-88.26
-74.73
-62.59
-52.31
-43.17
-33.71
-22.73
-9.89
4.03
17.47
28.80
36.98
41.85
44.01
44.45
44.09
43.47
42.72
41.68
40.14
37.93
34.98
31.33
27.06
22.33
17.29
12.15
7.05
1.98
-3.25
-9.03
-15.82
-23.90
-33.16
-42.87
-51.75
-58.27
-61.15
-59.90
-55.00
-47.83
-40.15
-33.44
-28.45
-25.06
-22.49
-19.83
-16.46
-12.35
-7.91
-3.79
-0.45
2.00
3.80
5.35
6.93
8.55
9.96
10.83
10.95
10.36
9.30
8.02
6.72
5.39
3.93
2.22
0.20
-2.18
-5.04
-8.60
-13.05
-18.33
-23.97
-28.99
-32.28
-32.92
-30.63
-25.80
-19.33
-12.22
-5.15
1.63
8.23
14.91
21.78
28.70
35.12
40.23
43.17
43.29
40.52
35.54
29.70
24.58
21.48
20.92
22.55
25.30
27.80
28.77
27.29
22.92
15.80
6.67
-3.25
-12.46
-19.68
-24.19
-26.11
-26.33
-26.13
-26.66
-28.50
-31.40
-34.43
-36.37
-36.15
-33.31
-28.12
-21.40
-14.26
-7.54
-1.65
3.48
8.17
12.74
17.29
21.73
25.91
29.71
33.10
36.03
38.41
40.01
40.64
40.23
38.97
37.37
35.99
35.22
35.19
35.68
36.26
36.42
35.84
34.42
32.31
29.77
27.11
24.50
21.90
19.10
15.81
11.87
7.27
2.30
-2.53
-6.71
-9.83
-11.79
-12.85
-13.40
-13.97
-14.96
-16.63
-18.99
-21.79
-24.46
-26.12
-25.72
-22.32
-15.54
-5.84
5.57
17.08
27.25
35.54
42.39
48.99
56.56
65.69
75.95
86.11
94.63
100.35
102.85
102.53
100.23
96.79
92.74
88.26
83.70
79.78
77.87
79.58
85.92
96.44
109.00
120.10
125.88
123.24
110.38
86.57
51.69
6.18
-48.11
-106.69
-161.85
-203.59
-222.45
-213.02
-176.48
-120.65
-57.38
1.58
48.15
79.41
96.70
103.41
102.95
97.96
90.88
84.62
82.86
89.07
105.11
130.13
160.34
189.86
212.80
225.12
225.97
217.70
204.58
190.80
178.58
167.31
154.27
136.32
111.83
81.70
48.95
17.17
-11.13
-35.55
-57.50
-79.12
-102.05
-126.93
-153.74
-182.47
-213.56
-247.37
-283.27
-318.46
-347.95
-365.61
-366.38
-348.29
-313.41
-267.16
-216.23
-166.33
-120.99
-81.07
-45.61
-13.27
16.60
44.01
68.57
90.24
109.51
126.59
141.39
153.31
161.32
164.29
161.58
153.21
140.36
125.09
108.77
92.41
76.31
59.83
41.43
19.74
-5.98
-34.38
-62.20
-87.55
-108.28
-122.45
-129.44
-131.15
-131.02
-133.98
-142.97
-157.92
-180.89
-210.96
-243.86
-274.01
-297.70
-312.92
-321.78
-325.53
-324.12
-324.38
-330.63
-342.08
-354.45
-364.60
-371.14
-379.76
-395.70
-422.10
-468.90
-538.90
-623.80
-707.51
-774.80
-814.79
-829.72
-825.08
-746.99
-577.58
-343.46
-99.05
111.64
254.43
349.13
412.26
456.89
494.01
524.12
546.53
565.41
589.03
624.32
676.01
727.79
760.69
760.13
714.85
627.47
513.19
392.88
284.58
200.71
141.82
106.54
93.20
95.17
105.96
120.47
134.46
143.13
145.32
136.35
116.11
88.13
55.03
19.73
-14.21
-42.86
-63.22
-73.41
-75.25
-70.83
-62.40
-52.86
-44.49
-38.15
-33.14
-29.34
-25.83
-22.54
-18.75
-13.60
-6.38
3.28
15.54
30.29
47.11
65.45
84.42
103.72
123.52
144.07
164.94
184.37
199.52
207.72
208.23
202.78
195.21
189.44
187.41
188.00
188.01
184.24
175.54
163.39
150.43
138.44
126.93
113.43
95.38
71.99
45.02
17.72
-7.13
-28.76
-48.58
-68.87
-90.89
-113.73
-134.48
-149.64
-156.72
-155.10
-145.96
-131.28
-112.92
-92.12
-69.49
-45.53
-21.22
1.68
20.78
33.86
40.18
41.52
42.28
48.25
64.23
91.78
128.12
167.02
201.20
224.91
235.61
233.77
221.46
200.78
172.92
138.61
98.90
56.14
13.99
-23.29
-52.16
-71.07
-80.99
-84.95
-86.57
-88.30
-90.38
-91.17
-88.71
-82.59
-74.90
-69.48
-69.94
-77.58
-90.51
-104.61
-115.54
-120.83
-120.70
-117.46
-113.97
-112.20
-112.63
-114.44
-116.35
-117.37
-117.16
-116.09
-114.90
-114.33
-114.75
-116.04
-117.67
-118.93
-119.09
-117.49
-113.47
-106.54
-96.53
-83.87
-69.69
-55.49
-42.63
-31.80
-22.85
-15.15
-8.20
-2.14
2.23
3.82
2.00
-2.97
-9.84
-16.79
-22.17
-25.09
-25.70
-25.03
-24.32
-24.43
-25.46
-26.78
-27.58
-27.42
-26.65
-26.29
-27.57
-31.26
-37.34
-45.11
-53.43
-60.97
-66.49
-68.78
-66.96
-60.71
-50.65
-38.33
-25.92
-15.42
-8.01
-3.72
-1.73
-1.02
-0.95
-1.53
-3.11
-5.93
-9.76
-13.78
-16.96
-18.53
-18.30
-16.73
-14.84
-13.66
-13.91
-15.77
-18.91
-22.71
-26.49
-29.74
-32.19
-33.74
-34.49
-34.70
-34.86
-35.56
-37.37
-40.35
-43.88
-46.60
-46.93
-43.63
-36.50
-26.48
-15.42
-5.31
2.38
7.09
9.13
9.16
7.85
5.57
2.52
-1.15
-5.09
-8.83
-11.99
-14.43
-16.31
-18.09
-20.32
-23.47
-27.77
-33.17
-39.45
-46.41
-53.92
-62.11
-71.22
-81.35
-92.29
-103.45
-114.02
-123.18
-130.33
-135.22
-137.83
-138.28
-137.05
-134.49
-130.61
-125.05
-117.12
-105.80
-89.89
-68.49
-41.43
-10.00
23.50
56.24
85.40
108.67
124.70
133.49
136.28
135.34
132.55
129.80
128.80
130.48
134.71
140.32
145.78
149.76
151.49
148.76
140.81
128.75
114.74
100.56
87.07
74.65
63.78
55.16
45.41
32.92
19.05
6.79
-1.72
-5.93
-5.85
-1.35
7.37
12.38
7.25
-9.97
-37.57
-73.12
-114.97
-161.94
-213.43
-269.73
-339.86
-427.19
-524.42
-616.38
-687.75
-729.78
-741.82
-730.17
-652.30
-501.22
-309.36
-126.14
17.39
116.90
180.95
220.00
242.73
256.06
257.28
246.03
228.55
212.98
204.99
205.04
211.09
221.33
235.50
248.41
258.97
271.83
287.81
306.42
323.00
331.55
328.07
312.41
284.11
246.74
207.23
172.32
146.04
127.92
115.20
105.05
95.86
85.47
73.65
62.15
53.20
48.53
47.76
49.10
50.26
49.18
43.80
33.41
18.85
2.14
-13.96
-27.17
-35.94
-39.68
-38.86
-34.85
-29.65
-25.44
-24.21
-27.02
-34.02
-44.19
-55.39
-64.83
-69.72
-68.16
-59.84
-46.25
-30.16
-14.78
-2.62
5.34
9.64
11.87
13.69
16.06
19.01
21.85
23.77
24.28
23.23
20.62
16.49
10.89
4.07
-3.34
-10.39
-16.19
-20.22
-22.55
-23.79
-24.69
-25.87
-27.67
-30.26
-33.73
-38.17
-43.43
-48.95
-53.68
-56.26
-55.58
-51.08
-42.96
-32.20
-20.52
-10.08
-3.36
-2.60
-8.91
-21.24
-36.00
-47.84
-51.71
-45.11
-29.36
-9.01
10.36
24.77
33.14
36.95
38.48
39.05
38.56
36.18
31.56
25.42
18.94
12.52
4.65
-8.09
-29.97
-64.09
-110.78
-166.56
-224.51
-275.97
-313.10
-331.44
-331.31
-317.54
-297.53
-278.49
-265.07
-258.35
-256.37
-255.82
-253.88
-249.33
-242.70
-235.53
-229.37
-224.50
-219.62
-212.05
-198.47
-176.20
-144.00
-102.06
-51.26
6.87
70.02
134.29
194.05
243.57
280.08
305.66
327.12
353.06
389.33
435.48
484.38
525.92
552.21
561.56
557.85
546.84
532.04
512.89
486.00
448.33
400.11
345.84
293.62
251.57
224.72
213.28
213.03
216.65
215.97
204.67
180.82
149.83
120.07
99.72
94.03
104.44
128.51
160.73
194.30
222.80
245.79
262.24
269.45
264.83
248.68
225.05
200.21
180.38
169.88
177.28
204.05
243.83
286.29
323.31
351.65
371.96
386.74
398.60
418.09
448.01
480.64
501.78
499.48
469.47
416.36
351.48
230.75
51.70
-151.87
-334.70
-472.74
-566.90
-627.89
-664.33
-681.14
-682.11
-662.92
-625.61
-578.06
-531.12
-490.63
-456.49
-425.34
-394.34
-362.37
-322.96
-274.57
-221.71
-172.00
-130.60
-102.43
-87.86
-85.06
-90.93
-97.47
-99.61
-96.94
-92.25
-88.06
-85.23
-82.84
-79.96
-76.46
-70.91
-63.59
-56.20
-50.60
-47.09
-44.61
-41.44
-37.06
-32.37
-28.50
-26.87
-28.41
-32.95
-38.89
-44.01
-46.22
-44.66
-39.76
-32.74
-24.96
-17.47
-10.77
-5.01
-0.26
3.49
6.09
7.41
7.54
6.87
5.97
5.38
5.31
5.60
5.82
5.49
4.35
2.46
0.18
-1.99
-3.67
-4.71
-5.31
-5.89
-6.99
-9.00
-11.93
-15.38
-18.59
-20.83
-21.66
-21.19
-19.98
-18.81
-18.20
-18.16
-18.26
-17.90
-16.68
-14.69
-12.34
-10.19
-8.61
-7.69
-7.38
-7.62
-8.54
-10.38
-13.36
-17.57
-22.85
-28.90
-35.27
-41.31
-45.96
-47.83
-45.63
-38.92
-28.80
-18.10
-10.59
-9.77
-17.44
-33.13
-54.37
-77.38
-98.14
-112.94
-119.02
-115.42
-104.05
-89.97
-80.23
-81.13
-95.09
-119.00
-145.24
-165.16
-173.12
-168.74
-156.24
-141.44
-128.54
-118.48
-109.73
-100.36
-89.85
-79.45
-70.99
-65.41
-61.94
-58.69
-53.78
-46.69
-38.61
-31.87
-28.75
-30.18
-35.32
-41.77
-46.67
-47.79
-44.60
-38.33
-31.28
-25.60
-22.25
-20.66
-19.03
-15.40
-8.51
1.36
12.53
23.01
31.53
38.25
44.78
53.68
67.28
87.05
112.41
140.48
166.59
185.38
192.20
184.78
165.13
139.53
117.62
108.54
118.40
149.00
198.32
261.00
329.01
393.09
443.39
472.15
474.00
447.83
398.14
334.69
268.90
209.43
160.36
120.16
84.93
48.77
5.98
-47.14
-111.13
-184.76
-266.16
-351.80
-437.05
-502.67
-525.47
-494.03
-419.84
-328.32
-242.58
-178.51
-131.70
-96.10
-68.24
-50.67
-48.58
-67.20
-104.81
-151.35
-191.71
-211.11
-202.65
-168.24
-118.23
-64.31
-15.83
24.26
58.77
93.09
132.27
177.91
229.48
284.30
340.87
395.53
442.97
477.18
493.54
490.80
470.81
438.57
384.22
309.19
223.77
142.11
73.77
20.86
-18.82
-47.94
-67.60
-78.46
-77.64
-65.02
-44.88
-24.97
-13.49
-16.28
-34.96
-67.65
-109.24
-151.23
-186.97
-212.94
-228.32
-233.47
-229.32
-217.61
-201.37
-184.17
-167.43
-151.21
-134.25
-114.45
-89.99
-60.77
-29.08
0.72
23.70
36.59
37.74
27.39
7.55
-18.08
-44.68
-67.04
-80.69
-82.88
-73.09
-53.58
-28.70
-3.62
17.12
30.66
36.22
34.89
28.88
20.77
12.65
5.86
1.02
-1.64
-1.97
0.06
4.23
9.85
15.78
20.71
23.61
24.00
22.02
18.16
13.06
7.25
1.15
-4.90
-10.66
-15.97
-20.87
-25.57
-30.22
-34.83
-39.00
-42.01
-42.98
-41.17
-36.20
-28.23
-17.97
-6.60
4.49
14.02
21.19
25.90
28.80
31.02
33.83
38.41
45.78
56.99
73.04
94.36
120.23
148.39
175.56
198.67
216.19
228.47
237.06
243.02
245.63
242.25
229.64
205.81
171.44
129.76
85.30
42.24
3.46
-29.47
-55.60
-74.14
-84.58
-87.38
-84.50
-79.19
-75.06
-74.81
-79.19
-86.95
-95.50
-102.13
-105.13
-104.29
-100.82
-96.68
-93.70
-93.04
-94.94
-99.02
-104.58
-111.06
-118.04
-125.20
-132.21
-138.70
-144.38
-149.21
-153.51
-157.80
-162.45
-167.46
-172.30
-176.20
-178.42
-178.54
-176.53
-172.55
-166.69
-158.75
-147.95
-132.95
-112.15
-84.32
-49.44
-9.38
32.11
70.28
100.87
121.52
132.48
136.16
135.97
134.82
134.11
133.40
130.96
124.53
112.39
93.94
69.99
42.61
14.57
-11.55
-34.08
-52.68
-68.26
-82.30
-95.95
-109.19
-120.32
-126.23
-123.30
-108.74
-81.98
-45.28
-3.46
37.49
72.17
97.32
112.38
119.02
120.04
118.01
114.48
110.05
104.83
98.99
92.97
87.11
81.11
73.92
64.03
50.27
32.60
12.40
-8.09
-26.61
-41.66
-52.68
-59.67
-62.71
-61.80
-57.25
-50.16
-42.49
-36.60
-34.21
-35.78
-40.39
-46.59
-53.12
-59.50
-65.75
-71.91
-77.54
-81.82
-83.93
-83.53
-80.88
-76.49
-70.69
-63.33
-54.00
-42.51
-29.23
-15.25
-2.01
9.07
16.99
21.24
21.84
19.33
14.77
9.73
6.02
5.26
8.42
15.52
25.63
37.16
48.43
58.05
65.24
69.91
72.46
73.60
74.06
74.47
75.19
76.33
77.83
79.51
81.22
82.76
83.91
84.40
84.04
82.78
80.79
78.33
75.62
72.57
68.90
64.32
58.71
52.33
45.64
39.09
32.87
26.84
20.66
14.07
7.19
0.59
-4.81
-7.92
-7.93
-4.49
2.17
11.25
21.68
32.41
42.66
52.07
60.58
68.31
75.41
81.94
87.84
92.93
96.90
99.28
99.55
97.34
92.59
85.64
77.11
67.68
57.87
47.88
37.73
27.35
16.75
6.06
-4.57
-15.02
-25.26
-35.27
-44.96
-54.16
-62.66
-70.25
-76.78
-82.17
-86.27
-88.95
-90.18
-90.18
-89.55
-89.13
-89.70
-91.65
-94.68
-97.93
-100.24
-100.69
-98.82
-94.80
-89.21
-82.72
-75.91
-69.08
-62.38
-55.82
-49.49
-43.58
-38.39
-34.18
-31.14
-29.24
-28.18
-27.46
-26.55
-25.10
-23.08
-20.83
-18.94
-17.96
-18.22
-19.68
-22.01
-24.90
-28.10
-31.67
-35.80
-40.74
-46.62
-53.47
-61.23
-69.62
-78.06
-85.54
-90.67
-92.13
-89.12
-81.85
-71.67
-60.60
-50.57
-42.68
-36.87
-32.08
-26.98
-20.59
-12.72
-3.94
4.83
12.80
19.69
25.77
31.63
37.81
44.44
51.17
57.37
62.37
65.88
67.93
68.77
68.57
67.25
64.50
60.09
54.17
47.43
40.86
35.30
31.06
27.68
24.21
19.55
13.01
4.60
-4.89
-14.13
-21.59
-25.93
-26.36
-22.84
-16.17
-7.71
0.87
8.14
13.32
16.42
18.23
19.98
22.82
27.38
33.55
40.45
46.73
51.14
52.93
52.19
49.82
47.14
45.36
45.18
46.62
49.13
52.01
54.66
56.68
57.89
58.09
57.15
55.02
51.85
48.13
44.58
41.95
40.70
40.84
41.74
42.28
41.12
37.22
30.26
20.89
10.58
1.09
-6.22
-10.92
-13.63
-15.62
-18.22
-22.23
-27.78
-34.42
-41.46
-48.29
-54.45
-59.64
-63.64
-66.21
-67.16
-66.37
-63.82
-59.66
-54.19
-47.87
-41.17
-34.50
-28.10
-22.01
-16.11
-10.23
-4.37
1.30
6.43
10.64
13.71
15.60
16.49
16.65
16.28
15.56
14.57
13.43
12.22
10.99
9.69
8.20
6.39
4.15
1.53
-1.33
-4.32
-7.38
-10.68
-14.54
-19.37
-25.45
-32.75
-40.79
-48.59
-54.88
-58.42
-58.42
-54.79
-48.25
-40.07
-31.62
-24.00
-17.77
-13.00
-9.46
-6.91
-5.21
-4.35
-4.30
-4.91
-5.94
-7.19
-8.61
-10.28
-12.39
-15.01
-18.05
-21.24
-24.33
-27.22
-30.07
-33.24
-37.20
-42.31
-48.64
-56.00
-63.92
-71.82
-79.13
-85.47
-90.62
-94.59
-97.47
-99.32
-99.97
-98.93
-95.37
-88.35
-77.19
-61.90
-43.41
-23.47
-4.12
12.88
26.59
37.05
45.17
52.24
59.47
67.56
76.52
85.77
94.40
101.55
106.76
109.99
111.53
111.62
110.22
107.05
101.85
94.68
86.06
76.79
67.55
58.65
49.85
40.68
30.64
19.44
7.11
-6.08
-19.57
-32.60
-44.17
-53.19
-58.75
-60.39
-58.29
-53.19
-46.08
-37.89
-29.24
-20.45
-11.68
-3.16
4.72
11.52
16.82
20.54
22.91
24.50
25.99
28.00
30.77
34.17
37.66
40.57
42.26
42.35
40.85
38.00
34.19
29.75
24.80
19.27
12.95
5.63
-2.67
-11.55
-20.15
-27.30
-31.84
-33.02
-30.75
-25.68
-18.93
-11.75
-5.17
0.23
4.31
7.31
9.67
11.83
14.05
16.36
18.48
20.11
21.04
21.40
21.56
21.94
22.72
23.72
24.51
24.70
24.20
23.26
22.30
21.58
21.07
20.41
19.19
17.14
14.36
11.22
8.21
5.65
3.52
1.41
-1.38
-5.48
-11.24
-18.40
-26.13
-33.12
-38.01
-39.78
-38.05
-33.19
-26.20
-18.35
-10.88
-4.63
0.10
3.41
5.67
7.20
8.18
8.65
8.63
8.23
7.62
7.06
6.71
6.53
6.31
5.64
4.08
1.27
-2.88
-8.13
-13.89
-19.38
-23.91
-27.09
-29.08
-30.42
-31.93
-34.33
-38.03
-42.87
-48.16
-52.81
-55.63
-55.77
-52.98
-47.75
-41.06
-33.95
-27.03
-20.39
-13.70
-6.68
0.54
7.35
12.96
16.83
19.00
20.03
20.76
21.77
23.19
24.66
25.58
25.48
24.18
21.90
18.94
15.59
11.96
8.08
4.04
0.15
-3.18
-5.62
-7.12
-7.94
-8.50
-9.01
-9.30
-8.88
-7.17
-3.89
0.75
6.14
11.61
16.67
21.21
25.43
29.61
33.93
38.40
42.92
47.33
51.54
55.51
59.18
62.55
65.63
68.46
71.13
73.65
75.99
78.04
79.66
80.82
81.46
81.48
80.63
78.47
74.66
69.15
62.32
54.99
48.05
42.18
37.55
33.90
30.68
27.38
23.63
19.30
14.42
9.19
3.98
-0.67
-4.22
-6.29
-6.86
-6.36
-5.50
-4.93
-5.04
-5.82
-7.00
-8.26
-9.50
-10.82
-12.37
-14.19
-15.99
-17.27
-17.46
-16.22
-13.49
-9.62
-5.11
-0.56
3.64
7.30
10.42
13.16
15.62
17.82
19.59
20.71
20.93
20.19
18.64
16.69
14.87
13.62
13.17
13.39
13.77
13.58
12.19
9.27
5.04
0.08
-4.79
-8.97
-12.29
-14.97
-17.56
-20.60
-24.47
-29.29
-34.89
-40.84
-46.44
-50.76
-52.85
-51.92
-47.71
-40.58
-31.54
-21.89
-12.97
-5.70
-0.44
3.01
5.16
6.58
7.58
8.24
8.55
8.63
8.88
9.96
12.52
16.96
23.20
30.66
38.46
45.63
51.34
55.04
56.51
55.88
53.66
50.57
47.41
44.75
42.73
41.03
39.05
36.19
32.06
26.70
20.55
14.31
8.82
4.87
3.05
3.70
6.72
11.60
17.42
23.18
27.96
31.29
33.19
34.17
34.86
35.81
37.15
38.55
39.36
38.80
36.28
31.50
24.61
16.09
6.68
-2.75
-11.41
-18.84
-24.98
-30.22
-35.22
-40.62
-46.77
-53.48
-60.08
-65.59
-69.04
-69.85
-68.02
-64.19
-59.58
-55.62
-53.58
-53.92
-56.04
-58.33
-58.64
-55.25
-47.65
-36.89
-25.22
-15.21
-8.63
-5.73
-5.27
-5.16
-3.36
1.28
8.87
18.69
29.67
40.77
51.19
60.31
67.71
73.13
76.50
77.96
77.82
76.52
74.51
72.30
70.26
68.62
67.24
65.55
62.74
58.01
50.91
41.52
30.34
17.92
4.51
-10.15
-26.60
-45.32
-66.29
-88.85
-111.76
-133.55
-153.07
-169.77
-183.86
-196.17
-207.75
-219.51
-231.89
-244.80
-257.42
-268.21
-275.02
-275.46
-267.60
-250.70
-225.76
-195.39
-163.16
-132.52
-105.96
-84.56
-68.15
-55.91
-46.85
-40.10
-34.94
-30.69
-26.75
-22.63
-18.14
-13.28
-8.14
-2.69
3.30
10.26
18.68
28.83
40.59
53.34
66.13
77.87
87.66
95.05
100.14
103.35
105.18
105.77
104.70
101.04
93.85
82.73
68.34
52.38
37.26
25.28
18.00
15.98
18.83
25.59
35.02
45.77
56.20
64.57
69.16
68.78
63.16
53.05
39.85
25.23
10.66
-2.70
-13.89
-22.13
-26.99
-28.72
-28.34
-27.48
-27.81
-30.36
-35.11
-41.13
-47.06
-51.75
-54.55
-55.43
-54.73
-52.98
-50.83
-48.86
-47.52
-46.80
-46.15
-44.60
-41.17
-35.48
-27.89
-19.43
-11.27
-4.18
1.70
6.68
11.18
15.33
18.96
21.80
23.77
25.18
26.65
28.80
31.96
36.09
40.79
45.58
50.01
53.82
56.93
59.41
61.46
63.30
65.05
66.71
67.99
68.36
67.19
63.98
58.50
50.94
41.83
31.89
21.84
12.29
3.69
-3.64
-9.55
-14.04
-17.24
-19.46
-21.08
-22.49
-24.19
-26.69
-30.51
-36.00
-43.05
-50.94
-58.31
-63.53
-65.15
-62.56
-56.05
-46.72
-35.99
-25.06
-14.67
-5.13
3.41
10.82
16.91
21.67
25.38
28.63
32.14
36.43
41.66
47.56
53.62
59.27
64.13
68.04
71.10
73.61
75.90
78.19
80.40
82.13
82.75
81.69
78.66
73.75
67.34
59.75
51.12
41.39
30.44
18.34
5.45
-7.70
-20.60
-32.93
-44.51
-55.03
-63.94
-70.49
-74.06
-74.52
-72.45
-68.88
-64.88
-60.99
-57.02
-52.28
-46.03
-37.89
-28.15
-17.61
-7.20
2.27
10.35
16.88
21.82
25.16
26.93
27.26
26.39
24.81
22.99
21.36
20.17
19.44
19.07
18.81
18.41
17.69
16.51
14.75
12.28
8.94
4.66
-0.37
-5.57
-9.94
-12.38
-12.01
-8.54
-2.37
5.56
14.12
22.44
30.02
36.79
42.96
48.78
54.46
60.13
65.81
71.32
76.27
80.09
82.16
82.02
79.51
74.78
68.19
60.19
51.15
41.31
30.84
19.86
8.52
-3.02
-14.61
-26.18
-37.81
-49.65
-61.83
-74.23
-86.29
-96.94
-104.65
-107.89
-105.58
-97.52
-84.57
-68.45
-51.25
-34.90
-20.77
-9.53
-1.30
4.20
7.41
8.96
9.61
10.22
11.54
13.97
17.43
21.25
24.50
26.32
26.22
24.40
21.52
18.53
16.21
15.04
15.06
16.04
17.58
19.21
20.59
21.46
21.74
21.50
20.85
19.91
18.68
16.95
14.40
10.79
6.16
1.00
-3.77
-7.10
-8.22
-6.98
-3.96
-0.40
2.25
2.71
0.26
-5.16
-12.93
-22.15
-31.76
-40.97
-49.24
-56.33
-62.06
-66.11
-67.99
-67.14
-63.26
-56.56
-47.89
-38.44
-29.37
-21.44
-14.78
-9.08
-3.89
1.10
5.92
10.41
14.28
17.31
19.38
20.44
20.53
19.72
18.11
15.85
13.30
11.02
9.90
10.84
14.43
20.55
28.15
35.49
40.69
42.51
40.81
36.65
31.76
27.83
25.81
25.71
26.86
28.44
29.94
31.36
33.05
35.34
38.27
41.53
44.59
46.91
48.16
48.22
47.00
44.37
40.13
34.15
26.54
17.72
8.19
-1.76
-12.29
-24.04
-37.66
-53.28
-70.00
-86.01
-99.14
-107.66
-111.03
-109.98
-106.18
-101.48
-97.32
-94.33
-92.36
-90.70
-88.34
-84.20
-77.38
-67.45
-54.60
-39.69
-24.02
-8.89
4.67
16.13
25.34
32.43
37.55
40.86
42.47
42.46
40.88
37.87
33.70
28.89
24.19
20.37
18.05
17.31
17.63
18.03
17.19
13.80
6.93
-3.80
-17.99
-34.35
-51.05
-66.09
-77.93
-85.88
-90.16
-91.58
-90.92
-88.58
-84.41
-77.92
-68.75
-56.97
-43.27
-28.79
-14.87
-2.73
6.72
13.11
16.58
17.81
17.83
17.76
18.50
20.59
24.05
28.55
33.42
37.88
41.18
42.68
42.14
39.78
36.28
32.72
30.18
29.42
30.56
33.09
35.95
37.99
38.22
36.10
31.77
26.06
20.24
15.76
13.63
14.03
16.24
18.90
20.64
20.67
19.08
16.67
14.46
13.16
12.92
13.30
13.72
13.72
13.23
12.58
12.34
13.22
15.82
20.50
27.22
35.53
44.54
53.23
60.66
66.24
69.85
71.67
72.06
71.33
69.71
67.35
64.44
61.20
57.84
54.50
51.20
47.89
44.53
41.29
38.53
36.77
36.63
38.60
43.05
50.02
59.28
70.16
81.46
91.47
98.19
99.86
95.61
85.87
72.38
57.70
44.32
33.86
26.75
22.31
19.43
17.01
14.33
11.03
6.93
1.97
-3.83
-10.21
-16.73
-22.85
-28.14
-32.48
-36.06
-39.36
-42.91
-47.03
-51.52
-55.51
-57.47
-55.71
-48.92
-36.89
-20.70
-2.49
15.31
30.75
42.98
52.16
59.15
64.87
69.95
74.48
78.24
80.83
81.86
81.09
78.41
73.94
67.93
60.72
52.69
44.26
35.77
27.50
19.65
12.19
4.87
-2.82
-11.54
-21.84
-33.87
-47.19
-60.79
-73.32
-83.49
-90.49
-94.06
-94.55
-92.65
-89.29
-85.42
-81.91
-79.46
-78.44
-78.75
-79.94
-81.23
-81.69
-80.36
-76.26
-68.55
-56.70
-40.90
-22.24
-2.69
15.27
29.31
37.91
40.62
37.94
30.88
20.57
7.98
-6.00
-20.60
-35.05
-48.64
-60.79
-71.02
-78.94
-84.18
-86.41
-85.43
-81.34
-74.70
-66.47
-57.89
-50.12
-44.03
-39.93
-37.61
-36.56
-36.16
-36.01
-36.10
-36.81
-38.71
-42.27
-47.52
-53.77
-59.70
-63.61
-63.92
-59.69
-50.98
-38.87
-25.12
-11.59
0.29
9.86
17.24
23.10
28.24
33.26
38.46
43.72
48.64
52.67
55.34
56.38
55.75
53.69
50.59
46.87
42.88
38.78
34.50
29.80
24.35
17.85
10.22
1.67
-7.39
-16.49
-25.22
-33.39
-41.00
-48.21
-55.17
-61.86
-68.09
-73.35
-76.98
-78.30
-76.76
-72.26
-65.06
-55.68
-44.65
-32.32
-18.80
-4.20
11.14
26.59
41.21
54.01
64.26
71.57
75.96
77.69
77.18
74.81
70.97
66.14
60.88
55.83
51.60
48.59
46.77
45.64
44.31
41.85
37.59
31.49
24.07
16.17
8.62
1.82
-4.31
-10.21
-16.41
-23.28
-30.63
-37.75
-43.37
-46.03
-44.47
-38.02
-26.87
-11.98
5.21
23.32
41.38
59.01
76.14
92.80
108.77
123.59
136.78
148.12
157.95
167.08
176.55
187.13
198.69
209.97
218.73
222.36
218.91
207.77
190.00
167.79
143.53
118.83
94.11
68.79
42.07
13.65
-15.99
-45.73
-74.18
-100.02
-121.94
-138.52
-148.24
-149.97
-143.61
-130.48
-113.27
-95.15
-78.78
-65.74
-56.54
-51.19
-49.78
-52.61
-59.73
-70.49
-83.32
-96.13
-107.08
-115.10
-120.04
-122.30
-122.20
-119.80
-114.91
-107.59
-98.46
-88.66
-79.52
-72.05
-66.50
-62.44
-58.96
-55.16
-50.61
-45.54
-40.85
-37.84
-37.79
-41.56
-49.17
-59.56
-70.57
-79.35
-83.15
-80.21
-70.51
-55.89
-39.41
-24.27
-12.69
-5.33
-1.42
0.53
1.88
3.34
4.93
6.29
7.12
7.35
7.13
6.58
5.74
4.50
2.83
0.79
-1.36
-3.33
-5.00
-6.49
-8.19
-10.44
-13.40
-16.84
-20.26
-23.11
-25.06
-26.16
-26.80
-27.50
-28.62
-30.10
-31.35
-31.36
-29.07
-23.80
-15.76
-6.14
3.18
10.26
14.01
14.65
13.78
13.72
16.59
23.31
33.40
45.10
56.27
65.19
71.02
73.87
74.41
73.38
71.22
68.08
63.97
58.96
53.22
46.98
40.34
33.22
25.41
16.86
7.80
-1.16
-9.33
-16.16
-21.65
-26.37
-31.33
-37.57
-45.61
-55.29
-65.74
-75.81
-84.58
-91.75
-97.73
-103.42
-109.71
-117.03
-125.11
-132.99
-139.29
-142.64
-142.19
-137.84
-130.35
-121.25
-112.45
-105.74
-102.29
-102.32
-104.99
-108.53
-110.67
-109.18
-102.48
-89.99
-72.38
-51.41
-29.43
-8.77
8.74
22.16
31.42
37.16
40.44
42.39
44.04
46.13
48.98
52.61
56.72
60.87
64.60
67.53
69.34
69.81
68.80
66.20
61.89
55.82
48.06
39.07
29.78
21.69
16.63
16.15
20.96
30.54
43.15
56.31
67.54
75.07
78.25
77.47
73.82
68.46
62.27
55.61
48.38
40.31
31.17
20.92
9.74
-1.98
-13.58
-24.09
-32.13
-36.14
-34.77
-27.56
-15.25
0.16
16.03
29.92
40.33
46.98
50.58
52.24
52.91
52.99
52.43
50.86
47.71
42.43
34.53
23.76
10.41
-4.48
-19.10
-31.35
-39.48
-42.97
-42.77
-41.04
-40.16
-41.65
-45.33
-49.34
-50.86
-47.29
-37.29
-21.20
-0.75
21.69
43.86
64.14
81.59
95.89
107.11
115.56
121.78
126.40
130.03
133.07
135.53
136.97
136.62
133.71
127.68
118.43
106.39
92.33
77.08
61.18
44.63
26.91
7.25
-14.79
-38.79
-63.27
-85.88
-104.12
-116.16
-121.61
-121.70
-118.83
-115.77
-114.79
-116.89
-121.73
-127.80
-133.10
-135.64
-134.11
-128.02
-117.85
-104.68
-89.87
-74.60
-59.68
-45.50
-32.23
-20.00
-9.08
0.13
7.28
12.10
14.58
14.95
13.67
11.28
8.33
5.27
2.23
-0.98
-4.86
-10.06
-17.06
-25.85
-35.67
-44.97
-51.76
-54.20
-51.19
-42.84
-30.49
-16.22
-2.27
9.68
18.83
25.17
29.29
32.02
34.14
36.38
39.34
43.54
49.42
57.16
66.65
77.41
88.59
99.06
107.61
113.25
115.46
114.35
110.54
104.82
97.85
89.79
80.37
69.30
56.69
43.56
31.68
23.14
19.57
21.40
27.70
36.37
44.75
50.25
50.84
45.31
33.50
16.35
-4.09
-24.96
-43.07
-55.65
-61.06
-59.10
-50.90
-38.49
-24.13
-9.78
3.18
14.10
22.81
29.45
34.30
37.66
39.77
40.90
41.22
40.91
40.11
38.99
37.75
36.61
35.80
35.43
35.51
35.80
35.92
35.35
33.61
30.38
25.62
19.61
12.93
6.32
0.53
-3.95
-7.02
-8.99
-10.56
-12.55
-15.82
-20.87
-27.75
-35.85
-43.95
-50.53
-54.14
-53.86
-49.62
-42.23
-33.09
-23.75
-15.52
-9.10
-4.46
-1.05
1.97
5.32
9.34
13.88
18.45
22.43
25.41
27.33
28.42
28.98
29.13
28.76
27.63
25.62
22.85
19.78
16.92
14.67
13.12
12.00
10.93
9.52
7.47
4.63
0.85
-4.05
-10.05
-16.83
-23.54
-28.89
-31.48
-30.39
-25.53
-17.81
-8.79
-0.16
6.90
11.91
15.14
17.22
18.78
20.19
21.55
22.81
23.95
24.95
25.75
26.19
26.08
25.29
23.87
22.08
20.22
18.44
16.67
14.71
12.32
9.44
6.17
2.67
-0.89
-4.47
-8.11
-11.92
-16.10
-20.90
-26.63
-33.45
-41.08
-48.58
-54.51
-57.36
-56.11
-50.72
-42.25
-32.35
-22.72
-14.49
-8.00
-3.01
1.03
4.62
8.01
11.18
14.00
16.38
18.28
19.85
21.23
22.53
23.72
24.61
24.91
24.41
23.04
20.99
18.60
16.24
14.07
12.00
9.71
6.81
3.06
-1.54
-6.67
-11.86
-16.57
-20.42
-23.32
-25.50
-27.47
-29.84
-33.18
-37.84
-43.79
-50.58
-57.23
-62.47
-65.00
-63.92
-59.04
-51.02
-41.14
-30.93
-21.69
-14.21
-8.62
-4.61
-1.61
0.89
3.25
5.58
7.84
9.85
11.43
12.47
12.95
13.00
12.82
12.62
12.58
12.78
13.24
13.83
14.35
14.54
14.16
13.06
11.27
8.98
6.49
4.08
1.89
-0.21
-2.56
-5.60
-9.64
-14.76
-20.63
-26.55
-31.55
-34.57
-34.77
-31.74
-25.71
-17.47
-8.30
0.50
7.97
13.71
17.92
21.14
23.86
26.22
28.05
28.95
28.68
27.33
25.33
23.22
21.45
20.13
19.04
17.87
16.34
14.39
12.10
9.63
7.08
4.44
1.62
-1.54
-5.11
-9.11
-13.41
-17.87
-22.40
-26.95
-31.51
-35.94
-39.86
-42.65
-43.62
-42.29
-38.72
-33.60
-28.14
-23.70
-21.39
-21.76
-24.67
-29.27
-34.13
-37.31
-36.66
-30.15
-16.42
4.71
31.75
61.56
89.87
112.15
124.77
125.97
116.28
98.35
76.14
53.74
34.37
19.69
9.66
2.99
-2.24
-7.85
-15.17
-24.67
-36.09
-48.35
-59.70
-67.93
-70.84
-66.90
-56.01
-39.91
-21.94
-6.14
3.84
5.84
-0.46
-13.86
-32.28
-53.45
-75.13
-95.05
-110.87
-120.36
-122.08
-115.93
-103.39
-87.15
-70.14
-54.50
-41.09
-29.69
-19.70
-10.91
-3.92
0.18
0.40
-3.56
-10.98
-20.43
-30.19
-38.91
-45.88
-51.15
-55.26
-58.82
-62.22
-65.27
-67.27
-67.22
-64.16
-57.70
-48.23
-37.06
-25.99
-16.81
-10.71
-7.97
-8.04
-10.00
-13.13
-17.21
-22.61
-29.87
-39.17
-50.01
-61.30
-71.56
-79.54
-84.51
-86.41
-85.73
-83.30
-79.94
-76.26
-72.30
-67.39
-60.29
-49.67
-34.88
-16.57
3.08
20.95
34.01
40.43
40.30
35.44
28.67
22.72
19.43
19.51
22.73
28.40
35.52
42.74
48.32
50.57
48.71
43.59
37.93
35.46
39.27
50.41
67.31
86.55
104.43
118.44
127.79
133.11
135.43
135.51
133.75
130.57
126.69
122.95
119.63
115.88
109.69
98.51
80.47
55.45
25.52
-5.42
-32.76
-52.54
-62.58
-62.90
-55.46
-43.35
-29.77
-17.23
-7.13
0.20
5.23
8.84
11.94
15.29
19.30
23.99
29.05
33.97
38.17
41.18
42.80
43.18
42.77
42.22
42.27
43.50
46.21
50.28
55.16
59.92
63.59
65.45
65.42
64.13
62.78
62.67
64.82
69.54
76.42
84.36
91.85
97.37
99.72
98.35
93.42
85.71
76.39
66.64
57.47
49.57
43.34
38.94
36.32
35.27
35.42
36.20
36.93
36.86
35.32
31.81
26.19
18.83
10.58
2.74
-3.27
-6.20
-5.24
-0.23
8.39
19.62
32.11
44.34
54.99
63.17
68.64
71.80
73.47
74.55
75.60
76.71
77.39
76.80
74.01
68.37
59.67
48.34
35.34
21.94
9.43
-1.34
-10.19
-17.77
-25.32
-34.10
-44.93
-57.74
-71.60
-85.11
-97.01
-106.76
-114.65
-121.54
-128.29
-135.16
-141.59
-146.37
-148.19
-146.25
-140.71
-132.61
-123.48
-114.75
-107.17
-100.63
-94.28
-87.01
-77.94
-66.80
-53.99
-40.41
-27.19
-15.38
-5.81
0.90
4.44
4.94
3.09
0.19
-2.01
-1.79
1.99
9.42
19.43
30.03
38.86
43.90
44.09
39.69
32.31
24.37
18.34
15.77
16.82
20.18
23.74
25.32
23.46
17.70
8.46
-3.24
-16.13
-28.82
-39.92
-48.20
-52.77
-53.37
-50.38
-44.69
-37.33
-29.09
-20.32
-10.91
-0.48
11.28
24.23
37.52
49.68
58.90
63.57
62.89
57.05
47.22
35.14
22.57
10.90
1.00
-6.69
-11.97
-14.83
-15.48
-14.46
-12.57
-10.77
-9.75
-9.82
-10.93
-12.88
-15.63
-19.42
-24.55
-31.06
-38.49
-45.88
-52.13
-56.41
-58.53
-58.98
-58.65
-58.54
-59.36
-61.52
-65.13
-70.16
-76.42
-83.47
-90.41
-95.77
-97.82
-95.07
-86.88
-73.91
-58.07
-41.85
-27.45
-15.94
-7.12
0.13
7.01
14.14
21.24
27.44
31.90
34.27
35.00
35.02
35.38
36.77
39.32
42.78
46.73
50.87
55.01
58.91
62.03
63.57
62.59
58.49
51.33
41.94
31.64
21.81
13.38
6.60
1.08
-3.84
-8.76
-13.95
-19.32
-24.42
-28.54
-30.90
-30.74
-27.56
-21.42
-13.04
-3.75
4.88
11.57
15.67
17.38
17.52
17.20
17.32
18.36
20.37
23.06
26.03
28.92
31.46
33.42
34.59
34.71
33.62
31.30
27.98
24.14
20.38
17.20
14.72
12.68
10.50
7.60
3.74
-0.91
-5.77
-10.18
-13.64
-16.10
-17.87
-19.62
-22.11
-26.02
-31.67
-38.82
-46.62
-53.67
-58.37
-59.39
-56.16
-49.02
-39.14
-28.16
-17.63
-8.69
-1.85
3.01
6.36
8.86
11.03
13.11
15.11
16.81
18.09
18.98
19.66
20.38
21.16
21.80
21.88
21.03
19.20
16.70
14.17
12.24
11.21
10.95
10.84
10.04
7.72
3.38
-3.03
-11.09
-19.95
-28.46
-35.32
-39.30
-39.51
-35.68
-28.35
-18.81
-8.79
0.11
6.94
11.59
14.69
17.12
19.56
22.18
24.61
26.27
26.71
25.82
23.86
21.32
18.67
16.22
14.03
12.02
10.06
8.09
6.16
4.32
2.63
1.01
-0.73
-2.84
-5.57
-9.05
-13.33
-18.31
-23.81
-29.40
-34.39
-37.83
-38.74
-36.45
-30.88
-22.66
-12.98
-3.28
5.20
11.71
16.08
18.66
20.08
20.99
21.89
23.02
24.36
25.68
26.71
27.22
27.12
26.47
25.40
24.11
22.74
21.37
19.94
18.33
16.28
13.62
10.16
5.93
1.13
-3.86
-8.57
-12.60
-15.79
-18.36
-20.95
-24.43
-29.57
-36.59
-44.90
-53.03
-59.02
-61.06
-58.15
-50.46
-39.27
-26.55
-14.21
-3.64
4.67
10.94
15.81
19.91
23.62
27.01
30.02
32.60
34.85
37.00
39.20
41.45
43.51
44.97
45.50
44.94
43.49
41.59
39.77
38.41
37.62
37.23
36.85
36.11
34.71
32.56
29.80
26.69
23.55
20.57
17.74
14.81
11.44
7.39
2.68
-2.39
-7.39
-11.96
-16.02
-19.81
-23.78
-28.36
-33.83
-40.30
-47.74
-56.11
-65.21
-74.56
-83.23
-89.87
-93.04
-91.69
-85.58
-75.50
-62.96
-49.79
-37.55
-27.18
-18.90
-12.41
-7.19
-2.77
1.21
4.88
8.29
11.44
14.29
16.75
18.71
20.04
20.66
20.59
20.00
19.13
18.27
17.60
17.11
16.55
15.60
13.92
11.41
8.22
4.75
1.49
-1.17
-3.13
-4.61
-6.17
-8.43
-12.00
-17.13
-23.60
-30.59
-36.87
-40.98
-41.71
-38.42
-31.36
-21.63
-10.88
-0.79
7.44
13.36
17.33
20.12
22.50
24.85
27.07
28.80
29.68
29.71
29.21
28.66
28.43
28.48
28.48
27.88
26.31
23.73
20.45
16.96
13.65
10.70
7.94
5.03
1.53
-2.93
-8.59
-15.51
-23.47
-31.88
-39.79
-45.95
-49.08
-48.33
-43.59
-35.64
-25.91
-16.03
-7.31
-0.43
4.60
8.26
11.21
14.01
16.99
20.20
23.42
26.27
28.31
29.24
29.06
28.10
26.88
25.88
25.32
25.01
24.51
23.33
21.17
18.06
14.25
10.15
6.01
1.96
-2.03
-6.14
-10.55
-15.51
-21.19
-27.56
-34.23
-40.31
-44.47
-45.31
-41.79
-33.75
-22.08
-8.57
4.62
15.65
23.44
27.90
29.77
30.22
30.40
31.11
32.66
34.96
37.72
40.60
43.36
45.85
47.91
49.33
49.89
49.46
48.00
45.68
42.73
39.34
35.58
31.37
26.60
21.27
15.46
9.38
3.26
-2.62
-8.00
-12.65
-16.49
-19.63
-22.38
-25.06
-27.93
-31.05
-34.33
-37.76
-41.48
-45.91
-51.55
-58.69
-67.20
-76.30
-84.78
-91.17
-94.17
-92.94
-87.40
-78.24
-66.74
-54.48
-42.85
-32.70
-24.27
-17.31
-11.39
-6.18
-1.54
2.53
6.09
9.29
12.32
15.31
18.20
20.77
22.75
23.98
24.53
24.64
24.63
24.65
24.59
24.07
22.63
19.94
15.98
11.08
5.77
0.62
-3.99
-7.98
-11.56
-15.12
-19.11
-23.89
-29.59
-35.97
-42.35
-47.58
-50.37
-49.62
-44.89
-36.62
-26.04
-14.82
-4.48
3.99
10.41
15.21
19.13
22.75
26.28
29.50
32.02
33.55
34.15
34.21
34.28
34.70
35.44
36.01
35.75
34.14
31.07
26.85
22.07
17.33
13.02
9.20
5.71
2.26
-1.53
-6.03
-11.58
-18.30
-26.00
-33.94
-40.95
-45.61
-46.75
-43.83
-37.22
-28.01
-17.70
-7.72
0.98
8.06
13.67
18.30
22.43
26.39
30.27
33.94
37.17
39.68
41.28
41.90
41.61
40.59
39.06
37.25
35.33
33.38
31.37
29.13
26.44
23.08
18.97
14.18
8.94
3.59
-1.59
-6.46
-11.14
-16.02
-21.61
-28.37
-36.39
-45.16
-53.44
-59.56
-61.88
-59.43
-52.30
-41.71
-29.55
-17.71
-7.44
0.87
7.62
13.50
19.11
24.64
29.93
34.72
38.78
42.09
44.71
46.79
48.40
49.61
50.46
51.03
51.36
51.42
51.18
50.58
49.62
48.37
46.86
45.08
42.97
40.47
37.56
34.38
31.15
28.04
25.14
22.32
19.40
16.16
12.47
8.26
3.55
-1.65
-7.27
-13.15
-19.11
-24.93
-30.51
-35.91
-41.43
-47.53
-54.66
-63.02
-72.41
-82.10
-90.86
-97.18
-99.62
-97.19
-89.71
-77.97
-63.53
-48.33
-34.18
-22.22
-12.85
-5.73
-0.16
4.53
8.77
12.70
16.25
19.40
22.15
24.61
26.80
28.69
30.13
31.01
31.31
31.19
30.86
30.53
30.19
29.63
28.45
26.27
22.91
18.47
13.36
8.12
3.29
-0.81
-4.21
-7.32
-10.79
-15.37
-21.53
-29.19
-37.55
-45.14
-50.28
-51.53
-48.23
-40.79
-30.52
-19.18
-8.46
0.53
7.43
12.55
16.51
19.88
22.93
25.58
27.53
28.55
28.67
28.22
27.74
27.68
28.18
28.97
29.50
29.21
27.73
25.05
21.45
17.32
13.01
8.67
4.27
-0.38
-5.51
-11.40
-18.24
-26.04
-34.44
-42.64
-49.42
-53.46
-53.69
-49.72
-41.98
-31.65
-20.25
-9.23
0.35
8.04
13.90
18.33
21.87
24.99
27.97
30.87
33.53
35.67
37.03
37.49
37.06
35.92
34.30
32.41
30.41
28.29
25.94
23.14
19.74
15.67
11.09
6.30
1.63
-2.75
-6.87
-11.04
-15.74
-21.46
-28.51
-36.87
-45.98
-54.65
-61.27
-64.15
-62.14
-55.11
-44.10
-31.06
-18.15
-7.04
1.57
7.93
12.92
17.47
22.13
26.99
31.75
36.02
39.55
42.30
44.45
46.20
47.70
48.90
49.68
49.89
49.41
48.33
46.82
45.07
43.22
41.27
39.09
36.52
33.43
29.74
25.53
20.96
16.30
11.82
7.73
4.03
0.55
-3.05
-7.16
-12.01
-17.57
-23.57
-29.55
-35.13
-40.15
-44.76
-49.37
-54.52
-60.72
-68.30
-77.23
-86.99
-96.48
-104.14
-108.22
-107.30
-100.80
-89.26
-74.31
-58.12
-42.84
-29.95
-19.98
-12.55
-6.74
-1.58
3.62
9.06
14.51
19.59
23.93
27.32
29.78
31.41
32.30
32.51
32.13
31.32
30.29
29.31
28.45
27.55
26.23
24.07
20.83
16.63
11.95
7.42
3.60
0.65
-1.68
-4.08
-7.37
-12.23
-18.82
-26.62
-34.41
-40.49
-43.21
-41.47
-35.14
-25.15
-13.20
-1.20
9.33
17.62
23.76
28.33
32.05
35.41
38.52
41.20
43.16
44.26
44.53
44.24
43.76
43.29
42.85
42.15
40.75
38.32
34.70
30.10
24.93
19.61
14.46
9.51
4.59
-0.52
-6.05
-12.18
-19.03
-26.63
-34.77
-42.83
-49.72
-54.01
-54.34
-49.87
-40.69
-27.86
-13.15
1.48
14.40
24.71
32.32
37.78
41.98
45.63
49.08
52.14
54.27
54.88
53.66
50.96
47.71
45.34
45.40
49.10
57.02
68.82
83.30
98.41
111.72
120.73
123.46
118.68
105.87
85.07
56.47
20.06
-24.58
-78.12
-140.80
-211.58
-287.32
-362.56
-430.32
-483.60
-517.38
-529.97
-523.33
-502.00
-471.36
-435.88
-398.06
-358.72
-317.70
-274.98
-231.13
-187.19
-143.99
-101.60
-59.17
-15.55
29.96
76.72
122.60
164.54
199.41
224.73
238.98
241.48
232.28
212.27
183.58
149.70
115.08
84.04
59.47
42.09
30.67
23.12
17.96
15.23
16.43
23.60
38.20
60.05
87.25
116.79
145.59
171.60
194.28
214.41
233.38
252.36
271.58
290.37
307.42
321.44
331.55
337.46
339.19
336.71
329.74
317.77
300.40
277.73
250.75
221.28
191.57
163.72
139.04
117.80
99.41
82.89
67.36
52.17
36.90
21.12
4.28
-14.19
-34.65
-57.01
-80.63
-104.39
-126.98
-147.24
-164.45
-178.41
-189.53
-198.55
-206.26
-213.14
-219.10
-223.48
-225.24
-223.49
-218.03
-209.56
-199.50
-189.40
-180.23
-171.93
-163.52
-153.73
-141.98
-128.83
-115.95
-105.28
-98.04
-93.92
-91.18
-87.35
-80.41
-69.84
-56.92
-44.21
-34.37
-28.73
-26.40
-24.27
-17.90
-3.19
21.90
56.15
94.97
131.29
157.23
166.12
154.53
123.72
80.07
34.16
-1.74
-17.31
-7.71
24.39
69.50
114.58
147.59
161.46
155.57
134.59
105.49
74.49
45.59
20.62
0.45
-14.09
-22.24
-24.01
-20.88
-15.95
-12.95
-14.92
-23.07
-36.68
-53.76
-72.11
-90.13
-106.95
-121.84
-133.49
-139.81
-138.31
-127.10
-105.80
-75.96
-40.76
-4.14
30.05
58.72
79.80
92.30
96.42
93.48
85.86
76.51
68.17
62.65
60.42
60.71
62.15
63.44
63.93
63.59
62.71
61.54
60.00
57.79
54.56
50.17
44.82
38.91
32.91
27.10
21.49
15.81
9.68
2.74
-5.17
-13.78
-22.41
-29.98
-35.29
-37.45
-36.14
-31.86
-25.71
-19.03
-12.93
-7.93
-3.97
-0.57
2.81
6.46
10.38
14.31
17.93
21.07
23.74
26.12
28.43
30.83
33.32
35.83
38.24
40.52
42.71
44.94
47.33
49.92
52.61
55.20
57.47
59.28
60.62
61.53
61.99
61.81
60.72
58.52
55.30
51.55
48.06
45.61
44.67
45.15
46.35
47.23
46.76
44.28
39.70
33.44
26.34
19.34
13.24
8.49
5.17
3.04
1.68
0.55
-0.98
-3.58
-7.80
-13.83
-21.31
-29.36
-36.89
-43.05
-47.67
-51.23
-54.56
-58.30
-62.56
-66.81
-70.35
-72.71
-74.05
-75.08
-76.82
-80.17
-85.57
-92.85
-101.20
-109.27
-115.54
-118.67
-117.89
-113.36
-106.07
-97.61
-89.63
-83.35
-79.26
-77.09
-76.10
-75.28
-73.76
-70.95
-66.67
-61.15
-54.88
-48.51
-42.71
-38.07
-35.12
-34.26
-35.49
-38.09
-40.43
-40.28
-35.57
-25.53
-11.21
4.54
18.17
26.91
29.76
27.76
23.20
18.38
14.68
12.23
10.37
8.23
5.28
1.33
-3.59
-9.38
-15.88
-22.61
-28.82
-33.47
-35.71
-35.15
-32.09
-27.40
-22.12
-17.03
-12.25
-7.27
-1.12
7.14
17.89
30.51
43.32
53.92
59.98
60.23
55.05
46.53
37.66
31.20
28.70
30.07
33.96
38.62
42.66
45.39
46.73
46.76
45.47
42.72
38.46
32.95
26.74
20.44
14.45
8.78
3.20
-2.49
-8.11
-13.04
-16.39
-17.37
-15.67
-11.63
-6.19
-0.49
4.46
8.10
10.38
11.59
12.22
12.68
13.24
14.01
14.98
16.04
17.11
18.08
18.90
19.54
20.00
20.31
20.48
20.48
20.20
19.50
18.28
16.48
14.18
11.53
8.70
5.77
2.72
-0.59
-4.30
-8.56
-13.37
-18.58
-23.76
-28.31
-31.50
-32.75
-31.80
-28.83
-24.48
-19.57
-14.84
-10.72
-7.26
-4.22
-1.33
1.60
4.57
7.46
10.16
12.59
14.78
16.74
18.51
20.08
21.44
22.58
23.53
24.30
24.89
25.26
25.37
25.16
24.54
23.43
21.71
19.34
16.32
12.80
9.04
5.37
2.10
-0.60
-2.75
-4.58
-6.40
-8.49
-11.08
-14.30
-18.20
-22.74
-27.74
-32.78
-37.19
-40.17
-40.98
-39.25
-35.14
-29.36
-22.93
-16.81
-11.57
-7.28
-3.59
-0.02
3.72
7.63
11.37
14.53
16.76
17.99
18.39
18.28
17.98
17.72
17.57
17.51
17.47
17.35
17.03
16.37
15.24
13.60
11.51
9.13
6.72
4.53
2.72
1.26
-0.00
-1.38
-3.17
-5.61
-8.68
-12.06
-15.13
-17.04
-17.00
-14.60
-9.99
-3.85
2.76
8.86
13.89
17.81
20.99
23.85
26.58
29.05
30.89
31.83
31.84
31.18
30.25
29.30
28.31
27.05
25.19
22.58
19.29
15.67
12.09
8.83
5.93
3.19
0.31
-2.99
-6.85
-11.30
-16.28
-21.71
-27.51
-33.45
-39.13
-43.93
-47.13
-48.17
-46.89
-43.59
-38.99
-33.92
-29.03
-24.60
-20.50
-16.45
-12.22
-7.85
-3.65
-0.00
2.82
4.85
6.33
7.63
8.92
10.17
11.08
11.37
10.89
9.76
8.28
6.78
5.47
4.33
3.18
1.78
-0.05
-2.42
-5.40
-9.03
-13.31
-18.10
-22.98
-27.27
-30.13
-30.76
-28.75
-24.18
-17.65
-10.10
-2.50
4.43
10.36
15.32
19.59
23.45
27.14
30.75
34.28
37.71
41.05
44.29
47.43
50.41
53.14
55.60
57.85
60.03
62.34
64.95
67.92
71.13
74.36
77.36
79.98
82.30
84.58
87.16
90.30
93.99
97.93
101.68
104.97
107.94
111.37
116.49
124.72
137.25
154.63
176.42
200.97
225.56
246.80
261.51
267.62
264.81
254.53
239.31
221.73
203.46
184.90
165.47
144.24
120.69
94.86
67.11
37.73
6.53
-27.22
-64.52
-106.39
-153.72
-207.23
-267.10
-332.29
-399.85
-464.59
-519.77
-558.85
-577.57
-575.52
-556.28
-525.99
-490.97
-455.46
-420.47
-384.09
-342.89
-293.71
-235.03
-167.58
-94.29
-19.76
50.62
111.66
159.43
192.14
210.35
217.04
216.67
214.23
213.85
217.72
225.63
235.01
241.56
240.48
227.92
202.29
165.03
120.18
72.96
27.89
-12.66
-48.68
-81.42
-111.83
-139.57
-163.16
-180.97
-192.44
-198.40
-200.50
-199.97
-196.84
-189.92
-177.74
-159.63
-136.31
-109.76
-82.43
-56.54
-33.52
-13.96
2.13
14.98
24.79
31.51
35.01
35.20
32.31
27.05
20.50
13.79
7.85
3.08
-0.72
-4.21
-8.22
-13.41
-19.95
-27.39
-34.90
-41.53
-46.80
-50.92
-54.67
-58.98
-64.27
-69.93
-74.26
-74.92
-69.67
-57.20
-37.70
-12.84
14.66
41.87
66.62
88.15
107.49
127.14
150.21
179.13
214.46
254.22
294.09
328.61
352.80
363.74
361.12
346.96
324.30
295.93
263.39
226.80
185.28
137.34
81.60
17.66
-52.61
-124.18
-188.54
-235.19
-255.26
-245.48
-210.71
-162.93
-117.00
-85.09
-72.64
-77.78
-93.97
-114.06
-133.31
-150.07
-164.68
-177.83
-189.83
-201.24
-213.88
-231.11
-256.86
-293.64
-340.50
-392.41
-441.41
-479.08
-499.29
-500.25
-484.95
-459.63
-431.03
-404.01
-380.23
-358.35
-335.54
-308.97
-276.88
-238.81
-195.25
-147.18
-95.71
-42.13
12.21
65.91
117.65
166.47
212.10
255.14
296.81
338.31
379.82
419.77
454.81
480.61
493.37
491.23
475.08
448.23
415.19
380.29
346.61
315.74
288.13
263.66
242.06
222.98
205.86
189.93
174.29
158.25
141.51
124.26
107.13
90.85
75.99
62.74
50.92
40.11
29.90
20.13
10.97
2.85
-3.74
-8.52
-11.52
-13.12
-13.82
-14.07
-14.13
-14.04
-13.70
-13.06
-12.15
-11.13
-10.21
-9.53
-9.12
-8.84
-8.43
-7.65
-6.33
-4.52
-2.43
-0.41
1.21
2.17
2.42
2.07
1.30
0.34
-0.65
-1.50
-2.13
-2.53
-2.80
-3.15
-3.84
-5.13
-7.14
-9.74
-12.61
-15.24
-17.02
-17.45
-16.18
-13.16
-8.64
-3.15
2.64
8.07
12.67
16.18
18.56
19.85
20.06
19.20
17.29
14.47
11.04
7.47
4.18
1.48
-0.57
-2.08
-3.18
-3.92
-4.21
-3.91
-3.00
-1.63
-0.13
1.17
2.04
2.45
2.54
2.44
2.16
1.54
0.37
-1.48
-3.98
-6.94
-10.13
-13.41
-16.82
-20.53
-24.71
-29.31
-33.99
-38.15
-41.17
-42.63
-42.36
-40.55
-37.81
-34.88
-32.32
-30.32
-28.70
-27.06
-25.11
-22.68
-20.00
-17.82
-17.07
-18.32
-21.60
-26.27
-31.28
-35.71
-38.58
-39.42
-38.55
-36.79
-34.83
-32.89
-30.45
-26.11
-18.22
-4.67
15.92
43.02
73.82
103.81
127.46
140.17
139.72
123.50
93.44
56.64
22.32
-3.35
-19.63
-30.22
-41.25
-56.19
-76.35
-101.18
-129.26
-158.81
-187.95
-210.15
-219.90
-213.67
-191.40
-156.98
-116.32
-75.45
-39.09
-10.08
10.21
20.46
19.69
8.10
-11.97
-35.03
-53.39
-59.73
-49.72
-23.59
13.47
53.67
89.48
115.72
130.69
135.44
132.20
123.00
109.19
91.37
70.35
47.50
24.50
2.84
-16.70
-34.22
-50.34
-65.50
-79.61
-91.84
-100.99
-105.93
-106.07
-101.37
-92.35
-79.95
-65.30
-49.73
-34.43
-20.27
-7.68
3.42
13.32
22.32
30.47
37.57
43.31
47.55
50.43
52.40
54.01
55.78
58.04
60.90
64.17
67.32
69.44
69.35
65.89
58.30
46.54
31.40
14.28
-3.31
-20.16
-35.54
-49.12
-60.59
-69.46
-75.06
-76.86
-74.90
-69.97
-63.36
-56.41
-49.94
-44.00
-38.12
-31.74
-24.77
-17.75
-11.56
-6.98
-4.23
-2.88
-2.07
-0.96
0.97
3.82
7.40
11.45
15.80
20.32
24.84
28.99
32.24
34.13
34.49
33.64
32.40
31.89
33.17
36.84
42.88
50.62
58.95
66.66
72.65
76.25
77.31
76.25
73.98
71.69
70.44
70.82
72.59
74.82
76.21
75.63
72.65
67.73
62.04
56.83
52.91
50.22
47.78
44.14
37.78
27.61
13.25
-4.92
-25.67
-46.87
-65.76
-79.39
-85.46
-83.34
-74.48
-62.14
-50.24
-41.91
-38.49
-39.58
-43.81
-49.86
-56.97
-64.79
-72.81
-79.97
-84.95
-86.88
-86.14
-84.67
-85.30
-90.56
-101.17
-115.14
-127.99
-134.18
-129.27
-111.84
-84.30
-52.03
-21.24
3.58
21.18
33.45
43.90
55.56
69.63
85.22
100.27
112.74
121.54
126.60
128.53
128.03
125.56
121.31
115.34
107.85
99.27
90.16
81.01
71.92
62.63
52.75
42.16
31.32
21.32
13.43
8.57
6.85
7.49
9.18
10.61
10.99
10.10
8.21
5.65
2.69
-0.50
-3.72
-6.64
-8.87
-10.16
-10.49
-10.13
-9.38
-8.37
-6.91
-4.58
-1.01
3.88
9.68
15.66
21.02
25.05
27.31
27.70
26.36
23.80
20.80
18.34
17.37
18.45
21.58
26.14
31.21
35.96
39.89
42.98
45.43
47.42
48.89
49.55
49.10
47.47
44.97
42.12
39.49
37.40
35.77
34.19
32.14
29.22
25.33
20.61
15.34
9.84
4.42
-0.63
-4.93
-7.99
-9.29
-8.49
-5.51
-0.75
5.05
10.99
16.20
20.08
22.35
22.97
22.11
20.06
17.21
14.01
10.97
8.50
6.88
6.22
6.42
7.24
8.30
9.10
9.11
7.83
4.98
0.68
-4.49
-9.59
-13.63
-15.90
-16.32
-15.48
-14.44
-14.34
-15.93
-19.34
-24.12
-29.51
-34.80
-39.67
-44.18
-48.54
-52.85
-56.78
-59.67
-60.74
-59.52
-56.05
-50.87
-44.68
-38.16
-31.91
-26.61
-23.16
-22.43
-24.67
-28.84
-32.57
-33.15
-29.05
-21.06
-12.06
-5.31
-2.38
-2.02
-0.90
4.28
14.55
28.02
40.90
49.85
53.60
53.26
51.09
48.76
46.41
42.82
36.62
27.45
16.40
5.50
-3.39
-9.62
-14.17
-19.14
-26.61
-37.35
-50.06
-61.51
-67.76
-65.83
-55.04
-37.28
-16.09
4.91
23.29
38.22
50.11
59.78
67.91
74.58
79.31
80.87
77.31
66.38
46.15
16.16
-21.58
-62.28
-98.96
-123.69
-129.31
-111.20
-68.75
-6.54
66.01
136.22
191.36
222.18
225.35
203.54
163.29
112.03
55.75
-1.23
-55.41
-102.90
-139.32
-161.06
-166.88
-158.80
-141.48
-120.75
-101.62
-87.05
-77.57
-71.51
-66.22
-59.41
-50.37
-40.47
-32.45
-28.96
-30.86
-36.48
-42.33
-45.06
-43.22
-37.99
-32.31
-29.07
-29.46
-32.49
-35.84
-37.30
-35.94
-32.40
-28.25
-24.96
-23.18
-22.50
-21.82
-20.04
-16.56
-11.62
-6.03
-0.89
2.97
5.19
5.93
5.60
4.66
3.41
2.01
0.68
-0.19
-0.09
1.49
4.74
9.42
14.83
20.08
24.38
27.33
28.91
29.42
29.22
28.63
27.77
26.70
25.48
24.21
23.03
22.05
21.29
20.65
20.00
19.18
18.08
16.57
14.52
11.78
8.32
4.30
0.20
-3.27
-5.33
-5.39
-3.33
0.48
5.32
10.31
14.75
18.22
20.62
22.03
22.60
22.44
21.68
20.53
19.24
18.04
17.07
16.27
15.49
14.49
13.16
11.54
9.76
7.99
6.28
4.55
2.62
0.22
-2.85
-6.63
-10.92
-15.22
-18.79
-20.86
-20.84
-18.55
-14.28
-8.77
-2.91
2.46
6.74
9.67
11.21
11.55
10.93
9.66
8.08
6.49
5.11
4.04
3.29
2.75
2.31
1.85
1.32
0.72
0.06
-0.70
-1.64
-2.92
-4.75
-7.29
-10.57
-14.33
-18.01
-20.81
-21.94
-20.92
-17.71
-12.85
-7.19
-1.66
3.02
6.46
8.58
9.52
9.44
8.56
7.05
5.15
3.11
1.22
-0.33
-1.41
-2.04
-2.30
-2.38
-2.49
-2.86
-3.69
-5.11
-7.23
-10.08
-13.55
-17.38
-21.04
-23.83
-25.03
-24.09
-20.89
-15.80
-9.61
-3.30
2.26
6.52
9.33
10.80
11.21
10.81
9.80
8.37
6.70
5.04
3.61
2.56
1.95
1.68
1.58
1.45
1.12
0.47
-0.58
-2.14
-4.35
-7.28
-10.87
-14.78
-18.31
-20.64
-20.97
-18.90
-14.56
-8.62
-2.08
4.12
9.26
13.08
15.57
16.93
17.40
17.17
16.46
15.50
14.47
13.49
12.55
11.48
10.11
8.32
6.14
3.74
1.38
-0.78
-2.69
-4.48
-6.39
-8.70
-11.65
-15.36
-19.74
-24.39
-28.62
-31.60
-32.61
-31.25
-27.63
-22.37
-16.34
-10.39
-5.15
-0.91
2.27
4.50
5.90
6.60
6.76
6.62
6.45
6.50
6.95
7.79
8.87
9.92
10.64
10.85
10.46
9.58
8.37
7.03
5.71
4.42
3.10
1.59
-0.28
-2.69
-5.75
-9.46
-13.59
-17.64
-20.87
-22.47
-21.79
-18.66
-13.42
-6.89
-0.15
5.79
10.26
12.95
13.94
13.54
12.15
10.18
7.96
5.79
3.89
2.40
1.33
0.57
-0.08
-0.87
-1.97
-3.41
-5.07
-6.70
-8.03
-8.94
-9.48
-9.93
-10.68
-12.11
-14.34
-17.21
-20.18
-22.51
-23.44
-22.46
-19.47
-14.83
-9.19
-3.33
2.14
6.79
10.49
13.23
15.04
15.97
16.05
15.43
14.33
13.13
12.19
11.80
12.02
12.65
13.32
13.63
13.30
12.32
10.86
9.25
7.73
6.41
5.18
3.81
1.99
-0.54
-3.92
-8.05
-12.55
-16.78
-19.98
-21.46
-20.93
-18.51
-14.78
-10.49
-6.35
-2.86
-0.28
1.39
2.27
2.60
2.67
2.84
3.39
4.49
6.14
8.15
10.22
12.08
13.55
14.57
15.21
15.59
15.77
15.73
15.39
14.60
13.21
11.20
8.64
5.70
2.59
-0.47
-3.33
-6.00
-8.65
-11.58
-15.06
-19.18
-23.69
-27.93
-31.01
-32.10
-30.71
-26.92
-21.35
-14.95
-8.70
-3.31
0.85
3.75
5.52
6.34
6.36
5.74
4.70
3.51
2.47
1.80
1.61
1.82
2.23
2.65
2.90
2.94
2.84
2.71
2.76
3.19
4.18
5.85
8.21
11.17
14.57
18.27
22.20
26.37
30.93
36.03
41.79
48.16
54.90
61.55
67.46
71.87
73.94
72.98
68.70
61.42
52.18
42.64
34.64
29.54
27.56
27.58
27.26
23.93
15.62
1.63
-17.22
-39.14
-61.97
-83.70
-102.47
-116.46
-123.94
-123.70
-115.73
-101.66
-84.50
-67.72
-53.96
-44.22
-37.75
-32.82
-27.75
-21.62
-14.39
-6.56
1.46
9.70
18.60
28.74
40.46
53.58
67.35
80.51
91.52
98.86
101.31
98.18
89.50
76.12
59.57
41.87
25.00
10.63
-0.27
-7.56
-11.64
-13.36
-13.75
-13.96
-15.19
-18.67
-25.22
-34.72
-45.89
-56.56
-64.62
-69.01
-70.11
-69.39
-68.46
-68.15
-68.11
-67.23
-64.25
-58.40
-49.45
-37.55
-22.96
-6.07
12.42
31.37
49.35
65.09
77.76
87.06
92.92
95.14
93.38
87.37
77.09
62.88
45.45
25.69
4.50
-17.25
-38.84
-59.77
-79.92
-99.56
-119.24
-139.42
-160.08
-180.30
-198.13
-210.72
-214.97
-208.49
-190.61
-162.87
-128.92
-93.56
-61.26
-34.98
-15.58
-2.21
6.81
12.92
16.85
18.78
18.83
17.50
15.79
14.74
14.98
16.42
18.34
19.92
20.68
20.75
20.83
21.77
24.12
27.86
32.43
37.06
41.06
44.04
45.90
46.66
46.17
44.16
40.36
34.76
27.86
20.62
14.29
9.92
8.04
8.45
10.30
12.42
13.74
13.63
12.02
9.33
6.24
3.39
1.23
-0.01
-0.33
0.11
1.10
2.35
3.53
4.32
4.51
4.10
3.28
2.39
1.80
1.67
1.91
2.17
1.89
0.55
-2.18
-6.28
-11.29
-16.39
-20.60
-23.06
-23.35
-21.60
-18.48
-14.87
-11.61
-9.19
-7.65
-6.65
-5.71
-4.48
-2.93
-1.33
-0.13
0.26
-0.34
-1.78
-3.72
-5.76
-7.63
-9.22
-10.48
-11.22
-11.06
-9.54
-6.36
-1.62
4.02
9.60
14.09
16.74
17.24
15.71
12.57
8.52
4.35
0.96
-0.83
-0.48
2.05
6.28
11.29
16.13
20.07
22.87
24.65
25.72
26.29
26.42
25.96
24.85
23.15
21.14
19.22
17.72
16.75
16.14
15.51
14.49
12.86
10.71
8.43
6.56
5.55
5.62
6.58
8.03
9.55
10.88
12.10
13.44
15.17
17.34
19.73
21.95
23.61
24.50
24.52
23.69
22.07
19.87
17.52
15.73
15.30
16.80
20.24
24.98
29.87
33.75
35.79
35.81
34.15
31.45
28.35
25.25
22.32
19.56
16.91
14.33
11.82
9.39
7.09
4.95
3.07
1.58
0.63
0.38
0.86
1.99
3.51
5.06
6.28
6.94
7.01
6.64
6.05
5.41
4.72
3.82
2.45
0.41
-2.31
-5.49
-8.64
-11.13
-12.27
-11.49
-8.50
-3.36
3.40
10.96
18.43
25.10
30.69
35.30
39.30
43.01
46.56
49.90
52.92
55.56
57.92
60.13
62.21
63.96
65.09
65.42
65.06
64.47
64.27
64.98
66.74
69.24
71.71
73.17
72.63
69.32
62.90
53.55
41.93
29.05
15.97
3.50
-8.02
-18.70
-28.83
-38.56
-47.69
-55.55
-61.30
-64.30
-64.39
-61.99
-58.01
-53.45
-49.10
-45.43
-42.54
-40.31
-38.65
-37.55
-37.08
-37.28
-38.01
-38.84
-39.21
-38.59
-36.71
-33.70
-29.97
-26.07
-22.46
-19.45
-17.16
-15.58
-14.61
-13.93
-13.03
-11.35
-8.56
-4.79
-0.71
2.76
4.90
5.58
5.29
4.89
5.09
6.17
7.83
9.49
10.61
10.92
10.46
9.52
8.43
7.52
6.96
6.73
6.59
6.06
4.61
1.81
-2.42
-7.76
-13.58
-19.15
-23.75
-26.67
-27.24
-24.85
-19.19
-10.62
-0.29
10.05
18.50
23.63
24.88
22.51
17.35
10.40
2.66
-4.89
-11.31
-15.74
-17.67
-17.21
-15.11
-12.56
-10.72
-10.35
-11.53
-13.67
-15.76
-16.69
-15.59
-12.22
-7.01
-1.00
4.56
8.76
11.36
12.95
14.59
17.40
21.95
28.15
35.18
41.80
46.72
48.85
47.58
42.92
35.52
26.55
17.46
9.62
4.02
1.07
0.67
2.34
5.39
9.00
12.35
14.65
15.32
14.12
11.19
7.03
2.27
-2.55
-7.12
-11.45
-15.71
-20.15
-24.86
-29.64
-34.00
-37.34
-39.13
-39.24
-37.97
-35.94
-33.74
-31.70
-29.75
-27.60
-25.08
-22.35
-19.92
-18.32
-17.84
-18.26
-18.94
-19.11
-18.27
-16.34
-13.66
-10.83
-8.40
-6.78
-6.14
-6.49
-7.74
-9.77
-12.44
-15.49
-18.46
-20.70
-21.49
-20.34
-17.22
-12.63
-7.46
-2.65
1.17
3.82
5.55
6.75
7.72
8.60
9.33
9.84
10.09
10.11
9.93
9.54
8.93
8.16
7.38
6.80
6.59
6.76
7.08
7.17
6.66
5.29
3.15
0.58
-1.92
-3.87
-4.96
-5.10
-4.30
-2.62
-0.12
3.04
6.54
9.83
12.30
13.45
13.07
11.29
8.42
4.82
0.73
-3.65
-8.07
-12.18
-15.50
-17.64
-18.35
-17.68
-15.83
-13.12
-9.90
-6.54
-3.36
-0.69
1.24
2.34
2.71
2.64
2.51
2.75
3.70
5.61
8.46
12.04
15.97
19.82
23.23
25.99
28.00
29.12
29.15
27.79
24.73
19.87
13.40
5.79
-2.32
-10.31
-17.73
-24.39
-30.33
-35.76
-40.86
-45.67
-50.00
-53.41
-55.43
-55.67
-54.05
-50.88
-46.68
-42.00
-37.22
-32.46
-27.64
-22.64
-17.52
-12.57
-8.22
-4.81
-2.44
-0.85
0.44
1.95
3.93
6.28
8.54
10.09
10.40
9.26
6.87
3.72
0.41
-2.56
-4.94
-6.74
-8.12
-9.25
-10.23
-11.04
-11.58
-11.81
-11.72
-11.46
-11.19
-11.14
-11.50
-12.42
-13.98
-16.10
-18.56
-20.93
-22.64
-23.21
-22.37
-20.14
-16.92
-13.26
-9.74
-6.75
-4.49
-2.87
-1.66
-0.57
0.61
1.96
3.45
4.98
6.44
7.81
9.12
10.42
11.71
12.93
13.93
14.62
14.93
14.93
14.70
14.31
13.79
13.09
12.20
11.16
10.10
9.14
8.36
7.76
7.23
6.62
5.83
4.82
3.62
2.30
0.93
-0.48
-1.95
-3.55
-5.42
-7.72
-10.54
-13.79
-17.11
-19.89
-21.46
-21.29
-19.28
-15.77
-11.48
-7.23
-3.71
-1.28
0.02
0.43
0.24
-0.21
-0.70
-1.02
-1.01
-0.54
0.48
2.09
4.17
6.50
8.81
10.88
12.65
14.20
15.70
17.32
19.10
20.87
22.35
23.26
23.40
22.81
21.68
20.34
19.06
18.00
17.16
16.43
15.65
14.69
13.46
11.85
9.75
6.96
3.34
-1.09
-6.05
-10.96
-15.06
-17.63
-18.26
-16.96
-14.18
-10.60
-6.91
-3.55
-0.73
1.61
3.59
5.36
7.03
8.71
10.56
12.69
15.18
17.96
20.81
23.46
25.67
27.34
28.52
29.39
30.14
30.88
31.56
31.99
31.97
31.34
30.11
28.48
26.80
25.51
24.93
25.15
25.87
26.41
25.86
23.41
18.64
11.70
3.37
-5.29
-13.27
-19.96
-25.20
-29.24
-32.45
-35.13
-37.43
-39.36
-40.86
-41.89
-42.45
-42.55
-42.28
-41.73
-40.94
-39.85
-38.24
-35.83
-32.36
-27.83
-22.54
-17.03
-11.91
-7.65
-4.40
-2.06
-0.42
0.67
1.19
1.05
0.19
-1.31
-3.18
-5.07
-6.74
-8.18
-9.70
-11.79
-14.94
-19.37
-24.81
-30.50
-35.43
-38.69
-39.84
-39.13
-37.44
-35.95
-35.76
-37.60
-41.64
-47.48
-54.25
-60.70
-65.44
-67.10
-64.60
-57.40
-45.54
-29.78
-11.37
8.03
26.67
42.99
55.79
64.49
69.10
70.15
68.45
64.80
59.86
54.12
47.91
41.63
35.66
30.39
26.09
22.89
20.76
19.59
19.18
19.29
19.65
19.94
19.83
19.05
17.42
14.89
11.56
7.66
3.58
-0.17
-3.00
-4.36
-3.85
-1.42
2.57
7.32
11.86
15.32
17.19
17.53
16.90
16.10
15.80
16.26
17.31
18.42
19.07
18.97
18.21
17.19
16.56
16.99
19.02
22.75
27.59
32.19
34.58
32.78
25.58
13.17
-2.73
-19.31
-33.72
-43.97
-49.52
-51.09
-50.07
-47.70
-44.62
-40.87
-36.27
-30.81
-24.86
-19.01
-13.81
-9.41
-5.58
-1.89
1.97
5.97
9.75
12.74
14.47
14.68
13.44
11.07
8.06
4.89
2.05
-0.05
-1.13
-1.04
0.18
2.37
5.29
8.73
12.55
16.62
20.78
24.80
28.37
31.16
32.93
33.54
33.02
31.58
29.50
27.16
24.90
22.97
21.45
20.25
19.11
17.76
16.01
13.82
11.24
8.31
4.92
0.82
-4.30
-10.63
-18.00
-25.85
-33.31
-39.36
-43.13
-44.11
-42.26
-38.02
-32.21
-25.84
-19.88
-15.04
-11.61
-9.37
-7.76
-6.17
-4.25
-2.06
-0.03
1.34
1.77
1.37
0.62
0.07
0.08
0.58
1.19
1.40
0.85
-0.41
-2.01
-3.28
-3.55
-2.33
0.54
4.90
10.27
16.05
21.58
26.21
29.32
30.34
28.77
24.26
16.75
6.50
-5.82
-19.18
-32.30
-43.74
-52.16
-56.54
-56.47
-52.33
-45.18
-36.46
-27.42
-18.75
-10.46
-2.25
6.07
14.24
21.51
27.04
30.32
31.48
31.14
30.10
28.89
27.60
25.95
23.52
20.12
15.92
11.44
7.38
4.38
2.82
2.68
3.61
5.03
6.44
7.54
8.28
8.85
9.48
10.29
11.30
12.37
13.41
14.40
15.46
16.85
18.86
21.67
25.29
29.45
33.69
37.51
40.50
42.47
43.50
43.90
44.07
44.39
44.99
45.71
46.07
45.56
43.82
41.01
37.76
35.02
33.71
34.26
36.47
39.62
42.80
45.22
46.46
46.42
45.29
43.40
41.16
39.05
37.55
36.98
37.41
38.57
40.05
41.49
42.76
43.89
44.85
45.20
43.91
39.58
30.93
17.39
-0.42
-20.70
-41.06
-59.21
-73.68
-84.11
-90.96
-94.97
-96.64
-96.04
-92.99
-87.42
-79.72
-70.81
-61.82
-53.76
-47.12
-41.88
-37.63
-33.86
-30.26
-26.80
-23.66
-21.06
-19.05
-17.48
-16.03
-14.45
-12.66
-10.87
-9.47
-8.85
-9.22
-10.49
-12.33
-14.23
-15.74
-16.59
-16.71
-16.25
-15.51
-14.86
-14.64
-15.05
-16.12
-17.63
-19.23
-20.41
-20.69
-19.71
-17.28
-13.52
-8.77
-3.57
1.50
5.95
9.48
12.01
13.57
14.26
14.16
13.38
12.09
10.51
8.93
7.52
6.29
5.10
3.74
2.06
0.15
-1.77
-3.40
-4.52
-5.12
-5.37
-5.52
-5.81
-6.43
-7.52
-9.19
-11.50
-14.37
-17.52
-20.48
-22.69
-23.71
-23.35
-21.80
-19.49
-16.94
-14.58
-12.65
-11.16
-10.02
-9.07
-8.17
-7.19
-6.04
-4.70
-3.22
-1.72
-0.33
0.88
1.91
2.80
3.58
4.23
4.66
4.79
4.61
4.20
3.69
3.20
2.71
2.17
1.47
0.54
-0.64
-2.10
-3.83
-5.84
-8.02
-10.11
-11.74
-12.50
-12.11
-10.51
-7.94
-4.80
-1.52
1.52
4.11
6.16
7.73
8.91
9.84
10.67
11.53
12.49
13.59
14.79
16.03
17.18
18.05
18.39
17.98
16.71
14.67
12.13
9.49
7.15
5.38
4.28
3.78
3.67
3.71
3.66
3.35
2.61
1.38
-0.37
-2.63
-5.30
-8.22
-11.16
-13.86
-16.01
-17.35
-17.77
-17.28
-16.10
-14.56
-12.96
-11.54
-10.38
-9.47
-8.75
-8.21
-7.91
-7.88
-8.06
-8.22
-8.06
-7.30
-5.90
-4.02
-2.07
-0.40
0.73
1.31
1.48
1.42
1.23
0.88
0.26
-0.70
-2.03
-3.63
-5.41
-7.22
-8.97
-10.54
-11.84
-12.80
-13.46
-13.98
-14.59
-15.52
-16.89
-18.58
-20.31
-21.70
-22.41
-22.29
-21.33
-19.64
-17.39
-14.74
-11.86
-8.97
-6.29
-4.02
-2.21
-0.76
0.58
2.04
3.78
5.78
7.88
9.94
11.86
13.63
15.19
16.42
17.11
17.10
16.44
15.38
14.33
13.61
13.30
13.22
13.01
12.33
11.07
9.36
7.47
5.65
4.10
2.84
1.84
0.96
0.03
-1.14
-2.70
-4.64
-6.74
-8.61
-9.76
-9.86
-8.85
-6.97
-4.63
-2.22
0.02
2.02
3.79
5.26
6.32
6.79
6.59
5.73
4.33
2.59
0.74
-0.96
-2.27
-2.96
-2.91
-2.16
-0.89
0.63
2.11
3.38
4.36
5.02
5.35
5.25
4.62
3.42
1.75
-0.17
-2.04
-3.58
-4.69
-5.47
-6.13
-6.95
-8.10
-9.56
-11.05
-12.13
-12.25
-11.07
-8.48
-4.81
-0.70
3.07
5.80
7.08
6.87
5.44
3.25
0.86
-1.25
-2.63
-3.02
-2.34
-0.76
1.35
3.55
5.36
6.53
6.94
6.68
5.92
4.87
3.76
2.71
1.84
1.10
0.42
-0.35
-1.32
-2.54
-3.98
-5.57
-7.29
-9.25
-11.55
-14.23
-17.11
-19.78
-21.73
-22.45
-21.75
-19.78
-16.98
-13.88
-10.91
-8.29
-6.06
-4.14
-2.51
-1.17
-0.19
0.45
0.86
1.22
1.73
2.47
3.42
4.41
5.27
5.85
6.13
6.21
6.27
6.51
7.01
7.69
8.30
8.45
7.75
5.94
2.99
-0.90
-5.30
-9.71
-13.63
-16.68
-18.66
-19.48
-19.21
-17.97
-15.96
-13.39
-10.53
-7.64
-4.94
-2.58
-0.61
0.98
2.31
3.51
4.65
5.79
6.93
8.05
9.11
10.05
10.80
11.27
11.41
11.19
10.64
9.83
8.82
7.69
6.46
5.12
3.58
1.66
-0.77
-3.78
-7.24
-10.79
-13.90
-16.04
-16.87
-16.37
-14.80
-12.62
-10.28
-8.12
-6.27
-4.74
-3.47
-2.42
-1.57
-0.93
-0.50
-0.27
-0.16
-0.12
-0.05
0.10
0.35
0.70
1.15
1.66
2.17
2.59
2.77
2.63
2.14
1.42
0.61
-0.16
-0.92
-1.81
-3.03
-4.69
-6.67
-8.66
-10.16
-10.75
-10.20
-8.56
-6.13
-3.37
-0.73
1.51
3.25
4.59
5.75
6.88
8.05
9.21
10.23
10.99
11.50
11.83
12.12
12.46
12.87
13.28
13.55
13.59
13.36
12.91
12.32
11.61
10.76
9.70
8.34
6.66
4.73
2.65
0.52
-1.63
-3.87
-6.25
-8.72
-11.06
-12.90
-13.85
-13.66
-12.38
-10.33
-7.96
-5.63
-3.49
-1.50
0.47
2.50
4.51
6.33
7.83
8.93
9.70
10.26
10.73
11.21
11.73
12.31
12.97
13.70
14.45
15.13
15.64
15.90
15.89
15.61
15.08
14.35
13.51
12.65
11.91
11.36
11.04
10.86
10.65
10.22
9.38
8.10
6.42
4.48
2.47
0.52
-1.22
-2.74
-4.08
-5.38
-6.87
-8.77
-11.23
-14.24
-17.62
-21.01
-23.99
-26.18
-27.30
-27.23
-25.99
-23.74
-20.73
-17.28
-13.72
-10.33
-7.33
-4.79
-2.73
-1.03
0.43
1.77
3.11
4.52
6.05
7.73
9.51
11.31
12.97
14.31
15.21
15.66
15.74
15.58
15.32
15.01
14.62
14.05
13.21
12.08
10.69
9.11
7.38
5.53
3.59
1.57
-0.44
-2.33
-3.96
-5.15
-5.77
-5.79
-5.34
-4.74
-4.45
-4.93
-6.48
-9.11
-12.49
-16.04
-19.13
-21.27
-22.21
-21.97
-20.69
-18.62
-16.02
-13.14
-10.23
-7.51
-5.12
-3.06
-1.28
0.30
1.76
3.06
4.18
5.10
5.93
6.79
7.80
8.97
10.21
11.36
12.26
12.81
13.00
12.81
12.26
11.34
10.07
8.51
6.76
4.93
3.07
1.24
-0.62
-2.62
-4.87
-7.44
-10.30
-13.21
-15.81
-17.68
-18.50
-18.16
-16.81
-14.77
-12.40
-10.04
-7.88
-6.00
-4.38
-2.93
-1.51
-0.01
1.66
3.48
5.38
7.24
8.98
10.55
12.01
13.40
14.73
15.99
17.07
17.89
18.35
18.44
18.19
17.70
17.08
16.38
15.57
14.58
13.32
11.81
10.16
8.55
7.15
6.00
4.97
3.86
2.46
0.61
-1.76
-4.68
-8.10
-11.86
-15.63
-18.88
-21.02
-21.64
-20.62
-18.23
-14.99
-11.49
-8.15
-5.21
-2.70
-0.58
1.24
2.80
4.19
5.49
6.85
8.36
10.04
11.82
13.55
15.06
16.22
16.99
17.43
17.68
17.89
18.18
18.57
18.99
19.28
19.31
18.98
18.28
17.27
16.06
14.74
13.44
12.24
11.18
10.20
9.20
8.03
6.55
4.73
2.61
0.36
-1.88
-4.05
-6.24
-8.63
-11.40
-14.56
-17.90
-21.04
-23.58
-25.19
-25.75
-25.32
-24.10
-22.36
-20.33
-18.21
-16.18
-14.35
-12.80
-11.49
-10.31
-9.09
-7.69
-6.03
-4.14
-2.14
-0.24
1.40
2.63
3.44
3.89
4.10
4.17
4.13
3.95
3.59
3.05
2.37
1.65
0.97
0.40
-0.02
-0.35
-0.65
-1.06
-1.77
-2.94
-4.74
-7.14
-9.98
-12.94
-15.58
-17.48
-18.31
-17.94
-16.42
-13.98
-10.98
-7.80
-4.72
-1.90
0.60
2.77
4.66
6.27
7.63
8.77
9.75
10.66
11.56
12.51
13.48
14.42
15.26
15.90
16.26
16.29
16.01
15.49
14.82
14.08
13.23
12.18
10.83
9.10
7.01
4.58
1.78
-1.43
-5.10
-9.18
-13.40
-17.29
-20.29
-21.88
-21.81
-20.15
-17.30
-13.83
-10.29
-7.10
-4.44
-2.31
-0.53
1.09
2.70
4.35
6.00
7.55
8.89
9.98
10.80
11.37
11.78
12.12
12.49
12.96
13.47
13.86
13.89
13.36
12.21
10.60
8.79
7.10
5.65
4.37
3.04
1.45
-0.58
-3.06
-5.97
-9.22
-12.65
-15.94
-18.67
-20.33
-20.54
-19.20
-16.57
-13.19
-9.65
-6.42
-3.71
-1.50
0.38
2.09
3.76
5.40
6.95
8.29
9.32
10.04
10.51
10.85
11.14
11.36
11.37
11.04
10.28
9.17
7.90
6.70
5.67
4.80
3.93
2.93
1.78
0.52
-0.75
-2.04
-3.51
-5.35
-7.68
-10.39
-13.09
-15.25
-16.36
-16.16
-14.74
-12.42
-9.68
-6.92
-4.40
-2.19
-0.24
1.56
3.31
5.06
6.82
8.57
10.22
11.72
13.01
14.07
14.92
15.59
16.12
16.49
16.65
16.51
16.01
15.12
13.88
12.40
10.78
9.08
7.26
5.25
2.94
0.21
-2.98
-6.58
-10.44
-14.26
-17.64
-20.15
-21.50
-21.56
-20.46
-18.51
-16.10
-13.56
-11.09
-8.74
-6.48
-4.23
-2.03
0.05
1.88
3.32
4.31
4.89
5.16
5.29
5.42
5.63
5.91
6.24
6.58
6.96
7.38
7.86
8.36
8.75
8.87
8.58
7.85
6.72
5.37
4.01
2.80
1.80
0.91
-0.11
-1.54
-3.64
-6.46
-9.78
-13.12
-15.87
-17.47
-17.58
-16.16
-13.46
-9.90
-5.92
-1.92
1.83
5.22
8.27
11.11
13.95
16.96
20.18
23.53
26.75
29.53
31.60
32.78
32.98
32.16
30.28
27.31
23.31
18.48
13.20
7.95
3.13
-1.02
-4.50
-7.45
-10.01
-12.25
-14.14
-15.62
-16.67
-17.37
-17.82
-18.11
-18.31
-18.47
-18.72
-19.23
-20.14
-21.39
-22.65
-23.34
-22.87
-20.90
-17.51
-13.20
-8.69
-4.65
-1.51
0.69
2.16
3.22
4.14
5.01
5.82
6.50
7.05
7.54
8.10
8.85
9.80
10.87
11.88
12.63
12.97
12.85
12.31
11.40
10.20
8.72
7.00
5.10
3.13
1.18
-0.68
-2.49
-4.41
-6.63
-9.30
-12.39
-15.74
-19.03
-21.88
-23.94
-24.96
-24.79
-23.42
-20.97
-17.70
-13.98
-10.17
-6.52
-3.13
0.08
3.22
6.38
9.53
12.52
15.16
17.33
18.99
20.21
21.12
21.83
22.42
22.95
23.43
23.92
24.42
24.90
25.27
25.41
25.27
24.86
24.29
23.63
22.95
22.20
21.31
20.20
18.93
17.67
16.59
15.83
15.35
14.97
14.47
13.70
12.63
11.37
10.12
9.09
8.53
8.67
9.76
12.05
15.74
20.91
27.51
35.31
43.99
53.20
62.57
71.86
80.89
89.58
97.95
106.12
114.40
123.34
133.56
145.49
158.86
172.29
183.26
188.58
185.23
171.35
146.62
112.17
69.83
21.47
-31.14
-86.09
-140.63
-191.29
-234.48
-267.72
-290.66
-305.05
-313.89
-319.75
-323.71
-325.20
-322.78
-315.14
-301.58
-281.87
-255.83
-223.29
-184.55
-141.21
-96.45
-54.42
-18.84
8.33
27.55
41.03
51.49
60.90
69.94
78.32
85.50
91.34
96.17
100.40
104.14
106.94
107.93
106.28
101.65
94.45
85.75
76.92
69.15
62.99
58.27
54.20
49.80
44.33
37.64
30.09
22.35
15.00
8.26
2.02
-4.02
-10.05
-15.97
-21.40
-25.82
-28.76
-29.98
-29.46
-27.39
-24.08
-20.01
-15.72
-11.85
-9.03
-7.79
-8.41
-10.88
-14.88
-19.87
-25.20
-30.14
-33.98
-36.06
-35.83
-32.96
-27.45
-19.67
-10.38
-0.54
8.84
16.94
23.29
27.75
30.45
31.69
31.79
31.06
29.79
28.24
26.59
24.94
23.24
21.31
18.98
16.17
13.07
10.15
8.09
7.61
9.18
12.87
18.27
24.53
30.62
35.58
38.73
39.84
39.08
36.85
33.70
30.07
26.32
22.67
19.26
16.18
13.46
11.15
9.19
7.49
5.96
4.52
3.21
2.08
1.21
0.65
0.33
0.13
-0.13
-0.59
-1.29
-2.23
-3.35
-4.68
-6.33
-8.47
-11.22
-14.48
-17.88
-20.72
-22.23
-21.75
-18.99
-14.21
-8.07
-1.47
4.82
10.32
14.87
18.56
21.51
23.83
25.58
26.84
27.80
28.69
29.82
31.38
33.46
35.92
38.49
40.84
42.66
43.74
44.02
43.52
42.36
40.63
38.40
35.74
32.73
29.48
26.16
22.88
19.74
16.73
13.81
10.85
7.74
4.35
0.58
-3.61
-8.18
-13.01
-17.85
-22.33
-26.00
-28.44
-29.31
-28.56
-26.38
-23.28
-19.84
-16.58
-13.84
-11.71
-10.08
-8.78
-7.69
-6.79
-6.17
-5.96
-6.27
-7.08
-8.23
-9.48
-10.61
-11.46
-12.01
-12.33
-12.53
-12.74
-13.09
-13.69
-14.65
-16.02
-17.76
-19.72
-21.68
-23.44
-24.95
-26.33
-27.81
-29.62
-31.87
-34.40
-36.80
-38.52
-39.00
-37.85
-34.98
-30.65
-25.37
-19.80
-14.53
-9.91
-6.06
-2.88
-0.24
1.99
3.84
5.33
6.51
7.50
8.45
9.43
10.44
11.35
12.02
12.37
12.44
12.36
12.28
12.25
12.28
12.22
11.88
11.10
9.84
8.18
6.34
4.55
2.94
1.54
0.23
-1.16
-2.79
-4.79
-7.23
-10.12
-13.34
-16.56
-19.33
-21.11
-21.45
-20.22
-17.67
-14.34
-10.89
-7.84
-5.39
-3.47
-1.85
-0.32
1.20
2.69
4.04
5.21
6.20
7.10
7.96
8.81
9.58
10.19
10.61
10.88
11.13
11.53
12.15
12.93
13.66
14.08
13.97
13.31
12.26
11.10
10.12
9.43
8.98
8.58
8.02
7.14
5.93
4.48
2.92
1.39
0.03
-1.15
-2.21
-3.27
-4.50
-6.00
-7.77
-9.69
-11.66
-13.63
-15.68
-17.96
-20.56
-23.38
-26.11
-28.22
-29.17
-28.58
-26.35
-22.75
-18.31
-13.68
-9.51
-6.21
-3.91
-2.47
-1.53
-0.74
0.13
1.12
2.13
3.02
3.72
4.28
4.81
5.41
6.04
6.60
6.95
7.01
6.79
6.43
6.03
5.66
5.29
4.90
4.45
3.98
3.53
3.11
2.69
2.20
1.62
0.95
0.28
-0.36
-0.99
-1.70
-2.61
-3.76
-5.09
-6.43
-7.64
-8.66
-9.55
-10.50
-11.70
-13.26
-15.16
-17.28
-19.36
-21.10
-22.22
-22.48
-21.74
-19.98
-17.33
-14.09
-10.60
-7.23
-4.26
-1.81
0.11
1.58
2.63
3.32
3.74
4.01
4.33
4.90
5.82
7.03
8.33
9.43
10.10
10.27
9.98
9.36
8.56
7.68
6.74
5.78
4.82
3.87
2.90
1.90
0.83
-0.30
-1.48
-2.73
-4.05
-5.49
-7.09
-8.89
-10.89
-13.04
-15.29
-17.50
-19.41
-20.68
-20.91
-19.80
-17.25
-13.50
-9.08
-4.67
-0.86
2.01
3.89
4.96
5.47
5.64
5.61
5.48
5.35
5.37
5.70
6.40
7.41
8.51
9.40
9.81
9.66
9.06
8.29
7.61
7.17
6.88
6.50
5.79
4.63
3.14
1.55
0.14
-1.00
-1.95
-2.96
-4.27
-6.05
-8.25
-10.75
-13.37
-16.02
-18.66
-21.24
-23.61
-25.48
-26.51
-26.39
-25.07
-22.72
-19.77
-16.68
-13.80
-11.27
-9.03
-6.97
-4.98
-3.10
-1.37
0.16
1.56
2.91
4.30
5.73
7.13
8.35
9.28
9.89
10.25
10.46
10.67
10.96
11.36
11.78
12.09
12.14
11.85
11.25
10.43
9.51
8.61
7.74
6.86
5.93
4.90
3.73
2.42
0.96
-0.67
-2.45
-4.31
-6.11
-7.76
-9.20
-10.52
-11.93
-13.70
-16.04
-18.97
-22.27
-25.43
-27.83
-28.93
-28.48
-26.53
-23.45
-19.73
-15.83
-12.09
-8.68
-5.72
-3.22
-1.16
0.57
2.09
3.57
5.05
6.53
7.92
9.14
10.19
11.08
11.86
12.48
12.83
12.85
12.56
12.10
11.65
11.36
11.22
11.08
10.72
9.95
8.72
7.17
5.57
4.26
3.45
3.16
3.18
3.15
2.74
1.78
0.30
-1.54
-3.51
-5.50
-7.47
-9.49
-11.63
-13.91
-16.30
-18.67
-20.82
-22.48
-23.31
-22.95
-21.24
-18.22
-14.23
-9.79
-5.45
-1.62
1.55
4.12
6.22
7.98
9.44
10.55
11.24
11.56
11.60
11.53
11.46
11.44
11.46
11.42
11.26
10.94
10.47
9.90
9.26
8.55
7.78
6.91
5.95
4.90
3.80
2.70
1.65
0.67
-0.23
-1.10
-2.01
-3.06
-4.36
-5.99
-8.03
-10.52
-13.48
-16.82
-20.32
-23.66
-26.39
-28.10
-28.56
-27.81
-26.20
-24.27
-22.56
-21.43
-21.02
-21.21
-21.79
-22.51
-23.21
-23.81
-24.28
-24.63
-24.86
-25.00
-25.05
-25.04
-24.95
-24.75
-24.41
-23.87
-23.10
-22.11
-20.98
-19.82
-18.81
-18.13
-17.94
-18.30
-19.09
-20.06
-20.86
-21.26
-21.22
-21.00
-21.01
-21.55
-22.60
-23.77
-24.40
-23.87
-21.88
-18.62
-14.62
-10.55
-6.98
-4.22
-2.30
-1.09
-0.36
0.20
0.98
2.44
5.06
9.19
14.88
21.84
29.54
37.39
44.89
51.80
58.07
63.80
69.09
73.94
78.32
82.06
84.97
86.82
87.38
86.39
83.64
78.95
72.24
63.54
53.12
41.41
29.13
17.16
6.40
-2.34
-8.59
-12.29
-13.79
-13.76
-12.97
-12.09
-11.47
-11.16
-10.95
-10.53
-9.70
-8.35
-6.54
-4.36
-1.90
0.77
3.54
6.27
8.73
10.69
12.01
12.71
12.90
12.75
12.34
11.66
10.60
9.06
7.01
4.51
1.67
-1.42
-4.73
-8.17
-11.52
-14.41
-16.37
-17.05
-16.37
-14.60
-12.19
-9.63
-7.21
-5.01
-3.02
-1.20
0.37
1.52
2.13
2.21
1.93
1.57
1.41
1.60
2.09
2.74
3.34
3.68
3.64
3.20
2.39
1.31
0.07
-1.28
-2.71
-4.20
-5.76
-7.39
-9.14
-11.13
-13.39
-15.88
-18.31
-20.18
-20.98
-20.36
-18.33
-15.30
-11.92
-8.76
-6.20
-4.25
-2.73
-1.45
-0.35
0.54
1.13
1.45
1.60
1.77
2.04
2.40
2.69
2.71
2.31
1.45
0.20
-1.25
-2.73
-4.11
-5.35
-6.55
-7.91
-9.66
-11.95
-14.73
-17.79
-20.70
-22.99
-24.20
-24.05
-22.46
-19.55
-15.67
-11.27
-6.86
-2.89
0.38
2.86
4.69
6.11
7.38
8.67
10.05
11.52
13.06
14.57
15.99
17.19
18.03
18.39
18.21
17.54
16.51
15.31
14.07
12.79
11.38
9.69
7.61
5.16
2.46
-0.27
-2.85
-5.23
-7.52
-9.98
-12.85
-16.25
-19.99
-23.65
-26.60
-28.23
-28.13
-26.19
-22.69
-18.10
-13.06
-8.14
-3.76
-0.14
2.75
5.10
7.18
9.25
11.41
13.64
15.77
17.67
19.25
20.55
21.65
22.65
23.52
24.20
24.57
24.57
24.21
23.59
22.85
22.01
21.06
19.85
18.23
16.14
13.63
10.89
8.15
5.61
3.29
1.10
-1.16
-3.70
-6.64
-10.00
-13.76
-17.79
-21.88
-25.65
-28.58
-30.06
-29.65
-27.22
-23.12
-18.02
-12.77
-8.09
-4.37
-1.63
0.38
2.00
3.50
5.02
6.56
8.06
9.51
10.87
12.18
13.42
14.53
15.38
15.84
15.80
15.21
14.05
12.41
10.37
8.06
5.59
3.12
0.78
-1.36
-3.36
-5.31
-7.46
-10.03
-13.14
-16.72
-20.47
-23.84
-26.27
-27.28
-26.67
-24.61
-21.47
-17.78
-14.00
-10.47
-7.38
-4.85
-2.91
-1.50
-0.48
0.35
1.20
2.20
3.28
4.24
4.81
4.80
4.17
3.11
1.91
0.88
0.14
-0.40
-1.02
-2.11
-4.02
-6.89
-10.58
-14.70
-18.74
-22.30
-25.25
-27.87
-30.70
-34.43
-39.63
-46.50
-54.83
-63.98
-73.06
-81.21
-87.85
-92.75
-96.12
-98.39
-99.98
-101.12
-101.82
-101.94
-101.42
-100.41
-99.39
-99.14
-100.64
-104.87
-112.38
-122.86
-134.59
-144.46
-148.48
-142.93
-125.70
-97.20
-60.19
-18.83
22.80
61.65
95.74
123.60
143.50
153.60
152.74
141.55
123.00
101.84
83.05
70.27
64.96
66.58
73.42
83.45
94.62
104.86
112.02
114.38
111.34
103.93
94.51
85.84
80.05
77.82
78.42
80.42
82.36
83.33
83.00
81.42
78.83
75.59
72.12
68.87
66.12
63.83
61.66
59.07
55.62
51.00
45.18
38.30
30.62
22.66
15.11
8.85
4.64
2.92
3.44
5.30
7.11
7.41
5.19
0.20
-6.95
-15.00
-22.44
-27.97
-30.73
-30.48
-27.53
-22.51
-16.21
-9.36
-2.56
3.85
9.73
15.03
19.78
23.96
27.50
30.33
32.39
33.64
34.01
33.33
31.35
27.80
22.50
15.50
7.13
-2.05
-11.46
-20.60
-29.24
-37.37
-45.10
-52.54
-59.70
-66.46
-72.53
-77.47
-80.69
-81.53
-79.41
-74.06
-65.70
-55.11
-43.43
-31.77
-20.93
-11.17
-2.39
5.67
13.21
20.30
26.98
33.39
39.75
46.19
52.54
58.21
62.27
63.86
62.52
58.37
52.05
44.46
36.40
28.37
20.47
12.51
4.23
-4.62
-14.11
-24.09
-34.17
-43.67
-51.76
-57.62
-60.66
-60.70
-58.02
-53.25
-47.05
-39.91
-31.93
-22.95
-12.67
-1.00
11.81
25.14
38.19
50.19
60.69
69.61
77.18
83.76
89.62
94.78
99.08
102.24
104.05
104.40
103.35
101.02
97.53
93.02
87.64
81.62
75.27
68.92
62.80
57.00
51.41
45.85
40.26
34.71
29.49
24.87
21.01
17.86
15.14
12.46
9.51
6.12
2.30
-1.80
-5.99
-10.11
-14.06
-17.74
-21.10
-24.01
-26.36
-28.07
-29.15
-29.72
-30.03
-30.30
-30.68
-31.16
-31.59
-31.80
-31.75
-31.56
-31.54
-31.98
-33.02
-34.50
-36.08
-37.29
-37.86
-37.71
-36.99
-36.01
-35.11
-34.59
-34.69
-35.55
-37.10
-38.99
-40.58
-41.07
-39.80
-36.53
-31.55
-25.62
-19.64
-14.33
-9.99
-6.52
-3.63
-1.08
1.21
3.14
4.62
5.64
6.38
7.03
7.82
8.77
9.81
10.79
11.58
12.16
12.59
12.97
13.33
13.64
13.77
13.57
12.96
11.94
10.62
9.17
7.72
6.27
4.73
2.87
0.51
-2.39
-5.63
-8.83
-11.47
-13.08
-13.39
-12.40
-10.38
-7.79
-5.11
-2.73
-0.80
0.69
1.89
2.93
3.91
4.80
5.56
6.13
6.50
6.68
6.70
6.54
6.14
5.48
4.59
3.60
2.69
1.98
1.51
1.18
0.76
0.02
-1.19
-2.87
-4.90
-7.01
-8.95
-10.52
-11.68
-12.55
-13.36
-14.36
-15.74
-17.50
-19.46
-21.28
-22.52
-22.85
-22.07
-20.23
-17.67
-14.81
-12.10
-9.82
-8.07
-6.72
-5.62
-4.65
-3.74
-2.91
-2.15
-1.40
-0.56
0.48
1.75
3.21
4.70
6.03
6.95
7.30
7.01
6.13
4.86
3.49
2.27
1.36
0.74
0.28
-0.24
-1.03
-2.25
-3.96
-6.12
-8.59
-11.03
-13.02
-14.13
-14.05
-12.78
-10.61
-8.07
-5.68
-3.81
-2.56
-1.77
-1.17
-0.60
0.01
0.58
1.01
1.27
1.41
1.54
1.80
2.20
2.69
3.11
3.27
3.06
2.46
1.57
0.57
-0.37
-1.21
-2.01
-2.95
-4.21
-5.90
-8.02
-10.47
-13.07
-15.54
-17.56
-18.74
-18.71
-17.27
-14.52
-10.90
-7.05
-3.66
-1.17
0.34
1.08
1.44
1.72
2.05
2.35
2.44
2.16
1.49
0.51
-0.57
-1.60
-2.45
-3.11
-3.64
-4.12
-4.60
-5.13
-5.71
-6.24
-6.62
-6.65
-6.19
-5.17
-3.73
-2.15
-0.87
-0.33
-0.78
-2.25
-4.44
-6.88
-9.00
-10.31
-10.46
-9.33
-7.08
-4.06
-0.85
2.01
4.06
5.10
5.24
4.80
4.20
3.74
3.53
3.45
3.23
2.61
1.44
-0.26
-2.31
-4.44
-6.42
-8.08
-9.37
-10.36
-11.21
-12.10
-13.20
-14.62
-16.32
-18.04
-19.32
-19.57
-18.23
-14.99
-9.93
-3.56
3.27
9.65
14.84
18.51
20.75
21.88
22.29
22.24
21.82
20.99
19.75
18.14
16.29
14.29
12.22
10.09
7.87
5.57
3.17
0.69
-1.85
-4.33
-6.52
-8.07
-8.66
-8.12
-6.56
-4.33
-1.89
0.34
2.15
3.57
4.72
5.76
6.75
7.65
8.39
8.89
9.14
9.18
9.11
9.01
8.95
8.96
9.06
9.26
9.54
9.86
10.13
10.27
10.19
9.90
9.46
8.95
8.46
7.99
7.50
6.94
6.27
5.49
4.51
3.24
1.52
-0.75
-3.56
-6.76
-10.12
-13.41
-16.51
-19.33
-21.75
-23.56
-24.45
-24.15
-22.56
-19.86
-16.48
-12.96
-9.77
-7.15
-5.10
-3.44
-1.96
-0.51
0.88
2.10
3.02
3.57
3.82
3.91
4.05
4.38
4.95
5.66
6.29
6.63
6.53
5.99
5.13
4.15
3.22
2.40
1.66
0.90
0.03
-1.02
-2.29
-3.77
-5.50
-7.45
-9.51
-11.43
-12.89
-13.59
-13.40
-12.39
-10.81
-8.95
-7.08
-5.38
-3.90
-2.67
-1.66
-0.85
-0.25
0.17
0.44
0.61
0.73
0.85
0.98
1.13
1.26
1.32
1.22
0.89
0.29
-0.59
-1.71
-2.98
-4.34
-5.71
-7.07
-8.40
-9.68
-10.90
-12.07
-13.27
-14.63
-16.30
-18.31
-20.53
-22.64
-24.24
-25.04
-24.93
-24.07
-22.74
-21.24
-19.78
-18.47
-17.40
-16.58
-16.05
-15.75
-15.61
-15.50
-15.40
-15.37
-15.57
-16.21
-17.44
-19.30
-21.74
-24.57
-27.47
-30.03
-31.78
-32.31
-31.40
-29.09
-25.63
-21.43
-16.88
-12.31
-7.93
-3.82
-0.02
3.52
6.80
9.74
12.20
13.93
14.74
14.55
13.48
11.82
9.86
7.87
5.96
4.18
2.60
1.35
0.68
0.88
2.14
4.49
7.75
11.55
15.47
19.13
22.31
24.92
26.97
28.41
29.10
28.87
27.68
25.71
23.41
21.38
20.09
19.68
19.92
20.37
20.62
20.61
20.62
21.14
22.57
24.89
27.55
29.45
29.29
25.93
18.88
8.52
-3.91
-16.60
-27.70
-35.78
-40.17
-40.94
-38.68
-34.21
-28.35
-21.82
-15.20
-8.92
-3.23
1.89
6.63
11.24
15.85
20.35
24.38
27.47
29.20
29.35
27.95
25.23
21.57
17.44
13.32
9.61
6.51
4.04
1.98
0.04
-2.11
-4.66
-7.63
-10.96
-14.50
-18.09
-21.57
-24.75
-27.38
-29.16
-29.74
-28.80
-26.15
-21.77
-15.88
-8.88
-1.30
6.31
13.44
19.69
24.80
28.59
30.99
32.03
31.89
30.86
29.25
27.33
25.19
22.82
20.19
17.26
14.15
11.05
8.13
5.47
3.00
0.54
-2.09
-4.98
-8.11
-11.35
-14.55
-17.48
-19.91
-21.52
-22.02
-21.15
-18.82
-15.21
-10.72
-5.93
-1.44
2.27
4.94
6.56
7.28
7.37
7.12
6.69
6.10
5.22
3.84
1.79
-0.96
-4.23
-7.77
-11.28
-14.60
-17.66
-20.47
-23.06
-25.41
-27.52
-29.46
-31.37
-33.47
-35.83
-38.29
-40.31
-41.11
-39.95
-36.36
-30.46
-22.93
-14.82
-7.14
-0.63
4.46
8.26
11.04
13.06
14.44
15.27
15.70
15.98
16.37
17.04
17.89
18.59
18.71
17.96
16.26
13.84
11.07
8.36
5.99
4.04
2.47
1.11
-0.21
-1.65
-3.27
-5.07
-6.94
-8.67
-9.96
-10.48
-9.96
-8.26
-5.43
-1.75
2.36
6.40
9.93
12.68
14.58
15.76
16.43
16.73
16.74
16.46
15.96
15.44
15.19
15.41
16.16
17.23
18.26
18.93
19.10
18.88
18.47
18.04
17.60
16.98
15.98
14.49
12.58
10.45
8.35
6.44
4.75
3.20
1.66
-0.04
-2.01
-4.32
-6.99
-9.97
-13.15
-16.24
-18.86
-20.53
-20.78
-19.40
-16.48
-12.47
-8.04
-3.85
-0.34
2.36
4.41
6.07
7.54
8.94
10.28
11.56
12.88
14.33
16.00
17.85
19.69
21.24
22.24
22.54
22.12
21.11
19.70
18.04
16.25
14.38
12.45
10.40
8.14
5.53
2.48
-0.95
-4.54
-7.90
-10.65
-12.52
-13.48
-13.71
-13.55
-13.36
-13.46
-14.11
-15.38
-17.15
-19.06
-20.51
-20.86
-19.71
-17.02
-13.25
-9.10
-5.30
-2.28
-0.13
1.34
2.44
3.41
4.33
5.21
6.00
6.66
7.19
7.61
7.95
8.24
8.53
8.82
9.10
9.34
9.45
9.39
9.17
8.85
8.50
8.19
7.94
7.64
7.19
6.40
5.09
3.17
0.65
-2.28
-5.24
-7.77
-9.42
-9.97
-9.44
-8.12
-6.43
-4.70
-3.13
-1.67
-0.05
2.08
5.11
9.33
14.82
21.37
28.49
35.53
41.88
47.14
51.16
54.01
55.76
56.39
55.75
53.64
49.96
44.83
38.59
31.69
24.47
17.02
9.12
0.31
-9.84
-21.52
-34.45
-47.92
-60.89
-72.24
-81.07
-86.83
-89.40
-89.06
-86.35
-81.96
-76.56
-70.72
-64.80
-58.99
-53.38
-48.00
-42.95
-38.31
-34.15
-30.47
-27.22
-24.32
-21.77
-19.61
-17.92
-16.73
-15.99
-15.58
-15.36
-15.33
-15.62
-16.46
-18.01
-20.22
-22.70
-24.79
-25.69
-24.72
-21.44
-15.87
-8.41
0.17
8.99
17.23
24.38
30.30
35.19
39.45
43.44
47.30
50.88
53.75
55.32
55.05
52.58
47.96
41.65
34.50
27.52
21.61
17.29
14.63
13.31
12.81
12.67
12.59
12.45
12.20
11.81
11.19
10.27
9.00
7.44
5.73
4.07
2.67
1.73
1.40
1.78
2.88
4.60
6.74
9.07
11.35
13.43
15.25
16.91
18.56
20.35
22.30
24.30
26.16
27.58
28.32
28.18
27.03
24.90
22.06
19.03
16.55
15.38
16.01
18.43
22.07
25.98
29.13
30.80
30.68
28.92
25.84
21.79
16.99
11.50
5.36
-1.36
-8.43
-15.54
-22.28
-28.24
-33.03
-36.40
-38.30
-38.87
-38.43
-37.35
-35.92
-34.24
-32.19
-29.54
-26.06
-21.72
-16.66
-11.25
-5.96
-1.26
2.47
4.96
6.09
5.90
4.57
2.42
-0.19
-2.82
-5.10
-6.70
-7.37
-6.97
-5.54
-3.23
-0.34
2.78
5.77
8.42
10.61
12.33
13.63
14.53
15.02
15.08
14.74
14.03
12.99
11.62
9.83
7.46
4.35
0.43
-4.24
-9.40
-14.70
-19.83
-24.56
-28.82
-32.54
-35.52
-37.33
-37.40
-35.21
-30.58
-23.83
-15.75
-7.35
0.46
7.17
12.69
17.27
21.22
24.76
27.91
30.55
32.56
33.92
34.79
35.42
36.00
36.52
36.74
36.29
34.89
32.47
29.23
25.49
21.45
17.17
12.56
7.70
2.95
-1.05
-3.61
-4.32
-3.26
-0.98
1.78
4.39
6.51
8.08
9.20
10.00
10.50
10.68
10.50
9.96
9.14
8.13
7.08
6.12
5.32
4.65
3.99
3.14
1.97
0.46
-1.28
-3.12
-5.00
-6.95
-9.03
-11.17
-13.15
-14.61
-15.25
-15.02
-14.11
-12.98
-12.06
-11.62
-11.64
-11.88
-11.99
-11.70
-10.87
-9.50
-7.67
-5.51
-3.16
-0.76
1.61
3.87
6.00
7.96
9.66
10.91
11.48
11.11
9.63
7.02
3.44
-0.85
-5.41
-9.74
-13.23
-15.34
-15.70
-14.29
-11.52
-8.12
-4.91
-2.53
-1.24
-0.90
-1.14
-1.51
-1.75
-1.80
-1.82
-2.03
-2.63
-3.69
-5.18
-7.03
-9.23
-11.83
-14.91
-18.48
-22.41
-26.47
-30.43
-34.14
-37.55
-40.61
-43.15
-44.86
-45.34
-44.34
-41.89
-38.36
-34.28
-30.16
-26.25
-22.56
-18.95
-15.27
-11.47
-7.59
-3.73
0.07
3.78
7.36
10.70
13.64
15.92
17.34
17.76
17.13
15.57
13.26
10.46
7.51
4.80
2.79
1.91
2.49
4.71
8.41
13.22
18.53
23.68
28.13
31.53
33.79
35.01
35.37
35.09
34.36
33.39
32.43
31.72
31.37
31.29
31.07
30.09
27.74
23.67
18.05
11.53
5.08
-0.45
-4.56
-7.31
-9.16
-10.68
-12.31
-14.19
-16.22
-18.13
-19.65
-20.59
-20.82
-20.23
-18.79
-16.50
-13.41
-9.61
-5.23
-0.38
4.74
9.86
14.61
18.62
21.70
23.97
25.91
28.21
31.60
36.49
42.84
50.03
57.07
62.92
66.81
68.45
68.04
66.06
63.15
59.83
56.42
52.89
48.74
42.99
34.40
22.06
6.04
-12.11
-29.56
-43.06
-50.21
-50.43
-45.13
-37.07
-29.08
-23.09
-19.72
-18.65
-19.23
-21.05
-24.01
-28.01
-32.62
-37.08
-40.51
-42.37
-42.72
-42.18
-41.58
-41.56
-42.19
-43.03
-43.36
-42.50
-40.14
-36.42
-31.86
-27.03
-22.39
-18.12
-14.20
-10.51
-7.04
-3.88
-1.20
0.87
2.26
3.03
3.30
3.17
2.79
2.24
1.63
1.07
0.66
0.44
0.36
0.29
-0.06
-0.98
-2.77
-5.58
-9.24
-13.28
-16.97
-19.49
-20.21
-18.87
-15.67
-11.21
-6.36
-1.97
1.25
2.93
3.09
2.17
0.83
-0.20
-0.43
0.26
1.57
2.89
3.57
3.12
1.39
-1.44
-4.96
-8.70
-12.26
-15.39
-18.01
-20.12
-21.85
-23.44
-25.24
-27.55
-30.52
-33.93
-37.29
-39.92
-41.22
-40.93
-39.26
-36.73
-34.06
-31.84
-30.40
-29.63
-28.97
-27.52
-24.34
-18.69
-10.32
0.47
13.00
26.40
39.90
52.88
64.93
75.76
85.23
93.30
99.90
104.85
107.77
108.26
106.16
101.93
96.78
92.31
89.95
90.38
93.18
97.06
100.40
101.84
100.69
96.96
91.21
84.26
76.94
69.91
63.57
57.93
52.60
46.88
39.97
31.19
20.22
7.21
-7.22
-22.15
-36.56
-49.54
-60.47
-69.14
-75.73
-80.71
-84.67
-88.20
-91.64
-95.06
-98.23
-100.67
-101.83
-101.28
-98.83
-94.65
-89.22
-83.31
-77.70
-73.02
-69.54
-67.02
-64.81
-62.04
-58.00
-52.39
-45.47
-38.02
-30.91
-24.86
-20.12
-16.49
-13.54
-10.84
-8.22
-5.75
-3.58
-1.89
-0.81
-0.48
-1.09
-2.82
-5.70
-9.43
-13.36
-16.66
-18.62
-18.95
-17.88
-16.08
-14.33
-13.26
-13.08
-13.66
-14.62
-15.52
-16.07
-16.16
-15.87
-15.38
-14.84
-14.32
-13.79
-13.20
-12.56
-11.97
-11.58
-11.46
-11.53
-11.58
-11.34
-10.67
-9.61
-8.38
-7.24
-6.37
-5.77
-5.27
-4.61
-3.57
-2.07
-0.18
1.92
4.00
5.91
7.59
9.12
10.61
12.17
13.84
15.53
17.14
18.61
20.05
21.71
23.88
26.75
30.33
34.44
38.77
43.03
47.04
50.77
54.30
57.68
60.86
63.69
65.97
67.56
68.54
69.17
69.79
70.63
71.66
72.50
72.53
71.15
68.01
63.20
57.21
50.69
44.13
37.59
30.60
22.39
12.24
-0.11
-14.17
-28.86
-42.73
-54.56
-63.77
-70.68
-76.36
-82.33
-89.98
-100.03
-112.16
-124.82
-135.61
-141.83
-141.39
-133.68
-120.07
-103.74
-88.67
-78.13
-73.36
-72.94
-73.28
-69.96
-59.40
-40.26
-13.96
15.63
43.39
64.35
75.21
75.13
65.82
50.90
34.72
21.15
12.80
10.76
14.95
24.67
38.87
56.35
75.52
94.37
110.53
121.65
125.92
122.42
111.44
94.33
73.15
50.14
27.30
6.12
-12.41
-27.63
-39.01
-46.18
-49.08
-48.22
-44.82
-40.57
-37.22
-36.07
-37.51
-40.98
-45.23
-48.84
-50.73
-50.47
-48.28
-44.67
-40.17
-35.05
-29.39
-23.19
-16.60
-10.08
-4.24
0.25
2.92
3.62
2.57
0.29
-2.52
-5.10
-6.85
-7.43
-6.81
-5.30
-3.47
-2.02
-1.49
-2.18
-3.98
-6.42
-8.84
-10.62
-11.53
-11.76
-11.89
-12.57
-14.14
-16.42
-18.69
-20.02
-19.67
-17.45
-13.86
-9.95
-7.00
-6.19
-8.22
-13.22
-20.78
-30.05
-39.92
-49.06
-56.04
-59.53
-58.53
-52.74
-42.77
-29.98
-16.17
-3.00
8.40
17.52
24.22
28.37
29.69
27.96
23.38
16.84
9.86
4.10
0.81
0.42
2.49
6.05
10.04
13.65
16.42
18.20
18.96
18.74
17.65
15.90
13.87
12.03
10.82
10.51
11.11
12.31
13.68
14.76
15.29
15.20
14.58
13.53
12.13
10.37
8.32
6.17
4.32
3.20
3.13
4.13
5.82
7.59
8.86
9.26
8.77
7.61
6.07
4.35
2.52
0.54
-1.57
-3.70
-5.69
-7.36
-8.64
-9.59
-10.35
-11.07
-11.83
-12.71
-13.77
-15.13
-16.99
-19.53
-22.81
-26.61
-30.41
-33.39
-34.67
-33.60
-29.99
-24.23
-17.20
-9.93
-3.35
1.99
5.91
8.53
10.12
10.92
11.13
10.94
10.57
10.23
10.06
10.10
10.26
10.41
10.43
10.21
9.70
8.81
7.39
5.28
2.40
-1.25
-5.39
-9.51
-12.92
-14.88
-14.82
-12.57
-8.39
-2.99
2.72
7.92
12.05
14.94
16.72
17.63
17.91
17.70
17.12
16.24
15.19
14.05
12.92
11.81
10.74
9.74
8.83
8.02
7.19
6.11
4.43
1.89
-1.53
-5.51
-9.38
-12.32
-13.59
-12.79
-9.95
-5.57
-0.36
4.91
9.63
13.40
16.05
17.53
17.91
17.25
15.67
13.33
10.45
7.29
4.15
1.28
-1.10
-2.98
-4.44
-5.70
-7.03
-8.68
-10.82
-13.52
-16.69
-20.09
-23.22
-25.43
-26.05
-24.60
-20.99
-15.63
-9.33
-3.05
2.37
6.42
8.98
10.24
10.51
10.11
9.33
8.39
7.50
6.83
6.46
6.37
6.43
6.43
6.18
5.53
4.43
2.88
0.86
-1.67
-4.69
-8.09
-11.50
-14.38
-16.05
-15.95
-13.88
-10.07
-5.19
-0.09
4.44
7.88
10.12
11.29
11.67
11.51
11.02
10.32
9.56
8.85
8.27
7.80
7.32
6.68
5.78
4.65
3.38
2.06
0.69
-0.92
-2.99
-5.73
-9.12
-12.88
-16.43
-19.06
-20.07
-19.03
-15.89
-11.02
-5.15
0.84
6.20
10.42
13.36
15.15
16.10
16.49
16.56
16.43
16.17
15.83
15.40
14.90
14.26
13.40
12.27
10.89
9.38
7.91
6.56
5.28
3.78
1.66
-1.41
-5.47
-10.12
-14.62
-18.04
-19.55
-18.77
-15.77
-11.11
-5.60
-0.07
4.83
8.71
11.50
13.31
14.35
14.86
14.99
14.86
14.60
14.35
14.27
14.45
14.90
15.44
15.77
15.58
14.68
13.06
10.93
8.56
6.20
3.95
1.74
-0.60
-3.26
-6.36
-9.94
-13.88
-17.92
-21.64
-24.46
-25.78
-25.12
-22.26
-17.40
-11.14
-4.31
2.24
7.87
12.25
15.37
17.46
18.84
19.78
20.47
20.97
21.29
21.44
21.44
21.36
21.28
21.22
21.09
20.73
19.96
18.73
17.08
15.17
13.17
11.15
9.11
6.94
4.58
2.04
-0.59
-3.22
-5.81
-8.36
-10.86
-13.15
-14.90
-15.68
-15.11
-13.10
-9.90
-6.04
-2.13
1.38
4.32
6.79
8.99
11.06
12.98
14.63
15.90
16.79
17.40
17.87
18.24
18.47
18.42
17.99
17.15
16.00
14.66
13.20
11.62
9.80
7.64
5.13
2.37
-0.48
-3.25
-5.85
-8.34
-10.90
-13.74
-16.98
-20.57
-24.20
-27.32
-29.28
-29.50
-27.67
-23.88
-18.63
-12.66
-6.73
-1.41
2.98
6.37
8.80
10.37
11.10
11.10
10.54
9.72
9.05
8.82
9.12
9.76
10.34
10.43
9.80
8.46
6.63
4.59
2.57
0.60
-1.41
-3.60
-6.14
-9.09
-12.47
-16.16
-19.91
-23.29
-25.73
-26.68
-25.76
-22.93
-18.51
-13.10
-7.39
-1.96
2.81
6.82
10.07
12.63
14.52
15.79
16.48
16.70
16.60
16.33
15.99
15.59
15.14
14.60
13.93
13.07
11.96
10.54
8.82
6.89
4.87
2.93
1.15
-0.50
-2.19
-4.15
-6.64
-9.84
-13.76
-18.21
-22.74
-26.70
-29.36
-30.02
-28.25
-24.05
-17.93
-10.78
-3.67
2.48
7.18
10.44
12.65
14.32
15.86
17.39
18.83
20.00
20.78
21.16
21.22
21.03
20.62
20.00
19.16
18.11
16.86
15.39
13.66
11.65
9.35
6.81
4.13
1.42
-1.24
-3.83
-6.42
-9.15
-12.21
-15.73
-19.70
-23.83
-27.52
-29.99
-30.52
-28.71
-24.67
-19.01
-12.62
-6.37
-0.82
3.81
7.62
10.78
13.41
15.48
16.88
17.58
17.65
17.33
16.89
16.55
16.28
15.85
14.95
13.33
11.05
8.41
5.83
3.65
1.95
0.54
-0.97
-2.90
-5.47
-8.71
-12.53
-16.69
-20.84
-24.43
-26.81
-27.32
-25.59
-21.64
-16.01
-9.54
-3.16
2.44
6.93
10.30
12.76
14.53
15.79
16.60
17.06
17.28
17.44
17.68
18.05
18.42
18.58
18.30
17.42
15.96
14.03
11.82
9.44
6.99
4.42
1.63
-1.55
-5.28
-9.66
-14.57
-19.64
-24.21
-27.51
-28.83
-27.78
-24.47
-19.43
-13.49
-7.54
-2.26
2.00
5.19
7.49
9.16
10.41
11.40
12.17
12.73
13.07
13.23
13.30
13.31
13.25
13.08
12.74
12.21
11.53
10.75
9.92
9.01
7.94
6.60
4.91
2.86
0.52
-2.00
-4.64
-7.42
-10.50
-14.07
-18.22
-22.84
-27.44
-31.24
-33.30
-32.86
-29.61
-23.88
-16.51
-8.60
-1.16
5.19
10.26
14.23
17.40
20.09
22.49
24.66
26.56
28.09
29.14
29.64
29.60
29.09
28.28
27.34
26.34
25.27
23.97
22.28
20.09
17.43
14.45
11.38
8.46
5.88
3.73
2.01
0.57
-0.86
-2.71
-5.36
-8.96
-13.27
-17.58
-20.93
-22.40
-21.45
-18.23
-13.41
-8.01
-2.96
1.19
4.31
6.59
8.24
9.40
10.04
10.16
9.86
9.42
9.20
9.44
10.12
10.91
11.32
10.96
9.67
7.64
5.31
3.15
1.53
0.49
-0.23
-1.17
-2.95
-6.09
-10.81
-16.92
-23.81
-30.57
-36.19
-39.78
-40.77
-39.01
-34.79
-28.70
-21.46
-13.78
-6.24
0.71
6.72
11.50
14.82
16.65
17.14
16.71
15.93
15.30
15.13
15.36
15.68
15.60
14.75
12.97
10.37
7.29
4.07
0.97
-1.91
-4.61
-7.27
-10.09
-13.26
-16.94
-21.16
-25.75
-30.24
-33.87
-35.82
-35.44
-32.48
-27.26
-20.48
-13.04
-5.74
0.83
6.32
10.59
13.55
15.28
16.01
16.12
16.13
16.45
17.31
18.62
20.11
21.46
22.46
23.08
23.41
23.54
23.46
23.14
22.54
21.75
20.89
19.98
18.77
16.81
13.54
8.62
2.16
-5.32
-13.04
-20.29
-26.62
-31.82
-35.80
-38.30
-39.00
-37.58
-34.07
-28.95
-23.08
-17.40
-12.60
-8.86
-5.90
-3.25
-0.50
2.41
5.22
7.56
9.16
10.01
10.41
10.77
11.43
12.46
13.61
14.46
14.63
13.97
12.59
10.86
9.12
7.63
6.41
5.31
4.11
2.60
0.60
-1.96
-5.05
-8.43
-11.68
-14.17
-15.28
-14.56
-11.99
-8.02
-3.42
0.97
4.53
6.96
8.37
9.08
9.48
9.88
10.44
11.21
12.15
13.22
14.42
15.80
17.38
19.15
20.94
22.55
23.73
24.32
24.29
23.72
22.75
21.47
19.93
18.19
16.37
14.73
13.69
13.75
15.46
19.35
25.77
34.88
46.49
60.11
75.09
90.75
106.53
121.99
136.59
149.56
159.93
166.63
168.69
165.38
156.13
140.43
117.83
88.03
51.16
8.06
-39.52
-88.99
-137.09
-180.12
-214.43
-236.90
-245.55
-240.07
-222.03
-194.67
-162.17
-128.76
-97.87
-71.66
-51.05
-35.94
-25.67
-19.39
-16.22
-15.35
-15.95
-17.22
-18.34
-18.64
-17.67
-15.27
-11.53
-6.66
-0.90
5.61
12.77
20.48
28.53
36.57
44.12
50.70
56.05
60.22
63.60
66.75
70.17
74.12
78.47
82.84
86.72
89.77
91.87
93.27
94.43
95.96
98.39
102.03
106.90
112.74
119.13
125.76
132.50
139.44
146.75
154.49
162.45
170.04
176.22
179.47
178.02
170.11
154.54
131.17
101.09
66.52
30.21
-5.25
-37.94
-66.81
-91.56
-112.45
-130.15
-145.54
-159.62
-173.27
-186.94
-200.41
-212.89
-223.18
-230.03
-232.42
-229.72
-221.69
-208.51
-190.76
-169.50
-146.19
-122.61
-100.47
-81.17
-65.58
-54.02
-46.43
-42.52
-41.92
-44.23
-48.94
-55.50
-63.29
-71.75
-80.47
-89.23
-97.95
-106.55
-114.92
-122.93
-130.50
-137.83
-145.32
-153.50
-162.78
-173.05
-183.53
-192.65
-198.29
-198.19
-190.60
-174.85
-151.60
-122.86
-91.36
-59.90
-30.65
-4.85
17.17
35.56
50.69
62.85
72.29
79.35
84.43
87.98
90.29
91.42
91.22
89.58
86.59
82.62
78.25
74.05
70.35
67.16
64.22
61.16
57.75
54.07
50.57
47.96
47.03
48.30
51.87
57.31
63.77
70.22
75.73
79.63
81.60
81.59
79.72
76.20
71.31
65.45
59.07
52.63
46.45
40.66
35.22
29.99
24.85
19.81
14.98
10.43
6.17
2.07
-2.10
-6.54
-11.41
-16.69
-22.16
-27.28
-31.28
-33.21
-32.30
-28.20
-21.25
-12.43
-3.05
5.61
12.72
18.00
21.57
23.75
24.79
24.85
24.07
22.70
21.18
19.95
19.35
19.40
19.78
20.01
19.66
18.51
16.67
14.48
12.30
10.39
8.73
7.07
5.03
2.23
-1.55
-6.19
-11.21
-15.81
-19.04
-20.05
-18.39
-14.12
-7.91
-0.82
6.00
11.59
15.46
17.58
18.26
17.94
16.97
15.59
14.00
12.41
11.10
10.34
10.22
10.60
11.08
11.18
10.53
9.08
7.02
4.77
2.68
0.88
-0.73
-2.46
-4.65
-7.52
-11.08
-15.04
-18.92
-22.11
-24.02
-24.19
-22.42
-18.84
-13.91
-8.39
-3.06
1.38
4.51
6.25
6.79
6.44
5.48
4.16
2.66
1.16
-0.18
-1.25
-2.09
-2.83
-3.76
-5.11
-7.04
-9.52
-12.39
-15.45
-18.52
-21.46
-24.22
-26.80
-29.19
-31.41
-33.51
-35.46
-37.17
-38.45
-38.96
-38.32
-36.26
-32.73
-28.01
-22.64
-17.29
-12.37
-7.80
-2.97
2.94
10.62
20.25
31.38
43.20
54.80
65.48
74.77
82.31
87.64
90.17
89.33
84.93
77.27
67.19
55.86
44.36
33.46
23.48
14.37
5.89
-2.15
-9.75
-16.63
-22.35
-26.47
-28.73
-29.11
-27.82
-25.13
-21.17
-15.88
-9.10
-0.71
9.19
20.20
31.67
42.90
53.24
62.13
69.02
73.28
74.25
71.44
64.86
55.26
44.01
32.71
22.64
14.32
7.44
1.20
-5.21
-12.17
-19.50
-26.63
-32.95
-38.13
-42.16
-45.22
-47.46
-48.89
-49.44
-49.04
-47.82
-46.13
-44.48
-43.40
-43.21
-43.97
-45.33
-46.65
-47.17
-46.23
-43.55
-39.43
-34.75
-30.83
-29.03
-30.40
-35.24
-43.05
-52.64
-62.48
-71.10
-77.42
-80.83
-81.27
-79.15
-75.32
-70.99
-67.37
-65.25
-64.52
-63.98
-61.70
-55.76
-45.19
-30.49
-13.54
3.11
17.20
27.44
33.71
36.71
37.43
36.75
35.30
33.54
32.01
31.43
32.64
36.34
42.89
52.02
62.91
74.39
85.33
94.88
102.52
107.86
110.42
109.59
104.87
96.24
84.47
71.02
57.60
45.59
35.68
27.80
21.42
15.91
10.79
5.81
0.85
-4.15
-9.26
-14.53
-19.91
-25.28
-30.40
-34.94
-38.58
-41.00
-42.12
-42.12
-41.43
-40.61
-40.08
-39.92
-39.85
-39.39
-38.11
-35.84
-32.74
-29.12
-25.30
-21.44
-17.55
-13.61
-9.69
-6.01
-2.88
-0.62
0.61
0.83
0.22
-0.96
-2.45
-4.12
-6.04
-8.35
-11.26
-14.77
-18.73
-22.73
-26.25
-28.84
-30.19
-30.08
-28.39
-25.03
-20.01
-13.53
-6.12
1.44
8.23
13.54
17.00
18.73
19.15
18.85
18.25
17.52
16.52
14.88
12.26
8.46
3.57
-2.01
-7.65
-12.65
-16.36
-18.35
-18.44
-16.72
-13.53
-9.38
-4.89
-0.63
2.95
5.54
7.07
7.60
7.31
6.44
5.21
3.89
2.76
2.10
2.20
3.26
5.34
8.30
11.81
15.41
18.62
21.13
22.81
23.79
24.31
24.54
24.55
24.24
23.46
22.12
20.25
17.97
15.45
12.80
10.01
7.04
3.84
0.48
-2.93
-6.21
-9.29
-12.15
-14.89
-17.66
-20.59
-23.73
-27.10
-30.58
-34.03
-37.22
-39.90
-41.81
-42.69
-42.27
-40.35
-36.85
-31.92
-25.88
-19.25
-12.58
-6.36
-0.91
3.68
7.45
10.58
13.23
15.53
17.58
19.45
21.23
23.01
24.93
27.02
29.18
31.17
32.64
33.21
32.61
30.73
27.65
23.58
18.87
13.90
9.04
4.58
0.66
-2.73
-5.66
-8.19
-10.30
-11.79
-12.44
-12.07
-10.71
-8.56
-5.99
-3.35
-0.86
1.42
3.54
5.55
7.44
9.12
10.49
11.48
12.14
12.65
13.18
13.84
14.64
15.47
16.17
16.61
16.77
16.75
16.69
16.74
16.92
17.08
16.98
16.36
15.12
13.37
11.42
9.67
8.41
7.72
7.43
7.19
6.63
5.49
3.74
1.53
-0.86
-3.16
-5.17
-6.89
-8.41
-9.91
-11.57
-13.51
-15.77
-18.34
-21.07
-23.76
-26.11
-27.75
-28.35
-27.67
-25.63
-22.33
-18.05
-13.21
-8.32
-3.80
0.01
2.97
5.12
6.60
7.62
8.40
9.12
9.93
10.92
12.09
13.34
14.51
15.46
16.08
16.37
16.33
16.00
15.34
14.35
13.02
11.49
9.95
8.63
7.68
7.12
6.87
6.71
6.43
5.86
4.92
3.61
2.02
0.25
-1.59
-3.41
-5.16
-6.82
-8.42
-10.05
-11.79
-13.66
-15.61
-17.43
-18.83
-19.47
-19.11
-17.68
-15.27
-12.21
-8.91
-5.82
-3.32
-1.61
-0.69
-0.35
-0.23
0.01
0.65
1.79
3.33
5.10
6.91
8.60
10.08
11.32
12.26
12.86
13.04
12.82
12.26
11.46
10.49
9.32
7.82
5.84
3.27
0.16
-3.27
-6.70
-9.82
-12.46
-14.60
-16.35
-17.85
-19.16
-20.19
-20.75
-20.62
-19.61
-17.65
-14.85
-11.46
-7.81
-4.29
-1.21
1.19
2.85
3.85
4.38
4.69
4.96
5.29
5.71
6.15
6.58
6.97
7.33
7.65
7.91
8.04
7.96
7.58
6.86
5.83
4.61
3.34
2.09
0.89
-0.33
-1.68
-3.22
-4.96
-6.88
-8.95
-11.20
-13.64
-16.23
-18.79
-20.91
-22.14
-22.06
-20.49
-17.57
-13.68
-9.32
-4.96
-0.93
2.59
5.53
7.85
9.52
10.56
11.11
11.39
11.67
12.11
12.75
13.45
14.02
14.38
14.57
14.69
14.79
14.78
14.45
13.60
12.21
10.48
8.73
7.26
6.15
5.29
4.46
3.49
2.31
0.99
-0.36
-1.68
-3.01
-4.48
-6.22
-8.34
-10.86
-13.70
-16.66
-19.41
-21.60
-22.87
-22.91
-21.57
-18.89
-15.15
-10.78
-6.36
-2.36
0.88
3.26
4.91
6.11
7.15
8.26
9.51
10.87
12.22
13.43
14.40
15.13
15.65
16.06
16.43
16.81
17.13
17.29
17.18
16.70
15.86
14.72
13.41
12.07
10.76
9.49
8.18
6.74
5.08
3.21
1.15
-1.00
-3.13
-5.17
-7.07
-8.88
-10.69
-12.68
-14.97
-17.63
-20.54
-23.42
-25.87
-27.46
-27.84
-26.84
-24.46
-20.89
-16.54
-11.88
-7.39
-3.48
-0.31
2.17
4.17
5.90
7.52
9.04
10.41
11.61
12.68
13.71
14.77
15.86
16.88
17.68
18.16
18.28
18.09
17.64
16.98
16.12
15.04
13.77
12.42
11.09
9.89
8.88
7.96
6.96
5.72
4.07
2.03
-0.28
-2.63
-4.82
-6.75
-8.45
-10.10
-11.96
-14.19
-16.86
-19.79
-22.64
-24.94
-26.26
-26.30
-24.95
-22.35
-18.80
-14.67
-10.35
-6.19
-2.49
0.54
2.79
4.33
5.32
5.99
6.55
7.10
7.67
8.29
8.96
9.76
10.71
11.73
12.65
13.24
13.31
12.83
11.89
10.68
9.37
8.05
6.70
5.25
3.65
1.90
0.07
-1.75
-3.50
-5.14
-6.72
-8.33
-10.08
-12.06
-14.27
-16.66
-19.03
-21.11
-22.56
-23.01
-22.20
-20.02
-16.62
-12.37
-7.78
-3.40
0.37
3.33
5.47
6.98
8.11
9.09
10.08
11.11
12.15
13.12
13.95
14.64
15.21
15.68
16.07
16.30
16.27
15.91
15.22
14.32
13.35
12.43
11.56
10.61
9.42
7.82
5.80
3.50
1.12
-1.10
-3.02
-4.65
-6.09
-7.54
-9.17
-11.12
-13.44
-16.07
-18.88
-21.65
-24.07
-25.79
-26.46
-25.85
-23.90
-20.77
-16.80
-12.46
-8.22
-4.45
-1.36
1.03
2.84
4.26
5.52
6.77
8.09
9.49
10.93
12.31
13.57
14.63
15.43
15.95
16.18
16.13
15.84
15.37
14.76
14.06
13.26
12.35
11.28
9.96
8.34
6.42
4.26
2.01
-0.15
-2.11
-3.79
-5.24
-6.57
-7.91
-9.45
-11.31
-13.57
-16.22
-19.11
-21.94
-24.27
-25.66
-25.75
-24.35
-21.52
-17.59
-13.01
-8.30
-3.96
-0.37
2.28
3.98
4.94
5.44
5.81
6.29
6.97
7.85
8.82
9.76
10.56
11.14
11.44
11.44
11.13
10.57
9.80
8.91
7.88
6.70
5.34
3.74
1.92
-0.05
-2.08
-4.05
-5.93
-7.77
-9.69
-11.81
-14.20
-16.78
-19.29
-21.35
-22.55
-22.52
-21.10
-18.33
-14.52
-10.15
-5.76
-1.82
1.37
3.73
5.38
6.53
7.40
8.13
8.80
9.45
10.15
10.95
11.93
13.13
14.49
15.83
16.90
17.42
17.23
16.35
15.02
13.56
12.22
11.07
9.96
8.61
6.83
4.58
2.04
-0.53
-2.93
-5.09
-7.12
-9.22
-11.54
-14.14
-16.91
-19.67
-22.18
-24.20
-25.51
-25.92
-25.27
-23.47
-20.58
-16.80
-12.45
-7.84
-3.16
1.61
6.62
12.08
18.08
24.52
31.11
37.47
43.29
48.41
52.88
56.84
60.49
63.92
67.14
70.10
72.69
74.87
76.65
78.10
79.29
80.28
81.09
81.61
81.66
80.98
79.27
76.37
72.34
67.49
62.26
57.01
51.75
46.15
39.60
31.54
21.77
10.58
-1.33
-13.02
-23.64
-32.61
-39.66
-44.81
-48.24
-50.16
-50.78
-50.31
-48.99
-47.10
-44.91
-42.62
-40.36
-38.13
-35.92
-33.76
-31.76
-30.08
-28.79
-27.83
-27.02
-26.24
-25.50
-25.04
-25.22
-26.35
-28.45
-31.31
-34.55
-37.77
-40.75
-43.40
-45.75
-47.81
-49.57
-51.07
-52.42
-53.87
-55.58
-57.57
-59.52
-60.83
-60.78
-58.77
-54.48
-47.97
-39.62
-30.01
-19.79
-9.54
0.24
9.14
16.83
22.98
27.38
29.91
30.66
29.91
28.14
25.91
23.68
21.69
19.90
17.99
15.59
12.40
8.33
3.50
-1.81
-7.26
-12.55
-17.50
-22.06
-26.32
-30.50
-34.87
-39.63
-44.79
-49.96
-54.38
-57.05
-57.02
-53.80
-47.50
-38.86
-28.97
-18.95
-9.66
-1.51
5.43
11.36
16.51
21.06
25.09
28.57
31.48
33.81
35.60
37.01
38.24
39.49
40.84
42.27
43.58
44.52
44.84
44.39
43.22
41.52
39.60
37.75
36.15
34.86
33.79
32.81
31.70
30.23
28.11
25.10
21.15
16.50
11.78
7.87
5.57
5.31
6.92
9.72
12.79
15.36
17.14
18.21
18.96
19.72
20.71
22.02
23.79
26.28
29.87
34.86
41.30
48.79
56.53
63.46
68.61
71.33
71.47
69.25
65.06
59.10
51.24
41.08
28.30
12.99
-4.18
-22.14
-39.77
-56.39
-71.86
-86.42
-100.29
-113.30
-124.81
-133.95
-140.05
-142.92
-143.01
-141.21
-138.57
-135.98
-133.98
-132.74
-132.03
-131.25
-129.51
-125.69
-118.76
-108.07
-93.72
-76.57
-58.13
-40.13
-24.08
-10.95
-1.08
5.67
9.78
11.84
12.53
12.52
12.43
12.73
13.56
14.75
15.81
16.13
15.22
12.86
9.31
5.26
1.68
-0.46
-0.56
1.47
5.15
9.69
14.31
18.46
21.96
24.92
27.53
29.89
31.98
33.65
34.83
35.52
35.89
36.17
36.56
37.12
37.77
38.38
38.77
38.83
38.58
38.10
37.47
36.72
35.81
34.62
33.05
31.03
28.59
25.85
22.95
20.08
17.37
14.87
12.54
10.25
7.78
4.94
1.55
-2.41
-6.79
-11.17
-14.93
-17.46
-18.29
-17.33
-14.79
-11.20
-7.13
-3.04
0.80
4.27
7.39
10.17
12.62
14.74
16.50
17.95
19.14
20.17
21.15
22.17
23.26
24.34
25.26
25.89
26.15
26.04
25.64
25.04
24.24
23.25
22.05
20.68
19.24
17.80
16.36
14.81
13.00
10.86
8.46
6.00
3.69
1.65
-0.20
-2.05
-4.16
-6.77
-9.94
-13.60
-17.48
-21.17
-24.14
-25.81
-25.76
-23.82
-20.22
-15.47
-10.26
-5.18
-0.67
3.11
6.16
8.53
10.29
11.51
12.31
12.87
13.43
14.15
15.10
16.22
17.33
18.21
18.71
18.80
18.51
17.91
17.10
16.10
14.95
13.62
12.12
10.46
8.67
6.83
5.06
3.44
2.05
0.83
-0.40
-1.88
-3.87
-6.52
-9.82
-13.53
-17.23
-20.36
-22.34
-22.73
-21.34
-18.31
-14.13
-9.42
-4.85
-0.91
2.19
4.45
6.08
7.34
8.46
9.61
10.88
12.30
13.82
15.35
16.79
18.01
18.93
19.49
19.63
19.39
18.81
18.04
17.22
16.44
15.71
14.92
13.93
12.65
11.12
9.47
7.89
6.45
5.08
3.60
1.86
-0.18
-2.44
-4.78
-7.13
-9.57
-12.26
-15.29
-18.51
-21.48
-23.61
-24.34
-23.38
-20.81
-17.07
-12.77
-8.48
-4.61
-1.33
1.34
3.49
5.21
6.55
7.57
8.38
9.13
10.00
11.08
12.35
13.60
14.55
14.98
14.85
14.27
13.48
12.71
12.06
11.51
10.90
10.06
8.82
7.12
5.02
2.69
0.37
-1.71
-3.44
-4.86
-6.18
-7.71
-9.72
-12.30
-15.31
-18.35
-20.84
-22.22
-22.10
-20.40
-17.39
-13.56
-9.47
-5.57
-2.12
0.75
3.02
4.73
5.95
6.82
7.53
8.28
9.13
10.02
10.80
11.29
11.38
11.13
10.70
10.24
9.88
9.61
9.35
8.99
8.43
7.56
6.33
4.73
2.86
0.85
-1.09
-2.82
-4.29
-5.56
-6.82
-8.32
-10.28
-12.77
-15.64
-18.53
-20.92
-22.23
-22.04
-20.22
-17.01
-12.97
-8.77
-4.98
-1.87
0.57
2.57
4.35
6.00
7.47
8.63
9.40
9.79
9.95
10.08
10.34
10.77
11.30
11.79
12.09
12.09
11.79
11.23
10.50
9.66
8.69
7.53
6.11
4.40
2.47
0.47
-1.45
-3.19
-4.75
-6.21
-7.63
-9.08
-10.63
-12.34
-14.33
-16.68
-19.34
-22.06
-24.35
-25.67
-25.55
-23.83
-20.66
-16.52
-12.01
-7.67
-3.89
-0.86
1.45
3.18
4.49
5.53
6.38
7.10
7.72
8.31
8.91
9.57
10.31
11.06
11.72
12.18
12.38
12.32
12.09
11.74
11.31
10.77
10.02
8.99
7.65
6.03
4.27
2.52
0.89
-0.55
-1.86
-3.13
-4.47
-5.95
-7.56
-9.28
-11.08
-13.01
-15.18
-17.62
-20.21
-22.62
-24.33
-24.84
-23.85
-21.42
-17.93
-13.95
-10.03
-6.59
-3.81
-1.66
-0.05
1.13
2.02
2.71
3.35
4.04
4.87
5.80
6.70
7.39
7.70
7.60
7.15
6.53
5.86
5.24
4.66
4.08
3.42
2.61
1.62
0.43
-0.97
-2.54
-4.22
-5.95
-7.74
-9.65
-11.80
-14.22
-16.79
-19.16
-20.83
-21.34
-20.43
-18.18
-14.92
-11.12
-7.24
-3.61
-0.41
2.25
4.33
5.81
6.71
7.12
7.17
7.03
6.89
6.85
6.97
7.19
7.43
7.59
7.63
7.55
7.44
7.30
7.08
6.65
5.88
4.71
3.23
1.61
0.05
-1.36
-2.60
-3.77
-4.98
-6.35
-7.98
-9.98
-12.44
-15.32
-18.42
-21.33
-23.49
-24.32
-23.47
-20.94
-17.09
-12.56
-8.01
-4.01
-0.81
1.56
3.21
4.35
5.11
5.62
5.96
6.23
6.56
7.02
7.63
8.34
9.03
9.57
9.90
10.03
10.02
9.95
9.80
9.48
8.84
7.80
6.35
4.62
2.82
1.11
-0.40
-1.77
-3.12
-4.62
-6.45
-8.74
-11.47
-14.50
-17.47
-19.85
-21.16
-21.04
-19.48
-16.75
-13.33
-9.73
-6.36
-3.41
-0.95
1.03
2.60
3.81
4.78
5.61
6.37
7.05
7.59
7.93
8.09
8.16
8.26
8.46
8.75
8.96
8.90
8.45
7.59
6.39
5.00
3.51
1.98
0.43
-1.14
-2.74
-4.43
-6.31
-8.52
-11.11
-13.95
-16.71
-18.87
-19.89
-19.41
-17.39
-14.13
-10.17
-6.10
-2.42
0.64
3.05
4.89
6.26
7.19
7.73
7.93
7.94
7.95
8.12
8.50
9.02
9.51
9.86
9.97
9.84
9.48
8.86
7.94
6.67
5.08
3.29
1.48
-0.27
-1.94
-3.67
-5.66
-8.07
-10.96
-14.23
-17.63
-20.78
-23.22
-24.48
-24.20
-22.25
-18.74
-14.14
-9.11
-4.34
-0.37
2.55
4.51
5.82
6.84
7.83
8.90
10.02
11.10
12.05
12.84
13.50
14.07
14.52
14.80
14.82
14.52
13.88
12.97
11.83
10.52
9.03
7.30
5.35
3.21
1.00
-1.18
-3.32
-5.52
-7.92
-10.63
-13.58
-16.52
-19.05
-20.77
-21.35
-20.66
-18.70
-15.68
-11.93
-7.86
-3.93
-0.52
2.18
4.18
5.67
6.98
8.32
9.84
11.46
13.04
14.41
15.50
16.33
16.96
17.47
17.89
18.19
18.28
18.13
17.73
17.11
16.29
15.22
13.80
11.91
9.55
6.82
3.96
1.24
-1.13
-3.11
-4.84
-6.58
-8.59
-11.02
-13.85
-16.88
-19.79
-22.16
-23.60
-23.80
-22.61
-20.12
-16.61
-12.56
-8.44
-4.68
-1.53
0.94
2.76
4.08
5.08
5.92
6.77
7.67
8.64
9.58
10.39
10.97
11.30
11.39
11.31
11.07
10.67
10.04
9.15
8.01
6.68
5.24
3.74
2.19
0.54
-1.29
-3.39
-5.82
-8.63
-11.76
-15.04
-18.15
-20.65
-22.07
-22.04
-20.45
-17.47
-13.56
-9.30
-5.25
-1.81
0.88
2.87
4.32
5.44
6.38
7.21
8.00
8.80
9.65
10.57
11.52
12.43
13.19
13.74
14.04
14.07
13.82
13.24
12.31
11.01
9.41
7.63
5.79
3.94
2.08
0.20
-1.72
-3.66
-5.62
-7.65
-9.85
-12.31
-15.03
-17.78
-20.16
-21.67
-21.87
-20.56
-17.81
-14.02
-9.74
-5.54
-1.82
1.21
3.58
5.41
6.88
8.11
9.15
10.04
10.75
11.31
11.75
12.09
12.35
12.55
12.71
12.86
12.95
12.89
12.50
11.63
10.22
8.33
6.16
3.95
1.86
-0.02
-1.73
-3.37
-5.07
-6.96
-9.15
-11.73
-14.63
-17.61
-20.22
-21.94
-22.29
-21.08
-18.40
-14.68
-10.49
-6.43
-2.92
-0.21
1.65
2.77
3.32
3.47
3.37
3.13
2.87
2.67
2.64
2.78
3.05
3.28
3.31
3.00
2.31
1.32
0.13
-1.19
-2.68
-4.41
-6.44
-8.72
-11.07
-13.27
-15.16
-16.76
-18.21
-19.69
-21.29
-22.88
-24.10
-24.44
-23.44
-20.74
-16.29
-10.32
-3.34
4.04
11.16
17.57
23.05
27.61
31.45
34.78
37.73
40.37
42.70
44.71
46.42
47.88
49.08
49.92
50.21
49.71
48.16
45.44
41.57
36.78
31.43
25.92
20.59
15.64
11.14
7.06
3.28
-0.33
-3.94
-7.72
-11.85
-16.40
-21.29
-26.28
-30.96
-34.90
-37.68
-39.06
-38.96
-37.52
-35.03
-31.89
-28.51
-25.19
-22.07
-19.14
-16.25
-13.26
-10.11
-6.89
-3.81
-1.08
1.16
2.91
4.34
5.64
6.97
8.40
9.86
11.19
12.20
12.69
12.58
11.88
10.72
9.26
7.69
6.11
4.58
3.12
1.66
0.10
-1.70
-3.95
-6.78
-10.15
-13.79
-17.19
-19.73
-20.90
-20.47
-18.57
-15.64
-12.23
-8.85
-5.82
-3.27
-1.20
0.46
1.80
2.89
3.78
4.51
5.11
5.57
5.90
6.14
6.31
6.44
6.54
6.55
6.45
6.18
5.72
5.11
4.33
3.40
2.27
0.93
-0.63
-2.40
-4.38
-6.58
-9.00
-11.62
-14.27
-16.64
-18.31
-18.84
-17.98
-15.73
-12.37
-8.39
-4.32
-0.59
2.52
4.91
6.68
7.98
9.00
9.85
10.56
11.10
11.44
11.59
11.60
11.59
11.60
11.57
11.39
10.89
9.95
8.61
6.99
5.23
3.43
1.57
-0.39
-2.51
-4.77
-7.13
-9.59
-12.16
-14.92
-17.84
-20.73
-23.23
-24.83
-25.14
-23.96
-21.42
-17.88
-13.85
-9.83
-6.17
-3.06
-0.57
1.38
2.88
4.07
5.05
5.89
6.70
7.56
8.55
9.70
10.90
12.03
12.93
13.51
13.79
13.89
13.87
13.74
13.45
12.88
11.99
10.77
9.25
7.47
5.43
3.22
0.96
-1.20
-3.16
-4.99
-6.89
-9.18
-12.00
-15.18
-18.21
-20.41
-21.17
-20.23
-17.73
-14.14
-10.04
-5.93
-2.12
1.27
4.22
6.71
8.71
10.19
11.15
11.66
11.89
12.03
12.29
12.81
13.61
14.56
15.45
16.04
16.18
15.88
15.30
14.63
14.01
13.41
12.68
11.59
10.06
8.10
5.93
3.77
1.78
-0.02
-1.73
-3.46
-5.26
-7.13
-9.07
-11.15
-13.50
-16.17
-19.02
-21.66
-23.47
-23.89
-22.61
-19.72
-15.72
-11.23
-6.86
-2.95
0.33
3.00
5.08
6.56
7.49
7.95
8.14
8.30
8.65
9.26
10.09
10.98
11.73
12.23
12.39
12.24
11.80
11.11
10.17
8.97
7.51
5.78
3.85
1.82
-0.15
-1.99
-3.70
-5.42
-7.33
-9.59
-12.21
-14.96
-17.50
-19.35
-20.12
-19.58
-17.72
-14.76
-11.07
-7.08
-3.19
0.28
3.14
5.30
6.79
7.69
8.15
8.37
8.55
8.88
9.46
10.27
11.18
12.01
12.59
12.86
12.84
12.60
12.18
11.54
10.55
9.11
7.19
4.89
2.47
0.19
-1.76
-3.36
-4.77
-6.24
-8.06
-10.37
-13.18
-16.31
-19.44
-22.15
-23.98
-24.57
-23.75
-21.56
-18.27
-14.33
-10.21
-6.26
-2.74
0.27
2.77
4.78
6.36
7.59
8.56
9.39
10.20
11.01
11.82
12.59
13.25
13.77
14.12
14.28
14.21
13.90
13.36
12.63
11.79
10.84
9.76
8.53
7.12
5.55
3.92
2.31
0.77
-0.73
-2.31
-4.09
-6.19
-8.65
-11.42
-14.34
-17.12
-19.42
-20.89
-21.24
-20.36
-18.33
-15.36
-11.80
-8.02
-4.39
-1.24
1.25
3.01
4.15
4.87
5.44
6.04
6.74
7.49
8.15
8.62
8.84
8.90
8.92
9.01
9.17
9.29
9.16
8.64
7.64
6.20
4.45
2.51
0.51
-1.47
-3.35
-5.09
-6.71
-8.31
-10.07
-12.14
-14.51
-16.92
-18.91
-19.92
-19.50
-17.53
-14.19
-9.97
-5.50
-1.37
2.02
4.49
6.04
6.88
7.27
7.46
7.67
8.01
8.45
8.89
9.27
9.54
9.75
9.97
10.21
10.35
10.22
9.68
8.69
7.35
5.83
4.23
2.57
0.76
-1.30
-3.55
-5.88
-8.14
-10.29
-12.45
-14.80
-17.43
-20.15
-22.50
-23.88
-23.77
-21.98
-18.67
-14.35
-9.62
-5.05
-1.02
2.31
4.92
6.92
8.38
9.42
10.09
10.48
10.70
10.90
11.19
11.64
12.20
12.69
12.93
12.81
12.34
11.64
10.82
9.95
8.92
7.58
5.86
3.80
1.60
-0.52
-2.42
-4.08
-5.64
-7.25
-9.06
-11.17
-13.60
-16.30
-19.07
-21.53
-23.18
-23.52
-22.24
-19.35
-15.24
-10.51
-5.83
-1.68
1.70
4.32
6.36
8.02
9.48
10.79
11.91
12.78
13.40
13.81
14.14
14.52
15.03
15.60
16.11
16.34
16.15
15.48
14.47
13.31
12.20
11.22
10.32
9.33
8.07
6.47
4.54
2.38
0.11
-2.21
-4.53
-6.80
-8.94
-10.94
-12.85
-14.86
-17.19
-19.89
-22.75
-25.26
-26.78
-26.77
-25.02
-21.73
-17.39
-12.66
-8.08
-4.01
-0.59
2.15
4.25
5.73
6.62
7.03
7.14
7.24
7.57
8.30
9.36
10.54
11.55
12.16
12.30
12.11
11.80
11.55
11.40
11.20
10.68
9.64
7.97
5.81
3.42
1.11
-0.94
-2.68
-4.23
-5.76
-7.41
-9.31
-11.49
-13.94
-16.57
-19.17
-21.39
-22.77
-22.88
-21.47
-18.57
-14.56
-10.00
-5.51
-1.55
1.69
4.23
6.21
7.81
9.12
10.16
10.94
11.48
11.89
12.27
12.71
13.20
13.64
13.93
14.03
13.95
13.72
13.38
12.88
12.16
11.14
9.85
8.35
6.75
5.13
3.50
1.85
0.11
-1.72
-3.59
-5.46
-7.24
-8.92
-10.58
-12.35
-14.43
-16.96
-19.91
-23.04
-25.84
-27.73
-28.20
-26.98
-24.12
-19.95
-15.00
-9.84
-4.95
-0.71
2.72
5.29
7.11
8.35
9.21
9.88
10.51
11.20
12.06
13.12
14.35
15.62
16.75
17.55
17.88
17.76
17.27
16.56
15.75
14.90
14.01
13.07
12.08
11.03
9.93
8.75
7.41
5.84
3.98
1.84
-0.49
-2.87
-5.18
-7.34
-9.31
-11.20
-13.13
-15.27
-17.74
-20.58
-23.61
-26.44
-28.54
-29.40
-28.69
-26.42
-22.87
-18.54
-13.92
-9.37
-5.15
-1.39
1.81
4.36
6.23
7.52
8.41
9.14
9.87
10.65
11.44
12.14
12.69
13.09
13.36
13.53
13.55
13.36
12.90
12.19
11.29
10.29
9.21
7.98
6.49
4.68
2.62
0.47
-1.54
-3.27
-4.74
-6.11
-7.63
-9.45
-11.66
-14.24
-17.11
-20.09
-22.94
-25.24
-26.53
-26.40
-24.66
-21.45
-17.21
-12.53
-7.97
-3.90
-0.45
2.38
4.68
6.46
7.71
8.45
8.74
8.78
8.83
9.07
9.56
10.19
10.76
11.10
11.13
10.94
10.65
10.32
9.92
9.25
8.17
6.61
4.63
2.40
0.10
-2.13
-4.22
-6.17
-8.00
-9.79
-11.71
-13.96
-16.70
-19.88
-23.17
-25.98
-27.62
-27.56
-25.64
-22.13
-17.61
-12.78
-8.23
-4.32
-1.17
1.26
3.12
4.56
5.77
6.89
8.00
9.10
10.14
11.07
11.87
12.56
13.18
13.71
14.05
14.08
13.72
12.98
11.99
10.83
9.57
8.13
6.41
4.38
2.16
-0.01
-1.92
-3.48
-4.86
-6.40
-8.43
-11.17
-14.54
-18.20
-21.61
-24.14
-25.25
-24.64
-22.32
-18.63
-14.13
-9.43
-5.07
-1.34
1.72
4.21
6.32
8.20
9.89
11.35
12.52
13.34
13.84
14.09
14.25
14.39
14.56
14.70
14.73
14.59
14.23
13.63
12.78
11.63
10.17
8.42
6.44
4.38
2.34
0.43
-1.35
-3.07
-4.88
-6.97
-9.53
-12.62
-16.10
-19.56
-22.37
-23.83
-23.42
-21.04
-17.06
-12.22
-7.32
-2.98
0.56
3.33
5.53
7.32
8.71
9.69
10.23
10.49
10.72
11.19
12.04
13.20
14.45
15.53
16.30
16.72
16.82
16.66
16.23
15.47
14.35
12.86
11.07
9.05
6.77
4.16
1.09
-2.49
-6.47
-10.50
-14.11
-16.75
-18.03
-17.75
-16.02
-13.21
-9.80
-6.25
-2.90
0.11
2.75
5.05
7.00
8.53
9.57
10.11
10.24
10.16
10.12
10.31
10.79
11.46
12.10
12.47
12.40
11.77
10.62
9.00
7.01
4.74
2.30
-0.21
-2.72
-5.24
-7.87
-10.72
-13.81
-17.05
-20.11
-22.57
-23.97
-24.02
-22.61
-19.93
-16.36
-12.39
-8.53
-5.20
-2.67
-1.08
-0.40
-0.50
-1.17
-2.09
-2.98
-3.59
-3.75
-3.44
-2.70
-1.67
-0.48
0.72
1.73
2.37
2.50
2.07
1.21
0.14
-0.93
-1.94
-2.99
-4.34
-6.23
-8.77
-11.89
-15.34
-18.78
-21.75
-23.80
-24.49
-23.50
-20.74
-16.47
-11.24
-5.81
-0.86
3.18
6.23
8.50
10.33
11.97
13.46
14.71
15.53
15.84
15.72
15.41
15.17
15.17
15.42
15.74
15.85
15.52
14.65
13.30
11.68
9.98
8.31
6.66
4.93
3.06
1.03
-1.08
-3.20
-5.31
-7.49
-9.83
-12.29
-14.60
-16.29
-16.83
-15.89
-13.48
-10.01
-6.05
-2.11
1.56
4.99
8.31
11.58
14.57
16.88
18.12
18.12
17.08
15.46
13.80
12.45
11.52
10.85
10.22
9.44
8.47
7.34
6.11
4.79
3.36
1.75
-0.03
-2.00
-4.13
-6.47
-9.07
-11.96
-15.02
-17.98
-20.37
-21.69
-21.50
-19.62
-16.17
-11.58
-6.49
-1.58
2.56
5.63
7.60
8.72
9.37
9.94
10.65
11.54
12.48
13.29
13.83
14.10
14.20
14.26
14.36
14.48
14.51
14.31
13.77
12.84
11.55
9.93
8.04
5.94
3.74
1.54
-0.56
-2.54
-4.50
-6.62
-9.12
-12.11
-15.52
-19.06
-22.23
-24.43
-25.16
-24.10
-21.28
-17.06
-12.04
-6.89
-2.17
1.83
5.03
7.59
9.66
11.37
12.76
13.80
14.51
14.97
15.37
15.91
16.67
17.63
18.59
19.28
19.52
19.19
18.39
17.29
16.07
14.84
13.56
12.12
10.37
8.22
5.74
3.11
0.58
-1.68
-3.61
-5.35
-7.10
-9.09
-11.47
-14.25
-17.29
-20.34
-23.03
-24.92
-25.62
-24.85
-22.56
-18.98
-14.56
-9.87
-5.47
-1.71
1.26
3.50
5.18
6.47
7.47
8.21
8.72
9.03
9.27
9.59
10.09
10.78
11.52
12.13
12.45
12.36
11.86
10.98
9.77
8.25
6.47
4.50
2.45
0.40
-1.64
-3.76
-6.07
-8.55
-10.99
-13.00
-14.09
-13.86
-12.15
-9.07
-4.86
0.14
5.64
11.34
16.95
22.09
26.40
29.70
32.06
33.90
35.84
38.44
41.98
46.37
51.19
55.86
59.91
63.19
65.91
68.59
71.89
76.32
82.02
88.44
94.42
98.35
98.68
94.47
85.79
73.68
59.72
45.57
32.55
21.47
12.73
6.34
2.15
-0.08
-0.65
0.33
3.12
8.14
15.79
26.22
39.13
54.04
70.65
88.71
108.02
127.88
146.70
161.92
170.61
169.98
158.23
135.09
101.82
61.77
20.10
-17.20
-44.97
-60.36
-64.00
-59.30
-50.84
-43.51
-40.19
-41.55
-46.91
-55.59
-67.22
-82.29
-100.49
-120.07
-140.04
-159.02
-175.61
-188.85
-198.73
-205.46
-210.90
-216.14
-220.84
-226.51
-233.92
-242.91
-253.24
-265.53
-279.99
-298.38
-320.64
-344.82
-372.60
-406.15
-446.47
-491.64
-536.40
-571.73
-591.59
-592.80
-552.57
-463.51
-335.26
-190.46
-52.18
55.80
138.40
201.88
248.70
278.63
288.49
277.99
252.77
223.41
201.89
199.38
219.54
260.78
316.32
371.38
409.54
417.98
391.68
334.94
261.06
184.97
120.86
77.97
55.92
49.31
51.82
58.68
67.29
77.00
85.69
91.67
93.63
89.15
78.46
64.88
52.88
46.19
46.89
54.27
67.38
84.83
103.18
120.26
135.64
148.81
158.47
162.70
152.90
124.54
89.73
57.46
31.25
15.65
13.35
24.34
45.97
73.83
103.92
132.51
154.97
169.01
175.50
176.90
176.18
175.62
175.80
176.09
174.26
166.17
148.90
121.84
85.63
41.81
-7.28
-58.35
-106.42
-145.87
-172.59
-184.23
-181.14
-167.00
-147.56
-128.58
-113.93
-104.56
-99.16
-95.93
-93.20
-90.00
-86.27
-82.41
-78.69
-75.06
-71.12
-66.59
-61.68
-56.99
-53.13
-50.58
-49.41
-49.29
-49.77
-50.50
-51.47
-52.97
-55.30
-58.48
-62.05
-65.12
-66.68
-65.96
-62.73
-57.47
-51.19
-45.12
-40.29
-37.18
-35.67
-35.11
-34.69
-33.74
-31.97
-29.46
-26.46
-23.26
-20.01
-16.78
-13.63
-10.77
-8.52
-7.17
-6.81
-7.21
-7.96
-8.68
-9.30
-10.13
-11.71
-14.47
-18.43
-22.97
-27.04
-29.43
-29.21
-26.14
-20.71
-14.01
-7.30
-1.61
2.61
5.51
7.74
10.08
13.09
16.97
21.45
25.99
29.98
32.87
34.27
34.04
32.18
28.96
24.82
20.40
16.38
13.27
11.22
9.84
8.29
5.64
1.34
-4.33
-10.09
-13.97
-13.97
-8.78
1.63
15.99
32.16
47.72
60.76
70.15
75.64
77.66
76.99
74.55
71.20
67.71
64.67
62.43
61.06
60.38
59.93
59.08
57.14
53.50
47.76
39.97
30.65
20.75
11.34
3.24
-3.19
-8.14
-12.17
-15.89
-19.74
-23.82
-27.96
-31.80
-34.94
-37.04
-37.90
-37.56
-36.33
-34.81
-33.78
-33.95
-35.77
-39.26
-44.00
-49.29
-54.37
-58.61
-61.60
-63.29
-63.84
-63.61
-62.97
-62.24
-61.63
-61.22
-60.98
-60.85
-60.83
-60.91
-61.18
-61.75
-62.65
-63.74
-64.58
-64.49
-62.67
-58.46
-51.65
-42.66
-32.46
-22.31
-13.39
-6.37
-1.36
2.07
4.57
6.73
8.94
11.33
13.87
16.52
19.17
21.74
24.14
26.28
28.13
29.78
31.38
33.05
34.71
35.95
36.08
34.27
29.81
22.45
12.51
1.06
-10.30
-19.66
-25.38
-26.47
-22.96
-15.91
-7.07
1.67
8.87
13.90
16.98
18.85
20.34
21.98
23.87
25.73
27.18
27.92
27.85
27.06
25.70
23.92
21.84
19.56
17.21
14.88
12.58
10.23
7.56
4.22
-0.10
-5.55
-11.96
-18.74
-24.91
-29.33
-31.02
-29.45
-24.80
-17.94
-10.14
-2.72
3.36
7.65
10.20
11.35
11.56
11.21
10.58
9.88
9.28
8.89
8.73
8.69
8.51
7.88
6.50
4.32
1.52
-1.49
-4.23
-6.37
-7.86
-9.00
-10.32
-12.39
-15.51
-19.54
-23.82
-27.32
-28.91
-27.80
-23.82
-17.54
-10.01
-2.44
4.22
9.50
13.43
16.28
18.42
20.06
21.33
22.24
22.84
23.15
23.25
23.19
23.00
22.67
22.16
21.42
20.37
18.98
17.29
15.37
13.33
11.24
9.17
7.12
5.08
3.04
0.98
-1.14
-3.45
-6.10
-9.25
-12.96
-17.08
-21.22
-24.69
-26.67
-26.42
-23.54
-18.16
-11.01
-3.18
4.17
10.21
14.63
17.56
19.43
20.60
21.26
21.42
21.00
20.05
18.79
17.49
16.42
15.66
15.11
14.53
13.67
12.42
10.80
8.94
6.97
4.95
2.81
0.41
-2.39
-5.68
-9.35
-13.16
-16.76
-19.86
-22.33
-24.34
-26.32
-28.76
-32.14
-36.61
-41.96
-47.53
-52.36
-55.35
-55.55
-52.48
-46.24
-37.60
-27.81
-18.20
-9.85
-3.32
1.35
4.52
6.65
8.09
9.04
9.61
9.89
10.08
10.44
11.17
12.36
13.82
15.18
15.97
15.80
14.56
12.42
9.81
7.20
4.92
3.09
1.53
-0.07
-2.04
-4.63
-7.93
-11.84
-16.08
-20.25
-23.80
-26.06
-26.40
-24.32
-19.72
-12.96
-4.94
3.19
10.32
15.76
19.34
21.38
22.47
23.18
23.85
24.54
25.15
25.51
25.48
25.03
24.16
22.91
21.37
19.64
17.87
16.19
14.64
13.15
11.55
9.62
7.23
4.37
1.23
-1.97
-5.03
-7.94
-10.85
-14.06
-17.90
-22.56
-27.96
-33.66
-38.80
-42.28
-43.01
-40.35
-34.38
-25.95
-16.45
-7.28
0.55
6.62
11.09
14.40
17.01
19.22
21.23
23.17
25.17
27.33
29.60
31.82
33.72
35.08
35.87
36.22
36.39
36.61
37.00
37.50
37.89
37.94
37.43
36.30
34.66
32.73
30.78
29.01
27.52
26.24
25.01
23.61
21.91
19.86
17.47
14.83
12.02
9.13
6.18
3.19
0.09
-3.18
-6.71
-10.55
-14.66
-18.93
-23.17
-27.31
-31.36
-35.58
-40.33
-45.87
-52.14
-58.58
-64.13
-67.49
-67.52
-63.72
-56.38
-46.58
-35.80
-25.52
-16.74
-9.88
-4.85
-1.27
1.28
3.10
4.43
5.48
6.48
7.71
9.37
11.47
13.81
16.04
17.82
18.98
19.59
19.91
20.23
20.68
21.20
21.54
21.46
20.77
19.47
17.72
15.72
13.69
11.79
10.06
8.44
6.78
4.89
2.63
0.04
-2.74
-5.47
-7.96
-10.21
-12.41
-14.91
-18.06
-21.95
-26.35
-30.69
-34.10
-35.68
-34.70
-30.84
-24.32
-15.86
-6.53
2.57
10.55
16.90
21.49
24.51
26.26
27.06
27.18
26.86
26.32
25.76
25.35
25.14
25.09
25.06
24.86
24.37
23.53
22.44
21.22
20.04
18.96
18.00
17.06
16.06
14.93
13.66
12.29
10.82
9.24
7.45
5.32
2.76
-0.27
-3.62
-7.05
-10.29
-13.13
-15.58
-17.82
-20.24
-23.20
-26.97
-31.55
-36.63
-41.63
-45.76
-48.19
-48.24
-45.55
-40.23
-32.84
-24.28
-15.60
-7.73
-1.29
3.52
6.84
9.08
10.75
12.24
13.81
15.53
17.35
19.18
20.94
22.59
24.13
25.53
26.76
27.75
28.46
28.87
29.01
28.92
28.63
28.12
27.30
26.08
24.42
22.29
19.73
16.77
13.47
9.84
5.93
1.86
-2.22
-6.13
-9.75
-13.12
-16.41
-19.91
-23.87
-28.43
-33.42
-38.38
-42.57
-45.17
-45.39
-42.80
-37.32
-29.40
-19.84
-9.71
-0.10
8.10
14.39
18.70
21.36
22.90
23.83
24.48
24.98
25.27
25.35
25.23
25.05
24.91
24.82
24.68
24.33
23.68
22.71
21.50
20.16
18.76
17.23
15.47
13.31
10.58
7.18
3.09
-1.56
-6.56
-11.59
-16.38
-20.78
-24.76
-28.51
-32.30
-36.49
-41.37
-47.09
-53.48
-60.02
-65.74
-69.41
-69.91
-66.49
-59.24
-49.02
-37.32
-25.78
-15.74
-7.92
-2.39
1.22
3.53
5.07
6.24
7.25
8.21
9.20
10.27
11.44
12.62
13.68
14.41
14.66
14.36
13.55
12.30
10.68
8.70
6.33
3.59
0.54
-2.67
-5.87
-8.97
-12.07
-15.38
-19.23
-23.85
-29.28
-35.16
-40.79
-45.14
-47.16
-46.02
-41.40
-33.65
-23.71
-12.90
-2.58
6.19
12.87
17.52
20.58
22.69
24.40
26.00
27.49
28.70
29.46
29.75
29.67
29.41
29.07
28.62
27.91
26.70
24.77
21.99
18.35
13.92
8.83
3.29
-2.52
-8.45
-14.45
-20.57
-26.97
-33.85
-41.28
-49.08
-56.67
-63.05
-66.98
-67.24
-63.07
-54.47
-42.29
-28.12
-13.76
-0.80
9.76
17.70
23.36
27.35
30.27
32.47
34.11
35.23
35.95
36.46
37.00
37.75
38.73
39.81
40.77
41.36
41.40
40.81
39.65
38.07
36.28
34.40
32.40
30.04
26.96
22.78
17.20
10.08
1.47
-8.43
-19.14
-29.84
-39.35
-46.23
-49.13
-47.32
-40.93
-31.10
-19.57
-8.16
1.77
9.58
15.30
19.41
22.48
24.99
27.28
29.47
31.63
33.69
35.58
37.19
38.49
39.40
39.81
39.51
38.22
35.70
31.84
26.77
20.80
14.29
7.58
0.87
-5.75
-12.31
-18.91
-25.75
-33.07
-41.04
-49.56
-58.07
-65.45
-70.29
-71.27
-67.64
-59.59
-48.25
-35.38
-22.78
-11.86
-3.28
3.01
7.54
10.99
13.93
16.68
19.34
21.91
24.30
26.43
28.22
29.57
30.42
30.73
30.52
29.90
29.00
27.92
26.68
25.20
23.29
20.79
17.61
13.85
9.75
5.55
1.36
-2.92
-7.58
-12.93
-19.04
-25.61
-31.88
-36.78
-39.24
-38.54
-34.59
-27.92
-19.57
-10.73
-2.47
4.57
10.20
14.55
17.98
20.82
23.29
25.52
27.52
29.32
30.96
32.53
34.10
35.65
37.09
38.27
39.04
39.38
39.41
39.29
39.19
39.14
39.00
38.51
37.40
35.50
32.77
29.36
25.52
21.57
17.78
14.28
11.04
7.85
4.46
0.66
-3.62
-8.21
-12.86
-17.30
-21.40
-25.21
-29.00
-33.12
-37.91
-43.55
-49.91
-56.52
-62.58
-67.11
-69.16
-68.05
-63.54
-55.96
-46.08
-34.99
-23.80
-13.46
-4.54
2.77
8.60
13.26
17.10
20.41
23.40
26.19
28.83
31.32
33.64
35.73
37.53
39.03
40.20
41.02
41.48
41.55
41.23
40.53
39.45
37.98
36.12
33.86
31.27
28.41
25.41
22.31
19.10
15.66
11.84
7.49
2.58
-2.79
-8.33
-13.69
-18.60
-23.02
-27.22
-31.72
-37.05
-43.50
-50.86
-58.38
-64.83
-68.85
-69.26
-65.46
-57.69
-46.99
-34.94
-23.23
-13.21
-5.57
-0.31
3.09
5.27
6.77
7.88
8.69
9.28
9.72
10.16
10.63
11.05
11.25
11.02
10.30
9.13
7.70
6.17
4.59
2.88
0.87
-1.53
-4.28
-7.21
-10.12
-12.88
-15.55
-18.31
-21.40
-24.93
-28.86
-32.88
-36.46
-38.92
-39.59
-37.91
-33.70
-27.24
-19.25
-10.78
-2.89
3.64
8.44
11.61
13.53
14.68
15.41
15.88
16.07
15.93
15.47
14.82
14.19
13.75
13.56
13.48
13.29
12.68
11.46
9.55
7.06
4.19
1.15
-1.88
-4.79
-7.55
-10.18
-12.72
-15.20
-17.74
-20.45
-23.43
-26.60
-29.69
-32.18
-33.41
-32.74
-29.80
-24.61
-17.64
-9.66
-1.54
5.95
12.31
17.37
21.23
24.17
26.54
28.68
30.83
33.10
35.48
37.81
39.88
41.44
42.35
42.56
42.18
41.44
40.58
39.74
38.92
37.93
36.47
34.30
31.31
27.60
23.45
19.16
14.94
10.77
6.39
1.42
-4.60
-11.99
-20.74
-30.42
-40.04
-48.23
-53.52
-54.83
-51.87
-45.33
-36.67
-27.63
-19.68
-13.58
-9.38
-6.57
-4.50
-2.63
-0.72
1.17
2.88
4.18
4.90
5.00
4.50
3.46
1.97
0.09
-2.17
-4.78
-7.66
-10.59
-13.28
-15.45
-16.97
-17.93
-18.67
-19.64
-21.26
-23.82
-27.33
-31.58
-36.15
-40.43
-43.69
-45.13
-44.09
-40.16
-33.47
-24.67
-14.86
-5.30
3.02
9.57
14.39
17.91
20.70
23.16
25.44
27.45
29.05
30.21
31.01
31.64
32.22
32.69
32.83
32.35
31.04
28.82
25.84
22.34
18.61
14.87
11.29
7.90
4.65
1.38
-2.16
-6.19
-10.92
-16.36
-22.25
-28.00
-32.71
-35.39
-35.20
-31.81
-25.52
-17.21
-8.08
0.69
8.28
14.32
18.89
22.35
25.10
27.44
29.53
31.36
32.83
33.79
34.17
33.97
33.32
32.39
31.34
30.29
29.28
28.23
27.02
25.49
23.47
20.79
17.45
13.55
9.40
5.31
1.54
-1.90
-5.29
-9.10
-13.84
-19.75
-26.67
-33.90
-40.31
-44.59
-45.56
-42.57
-35.70
-25.82
-14.39
-3.03
6.95
14.85
20.66
24.85
28.02
30.68
32.99
34.92
36.35
37.25
37.69
37.83
37.80
37.61
37.12
36.15
34.53
32.21
29.32
26.08
22.75
19.47
16.21
12.79
8.96
4.52
-0.53
-5.98
-11.45
-16.56
-21.02
-24.81
-28.10
-31.27
-34.71
-38.80
-43.79
-49.75
-56.44
-63.24
-69.15
-72.97
-73.55
-70.25
-63.15
-53.19
-41.86
-30.80
-21.30
-13.94
-8.63
-4.79
-1.72
1.12
4.02
6.98
9.93
12.79
15.53
18.11
20.47
22.49
24.00
24.84
24.92
24.26
22.96
21.17
19.07
16.78
14.36
11.76
8.87
5.61
1.87
-2.40
-7.25
-12.67
-18.53
-24.35
-29.32
-32.33
-32.35
-28.77
-21.79
-12.44
-2.29
7.09
14.58
19.84
23.20
25.34
26.89
28.16
29.10
29.49
29.19
28.27
27.02
25.80
24.83
24.08
23.26
21.96
19.88
16.93
13.33
9.44
5.67
2.22
-0.93
-4.04
-7.39
-11.27
-15.81
-21.10
-27.18
-33.92
-40.97
-47.56
-52.53
-54.58
-52.78
-46.95
-37.85
-27.02
-16.25
-6.97
0.10
5.10
8.71
11.73
14.71
17.79
20.75
23.23
24.97
25.94
26.33
26.35
26.20
25.93
25.48
24.79
23.84
22.66
21.29
19.71
17.87
15.71
13.23
10.49
7.53
4.36
0.82
-3.43
-8.75
-15.33
-22.92
-30.69
-37.26
-41.08
-40.90
-36.26
-27.76
-16.86
-5.39
5.03
13.46
19.70
24.12
27.32
29.72
31.55
32.76
33.24
32.93
31.88
30.27
28.36
26.33
24.24
21.97
19.29
15.93
11.79
6.95
1.69
-3.67
-8.88
-13.88
-18.76
-23.72
-28.99
-34.73
-40.99
-47.58
-54.00
-59.34
-62.47
-62.30
-58.17
-50.22
-39.41
-27.28
-15.44
-5.09
3.24
9.65
14.51
18.14
20.66
22.03
22.27
21.68
20.79
20.21
20.31
21.06
21.99
22.44
21.81
19.83
16.65
12.78
8.80
5.21
2.15
-0.56
-3.39
-6.91
-11.62
-17.73
-25.04
-32.83
-39.92
-44.89
-46.43
-43.83
-37.22
-27.62
-16.63
-5.89
3.44
10.89
16.67
21.25
25.07
28.23
30.65
32.24
33.12
33.70
34.51
35.90
37.86
39.98
41.62
42.17
41.41
39.55
37.10
34.61
32.29
29.95
26.94
22.49
15.98
7.13
-3.80
-16.03
-28.26
-38.84
-46.02
-48.39
-45.37
-37.41
-25.95
-12.94
-0.18
11.20
20.99
29.66
37.97
46.39
54.80
62.45
68.17
70.83
69.70
64.73
56.55
46.24
34.89
23.33
11.87
0.57
-10.57
-21.31
-31.22
-39.85
-47.08
-53.29
-59.27
-65.87
-73.63
-82.47
-91.70
-100.27
-107.12
-111.48
-113.02
-111.77
-107.99
-102.04
-94.26
-84.97
-74.51
-63.25
-51.58
-39.93
-28.71
-18.28
-8.99
-1.14
5.06
9.58
12.57
14.42
15.64
16.64
17.60
18.43
18.82
18.43
17.11
15.02
12.51
9.97
7.63
5.43
3.01
-0.05
-4.05
-9.09
-14.91
-21.06
-26.83
-31.41
-33.95
-33.75
-30.42
-24.09
-15.53
-5.92
3.38
11.26
17.15
21.06
23.45
24.91
25.93
26.77
27.48
28.00
28.33
28.47
28.47
28.34
27.98
27.19
25.80
23.71
21.05
18.10
15.22
12.70
10.60
8.66
6.40
3.24
-1.34
-7.48
-14.88
-22.69
-29.66
-34.45
-35.98
-33.77
-28.12
-20.03
-10.87
-1.99
5.66
11.65
16.06
19.29
21.78
23.86
25.63
27.04
27.98
28.40
28.38
28.13
27.83
27.61
27.38
26.92
25.96
24.28
21.86
18.86
15.56
12.23
9.04
6.00
2.93
-0.42
-4.38
-9.20
-14.99
-21.57
-28.44
-34.69
-39.16
-40.75
-38.78
-33.23
-24.84
-14.85
-4.59
4.87
12.98
19.64
25.03
29.36
32.81
35.51
37.61
39.28
40.62
41.72
42.56
43.09
43.32
43.29
43.06
42.70
42.21
41.61
40.89
40.09
39.26
38.39
37.38
36.06
34.27
31.96
29.24
26.36
23.61
21.22
19.21
17.35
15.32
12.75
9.43
5.38
0.82
-3.91
-8.51
-12.82
-16.90
-20.96
-25.33
-30.37
-36.34
-43.37
-51.23
-59.21
-66.20
-70.74
-71.53
-67.83
-59.82
-48.60
-35.90
-23.53
-12.90
-4.66
1.20
5.19
7.91
9.91
11.54
12.99
14.35
15.62
16.75
17.61
18.04
17.88
17.03
15.53
13.53
11.26
9.01
6.94
5.08
3.25
1.18
-1.38
-4.47
-7.82
-10.98
-13.50
-15.14
-16.04
-16.68
-17.75
-19.82
-23.15
-27.54
-32.28
-36.34
-38.56
-37.96
-34.04
-27.01
-17.76
-7.65
1.91
9.85
15.69
19.55
21.94
23.43
24.44
25.16
25.60
25.70
25.46
24.92
24.19
23.38
22.59
21.82
20.99
19.94
18.50
16.54
14.03
11.08
7.86
4.53
1.21
-2.06
-5.35
-8.75
-12.46
-16.68
-21.59
-27.19
-33.19
-38.88
-43.20
-45.06
-43.68
-38.91
-31.36
-22.18
-12.75
-4.22
2.71
7.87
11.49
13.99
15.79
17.23
18.50
19.73
20.95
22.13
23.15
23.88
24.15
23.88
23.12
22.02
20.88
19.93
19.26
18.76
18.11
16.93
14.95
12.06
8.44
4.45
0.49
-3.10
-6.15
-8.72
-11.08
-13.66
-16.93
-21.27
-26.73
-32.88
-38.76
-43.08
-44.51
-42.24
-36.18
-27.16
-16.60
-6.10
3.05
10.17
15.25
18.69
21.06
22.80
24.17
25.24
26.06
26.69
27.22
27.74
28.25
28.64
28.76
28.48
27.81
26.86
25.79
24.70
23.55
22.20
20.51
18.45
16.13
13.75
11.43
9.13
6.64
3.70
0.16
-3.97
-8.51
-13.23
-18.03
-22.90
-27.93
-33.25
-38.92
-44.97
-51.37
-57.95
-64.28
-69.61
-72.89
-73.10
-69.61
-62.49
-52.60
-41.31
-30.11
-20.19
-12.13
-6.00
-1.47
1.91
4.55
6.78
8.79
10.71
12.62
14.48
16.22
17.73
18.95
19.85
20.49
20.91
21.15
21.20
20.98
20.40
19.39
17.91
15.99
13.65
10.95
7.91
4.54
0.87
-3.12
-7.42
-12.04
-16.87
-21.55
-25.48
-27.82
-27.78
-24.95
-19.48
-12.20
-4.31
2.99
8.85
13.04
15.82
17.73
19.30
20.80
22.19
23.30
23.98
24.27
24.39
24.63
25.20
26.07
27.03
27.81
28.18
28.08
27.62
26.95
26.21
25.42
24.55
23.50
22.22
20.67
18.85
16.79
14.58
12.29
9.97
7.62
5.21
2.71
0.11
-2.56
-5.26
-7.97
-10.73
-13.56
-16.44
-19.31
-22.08
-24.78
-27.56
-30.69
-34.37
-38.62
-43.14
-47.28
-50.25
-51.25
-49.73
-45.54
-38.99
-30.75
-21.78
-13.04
-5.35
0.81
5.37
8.60
10.95
12.83
14.48
15.99
17.30
18.40
19.29
20.05
20.76
21.38
21.83
21.94
21.61
20.81
19.59
18.06
16.30
14.34
12.16
9.74
7.08
4.16
1.01
-2.37
-5.92
-9.58
-13.22
-16.74
-20.07
-23.27
-26.53
-30.09
-34.15
-38.78
-43.77
-48.67
-52.76
-55.25
-55.42
-52.77
-47.17
-38.96
-28.91
-18.09
-7.69
1.29
8.24
13.00
15.86
17.36
18.10
18.61
19.23
20.16
21.47
23.14
25.05
26.97
28.56
29.52
29.65
28.94
27.61
25.91
24.07
22.12
19.95
17.43
14.49
11.24
7.91
4.75
1.84
-0.93
-3.84
-7.18
-11.13
-15.63
-20.42
-25.00
-28.79
-31.19
-31.71
-30.08
-26.38
-21.05
-14.77
-8.33
-2.42
2.57
6.54
9.66
12.24
14.56
16.77
18.88
20.79
22.38
23.56
24.31
24.68
24.73
24.51
24.03
23.27
22.23
20.91
19.35
17.53
15.44
13.03
10.28
7.27
4.13
1.00
-2.04
-5.00
-8.02
-11.30
-15.01
-19.23
-23.82
-28.43
-32.50
-35.37
-36.41
-35.21
-31.68
-26.19
-19.44
-12.33
-5.69
-0.06
4.40
7.84
10.59
12.94
15.04
16.88
18.38
19.51
20.35
21.06
21.74
22.38
22.86
22.96
22.55
21.60
20.23
18.64
16.94
15.16
13.17
10.80
7.89
4.39
0.42
-3.78
-7.95
-11.91
-15.63
-19.23
-22.98
-27.13
-31.86
-37.13
-42.67
-47.93
-52.19
-54.65
-54.65
-51.88
-46.50
-39.19
-30.98
-23.00
-16.13
-10.81
-7.01
-4.35
-2.36
-0.69
0.79
2.05
3.08
3.93
4.80
5.90
7.34
9.04
10.75
12.18
13.10
13.44
13.21
12.48
11.27
9.58
7.43
4.87
2.03
-0.96
-4.02
-7.16
-10.51
-14.21
-18.36
-22.86
-27.31
-30.99
-33.02
-32.61
-29.36
-23.46
-15.68
-7.13
1.07
8.10
13.64
17.72
20.66
22.83
24.52
25.90
27.07
28.04
28.84
29.51
30.07
30.52
30.83
30.88
30.58
29.89
28.84
27.54
26.13
24.66
23.10
21.34
19.22
16.62
13.51
9.99
6.22
2.37
-1.44
-5.22
-9.13
-13.39
-18.18
-23.46
-28.88
-33.78
-37.33
-38.77
-37.61
-33.84
-27.92
-20.65
-13.02
-5.89
0.14
4.86
8.46
11.34
13.93
16.55
19.24
