1530626659.00
64.000000
-0.00
-0.00
-0.00
-0.00
-0.00
-0.00
-0.00
-0.00
-0.00
-0.00
0.00
0.01
0.01
-0.00
-0.03
-0.05
-0.05
0.00
0.13
0.36
0.66
1.01
1.37
1.72
2.06
2.40
2.79
3.24
3.80
4.42
5.06
5.66
6.20
6.68
7.15
7.68
8.31
9.14
10.09
11.04
11.88
12.56
13.14
13.76
14.65
15.96
17.91
20.32
22.90
25.38
27.58
29.57
31.68
34.32
37.81
42.54
48.15
54.10
59.83
64.97
69.58
74.14
79.34
85.71
93.76
103.00
112.62
121.73
129.77
136.75
143.30
150.75
157.77
166.64
177.95
191.79
206.97
220.57
228.25
225.36
208.53
176.87
132.76
80.05
23.07
-34.94
-92.44
-149.16
-205.23
-260.37
-313.74
-363.87
-409.83
-450.91
-486.50
-515.74
-537.23
-549.22
-549.96
-538.37
-514.21
-478.67
-433.88
-382.45
-327.02
-269.84
-212.63
-156.66
-102.95
-52.37
-5.90
35.58
71.43
101.35
125.50
144.38
158.69
169.15
176.37
180.75
182.57
182.07
179.51
175.23
169.65
163.18
156.15
148.81
141.30
133.69
126.02
118.33
110.69
103.16
95.80
88.68
81.83
75.25
68.95
62.95
57.25
51.86
46.78
42.03
37.59
33.45
29.61
26.07
22.81
19.83
17.11
14.67
12.48
10.54
8.83
7.35
6.07
4.97
4.05
3.27
2.62
2.09
1.65
1.30
1.01
0.79
0.61
0.47
0.37
0.28
0.22
0.18
0.15
0.12
0.11
0.11
0.11
0.12
0.14
0.16
0.19
0.22
0.26
0.29
0.34
0.38
0.42
0.47
0.53
0.59
0.66
0.73
0.82
0.91
1.01
1.12
1.24
1.37
1.51
1.65
1.81
1.98
2.17
2.37
2.60
2.84
3.12
3.43
3.77
4.14
4.56
5.01
5.51
6.05
6.63
7.26
7.94
8.67
9.46
10.29
11.19
12.15
13.17
14.24
15.39
16.60
17.91
19.29
20.76
22.30
23.88
25.47
27.01
28.40
29.54
30.33
30.64
30.40
29.52
28.01
25.89
23.25
20.17
16.81
13.29
9.73
6.24
2.86
-0.36
-3.45
-6.48
-9.56
-12.84
-16.45
-20.51
-24.97
-29.71
-34.46
-38.88
-42.60
-45.35
-46.94
-47.37
-46.74
-45.20
-42.91
-39.99
-36.65
-33.05
-29.49
-26.25
-23.74
-22.18
-21.57
-21.58
-21.63
-21.03
-19.18
-15.88
-11.25
-6.03
-0.95
3.50
7.32
10.95
15.09
20.26
26.47
33.15
38.91
42.43
43.10
41.24
37.80
34.17
31.88
31.74
33.53
35.57
36.00
33.37
27.17
17.79
6.73
-3.89
-12.32
-14.44
-9.06
3.08
19.62
37.26
52.30
63.10
71.42
82.23
101.64
133.41
177.29
228.31
278.09
315.96
335.29
336.19
324.59
308.21
292.17
277.78
263.66
247.27
223.14
189.81
150.95
113.12
81.18
55.45
32.83
9.51
-18.32
-59.00
-115.67
-184.06
-254.98
-320.33
-377.36
-427.94
-475.19
-523.38
-583.96
-662.92
-757.34
-856.83
-949.48
-1026.01
-1079.61
-1104.43
-1042.60
-872.57
-621.56
-350.68
-113.08
69.11
198.90
283.34
342.84
388.18
415.52
422.68
415.42
406.67
409.92
432.01
473.18
529.65
592.07
642.74
667.21
659.64
623.87
569.34
506.48
444.34
389.87
344.92
304.28
263.15
220.59
179.77
144.61
116.68
94.82
76.60
58.40
35.50
5.41
-31.49
-72.72
-115.73
-159.11
-202.30
-244.90
-286.81
-328.39
-369.54
-409.62
-447.96
-484.72
-521.49
-560.79
-604.36
-651.68
-698.33
-736.62
-757.78
-755.45
-728.35
-680.81
-620.89
-557.11
-495.38
-437.87
-383.92
-331.92
-280.85
-230.73
-181.88
-134.03
-86.09
-36.83
14.06
65.40
114.76
159.15
196.40
225.94
248.80
267.05
282.73
296.94
309.49
319.36
325.56
328.12
328.53
329.41
333.52
342.70
357.07
375.17
394.55
412.98
429.34
443.97
458.40
474.78
495.29
521.42
553.12
587.97
620.80
644.50
651.88
638.14
602.89
550.47
488.14
423.14
360.16
300.48
243.18
187.36
133.83
85.63
46.84
20.75
8.24
7.48
14.64
25.11
34.71
40.23
39.81
32.84
19.52
0.46
-23.32
-50.29
-78.34
-105.00
-128.61
-148.10
-163.46
-176.01
-188.21
-202.51
-220.05
-239.68
-258.09
-272.55
-280.64
-281.47
-276.59
-269.80
-265.67
-267.46
-276.02
-289.94
-308.42
-328.89
-347.08
-358.27
-359.55
-351.71
-339.95
-332.57
-337.57
-361.21
-400.89
-445.02
-478.11
-488.30
-472.51
-436.81
-392.65
-331.91
-256.59
-176.05
-102.13
-43.05
-1.93
21.41
29.36
26.53
17.20
5.95
-3.10
-7.20
-5.78
-0.81
4.81
9.38
13.95
21.48
33.24
50.25
72.85
99.93
128.89
156.76
181.78
204.25
226.05
248.27
271.91
297.93
326.85
358.18
389.90
418.19
437.65
442.42
427.45
391.12
336.41
269.77
198.65
129.05
64.59
7.33
-40.27
-74.33
-89.97
-83.68
-56.26
-14.10
32.21
71.51
96.10
103.99
98.59
85.90
71.23
57.21
43.60
28.75
11.44
-8.22
-28.99
-49.39
-68.70
-86.99
-104.69
-121.65
-136.64
-147.43
-151.67
-148.05
-137.17
-121.75
-105.80
-93.39
-87.29
-88.11
-94.17
-101.94
-107.07
-105.60
-95.29
-76.51
-52.24
-27.17
-5.91
8.76
16.78
20.33
22.19
23.95
25.10
23.35
16.24
2.80
-15.18
-33.03
-44.20
-42.33
-23.52
11.82
58.54
108.38
152.84
186.51
208.90
224.48
239.89
260.10
285.31
310.16
325.77
323.45
298.64
252.67
192.64
127.95
66.44
11.87
-36.25
-80.95
-125.81
-172.84
-222.12
-270.89
-315.05
-349.88
-370.80
-374.13
-358.00
-323.82
-275.22
-217.86
-155.80
-92.24
-29.80
28.76
80.35
122.48
153.61
175.61
192.39
211.10
237.65
274.21
318.42
364.68
406.92
439.82
462.10
458.08
419.15
346.78
254.08
159.28
76.86
18.86
-20.93
-51.65
-82.76
-119.50
-164.22
-216.35
-271.80
-324.84
-369.94
-404.83
-429.21
-445.67
-456.48
-464.46
-473.19
-487.24
-510.93
-545.72
-588.86
-631.57
-662.98
-673.08
-657.45
-618.90
-565.76
-507.63
-450.99
-397.62
-344.52
-287.54
-223.76
-153.33
-78.86
-3.93
68.69
137.96
204.08
268.23
331.54
394.86
458.74
523.21
586.92
646.48
696.50
730.62
743.68
733.49
701.62
652.69
592.58
526.46
457.71
387.98
318.34
250.50
187.24
131.74
86.29
51.14
24.24
2.51
-16.25
-31.55
-39.41
-33.79
-9.28
35.73
97.17
165.53
228.75
276.02
301.10
303.86
289.43
265.74
240.56
219.17
203.16
190.80
178.49
162.45
140.08
110.61
74.90
34.99
-6.34
-45.94
-80.99
-109.84
-132.81
-152.20
-171.42
-193.34
-218.55
-244.69
-267.12
-280.73
-281.53
-267.67
-239.58
-199.97
-154.10
-110.04
-78.14
-68.73
-88.40
-136.48
-204.14
-277.09
-340.96
-386.65
-412.69
-423.59
-425.28
-420.58
-407.22
-379.73
-333.38
-267.73
-187.73
-101.77
-18.06
58.52
127.23
190.01
248.53
301.91
346.56
377.76
392.29
390.25
375.19
352.32
326.24
299.16
270.57
238.50
201.32
159.43
115.60
74.10
38.78
11.51
-8.56
-24.27
-38.86
-54.17
-69.55
-82.27
-88.95
-87.46
-78.17
-63.86
-48.47
-35.46
-26.71
-22.29
-21.18
-22.11
-24.06
-26.33
-28.21
-28.79
-27.06
-22.33
-14.54
-4.42
6.80
17.92
28.09
36.87
44.09
49.50
52.64
53.07
50.62
45.61
38.87
31.43
24.11
17.28
10.75
4.09
-3.06
-10.71
-18.44
-25.68
-31.88
-36.81
-40.41
-42.71
-43.65
-43.03
-40.71
-36.74
-31.49
-25.63
-19.86
-14.73
-10.53
-7.24
-4.63
-2.44
-0.40
1.60
3.48
5.02
5.86
5.69
4.40
2.08
-1.04
-4.75
-8.97
-13.74
-18.97
-24.39
-29.44
-33.51
-36.24
-37.79
-38.83
-40.21
-42.42
-45.21
-47.64
-48.57
-47.27
-43.97
-39.70
-35.79
-33.13
-31.65
-30.46
-28.35
-24.58
-19.27
-13.49
-8.58
-5.59
-4.87
-6.03
-8.37
-11.23
-14.21
-16.96
-18.94
-19.18
-16.41
-9.55
1.80
16.99
34.53
52.46
68.60
80.69
86.56
84.45
73.60
54.83
30.42
3.46
-23.36
-48.91
-74.12
-101.03
-131.36
-165.38
-201.77
-238.78
-274.83
-308.72
-338.95
-362.80
-376.23
-374.85
-355.68
-318.79
-268.08
-209.01
-146.58
-84.17
-24.19
30.39
74.80
103.07
110.20
93.97
58.32
12.43
-33.27
-71.91
-102.98
-131.87
-165.92
-209.21
-261.06
-312.76
-350.66
-362.01
-340.76
-290.55
-223.54
-155.73
-100.93
-68.23
-56.51
-56.45
-56.07
-47.00
-27.76
-2.74
21.48
55.85
102.69
157.34
210.46
253.27
280.21
289.33
282.16
263.66
240.59
216.74
194.96
176.09
159.06
141.55
121.60
99.47
78.35
62.88
53.70
50.30
48.64
41.79
22.16
-15.30
-70.51
-137.70
-207.10
-268.91
-314.16
-336.46
-333.21
-306.13
-260.59
-203.73
-142.22
-80.34
-19.48
39.75
97.38
153.37
206.69
255.58
298.52
335.30
367.03
395.17
420.60
443.11
461.44
473.89
479.46
478.69
473.74
467.51
462.35
459.36
458.36
458.27
457.09
451.86
438.59
412.67
370.04
308.85
230.79
141.13
46.88
-45.85
-133.89
-217.32
-297.98
-376.34
-449.91
-513.54
-561.48
-591.03
-604.93
-611.28
-620.73
-642.42
-679.81
-729.07
-780.36
-820.35
-837.00
-823.29
-778.78
-708.80
-622.41
-528.39
-433.89
-343.97
-259.91
-181.91
-110.93
-49.26
0.70
36.64
60.70
76.98
89.49
104.99
128.46
161.30
201.03
242.92
279.86
310.89
337.38
361.02
389.59
430.15
485.37
551.86
621.69
681.82
728.44
761.81
783.92
806.19
840.56
893.99
966.18
1051.29
1136.60
1219.71
1300.09
1320.91
1237.53
1033.96
736.46
401.48
122.36
-87.87
-235.20
-331.28
-390.07
-424.48
-440.63
-444.71
-443.84
-444.89
-457.74
-479.69
-504.83
-528.74
-542.69
-539.05
-515.27
-474.15
-423.05
-374.98
-334.22
-301.45
-276.26
-253.39
-226.28
-191.02
-146.74
-96.25
-50.51
-16.62
1.38
3.55
-3.92
-9.36
-8.43
-1.60
7.10
10.93
5.96
-7.68
-26.95
-46.67
-61.84
-70.14
-70.98
-65.24
-54.68
-39.75
-20.76
0.65
20.93
35.52
40.11
33.50
17.90
-2.16
-21.42
-36.01
-44.88
-49.79
-54.32
-62.91
-79.34
-106.44
-145.68
-196.02
-252.93
-308.56
-353.27
-378.56
-379.96
-358.43
-319.95
-273.32
-227.22
-187.97
-158.69
-139.77
-129.89
-126.83
-127.96
-130.38
-131.18
-127.92
-119.11
-104.47
-84.87
-62.08
-38.46
-16.49
1.61
14.53
22.29
26.56
30.19
36.54
48.38
66.92
91.47
119.69
148.52
175.37
198.81
218.64
235.46
249.95
262.29
272.21
279.21
282.85
283.00
279.74
273.07
262.86
248.92
231.23
210.34
187.38
163.80
140.87
119.34
99.30
80.41
62.42
45.42
30.04
17.16
7.47
1.06
-2.66
-4.89
-7.04
-10.20
-14.78
-20.27
-25.38
-28.47
-28.10
-23.56
-15.13
-3.97
8.12
19.29
27.95
33.06
34.28
32.07
27.68
23.13
20.83
23.09
31.44
46.10
65.77
87.92
109.39
127.25
139.44
144.99
144.09
137.84
128.08
117.24
108.17
103.73
106.03
115.66
131.21
149.49
166.57
179.05
185.09
184.67
179.08
170.03
158.91
146.61
133.79
121.19
109.68
99.89
91.87
84.78
77.14
67.50
54.96
39.54
21.96
3.30
-15.61
-34.42
-53.42
-73.41
-95.40
-120.32
-148.42
-178.90
-209.64
-237.48
-258.94
-271.32
-273.56
-266.48
-252.50
-234.62
-215.59
-197.29
-180.74
-166.38
-154.48
-145.27
-138.89
-135.21
-133.62
-133.13
-132.55
-130.93
-127.83
-123.55
-119.00
-115.24
-113.02
-112.42
-112.72
-112.82
-111.70
-108.89
-104.66
-99.75
-94.98
-90.92
-87.68
-84.96
-82.25
-78.91
-74.37
-68.18
-60.09
-50.15
-38.83
-27.03
-16.00
-7.09
-1.43
0.43
-1.37
-6.06
-12.50
-19.63
-26.74
-33.57
-40.22
-46.82
-53.30
-59.37
-64.69
-69.05
-72.62
-75.78
-78.82
-81.60
-83.44
-83.29
-80.27
-74.15
-65.57
-56.01
-47.20
-40.62
-37.03
-36.51
-38.62
-42.75
-48.17
-53.99
-59.05
-61.97
-61.54
-57.16
-49.14
-38.74
-27.59
-17.14
-8.14
-0.58
6.18
12.95
20.41
29.16
39.59
51.83
65.62
80.20
94.17
105.94
114.08
117.81
117.23
113.10
106.52
98.47
89.63
80.41
71.06
61.80
52.82
44.18
35.83
27.56
19.15
10.42
1.31
-8.10
-17.50
-26.38
-33.96
-39.37
-41.79
-40.82
-36.63
-29.90
-21.62
-12.67
-3.58
5.49
14.65
23.95
33.16
41.69
48.74
53.55
55.87
56.03
54.88
53.42
52.43
52.30
53.02
54.48
56.68
59.71
63.66
68.44
73.74
79.14
84.36
89.22
93.53
96.83
98.43
97.68
94.52
90.01
86.13
85.27
89.15
98.12
110.90
125.19
138.75
150.34
160.00
168.61
177.07
185.49
193.11
198.60
200.71
198.72
192.57
182.60
169.47
154.03
137.22
119.95
102.67
85.08
66.01
43.85
16.99
-15.62
-54.15
-98.10
-146.52
-198.35
-252.69
-308.78
-365.50
-420.69
-470.64
-510.52
-535.79
-544.06
-536.49
-517.40
-492.30
-465.14
-436.42
-403.47
-362.59
-311.95
-253.30
-191.80
-133.66
-83.50
-42.56
-8.58
22.67
54.90
89.70
125.88
160.09
188.36
207.89
218.17
221.18
220.48
219.42
219.94
221.81
222.94
220.28
211.03
193.45
167.30
133.48
93.17
47.93
-0.15
-48.11
-92.07
-127.62
-150.81
-159.31
-153.39
-137.06
-115.71
-94.48
-76.65
-63.10
-52.75
-43.25
-32.11
-17.34
-0.31
16.85
31.59
41.18
42.72
33.20
10.41
-26.02
-74.05
-133.08
-200.24
-271.06
-339.97
-401.64
-452.26
-489.84
-513.67
-523.95
-525.89
-523.42
-518.42
-510.37
-497.93
-480.90
-460.85
-440.40
-394.55
-312.71
-198.99
-71.91
46.58
141.86
209.57
252.59
276.96
288.95
287.28
273.94
251.67
224.77
198.08
175.37
158.69
148.58
144.76
143.28
140.88
135.99
129.54
123.82
120.85
121.63
126.13
133.67
141.13
146.44
148.83
149.40
150.19
153.07
159.03
168.21
180.10
192.80
204.91
215.74
225.64
235.71
247.26
261.50
279.31
300.83
324.71
348.49
368.86
382.54
387.16
381.90
367.51
345.99
319.82
291.34
262.25
233.48
205.16
176.84
147.57
116.38
82.67
46.70
9.73
-26.30
-59.44
-88.53
-113.47
-135.12
-154.84
-173.90
-193.15
-212.78
-232.24
-250.15
-264.32
-272.01
-270.66
-258.83
-237.11
-208.37
-177.29
-148.92
-127.22
-113.85
-108.02
-107.22
-108.58
-109.92
-110.32
-109.82
-108.76
-107.21
-104.89
-101.51
-97.30
-93.09
-90.08
-89.21
-90.50
-92.86
-94.31
-92.50
-85.55
-72.63
-54.45
-33.38
-13.23
1.59
7.21
1.62
-14.49
-37.64
-62.40
-82.82
-94.01
-93.27
-80.67
-58.92
-32.57
-6.74
14.32
28.49
36.10
39.29
40.39
40.38
38.32
32.23
21.04
6.20
-7.99
-15.78
-12.42
3.94
31.58
66.35
103.45
138.95
170.45
196.76
217.40
232.29
241.81
246.99
249.40
250.75
252.09
253.33
253.17
249.59
240.85
226.67
208.91
191.64
180.13
179.25
191.70
216.92
251.03
287.73
319.96
341.58
348.60
339.65
315.83
279.80
234.81
183.67
128.14
68.69
4.84
-63.80
-136.02
-207.56
-270.86
-316.68
-337.24
-329.83
-298.65
-253.75
-207.14
-167.98
-139.43
-118.76
-100.35
-79.75
-56.38
-33.41
-15.54
-5.98
-4.80
-8.84
-13.48
-14.58
-9.65
1.74
18.76
40.12
64.70
91.70
120.69
150.98
181.21
209.12
231.62
245.40
247.79
237.71
216.47
188.54
160.34
138.42
127.07
126.40
131.93
136.17
131.34
112.08
78.38
34.21
-14.55
-62.83
-107.97
-149.75
-189.45
-228.60
-268.66
-307.95
-344.11
-374.76
-397.98
-412.33
-416.32
-408.37
-387.48
-354.90
-309.73
-252.58
-185.65
-112.65
-38.06
34.09
101.16
161.93
215.06
265.80
320.12
383.03
456.53
539.67
630.15
726.02
825.85
900.44
924.47
878.97
761.86
590.12
392.83
199.44
31.74
-91.34
-177.41
-233.79
-267.21
-283.07
-287.67
-287.45
-288.28
-294.20
-307.13
-329.03
-355.52
-381.55
-403.25
-421.21
-439.30
-462.70
-495.05
-536.72
-585.03
-629.88
-659.55
-653.14
-600.67
-507.62
-393.62
-282.67
-192.45
-129.84
-90.00
-63.84
-43.29
-25.83
-12.05
-3.36
1.27
4.50
8.93
17.22
30.40
47.86
66.49
83.20
96.45
107.07
117.75
130.36
146.93
168.24
194.26
224.06
257.28
294.25
334.93
377.22
416.12
445.13
457.71
450.90
426.35
389.84
348.56
307.87
269.44
231.73
192.36
148.76
100.50
48.81
-4.33
-57.26
-109.06
-159.22
-206.99
-250.93
-291.08
-327.88
-362.31
-395.30
-427.34
-458.19
-486.93
-511.99
-520.52
-502.83
-454.88
-380.94
-291.94
-200.31
-115.38
-41.59
20.59
72.98
116.19
150.32
175.24
191.05
198.48
198.61
192.56
182.02
169.94
159.21
153.02
153.68
161.56
174.54
188.50
198.89
202.55
198.85
188.57
173.87
157.38
141.53
128.38
119.63
116.41
118.92
125.86
134.03
139.39
138.47
129.51
112.98
91.23
67.38
44.39
24.48
8.91
-1.84
-7.95
-10.22
-9.95
-8.51
-6.89
-5.46
-3.84
-1.34
2.59
8.02
14.45
20.97
26.54
30.30
31.85
31.58
30.79
31.55
36.07
45.89
61.00
79.65
98.77
115.01
125.99
130.89
130.52
126.60
120.92
114.82
109.02
103.90
99.72
96.81
95.34
95.19
95.85
96.45
96.09
94.18
90.61
85.73
80.16
74.54
69.22
64.22
59.29
54.10
48.37
42.07
35.37
28.60
22.05
15.89
10.16
4.72
-0.63
-6.15
-12.04
-18.43
-25.38
-32.86
-40.78
-49.03
-57.50
-66.17
-75.13
-84.54
-94.56
-105.28
-116.59
-128.23
-139.80
-151.00
-161.68
-171.97
-182.15
-192.51
-203.32
-214.76
-227.12
-240.70
-255.70
-271.71
-287.58
-301.45
-311.32
-315.80
-314.53
-308.23
-298.08
-285.18
-270.10
-253.13
-234.62
-215.44
-196.87
-180.09
-165.65
-153.16
-141.55
-129.65
-116.84
-103.36
-90.14
-78.26
-68.45
-60.78
-54.76
-49.61
-44.83
-40.34
-36.55
-34.00
-32.97
-33.24
-34.19
-35.10
-35.59
-35.78
-36.24
-37.57
-40.06
-43.48
-47.12
-50.10
-51.53
-50.80
-47.60
-41.97
-34.20
-24.89
-14.89
-5.10
3.65
10.76
16.01
19.45
21.37
22.19
22.38
22.38
22.57
23.19
24.32
25.88
27.73
29.75
31.88
34.08
36.31
38.46
40.33
41.70
42.49
42.78
42.82
42.89
43.24
43.91
44.81
45.74
46.47
46.76
46.30
44.69
41.48
36.60
30.61
24.80
20.94
20.54
24.04
30.46
37.65
43.23
45.62
44.67
41.49
37.77
34.80
32.92
31.55
29.88
27.30
23.90
20.14
16.56
13.31
10.09
6.31
1.51
-4.35
-10.87
-17.34
-23.12
-27.82
-31.38
-34.18
-36.65
-39.13
-41.75
-44.52
-47.32
-50.03
-52.47
-54.24
-54.71
-53.13
-48.93
-42.07
-33.20
-23.60
-14.74
-8.03
-4.48
-4.69
-8.73
-16.14
-25.69
-35.48
-43.12
-46.35
-43.79
-35.45
-22.79
-8.36
4.93
14.61
19.22
18.55
13.57
6.12
-1.66
-7.87
-11.47
-12.52
-12.14
-11.94
-13.53
-17.87
-25.01
-34.08
-43.56
-51.63
-56.64
-57.49
-53.90
-46.54
-36.80
-26.37
-16.75
-8.82
-2.69
2.11
6.34
10.65
15.35
20.37
25.46
30.22
34.36
37.73
40.30
42.10
43.19
43.67
43.71
43.49
43.24
43.12
43.14
43.06
42.48
40.93
38.13
34.16
29.37
24.28
19.34
14.69
10.16
5.40
0.01
-6.28
-13.50
-21.45
-29.51
-36.70
-41.74
-43.43
-41.05
-34.91
-26.50
-18.07
-11.86
-9.20
-9.87
-12.21
-13.90
-13.11
-9.44
-4.23
-0.04
0.55
-3.89
-12.81
-23.89
-33.89
-39.92
-40.48
-35.94
-28.43
-21.19
-17.80
-21.11
-32.19
-49.52
-68.61
-82.56
-83.78
-66.43
-29.02
24.22
84.11
139.04
178.72
197.04
193.19
170.82
135.78
93.84
49.57
6.15
-34.17
-69.70
-99.50
-123.68
-143.46
-160.50
-175.90
-189.37
-199.30
-203.70
-201.66
-194.41
-185.37
-178.97
-178.74
-185.63
-197.36
-209.27
-216.34
-215.27
-205.84
-190.67
-173.64
-157.89
-144.34
-131.46
-116.38
-96.27
-69.64
-36.76
0.72
40.68
81.19
121.11
159.88
197.47
234.42
271.92
311.81
355.78
404.09
454.18
500.63
536.38
555.43
555.28
538.07
509.53
476.40
443.82
413.94
386.42
359.98
333.77
307.70
281.82
255.34
226.46
193.03
153.71
108.95
60.90
12.73
-32.82
-74.53
-112.91
-149.91
-188.00
-229.36
-275.26
-325.53
-378.23
-429.61
-474.35
-506.55
-521.26
-515.98
-491.52
-451.84
-402.87
-350.87
-301.20
-257.72
-222.62
-196.69
-179.31
-168.54
-161.21
-153.48
-141.41
-121.73
-92.65
-54.55
-10.34
34.90
75.34
106.48
127.07
139.53
148.62
158.61
170.66
182.00
187.60
183.01
167.06
142.42
113.98
86.08
60.52
36.40
11.49
-15.63
-44.42
-72.66
-97.63
-117.55
-132.01
-141.61
-147.13
-149.11
-147.76
-143.41
-136.87
-129.46
-122.61
-117.28
-113.55
-110.49
-106.48
-99.62
-88.31
-71.56
-49.10
-21.30
11.33
48.27
89.06
132.82
177.79
221.08
259.09
288.42
306.83
313.74
310.02
297.33
277.57
252.70
224.94
196.95
171.58
150.97
135.66
124.01
112.85
98.74
79.47
54.98
27.21
-0.76
-25.86
-45.92
-59.87
-67.50
-69.08
-65.16
-56.61
-44.71
-30.94
-16.73
-3.03
9.77
21.61
32.16
40.53
45.40
45.48
40.45
31.34
20.54
11.06
5.59
5.57
10.81
19.67
29.54
37.74
42.17
41.87
37.04
28.89
19.04
8.87
-0.88
-10.41
-20.54
-32.19
-45.64
-60.00
-73.18
-82.37
-85.00
-79.75
-67.25
-49.97
-31.47
-15.32
-3.93
1.94
3.09
1.36
-1.15
-2.54
-1.32
3.46
12.28
25.16
41.61
60.56
80.34
98.62
112.59
119.38
116.87
104.43
83.46
57.35
30.60
7.52
-9.03
-18.46
-22.40
-23.76
-25.64
-30.31
-38.61
-49.86
-62.18
-72.98
-79.53
-79.63
-72.13
-57.27
-36.76
-13.46
9.28
28.35
41.65
48.44
49.36
46.01
40.55
35.07
31.27
30.15
31.96
36.20
41.70
47.00
50.70
51.89
50.41
46.83
42.02
36.77
31.34
25.51
18.75
10.67
1.27
-9.01
-19.55
-29.83
-39.69
-49.36
-59.20
-69.24
-78.84
-86.49
-90.08
-87.64
-78.07
-61.88
-41.16
-18.99
1.61
18.74
32.12
42.87
52.72
62.98
73.81
84.15
92.20
96.17
95.06
89.04
79.32
67.62
55.59
44.40
34.63
26.43
19.75
14.35
9.69
4.80
-1.63
-10.84
-23.47
-39.10
-56.28
-72.89
-86.96
-97.37
-104.28
-109.06
-113.76
-120.25
-129.35
-140.32
-150.89
-157.95
-158.72
-151.92
-138.35
-120.74
-102.82
-88.02
-78.41
-74.33
-74.62
-77.35
-80.56
-82.74
-83.06
-81.26
-77.60
-72.64
-67.15
-61.88
-57.24
-53.05
-48.44
-42.06
-32.56
-19.04
-1.35
19.99
43.98
69.33
94.55
117.89
137.47
151.58
159.12
159.87
154.36
143.39
127.51
106.94
82.09
54.34
26.48
2.59
-13.08
-17.57
-10.33
6.47
28.59
51.15
70.03
82.90
89.44
90.87
89.01
85.53
81.34
76.62
71.19
64.96
58.13
51.22
44.61
38.25
31.52
23.46
13.19
0.33
-14.76
-31.04
-47.02
-61.29
-72.75
-80.86
-85.74
-88.06
-88.83
-89.11
-89.64
-90.35
-90.31
-87.75
-80.62
-67.32
-47.32
-21.55
7.79
37.64
64.97
87.43
103.85
114.40
120.28
123.23
124.85
126.15
127.33
127.82
126.65
122.94
116.33
107.05
95.90
83.84
71.61
59.63
48.02
36.75
26.01
16.17
7.60
0.55
-5.16
-10.07
-14.82
-19.96
-25.72
-32.03
-38.75
-45.77
-52.86
-59.52
-64.79
-67.30
-65.58
-58.64
-46.45
-30.11
-11.66
6.60
22.75
35.70
45.29
52.01
56.51
59.34
60.77
60.91
59.93
58.22
56.33
54.90
54.34
54.68
55.50
56.10
55.73
53.90
50.57
46.15
41.31
36.63
32.35
28.24
23.72
18.11
11.02
2.57
-6.58
-15.44
-23.04
-28.77
-32.56
-34.95
-36.82
-39.18
-42.82
-48.12
-54.72
-61.54
-66.85
-68.64
-65.23
-55.86
-41.04
-22.56
-3.04
14.82
28.96
38.42
43.37
44.78
43.97
42.06
39.86
37.74
35.83
34.17
32.78
31.65
30.61
29.39
27.58
24.94
21.49
17.55
13.57
9.88
6.55
3.23
-0.53
-5.14
-10.63
-16.68
-22.65
-27.96
-32.28
-35.75
-39.03
-43.05
-48.73
-56.42
-65.51
-74.23
-79.97
-79.92
-71.97
-55.44
-31.24
-1.60
30.70
62.68
91.33
113.71
127.28
130.69
124.58
111.76
96.31
81.91
70.29
60.58
50.07
35.93
16.87
-6.11
-30.06
-51.42
-67.17
-75.56
-76.27
-70.08
-58.74
-44.64
-30.49
-18.72
-11.08
-8.29
-9.99
-15.07
-22.01
-29.39
-36.26
-42.09
-46.74
-50.03
-51.43
-49.89
-44.11
-32.96
-15.97
6.34
32.52
60.36
87.33
110.83
128.67
139.34
142.41
138.81
130.67
120.89
112.30
106.79
104.89
105.72
107.61
108.78
108.06
105.03
99.87
93.00
84.59
74.54
62.44
47.96
31.04
12.06
-8.20
-28.66
-48.08
-65.39
-79.79
-91.07
-99.59
-106.19
-111.73
-116.63
-120.53
-122.19
-120.08
-112.95
-100.54
-83.91
-65.16
-46.74
-30.69
-18.10
-9.01
-2.77
1.41
4.05
5.36
5.35
4.26
2.61
1.19
0.68
1.32
2.79
4.29
4.88
3.86
0.98
-3.45
-8.74
-14.16
-19.18
-23.68
-27.89
-32.32
-37.54
-44.04
-51.99
-61.07
-70.21
-77.66
-81.22
-78.90
-69.59
-53.67
-32.97
-10.25
11.58
30.40
45.25
56.25
64.20
70.00
74.24
77.02
78.03
76.67
72.49
65.58
56.94
48.40
42.16
39.92
41.99
47.02
52.40
55.30
53.91
47.90
38.30
26.51
13.45
-0.91
-17.09
-35.44
-55.44
-75.71
-94.76
-111.63
-126.32
-139.46
-151.43
-161.55
-168.00
-168.38
-160.95
-145.53
-123.84
-98.94
-74.20
-52.23
-34.39
-20.74
-10.53
-2.80
3.33
8.52
13.31
18.13
23.32
28.86
34.38
39.13
42.31
43.33
42.12
39.15
35.13
30.65
25.87
20.50
14.06
6.24
-2.82
-12.50
-21.92
-30.30
-37.19
-42.55
-46.81
-50.73
-55.26
-61.27
-69.11
-78.10
-86.34
-91.01
-89.22
-79.19
-61.25
-38.01
-13.63
7.67
23.18
32.54
37.56
41.12
45.60
51.86
58.99
65.08
68.34
68.12
65.13
60.94
57.06
54.09
51.45
47.97
42.63
35.36
27.20
19.79
14.47
11.56
10.10
8.28
4.27
-3.14
-14.11
-27.87
-42.94
-57.40
-69.12
-75.97
-76.25
-69.18
-55.35
-36.76
-16.25
3.29
19.75
32.17
40.66
45.86
48.46
48.88
47.35
44.09
39.52
34.35
29.37
25.20
21.99
19.36
16.55
12.77
7.54
0.92
-6.55
-14.18
-21.44
-28.18
-34.65
-41.24
-48.33
-56.06
-64.47
-73.51
-83.21
-93.53
-104.08
-113.81
-120.76
-122.35
-116.11
-100.76
-77.18
-48.60
-19.93
3.89
19.60
26.81
27.86
26.64
26.65
29.52
34.66
39.93
43.11
43.15
40.64
37.36
35.35
36.00
39.58
45.49
52.60
59.75
65.92
70.24
71.98
70.55
65.69
57.51
46.46
33.17
18.29
2.43
-13.76
-29.40
-43.19
-53.46
-58.49
-57.05
-48.98
-35.45
-18.71
-1.49
13.88
26.15
35.24
41.91
47.15
51.55
55.08
57.28
57.68
56.14
53.00
48.84
44.17
39.25
34.01
28.22
21.85
15.11
8.52
2.63
-2.22
-6.11
-9.51
-13.07
-17.39
-22.87
-29.69
-37.94
-47.54
-58.12
-68.76
-77.76
-82.91
-82.12
-74.19
-59.48
-39.99
-18.69
1.40
18.12
30.69
39.45
45.37
49.43
52.22
53.99
54.84
54.89
54.32
53.31
51.92
50.00
47.35
43.81
39.42
34.36
28.89
23.19
17.25
10.95
4.09
-3.41
-11.51
-19.95
-28.32
-36.16
-43.20
-49.47
-55.42
-61.86
-69.53
-78.67
-88.47
-96.99
-101.56
-99.61
-89.75
-72.42
-49.88
-25.50
-2.62
16.52
31.13
41.67
49.20
54.70
58.65
61.19
62.33
62.26
61.46
60.49
59.70
59.03
58.04
56.12
52.88
48.38
43.15
37.90
33.14
28.79
24.30
18.88
12.01
3.80
-5.02
-13.41
-20.56
-26.26
-30.94
-35.37
-40.33
-46.32
-53.47
-61.69
-70.68
-79.78
-87.83
-93.08
-93.57
-87.77
-75.27
-57.12
-35.71
-14.04
5.24
20.48
31.35
38.51
43.12
46.21
48.45
49.99
50.73
50.51
49.39
47.76
46.24
45.55
46.17
48.11
50.77
53.02
53.71
52.04
47.97
42.26
36.34
31.70
29.30
29.14
30.13
30.48
28.33
22.63
13.63
3.32
-4.98
-7.35
-0.43
17.38
45.34
79.97
115.55
145.52
164.31
168.94
159.52
138.91
111.13
80.20
48.69
17.34
-14.33
-46.73
-79.27
-110.12
-136.80
-157.54
-171.55
-179.76
-184.63
-189.10
-195.01
-202.58
-210.55
-217.08
-221.13
-221.90
-218.86
-211.52
-198.82
-179.07
-150.95
-114.76
-73.00
-30.53
8.22
40.25
64.40
78.06
79.62
69.59
51.08
32.73
17.19
4.96
-3.77
-10.01
-13.64
-13.94
-10.40
-3.15
6.97
18.15
29.64
41.50
54.35
69.04
86.20
105.70
126.45
146.60
163.79
176.98
186.24
192.17
195.50
196.74
196.09
193.54
189.04
182.27
173.36
162.51
150.14
137.24
125.40
116.23
110.19
105.59
98.42
84.09
59.29
23.64
-19.86
-65.88
-108.74
-144.39
-171.17
-189.64
-201.42
-208.18
-211.19
-211.48
-210.26
-209.02
-209.30
-212.00
-216.99
-222.95
-227.87
-229.91
-228.20
-223.09
-216.01
-208.56
-201.86
-196.00
-190.08
-182.85
-173.28
-161.19
-147.29
-132.93
-119.54
-107.99
-98.18
-89.03
-78.86
-66.03
-49.49
-29.07
-5.48
20.06
46.06
71.00
93.54
112.54
127.29
137.45
143.13
144.70
142.73
137.76
130.27
120.62
109.06
96.00
82.01
67.89
54.46
42.43
32.19
23.88
17.54
13.19
10.90
10.64
12.10
14.71
17.84
20.93
23.71
26.08
27.81
28.55
28.03
26.52
25.23
26.15
31.34
42.01
57.82
76.89
96.50
114.07
128.10
138.40
145.88
151.94
157.90
164.67
172.62
181.68
191.36
200.78
208.69
213.61
214.09
209.16
198.66
183.39
165.02
145.65
127.25
111.10
97.47
85.76
74.72
63.02
49.61
33.95
16.09
-3.27
-22.88
-40.98
-55.59
-64.99
-68.23
-65.49
-58.16
-48.32
-38.09
-29.06
-21.97
-16.79
-13.16
-10.62
-8.89
-7.74
-6.94
-6.25
-5.55
-4.99
-5.02
-6.31
-9.39
-14.38
-20.76
-27.35
-32.80
-35.96
-36.36
-34.48
-31.60
-29.36
-29.18
-31.71
-36.65
-42.97
-49.44
-55.01
-59.23
-62.15
-64.17
-65.77
-67.38
-69.20
-71.08
-72.30
-71.50
-66.90
-56.88
-40.64
-18.74
6.95
33.79
59.27
81.71
100.59
116.23
129.40
140.73
150.68
159.52
167.39
174.26
179.58
182.22
180.46
172.60
157.63
135.79
108.70
78.82
48.69
20.01
-6.75
-32.29
-57.83
-84.31
-111.85
-139.60
-166.19
-190.24
-210.98
-228.29
-242.39
-253.51
-261.69
-267.13
-270.73
-274.37
-280.37
-290.03
-302.17
-312.59
-315.09
-303.80
-275.79
-232.29
-178.12
-119.59
-62.15
-9.10
37.93
77.71
108.40
127.75
134.56
130.10
118.53
105.60
96.31
92.72
93.25
93.81
89.98
79.43
62.83
43.28
24.63
9.63
-0.99
-8.34
-14.20
-20.01
-26.59
-35.02
-47.39
-66.89
-95.95
-133.84
-174.98
-209.32
-225.30
-214.19
-173.93
-110.48
-36.04
34.96
90.19
122.38
130.26
117.66
91.77
61.30
34.72
18.67
16.51
27.67
47.88
70.67
89.34
99.02
98.00
87.84
72.38
56.05
42.40
33.30
28.95
28.20
29.24
30.26
29.81
27.02
21.60
13.82
4.32
-6.12
-16.77
-27.09
-36.62
-44.87
-51.20
-54.70
-54.34
-49.30
-39.29
-24.81
-7.09
12.16
31.09
48.08
61.94
72.01
78.17
80.71
80.23
77.53
73.47
68.78
64.01
59.47
55.21
51.08
46.75
41.86
36.15
29.51
22.08
14.18
6.27
-1.23
-8.04
-14.07
-19.48
-24.65
-30.03
-36.09
-43.11
-51.14
-59.96
-68.97
-77.28
-83.75
-87.18
-86.67
-81.93
-73.50
-62.62
-50.88
-39.69
-29.85
-21.37
-13.69
-5.98
2.34
11.44
20.90
29.90
37.39
42.46
44.65
44.13
41.64
38.26
35.01
32.47
30.63
28.98
26.89
23.91
19.93
15.04
9.39
3.01
-4.19
-12.26
-21.07
-30.44
-40.22
-50.52
-61.61
-73.56
-85.72
-96.60
-104.04
-106.04
-101.57
-91.25
-77.17
-62.32
-49.49
-40.47
-35.61
-34.11
-34.52
-35.49
-36.21
-36.40
-36.18
-35.73
-34.92
-33.40
-30.68
-26.51
-21.13
-15.34
-10.22
-6.81
-5.70
-6.86
-9.80
-13.75
-18.14
-22.64
-27.30
-32.26
-37.68
-43.59
-49.98
-56.82
-63.98
-70.93
-76.62
-79.47
-77.82
-70.61
-57.85
-40.88
-21.88
-3.11
13.89
28.51
40.93
51.45
59.99
66.00
68.79
68.14
64.71
60.01
55.97
54.30
55.82
60.25
66.24
71.93
75.60
76.31
74.18
70.35
66.38
63.61
62.60
63.00
63.90
64.20
63.02
59.68
53.69
44.77
33.14
19.78
6.61
-3.99
-10.06
-11.00
-7.94
-3.32
0.29
1.38
0.14
-1.88
-2.82
-1.62
1.33
4.43
5.73
3.97
-0.81
-7.28
-13.57
-18.07
-20.13
-20.26
-19.72
-19.90
-21.70
-25.18
-29.64
-34.06
-37.64
-40.20
-42.18
-44.35
-47.41
-51.59
-56.63
-61.87
-66.46
-69.45
-69.88
-66.81
-59.50
-47.69
-31.83
-13.06
6.97
26.52
44.17
59.01
70.52
78.44
82.56
82.75
79.09
72.07
62.66
52.21
42.13
33.58
27.15
22.74
19.60
16.66
12.91
7.72
1.02
-6.75
-14.86
-22.60
-29.58
-35.85
-41.86
-48.21
-55.39
-63.57
-72.54
-81.65
-90.00
-96.59
-100.48
-100.96
-97.77
-91.21
-82.20
-72.18
-62.78
-55.51
-51.29
-50.34
-52.14
-55.76
-60.19
-64.64
-68.81
-72.73
-76.60
-80.44
-83.98
-86.64
-87.77
-86.88
-83.92
-79.32
-73.75
-67.81
-61.96
-56.49
-51.90
-49.05
-49.04
-52.66
-59.81
-68.97
-77.60
-82.94
-83.20
-78.27
-69.70
-59.87
-50.72
-42.96
-35.89
-28.07
-18.29
-6.27
7.01
19.76
30.03
36.44
38.57
36.97
32.75
27.13
20.93
14.31
6.86
-1.93
-12.21
-23.36
-33.85
-41.59
-44.60
-41.70
-33.19
-20.92
-7.73
3.54
11.22
15.58
18.82
24.21
34.97
53.21
79.62
113.42
152.52
193.40
231.08
259.68
273.78
270.47
250.86
220.27
186.51
156.92
135.62
122.31
113.27
103.85
91.06
74.99
58.28
44.43
35.65
31.67
29.74
25.97
17.10
1.98
-17.83
-38.62
-55.70
-64.77
-63.04
-49.78
-26.44
3.67
36.24
66.84
91.97
109.86
120.77
126.67
130.48
134.93
141.66
150.62
160.12
167.46
170.03
166.34
156.72
143.16
128.38
114.67
102.93
92.69
82.72
72.18
61.20
50.99
43.11
38.59
37.20
37.40
36.89
33.37
25.32
12.41
-4.46
-23.53
-42.66
-59.76
-73.01
-80.92
-82.49
-77.30
-65.90
-49.90
-31.88
-14.83
-1.32
7.16
10.46
9.55
6.04
1.58
-2.46
-5.26
-6.50
-6.32
-5.23
-3.98
-3.31
-3.76
-5.55
-8.69
-13.01
-18.30
-24.27
-30.60
-36.86
-42.64
-47.68
-52.04
-55.96
-59.54
-62.53
-64.09
-63.17
-58.98
-51.53
-41.81
-31.54
-22.54
-16.01
-12.21
-10.55
-10.03
-9.82
-9.56
-9.27
-9.03
-8.64
-7.47
-4.90
-0.69
4.57
9.59
12.85
13.35
11.05
6.83
1.96
-2.66
-6.95
-11.57
-17.50
-25.42
-35.42
-46.92
-59.02
-70.67
-80.87
-88.55
-92.62
-92.11
-86.43
-75.76
-61.08
-44.18
-26.98
-10.88
3.82
17.71
31.82
46.69
61.67
74.92
83.91
86.47
81.62
69.93
53.22
33.96
14.59
-2.87
-16.90
-26.52
-31.36
-31.85
-29.30
-25.75
-23.43
-24.24
-29.01
-37.22
-47.11
-56.14
-61.86
-62.76
-58.72
-51.03
-41.90
-33.64
-27.90
-25.25
-25.28
-27.09
-29.88
-33.34
-37.70
-43.46
-50.85
-59.58
-68.77
-77.32
-84.30
-89.45
-93.23
-96.64
-100.75
-106.18
-112.92
-120.47
-128.13
-135.43
-142.14
-148.09
-152.73
-154.96
-153.20
-145.97
-132.63
-113.78
-91.32
-67.73
-45.49
-26.37
-11.21
0.24
9.07
16.98
26.01
37.95
54.05
74.66
99.16
126.20
154.16
181.61
207.64
231.91
254.48
275.48
294.59
310.60
321.40
324.54
318.37
302.86
279.79
251.92
221.81
190.86
159.23
126.74
93.86
62.31
34.52
12.54
-3.16
-13.98
-22.60
-31.79
-43.20
-56.85
-71.30
-84.26
-93.34
-96.84
-94.29
-86.60
-75.95
-65.18
-57.19
-54.18
-57.15
-65.51
-77.36
-90.00
-100.75
-107.77
-110.48
-109.56
-106.47
-102.61
-98.79
-94.95
-90.45
-84.60
-77.19
-68.77
-60.49
-53.84
-50.04
-49.59
-51.91
-55.24
-57.00
-54.50
-45.87
-30.85
-11.05
10.41
29.85
44.10
51.52
52.31
48.34
42.42
37.43
35.47
37.38
42.61
49.55
56.25
61.20
63.89
64.85
65.26
66.26
68.32
70.92
72.65
71.80
66.96
57.57
44.07
27.60
9.66
-8.23
-24.68
-38.50
-48.73
-54.99
-57.81
-58.66
-59.70
-62.67
-67.88
-73.50
-75.86
-70.79
-55.53
-30.23
1.52
33.71
59.87
75.29
78.57
71.78
59.37
46.42
36.98
33.18
35.21
41.96
51.68
62.42
72.20
79.05
81.24
77.85
69.27
57.40
45.11
35.42
30.31
30.09
33.33
37.43
39.67
38.14
32.31
23.09
12.38
2.43
-4.68
-7.33
-4.50
4.19
18.30
36.28
55.29
71.49
81.11
82.04
75.05
63.97
54.33
50.97
55.84
67.09
80.03
89.36
91.49
85.92
74.99
62.54
52.22
46.34
45.52
49.05
55.28
62.12
67.40
69.37
67.32
61.84
54.93
49.28
47.31
50.14
56.97
65.38
72.32
75.56
74.72
71.64
69.61
72.06
81.13
96.79
116.88
137.69
155.10
165.54
166.63
157.45
138.61
111.92
80.11
46.35
13.90
-14.33
-36.13
-50.30
-56.86
-57.02
-53.01
-47.53
-43.18
-41.83
-44.30
-50.32
-58.94
-69.04
-79.77
-90.82
-102.37
-114.77
-128.24
-142.51
-156.85
-170.09
-181.03
-188.64
-192.42
-192.42
-189.22
-183.69
-176.72
-169.08
-161.35
-154.00
-147.55
-142.73
-140.49
-141.64
-146.60
-155.05
-165.99
-177.96
-189.58
-199.90
-208.60
-215.88
-222.27
-228.49
-235.24
-242.91
-251.13
-258.43
-262.26
-259.55
-247.84
-226.25
-195.97
-159.83
-121.21
-82.93
-46.67
-12.99
18.02
46.16
71.05
92.63
111.83
131.05
153.72
183.19
221.05
266.08
314.05
358.92
394.76
417.49
425.68
420.33
403.88
379.20
349.06
315.83
281.51
247.46
214.06
180.58
145.61
107.98
67.63
26.16
-13.69
-49.12
-78.43
-101.64
-120.28
-136.44
-151.80
-167.01
-181.66
-194.83
-205.77
-214.31
-220.75
-225.32
-227.79
-227.29
-222.78
-213.65
-200.30
-184.23
-167.71
-153.10
-142.25
-136.12
-134.89
-138.13
-145.01
-154.27
-164.01
-171.62
-174.08
-168.76
-154.25
-131.00
-101.15
-67.58
-32.71
2.48
38.31
75.45
113.34
149.38
179.04
197.39
200.96
189.32
165.27
134.03
101.59
73.22
52.60
41.85
41.93
53.28
76.04
109.98
154.22
206.78
264.33
322.17
374.64
416.05
441.84
449.63
439.75
414.97
379.70
338.58
295.56
253.15
212.44
173.46
135.71
98.84
63.02
28.94
-2.49
-30.62
-55.44
-77.43
-97.02
-114.07
-127.64
-136.29
-138.90
-135.37
-126.79
-115.12
-102.34
-89.80
-78.04
-66.92
-56.14
-45.50
-35.06
-24.79
-14.56
-4.06
6.94
18.32
29.36
38.75
45.07
47.39
45.99
42.33
38.59
36.65
37.04
38.64
38.94
35.02
24.50
6.25
-19.54
-51.37
-86.75
-122.51
-155.35
-182.58
-202.92
-216.89
-226.56
-234.55
-242.75
-251.33
-258.58
-261.71
-258.08
-246.27
-226.46
-200.06
-168.81
-133.96
-96.29
-56.31
-15.00
26.08
64.81
98.59
124.19
137.62
134.95
114.02
77.08
32.27
-7.70
-29.96
-27.40
-2.95
30.54
55.43
57.24
31.39
-14.75
-65.15
-102.00
-112.56
-92.58
-45.32
22.05
102.04
188.27
274.30
351.95
411.01
441.18
436.01
396.01
329.50
249.92
171.36
104.14
52.96
17.44
-5.34
-18.56
-24.42
-24.60
-21.27
-17.96
-19.88
-32.94
-61.86
-107.85
-166.83
-229.35
-282.77
-315.21
-320.12
-299.27
-262.63
-225.07
-201.06
-199.93
-223.89
-269.32
-329.74
-398.32
-468.74
-534.27
-587.11
-619.08
-624.08
-600.88
-554.30
-494.09
-431.00
-372.83
-322.21
-277.23
-233.93
-189.26
-142.80
-96.60
-53.85
-17.01
13.61
40.43
68.05
101.24
142.08
187.97
231.06
260.24
264.75
238.08
180.95
102.01
15.78
-60.90
-112.74
-129.32
-107.00
-49.59
31.98
121.34
199.89
250.93
264.31
239.86
187.58
124.48
68.88
34.26
25.69
40.22
70.50
109.69
154.75
206.51
267.53
339.04
419.07
502.51
581.92
649.50
698.58
724.37
724.18
697.51
645.96
572.36
480.08
371.88
250.58
120.59
-10.40
-130.99
-227.46
-287.28
-303.34
-276.88
-218.49
-144.68
-72.85
-16.47
17.60
29.69
25.73
15.23
8.91
14.56
36.70
75.57
126.82
182.34
232.41
268.83
287.43
288.87
273.86
244.93
206.12
162.71
120.07
81.90
49.33
21.04
-6.29
-42.47
-95.64
-168.33
-255.81
-348.90
-438.30
-517.93
-585.31
-640.80
-693.66
-752.12
-819.10
-890.67
-959.05
-1017.36
-1062.40
-1093.99
-1067.76
-956.59
-761.75
-517.16
-268.74
-49.80
126.25
259.35
355.50
422.41
460.41
470.14
456.65
428.72
395.78
364.41
336.41
310.33
283.45
247.68
197.60
133.76
63.42
-3.18
-54.24
-83.58
-91.32
-82.40
-67.76
-56.87
-53.61
-55.23
-55.03
-46.54
-26.79
4.34
45.94
94.66
147.49
203.04
261.85
325.00
391.99
458.36
516.14
556.07
568.21
546.40
491.82
413.89
327.32
246.72
182.04
136.96
110.71
98.12
92.26
86.37
74.60
51.66
13.01
-43.59
-120.44
-205.61
-278.91
-323.56
-336.04
-325.14
-304.30
-284.49
-270.76
-263.72
-258.20
-251.30
-243.50
-237.00
-233.25
-231.67
-230.19
-226.33
-218.58
-206.14
-190.54
-174.71
-161.03
-149.89
-139.55
-127.22
-110.35
-87.54
-58.42
-24.88
10.06
43.60
74.34
102.75
130.28
158.58
188.92
222.35
258.94
297.80
336.97
373.14
401.88
418.28
418.54
401.46
369.12
325.97
277.25
227.32
178.79
132.60
88.83
47.55
9.35
-24.78
-53.80
-76.82
-92.99
-101.46
-101.29
-92.04
-74.33
-50.19
-23.15
2.46
22.31
33.03
32.92
22.53
4.72
-15.59
-32.28
-39.64
-33.92
-14.61
15.68
52.22
89.93
124.90
154.63
177.87
193.73
201.51
200.89
192.59
178.47
160.98
142.25
123.15
103.20
81.17
56.28
28.97
1.12
-24.62
-45.72
-60.68
-69.62
-73.74
-74.77
-74.05
-72.39
-70.28
-68.30
-67.25
-67.74
-69.75
-72.32
-74.00
-73.67
-71.24
-67.84
-65.22
-64.97
-67.82
-73.70
-81.93
-91.76
-102.58
-113.76
-124.38
-133.35
-139.70
-142.92
-143.29
-141.75
-139.68
-138.35
-138.35
-139.33
-139.96
-138.31
-132.56
-121.66
-105.82
-86.57
-66.32
-47.64
-32.61
-22.30
-16.66
-14.69
-14.91
-15.83
-16.45
-16.36
-15.78
-15.29
-15.54
-16.90
-19.47
-23.09
-27.42
-32.17
-37.00
-41.63
-45.79
-49.50
-53.07
-57.10
-62.08
-67.86
-73.44
-77.21
-77.72
-74.66
-69.38
-64.59
-63.12
-66.47
-73.72
-81.68
-86.06
-83.31
-72.24
-54.39
-33.47
-13.68
1.88
12.18
18.24
22.23
26.31
31.71
38.41
45.48
51.80
56.60
59.73
61.42
61.88
60.94
57.97
52.19
43.04
30.67
16.00
0.68
-13.24
-23.65
-28.75
-27.52
-20.04
-7.87
6.00
17.66
23.26
20.30
8.73
-8.64
-26.79
-39.90
-43.45
-35.71
-18.38
4.13
26.28
43.45
53.57
57.58
58.91
61.82
69.61
83.10
100.32
117.23
129.38
133.74
129.71
119.01
104.52
88.96
74.13
61.09
50.90
45.10
45.30
52.12
64.32
78.65
90.91
97.52
96.84
89.53
77.78
64.19
50.89
39.34
30.66
25.63
24.34
25.58
26.70
24.35
16.44
3.87
-8.85
-14.58
-5.94
22.08
70.14
134.03
205.67
275.04
332.37
370.11
383.98
373.18
339.79
287.75
222.11
148.57
73.47
3.58
-54.63
-96.47
-120.63
-129.78
-129.61
-126.29
-123.52
-120.78
-113.53
-95.20
-59.94
-4.90
68.52
154.52
243.79
324.84
386.00
417.80
415.74
382.03
325.71
260.08
198.33
149.02
113.72
87.77
63.79
35.86
2.15
-35.21
-72.22
-105.71
-134.83
-160.80
-185.36
-209.33
-231.84
-251.01
-265.19
-273.93
-278.11
-279.34
-279.43
-279.55
-280.28
-282.31
-287.34
-298.36
-318.71
-350.22
-391.23
-436.14
-476.77
-505.66
-519.06
-518.51
-509.81
-500.09
-494.68
-495.26
-500.08
-505.59
-508.36
-506.03
-497.29
-481.21
-457.00
-424.16
-383.23
-336.06
-285.70
-235.86
-189.85
-149.77
-116.23
-88.46
-65.06
-44.63
-26.41
-10.36
3.05
13.40
20.68
25.50
29.00
32.36
36.43
41.47
47.15
52.87
58.11
62.76
67.18
72.06
78.15
85.90
95.32
105.97
117.18
128.29
138.93
149.00
158.66
168.01
176.91
184.92
191.37
195.67
197.55
197.28
195.64
193.69
192.40
192.33
193.51
195.63
198.31
201.33
204.76
208.81
213.79
220.10
228.43
239.94
255.70
275.79
298.42
319.68
334.44
338.11
328.41
306.24
275.23
240.26
205.91
175.62
151.50
134.77
125.94
124.72
129.75
138.61
148.37
156.52
161.82
164.41
165.45
166.28
167.35
167.39
163.19
150.40
125.35
87.17
38.98
-12.43
-58.93
-94.25
-116.49
-128.50
-136.08
-144.94
-158.04
-174.75
-191.56
-203.98
-208.09
-201.17
-181.82
-149.97
-107.62
-59.39
-12.28
26.23
50.89
61.08
61.36
59.59
63.50
77.41
100.75
128.99
156.29
178.09
192.38
199.59
201.34
199.40
194.82
187.57
177.10
162.54
142.54
115.45
79.80
35.25
-16.45
-71.45
-124.60
-170.44
-204.75
-226.09
-236.07
-238.50
-237.68
-236.32
-235.10
-233.65
-230.28
-222.61
-208.84
-188.03
-159.84
-124.03
-78.66
-22.16
42.95
112.16
179.64
237.68
279.24
300.78
304.20
299.13
296.83
300.79
310.62
323.61
333.18
332.15
316.17
285.90
251.56
225.70
211.12
208.89
220.29
241.99
268.23
293.81
315.83
339.70
370.81
401.48
424.77
440.48
450.26
458.32
470.53
453.85
384.45
312.65
262.04
217.09
171.72
122.89
70.09
14.70
-41.42
-90.90
-128.14
-160.66
-195.00
-231.59
-270.66
-311.71
-353.03
-392.97
-426.36
-449.59
-467.92
-483.69
-492.84
-491.58
-478.51
-454.82
-424.44
-389.46
-353.82
-324.39
-303.60
-288.97
-276.97
-268.60
-263.59
-258.17
-244.96
-215.95
-170.04
-112.31
-51.93
-1.82
25.71
27.32
10.71
-7.02
-5.99
27.15
93.72
181.60
268.50
330.02
348.83
319.35
248.37
152.01
50.35
-38.31
-101.96
-137.04
-147.86
-143.06
-132.46
-123.75
-120.72
-123.73
-131.22
-141.62
-154.55
-170.63
-190.58
-214.53
-241.83
-270.94
-299.63
-324.91
-343.38
-351.78
-347.68
-329.95
-299.25
-257.84
-209.20
-157.56
-107.20
-61.84
-23.87
6.42
31.15
54.33
80.48
113.00
152.67
197.17
241.66
280.30
308.11
322.47
324.02
316.19
303.86
291.20
279.81
267.91
251.16
224.99
186.95
138.18
82.97
26.94
-25.09
-70.54
-109.03
-141.32
-168.03
-189.25
-205.04
-216.54
-226.96
-241.70
-267.00
-307.28
-362.68
-427.32
-490.15
-538.26
-561.28
-554.83
-521.69
-470.26
-411.33
-354.93
-308.14
-274.35
-253.40
-242.18
-235.54
-227.52
-213.04
-189.35
-156.70
-117.69
-75.77
-33.65
7.47
47.77
87.96
128.17
167.22
202.34
229.63
244.97
245.44
230.71
203.47
169.00
133.72
103.56
82.88
74.22
78.58
95.77
124.43
161.78
203.71
245.40
282.51
312.20
333.66
347.70
355.95
359.75
359.63
355.34
346.35
332.46
314.20
292.84
270.16
247.99
227.66
209.77
193.90
178.85
163.11
145.49
125.65
104.38
83.38
64.68
49.85
39.24
31.51
23.67
11.84
-7.45
-35.82
-72.34
-113.50
-154.42
-190.46
-218.61
-237.86
-248.76
-252.49
-250.08
-242.28
-229.83
-213.83
-195.73
-176.97
-158.57
-140.95
-124.09
-108.01
-93.14
-80.15
-69.67
-61.75
-55.86
-51.07
-46.61
-42.46
-39.41
-38.66
-41.11
-46.69
-54.05
-60.75
-63.94
-61.13
-50.83
-33.06
-9.42
16.98
42.06
61.55
72.13
72.38
63.20
47.63
29.79
13.46
1.07
-6.73
-10.78
-12.47
-12.96
-12.70
-11.56
-9.24
-5.72
-1.42
3.19
7.93
13.15
19.48
27.32
36.37
45.60
53.58
59.11
61.73
61.90
60.72
59.39
58.74
58.98
59.81
60.69
61.08
60.66
59.32
57.28
54.83
52.25
49.71
47.20
44.62
41.89
39.14
36.68
35.09
34.93
36.53
39.64
43.31
45.98
45.88
41.68
32.93
20.41
5.90
-8.26
-19.93
-27.82
-31.76
-32.64
-31.89
-31.02
-31.02
-32.00
-33.16
-32.98
-29.74
-22.12
-9.97
5.40
21.19
33.82
39.88
37.29
26.25
9.44
-8.44
-21.99
-27.11
-23.10
-13.73
-6.30
-8.52
-24.67
-52.77
-84.58
-108.77
-115.42
-99.52
-61.64
-6.14
61.33
135.28
210.14
279.37
335.64
372.70
388.09
384.71
369.89
352.23
337.92
328.70
322.30
314.73
302.63
284.60
261.03
232.98
201.31
166.37
128.10
86.23
40.37
-9.54
-62.80
-117.20
-168.80
-212.53
-243.71
-259.86
-261.90
-253.80
-241.06
-228.66
-219.54
-214.31
-211.97
-211.16
-211.00
-211.00
-210.54
-208.22
-201.98
-189.86
-171.23
-147.40
-121.42
-97.00
-76.93
-61.84
-50.14
-38.98
-25.85
-10.09
6.73
21.36
30.26
30.88
22.35
5.36
-18.30
-46.36
-76.49
-106.54
-134.58
-158.91
-178.08
-190.88
-196.50
-194.61
-185.59
-170.72
-152.00
-131.69
-111.64
-92.56
-73.87
-54.21
-32.06
-6.44
22.80
55.20
89.97
125.94
161.48
194.12
220.76
238.38
245.08
240.80
227.40
207.89
185.25
161.47
137.23
112.26
86.10
58.70
30.73
3.65
-20.60
-40.09
-53.44
-60.42
-62.23
-61.17
-59.91
-60.45
-63.37
-67.82
-72.07
-74.37
-73.72
-69.95
-63.41
-54.53
-43.69
-31.40
-18.58
-6.74
2.35
7.18
7.24
3.49
-1.75
-5.62
-5.90
-2.07
4.42
10.83
14.47
14.08
10.41
5.79
2.84
3.19
6.76
12.13
17.41
21.22
23.20
23.75
23.54
23.12
22.60
21.85
20.64
18.88
16.62
14.01
11.22
8.34
5.51
2.92
0.92
0.04
0.84
3.79
8.87
15.39
22.01
26.98
28.77
26.59
20.83
12.92
4.92
-1.21
-4.23
-3.92
-1.05
2.85
5.99
6.75
4.08
-2.23
-11.55
-22.69
-34.32
-45.44
-55.61
-64.97
-73.70
-81.44
-86.83
-87.59
-81.19
-65.84
-41.52
-10.31
24.04
57.03
84.59
103.84
113.48
113.58
105.30
90.64
72.28
53.37
36.98
25.45
19.81
19.63
23.43
29.49
36.52
44.02
52.03
60.64
69.48
77.59
83.79
87.15
87.52
85.58
82.50
79.36
76.60
73.87
70.22
64.61
56.45
46.03
34.71
24.74
18.94
20.07
30.00
48.79
73.90
99.99
119.76
125.85
113.35
81.99
36.70
-13.84
-60.02
-94.49
-114.17
-120.25
-116.61
-107.63
-96.64
-85.55
-75.52
-67.67
-63.32
-63.43
-67.82
-74.91
-82.03
-86.49
-86.77
-83.08
-77.21
-71.81
-69.21
-70.62
-75.86
-83.54
-91.63
-98.19
-101.79
-101.84
-98.56
-92.71
-85.22
-76.81
-67.76
-57.92
-46.99
-34.81
-21.67
-8.30
4.31
15.24
23.92
30.19
34.22
36.28
36.59
35.28
32.51
28.57
24.07
19.86
16.79
15.45
15.90
17.67
19.84
21.33
21.32
19.46
15.89
11.23
6.31
1.98
-1.06
-2.45
-2.31
-1.25
-0.23
-0.22
-1.81
-4.90
-8.76
-12.39
-15.04
-16.60
-17.68
-19.18
-21.88
-25.98
-31.12
-36.66
-42.01
-46.81
-50.94
-54.22
-56.29
-56.67
-55.02
-51.39
-46.44
-41.25
-37.07
-34.91
-35.27
-38.05
-42.58
-47.69
-51.91
-53.65
-51.61
-45.11
-34.41
-20.69
-5.71
8.59
20.65
29.60
35.23
37.93
38.39
37.44
35.95
34.69
34.27
34.96
36.64
38.78
40.65
41.59
41.21
39.56
37.07
34.35
31.88
29.78
27.76
25.24
21.61
16.49
9.93
2.39
-5.26
-11.93
-16.51
-18.14
-16.46
-11.80
-5.15
2.07
8.40
12.86
15.16
15.75
15.56
15.55
16.36
18.16
20.64
23.23
25.27
26.29
26.01
24.41
21.66
18.08
14.13
10.32
7.15
4.99
3.94
3.74
3.75
3.02
0.59
-4.13
-10.90
-18.56
-25.15
-28.55
-27.36
-21.50
-12.40
-2.54
5.45
9.78
9.93
6.67
1.61
-3.40
-6.87
-7.98
-6.75
-4.00
-1.13
0.36
-0.68
-4.48
-10.27
-16.36
-20.80
-22.03
-19.42
-13.48
-5.66
2.07
7.91
10.59
9.75
5.94
0.47
-4.89
-8.37
-8.62
-5.01
2.17
11.79
22.30
32.14
40.22
46.20
50.43
53.75
57.07
61.09
66.11
72.08
78.56
84.91
90.51
95.02
98.73
102.51
107.52
114.76
124.54
136.27
148.53
159.69
168.49
174.57
178.40
180.95
183.62
187.99
195.56
207.41
223.67
243.00
262.56
278.39
285.78
281.23
263.33
233.12
193.45
148.02
100.32
53.23
8.85
-32.46
-70.64
-105.77
-137.95
-167.35
-194.35
-219.37
-242.64
-264.04
-285.08
-307.10
-330.96
-356.75
-383.68
-410.32
-434.96
-455.87
-471.55
-482.94
-490.49
-493.56
-490.48
-479.84
-462.18
-440.81
-420.94
-392.67
-349.28
-286.67
-205.62
-111.87
-13.74
80.58
164.90
236.00
293.70
337.86
369.39
389.67
400.22
402.93
399.44
391.24
380.20
368.49
356.40
343.51
329.18
312.83
294.21
273.37
250.74
227.02
202.78
179.95
159.02
139.69
121.13
102.35
82.63
61.87
40.83
20.90
3.15
-12.14
-25.33
-37.35
-49.50
-63.23
-79.78
-99.86
-123.14
-147.98
-171.33
-188.81
-195.85
-189.36
-169.13
-138.24
-102.22
-67.20
-38.02
-17.08
-4.13
2.63
5.15
4.36
0.06
-8.50
-21.61
-38.41
-56.99
-74.92
-90.07
-101.35
-108.80
-113.15
-115.33
-115.97
-115.39
-113.88
-111.81
-109.68
-107.86
-106.38
-104.84
-102.59
-98.96
-93.57
-86.52
-78.36
-69.95
-62.20
-55.82
-51.14
-48.04
-46.02
-44.38
-42.47
-39.84
-36.44
-32.57
-28.79
-25.71
-23.80
-23.17
-23.43
-23.73
-22.93
-19.98
-14.31
-6.15
3.53
13.29
21.66
27.64
30.88
31.73
30.98
29.64
28.72
29.06
31.29
35.73
42.31
50.66
60.17
70.12
79.81
88.65
96.14
101.99
106.16
108.90
110.72
112.15
113.49
114.52
114.47
112.37
107.66
100.74
93.17
87.35
85.44
88.50
95.72
104.60
111.54
113.00
106.42
90.85
67.05
37.25
4.50
-28.01
-57.80
-83.68
-105.93
-125.78
-144.64
-162.96
-179.55
-191.67
-195.84
-189.31
-171.61
-145.38
-116.14
-90.84
-75.74
-74.24
-85.89
-106.53
-129.91
-149.75
-161.46
-163.07
-155.20
-140.26
-121.68
-102.97
-86.88
-74.72
-66.09
-59.21
-51.77
-42.33
-31.16
-20.69
-14.89
-18.05
-33.58
-62.95
-105.27
-157.30
-213.84
-268.31
-313.82
-344.38
-356.41
-349.66
-327.34
-295.02
-258.97
-224.34
-194.12
-168.98
-147.98
-129.54
-112.35
-95.59
-78.81
-61.70
-44.05
-25.88
-7.66
9.79
25.81
39.92
52.27
63.85
76.25
91.05
109.11
130.10
152.58
174.84
195.00
211.73
224.84
235.23
244.27
252.93
261.21
268.18
273.17
275.41
274.92
273.07
272.63
276.94
288.82
308.80
334.20
359.47
375.87
374.10
347.71
296.04
224.76
144.10
65.04
-8.31
-70.12
-115.78
-143.69
-156.18
-157.82
-153.26
-144.91
-132.85
-115.14
-88.72
-53.75
-13.81
23.47
50.26
62.45
62.68
58.69
59.47
70.99
92.12
115.57
132.11
135.91
122.56
95.92
64.04
35.37
16.36
10.01
16.62
34.82
61.84
92.95
121.56
138.79
135.56
106.48
52.43
-18.31
-92.04
-153.86
-192.49
-203.15
-188.22
-155.10
-112.41
-67.61
-26.24
7.27
28.48
33.22
19.33
-11.72
-53.96
-98.12
-134.51
-155.97
-159.66
-146.76
-120.86
-85.97
-45.58
-2.41
41.19
82.80
119.60
148.65
167.22
173.56
167.60
151.13
127.49
100.63
73.94
49.08
26.25
4.76
-15.88
-35.48
-53.24
-68.30
-80.22
-88.94
-94.49
-96.49
-94.31
-88.02
-79.31
-71.94
-70.44
-78.38
-95.76
-118.44
-138.92
-149.23
-143.97
-122.05
-86.58
-43.06
2.88
47.14
87.57
123.55
155.34
183.38
208.14
229.76
248.05
262.73
274.03
283.17
292.17
302.76
314.87
325.86
331.15
326.14
308.38
278.64
240.00
195.63
147.02
92.91
30.80
-41.32
-122.85
-209.72
-294.68
-368.69
-422.96
-450.99
-450.40
-423.63
-377.43
-320.88
-263.03
-210.93
-168.75
-138.05
-118.72
-110.21
-111.79
-122.24
-138.96
-157.74
-173.33
-181.19
-179.17
-168.51
-153.36
-138.76
-128.47
-123.19
-120.44
-116.05
-106.36
-89.95
-68.23
-44.63
-23.07
-6.67
3.01
6.00
3.66
-1.88
-8.30
-13.44
-15.39
-12.15
-1.53
18.65
49.83
91.32
139.47
187.70
228.01
253.38
260.39
250.43
229.32
205.09
185.22
174.43
173.85
181.67
194.56
208.92
221.63
230.05
232.05
226.24
212.44
192.04
167.91
143.53
121.80
104.00
89.28
75.26
59.26
39.56
16.23
-8.82
-32.73
-52.75
-67.26
-76.14
-80.47
-81.81
-81.45
-80.21
-78.44
-76.27
-73.63
-70.07
-64.79
-56.71
-45.14
-30.43
-14.26
0.66
11.72
17.46
18.17
15.79
13.18
13.07
17.32
26.41
39.08
52.21
61.17
60.77
46.91
18.53
-21.02
-64.00
-100.06
-119.53
-116.69
-91.88
-51.24
-4.33
39.44
73.73
96.43
108.87
113.73
113.19
108.10
98.56
84.86
68.17
50.24
32.54
15.69
-0.18
-14.65
-26.28
-33.15
-34.34
-31.36
-28.50
-31.22
-43.53
-65.76
-94.17
-122.53
-144.85
-157.66
-160.63
-155.63
-144.98
-130.25
-112.13
-91.13
-68.28
-45.33
-24.16
-5.86
9.79
24.19
39.36
56.93
77.35
99.62
121.45
139.95
152.73
158.67
158.38
153.93
148.09
143.27
140.67
139.89
139.14
136.12
129.06
117.43
102.16
85.15
68.26
52.62
38.27
24.26
9.33
-7.58
-27.30
-50.61
-78.10
-109.60
-143.11
-174.24
-196.72
-204.36
-193.64
-165.75
-126.76
-85.74
-51.51
-29.49
-20.34
-20.67
-25.25
-29.46
-30.70
-28.40
-23.08
-15.36
-5.45
6.42
19.39
31.61
40.49
43.63
40.12
30.91
18.49
5.79
-5.32
-14.81
-24.58
-37.44
-55.88
-80.82
-111.29
-144.73
-177.86
-207.61
-231.73
-249.02
-259.11
-262.26
-259.06
-250.56
-238.24
-224.08
-210.40
-199.44
-192.65
-190.12
-190.30
-190.27
-186.89
-178.07
-163.80
-146.49
-129.92
-117.84
-112.70
-115.14
-124.11
-137.50
-152.44
-165.25
-172.06
-170.39
-161.45
-151.55
-150.89
-169.55
-212.25
-274.89
-345.08
-406.99
-447.79
-462.17
-452.89
-427.29
-392.66
-353.15
-309.79
-262.68
-213.27
-164.91
-121.61
-85.90
-57.47
-33.67
-11.06
12.81
38.51
64.64
89.20
110.89
129.81
147.64
166.59
188.44
213.49
240.71
268.22
294.52
319.42
344.47
372.54
406.48
447.63
494.39
542.20
584.60
615.57
631.79
633.67
624.92
610.57
594.78
579.45
564.00
545.97
522.39
490.96
451.01
404.13
354.13
306.18
265.11
233.28
209.18
187.80
162.76
128.86
84.34
30.90
-27.69
-87.73
-147.25
-206.27
-265.99
-327.29
-389.53
-449.86
-503.78
-545.72
-570.68
-576.01
-562.42
-533.56
-494.56
-449.79
-401.60
-351.12
-298.92
-246.77
-198.36
-158.28
-129.85
-113.19
-104.84
-99.43
-93.28
-84.99
-76.05
-69.82
-69.53
-76.48
-89.24
-103.96
-116.18
-123.33
-123.54
-115.52
-98.55
-72.93
-40.56
-5.17
28.34
60.62
88.87
111.21
128.93
146.59
169.48
200.52
238.48
278.74
317.75
350.82
374.81
388.46
392.01
386.20
371.81
347.56
315.90
283.25
258.20
249.95
263.73
297.03
339.45
376.79
397.31
396.88
379.00
350.43
317.21
281.27
240.39
190.86
130.86
62.23
-9.99
-80.34
-145.44
-204.01
-256.39
-302.94
-343.57
-377.81
-405.19
-426.05
-442.38
-458.17
-478.37
-506.97
-544.60
-587.05
-625.51
-649.13
-648.85
-621.02
-568.57
-499.50
-423.49
-348.28
-277.91
-212.85
-151.76
-93.19
-36.51
18.24
71.16
122.84
173.99
224.51
272.67
315.23
348.30
369.23
378.15
378.28
374.79
372.52
373.81
377.41
380.11
378.71
372.76
365.72
363.90
373.51
397.26
432.44
471.23
503.89
521.82
520.76
501.75
470.03
432.66
395.98
364.07
337.88
316.81
298.21
278.58
254.35
222.66
182.05
132.91
77.45
18.13
-39.52
-91.03
-132.33
-160.45
-174.24
-174.81
-165.40
-150.57
-137.02
-125.09
-115.11
-105.48
-93.95
-79.44
-63.28
-49.30
-42.97
-53.57
-81.85
-129.97
-196.62
-276.30
-359.72
-435.39
-492.50
-523.87
-532.55
-517.52
-486.05
-445.56
-400.98
-353.71
-302.33
-244.58
-150.95
-60.32
27.09
103.48
161.39
196.37
208.66
203.34
188.58
172.64
156.86
148.58
146.88
149.45
153.85
158.34
161.70
162.58
159.10
145.50
124.03
94.84
60.43
25.37
-5.40
-28.57
-43.84
-54.06
-65.95
-81.24
-102.09
-128.39
-158.71
-191.81
-227.67
-267.16
-310.32
-355.61
-396.13
-424.88
-436.97
-433.25
-421.48
-414.15
-423.53
-455.41
-506.22
-562.97
-609.79
-634.32
-632.38
-608.31
-571.39
-530.75
-491.66
-455.05
-419.37
-383.33
-347.36
-313.36
-283.01
-256.22
-230.74
-203.30
-171.54
-135.34
-97.03
-60.41
-28.99
-4.40
14.13
29.21
43.97
60.67
79.90
100.74
121.57
141.18
159.46
177.36
196.17
216.65
238.41
260.04
279.77
296.34
309.79
321.35
332.82
345.62
360.04
375.15
389.35
401.27
410.57
418.22
426.27
437.31
453.79
477.13
506.56
538.14
564.73
577.31
567.62
531.11
468.93
387.45
295.86
202.90
114.08
30.93
-47.98
-125.04
-201.45
-276.08
-345.30
-403.93
-446.75
-470.24
-473.77
-459.81
-433.01
-398.31
-359.72
-319.80
-280.28
-243.19
-211.28
-187.52
-173.82
-169.94
-173.35
-180.27
-187.24
-192.24
-195.01
-196.47
-197.57
-198.53
-198.56
-196.05
-189.42
-177.80
-161.47
-141.88
-121.12
-101.27
-83.67
-68.60
-55.21
-41.98
-27.40
-10.53
8.51
28.73
48.60
66.76
82.61
96.68
110.43
125.60
143.46
164.14
186.54
208.80
229.24
247.06
262.81
277.95
294.26
313.17
335.60
362.33
394.02
430.45
469.17
504.90
530.40
539.24
528.95
502.61
467.70
432.43
402.03
376.36
351.17
321.29
283.69
238.79
189.01
136.58
82.25
26.10
-30.47
-82.75
-122.99
-142.70
-136.06
-102.82
-48.87
15.30
78.02
129.79
165.27
183.32
185.53
174.41
152.26
121.28
84.27
45.24
9.15
-19.47
-38.14
-47.61
-51.11
-53.15
-57.23
-64.42
-73.17
-80.14
-81.84
-76.21
-63.36
-45.32
-25.51
-7.37
6.50
14.84
17.85
17.15
15.63
16.94
24.11
37.79
54.86
68.71
71.69
58.87
31.02
-4.86
-38.26
-59.65
-64.54
-55.01
-37.83
-20.81
-9.38
-5.05
-6.17
-10.36
-16.44
-24.87
-37.28
-54.78
-76.73
-99.77
-118.89
-129.05
-127.15
-113.56
-92.26
-69.83
-53.36
-47.92
-54.77
-70.47
-87.80
-98.19
-94.94
-75.66
-43.09
-3.56
36.03
71.06
100.58
126.55
151.99
178.99
207.45
235.26
259.52
277.27
286.03
284.32
271.67
248.82
217.67
181.02
142.02
103.84
69.36
41.11
21.13
10.56
9.16
15.17
25.70
37.63
48.61
57.62
65.06
72.24
80.49
90.52
102.16
114.53
126.61
137.76
147.88
157.49
167.41
178.29
190.31
203.07
215.65
227.04
236.37
243.12
247.09
248.39
247.17
243.61
237.88
230.12
220.53
209.57
197.87
186.19
175.14
165.10
156.17
148.08
140.29
131.99
122.45
111.03
97.31
81.02
62.20
41.14
18.36
-5.52
-29.73
-53.56
-76.42
-97.91
-117.92
-136.58
-154.14
-170.90
-187.06
-202.66
-217.58
-231.90
-245.65
-258.89
-271.72
-284.23
-296.48
-308.34
-319.30
-328.53
-335.43
-339.49
-340.55
-338.89
-335.15
-330.08
-324.10
-317.16
-308.73
-298.88
-287.87
-276.46
-265.83
-257.47
-252.83
-252.75
-257.12
-265.08
-277.13
-293.48
-313.92
-337.77
-364.45
-394.32
-428.72
-469.40
-517.12
-573.58
-635.83
-695.51
-741.21
-763.27
-758.39
-730.59
-688.85
-643.01
-605.80
-583.92
-576.84
-578.77
-582.96
-585.43
-585.11
-582.14
-576.27
-573.60
-577.40
-586.22
-594.07
-593.69
-580.04
-550.98
-506.26
-402.02
-220.00
27.02
297.69
545.44
741.21
877.41
960.24
1001.34
1012.73
997.61
959.22
903.51
839.23
775.73
718.99
671.06
631.38
598.20
564.38
525.03
479.64
431.64
386.47
347.71
316.45
291.76
271.87
251.57
227.19
200.08
170.88
142.37
116.66
94.66
76.10
60.21
44.56
27.56
9.05
-10.10
-28.05
-43.75
-56.81
-67.75
-77.46
-87.52
-99.09
-112.52
-127.61
-143.33
-158.81
-172.97
-185.28
-195.46
-203.35
-208.66
-210.82
-208.97
-201.35
-189.62
-174.22
-156.00
-136.17
-116.15
-97.08
-79.49
-63.24
-47.50
-31.39
-13.93
4.96
24.51
43.43
60.79
76.49
91.48
107.43
125.81
147.48
171.79
196.73
219.73
238.85
253.59
265.17
275.82
287.99
303.96
325.00
350.83
379.04
404.87
421.73
422.83
403.41
362.83
305.48
239.46
174.01
116.54
70.50
34.85
5.43
-22.43
-51.38
-80.62
-106.29
-123.17
-127.22
-117.35
-95.82
-66.51
-32.61
4.64
45.34
88.86
131.92
168.28
190.77
194.39
179.07
149.85
114.65
80.80
52.47
30.14
11.89
-3.87
-16.82
-24.42
-23.40
-11.80
9.63
37.55
67.42
95.41
120.09
142.38
164.38
187.31
210.10
229.28
240.32
239.78
227.13
205.62
181.21
160.47
147.82
143.51
143.42
140.58
128.11
102.12
63.36
16.62
-31.30
-74.31
-109.23
-136.03
-157.09
-175.69
-195.09
-217.50
-243.66
-272.06
-298.29
-315.16
-314.16
-288.52
-236.46
-163.22
-80.47
-3.04
55.75
88.09
93.35
77.08
47.90
14.31
-17.47
-44.03
-64.24
-78.48
-88.23
-96.07
-105.21
-119.17
-140.43
-169.60
-204.87
-242.67
-279.03
-310.92
-337.54
-360.56
-383.53
-410.45
-443.59
-481.57
-518.64
-546.07
-555.30
-541.89
-507.91
-461.57
-413.92
-374.40
-347.37
-331.33
-320.98
-310.49
-296.28
-277.56
-255.21
-229.85
-200.68
-165.65
-122.78
-71.57
-13.72
46.86
105.11
156.04
195.62
221.56
233.55
233.34
224.53
212.18
201.72
197.51
201.18
210.61
220.52
224.69
218.83
203.04
182.23
164.13
155.93
161.11
178.06
201.29
224.07
241.25
250.54
252.10
247.11
236.56
220.82
200.17
175.56
148.96
123.16
100.89
83.72
71.69
63.63
57.94
53.63
51.03
51.77
57.93
70.71
89.05
109.79
128.79
142.31
148.10
146.10
138.18
127.63
118.26
112.35
110.66
112.42
115.17
114.98
107.72
90.52
63.30
29.12
-8.69
-45.56
-76.35
-96.62
-104.78
-103.05
-97.02
-93.50
-97.92
-115.82
-147.50
-186.96
-223.78
-247.64
-252.52
-238.70
-211.96
-180.76
-157.89
-151.97
-164.50
-190.95
-224.96
-261.93
-299.94
-337.95
-349.52
-317.12
-239.48
-133.86
-24.21
71.24
143.94
193.47
223.43
245.23
261.55
271.39
272.69
263.13
240.17
202.11
150.25
90.27
31.98
-18.37
-54.11
-69.15
-61.91
-37.50
-6.66
18.46
28.37
19.61
-9.68
-55.23
-99.71
-123.36
-115.80
-82.10
-35.54
7.09
45.21
76.96
99.39
109.51
104.10
80.76
40.84
-8.94
-55.41
-82.22
-81.31
-56.01
-18.63
15.61
35.66
38.63
29.40
16.46
6.93
1.29
-2.72
-6.37
-9.06
-8.28
-0.34
18.25
49.87
94.66
146.72
196.02
231.71
245.18
233.06
199.11
153.18
107.98
73.66
54.28
47.93
49.37
53.49
57.92
63.37
71.37
83.12
95.99
105.45
106.99
98.07
79.20
53.73
26.81
2.10
-17.57
-31.34
-39.10
-41.41
-39.40
-34.26
-27.21
-20.06
-17.92
-19.05
-20.86
-16.76
0.82
35.97
86.28
142.20
189.97
212.67
201.10
157.32
93.53
24.40
-39.65
-94.37
-140.40
-180.21
-221.27
-267.61
-318.47
-369.20
-415.87
-458.09
-497.91
-538.12
-544.80
-500.73
-414.88
-315.97
-229.03
-164.51
-121.21
-91.68
-65.96
-34.36
3.72
45.07
85.29
120.51
147.33
163.70
170.45
171.13
170.76
169.07
164.59
156.10
142.81
123.31
96.36
63.37
29.71
3.69
-9.64
-8.89
3.44
21.80
39.58
51.50
57.05
58.42
59.01
60.07
61.59
63.92
68.54
77.37
90.61
105.10
114.23
110.01
86.24
43.09
-10.78
-60.17
-89.23
-88.62
-59.86
-15.01
28.58
54.75
54.24
27.71
-15.24
-60.05
-92.94
-105.32
-95.60
-67.61
-28.99
12.11
48.68
75.36
90.49
95.24
92.41
85.94
81.39
84.10
97.15
119.52
145.65
167.25
175.57
165.04
131.47
81.82
31.55
-3.70
-16.63
-9.97
8.95
32.47
55.65
76.72
96.28
114.48
130.06
142.14
148.62
149.34
144.52
134.59
119.77
100.34
75.86
46.15
12.76
-21.97
-54.20
-81.18
-101.07
-113.28
-118.06
-116.76
-111.05
-103.25
-99.33
-96.94
-93.78
-88.08
-79.08
-66.85
-52.36
-36.86
-22.52
-10.85
-1.65
4.72
7.65
6.00
-2.03
-19.07
-41.65
-68.40
-97.15
-124.48
-147.78
-165.53
-177.56
-184.92
-189.25
-192.04
-194.65
-196.25
-194.78
-189.02
-179.37
-168.16
-158.84
-155.09
-160.47
-178.01
-207.64
-246.71
-290.56
-332.76
-365.70
-381.89
-376.14
-348.30
-302.39
-242.77
-173.65
-98.63
-21.14
55.07
126.22
188.87
239.56
278.10
310.13
343.39
384.73
437.30
500.83
573.69
653.62
736.26
795.91
807.40
757.98
658.20
534.80
414.98
316.47
252.09
211.13
182.52
161.09
145.00
134.39
128.50
123.44
115.65
101.92
78.86
46.77
10.25
-26.45
-59.37
-86.37
-107.17
-122.71
-134.53
-145.17
-154.67
-160.48
-162.65
-161.33
-156.92
-149.65
-139.76
-127.81
-115.09
-102.17
-90.04
-86.37
-98.38
-129.30
-176.30
-232.12
-288.35
-338.35
-377.91
-405.77
-429.76
-456.57
-488.06
-521.29
-552.69
-582.08
-613.14
-650.86
-657.17
-611.17
-517.40
-403.35
-296.67
-209.15
-137.64
-72.46
-5.04
67.66
135.78
187.47
215.65
221.63
212.51
196.81
180.85
167.73
157.23
142.70
119.67
89.02
56.60
29.04
10.69
0.76
-1.54
1.84
6.30
9.24
11.03
14.27
21.10
32.18
45.84
59.43
70.14
74.66
71.58
61.70
47.34
30.86
14.80
0.34
-12.08
-22.64
-31.82
-39.35
-43.88
-43.04
-39.75
-33.76
-24.75
-12.69
1.76
17.88
35.38
54.21
74.24
94.78
117.49
143.59
172.86
203.11
231.19
254.12
269.61
275.99
271.97
260.75
246.89
234.01
223.82
216.91
213.83
215.36
221.89
232.91
251.86
282.80
327.55
384.54
450.32
521.71
597.08
676.60
729.93
734.28
682.81
586.38
464.14
332.65
202.55
81.56
-23.24
-99.62
-148.50
-172.79
-178.73
-175.24
-170.44
-168.85
-170.93
-175.32
-180.87
-184.39
-182.27
-173.60
-160.42
-146.14
-133.47
-124.36
-120.36
-123.50
-134.82
-154.04
-181.78
-219.77
-270.22
-334.39
-411.74
-498.74
-588.55
-670.91
-734.20
-770.28
-776.82
-757.57
-719.59
-670.37
-615.03
-555.72
-492.40
-424.64
-353.91
-283.23
-215.87
-153.06
-94.34
-37.78
18.45
74.91
130.68
182.76
228.22
265.68
297.09
325.40
353.92
385.35
421.52
463.16
508.42
554.29
597.21
635.11
663.58
677.40
672.51
648.25
607.44
552.67
486.88
413.16
337.67
263.30
190.71
119.21
48.13
-23.34
-99.45
-183.94
-277.38
-371.64
-459.07
-533.03
-589.29
-625.31
-622.23
-569.56
-472.43
-373.93
-291.01
-228.06
-177.77
-136.46
-99.71
-62.75
-24.95
14.01
49.24
76.80
90.09
86.03
67.29
41.51
16.44
-5.75
-26.66
-48.97
-70.36
-88.74
-102.37
-110.51
-113.22
-112.02
-110.83
-113.43
-121.47
-133.13
-144.24
-151.12
-151.05
-142.81
-127.10
-106.95
-86.04
-67.14
-50.49
-35.35
-20.54
-3.86
16.44
40.70
67.53
94.26
118.96
140.78
160.51
175.23
186.82
199.73
219.04
248.09
286.32
329.64
369.44
394.94
397.04
372.83
326.10
265.87
204.26
153.70
125.37
123.76
144.63
176.33
204.15
214.77
200.13
160.65
95.79
18.60
-51.34
-98.09
-116.67
-112.55
-93.83
-69.12
-45.04
-27.26
-19.24
-24.18
-45.86
-81.96
-125.33
-162.97
-183.75
-184.63
-171.76
-154.72
-142.53
-139.81
-145.52
-155.12
-163.77
-169.36
-172.52
-174.94
-176.93
-178.58
-180.20
-182.05
-184.06
-185.97
-187.81
-189.48
-191.54
-192.12
-189.82
-184.41
-176.65
-167.61
-158.63
-151.17
-146.22
-143.99
-143.46
-143.45
-142.99
-141.55
-138.52
-133.60
-126.77
-118.05
-107.24
-93.72
-76.79
-55.48
-32.45
-9.46
12.06
31.08
47.09
60.05
70.38
78.40
84.26
87.80
89.06
87.82
83.76
76.68
66.46
53.25
37.31
19.08
-0.88
-21.55
-41.96
-61.17
-78.25
-92.32
-102.56
-108.23
-108.70
-103.58
-92.57
-75.88
-54.35
-29.40
-2.94
22.69
45.07
61.96
71.84
73.97
68.41
55.97
38.06
16.59
-6.27
-28.44
-48.18
-64.15
-75.73
-83.03
-86.80
-88.15
-88.22
-87.86
-87.53
-87.30
-86.40
-84.09
-79.80
-73.36
-64.88
-54.52
-42.24
-27.82
-10.99
9.80
35.43
65.90
100.11
136.21
172.34
207.21
240.28
271.44
303.71
339.12
378.49
420.88
464.07
505.68
544.19
579.05
610.54
644.15
684.45
734.61
794.51
860.23
924.94
980.89
1021.27
1041.74
1047.31
1043.94
1037.24
1029.06
1016.98
996.62
964.98
922.27
834.20
683.93
470.48
213.64
-53.86
-299.66
-502.52
-654.49
-758.22
-822.75
-849.41
-848.64
-829.93
-801.50
-769.26
-735.95
-700.70
-661.52
-620.24
-576.28
-533.93
-498.46
-473.98
-458.94
-450.56
-444.22
-434.98
-419.21
-392.35
-353.55
-304.14
-249.49
-197.72
-157.28
-133.36
-126.27
-131.72
-140.90
-145.59
-139.83
-122.00
-94.14
-60.28
-23.82
13.31
50.35
87.37
123.42
156.93
185.87
208.85
225.29
235.26
238.25
232.59
215.87
186.57
146.02
98.87
52.02
12.01
-17.20
-35.54
-46.03
-52.45
-57.26
-60.52
-60.43
-54.74
-42.28
-23.85
-2.19
18.65
34.43
41.62
38.54
26.06
7.78
-10.87
-24.49
-29.47
-25.55
-15.96
-7.10
-5.66
-15.54
-35.74
-60.35
-80.56
-88.21
-79.24
-55.44
-25.57
-0.57
10.82
5.05
-16.29
-49.03
-89.06
-133.57
-180.36
-229.74
-281.12
-332.57
-381.20
-424.19
-459.36
-484.63
-496.86
-491.98
-471.00
-439.28
-406.35
-383.22
-378.79
-397.00
-435.73
-487.41
-517.53
-498.10
-416.74
-284.66
-129.27
22.81
156.77
269.26
362.75
440.14
498.50
533.32
542.51
529.36
501.46
468.35
437.82
414.20
397.67
382.38
361.06
328.28
283.06
228.54
171.99
119.32
73.78
36.32
5.00
-22.28
-47.08
-70.47
-93.89
-119.08
-147.06
-175.55
-197.91
-205.86
-193.01
-158.66
-108.99
-54.95
-7.72
25.08
41.62
44.55
37.75
24.24
5.84
-15.20
-35.13
-48.81
-51.97
-43.40
-25.95
-5.60
11.24
20.36
21.15
15.96
8.62
2.60
-0.00
1.37
5.74
11.00
14.18
12.65
5.40
-5.95
-17.34
-23.62
-20.52
-6.53
16.71
44.47
71.42
93.55
109.39
119.95
127.86
136.71
149.17
166.39
185.27
199.66
202.10
186.75
152.46
104.05
52.39
9.65
-13.60
-14.14
5.06
36.65
71.86
102.27
120.04
119.70
96.13
48.07
-24.14
-115.63
-217.69
-319.64
-412.03
-489.55
-549.92
-596.17
-610.46
-578.83
-498.03
-381.21
-250.32
-124.26
-21.94
61.15
128.73
181.32
214.23
222.88
205.02
164.11
109.53
54.27
14.61
-0.21
9.60
32.28
52.43
58.91
49.37
29.01
5.58
-13.86
-28.55
-40.88
-54.89
-72.72
-93.57
-114.48
-132.08
-145.64
-154.04
-159.03
-162.60
-166.23
-170.03
-173.03
-173.81
-171.49
-166.29
-158.51
-149.69
-141.04
-132.81
-124.16
-113.55
-99.26
-79.77
-58.18
-36.83
-18.29
-4.41
4.23
8.27
9.30
9.15
9.38
10.97
15.01
22.00
32.07
45.13
60.73
78.03
95.71
111.88
124.47
132.35
135.10
133.28
128.31
122.00
115.94
111.00
106.84
102.26
96.10
87.57
76.72
64.53
52.50
42.07
33.89
27.68
22.25
16.31
9.14
1.09
-5.99
-8.91
-3.49
14.02
45.06
87.21
133.55
173.77
197.03
195.59
167.52
117.54
55.51
-6.77
-58.74
-93.60
-109.16
-107.06
-91.13
-65.96
-35.82
-4.21
25.94
52.09
72.36
86.05
93.83
98.07
102.35
110.40
125.07
147.37
176.40
209.63
242.91
270.77
287.61
289.70
277.36
255.62
232.67
216.47
210.96
214.06
218.40
214.66
195.83
160.30
112.50
60.83
14.13
-21.72
-45.73
-61.32
-74.10
-89.18
-109.09
-132.59
-155.83
-174.62
-186.42
-191.20
-190.55
-186.04
-177.91
-164.93
-145.26
-117.91
-84.30
-48.70
-17.09
4.97
14.41
12.29
3.38
-5.65
-9.02
-3.89
9.43
28.86
51.64
74.35
92.65
101.37
96.22
76.48
47.22
18.89
3.55
9.27
35.91
74.96
113.47
140.03
149.16
142.07
124.15
100.95
75.43
48.08
18.72
-11.61
-39.84
-61.60
-73.39
-74.08
-65.70
-52.57
-39.17
-28.23
-20.00
-12.62
-3.60
8.25
21.78
33.81
40.62
39.71
31.10
17.37
2.68
-8.91
-14.96
-15.31
-11.71
-6.68
-2.42
0.02
0.73
0.53
0.29
0.36
0.48
0.06
-1.41
-4.01
-7.39
-11.04
-14.49
-17.64
-20.63
-23.75
-27.00
-30.08
-32.44
-33.56
-33.35
-32.26
-31.12
-30.76
-31.66
-33.55
-35.55
-36.54
-35.57
-32.26
-26.94
-20.41
-13.69
-7.64
-2.82
0.63
2.82
4.02
4.52
4.60
4.55
4.69
5.29
6.54
8.45
10.83
13.34
15.55
17.14
17.85
17.60
16.37
14.26
11.40
7.95
4.14
0.13
-3.95
-8.04
-12.11
-16.15
-20.02
-23.56
-26.57
-28.84
-30.20
-30.54
-29.75
-27.80
-24.83
-21.14
-17.12
-13.16
-9.51
-6.17
-3.02
0.03
2.94
5.48
7.38
8.52
9.01
9.23
9.59
10.35
11.47
12.67
13.58
13.87
13.50
12.65
11.69
11.01
10.86
11.30
12.16
13.20
14.14
14.89
15.48
16.08
16.90
18.05
19.54
21.28
23.18
25.22
27.50
30.15
33.31
36.99
40.97
44.86
48.10
50.05
50.18
48.15
43.87
37.58
29.96
22.05
15.09
9.78
5.61
0.51
-8.72
-24.91
-48.53
-76.46
-102.64
-120.11
-124.21
-114.70
-95.72
-73.91
-55.75
-45.71
-45.64
-55.18
-72.02
-91.89
-108.51
-114.63
-104.45
-76.43
-34.91
10.87
50.17
74.98
82.58
75.68
60.20
42.22
25.90
12.95
3.18
-4.29
-10.22
-14.98
-18.54
-20.76
-21.77
-21.94
-21.78
-21.85
-22.60
-24.21
-26.59
-29.65
-33.17
-36.49
-38.39
-37.17
-31.18
-19.46
-2.35
18.01
38.00
53.43
61.06
59.86
51.66
40.43
30.69
25.52
25.38
28.24
31.06
31.55
29.30
25.58
22.15
19.94
18.47
16.41
12.80
7.86
2.90
-0.47
-1.15
0.89
4.60
8.63
11.89
14.13
15.83
17.85
20.82
24.70
28.72
31.66
32.46
30.65
26.66
21.53
16.54
12.72
10.69
10.52
11.95
14.42
17.13
19.09
19.28
17.04
12.53
6.87
1.77
-1.27
-1.73
-0.41
0.89
0.32
-3.18
-9.36
-16.92
-24.28
-30.34
-34.83
-38.26
-41.35
-44.58
-47.98
-51.18
-53.82
-55.83
-57.39
-58.76
-60.00
-60.82
-60.72
-59.26
-56.36
-52.34
-47.82
-43.34
-39.12
-34.99
-30.53
-25.32
-19.21
-12.37
-5.18
1.93
8.63
14.74
20.13
24.77
28.56
31.36
33.06
33.73
33.74
33.86
35.01
37.87
42.64
48.74
55.05
60.28
63.59
64.86
64.82
64.65
65.37
67.53
70.98
75.26
79.79
84.20
88.32
92.07
95.37
98.05
100.11
102.04
104.79
109.41
116.37
125.01
133.89
141.41
146.34
148.20
147.27
144.18
139.47
133.21
124.99
114.81
102.99
89.54
73.28
52.17
24.18
-11.53
-54.08
-101.43
-150.16
-196.77
-239.05
-276.84
-311.10
-343.02
-373.68
-403.72
-433.32
-460.01
-478.35
-481.31
-463.11
-421.65
-360.11
-286.96
-210.29
-142.68
-94.92
-70.98
-65.36
-68.76
-73.97
-76.89
-76.17
-70.86
-60.67
-44.82
-22.61
5.70
38.33
72.67
106.76
139.94
173.07
206.95
242.09
277.54
310.08
334.72
346.81
344.36
328.74
304.06
274.91
245.11
216.87
190.74
166.34
143.58
123.25
106.43
93.47
83.14
73.09
60.77
44.47
24.04
1.08
-21.71
-41.73
-57.50
-69.14
-77.83
-84.85
-90.84
-95.50
-97.95
-97.40
-93.74
-87.92
-81.43
-75.83
-71.96
-69.80
-68.60
-67.38
-65.45
-62.60
-59.06
-55.13
-50.93
-46.26
-40.80
-34.33
-26.92
-19.04
-11.44
-4.87
0.14
3.42
5.17
5.81
5.83
5.72
5.74
5.86
5.87
5.36
4.03
1.82
-0.92
-3.55
-5.34
-5.84
-5.09
-3.61
-2.15
-1.37
-1.55
-2.51
-3.78
-4.90
-5.60
-5.91
-6.04
-6.25
-6.73
-7.47
-8.38
-9.29
-10.01
-10.35
-10.09
-8.99
-6.89
-3.71
0.40
4.97
9.28
12.46
13.82
13.01
10.25
6.32
2.31
-0.56
-1.38
0.27
4.24
9.85
16.12
22.03
26.78
29.92
31.43
31.55
30.63
28.99
26.82
24.25
21.45
18.64
16.14
14.23
13.06
12.60
12.67
13.05
13.58
14.14
14.66
15.11
15.46
15.75
16.08
16.49
16.93
17.24
17.08
16.17
14.31
11.58
8.29
4.99
2.31
0.84
1.01
2.91
6.26
10.40
14.47
17.65
19.41
19.70
18.92
17.70
16.64
16.09
16.14
16.65
17.45
18.39
19.45
20.60
21.72
22.51
22.46
20.94
17.37
11.50
3.54
-5.78
-15.35
-24.02
-30.85
-35.35
-37.52
-37.78
-36.75
-35.08
-33.24
-31.46
-29.63
-27.36
-24.16
-19.68
-13.93
-7.37
-0.67
5.57
11.07
16.02
20.84
25.92
31.23
36.15
39.42
39.43
34.60
23.99
7.86
-12.10
-32.90
-50.97
-63.30
-68.32
-66.37
-59.47
-50.44
-41.98
-35.99
-33.38
-34.22
-38.11
-44.35
-52.11
-60.42
-68.34
-75.00
-79.86
-82.63
-83.25
-81.76
-78.23
-72.71
-65.24
-55.99
-45.22
-33.41
-21.27
-9.70
0.30
7.83
12.36
13.87
12.89
10.35
7.36
5.01
4.05
4.78
6.97
9.96
12.85
14.80
15.30
14.20
11.73
8.25
4.09
-0.56
-5.59
-10.82
-15.96
-20.58
-24.28
-26.84
-28.26
-28.78
-28.72
-28.42
-28.10
-27.83
-27.49
-26.82
-25.44
-23.03
-19.52
-15.24
-10.92
-7.48
-5.59
-5.34
-6.15
-6.91
-6.56
-4.54
-1.03
3.23
7.37
10.78
13.29
15.11
16.51
17.70
18.67
19.36
19.71
19.74
19.51
19.10
18.57
17.99
17.47
17.01
16.46
15.47
13.59
10.41
5.69
-0.52
-7.90
-15.79
-23.24
-29.06
-32.11
-31.64
-27.72
-21.30
-14.00
-7.64
-3.54
-2.21
-3.26
-5.66
-8.21
-9.85
-9.94
-8.46
-6.25
-5.06
-7.35
-15.71
-31.98
-56.43
-87.41
-121.51
-154.24
-181.05
-198.12
-202.99
-194.96
-175.24
-146.66
-113.19
-78.93
-47.17
-19.77
2.70
20.46
33.83
42.91
47.83
49.25
48.61
47.87
48.85
52.40
58.14
64.72
70.49
74.22
75.51
74.66
72.36
69.19
65.50
61.35
56.77
51.90
47.11
42.91
39.73
37.70
36.54
35.69
34.54
32.68
30.01
26.76
23.26
19.79
16.43
13.15
9.85
6.57
3.45
0.74
-1.37
-2.88
-4.05
-5.27
-6.95
-9.35
-12.38
-15.63
-18.37
-19.70
-18.83
-15.36
-9.45
-1.95
5.85
12.59
17.35
19.89
20.70
20.63
20.53
20.79
21.34
21.75
21.63
20.88
19.75
18.69
18.05
17.83
17.71
17.12
15.55
12.82
8.97
4.37
-0.51
-5.09
-8.69
-10.63
-10.39
-7.89
-3.73
0.88
4.42
5.67
4.11
0.23
-4.69
-9.08
-11.55
-11.38
-8.59
-3.83
1.99
8.03
13.75
18.95
23.73
28.18
32.33
36.03
39.03
41.18
42.46
43.02
43.01
42.40
40.97
38.35
34.23
28.57
21.71
14.30
7.05
0.50
-5.05
-9.55
-13.01
-15.43
-16.72
-16.83
-15.86
-14.15
-12.20
-10.54
-9.53
-9.30
-9.74
-10.54
-11.22
-11.19
-9.82
-6.61
-1.34
5.74
13.95
22.35
30.01
36.17
40.37
42.41
42.24
40.00
36.00
30.84
25.41
20.72
17.64
16.65
17.66
20.04
22.82
24.97
25.70
24.62
21.75
17.38
11.96
6.02
0.04
-5.49
-10.14
-13.47
-15.19
-15.12
-13.28
-9.89
-5.34
-0.18
4.94
9.47
13.00
15.38
16.56
16.55
15.29
12.73
8.94
4.32
-0.28
-3.75
-5.04
-3.53
0.62
6.52
12.70
17.70
20.48
20.70
18.79
15.62
12.14
9.02
6.42
4.08
1.58
-1.41
-4.90
-8.60
-12.01
-14.48
-15.39
-14.28
-11.03
-6.02
-0.16
5.20
8.59
8.92
5.86
-0.09
-7.78
-15.91
-23.55
-30.38
-36.61
-42.63
-48.58
-54.17
-58.84
-62.03
-63.61
-64.02
-64.09
-64.57
-65.67
-66.89
-67.18
-65.48
-61.22
-54.59
-46.54
-38.40
-31.38
-26.17
-22.75
-20.52
-18.55
-15.97
-12.21
-7.16
-1.16
5.16
11.14
16.31
20.51
23.85
26.60
29.01
31.22
33.33
35.36
37.33
39.20
40.86
42.02
42.34
41.43
39.08
35.28
30.34
24.78
19.26
14.45
10.80
8.49
7.28
6.59
5.62
3.63
0.21
-4.63
-10.42
-16.42
-21.81
-25.90
-28.15
-28.22
-25.99
-21.62
-15.57
-8.59
-1.57
4.63
9.47
12.83
14.92
16.14
16.89
17.36
17.57
17.43
16.89
16.02
15.06
14.27
13.93
14.15
14.87
15.77
16.41
16.36
15.28
13.06
9.89
6.19
2.47
-0.86
-3.68
-6.18
-8.71
-11.63
-15.02
-18.62
-21.80
-23.81
-23.96
-21.86
-17.50
-11.32
-4.07
3.30
9.87
14.91
18.07
19.48
19.63
19.17
18.69
18.51
18.61
18.78
18.73
18.32
17.60
16.75
15.95
15.18
14.23
12.76
10.56
7.75
4.85
2.62
1.75
2.58
4.92
8.12
11.38
13.96
15.40
15.50
14.33
12.20
9.68
7.59
6.81
8.00
11.32
16.23
21.76
26.74
30.27
31.96
31.92
30.57
28.49
26.14
23.92
22.09
20.84
20.23
20.12
20.25
20.14
19.34
17.42
14.14
9.48
3.70
-2.72
-9.21
-15.26
-20.50
-24.75
-28.07
-30.67
-32.84
-34.84
-36.90
-39.15
-41.69
-44.55
-47.59
-50.46
-52.58
-53.06
-50.98
-45.62
-36.93
-25.78
-13.87
-3.26
4.25
7.58
6.83
3.22
-1.34
-5.22
-7.68
-9.06
-10.47
-13.22
-18.28
-25.64
-34.07
-41.41
-45.74
-46.32
-43.97
-40.71
-39.17
-41.64
-48.83
-59.09
-68.83
-74.06
-71.87
-61.09
-42.29
-18.10
6.71
25.81
32.93
24.07
-0.97
-37.45
-76.20
-106.00
-116.71
-104.52
-74.55
-38.67
-5.67
21.99
47.37
74.04
104.29
137.02
167.87
191.50
204.29
205.99
198.79
185.79
169.66
152.08
133.37
113.20
91.65
70.06
50.96
36.52
27.56
23.08
20.94
18.54
13.89
6.50
-2.32
-9.97
-14.09
-13.62
-9.21
-2.73
3.35
6.84
6.63
2.92
-2.89
-9.08
-14.23
-17.64
-19.40
-20.14
-20.70
-21.61
-22.84
-23.91
-24.20
-23.38
-21.64
-19.71
-18.58
-19.20
-22.06
-26.98
-33.18
-39.49
-44.76
-48.30
-50.06
-50.58
-50.66
-50.84
-51.04
-50.45
-47.98
-42.73
-34.55
-24.04
-12.27
-0.24
11.56
23.18
35.00
47.51
61.15
76.32
93.24
111.56
129.90
145.77
156.03
157.89
150.07
133.35
110.33
84.44
58.82
35.41
14.90
-2.81
-18.09
-31.21
-42.39
-51.99
-60.57
-68.81
-77.23
-85.89
-94.19
-101.03
-105.16
-105.69
-102.40
-95.87
-87.25
-77.80
-68.51
-59.85
-51.88
-44.44
-37.46
-31.03
-25.38
-20.72
-17.09
-14.35
-12.29
-10.77
-9.91
-10.06
-11.78
-15.57
-21.66
-29.70
-38.65
-47.04
-53.32
-56.45
-56.19
-53.20
-48.62
-43.59
-38.77
-34.27
-29.75
-24.76
-18.95
-12.08
-4.02
5.35
16.05
27.72
39.46
49.81
56.85
58.54
52.97
38.76
15.50
-15.89
-52.92
-91.63
-127.24
-155.20
-172.28
-177.32
-171.27
-156.66
-136.56
-113.80
-90.44
-67.89
-47.19
-29.32
-15.29
-5.95
-1.68
-2.12
-6.22
-12.36
-18.82
-24.18
-27.59
-28.82
-28.13
-25.92
-22.41
-17.53
-10.99
-2.56
7.61
18.93
30.53
41.49
51.23
59.61
66.89
73.35
79.13
84.04
87.70
89.72
90.02
88.79
86.44
83.31
79.48
74.78
69.01
62.18
54.78
47.71
42.02
38.52
37.52
38.63
41.00
43.57
45.51
46.38
46.24
45.42
44.31
43.15
41.95
40.61
39.02
37.40
36.27
36.56
39.42
45.84
56.26
69.95
84.71
96.86
101.91
95.64
75.58
42.06
-1.55
-49.47
-95.04
-132.42
-157.90
-170.56
-171.97
-165.35
-154.41
-142.36
-131.23
-121.61
-112.95
-104.04
-93.66
-81.12
-66.36
-49.95
-32.73
-15.52
1.08
16.72
31.27
44.72
57.11
68.50
78.86
88.04
95.77
101.63
105.21
106.25
104.77
101.19
96.31
91.17
86.77
83.85
82.66
82.82
83.48
83.33
81.05
75.51
66.18
53.26
37.78
21.38
5.96
-6.71
-15.48
-20.05
-21.15
-20.41
-20.02
-22.24
-28.75
-40.15
-55.49
-72.33
-87.12
-96.18
-96.85
-88.56
-73.37
-55.50
-40.09
-31.32
-30.78
-37.03
-46.21
-53.73
-55.89
-50.91
-39.06
-21.95
-1.78
19.25
38.98
55.40
66.80
72.20
71.87
67.41
61.28
55.86
52.65
51.77
52.20
52.44
51.36
48.57
44.45
39.74
35.01
30.35
25.44
20.03
14.25
8.84
4.86
3.21
4.15
7.03
10.53
13.04
13.27
10.43
4.46
-3.84
-12.83
-20.18
-23.58
-21.65
-14.83
-5.59
2.22
4.88
0.44
-10.40
-24.48
-37.64
-46.39
-49.18
-46.67
-40.92
-34.25
-28.26
-23.52
-19.84
-16.82
-14.30
-12.41
-11.28
-10.65
-9.67
-7.12
-2.03
5.81
15.62
25.87
34.85
41.33
44.89
45.93
45.28
43.77
41.93
39.89
37.51
34.65
31.38
28.10
25.44
24.05
24.40
26.64
30.64
35.99
42.09
48.07
52.74
54.66
52.48
45.30
33.03
16.54
-2.41
-21.70
-39.39
-54.17
-65.60
-73.85
-79.41
-82.72
-84.02
-83.34
-80.69
-76.25
-70.42
-63.76
-56.83
-50.06
-43.68
-37.69
-31.80
-25.68
-18.98
-11.63
-3.92
3.72
10.99
17.85
24.43
30.56
35.57
38.46
38.62
36.39
33.32
31.46
32.18
35.28
38.97
40.77
38.98
33.59
26.12
18.63
12.50
7.68
2.94
-3.18
-11.39
-21.18
-31.08
-39.57
-45.75
-49.81
-52.65
-55.30
-58.22
-61.19
-63.52
-64.67
-64.53
-63.43
-61.75
-59.55
-56.52
-52.26
-46.62
-39.87
-32.54
-25.13
-17.73
-10.14
-2.07
6.51
15.22
23.52
30.90
37.24
42.65
47.28
50.93
53.04
52.85
49.80
43.87
35.64
26.13
16.42
7.36
-0.62
-7.42
-13.09
-17.75
-21.43
-24.10
-25.68
-26.03
-24.98
-22.42
-18.33
-12.87
-6.45
0.40
7.11
13.10
17.91
21.16
22.55
21.93
19.45
15.51
10.88
6.44
2.98
1.05
0.77
1.89
3.90
6.16
8.05
9.13
9.16
8.18
6.52
4.57
2.70
0.96
-0.89
-3.31
-6.57
-10.58
-14.81
-18.44
-20.68
-21.05
-19.48
-16.29
-12.04
-7.31
-2.68
1.38
4.52
6.57
7.66
8.12
8.29
8.31
7.92
6.49
3.22
-2.41
-10.32
-19.51
-28.33
-34.93
-38.01
-37.32
-33.85
-29.39
-25.62
-23.24
-21.50
-18.53
-12.30
-1.82
12.25
27.74
41.86
52.42
58.71
61.55
62.77
64.48
68.33
75.44
86.45
101.53
120.17
140.59
159.24
171.29
171.86
157.86
129.36
90.01
45.73
2.79
-34.30
-63.64
-85.47
-100.95
-110.93
-115.53
-114.76
-109.22
-100.56
-91.27
-83.72
-79.27
-77.80
-77.97
-77.93
-76.18
-72.15
-66.19
-59.18
-51.91
-44.59
-36.77
-27.63
-16.44
-2.98
12.20
28.07
43.47
57.63
70.25
81.33
90.79
98.06
102.04
101.22
94.17
79.94
58.40
30.29
-2.86
-38.79
-74.73
-107.54
-134.07
-151.72
-159.07
-156.21
-144.81
-127.64
-107.85
-88.22
-70.81
-56.87
-47.00
-41.30
-39.39
-40.39
-43.10
-46.68
-51.36
-58.73
-70.99
-89.26
-111.82
-133.60
-147.31
-146.17
-126.85
-90.94
-44.49
4.53
49.03
84.92
111.34
129.54
141.32
148.08
150.73
150.14
147.64
144.78
142.56
140.58
136.55
126.80
107.51
76.38
33.58
-18.37
-75.74
-134.77
-192.04
-243.98
-286.04
-312.86
-319.49
-303.69
-267.50
-217.14
-160.87
-105.89
-56.14
-11.93
28.32
65.79
99.99
128.90
150.36
163.54
169.45
170.30
168.39
165.30
161.81
158.44
156.03
155.94
159.52
167.37
178.84
192.12
204.92
215.37
222.65
227.01
229.09
229.05
225.86
217.29
200.75
174.62
139.70
99.84
61.31
30.96
13.62
9.94
15.75
23.21
23.60
10.76
-16.33
-52.70
-88.69
-113.10
-116.86
-96.15
-53.65
2.38
60.57
109.78
141.74
152.31
141.36
111.58
67.15
12.93
-46.04
-104.85
-159.22
-206.23
-244.62
-274.68
-297.70
-315.25
-328.85
-340.00
-350.34
-361.31
-373.40
-385.26
-393.51
-393.62
-381.44
-355.00
-315.15
-265.09
-209.07
-151.10
-94.53
-42.37
2.11
35.79
56.56
64.71
63.43
58.13
54.53
56.51
64.81
76.98
88.83
96.08
96.21
89.49
79.13
70.66
70.48
83.83
112.77
155.02
204.21
251.65
289.03
310.97
316.30
307.91
291.28
272.31
255.51
242.61
232.22
220.47
202.32
173.42
131.80
78.65
17.82
-45.26
-105.45
-159.18
-204.86
-242.83
-274.85
-303.82
-333.11
-365.38
-400.98
-436.72
-466.13
-481.59
-477.59
-453.35
-413.52
-366.25
-319.82
-279.59
-246.45
-218.08
-191.17
-163.52
-134.59
-104.72
-73.94
-41.35
-5.59
34.58
78.90
125.28
170.00
209.10
239.72
261.01
274.15
281.63
286.83
292.88
302.14
315.88
334.17
355.73
378.19
398.68
410.12
406.78
385.93
349.38
302.97
253.78
207.12
165.22
127.94
94.15
63.43
35.77
11.18
-10.61
-30.14
-48.06
-64.70
-79.84
-92.41
-99.90
-99.35
-88.83
-69.15
-44.59
-21.87
-7.56
-5.27
-14.25
-29.61
-45.09
-55.87
-60.31
-59.76
-57.00
-54.14
-51.75
-49.18
-45.47
-40.43
-34.93
-30.33
-27.79
-27.38
-27.98
-27.73
-24.96
-18.92
-10.21
-0.57
7.78
13.06
14.48
12.52
8.54
4.10
0.39
-2.11
-3.49
-3.98
-3.54
-1.70
2.23
8.76
17.61
27.59
36.79
43.29
45.70
43.75
38.04
29.94
21.03
12.68
5.73
0.41
-3.47
-6.38
-8.85
-11.30
-13.81
-16.28
-18.49
-20.23
-21.48
-22.32
-22.88
-23.36
-23.86
-24.32
-24.51
-24.19
-23.11
-21.27
-18.93
-16.46
-14.30
-12.85
-12.11
-11.79
-11.53
-11.06
-10.26
-9.10
-7.51
-5.54
-3.52
-1.69
-0.33
0.12
-1.03
-4.35
-9.72
-16.10
-21.86
-25.60
-26.19
-23.36
-18.09
-12.48
-9.76
-12.84
-23.00
-39.27
-58.67
-75.73
-83.91
-77.70
-54.20
-14.37
37.98
97.79
160.60
218.11
259.59
277.51
271.64
249.67
221.74
196.55
178.69
170.79
168.12
165.16
158.92
149.62
141.09
134.71
129.69
123.79
115.58
103.89
86.22
62.63
36.89
18.15
10.13
12.89
23.75
40.31
60.07
76.03
83.03
79.97
73.76
63.83
46.14
15.09
-31.54
-93.58
-175.66
-278.97
-398.11
-515.68
-622.59
-713.96
-788.16
-842.32
-829.58
-725.70
-543.78
-371.96
-231.60
-123.96
-32.64
43.89
104.37
146.39
160.97
142.74
102.39
61.74
32.00
16.19
10.71
12.38
18.61
21.97
16.98
2.90
-11.92
-24.25
-31.72
-32.04
-20.63
5.63
42.00
79.96
110.85
132.06
141.01
138.51
127.81
114.47
102.92
93.20
83.88
73.58
65.13
60.24
59.76
62.76
68.05
74.21
79.49
83.78
88.36
95.68
105.96
116.10
119.60
109.93
83.32
40.75
-11.41
-64.26
-108.82
-139.12
-150.52
-144.94
-127.84
-105.01
-82.34
-61.67
-45.53
-36.82
-37.56
-47.65
-64.30
-82.05
-95.07
-100.87
-100.34
-99.58
-106.00
-122.12
-146.62
-175.21
-202.15
-222.62
-233.87
-234.66
-225.73
-208.06
-182.46
-150.36
-114.30
-77.65
-44.02
-16.39
4.15
18.32
28.99
40.13
55.09
75.41
100.73
129.22
158.44
186.51
212.27
235.78
257.98
280.06
303.12
327.60
352.23
373.31
384.98
380.81
356.69
313.25
256.34
195.22
139.17
94.06
60.90
36.63
16.65
-2.76
-23.15
-44.19
-64.51
-82.43
-96.27
-104.31
-105.08
-98.11
-84.44
-66.48
-47.13
-28.58
-11.42
5.45
24.06
46.35
73.23
104.19
137.27
169.32
196.41
214.44
220.02
211.59
190.14
159.13
123.50
88.15
56.47
30.08
9.57
-4.37
-10.31
-6.49
7.74
30.63
57.43
81.12
93.97
89.27
63.08
15.79
-46.86
-114.04
-171.57
-205.04
-204.18
-166.53
-99.15
-17.36
59.14
111.65
127.64
104.34
49.65
-19.72
-83.06
-122.09
-126.92
-99.34
-52.17
-4.29
26.14
27.89
-0.37
-50.53
-108.60
-159.49
-191.27
-197.86
-179.55
-142.09
-94.78
-48.28
-12.20
6.59
4.92
-16.21
-51.90
-94.42
-134.76
-164.90
-179.98
-179.69
-168.27
-152.62
-139.62
-133.27
-133.38
-136.20
-136.50
-129.80
-114.16
-90.56
-62.11
-32.58
-4.86
19.66
40.99
60.18
78.53
96.81
114.44
129.13
137.37
136.55
126.25
109.32
91.35
78.57
75.24
81.68
93.98
105.96
113.05
113.47
108.14
98.93
86.78
71.08
50.75
25.98
-0.21
-20.47
-27.00
-15.22
13.43
52.00
91.04
122.74
143.25
153.33
158.62
164.93
175.56
190.62
208.62
228.38
249.67
271.77
279.15
258.86
205.78
128.35
44.76
-26.83
-75.96
-101.34
-108.66
-105.56
-95.67
-78.67
-54.07
-23.65
8.22
35.58
53.27
58.00
50.56
37.05
24.07
16.08
12.07
8.72
1.82
-11.30
-31.70
-56.33
-77.74
-88.45
-82.30
-58.11
-18.54
30.98
87.76
141.86
181.14
197.12
187.59
159.21
117.90
68.79
15.92
-37.80
-93.59
-152.96
-207.87
-252.95
-282.97
-299.70
-308.02
-313.15
-319.27
-331.97
-352.91
-379.47
-407.40
-429.12
-443.37
-451.69
-455.57
-432.72
-368.95
-262.01
-123.64
7.17
123.94
226.28
313.21
386.34
441.75
471.98
473.04
447.36
404.09
360.35
329.03
317.29
324.95
343.74
358.53
355.65
328.44
279.37
220.44
162.33
112.40
73.83
45.82
24.85
8.37
-4.16
-11.98
-13.16
-9.35
-4.30
-1.53
-3.07
-9.14
-17.72
-25.50
-29.39
-27.02
-19.05
-7.90
3.74
13.84
21.53
27.17
31.72
36.00
40.36
43.93
45.17
42.80
36.20
25.71
12.45
-2.20
-16.99
-31.10
-44.16
-56.11
-66.89
-76.31
-84.02
-89.63
-92.84
-93.58
-92.10
-88.84
-84.37
-79.28
-74.08
-69.22
-65.07
-61.98
-60.26
-60.13
-61.64
-64.67
-68.96
-74.17
-80.05
-86.44
-93.41
-101.02
-109.26
-117.83
-126.09
-133.12
-137.91
-139.64
-137.82
-132.44
-123.85
-112.56
-99.06
-83.78
-67.17
-49.94
-33.29
-19.00
-9.13
-5.58
-9.61
-21.39
-40.03
-64.00
-91.56
-121.35
-152.46
-184.39
-216.99
-250.80
-287.27
-328.66
-376.99
-432.06
-489.95
-543.07
-582.00
-598.93
-590.76
-559.98
-513.26
-458.46
-402.14
-348.63
-300.47
-259.18
-225.32
-197.63
-172.52
-144.72
-109.33
-64.21
-11.32
44.18
96.40
141.03
177.06
206.79
234.59
265.08
301.02
341.68
382.19
414.50
429.87
422.37
391.53
342.36
283.52
223.80
169.09
121.40
79.69
41.52
4.23
-34.74
-77.88
-126.81
-180.65
-234.61
-280.15
-307.48
-309.28
-283.84
-236.11
-175.83
-113.86
-58.68
-14.28
19.80
46.90
71.78
99.30
133.61
177.06
228.62
282.71
329.89
359.74
364.69
343.31
301.30
249.19
198.04
155.03
121.11
91.42
58.25
14.83
-41.64
-108.56
-178.70
-242.20
-289.40
-313.82
-313.91
-293.29
-258.97
-218.74
-178.94
-143.62
-114.83
-93.63
-80.72
-76.55
-80.66
-91.14
-104.82
-118.33
-129.32
-137.12
-142.43
-146.51
-150.10
-152.73
-152.82
-148.31
-137.66
-120.57
-98.29
-73.22
-48.10
-25.00
-4.76
13.10
30.04
47.73
67.60
90.58
116.62
144.58
172.66
198.90
221.57
239.47
251.82
258.11
258.36
252.51
240.33
221.57
196.32
165.45
130.74
94.68
59.99
30.01
6.89
-9.04
-19.28
-26.32
-32.46
-39.03
-46.15
-53.01
-55.77
-51.60
-40.15
-23.55
-5.02
13.22
30.77
48.99
70.38
103.53
155.67
229.71
322.53
426.00
529.01
619.31
685.97
721.82
734.86
736.85
737.83
741.76
747.32
750.88
748.67
737.97
716.66
695.51
682.94
681.39
687.18
696.18
707.87
724.59
748.00
711.89
578.26
349.19
69.31
-206.31
-441.37
-624.09
-758.35
-848.42
-911.22
-945.54
-948.40
-920.82
-871.20
-810.61
-748.10
-689.10
-635.77
-590.27
-544.77
-495.51
-443.49
-395.54
-359.08
-338.56
-333.98
-340.47
-352.29
-356.96
-346.15
-315.01
-271.40
-225.75
-188.03
-164.12
-153.49
-154.12
-149.18
-135.96
-115.60
-90.96
-63.38
-31.89
-5.20
14.28
25.42
29.50
26.79
19.02
7.93
-4.20
-15.27
-23.70
-27.06
-24.66
-16.84
-5.56
7.92
22.45
37.43
52.48
67.27
82.56
98.09
112.81
125.66
135.70
141.81
143.32
140.44
134.46
128.08
123.47
121.81
125.51
135.36
150.23
168.05
187.24
207.63
230.27
255.87
284.18
318.27
358.86
403.97
449.92
493.47
533.29
569.69
603.61
635.62
670.22
706.71
737.69
751.29
736.59
688.71
611.13
514.25
377.82
204.34
13.99
-164.25
-308.45
-411.46
-477.03
-512.13
-523.55
-517.62
-495.49
-461.02
-420.80
-382.05
-349.43
-324.08
-303.38
-284.89
-267.75
-249.28
-230.44
-215.77
-211.57
-222.83
-251.96
-296.59
-350.08
-402.64
-441.28
-457.08
-449.18
-426.00
-395.90
-372.81
-368.38
-387.88
-428.73
-480.89
-532.15
-571.37
-590.34
-584.07
-551.62
-494.82
-418.90
-331.89
-242.59
-158.74
-85.25
-23.37
28.51
72.79
112.72
151.31
190.82
232.21
274.87
316.88
355.60
388.54
413.47
429.39
436.40
435.34
427.21
412.99
393.71
370.94
347.15
325.75
311.14
308.13
321.19
353.24
404.38
471.28
547.28
623.57
690.79
740.98
768.50
770.47
746.42
697.64
626.79
537.77
435.60
326.17
215.59
109.44
12.11
-73.69
-146.81
-207.37
-256.26
-294.78
-324.31
-346.19
-361.72
-372.21
-379.19
-384.37
-389.53
-396.58
-407.37
-423.51
-445.65
-472.72
-501.45
-526.67
-542.56
-544.21
-529.15
-497.98
-453.85
-401.36
-345.25
-289.62
-237.61
-191.45
-152.43
-120.88
-96.07
-76.43
-60.05
-45.34
-31.54
-18.78
-7.81
0.45
5.45
7.27
6.75
5.31
4.64
6.14
10.74
18.65
29.51
42.73
57.72
74.15
91.71
109.94
127.93
144.28
157.26
165.08
166.33
160.17
146.60
126.33
100.79
71.81
41.47
11.90
-15.01
-37.54
-54.31
-64.18
-66.33
-60.31
-46.18
-24.69
2.64
33.42
64.71
93.17
115.60
129.52
133.58
127.87
113.76
93.55
69.91
45.41
22.26
2.21
-13.34
-23.30
-26.85
-23.67
-13.94
1.47
21.19
43.46
66.38
88.09
106.85
121.18
129.86
132.00
127.12
115.26
96.86
72.82
44.28
12.57
-20.93
-54.84
-87.74
-118.28
-145.11
-166.92
-182.48
-190.75
-191.02
-183.08
-167.30
-144.55
-116.16
-83.81
-49.39
-15.02
17.00
44.40
65.12
77.75
81.70
77.29
65.65
48.53
28.16
6.94
-12.67
-28.53
-39.05
-43.31
-41.16
-33.01
-19.60
-1.88
19.07
42.02
65.56
88.06
107.82
123.31
133.40
137.58
135.91
129.09
118.23
104.69
89.79
74.66
60.16
46.91
35.40
26.03
19.28
15.74
15.93
20.02
27.66
37.76
48.78
59.32
68.77
77.71
87.70
100.59
117.21
136.63
155.80
170.31
175.47
167.42
143.87
103.79
47.68
-22.83
-104.64
-193.17
-282.63
-367.11
-442.21
-506.00
-558.77
-601.22
-632.95
-651.71
-654.49
-639.70
-608.92
-567.29
-521.59
-477.68
-438.13
-401.67
-364.40
-321.91
-271.05
-210.63
-141.16
-63.97
19.22
106.35
194.10
277.35
349.24
401.93
428.93
427.57
400.63
355.87
303.70
253.74
211.92
179.56
154.31
132.97
114.08
99.19
92.16
97.13
116.19
147.99
187.91
229.27
265.43
291.59
305.77
308.28
300.59
284.30
260.62
230.87
196.70
160.56
125.36
93.74
67.28
46.23
30.02
18.16
11.14
9.66
14.49
26.20
45.02
70.45
100.84
133.23
163.53
187.67
201.49
202.28
190.31
169.04
143.85
119.89
100.29
85.39
73.90
61.97
44.90
18.85
-17.93
-64.95
-119.92
-179.18
-240.75
-295.57
-332.81
-345.69
-335.21
-308.34
-274.02
-240.20
-212.22
-192.12
-175.73
-158.07
-134.84
-103.76
-65.43
-23.48
16.87
51.43
74.58
85.52
85.98
79.00
67.58
54.09
40.30
27.90
18.77
14.57
16.82
24.69
35.27
44.92
50.61
51.07
46.91
40.04
32.72
27.30
24.77
24.86
26.67
29.33
32.42
35.85
39.51
42.83
44.97
44.46
39.93
30.82
17.79
2.66
-12.23
-24.93
-34.40
-40.40
-43.48
-44.45
-44.06
-42.94
-41.55
-40.27
-39.38
-38.98
-38.85
-38.61
-37.76
-35.84
-32.64
-28.20
-22.99
-17.73
-13.21
-9.96
-8.05
-7.07
-6.35
-5.36
-3.84
-1.99
-0.16
1.35
2.50
3.46
4.54
5.88
7.38
8.84
10.09
11.25
12.73
15.06
18.58
23.26
28.67
34.06
38.76
42.30
44.55
45.64
45.84
45.47
44.90
44.50
44.55
45.18
46.30
47.72
49.24
50.90
52.97
55.89
59.99
65.36
71.72
78.56
85.34
91.67
97.37
102.45
107.02
111.04
114.27
116.13
115.63
111.45
102.20
86.80
64.76
36.50
3.20
-33.38
-71.49
-109.60
-146.41
-180.61
-210.73
-235.40
-253.91
-266.92
-276.36
-284.75
-293.69
-302.59
-308.41
-306.79
-294.24
-270.00
-236.66
-198.98
-162.02
-129.46
-102.55
-80.43
-61.14
-42.97
-25.23
-8.30
7.17
20.24
29.44
33.33
31.08
22.98
10.39
-4.84
-20.89
-35.58
-47.99
-59.25
-71.75
-87.57
-106.99
-127.98
-146.74
-158.78
-158.82
-143.97
-115.85
-79.25
-39.46
0.13
39.06
79.18
123.49
176.31
239.67
310.14
380.63
443.37
492.67
525.80
542.39
530.82
485.66
413.52
329.14
247.29
175.99
117.19
69.71
31.55
-1.69
-29.57
-50.08
-65.44
-79.81
-97.85
-122.72
-155.62
-196.75
-237.40
-269.81
-275.77
-246.66
-183.84
-98.07
-3.72
87.93
171.32
245.45
309.62
368.11
419.27
459.35
485.32
496.78
495.94
486.04
468.88
445.76
417.24
380.40
332.38
272.13
201.06
123.46
45.11
-28.18
-92.20
-144.78
-187.81
-224.47
-257.58
-289.49
-319.90
-346.45
-365.69
-375.14
-374.29
-365.90
-354.42
-344.90
-344.89
-359.62
-390.07
-432.24
-478.14
-517.37
-539.75
-537.90
-509.97
-465.40
-417.74
-380.21
-361.73
-365.71
-390.49
-430.93
-480.59
-532.99
-587.61
-641.54
-687.48
-715.49
-717.81
-692.61
-644.85
-584.36
-486.45
-348.48
-187.81
-33.64
89.77
173.00
219.06
236.73
235.54
220.97
194.80
159.78
121.98
89.67
70.02
66.68
79.85
107.74
147.28
190.25
230.01
263.90
292.38
316.78
337.55
354.06
365.36
370.83
368.10
356.47
337.68
314.94
291.29
268.35
246.15
223.78
200.00
172.68
140.56
103.95
64.33
23.59
-16.64
-55.17
-91.14
-123.91
-153.26
-178.91
-200.27
-216.56
-227.14
-231.69
-230.25
-223.17
-211.00
-194.37
-174.01
-150.63
-124.91
-97.44
-68.70
-39.08
-8.91
21.60
52.20
82.48
111.91
139.69
164.71
185.97
202.30
212.41
215.15
209.71
195.81
174.00
145.49
111.89
75.46
38.35
2.44
-30.79
-60.21
-84.88
-103.99
-116.93
-123.45
-123.00
-115.71
-102.53
-85.15
-65.47
-45.06
-24.76
-4.78
14.97
36.72
61.97
90.87
122.20
154.08
185.12
215.05
244.35
273.63
307.31
348.02
395.54
446.77
497.37
544.07
585.92
623.83
659.48
701.31
755.43
823.20
900.11
977.38
1045.39
1096.72
1127.46
1137.45
1138.65
1142.39
1154.64
1172.97
1188.41
1190.87
1174.11
1137.76
1030.52
828.13
535.72
190.43
-155.65
-459.61
-699.98
-873.92
-989.02
-1057.01
-1081.82
-1069.31
-1028.75
-972.99
-915.27
-864.99
-825.57
-795.83
-772.68
-746.45
-710.60
-663.45
-608.79
-553.41
-503.46
-462.21
-430.00
-405.32
-381.77
-354.17
-320.08
-280.74
-239.73
-200.91
-166.86
-138.71
-116.45
-97.96
-81.54
-66.34
-52.81
-41.99
-34.61
-30.72
-29.79
-30.99
-33.00
-34.55
-34.70
-33.07
-29.62
-24.49
-17.83
-9.75
-0.36
9.83
20.37
30.77
40.54
49.24
56.67
62.73
67.51
71.21
73.69
75.07
75.61
75.68
75.59
75.49
75.03
73.35
71.66
69.93
67.95
65.50
62.39
58.48
53.68
47.98
41.55
34.81
27.97
21.33
15.10
9.22
3.38
-2.92
-10.10
-18.26
-27.01
-35.81
-43.64
-49.41
-52.28
-51.96
-48.89
-44.05
-38.67
-33.74
-30.07
-27.88
-27.02
-27.15
-27.89
-28.87
-29.60
-29.47
-27.82
-24.41
-19.56
-14.39
-10.60
-10.00
-13.95
-22.95
-36.32
-52.38
-68.90
-83.72
-95.02
-101.68
-103.27
-99.93
-92.38
-81.85
-70.09
-58.97
-49.87
-43.14
-37.96
-32.86
-26.62
-19.00
-10.70
-2.80
4.40
11.82
21.30
34.38
51.30
70.53
89.35
105.09
116.12
122.33
124.74
124.60
122.66
119.06
113.60
106.13
97.10
87.46
78.24
70.09
62.85
55.53
46.71
35.05
19.97
1.97
-17.40
-36.09
-52.25
-65.09
-75.21
-84.49
-95.40
-110.07
-129.33
-152.35
-176.72
-199.20
-216.65
-226.90
-229.15
-224.02
-213.11
-198.47
-182.11
-165.71
-150.52
-137.38
-126.85
-119.01
-113.51
-109.46
-105.67
-100.99
-94.70
-86.70
-77.34
-67.07
-56.12
-44.43
-31.84
-18.45
-4.87
7.84
18.47
26.17
30.69
32.59
32.89
32.70
32.75
33.12
33.22
32.09
28.77
22.74
14.29
4.43
-5.27
-13.22
-18.23
-19.86
-18.34
-14.37
-8.76
-2.29
4.48
11.07
17.19
22.60
27.33
31.57
35.74
40.19
45.16
50.60
56.22
61.56
66.04
69.05
70.01
68.45
64.15
57.16
47.79
36.46
23.69
10.09
-3.57
-16.39
-27.55
-36.63
-43.77
-49.59
-54.75
-59.42
-62.96
-64.23
-62.15
-56.53
-48.39
-39.69
-32.56
-28.36
-27.10
-27.68
-28.50
-28.30
-26.62
-23.79
-20.35
-16.55
-12.16
-6.68
0.11
7.76
15.14
20.88
24.03
24.57
23.41
21.86
20.99
21.10
21.81
22.36
22.20
21.31
20.09
18.90
17.77
16.39
14.58
12.75
12.10
14.22
20.26
30.07
42.02
53.45
61.67
64.92
62.87
56.47
47.29
36.83
26.06
15.52
5.64
-2.94
-9.37
-12.88
-13.13
-10.50
-5.98
-0.80
4.00
7.86
10.54
11.91
11.74
9.67
5.49
-0.57
-7.78
-14.94
-20.89
-24.74
-26.20
-25.48
-23.29
-20.43
-17.55
-14.86
-11.96
-8.15
-2.79
4.17
11.95
19.07
24.04
26.08
25.56
23.76
22.25
22.16
23.76
26.58
29.71
32.51
34.84
37.04
39.55
42.53
45.59
48.00
48.93
47.77
44.48
39.83
35.20
32.07
31.38
32.89
35.19
36.20
33.57
26.24
15.26
3.41
-6.27
-11.93
-13.93
-14.44
-15.82
-20.09
-27.51
-36.80
-46.48
-56.00
-65.46
-74.38
-80.65
-81.35
-76.60
-70.26
-69.10
-79.54
-103.93
-137.58
-169.10
-184.80
-175.29
-142.92
-100.04
-62.50
-41.94
-41.64
-57.31
-81.16
-106.72
-119.01
-110.38
-82.61
-43.83
-0.16
47.62
99.88
153.30
200.59
234.05
248.35
243.46
224.72
201.56
183.32
175.93
180.57
194.61
213.45
230.71
239.33
236.07
222.74
204.63
187.72
176.89
174.93
182.41
196.01
208.09
211.09
200.01
173.22
131.80
79.33
22.01
-31.72
-75.15
-107.68
-131.47
-149.48
-164.08
-177.54
-192.30
-210.13
-231.01
-255.40
-287.03
-327.79
-375.69
-425.34
-471.40
-511.22
-544.64
-571.53
-561.81
-497.61
-384.18
-248.57
-119.97
-15.22
61.40
108.16
139.56
160.08
169.05
166.37
154.92
140.56
129.14
123.93
125.42
133.13
144.11
153.02
155.83
151.97
144.14
135.86
129.51
125.99
125.61
126.75
126.17
121.49
113.33
105.35
102.02
106.32
117.47
131.57
141.89
141.58
126.64
98.51
62.87
26.95
-3.43
-25.23
-38.04
-43.07
-40.15
-31.25
-17.19
1.13
22.06
42.90
61.86
77.10
87.52
92.89
93.02
88.02
77.58
61.19
38.94
12.81
-14.74
-40.72
-62.36
-78.16
-87.80
-92.56
-94.56
-95.74
-97.17
-99.03
-100.29
-99.55
-96.01
-89.74
-82.26
-76.27
-74.53
-78.65
-87.73
-97.40
-101.11
-92.81
-69.57
-33.49
8.86
48.78
77.99
90.64
84.24
59.93
22.40
-20.21
-57.75
-80.59
-82.90
-65.22
-34.27
-0.23
27.60
44.20
49.67
47.15
40.39
31.80
22.40
12.89
4.47
-1.54
-4.64
-5.62
-6.93
-11.23
-19.77
-31.77
-43.75
-51.11
-49.97
-38.69
-18.72
5.99
30.41
50.27
63.45
70.27
72.72
73.30
73.91
75.03
75.66
73.74
67.24
55.26
38.95
21.38
6.44
-2.73
-5.42
-3.64
-1.10
-1.17
-5.27
-12.20
-18.99
-22.52
-20.77
-13.57
-2.07
11.91
26.61
40.62
52.81
62.26
68.27
70.38
68.24
61.73
50.63
35.11
16.12
-4.52
-24.87
-43.64
-60.84
-77.72
-95.34
-113.77
-130.72
-141.55
-141.32
-127.67
-102.69
-72.57
-45.57
-27.88
-22.24
-26.89
-36.20
-42.35
-38.21
-19.12
15.94
63.41
116.75
164.54
193.17
194.13
170.00
133.90
101.65
87.00
90.78
109.71
138.81
173.23
209.48
241.45
263.83
273.55
271.02
258.87
240.48
216.48
184.75
143.21
92.64
38.19
-12.44
-52.27
-78.42
-92.20
-98.28
-101.59
-104.47
-106.21
-104.23
-96.90
-84.97
-71.66
-60.60
-54.33
-53.16
-55.17
-57.62
-58.35
-57.21
-56.07
-57.63
-63.64
-73.96
-86.38
-97.45
-103.85
-103.56
-96.61
-84.82
-71.11
-58.44
-48.94
-43.44
-41.39
-41.26
-41.19
-39.71
-36.17
-30.70
-23.99
-16.79
-9.65
-2.83
3.59
9.45
14.41
17.84
19.11
17.59
12.85
4.72
-6.65
-20.60
-36.00
-51.38
-65.24
-76.41
-84.26
-88.67
-89.84
-88.06
-83.59
-76.82
-68.35
-59.09
-50.02
-41.92
-34.97
-28.60
-21.81
-13.73
-4.03
6.82
17.71
27.43
35.17
40.76
44.70
47.72
50.44
53.13
55.72
57.95
59.50
60.09
59.50
57.62
54.48
50.23
44.89
38.23
29.75
18.91
5.66
-9.32
-24.52
-38.05
-48.37
-54.73
-57.48
-57.58
-56.11
-53.66
-50.23
-45.52
-39.36
-32.05
-24.35
-17.33
-11.78
-7.98
-5.46
-3.21
-0.04
4.87
11.75
20.19
29.37
38.38
46.36
52.64
56.81
58.80
59.37
60.11
63.26
70.81
83.53
100.32
118.47
134.80
147.04
154.69
158.93
161.77
165.17
170.52
178.61
189.60
202.96
217.08
229.06
235.38
232.69
218.85
193.27
156.73
111.21
60.16
9.04
-34.64
-62.94
-70.48
-57.56
-31.47
-4.63
9.88
3.31
-25.74
-71.77
-125.52
-178.19
-224.39
-262.87
-295.51
-325.58
-356.57
-391.28
-430.78
-473.37
-513.83
-543.83
-553.93
-536.81
-490.30
-419.33
-335.56
-254.94
-193.35
-162.03
-163.94
-192.64
-234.22
-271.72
-290.55
-282.69
-248.23
-194.27
-131.53
-70.63
-19.40
18.13
41.54
52.99
56.28
55.71
55.22
57.59
64.02
74.04
86.14
98.24
108.48
115.78
120.30
123.60
128.03
135.77
147.64
162.60
178.26
192.07
202.81
211.03
218.49
226.75
235.58
242.62
244.32
237.94
223.29
203.20
182.37
165.31
154.44
149.41
147.75
146.55
143.98
140.00
135.96
133.15
131.93
131.27
129.38
124.90
117.54
108.26
98.35
88.54
78.57
67.55
54.81
40.61
26.39
14.03
4.77
-1.87
-7.94
-16.52
-29.66
-47.32
-66.60
-82.70
-90.86
-88.31
-75.81
-57.28
-38.36
-24.42
-18.97
-23.20
-36.40
-56.81
-82.03
-109.26
-135.36
-157.20
-172.27
-179.31
-178.52
-171.28
-159.61
-145.45
-130.38
-115.42
-101.15
-87.89
-75.73
-64.93
-55.78
-48.98
-45.13
-44.65
-47.26
-51.90
-57.12
-61.34
-63.57
-63.57
-61.77
-58.97
-55.73
-51.99
-47.01
-39.80
-29.54
-16.24
-1.09
13.73
25.55
32.09
32.26
26.67
17.36
7.28
-0.75
-4.82
-4.41
-0.41
5.21
9.87
10.99
6.67
-3.76
-19.44
-38.03
-56.31
-71.19
-80.58
-83.88
-81.71
-75.24
-65.55
-53.28
-38.76
-22.35
-4.73
13.32
31.16
48.46
65.29
81.88
98.06
113.21
126.35
136.51
143.13
146.22
146.30
144.03
139.98
134.34
127.01
117.83
106.91
94.83
82.66
71.63
62.64
55.84
50.39
44.71
37.06
26.31
12.40
-3.61
-20.12
-35.90
-50.82
-65.91
-82.70
-102.27
-124.45
-147.67
-169.63
-188.16
-202.00
-211.07
-216.49
-220.16
-224.23
-230.52
-240.13
-252.88
-267.00
-278.93
-283.69
-275.88
-251.07
-207.32
-146.31
-73.30
3.90
77.07
139.76
188.96
225.06
250.46
267.52
276.97
277.71
267.87
246.30
213.52
172.04
126.02
80.87
42.83
18.46
13.82
32.84
75.74
137.90
210.34
281.63
340.89
380.45
397.48
393.85
374.73
346.58
315.50
286.08
260.98
240.89
224.74
210.27
194.81
176.23
153.54
127.20
98.69
69.82
41.99
16.15
-7.10
-27.10
-43.22
-55.12
-63.22
-68.80
-73.52
-78.68
-84.58
-90.53
-95.31
-98.01
-98.44
-97.08
-94.65
-91.68
-88.59
-86.17
-85.91
-89.61
-98.39
-111.56
-126.45
-139.40
-147.68
-150.88
-150.85
-149.87
-148.22
-142.75
-127.74
-97.51
-49.36
15.07
90.53
170.11
246.95
314.63
366.83
397.19
400.53
375.02
324.02
256.12
183.06
116.19
63.18
26.97
6.67
-0.55
2.15
12.08
27.01
44.64
62.51
77.86
88.43
92.98
91.38
84.10
71.58
54.05
31.52
4.43
-26.35
-58.56
-88.66
-113.09
-130.02
-140.26
-146.67
-152.63
-160.23
-171.01
-183.88
-195.23
-200.67
-197.45
-185.62
-167.52
-146.47
-125.62
-111.24
-107.65
-115.19
-130.35
-148.25
-164.95
-178.13
-187.33
-193.91
-206.44
-231.63
-269.86
-314.69
-357.11
-390.17
-410.75
-419.37
-419.26
-422.87
-440.39
-474.83
-521.41
-572.07
-619.23
-656.66
-679.40
-636.75
-506.74
-309.32
-96.52
84.48
214.22
296.69
345.27
372.61
386.60
383.18
359.39
319.72
275.74
239.41
217.12
208.53
209.17
213.29
209.35
192.39
166.05
140.01
123.90
122.39
133.86
152.96
173.57
187.26
189.56
183.18
175.52
174.53
185.23
208.60
243.68
288.65
339.90
382.90
405.30
398.85
363.51
308.34
247.57
195.40
160.58
143.73
139.36
141.75
146.90
153.43
163.27
174.19
182.54
184.53
177.74
161.63
139.16
114.61
92.19
74.25
59.02
43.18
23.05
-0.14
-24.47
-46.74
-64.05
-74.68
-78.75
-80.98
-86.16
-96.98
-112.81
-131.29
-149.16
-163.80
-174.06
-180.35
-188.64
-204.24
-228.84
-259.44
-290.78
-317.81
-337.19
-347.82
-350.44
-352.40
-360.40
-377.43
-402.58
-433.75
-469.59
-508.94
-549.13
-553.52
-498.79
-385.76
-240.86
-98.48
17.05
96.50
142.73
164.89
173.59
171.28
157.75
133.97
103.91
73.69
49.11
34.19
28.32
31.87
39.67
46.71
51.57
55.95
62.71
73.25
86.67
100.03
109.66
109.01
89.25
48.81
-8.33
-74.95
-143.68
-208.35
-265.09
-312.32
-350.50
-379.68
-398.48
-405.38
-399.17
-379.85
-348.27
-305.71
-252.61
-192.26
-128.46
-64.26
-2.45
54.68
105.29
148.41
183.96
212.70
235.62
253.80
268.02
278.11
283.33
283.00
277.21
267.19
255.14
243.41
233.87
227.26
222.72
218.53
213.08
205.98
198.49
192.99
192.06
197.45
209.63
227.47
248.67
269.99
287.61
297.72
297.64
287.20
269.76
251.82
240.61
240.73
251.30
265.42
272.82
264.37
236.51
192.80
142.16
94.52
56.68
30.41
13.52
2.49
-4.97
-9.22
-9.81
-7.19
-3.70
-2.88
-7.63
-18.54
-33.41
-48.25
-59.25
-64.42
-64.15
-60.58
-56.10
-52.25
-49.25
-46.35
-42.69
-37.83
-31.94
-25.48
-18.87
-12.43
-6.52
-1.76
1.08
1.51
-0.29
-3.32
-6.21
-7.88
-8.23
-8.10
-8.84
-11.39
-15.87
-21.44
-26.93
-31.45
-34.95
-38.06
-41.78
-46.83
-53.32
-60.79
-68.51
-75.91
-82.77
-89.18
-95.22
-100.78
-105.31
-108.06
-108.26
-105.39
-99.36
-90.44
-79.27
-66.71
-53.71
-41.13
-29.59
-19.42
-10.62
-3.00
3.74
9.92
15.76
21.48
27.35
33.57
40.13
46.66
52.37
56.20
57.16
54.70
49.01
40.94
31.74
22.70
14.73
8.25
3.23
-0.61
-3.60
-5.98
-7.95
-9.69
-11.39
-13.36
-15.91
-19.25
-23.37
-27.97
-32.47
-36.21
-38.63
-39.46
-38.76
-36.86
-34.12
-30.75
-26.75
-21.95
-16.13
-9.18
-1.32
6.94
14.80
21.27
25.36
26.31
23.72
17.67
8.76
-1.97
-13.28
-23.96
-33.12
-40.30
-45.41
-48.45
-49.14
-46.88
-41.15
-32.02
-20.68
-9.40
-0.87
2.88
1.17
-5.06
-13.83
-23.08
-31.49
-38.66
-44.71
-49.50
-52.24
-51.59
-46.32
-36.04
-21.73
-5.69
9.14
20.09
25.67
26.03
22.81
18.43
15.17
14.48
16.49
20.24
23.97
25.79
24.02
17.63
6.60
-7.90
-23.27
-36.12
-43.47
-44.34
-40.74
-37.33
-39.63
-51.25
-71.80
-96.71
-119.13
-132.98
-135.53
-128.05
-114.29
-98.04
-81.12
-63.21
-43.11
-20.55
2.89
24.15
40.21
49.62
53.00
52.61
50.83
48.90
46.35
41.21
30.88
13.25
-12.20
-43.61
-76.45
-104.07
-119.08
-115.31
-89.79
-43.72
17.62
86.25
153.41
211.49
254.89
280.43
287.01
275.26
247.27
206.38
156.93
103.92
52.44
7.10
-28.58
-52.54
-64.30
-64.74
-55.59
-38.95
-16.92
8.56
35.52
61.97
86.00
106.10
121.38
131.82
138.13
141.42
142.97
143.99
145.62
148.84
154.22
161.94
171.62
182.39
192.91
201.66
207.21
208.54
205.38
198.23
188.46
177.94
168.59
161.72
157.32
153.75
147.85
135.74
113.99
80.82
36.81
-15.19
-70.81
-125.18
-173.99
-213.84
-242.25
-257.75
-259.99
-250.14
-231.09
-206.97
-182.19
-160.58
-144.37
-133.88
-127.84
-124.14
-120.68
-115.89
-108.90
-99.54
-88.42
-76.66
-65.24
-54.48
-43.92
-32.73
-20.46
-7.69
3.73
11.00
11.49
4.19
-9.66
-26.93
-43.86
-57.42
-66.04
-68.25
-62.96
-50.23
-31.57
-9.32
14.48
38.29
61.01
81.69
99.88
115.41
127.98
137.45
143.88
147.27
147.42
144.07
136.96
126.36
113.24
98.90
84.84
72.42
62.55
55.45
50.69
47.41
44.55
40.70
34.22
23.59
7.72
-13.93
-41.14
-72.89
-107.29
-141.83
-173.95
-201.45
-222.55
-235.97
-240.86
-236.70
-223.46
-201.75
-172.98
-139.59
-104.99
-73.16
-48.08
-33.33
-31.49
-43.72
-69.23
-104.85
-145.24
-183.73
-213.75
-230.48
-232.00
-219.36
-195.66
-164.56
-129.19
-91.71
-53.72
-16.87
16.72
44.75
65.32
77.55
81.84
79.73
73.49
65.75
59.18
56.29
59.25
69.46
87.41
112.61
143.56
177.72
211.78
241.99
264.71
276.97
277.01
265.11
244.06
218.72
194.54
176.05
165.37
161.98
163.21
165.21
164.73
159.74
148.92
130.45
101.51
59.28
3.00
-64.19
-136.15
-203.79
-257.95
-292.34
-305.25
-298.88
-277.38
-245.29
-207.23
-171.17
-144.88
-133.41
-137.08
-151.59
-170.13
-186.66
-198.59
-207.59
-221.81
-246.62
-280.13
-313.71
-337.30
-345.52
-340.53
-330.30
-324.16
-333.39
-361.39
-402.20
-443.92
-475.21
-490.28
-489.68
-478.11
-428.30
-330.69
-196.09
-51.33
77.83
178.58
250.09
297.30
326.55
343.89
349.46
344.49
332.32
317.60
303.65
290.85
277.34
261.20
241.77
215.89
183.03
145.74
108.50
75.34
48.22
27.12
11.37
0.36
-9.54
-19.50
-28.91
-36.16
-39.97
-40.24
-37.86
-34.00
-29.64
-26.69
-26.28
-28.28
-31.91
-36.32
-41.02
-45.85
-50.79
-55.78
-60.97
-66.30
-71.08
-74.68
-76.46
-75.73
-71.64
-63.18
-49.20
-27.62
-1.09
28.41
58.49
86.84
111.93
133.07
150.37
164.08
175.62
185.62
194.04
199.57
200.83
197.54
190.79
182.69
175.51
172.91
177.06
188.24
204.17
221.65
238.14
252.50
264.92
276.83
293.19
318.94
356.63
403.84
453.27
494.71
518.31
518.01
474.38
383.04
256.96
121.72
2.79
-85.91
-143.85
-178.39
-198.45
-207.77
-210.31
-209.16
-207.34
-207.53
-210.49
-214.24
-215.24
-212.64
-206.57
-199.38
-195.24
-197.38
-206.07
-218.28
-229.35
-237.20
-241.36
-242.28
-239.56
-231.40
-215.17
-188.83
-151.08
-102.51
-44.34
21.85
93.50
162.52
216.75
244.32
239.45
206.53
158.12
109.08
70.34
45.67
34.23
29.75
27.53
25.10
21.01
13.19
-0.94
-23.17
-52.89
-86.41
-116.44
-134.86
-136.63
-122.45
-98.46
-73.39
-55.14
-48.04
-52.03
-63.45
-76.27
-84.15
-82.16
-67.42
-39.20
1.32
51.39
107.10
163.62
215.67
257.71
284.42
292.56
282.53
258.87
229.00
200.61
178.85
164.90
156.31
147.73
134.83
116.52
95.38
76.06
62.77
57.61
60.11
67.96
75.56
78.06
73.09
61.50
46.52
31.64
19.35
10.50
4.40
-5.15
-24.48
-58.38
-108.90
-176.07
-258.60
-353.43
-453.90
-548.93
-631.38
-696.12
-742.66
-775.16
-801.16
-828.26
-859.99
-893.20
-889.89
-823.34
-688.20
-506.81
-315.58
-144.33
-6.61
96.67
167.72
216.97
246.52
258.20
257.81
255.52
261.86
283.05
316.38
354.66
390.28
413.42
419.41
409.26
388.31
363.20
339.05
318.43
302.62
292.89
287.45
285.07
285.71
290.66
301.43
318.00
337.71
355.85
367.01
365.20
347.37
314.47
271.12
223.63
177.71
136.75
101.67
72.01
46.49
24.51
6.52
-6.41
-13.38
-14.34
-10.49
-5.19
-2.51
-5.84
-15.99
-30.06
-41.83
-43.94
-31.28
-3.80
30.69
60.50
75.13
69.46
45.02
7.92
-34.63
-76.79
-114.96
-150.01
-183.06
-214.21
-242.54
-267.56
-290.33
-312.54
-334.92
-356.43
-378.74
-403.36
-431.25
-461.99
-493.58
-523.55
-549.49
-569.55
-559.37
-504.01
-403.19
-273.66
-139.15
-17.30
84.49
166.26
231.17
282.59
319.31
340.87
347.52
340.74
323.46
298.55
267.80
232.12
192.50
148.04
101.30
60.24
33.46
25.20
32.76
48.29
63.12
71.81
71.92
64.81
53.40
40.16
26.45
12.90
0.34
-9.79
-15.83
-17.77
-17.01
-16.13
-17.85
-23.89
-33.97
-46.06
-57.42
-65.53
-69.44
-69.71
-68.05
-66.44
-66.79
-68.09
-67.83
-63.41
-52.98
-36.49
-15.62
6.74
27.59
44.84
58.12
68.88
78.97
90.29
104.26
121.85
142.97
165.93
187.15
198.71
195.65
176.34
144.13
106.51
72.89
50.47
41.79
44.58
53.44
63.15
69.90
73.33
73.28
69.90
62.86
51.54
35.86
16.39
-5.41
-28.24
-50.79
-71.74
-89.69
-103.33
-111.61
-113.83
-110.47
-102.76
-92.95
-83.16
-73.91
-64.13
-52.01
-35.91
-14.95
9.47
35.12
57.31
70.34
70.07
53.81
21.02
-26.07
-80.35
-130.27
-163.40
-173.33
-163.60
-143.46
-123.35
-109.44
-104.67
-102.53
-95.81
-80.28
-53.08
-22.19
5.46
24.07
30.47
24.70
9.84
-8.82
-23.80
-29.12
-23.44
-8.96
9.75
28.99
47.39
65.64
84.00
101.01
113.46
117.97
114.07
103.95
91.54
81.11
75.70
75.99
80.32
85.40
87.73
85.89
80.73
74.73
70.74
71.11
76.35
84.94
93.81
99.91
99.97
92.86
79.28
61.29
41.35
20.95
0.43
-21.11
-44.98
-71.63
-99.20
-126.17
-151.56
-174.78
-194.75
-209.02
-213.81
-205.84
-184.93
-155.31
-125.05
-102.39
-91.86
-92.13
-97.24
-100.20
-97.01
-88.29
-78.32
-69.82
-62.85
-54.63
-41.42
-21.09
5.42
34.46
61.45
82.60
96.17
102.28
102.61
99.46
94.67
89.41
84.16
78.87
73.59
69.15
66.77
68.48
75.79
89.23
108.16
131.31
157.33
185.24
213.94
241.11
263.21
275.18
272.47
253.19
219.18
175.47
128.53
84.03
43.13
7.29
-23.71
-51.08
-76.08
-99.80
-123.58
-149.07
-178.57
-214.34
-256.55
-302.31
-344.91
-374.82
-382.86
-363.93
-318.72
-254.07
-180.60
-108.50
-44.74
7.98
50.28
83.88
107.16
118.10
116.36
104.12
85.66
65.61
47.26
31.95
19.26
7.24
-5.24
-18.63
-32.62
-46.29
-58.49
-68.77
-77.32
-84.68
-92.11
-99.35
-105.55
-109.65
-111.90
-111.22
-107.35
-100.65
-91.37
-80.71
-68.23
-53.24
-35.28
-14.40
9.04
34.13
60.04
87.19
112.08
134.49
155.03
174.23
192.12
208.63
223.35
235.23
247.61
256.05
256.85
247.89
229.69
205.26
178.81
153.71
125.87
95.88
62.19
24.76
-14.82
-53.31
-87.32
-114.88
-136.18
-153.03
-166.66
-179.03
-190.00
-198.73
-204.22
-205.76
-204.18
-199.15
-190.16
-176.10
-157.31
-134.11
-107.65
-79.97
-53.73
-31.65
-15.62
-6.11
-1.97
-1.64
-2.58
-2.07
2.31
12.35
29.16
49.93
73.06
96.97
119.57
138.87
153.31
161.95
164.67
162.18
155.89
147.82
139.62
132.12
125.35
119.00
112.76
106.46
100.01
93.75
88.24
83.89
81.25
80.93
83.05
86.39
88.18
84.82
73.34
53.25
26.90
-1.34
-26.79
-46.16
-58.39
-64.21
-64.82
-61.26
-54.10
-44.12
-32.74
-21.93
-13.80
-9.63
-9.63
-12.91
-18.34
-24.86
-31.69
-38.31
-44.58
-50.20
-54.70
-57.50
-57.93
-55.73
-51.03
-44.46
-37.07
-29.83
-23.48
-18.42
-14.60
-11.69
-9.52
-7.91
-6.72
-5.74
-4.30
-1.40
3.85
12.25
24.16
39.09
55.66
71.93
85.60
94.69
98.07
95.91
90.48
85.84
86.45
95.27
112.26
133.95
154.36
169.51
174.95
169.08
153.92
134.03
114.55
99.49
90.79
88.36
90.85
95.97
101.62
105.94
107.41
105.29
100.00
93.20
87.12
83.39
81.73
80.29
76.11
66.50
50.14
27.47
0.32
-29.20
-59.43
-89.52
-118.52
-145.06
-167.32
-183.46
-192.47
-194.65
-191.46
-185.01
-177.21
-168.92
-159.70
-148.41
-134.11
-116.99
-98.85
-82.53
-70.90
-65.53
-66.02
-70.17
-75.06
-78.49
-79.71
-79.56
-79.64
-81.46
-85.77
-92.89
-102.97
-116.06
-131.59
-147.86
-162.09
-171.21
-173.41
-169.19
-161.30
-153.39
-148.22
-146.32
-146.05
-144.88
-140.78
-133.17
-122.53
-109.38
-93.42
-73.61
-48.79
-18.68
15.61
51.89
87.53
120.03
147.82
170.25
187.23
198.67
203.97
201.80
190.71
169.72
139.09
100.31
55.44
5.96
-48.01
-107.51
-173.14
-243.05
-311.84
-371.36
-413.28
-432.24
-427.82
-404.26
-368.08
-324.97
-277.48
-224.96
-165.07
-96.18
-19.49
60.62
137.60
204.77
257.35
293.73
315.23
325.03
326.62
322.40
313.63
301.12
286.29
271.56
259.89
253.17
250.98
250.12
245.39
231.48
204.95
165.60
116.69
64.23
15.25
-23.85
-49.04
-59.54
-57.81
-48.47
-36.53
-25.65
-17.10
-9.89
-1.75
9.49
24.97
44.84
68.75
96.49
127.47
161.02
195.92
230.13
260.79
284.72
299.56
304.22
299.01
284.54
261.92
232.68
198.62
161.54
123.00
84.36
46.75
11.29
-22.37
-53.93
-81.79
-103.46
-116.47
-119.38
-111.78
-94.21
-67.73
-38.17
-10.46
13.38
34.07
52.92
70.02
84.21
93.99
98.42
88.81
59.98
14.07
-40.02
-92.01
-135.09
-166.60
-186.72
-197.26
-214.81
-252.45
-313.17
-389.58
-471.60
-553.20
-632.80
-710.68
-787.09
-879.36
-998.86
-1143.16
-1296.66
-1441.15
-1565.23
-1665.64
-1744.37
-1693.85
-1461.25
-1073.44
-625.46
-213.20
114.14
351.39
515.91
630.21
713.46
760.53
765.70
733.23
679.77
625.08
582.54
557.03
547.67
551.87
554.40
544.95
522.74
494.05
463.65
429.98
388.41
337.76
283.96
229.72
180.72
144.05
125.32
124.66
136.26
152.01
165.77
175.20
176.92
169.73
155.08
136.00
114.85
94.13
76.07
63.21
58.18
60.84
68.99
79.48
89.37
96.51
100.55
102.58
104.88
109.93
119.09
131.85
146.57
161.67
176.44
190.83
204.33
214.96
219.30
213.87
196.56
168.40
133.21
96.29
62.31
33.73
10.68
-8.19
-24.49
-39.89
-55.30
-71.59
-89.88
-111.65
-138.27
-169.91
-204.70
-234.12
-248.27
-237.85
-198.16
-132.42
-51.95
27.31
90.82
130.70
147.90
149.59
145.20
141.81
142.33
146.06
150.84
154.80
156.22
152.38
138.47
108.70
58.95
-9.94
-90.43
-169.41
-232.90
-271.99
-287.30
-289.19
-293.11
-312.70
-354.06
-413.06
-477.15
-530.78
-560.66
-559.88
-528.79
-473.67
-404.11
-330.26
-260.63
-200.87
-153.57
-118.91
-95.63
-81.58
-74.14
-69.92
-65.16
-56.53
-42.18
-22.48
0.35
23.23
43.42
59.54
71.66
80.91
88.37
94.16
96.93
94.46
84.37
65.12
36.88
1.59
-37.35
-75.92
-110.41
-138.17
-157.93
-169.81
-174.92
-174.79
-170.83
-164.01
-154.90
-143.75
-130.98
-117.37
-104.34
-93.63
-86.79
-84.47
-86.51
-91.65
-97.91
-103.06
-104.87
-101.31
-90.50
-71.07
-42.88
-7.77
30.89
69.44
105.64
139.66
173.71
210.30
250.28
291.75
330.53
362.07
383.38
393.89
394.91
388.16
374.61
354.17
326.33
291.21
250.05
205.04
158.63
113.10
69.89
29.78
-6.86
-39.58
-67.56
-89.72
-105.05
-113.13
-114.25
-109.56
-100.76
-89.76
-78.11
-66.84
-56.36
-46.65
-37.52
-28.77
-20.37
-12.42
-4.97
2.16
9.32
17.01
25.82
36.12
48.13
61.75
76.61
92.19
107.97
123.36
137.76
150.59
161.21
169.05
173.70
174.92
172.70
167.22
158.82
147.95
135.20
121.33
107.36
94.61
84.52
78.41
77.16
80.98
89.41
101.73
117.49
136.88
160.60
188.96
221.10
254.33
284.35
306.41
316.58
312.81
295.15
265.37
226.28
181.44
134.94
91.04
53.36
23.68
1.05
-17.83
-37.18
-60.00
-86.55
-114.09
-138.20
-154.69
-161.40
-158.85
-149.61
-137.04
-123.97
-111.86
-100.81
-89.95
-78.02
-63.98
-47.16
-27.14
-3.59
23.94
55.56
90.47
126.51
160.40
188.49
207.73
216.34
214.12
202.40
183.81
161.96
140.75
123.45
111.74
105.14
101.41
97.79
92.53
85.58
78.26
72.01
67.20
62.92
57.75
51.04
43.61
37.52
34.86
36.62
42.03
48.91
54.72
57.80
58.12
57.04
56.42
57.38
59.46
60.59
58.03
49.91
36.49
20.47
5.81
-4.12
-8.19
-7.94
-6.62
-7.61
-12.98
-23.05
-36.72
-52.46
-69.02
-85.64
-101.85
-117.36
-132.21
-146.83
-162.15
-178.96
-197.05
-214.52
-228.04
-234.02
-230.29
-217.31
-198.15
-177.24
-158.41
-143.50
-132.19
-123.16
-115.68
-110.41
-109.06
-112.85
-121.25
-131.60
-140.10
-143.31
-139.49
-128.76
-112.04
-90.05
-62.65
-29.12
11.01
56.95
106.30
155.15
198.94
233.87
258.09
272.81
282.27
292.98
311.64
342.49
384.88
432.43
474.62
500.22
501.39
476.42
429.85
369.85
304.61
239.95
179.26
125.21
81.06
50.56
35.86
35.15
42.21
48.34
46.01
32.07
8.70
-18.44
-42.89
-60.06
-68.02
-67.12
-59.06
-46.13
-31.21
-17.60
-8.67
-7.26
-15.24
-32.96
-58.42
-86.95
-111.83
-126.36
-126.80
-114.66
-96.79
-82.77
-80.88
-94.26
-120.02
-151.38
-181.52
-207.21
-229.91
-254.41
-285.68
-325.86
-372.54
-419.22
-457.56
-480.33
-484.19
-470.89
-446.35
-417.88
-391.11
-367.97
-346.83
-324.52
-298.73
-269.48
-238.68
-208.43
-179.44
-150.48
-119.23
-83.81
-43.89
-0.70
43.58
86.89
127.75
164.96
197.11
222.47
239.55
248.06
249.48
246.76
243.14
240.81
240.26
240.65
240.94
240.87
241.01
241.90
242.96
241.99
235.87
222.20
200.85
174.62
148.21
126.31
111.29
102.13
94.78
83.88
64.86
35.18
-5.17
-53.87
-106.57
-157.00
-197.39
-219.44
-216.75
-187.68
-137.60
-78.61
-26.18
6.29
12.60
-4.13
-33.33
-61.88
-79.65
-82.87
-73.88
-58.05
-40.05
-21.50
-1.23
22.59
49.92
78.05
102.67
120.14
129.40
132.18
131.93
131.58
132.00
131.53
127.21
116.47
98.48
74.53
47.08
18.66
-9.17
-35.95
-61.72
-86.18
-108.06
-125.12
-134.54
-133.80
-121.44
-97.85
-65.40
-28.18
8.93
41.49
66.64
83.69
93.82
99.24
101.86
102.27
99.30
90.54
73.49
47.32
14.17
-20.66
-49.86
-66.54
-66.81
-51.35
-25.40
3.25
26.84
40.02
40.92
31.17
15.29
-0.35
-8.77
-4.36
15.03
46.49
82.22
111.78
125.82
119.45
93.78
54.77
10.45
-32.20
-69.18
-99.67
-125.11
-147.94
-170.66
-195.22
-222.25
-250.50
-276.52
-295.61
-303.11
-296.28
-275.23
-242.94
-204.14
-163.64
-125.03
-90.26
-59.56
-31.72
-4.63
23.91
54.82
86.23
112.93
127.58
123.70
99.12
57.71
8.22
-39.49
-78.51
-107.26
-128.61
-146.76
-163.88
-178.77
-188.09
-188.96
-180.78
-165.23
-144.66
-120.38
-92.39
-60.26
-24.86
11.09
43.96
71.11
91.89
107.43
118.87
126.04
127.23
120.51
105.54
84.34
60.63
37.84
17.64
-0.61
-18.71
-37.71
-56.84
-73.43
-84.30
-87.26
-81.94
-69.18
-49.96
-24.72
6.30
41.58
77.09
106.21
121.72
118.99
98.56
66.26
30.59
-1.34
-26.69
-46.91
-64.92
-81.50
-93.50
-95.09
-80.76
-48.31
-0.10
57.68
116.88
168.95
205.97
221.75
213.18
181.68
133.68
79.13
28.22
-12.13
-40.03
-57.85
-69.44
-77.24
-81.16
-79.52
-71.26
-57.49
-41.26
-25.97
-13.31
-2.28
10.11
26.80
48.70
73.82
98.18
117.54
129.29
133.50
132.58
129.97
128.63
130.22
134.99
142.24
150.72
158.79
164.44
165.60
160.91
150.49
136.19
121.07
108.05
98.53
91.65
84.76
74.78
59.98
40.83
19.86
0.59
-14.02
-22.71
-26.07
-25.63
-22.77
-17.89
-10.70
-1.37
8.21
14.43
13.34
2.79
-15.61
-36.29
-51.64
-55.03
-43.61
-19.48
11.40
41.53
64.44
76.13
75.00
61.19
35.91
0.92
-41.34
-88.04
-136.53
-185.26
-234.34
-284.81
-336.77
-387.49
-430.86
-458.97
-465.18
-447.22
-408.08
-354.53
-294.04
-232.07
-171.19
-112.15
-55.52
-2.79
44.09
84.03
118.04
149.14
181.38
218.51
262.71
314.03
369.73
424.26
470.14
499.84
508.33
495.17
464.99
425.75
385.72
350.53
322.01
298.91
278.92
260.56
243.79
229.36
217.65
207.85
198.16
186.81
173.00
157.42
141.94
128.75
119.31
113.68
110.48
107.34
101.84
92.28
78.24
60.58
41.10
21.75
4.03
-11.48
-25.24
-38.39
-52.24
-67.66
-84.64
-102.37
-119.69
-135.69
-150.27
-164.41
-179.70
-197.73
-219.36
-244.38
-271.85
-300.66
-329.70
-357.79
-383.52
-405.02
-420.55
-429.00
-430.37
-425.81
-417.15
-406.20
-394.38
-382.44
-370.96
-360.74
-353.15
-350.05
-353.09
-362.52
-376.15
-389.06
-394.86
-388.37
-368.30
-338.52
-306.63
-280.39
-263.72
-255.03
-248.30
-236.02
-213.03
-178.43
-135.19
-88.37
-43.27
-4.21
25.80
45.01
54.24
56.17
55.17
56.32
63.93
80.16
104.01
131.18
154.00
164.79
156.11
124.66
73.58
12.89
-43.02
-80.29
-90.84
-77.08
-48.25
-19.58
-4.30
-8.03
-26.91
-50.66
-68.43
-73.87
-69.21
-58.82
-49.43
-44.03
-40.19
-31.32
-10.58
25.14
82.47
142.34
195.92
232.09
242.35
224.02
181.77
126.63
71.77
28.82
2.23
-7.46
-6.51
-2.22
1.47
5.11
11.89
23.80
41.29
62.08
85.82
110.41
133.31
152.14
164.46
168.84
164.79
155.00
143.11
133.66
126.84
115.06
89.96
46.30
-7.09
-62.11
-112.86
-159.49
-201.95
-240.92
-275.80
-303.55
-320.17
-322.66
-311.95
-291.40
-266.07
-240.31
-217.43
-198.49
-181.79
-164.25
-142.85
-117.07
-87.88
-57.44
-28.07
-1.94
19.77
37.50
52.73
67.37
82.28
97.75
113.32
128.11
140.79
150.28
156.30
159.51
161.36
163.12
165.73
169.36
173.27
176.05
176.31
173.57
168.71
163.85
161.50
163.66
171.01
182.76
197.05
211.70
224.97
235.90
244.36
250.97
257.03
264.41
275.03
289.75
307.38
323.98
333.66
330.33
310.13
273.29
224.44
170.99
120.44
77.74
44.14
17.83
-4.01
-23.07
-38.75
-48.63
-50.48
-44.46
-34.05
-25.00
-22.52
-28.20
-38.87
-48.01
-49.20
-39.68
-21.73
-1.50
14.17
20.93
18.50
9.86
-0.77
-10.16
-16.98
-21.63
-25.35
-29.49
-35.04
-42.19
-50.06
-56.57
-58.82
-54.13
-41.29
-21.48
1.68
23.24
38.62
45.07
42.55
33.48
21.67
10.86
3.74
1.39
3.35
8.26
14.31
19.44
21.65
19.36
12.23
1.92
-8.34
-15.06
-16.78
-15.85
-18.66
-33.42
-66.34
-117.99
-181.63
-244.85
-293.69
-317.36
-311.44
-278.33
-225.53
-162.90
-100.25
-45.88
-5.69
17.57
24.58
19.18
7.24
-5.15
-13.62
-16.60
-15.12
-11.64
-8.59
-7.50
-8.76
-11.52
-13.81
-12.68
-4.77
12.69
40.52
76.95
117.78
157.43
190.49
212.88
222.69
220.35
208.37
190.72
171.99
156.35
146.45
142.68
142.73
142.00
134.43
114.32
78.74
29.78
-24.72
-72.88
-102.89
-107.94
-89.24
-55.85
-20.94
3.44
10.51
0.14
-22.68
-50.73
-77.34
-97.77
-109.37
-111.33
-104.39
-90.78
-73.93
-57.78
-45.88
-40.87
-43.98
-54.91
-71.63
-90.28
-105.58
-111.78
-104.36
-81.49
-44.94
0.43
48.30
93.11
131.64
163.53
190.27
213.56
234.04
250.81
262.17
266.89
265.30
259.47
252.58
247.67
246.38
248.34
251.16
251.27
244.94
229.59
204.54
171.26
132.91
93.62
57.52
27.82
5.88
-9.42
-21.43
-34.34
-51.23
-72.43
-95.30
-115.32
-128.34
-132.54
-129.16
-121.65
-113.66
-107.20
-101.90
-95.81
-86.87
-74.18
-58.34
-40.73
-22.79
-5.55
10.16
23.39
32.79
36.82
34.49
26.17
14.01
1.42
-8.49
-14.65
-18.84
-25.15
-38.26
-61.37
-95.03
-137.12
-183.57
-229.26
-268.59
-296.07
-307.46
-301.10
-279.11
-247.31
-213.56
-185.00
-165.66
-155.72
-152.85
-154.07
-157.04
-159.78
-159.93
-154.34
-139.65
-113.77
-76.74
-30.91
19.58
69.75
114.37
148.75
169.88
177.69
175.56
169.44
165.50
167.45
175.18
185.28
193.22
195.78
191.96
182.32
167.70
148.58
125.52
100.07
75.16
54.49
41.13
36.22
38.22
43.65
48.40
49.14
44.45
35.09
23.52
13.00
6.34
4.94
8.57
15.89
25.17
34.96
44.06
51.29
55.52
56.21
54.19
51.71
51.62
55.37
61.65
66.24
63.59
49.21
21.59
-17.58
-64.24
-113.03
-158.47
-194.94
-217.11
-221.32
-206.95
-177.19
-138.95
-100.33
-67.57
-43.83
-28.52
-18.92
-12.46
-7.86
-4.47
-2.67
-2.65
-4.12
-8.30
-17.35
-33.98
-60.79
-98.39
-143.46
-191.56
-238.10
-279.40
-314.32
-342.09
-361.34
-370.45
-368.81
-356.94
-339.79
-323.95
-304.39
-275.21
-229.51
-163.24
-79.62
1.84
70.01
119.05
149.59
168.56
186.51
212.83
253.00
306.20
365.12
419.24
455.71
464.85
443.68
395.70
329.77
256.44
184.11
117.10
57.16
2.86
-47.59
-94.80
-138.63
-177.97
-210.93
-234.84
-246.73
-243.32
-224.03
-191.50
-151.00
-109.25
-71.92
-42.05
-19.64
-3.09
9.53
18.45
22.48
20.27
11.60
-1.81
-16.97
-31.04
-43.02
-54.13
-66.87
-82.93
-101.09
-117.12
-125.24
-120.85
-102.48
-72.11
-33.37
10.54
57.91
107.32
155.35
195.66
220.66
225.77
213.16
192.22
175.41
171.98
183.15
201.73
216.67
219.58
209.16
191.12
173.74
162.65
157.55
153.09
142.34
120.63
87.00
43.17
-8.45
-66.18
-128.45
-192.17
-251.49
-298.42
-325.27
-328.07
-308.42
-272.84
-230.01
-187.23
-148.54
-114.93
-86.18
-62.76
-46.38
-38.99
-41.22
-51.63
-67.27
-85.07
-102.82
-119.18
-132.80
-141.24
-140.78
-127.14
-97.23
-50.86
8.13
71.79
129.08
168.02
178.80
157.03
106.06
37.06
-33.90
-90.91
-123.49
-129.75
-116.03
-93.14
-71.47
-56.92
-49.50
-44.72
-36.37
-19.23
9.29
48.47
94.46
141.02
181.04
208.48
220.14
216.82
202.64
183.34
164.14
148.13
135.92
126.47
118.43
110.96
103.94
97.43
91.24
84.79
77.53
69.19
59.70
48.87
36.14
20.62
1.64
-20.54
-44.08
-65.52
-80.57
-85.50
-78.55
-60.93
-36.67
-11.63
8.21
18.61
18.24
8.88
-5.56
-20.65
-33.02
-41.25
-45.80
-48.05
-49.31
-50.17
-50.49
-49.81
-47.71
-43.89
-38.00
-29.38
-17.08
-0.16
21.86
48.69
79.17
111.46
143.15
171.49
193.54
206.43
207.85
196.52
172.74
138.33
96.36
50.24
2.72
-44.59
-91.42
-138.17
-184.74
-229.38
-268.22
-295.78
-306.70
-297.93
-270.36
-228.94
-181.10
-134.10
-92.48
-57.24
-26.76
1.08
26.87
48.99
64.53
70.84
66.92
53.94
34.73
13.11
-7.06
-22.44
-30.84
-31.69
-26.02
-16.12
-4.72
5.84
14.04
19.04
20.24
17.15
9.69
-1.28
-13.57
-24.12
-30.10
-30.13
-24.84
-16.65
-8.56
-3.06
-1.37
-3.27
-7.56
-12.69
-17.33
-20.61
-22.36
-22.94
-23.04
-23.50
-24.84
-27.23
-30.37
-33.68
-36.63
-39.05
-41.27
-44.00
-48.06
-53.96
-61.67
-70.71
-80.27
-89.65
-98.51
-107.02
-115.74
-125.31
-136.17
-148.22
-160.83
-172.91
-183.14
-190.17
-192.69
-189.55
-179.98
-163.66
-140.93
-112.80
-80.84
-46.99
-13.21
18.78
47.77
73.12
94.91
113.89
131.33
148.69
167.46
189.08
214.71
244.73
277.89
310.69
337.67
352.81
351.75
333.66
301.74
261.93
220.35
181.02
145.18
112.23
81.57
53.98
31.43
15.57
6.20
0.68
-5.12
-14.81
-29.85
-49.06
-69.29
-86.85
-98.98
-104.41
-103.19
-96.28
-85.04
-71.00
-55.80
-41.11
-28.32
-18.33
-11.39
-7.13
-4.91
-4.05
-3.99
-4.22
-4.23
-3.43
-1.35
2.17
6.89
12.22
17.45
21.99
25.49
27.77
28.70
28.03
25.54
21.21
15.37
8.81
2.48
-2.86
-6.84
-9.52
-11.24
-12.28
-12.88
-13.24
-13.59
-14.31
-15.82
-18.43
-22.29
-27.35
-33.46
-40.34
-47.50
-54.10
-58.98
-60.89
-58.88
-52.80
-43.46
-32.52
-21.97
-13.58
-8.38
-6.38
-6.64
-7.61
-7.61
-5.34
-0.19
7.65
17.31
27.70
37.78
46.92
54.87
61.59
67.11
71.26
73.74
74.16
72.26
68.05
61.83
54.17
45.73
37.22
29.19
21.99
15.75
10.30
5.27
0.23
-5.07
-10.56
-15.79
-20.11
-22.94
-23.97
-23.25
-21.14
-18.11
-14.59
-11.01
-7.78
-5.38
-4.28
-4.69
-6.41
-8.72
-10.68
-11.35
-10.30
-7.61
-3.93
-0.10
3.11
5.21
6.10
5.89
4.80
3.01
0.61
-2.37
-5.89
-9.84
-14.08
-18.38
-22.41
-25.81
-28.06
-28.66
-27.25
-23.82
-18.93
-13.63
-9.16
-6.42
-5.72
-6.53
-7.81
-8.47
-7.81
-5.80
-2.99
-0.16
2.06
3.37
3.88
3.80
3.30
2.43
1.20
-0.24
-1.52
-2.08
-1.43
0.64
3.82
7.39
10.50
12.38
12.64
11.24
8.37
4.29
-0.75
-6.44
-12.34
-17.69
-21.64
-23.43
-22.68
-19.58
-14.83
-9.42
-4.22
0.19
3.76
6.71
9.33
11.80
14.00
15.60
16.29
16.02
15.01
13.77
12.81
12.42
12.60
13.10
13.52
13.49
12.78
11.31
9.11
6.37
3.27
0.03
-3.16
-6.24
-9.28
-12.39
-15.72
-19.22
-22.61
-25.39
-26.94
-26.71
-24.48
-20.43
-15.09
-9.22
-3.45
1.78
6.30
10.12
13.29
15.76
17.47
18.39
18.59
18.32
17.88
17.48
17.25
17.12
16.91
16.41
15.45
13.91
11.85
9.39
6.75
4.20
1.95
0.03
-1.69
-3.55
-6.01
-9.45
-14.07
-19.74
-25.92
-31.76
-36.35
-38.91
-39.08
-37.00
-33.22
-28.50
-23.54
-18.76
-14.26
-9.89
-5.39
-0.55
4.65
10.04
15.37
20.27
24.46
27.67
29.74
30.55
30.06
28.38
25.74
22.51
19.10
15.79
12.73
9.90
7.22
4.63
2.10
-0.44
-3.16
-6.29
-9.95
-13.90
-17.49
-19.75
-19.82
-17.25
-12.29
-5.78
1.19
7.66
13.09
17.37
20.66
23.19
25.11
26.39
27.05
27.17
26.92
26.56
26.27
26.18
26.23
26.29
26.14
25.58
24.49
22.92
21.02
19.07
17.28
15.74
14.36
12.88
11.04
8.68
5.81
2.53
-1.09
-5.03
-9.23
-13.45
-17.14
-19.53
-19.90
-17.81
-13.41
-7.38
-0.70
5.64
10.93
14.81
17.25
18.48
18.75
18.39
17.69
16.99
16.54
16.54
17.01
17.86
18.82
19.60
19.91
19.67
18.95
17.94
16.83
15.65
14.30
12.56
10.21
7.25
3.86
0.41
-2.76
-5.45
-7.70
-9.76
-11.94
-14.49
-17.54
-21.08
-24.87
-28.52
-31.37
-32.68
-31.75
-28.22
-22.23
-14.54
-6.31
1.25
7.25
11.36
13.76
14.88
15.15
14.79
13.91
12.59
11.05
9.65
8.80
8.78
9.56
10.80
12.00
12.69
12.60
11.72
10.25
8.43
6.50
4.51
2.44
0.22
-2.17
-4.69
-7.23
-9.69
-11.89
-13.55
-14.30
-13.68
-11.40
-7.44
-2.24
3.39
8.54
12.46
14.85
15.85
15.91
15.58
15.29
15.20
15.34
15.64
16.00
16.35
16.61
16.69
16.46
15.78
14.53
12.65
10.22
7.40
4.41
1.45
-1.32
-3.86
-6.18
-8.29
-10.22
-11.92
-13.40
-14.73
-16.06
-17.57
-19.28
-20.93
-21.99
-21.79
-19.73
-15.60
-9.65
-2.62
4.48
10.64
15.13
17.61
18.14
17.11
15.07
12.61
10.21
8.30
7.13
6.81
