1511275818.00
64.000000
-0.00
-0.00
-0.00
-0.00
-0.00
-0.00
-0.00
-0.00
-0.00
-0.00
0.00
0.01
0.01
-0.00
-0.03
-0.05
-0.05
0.00
0.13
0.36
0.66
1.01
1.37
1.72
2.06
2.40
2.79
3.24
3.80
4.42
5.06
5.66
6.20
6.68
7.15
7.68
8.31
9.14
10.09
11.04
11.88
12.56
13.14
13.76
14.65
15.96
17.91
20.32
22.90
25.38
27.58
29.57
31.68
34.32
37.81
42.54
48.15
54.10
59.83
64.97
69.58
74.14
79.34
85.71
93.76
103.00
112.62
121.73
129.77
136.75
143.30
150.75
157.77
166.64
177.95
191.79
206.97
220.57
228.25
225.36
208.53
176.87
132.76
80.05
23.07
-34.94
-92.44
-149.16
-205.23
-260.37
-313.74
-363.87
-409.83
-450.91
-486.50
-515.74
-537.23
-549.22
-549.96
-538.37
-514.21
-478.67
-433.88
-382.45
-327.02
-269.84
-212.63
-156.66
-102.95
-52.37
-5.90
35.58
71.43
101.35
125.50
144.38
158.69
169.15
176.37
180.75
182.57
182.07
179.51
175.23
169.65
163.18
156.15
148.81
141.30
133.69
126.02
118.33
110.69
103.16
95.80
88.68
81.83
75.25
68.95
62.95
57.25
51.86
46.78
42.03
37.59
33.45
29.61
26.07
22.81
19.83
17.11
14.67
12.48
10.54
8.83
7.35
6.07
4.97
4.05
3.27
2.62
2.09
1.65
1.30
1.01
0.79
0.61
0.47
0.37
0.28
0.23
0.18
0.15
0.13
0.13
0.13
0.14
0.16
0.18
0.21
0.25
0.29
0.33
0.37
0.42
0.46
0.51
0.56
0.61
0.66
0.72
0.78
0.85
0.92
1.00
1.09
1.18
1.29
1.42
1.55
1.71
1.88
2.07
2.29
2.52
2.78
3.07
3.39
3.74
4.12
4.54
4.99
5.48
6.00
6.57
7.17
7.82
8.51
9.25
10.02
10.85
11.72
12.64
13.60
14.62
15.71
16.86
18.06
19.32
20.60
21.85
23.00
23.96
24.62
24.85
24.54
23.58
21.92
19.53
16.45
12.74
8.57
4.11
-0.42
-4.79
-8.81
-12.31
-15.19
-17.39
-18.92
-19.77
-20.01
-19.70
-18.90
-17.72
-16.26
-14.64
-12.97
-11.32
-9.69
-8.12
-6.58
-5.03
-3.45
-1.87
-0.33
1.12
2.45
3.78
5.10
6.53
8.21
10.15
12.29
14.42
16.35
17.97
19.43
20.74
22.16
23.98
26.28
28.90
31.43
33.44
34.67
35.37
35.59
35.85
36.68
38.25
40.28
42.04
42.70
41.78
39.48
35.90
31.67
27.41
23.24
18.48
11.74
1.01
-16.39
-38.44
-64.87
-94.81
-126.17
-155.51
-178.54
-191.32
-191.72
-180.29
-159.99
-135.73
-111.80
-90.73
-73.16
-58.59
-46.41
-36.50
-29.07
-24.03
-21.12
-19.25
-17.16
-14.18
-10.66
-7.73
-6.91
-9.31
-15.15
-23.92
-33.98
-42.97
-48.33
-48.02
-41.11
-28.17
-11.10
7.49
24.97
39.63
50.86
58.87
64.17
67.09
67.75
66.30
63.26
59.51
56.07
53.60
52.06
50.70
48.47
44.57
38.85
31.95
24.91
18.64
13.50
9.08
4.32
-2.04
-11.00
-22.87
-36.86
-51.11
-62.85
-69.20
-68.07
-58.95
-43.28
-23.96
-4.42
12.61
25.88
35.58
42.77
48.43
52.94
55.96
56.96
55.79
53.02
49.76
47.16
45.79
45.41
45.01
43.39
39.72
33.94
26.81
19.50
13.11
8.14
4.33
0.78
-3.65
-9.90
-18.50
-29.41
-41.93
-54.74
-65.89
-73.08
-74.21
-68.18
-55.38
-37.77
-18.33
-0.07
14.96
26.06
33.71
38.89
42.38
44.51
45.29
44.80
43.41
41.82
40.64
40.04
39.64
38.56
35.95
31.44
25.32
18.53
12.13
6.88
2.83
-0.58
-4.34
-9.39
-16.34
-25.31
-35.93
-47.26
-57.85
-65.79
-69.14
-66.47
-57.46
-43.22
-26.01
-8.54
6.86
18.82
27.05
31.95
34.21
34.35
32.72
29.66
25.63
21.24
17.10
13.72
11.21
9.45
8.09
6.73
5.10
3.05
0.53
-2.51
-6.26
-11.19
-17.86
-26.72
-37.64
-49.54
-60.30
-67.23
-67.96
-61.34
-48.12
-30.82
-12.82
2.80
14.26
21.45
25.43
27.65
29.13
30.14
30.42
29.62
27.68
24.94
21.94
19.13
16.67
14.39
11.99
9.21
5.89
1.97
-2.65
-8.29
-15.45
-24.65
-35.92
-48.29
-59.65
-67.18
-68.25
-61.48
-47.50
-28.83
-8.97
8.82
22.56
31.89
37.63
41.03
43.04
44.14
44.41
43.86
42.60
40.77
38.40
35.43
31.68
27.11
21.92
16.49
11.23
6.34
1.68
-3.24
-9.21
-17.06
-27.37
-40.03
-53.88
-66.65
-75.38
-77.38
-71.24
-57.54
-38.78
-18.48
0.08
14.89
25.54
32.80
37.78
41.26
43.49
44.42
44.12
43.01
41.72
40.71
39.89
38.60
35.90
31.13
24.34
16.38
8.56
2.08
-2.56
-5.73
-8.56
-12.50
-18.82
-28.21
-40.45
-54.21
-67.10
-76.16
-78.70
-73.29
-60.42
-42.43
-22.76
-4.58
10.14
21.02
28.88
34.82
39.52
42.96
44.75
44.69
43.16
41.09
39.46
38.83
38.96
38.86
37.34
33.60
27.71
20.60
13.63
7.89
3.72
0.53
-2.94
-7.96
-15.49
-25.81
-38.53
-52.54
-66.03
-76.63
-81.87
-79.90
-70.24
-54.21
-34.63
-14.88
2.26
15.48
24.93
31.69
36.82
40.80
43.44
44.36
43.55
41.66
39.72
38.63
38.68
39.29
39.33
37.69
33.82
28.01
21.22
14.55
8.80
4.05
-0.29
-5.10
-11.26
-19.27
-29.21
-40.67
-52.76
-64.00
-72.38
-75.80
-72.68
-62.66
-46.98
-28.17
-9.29
7.13
19.78
28.64
34.45
38.07
40.00
40.37
39.33
37.36
35.34
34.11
33.97
34.27
33.70
30.83
24.93
16.41
6.73
-2.31
-9.33
-14.05
-17.18
-20.07
-24.06
-30.08
-38.34
-48.35
-58.89
-68.10
-73.79
-73.97
-67.60
-55.06
-38.19
-19.70
-2.16
12.73
24.53
33.69
40.92
46.57
50.49
52.34
52.05
50.19
47.83
46.03
45.30
45.24
44.69
42.33
37.35
29.95
21.25
12.74
5.61
0.18
-4.23
-8.84
-15.05
-23.84
-35.47
-49.33
-63.81
-76.39
-84.07
-84.17
-75.42
-58.65
-36.80
-14.00
5.96
20.92
30.83
37.26
42.19
46.87
51.38
54.93
56.64
56.30
54.51
52.40
50.92
50.39
50.34
49.79
47.76
43.73
37.82
30.73
23.36
16.45
10.27
4.68
-0.76
-6.57
-13.15
-20.80
-29.83
-40.44
-52.60
-65.47
-77.23
-85.19
-86.59
-79.71
-64.76
-44.06
-21.29
-0.15
16.90
29.21
37.66
43.83
49.04
53.94
58.56
62.67
66.17
69.21
72.10
75.01
77.90
80.37
81.90
81.96
80.19
76.39
70.40
62.04
51.14
37.83
22.84
7.60
-6.11
-16.75
-23.66
-27.41
-29.52
-31.89
-36.16
-43.35
-53.70
-66.69
-81.02
-94.60
-104.76
-108.76
-104.70
-92.23
-73.00
-50.18
-27.54
-8.23
5.99
14.98
19.77
21.80
22.41
22.49
22.54
22.88
23.66
24.86
26.17
27.00
26.64
24.55
20.64
15.31
9.28
3.26
-2.40
-7.77
-13.39
-19.98
-28.22
-38.28
-49.47
-60.07
-67.61
-69.54
-64.25
-51.78
-33.96
-13.91
5.15
20.85
32.27
39.80
44.50
47.40
49.04
49.51
48.72
46.74
43.87
40.54
37.06
33.42
29.32
24.43
18.71
12.52
6.61
1.74
-1.79
-4.45
-7.47
-12.50
-21.07
-33.85
-50.16
-67.76
-83.23
-92.87
-93.92
-85.60
-69.44
-48.72
-27.29
-8.22
7.06
18.61
27.37
34.22
39.44
42.85
44.26
43.90
42.53
41.02
39.90
38.97
37.47
34.41
29.29
22.37
14.67
7.50
1.88
-2.02
-5.02
-8.63
-14.53
-23.96
-37.09
-52.81
-68.62
-81.15
-87.03
-83.98
-71.69
-52.13
-28.95
-6.21
12.88
26.91
36.25
42.22
46.15
48.67
49.71
48.97
46.61
43.38
40.46
38.80
38.63
39.27
39.43
37.82
33.74
27.34
19.56
11.59
4.40
-1.66
-6.93
-12.23
-18.53
-26.70
-37.17
-49.74
-63.32
-75.87
-84.75
-87.39
-82.21
-69.35
-50.81
-29.79
-9.60
7.41
20.46
30.04
37.24
42.84
47.00
49.35
49.57
47.88
45.17
42.64
41.23
41.13
41.69
41.67
39.89
35.73
29.41
21.84
14.17
7.29
1.49
-3.55
-8.58
-14.41
-21.67
-30.69
-41.48
-53.66
-66.28
-77.72
-85.72
-87.92
-82.64
-69.65
-50.57
-28.47
-6.87
11.42
25.09
34.41
40.60
44.89
47.93
49.67
49.79
48.26
45.59
42.76
40.70
39.81
39.77
39.61
38.27
35.06
29.99
23.65
16.96
10.67
5.06
-0.08
-5.30
-11.23
-18.43
-27.33
-38.14
-50.74
-64.29
-77.06
-86.56
-90.13
-85.98
-74.05
-56.21
-35.70
-15.82
1.23
14.88
25.84
35.10
43.10
49.37
52.98
53.31
50.71
46.38
41.91
38.50
36.49
35.48
34.64
33.33
31.28
28.48
24.91
20.40
14.77
8.04
0.62
-6.88
-14.04
-21.10
-28.98
-38.82
-51.15
-65.11
-78.33
-87.64
-90.29
-85.18
-73.23
-56.83
-38.66
-20.55
-3.18
13.38
28.92
42.45
52.32
57.02
55.92
49.66
39.79
28.15
16.42
6.04
-1.76
-6.06
-6.57
-3.97
0.13
3.74
5.42
4.79
2.48
-0.62
-4.44
-10.31
-20.89
-38.82
-64.82
-96.10
-126.13
-146.41
-149.61
-132.84
-99.28
-57.22
-16.81
13.99
32.09
39.52
41.27
42.22
44.79
48.53
51.33
51.38
48.46
44.02
40.28
38.92
40.10
42.34
43.30
40.97
34.78
25.89
16.66
9.49
5.72
5.05
5.78
5.68
2.99
-3.06
-12.26
-23.86
-36.95
-50.55
-63.33
-73.49
-78.87
-77.57
-68.70
-52.93
-32.35
-9.92
11.34
29.11
42.02
49.77
52.88
52.52
50.21
47.42
45.28
44.36
44.63
45.66
46.79
47.21
46.08
42.65
36.58
28.26
18.86
10.00
3.11
-1.35
-4.06
-6.64
-10.83
-17.84
-27.86
-40.19
-53.50
-66.07
-76.01
-81.45
-80.78
-73.18
-59.04
-40.06
-18.82
1.91
19.94
34.04
43.88
49.59
51.56
50.26
46.46
41.38
36.46
32.91
31.11
30.37
29.34
26.63
21.67
15.00
7.93
1.81
-2.70
-5.91
-8.85
-12.81
-18.84
-27.56
-38.88
-51.91
-64.77
-74.75
-79.01
-75.65
-64.64
-48.23
-30.11
-14.08
-2.59
3.85
6.37
6.85
6.89
7.52
9.16
11.92
15.71
20.24
24.90
28.95
31.54
32.29
31.48
29.69
27.31
24.32
20.30
14.99
8.48
0.89
-7.74
-17.66
-29.23
-42.55
-56.70
-69.47
-77.57
-77.81
-68.86
-51.47
-27.99
-1.48
24.94
48.88
69.06
85.60
99.79
111.97
122.77
133.65
146.86
164.26
186.53
212.85
240.99
267.46
284.77
286.60
271.15
242.45
207.39
172.65
142.52
118.28
98.68
76.08
44.20
2.30
-44.18
-88.85
-127.86
-160.71
-189.44
-217.12
-253.63
-306.62
-377.15
-458.83
-544.67
-630.51
-715.64
-801.65
-846.26
-820.99
-728.66
-603.49
-482.06
-383.92
-310.09
-250.90
-194.11
-130.39
-63.58
-3.02
39.12
65.21
79.65
86.91
91.42
96.47
103.76
108.01
104.07
91.41
76.04
65.11
60.76
63.26
70.76
80.54
86.81
85.60
77.04
65.61
55.70
49.90
48.92
51.63
56.13
59.07
58.25
53.69
47.73
42.51
39.11
37.73
37.63
37.88
37.31
35.62
33.56
32.78
34.37
38.47
44.41
50.87
56.58
60.93
64.37
68.22
74.15
83.36
96.04
111.31
127.48
142.77
156.27
168.67
182.42
201.03
227.43
262.18
302.20
341.02
370.51
383.57
376.56
350.37
310.15
263.92
221.04
190.35
178.07
185.82
209.18
237.74
257.72
256.69
228.68
177.09
113.51
52.85
7.02
-19.34
-29.16
-29.74
-28.19
-28.09
-29.32
-29.98
-28.79
-26.05
-22.70
-18.74
-12.56
-1.94
13.41
29.74
39.26
33.03
5.68
-40.84
-96.16
-144.76
-171.99
-170.11
-141.52
-97.54
-53.44
-22.35
-11.03
-18.82
-39.97
-67.24
-94.50
-117.48
-132.78
-137.01
-127.71
-105.56
-76.36
-50.69
-40.31
-52.59
-85.79
-128.38
-163.22
-175.10
-157.48
-115.15
-61.39
-11.55
23.41
40.14
41.91
34.84
23.90
11.32
-2.69
-17.79
-31.89
-40.93
-40.54
-28.40
-5.96
21.40
46.19
61.68
64.27
54.50
36.19
14.26
-7.30
-26.35
-42.31
-54.98
-63.73
-67.35
-64.79
-56.07
-42.66
-27.14
-12.54
-1.54
4.04
3.35
-3.15
-13.35
-23.63
-29.44
-26.75
-13.68
8.30
34.33
57.37
70.59
69.70
54.32
27.89
-3.62
-33.74
-57.24
-71.04
-74.55
-69.56
-59.98
-50.95
-47.42
-52.15
-63.92
-77.19
-84.02
-77.56
-55.54
-22.06
13.93
42.93
59.56
64.94
65.58
69.50
81.52
100.52
120.03
131.63
129.43
113.11
88.35
64.45
50.26
50.28
62.82
80.97
95.94
101.23
95.42
82.35
68.52
59.27
55.87
55.12
51.57
40.91
22.45
-0.59
-22.90
-39.63
-48.47
-50.03
-46.72
-41.11
-34.74
-27.63
-18.85
-7.55
6.14
20.66
33.38
41.64
43.90
40.51
33.73
26.75
22.24
21.10
22.07
22.54
20.04
13.61
4.36
-5.18
-12.41
-16.07
-16.75
-16.44
-17.47
-21.35
-28.41
-38.00
-49.01
-60.33
-70.75
-78.75
-82.46
-80.12
-70.92
-55.61
-36.65
-17.41
-1.05
10.57
17.36
20.56
21.95
22.89
23.85
24.38
23.69
21.20
17.06
12.15
7.79
5.06
4.37
5.18
6.35
6.62
5.20
1.98
-2.77
-8.81
-16.33
-25.84
-37.54
-50.66
-63.04
-71.60
-73.37
-66.69
-52.04
-31.98
-10.22
9.66
25.34
36.13
42.72
46.32
48.01
48.38
47.63
45.79
43.01
39.57
35.73
31.65
27.30
22.60
17.62
12.65
8.16
4.55
1.81
-0.58
-3.66
-8.65
-16.60
-27.82
-41.51
-55.68
-67.47
-73.93
-73.04
-64.40
-49.52
-31.28
-12.87
3.27
16.09
25.85
33.41
39.47
44.12
46.88
47.24
45.22
41.59
37.59
34.41
32.64
32.02
31.65
30.43
27.66
23.27
17.80
12.06
6.67
1.77
-3.01
-8.38
-15.15
-23.90
-34.79
-47.31
-60.08
-70.91
-77.27
-77.07
-69.53
-55.61
-37.78
-19.14
-2.35
11.19
21.38
28.86
34.33
37.97
39.57
38.93
36.33
32.68
29.19
26.83
25.91
25.91
25.74
24.32
21.02
16.00
10.02
4.09
-1.10
-5.42
-9.39
-13.85
-19.62
-27.19
-36.60
-47.37
-58.41
-68.11
-74.44
-75.50
-70.14
-58.56
-42.43
-24.47
-7.54
6.29
16.28
22.83
26.93
29.50
30.95
31.34
30.62
28.92
26.62
24.10
21.55
18.85
15.70
11.78
7.02
1.63
-3.98
-9.39
-14.34
-18.94
-23.67
-29.29
-36.54
-45.73
-56.24
-66.41
-73.80
-76.05
-71.75
-61.16
-46.14
-29.51
-13.94
-1.16
8.41
15.29
20.33
24.14
26.93
28.66
29.33
29.19
28.59
27.78
26.73
25.05
22.28
18.23
13.13
7.68
2.65
-1.55
-5.14
-9.05
-14.51
-22.58
-33.63
-47.04
-61.07
-73.18
-80.63
-81.22
-74.03
-59.86
-41.10
-21.04
-2.85
11.41
21.19
27.27
31.00
33.57
35.49
36.63
36.66
35.43
33.21
30.55
27.91
25.43
22.88
19.87
16.19
12.03
7.81
3.99
0.63
-2.72
-6.92
-12.96
-21.51
-32.56
-45.23
-57.65
-67.25
-71.37
-68.15
-57.33
-40.59
-21.08
-2.35
12.96
23.82
30.72
34.89
37.25
37.97
36.55
32.66
26.72
20.01
14.19
10.50
9.14
9.32
9.76
9.34
7.66
5.02
2.08
-0.62
-3.02
-5.64
-9.36
-15.12
-23.54
-34.66
-47.67
-60.88
-71.92
-78.32
-78.24
-71.16
-58.06
-41.15
-23.03
-5.98
8.58
20.00
28.16
33.13
35.03
34.21
31.28
27.19
22.90
19.05
15.77
12.73
9.48
5.73
1.57
-2.61
-6.37
-9.48
-12.13
-14.94
-18.83
-24.81
-33.57
-45.03
-57.96
-70.07
-78.41
-80.35
-74.51
-61.43
-43.39
-23.67
-5.41
9.38
20.06
27.19
31.82
34.93
37.09
38.46
38.95
38.40
36.70
33.84
29.94
25.21
19.98
14.52
9.02
3.55
-1.97
-7.63
-13.64
-20.32
-28.21
-37.82
-49.18
-61.35
-72.13
-78.57
-77.94
-68.97
-52.56
-31.65
-10.21
8.30
21.94
30.69
35.84
39.07
41.53
43.65
45.18
45.75
45.13
43.37
40.71
37.43
33.73
29.63
25.09
20.06
14.55
8.60
2.25
-4.64
-12.57
-22.20
-33.93
-47.35
-60.73
-71.24
-75.71
-71.90
-59.50
-40.46
-18.31
3.09
20.88
33.78
42.07
46.88
49.42
50.51
50.54
49.69
48.09
45.91
43.26
40.13
36.41
32.03
27.04
21.63
16.12
10.73
5.48
0.08
-6.13
-13.96
-24.08
-36.51
-50.18
-62.83
-71.47
-73.31
-66.83
-52.53
-32.83
-11.21
8.92
25.32
37.22
45.02
49.60
51.77
52.02
50.74
48.41
45.73
43.37
41.62
40.28
38.61
35.82
31.43
25.56
18.86
12.17
6.05
0.51
-5.05
-11.66
-20.40
-31.99
-46.31
-61.98
-76.41
-86.25
-88.40
-81.21
-65.27
-43.31
-19.29
3.01
21.18
34.57
43.80
49.97
53.80
55.50
55.07
52.71
49.11
45.25
41.98
39.61
37.76
35.66
32.50
27.95
22.22
15.90
9.57
3.39
-2.94
-10.04
-18.50
-28.58
-40.08
-52.30
-63.97
-73.40
-78.63
-78.04
-70.94
-57.94
-40.89
-22.16
-3.87
12.66
26.92
38.75
47.88
53.80
56.18
55.32
52.40
49.03
46.51
45.16
44.23
42.47
38.94
33.62
27.44
21.81
17.83
15.74
14.65
12.89
8.64
0.58
-11.65
-27.26
-44.47
-60.86
-73.79
-80.91
-80.60
-72.47
-57.45
-37.54
-15.37
6.47
25.98
41.95
53.93
61.88
66.04
66.84
65.03
61.69
58.03
55.03
53.03
51.56
49.64
46.29
41.05
34.26
26.87
19.97
14.27
9.77
5.83
1.45
-4.37
-12.30
-22.58
-34.83
-47.97
-60.15
-68.97
-72.06
-67.91
-56.50
-39.51
-19.79
-0.41
16.30
29.23
38.37
44.28
47.56
48.57
47.63
45.25
42.17
39.21
36.86
35.05
33.19
30.54
26.61
21.42
15.48
9.52
4.11
-0.59
-4.95
-9.74
-15.91
-24.33
-35.33
-48.37
-61.77
-72.92
-78.90
-77.49
-68.12
-52.17
-32.66
-13.09
3.64
16.09
24.29
29.22
32.02
33.43
33.69
32.74
30.59
27.49
23.92
20.33
17.03
14.06
11.22
8.30
5.12
1.69
-1.93
-5.83
-10.45
-16.53
-24.85
-35.62
-47.86
-59.29
-66.75
-67.31
-59.49
-43.99
-23.62
-2.30
16.33
30.09
38.61
42.94
44.66
45.05
44.71
43.63
41.60
38.56
34.70
30.40
26.04
21.81
17.72
13.63
9.40
4.97
0.30
-4.72
-10.49
-17.60
-26.71
-37.98
-50.57
-62.45
-70.70
-72.47
-66.11
-52.01
-32.56
-11.43
7.81
22.81
32.93
38.96
42.25
43.94
44.63
44.40
43.23
41.23
38.60
35.43
31.59
26.80
20.87
14.00
6.83
0.25
-5.05
-8.89
-11.77
-14.74
-18.95
-25.25
-33.66
-43.13
-51.59
-56.52
-55.76
-48.40
-35.23
-18.52
-1.22
14.09
25.96
34.30
39.87
43.67
46.34
48.06
48.76
48.45
47.35
45.80
43.99
41.83
38.97
35.09
30.10
24.33
18.42
13.00
8.39
4.40
0.34
-4.78
-11.91
-21.45
-32.89
-44.59
-54.04
-58.59
-56.40
-47.32
-33.00
-16.45
-0.86
11.43
19.60
24.13
26.19
26.89
26.83
26.21
25.05
23.51
21.83
20.29
18.90
17.45
15.59
13.04
9.71
5.76
1.49
-2.89
-7.35
-12.20
-18.01
-25.38
-34.51
-44.74
-54.40
-61.08
-62.45
-57.28
-46.06
-31.05
-15.45
-2.20
7.06
12.35
14.87
16.12
17.11
18.00
18.36
17.67
15.78
13.06
10.19
7.83
6.32
5.38
4.22
1.69
-3.16
-10.68
-20.35
-31.07
-41.63
-51.23
-59.49
-66.07
-70.21
-70.64
-66.10
-56.23
-42.27
-26.93
-13.27
-3.45
2.23
5.04
6.70
8.01
8.38
6.49
1.55
-5.56
-12.40
-16.16
-15.50
-11.63
-7.74
-7.25
-11.70
-19.79
-28.31
-34.18
-36.45
-36.87
-38.56
-43.86
-52.53
-61.66
-67.20
-66.16
-58.03
-44.83
-29.79
-15.72
-3.93
5.68
13.82
20.80
26.07
28.50
27.30
22.82
16.74
11.35
8.58
9.03
11.89
15.45
17.96
18.28
16.03
11.28
4.20
-5.04
-16.06
-28.01
-39.50
-48.83
-54.43
-55.17
-50.54
-40.66
-26.28
-8.79
9.88
27.67
42.73
53.96
61.12
64.72
65.70
65.02
63.42
61.35
59.06
56.62
54.02
51.30
48.56
45.99
43.83
42.17
40.79
39.12
36.46
32.23
26.21
18.53
9.55
-0.19
-9.84
-18.21
-23.71
-24.81
-20.65
-11.63
0.51
13.29
24.36
32.37
37.24
39.82
41.16
41.95
42.36
42.22
41.32
39.66
37.35
34.53
31.28
27.64
23.69
19.65
15.77
12.19
8.83
5.33
1.17
-4.22
-11.32
-20.33
-30.93
-42.11
-52.18
-59.03
-60.88
-57.03
-48.34
-37.05
-25.94
-17.19
-11.68
-8.92
-7.60
-6.61
-5.60
-5.13
-6.10
-9.10
-13.97
-19.78
-25.34
-29.72
-32.83
-35.61
-39.97
-48.18
-62.02
-81.65
-104.83
-127.00
-142.34
-145.41
-132.93
-104.63
-63.11
-12.87
40.90
93.06
138.70
173.39
193.58
197.71
187.29
167.08
143.87
123.97
110.67
102.91
96.04
84.17
63.24
33.20
-1.76
-34.74
-58.78
-69.11
-64.25
-45.88
-18.04
13.82
43.34
63.58
68.54
55.04
25.14
-12.72
-45.21
-58.55
-44.09
-2.29
57.35
120.47
174.05
211.05
231.33
238.93
238.08
230.66
216.39
195.07
168.52
140.81
116.45
98.12
85.44
75.54
64.90
51.12
33.85
14.43
-4.97
-22.06
-35.34
-45.09
-53.53
-64.55
-81.84
-106.20
-133.80
-156.61
-165.33
-153.53
-120.48
-71.73
-16.94
33.67
71.91
92.59
92.86
71.66
30.25
-26.26
-87.87
-140.99
-172.47
-174.77
-149.37
-106.20
-59.51
-22.17
-1.35
2.20
-8.12
-28.32
-56.84
-94.71
-143.28
-201.29
-263.27
-320.46
-364.07
-388.59
-393.67
-383.45
-363.70
-338.42
-307.91
-269.44
-219.69
-157.98
-87.91
-16.56
47.89
98.63
131.46
144.99
140.38
121.25
93.65
65.52
44.52
35.56
39.36
52.66
70.45
88.71
105.93
122.56
139.13
154.49
165.54
168.63
161.27
143.33
116.82
85.21
52.30
21.69
-3.46
-21.00
-30.04
-31.30
-26.90
-19.60
-11.91
-5.53
-1.28
0.46
-0.38
-3.70
-8.93
-14.97
-20.25
-23.40
-23.89
-22.49
-21.03
-21.66
-25.79
-33.33
-42.54
-50.68
-55.21
-54.85
-50.08
-43.00
-36.47
-33.01
-33.92
-38.83
-45.66
-51.38
-52.85
-48.09
-36.90
-21.03
-3.50
12.56
24.99
33.08
37.37
38.91
38.62
37.03
34.46
31.37
28.47
26.48
25.79
26.20
26.98
27.29
26.56
24.68
21.96
18.73
15.10
10.85
5.46
-1.66
-10.92
-22.19
-34.58
-46.29
-54.87
-57.94
-54.08
-43.60
-28.63
-12.47
1.62
11.55
17.01
19.15
19.72
20.11
20.81
21.44
21.28
19.76
16.83
12.89
8.54
4.36
0.72
-2.19
-4.38
-5.95
-7.11
-8.27
-10.08
-13.41
-19.10
-27.37
-37.32
-46.83
-52.95
-52.97
-45.56
-31.37
-12.98
6.11
22.81
35.37
43.69
48.86
52.18
54.55
56.18
56.86
56.36
54.71
52.17
48.98
45.18
40.64
35.22
28.98
22.30
15.75
9.72
4.19
-1.47
-8.34
-17.47
-29.32
-43.18
-57.02
-67.87
-72.82
-70.10
-59.90
-44.40
-26.93
-10.72
2.22
11.49
17.82
22.21
25.23
26.81
26.60
24.58
21.29
17.75
14.95
13.41
12.99
13.06
12.86
11.89
10.11
7.81
5.28
2.53
-0.93
-5.92
-13.13
-22.47
-32.69
-41.55
-46.47
-45.57
-38.40
-26.22
-11.52
2.94
15.02
23.74
29.28
32.48
34.34
35.59
36.51
37.03
36.90
35.91
34.02
31.46
28.59
25.81
23.32
20.99
18.46
15.28
11.13
5.91
-0.48
-8.20
-17.50
-28.36
-39.97
-50.45
-57.16
-57.55
-50.25
-35.83
-16.74
3.49
21.49
35.13
43.82
48.25
49.64
49.08
47.26
44.50
41.05
37.16
33.23
29.66
26.73
24.50
22.77
21.24
19.55
17.44
14.76
11.39
7.09
1.43
-6.09
-15.67
-26.72
-37.58
-45.75
-48.67
-44.81
-34.36
-19.41
-3.18
11.19
21.68
27.84
30.57
31.30
31.29
31.29
31.55
32.09
32.87
33.78
34.53
34.68
33.66
31.12
27.06
21.91
16.40
11.19
6.71
2.86
-0.95
-5.60
-11.91
-20.09
-29.38
-37.98
-43.52
-43.91
-38.21
-27.10
-12.74
2.04
14.75
23.92
29.42
31.97
32.60
32.08
30.76
28.70
25.91
22.51
18.71
14.81
11.07
7.70
4.85
2.57
0.78
-0.75
-2.43
-4.79
-8.42
-13.88
-21.47
-30.96
-41.34
-50.69
-56.51
-56.49
-49.37
-35.66
-17.68
1.19
17.62
29.47
36.24
38.88
38.94
37.88
36.50
34.99
33.19
30.97
28.39
25.72
23.27
21.22
19.53
18.00
16.34
14.36
11.95
9.05
5.56
1.17
-4.69
-12.51
-22.36
-33.33
-43.47
-50.18
-51.15
-45.34
-33.62
-18.49
-3.21
9.38
17.84
22.26
23.77
23.74
23.14
22.33
21.34
20.21
19.17
18.52
18.41
18.67
18.93
18.80
18.14
17.14
16.07
15.03
13.78
11.78
8.38
3.12
-4.08
-12.82
-22.23
-31.03
-37.75
-41.04
-40.02
-34.65
-25.76
-14.84
-3.52
6.87
15.67
22.66
27.73
30.60
30.74
27.82
22.16
15.12
8.74
5.00
4.84
7.61
11.20
12.98
11.06
5.15
-3.26
-11.67
-17.76
-20.55
-20.81
-20.42
-21.27
-24.09
-27.97
-30.76
-30.32
-25.58
-17.24
-7.40
1.41
7.41
10.20
10.61
10.02
9.49
9.39
9.54
9.67
9.87
10.59
12.22
14.67
17.13
18.34
17.28
13.69
8.28
2.36
-2.89
-7.04
-10.57
-14.44
-19.31
-24.97
-30.20
-33.28
-32.71
-27.92
-19.42
-8.58
2.93
13.70
22.76
29.62
34.06
35.93
35.20
32.12
27.31
21.77
16.60
12.66
10.27
9.11
8.45
7.43
5.41
2.19
-2.05
-6.87
-11.80
-16.51
-21.02
-25.64
-30.83
-36.74
-42.90
-48.04
-50.42
-48.52
-41.81
-31.09
-18.39
-6.13
3.84
10.78
15.15
18.05
20.45
22.80
24.88
26.27
26.65
26.04
24.71
22.94
20.80
18.16
14.85
10.85
6.46
2.16
-1.55
-4.42
-6.66
-8.91
-12.06
-16.95
-23.92
-32.47
-41.18
-47.89
-50.47
-47.59
-39.41
-27.62
-14.84
-3.63
4.49
9.37
12.03
13.87
15.95
18.45
20.82
22.14
21.75
19.54
16.07
12.25
8.98
6.74
5.42
4.34
2.55
-0.85
-6.51
-14.66
-24.92
-36.08
-45.95
-51.68
-50.58
-41.20
-24.13
-2.09
21.00
41.43
56.96
67.25
73.40
76.95
79.03
79.98
79.67
77.93
74.87
70.81
65.95
60.17
53.02
43.94
32.68
19.62
5.82
-7.13
-17.72
-24.97
-28.83
-30.23
-30.66
-31.62
-34.23
-38.91
-45.44
-53.14
-60.92
-67.40
-71.11
-70.78
-65.85
-56.76
-44.91
-32.26
-20.69
-11.41
-4.72
-0.31
2.31
3.48
3.29
1.81
-0.63
-3.35
-5.48
-6.31
-5.61
-3.73
-1.46
0.27
0.74
-0.34
-2.80
-6.19
-10.06
-14.19
-18.75
-24.19
-30.92
-38.86
-47.18
-54.25
-58.16
-57.40
-51.51
-41.35
-28.72
-15.74
-4.07
5.49
12.91
18.50
22.52
24.95
25.65
24.70
22.60
20.23
18.45
17.69
17.77
17.90
17.21
15.10
11.65
7.49
3.51
0.35
-1.96
-4.04
-6.98
-11.80
-18.92
-27.72
-36.50
-43.01
-45.20
-42.02
-33.79
-22.00
-8.66
4.45
16.18
25.98
33.59
38.74
41.11
40.62
37.73
33.48
29.17
25.87
23.90
22.79
21.56
19.20
15.06
9.05
1.63
-6.44
-14.35
-21.36
-27.02
-31.24
-34.30
-36.76
-39.16
-41.68
-43.89
-44.79
-43.19
-38.32
-30.27
-20.08
-9.44
-0.02
7.10
11.65
14.09
15.19
15.63
15.79
15.77
15.54
15.08
14.40
13.50
12.33
10.79
8.85
6.67
4.60
2.98
1.96
1.24
0.17
-2.17
-6.46
-12.87
-20.71
-28.54
-34.47
-36.75
-34.33
-27.21
-16.39
-3.55
9.49
21.21
30.64
37.29
41.06
42.05
40.70
37.72
34.06
30.70
28.26
26.78
25.73
24.16
21.16
16.21
9.41
1.47
-6.50
-13.36
-18.26
-20.85
-21.43
-20.80
-20.11
-20.45
-22.43
-25.89
-29.85
-32.75
-33.14
-30.18
-24.03
-15.65
-6.29
3.04
11.97
20.49
28.64
35.99
41.61
44.46
43.98
40.48
35.19
29.80
25.78
23.91
24.02
25.24
26.49
26.88
26.05
24.11
21.39
18.13
14.29
9.59
3.64
-3.77
-12.61
-22.50
-32.72
-42.22
-49.60
-53.42
-52.60
-46.90
-37.21
-25.33
-13.32
-2.74
5.92
13.16
19.85
26.55
33.05
38.43
41.60
41.90
39.48
35.12
29.92
24.93
20.87
18.17
16.89
16.86
17.50
17.97
17.15
14.09
8.24
-0.20
-10.30
-20.72
-30.07
-37.35
-41.96
-43.66
-42.43
-38.47
-32.30
-24.84
-17.20
-10.21
-4.00
2.19
9.54
18.83
29.80
40.89
49.87
54.76
54.81
50.65
44.00
36.81
30.53
25.70
22.10
19.00
15.50
10.87
4.63
-3.30
-12.64
-22.82
-33.22
-43.47
-53.40
-62.86
-71.24
-77.20
-78.81
-74.30
-63.01
-46.00
-25.99
-6.34
10.17
22.28
30.33
35.54
38.94
40.67
40.09
36.45
29.80
21.34
13.10
7.03
4.13
4.09
5.60
7.16
7.85
7.76
7.69
8.49
10.31
12.31
12.92
10.42
3.75
-7.04
-20.60
-34.52
-45.89
-52.07
-51.49
-44.14
-31.67
-16.74
-2.17
10.11
19.48
26.46
32.04
36.90
41.06
43.91
44.81
43.52
40.42
36.39
32.48
29.62
28.44
29.16
31.52
34.74
37.60
38.79
37.24
32.60
25.34
16.61
7.79
0.04
-6.05
-10.61
-14.32
-18.14
-22.85
-28.71
-35.29
-41.42
-45.66
-46.74
-44.11
-38.30
-30.75
-23.45
-18.23
-16.27
-17.79
-22.20
-28.42
-35.27
-41.68
-46.68
-49.39
-49.16
-45.84
-39.97
-32.68
-25.29
-18.53
-11.99
-4.14
6.89
22.23
41.33
61.87
80.49
93.99
100.40
99.21
91.25
77.98
61.13
42.68
24.77
9.57
-1.19
-6.81
-7.92
-6.15
-3.44
-1.14
0.47
1.98
4.25
7.65
11.71
15.34
17.37
17.04
14.27
9.46
3.04
-4.86
-14.52
-26.36
-40.46
-56.20
-72.11
-86.17
-96.18
-100.21
-97.13
-86.85
-70.64
-50.97
-31.08
-14.03
-1.84
5.18
8.35
9.97
12.41
17.32
25.34
36.28
49.41
63.66
77.44
88.55
94.34
92.40
81.45
62.09
36.74
8.96
-17.78
-41.23
-60.77
-77.21
-91.83
-105.49
-118.06
-128.51
-135.65
-138.91
-139.04
-138.29
-139.93
-147.02
-160.96
-180.31
-200.58
-215.37
-218.61
-206.87
-180.81
-144.80
-104.96
-66.59
-32.20
-1.25
28.30
57.80
86.42
111.18
128.49
136.07
134.07
124.90
111.85
97.72
84.01
71.07
58.91
48.03
39.56
35.02
35.86
42.90
55.99
73.75
93.49
111.48
123.79
127.54
121.98
108.75
91.18
72.99
57.05
44.93
37.20
34.04
35.62
41.93
52.46
65.90
80.36
93.73
104.24
110.65
112.26
108.86
100.58
87.95
71.75
52.98
32.70
12.08
-7.40
-23.82
-34.95
-38.79
-34.38
-22.40
-5.32
13.07
28.46
36.97
35.89
24.30
3.36
-23.87
-52.86
-78.73
-97.49
-106.97
-107.19
-100.08
-88.52
-75.60
-64.33
-57.62
-58.05
-67.10
-84.12
-105.90
-127.37
-143.71
-152.46
-154.71
-154.05
-154.08
-155.82
-156.72
-151.79
-136.36
-108.45
-69.88
-25.22
20.05
61.41
96.08
122.83
141.43
152.28
156.55
156.18
154.02
153.21
156.32
164.47
176.90
191.03
203.28
210.08
208.91
198.95
181.18
158.06
132.91
109.36
90.69
79.33
76.30
80.95
91.03
103.22
113.92
120.09
119.69
111.70
95.87
72.46
42.23
6.67
-31.87
-70.26
-105.11
-133.31
-152.65
-161.99
-161.30
-151.51
-134.32
-112.36
-89.00
-68.16
-53.36
-46.78
-48.69
-57.78
-72.07
-89.85
-109.92
-131.00
-150.88
-166.27
-173.77
-171.46
-159.96
-142.09
-121.08
-98.83
-75.07
-48.43
-18.38
13.22
42.09
63.08
72.25
68.31
52.62
28.63
0.65
-26.97
-50.45
-67.35
-76.96
-80.41
-79.99
-77.99
-75.61
-72.86
-69.51
-66.54
-66.73
-73.64
-89.46
-112.72
-137.53
-155.35
-158.01
-140.74
-103.69
-51.39
9.01
69.62
123.12
163.02
184.07
183.18
161.04
123.46
80.60
43.55
19.65
8.77
3.36
-7.24
-30.88
-67.69
-109.49
-143.80
-159.63
-151.85
-121.56
-73.66
-13.45
54.89
126.99
196.37
254.26
291.53
302.77
289.07
258.30
222.42
193.05
177.54
177.18
187.52
200.68
208.33
204.38
186.83
158.02
123.32
88.62
58.10
32.99
12.30
-5.61
-21.63
-35.44
-46.34
-54.46
-61.07
-67.52
-73.78
-77.51
-74.77
-62.16
-39.20
-9.23
21.67
47.27
64.07
72.63
76.93
82.08
91.78
106.65
124.49
141.68
155.13
163.46
167.25
168.27
168.40
168.57
168.40
166.40
160.80
150.34
134.81
115.13
92.78
69.17
45.03
20.37
-5.35
-32.44
-60.59
-88.93
-116.59
-143.75
-172.44
-206.52
-250.50
-307.30
-375.96
-450.40
-520.52
-575.14
-605.90
-610.28
-591.80
-557.77
-515.74
-471.01
-426.38
-383.70
-345.32
-314.23
-292.44
-278.99
-269.43
-257.28
-237.01
-206.54
-167.75
-124.92
-82.48
-42.89
-6.22
28.91
64.17
100.80
139.56
181.12
225.84
273.06
320.40
363.74
397.82
418.04
422.14
411.03
388.58
360.35
332.14
308.57
292.37
283.87
281.33
281.47
280.55
275.70
265.87
251.88
235.62
218.72
201.71
184.13
165.00
143.15
117.30
85.71
46.51
-1.33
-56.32
-113.02
-162.72
-196.60
-209.76
-204.28
-188.63
-173.30
-166.04
-168.80
-178.35
-189.98
-201.32
-213.64
-229.77
-250.49
-271.41
-284.95
-284.38
-267.84
-239.48
-207.20
-178.53
-157.08
-141.76
-127.25
-108.37
-82.41
-49.36
-10.67
32.13
77.92
125.71
174.10
222.43
268.31
307.81
336.32
350.35
349.15
335.12
313.26
280.28
237.65
190.40
145.39
107.73
79.04
58.50
44.51
35.66
30.65
29.54
31.86
36.41
41.67
46.54
50.74
54.25
57.17
59.48
62.16
65.71
70.11
74.73
79.19
83.75
88.49
93.75
99.73
107.24
116.70
127.94
140.39
153.40
166.61
179.24
190.79
200.89
209.54
216.37
220.43
219.88
212.01
198.30
178.96
154.62
126.38
95.81
64.41
33.34
3.19
-25.70
-52.96
-78.51
-101.66
-121.29
-136.33
-146.39
-151.87
-154.11
-154.89
-155.69
-158.01
-162.62
-169.64
-178.31
-186.46
-190.40
-185.61
-168.29
-137.12
-94.71
-47.12
-1.18
38.90
71.31
96.27
115.16
128.78
136.62
137.16
128.84
111.81
89.01
63.63
37.93
13.20
-10.04
-31.39
-50.29
-66.82
-80.12
-86.68
-84.90
-75.89
-61.83
-45.42
-29.22
-14.94
-7.11
-7.73
-10.34
-11.52
-12.53
-14.94
-20.33
-29.78
-43.39
-68.21
-107.31
-147.23
-180.85
-210.35
-238.15
-266.46
-296.60
-328.59
-373.76
-437.43
-498.50
-545.66
-582.08
-611.06
-636.23
-661.52
-690.91
-744.19
-832.30
-928.66
-1014.64
-1086.12
-1137.64
-1165.83
-1171.68
-1056.17
-784.00
-528.26
-349.03
-208.33
-94.21
1.25
82.28
150.57
206.90
235.91
229.97
216.08
209.19
206.16
204.34
201.58
196.84
190.58
171.95
136.27
105.23
90.71
89.90
99.55
116.06
136.05
157.10
170.04
170.10
169.60
174.90
183.20
191.39
196.20
195.03
186.80
168.67
141.45
115.29
97.60
90.50
94.45
108.23
129.75
157.03
187.75
221.43
261.32
309.83
367.42
433.67
506.62
582.08
653.27
711.51
748.35
758.52
742.56
707.39
664.03
623.19
590.95
566.64
544.05
515.30
474.98
422.42
361.20
296.61
232.74
171.07
110.82
50.09
-12.95
-79.55
-150.08
-223.60
-297.13
-365.24
-420.94
-457.66
-471.71
-463.52
-437.05
-397.71
-350.36
-299.15
-248.45
-204.20
-173.28
-160.90
-167.87
-189.62
-218.54
-248.00
-275.23
-301.02
-326.56
-350.23
-366.87
-370.21
-356.90
-328.90
-292.64
-255.48
-222.04
-192.90
-166.02
-139.58
-113.81
-90.81
-72.82
-60.44
-52.23
-45.58
-38.31
-29.64
-20.15
-11.10
-3.39
2.96
8.82
15.68
24.75
36.59
50.90
66.58
82.30
96.94
110.06
122.11
134.39
148.60
165.95
186.25
207.28
225.13
235.38
234.80
222.67
201.01
173.71
145.01
118.32
95.75
78.47
67.30
63.00
65.87
75.26
89.29
105.08
119.61
130.45
136.27
136.78
132.47
124.14
112.63
98.81
83.89
69.68
58.55
52.75
53.43
59.91
69.54
78.62
83.80
83.31
77.36
67.54
55.50
42.08
27.07
10.11
-8.18
-25.50
-38.30
-43.08
-37.92
-23.44
-2.62
20.22
41.02
57.24
68.26
74.93
78.65
80.50
80.88
79.66
76.68
72.08
66.45
60.58
55.13
50.39
46.25
42.37
38.45
34.46
30.51
26.56
22.19
16.46
8.24
-3.28
-17.96
-34.41
-50.15
-62.26
-68.32
-67.18
-59.27
-46.28
-30.49
-13.94
2.05
16.90
30.39
42.16
51.33
56.68
57.29
53.09
45.40
36.63
29.50
26.04
26.53
29.23
31.17
29.59
23.41
13.87
3.82
-3.77
-7.24
-6.93
-4.64
-2.62
-2.41
-4.43
-8.13
-12.45
-16.16
-17.95
-16.65
-11.50
-2.80
8.05
18.93
28.25
35.79
42.77
50.82
60.32
69.75
75.91
75.52
67.10
51.99
33.81
16.93
4.51
-2.41
-4.64
-4.04
-2.92
-4.07
-10.81
-26.37
-52.31
-86.70
-123.53
-154.04
-169.68
-165.30
-140.98
-101.66
-55.01
-8.61
31.96
63.80
86.21
99.86
106.10
106.71
103.64
98.87
94.18
90.92
89.89
91.10
93.46
94.98
93.40
87.10
76.07
62.04
47.86
36.28
28.89
25.43
24.15
22.52
18.29
10.19
-1.79
-16.42
-31.54
-44.43
-52.33
-53.13
-46.06
-32.16
-14.15
4.34
19.95
30.60
35.96
36.97
35.00
31.13
25.92
19.78
13.34
7.52
3.08
0.19
-1.67
-3.19
-4.57
-5.20
-4.09
-0.85
3.66
7.39
8.06
4.27
-3.77
-14.47
-25.68
-35.53
-42.81
-46.82
-47.08
-43.11
-34.69
-22.18
-6.80
9.45
24.29
35.76
42.85
45.79
45.94
45.22
45.33
46.98
49.55
51.34
50.36
45.32
36.22
24.52
12.63
3.05
-2.69
-4.69
-4.70
-5.40
-9.04
-16.60
-27.26
-39.05
-49.95
-58.76
-65.03
-68.44
-68.33
-63.85
-54.99
-43.07
-30.48
-19.33
-10.14
-1.78
7.05
15.67
20.65
17.33
2.93
-20.67
-46.60
-65.86
-71.18
-59.98
-34.36
1.13
41.99
85.01
127.76
167.83
202.73
230.29
249.54
260.65
263.92
258.87
244.52
220.96
191.21
161.48
139.14
129.36
132.28
142.67
152.52
154.51
144.94
124.17
94.84
59.72
20.29
-22.64
-67.11
-108.96
-142.50
-163.19
-170.84
-171.23
-174.74
-192.18
-229.59
-284.50
-345.91
-398.42
-428.51
-430.06
-406.29
-367.43
-325.58
-289.36
-261.25
-238.50
-216.22
-190.69
-160.82
-127.61
-92.35
-56.28
-21.37
8.36
27.06
29.68
15.02
-12.23
-42.71
-66.44
-77.57
-76.51
-68.59
-60.32
-55.81
-55.84
-59.29
-65.47
-74.97
-88.56
-105.10
-120.50
-129.08
-126.32
-111.53
-88.31
-62.47
-38.86
-18.77
0.32
22.78
51.67
86.63
123.65
156.81
180.78
193.01
194.60
189.44
182.49
177.77
177.09
179.56
182.14
180.35
169.56
146.71
111.66
68.46
25.14
-7.99
-21.70
-11.45
20.23
63.92
106.21
134.25
140.29
124.31
93.90
60.93
36.69
27.54
32.61
45.06
55.86
58.26
50.86
37.47
24.10
15.02
10.83
9.42
8.79
9.37
14.05
25.17
41.47
57.20
64.59
58.29
38.69
12.04
-12.67
-28.04
-31.50
-25.42
-14.88
-4.85
1.57
3.35
0.70
-5.64
-14.73
-25.13
-35.06
-42.69
-46.53
-46.03
-41.68
-34.58
-26.09
-17.48
-9.60
-2.74
3.34
9.38
16.21
24.09
32.14
38.00
38.49
31.10
15.72
-4.53
-24.06
-37.00
-39.98
-33.65
-22.38
-11.95
-6.85
-8.45
-14.98
-23.16
-30.24
-35.31
-39.15
-43.17
-47.95
-52.54
-54.92
-52.88
-45.38
-33.21
-18.81
-5.22
5.16
11.49
14.62
16.32
18.21
20.92
23.87
25.77
25.55
22.99
18.84
14.48
11.11
9.29
8.70
8.41
7.47
5.34
2.07
-1.84
-5.81
-9.61
-13.44
-17.89
-23.51
-30.44
-38.03
-44.92
-49.33
-49.74
-45.51
-37.13
-26.12
-14.44
-3.83
4.73
11.04
15.50
18.61
20.71
21.88
22.09
21.40
20.05
18.36
16.64
14.98
13.27
11.30
8.93
6.17
3.28
0.54
-1.79
-3.74
-5.61
-7.89
-11.17
-15.89
-22.27
-30.09
-38.58
-46.40
-51.82
-53.27
-49.85
-41.80
-30.48
-17.91
-6.09
3.65
10.87
15.85
19.15
21.22
22.24
22.26
21.47
20.24
19.15
18.66
18.98
19.93
21.02
21.65
21.34
19.83
17.17
13.62
9.56
5.35
1.23
-2.81
-6.99
-11.69
-17.18
-23.49
-30.19
-36.44
-41.08
-42.99
-41.29
-35.63
-26.30
-14.12
-0.39
13.44
25.95
36.00
42.78
45.93
45.58
42.32
37.17
31.42
26.35
22.89
21.34
21.27
21.80
21.87
20.69
18.02
14.15
9.74
5.49
1.88
-1.00
-3.39
-5.78
-8.65
-12.43
-17.34
-23.34
-29.96
-36.22
-40.62
-41.63
-38.13
-29.99
-18.26
-4.88
7.93
18.46
25.88
30.25
32.07
31.96
30.42
27.87
24.80
21.81
19.46
18.01
17.33
16.89
16.05
14.32
11.60
8.15
4.47
1.03
-1.88
-4.28
-6.54
-9.22
-12.98
-18.29
-25.09
-32.59
-39.25
-43.15
-42.66
-37.14
-27.28
-14.89
-2.18
9.00
17.73
24.02
28.34
31.16
32.62
32.61
31.04
28.18
24.58
20.95
17.81
15.28
13.15
11.03
8.52
5.46
1.92
-1.84
-5.59
-9.20
-12.92
-17.26
-22.77
-29.60
-37.12
-43.79
-47.59
-46.77
-40.58
-29.78
-16.38
-2.91
8.44
16.53
21.35
23.63
24.28
23.94
22.90
21.19
18.89
16.17
13.33
10.58
7.95
5.38
2.73
-0.03
-2.78
-5.36
-7.65
-9.80
-12.26
-15.72
-20.87
-28.02
-36.73
-45.66
-52.76
-55.89
-53.61
-45.76
-33.65
-19.56
-5.98
5.21
13.19
18.06
20.44
21.00
20.09
17.89
14.54
10.37
5.92
1.76
-1.65
-4.10
-5.62
-6.38
-6.60
-6.52
-6.43
-6.70
-7.80
-10.18
-14.24
-20.17
-27.84
-36.62
-45.30
-52.13
-55.21
-53.03
-45.19
-32.64
-17.51
-2.50
10.11
19.07
24.32
26.66
27.20
26.86
26.15
25.27
24.23
22.99
21.46
19.46
16.77
13.26
9.00
4.30
-0.37
-4.55
-8.01
-10.82
-13.37
-16.29
-20.28
-25.81
-32.83
-40.51
-47.22
-50.90
-49.74
-43.02
-31.49
-17.30
-3.23
8.29
16.00
19.93
21.06
20.62
19.45
17.92
16.01
13.71
11.23
8.93
7.12
5.86
4.92
3.83
2.14
-0.35
-3.57
-7.15
-10.75
-14.26
-18.04
-22.75
-28.98
-36.63
-44.53
-50.59
-52.44
-48.44
-38.50
-24.24
-8.35
6.35
17.94
25.66
29.76
30.91
29.76
26.84
22.71
18.11
13.86
10.60
8.39
6.77
4.96
2.34
-1.14
-5.01
-8.53
-11.16
-12.97
-14.66
-17.41
-22.22
-29.37
-37.93
-45.88
-50.67
-50.19
-43.69
-32.15
-17.90
-3.79
7.91
16.17
21.16
23.81
25.07
25.46
25.05
23.75
21.58
18.82
15.90
13.15
10.69
8.42
6.10
3.56
0.68
-2.53
-6.08
-10.04
-14.69
-20.44
-27.60
-36.02
-44.75
-51.98
-55.50
-53.47
-45.29
-32.01
-16.09
-0.53
12.21
20.92
25.80
27.94
28.62
28.75
28.68
28.33
27.51
26.04
23.86
20.99
17.57
13.77
9.86
6.14
2.90
0.24
-2.00
-4.23
-7.13
-11.46
-17.80
-26.33
-36.40
-46.49
-54.37
-57.72
-54.97
-45.97
-32.22
-16.43
-1.58
10.07
17.59
21.41
22.78
23.02
23.03
23.10
23.14
22.98
22.55
21.88
21.00
19.80
18.09
15.70
12.61
9.09
5.56
2.40
-0.32
-2.98
-6.37
-11.48
-19.01
-28.88
-39.92
-49.90
-56.13
-56.32
-49.57
-36.80
-20.55
-4.15
9.53
18.89
23.95
25.92
26.36
26.50
26.84
27.24
27.34
26.85
25.79
24.39
22.96
21.65
20.40
18.97
17.05
14.42
10.96
6.63
1.30
-5.29
-13.39
-22.87
-32.88
-41.70
-47.08
-47.02
-40.65
-28.77
-13.63
1.78
14.82
24.05
29.37
31.74
32.42
32.45
32.36
32.24
31.97
31.36
30.29
28.66
26.43
23.67
20.51
17.19
13.91
10.78
7.73
4.45
0.48
-4.72
-11.59
-20.16
-29.74
-38.82
-45.29
-47.08
-43.00
-33.26
-19.60
-4.67
8.94
19.55
26.77
31.29
34.14
36.11
37.43
37.89
37.29
35.73
33.69
31.70
30.10
28.74
27.09
24.56
20.89
16.30
11.49
7.19
3.84
1.31
-1.07
-4.16
-8.74
-15.20
-23.49
-33.04
-42.76
-51.02
-56.00
-56.11
-50.67
-40.28
-26.77
-12.60
-0.04
9.59
16.07
19.98
22.14
23.09
23.09
22.23
20.71
18.91
17.26
16.07
15.38
15.06
14.92
14.85
14.81
14.76
14.57
13.93
12.40
9.51
4.86
-1.73
-10.03
-19.26
-28.04
-34.63
-37.36
-35.31
-28.70
-18.98
-8.40
0.82
7.21
10.50
11.44
11.28
11.14
11.57
12.56
13.81
15.01
16.03
16.81
17.20
16.90
15.53
12.85
9.02
4.62
0.40
-3.04
-5.59
-7.68
-10.19
-14.02
-19.80
-27.52
-36.32
-44.58
-50.25
-51.46
-47.24
-37.96
-25.38
-12.06
-0.40
8.17
13.51
16.59
18.68
20.69
22.83
24.76
26.05
26.59
26.67
26.75
27.14
27.66
27.75
26.70
24.07
19.97
15.01
10.11
6.03
3.10
1.03
-0.91
-3.60
-7.78
-13.81
-21.56
-30.32
-38.90
-45.69
-49.06
-47.86
-41.86
-32.02
-20.21
-8.61
1.11
8.29
13.32
17.14
20.64
24.11
27.21
29.31
29.89
28.98
27.09
24.98
23.28
22.19
21.45
20.49
18.77
16.03
12.45
8.51
4.78
1.58
-1.13
-3.81
-6.99
-11.16
-16.44
-22.70
-29.58
-36.63
-43.27
-48.77
-52.14
-52.30
-48.50
-40.72
-29.88
-17.69
-6.08
3.45
10.18
14.29
16.41
17.27
17.35
16.88
16.01
14.96
14.01
13.34
12.91
12.40
11.41
9.64
7.07
4.04
1.01
-1.64
-3.85
-5.94
-8.51
-12.22
-17.48
-24.29
-32.07
-39.65
-45.45
-47.91
-45.86
-39.10
-28.50
-15.86
-3.33
7.24
14.86
19.55
22.05
23.30
23.94
24.20
24.00
23.31
22.32
21.40
20.86
20.65
20.31
19.15
16.61
12.66
7.78
2.76
-1.68
-5.23
-8.11
-10.89
-14.27
-18.78
-24.63
-31.58
-38.79
-44.91
-48.27
-47.43
-41.72
-31.66
-18.91
-5.75
5.72
14.24
19.68
22.81
24.68
26.12
27.42
28.44
28.91
28.65
27.80
26.67
25.63
24.88
24.36
23.74
22.60
20.61
17.71
14.14
10.36
6.78
3.59
0.65
-2.44
-6.10
-10.60
-15.98
-22.14
-28.96
-36.23
-43.52
-49.87
-53.85
-53.94
-49.18
-39.75
-27.14
-13.64
-1.56
7.63
13.63
17.06
18.91
19.92
20.39
20.30
19.63
18.60
17.56
16.77
16.17
15.34
13.75
11.05
7.33
3.15
-0.67
-3.44
-4.90
-5.40
-5.71
-6.81
-9.50
-14.25
-20.99
-29.13
-37.48
-44.44
-48.34
-47.86
-42.58
-33.18
-21.34
-9.14
1.61
9.84
15.39
18.72
20.45
21.05
20.76
19.72
18.21
16.62
15.38
14.65
14.26
13.75
12.64
10.65
7.86
4.66
1.46
-1.53
-4.42
-7.72
-12.06
-17.99
-25.58
-34.22
-42.47
-48.41
-50.18
-46.69
-38.11
-25.96
-12.49
0.07
10.28
17.75
22.89
26.42
28.82
30.23
30.58
29.94
28.64
27.20
26.03
25.15
24.21
22.64
19.99
16.23
11.74
7.19
3.24
0.26
-1.88
-3.74
-6.15
-9.99
-15.92
-24.05
-33.80
-43.71
-51.67
-55.42
-53.40
-45.37
-32.68
-17.86
-3.72
7.70
15.64
20.67
24.02
26.79
29.36
31.44
32.41
31.88
30.06
27.66
25.56
24.35
24.03
24.04
23.56
21.86
18.69
14.33
9.43
4.68
0.47
-3.20
-6.64
-10.33
-14.68
-19.94
-26.23
-33.53
-41.56
-49.58
-56.27
-59.92
-58.95
-52.64
-41.56
-27.59
-13.23
-0.73
8.72
15.15
19.43
22.49
24.88
26.53
27.10
26.47
24.94
23.25
22.12
21.87
22.22
22.39
21.53
19.09
15.15
10.36
5.61
1.63
-1.33
-3.60
-5.89
-8.98
-13.40
-19.33
-26.59
-34.71
-42.92
-50.10
-54.89
-55.98
-52.56
-44.76
-33.73
-21.31
-9.44
0.56
8.20
13.74
17.71
20.54
22.32
23.03
22.75
21.86
20.95
20.46
20.49
20.65
20.25
18.70
15.80
11.88
7.65
3.83
0.73
-1.85
-4.59
-8.34
-13.83
-21.34
-30.49
-40.11
-48.42
-53.32
-53.06
-46.92
-35.61
-21.13
-6.15
7.02
17.11
24.13
28.88
32.28
34.75
36.17
36.21
34.83
32.53
30.19
28.61
28.02
27.94
27.44
25.56
21.89
16.73
10.92
5.48
1.07
-2.23
-4.97
-8.04
-12.35
-18.51
-26.64
-36.18
-45.85
-53.76
-57.81
-56.40
-49.02
-36.64
-21.48
-6.21
6.94
16.93
23.94
28.92
32.89
36.38
39.26
41.06
41.39
40.26
38.16
35.79
33.74
32.30
31.28
30.14
28.25
25.16
20.86
15.74
10.44
5.59
1.45
-2.11
-5.57
-9.49
-14.33
-20.33
-27.55
-35.87
-44.81
-53.36
-59.90
-62.48
-59.51
-50.48
-36.44
-19.75
-3.37
10.30
20.06
26.13
29.67
31.95
33.76
35.25
36.14
36.20
35.45
34.20
32.87
31.72
30.73
29.61
28.00
25.60
22.31
18.25
13.68
8.93
4.28
-0.08
-4.09
-7.81
-11.41
-15.15
-19.33
-24.28
-30.27
-37.38
-45.22
-52.71
-58.21
-59.87
-56.36
-47.49
-34.47
-19.51
-5.08
6.96
15.86
21.83
25.63
27.95
29.14
29.22
28.19
26.32
24.15
22.31
21.23
20.89
20.79
20.20
18.49
15.49
11.55
7.43
3.88
1.30
-0.54
-2.40
-5.24
-9.86
-16.63
-25.28
-34.91
-44.04
-50.84
-53.53
-50.91
-42.89
-30.65
-16.39
-2.63
8.69
16.74
21.86
25.12
27.62
29.92
31.94
33.18
33.22
32.05
30.12
28.18
26.76
25.97
25.38
24.23
21.90
18.22
13.62
8.91
4.86
1.83
-0.47
-2.77
-5.87
-10.36
-16.37
-23.73
-32.04
-40.74
-48.96
-55.39
-58.38
-56.46
-48.97
-36.59
-21.38
-6.07
6.87
16.11
21.68
24.69
26.46
27.94
29.32
30.31
30.55
29.93
28.76
27.53
26.65
26.26
26.12
25.79
24.80
22.85
19.94
16.32
12.37
8.46
4.75
1.16
-2.56
-6.68
-11.38
-16.71
-22.66
-29.22
-36.32
-43.48
-49.71
-53.46
-53.14
-47.79
-37.67
-24.40
-10.40
1.96
11.22
17.11
20.43
22.31
23.63
24.71
25.39
25.37
24.58
23.33
22.10
21.37
21.30
21.57
21.56
20.59
18.28
14.70
10.36
5.95
2.09
-0.98
-3.38
-5.51
-7.85
-10.80
-14.65
-19.61
-25.80
-33.15
-41.10
-48.49
-53.65
-54.89
-51.11
-42.39
-30.07
-16.37
-3.54
6.82
14.16
18.78
21.40
22.61
22.71
21.77
19.96
17.70
15.58
14.14
13.53
13.46
13.32
12.51
10.80
8.43
5.93
3.82
2.24
0.86
-1.01
-4.09
-8.88
-15.46
-23.42
-31.84
-39.35
-44.30
-45.17
-41.08
-32.25
-20.09
-6.83
5.28
14.71
21.06
24.89
27.21
28.78
29.85
30.28
29.88
28.79
27.47
26.45
25.95
25.64
24.79
22.62
18.81
13.70
8.19
3.34
-0.16
-2.27
-3.63
-5.24
-8.06
-12.73
-19.40
-27.76
-37.04
-45.95
-52.83
-55.93
-53.94
-46.59
-34.88
-20.90
-7.13
4.45
12.95
18.63
22.45
25.35
27.70
29.31
29.68
28.61
26.38
23.83
21.88
21.15
21.57
22.42
22.61
21.24
17.95
13.08
7.52
2.26
-1.99
-5.05
-7.29
-9.36
-11.92
-15.47
-20.25
-26.35
-33.55
-41.20
-48.12
-52.61
-52.99
-48.26
-38.67
-25.80
-12.07
0.18
9.49
15.70
19.65
22.51
25.09
27.53
29.40
30.12
29.43
27.56
25.12
22.85
21.20
20.23
19.63
18.86
17.48
15.33
12.62
9.74
7.04
4.63
2.28
-0.45
-3.99
-8.60
-14.32
-21.10
-28.80
-37.13
-45.42
-52.46
-56.63
-56.33
-50.76
-40.33
-26.83
-12.76
-0.48
8.59
14.22
17.08
18.12
18.05
17.17
15.55
13.39
11.14
9.35
8.38
8.10
7.93
7.10
5.03
1.69
-2.40
-6.35
-9.32
-10.94
-11.41
-11.49
-12.15
-14.28
-18.38
-24.38
-31.54
-38.52
-43.60
-45.14
-42.09
-34.45
-23.35
-10.69
1.49
11.71
19.39
24.79
28.53
31.21
33.07
34.14
34.44
34.18
33.77
33.57
33.65
33.71
33.18
31.50
28.38
24.00
18.87
13.64
8.80
4.51
0.55
-3.58
-8.47
-14.58
-22.05
-30.49
-38.84
-45.50
-48.70
-47.11
-40.44
-29.69
-16.89
-4.37
6.01
13.43
18.06
20.70
22.16
22.89
22.96
22.36
21.25
20.06
19.30
19.19
19.59
19.96
19.65
18.28
15.93
13.13
10.54
8.64
7.37
6.12
3.97
0.01
-6.31
-14.94
-25.12
-35.38
-43.73
-48.09
-46.90
-39.76
-27.64
-12.74
2.25
15.03
24.29
29.88
32.45
32.91
31.98
30.12
27.62
24.85
22.28
20.36
19.28
18.93
18.84
18.42
17.19
14.97
11.99
8.75
5.84
3.62
2.05
0.58
-1.62
-5.37
-11.21
-19.11
-28.45
-37.98
-46.05
-50.89
-51.07
-46.02
-36.32
-23.63
-10.22
1.80
11.15
17.58
21.68
24.23
25.74
26.28
25.70
24.06
21.86
19.92
19.00
19.37
20.62
21.80
21.88
20.17
16.61
11.76
6.50
1.61
-2.54
-6.03
-9.31
-12.89
-17.15
-22.22
-27.98
-34.15
-40.12
-44.98
-47.59
-46.84
-42.19
-33.94
-23.33
-12.17
-2.22
5.42
10.49
13.41
14.93
15.65
15.93
15.95
15.86
15.91
16.32
17.13
18.00
18.35
17.50
15.09
11.23
6.54
1.81
-2.33
-5.69
-8.64
-11.86
-16.05
-21.56
-28.08
-34.61
-39.62
-41.49
-39.07
-32.25
-22.02
-10.33
0.70
9.42
15.16
18.30
19.79
20.61
21.38
22.20
22.91
23.31
23.30
22.90
22.10
20.80
18.84
16.08
12.57
8.60
4.58
0.91
-2.23
-4.96
-7.63
-10.75
-14.77
-19.98
-26.30
-33.19
-39.57
-44.00
-45.10
-42.07
-35.13
-25.54
-15.16
-5.71
1.87
7.68
12.41
16.76
20.82
24.04
25.64
25.30
23.58
21.78
21.32
22.94
26.22
29.70
31.60
30.61
26.56
20.43
13.81
8.21
4.38
2.13
0.62
-1.21
-4.22
-8.76
-14.69
-21.39
-27.82
-32.66
-34.63
-32.84
-27.23
-18.73
-8.99
0.23
7.60
12.71
15.92
18.04
19.66
20.95
21.64
21.46
20.39
18.87
17.57
17.04
17.38
18.16
18.54
17.73
15.29
11.40
6.71
2.02
-2.08
-5.48
-8.50
-11.69
-15.58
-20.52
-26.56
-33.45
-40.52
-46.65
-50.39
-50.34
-45.70
-36.69
-24.63
-11.58
0.38
9.83
16.27
20.01
21.74
22.05
21.34
19.86
17.90
15.89
14.27
13.33
12.97
12.83
12.43
11.44
9.83
7.85
5.82
3.93
2.07
-0.19
-3.46
-8.24
-14.64
-22.07
-29.22
-34.32
-35.70
-32.49
-25.05
-14.94
-4.36
4.67
11.06
14.86
16.97
18.50
20.17
22.01
23.59
24.42
24.30
23.44
22.34
21.37
20.59
19.66
18.08
15.46
11.83
7.64
3.56
0.19
-2.32
-4.29
-6.34
-9.21
-13.35
-18.90
-25.58
-32.67
-39.03
-43.27
-44.08
-40.69
-33.33
-23.26
-12.39
-2.57
5.07
10.43
14.25
17.44
20.57
23.53
25.80
26.84
26.54
25.25
23.66
22.40
21.72
21.41
20.90
19.66
17.36
14.16
10.50
6.98
4.01
1.65
-0.41
-2.67
-5.64
-9.66
-14.80
-20.90
-27.60
-34.27
-39.99
-43.59
-44.00
-40.53
-33.33
-23.47
-12.61
-2.53
5.54
11.17
14.75
17.04
18.66
19.84
20.44
20.24
19.27
17.87
16.60
15.83
15.56
15.34
14.55
12.68
9.69
6.03
2.45
-0.37
-2.12
-3.02
-3.71
-4.99
-7.49
-11.59
-17.23
-23.91
-30.73
-36.35
-39.36
-38.63
-33.78
-25.44
-15.16
-4.82
3.99
10.45
14.66
17.26
18.91
19.98
20.50
20.36
19.61
18.56
17.63
17.13
17.03
16.94
16.25
14.44
11.39
7.46
3.39
-0.04
-2.34
-3.62
-4.46
-5.76
-8.33
-12.63
-18.62
-25.64
-32.57
-37.90
-40.16
-38.34
-32.34
-23.13
-12.52
-2.57
5.23
10.39
13.41
15.36
17.20
19.30
21.38
22.81
23.09
22.15
20.43
18.64
17.38
16.84
16.81
16.68
15.90
14.15
11.59
8.67
5.93
3.66
1.79
-0.11
-2.57
-6.00
-10.51
-15.93
-21.93
-28.05
-33.62
-37.75
-39.41
-37.73
-32.42
-24.03
-13.95
-3.87
4.76
11.27
15.79
18.93
21.27
23.03
24.02
23.94
22.76
20.85
18.91
17.58
17.14
17.33
17.49
16.84
14.89
11.64
7.60
3.57
0.23
-2.10
-3.54
-4.65
-6.10
-8.46
-12.03
-16.81
-22.58
-28.86
-34.89
-39.64
-41.95
-40.83
-35.90
-27.66
-17.49
-7.21
1.51
7.68
11.18
12.59
12.73
12.22
11.38
10.29
9.07
8.00
7.45
7.61
8.31
8.97
8.90
7.60
5.13
2.06
-0.79
-2.80
-3.79
-4.17
-4.66
-5.98
-8.66
-12.81
-18.21
-24.20
-29.78
-33.66
-34.58
-31.76
-25.25
-16.08
-5.93
3.45
10.85
15.89
18.91
20.55
21.31
21.33
20.57
19.06
17.15
15.46
14.53
14.50
14.91
14.91
13.63
10.65
6.23
1.23
-3.32
-6.71
-8.82
-10.16
-11.60
-13.96
-17.74
-22.98
-29.15
-35.24
-39.87
-41.62
-39.50
-33.34
-24.07
-13.42
-3.34
4.72
10.23
13.64
15.89
17.75
19.48
20.84
21.34
20.82
19.51
17.99
16.81
16.14
15.67
14.79
12.95
10.04
6.49
3.07
0.54
-0.76
-1.09
-1.22
-2.06
-4.38
-8.53
-14.51
-21.91
-29.94
-37.36
-42.57
-44.03
-40.75
-32.90
-21.87
-9.89
0.75
8.55
13.27
15.72
17.15
18.52
20.13
21.63
22.47
22.35
21.41
20.14
19.07
18.46
18.15
17.69
16.53
14.39
11.38
7.92
4.59
1.75
-0.57
-2.74
-5.31
-8.75
-13.26
-18.77
-24.94
-31.31
-37.26
-41.93
-44.28
-43.32
-38.51
-30.16
-19.46
-8.19
1.91
9.72
14.97
18.10
19.76
20.45
20.36
19.59
18.33
17.05
16.28
16.34
17.05
17.78
17.71
16.31
13.58
10.13
6.80
4.20
2.43
0.99
-0.94
-4.15
-9.07
-15.66
-23.32
-30.98
-37.15
-40.24
-38.96
-32.88
-22.72
-10.40
1.64
11.27
17.43
20.40
21.42
21.88
22.59
23.44
23.69
22.60
19.97
16.36
12.68
9.76
7.82
6.50
5.21
3.55
1.60
-0.17
-1.34
-1.90
-2.42
-3.91
-7.34
-13.18
-21.12
-29.92
-37.76
-42.61
-42.95
-38.25
-29.23
-17.71
-5.94
4.14
11.54
16.36
19.43
21.68
23.63
25.30
26.34
26.55
26.03
25.18
24.37
23.66
22.71
20.97
18.02
13.90
9.19
4.74
1.33
-0.72
-1.70
-2.44
-4.01
-7.29
-12.77
-20.23
-28.66
-36.38
-41.44
-42.16
-37.79
-28.90
-17.19
-4.99
5.66
13.63
18.92
22.39
25.05
27.48
29.62
31.01
31.16
30.05
28.11
26.10
24.67
24.04
23.89
23.55
22.32
19.84
16.31
12.33
8.63
5.70
3.51
1.58
-0.78
-4.18
-8.91
-14.97
-22.12
-29.93
-37.67
-44.24
-48.20
-48.21
-43.57
-34.69
-23.12
-11.08
-0.57
7.29
12.53
15.96
18.48
20.53
22.06
22.75
22.49
21.61
20.70
20.26
20.35
20.51
20.02
18.28
15.16
11.10
6.90
3.38
0.94
-0.55
-1.71
-3.35
-6.19
-10.62
-16.60
-23.60
-30.67
-36.49
-39.62
-38.87
-33.76
-24.88
-13.73
-2.35
7.44
14.58
18.98
21.34
22.56
23.34
23.95
24.33
24.26
23.62
22.38
20.61
18.46
16.08
13.68
11.41
9.37
7.45
5.41
2.96
-0.08
-3.68
-7.64
-11.79
-16.15
-20.87
-25.91
-30.72
-34.13
-34.82
-32.07
-26.38
-19.37
-12.90
-7.94
-3.96
0.55
6.86
14.80
22.61
27.94
29.51
28.17
26.55
27.52
32.18
39.03
44.61
45.46
40.17
30.20
19.09
10.49
6.31
5.93
6.85
6.27
2.57
-4.03
-11.98
-19.44
-25.23
-29.05
-31.10
-31.41
-29.61
-25.13
-17.80
-8.27
2.07
11.51
18.67
22.95
24.55
24.30
23.24
22.37
22.32
23.30
24.99
26.65
27.30
26.13
22.83
17.82
12.14
7.12
3.77
2.44
2.63
3.24
3.04
1.16
-2.61
-7.83
-13.83
-20.02
-26.04
-31.59
-36.00
-38.24
-37.26
-32.69
-25.31
-16.85
-9.17
-3.27
1.24
5.71
11.44
18.73
26.48
32.92
36.46
36.51
33.60
28.79
23.05
16.91
10.52
3.95
-2.56
-8.55
-13.52
-17.11
-19.30
-20.44
-21.17
-22.23
-24.24
-27.51
-31.88
-36.77
-41.27
-44.36
-45.09
-42.77
-37.13
-28.41
-17.44
-5.45
6.20
16.51
25.07
32.13
38.28
43.95
49.05
53.01
55.01
54.44
51.34
46.38
40.69
35.34
30.98
27.59
24.68
21.64
18.04
13.82
9.16
4.33
-0.44
-4.85
-8.37
-10.14
-9.17
-4.72
3.21
13.66
24.90
35.01
42.58
47.21
49.50
50.60
51.61
53.02
54.57
55.39
54.37
50.64
43.85
34.32
22.96
11.02
-0.27
-9.96
-17.59
-23.22
-27.27
-30.35
-33.08
-36.04
-39.67
-44.20
-49.52
-54.92
-59.15
-60.62
-58.02
-50.98
-40.40
-28.31
-17.11
-8.78
-4.15
-2.81
-3.62
-5.26
-6.78
-7.85
-8.67
-9.73
-11.59
-14.61
-18.94
-24.44
-30.85
-37.90
-45.36
-52.94
-60.09
-65.93
-69.48
-70.15
-68.27
-65.16
-62.77
-62.75
-65.56
-69.96
-73.31
-72.32
-64.43
-48.99
-27.95
-5.52
13.23
24.34
26.58
22.01
14.94
9.95
9.81
14.58
22.00
29.12
33.89
35.95
36.27
36.36
37.51
40.54
45.91
53.51
62.26
69.86
73.38
70.60
61.60
49.26
38.19
32.51
33.87
40.98
51.04
61.96
73.82
88.16
106.19
127.24
148.78
168.14
184.33
198.35
211.68
224.06
232.78
234.40
227.91
216.76
207.88
208.03
219.66
239.02
257.84
267.40
262.59
243.35
213.37
177.25
138.23
97.76
56.47
15.47
-23.21
-57.35
-86.15
-110.95
-134.68
-160.32
-189.00
-219.07
-246.66
-267.29
-277.99
-278.60
-271.64
-260.89
-249.73
-239.99
-231.89
-224.91
-218.80
-214.03
-211.52
-211.86
-214.61
-218.16
-220.19
-218.33
-210.87
-197.12
-177.58
-153.80
-128.12
-103.18
-81.49
-64.75
-53.29
-45.80
-39.43
-30.58
-16.04
5.73
33.62
63.84
90.90
109.32
115.26
107.73
88.55
61.24
29.51
-4.20
-39.66
-78.73
-124.17
-177.70
-238.10
-300.27
-356.05
-396.60
-415.54
-411.32
-387.54
-351.29
-310.03
-269.06
-230.54
-194.24
-159.27
-125.28
-92.48
-60.69
-28.48
6.56
46.48
91.06
136.93
178.32
209.05
225.40
227.67
220.07
208.74
199.01
193.35
190.94
188.84
183.91
174.43
160.51
143.68
125.90
108.95
94.25
82.79
74.99
70.53
68.06
65.53
60.92
53.05
42.24
30.21
19.38
11.96
9.17
11.04
16.57
24.19
32.24
39.35
44.71
48.15
50.06
51.10
51.69
51.73
50.64
47.75
42.86
36.56
30.11
24.89
21.70
20.45
20.29
20.10
19.06
16.94
13.92
10.29
6.11
1.22
-4.63
-11.53
-19.27
-27.31
-34.77
-40.45
-42.95
-40.84
-33.18
-19.94
-2.34
17.29
36.05
51.32
61.51
66.36
66.86
64.81
62.27
61.00
62.07
65.58
70.66
75.75
79.12
79.48
76.35
70.10
61.67
52.08
41.98
31.60
20.79
9.37
-2.55
-14.31
-24.58
-31.46
-32.92
-27.51
-15.04
3.00
23.77
43.99
61.10
74.10
83.61
91.16
98.23
105.46
112.49
118.48
122.72
125.25
126.89
128.97
132.82
139.46
149.50
163.31
181.07
202.58
226.75
251.29
272.76
287.52
292.98
288.72
276.71
260.43
243.45
228.06
214.81
202.93
191.41
179.77
168.28
157.53
147.87
139.07
130.50
121.55
111.99
102.04
92.13
82.58
73.48
64.61
55.62
46.25
36.39
26.18
15.83
5.62
-4.30
-13.82
-22.97
-31.81
-40.46
-49.08
-57.90
-67.12
-76.90
-87.30
-98.16
-109.26
-120.33
-131.21
-141.94
-152.75
-163.97
-176.11
-189.76
-205.51
-223.56
-243.32
-263.10
-280.32
-292.14
-296.50
-292.92
-282.75
-268.61
-253.40
-239.30
-227.26
-217.16
-208.41
-200.49
-193.17
-186.44
-180.14
-173.81
-166.85
-158.80
-149.63
-139.87
-130.38
-122.02
-115.15
-109.60
-104.69
-99.58
-93.58
-86.45
-78.36
-69.82
-61.41
-53.66
-46.88
-41.22
-36.68
-33.11
-30.27
-27.76
-25.12
-21.90
-17.80
-12.79
-7.15
-1.36
4.07
8.78
12.55
15.33
17.01
17.39
16.28
13.58
9.43
4.20
-1.57
-7.35
-12.72
-17.51
-21.70
-25.47
-29.03
-32.58
-36.21
-39.86
-43.37
-46.51
-49.04
-50.77
-51.56
-51.27
-49.89
-47.56
-44.71
-41.88
-39.56
-37.89
-36.60
-35.17
-33.24
-30.81
-28.32
-26.37
-25.36
-25.25
-25.63
-25.94
-25.83
-25.21
-24.18
-22.86
-21.27
-19.39
-17.26
-15.10
-13.20
-11.79
-10.93
-10.52
-10.35
-10.23
-10.08
-9.88
-9.61
-9.20
-8.54
-7.60
-6.41
-5.05
-3.66
-2.26
-0.85
0.52
1.77
2.78
3.43
3.71
3.75
3.71
3.73
3.82
3.84
3.61
2.99
2.03
0.91
-0.14
-0.90
-1.34
-1.59
-1.88
-2.41
-3.28
-4.43
-5.76
-7.18
-8.70
-10.37
-12.21
-14.15
-16.03
-17.73
-19.27
-20.79
-22.45
-24.12
-25.27
-25.10
-22.89
-18.50
-12.54
-6.23
-0.89
2.61
4.13
4.06
2.99
1.36
-0.52
-2.26
-3.17
-2.42
0.50
5.34
10.99
15.90
18.85
19.44
18.15
15.82
13.08
10.02
6.44
2.36
-1.69
-4.76
-6.03
-5.40
-3.62
-1.95
-1.50
-2.71
-5.18
-7.99
-10.17
-11.13
-10.77
-9.38
-7.42
-5.36
-3.61
-2.49
-2.28
-3.06
-4.79
-7.26
-10.15
-13.14
-15.84
-17.82
-18.72
-18.33
-16.80
-14.65
-12.60
-11.25
-10.87
-11.22
-11.71
-11.72
-10.82
-8.87
-6.06
-2.72
0.73
3.88
6.35
7.85
8.29
7.82
6.77
5.46
4.15
2.94
1.85
0.94
0.33
0.22
0.73
1.83
3.30
4.82
6.07
6.89
7.29
7.39
7.29
7.04
6.57
5.82
4.82
3.76
2.96
2.79
3.46
4.99
7.22
9.86
12.66
15.56
18.63
22.18
26.55
32.01
38.52
45.69
52.79
59.00
63.64
66.33
67.04
65.84
62.69
57.36
49.44
38.72
25.47
10.52
-4.80
-18.98
-30.79
-39.52
-45.17
-48.29
-49.72
-50.22
-50.13
-49.34
-47.38
-43.70
-38.10
-30.90
-23.02
-15.67
-9.91
-6.15
-3.87
-1.64
2.47
10.15
22.21
38.09
55.84
72.74
86.02
93.87
96.14
94.77
93.28
95.65
104.40
118.95
134.97
145.36
142.71
122.15
83.21
30.03
-30.17
-89.33
-140.45
-178.43
-200.29
-205.20
-194.78
-173.35
-147.44
-124.15
-108.95
-103.92
-107.46
-115.71
-124.57
-131.21
-134.47
-134.05
-129.51
-119.71
-103.30
-79.56
-49.25
-14.55
21.65
56.76
89.21
118.67
145.58
170.47
193.48
214.09
231.27
243.99
251.87
255.77
257.72
260.10
264.25
269.29
271.88
267.34
251.52
222.66
182.04
133.17
80.06
25.70
-28.04
-79.67
-127.02
-166.98
-196.50
-214.40
-222.50
-225.31
-228.11
-234.71
-246.05
-260.32
-274.31
-285.30
-292.17
-295.37
-296.04
-295.13
-293.02
-289.90
-286.45
-284.21
-285.36
-291.77
-304.09
-321.22
-340.28
-357.31
-367.99
-368.59
-356.69
-331.73
-295.17
-250.13
-200.79
-151.58
-106.40
-68.07
-38.10
-16.47
-1.73
8.75
18.33
30.20
46.55
68.20
94.67
124.73
156.91
189.76
221.71
250.94
275.49
293.76
304.82
308.78
306.52
299.30
288.47
275.35
261.37
248.09
236.90
228.54
222.70
217.83
211.70
202.15
187.99
169.69
149.32
130.14
115.62
108.37
109.30
117.31
129.62
142.69
153.38
159.85
162.01
161.14
158.96
156.68
154.17
149.96
141.89
128.20
108.79
85.87
63.74
47.65
42.00
48.62
65.70
88.04
108.32
119.30
115.81
96.01
61.53
16.55
-33.46
-83.16
-128.22
-165.74
-194.36
-214.17
-226.41
-233.19
-236.93
-239.81
-243.39
-248.35
-254.55
-261.14
-266.73
-269.55
-267.57
-258.99
-242.72
-218.89
-189.21
-156.65
-124.83
-97.03
-75.44
-60.89
-52.98
-50.42
-51.24
-52.85
-52.11
-45.77
-31.33
-7.98
22.72
57.13
90.57
118.88
139.59
152.35
158.49
160.01
158.70
155.73
151.56
146.16
139.22
130.31
119.15
105.84
91.11
76.15
62.15
49.71
38.38
26.84
13.56
-2.09
-19.17
-35.08
-46.47
-50.40
-45.64
-33.04
-15.19
4.59
23.40
39.48
52.34
62.26
69.56
74.15
75.47
72.94
66.47
56.83
45.57
34.50
25.04
17.79
12.37
7.81
3.10
-2.41
-8.94
-16.43
-24.82
-33.98
-43.43
-51.93
-57.45
-57.66
-50.82
-36.63
-16.58
6.46
29.20
48.92
64.11
74.39
80.12
81.91
80.37
76.13
69.95
62.82
55.69
49.30
43.98
39.58
35.68
31.85
27.72
23.06
17.63
11.06
2.85
-7.39
-19.47
-32.24
-43.53
-50.65
-51.26
-44.36
-30.80
-13.08
5.54
22.22
35.33
44.60
50.68
54.33
55.95
55.49
52.79
47.97
41.61
34.64
28.02
22.35
17.80
14.13
10.85
7.51
3.72
-0.85
-6.54
-13.62
-22.04
-31.12
-39.26
-44.29
-44.04
-37.28
-24.39
-7.37
10.85
27.43
40.59
49.87
55.89
59.64
61.79
62.54
61.69
59.07
54.71
49.01
42.56
35.97
29.74
24.10
19.08
14.53
10.14
5.55
0.24
-6.32
-14.51
-24.16
-34.20
-42.70
-47.27
-45.95
-38.08
-24.66
-8.16
8.40
22.44
32.52
38.49
41.02
41.01
39.19
35.99
31.71
26.72
21.59
16.91
13.10
10.25
8.09
6.08
3.70
0.69
-2.94
-7.06
-11.70
-17.23
-24.13
-32.48
-41.39
-48.83
-52.03
-48.58
-37.46
-19.75
1.59
22.74
40.28
52.19
58.20
59.34
57.24
53.45
49.10
44.96
41.54
39.29
38.45
39.06
40.70
42.69
44.15
44.36
42.95
39.87
35.25
29.09
21.21
11.40
-0.00
-11.76
-21.68
-27.23
-26.56
-19.38
-7.36
6.58
19.31
28.64
33.88
35.53
34.59
31.77
27.37
21.41
14.22
6.60
-0.27
-5.32
-8.03
-8.65
-8.07
-7.37
-7.45
-8.81
-11.59
-15.76
-21.38
-28.58
-37.20
-46.45
-54.73
-59.88
-59.93
-53.99
-42.78
-28.48
-13.95
-1.68
6.93
11.79
13.64
13.36
11.54
8.41
4.13
-0.90
-5.86
-9.77
-11.84
-11.83
-10.04
-7.29
-4.50
-2.49
-1.87
-3.13
-6.72
-12.99
-21.84
-32.27
-42.21
-48.94
-49.93
-43.84
-31.20
-14.25
3.93
20.53
33.86
43.42
49.46
52.35
52.24
49.23
43.78
37.03
30.69
26.49
25.47
27.53
31.41
35.12
36.74
34.98
29.54
20.87
9.87
-2.58
-15.60
-28.09
-38.55
-45.03
-45.78
-39.96
-28.40
-13.52
1.38
13.32
20.64
23.46
23.17
21.51
19.67
17.86
15.59
12.25
7.68
2.37
-2.77
-6.85
-9.45
-10.81
-11.60
-12.63
-14.52
-17.61
-22.10
-28.05
-35.29
-43.09
-49.98
-53.95
-53.13
-46.66
-35.28
-21.15
-7.05
4.67
12.96
18.12
21.27
23.47
25.15
25.93
25.04
21.93
16.73
10.27
3.88
-1.19
-4.16
-5.02
-4.47
-3.57
-3.46
-5.19
-9.63
-17.35
-28.27
-41.20
-53.70
-62.40
-64.19
-57.53
-43.29
-24.64
-5.93
9.01
18.07
21.31
20.40
17.45
14.15
11.31
9.23
8.17
8.49
10.47
13.90
17.81
20.71
21.29
19.03
14.47
8.80
3.04
-2.67
-9.09
-17.25
-27.54
-38.99
-49.47
-56.39
-57.71
-52.58
-41.42
-25.53
-6.69
13.20
32.30
48.99
61.95
70.39
74.11
73.47
69.17
62.11
53.23
43.40
33.30
23.41
13.93
4.92
-3.41
-10.65
-16.10
-19.13
-19.70
-18.77
-18.33
-20.69
-27.40
-38.26
-51.02
-62.12
-68.00
-66.56
-57.80
-43.52
-26.27
-8.27
9.08
24.99
38.66
48.94
54.58
54.91
50.54
43.45
36.26
31.28
29.45
30.14
31.54
31.52
28.61
22.52
14.16
5.18
-2.69
-8.32
-11.48
-12.96
-14.18
-16.74
-21.84
-29.81
-39.87
-50.18
-58.36
-62.25
-60.75
-54.19
-44.15
-32.71
-21.55
-11.31
-1.58
8.55
19.68
31.54
43.06
52.78
59.67
63.47
64.68
64.03
62.01
58.65
53.70
47.14
39.62
32.47
27.24
24.96
25.46
27.27
28.12
25.79
19.01
7.89
-6.19
-20.93
-33.68
-41.88
-43.52
-37.55
-24.30
-5.52
15.86
36.53
53.63
65.62
72.52
75.62
76.68
77.10
77.46
77.46
76.27
73.03
67.15
58.48
47.17
33.63
18.44
2.56
-12.73
-25.93
-35.79
-41.93
-45.07
-47.00
-50.02
-56.17
-66.57
-80.99
-97.76
-114.10
-126.65
-132.21
-128.63
-115.41
-93.98
-67.47
-39.84
-14.79
5.27
19.60
29.00
35.11
39.59
43.58
47.44
50.97
53.70
55.24
55.36
54.08
51.51
47.87
43.57
39.12
35.08
31.81
29.32
27.18
24.78
21.53
17.27
12.22
6.92
1.95
-2.36
-6.00
-9.31
-12.87
-17.31
-23.17
-30.61
-39.13
-47.45
-53.64
-55.67
-52.19
-43.19
-30.11
-15.41
-1.68
9.35
17.20
22.51
26.44
29.90
33.21
36.12
38.22
39.31
39.54
39.23
38.57
37.40
35.36
32.11
27.72
22.81
18.28
14.89
12.78
11.32
9.30
5.49
-0.92
-9.90
-20.62
-31.56
-40.84
-46.58
-47.45
-43.04
-34.07
-22.27
-9.82
1.38
10.32
17.03
22.23
26.75
30.93
34.47
36.74
37.26
36.10
33.89
31.50
29.62
28.36
27.29
25.70
23.02
19.15
14.50
9.84
5.83
2.80
0.50
-1.68
-4.52
-8.63
-14.36
-21.67
-30.15
-38.88
-46.43
-51.13
-51.47
-46.72
-37.35
-24.96
-11.76
0.29
10.07
17.57
23.47
28.55
33.16
37.09
39.88
41.23
41.29
40.60
39.80
39.28
38.98
38.52
37.45
35.58
33.14
30.67
28.73
27.56
26.84
25.77
23.41
19.13
12.87
5.24
-2.74
-10.06
-16.08
-20.74
-24.47
-28.03
-32.16
-37.42
-44.01
-51.63
-59.37
-65.73
-69.00
-67.71
-61.33
-50.58
-37.31
-23.90
-12.42
-3.97
1.52
4.83
6.92
8.41
9.44
9.85
9.63
9.03
8.53
8.55
9.16
9.97
10.28
9.42
7.23
4.12
0.99
-1.24
-2.13
-2.01
-1.92
-3.20
-6.95
-13.55
-22.40
-32.02
-40.40
-45.53
-46.08
-41.77
-33.53
-23.15
-12.69
-3.72
3.10
8.05
11.95
15.53
19.01
22.04
24.06
24.72
24.17
23.02
21.95
21.36
21.11
20.68
19.44
17.04
13.62
9.67
5.80
2.39
-0.52
-3.26
-6.28
-10.00
-14.71
-20.55
-27.52
-35.35
-43.32
-50.16
-54.24
-54.11
-49.16
-39.99
-28.32
-16.35
-5.93
2.04
7.77
12.18
16.16
20.12
23.80
26.54
27.77
27.32
25.57
23.25
21.11
19.59
18.70
18.07
17.15
15.51
13.01
9.84
6.42
3.14
0.22
-2.39
-4.92
-7.67
-10.89
-14.73
-19.32
-24.72
-30.80
-37.06
-42.48
-45.63
-45.13
-40.28
-31.44
-20.14
-8.53
1.43
8.58
12.89
15.09
16.16
16.77
17.11
17.03
16.39
15.31
14.19
13.51
13.43
13.75
13.82
12.95
10.80
7.56
3.99
0.97
-0.91
-1.68
-2.01
-2.92
-5.35
-9.87
-16.49
-24.62
-33.14
-40.57
-45.34
-46.24
-42.88
-35.80
-26.41
-16.43
-7.33
0.15
5.94
10.38
13.79
16.21
17.53
17.67
16.83
15.47
14.07
12.91
11.89
10.61
8.69
5.96
2.65
-0.73
-3.64
-5.80
-7.35
-8.80
-10.94
-14.52
-20.01
-27.34
-35.70
-43.53
-48.84
-49.88
-45.76
-36.98
-25.30
-13.09
-2.42
5.62
11.05
14.70
17.48
19.87
21.85
23.06
23.21
22.38
20.96
19.51
18.42
17.69
16.95
15.60
13.16
9.60
5.40
1.38
-1.72
-3.60
-4.64
-5.69
-7.75
-11.50
-17.11
-24.22
-32.01
-39.39
-45.05
-47.70
-46.32
-40.61
-31.22
-19.63
-7.72
2.89
11.36
17.72
22.53
26.34
29.37
31.41
32.20
31.71
30.43
29.13
28.50
28.76
29.50
29.86
28.93
26.26
22.07
17.19
12.70
9.41
7.56
6.73
6.08
4.73
2.04
-2.20
-7.69
-13.63
-18.79
-21.78
-21.37
-17.04
-9.28
0.41
9.90
17.22
21.29
22.29
21.50
20.69
21.37
24.21
28.97
34.66
40.12
44.33
46.65
46.80
44.68
40.33
33.91
25.96
17.38
9.34
2.84
-1.77
-5.04
-8.36
-13.44
-21.65
-33.36
-47.62
-62.25
-74.29
-80.88
-80.12
-71.81
-57.56
-40.39
-23.80
-10.68
-2.57
0.45
-0.57
-4.12
-8.70
-13.06
-16.18
-17.28
-15.95
-12.42
-7.64
-3.16
-0.51
-0.71
-3.71
-8.50
-13.48
-17.17
-18.84
-18.71
-17.78
-17.46
-19.02
-23.13
-29.62
-37.39
-44.55
-48.94
-48.77
-43.32
-33.28
-20.58
-7.64
3.46
11.69
17.13
20.55
22.78
24.26
24.99
24.92
24.17
23.18
22.37
21.85
21.21
19.72
16.74
12.17
6.59
1.04
-3.51
-6.63
-8.67
-10.55
-13.40
-18.01
-24.63
-32.81
-41.51
-49.27
-54.42
-55.51
-51.71
-43.23
-31.35
-18.11
-5.64
4.50
11.76
16.46
19.31
20.89
21.33
20.53
18.47
15.51
12.37
9.82
8.31
7.74
7.63
7.37
6.57
5.19
3.45
1.64
-0.12
-1.90
-3.94
-6.56
-10.16
-15.02
-21.14
-27.90
-34.02
-37.70
-37.29
-31.99
-22.32
-10.00
2.67
13.66
21.84
27.10
29.95
31.04
30.87
29.81
28.32
27.07
26.84
28.10
30.63
33.46
35.24
34.81
31.84
27.00
21.71
17.44
15.05
14.32
14.11
12.76
8.86
1.80
-7.93
-18.75
-28.29
-34.06
-34.16
-27.98
-16.53
-2.24
11.91
23.46
31.33
36.09
39.46
43.29
48.57
55.01
61.17
65.25
65.83
62.32
55.08
45.14
33.87
22.77
13.30
6.72
3.91
4.99
9.12
14.45
18.44
18.45
12.51
0.07
-17.68
-37.79
-56.21
-68.97
-73.30
-68.60
-56.53
-40.34
-23.62
-9.22
1.42
8.14
11.51
12.29
11.08
8.42
4.88
1.19
-1.93
-4.06
-5.15
-5.57
-5.80
-6.27
-7.12
-8.27
-9.48
-10.58
-11.56
-12.73
-14.77
-18.51
-24.60
-32.91
-42.17
-50.07
-54.08
-52.37
-44.79
-33.02
-19.93
-8.37
-0.15
4.52
6.65
7.71
8.76
10.08
11.37
12.21
12.46
12.36
12.31
12.47
12.61
12.15
10.45
7.17
2.48
-3.10
-8.94
-14.67
-20.31
-26.23
-32.89
-40.50
-48.73
-56.65
-62.92
-66.10
-65.16
-59.86
-50.96
-39.97
-28.72
-18.71
-10.75
-4.83
-0.55
2.53
4.53
5.35
4.96
3.70
2.39
1.85
2.51
4.04
5.54
6.02
5.00
2.78
0.28
-1.49
-2.02
-1.64
-1.46
-2.95
-7.15
-14.12
-22.62
-30.32
-34.55
-33.38
-26.40
-14.94
-1.60
10.74
19.97
25.30
27.19
26.86
25.63
24.53
24.09
24.49
25.52
26.79
27.68
27.60
26.17
23.35
19.49
15.19
11.00
7.24
3.86
0.56
-3.11
-7.57
-13.14
-19.87
-27.42
-34.81
-40.45
-42.37
-38.97
-29.72
-15.71
0.43
15.42
26.43
32.11
32.83
30.25
26.41
22.89
20.42
18.98
18.23
17.77
17.32
16.60
15.30
13.15
10.03
6.13
1.95
-1.86
-4.86
-6.93
-8.46
-10.09
-12.57
-16.47
-22.01
-28.86
-36.12
-42.30
-45.67
-44.75
-38.96
-28.92
-16.44
-3.93
6.37
13.09
16.04
16.03
14.30
11.96
9.74
7.86
6.35
5.18
4.38
4.03
4.08
4.37
4.56
4.36
3.58
2.26
0.54
-1.46
-3.78
-6.64
-10.45
-15.60
-22.21
-29.97
-37.84
-44.17
-47.11
-45.25
-38.29
-27.36
-14.76
-3.13
5.54
10.52
12.33
12.25
11.46
10.63
9.80
8.73
7.34
5.82
4.53
3.76
3.52
3.60
3.76
3.91
4.19
4.80
5.81
7.01
7.86
7.74
6.16
2.93
-1.72
-7.25
-12.79
-17.23
-19.41
-18.39
-13.77
-5.90
4.15
14.94
25.09
33.62
40.06
44.31
46.51
47.01
46.31
45.17
44.49
44.94
46.65
48.94
50.34
49.03
43.41
32.94
18.51
2.48
-12.07
-22.42
-27.11
-26.55
-22.70
-18.32
-15.91
-16.79
-20.63
-25.54
-28.74
-27.50
-20.17
-6.78
10.92
30.18
48.38
63.96
76.71
87.12
95.40
100.88
102.37
99.13
91.97
83.35
76.31
72.82
72.63
73.34
71.74
65.54
54.49
40.51
26.64
15.66
9.04
6.33
5.49
3.44
-2.83
-15.13
-33.02
-53.23
-70.21
-77.82
-71.75
-51.49
-21.07
11.96
38.58
51.08
45.66
24.10
-6.12
-33.94
-48.74
-44.73
-23.92
3.85
24.84
27.33
7.30
-29.41
-69.77
-99.62
-110.23
-101.81
-82.26
-62.43
-50.46
-48.63
-53.71
-60.17
-63.83
-63.96
-62.61
-62.25
-63.35
-63.66
-59.57
-48.57
-31.23
-11.38
5.45
14.63
14.56
7.32
-2.70
-10.85
-14.22
-12.39
-6.88
0.09
6.78
12.36
16.73
20.05
22.52
24.24
25.31
25.71
25.20
23.44
20.29
16.22
12.56
11.21
14.08
22.29
35.66
52.78
71.31
88.73
103.03
113.15
119.09
121.68
122.09
121.30
119.83
117.72
114.92
111.45
107.44
102.95
97.84
91.83
84.67
76.26
66.68
56.05
44.46
31.95
18.61
4.66
-9.76
-24.59
-39.78
-54.94
-68.91
-79.73
-85.24
-83.98
-76.15
-63.86
-50.53
-39.68
-33.82
-33.75
-38.69
-46.87
-56.26
-65.23
-72.83
-78.82
-83.51
-87.39
-90.79
-93.66
-95.56
-95.96
-94.64
-91.93
-88.66
-85.78
-83.90
-83.02
-82.61
-82.02
-80.91
-79.35
-77.62
-75.68
-72.83
-67.94
-60.01
-48.82
-35.31
-21.33
-8.81
1.07
8.42
14.50
20.94
28.77
37.81
46.59
52.98
55.09
52.08
44.37
33.41
20.92
8.31
-3.65
-14.65
-24.43
-32.44
-37.83
-39.92
-38.76
-35.47
-32.04
-30.57
-32.24
-36.52
-41.01
-42.24
-37.07
-24.00
-3.99
20.05
44.62
67.16
86.90
104.63
121.45
137.58
151.85
162.34
167.48
167.02
162.04
154.18
144.54
133.28
119.88
103.94
85.72
66.04
45.68
24.73
2.58
-21.43
-47.15
-73.09
-96.60
-114.74
-125.14
-126.53
-118.78
-102.78
-80.47
-54.79
-29.52
-8.65
4.75
9.46
6.58
-0.96
-9.62
-16.59
-20.66
-22.31
-23.01
-24.29
-26.99
-30.99
-35.43
-39.19
-41.32
-41.45
-39.79
-37.09
-34.27
-32.20
-31.51
-32.64
-35.95
-41.66
-49.67
-59.12
-68.10
-73.72
-73.01
-64.01
-46.90
-24.23
-0.24
20.78
36.02
45.05
49.54
51.98
54.33
57.16
59.71
60.82
59.70
56.40
51.57
45.90
39.75
33.21
26.51
20.20
15.04
11.42
8.75
5.43
-0.58
-10.90
-25.90
-44.41
-63.96
-81.39
-93.55
-97.97
-93.49
-80.72
-62.08
-41.25
-22.05
-7.16
2.71
8.67
12.72
16.37
19.79
21.72
20.33
14.30
3.86
-9.19
-22.16
-32.62
-39.34
-42.62
-43.79
-44.38
-45.34
-46.82
-48.59
-50.65
-53.46
-57.43
-62.24
-66.25
-66.89
-61.86
-50.41
-34.16
-16.67
-2.11
6.40
7.92
3.88
-2.72
-8.63
-11.63
-11.09
-7.87
-3.66
0.00
2.31
3.43
4.17
5.32
7.15
9.14
10.24
9.34
5.66
-1.17
-11.23
-24.47
-40.40
-57.64
-73.43
-83.92
-85.24
-75.21
-54.63
-27.43
0.57
23.70
38.40
44.05
42.46
36.42
28.41
19.89
11.58
3.91
-2.53
-7.18
-9.94
-11.47
-13.02
-15.73
-19.87
-24.54
-28.01
-28.80
-26.71
-23.23
-20.95
-22.16
-27.39
-34.71
-40.39
-40.52
-32.95
-18.23
0.64
19.67
35.63
47.13
54.58
59.32
62.45
64.09
63.48
59.63
52.13
41.72
30.20
19.84
12.53
9.14
9.14
10.93
12.52
12.31
9.60
4.62
-1.95
-9.45
-17.48
-25.62
-32.97
-37.89
-38.35
-32.79
-21.07
-4.90
12.56
27.83
38.38
43.41
43.97
42.20
40.31
39.73
40.72
42.54
44.01
44.12
42.39
38.86
33.83
27.55
20.22
12.00
3.23
-5.55
-13.89
-21.72
-29.42
-37.48
-45.79
-53.13
-57.16
-55.19
-45.33
-27.50
-3.66
22.71
47.66
67.89
81.52
88.23
89.19
86.47
82.43
79.16
78.01
79.18
81.91
84.91
87.04
87.73
86.93
84.70
80.90
75.08
66.83
56.13
43.44
29.49
15.09
1.10
-11.17
-19.82
-22.62
-17.89
-5.58
12.34
32.39
51.01
66.00
77.18
85.93
93.91
102.26
111.20
120.21
128.33
134.27
136.59
134.22
127.34
118.09
110.31
108.05
113.50
125.42
139.11
148.11
146.66
131.74
103.62
64.97
19.28
-30.13
-80.36
-128.52
-171.44
-205.98
-229.88
-242.64
-245.85
-242.69
-236.78
-230.78
-225.52
-219.93
-211.71
-198.69
-179.98
-156.57
-131.06
-106.63
-85.80
-69.67
-57.85
-49.12
-42.33
-37.02
-33.56
-32.73
-35.27
-41.38
-50.61
-61.66
-72.49
-80.52
-83.17
-78.68
-66.88
-49.49
-29.65
-10.86
4.22
14.48
20.36
23.25
24.60
25.48
26.28
26.93
27.13
26.52
24.75
21.54
16.85
11.00
4.70
-1.12
-5.62
-8.40
-9.61
-9.98
-10.68
-12.94
-17.77
-25.53
-35.68
-46.66
-56.09
-61.27
-60.09
-51.85
-37.71
-20.53
-3.94
8.97
16.73
19.88
20.59
21.54
24.82
31.13
39.78
49.24
57.89
64.61
68.99
70.99
70.67
67.97
62.69
54.60
43.83
30.90
16.73
2.46
-10.79
-22.01
-30.26
-34.70
-34.63
-29.67
-20.09
-6.73
8.96
25.29
40.67
53.77
63.51
69.00
69.57
65.02
55.86
43.43
29.54
15.95
3.86
-6.26
-14.34
-20.37
-24.13
-25.33
-24.11
-21.35
-18.67
-18.05
-21.19
-28.90
-40.66
-54.57
-67.55
-76.09
-77.16
-69.22
-53.01
-31.35
-8.36
11.93
26.86
35.78
39.76
40.77
40.67
40.55
40.60
40.42
39.45
37.31
33.93
29.55
24.60
19.53
14.60
9.93
5.46
1.09
-3.30
-7.90
-13.14
-19.58
-27.66
-37.06
-46.35
-53.05
-54.47
-48.84
-36.36
-19.35
-1.46
13.78
24.26
29.91
32.21
33.16
34.15
35.43
36.27
35.66
33.01
28.59
23.45
19.08
16.91
17.81
21.87
28.41
36.17
43.62
49.25
51.80
50.29
44.20
33.59
19.50
4.12
-9.34
-17.43
-17.59
-9.24
5.84
23.97
40.88
53.30
59.85
61.24
59.31
56.02
52.54
49.06
45.13
40.27
34.36
27.74
21.02
14.78
9.36
4.77
0.75
-3.04
-6.92
-11.18
-16.04
-21.84
-29.00
-37.88
-48.31
-59.15
-68.19
-72.59
-69.95
-59.43
-42.40
-22.15
-2.75
12.49
22.14
26.84
28.56
29.37
30.50
32.00
33.12
33.00
31.18
27.82
23.51
18.95
14.70
11.03
7.95
5.30
2.81
0.11
-3.16
-7.50
-13.48
-21.71
-32.48
-45.19
-58.01
-67.99
-71.92
-67.56
-54.79
-35.86
-14.56
5.15
20.55
30.67
35.91
37.10
34.85
29.45
21.42
11.98
2.95
-3.82
-7.31
-7.78
-6.52
-5.04
-4.34
-4.47
-4.88
-4.96
-4.72
-4.92
-6.66
-10.81
-17.59
-26.34
-35.65
-43.73
-48.62
-48.73
-43.19
-32.30
-17.64
-1.73
12.66
23.48
30.02
32.95
33.79
34.04
34.36
34.33
32.81
28.70
21.73
12.93
4.54
-0.60
-0.14
6.80
19.08
33.78
47.20
56.06
58.49
54.31
44.66
31.06
14.93
-2.49
-19.58
-33.91
-42.32
-41.87
-31.29
-11.97
12.07
35.45
53.47
63.76
66.93
65.72
63.44
62.42
63.26
65.15
66.73
67.03
65.75
63.14
59.56
55.19
50.09
44.40
38.50
32.99
28.31
24.44
20.71
15.92
8.70
-1.99
-16.50
-33.97
-52.27
-68.17
-78.06
-79.19
-70.80
-54.63
-34.50
-14.93
0.47
10.13
14.63
15.77
15.38
14.48
13.16
11.10
8.23
4.93
1.79
-0.89
-3.40
-6.50
-10.94
-16.86
-23.53
-29.60
-33.66
-34.96
-33.82
-31.60
-30.23
-31.51
-36.50
-45.05
-55.66
-65.62
-71.67
-70.93
-61.99
-45.52
-24.26
-2.10
17.26
31.50
40.13
44.15
45.05
43.98
41.55
38.09
34.22
30.95
29.34
29.78
31.53
32.93
32.28
28.89
23.68
18.96
17.32
20.31
27.64
37.23
46.25
52.07
53.33
50.27
44.76
40.23
41.56
54.52
84.32
133.29
198.72
272.18
341.23
393.35
420.23
420.46
399.27
365.48
327.56
290.80
256.77
224.70
193.65
163.72
135.93
111.16
89.16
68.35
46.69
22.80
-3.35
-30.62
-57.23
-81.87
-104.24
-125.03
-145.47
-166.62
-188.95
-212.49
-237.26
-263.80
-293.08
-325.83
-361.46
-397.56
-430.13
-454.91
-468.86
-471.10
-462.56
-445.02
-419.83
-387.59
-348.72
-304.24
-256.00
-205.94
-155.26
-104.30
-53.83
-6.61
32.02
55.60
59.59
44.22
15.20
-18.19
-46.87
-65.40
-73.22
-73.38
-69.75
-64.59
-57.96
-48.62
-35.76
-20.10
-3.90
10.14
20.16
25.88
28.71
30.80
33.94
38.70
44.20
48.67
50.35
48.36
43.05
35.71
27.97
21.21
16.23
13.18
11.86
11.97
13.22
15.31
17.78
19.80
20.18
17.54
10.70
-0.72
-15.69
-31.59
-44.66
-51.11
-48.60
-37.20
-19.59
0.05
17.61
30.59
38.68
43.21
46.06
48.45
50.57
51.85
51.81
50.63
49.12
48.28
48.60
49.62
50.14
48.79
44.78
38.29
30.44
22.64
16.00
10.79
6.43
1.88
-3.94
-11.68
-21.41
-32.51
-43.62
-52.79
-57.88
-57.15
-50.01
-37.36
-21.45
-5.10
9.28
20.34
28.03
33.08
36.40
38.55
39.62
39.52
38.25
36.05
33.24
30.00
26.31
21.96
16.87
11.30
5.87
1.32
-1.79
-3.46
-4.38
-5.71
-8.81
-14.71
-23.72
-35.21
-47.38
-57.65
-63.17
-61.81
-52.97
-37.92
-19.48
-1.00
14.79
26.57
34.55
39.77
43.36
45.89
47.39
47.65
46.73
45.12
43.41
41.97
40.47
38.06
33.72
26.90
17.98
8.16
-0.99
-8.22
-13.18
-16.56
-19.76
-24.35
-31.47
-41.36
-53.21
-65.14
-74.58
-78.83
-75.99
-65.68
-49.41
-30.11
-11.14
4.95
17.13
25.87
32.30
37.26
40.68
41.86
40.18
35.86
30.24
25.18
22.16
21.56
22.45
23.09
21.79
17.75
11.35
3.86
-3.13
-8.51
-12.04
-14.44
-17.09
-21.52
-28.93
-39.61
-52.52
-65.08
-73.53
-74.04
-64.15
-43.94
-16.35
13.63
40.80
61.54
74.73
81.59
84.41
85.22
84.89
83.32
80.05
75.09
69.13
63.22
58.18
54.11
50.32
45.74
39.57
31.84
23.42
15.73
9.97
6.62
5.10
4.03
1.83
-2.72
-10.10
-19.95
-31.18
-42.02
-50.27
-53.72
-50.75
-41.08
-26.03
-8.24
9.18
23.78
34.39
41.14
44.85
46.34
46.02
44.05
40.68
36.54
32.55
29.47
27.49
26.15
24.57
21.98
18.12
13.33
8.35
3.97
0.57
-2.03
-4.53
-7.92
-13.20
-21.03
-31.31
-42.99
-53.93
-61.37
-62.70
-56.46
-43.07
-24.79
-5.07
12.75
26.44
35.34
40.09
41.83
41.52
39.66
36.49
32.36
27.89
23.81
20.60
18.25
16.21
13.72
10.24
5.72
0.66
-4.22
-8.36
-11.63
-14.53
-17.99
-23.07
-30.54
-40.45
-51.73
-62.22
-69.05
-69.58
-62.40
-48.07
-29.05
-8.89
9.00
22.52
31.22
35.98
38.10
38.65
38.09
36.58
34.37
31.94
29.87
28.45
27.39
25.97
23.36
19.18
13.79
8.11
3.21
-0.24
-2.33
-3.86
-6.09
-10.28
-17.29
-27.21
-39.07
-50.82
-59.63
-62.66
-58.07
-45.85
-28.03
-8.10
10.28
24.44
33.50
38.14
39.91
40.27
40.06
39.44
38.26
36.38
33.90
30.97
27.65
23.88
19.52
14.58
9.39
4.52
0.59
-2.04
-3.52
-4.59
-6.29
-9.80
-16.05
-25.27
-36.71
-48.42
-57.54
-61.08
-56.98
-45.14
-27.56
-7.80
10.37
24.26
32.98
37.26
38.62
38.42
37.35
35.51
32.81
29.37
25.56
21.79
18.23
14.80
11.22
7.37
3.33
-0.55
-3.96
-6.81
-9.42
-12.46
-16.80
-23.23
-32.10
-42.97
-54.34
-63.83
-68.64
-66.59
-57.00
-41.19
-22.08
-3.16
12.79
24.56
32.41
37.47
40.82
42.89
43.58
42.64
40.12
36.50
32.35
27.97
23.27
17.96
11.86
5.26
-1.12
-6.38
-9.91
-11.71
-12.44
-13.21
-15.23
-19.49
-26.45
-35.73
-45.92
-54.64
-59.08
-56.88
-47.20
-31.30
-12.21
6.35
21.31
31.30
36.74
39.15
40.06
40.27
39.78
38.32
35.82
32.76
29.77
27.21
24.83
21.81
17.32
11.02
3.48
-4.02
-10.03
-13.63
-14.88
-14.90
-15.44
-18.25
-24.56
-34.62
-47.48
-61.06
-72.44
-78.59
-77.24
-67.75
-51.44
-31.22
-10.63
7.29
20.84
29.74
34.69
36.65
36.37
34.37
31.10
27.23
23.60
20.94
19.51
18.90
18.27
16.70
13.69
9.38
4.51
-0.00
-3.49
-5.95
-8.02
-10.85
-15.59
-22.97
-32.75
-43.55
-52.88
-57.85
-56.06
-46.57
-30.43
-10.42
9.89
27.34
40.06
47.69
51.01
51.20
49.35
46.23
42.48
38.74
35.66
33.64
32.65
32.12
31.14
28.84
24.73
19.04
12.55
6.37
1.41
-2.01
-4.29
-6.51
-10.01
-16.04
-25.21
-37.05
-49.85
-60.75
-66.48
-64.44
-53.84
-36.18
-14.87
6.02
23.15
34.97
41.79
45.01
46.16
46.08
44.94
42.69
39.52
36.05
33.01
30.78
29.12
27.30
24.53
20.46
15.39
10.15
5.62
2.30
-0.01
-2.12
-5.17
-10.32
-18.26
-28.92
-41.07
-52.40
-59.95
-61.00
-54.18
-40.17
-21.60
-2.13
14.77
26.97
34.03
36.78
36.63
34.77
31.99
28.69
25.14
21.57
18.10
14.71
11.24
7.54
3.69
-0.09
-3.52
-6.45
-9.03
-11.68
-14.98
-19.57
-26.03
-34.63
-44.93
-55.50
-63.91
-67.34
-63.60
-52.10
-34.45
-13.96
5.47
20.70
30.37
34.95
36.08
35.65
35.08
35.05
35.64
36.63
37.66
38.37
38.42
37.53
35.55
32.48
28.47
23.78
18.74
13.63
8.63
3.59
-2.05
-9.18
-18.57
-30.16
-42.52
-52.85
-57.89
-55.23
-44.51
-27.82
-9.00
7.85
19.96
26.59
28.89
28.77
27.85
26.79
25.42
23.34
20.51
17.41
14.63
12.57
10.99
9.09
5.96
1.16
-5.01
-11.65
-17.62
-22.19
-25.21
-27.25
-29.14
-31.46
-34.09
-35.98
-35.53
-31.22
-22.45
-9.93
4.34
17.80
28.30
34.81
37.72
38.41
38.42
38.84
39.91
41.15
41.87
41.56
39.96
37.21
33.59
29.36
24.69
19.65
14.25
8.53
2.58
-3.67
-10.51
-18.50
-28.24
-39.71
-51.82
-62.21
-67.86
-66.20
-56.36
-39.84
-20.14
-1.51
12.56
20.55
23.04
22.01
19.76
17.89
16.99
16.79
16.64
15.96
14.45
12.08
9.04
5.51
1.71
-2.18
-5.96
-9.45
-12.51
-15.15
-17.75
-21.05
-25.97
-33.04
-41.82
-50.48
-56.14
-55.89
-48.06
-33.24
-14.27
4.78
20.22
30.06
34.47
35.18
34.28
33.18
32.16
30.80
28.54
25.23
21.22
17.11
13.39
10.26
7.63
5.26
2.92
0.47
-2.20
-5.28
-9.18
-14.47
-21.64
-30.63
-40.38
-48.74
-52.99
-50.92
-41.90
-27.38
-10.53
4.93
16.20
22.24
23.88
23.00
21.47
20.34
19.64
18.73
16.83
13.46
8.67
2.95
-2.98
-8.45
-13.07
-16.81
-19.97
-22.95
-26.24
-30.30
-35.76
-43.14
-52.56
-63.14
-72.76
-78.45
-77.46
-68.56
-52.85
-33.53
-14.64
0.54
10.62
16.29
19.42
21.90
24.74
27.89
30.61
32.10
31.86
29.80
26.16
21.35
15.89
10.25
4.75
-0.45
-5.43
-10.37
-15.53
-21.20
-27.70
-35.20
-43.35
-50.92
-55.80
-55.53
-48.39
-34.47
-16.14
2.70
18.12
27.90
32.29
33.65
34.92
38.13
43.48
49.61
54.64
57.14
56.68
53.68
48.99
43.45
37.75
32.53
28.39
25.75
24.65
24.59
24.69
23.86
21.10
15.77
7.85
-1.74
-11.02
-17.25
-17.76
-10.99
2.61
20.50
38.81
53.78
62.99
66.00
64.04
59.14
53.18
47.33
42.04
37.38
33.24
29.50
26.02
22.68
19.34
15.89
12.16
7.99
3.37
-1.38
-5.70
-9.07
-11.56
-14.13
-18.35
-25.63
-35.97
-47.37
-56.13
-58.38
-51.86
-37.17
-17.62
2.13
18.01
27.94
32.16
32.36
30.52
27.94
25.03
21.67
17.75
13.46
9.24
5.46
2.25
-0.58
-3.30
-6.08
-8.96
-11.83
-14.65
-17.49
-20.62
-24.58
-30.00
-37.37
-46.52
-56.22
-64.07
-67.18
-63.21
-51.56
-33.81
-13.37
5.77
20.44
29.22
32.48
31.77
28.92
25.42
22.24
19.87
18.48
17.95
17.85
17.53
16.27
13.49
8.81
2.27
-5.63
-13.80
-20.72
-24.94
-25.91
-24.54
-23.13
-24.37
-29.85
-38.97
-48.96
-56.22
-58.14
-54.53
-47.69
-41.19
-38.01
-39.02
-42.57
-45.20
-43.16
-33.79
-16.37
7.79
36.01
65.13
92.38
115.77
134.16
146.87
153.28
152.90
145.56
131.75
112.72
90.19
65.77
40.43
14.57
-11.47
-36.56
-58.33
-73.62
-79.54
-74.94
-61.28
-42.44
-23.47
-8.83
-0.94
0.18
-3.55
-9.56
-15.69
-20.75
-24.58
-27.51
-30.03
-32.43
-34.77
-36.92
-38.65
-39.82
-40.45
-40.70
-40.89
-41.33
-42.45
-44.74
-48.79
-54.96
-62.91
-71.15
-77.08
-77.71
-70.88
-56.41
-36.49
-15.03
3.80
17.13
24.22
26.28
25.48
23.82
22.37
21.25
20.05
18.39
16.22
13.81
11.53
9.57
7.91
6.27
4.30
1.71
-1.64
-5.78
-10.77
-16.83
-24.28
-33.21
-42.95
-51.72
-56.89
-55.83
-47.12
-31.39
-11.44
8.72
25.34
36.24
41.29
41.97
40.36
38.12
36.05
34.15
32.06
29.44
26.14
22.17
17.65
12.80
7.91
3.27
-0.85
-4.28
-7.06
-9.44
-11.87
-15.07
-19.86
-26.87
-35.92
-45.63
-53.43
-56.30
-51.96
-40.04
-22.48
-2.97
14.51
27.08
33.83
35.67
34.46
32.01
29.34
26.66
23.72
20.17
15.91
11.09
6.00
0.95
-3.78
-8.05
-11.80
-15.15
-18.22
-21.22
-24.43
-28.32
-33.53
-40.61
-49.45
-58.80
-66.21
-68.65
-63.81
-51.13
-32.44
-11.34
8.11
22.82
31.63
35.25
35.47
34.17
32.55
31.08
29.69
28.12
26.15
23.56
20.21
16.04
11.16
5.94
0.90
-3.42
-6.76
-9.25
-11.43
-14.17
-18.46
-25.15
-34.48
-45.68
-56.68
-64.46
-65.96
-59.24
-44.51
-24.20
-2.21
17.54
32.41
41.63
46.04
47.18
46.41
44.58
42.02
38.94
35.67
32.52
29.65
26.78
23.40
18.98
13.37
6.95
0.57
-4.87
-8.84
-11.45
-13.46
-16.04
-20.48
-27.70
-37.78
-49.60
-60.80
-68.20
-68.82
-61.09
-45.60
-25.15
-3.74
14.84
28.30
36.29
39.91
40.78
40.12
38.46
35.85
32.29
28.07
23.61
19.32
15.28
11.36
7.29
2.99
-1.38
-5.43
-8.81
-11.48
-13.84
-16.76
-21.38
-28.77
-39.33
-52.27
-65.30
-75.05
-78.06
-72.11
-57.28
-36.12
-12.73
8.67
25.27
36.22
42.31
45.02
45.56
44.49
41.98
38.27
34.00
29.99
26.82
24.45
22.20
19.21
14.90
9.38
3.42
-1.95
-6.03
-8.82
-11.11
-14.25
-19.69
-28.42
-40.49
-54.59
-68.07
-77.40
-79.27
-71.73
-55.20
-32.38
-7.42
15.62
34.08
47.22
55.80
61.12
64.11
64.97
63.55
59.95
54.86
49.51
45.05
41.95
39.79
37.47
33.83
28.33
21.38
14.11
7.79
3.17
0.11
-2.39
-5.69
-11.00
-19.06
-29.91
-42.86
-56.36
-68.02
-74.95
-74.59
-65.69
-49.08
-27.57
-5.01
15.03
30.47
40.94
47.29
50.64
51.65
50.48
47.22
42.33
36.76
31.58
27.39
24.09
20.92
16.99
11.85
5.72
-0.57
-6.06
-10.17
-13.02
-15.38
-18.46
-23.50
-31.42
-42.45
-55.77
-69.36
-80.21
-85.04
-81.42
-68.83
-49.07
-25.70
-2.81
16.37
30.36
39.36
44.51
46.93
47.26
45.72
42.55
38.33
34.01
30.42
27.90
26.08
24.13
21.21
16.97
11.74
6.39
1.92
-1.04
-2.54
-3.37
-4.92
-8.73
-15.94
-26.62
-39.25
-50.84
-57.65
-56.57
-46.42
-28.59
-6.62
15.25
33.63
47.02
55.83
61.41
64.94
66.86
66.84
64.56
60.23
54.80
49.59
45.59
43.02
41.18
38.90
35.08
29.34
22.22
14.92
8.79
4.63
2.29
0.71
-1.69
-6.43
-14.40
-25.62
-39.17
-53.15
-65.02
-71.92
-71.58
-62.99
-47.10
-26.55
-4.94
14.45
29.63
40.15
46.69
50.18
51.16
49.71
45.85
40.10
33.58
27.74
23.63
21.37
20.07
18.27
14.68
8.86
1.43
-6.24
-12.68
-17.05
-19.48
-20.99
-23.08
-27.27
-34.67
-45.64
-59.42
-73.89
-85.75
-91.27
-87.56
-73.86
-52.09
-26.28
-1.12
19.77
34.87
44.62
50.52
53.92
55.44
55.19
53.40
50.88
48.98
48.85
50.82
53.96
56.43
56.30
52.35
44.64
34.36
23.26
12.89
3.99
-3.63
-10.85
-18.77
-28.31
-39.87
-53.12
-66.77
-78.56
-85.56
-85.11
-75.85
-58.52
-36.09
-12.72
7.60
22.48
31.61
36.24
38.18
38.71
38.29
36.82
34.30
31.28
28.68
27.32
27.26
27.71
27.31
24.85
19.93
13.23
6.26
0.64
-2.66
-3.69
-3.58
-3.94
-6.37
-11.89
-20.74
-32.25
-44.78
-55.89
-62.80
-63.12
-55.77
-41.44
-22.55
-2.41
15.86
30.26
40.16
45.97
48.48
48.35
46.00
41.94
36.90
31.92
27.91
25.25
23.57
21.90
19.18
14.79
8.89
2.37
-3.58
-8.02
-10.80
-12.64
-14.91
-19.12
-26.34
-36.72
-49.13
-61.22
-69.90
-72.22
-66.45
-52.78
-33.46
-12.03
7.91
23.89
35.12
42.18
46.25
48.27
48.55
46.96
43.54
38.84
33.90
29.81
27.13
25.66
24.51
22.58
19.14
14.16
8.33
2.66
-1.99
-5.41
-8.10
-11.19
-15.95
-23.46
-34.14
-47.49
-61.84
-74.41
-82.00
-81.90
-73.01
-56.46
-35.36
-13.69
5.12
19.30
28.97
35.45
40.17
43.81
46.19
46.69
45.00
41.62
37.67
34.40
32.51
31.77
31.14
29.27
25.22
18.96
11.40
4.00
-1.96
-5.91
-8.25
-10.10
-12.81
-17.42
-24.49
-33.94
-45.12
-56.66
-66.46
-72.05
-71.19
-62.79
-47.54
-27.92
-7.40
10.74
24.55
33.70
39.06
41.80
42.67
41.82
39.17
34.96
30.05
25.65
22.69
21.31
20.69
19.45
16.41
11.30
4.97
-0.90
-4.64
-5.39
-3.52
-0.55
1.50
0.77
-3.91
-12.68
-24.58
-37.57
-48.78
-55.05
-53.93
-44.59
-28.39
-8.50
11.24
27.65
39.25
46.26
49.94
51.46
51.34
49.40
45.40
39.60
33.04
27.14
23.03
20.96
20.20
19.43
17.33
13.32
7.74
1.61
-3.87
-8.03
-10.95
-13.56
-17.04
-22.42
-30.16
-40.08
-51.43
-62.86
-72.57
-78.41
-78.40
-71.42
-57.83
-39.63
-19.88
-1.77
12.47
22.07
27.60
30.22
31.03
30.63
29.22
26.97
24.27
21.68
19.63
18.11
16.68
14.64
11.50
7.29
2.57
-1.78
-5.01
-6.94
-8.05
-9.36
-12.09
-17.25
-25.27
-35.73
-47.16
-57.18
-63.00
-62.27
-54.04
-39.26
-20.62
-1.63
14.59
26.27
33.24
36.50
37.37
36.85
35.39
33.13
30.23
27.04
23.98
21.24
18.66
15.78
12.13
7.56
2.38
-2.71
-6.97
-9.97
-11.92
-13.62
-16.30
-21.21
-29.14
-39.95
-52.25
-63.45
-70.38
-70.31
-62.05
-46.62
-27.02
-7.17
9.52
21.31
28.30
31.83
33.46
34.10
33.86
32.47
29.88
26.56
23.33
20.83
19.17
17.78
15.78
12.48
7.83
2.48
-2.50
-6.15
-8.13
-8.93
-9.71
-11.95
-16.88
-25.06
-35.95
-47.76
-57.68
-62.57
-60.01
-49.33
-32.07
-11.58
8.15
23.97
34.49
40.22
42.75
43.73
44.04
43.73
42.42
40.03
37.00
34.12
31.97
30.56
29.19
26.85
22.76
16.87
10.02
3.55
-1.33
-4.11
-5.32
-6.28
-8.56
-13.40
-21.33
-32.05
-44.48
-56.80
-66.62
-71.48
-69.56
-60.58
-46.16
-29.55
-14.43
-3.58
2.08
3.58
2.94
2.00
1.65
1.72
1.58
0.87
-0.24
-1.28
-1.93
-2.40
-3.30
-5.30
-8.62
-12.85
-17.01
-20.07
-21.43
-21.24
-20.39
-20.26
-22.29
-27.50
-36.11
-47.16
-58.48
-67.08
-69.94
-65.18
-52.90
-35.31
-16.09
1.00
13.46
20.62
23.48
23.85
23.35
22.94
22.97
23.52
24.72
26.74
29.48
32.42
34.66
35.40
34.29
31.73
28.67
26.09
24.40
23.09
20.89
16.20
7.79
-4.52
-19.51
-34.67
-46.77
-52.88
-51.36
-42.50
-28.45
-12.42
2.50
14.40
22.93
29.05
34.16
39.38
45.07
50.92
56.27
60.45
62.91
63.22
61.11
56.49
49.68
41.36
32.56
24.36
17.63
12.72
9.47
7.22
5.00
1.79
-3.27
-10.49
-19.31
-28.13
-34.59
-36.27
-31.69
-21.01
-6.23
9.49
22.97
32.08
36.31
36.51
34.21
30.71
26.76
22.51
17.93
13.10
8.32
3.86
-0.16
-3.93
-7.72
-11.72
-15.80
-19.58
-22.58
-24.58
-25.86
-27.18
-29.65
-34.37
-42.09
-52.71
-64.95
-76.34
-83.62
-83.71
-74.96
-57.96
-35.53
-11.82
9.19
25.00
35.12
40.63
43.22
44.19
44.12
43.05
41.05
38.54
36.19
34.46
33.23
31.81
29.28
25.08
19.47
13.41
8.19
4.71
3.00
2.14
0.59
-3.29
-10.72
-22.08
-36.68
-52.49
-66.38
-74.69
-74.41
-64.35
-45.88
-22.60
0.87
20.50
34.17
41.87
45.06
45.55
44.64
42.86
40.32
37.15
33.70
30.36
27.25
24.12
20.47
15.92
10.50
4.77
-0.51
-4.75
-7.86
-10.42
-13.47
-18.24
-25.71
-36.19
-48.79
-61.31
-70.54
-73.17
-67.02
-52.06
-30.67
-6.89
14.99
31.89
42.73
48.16
49.74
48.89
46.43
42.59
37.51
31.62
25.65
20.33
15.93
12.17
8.37
3.86
-1.57
-7.48
-12.97
-17.13
-19.58
-20.73
-21.73
-24.02
-28.94
-37.09
-47.92
-59.58
-69.08
-73.09
-69.08
-56.40
-36.82
-14.06
7.48
24.27
34.74
39.41
40.07
38.60
36.22
33.25
29.55
25.05
19.98
14.85
10.11
5.93
2.25
-1.17
-4.49
-7.71
-10.67
-13.23
-15.42
-17.63
-20.64
-25.48
-32.87
-42.55
-52.78
-60.52
-62.23
-55.34
-39.42
-16.66
8.91
32.83
51.77
64.36
71.05
73.23
72.24
68.94
63.77
57.14
49.75
42.51
36.14
30.80
26.15
21.57
16.64
11.49
6.70
3.00
0.72
-0.43
-1.46
-3.72
-8.58
-16.93
-28.89
-43.46
-58.32
-70.15
-75.43
-71.66
-58.52
-38.23
-14.94
6.76
23.49
33.96
38.92
40.19
39.57
38.09
36.06
33.50
30.59
27.76
25.40
23.52
21.69
19.18
15.43
10.39
4.55
-1.24
-6.14
-9.82
-12.58
-15.32
-19.34
-25.84
-35.49
-47.87
-61.21
-72.51
-78.32
-75.90
-64.44
-45.54
-22.77
-0.38
18.18
31.34
39.38
43.72
45.83
46.56
46.10
44.39
41.62
38.34
35.21
32.58
30.26
27.65
24.09
19.33
13.67
7.89
2.79
-1.19
-4.20
-6.84
-10.00
-14.54
-21.01
-29.36
-38.61
-46.81
-51.29
-49.59
-40.50
-24.82
-5.32
14.17
30.23
40.96
46.36
47.79
46.98
45.18
42.91
40.21
37.14
33.99
31.20
29.06
27.44
25.82
23.55
20.15
15.63
10.45
5.33
0.92
-2.61
-5.65
-9.13
-14.26
-22.03
-32.72
-45.39
-57.79
-66.78
-69.38
-63.89
-50.78
-32.67
-13.45
3.11
14.62
20.60
22.12
20.93
18.56
15.89
13.24
10.73
8.55
6.88
5.80
5.04
4.09
2.44
-0.14
-3.42
-6.79
-9.59
-11.50
-12.76
-14.14
-16.75
-21.61
-29.26
-39.24
-49.86
-58.42
-61.86
-57.90
-46.02
-27.93
-7.07
12.57
27.91
37.61
42.19
43.19
42.22
40.25
37.54
34.15
30.31
26.60
23.69
21.89
20.87
19.76
17.59
13.76
8.42
2.35
-3.41
-8.15
-11.80
-15.02
-18.94
-24.77
-33.31
-44.53
-57.21
-68.93
-76.49
-76.90
-68.60
-52.22
-30.63
-7.96
11.90
26.57
35.63
40.13
41.65
41.34
39.69
36.83
33.07
29.15
25.95
24.07
23.41
23.12
22.07
19.45
15.16
9.86
4.64
0.44
-2.42
-4.43
-6.70
-10.65
-17.44
-27.56
-40.41
-54.17
-66.03
-72.87
-72.28
-63.55
-48.01
-28.69
-9.27
7.14
18.91
26.00
29.43
30.52
30.25
29.11
27.24
24.72
21.73
18.53
15.27
11.99
8.63
5.13
1.49
-2.08
-5.30
-7.90
-9.82
-11.35
-13.26
-16.65
-22.53
-31.09
-41.22
-50.45
-55.59
-53.95
-44.55
-28.68
-9.55
8.95
23.61
32.91
37.09
37.54
35.84
33.16
30.05
26.68
23.11
19.47
15.87
12.38
8.89
5.33
1.69
-1.91
-5.26
-8.20
-10.85
-13.64
-17.34
-22.92
-31.19
-42.28
-55.15
-67.36
-75.53
-76.36
-67.89
-50.54
-27.17
-2.21
19.94
36.24
45.82
49.62
49.53
47.33
44.13
40.37
36.13
31.50
26.70
22.01
17.57
13.33
9.12
4.84
0.58
-3.37
-6.70
-9.27
-11.36
-13.66
-17.23
-23.00
-31.31
-41.34
-51.02
-57.51
-58.20
-51.79
-38.98
-22.25
-4.99
9.82
20.51
27.00
30.30
31.71
32.21
32.26
31.99
31.39
30.57
29.50
28.00
25.74
22.37
17.85
12.42
6.64
1.11
-3.75
-7.83
-11.39
-15.02
-19.57
-25.92
-34.60
-45.18
-56.02
-64.34
-67.14
-62.30
-49.71
-31.48
-11.28
7.00
20.69
29.02
32.95
34.27
34.56
34.60
34.33
33.29
31.07
27.67
23.36
18.62
13.87
9.37
5.13
1.01
-3.20
-7.70
-12.62
-18.02
-24.04
-30.93
-38.95
-47.90
-56.72
-63.37
-65.22
-60.12
-47.44
-28.67
-7.07
13.40
29.60
40.05
45.09
46.21
45.01
42.65
39.60
35.99
31.85
27.36
22.72
18.11
13.63
9.35
5.37
1.80
-1.29
-4.01
-6.64
-9.61
-13.38
-18.43
-25.19
-33.82
-43.89
-53.97
-61.70
-64.38
-59.92
-47.94
-30.10
-9.71
9.53
24.76
34.74
39.87
41.48
41.05
39.59
37.67
35.55
33.47
31.65
30.17
28.80
27.04
24.34
20.30
14.94
8.63
2.03
-4.32
-10.11
-15.54
-21.24
-28.12
-37.14
-48.65
-61.99
-75.15
-85.09
-88.57
-83.42
-69.56
-49.18
-26.08
-4.27
13.38
25.86
33.84
38.81
42.19
44.78
46.79
48.19
49.03
49.57
49.99
50.27
50.15
49.21
47.16
43.96
39.79
34.91
29.33
22.75
14.47
3.69
-10.28
-27.47
-46.79
-65.79
-80.86
-88.21
-85.09
-71.08
-48.43
-21.48
4.79
26.40
41.40
49.98
53.66
54.32
53.37
51.61
49.37
46.78
43.97
40.97
37.69
33.97
29.75
25.11
20.35
15.82
11.69
7.82
3.70
-1.44
-8.55
-18.42
-31.34
-46.53
-61.81
-73.79
-78.77
-74.10
-59.38
-36.87
-10.83
14.05
34.26
48.38
56.93
61.41
63.24
63.20
61.56
58.51
54.65
50.96
48.26
46.79
45.93
44.49
41.28
35.87
28.76
21.25
14.76
10.09
7.03
4.33
0.20
-7.03
-18.25
-33.10
-49.72
-64.92
-74.97
-76.70
-68.65
-51.81
-29.36
-5.56
15.75
32.35
43.96
51.64
56.81
60.35
62.43
62.89
61.77
59.61
57.22
55.19
53.49
51.38
47.79
41.93
33.84
24.45
15.29
7.79
2.71
-0.26
-2.32
-5.08
-10.11
-18.40
-30.03
-43.93
-57.83
-68.62
-73.17
-69.41
-57.21
-38.63
-17.31
2.84
18.95
29.81
35.78
38.05
37.82
35.87
32.59
28.32
23.54
18.81
14.57
10.92
7.61
4.31
0.79
-2.85
-6.28
-9.15
-11.33
-13.15
-15.46
-19.43
-26.22
-36.31
-48.93
-61.77
-71.47
-74.63
-69.18
-55.35
-35.77
-14.50
4.42
18.37
26.72
30.50
31.42
30.91
29.68
27.75
24.92
21.17
16.79
12.28
8.04
4.37
1.29
-1.30
-3.58
-5.71
-7.90
-10.40
-13.60
-18.12
-24.59
-33.38
-44.02
-54.88
-63.23
-66.09
-61.33
-48.74
-30.26
-9.36
10.29
26.09
37.14
44.01
47.82
49.49
49.34
47.38
43.77
39.01
33.94
29.28
25.31
21.83
18.37
14.57
10.49
6.59
3.46
1.47
0.44
-0.41
-2.22
-6.14
-12.97
-22.86
-35.05
-47.83
-58.67
-64.84
-64.21
-56.11
-41.72
-23.69
-5.17
11.40
24.95
35.73
44.54
51.87
57.44
60.53
60.60
57.89
53.46
48.64
44.42
40.96
37.67
33.73
28.66
22.69
16.65
11.57
8.15
6.41
5.64
4.67
2.24
-2.57
-9.95
-19.15
-28.51
-35.78
-38.73
-35.93
-27.31
-14.27
0.75
15.12
26.80
34.89
39.50
41.35
41.25
39.77
37.28
34.06
30.41
26.63
22.86
18.92
14.49
9.32
3.44
-2.70
-8.38
-12.96
-16.25
-18.77
-21.70
-26.50
-34.41
-45.59
-58.69
-70.82
-78.40
-78.46
-69.92
-54.30
-35.21
-16.98
-2.99
5.42
9.24
11.02
13.70
19.53
29.43
42.81
57.90
72.17
83.01
88.42
87.57
81.05
70.53
58.07
45.50
33.86
23.42
13.93
4.94
-4.05
-13.60
-24.14
-35.66
-47.21
-56.81
-61.78
-59.67
-49.44
-32.12
-10.71
10.79
28.73
40.94
47.04
48.13
45.91
41.95
37.29
32.42
27.51
22.59
17.61
12.47
7.07
1.36
-4.56
-10.43
-15.83
-20.40
-23.94
-26.58
-28.84
-31.60
-35.82
-42.21
-50.62
-59.72
-67.09
-69.85
-65.83
-54.54
-37.58
-18.20
-0.09
13.85
22.37
25.88
25.83
23.91
21.38
18.91
16.64
14.51
12.32
9.90
7.07
3.72
-0.14
-4.35
-8.61
-12.53
-15.80
-18.32
-20.24
-22.04
-24.50
-28.45
-34.42
-42.15
-50.23
-56.28
-57.61
-52.29
-40.10
-22.80
-3.60
13.94
27.15
35.02
38.10
37.84
35.75
32.79
29.39
25.68
21.91
18.52
15.96
14.42
13.59
12.77
11.19
8.34
4.28
-0.43
-5.07
-9.15
-12.71
-16.36
-21.01
-27.49
-36.02
-45.87
-55.26
-61.72
-62.87
-57.28
-45.19
-28.59
-10.62
5.48
17.45
24.46
27.11
26.67
24.47
21.38
17.80
13.83
9.58
5.18
0.83
-3.26
-6.92
-9.91
-11.95
-12.78
-12.33
-10.85
-9.06
-8.02
-8.85
-12.50
-19.30
-28.67
-38.82
-47.01
-50.16
-45.85
-33.38
-14.17
8.53
30.72
48.97
61.36
67.71
69.18
67.51
64.39
61.09
58.38
56.54
55.22
53.50
50.09
43.84
34.28
22.02
8.57
-4.07
-14.10
-20.60
-23.77
-24.88
-25.85
-28.70
-34.97
-45.07
-58.03
-71.40
-81.84
-86.09
-82.14
-70.14
-52.47
-33.09
-16.19
-4.87
-0.34
-1.67
-6.33
-10.99
-12.59
-9.16
-0.47
11.89
24.96
35.37
40.61
39.88
34.44
26.84
19.83
15.14
12.78
11.22
8.22
1.75
-9.20
-24.40
-42.48
-61.13
-77.61
-89.04
-92.98
-88.10
-74.79
-55.30
-33.38
-13.19
1.93
10.44
12.78
10.86
7.10
3.53
1.28
0.49
0.63
0.85
0.32
-1.53
-4.86
-9.45
-14.85
-20.46
-25.74
-30.44
-34.61
-38.77
-43.82
-50.73
-60.07
-71.31
-82.45
-90.32
-91.42
-83.35
-65.88
-41.20
-13.28
13.52
35.85
52.10
62.42
67.96
70.18
70.18
68.62
65.75
61.64
56.34
49.94
42.60
34.59
26.23
17.84
9.67
1.94
-5.19
-11.60
-17.26
-22.43
-27.78
-34.30
-42.81
-53.34
-64.48
-73.50
-77.13
-72.81
-59.98
-40.41
-17.72
4.03
21.74
34.10
41.45
45.10
46.38
46.18
44.89
42.75
40.09
37.37
35.00
33.10
31.54
30.02
28.21
25.85
22.78
18.81
13.69
7.14
-1.19
-11.66
-24.50
-39.47
-55.37
-69.87
-79.74
-81.85
-74.35
-57.74
-34.89
-10.16
12.15
29.22
40.33
46.43
49.22
50.11
49.83
48.46
45.95
42.34
37.81
32.58
26.69
20.09
12.82
5.09
-2.59
-9.63
-15.61
-20.50
-24.76
-29.25
-35.04
-43.11
-53.94
-67.01
-80.43
-91.08
-95.33
-90.46
-75.79
-53.36
-27.21
-1.97
18.88
34.02
44.17
51.14
56.57
61.14
64.69
66.71
66.99
65.86
63.86
61.34
58.23
54.10
48.59
41.75
34.24
27.12
21.34
17.32
14.58
11.85
7.40
-0.46
-12.74
-29.21
-47.96
-65.53
-77.64
-80.50
-72.26
-53.92
-29.24
-3.46
18.46
33.47
41.04
42.72
40.96
37.93
34.88
32.04
29.14
25.84
22.01
17.76
13.34
9.10
5.31
2.21
-0.11
-1.72
-2.86
-3.97
-5.63
-8.59
-13.54
-20.83
-29.90
-39.02
-45.40
-46.03
-38.83
-23.69
-2.81
19.99
40.53
55.78
64.53
67.40
66.00
62.04
56.76
50.87
44.82
39.13
34.39
31.01
29.02
27.94
27.04
25.69
23.66
21.26
19.05
17.48
16.50
15.46
13.24
8.63
0.76
-10.35
-23.51
-36.31
-45.62
-48.52
-43.49
-31.12
-14.00
4.13
19.84
31.13
37.77
40.88
41.94
42.02
41.49
40.32
38.54
36.48
34.62
33.35
32.66
32.17
31.40
29.97
27.79
25.04
22.00
18.89
15.66
12.03
7.43
1.08
-7.81
-19.63
-33.79
-48.35
-60.21
-66.00
-63.37
-52.19
-34.83
-15.34
2.05
14.51
21.39
23.94
24.27
24.17
24.41
24.88
25.02
24.48
23.38
22.14
21.20
20.71
20.44
19.92
18.70
16.61
13.84
10.76
7.69
4.55
0.71
-4.82
-12.79
-22.93
-33.55
-41.74
-44.36
-39.33
-26.75
-9.00
10.04
26.48
37.79
43.47
44.73
43.55
41.67
40.03
38.73
37.43
35.73
33.41
30.45
26.93
22.98
18.72
14.33
10.12
6.45
3.67
1.86
0.69
-0.66
-3.34
-8.46
-16.44
-26.50
-36.56
-43.71
-45.21
-39.68
-27.77
-12.04
3.98
17.14
25.72
29.73
30.44
29.42
27.68
25.42
22.21
17.57
11.42
4.28
-2.84
-8.81
-12.75
-14.28
-13.71
-11.85
-9.80
-8.62
-9.03
-11.47
-16.15
-23.01
-31.56
-40.47
-47.54
-50.15
-46.23
-35.37
-19.32
-1.60
13.85
24.22
28.77
28.72
26.33
23.61
21.50
19.82
17.84
14.99
11.23
6.96
2.77
-0.93
-4.07
-6.74
-9.13
-11.31
-13.35
-15.43
-18.06
-22.10
-28.37
-37.08
-47.18
-56.37
-61.60
-60.30
-51.55
-36.65
-18.74
-1.65
11.55
19.44
22.45
22.21
20.70
19.45
19.24
20.14
21.81
23.61
24.90
25.19
24.23
22.11
19.15
15.75
12.17
8.55
4.82
0.80
-3.86
-9.65
-17.01
-25.90
-35.38
-43.50
-47.69
-45.80
-37.12
-23.00
-6.43
8.99
20.52
27.04
29.23
28.75
27.24
25.64
24.01
21.91
18.93
15.00
10.43
5.80
1.64
-1.71
-4.14
-5.78
-6.81
-7.52
-8.24
-9.54
-12.15
-16.76
-23.56
-31.78
-39.52
-44.20
-43.57
-36.74
-24.77
-10.35
3.29
13.57
19.53
21.77
21.86
21.35
21.05
20.86
20.09
18.05
14.50
9.78
4.67
0.08
-3.35
-5.48
-6.72
-7.74
-9.27
-11.81
-15.66
-21.00
-27.81
-35.71
-43.56
-49.49
-51.31
-47.45
-37.81
-24.13
-9.48
2.88
10.83
14.06
13.94
12.52
11.49
11.37
11.62
11.19
9.33
6.10
2.29
-0.97
-2.82
-3.14
-2.46
-1.75
-1.86
-3.31
-6.32
-11.00
-17.44
-25.38
-33.85
-40.92
-44.11
-41.40
-32.20
-18.04
-2.03
12.25
22.26
27.24
28.21
27.10
25.60
24.53
23.77
22.75
21.03
18.60
15.86
13.33
11.38
10.04
9.06
8.01
6.49
4.18
0.84
-3.80
-10.03
-17.91
-26.90
-35.55
-41.62
-42.72
-37.34
-25.68
-9.84
6.85
21.05
30.57
35.04
35.55
33.92
31.75
29.88
28.41
27.04
25.45
23.48
21.11
18.35
15.18
11.59
7.57
3.24
-1.13
-5.25
-8.88
-12.05
-15.19
-19.03
-24.21
-30.77
-37.58
-42.48
-42.89
-37.04
-24.91
-8.52
8.73
23.37
33.15
37.65
37.99
35.96
33.02
29.91
26.71
23.25
19.47
15.54
11.66
7.92
4.28
0.64
-3.07
-6.76
-10.18
-13.14
-15.55
-17.55
-19.65
-22.68
-27.58
-34.93
-44.33
-54.01
-61.05
-62.36
-55.97
-42.11
-23.36
-3.78
12.64
23.40
28.15
28.31
26.02
23.18
20.82
19.23
18.21
17.44
16.59
15.32
13.23
10.08
5.87
0.96
-4.01
-8.42
-11.91
-14.55
-16.88
-19.84
-24.53
-31.69
-41.12
-51.34
-59.66
-63.04
-59.28
-48.11
-31.54
-13.23
2.95
14.28
20.10
21.61
20.99
20.20
20.24
20.97
21.52
20.89
18.44
14.06
8.15
1.48
-5.19
-11.25
-16.43
-20.80
-24.70
-28.54
-32.80
-37.98
-44.60
-52.89
-62.50
-71.95
-78.78
-80.11
-73.79
-59.60
-39.66
-17.90
1.43
15.39
23.33
26.71
28.03
29.39
31.64
34.35
36.37
36.68
34.80
30.90
25.47
19.11
12.38
5.86
0.08
-4.51
-7.84
-10.26
-12.56
-15.77
-20.90
-28.61
-38.93
-50.84
-62.15
-69.82
-70.78
-63.14
-47.20
-25.55
-2.29
18.54
34.41
44.92
51.36
55.57
58.79
61.23
62.42
61.90
59.72
56.41
52.53
48.21
43.04
36.48
28.42
19.53
11.14
4.67
0.88
-0.53
-0.87
-1.98
-5.64
-12.91
-23.80
-36.93
-49.64
-58.55
-60.43
-53.47
-38.05
-16.92
5.67
25.43
39.42
46.79
48.56
46.75
43.29
39.48
35.86
32.58
29.77
27.63
26.28
25.54
24.91
23.68
21.33
17.77
13.51
9.26
5.59
2.46
-0.84
-5.54
-12.79
-23.10
-35.81
-48.87
-59.28
-63.89
-60.54
-48.94
-31.00
-10.27
9.26
24.49
34.03
38.29
38.79
37.18
34.57
31.34
27.40
22.59
16.95
10.77
4.41
-1.87
-7.87
-13.50
-18.63
-23.06
-26.62
-29.30
-31.37
-33.52
-36.78
-42.32
-50.91
-62.30
-74.68
-84.80
-88.89
-83.94
-69.18
-46.65
-20.60
3.95
23.06
35.05
40.59
41.81
40.97
39.55
37.87
35.50
31.90
26.92
20.89
14.51
8.52
3.41
-0.74
-4.13
-7.15
-10.19
-13.59
-17.71
-23.08
-30.40
-40.15
-51.91
-63.84
-72.71
-74.84
-67.58
-50.70
-26.83
-0.66
22.75
39.81
49.40
52.79
52.45
50.82
49.29
48.08
46.62
44.17
40.33
35.18
29.18
23.03
17.28
12.24
7.91
4.03
0.23
-3.90
-8.85
-15.25
-23.71
-34.43
-46.54
-57.72
-64.57
-63.66
-53.07
-33.48
-8.23
17.76
39.88
55.41
64.17
67.87
68.89
69.00
68.80
67.99
65.94
62.32
57.21
50.99
44.15
37.07
30.06
23.37
17.24
11.82
7.11
2.81
-1.74
-7.56
-15.70
-26.66
-39.71
-52.46
-61.23
-62.27
-53.37
-35.10
-10.86
14.22
35.21
49.15
55.69
56.62
54.54
51.59
48.79
46.18
43.34
39.93
35.87
31.28
26.35
21.22
16.02
10.87
5.97
1.49
-2.49
-6.14
-9.94
-14.78
-21.73
-31.52
-43.88
-57.00
-67.60
-71.88
-67.02
-52.55
-30.89
-6.59
15.39
31.46
40.51
43.73
43.49
41.99
40.41
38.77
36.57
33.34
29.02
23.96
18.65
13.52
8.73
4.30
0.11
-3.98
-8.12
-12.54
-17.61
-23.88
-31.99
-42.26
-54.11
-65.64
-73.88
-75.53
-68.38
-52.43
-30.20
-5.99
15.67
31.56
40.68
44.06
43.80
42.02
40.00
38.16
36.35
34.27
31.74
28.72
25.20
21.22
16.88
12.37
8.01
4.10
0.74
-2.26
-5.45
-9.61
-15.56
-23.87
-34.42
-46.04
-56.41
-62.50
-61.56
-52.24
-35.42
-14.09
7.56
25.60
37.71
43.63
44.73
43.07
40.37
37.60
35.02
32.55
30.11
27.65
25.10
22.18
18.59
14.10
8.83
3.26
-1.94
-6.20
-9.36
-11.79
-14.32
-18.05
-23.98
-32.57
-43.19
-53.88
-61.62
-63.14
-56.29
-41.07
-20.01
2.50
21.88
34.91
40.73
40.72
37.40
33.16
29.36
26.14
22.97
19.23
14.74
9.74
4.68
-0.05
-4.30
-8.19
-11.87
-15.44
-18.85
-22.07
-25.33
-29.23
-34.67
-42.26
-51.54
-60.61
-66.37
-65.66
-56.77
-40.46
-20.02
-0.05
15.34
24.08
26.63
25.32
22.93
21.42
21.34
22.05
22.48
21.84
19.90
16.97
13.53
10.03
6.65
3.41
0.28
-2.77
-5.76
-8.84
-12.46
-17.37
-24.22
-33.00
-42.53
-50.41
-53.76
-50.33
-39.63
-23.41
-5.13
11.30
22.96
28.78
29.59
27.32
23.94
20.68
17.94
15.50
13.08
10.58
8.13
5.91
4.03
2.34
0.56
-1.65
-4.50
-8.04
-12.19
-16.88
-22.21
-28.46
-35.92
-44.38
-52.78
-59.14
-61.15
-57.07
-46.65
-31.38
-14.01
2.62
16.55
27.22
35.14
41.18
45.90
49.36
51.34
51.83
51.13
49.75
48.06
46.11
43.70
40.60
36.80
32.54
28.16
23.93
19.87
15.78
11.29
6.05
-0.32
-8.08
-17.16
-26.79
-35.36
-40.52
-39.95
-32.34
-18.22
-0.08
18.35
33.46
43.05
46.95
46.70
44.49
42.09
40.14
38.32
35.92
32.44
27.99
23.14
18.62
14.91
12.16
10.11
8.40
6.70
4.74
2.41
-0.52
-4.42
-9.80
-17.01
-25.68
-34.36
-40.63
-41.78
-36.05
-23.55
-6.62
11.02
25.60
34.79
38.45
38.17
36.23
34.36
33.08
31.76
29.35
25.27
20.05
15.37
13.44
15.99
23.29
33.77
44.51
52.39
55.35
53.01
46.42
37.16
26.62
15.82
6.03
-0.69
-1.71
5.12
20.16
41.38
64.85
86.35
102.93
113.66
119.40
121.63
121.47
119.21
114.46
106.86
96.43
83.76
69.69
55.04
40.16
24.85
8.35
-10.36
-32.01
-56.54
-83.00
-109.86
-135.62
-159.18
-179.65
-195.73
-205.29
-205.69
-194.87
-172.86
-142.46
-108.82
-77.78
-53.94
-39.41
-33.76
-34.95
-40.49
-48.11
-55.87
-61.95
-64.66
-62.91
-56.71
-47.30
-36.62
-26.55
-18.16
-11.61
-6.50
-2.46
0.48
1.81
0.75
-3.31
-10.42
-19.74
-29.52
-37.31
-40.68
-37.99
-29.07
-15.36
0.57
15.86
28.33
36.89
41.59
43.04
41.88
38.46
32.82
25.00
15.38
4.82
-5.43
-14.13
-20.59
-24.98
-28.30
-31.81
-36.46
-42.43
-49.17
-55.97
-62.46
-68.62
-74.40
-79.10
-81.17
-78.71
-70.49
-56.96
-40.46
-24.55
-12.51
-6.05
-4.70
-6.32
-8.34
-9.00
-7.86
-5.55
-2.90
-0.25
2.83
7.06
12.76
19.42
25.72
30.14
31.73
30.58
27.76
24.76
22.84
22.73
24.80
29.32
36.77
47.59
61.75
78.23
94.97
109.30
118.80
122.13
119.43
112.17
102.45
92.15
82.24
72.66
62.57
51.03
37.58
22.54
7.12
-7.10
-18.80
-27.41
-33.25
-37.40
-41.25
-46.15
-53.25
-63.39
-76.90
-92.96
-109.12
-121.25
-124.45
-114.81
-91.30
-56.73
-17.22
19.81
48.06
64.31
68.83
64.36
54.54
42.38
29.78
17.60
6.27
-3.87
-12.52
-19.59
-25.40
-30.57
-35.90
-41.89
-48.61
-55.61
-62.24
-68.22
-74.02
-81.07
-91.08
-104.95
-121.50
-137.06
-146.27
-144.05
-127.88
-99.23
-63.32
-27.26
2.52
22.39
32.04
33.64
30.15
23.79
15.54
5.50
-6.16
-18.58
-30.10
-38.66
-42.55
-40.86
-33.81
-22.53
-8.76
5.49
18.22
27.57
31.92
30.03
21.36
6.58
-11.97
-30.27
-43.34
-46.76
-38.28
-19.03
6.65
32.67
53.37
65.51
69.07
66.54
61.35
56.18
52.15
48.84
45.17
40.24
33.81
26.33
18.59
11.41
5.36
0.61
-3.00
-5.99
-9.06
-13.10
-18.95
-27.42
-38.95
-53.16
-68.40
-81.69
-89.25
-87.68
-75.50
-53.99
-27.06
0.10
22.99
39.20
48.96
54.21
57.24
59.40
60.79
60.72
58.51
54.15
48.26
41.70
35.17
28.93
22.99
17.33
12.07
7.48
3.64
0.24
-3.42
-8.38
-15.67
-26.00
-39.29
-54.36
-68.70
-78.83
-81.28
-73.81
-56.61
-32.55
-6.30
17.27
34.86
45.57
50.59
52.07
51.78
50.43
47.85
43.70
38.16
32.07
26.51
22.22
19.19
16.69
13.72
9.54
3.96
-2.68
-9.84
-17.14
-24.63
-32.73
-42.10
-53.07
-65.16
-76.71
-84.97
-86.81
-79.84
-63.51
-39.63
-11.89
15.40
38.76
56.46
68.53
76.05
80.19
81.62
80.62
77.54
73.19
68.77
65.40
63.58
62.85
62.12
60.11
56.21
50.74
44.79
39.65
35.96
33.31
30.21
24.65
14.85
0.09
-18.70
-38.80
-56.14
-66.35
-66.15
-54.65
-33.82
-7.95
17.90
39.67
55.50
65.82
72.43
77.20
81.05
83.85
84.90
83.74
80.60
76.26
71.64
67.21
62.80
57.81
51.67
44.34
36.44
28.95
22.74
18.03
14.17
9.93
3.92
-4.89
-16.83
-31.30
-46.74
-60.63
-69.97
-72.11
-65.68
-51.40
-32.03
-11.39
6.92
20.78
29.82
34.92
37.15
37.10
34.75
30.09
23.66
16.82
11.22
8.10
7.63
8.88
10.29
10.37
8.31
4.16
-1.45
-7.74
-14.17
-20.55
-26.98
-33.63
-40.61
-47.98
-55.53
-62.63
-68.00
-69.74
-65.93
-55.41
-38.54
-17.43
4.66
24.40
39.51
49.24
54.17
55.49
54.28
51.18
46.56
40.87
34.80
29.18
24.61
21.21
18.60
16.17
13.43
10.25
6.85
3.61
0.68
-2.09
-5.32
-9.89
-16.59
-25.66
-36.32
-46.60
-53.63
-54.58
-47.77
-33.62
-14.69
5.01
21.55
32.45
37.34
37.67
35.63
32.97
30.45
27.87
24.68
20.57
15.77
10.91
6.66
3.52
1.61
0.81
0.86
1.50
2.36
2.90
2.34
-0.22
-5.51
-13.40
-22.64
-30.73
-34.68
-32.03
-22.07
-6.33
11.83
28.42
40.25
46.05
46.52
43.70
39.87
36.68
34.78
34.02
33.86
33.72
33.26
32.33
31.02
29.59
28.33
27.51
27.20
27.27
27.40
27.24
26.41
24.46
20.84
14.87
6.21
-4.69
-16.10
-25.21
-29.07
-25.76
-15.52
-0.82
14.50
26.75
33.73
35.27
32.77
28.19
23.07
18.13
13.43
8.85
4.40
0.17
-3.81
-7.80
-12.31
-17.83
-24.56
-32.21
-40.08
-47.33
-53.41
-58.24
-62.26
-66.34
-71.35
-77.82
-85.47
-92.97
-98.17
-98.67
-92.73
-80.07
-62.18
-41.91
-22.48
-6.46
4.93
11.81
15.11
15.90
14.95
12.72
9.55
5.90
2.32
-0.80
-3.38
-5.69
-8.09
-10.73
-13.41
-15.62
-16.88
-17.10
-16.69
-16.48
-17.45
-20.36
-25.51
-32.44
-39.83
-45.61
-47.42
-43.38
-33.01
-17.60
-0.04
16.16
28.13
34.69
36.48
35.34
33.17
31.07
29.07
26.57
23.03
18.51
13.75
9.75
7.32
6.72
7.57
9.10
10.51
11.23
10.98
9.71
7.29
3.44
-2.21
-9.73
-18.41
-26.57
-31.89
-32.27
-26.81
-16.33
-3.21
9.61
19.72
26.06
28.99
29.73
29.54
29.20
28.90
28.50
27.82
26.77
25.33
23.43
20.96
17.92
14.43
10.78
7.35
4.40
2.00
-0.00
-1.99
-4.50
-8.15
-13.47
-20.58
-28.78
-36.45
-41.29
-41.19
-35.16
-23.99
-10.11
3.32
13.62
19.55
21.54
21.09
19.84
18.79
18.10
17.31
15.94
13.77
10.96
7.87
4.89
2.24
0.00
-1.90
-3.64
-5.42
-7.46
-9.88
-12.74
-16.16
-20.36
-25.64
-32.17
-39.57
-46.63
-51.51
-52.30
-47.88
-38.51
-25.75
-11.73
1.91
14.68
27.12
40.03
53.55
66.66
77.59
84.69
87.28
85.91
81.95
76.77
71.26
65.74
60.42
55.87
53.13
53.29
56.84
63.12
70.25
75.59
76.74
72.46
63.29
51.54
40.48
33.17
31.29
34.53
40.76
47.00
50.54
49.95
45.30
37.73
28.79
19.73
11.27
3.74
-2.73
-8.04
-12.15
-15.26
-17.82
-20.51
-23.86
-28.10
-32.95
-37.75
-41.81
-44.76
-46.81
-48.86
-52.15
-57.80
-66.11
-76.04
-85.13
-90.17
-88.31
-78.31
-61.20
-40.13
-19.17
-1.90
9.75
15.80
17.68
17.18
15.71
14.00
12.24
10.57
9.25
8.61
8.79
9.52
10.12
9.76
7.87
4.39
-0.13
-4.79
-8.76
-11.68
-13.96
-16.62
-21.01
-28.24
-38.62
-51.22
-63.76
-73.08
-76.10
-71.00
-58.09
-39.89
-20.30
-3.19
8.88
15.21
16.70
15.00
11.60
7.48
3.17
-0.91
-4.32
-6.69
-8.05
-8.96
-10.30
-12.83
-16.71
-21.40
-25.89
-29.24
-31.15
-32.16
-33.53
-36.72
-42.90
-52.49
-64.86
-78.30
-90.21
-97.63
-98.02
-90.31
-75.48
-56.62
-38.08
-24.04
-17.11
-17.62
-24.05
-34.04
-45.62
-57.57
-68.89
-77.83
-81.55
-77.00
-62.84
-41.12
-17.67
-0.56
2.98
-10.50
-39.08
-76.18
-112.91
-141.13
-155.68
-155.33
-142.31
-121.12
-97.14
-75.26
-58.74
-48.47
-43.11
-39.62
-34.83
-26.52
-14.08
1.57
18.67
35.50
50.96
64.57
76.16
85.51
92.39
96.95
99.95
102.54
105.57
108.70
110.14
107.36
98.57
83.99
66.34
49.78
37.99
32.46
31.92
33.09
32.43
27.64
18.26
5.56
-8.02
-18.94
-23.01
-16.60
1.74
29.39
59.06
80.34
83.72
65.02
27.70
-18.35
-61.38
-92.89
-110.83
-118.95
-123.13
-127.04
-130.03
-127.97
-116.49
-94.11
-63.52
-30.32
-0.21
23.54
41.17
55.29
68.81
83.03
96.90
107.65
112.28
109.50
100.94
90.94
84.90
87.09
98.67
117.06
136.99
152.83
160.96
161.04
155.64
148.49
142.46
138.30
134.66
129.42
121.13
109.85
96.98
84.21
72.54
61.91
51.52
40.65
29.41
18.85
10.55
5.72
4.52
5.83
7.55
7.29
3.14
-5.62
-17.99
-31.16
-41.07
-43.50
-35.59
-17.13
9.03
37.72
63.22
81.20
90.08
91.12
87.41
82.28
77.98
75.19
73.25
70.86
66.70
59.76
49.43
35.55
18.52
-0.71
-20.49
-38.75
-53.45
-63.19
-67.77
-68.38
-67.34
-67.33
-70.49
-77.34
-86.25
-93.66
-95.12
-86.99
-68.15
-40.74
-9.60
19.48
42.00
56.17
62.99
64.80
63.43
58.80
49.05
31.96
6.82
-24.37
-57.08
-85.51
-104.46
-110.92
-104.81
-88.77
-67.29
-45.42
-27.64
-16.92
-14.26
-18.90
-28.81
-41.38
-53.89
-63.80
-68.84
-67.23
-58.15
-42.24
-21.75
-0.12
19.02
33.14
41.55
45.47
47.14
48.64
50.94
53.57
55.19
54.37
50.41
43.60
35.03
26.04
17.76
10.77
5.09
0.28
-4.58
-10.76
-19.80
-33.21
-51.96
-75.88
-103.12
-129.96
-151.33
-162.12
-158.74
-140.70
-111.02
-75.54
-41.04
-13.15
5.13
13.74
14.66
10.49
3.35
-5.45
-15.09
-24.70
-33.08
-39.02
-41.83
-41.77
-39.97
-37.91
-36.69
-36.59
-36.98
-36.84
-35.45
-32.88
-30.22
-29.23
-31.77
-38.97
-50.48
-64.10
-75.96
-81.58
-77.39
-62.26
-38.25
-10.21
15.96
35.31
45.36
46.42
40.74
30.99
19.10
5.90
-8.53
-24.13
-40.54
-57.06
-73.08
-88.39
-103.23
-118.15
-133.58
-149.52
-165.45
-180.58
-194.25
-206.11
-216.07
-223.90
-228.64
-228.42
-220.82
-203.62
-175.86
-138.31
-93.28
-43.78
7.58
59.08
109.59
157.78
201.40
237.29
262.28
274.48
274.23
264.13
247.96
229.13
209.52
189.14
166.99
142.47
116.33
90.86
68.94
52.84
43.23
39.01
37.96
37.52
35.39
29.81
19.56
4.21
-15.41
-36.70
-55.46
-66.80
-66.73
-53.73
-29.50
1.42
33.10
60.00
78.54
87.78
89.14
85.59
80.44
76.33
74.75
76.05
79.86
85.60
92.66
100.36
107.62
112.86
114.32
110.72
102.10
90.06
77.24
66.13
57.67
50.52
41.39
26.35
2.53
-30.72
-71.78
-117.46
-163.99
-207.52
-244.10
-269.58
-280.08
-273.23
-249.53
-212.92
-169.89
-127.32
-90.10
-59.94
-35.75
-15.43
2.36
17.48
28.92
36.06
39.72
41.95
44.89
49.18
53.09
52.77
43.76
23.05
-9.06
-48.18
-86.82
-116.64
-131.40
-129.26
-113.42
-90.76
-69.07
-54.14
-47.99
-48.93
-53.19
-56.93
-57.73
-54.89
-48.82
-40.20
-29.56
-17.45
-4.75
7.21
16.87
23.08
25.55
25.00
22.76
20.17
17.91
15.64
12.06
5.51
-5.05
-19.04
-33.76
-44.89
-47.91
-39.91
-21.08
5.13
33.20
57.53
74.48
83.18
85.24
83.43
80.23
77.08
74.33
71.77
69.13
66.36
63.51
60.59
57.40
53.66
49.22
44.24
39.10
34.17
29.46
24.42
17.97
8.90
-3.39
-18.08
-32.54
-42.70
-44.29
-34.55
-13.59
15.29
46.53
74.34
94.58
105.83
109.23
107.22
102.30
96.12
89.34
82.13
74.61
67.06
59.82
53.10
46.81
40.67
34.32
27.67
20.83
14.16
7.91
1.99
-4.25
-11.88
-21.85
-34.23
-47.53
-58.70
-63.98
-60.31
-46.82
-25.42
-0.29
23.63
42.41
54.28
59.74
60.71
59.27
56.83
53.89
50.38
46.18
41.49
36.72
32.32
28.44
24.90
21.20
16.88
11.67
5.61
-1.13
-8.48
-16.73
-26.34
-37.41
-48.96
-58.64
-63.14
-59.50
-46.53
-25.71
-0.95
22.78
41.34
52.68
57.19
56.85
53.93
50.02
45.66
40.75
35.13
28.96
22.77
17.17
12.56
8.95
5.99
3.16
-0.03
-3.95
-8.83
-14.90
-22.57
-32.18
-43.65
-55.96
-66.90
-73.44
-72.77
-63.47
-46.34
-24.29
-1.40
18.52
33.13
42.04
46.38
47.91
48.16
47.86
47.00
45.18
42.08
37.79
32.85
28.08
24.21
21.51
19.62
17.74
14.95
10.61
4.49
-3.34
-12.67
-23.14
-33.96
-43.61
-49.90
-50.57
-44.40
-31.95
-15.79
0.39
13.07
20.23
21.80
19.29
14.83
10.19
6.32
3.31
0.85
-1.54
-4.16
-7.12
-10.34
-13.59
-16.71
-19.61
-22.35
-25.07
-27.87
-30.75
-33.74
-37.09
-41.26
-46.70
-53.22
-59.56
-63.47
-62.43
-54.88
-41.18
-23.77
-6.35
7.57
15.98
18.92
17.99
15.31
12.46
10.01
7.66
4.97
1.82
-1.37
-3.91
-5.26
-5.34
-4.67
-4.09
-4.46
-6.29
-9.66
-14.29
-19.85
-26.15
-33.04
-40.05
-46.04
-49.12
-47.24
-39.16
-25.32
-8.12
8.81
22.00
29.46
31.34
29.55
26.60
24.41
23.67
23.92
24.19
23.69
22.11
19.64
16.66
13.44
9.97
6.08
1.55
-3.73
-9.72
-16.38
-23.84
-32.48
-42.64
-54.10
-65.52
-74.45
-78.00
-74.01
-62.15
-44.39
-24.36
-5.98
7.96
16.64
21.07
23.23
24.92
27.08
29.64
31.92
33.17
32.96
31.24
28.25
24.35
19.83
14.88
9.60
4.05
-1.75
-7.81
-14.30
-21.58
-30.02
-39.68
-49.75
-58.34
-62.73
-60.29
-49.62
-31.37
-8.24
15.94
37.48
54.06
64.99
70.89
72.84
71.74
68.25
63.03
57.07
51.65
47.96
46.53
46.88
47.69
47.31
44.49
38.92
31.33
23.17
15.89
10.42
6.70
3.83
0.45
-4.72
-12.46
-22.82
-35.06
-47.65
-58.45
-65.12
-65.66
-59.12
-45.97
-28.19
-8.67
9.65
24.62
35.30
41.93
45.38
46.60
46.27
44.70
42.10
38.81
35.43
32.66
31.00
30.45
30.31
29.52
27.12
22.73
16.85
10.64
5.35
1.70
-0.38
-1.72
-3.44
-6.51
-11.41
-18.17
-26.32
-34.97
-42.72
-47.86
-48.67
-44.13
-34.48
-21.29
-7.09
5.66
15.33
21.63
25.25
27.26
28.41
28.84
28.36
26.81
24.54
22.29
20.86
20.64
21.29
21.90
21.31
18.73
14.14
8.33
2.49
-2.31
-5.61
-7.76
-9.74
-12.66
-17.46
-24.58
-33.83
-44.27
-54.22
-61.53
-64.10
-60.62
-51.28
-37.78
-22.92
-9.57
0.35
6.33
9.07
9.83
9.69
9.18
8.37
7.22
5.83
4.52
3.56
3.03
2.83
2.80
2.87
3.12
3.67
4.42
4.98
4.66
2.69
-1.53
-8.29
-17.28
-27.50
-37.21
-44.22
-46.46
-42.72
-33.26
-19.91
-5.47
7.19
16.17
20.98
22.40
21.80
20.47
19.18
18.19
17.39
16.63
15.73
14.54
12.90
10.63
7.71
4.24
0.48
-3.21
-6.53
-9.34
-11.78
-14.37
-17.91
-23.26
-30.86
-40.25
-49.74
-56.71
-58.46
-53.19
-40.93
-23.63
-4.53
13.04
26.72
35.72
40.59
42.54
42.76
42.06
40.89
39.69
38.95
39.11
40.17
41.47
41.81
39.92
35.08
27.57
18.63
9.89
2.69
-2.57
-6.46
-10.26
-15.31
-22.56
-32.15
-43.34
-54.54
-63.55
-68.10
-66.56
-58.63
-45.68
-30.42
-16.02
-4.96
1.81
5.00
6.38
7.83
10.53
14.70
19.83
25.28
30.59
35.57
40.00
43.32
44.68
43.20
38.46
30.86
21.62
12.40
4.71
-0.54
-3.25
-4.19
-4.84
-7.10
-12.75
-22.58
-35.64
-48.95
-58.22
-59.40
-50.41
-32.13
-8.15
16.81
38.66
55.30
66.65
73.79
77.86
79.36
78.33
74.87
69.67
64.02
59.35
56.49
55.32
54.76
53.34
49.93
44.41
37.72
31.46
27.16
25.52
26.10
27.52
28.06
26.27
21.38
13.57
4.02
-5.07
-10.90
-10.87
-3.65
9.97
27.05
43.40
55.13
60.18
58.82
53.12
45.68
38.43
32.13
26.77
22.18
18.45
15.86
14.38
13.38
11.74
8.35
2.71
-4.73
-12.79
-20.04
-25.45
-28.83
-30.90
-32.97
-36.52
-42.78
-52.21
-64.14
-76.66
-86.82
-91.47
-88.34
-77.05
-59.48
-39.23
-20.31
-5.75
3.23
7.21
7.71
6.27
3.86
0.80
-2.77
-6.56
-10.07
-12.89
-14.94
-16.52
-18.20
-20.37
-23.08
-26.03
-28.75
-30.94
-32.63
-34.27
-36.70
-40.93
-47.88
-57.90
-70.22
-82.65
-91.89
-94.52
-88.41
-73.81
-53.55
-32.06
-13.66
-0.89
6.18
9.41
11.24
13.29
15.65
17.23
16.71
13.60
8.64
3.44
-0.41
-2.27
-2.88
-3.88
-6.83
-12.10
-18.44
-23.42
-24.52
-20.40
-11.41
0.77
14.09
26.85
37.74
45.48
48.59
46.01
38.33
28.56
21.75
22.99
34.98
56.26
81.56
103.98
117.87
120.86
114.18
101.28
85.85
70.30
55.31
40.26
23.96
5.44
-15.49
-37.92
-59.96
-79.24
-93.70
-102.40
-105.77
-105.24
-102.27
-97.73
-91.68
-84.12
-75.81
-68.53
-64.39
-64.35
-67.02
-68.61
-64.39
-50.98
-28.28
0.14
28.62
51.81
67.00
74.86
78.59
81.91
87.36
95.38
104.69
113.26
119.32
121.91
120.85
116.53
109.74
101.64
93.44
86.01
79.32
71.92
61.15
43.73
17.04
-19.65
-64.46
-112.92
-159.17
-197.44
-223.54
-235.63
-234.19
-221.43
-200.47
-174.62
-146.97
-120.15
-96.14
-76.24
-61.00
-50.22
-43.07
-38.31
-34.58
-30.80
-26.46
-21.85
-18.19
-17.34
-21.17
-30.64
-44.90
-61.18
-75.33
-83.27
-82.46
-73.09
-58.04
-41.91
-29.40
-23.80
-26.13
-35.08
-47.66
-59.99
-68.26
-69.56
-62.54
-47.68
-26.98
-3.04
21.96
46.95
71.75
96.20
119.25
138.61
151.46
155.65
150.92
139.04
123.20
106.62
91.47
78.43
67.00
56.31
45.84
35.88
27.33
21.13
17.53
15.63
13.52
8.80
-0.40
-14.41
-31.54
-48.35
-60.85
-65.91
-62.47
-51.84
-37.02
-21.36
-7.33
4.09
13.14
20.58
26.82
31.63
34.43
34.84
33.19
30.47
27.84
26.03
24.97
23.88
21.79
18.14
13.18
7.82
3.11
-0.34
-2.76
-5.22
-9.34
-16.66
-28.06
-43.07
-59.61
-74.12
-82.45
-81.23
-69.13
-47.51
-20.07
8.41
33.56
52.46
64.04
68.59
67.24
61.47
52.87
43.12
33.73
25.75
19.51
14.68
10.56
6.45
1.89
-3.28
-9.06
-15.31
-21.79
-28.09
-33.76
-38.56
-42.78
-47.39
-53.72
-62.69
-73.95
-85.45
-93.73
-95.17
-87.51
-70.97
-48.28
-23.68
-1.20
16.72
29.75
39.08
46.19
51.90
56.14
58.39
58.48
57.07
55.39
54.51
54.66
54.99
54.02
50.45
43.97
35.45
26.53
18.73
12.66
7.70
2.28
-5.48
-17.01
-32.84
-52.44
-74.25
-95.63
-112.96
-122.08
-119.18
-102.17
-71.78
-32.03
10.59
48.82
76.90
92.22
95.88
91.82
85.16
80.39
80.16
84.98
93.84
104.86
115.78
124.09
127.18
122.90
110.64
92.34
72.55
57.05
50.44
53.94
64.74
77.32
86.00
87.26
80.66
68.06
52.14
35.01
17.90
1.42
-13.90
-27.44
-38.57
-46.85
-51.96
-53.45
-50.47
-41.79
-26.15
-3.14
25.86
57.08
84.65
101.97
103.83
88.36
57.60
16.58
-28.60
-72.28
-109.62
-135.98
-146.69
-138.05
-109.76
-67.02
-20.43
16.99
34.50
27.53
-1.02
-42.69
-86.94
-124.00
-146.20
-147.81
-125.14
-77.68
-9.91
67.84
140.75
193.09
212.82
195.29
144.78
73.37
-2.07
-64.07
-99.05
-100.98
-72.88
-25.83
24.51
62.76
78.21
67.63
35.52
-7.96
-50.52
-81.59
-95.42
-92.44
-78.38
-61.65
-49.77
-46.66
-52.01
-62.71
-75.25
-87.52
-98.78
-108.27
-114.23
-113.87
-104.69
-86.18
-60.82
-32.86
-6.18
17.90
41.00
65.72
92.43
116.88
130.69
124.75
94.49
43.26
-17.74
-73.50
-111.11
-124.42
-115.27
-90.87
-59.64
-28.12
-0.48
20.14
30.43
27.86
12.76
-10.53
-34.56
-51.93
-58.80
-56.09
-47.30
-34.82
-17.41
9.14
47.99
96.81
146.25
182.89
195.25
179.63
141.98
94.86
52.24
24.23
14.84
22.55
42.58
68.98
95.87
117.73
129.35
126.12
104.86
64.66
8.11
-58.51
-125.55
-181.55
-215.78
-221.02
-195.75
-144.79
-77.76
-6.29
59.00
110.43
143.66
156.88
149.69
122.56
77.14
17.35
-49.84
-114.48
-165.13
-191.28
-186.38
-149.97
-88.46
-14.01
58.48
114.97
145.41
145.46
116.43
63.96
-3.33
-75.26
-141.13
-190.68
-215.46
-210.37
-175.01
-114.36
-38.28
40.33
107.98
152.96
167.38
148.38
99.07
28.51
-49.62
-119.76
-168.15
-186.18
-172.27
-131.27
-72.96
-9.09
48.83
91.04
110.89
105.89
78.47
35.44
-13.71
-59.72
-96.04
-119.86
-131.19
-130.51
-117.39
-90.83
-51.22
-2.50
46.97
85.98
104.23
96.20
64.15
17.58
-29.85
-65.04
-79.58
-71.44
-43.95
-3.01
45.15
95.21
141.55
177.16
193.72
183.38
142.17
73.35
-11.72
-96.15
-161.91
-195.38
-191.37
-154.24
-96.45
-34.18
17.30
47.50
52.43
34.40
-0.03
-42.12
-82.67
-113.49
-127.84
-120.99
-90.75
-38.25
31.49
109.37
183.38
241.18
273.06
274.44
246.53
195.11
128.59
55.90
-14.48
-74.10
-114.64
-128.80
-112.76
-68.86
-6.52
59.25
111.68
136.77
127.00
82.82
12.52
-69.96
-148.15
-206.63
-234.12
-225.68
-183.61
-116.93
-39.81
30.95
79.09
92.91
69.01
13.86
-57.14
-123.83
-167.75
-178.17
-155.27
-109.13
-55.01
-7.24
25.33
41.41
45.84
46.23
49.19
57.79
70.91
84.60
94.36
97.06
92.05
80.75
65.70
49.69
35.37
25.26
21.60
25.81
37.73
55.71
76.92
98.49
118.54
135.88
149.13
155.83
152.47
135.90
105.49
64.43
19.42
-21.48
-51.63
-67.84
-70.75
-63.82
-51.59
-38.28
-27.09
-20.03
-17.66
-18.71
-19.86
-16.49
-4.74
16.12
42.24
65.75
77.60
71.52
46.92
9.44
-31.65
-67.28
-91.91
-104.45
-106.72
-100.52
-85.40
-58.98
-19.53
30.72
84.00
128.36
151.83
147.35
116.05
67.21
14.52
-29.54
-58.15
-71.88
-76.71
-79.36
-83.00
-85.57
-81.64
-66.55
-39.88
-6.32
26.29
50.43
61.41
58.31
42.79
17.96
-12.46
-43.82
-70.89
-89.11
-96.05
-92.25
-80.21
-62.12
-38.05
-6.24
34.56
81.94
128.66
164.36
179.51
169.30
135.76
86.87
33.69
-13.19
-46.52
-63.90
-67.35
-61.36
-50.15
-35.31
-15.50
11.56
45.77
82.41
112.90
128.78
126.22
108.74
85.43
65.91
55.10
50.99
46.95
37.06
20.67
3.33
-6.37
-2.21
15.94
41.79
65.79
79.97
81.28
72.11
58.09
44.81
35.31
29.43
25.24
21.12
17.06
14.77
16.29
22.43
31.87
41.51
47.88
48.73
44.07
35.89
27.09
19.88
14.80
10.67
5.49
-2.24
-12.56
-24.00
-34.36
-41.90
-46.32
-48.97
-52.39
-59.25
-71.37
-88.93
-110.54
-133.71
-155.68
-174.35
-188.60
-198.05
-202.62
-202.00
-195.65
-183.34
-165.92
-145.56
-125.18
-107.11
-91.78
-77.38
-60.85
-39.78
-14.04
13.89
39.99
60.68
74.48
82.36
86.81
90.26
93.66
96.25
96.15
91.52
81.68
67.35
50.08
31.41
11.96
-8.79
-31.88
-57.79
-85.63
-113.02
-136.83
-154.34
-164.25
-166.79
-162.87
-153.03
-136.94
-113.74
-83.39
-47.81
-11.13
21.42
45.43
59.10
63.79
63.09
60.93
59.84
60.16
60.59
59.54
56.26
51.48
46.66
43.06
40.90
39.23
36.40
31.05
22.78
12.36
1.23
-9.13
-17.90
-25.08
-31.36
-37.72
-44.96
-53.48
-62.97
-72.27
-79.47
-82.22
-78.57
-67.85
-51.17
-31.22
-11.41
5.36
17.48
24.89
28.48
29.40
28.55
26.49
23.75
21.04
19.12
18.48
18.96
19.73
19.72
18.14
14.96
10.91
7.09
4.42
3.20
2.96
2.68
1.15
-2.62
-8.96
-17.33
-26.17
-33.17
-35.89
-32.69
-23.37
-9.44
6.41
21.31
33.19
41.33
46.18
48.62
49.42
48.90
47.17
44.44
41.22
38.12
35.42
32.94
29.96
25.75
20.07
13.38
6.72
1.18
-2.68
-5.08
-6.96
-9.63
-14.24
-21.35
-30.60
-40.55
-48.93
-53.16
-51.27
-42.71
-28.75
-12.11
4.00
17.02
25.85
30.78
32.99
33.63
33.38
32.33
30.30
27.24
23.32
18.89
14.27
9.70
5.32
1.30
-2.24
-5.18
-7.54
-9.57
-11.70
-14.52
-18.70
-24.86
-33.26
-43.40
-53.67
-61.51
-64.11
-59.44
-47.25
-29.45
-9.51
8.76
22.53
30.78
34.20
34.49
33.36
31.92
30.51
28.91
26.79
23.93
20.27
15.89
10.97
5.79
0.65
-4.13
-8.28
-11.72
-14.64
-17.49
-20.97
-25.95
-33.11
-42.49
-53.07
-62.65
-68.30
-67.36
-58.60
-42.88
-23.03
-2.81
14.44
26.81
34.18
37.65
38.68
38.37
37.17
35.12
32.15
28.39
24.10
19.58
15.08
10.74
6.67
2.94
-0.40
-3.36
-6.14
-9.15
-13.06
-18.78
-27.18
-38.58
-52.14
-65.63
-75.67
-78.80
-72.82
-57.79
-36.30
-12.51
9.33
26.32
37.55
43.93
47.18
48.93
50.09
50.82
50.77
49.53
46.91
43.04
38.40
33.70
29.54
26.25
23.69
21.32
18.44
14.42
8.74
0.96
-9.31
-22.22
-37.08
-51.99
-63.91
-69.43
-66.06
-53.38
-33.49
-10.33
11.64
28.93
39.89
44.74
44.95
42.44
38.90
35.51
32.78
30.58
28.26
24.94
19.87
12.81
4.11
-5.43
-14.97
-23.85
-31.67
-38.17
-43.34
-47.69
-52.66
-60.29
-72.36
-89.01
-107.66
-123.13
-129.13
-120.91
-97.79
-64.44
-29.79
-3.99
5.47
-3.41
-26.60
-55.87
-82.18
-98.41
-100.96
-89.37
-65.28
-31.90
5.65
39.78
61.10
61.22
36.75
-7.71
-59.80
-103.36
-124.47
-116.57
-82.46
-32.25
21.40
68.11
102.60
124.75
137.44
143.78
145.35
141.87
132.32
116.45
96.01
74.66
56.94
46.50
44.43
49.00
56.42
62.62
64.83
62.43
56.63
49.50
42.81
37.34
32.90
28.70
23.99
18.29
11.32
2.67
-8.44
-22.85
-40.59
-60.06
-77.65
-88.62
-88.71
-76.11
-52.55
-22.99
6.19
29.41
43.70
49.16
48.15
43.75
38.53
34.00
30.83
29.29
29.55
31.63
35.25
39.66
43.81
46.59
47.23
45.44
41.41
35.61
28.45
20.02
10.09
-1.56
-14.46
-26.97
-36.32
-39.45
-34.27
-20.78
-1.39
19.96
39.21
53.68
62.70
67.33
69.35
70.24
70.73
70.81
70.14
68.45
65.70
61.93
57.19
51.52
44.98
37.80
30.32
23.02
16.34
10.53
5.56
1.06
-3.77
-9.99
-18.59
-29.86
-42.83
-54.99
-62.85
-63.17
-54.32
-37.23
-15.18
7.34
26.34
39.62
47.11
50.22
50.79
50.11
48.81
46.92
44.28
40.91
37.01
32.84
28.61
24.38
20.08
15.82
11.76
8.07
4.78
1.70
-1.67
-6.07
-12.43
-21.42
-32.61
-44.30
-53.74
-57.73
-53.85
-41.51
-22.42
-0.34
20.30
36.81
48.39
55.90
60.94
64.72
67.68
69.41
69.04
65.80
61.41
58.11
57.54
59.96
64.22
68.50
71.02
70.33
65.29
58.38
52.13
47.67
44.37
40.81
36.90
35.07
39.60
54.71
86.85
138.63
207.12
284.22
359.69
424.86
474.92
508.87
507.06
459.63
369.37
253.55
135.48
32.64
-48.23
-108.68
-150.80
-182.86
-206.38
-220.83
-226.57
-226.71
-226.62
-231.95
-245.16
-266.94
-296.45
-327.68
-353.86
-369.13
-369.95
-355.29
-326.17
-285.36
-237.58
-189.05
-143.65
-104.24
-72.38
-48.54
-32.09
-21.50
-14.74
-10.25
-7.23
-4.25
-0.34
4.70
10.23
15.01
17.89
18.29
16.27
12.42
8.22
4.96
3.18
2.43
1.41
-1.57
-7.95
-18.38
-32.17
-46.90
-58.83
-63.96
-59.46
-44.92
-22.78
2.48
25.94
44.06
55.62
61.62
64.14
65.03
65.10
64.25
62.00
58.24
53.43
48.28
43.30
38.47
33.35
27.49
20.90
14.17
8.21
3.77
0.97
-0.88
-3.03
-6.91
-13.63
-23.58
-36.02
-48.93
-59.27
-63.78
-60.11
-47.93
-29.29
-8.07
11.44
26.11
34.81
38.27
38.09
35.67
31.66
26.11
19.14
11.47
4.41
-0.67
-3.06
-3.14
-2.18
-1.77
-2.96
-5.83
-9.54
-12.93
-15.18
-16.38
-17.48
-19.88
-24.81
-32.79
-43.42
-55.22
-65.84
-72.44
-72.42
-64.24
-48.20
-26.56
-2.97
18.69
35.48
46.12
50.94
51.21
48.33
43.41
37.21
30.43
23.82
18.12
13.72
10.47
7.75
4.81
1.15
-3.18
-7.70
-11.81
-15.15
-17.86
-20.54
-24.13
-29.64
-37.76
-48.51
-60.82
-72.32
-79.77
-80.01
-71.24
-54.07
-31.59
-8.28
11.57
25.43
33.09
36.12
36.66
36.29
35.55
34.26
32.22
29.60
26.97
24.79
23.00
20.89
17.44
11.87
4.16
-4.85
-13.85
-21.59
-27.51
-31.95
-35.99
-41.05
-48.27
-58.17
-70.17
-82.53
-92.57
-97.27
-94.28
-82.90
-64.62
-42.76
-21.39
-3.93
7.88
14.14
16.14
15.40
12.92
9.13
4.24
-1.25
-6.44
-10.38
-12.52
-13.09
-12.88
-12.83
-13.42
-14.51
-15.43
-15.50
-14.55
-13.16
-12.44
-13.74
-18.08
-25.73
-35.99
-47.01
-56.03
-60.04
-56.64
-45.04
-26.62
-4.58
17.06
34.82
46.85
53.12
54.87
53.68
50.72
46.55
41.48
35.92
30.47
25.76
21.96
18.65
15.04
10.40
4.52
-2.05
-8.26
-13.11
-16.13
-17.68
-18.80
-20.89
-25.23
-32.57
-42.73
-54.33
-64.80
-70.90
-69.72
-59.80
-41.94
-19.14
4.42
24.86
39.82
48.90
53.17
54.18
53.09
50.39
46.26
41.04
35.48
30.53
26.83
24.24
21.89
18.55
13.28
6.00
-2.46
-10.69
-17.42
-22.05
-24.98
-27.43
-30.98
-37.07
-46.47
-58.76
-72.07
-83.20
-88.37
-84.46
-70.40
-47.91
-21.16
4.65
25.14
38.18
44.19
45.28
43.82
41.41
38.50
34.94
30.63
25.87
21.20
16.97
13.03
8.84
3.94
-1.72
-7.62
-12.98
-17.33
-20.81
-24.23
-28.78
-35.63
-45.40
-57.76
-71.09
-82.56
-88.63
-86.14
-73.67
-52.28
-25.55
1.66
24.87
41.41
50.97
55.01
55.53
54.03
51.17
47.06
41.83
35.97
30.18
24.94
20.25
15.68
10.75
5.36
-0.08
-4.85
-8.45
-10.99
-13.39
-17.17
-23.99
-34.97
-50.01
-67.34
-83.60
-94.52
-96.29
-87.02
-67.63
-41.75
-14.41
9.73
27.82
39.35
45.48
47.94
48.06
46.51
43.62
39.86
36.00
32.81
30.57
28.81
26.51
22.67
16.87
9.61
2.02
-4.67
-9.76
-13.44
-16.73
-21.12
-28.07
-38.49
-52.36
-68.36
-83.73
-94.76
-97.68
-89.99
-71.67
-45.38
-15.76
12.17
34.59
49.83
58.27
61.48
61.21
58.74
54.85
50.05
44.83
39.69
34.88
30.31
25.55
20.19
14.06
7.42
0.85
-4.98
-9.70
-13.44
-16.88
-21.23
-27.89
-38.05
-51.98
-68.44
-84.43
-95.70
-98.01
-88.81
-68.41
-40.24
-9.67
17.81
38.45
51.12
56.96
58.21
56.94
54.32
50.69
46.05
40.44
34.19
27.67
21.10
14.46
7.55
0.21
-7.46
-15.13
-22.39
-29.04
-35.28
-41.90
-50.17
-61.32
-75.70
-92.02
-107.02
-116.25
-115.50
-102.61
-78.59
-47.47
-14.96
13.59
34.81
48.00
54.50
56.53
56.03
54.20
51.62
48.68
45.86
43.54
41.61
39.20
34.85
27.19
15.83
1.90
-12.13
-23.35
-29.66
-30.71
-28.19
-25.21
-25.28
-31.14
-43.68
-61.47
-80.76
-96.40
-103.28
-98.08
-80.44
-53.15
-21.09
10.53
37.84
59.05
74.21
84.27
90.17
92.47
91.57
88.11
83.15
78.01
73.68
70.46
67.87
65.01
61.03
55.61
49.16
42.56
36.71
32.05
28.25
24.26
18.67
10.11
-2.12
-17.52
-34.10
-48.51
-56.85
-55.95
-44.67
-24.48
0.95
27.04
49.90
67.30
78.85
85.25
87.54
86.44
82.49
76.37
69.16
62.28
56.87
53.28
50.69
47.44
41.61
31.85
17.98
1.08
-16.86
-33.83
-48.47
-60.69
-71.62
-83.16
-97.16
-114.34
-133.54
-151.58
-163.92
-166.10
-155.30
-131.45
-97.24
-57.08
-15.54
23.93
59.50
90.59
117.09
138.81
155.53
167.40
175.38
181.22
186.84
193.59
201.65
209.91
216.42
218.94
215.65
205.38
187.80
163.23
132.63
97.62
60.37
23.46
-10.69
-40.28
-64.40
-82.83
-95.54
-102.40
-103.25
-98.34
-88.92
-77.26
-66.17
-58.02
-53.91
-53.45
-55.07
-56.88
-57.35
-55.64
-51.50
-45.01
-36.45
-26.38
-15.83
-6.38
0.08
1.99
-1.20
-8.54
-17.70
-25.71
-30.13
-30.10
-26.80
-23.02
-22.04
-26.14
-35.41
-47.50
-58.32
-63.55
-60.27
-48.08
-29.06
-6.94
14.43
32.35
45.82
55.17
61.23
64.58
65.30
63.34
59.01
53.32
47.71
43.44
40.94
39.64
38.21
35.25
30.07
23.01
15.21
8.03
2.32
-1.95
-5.69
-10.17
-16.50
-25.28
-36.30
-48.53
-60.13
-68.71
-71.78
-67.55
-55.66
-37.50
-15.94
5.59
24.21
38.34
47.83
53.44
56.15
56.66
55.36
52.55
48.72
44.55
40.69
37.46
34.75
32.16
29.23
25.78
21.93
18.01
14.30
10.80
7.19
2.83
-3.06
-11.14
-21.52
-33.30
-44.43
-51.98
-53.07
-46.06
-31.40
-11.65
9.35
27.90
41.62
49.98
53.94
54.98
54.36
52.75
50.36
47.36
44.07
40.91
38.15
35.64
32.92
29.41
24.76
19.13
13.12
7.52
2.90
-0.70
-3.87
-7.73
-13.50
-22.08
-33.47
-46.41
-58.38
-66.22
-67.19
-60.08
-45.88
-27.55
-8.87
6.86
17.97
24.56
27.94
29.50
30.07
29.65
27.90
24.76
20.72
16.72
13.66
11.83
10.83
9.72
7.54
3.91
-0.82
-5.71
-9.73
-12.35
-13.81
-14.99
-17.06
-20.89
-26.87
-34.77
-43.90
-53.10
-60.77
-65.04
-64.16
-57.14
-44.30
-27.41
-9.19
7.51
20.62
29.35
34.02
35.64
35.20
33.41
30.70
27.38
23.82
20.42
17.47
14.99
12.76
10.44
7.75
4.63
1.24
-2.09
-5.15
-7.92
-10.74
-14.28
-19.33
-26.46
-35.56
-45.45
-53.92
-58.27
-56.28
-47.19
-32.19
-14.13
3.47
17.70
27.04
31.58
32.44
30.94
28.09
24.39
20.12
15.61
11.33
7.72
4.94
2.75
0.61
-2.02
-5.37
-9.21
-12.99
-16.12
-18.27
-19.65
-21.01
-23.52
-28.32
-36.01
-46.06
-56.61
-64.75
-67.39
-62.47
-49.89
-31.73
-11.53
7.10
