1527779087.00
64.000000
-0.00
-0.00
-0.00
-0.00
-0.00
-0.00
-0.00
-0.00
-0.00
-0.00
0.00
0.01
0.01
-0.00
-0.03
-0.05
-0.05
0.00
0.13
0.36
0.66
1.01
1.37
1.72
2.06
2.40
2.79
3.24
3.80
4.42
5.06
5.66
6.20
6.68
7.15
7.68
8.31
9.14
10.09
11.04
11.88
12.56
13.14
13.76
14.65
15.96
17.91
20.32
22.90
25.38
27.58
29.57
31.68
34.32
37.81
42.54
48.15
54.10
59.83
64.97
69.58
74.14
79.34
85.71
93.76
103.00
112.62
121.73
129.77
136.75
143.30
150.75
157.77
166.64
177.95
191.79
206.97
220.57
228.25
225.36
208.53
176.87
132.76
80.05
23.07
-34.95
-92.44
-149.16
-205.23
-260.37
-313.73
-363.85
-409.80
-450.85
-486.42
-515.62
-537.07
-549.02
-549.71
-538.06
-513.84
-478.25
-433.39
-381.89
-326.39
-269.14
-211.86
-155.81
-102.02
-51.36
-4.80
36.79
72.74
102.79
127.07
146.09
160.57
171.21
178.63
183.24
185.32
185.10
182.85
178.92
173.73
167.67
161.11
154.28
147.34
140.34
133.33
126.36
119.49
112.78
106.32
100.15
94.31
88.81
83.67
78.88
74.46
70.41
66.76
63.51
60.66
58.22
56.16
54.45
53.04
51.85
50.75
49.61
48.26
46.51
44.20
41.20
37.41
32.81
27.46
21.43
14.92
8.15
1.39
-5.08
-11.01
-16.17
-20.42
-23.66
-25.85
-27.04
-27.31
-26.78
-25.59
-23.89
-21.83
-19.50
-17.00
-14.40
-11.73
-9.02
-6.31
-3.62
-0.93
1.73
4.40
7.08
9.80
12.59
15.43
18.29
21.17
24.10
27.08
30.14
33.32
36.66
40.24
43.99
47.85
51.83
55.92
60.15
64.53
69.12
73.97
79.18
84.61
90.15
95.76
101.40
107.05
112.70
118.34
124.00
129.72
135.25
140.37
144.87
148.55
151.11
152.24
151.41
147.95
143.14
137.43
131.10
124.33
117.27
110.03
102.72
95.44
88.37
81.66
75.20
68.94
62.90
57.08
51.52
46.27
41.37
36.89
32.92
29.32
26.00
22.92
20.04
17.37
14.93
12.72
10.81
9.25
7.97
6.89
6.00
5.27
4.66
4.17
3.77
3.47
3.28
3.14
3.04
2.97
2.93
2.94
2.99
3.06
3.12
3.16
3.12
3.01
2.82
2.56
2.25
1.87
1.40
0.81
0.09
-0.77
-1.74
-2.77
-3.81
-4.85
-5.90
-7.03
-8.34
-9.88
-11.68
-13.68
-15.77
-17.81
-19.69
-21.41
-23.09
-24.92
-27.05
-29.55
-32.33
-35.16
-37.83
-40.22
-42.45
-44.89
-48.01
-52.22
-57.69
-64.22
-71.33
-78.52
-85.42
-92.06
-98.91
-106.60
-115.71
-126.44
-138.50
-151.28
-164.09
-176.50
-188.51
-200.51
-213.17
-227.35
-243.97
-263.92
-287.54
-314.00
-340.88
-364.30
-380.01
-384.80
-377.71
-360.39
-336.28
-309.14
-281.73
-255.30
-229.97
-205.57
-182.30
-160.75
-141.47
-124.46
-109.00
-94.07
-78.90
-63.42
-48.20
-34.21
-22.27
-12.62
-4.88
1.76
8.12
14.68
21.45
28.07
34.02
38.83
42.28
44.33
45.08
44.67
43.19
40.82
37.76
34.30
30.81
27.70
25.35
24.07
23.97
25.03
27.01
29.51
32.13
34.48
36.35
37.63
38.35
38.66
38.70
38.60
38.40
38.05
37.40
36.33
34.82
33.04
31.25
29.64
28.27
26.93
25.27
23.02
20.12
16.81
13.40
10.14
7.07
4.01
0.72
-2.93
-6.93
-11.26
-15.93
-21.10
-26.97
-33.54
-40.60
-47.65
-54.07
-59.40
-63.44
-66.33
-68.32
-69.64
-70.32
-70.12
-68.69
-65.73
-61.23
-55.56
-49.32
-43.16
-37.53
-32.55
-28.03
-23.55
-18.67
-12.97
-6.14
2.03
11.63
22.48
34.17
46.04
57.38
67.69
76.77
84.73
91.75
97.86
102.90
106.58
108.73
109.46
109.02
107.70
105.65
102.88
99.33
95.10
90.47
85.71
81.00
76.19
70.89
64.58
56.85
47.50
36.60
24.37
11.09
-2.97
-17.57
-32.42
-47.30
-61.97
-76.32
-90.27
-103.80
-116.96
-129.79
-142.33
-154.63
-166.70
-178.47
-189.80
-200.38
-209.74
-217.12
-221.38
-221.10
-214.67
-200.70
-178.47
-148.28
-111.52
-70.50
-27.93
13.74
52.66
87.70
118.26
144.03
164.68
179.86
189.32
192.98
191.02
183.95
172.70
158.70
143.97
130.65
120.50
114.10
110.48
107.28
101.78
92.08
78.11
61.83
46.42
34.98
29.28
29.24
33.10
38.31
42.38
43.68
41.63
36.60
29.55
21.59
13.59
6.07
-0.78
-6.83
-11.96
-15.84
-18.14
-18.68
-17.60
-15.29
-12.14
-8.35
-3.81
1.71
8.20
15.26
21.95
27.07
29.45
28.24
23.21
14.75
3.77
-8.46
-20.70
-32.05
-42.10
-51.00
-59.08
-66.47
-72.66
-76.45
-76.21
-70.34
-58.03
-39.44
-15.93
10.29
36.60
60.47
79.84
93.32
100.39
101.46
98.00
92.31
87.06
84.53
85.80
90.41
96.48
101.51
103.31
100.66
93.55
82.85
69.79
55.41
40.44
25.31
10.36
-4.02
-17.37
-29.23
-39.18
-46.92
-52.32
-55.25
-55.61
-53.27
-48.16
-40.45
-30.71
-19.96
-9.52
-0.72
5.57
9.05
10.10
9.46
7.93
6.02
3.93
1.56
-1.29
-4.67
-8.40
-12.08
-15.20
-17.32
-18.22
-17.97
-16.91
-15.63
-14.79
-15.04
-16.65
-19.44
-22.54
-24.54
-23.83
-19.09
-9.76
3.67
19.78
36.55
51.82
63.73
71.11
73.70
72.25
68.26
63.61
59.93
58.12
58.15
59.25
60.30
60.36
58.93
55.99
51.89
47.07
41.95
36.83
31.92
27.27
22.86
18.64
14.44
10.21
5.87
1.48
-2.82
-6.66
-9.57
-11.13
-11.15
-9.81
-7.46
-4.51
-1.13
2.75
7.36
12.76
18.55
23.91
27.79
29.47
28.91
26.96
25.07
24.72
26.69
30.72
35.59
39.65
41.60
41.01
38.37
34.60
30.43
25.94
20.68
14.23
6.69
-1.08
-7.70
-12.08
-13.88
-13.68
-12.65
-11.91
-12.13
-13.39
-15.38
-17.64
-19.75
-21.37
-22.20
-22.06
-21.02
-19.43
-17.86
-16.72
-16.01
-15.33
-14.12
-12.12
-9.65
-7.48
-6.46
-7.03
-8.90
-11.17
-12.67
-12.36
-9.73
-4.95
1.19
7.44
12.50
15.39
15.79
14.10
11.18
8.01
5.27
3.23
1.85
1.05
0.79
1.13
1.94
2.83
3.14
2.21
-0.25
-4.11
-8.80
-13.63
-18.00
-21.53
-24.13
-25.81
-26.69
-26.90
-26.56
-25.77
-24.59
-22.97
-20.87
-18.25
-15.25
-12.18
-9.44
-7.33
-5.93
-5.08
-4.50
-3.98
-3.50
-3.18
-3.15
-3.36
-3.44
-2.92
-1.39
1.26
4.72
8.38
11.51
13.47
13.88
12.74
10.35
7.23
3.94
0.84
-1.97
-4.66
-7.52
-10.68
-13.96
-16.94
-19.08
-20.10
-20.11
-19.58
-19.07
-18.91
-19.01
-18.88
-18.00
-16.08
-13.35
-10.34
-7.74
-5.93
-4.91
-4.32
-3.82
-3.24
-2.72
-2.50
-2.68
-3.04
-3.08
-2.24
-0.20
2.97
6.83
10.77
14.15
16.45
17.26
16.34
13.54
8.91
2.68
-4.79
-13.24
-22.65
-33.28
-45.40
-59.10
-74.04
-89.49
-104.55
-118.41
-130.52
-140.60
-148.47
-154.05
-157.27
-158.02
-156.04
-150.84
-141.67
-127.73
-108.73
-85.22
-58.69
-31.28
-5.20
17.78
36.56
50.74
60.52
66.57
70.07
72.47
75.34
79.93
86.89
96.11
106.80
117.74
127.58
135.10
139.33
139.73
136.15
128.82
118.23
105.01
89.86
73.49
56.61
39.71
22.98
6.26
-10.65
-27.67
-43.99
-58.04
-68.13
-73.26
-73.82
-71.76
-69.89
-70.85
-75.90
-84.41
-93.94
-101.23
-103.25
-98.16
-85.72
-67.23
-45.11
-22.43
-2.43
12.17
19.64
19.90
14.57
6.72
-0.11
-3.07
-0.94
5.53
14.08
22.01
27.20
28.73
26.95
23.25
19.69
18.59
22.12
31.69
47.29
67.11
87.69
104.88
115.29
117.36
111.85
101.18
88.23
75.28
63.49
53.06
43.91
36.18
30.25
26.46
24.58
23.78
22.82
20.76
17.36
13.21
9.32
6.51
4.84
3.57
1.52
-2.24
-7.86
-14.55
-20.96
-25.82
-28.52
-29.33
-29.18
-29.17
-30.03
-31.90
-34.29
-36.45
-37.58
-37.14
-34.88
-30.87
-25.50
-19.52
-13.97
-9.92
-8.22
-8.96
-11.47
-14.36
-16.13
-15.67
-12.66
-7.67
-1.85
3.43
6.94
7.85
5.79
0.94
-6.03
-13.98
-21.60
-27.61
-31.04
-31.47
-29.02
-24.42
-18.76
-13.44
-9.79
-8.81
-10.82
-15.34
-21.21
-26.86
-30.87
-32.32
-31.12
-27.89
-23.70
-19.64
-16.44
-14.34
-13.12
-12.40
-11.80
-11.14
-10.46
-9.80
-9.19
-8.57
-7.85
-7.03
-6.25
-5.71
-5.48
-5.39
-5.00
-3.74
-1.21
2.53
6.86
10.76
13.20
13.67
12.33
10.06
7.95
6.76
6.53
6.69
6.35
4.89
2.31
-0.86
-3.89
-6.23
-7.73
-8.61
-9.17
-9.51
-9.51
-8.88
-7.44
-5.25
-2.59
0.26
3.14
6.08
9.32
13.12
17.73
23.14
29.13
35.29
41.11
46.15
50.13
53.00
54.97
56.48
57.97
59.85
62.21
64.69
66.54
66.94
65.33
61.61
56.14
49.03
39.66
26.81
9.52
-11.91
-35.55
-58.58
-78.48
-94.01
-105.27
-112.78
-116.59
-116.00
-110.39
-100.34
-88.14
-77.12
-70.11
-68.10
-69.90
-73.08
-75.31
-75.43
-73.36
-69.45
-63.80
-56.05
-45.85
-33.07
-18.29
-2.78
11.88
24.21
33.18
38.44
40.34
39.63
37.19
33.72
29.64
25.12
20.31
15.46
10.98
7.34
4.91
3.76
3.70
4.29
5.01
5.44
5.37
4.86
4.18
3.66
3.65
4.22
5.22
6.27
6.91
6.85
5.99
4.48
2.50
0.23
-2.35
-5.37
-9.02
-13.47
-18.78
-24.89
-31.56
-38.38
-44.78
-50.06
-53.56
-54.80
-53.61
-50.19
-45.03
-38.80
-32.16
-25.58
-19.38
-13.60
-8.26
-3.34
1.10
5.03
8.43
11.41
14.13
16.77
19.39
21.92
24.15
25.86
26.90
27.26
27.15
26.78
26.38
26.02
25.62
24.99
23.93
22.36
20.42
18.37
16.50
15.00
13.80
12.63
11.14
9.08
6.49
3.65
0.92
-1.41
-3.27
-4.80
-6.23
-7.78
-9.59
-11.76
-14.42
-17.72
-21.66
-25.94
-29.92
-32.73
-33.64
-32.33
-29.05
-24.51
-19.52
-14.68
-10.32
-6.43
-2.89
0.41
3.56
6.60
9.53
12.35
15.00
17.36
19.35
20.93
22.08
22.84
23.24
23.30
23.12
22.92
22.93
23.32
24.03
24.77
25.14
24.84
23.77
22.06
19.92
17.57
15.11
12.59
10.06
7.60
5.31
3.26
1.40
-0.47
-2.68
-5.65
-9.70
-14.88
-20.88
-26.99
-32.23
-35.63
-36.58
-34.97
-31.20
-25.99
-20.07
-14.00
-8.03
-2.23
3.38
8.75
13.70
17.99
21.38
23.73
25.06
25.52
25.43
25.10
24.80
24.70
24.81
25.08
25.40
25.69
25.91
26.06
26.09
25.91
25.36
24.26
22.56
20.29
17.58
14.62
11.50
8.22
4.67
0.69
-3.85
-8.98
-14.62
-20.53
-26.32
-31.40
-35.11
-36.88
-36.38
-33.69
-29.27
-23.81
-18.00
-12.35
-7.15
-2.43
1.82
5.64
9.05
11.98
14.39
16.28
17.76
18.97
20.07
21.14
22.18
23.12
23.82
24.18
24.12
23.62
22.65
21.22
19.40
17.26
14.94
12.53
10.03
7.31
4.13
0.22
-4.59
-10.29
-16.54
-22.70
-27.86
-31.02
-31.42
-28.84
-23.68
-16.93
-9.82
-3.37
1.89
6.04
9.52
12.85
16.33
19.89
23.29
26.28
28.71
30.62
32.06
33.03
33.50
33.39
32.70
31.63
30.48
29.50
28.83
28.33
27.69
26.51
24.54
21.72
18.26
14.51
10.81
7.31
3.90
0.28
-3.92
-9.01
-15.03
-21.72
-28.50
-34.55
-38.99
-41.09
-40.50
-37.38
-32.29
-26.08
-19.53
-13.25
-7.48
-2.28
2.41
6.64
10.39
13.66
16.47
18.88
20.90
22.51
23.62
24.19
24.27
24.04
23.74
23.55
23.58
23.83
24.19
24.51
24.62
24.39
23.71
22.60
21.12
19.48
17.94
16.74
15.96
15.52
15.06
14.12
12.34
9.66
6.52
3.76
2.47
3.52
7.23
13.27
20.71
28.39
35.22
40.43
43.65
44.95
44.66
43.28
41.26
38.99
36.64
34.24
31.78
29.22
26.56
23.83
21.04
18.15
15.15
12.05
8.95
6.00
3.31
0.84
-1.63
-4.41
-7.83
-12.12
-17.31
-23.23
-29.45
-35.35
-40.14
-43.07
-43.61
-41.69
-37.70
-32.41
-26.73
-21.37
-16.75
-12.92
-9.79
-7.31
-5.56
-4.63
-4.54
-4.99
-5.46
-5.36
-4.31
-2.37
-0.05
1.91
2.87
2.63
1.50
0.18
-0.63
-0.52
0.45
1.79
2.79
2.74
1.20
-1.84
-5.97
-10.35
-13.91
-15.66
-14.96
-11.72
-6.43
0.12
7.09
13.94
20.45
26.62
32.49
37.88
42.51
46.03
48.18
48.87
48.15
46.12
42.84
38.33
32.53
25.40
16.87
7.03
-3.80
-14.95
-25.42
-34.07
-40.03
-42.95
-43.21
-41.79
-39.87
-38.47
-38.12
-38.88
-40.40
-42.12
-43.43
-43.72
-42.45
-39.26
-34.14
-27.51
-20.22
-13.28
-7.51
-3.30
-0.43
1.71
3.85
6.44
9.56
12.93
16.11
18.80
20.86
22.40
23.59
24.60
25.49
26.23
26.77
27.06
27.06
26.74
26.07
24.99
23.48
21.54
19.22
16.64
13.91
11.16
8.46
5.67
2.52
-1.33
-6.19
-12.04
-18.42
-24.43
-29.00
-31.21
-30.70
-27.78
-23.29
-18.23
-13.35
-8.92
-4.78
-0.58
3.89
8.53
12.95
16.70
19.44
21.17
22.02
22.23
21.96
21.26
20.18
18.84
17.48
16.41
15.90
15.94
16.29
16.54
16.35
15.60
14.47
13.28
12.32
11.62
10.94
9.85
7.91
4.85
0.62
-4.59
-10.32
-15.93
-20.68
-23.99
-25.68
-26.13
-26.21
-26.91
-28.90
-32.18
-36.02
-39.31
-41.06
-40.85
-38.93
-36.02
-33.00
-30.43
-28.48
-26.95
-25.47
-23.75
-21.63
-19.07
-16.07
-12.59
-8.59
-4.14
0.40
4.49
7.44
8.78
8.45
6.82
4.53
2.24
0.39
-0.93
-1.90
-2.92
-4.43
-6.74
-9.85
-13.40
-16.67
-18.79
-18.99
-16.92
-12.85
-7.47
-1.70
3.70
8.32
12.14
15.38
18.36
21.35
24.50
27.81
31.07
33.92
35.92
36.76
36.36
34.95
32.97
30.86
28.93
27.25
25.78
24.46
23.20
21.97
20.71
19.33
17.72
15.92
14.03
12.25
10.72
9.41
8.09
6.45
4.21
1.37
-1.78
-4.65
-6.63
-7.25
-6.37
-4.16
-1.00
2.70
6.62
10.58
14.45
18.11
21.46
24.48
27.23
29.88
32.63
35.53
38.39
40.74
41.88
41.06
37.69
31.59
23.17
13.46
3.92
-3.89
-8.80
-10.38
-9.03
-5.88
-2.29
0.53
1.86
1.52
-0.33
-3.38
-7.37
-12.05
-17.12
-22.02
-26.04
-28.50
-29.00
-27.54
-24.56
-20.70
-16.52
-12.33
-8.17
-3.97
0.36
4.73
8.94
12.84
16.24
19.14
21.53
23.52
25.21
26.71
28.16
29.60
31.07
32.51
33.80
34.78
35.32
35.35
34.86
33.95
32.68
31.17
29.48
27.70
25.85
23.96
22.04
20.11
18.20
16.38
14.71
13.26
11.99
10.79
9.48
7.89
5.90
3.47
0.60
-2.69
-6.40
-10.47
-14.71
-18.73
-22.00
-23.99
-24.35
-23.06
-20.40
-16.91
-13.16
-9.55
-6.33
-3.52
-0.99
1.40
3.78
6.18
8.57
10.85
12.91
14.57
15.77
16.50
16.83
16.87
16.76
16.58
16.33
15.98
15.48
14.79
13.84
12.62
11.11
9.36
7.49
5.62
3.86
2.21
0.52
-1.45
-3.95
-7.12
-10.86
-14.86
-18.61
-21.60
-23.44
-23.95
-23.20
-21.44
-18.95
-16.06
-12.97
-9.88
-6.90
-4.11
-1.55
0.77
2.89
4.87
6.73
8.47
10.03
11.30
12.19
12.58
12.45
11.83
10.87
9.82
8.94
8.37
8.07
7.75
7.07
5.76
3.82
1.55
-0.61
-2.29
-3.39
-4.17
-5.15
-6.81
-9.35
-12.41
-15.14
-16.51
-15.79
-12.88
-8.49
-3.85
-0.18
1.77
1.98
0.95
-0.59
-1.87
-2.04
-0.17
4.52
12.16
21.60
30.43
35.73
35.47
29.68
20.71
12.20
7.35
7.32
10.85
15.17
17.58
16.79
13.35
8.90
4.97
2.16
-0.09
-2.87
-7.01
-12.45
-18.18
-22.76
-25.05
-24.76
-22.61
-19.95
-18.10
-17.78
-18.79
-20.20
-20.90
-20.12
-17.90
-14.91
-12.13
-10.29
-9.59
-9.63
-9.73
-9.35
-8.30
-6.85
-5.40
-4.29
-3.54
-2.97
-2.33
-1.52
-0.63
0.14
0.56
0.55
0.10
-0.66
-1.62
-2.65
-3.59
-4.37
-5.02
-5.73
-6.88
-8.87
-11.90
-15.76
-19.85
-23.34
-25.50
-25.96
-24.88
-22.80
-20.43
-18.29
-16.62
-15.31
-14.07
-12.59
-10.77
-8.69
-6.62
-4.79
-3.37
-2.42
-1.89
-1.70
-1.72
-1.81
-1.79
-1.53
-1.02
-0.40
0.11
0.30
0.07
-0.48
-1.15
-1.85
-2.61
-3.58
-4.89
-6.54
-8.34
-10.02
-11.36
-12.29
-12.89
-13.25
-13.42
-13.30
-12.72
-11.53
-9.71
-7.37
-4.76
-2.21
-0.03
1.53
2.42
2.73
2.67
2.51
2.36
2.27
2.10
1.77
1.21
0.48
-0.31
-1.09
-1.80
-2.46
-3.09
-3.71
-4.29
-4.91
-5.69
-6.82
-8.43
-10.52
-12.87
-15.12
-16.87
-17.84
-17.95
-17.33
-16.20
-14.76
-13.08
-11.11
-8.71
-5.82
-2.44
1.30
5.15
8.85
12.07
14.59
16.21
16.87
16.69
15.86
14.66
13.28
11.81
10.24
8.56
6.79
5.01
3.32
1.76
0.23
-1.39
-3.25
-5.42
-7.92
-10.65
-13.49
-16.28
-18.84
-20.90
-22.20
-22.51
-21.69
-19.74
-16.81
-13.16
-9.10
-4.95
-0.98
2.59
5.57
7.83
9.33
10.13
10.39
10.32
10.16
10.08
10.14
10.24
10.22
9.87
9.06
7.77
6.11
4.26
2.41
0.69
-0.81
-2.11
-3.30
-4.50
-5.84
-7.39
-9.14
-11.00
-12.76
-14.21
-15.21
-15.77
-15.98
-16.01
-15.92
-15.67
-15.15
-14.25
-13.01
-11.57
-10.08
-8.69
-7.36
-6.04
-4.67
-3.34
-2.27
-1.74
-1.95
-2.94
-4.54
-6.52
-8.61
-10.72
-12.80
-14.95
-17.21
-19.65
-22.34
-25.33
-28.66
-32.29
-36.06
-39.65
-42.66
-44.69
-45.46
-44.81
-42.83
-39.70
-35.72
-31.23
-26.54
-21.92
-17.58
-13.69
-10.32
-7.51
-5.19
-3.14
-1.10
1.24
4.03
7.24
10.58
13.64
16.04
17.59
18.33
18.49
18.37
18.16
17.94
17.63
17.11
16.28
15.09
13.57
11.80
9.84
7.79
5.75
3.91
2.53
1.90
2.25
3.65
5.89
8.64
11.44
13.95
16.03
17.79
19.54
21.51
23.81
26.31
28.75
30.78
32.13
32.60
32.02
30.37
27.78
24.63
21.55
19.27
18.33
18.84
20.33
21.95
22.73
22.03
19.73
16.21
12.22
8.46
5.39
3.08
1.24
-0.63
-2.98
-6.08
-9.87
-14.06
-18.17
-21.73
-24.33
-25.72
-25.81
-24.67
-22.47
-19.52
-16.26
-13.14
-10.55
-8.68
-7.51
-6.70
-5.80
-4.40
-2.32
0.30
2.98
5.10
6.06
5.59
3.91
1.73
0.08
-0.21
1.10
3.46
5.65
6.28
4.37
-0.21
-6.79
-14.21
-21.36
-27.51
-32.47
-36.36
-39.42
-41.84
-43.74
-45.13
-46.00
-46.21
-45.59
-44.00
-41.49
-38.43
-35.46
-33.30
-32.53
-33.35
-35.55
-38.59
-41.74
-44.39
-46.17
-46.92
-46.77
-45.97
-44.80
-43.49
-42.25
-41.24
-40.70
-40.88
-41.90
-43.73
-45.98
-48.03
-49.16
-48.76
-46.48
-42.27
-36.35
-29.10
-20.86
-11.86
-2.19
8.19
19.22
30.66
41.95
52.33
60.96
67.17
70.70
71.68
70.48
67.51
63.08
57.38
50.65
43.34
36.14
29.86
25.14
22.28
21.13
21.31
22.41
24.18
26.54
29.51
33.17
37.70
43.45
50.89
60.38
71.71
83.86
94.92
102.66
105.19
101.79
93.22
81.55
69.46
59.34
52.65
49.60
49.45
50.94
52.86
54.40
55.21
55.25
54.56
53.11
50.83
47.66
43.65
38.99
33.89
28.45
22.61
16.24
9.28
1.94
-5.30
-11.80
-17.01
-20.70
-22.98
-24.32
-25.32
-26.56
-28.44
-31.10
-34.35
-37.74
-40.66
-42.59
-43.23
-42.65
-41.28
-39.63
-38.11
-36.81
-35.59
-34.09
-32.04
-29.35
-26.13
-22.65
-19.20
-15.98
-13.03
-10.28
-7.63
-5.04
-2.58
-0.44
1.20
2.27
2.83
3.01
2.96
2.69
2.01
0.59
-1.87
-5.47
-10.05
-15.20
-20.42
-25.28
-29.41
-32.46
-34.09
-33.99
-31.93
-27.94
-22.33
-15.68
-8.66
-1.92
4.05
9.00
12.82
15.56
17.30
18.15
18.25
17.71
16.64
15.24
13.72
12.32
11.20
10.43
9.92
9.55
9.19
8.79
8.35
7.87
7.30
6.54
5.43
3.80
1.48
-1.64
-5.61
-10.37
-15.71
-21.23
-26.39
-30.55
-33.10
-33.63
-32.08
-28.73
-24.13
-18.98
-13.88
-9.19
-5.04
-1.37
1.93
4.86
7.34
9.28
10.62
11.46
11.94
12.27
12.58
12.90
13.15
13.17
12.81
12.01
10.78
9.26
7.64
6.10
4.74
3.54
2.42
1.23
-0.17
-1.91
-4.19
-7.22
-11.24
-16.37
-22.48
-29.01
-35.07
-39.65
-41.86
-41.28
-38.01
-32.65
-26.06
-19.13
-12.51
-6.54
-1.28
3.44
7.78
11.83
15.53
18.71
21.21
22.97
24.02
24.45
24.34
23.74
22.61
20.92
18.67
15.93
12.79
9.39
5.90
2.50
-0.65
-3.42
-5.72
-7.61
-9.21
-10.76
-12.61
-15.19
-18.85
-23.71
-29.45
-35.31
-40.18
-43.01
-43.16
-40.67
-36.17
-30.57
-24.72
-19.10
-13.80
-8.70
-3.69
1.12
5.42
8.85
11.16
12.37
12.79
12.93
13.27
14.10
15.37
16.74
17.73
17.94
17.22
15.75
13.90
12.05
10.40
8.92
7.40
5.57
3.25
0.41
-2.90
-6.54
-10.27
-13.77
-16.56
-18.11
-18.00
-16.09
-12.60
-8.06
-3.12
1.65
6.04
10.09
14.02
17.98
21.95
25.66
28.78
31.01
32.25
32.65
32.51
32.14
31.74
31.32
30.75
29.87
28.54
26.73
24.50
21.92
19.07
16.02
12.77
9.41
5.95
2.37
-1.42
-5.53
-9.98
-14.60
-19.02
-22.78
-25.43
-26.68
-26.46
-24.88
-22.15
-18.52
-14.21
-9.46
-4.55
0.24
4.68
8.55
11.71
14.09
15.58
16.15
15.81
14.75
13.29
11.87
10.88
10.55
10.86
11.52
12.14
12.26
11.56
9.89
7.19
3.50
-1.16
-6.76
-13.29
-20.63
-28.49
-36.35
-43.49
-49.18
-52.84
-54.23
-53.46
-50.95
-47.24
-42.81
-37.98
-32.94
-27.79
-22.67
-17.79
-13.39
-9.64
-6.56
-3.97
-1.59
0.79
3.19
5.41
7.08
7.90
7.81
6.99
5.80
4.57
3.48
2.51
1.62
0.71
-0.33
-1.73
-3.74
-6.55
-10.06
-13.67
-16.51
-17.72
-16.82
-13.95
-9.84
-5.35
-1.17
2.48
5.82
9.23
13.05
17.38
22.06
26.71
30.95
34.49
37.16
39.02
40.21
40.90
41.12
40.81
39.78
37.92
35.30
32.18
28.97
25.99
23.41
21.13
18.81
16.07
12.62
8.38
3.49
-1.69
-6.71
-11.03
-14.18
-15.79
-15.74
-14.13
-11.30
-7.69
-3.73
0.26
4.04
7.50
10.57
13.24
15.50
17.37
18.90
20.09
20.93
21.41
21.56
21.48
21.30
21.15
21.12
21.20
21.37
21.66
22.09
22.70
23.46
24.18
24.64
24.61
23.98
22.83
21.37
19.87
18.50
17.29
16.12
14.84
13.29
11.43
9.25
6.79
4.10
1.23
-1.73
-4.70
-7.60
-10.41
-13.16
-15.96
-18.98
-22.38
-26.29
-30.79
-35.87
-41.27
-46.55
-51.01
-53.86
-54.44
-52.44
-48.03
-41.82
-34.64
-27.26
-20.23
-13.78
-7.96
-2.77
1.73
5.45
8.35
10.51
12.17
13.62
15.15
16.87
18.74
20.55
22.03
23.02
23.48
23.57
23.54
23.58
23.71
23.75
23.41
22.47
20.93
18.98
16.88
14.87
12.95
11.00
8.89
6.52
3.90
1.04
-2.03
-5.32
-8.79
-12.30
-15.70
-18.82
-21.65
-24.35
-27.15
-30.19
-33.43
-36.64
-39.35
-41.11
-41.49
-40.30
-37.66
-33.97
-29.81
-25.82
-22.41
-19.66
-17.35
-15.12
-12.78
-10.35
-8.10
-6.33
-5.25
-4.81
-4.78
-4.90
-4.91
-4.64
-3.97
-2.86
-1.27
0.73
3.02
5.42
7.69
9.62
11.10
12.09
12.68
13.03
13.33
13.70
14.12
14.48
14.69
14.83
15.12
15.87
17.25
19.17
21.28
23.15
24.45
24.95
24.55
23.06
20.27
15.98
10.23
3.45
-3.64
-10.25
-15.79
-20.01
-22.83
-24.24
-24.08
-22.22
-18.70
-14.03
-9.14
-5.10
-2.69
-2.10
-2.86
-4.07
-4.91
-4.93
-4.23
-3.26
-2.50
-2.25
-2.38
-2.41
-1.70
0.30
3.85
8.80
14.64
20.52
25.44
28.36
28.48
25.53
20.14
13.88
8.93
7.29
9.95
16.36
24.58
32.05
36.70
37.67
35.42
31.13
25.99
20.55
14.79
8.44
1.53
-5.43
-11.61
-16.29
-19.25
-20.85
-21.84
-23.03
-24.95
-27.69
-31.00
-34.44
-37.49
-39.71
-40.87
-41.05
-40.81
-41.07
-42.91
-47.09
-53.62
-61.55
-69.27
-75.03
-77.63
-76.86
-73.51
-68.98
-64.69
-61.58
-59.84
-59.08
-58.60
-57.89
-57.01
-56.52
-57.35
-60.23
-65.23
-71.50
-77.61
-82.02
-83.84
-83.36
-81.96
-81.74
-84.83
-92.59
-105.10
-120.73
-136.16
-146.79
-147.98
-136.28
-110.58
-72.56
-25.91
25.03
76.67
127.25
176.90
227.26
280.22
336.54
394.48
449.35
494.16
521.60
526.64
508.47
470.91
420.98
366.19
312.21
261.76
215.15
171.76
131.41
94.56
61.77
32.82
6.48
-18.74
-43.28
-65.50
-81.97
-88.72
-83.64
-68.13
-47.25
-27.98
-16.39
-15.18
-22.90
-35.09
-46.74
-54.47
-57.60
-57.65
-57.00
-57.54
-59.78
-62.53
-62.94
-57.12
-41.17
-12.76
27.48
75.25
123.29
163.32
188.66
196.16
186.76
164.47
134.41
100.99
66.98
33.41
0.21
-33.22
-67.73
-104.33
-144.02
-187.21
-233.06
-279.09
-321.39
-355.56
-378.16
-387.93
-386.16
-376.42
-363.29
-350.73
-340.69
-332.41
-323.09
-309.47
-289.82
-264.94
-237.67
-211.18
-186.88
-163.59
-138.38
-108.79
-74.95
-39.96
-8.29
16.90
35.69
51.40
68.51
90.03
116.00
143.68
169.34
190.09
204.72
213.28
216.02
212.63
202.42
185.19
162.02
135.41
108.33
83.01
60.06
38.58
17.03
-5.69
-29.52
-53.18
-74.84
-92.75
-105.84
-113.82
-117.04
-116.27
-112.48
-106.71
-99.98
-93.19
-87.11
-82.25
-78.75
-76.37
-74.51
-72.34
-69.00
-63.82
-56.62
-47.64
-37.61
-27.43
-17.99
-9.85
-3.18
2.23
6.67
10.30
12.98
14.26
13.63
10.82
6.13
0.50
-4.74
-8.25
-9.16
-7.34
-3.40
1.69
7.02
12.10
16.93
21.75
26.76
31.80
36.41
39.96
42.01
42.47
41.66
40.11
38.30
36.53
34.81
33.07
31.22
29.31
27.51
25.97
24.77
23.82
22.88
21.59
19.61
16.62
12.48
7.18
1.02
-5.49
-11.63
-16.53
-19.50
-20.00
-17.98
-13.76
-8.02
-1.61
4.73
10.48
15.51
19.87
23.69
27.01
29.73
31.70
32.86
33.27
33.19
32.92
32.66
32.44
32.15
31.59
30.60
29.15
27.31
25.22
23.03
20.79
18.51
16.12
13.53
10.73
7.63
4.21
0.37
-4.01
-8.96
-14.30
-19.57
-24.05
-26.94
-27.60
-25.81
-21.79
-16.19
-9.79
-3.32
2.79
8.37
13.43
18.04
22.20
25.77
28.62
30.61
31.79
32.29
32.35
32.17
31.87
31.43
30.78
29.85
28.64
27.22
25.74
24.28
22.82
21.28
19.48
17.36
14.93
12.32
9.70
7.10
4.49
1.72
-1.35
-4.85
-8.82
-13.25
-17.94
-22.50
-26.33
-28.66
-28.86
-26.66
-22.28
-16.46
-10.17
-4.25
0.79
4.85
8.08
10.72
12.87
14.59
15.91
16.91
17.80
18.75
19.85
21.01
22.01
22.62
22.73
22.39
21.86
21.43
21.37
21.69
22.15
22.30
21.65
19.90
17.07
13.52
9.77
6.34
3.46
1.10
-0.97
-3.02
-5.16
-7.41
-9.74
-12.08
-14.36
-16.42
-17.95
-18.60
-18.04
-16.12
-12.89
-8.59
-3.51
2.11
7.98
13.79
19.17
23.75
27.26
29.64
31.08
31.90
32.35
32.55
32.50
32.14
31.46
30.58
29.68
28.92
28.31
27.73
26.96
25.88
24.45
22.80
21.15
19.68
18.48
17.50
16.55
15.35
13.58
11.01
7.50
3.08
-2.06
-7.51
-12.66
-16.82
-19.36
-19.88
-18.41
-15.35
-11.39
-7.23
-3.38
-0.03
2.85
5.39
7.67
9.58
10.95
11.61
11.50
10.80
9.74
8.62
7.62
6.76
5.94
4.98
3.79
2.38
0.82
-0.75
-2.27
-3.74
-5.22
-6.84
-8.70
-10.97
-13.86
-17.57
-22.20
-27.51
-32.94
-37.63
-40.67
-41.43
-39.78
-36.04
-30.88
-25.03
-19.03
-13.21
-7.75
-2.76
1.64
5.29
8.03
9.81
10.68
10.80
10.47
9.99
9.63
9.54
9.68
9.78
9.54
8.71
7.21
5.19
2.93
0.70
-1.36
-3.26
-5.15
-7.21
-9.63
-12.51
-15.84
-19.45
-22.98
-25.92
-27.66
-27.68
-25.72
-21.94
-16.86
-11.16
-5.55
-0.48
3.85
7.50
10.60
13.30
15.61
17.48
18.86
19.67
19.97
19.86
19.54
19.15
18.78
18.45
18.08
17.53
16.74
15.69
14.48
13.19
11.92
10.67
9.36
7.86
6.02
3.71
0.80
-2.78
-7.06
-11.93
-17.06
-21.86
-25.58
-27.50
-27.15
-24.53
-20.06
-14.49
-8.58
-2.96
2.04
6.31
9.90
12.87
15.23
17.02
18.30
19.20
19.87
20.53
21.29
22.17
23.09
23.88
24.35
24.36
23.89
23.02
21.98
20.92
19.96
19.01
17.90
16.41
14.40
11.91
9.10
6.20
3.33
0.49
-2.41
-5.49
-8.78
-12.29
-15.95
-19.81
-23.93
-28.38
-33.02
-37.42
-40.90
-42.72
-42.36
-39.72
-35.15
-29.37
-23.18
-17.22
-11.78
-6.83
-2.23
2.11
6.08
9.42
11.93
13.59
14.64
15.47
16.39
17.46
18.52
19.26
19.42
18.93
17.93
16.65
15.29
13.92
12.45
10.75
8.69
6.26
3.47
0.45
-2.70
-5.91
-9.24
-12.84
-16.84
-21.43
-26.58
-32.11
-37.57
-42.30
-45.54
-46.64
-45.20
-41.33
-35.51
-28.58
-21.42
-14.79
-9.14
-4.58
-1.00
1.88
4.34
6.61
8.78
10.88
12.85
14.55
15.84
16.59
16.70
16.22
15.30
14.17
13.00
11.78
10.35
8.42
5.80
2.50
-1.23
-5.02
-8.57
-11.79
-14.85
-18.03
-21.58
-25.61
-30.02
-34.57
-38.91
-42.59
-45.09
-45.92
-44.69
-41.33
-36.16
-29.78
-22.93
-16.23
-10.06
-4.50
0.50
5.03
9.08
12.60
15.54
17.94
19.91
21.61
23.11
24.45
25.59
26.46
27.06
27.43
27.59
27.51
27.04
25.99
24.17
21.53
18.20
14.44
10.57
6.88
3.49
0.42
-2.45
-5.37
-8.64
-12.58
-17.36
-22.89
-28.64
-33.77
-37.30
-38.50
-37.12
-33.48
-28.33
-22.49
-16.64
-11.17
-6.12
-1.42
2.97
7.00
10.51
13.41
15.62
17.20
18.28
19.00
19.41
19.51
19.22
18.48
17.30
15.86
14.36
13.00
11.86
10.88
9.88
8.69
7.24
5.59
3.90
2.31
0.82
-0.71
-2.59
-5.16
-8.67
-13.26
-18.82
-24.94
-30.95
-36.00
-39.26
-40.14
-38.46
-34.54
-29.06
-22.87
-16.76
-11.27
-6.60
-2.69
0.69
3.81
6.82
9.76
12.51
14.90
16.79
18.14
18.98
19.43
19.54
19.31
18.70
17.67
16.24
14.55
12.79
11.11
9.57
8.06
6.38
4.28
1.60
-1.75
-5.81
-10.60
-16.08
-22.08
-28.13
-33.48
-37.21
-38.50
-36.99
-32.88
-26.85
-19.83
-12.71
-6.08
-0.27
4.63
8.63
11.80
14.19
15.94
17.24
18.23
19.06
19.75
20.26
20.50
20.40
19.93
19.07
17.86
16.38
14.69
12.85
10.92
8.89
6.74
4.42
1.84
-1.09
-4.46
-8.40
-13.00
-18.30
-24.13
-30.10
-35.49
-39.47
-41.26
-40.43
-37.05
-31.68
-25.18
-18.42
-12.07
-6.43
-1.56
2.65
6.31
9.52
12.37
14.92
17.24
19.28
20.95
22.07
22.52
22.21
21.24
19.74
17.96
16.12
14.42
12.98
11.81
10.79
9.72
8.37
6.59
4.29
1.49
-1.82
-5.65
-10.17
-15.45
-21.45
-27.78
-33.74
-38.34
-40.66
-40.07
-36.49
-30.40
-22.70
-14.45
-6.50
0.64
6.87
12.39
17.43
22.05
26.13
29.43
31.76
33.12
33.79
34.11
34.36
34.63
34.83
34.80
34.46
33.88
33.16
32.42
31.58
30.45
28.82
26.57
23.73
20.42
16.84
13.08
9.18
4.98
0.27
-5.25
-11.74
-19.09
-26.75
-33.77
-39.02
-41.51
-40.78
-37.08
-31.25
-24.48
-17.86
-12.05
-7.20
-3.14
0.48
3.88
7.05
9.84
12.06
13.67
14.77
15.59
16.29
16.89
17.25
17.15
16.41
15.03
13.21
11.22
9.32
7.54
5.78
3.79
1.30
-1.89
-5.90
-10.77
-16.49
-22.91
-29.69
-36.23
-41.71
-45.28
-46.31
-44.64
-40.58
-34.86
-28.38
-21.93
-16.01
-10.85
-6.41
-2.54
0.88
3.87
6.36
8.20
9.25
9.49
9.04
8.08
6.79
5.26
3.43
1.17
-1.62
-4.96
-8.82
-13.13
-17.84
-22.93
-28.36
-34.08
-40.04
-46.27
-52.88
-60.19
-68.55
-78.26
-89.33
-101.30
-113.29
-124.13
-132.72
-138.41
-141.21
-141.81
-141.25
-140.58
-140.36
-140.57
-140.64
-139.62
-136.45
-130.13
-119.87
-105.22
-86.05
-62.64
-35.67
-6.15
24.64
55.25
84.15
109.88
131.20
147.22
157.56
162.39
162.35
158.38
151.52
142.79
132.98
122.63
112.04
101.30
90.39
79.31
68.30
57.82
48.67
41.71
37.56
36.29
37.28
39.39
41.33
42.20
41.85
40.97
40.71
42.10
45.43
50.11
54.81
58.10
59.11
57.82
55.02
51.84
49.16
47.41
46.52
46.26
46.32
46.28
45.58
43.66
40.32
36.22
32.98
32.71
37.16
46.81
60.67
76.46
91.76
104.77
114.76
121.97
126.95
130.04
131.08
129.43
124.08
114.11
98.98
78.92
55.20
29.89
5.32
-16.46
-34.19
-47.42
-56.12
-60.33
-59.91
-54.73
-44.95
-31.27
-14.97
2.34
18.77
32.61
42.61
48.35
50.76
51.65
53.18
56.65
61.70
66.41
68.39
66.16
60.20
52.67
46.30
42.88
42.47
43.62
44.39
43.76
42.30
41.80
44.24
50.69
60.70
72.55
84.30
94.17
101.73
107.79
113.82
121.08
129.82
138.95
146.29
149.80
147.40
138.83
125.36
109.18
92.38
75.95
59.26
40.40
17.53
-12.20
-50.29
-97.05
-150.91
-208.01
-262.17
-305.89
-332.42
-337.00
-320.76
-287.86
-244.15
-194.42
-140.51
-81.60
-16.54
47.68
111.08
163.52
195.74
202.44
184.34
147.55
100.43
50.06
0.21
-47.42
-93.43
-136.16
-172.03
-197.04
-209.18
-209.77
-203.02
-194.02
-185.81
-180.06
-175.60
-170.39
-163.06
-153.63
-143.19
-133.14
-124.32
-116.16
-108.10
-98.90
-87.68
-74.47
-60.29
-46.90
-36.17
-29.38
-26.65
-27.42
-30.31
-33.79
-36.79
-38.79
-39.81
-40.09
-39.96
-39.69
-39.69
-40.27
-41.52
-43.10
-44.18
-43.70
-40.85
-35.58
-28.74
-21.87
-16.45
-13.32
-12.41
-12.81
-13.47
-13.66
-13.33
-12.95
-13.12
-14.23
-16.23
-18.70
-20.98
-22.28
-21.90
-19.32
-14.44
-7.71
0.02
7.75
14.77
20.80
25.93
30.33
33.94
36.46
37.58
37.32
36.13
34.58
33.04
31.41
29.18
25.96
21.89
17.92
15.47
15.80
19.44
25.89
33.85
41.78
48.59
53.91
58.10
61.84
65.82
70.56
76.64
84.91
96.33
111.23
128.51
145.29
157.78
162.90
159.90
150.69
138.87
127.68
118.42
110.12
100.74
88.89
74.94
60.75
48.33
38.41
30.08
21.53
11.46
0.14
-10.67
-18.63
-22.11
-20.98
-16.63
-11.15
-6.43
-3.36
-1.70
-0.51
1.21
3.90
7.34
10.79
13.47
14.92
15.15
14.57
13.68
12.82
11.99
10.92
9.28
6.87
3.77
0.23
-3.44
-7.15
-11.09
-15.67
-21.35
-28.34
-36.43
-44.91
-52.73
-58.72
-61.97
-62.02
-59.04
-53.67
-46.84
-39.49
-32.32
-25.77
-19.99
-15.01
-10.86
-7.57
-5.17
-3.65
-2.91
-2.72
-2.78
-2.76
-2.48
-1.92
-1.29
-0.96
-1.24
-2.35
-4.20
-6.46
-8.73
-10.67
-12.33
-14.14
-16.88
-21.32
-27.86
-36.20
-45.38
-54.06
-60.93
-64.96
-65.45
-61.93
-54.06
-41.76
-25.49
-6.38
13.95
33.97
52.81
70.47
87.40
103.85
119.01
131.05
137.79
137.89
131.73
121.56
110.57
101.69
96.59
95.60
98.19
103.67
111.26
119.45
125.36
124.73
113.13
88.04
50.64
6.13
-37.89
-74.11
-98.11
-109.32
-110.20
-104.52
-95.67
-86.16
-77.77
-72.06
-70.53
-74.03
-82.21
-93.23
-104.30
-112.55
-116.00
-113.95
-106.86
-95.92
-82.47
-67.73
-52.59
-37.66
-23.21
-9.28
4.21
17.38
30.31
42.97
55.26
67.03
78.06
88.21
97.41
105.71
113.31
120.49
127.63
135.10
143.24
152.30
162.39
173.46
185.32
197.67
210.15
222.21
232.96
241.10
245.03
243.22
234.71
219.58
199.00
174.98
149.72
125.12
102.29
81.53
62.51
44.58
27.04
9.37
-8.65
-26.96
-45.24
-63.03
-79.91
-95.66
-110.38
-124.56
-139.16
-155.55
-175.15
-198.65
-225.18
-251.91
-274.42
-288.03
-289.41
-277.82
-255.33
-225.79
-193.41
-161.49
-131.97
-105.81
-83.56
-65.77
-52.70
-43.99
-38.31
-33.54
-27.43
-18.41
-6.10
8.58
23.79
37.49
48.12
55.13
59.09
61.45
63.92
67.94
74.08
81.78
89.42
94.69
95.13
88.80
74.81
53.56
26.80
-2.92
-32.77
-60.44
-84.60
-105.12
-122.84
-138.96
-154.32
-168.92
-181.88
-191.89
-197.79
-199.13
-196.35
-190.55
-182.99
-174.59
-165.85
-156.91
-147.89
-139.06
-130.86
-123.75
-117.77
-112.50
-107.10
-100.65
-92.70
-83.50
-73.93
-65.18
-58.14
-52.99
-49.14
-45.48
-40.91
-34.77
-26.99
-18.02
-8.43
1.32
11.15
21.14
31.39
41.75
51.80
60.95
68.69
74.78
79.33
82.69
85.23
87.16
88.54
89.18
88.92
87.68
85.56
82.80
79.80
77.01
74.85
73.71
73.80
75.19
77.75
81.09
84.65
87.74
89.69
90.14
89.25
87.67
86.29
85.85
86.42
87.25
87.04
84.65
79.82
73.51
67.63
64.21
64.49
68.36
74.53
81.19
86.92
91.27
94.71
98.19
102.53
108.25
115.57
124.68
135.44
146.90
156.81
161.73
158.10
143.47
117.81
83.30
43.16
-0.30
-46.81
-97.53
-152.89
-210.25
-263.19
-302.97
-321.81
-316.19
-288.69
-247.56
-204.24
-169.98
-152.87
-156.22
-178.60
-215.15
-259.23
-303.99
-343.41
-372.97
-390.37
-396.00
-393.04
-386.78
-383.10
-386.46
-398.06
-415.47
-433.51
-446.66
-451.04
-445.43
-430.73
-408.76
-380.98
-348.23
-311.05
-270.23
-227.16
-183.46
-140.48
-98.85
-58.50
-18.90
20.43
59.54
97.92
134.50
168.12
197.84
223.19
244.28
261.63
275.96
288.21
299.82
312.99
330.42
354.11
383.65
414.80
439.82
449.53
436.73
399.19
340.52
268.74
193.36
122.48
61.46
13.10
-21.18
-40.77
-46.01
-39.00
-23.78
-5.56
10.95
23.20
31.15
36.43
40.55
43.39
42.71
35.34
19.00
-6.07
-36.85
-68.54
-96.40
-117.51
-131.37
-139.38
-143.63
-145.69
-146.20
-145.08
-142.19
-137.76
-132.55
-127.43
-122.80
-118.21
-112.18
-102.65
-87.69
-66.53
-40.16
-11.31
16.18
38.90
55.09
65.27
71.78
77.37
84.09
93.03
105.02
121.47
144.37
175.06
212.61
252.87
289.45
316.11
329.35
329.80
321.32
308.81
295.67
282.78
269.04
252.87
233.47
211.19
186.82
160.97
133.84
105.40
76.07
46.90
19.32
-5.20
-25.70
-41.97
-54.49
-64.19
-72.26
-79.84
-87.79
-96.57
-106.05
-115.63
-124.35
-131.26
-135.76
-137.74
-137.53
-135.68
-132.57
-128.35
-122.96
-116.42
-109.04
-101.43
-94.42
-88.70
-84.66
-82.21
-80.88
-80.08
-79.21
-77.93
-76.13
-73.91
-71.47
-69.08
-66.98
-65.28
-63.72
-61.48
-57.11
-48.79
-34.90
-14.59
11.63
41.85
73.09
102.26
127.05
146.57
161.36
172.77
182.06
189.84
195.93
199.86
201.52
201.43
200.60
199.88
199.50
198.82
196.82
192.80
186.96
180.47
174.90
171.57
170.99
172.79
176.03
179.69
183.11
186.15
189.11
192.44
196.49
201.30
206.46
211.27
214.68
215.57
212.83
205.64
193.68
177.27
157.28
134.97
111.63
88.40
66.20
45.72
27.59
12.29
0.02
-9.50
-17.08
-23.81
-30.74
-38.41
-46.69
-55.05
-62.94
-70.24
-77.52
-85.98
-97.17
-112.80
-134.46
-163.27
-199.23
-240.55
-283.37
-322.28
-351.78
-368.03
-370.15
-360.31
-342.65
-321.47
-299.89
-279.39
-260.33
-242.84
-227.34
-214.39
-204.13
-195.89
-188.21
-179.58
-169.16
-157.16
-144.83
-133.95
-126.14
-122.27
-122.28
-125.30
-130.10
-135.55
-140.88
-145.78
-150.15
-153.72
-155.96
-156.06
-153.24
-147.14
-137.96
-126.52
-113.83
-100.80
-87.94
-75.38
-63.11
-51.22
-40.02
-30.04
-21.73
-15.27
-10.44
-6.75
-3.65
-0.87
1.57
3.40
4.32
4.24
3.39
2.17
0.99
-0.02
-1.05
-2.61
-5.36
-9.82
-16.24
-24.33
-33.33
-42.10
-49.27
-53.62
-54.29
-51.02
-44.15
-34.51
-23.17
-11.19
0.55
11.41
20.93
28.76
34.75
38.95
41.72
43.59
45.16
46.77
48.42
49.83
50.53
50.16
48.56
45.82
42.21
38.13
34.03
30.29
27.07
24.27
21.34
17.49
11.92
4.22
-5.26
-15.38
-24.42
-30.56
-32.48
-29.64
-22.35
-11.54
1.62
16.09
31.01
45.58
58.96
70.17
78.31
82.89
84.06
82.70
80.11
77.57
75.81
74.80
73.74
71.60
67.57
61.58
54.29
46.78
40.02
34.47
29.85
25.36
20.11
13.46
5.23
-4.25
-14.26
-23.79
-31.64
-36.55
-37.52
-34.08
-26.49
-15.72
-3.13
9.93
22.57
34.43
45.53
55.88
65.20
72.93
78.40
81.29
81.86
80.88
79.34
77.93
76.78
75.44
73.24
69.75
65.08
59.86
54.93
50.89
47.90
45.56
43.16
39.88
35.00
27.95
18.44
6.59
-6.83
-20.32
-31.90
-39.53
-41.89
-38.78
-31.20
-20.90
-9.70
1.11
10.98
19.84
27.74
34.50
39.66
42.87
44.16
44.06
43.38
42.82
42.59
42.25
41.07
38.36
34.00
28.48
22.76
17.83
14.19
11.70
9.58
6.77
2.31
-4.25
-12.78
-22.45
-31.89
-39.48
-43.73
-43.59
-38.80
-29.89
-18.13
-5.11
7.65
19.07
28.55
35.94
41.34
44.95
47.00
47.78
47.60
46.78
45.56
44.01
42.10
39.74
36.88
33.54
29.83
25.83
21.56
16.96
11.84
6.01
-0.77
-8.78
-18.14
-28.60
-39.27
-48.60
-54.80
-56.39
-52.86
-44.89
-34.19
-22.73
-12.15
-3.29
3.77
9.35
13.73
17.01
19.17
20.20
20.29
19.75
18.82
17.55
15.79
13.23
9.75
5.49
0.85
-3.54
-7.20
-9.92
-11.95
-14.00
-17.02
-21.91
-29.07
-38.12
-47.70
-55.83
-60.45
-60.22
-54.90
-45.52
-33.83
-21.63
-10.15
0.20
9.52
18.02
25.66
32.01
36.57
39.11
39.88
39.61
39.13
39.07
39.56
40.24
40.52
39.96
38.46
36.40
34.36
32.81
31.90
31.32
30.44
28.56
25.10
19.81
12.90
4.99
-2.83
-9.21
-12.80
-12.60
-8.38
-0.79
8.74
18.50
27.03
33.58
38.18
41.40
43.89
46.03
47.75
48.76
48.80
47.92
46.38
44.54
42.53
40.31
37.65
34.43
30.76
27.02
23.66
20.95
18.91
17.19
15.22
12.31
7.94
1.95
-5.25
-12.65
-18.80
-22.27
-22.12
-18.25
-11.49
-3.23
5.09
12.50
18.61
23.52
27.44
30.47
32.46
33.17
32.44
30.38
27.18
23.10
18.27
12.70
6.41
-0.42
-7.40
-14.08
-20.14
-25.49
-30.36
-35.05
-39.74
-44.29
-48.18
-50.69
-51.13
-49.01
-44.22
-37.01
-27.91
-17.65
-7.05
3.14
12.35
20.17
26.42
31.06
34.21
36.04
36.82
36.89
36.51
35.86
34.91
33.48
31.37
28.50
24.99
21.12
17.27
13.67
10.40
7.30
4.07
0.37
-4.16
-9.73
-16.31
-23.48
-30.36
-35.76
-38.47
-37.66
-33.24
-25.84
-16.62
-6.85
2.44
10.70
17.68
23.32
27.53
30.15
31.10
30.51
28.83
26.78
25.08
24.16
24.05
24.34
24.48
23.99
22.73
20.87
18.78
16.79
14.99
13.21
11.05
8.15
4.31
-0.40
-5.64
-10.95
-15.88
-20.16
-23.77
-26.93
-30.07
-33.67
-38.12
-43.47
-49.35
-54.84
-58.66
-59.48
-56.36
-49.19
-38.76
-26.55
-14.24
-3.18
6.02
13.44
19.56
24.90
29.69
33.95
37.53
40.28
42.22
43.42
43.98
43.94
43.27
42.02
40.29
38.30
36.33
34.55
33.03
31.67
30.24
28.51
26.31
23.62
20.60
17.58
14.93
12.92
11.64
10.90
10.37
9.73
8.89
8.13
8.00
9.14
11.89
16.09
21.05
25.69
28.94
30.12
29.20
26.73
23.65
20.84
18.90
17.93
17.61
17.30
16.24
13.74
9.32
3.03
-4.58
-12.41
-19.14
-23.52
-24.81
-22.92
-18.51
-12.61
-6.35
-0.57
4.30
8.27
11.54
14.37
16.80
18.74
19.95
20.33
19.93
19.04
18.07
17.32
16.90
16.74
16.67
16.56
16.41
16.27
16.22
16.22
16.12
15.65
14.50
12.47
9.58
6.05
2.26
-1.37
-4.59
-7.32
-9.68
-11.92
-14.23
-16.70
-19.37
-22.12
-24.85
-27.43
-29.78
-31.93
-34.04
-36.42
-39.44
-43.39
-48.37
-54.15
-60.11
-65.40
-69.03
-70.20
-68.49
-64.05
-57.53
-49.87
-41.98
-34.53
-27.80
-21.82
-16.51
-11.81
-7.74
-4.32
-1.53
0.70
2.44
3.65
4.29
4.30
3.76
2.92
2.14
1.71
1.78
2.27
2.97
3.63
4.07
4.22
4.11
3.73
3.09
2.19
1.12
0.02
-0.88
-1.45
-1.69
-1.75
-1.88
-2.36
-3.37
-4.95
-6.98
-9.25
-11.51
-13.54
-15.22
-16.56
-17.69
-18.87
-20.34
-22.31
-24.78
-27.49
-29.97
-31.62
-31.97
-30.78
-28.23
-24.78
-21.01
-17.40
-14.15
-11.30
-8.71
-6.30
-4.04
-1.98
-0.17
1.36
2.66
3.81
4.84
5.73
6.41
6.81
6.91
6.81
6.66
6.60
6.66
6.74
6.70
6.37
5.68
4.68
3.50
2.28
1.10
0.03
-0.90
-1.69
-2.30
-2.81
-3.32
-3.99
-4.92
-6.13
-7.61
-9.23
-10.93
-12.69
-14.57
-16.66
-18.92
-21.14
-22.93
-23.81
-23.45
-21.79
-19.05
-15.68
-12.17
-8.92
-6.15
-3.91
-2.13
-0.68
0.58
1.74
2.85
3.89
4.77
5.41
5.79
5.97
6.03
6.09
6.27
6.64
7.26
8.10
9.11
10.12
10.91
11.22
10.87
9.81
8.12
6.03
3.78
1.60
-0.33
-1.88
-3.01
-3.73
-4.13
-4.36
-4.57
-4.97
-5.61
-6.46
-7.33
-7.97
-8.17
-7.86
-7.08
-6.00
-4.80
-3.65
-2.66
-1.97
-1.67
-1.80
-2.22
-2.63
-2.54
-1.55
0.57
3.72
7.55
11.56
15.41
18.89
21.96
24.62
26.83
28.54
29.71
30.38
30.66
30.71
30.56
30.13
29.25
27.64
25.08
21.40
16.60
10.79
4.32
-2.35
-8.70
-14.23
-18.57
-21.45
-22.72
-22.35
-20.44
-17.28
-13.36
-9.25
-5.44
-2.31
0.00
1.48
2.18
2.07
1.16
-0.54
-2.82
-5.33
-7.66
-9.41
-10.45
-10.94
-11.24
-11.79
-12.94
-14.87
-17.47
-20.40
-23.20
-25.42
-26.80
-27.26
-27.00
-26.47
-26.24
-26.86
-28.64
-31.43
-34.66
-37.39
-38.62
-37.75
-34.69
-30.02
-24.66
-19.58
-15.44
-12.49
-10.59
-9.50
-9.00
-8.97
-9.39
-10.18
-11.16
-12.06
-12.60
-12.64
-12.22
-11.49
-10.65
-9.81
-8.95
-7.97
-6.81
-5.56
-4.49
-3.89
-3.92
-4.50
-5.36
-6.19
-6.85
-7.44
-8.20
-9.34
-10.86
-12.53
-13.94
-14.71
-14.66
-13.84
-12.45
-10.81
-9.12
-7.44
-5.71
-3.88
-1.94
0.02
1.79
3.20
4.18
4.80
5.18
5.44
5.62
5.68
5.53
5.11
4.42
3.57
2.59
1.55
0.43
-0.83
-2.34
-4.22
-6.56
-9.36
-12.44
-15.41
-17.84
-19.33
-19.71
-19.07
-17.73
-16.07
-14.38
-12.83
-11.48
-10.33
-9.41
-8.74
-8.34
-8.10
-7.93
-7.72
-7.43
-7.10
-6.80
-6.58
-6.53
-6.64
-6.91
-7.26
-7.62
-7.91
-8.08
-8.15
-8.20
-8.39
-8.87
-9.74
-10.98
-12.47
-13.93
-15.01
-15.37
-14.81
-13.34
-11.18
-8.72
-6.28
-4.07
-2.12
-0.30
1.48
3.21
4.75
5.89
6.50
6.55
6.21
5.69
5.20
4.82
4.55
4.29
3.96
3.52
2.99
2.40
1.77
1.12
0.40
-0.54
-1.90
-3.84
-6.41
-9.44
-12.56
-15.33
-17.33
-18.35
-18.44
-17.79
-16.68
-15.29
-13.69
-11.85
-9.80
-7.69
-5.78
-4.31
-3.40
-2.92
-2.64
-2.23
-1.53
-0.54
0.53
1.41
1.87
1.77
1.11
0.02
-1.28
-2.57
-3.69
-4.63
-5.55
-6.71
-8.39
-10.79
-13.86
-17.32
-20.71
-23.52
-25.25
-25.65
-24.66
-22.51
-19.59
-16.33
-13.10
-10.11
-7.43
-5.05
-2.97
-1.21
0.22
1.37
2.40
3.44
4.61
5.86
7.04
7.96
8.49
8.67
8.62
8.53
8.42
8.19
7.62
6.55
4.95
2.96
0.82
-1.32
-3.50
-5.92
-8.78
-12.21
-16.02
-19.78
-22.91
-24.80
-25.08
-23.64
-20.74
-16.86
-12.62
-8.54
-4.93
-1.82
0.94
3.59
6.28
8.96
11.42
13.43
14.84
15.68
16.14
16.51
16.97
17.56
18.20
18.68
18.83
18.53
17.76
16.54
14.97
13.20
11.48
9.96
8.72
7.58
6.19
4.03
0.79
-3.64
-8.94
-14.39
-19.15
-22.39
-23.57
-22.55
-19.58
-15.23
-10.16
-5.03
-0.33
3.66
6.82
9.19
10.86
12.04
12.93
13.77
14.77
16.01
17.40
18.75
19.83
20.42
20.47
20.03
19.25
18.27
17.22
16.17
15.14
14.07
12.73
10.83
8.00
3.99
-1.23
-7.27
-13.45
-18.97
-23.06
-25.24
-25.39
-23.68
-20.49
-16.28
-11.47
-6.39
-1.36
3.39
7.62
11.11
13.76
15.61
16.79
17.51
17.95
18.21
18.25
18.01
17.44
16.56
15.41
14.04
12.43
10.53
8.34
5.90
3.31
0.71
-1.88
-4.53
-7.42
-10.77
-14.71
-19.22
-24.02
-28.54
-32.06
-33.84
-33.35
-30.48
-25.57
-19.32
-12.58
-6.08
-0.25
4.74
8.97
12.57
15.62
18.15
20.13
21.54
22.51
23.20
23.78
24.32
24.77
24.93
24.64
23.76
22.34
20.56
18.63
16.66
14.66
12.48
9.93
6.83
3.09
-1.31
-6.37
-12.10
-18.49
-25.29
-31.94
-37.55
-41.06
-41.70
-39.19
-33.95
-26.93
-19.18
-11.57
-4.60
1.63
7.13
11.88
15.79
18.80
20.91
22.27
23.10
23.53
23.66
23.48
22.96
22.07
20.79
19.19
17.26
15.09
12.75
10.37
8.10
5.96
3.89
1.60
-1.23
-4.97
-9.82
-15.70
-22.20
-28.59
-33.97
-37.44
-38.32
-36.35
-31.71
-25.01
-17.15
-9.06
-1.51
5.05
10.49
14.91
18.58
21.72
24.48
26.88
28.89
30.45
31.55
32.20
32.47
32.46
32.27
31.93
31.41
30.58
29.30
27.42
24.95
21.99
18.77
15.55
12.46
9.43
6.24
2.49
-2.18
-8.00
-14.94
-22.57
-30.00
-36.02
-39.41
-39.22
-35.22
-27.98
-18.78
-9.22
-0.71
5.95
10.65
13.87
16.32
18.56
20.82
23.03
24.93
26.35
27.30
27.96
28.50
29.02
29.37
29.30
28.59
27.17
25.13
22.68
19.94
17.01
13.86
10.44
6.75
2.78
-1.45
-6.00
-10.99
-16.57
-22.78
-29.42
-35.93
-41.35
-44.53
-44.57
-41.06
-34.37
-25.57
-16.02
-6.98
0.81
7.19
12.43
16.90
20.85
24.25
26.98
28.91
30.07
30.68
31.00
31.25
31.53
31.76
31.75
31.33
30.34
28.75
26.60
23.97
20.95
17.62
14.07
10.35
6.53
2.58
-1.56
-6.06
-11.17
-17.18
-24.17
-31.86
-39.40
-45.51
-48.81
-48.29
-43.79
-36.02
-26.35
-16.31
-7.11
0.64
6.91
11.97
16.22
19.94
23.32
26.38
29.08
31.30
32.97
34.05
34.62
34.77
34.61
34.11
33.11
31.41
28.92
25.76
22.21
18.58
15.09
11.70
8.23
4.44
0.13
-4.84
-10.59
-17.12
-24.25
-31.40
-37.57
-41.55
-42.26
-39.22
-32.74
-23.83
-13.84
-4.05
4.60
11.63
16.96
20.77
23.41
25.30
26.81
28.24
29.69
31.13
32.44
33.52
34.28
34.61
34.38
33.41
31.60
28.94
25.60
21.85
17.94
14.05
10.26
6.54
2.81
-1.06
-5.25
-9.96
-15.48
-22.06
-29.69
-37.91
-45.71
-51.71
-54.52
-53.27
-47.90
-39.25
-28.77
-18.02
-8.18
0.17
7.04
12.76
17.64
21.86
25.40
28.15
30.08
31.28
31.93
32.21
32.22
31.88
31.00
29.35
26.87
23.67
20.08
16.47
13.16
10.28
7.77
5.43
2.99
0.13
-3.51
-8.31
-14.53
-22.13
-30.52
-38.52
-44.65
-47.50
-46.31
-41.25
-33.31
-23.94
-14.56
-6.11
1.03
6.93
11.85
16.04
19.60
22.55
24.84
26.46
27.49
28.05
28.34
28.52
28.62
28.53
28.00
26.78
24.74
21.99
18.80
15.56
12.53
9.78
7.13
4.29
0.94
-3.19
-8.26
-14.40
-21.54
-29.31
-36.91
-43.18
-46.88
-47.06
-43.46
-36.57
-27.51
-17.59
-8.02
0.43
7.43
13.00
17.32
20.65
23.27
25.45
27.39
29.21
30.89
32.35
33.48
34.13
34.18
33.59
32.37
30.57
28.28
25.59
22.58
19.29
15.73
11.96
8.03
4.10
0.25
-3.46
-7.17
-11.23
-16.11
-22.19
-29.46
-37.36
-44.67
-49.83
-51.45
-48.83
-42.29
-33.05
-22.81
-13.14
-4.95
1.56
6.74
11.07
14.86
18.18
20.96
23.17
24.93
26.41
27.71
28.85
29.73
30.22
30.22
29.70
28.64
27.01
24.78
21.97
18.68
15.06
11.25
7.31
3.19
-1.22
-6.02
-11.33
-17.24
-23.83
-31.03
-38.42
-45.20
-50.20
-52.27
-50.63
-45.26
-36.96
-27.06
-17.03
-7.95
-0.35
5.77
10.71
14.80
18.27
21.19
23.61
25.51
26.94
27.92
28.46
28.54
28.20
27.45
26.32
24.83
22.96
20.70
18.00
14.88
11.38
7.61
3.72
-0.17
-4.02
-7.95
-12.25
-17.35
-23.55
-30.89
-38.91
-46.63
-52.90
-56.60
-57.15
-54.56
-49.50
-42.92
-35.79
-28.87
-22.59
-17.13
-12.54
-8.85
-6.04
-3.99
-2.47
-1.16
0.20
1.78
3.52
5.23
6.69
7.86
8.87
9.96
11.26
12.54
13.36
13.27
12.15
10.23
7.94
5.55
2.99
0.06
-3.25
-6.61
-9.47
-11.52
-13.11
-15.14
-18.63
-23.86
-30.08
-35.58
-38.52
-37.76
-33.30
-26.17
-17.86
-9.68
-2.43
3.69
8.80
13.12
16.75
19.64
21.75
23.12
24.04
24.96
26.32
28.38
30.96
33.61
35.66
36.60
36.22
34.68
32.43
30.01
27.84
26.12
24.78
23.55
22.01
19.65
16.00
10.76
4.06
-3.47
-10.67
-16.10
-18.59
-17.60
-13.54
-7.59
-1.27
4.16
8.07
10.45
11.62
11.89
11.38
10.13
8.34
6.49
5.17
4.75
5.02
5.26
4.63
2.62
-0.53
-3.97
-6.72
-8.14
-8.31
-7.93
-8.02
-9.49
-12.84
-18.17
-25.21
-33.33
-41.62
-48.91
-53.99
-55.85
-54.07
-49.01
-41.69
-33.44
-25.44
-18.42
-12.54
-7.53
-2.98
1.37
5.52
9.26
12.25
14.26
15.25
15.41
15.14
14.85
14.78
14.96
15.17
15.12
14.64
13.79
12.85
12.11
11.69
11.34
10.63
9.10
6.48
2.72
-2.03
-7.63
-13.94
-20.66
-27.22
-32.66
-35.83
-35.79
-32.23
-25.73
-17.49
-8.93
-1.15
5.39
10.88
15.78
20.49
25.19
29.74
33.91
37.56
40.67
43.33
45.60
47.48
48.83
49.49
49.38
48.57
47.30
45.89
44.60
43.58
42.78
42.02
41.12
39.96
38.58
37.17
35.89
34.81
33.84
32.70
31.13
28.94
26.12
22.90
19.60
16.58
14.03
11.92
10.01
7.92
5.34
2.05
-1.92
-6.40
-11.13
-15.91
-20.65
-25.33
-29.97
-34.59
-39.32
-44.43
-50.23
-56.90
-64.14
-71.05
-76.25
-78.25
-76.03
-69.37
-59.05
-46.49
-33.33
-20.99
-10.29
-1.53
5.43
10.91
15.21
18.54
20.98
22.60
23.59
24.19
24.69
25.27
25.93
26.49
26.68
26.28
25.23
23.61
21.53
19.10
16.33
13.24
9.82
6.09
2.06
-2.26
-6.97
-12.23
-18.20
-24.94
-32.24
-39.53
-45.86
-50.14
-51.39
-49.14
-43.60
-35.68
-26.64
-17.73
-9.81
-3.19
2.24
6.82
10.85
14.50
17.71
20.34
22.26
23.44
24.00
24.18
24.19
24.20
24.22
24.09
23.62
22.66
21.20
19.33
17.16
14.71
11.90
8.62
4.84
0.66
-3.75
-8.27
-13.00
-18.27
-24.39
-31.34
-38.54
-44.87
-48.93
-49.65
-46.69
-40.59
-32.54
-23.92
-15.79
-8.60
-2.30
3.45
8.93
14.18
19.01
23.13
26.38
28.75
30.43
31.69
32.72
33.57
34.14
34.25
33.77
32.75
31.40
30.00
28.78
27.81
26.95
25.95
24.49
22.39
19.63
16.32
12.69
8.99
5.44
2.12
-0.96
-3.96
-7.13
-10.80
-15.32
-20.96
-27.70
-35.13
-42.41
-48.36
-51.84
-51.99
-48.61
-42.21
-33.87
-24.90
-16.49
-9.36
-3.70
0.63
4.01
6.72
8.91
10.60
11.77
12.45
12.76
12.92
13.06
13.25
13.36
13.22
12.67
11.73
10.50
9.16
7.84
6.54
5.08
3.24
0.77
-2.54
-6.87
-12.27
-18.59
-25.35
-31.73
-36.62
-39.02
-38.30
-34.48
-28.21
-20.56
-12.64
-5.24
1.15
6.47
10.81
14.28
16.94
18.80
19.88
20.33
20.38
20.29
20.26
20.34
20.36
20.01
19.02
17.19
14.63
11.63
8.59
5.83
3.40
1.10
-1.48
-4.78
-9.12
-14.59
-21.01
-27.91
-34.55
-40.05
-43.48
-44.14
-41.72
-36.45
-29.09
-20.70
-12.31
-4.68
1.88
7.38
12.06
16.13
19.72
22.85
25.44
27.46
28.91
29.82
30.23
30.13
29.52
28.43
26.97
25.31
23.66
22.16
20.85
19.55
17.99
15.89
13.05
9.52
5.57
1.55
-2.30
-5.99
-9.90
-14.50
-20.26
-27.16
-34.60
-41.45
-46.36
-48.22
-46.59
-41.80
-34.83
-26.91
-19.12
-12.09
-6.00
-0.73
3.90
7.96
11.41
14.16
16.22
17.70
18.83
19.76
20.51
20.95
20.85
20.00
18.35
16.02
13.31
10.55
8.01
5.82
3.95
2.21
0.34
-1.98
-5.07
-9.20
-14.43
-20.53
-26.89
-32.59
-36.62
-38.15
-36.79
-32.69
-26.56
-19.36
-12.07
-5.40
0.29
4.96
8.70
11.59
13.66
14.92
15.47
15.55
15.51
15.69
16.28
17.20
18.10
18.55
18.21
16.96
14.98
12.59
10.12
7.75
5.42
2.87
-0.25
-4.25
-9.30
-15.35
-22.12
-29.06
-35.42
-40.30
-42.86
-42.55
-39.31
-33.65
-26.50
-18.90
-11.71
-5.37
0.07
4.78
8.92
12.55
15.59
17.96
19.67
20.85
21.68
22.27
22.60
22.57
22.07
21.05
19.61
17.91
16.08
14.17
12.12
9.87
7.33
4.48
1.35
-2.07
-5.78
-9.84
-14.34
-19.31
-24.72
-30.26
-35.41
-39.36
-41.25
-40.45
-36.83
-30.89
-23.59
-16.06
-9.13
-3.21
1.80
6.15
10.09
13.68
16.79
19.31
21.21
22.60
23.62
24.39
24.89
25.08
24.88
24.26
23.27
21.93
20.32
18.43
16.26
13.79
10.99
7.84
4.35
0.53
-3.63
-8.21
-13.31
-19.05
-25.39
-31.95
-38.03
-42.69
-44.96
-44.21
-40.35
-33.88
-25.77
-17.17
-9.11
-2.24
3.21
7.37
10.55
13.07
15.13
16.84
18.26
19.48
20.64
21.80
22.94
23.85
24.26
23.87
22.57
20.41
17.62
14.48
11.21
7.91
4.59
1.11
-2.66
-6.93
-11.89
-17.66
-24.18
-31.07
-37.57
-42.68
-45.41
-45.11
-41.69
-35.75
-28.27
-20.39
-13.03
-6.65
-1.33
3.17
7.14
10.80
14.21
17.27
19.84
21.79
23.05
23.69
23.80
23.53
23.00
22.32
21.51
20.57
19.44
18.01
16.23
14.08
11.62
8.91
5.98
2.80
-0.68
-4.54
-8.85
-13.69
-19.18
-25.35
-31.99
-38.49
-43.83
-46.87
-46.73
-43.20
-36.89
-28.99
-20.77
-13.16
-6.58
-0.96
3.93
8.23
11.93
14.98
17.40
19.42
21.31
23.27
25.34
27.26
28.73
29.46
29.38
28.60
27.43
26.17
25.00
23.89
22.63
20.94
18.62
15.63
12.11
8.29
4.41
0.63
-3.07
-6.89
-11.18
-16.28
-22.34
-29.22
-36.28
-42.47
-46.63
-47.78
-45.56
-40.35
-33.11
-25.06
-17.24
-10.22
-4.11
1.31
6.28
10.87
14.92
18.16
20.42
21.72
22.30
22.52
22.66
22.80
22.87
22.67
22.07
21.02
19.58
17.80
15.74
13.41
10.82
8.01
5.04
1.93
-1.36
-4.99
-9.14
-13.97
-19.53
-25.56
-31.41
-36.15
-38.78
-38.55
-35.35
-29.74
-22.81
-15.75
-9.40
-4.07
0.38
4.29
7.91
11.28
14.32
16.97
19.29
21.37
23.25
24.85
25.92
26.29
25.94
25.11
24.18
23.42
22.92
22.45
21.67
20.23
17.99
14.97
11.36
7.39
3.21
-1.02
-5.20
-9.31
-13.48
-18.00
-23.09
-28.74
-34.40
-39.05
-41.42
-40.58
-36.25
-29.00
-20.06
-10.77
-2.21
5.14
11.30
16.52
21.08
25.11
28.66
31.76
34.41
36.53
37.93
38.35
37.64
35.83
33.28
30.49
27.88
25.69
23.86
22.21
20.53
18.77
16.92
14.98
12.87
10.44
7.55
4.13
0.16
-4.34
-9.42
-15.13
-21.33
-27.57
-33.03
-36.76
-37.91
-36.12
-31.67
-25.37
-18.26
-11.32
-5.14
0.08
4.43
8.06
11.08
13.43
15.04
15.89
16.06
15.78
15.25
14.60
13.81
12.71
11.15
9.06
6.55
3.86
1.24
-1.15
-3.33
-5.48
-7.89
-10.86
-14.61
-19.27
-24.80
-30.94
-37.12
-42.56
-46.32
-47.60
-46.02
-41.74
-35.38
-27.91
-20.17
-12.81
-6.10
-0.07
5.25
9.82
13.50
16.15
17.80
18.64
18.97
19.11
19.20
19.21
18.93
18.11
16.58
14.37
11.69
8.83
6.11
3.64
1.41
-0.78
-3.23
-6.25
-10.18
-15.17
-21.17
-27.78
-34.18
-39.29
-42.07
-41.80
-38.43
-32.59
-25.31
-17.72
-10.62
-4.39
0.97
5.60
9.65
13.15
16.10
18.56
20.62
22.42
23.98
25.23
25.98
26.07
25.47
24.38
23.08
21.86
20.84
19.90
18.73
17.01
14.52
11.33
7.68
3.92
0.26
-3.33
-7.14
-11.58
-16.99
-23.49
-30.80
-38.22
-44.75
-49.34
-51.12
-49.68
-45.17
-38.25
-29.90
-21.10
-12.69
-5.19
1.16
6.30
10.31
13.36
15.72
17.63
19.34
20.97
22.51
23.87
24.94
25.62
25.87
25.76
25.39
24.88
24.29
23.56
22.58
21.14
19.12
16.48
13.33
9.85
6.21
2.50
-1.28
-5.21
-9.47
-14.24
-19.68
-25.76
-32.13
-38.05
-42.53
-44.54
-43.42
-39.15
-32.38
-24.26
-16.01
-8.57
-2.33
2.78
7.09
10.89
14.26
17.05
19.08
20.27
20.76
20.90
21.03
21.37
21.86
22.24
22.12
21.20
19.39
16.83
13.86
10.86
8.08
5.55
3.02
0.17
-3.36
-7.75
-13.06
-19.17
-25.84
-32.64
-38.90
-43.77
-46.36
-45.99
-42.49
-36.29
-28.28
-19.60
-11.25
-3.90
2.20
7.16
11.29
14.91
18.23
21.25
23.84
25.76
26.85
27.14
26.84
26.26
25.68
25.21
24.72
23.97
22.72
20.89
18.60
16.00
13.23
10.27
6.99
3.28
-0.85
-5.33
-10.07
-15.12
-20.71
-27.02
-33.97
-40.95
-46.92
-50.65
-51.22
-48.34
-42.43
-34.45
-25.53
-16.68
-8.57
-1.49
4.49
9.46
13.52
16.78
19.36
21.42
23.17
24.83
26.50
28.17
29.64
30.65
31.00
30.69
29.85
28.70
27.32
25.59
23.32
20.34
16.68
12.56
8.29
4.11
0.07
-4.04
-8.60
-14.01
-20.60
-28.35
-36.75
-44.80
-51.20
-54.65
-54.35
-50.27
-43.17
-34.32
-25.04
-16.34
-8.72
-2.27
3.15
7.67
11.33
14.20
16.32
17.87
19.09
20.18
21.26
22.31
23.15
23.55
23.25
22.10
20.05
17.22
13.83
10.17
6.48
2.88
-0.64
-4.22
-8.09
-12.49
-17.64
-23.60
-30.24
-37.15
-43.56
-48.46
-50.80
-49.81
-45.31
-37.75
-28.15
-17.72
-7.56
1.67
9.70
16.56
22.40
27.24
30.99
33.51
34.80
35.10
34.77
34.21
33.60
32.82
31.53
29.39
26.23
22.28
18.07
14.26
11.30
9.26
7.83
6.38
4.25
0.86
-4.23
-11.31
-20.54
-31.88
-44.88
-58.48
-71.05
-80.73
-86.06
-86.49
-82.52
-75.34
-66.10
-55.41
-43.32
-29.77
-15.33
-1.46
9.78
16.51
17.94
14.83
9.11
3.15
-1.12
-2.67
-1.39
2.25
7.34
12.58
16.31
16.74
12.59
3.81
-8.09
-20.39
-30.24
-35.94
-37.68
-37.25
-36.93
-38.17
-40.79
-43.24
-43.65
-41.01
-35.64
-28.89
-22.22
-16.34
-10.96
-5.17
1.80
9.94
18.30
25.47
30.23
32.10
31.48
29.37
26.87
24.74
23.19
22.02
20.88
19.56
18.17
17.09
16.78
17.43
18.81
20.26
20.91
20.02
17.25
12.89
7.63
2.47
-1.70
-4.24
-4.93
-3.97
-1.88
0.72
3.30
5.58
7.65
9.88
12.65
16.12
20.13
24.20
27.80
30.61
32.56
33.82
34.50
34.65
34.12
32.76
30.51
27.58
24.31
21.10
18.22
15.72
13.42
11.03
8.21
4.68
0.28
-4.98
-10.88
-16.90
-22.37
-26.51
-28.65
-28.42
-25.89
-21.54
-16.10
-10.39
-5.01
-0.26
3.80
7.28
10.32
12.94
15.13
16.90
18.29
19.47
20.59
21.83
23.29
24.96
26.77
28.58
30.18
31.33
31.73
31.14
29.45
26.68
23.04
18.89
14.73
11.03
8.19
6.48
5.93
6.44
7.76
9.66
11.90
14.33
16.81
19.20
21.42
23.32
24.79
25.82
26.39
26.51
26.18
25.42
24.27
22.81
21.20
19.55
17.92
16.29
14.53
12.49
10.11
7.41
4.51
1.57
-1.30
-4.05
-6.68
-9.13
-11.28
-12.86
-13.62
-13.38
-12.15
-10.15
-7.70
-5.13
-2.59
-0.08
2.42
4.93
7.31
9.37
10.91
11.85
12.26
12.29
12.12
11.83
11.44
10.88
10.12
9.14
7.97
6.64
5.18
3.58
1.82
-0.07
-2.12
-4.35
-6.80
-9.53
-12.52
-15.64
-18.60
-21.03
-22.55
-22.95
-22.20
-20.52
-18.22
-15.63
-12.97
-10.40
-8.02
-5.91
-4.19
-2.87
-1.94
-1.23
-0.57
0.13
0.84
1.39
1.63
1.51
1.16
0.85
0.83
1.19
1.81
2.40
2.63
2.29
1.34
-0.10
-1.87
-3.79
-5.71
-7.44
-8.76
-9.43
-9.22
-8.08
-6.11
-3.61
-0.94
1.58
3.74
5.50
6.88
7.95
8.70
9.15
9.27
9.09
8.73
8.29
7.87
7.53
7.21
6.77
6.06
5.03
3.67
2.10
0.41
-1.34
-3.19
-5.24
-7.61
-10.40
-13.57
-17.03
-20.52
-23.75
-26.39
-28.14
-28.80
-28.33
-26.85
-24.55
-21.66
-18.39
-14.89
-11.34
-7.89
-4.72
-1.90
0.57
2.78
4.81
6.73
8.50
10.04
11.33
12.39
13.34
14.30
15.28
16.20
16.90
17.23
17.08
16.46
15.41
13.99
12.29
10.32
8.10
5.59
2.75
-0.38
-3.66
-6.84
-9.58
-11.57
-12.64
-12.74
-12.02
-10.72
-9.06
-7.17
-5.12
-2.95
-0.72
1.44
3.35
4.80
5.63
5.77
5.31
4.42
3.34
2.25
1.24
0.27
-0.64
-1.48
-2.18
-2.71
-3.18
-3.82
-4.91
-6.62
-8.87
-11.42
-13.92
-16.21
-18.31
-20.36
-22.51
-24.65
-26.45
-27.44
-27.24
-25.77
-23.21
-19.98
-16.52
-13.16
-10.02
-7.13
-4.48
-2.09
-0.06
1.55
2.72
3.57
4.32
5.13
6.09
7.09
7.90
8.27
8.10
7.43
6.48
5.45
4.45
3.37
2.01
0.09
-2.55
-5.98
-10.12
-14.82
-19.87
-24.98
-29.80
-33.93
-37.05
-39.02
-39.88
-39.88
-39.26
-38.15
-36.49
-34.12
-30.91
-26.83
-22.09
-17.02
-12.00
-7.35
-3.25
0.20
2.98
5.09
6.62
7.64
8.26
8.60
8.83
9.06
9.40
9.88
10.46
11.01
11.35
11.27
10.67
9.52
7.91
6.02
4.08
2.30
0.91
0.09
-0.00
0.73
2.27
4.46
7.08
9.85
12.52
14.95
17.04
18.79
20.19
21.28
22.11
22.73
23.20
23.53
23.67
23.55
23.13
22.43
21.60
20.81
20.20
19.79
19.43
18.92
18.03
16.56
14.42
11.63
8.34
4.78
1.23
-2.00
-4.58
-6.21
-6.66
-5.76
-3.60
-0.47
3.10
6.50
9.21
10.93
11.61
11.37
10.34
8.61
6.22
3.23
-0.24
-3.98
-7.87
-11.86
-15.99
-20.28
-24.69
-29.03
-33.07
-36.61
-39.68
-42.56
-45.68
-49.56
-54.41
-60.01
-65.61
-70.07
-72.21
-71.24
-67.13
-60.60
-52.99
-45.78
-40.04
-36.08
-33.28
-30.43
-26.27
-20.12
-12.30
-3.99
3.21
8.12
10.46
10.96
10.95
11.70
13.86
17.38
21.71
26.34
30.93
35.36
39.48
42.90
45.05
45.38
43.67
40.16
35.57
30.85
26.94
24.57
24.04
25.23
27.66
30.59
33.34
35.43
36.71
37.31
37.50
37.42
37.05
36.19
34.65
32.39
29.59
26.54
23.52
20.68
18.01
15.42
12.83
10.21
7.57
4.89
2.06
-1.20
-5.17
-10.25
-16.69
-24.59
-33.71
-43.43
-52.82
-60.79
-66.34
-68.85
-68.22
-64.87
-59.52
-53.00
-46.03
-39.11
-32.61
-26.79
-21.89
-18.09
-15.45
-13.82
-12.91
-12.34
-11.80
-11.17
-10.53
-10.08
-9.99
-10.35
-11.14
-12.31
-13.84
-15.79
-18.28
-21.49
-25.58
-30.64
-36.60
-43.10
-49.42
-54.55
-57.46
-57.41
-54.26
-48.57
-41.34
-33.73
-26.64
-20.52
-15.43
-11.21
-7.66
-4.65
-2.15
-0.16
1.37
2.52
3.43
4.22
5.05
5.94
6.89
7.79
8.44
8.67
8.32
7.30
5.51
2.86
-0.80
-5.50
-11.01
-16.71
-21.58
-24.45
-24.47
-21.37
-15.66
-8.46
-0.99
5.85
11.74
16.94
21.85
26.73
31.46
35.62
38.78
40.72
41.56
41.59
41.14
40.35
39.26
37.80
36.00
33.98
31.84
29.62
27.09
23.79
19.07
12.35
3.34
-7.61
-19.47
-30.62
-39.24
-43.90
-43.99
-39.88
-32.74
-24.07
-15.19
-6.92
0.47
7.07
13.05
18.56
23.66
28.40
32.83
37.02
40.93
44.34
46.92
48.28
48.22
46.79
44.34
41.38
38.44
35.85
33.64
31.57
29.12
25.70
20.87
14.57
7.37
0.32
-5.26
-8.33
-8.42
-5.81
-1.34
3.97
9.33
14.33
18.89
23.05
26.77
29.85
32.03
33.17
33.33
32.75
31.71
30.41
28.95
27.28
25.40
23.37
21.36
19.59
18.18
17.11
16.18
15.02
13.24
10.43
6.33
0.94
-5.33
-11.64
-16.78
-19.54
-19.14
-15.48
-9.25
-1.57
6.33
13.60
19.91
25.41
30.41
35.15
39.64
43.67
46.96
49.24
50.40
50.55
49.88
48.76
47.47
46.18
44.79
42.96
40.25
36.30
31.03
24.68
17.69
10.49
3.26
-4.07
-11.73
-19.97
-28.93
-38.73
-49.56
-61.61
-74.82
-88.59
-101.69
-112.48
-119.57
-122.37
-121.37
-117.77
-112.70
-106.71
-99.34
-89.51
-76.34
-59.84
-41.24
-22.71
-6.60
5.47
13.20
17.63
20.70
24.35
29.87
37.44
46.34
55.35
63.34
69.58
73.83
76.19
76.87
76.12
74.28
71.75
68.92
66.16
63.59
61.18
58.75
56.09
53.14
49.95
46.81
44.17
42.53
42.24
43.35
45.51
48.01
50.07
51.06
50.75
49.33
47.18
44.61
41.60
37.85
32.95
26.79
19.73
12.59
6.35
1.79
-0.80
-1.68
-1.44
-0.73
-0.04
0.34
0.24
-0.48
-1.86
-3.83
-6.02
-7.87
-8.82
-8.54
-7.11
-4.96
-2.59
-0.25
2.17
5.02
8.62
12.97
17.67
22.06
25.54
27.73
28.57
28.18
26.78
24.51
21.53
18.06
14.43
10.97
7.98
5.59
3.81
2.50
1.49
0.62
-0.28
-1.32
-2.57
-3.95
-5.37
-6.76
-8.15
-9.64
-11.24
-12.81
-13.90
-13.94
-12.48
-9.40
-5.03
-0.00
4.91
9.15
12.52
15.19
17.61
20.28
23.63
27.85
32.82
38.17
43.38
47.82
51.01
52.71
53.19
53.21
53.80
55.81
59.33
63.29
65.74
64.52
58.26
47.11
32.91
18.75
7.92
2.73
3.65
9.02
15.63
19.97
19.55
13.79
4.13
-6.76
-16.13
-22.19
-24.45
-23.51
-20.47
-16.39
-12.16
-8.55
-6.23
-5.66
-6.93
-9.63
-13.10
-16.71
-19.98
-22.56
-24.22
-24.74
-24.12
-22.68
-21.12
-20.20
-20.50
-21.99
-24.10
-26.01
-27.12
-27.40
-27.40
-27.93
-29.52
-32.06
-34.79
-36.64
-36.76
-34.89
-31.47
-27.38
-23.53
-20.42
-18.01
-15.85
-13.46
-10.60
-7.45
-4.50
-2.25
-0.99
-0.70
-1.10
-1.83
-2.61
-3.39
-4.22
-5.24
-6.48
-7.85
-9.21
-10.37
-11.36
-12.28
-13.36
-14.76
-16.52
-18.52
-20.59
-22.60
-24.57
-26.69
-29.16
-32.10
-35.42
-38.83
-41.88
-44.10
-45.06
-44.56
-42.65
-39.64
-36.00
-32.27
-28.84
-25.97
-23.70
-21.94
-20.56
-19.42
-18.40
-17.42
-16.46
-15.53
-14.71
-14.07
-13.72
-13.74
-14.16
-14.95
-15.96
-16.96
-17.73
-18.15
-18.33
-18.55
-19.19
-20.56
-22.76
-25.67
-28.96
-32.21
-34.97
-36.85
-37.54
-36.89
-34.94
-31.97
-28.41
-24.73
-21.29
-18.21
-15.50
-13.04
-10.77
-8.76
-7.18
-6.20
-5.93
-6.33
-7.28
-8.64
-10.33
-12.33
-14.59
-17.01
-19.34
-21.25
-22.46
-22.78
-22.18
-20.72
-18.62
-16.08
-13.46
-11.20
-9.74
-9.45
-10.37
-12.09
-13.85
-14.74
-14.12
-11.80
-8.24
-4.25
-0.65
1.95
3.42
3.96
3.99
3.94
4.38
6.02
9.70
15.86
23.95
32.20
38.18
39.74
36.28
29.14
21.00
14.62
11.45
11.18
12.19
12.71
11.79
9.60
6.99
4.69
2.91
1.27
-0.76
-3.33
-6.25
-9.03
-11.19
-12.50
-13.06
-13.08
-12.76
-12.09
-10.83
-8.70
-5.53
-1.40
3.27
7.85
11.74
14.53
16.12
16.77
16.89
16.91
17.08
17.44
17.84
18.08
17.98
17.47
16.53
15.16
13.37
11.18
8.70
6.11
3.60
1.25
-0.98
-3.34
-6.04
-9.25
-12.94
-16.96
-21.12
-25.36
-29.70
-34.12
-38.45
-42.34
-45.23
-46.61
-46.22
-44.20
-41.00
-37.26
-33.61
-30.48
-28.13
-26.69
-26.20
-26.63
-27.83
-29.54
-31.41
-33.16
-34.77
-36.50
-38.83
-42.20
-46.75
-52.21
-58.00
-63.55
-68.59
-73.22
-78.00
-83.44
-89.87
-97.33
-105.80
-115.08
-124.64
-133.20
-138.81
-139.33
-133.42
-121.23
-104.47
-85.49
-66.01
-46.30
-25.33
-1.83
24.43
52.08
78.64
101.77
120.43
135.18
147.59
159.15
170.41
180.91
189.65
195.64
198.51
198.61
196.70
193.69
190.09
185.95
180.85
174.08
165.04
153.56
140.20
126.24
113.43
103.54
97.66
95.81
96.80
98.62
99.22
97.42
93.33
88.12
83.45
80.44
79.02
77.79
74.23
65.17
47.38
18.52
-21.49
-69.03
-116.44
-153.13
-168.51
-155.71
-114.51
-51.98
19.69
87.03
139.46
171.63
183.63
179.39
164.37
143.81
121.88
101.65
85.31
74.39
69.66
71.04
77.34
86.28
94.88
100.29
100.58
95.21
85.04
71.83
57.12
41.49
24.14
3.35
-22.58
-54.38
-91.45
-132.14
-174.47
-216.64
-257.17
-294.58
-327.15
-352.88
-369.84
-376.50
-372.18
-357.04
-331.94
-298.26
-258.13
-214.53
-171.20
-132.17
-100.64
-77.96
-63.03
-52.63
-42.63
-29.41
-10.75
13.80
43.40
76.49
111.22
145.28
175.91
200.35
216.72
224.53
224.59
218.13
205.82
187.66
163.84
135.98
107.69
83.74
67.88
60.71
59.01
57.07
49.02
31.28
3.61
-31.62
-70.69
-109.89
-146.07
-176.38
-198.15
-208.97
-207.14
-192.32
-166.19
-132.34
-95.66
-61.33
-33.46
-14.23
-3.48
0.83
1.59
1.35
1.35
1.39
0.21
-3.76
-11.64
-23.60
-38.67
-54.92
-69.77
-80.59
-85.40
-83.51
-75.83
-64.66
-52.85
-42.73
-35.47
-30.87
-28.01
-25.97
-24.51
-24.11
-25.57
-29.43
-35.60
-43.44
-52.13
-61.07
-69.98
-78.91
-87.86
-96.58
-104.51
-110.98
-115.48
-117.84
-118.20
-116.72
-113.38
-107.84
-99.63
-88.38
-74.05
-57.07
-38.17
-18.12
2.55
23.71
45.59
68.45
92.24
116.42
140.05
162.06
181.69
198.76
213.68
227.22
240.31
253.82
268.40
283.94
299.05
310.55
313.83
303.82
276.50
230.42
167.61
93.40
15.24
-59.01
-122.81
-172.02
-205.18
-223.06
-227.78
-222.15
-209.34
-192.69
-175.64
-161.19
-151.28
-146.10
-144.00
-142.23
-138.25
-130.91
-120.85
-109.97
-100.34
-93.27
-88.84
-86.23
-84.28
-82.14
-79.53
-76.72
-74.16
-72.30
-71.27
-70.93
-70.97
-71.12
-71.20
-71.22
-71.27
-71.42
-71.63
-71.86
-72.14
-72.71
-73.98
-76.45
-80.42
-85.68
-91.33
-95.85
-97.53
-94.99
-87.73
-76.36
-62.33
-47.37
-32.90
-19.69
-7.85
2.73
12.04
19.89
25.96
30.16
32.79
34.39
35.56
36.51
37.15
37.10
36.06
34.03
31.36
28.57
26.08
24.00
22.12
19.88
16.60
11.54
4.19
-5.49
-16.81
-28.33
-37.99
-43.78
-44.30
-39.27
-29.60
-16.98
-3.23
10.23
22.67
33.84
43.71
52.17
58.94
63.83
66.86
68.36
68.91
69.05
69.08
68.90
68.17
66.48
63.62
59.62
54.73
49.29
43.48
37.27
30.43
22.59
13.42
2.79
-9.07
-21.34
-32.61
-41.12
-45.22
-43.96
-37.52
-27.13
-14.62
-1.78
10.19
20.87
30.34
38.74
45.94
51.49
54.97
56.28
55.89
54.64
53.42
52.71
52.45
52.13
51.14
49.14
46.23
42.81
39.20
35.38
30.94
25.26
17.86
8.61
-2.19
-13.88
-25.52
-35.93
-43.76
-47.73
-46.95
-41.32
-31.63
-19.49
-6.68
5.32
15.79
24.76
32.63
39.72
45.96
50.94
54.15
55.42
55.09
53.84
52.47
51.49
50.93
50.36
49.16
46.85
43.35
39.01
34.45
30.28
26.76
23.76
20.81
17.31
12.76
6.86
-0.52
-9.29
-18.98
-28.64
-36.70
-41.33
-40.99
-35.18
-24.75
-11.60
1.92
14.02
23.91
31.82
38.46
44.38
49.73
54.22
57.54
59.67
60.97
61.99
63.26
64.95
66.87
68.59
69.61
69.57
68.39
66.23
63.38
60.15
56.70
53.04
49.02
44.40
38.93
32.36
24.48
15.15
4.35
-7.71
-20.37
-32.50
-42.54
-48.87
-50.28
-46.41
-37.91
-26.31
-13.44
-0.96
10.06
19.25
26.69
32.71
37.59
41.53
44.67
47.15
49.12
50.70
51.93
52.76
53.02
52.60
51.48
49.79
47.84
45.93
44.16
42.43
40.31
37.32
33.11
27.67
21.34
14.72
8.40
2.75
-2.22
-6.92
-11.99
-18.12
-25.79
-35.02
-45.17
-54.90
-62.46
-66.11
-64.71
-58.13
-47.35
-34.11
-20.35
-7.63
3.29
12.33
19.91
26.43
32.08
36.79
40.36
42.74
44.13
44.97
45.73
46.71
47.91
49.02
49.63
49.40
48.24
46.26
43.74
41.00
38.23
35.51
32.79
29.96
26.85
23.36
19.36
14.77
9.57
3.81
-2.36
-8.70
-14.98
-21.01
-26.74
-32.35
-38.22
-44.87
-52.72
-61.77
-71.31
-79.92
-85.79
-87.30
-83.56
-74.87
-62.56
-48.52
-34.53
-21.76
-10.62
-0.95
7.59
15.23
21.97
27.74
32.49
36.35
39.54
42.29
44.70
46.76
48.33
49.33
49.77
49.78
49.49
48.97
48.18
46.97
45.18
42.77
39.83
36.55
33.14
29.71
26.18
22.40
18.20
13.57
8.62
3.57
-1.46
-6.49
-11.76
-17.53
-24.08
-31.55
-39.92
-49.00
-58.24
-66.73
-73.22
-76.33
-75.05
-69.14
-59.32
-47.07
-34.14
-21.99
-11.44
-2.61
4.74
11.00
16.37
20.89
24.53
27.33
29.43
31.00
32.20
33.03
33.44
33.28
32.47
31.05
29.15
26.93
24.46
21.72
18.62
15.07
11.06
6.69
2.16
-2.36
-6.74
-11.06
-15.59
-20.73
-26.86
-34.05
-41.89
-49.35
-55.03
-57.58
-56.19
-50.86
-42.45
-32.33
-21.86
-12.08
-3.47
3.90
10.19
15.55
20.01
23.48
25.91
27.29
27.77
27.62
27.11
26.53
26.04
25.62
25.15
24.44
23.26
21.45
18.91
15.63
11.68
7.20
2.40
-2.50
-7.32
-11.98
-16.60
-21.50
-27.08
-33.60
-40.94
-48.38
-54.65
-58.26
-58.06
-53.64
-45.55
-35.13
-24.01
-13.60
-4.74
2.36
7.88
12.21
15.72
18.67
21.24
23.55
25.60
27.37
28.72
29.54
29.77
29.37
28.40
26.86
24.75
22.02
18.68
14.81
10.53
6.03
1.39
-3.34
-8.16
-13.10
-18.20
-23.56
-29.37
-35.87
-43.17
-50.96
-58.32
-63.86
-66.10
-64.11
-57.85
-48.36
-37.25
-26.20
-16.33
-8.01
-1.12
4.68
9.54
13.40
16.08
17.53
17.96
17.82
17.60
17.61
17.88
18.16
18.02
17.07
15.12
12.24
8.76
5.06
1.47
-1.90
-5.15
-8.48
-12.20
-16.56
-21.81
-28.13
-35.53
-43.65
-51.60
-58.11
-61.76
-61.48
-57.04
-49.19
-39.32
-29.03
-19.50
-11.23
-4.13
2.17
7.97
13.23
17.74
21.24
23.64
25.13
26.03
26.69
27.25
27.70
27.91
27.68
26.92
25.61
23.77
21.45
18.70
15.64
12.37
9.02
5.66
2.24
-1.48
-5.88
-11.42
-18.46
-26.99
-36.46
-45.67
-52.98
-56.78
-56.05
-50.77
-41.97
-31.34
-20.60
-10.91
-2.64
4.40
10.58
16.08
20.81
24.56
27.20
28.86
29.83
30.47
30.98
31.43
31.75
31.79
31.40
30.43
28.69
26.09
22.67
18.67
14.47
10.37
6.51
2.75
-1.23
-5.82
-11.36
-18.01
-25.68
-33.97
-42.03
-48.64
-52.44
-52.30
-47.84
-39.57
-28.85
-17.35
-6.52
2.88
10.72
17.20
22.56
26.73
29.53
30.83
30.80
29.88
28.66
27.51
26.53
25.46
23.93
21.62
18.55
15.04
11.61
8.69
6.43
4.54
2.43
-0.60
-5.04
-11.07
-18.56
-27.07
-36.01
-44.49
-51.41
-55.51
-55.75
-51.74
-43.95
-33.73
-22.83
-12.72
-4.21
2.74
8.60
13.87
18.64
22.62
25.36
26.62
26.60
25.89
25.18
24.96
25.27
25.73
25.72
24.70
22.43
19.11
15.23
11.31
7.71
4.46
1.30
-2.16
-6.24
-11.15
-17.00
-23.83
-31.60
-39.98
-48.16
-54.93
-58.84
-58.80
-54.48
-46.47
-36.08
-24.85
-13.97
-4.04
4.88
12.95
20.24
26.64
31.90
35.88
38.69
40.70
42.42
44.16
46.03
47.79
49.04
49.43
48.77
47.17
44.92
42.36
39.77
37.15
34.32
30.97
26.82
21.84
16.24
10.47
5.00
0.08
-4.40
-8.84
-13.80
-19.75
-26.91
-35.15
-44.05
-52.83
-60.46
-65.72
-67.51
-65.14
-58.62
-48.79
-37.10
-25.14
-14.21
-5.01
2.36
8.17
12.81
16.56
19.55
21.86
23.63
25.09
26.43
27.79
29.09
30.10
30.58
30.37
29.50
28.08
26.25
24.00
21.18
17.65
13.37
8.52
3.41
-1.61
-6.37
-10.90
-15.52
-20.72
-26.99
-34.66
-43.59
-53.07
-61.74
-67.94
-70.19
-67.71
-60.72
-50.38
-38.38
-26.34
-15.35
-5.84
2.31
9.40
15.67
21.13
25.68
29.25
31.94
34.05
35.93
37.79
39.64
41.18
41.98
41.75
40.46
38.45
36.20
34.13
32.35
30.58
28.35
25.22
21.05
16.04
10.66
5.43
0.66
-3.65
-7.84
-12.51
-18.27
-25.55
-34.38
-44.26
-54.08
-62.38
-67.65
-68.82
-65.55
-58.45
-48.73
-37.90
-27.20
-17.33
-8.45
-0.39
7.07
13.93
20.00
25.10
29.14
32.31
34.91
37.22
39.37
41.29
42.79
43.69
43.90
43.47
42.52
41.18
39.57
37.81
36.00
34.16
32.21
29.96
27.11
23.46
19.00
13.95
8.69
3.59
-1.18
-5.75
-10.48
-15.80
-22.10
-29.56
-38.12
-47.41
-56.69
-64.84
-70.55
-72.63
-70.37
-63.84
-53.90
-42.00
-29.67
-18.14
-8.12
0.27
7.21
13.08
18.21
22.81
26.95
30.59
33.67
36.06
37.65
38.42
38.42
37.77
36.67
35.37
34.01
32.60
30.91
28.63
25.46
21.33
16.45
11.24
6.11
1.31
-3.14
-7.50
-12.13
-17.49
-23.96
-31.69
-40.38
-49.12
-56.51
-60.98
-61.33
-57.24
-49.44
-39.44
-28.96
-19.32
-11.14
-4.36
1.41
6.54
11.08
14.81
17.46
18.90
19.34
19.23
19.07
19.22
19.62
19.90
19.54
18.12
15.55
12.08
8.12
4.05
0.09
-3.84
-7.98
-12.63
-18.08
-24.57
-32.20
-40.95
-50.48
-60.02
-68.36
-74.05
-75.85
-73.09
-65.99
-55.62
-43.56
-31.36
-20.19
-10.58
-2.57
4.11
9.74
14.51
18.53
21.83
24.52
26.68
28.40
29.71
30.58
30.98
30.89
30.37
29.50
28.37
26.99
25.31
23.24
20.68
17.56
13.89
9.69
4.97
-0.28
-6.17
-12.82
-20.28
-28.32
-36.35
-43.40
-48.35
-50.26
-48.64
-43.71
-36.26
-27.43
-18.33
-9.73
-2.01
4.74
10.55
15.40
19.17
21.78
23.36
24.27
25.12
26.44
28.49
31.16
33.95
36.25
37.53
37.56
36.38
34.23
31.41
28.17
24.64
20.87
16.74
12.12
6.83
0.83
-5.74
-12.44
-18.64
-23.63
-26.78
-27.75
-26.51
-23.36
-18.76
-13.25
-7.38
-1.64
3.48
7.56
10.24
11.35
10.98
9.52
7.54
5.65
4.31
3.63
3.39
3.11
2.28
0.64
-1.71
-4.36
-6.80
-8.67
-10.01
-11.21
-12.92
-15.76
-20.20
-26.36
-34.02
-42.55
-50.95
-57.96
-62.31
-62.96
-59.47
-52.16
-42.01
-30.32
-18.35
-7.02
3.19
12.19
19.96
26.56
31.98
36.29
39.63
42.28
44.53
46.54
48.30
49.58
50.07
49.56
48.03
45.69
42.90
39.96
36.96
33.66
29.55
24.01
16.55
7.01
-4.16
-15.97
-26.97
-35.65
-40.88
-42.22
-40.00
-35.11
-28.62
-21.46
-14.24
-7.30
-0.87
4.81
9.51
13.10
15.60
17.20
18.17
18.67
18.74
18.37
17.47
15.99
13.90
11.24
8.13
4.74
1.35
-1.79
-4.53
-6.97
-9.39
-12.33
-16.34
-21.76
-28.60
-36.34
-43.93
-50.05
-53.43
-53.26
-49.48
-42.77
-34.24
-25.07
-16.01
-7.33
1.07
9.32
17.30
24.56
30.50
34.73
37.29
38.64
39.45
40.25
41.16
41.87
41.85
40.60
37.99
34.24
29.88
25.51
21.53
18.09
14.96
11.70
7.71
2.48
-4.28
-12.43
-21.36
-30.05
-37.26
-41.83
-42.99
-40.58
-35.06
-27.32
-18.40
-9.23
-0.40
7.82
15.36
22.16
28.07
32.85
36.28
38.27
39.00
38.86
38.25
37.48
36.63
35.58
34.07
31.93
29.12
25.84
22.41
19.12
16.14
13.42
10.71
7.61
3.74
-1.24
-7.50
-14.95
-23.18
-31.40
-38.50
-43.30
-44.83
-42.70
-37.18
-29.14
-19.69
-9.87
-0.30
8.72
17.18
25.05
32.18
38.32
43.11
46.40
48.19
48.74
48.39
47.45
46.08
44.29
41.95
38.89
35.04
30.46
25.43
20.25
15.24
10.59
6.27
2.11
-2.20
-6.96
-12.39
-18.68
-25.79
-33.46
-41.04
-47.52
-51.77
-52.81
-50.28
-44.54
-36.60
-27.69
-18.85
-10.62
-3.09
3.82
10.09
15.37
19.22
21.27
21.56
20.55
18.87
17.10
15.49
13.89
12.01
9.59
6.68
3.58
0.68
-1.82
-4.00
-6.33
-9.34
-13.54
-19.17
-26.11
-33.90
-41.77
-48.72
-53.73
-55.94
-54.86
-50.58
-43.67
-35.02
-25.55
-15.95
-6.52
2.65
11.57
20.10
27.91
34.59
39.83
43.59
46.08
47.68
48.72
49.34
49.44
48.73
46.98
44.17
40.55
36.56
32.64
29.04
25.67
22.22
18.25
13.42
7.63
1.05
-5.93
-12.67
-18.45
-22.50
-24.21
-23.29
-19.88
-14.62
-8.36
-1.90
4.25
9.93
15.24
20.24
24.78
28.50
30.97
31.97
31.66
30.49
29.01
27.61
26.31
24.85
22.90
20.26
17.04
13.56
10.17
7.11
4.38
1.74
-1.19
-4.81
-9.45
-15.26
-22.09
-29.43
-36.39
-41.88
-44.90
-44.87
-41.74
-36.08
-28.76
-20.71
-12.74
-5.47
0.68
5.50
8.95
11.24
12.85
14.31
16.05
18.19
20.50
22.54
23.88
24.32
23.96
23.08
22.00
20.92
19.86
18.68
17.11
14.82
11.48
6.89
1.10
-5.47
-12.05
-17.62
-21.22
-22.18
-20.42
-16.39
-10.93
-4.98
0.71
5.66
9.70
12.82
15.09
16.55
17.18
16.98
16.02
14.46
12.56
10.56
8.62
6.75
4.81
2.65
0.23
-2.39
-5.03
-7.59
-10.14
-12.91
-16.23
-20.36
-25.39
-31.17
-37.30
-43.18
-48.02
-50.98
-51.38
-48.89
-43.67
-36.37
-27.81
-18.78
-9.81
-1.16
7.01
14.46
20.84
25.74
28.92
30.41
30.59
30.01
29.24
28.62
28.22
27.86
27.25
26.13
24.39
22.13
19.53
16.79
13.99
11.02
7.67
3.64
-1.30
-7.23
-13.94
-20.90
-27.21
-31.79
-33.69
-32.34
-27.80
-20.70
-12.13
-3.26
4.94
11.86
17.23
21.06
23.46
24.54
24.40
23.21
21.20
18.73
16.13
13.66
11.40
9.24
6.94
4.28
1.19
-2.25
-5.83
-9.31
-12.62
-15.92
-19.61
-24.20
-30.06
-37.12
-44.77
-51.86
-57.05
-59.27
-58.06
-53.75
-47.28
-39.77
-32.20
-25.12
-18.74
-13.07
-8.18
-4.20
-1.34
0.32
0.88
0.63
-0.04
-0.82
-1.63
-2.55
-3.83
-5.65
-8.06
-10.90
-13.92
-16.89
-19.73
-22.56
-25.64
-29.23
-33.52
-38.50
-43.97
-49.54
-54.69
-58.72
-60.89
-60.51
-57.16
-50.85
-42.02
-31.50
-20.26
-9.16
1.17
10.42
18.45
25.20
30.60
34.63
37.35
39.03
40.02
40.65
41.07
41.17
40.62
39.14
36.63
33.39
29.88
26.55
23.55
20.66
17.39
13.13
7.48
0.30
-8.14
-17.15
-25.71
-32.59
-36.62
-37.06
-33.87
-27.72
-19.88
-11.80
-4.75
0.43
3.46
4.43
3.75
1.98
-0.21
-2.16
-3.25
-3.10
-1.63
0.92
4.16
7.59
10.85
13.73
16.16
18.15
19.73
20.81
21.22
20.74
19.12
16.19
12.07
7.27
2.69
-0.56
-1.51
0.30
4.67
10.83
17.75
24.54
30.63
35.81
40.01
43.14
45.00
45.38
44.23
41.75
38.38
34.57
30.61
26.54
22.10
16.93
10.73
3.38
-4.85
-13.39
-21.52
-28.61
-34.36
-39.05
-43.37
-48.26
-54.43
-61.98
-70.27
-78.06
-83.91
-86.63
-85.65
-81.14
-73.89
-64.99
-55.55
-46.45
-38.24
-31.21
-25.45
-20.96
-17.66
-15.38
-13.82
-12.67
-11.75
-11.06
-10.80
-11.23
-12.43
-14.17
-15.91
-17.15
-17.72
-17.98
-18.76
-20.89
-24.85
-30.42
-36.86
-43.17
-48.46
-52.11
-53.73
-53.04
-49.89
-44.29
-36.65
-27.75
-18.66
-10.35
-3.31
2.55
7.76
12.93
18.36
23.86
28.83
32.59
34.71
35.23
34.59
33.44
32.34
31.58
31.17
30.98
30.89
30.84
30.83
30.78
30.51
29.74
28.15
25.44
21.48
16.40
10.73
5.41
1.57
0.30
2.12
6.86
13.68
21.41
28.98
35.70
41.29
45.71
48.89
50.74
51.19
50.37
48.74
46.84
45.19
43.98
43.00
41.83
40.05
37.51
34.39
31.23
28.55
26.70
25.64
24.93
23.98
22.25
19.54
15.99
12.07
8.28
4.91
1.90
-1.07
-4.41
-8.36
-12.83
-17.39
-21.41
-24.22
-25.23
-24.04
-20.54
-14.94
-7.74
0.28
8.18
15.11
20.36
23.58
24.70
23.82
21.14
16.88
11.34
4.98
-1.54
-7.42
-11.96
-14.65
-15.31
-14.05
-11.13
-6.83
-1.38
5.09
12.41
20.39
28.76
37.15
45.01
51.61
55.99
57.11
54.18
46.97
35.96
22.34
7.68
-6.39
-18.57
-27.91
-33.86
-36.10
-34.57
-29.52
-21.60
-11.92
-1.90
7.03
13.70
17.52
18.52
17.23
14.44
10.91
7.18
3.44
-0.35
-4.26
-8.22
-11.96
-15.03
-17.08
-18.08
-18.35
-18.59
-19.55
-21.82
-25.61
-30.64
-36.18
-41.22
-44.71
-45.85
-44.25
-40.04
-33.79
-26.30
-18.36
-10.63
-3.59
2.42
7.17
10.50
12.39
13.02
12.66
11.61
10.05
8.01
5.51
2.68
-0.20
-2.71
-4.57
-5.73
-6.50
-7.27
-8.39
-9.89
-11.56
-13.08
-14.17
-14.83
-15.23
-15.61
-16.20
-17.15
-18.56
-20.39
-22.46
-24.27
-25.07
-23.98
-20.38
-14.17
-5.95
3.14
11.80
18.95
24.02
27.03
28.38
28.71
28.57
28.37
28.29
28.36
28.54
28.90
29.58
30.92
33.23
36.73
41.42
47.10
53.48
60.26
67.11
73.59
79.00
82.50
83.31
81.05
75.84
68.36
59.46
49.92
40.18
30.44
20.84
11.64
3.33
-3.60
-8.84
-12.49
-14.93
-16.60
-17.79
-18.53
-18.63
-17.92
-16.34
-14.11
-11.61
-9.30
-7.60
-6.75
-6.88
-7.99
-9.99
-12.78
-16.16
-19.86
-23.56
-26.89
-29.53
-31.28
-32.11
-32.12
-31.46
-30.19
-28.30
-25.80
-22.85
-19.92
-17.71
-16.86
-17.70
-20.05
-23.22
-26.32
-28.47
-29.06
-27.83
-24.81
-20.28
-14.71
-8.75
-3.13
1.48
4.64
6.26
6.60
6.17
5.51
5.00
4.83
4.97
5.22
5.36
5.19
4.59
3.52
2.01
0.10
-2.09
-4.46
-6.88
-9.23
-11.45
-13.51
-15.50
-17.48
-19.51
-21.49
-23.18
-24.29
-24.56
-23.85
-22.22
-19.82
-16.89
-13.62
-10.25
-6.92
-3.84
-1.15
1.03
2.65
3.74
4.38
4.64
4.63
4.49
4.41
4.57
5.11
6.00
7.05
7.98
8.51
8.48
7.85
6.71
5.20
3.46
1.58
-0.41
-2.58
-5.08
-8.05
-11.58
-15.57
-19.64
-23.25
-25.89
-27.19
-27.13
-25.93
-23.97
-21.62
-19.12
-16.61
-14.12
-11.64
-9.15
-6.68
-4.32
-2.16
-0.29
1.24
2.44
3.38
4.10
4.59
4.81
4.71
4.31
3.75
3.15
2.61
2.05
1.33
0.27
-1.22
-3.11
-5.30
-7.71
-10.36
-13.37
-16.78
-20.48
-24.09
-27.06
-28.83
-29.07
-27.80
-25.36
-22.28
-19.03
-15.88
-12.86
-9.85
-6.75
-3.61
-0.68
1.71
3.34
4.18
4.42
4.39
4.37
4.48
4.62
4.61
4.31
3.71
2.93
2.11
1.27
0.34
-0.79
-2.20
-3.85
-5.64
-7.53
-9.56
-11.83
-14.38
-17.01
-19.26
-20.50
-20.11
-17.77
-13.57
-8.03
-1.87
4.10
9.22
13.11
15.64
16.91
17.16
16.73
15.98
15.21
14.68
14.53
14.82
15.55
16.66
18.07
19.72
21.47
23.11
24.42
25.15
25.12
24.23
22.42
19.68
16.01
11.38
5.81
-0.57
-7.48
-14.50
-21.17
-27.07
-31.89
-35.50
-37.85
-39.03
-39.10
-38.21
-36.48
-34.13
-31.35
-28.40
-25.50
-22.83
-20.49
-18.51
-16.87
-15.52
-14.39
-13.43
-12.58
-11.78
-11.04
-10.37
-9.83
-9.48
-9.33
-9.41
-9.65
-9.98
-10.34
-10.78
-11.40
-12.42
-14.07
-16.43
-19.43
-22.73
-25.77
-27.93
-28.71
-27.88
-25.52
-22.00
-17.79
-13.36
-9.05
-5.10
-1.65
1.24
3.55
5.37
6.79
7.95
8.89
9.56
9.85
9.67
9.01
7.99
6.84
5.74
4.82
4.05
3.33
2.51
1.44
-0.00
-1.96
-4.55
-7.87
-11.92
-16.55
-21.38
-25.92
-29.62
-32.02
-32.91
-32.35
-30.59
-27.88
-24.45
-20.42
-15.94
-11.22
-6.61
-2.52
0.71
2.89
4.09
4.57
4.68
4.75
5.05
5.68
6.60
7.60
8.47
8.99
9.06
8.76
8.19
7.43
6.48
5.22
3.51
1.21
-1.75
-5.35
-9.48
-13.92
-18.25
-21.92
-24.31
-24.90
-23.46
-20.11
-15.27
-9.49
-3.27
3.04
9.20
15.02
20.26
24.63
27.94
30.15
31.50
32.31
32.87
33.20
33.00
31.85
29.41
25.72
21.19
16.43
12.01
8.18
4.77
1.40
-2.35
-6.71
-11.65
-16.96
-22.23
-27.05
-30.90
-33.30
-33.82
-32.29
-28.84
-23.92
-18.18
-12.22
-6.52
-1.41
2.98
6.47
8.98
10.45
10.94
10.71
10.11
9.45
8.89
8.39
7.81
7.02
6.10
5.23
4.65
4.46
4.51
4.43
3.76
2.07
-0.82
-4.78
-9.37
-13.83
-17.31
-19.01
-18.42
-15.50
-10.71
-4.87
1.14
6.58
11.06
14.48
16.96
18.65
19.68
20.21
20.40
20.46
20.52
20.59
20.52
20.05
19.00
17.34
15.23
12.95
10.72
8.66
6.71
4.67
2.27
-0.78
-4.74
-9.67
-15.27
-20.85
-25.34
-27.66
-27.04
-23.38
-17.31
-9.99
-2.69
3.51
7.98
10.55
11.45
11.09
10.04
8.85
7.92
7.40
7.14
6.77
5.88
4.26
1.95
-0.85
-3.81
-6.73
-9.50
-12.14
-14.80
-17.68
-21.05
-25.12
-29.95
-35.22
-40.22
-43.97
-45.51
-44.32
-40.48
-34.65
-27.81
-20.81
-14.22
-8.29
-3.08
1.33
4.81
7.24
8.64
9.21
9.28
9.14
8.91
8.57
8.02
7.21
6.18
5.06
3.92
2.73
1.35
-0.46
-2.95
-6.28
-10.55
-15.57
-20.90
-25.74
-29.07
-29.92
-27.66
-22.30
-14.56
-5.63
3.19
10.92
17.13
21.94
25.73
28.90
31.58
33.72
35.13
35.74
35.67
35.19
34.63
34.23
34.01
33.86
33.57
32.94
31.83
30.20
27.99
25.22
21.95
18.25
14.24
9.98
5.44
0.53
-4.91
-11.01
-17.70
-24.71
-31.40
-36.89
-40.25
-40.68
-37.98
-32.48
-25.08
-16.93
-9.00
-1.91
4.25
9.60
14.27
18.19
21.15
22.95
23.68
23.71
23.58
23.76
24.38
25.22
25.84
25.83
24.99
23.43
21.40
19.12
16.67
13.92
10.67
6.72
1.98
-3.56
-9.93
-17.07
-24.79
-32.57
-39.46
-44.26
-45.85
-43.65
-37.87
-29.54
-20.14
-11.15
-3.58
2.25
6.63
10.13
13.29
16.32
19.10
21.17
22.02
21.21
18.61
14.53
9.83
5.93
4.55
7.25
14.80
26.68
40.92
54.58
64.65
69.05
67.28
60.42
50.44
39.30
28.15
17.09
5.48
-7.35
-21.39
-35.61
-48.22
-57.31
-61.74
-61.65
-58.51
-54.53
-51.69
-51.12
-52.77
-55.83
-59.51
-63.60
-68.59
-75.18
-83.62
-93.35
-103.26
-112.23
-119.84
-126.68
-134.01
-142.85
-153.61
-165.89
-178.77
-191.20
-201.59
-207.09
-202.87
-182.91
-142.46
-81.32
-6.04
70.70
133.59
170.18
175.34
152.72
112.80
68.46
30.62
5.77
-4.33
-1.31
11.54
30.41
51.77
72.91
92.47
110.78
129.68
151.50
177.73
208.37
241.58
274.25
302.84
324.11
335.62
336.01
325.40
305.55
279.88
252.83
228.84
211.16
201.03
197.44
197.83
199.01
198.19
193.59
184.59
171.62
156.04
139.83
125.40
115.18
110.82
112.39
117.79
122.78
121.98
110.52
85.54
47.22
-1.27
-54.79
-107.72
-155.35
-194.62
-224.28
-244.49
-256.16
-260.49
-258.58
-251.48
-240.33
-226.57
-212.17
-199.49
-190.87
-187.99
-191.26
-199.52
-210.24
-220.15
-226.23
-226.58
-220.82
-209.86
-195.23
-178.26
-159.51
-138.83
-115.90
-90.89
-64.79
-39.27
-15.96
4.17
21.21
36.08
49.81
62.95
75.18
85.53
92.95
96.92
97.74
96.44
94.16
91.67
89.13
86.12
82.03
76.46
69.43
61.40
53.08
45.11
37.84
31.29
25.25
19.54
14.24
9.64
6.09
3.76
2.45
1.71
1.19
0.99
1.80
4.77
11.01
21.05
34.61
50.50
67.00
82.22
94.34
101.87
103.93
100.51
92.72
82.84
73.76
67.91
66.27
67.82
70.02
69.99
65.87
57.49
46.24
34.10
22.54
12.04
2.11
-7.89
-18.03
-27.62
-35.68
-41.71
-46.29
-50.83
-56.77
-64.55
-73.04
-79.90
-82.70
-80.15
-72.88
-63.11
-53.60
-46.33
-41.79
-39.13
-36.86
-33.74
-29.23
-23.49
-16.99
-10.24
-3.65
2.38
7.21
9.97
9.65
5.62
-2.05
-12.34
-23.40
-32.99
-39.20
-41.07
-38.84
-33.87
-28.12
-23.37
-20.72
-20.19
-20.90
-21.51
-20.74
-17.77
-12.49
-5.36
2.85
11.33
19.35
26.33
31.81
35.42
36.98
36.63
34.78
32.08
29.12
26.32
23.77
21.28
18.58
15.53
12.22
8.92
5.99
3.72
2.24
1.41
0.91
0.31
-0.82
-2.77
-5.60
-9.07
-12.68
-15.78
-17.74
-18.20
-17.11
-14.77
-11.72
-8.53
-5.61
-3.12
-0.98
1.06
3.15
5.38
7.65
9.75
11.61
13.26
14.87
16.66
18.68
20.77
22.58
23.79
24.20
23.89
23.09
22.05
20.94
19.71
18.17
16.11
13.44
10.19
6.56
2.76
-1.00
-4.52
-7.57
-9.87
-11.09
-10.93
-9.33
-6.42
-2.68
1.31
5.03
8.11
10.48
12.21
13.46
14.31
14.80
14.93
14.71
14.24
13.65
13.02
12.38
11.69
10.92
10.16
9.60
9.44
9.73
10.32
10.87
10.96
10.35
9.00
7.13
4.96
2.68
0.24
-2.51
-5.82
-9.97
-15.27
-21.88
-29.77
-38.42
-46.82
-53.55
-57.26
-57.13
-53.24
-46.67
-39.03
-31.96
-26.57
-23.18
-21.45
-20.68
-20.20
-19.45
-18.10
-15.94
-12.82
-8.69
-3.62
2.02
7.64
12.60
16.37
18.75
20.01
20.75
21.69
23.35
25.78
28.57
30.96
32.26
32.08
30.51
27.96
24.93
21.73
18.41
14.83
10.88
6.61
2.33
-1.48
-4.39
-6.10
-6.55
-5.93
-4.51
-2.63
-0.58
1.44
3.31
4.97
6.41
7.61
8.56
9.22
9.62
9.79
9.80
9.67
9.40
8.90
8.03
6.69
4.90
2.77
0.48
-1.81
-4.07
-6.37
-8.87
-11.65
-14.68
-17.70
-20.33
-22.17
-22.89
-22.27
-20.15
-16.41
-11.01
-4.19
3.42
10.75
16.69
20.45
21.94
21.74
20.79
19.81
18.93
17.70
15.42
11.62
6.41
0.48
-5.28
-10.07
-13.51
-15.69
-17.01
-18.01
-19.17
-20.77
-22.89
-25.41
-28.15
-30.92
-33.57
-35.95
-37.86
-39.02
-39.15
-38.01
-35.54
-31.80
-27.05
-21.58
-15.68
-9.58
-3.44
2.46
7.74
11.85
14.24
14.58
12.94
9.84
6.08
2.54
-0.18
-1.83
-2.53
-2.65
-2.65
-2.99
-4.04
-6.08
-9.24
-13.45
-18.49
-23.96
-29.44
-34.59
-39.21
-43.21
-46.55
-49.19
-50.99
-51.82
-51.53
-50.04
-47.33
-43.50
-38.67
-32.99
-26.64
-19.81
-12.74
-5.69
1.06
7.29
12.80
17.48
21.31
24.35
26.70
28.51
29.92
31.01
31.78
32.18
32.14
31.65
30.80
29.72
28.60
27.55
26.55
25.47
24.12
22.30
19.84
16.68
12.82
8.47
3.95
-0.31
-3.84
-6.29
-7.44
-7.31
-6.02
-3.75
-0.66
3.09
7.30
11.75
16.17
20.38
24.26
27.78
30.86
33.31
34.76
34.82
33.20
29.89
25.25
19.93
14.71
10.24
6.92
4.82
3.64
2.75
1.36
-1.26
-5.59
-11.59
-18.69
-25.91
-32.10
-36.33
-38.14
-37.60
-35.24
-31.92
-28.48
-25.60
-23.49
-21.92
-20.35
-18.29
-15.68
-13.06
-11.36
-11.44
-13.54
-17.09
-20.87
-23.52
-24.14
-22.53
-19.26
-15.27
-11.51
-8.70
-7.10
-6.65
-7.05
-7.89
-8.81
-9.61
-10.35
-11.19
-12.33
-13.81
-15.43
-16.80
-17.48
-17.14
-15.65
-13.07
-9.52
-5.13
-0.00
5.68
11.66
17.48
22.63
26.64
29.30
30.72
31.24
31.32
31.28
31.22
31.02
30.46
29.42
27.92
26.11
24.23
22.42
20.74
19.19
17.72
16.30
14.90
13.41
11.68
9.58
7.05
4.17
1.08
-2.14
-5.55
-9.26
-13.32
-17.52
-21.36
-24.20
-25.53
-25.15
-23.37
-20.71
-17.76
-14.87
-12.09
-9.31
-6.42
-3.42
-0.49
2.18
4.44
6.28
7.77
9.03
10.13
11.05
11.77
12.27
12.56
12.74
12.89
13.01
12.99
12.65
11.77
10.23
8.05
5.35
2.37
-0.62
-3.47
-6.17
-8.85
-11.72
-15.02
-18.82
-22.90
-26.79
-29.85
-31.47
-31.32
-29.42
-26.14
-21.98
-17.46
-12.96
-8.70
-4.81
-1.38
1.53
3.90
5.77
7.30
8.62
9.89
11.17
12.42
13.52
14.33
14.72
14.61
14.05
13.08
11.78
10.22
8.45
6.63
4.95
3.64
2.83
2.48
2.32
1.98
1.04
-0.84
-3.76
-7.65
-12.23
-17.08
-21.65
-25.34
-27.58
-27.92
-26.26
-22.76
-17.95
-12.50
-7.09
-2.24
1.80
4.97
7.42
9.31
10.81
12.06
13.20
14.34
15.57
16.92
18.34
19.68
20.77
21.49
21.77
21.58
20.94
19.83
18.23
16.12
13.54
10.64
7.57
4.50
1.53
-1.38
-4.35
-7.53
-11.03
-14.85
-18.87
-22.79
-26.17
-28.53
-29.45
-28.70
-26.34
-22.71
-18.31
-13.63
-9.07
-4.80
-0.85
2.84
6.28
9.44
12.19
14.41
15.95
16.77
16.93
16.62
16.09
15.54
15.13
14.83
14.57
14.20
13.63
12.78
11.63
10.17
8.34
6.10
3.46
0.46
-2.85
-6.50
-10.50
-14.89
-19.52
-24.02
-27.76
-30.09
-30.48
-28.73
-25.02
-19.81
-13.74
-7.44
-1.50
3.67
7.78
10.78
12.82
14.18
15.16
15.96
16.57
16.87
16.79
16.36
15.83
15.50
15.59
16.09
16.72
17.05
16.70
15.48
13.45
10.84
7.93
4.88
1.77
-1.38
-4.60
-7.83
-11.08
-14.40
-17.95
-21.85
-26.04
-30.12
-33.43
-35.16
-34.75
-32.07
-27.45
-21.67
-15.54
-9.78
-4.79
-0.71
2.50
4.99
6.90
8.35
9.48
10.34
10.98
11.42
11.63
11.62
11.48
11.34
11.40
11.76
12.35
12.96
13.24
12.78
11.21
8.30
4.10
-1.09
-6.73
-12.09
-16.50
-19.52
-21.14
-21.86
-22.54
-24.07
-26.89
-30.82
-34.94
-38.01
-38.85
-36.89
-32.27
-25.76
-18.35
-10.92
-4.04
2.01
7.10
11.06
13.71
14.91
14.75
13.58
11.92
10.37
9.37
9.08
9.43
10.17
10.99
11.65
12.07
12.31
12.48
12.63
12.68
12.37
11.36
9.40
6.42
2.60
-1.59
-5.54
-8.68
-10.59
-11.09
-10.23
-8.20
-5.26
-1.68
2.27
6.28
10.06
13.32
15.88
17.68
18.81
19.37
19.48
19.18
18.45
17.33
15.88
14.26
12.68
11.27
10.06
8.95
7.82
6.56
5.12
3.56
1.92
0.23
-1.52
-3.34
-5.29
-7.43
-9.87
-12.70
-15.90
-19.25
-22.31
-24.51
-25.38
-24.70
-22.62
-19.54
-15.91
-12.08
-8.23
-4.40
-0.71
2.65
5.41
7.40
8.66
9.46
10.16
11.02
12.10
13.19
14.00
14.35
14.22
13.84
13.50
13.40
13.52
13.70
13.68
13.32
12.56
11.50
10.22
8.76
7.05
4.94
2.35
-0.76
-4.27
-8.04
-11.97
-15.98
-20.01
-23.87
-27.23
-29.57
-30.46
-29.68
-27.35
-23.92
-20.00
-16.12
-12.60
-9.45
-6.52
-3.63
-0.64
2.44
5.54
8.46
11.04
13.18
14.82
15.95
16.59
16.74
16.37
15.51
14.25
12.75
11.17
9.63
8.17
6.72
5.16
3.37
1.24
-1.31
-4.35
-7.88
-11.83
-16.05
-20.33
-24.45
-28.18
-31.26
-33.43
-34.36
-33.77
-31.54
-27.86
-23.11
-17.85
-12.60
-7.71
-3.29
0.70
4.32
7.58
10.39
12.56
13.93
14.47
14.31
13.69
12.90
12.12
11.38
10.52
9.35
7.75
5.70
3.33
0.75
-2.01
-5.06
-8.43
-12.07
-15.71
-19.05
-21.89
-24.35
-26.85
-29.87
-33.62
-37.88
-41.88
-44.51
-44.65
-41.60
-35.43
-27.13
-18.37
-10.98
-6.35
-4.83
-5.66
-7.33
-8.25
-7.35
-4.32
0.45
6.18
12.03
17.23
21.16
23.40
23.95
23.24
22.16
21.66
22.35
24.23
26.62
28.53
29.02
27.59
24.22
19.29
13.36
7.00
0.72
-5.08
-10.16
-14.36
-17.68
-20.09
-21.57
-22.06
-21.41
-19.51
-16.38
-12.19
-7.25
-1.96
3.32
8.31
12.81
16.76
20.14
23.01
25.47
27.60
29.50
31.24
32.89
34.51
36.10
37.64
39.07
40.30
41.28
42.05
42.70
43.32
43.87
44.15
43.82
42.54
40.16
36.80
32.79
28.55
24.37
20.37
16.48
12.57
8.52
4.22
-0.38
-5.38
-10.83
-16.62
-22.44
-27.73
-31.85
-34.28
-34.73
-33.29
-30.26
-26.10
-21.21
-15.99
-10.69
-5.54
-0.72
3.59
7.28
10.20
12.26
13.47
13.93
13.89
13.69
13.69
14.14
15.12
16.50
17.99
19.26
19.97
19.85
18.75
16.63
13.72
10.35
7.00
4.03
1.58
-0.51
-2.68
-5.50
-9.41
-14.49
-20.40
-26.34
-31.27
-34.29
-34.81
-32.81
-28.74
-23.35
-17.40
-11.47
-5.88
-0.70
4.05
8.34
12.05
15.04
17.20
18.54
19.15
19.18
18.83
18.30
17.76
17.34
17.10
17.05
17.09
17.06
16.78
16.05
14.77
12.91
10.52
7.67
4.44
0.81
-3.25
-7.82
-12.98
-18.71
-24.92
-31.29
-37.30
-42.24
-45.37
-46.13
-44.33
-40.22
-34.40
-27.67
-20.76
-14.17
-8.08
-2.50
2.62
7.26
11.33
14.75
17.46
19.57
21.17
22.37
23.20
23.60
23.53
23.03
22.29
21.52
20.88
20.34
19.69
18.59
16.81
14.27
11.15
7.81
4.62
1.80
-0.60
-2.77
-4.99
-7.61
-10.96
-15.31
-20.77
-27.11
-33.69
-39.49
-43.36
-44.43
-42.43
-37.83
-31.65
-25.08
-18.97
-13.72
-9.22
-5.21
-1.47
1.96
4.87
7.03
8.35
8.94
9.12
9.20
9.41
9.77
10.12
10.19
9.71
8.52
6.64
4.23
1.49
-1.35
-4.19
-7.04
-10.04
-13.38
-17.37
-22.22
-28.08
-34.84
-42.10
-49.17
-55.17
-59.24
-60.78
-59.66
-56.21
-51.14
-45.33
-39.57
-34.35
-29.88
-26.13
-22.98
-20.32
-18.01
-15.94
-13.86
-11.52
-8.70
-5.42
-1.97
1.19
3.54
4.75
4.78
3.89
2.56
1.32
0.60
0.65
1.49
2.93
4.60
6.08
6.91
6.70
5.15
2.17
-2.09
-7.13
-12.21
-16.42
-18.98
-19.40
-17.61
-13.95
-9.01
-3.36
2.55
8.49
14.35
20.03
25.34
29.96
33.52
35.75
36.62
36.36
35.37
34.06
32.71
31.43
30.19
28.93
27.63
26.35
25.10
23.86
22.55
21.07
19.34
17.32
14.97
12.18
8.74
4.41
-0.97
-7.31
-14.20
-20.84
-26.29
-29.67
-30.45
-28.58
-24.44
-18.69
-12.02
-5.04
1.81
8.22
13.99
19.03
23.36
27.14
30.50
33.54
36.24
38.50
40.26
41.57
42.58
43.45
44.22
44.79
44.93
44.47
43.39
41.86
40.17
38.57
37.15
35.82
34.30
32.27
29.48
25.88
21.56
16.78
11.84
6.97
2.31
-2.14
-6.47
-10.82
-15.36
-20.31
-25.87
-32.20
-39.17
-46.35
-52.92
-57.81
-60.11
-59.29
-55.48
-49.39
-42.07
-34.52
-27.53
-21.42
-16.22
-11.83
-8.12
-5.06
-2.68
-1.01
0.10
0.93
1.93
3.60
6.31
10.23
15.21
20.70
25.90
29.95
32.12
32.08
29.97
26.37
22.05
17.72
13.76
10.23
6.89
3.34
-0.76
-5.70
-11.63
-18.38
-25.42
-31.79
-36.28
-37.73
-35.54
-29.86
-21.62
-12.24
-3.12
4.79
11.13
16.05
19.92
23.11
25.80
28.03
29.71
30.77
31.19
30.99
30.25
29.11
27.71
26.26
24.89
23.68
22.63
21.66
20.64
19.42
17.87
15.85
13.29
10.11
6.33
1.98
-2.90
-8.29
-14.27
-20.89
-28.07
-35.40
-42.10
-47.14
-49.57
-48.86
-45.10
-39.01
-31.64
-23.98
-16.65
-9.85
-3.46
2.63
8.41
13.69
18.25
21.95
24.77
26.84
28.27
29.14
29.51
29.38
28.79
27.84
26.63
25.26
23.77
22.05
19.96
17.34
14.08
10.26
6.09
1.82
-2.30
-6.19
-9.93
-13.81
-18.22
-23.52
-29.89
-37.11
-44.51
-51.01
-55.42
-56.83
-54.92
-50.10
-43.35
-35.87
-28.71
-22.50
-17.39
-13.17
-9.54
-6.22
-3.12
-0.27
2.25
4.33
5.94
7.12
8.04
8.86
9.78
10.99
12.59
14.61
16.93
19.39
21.76
23.91
25.80
27.53
29.24
30.92
32.38
33.13
32.54
30.01
25.24
18.45
10.47
2.63
-3.62
-7.01
-6.88
-3.32
2.89
10.58
18.59
26.07
32.57
37.97
42.28
45.43
47.30
47.77
46.89
45.02
42.63
40.20
38.02
36.10
34.30
32.42
30.37
28.15
25.78
23.25
20.41
17.11
13.16
8.51
3.26
-2.35
-7.96
-13.25
-18.09
-22.62
-27.22
-32.31
-38.09
-44.31
-50.27
-55.04
-57.77
-58.01
-55.84
-51.71
-46.31
-40.26
-34.13
-28.36
-23.28
-19.15
-15.97
-13.62
-11.73
-9.88
-7.77
-5.31
-2.68
-0.32
1.30
1.86
1.35
0.11
-1.29
-2.23
-2.32
-1.48
-0.06
1.28
1.71
0.52
-2.72
-7.98
-14.66
-21.77
-27.98
-32.10
-33.30
-31.43
-26.96
-20.81
-14.02
-7.51
-1.80
2.89
6.63
9.56
11.86
13.67
15.01
15.91
16.33
16.28
15.78
14.95
13.97
13.05
12.40
12.14
12.28
12.72
13.20
13.41
13.04
11.89
9.91
7.31
4.43
1.56
-1.18
-3.98
-7.29
-11.60
-17.22
-24.00
-31.25
-37.86
-42.58
-44.39
-42.91
-38.43
-31.86
-24.44
-17.30
-11.21
-6.46
-2.94
-0.28
1.90
3.86
5.70
7.42
9.01
10.49
11.96
13.48
15.06
16.58
17.82
18.57
18.69
18.20
17.26
16.11
14.90
13.65
12.22
10.45
8.23
5.59
2.70
-0.25
-3.16
-6.17
-9.53
-13.49
-18.03
-22.69
-26.61
-28.71
-28.16
-24.59
-18.38
-10.41
-1.82
6.41
13.67
19.78
24.85
29.05
32.53
35.31
37.41
38.80
39.52
39.56
38.94
37.65
35.70
33.18
30.25
27.12
24.01
21.14
18.68
16.61
14.75
12.73
10.09
6.44
1.65
-4.13
-10.53
-17.13
-23.76
-30.57
-37.96
-46.40
-56.10
-66.77
-77.58
-87.31
-94.67
-98.65
-98.85
-95.57
-89.71
-82.42
-74.78
-67.42
-60.47
-53.69
-46.61
-38.90
-30.47
-21.54
-12.55
-4.06
3.45
9.64
14.47
18.07
20.74
22.79
24.47
25.89
27.11
28.14
29.04
29.89
30.70
31.39
31.76
31.56
30.60
28.82
26.27
23.12
19.60
16.01
12.73
10.25
9.05
9.51
11.67
15.19
19.47
23.76
27.51
30.44
32.61
34.20
35.40
36.28
36.80
36.91
36.61
36.01
35.23
34.44
33.70
33.07
32.51
31.94
31.19
30.08
28.43
26.18
23.41
20.35
17.28
14.41
11.81
9.38
6.90
4.11
0.76
-3.32
-8.14
-13.41
-18.62
-22.98
-25.73
-26.33
-24.73
-21.37
-17.09
-12.74
-8.97
-5.99
-3.75
-1.99
-0.47
0.92
2.18
3.31
4.31
5.26
6.22
7.20
8.14
8.93
9.45
9.63
9.52
9.21
8.80
8.32
7.67
6.69
5.25
3.36
1.21
-0.97
-2.98
-4.85
-6.75
-8.98
-11.79
-15.28
-19.34
-23.69
-27.86
-31.28
-33.34
-33.61
-31.94
-28.61
-24.22
-19.41
-14.73
-10.38
-6.29
-2.29
1.70
5.57
9.09
12.06
14.40
16.22
17.76
19.23
20.68
22.04
23.11
23.74
23.89
23.66
23.27
22.92
22.71
22.56
22.21
21.32
19.65
17.15
14.02
10.65
7.43
4.61
2.15
-0.20
-2.80
-5.94
-9.78
-14.25
-19.14
-24.07
-28.54
-31.92
-33.62
-33.22
-30.70
-26.49
-21.32
-16.00
-11.10
-6.82
-3.07
0.38
3.69
6.87
9.83
12.50
14.86
16.94
18.72
20.08
20.87
21.00
20.52
19.67
18.81
18.16
17.77
17.41
16.76
15.52
13.59
11.06
8.12
4.99
1.78
-1.48
-4.77
-8.11
-11.54
-15.14
-19.02
-23.18
-27.36
-31.04
-33.52
-34.15
-32.61
-29.06
-24.09
-18.50
-12.99
-8.04
-3.82
-0.32
2.48
4.53
5.77
6.23
6.20
6.23
6.98
8.96
12.17
16.06
19.62
21.78
21.86
19.78
16.09
11.63
7.18
3.14
-0.42
-3.61
-6.57
-9.34
-11.99
-14.70
-17.78
-21.61
-26.39
-31.97
-37.73
-42.76
-46.09
-46.97
-45.16
-40.96
-35.07
-28.40
-21.76
-15.67
-10.25
-5.40
-0.92
3.26
7.11
10.48
13.31
15.62
17.51
19.12
20.50
21.58
22.30
22.64
22.73
22.74
22.82
23.04
23.29
23.36
23.04
22.23
20.91
19.15
17.06
14.73
12.21
9.49
6.46
3.01
-1.02
-5.64
-10.75
-16.02
-20.91
-24.84
-27.33
-28.08
-27.05
-24.50
-20.79
-16.39
-11.71
-7.03
-2.50
1.91
6.24
10.54
14.79
18.96
22.95
26.71
30.12
33.00
35.09
36.09
35.83
34.39
32.05
29.27
26.47
23.90
21.62
19.50
17.38
15.16
12.74
10.10
7.23
4.11
0.81
-2.64
-6.20
-9.89
-13.86
-18.31
-23.46
-29.30
-35.57
-41.63
-46.63
-49.72
-50.37
-48.58
-44.83
-39.89
-34.49
-29.14
-24.02
-19.15
-14.57
-10.47
-7.18
-4.96
-3.79
-3.34
-3.02
-2.24
-0.64
1.71
4.37
6.66
7.98
8.01
6.79
4.72
2.30
-0.05
-2.13
-3.98
-5.79
-7.69
-9.75
-11.94
-14.21
-16.55
-19.00
-21.51
-23.84
-25.50
-25.89
-24.57
-21.42
-16.73
-11.09
-5.22
0.33
5.25
9.41
12.88
15.71
17.99
19.75
21.07
22.04
22.73
23.23
23.57
23.76
23.77
23.57
23.09
22.28
21.11
19.54
17.59
15.27
12.65
9.82
6.89
3.90
0.81
-2.51
-6.27
-10.60
-15.53
-20.85
-26.18
-31.02
-34.82
-37.15
-37.73
-36.55
-33.84
-30.04
-25.71
-21.33
-17.24
-13.51
-10.06
-6.70
-3.34
0.02
3.27
6.22
8.71
10.61
11.92
12.71
13.10
13.25
13.29
13.32
13.39
13.48
13.51
13.35
12.86
11.93
10.54
8.79
6.91
5.13
3.63
2.24
0.54
-2.13
-6.34
-12.28
-19.55
-27.16
-33.81
-38.31
-39.97
-38.83
-35.47
-30.78
-25.56
-20.38
-15.50
-11.03
-6.99
-3.44
-0.46
1.98
3.92
5.53
6.90
8.09
9.05
9.66
9.80
9.40
8.48
7.11
5.44
3.57
1.53
-0.72
-3.29
-6.20
-9.38
-12.66
-15.88
-18.97
-22.04
-25.37
-29.27
-33.95
-39.34
-45.07
-50.45
-54.72
-57.15
-57.34
-55.27
-51.33
-46.21
-40.62
-35.23
-30.38
-26.20
-22.56
-19.24
-16.00
-12.60
-8.93
-4.91
-0.65
3.69
7.90
11.81
15.35
18.52
21.46
24.40
27.60
31.22
35.31
39.63
43.75
47.14
49.42
50.49
50.56
49.94
48.85
47.27
45.02
41.90
37.88
33.13
28.01
22.85
17.96
13.60
10.04
7.52
6.20
6.00
6.63
7.61
8.47
8.88
8.78
8.30
7.64
6.95
6.22
5.30
3.97
2.06
-0.44
-3.37
-6.43
-9.28
-11.65
-13.40
-14.45
-14.74
-14.10
-12.33
-9.13
-4.41
1.71
8.82
16.31
23.56
30.18
36.08
41.49
46.75
52.12
57.61
62.97
67.80
71.75
74.66
76.59
77.69
78.13
77.95
77.03
75.13
71.84
66.63
58.93
48.38
35.09
19.85
4.16
-10.10
-21.16
-27.89
-29.99
-27.91
-22.59
-15.06
-6.36
2.52
10.62
17.03
21.18
22.94
22.75
21.41
19.80
18.60
18.12
18.34
19.06
20.00
20.86
21.30
20.99
19.58
16.94
13.22
8.82
4.31
0.30
-2.73
-4.49
-4.86
-3.90
-1.85
1.03
4.41
8.04
11.87
15.95
20.30
24.76
28.85
31.78
32.71
30.99
26.36
19.08
9.67
-1.17
-12.79
-24.66
-36.37
-47.58
-58.05
-67.65
-76.31
-84.07
-90.93
-96.93
-102.18
-106.90
-111.40
-116.02
-120.92
-125.91
-130.44
-133.63
-134.50
-132.26
-126.50
-117.29
-105.15
-91.01
-75.95
-61.07
-47.24
-35.02
-24.68
-16.23
-9.59
-4.63
-1.17
1.04
2.40
3.49
4.98
7.50
11.42
16.70
22.68
28.21
31.96
32.79
30.38
25.32
19.08
13.39
9.65
8.34
8.85
10.00
10.45
9.39
6.75
3.11
-0.50
-2.73
-1.74
4.41
16.94
35.03
55.07
71.35
78.02
71.83
53.79
28.89
3.85
-15.90
-28.21
-34.23
-36.68
-37.66
-37.51
-35.24
-29.88
-21.78
-12.72
-5.13
-0.75
0.07
-1.71
-4.37
-6.46
-7.40
-7.56
-7.91
-9.35
-12.20
-16.05
-19.96
-23.05
-25.04
-26.44
-28.20
-31.17
-35.47
-40.19
-43.82
-44.76
-42.17
-36.32
-28.46
-20.32
-13.40
-8.50
-5.58
-4.03
-3.01
-1.85
-0.23
1.84
4.15
6.54
8.95
11.48
14.18
17.06
19.93
22.48
24.45
25.67
26.17
26.14
25.82
25.38
24.88
24.29
23.61
22.87
22.11
21.34
20.45
19.23
17.35
14.61
10.99
6.83
2.74
-0.50
-2.18
-1.95
0.09
3.37
7.06
10.37
12.81
14.34
15.30
16.12
17.16
18.52
20.04
21.51
22.78
23.80
24.67
25.48
26.25
26.90
27.32
27.43
27.29
27.01
26.75
26.60
26.52
26.31
25.73
24.50
22.45
19.56
15.90
11.69
7.19
2.66
-1.62
-5.50
-9.02
-12.37
-15.93
-20.12
-25.23
-31.29
-37.89
-44.28
-49.47
-52.52
-52.80
-50.23
-45.30
-38.90
-32.02
-25.43
-19.51
-14.25
-9.42
-4.83
-0.45
3.64
7.35
10.66
13.61
16.25
18.53
20.35
21.65
22.41
22.75
22.83
22.77
22.66
22.49
22.17
21.56
20.47
18.70
16.19
13.07
9.68
6.46
3.78
1.78
0.29
-1.04
-2.59
-4.58
-6.99
-9.42
-11.27
-11.81
-10.46
-6.94
-1.44
5.39
12.63
19.29
24.71
28.61
31.16
32.78
34.00
35.15
36.36
37.51
38.43
39.06
39.52
40.11
41.07
42.52
44.38
46.53
48.85
51.07
52.54
52.01
47.87
38.82
24.59
6.43
-13.13
-31.24
-45.71
-55.75
-61.95
-65.61
-68.02
-70.06
-72.23
-74.87
-78.40
-83.17
-89.07
-95.29
-100.35
-102.62
-100.91
-95.01
-85.76
-74.65
-63.22
-52.49
-42.77
-33.82
-25.27
-16.97
-9.13
-2.20
3.46
7.74
10.90
13.41
15.81
18.42
21.34
24.38
27.20
29.43
30.78
31.13
30.43
28.74
26.13
22.72
18.67
14.17
9.46
4.71
0.01
-4.72
-9.58
-14.64
-19.76
-24.54
-28.33
-30.37
-30.05
-27.09
-21.67
-14.38
-6.04
2.54
10.77
18.33
25.09
30.98
35.90
39.81
42.75
44.92
46.60
48.10
49.54
50.85
51.83
52.34
52.47
52.50
52.72
53.24
53.85
54.02
53.17
50.94
47.32
42.67
37.50
32.25
26.99
21.45
15.07
7.31
-2.11
-12.92
-24.33
-35.20
-44.22
-50.23
-52.40
-50.49
-44.98
-37.19
-28.99
-22.31
-18.53
-17.92
-19.67
-22.28
-24.40
-25.41
-25.58
-25.75
-26.60
-28.24
-30.07
-31.12
-30.64
-28.48
-25.20
-21.74
-19.10
-17.87
-18.05
-19.11
-20.33
-21.18
-21.49
-21.53
-21.78
-22.67
-24.40
-26.91
-30.04
-33.62
-37.48
-41.28
-44.46
-46.22
-45.80
-42.70
-36.97
-29.27
-20.58
-11.92
-3.98
2.97
9.06
14.62
19.87
24.83
29.30
32.95
35.54
36.99
37.43
37.16
36.44
35.47
34.27
32.76
30.84
28.57
26.08
23.58
21.21
18.94
16.57
13.79
10.35
6.05
0.92
-4.90
-11.08
-17.05
-22.10
-25.46
-26.56
-25.16
-21.55
-16.35
-10.38
-4.31
1.46
6.81
11.79
16.38
20.44
23.70
25.96
27.14
27.42
27.12
26.54
25.88
25.13
24.13
22.67
20.66
18.18
15.44
12.68
10.05
7.51
4.92
2.09
-1.20
-5.04
-9.53
-14.72
-20.53
-26.69
-32.63
-37.53
-40.53
-41.08
-39.09
-34.99
-29.56
-23.58
-17.58
-11.77
-6.12
-0.55
4.90
10.07
14.73
18.72
22.00
24.62
26.68
28.23
29.29
29.91
30.21
30.39
30.63
31.01
31.40
31.52
31.04
29.76
27.68
24.97
21.87
18.59
15.24
11.80
8.19
4.30
-0.06
-5.02
-10.63
-16.60
-22.33
-26.90
-29.36
-29.09
-26.05
-20.86
-14.55
-8.22
-2.62
1.99
5.74
8.97
11.94
14.71
17.11
18.94
20.01
20.35
20.11
19.51
18.81
18.18
17.67
17.28
16.92
16.52
15.98
15.25
14.32
13.16
11.76
10.12
8.24
6.08
3.55
0.50
-3.23
-7.82
-13.26
-19.31
-25.45
-30.84
-34.57
-35.88
-34.47
-30.62
-25.14
-19.07
-13.29
-8.26
-4.00
-0.24
3.24
6.47
9.22
11.24
12.42
12.91
13.05
13.18
13.47
13.72
13.55
12.56
10.54
7.62
4.25
0.96
-1.82
-3.99
-5.85
-7.86
-10.56
-14.25
-19.01
-24.57
-30.41
-35.79
-39.81
-41.61
-40.58
-36.59
-30.13
-22.14
-13.77
-5.95
0.91
6.90
12.44
17.88
23.30
28.40
32.73
35.94
37.93
38.95
39.38
39.53
39.50
39.14
38.30
36.87
34.90
32.58
30.06
27.43
24.67
21.69
18.42
14.89
11.15
7.29
3.29
-0.95
-5.67
-11.17
-17.65
-24.98
-32.57
-39.39
-44.15
-45.75
-43.72
-38.37
-30.68
-22.01
-13.49
-5.82
0.86
6.80
12.31
17.53
22.39
26.70
30.31
33.21
35.52
37.45
39.15
40.64
41.88
42.74
43.20
43.27
43.06
42.69
42.17
41.38
40.17
38.33
35.79
32.62
29.02
25.25
21.42
17.50
13.31
8.66
3.56
-1.80
-7.05
-11.86
-16.05
-19.75
-23.32
-27.25
-31.98
-37.77
-44.52
-51.73
-58.49
-63.69
-66.27
-65.58
-61.59
-54.86
-46.40
-37.29
-28.38
-20.20
-12.90
-6.42
-0.65
4.53
9.21
13.43
17.22
20.58
23.47
25.92
27.99
29.77
31.38
32.87
34.22
35.34
36.06
36.24
35.81
34.77
33.21
31.27
29.08
26.71
24.18
21.49
18.57
15.35
11.82
7.96
3.85
-0.43
-4.76
-9.11
-13.52
-18.19
-23.43
-29.52
-36.63
-44.54
-52.56
-59.60
-64.36
-65.75
-63.29
-57.27
-48.69
-38.87
-29.04
-20.00
-12.05
-5.08
1.17
6.86
12.01
16.50
20.23
23.22
25.56
27.38
28.78
29.78
30.31
30.31
29.75
28.66
27.10
25.05
22.47
19.23
15.26
10.60
5.43
0.10
-5.03
-9.63
-13.58
-16.98
-20.17
-23.60
-27.75
-32.93
-39.00
-45.34
-50.84
-54.27
-54.63
-51.59
-45.59
-37.69
-29.16
-20.99
-13.71
-7.38
-1.78
3.33
8.01
12.22
15.85
18.85
21.29
23.25
24.83
26.08
27.01
27.62
27.90
27.88
27.56
26.91
25.82
24.14
21.76
18.67
15.00
11.02
6.98
3.07
-0.70
-4.45
-8.48
-13.13
-18.76
-25.49
-33.06
-40.65
-46.99
-50.74
-50.89
-47.21
-40.29
-31.31
-21.47
-11.73
-2.52
6.04
13.96
21.09
27.12
31.71
34.70
36.24
36.74
36.72
36.63
36.65
36.75
36.68
36.10
34.80
32.74
30.11
27.23
24.46
21.98
19.79
17.70
15.39
12.56
8.96
4.45
-1.01
-7.22
-13.75
-19.82
-24.42
-26.61
-25.80
-22.10
-16.24
-9.36
-2.51
3.64
8.97
13.68
17.98
21.82
24.83
26.57
26.79
25.67
23.75
21.67
19.86
18.31
16.65
14.29
10.88
6.45
1.46
-3.36
-7.39
-10.36
-12.60
-14.88
-18.14
-23.07
-29.95
-38.33
-47.25
-55.44
-61.61
-64.61
-63.56
-58.10
-48.64
-36.66
-24.58
-15.12
-10.29
-10.52
-14.43
-19.48
-23.25
-24.47
-23.47
-21.58
-20.06
-19.27
-18.59
-16.99
-14.00
-10.12
-6.63
-4.90
-5.57
-8.25
-11.80
-14.85
-16.56
-16.88
-16.45
-16.22
-16.97
-19.01
-22.19
-26.04
-29.98
-33.47
-35.97
-36.90
-35.74
-32.06
-25.82
-17.43
-7.64
2.64
12.63
21.84
30.05
37.25
43.46
48.69
52.98
56.37
58.96
60.88
62.18
62.83
62.79
62.00
60.47
58.34
55.82
53.11
50.37
47.61
44.69
41.41
37.53
32.93
27.69
22.07
16.38
10.91
5.76
0.79
-4.30
-9.99
-16.71
-24.70
-33.86
-43.62
-52.93
-60.55
-65.29
-66.50
-64.26
-59.35
-52.95
-46.18
-39.78
-33.93
-28.45
-23.07
-17.63
-12.26
-7.23
-2.77
1.01
4.21
7.03
9.66
12.18
14.55
16.64
18.36
19.62
20.40
20.68
20.38
19.43
17.83
15.66
13.08
10.28
7.35
4.25
0.82
-3.21
-8.05
-13.79
-20.25
-26.94
-33.04
-37.57
-39.63
-38.67
-34.71
-28.39
-20.72
-12.82
-5.54
0.75
6.09
10.77
15.00
18.76
21.78
23.73
24.45
24.06
22.94
21.62
20.47
19.56
18.70
17.54
15.79
13.42
10.67
7.95
5.57
3.62
1.95
0.18
-2.07
-5.06
-8.86
-13.49
-18.83
-24.70
-30.56
-35.57
-38.67
-38.86
-35.67
-29.39
-20.98
-11.79
-3.08
4.31
10.13
14.59
18.12
21.11
23.79
26.14
28.01
29.18
29.57
29.24
28.37
27.22
25.93
24.52
22.89
20.93
18.59
15.88
12.85
9.54
5.93
1.94
-2.49
-7.36
-12.58
-18.01
-23.50
-29.10
-35.04
-41.68
-49.26
-57.59
-65.87
-72.88
-77.39
-78.66
-76.80
-72.71
-67.71
-62.95
-59.11
-56.25
-54.14
-52.54
-51.44
-51.05
-51.66
-53.44
-56.33
-60.11
-64.52
-69.39
-74.62
-80.10
-85.65
-90.88
-95.06
-97.30
-96.54
-91.86
-82.72
-69.06
-51.31
-30.29
-7.05
17.32
41.75
65.21
86.71
105.27
119.96
130.11
135.34
135.75
131.82
124.40
114.41
102.83
90.65
78.82
68.33
59.97
54.24
51.06
49.86
49.85
50.41
51.32
52.81
55.17
58.47
62.38
66.29
69.56
71.84
73.17
73.78
73.93
73.69
72.96
71.62
69.65
67.24
64.68
62.31
60.31
58.72
57.43
56.25
55.07
53.84
52.60
51.51
50.65
49.96
49.12
47.53
44.43
39.18
31.62
22.30
12.48
3.73
-2.61
-5.95
-6.63
-5.76
-4.63
-4.31
-5.28
-7.52
-10.81
-14.96
-19.87
-25.43
-31.37
-37.10
-41.91
-45.18
-46.61
-46.42
-45.18
-43.65
-42.43
-41.78
-41.55
-41.29
-40.58
-39.16
-37.21
-35.21
-33.79
-33.45
-34.46
-36.77
-40.14
-44.22
-48.49
-52.25
-54.64
-54.79
-52.10
-46.50
-38.60
-29.43
-20.17
-11.73
-4.56
1.34
6.18
10.20
13.47
15.98
17.66
18.55
18.71
18.27
17.32
15.87
13.89
11.44
8.65
5.79
3.10
0.73
-1.37
-3.48
-5.97
-9.15
-13.18
-17.96
-23.20
-28.48
-33.48
-38.11
-42.60
-47.42
-53.03
-59.61
-66.77
-73.60
-78.81
-81.17
-79.93
-75.03
-67.16
-57.47
-47.19
-37.27
-28.25
-20.20
-12.99
-6.45
-0.57
4.56
8.79
12.14
14.82
17.17
19.44
21.66
23.54
24.75
25.03
24.45
23.35
22.18
21.26
20.66
20.19
19.51
18.22
15.98
12.49
7.53
0.99
-6.91
-15.59
-24.00
-30.87
-34.92
-35.27
-31.63
-24.46
-14.76
-3.84
7.06
16.98
25.32
31.88
36.65
39.81
41.60
42.34
42.39
42.07
41.65
41.28
40.99
40.69
40.26
39.63
38.78
37.77
36.66
35.42
33.91
31.91
29.23
25.79
21.75
17.43
13.18
9.24
5.69
2.50
-0.34
-2.73
-4.52
-5.44
-5.34
-4.12
-1.78
1.63
5.97
11.01
16.35
21.55
26.17
29.95
32.83
34.89
36.19
36.70
36.26
34.70
31.97
28.23
23.78
19.00
14.19
9.52
5.03
0.65
-3.64
-7.89
-12.03
-16.05
-19.95
-23.80
-27.74
-31.97
-36.69
-42.00
-47.94
-54.29
-60.60
-66.14
-70.06
-71.58
-70.17
-65.79
-58.80
-49.90
-39.90
-29.53
-19.48
-10.30
-2.42
3.89
8.68
12.28
15.24
18.08
21.09
24.23
27.21
29.72
31.64
33.12
34.47
35.97
37.76
39.65
41.23
42.03
41.68
40.07
37.42
34.20
31.00
28.30
26.28
24.64
22.58
18.93
12.42
2.13
-12.02
-28.96
-46.48
-61.79
-72.25
-76.35
-74.08
-66.87
-56.86
-46.09
-35.83
-26.46
-17.81
-9.64
-1.99
4.83
10.47
14.88
18.41
21.63
25.00
28.63
32.24
35.25
37.15
37.72
37.08
35.65
33.85
32.01
30.19
28.28
26.11
23.55
20.60
17.35
13.94
10.40
6.67
2.56
-2.20
-7.72
-13.81
-19.86
-24.91
-27.93
-28.23
-25.72
-20.90
-14.69
-7.95
-1.21
5.43
12.18
19.25
26.52
33.54
39.62
44.12
46.72
47.54
47.02
45.74
44.14
42.37
40.30
37.65
34.25
30.13
25.58
21.04
16.97
13.56
10.64
7.74
4.13
-0.87
-7.72
-16.40
-26.37
-36.62
-45.87
-52.78
-56.32
-55.97
-51.92
-44.94
-36.25
-27.15
-18.62
-11.22
-5.00
0.24
4.76
8.69
12.04
14.79
16.99
18.87
20.70
22.69
24.94
27.33
29.63
31.67
33.32
34.52
35.26
35.46
34.99
33.75
31.71
29.06
26.15
23.35
20.88
18.69
16.53
14.10
11.37
8.59
6.30
4.92
4.64
5.31
6.53
7.99
9.66
11.72
14.12
16.28
17.20
15.82
11.68
5.16
-2.69
-10.76
-18.45
-25.86
-33.46
-41.47
-49.53
-56.68
-61.96
-64.88
-65.77
-65.52
-65.10
-65.12
-65.57
-66.09
-66.22
-65.72
-64.61
-63.25
-62.07
-61.43
-61.53
-62.39
-63.94
-66.03
-68.45
-70.77
-72.38
-72.47
-70.31
-65.49
-58.08
-48.66
-38.10
-27.31
-17.04
-7.77
0.29
7.16
13.02
18.13
22.76
27.07
31.06
34.54
37.28
39.20
40.41
41.19
41.92
42.78
43.71
44.44
44.56
43.71
41.69
38.56
34.63
30.48
26.86
24.47
23.73
24.62
26.57
28.73
30.18
30.30
29.01
26.78
24.39
22.51
21.45
20.95
20.52
19.76
18.69
17.86
17.89
19.12
21.21
23.18
23.81
22.17
18.06
11.98
4.88
-2.25
-8.79
-14.49
-19.39
-23.65
-27.33
-30.41
-32.84
-34.61
-35.86
-36.83
-37.77
-38.82
-39.96
-41.08
-42.12
-43.21
-44.66
-46.76
-49.51
-52.46
-54.81
-55.61
-54.18
-50.32
-44.35
-36.96
-28.91
-20.82
-13.06
-5.82
0.82
6.77
11.90
16.10
19.32
21.63
23.17
24.14
24.76
25.18
25.49
25.62
25.38
24.54
22.95
20.60
17.74
14.67
11.69
8.93
6.31
3.57
0.33
-3.72
-8.76
-14.66
-20.89
-26.64
-30.95
-33.02
-32.45
-29.36
-24.32
-18.16
-11.60
-5.12
1.13
7.19
13.09
18.74
23.85
28.05
31.07
32.81
33.47
33.41
32.97
32.41
31.76
30.96
29.97
28.84
27.70
26.65
25.70
24.79
23.80
22.62
21.21
19.50
17.46
14.99
11.94
8.15
3.54
-1.79
-7.51
-13.01
-17.54
-20.36
-21.00
-19.32
-15.47
-9.74
-2.44
6.12
15.49
25.05
34.02
41.64
47.15
49.85
49.05
44.39
36.06
25.12
13.40
3.01
-4.49
-8.70
-10.46
-11.34
-12.66
-14.95
-17.87
-20.68
-22.94
-24.72
-26.56
-28.91
-31.82
-34.88
-37.58
-39.69
-41.41
-43.35
-46.16
-50.14
-54.91
-59.54
-62.82
-63.67
-61.59
-56.77
-50.00
-42.34
-34.72
-27.66
-21.25
-15.30
-9.64
-4.30
0.45
4.26
6.91
8.48
9.30
9.73
10.05
10.20
9.99
9.14
7.56
5.37
2.89
0.44
-1.77
-3.76
-5.71
-7.87
-10.53
-13.91
-18.20
-23.45
-29.45
-35.64
-41.11
-44.79
-45.79
-43.75
-39.02
-32.47
-25.22
-18.20
-11.91
-6.43
-1.62
2.69
6.51
9.75
12.26
14.06
15.32
16.32
17.30
18.38
19.52
20.52
21.25
21.59
21.50
20.97
20.02
18.63
16.86
14.83
12.72
10.71
8.81
6.83
4.37
0.96
-3.68
-9.52
-16.02
-22.27
-27.19
-29.81
-29.58
-26.49
-21.05
-14.15
-6.79
0.19
6.23
11.15
15.06
18.22
20.92
23.35
25.61
27.69
29.52
31.03
32.14
32.80
32.96
32.60
31.72
30.44
28.88
27.16
25.36
23.44
21.33
18.97
16.39
13.73
11.18
8.94
7.04
5.37
3.65
1.54
-1.30
-5.00
-9.41
-14.08
-18.23
-20.94
-21.44
-19.34
-14.81
-8.58
-1.60
5.16
11.07
15.91
19.78
22.90
25.39
27.31
28.65
29.49
29.97
30.26
30.46
30.54
30.37
29.82
28.88
27.65
26.35
25.14
24.02
22.84
21.34
19.27
16.56
13.37
9.98
6.72
3.81
1.19
-1.41
-4.43
-8.22
-12.85
-17.94
-22.69
-26.07
-27.21
-25.64
-21.50
-15.46
-8.51
-1.61
4.57
9.72
13.87
17.21
19.98
22.29
24.17
25.60
26.53
27.02
27.18
27.19
27.18
27.15
26.96
26.37
25.22
23.49
21.31
18.94
16.59
14.36
12.17
9.80
7.02
3.66
-0.31
-4.84
-9.81
-15.00
-20.09
-24.59
-27.93
-29.52
-29.01
-26.44
-22.19
-16.94
-11.37
-5.97
-0.96
3.65
7.83
11.48
14.34
16.25
17.17
17.32
17.09
16.87
16.83
16.86
16.63
15.77
14.08
11.62
8.71
5.76
3.06
0.67
-1.58
-3.94
-6.67
-9.92
-13.75
-18.14
-22.94
-27.81
-32.16
-35.20
-36.24
-34.91
-31.39
-26.35
-20.68
-15.14
-10.13
-5.67
-1.57
2.32
5.96
9.13
11.55
13.07
13.74
13.82
13.66
13.53
13.53
13.59
13.49
12.99
11.98
10.49
8.63
6.58
4.43
2.22
-0.09
-2.51
-5.06
-7.74
-10.59
-13.70
-17.20
-21.17
-25.51
-29.84
-33.51
-35.72
-35.82
-33.53
-29.06
-23.09
-16.45
-9.89
-3.81
1.75
6.92
11.84
16.46
20.55
23.87
26.25
27.79
28.74
29.46
30.21
31.06
31.89
32.48
32.62
32.29
31.62
30.84
30.10
29.40
28.51
27.11
24.91
21.84
18.09
14.05
10.15
6.71
3.79
1.25
-1.23
-4.01
-7.42
-11.60
-16.44
-21.51
-26.10
-29.37
-30.57
-29.39
-26.01
-21.09
-15.54
-10.19
-5.58
-1.82
1.22
3.81
6.05
7.92
9.23
9.83
9.63
8.78
7.57
6.34
5.39
4.82
4.50
4.11
3.31
1.92
-0.01
-2.22
-4.40
-6.35
-8.09
-9.88
-12.03
-14.85
-18.48
-22.87
-27.77
-32.76
-37.22
-40.52
-42.07
-41.58
-39.11
-35.09
-30.15
-24.90
-19.78
-15.01
-10.66
-6.76
-3.35
-0.52
1.67
3.22
4.16
4.59
4.62
4.36
3.96
3.51
3.04
2.45
1.57
0.27
-1.50
-3.62
-5.90
-8.14
-10.17
-11.98
-13.56
-15.04
-16.58
-18.41
-20.70
-23.53
-26.68
-29.63
-31.73
-32.35
-31.13
-28.11
-23.72
-18.55
-13.23
-8.21
-3.76
0.02
3.18
5.84
8.18
10.31
12.30
14.09
15.55
16.57
17.08
17.16
16.96
16.63
16.33
16.10
15.94
15.74
15.35
14.62
13.46
11.91
10.08
8.17
6.31
4.48
2.54
0.26
-2.57
-6.03
-10.01
-14.21
-18.20
-21.41
-23.34
-23.59
-22.08
-19.06
-15.05
-10.75
-6.74
-3.36
-0.68
1.46
3.33
5.16
7.08
9.12
11.22
13.24
15.07
16.60
17.78
18.63
19.20
19.53
19.63
19.47
19.00
18.23
17.11
15.63
13.75
11.50
8.98
6.40
4.00
1.95
0.27
-1.28
-3.03
-5.36
-8.46
-12.21
-16.21
-19.86
-22.56
-23.87
-23.71
-22.23
-19.78
-16.73
-13.38
-9.91
-6.43
-3.02
0.21
3.07
5.32
6.79
7.37
7.22
6.65
6.09
5.89
6.17
6.72
7.13
6.98
6.03
4.37
2.33
0.31
-1.43
-2.84
-4.08
-5.39
-7.00
-9.11
-11.79
-15.06
-18.83
-22.82
-26.57
-29.55
-31.23
-31.28
-29.69
-26.69
-22.74
-18.37
-14.04
-10.10
-6.71
-3.90
-1.55
0.47
2.25
3.79
5.04
5.97
6.61
7.09
7.54
8.02
8.48
8.73
8.55
7.76
6.38
4.58
2.64
0.81
-0.76
-2.12
-3.46
-5.06
-7.16
-9.92
-13.37
-17.37
-21.67
-25.87
-29.46
-31.89
-32.71
-31.71
-28.98
-24.94
-20.18
-15.28
-10.69
-6.59
-2.96
0.32
3.34
6.10
8.52
10.50
11.98
13.01
13.74
14.30
14.78
15.19
15.48
15.54
15.30
14.69
13.70
12.38
10.81
9.09
7.35
5.68
4.07
2.44
0.65
-1.51
-4.25
-7.72
-11.94
-16.67
-21.41
-25.49
-28.16
-28.90
-27.56
-24.45
-20.25
-15.73
-11.50
-7.89
-4.85
-2.18
0.38
2.95
5.49
7.84
9.81
11.29
12.26
12.86
13.27
13.66
14.13
14.67
15.16
15.47
15.49
15.19
14.65
13.97
13.18
12.26
11.07
9.50
7.49
5.12
2.51
-0.29
-3.39
-6.92
-10.91
-15.07
-18.79
-21.32
-22.07
-20.93
-18.31
-14.91
-11.42
-8.16
-5.11
-2.04
1.19
4.54
7.75
10.50
12.62
14.08
15.03
15.64
16.07
16.40
16.63
16.71
16.60
16.23
15.55
14.59
13.37
12.03
10.68
9.34
8.00
6.53
4.79
2.70
0.20
-2.68
-5.92
-9.50
-13.29
-17.06
-20.34
-22.58
-23.24
-22.05
-19.19
-15.20
-10.80
-6.65
-3.12
-0.25
2.16
4.32
6.33
8.11
9.50
10.45
11.06
11.58
12.29
13.30
14.44
15.33
15.55
14.84
13.27
11.15
8.93
6.96
5.34
3.97
2.58
0.93
-1.12
-3.63
-6.57
-9.89
-13.48
-17.06
-20.22
-22.45
-23.32
-22.67
-20.63
-17.62
-14.14
-10.60
-7.20
-4.00
-0.96
1.87
4.36
6.34
7.68
8.41
8.67
8.72
8.76
8.92
9.19
9.48
9.60
9.43
8.93
8.19
7.40
6.70
6.15
5.68
5.13
4.29
2.94
0.93
-1.78
-5.14
-8.85
-12.45
-15.32
-16.91
-16.86
-15.21
-12.35
-8.86
-5.26
-1.90
1.13
3.85
6.32
8.51
10.30
11.66
12.61
13.36
14.13
15.07
16.15
17.20
18.01
18.44
18.53
18.39
18.19
17.90
17.37
16.41
14.93
12.99
10.77
8.40
5.82
2.83
-0.77
-4.99
-9.56
-13.96
-17.61
-20.08
-21.23
-21.14
-20.03
-18.17
-15.82
-13.18
-10.46
-7.83
-5.40
-3.20
-1.25
0.42
1.77
2.78
3.48
4.00
4.51
5.17
6.00
6.89
7.61
7.95
7.84
7.32
6.55
5.68
4.77
3.85
2.92
1.92
0.77
-0.67
-2.63
-5.29
-8.64
-12.43
-16.15
-19.11
-20.78
-20.87
-19.47
-16.94
-13.74
-10.25
-6.74
-3.38
-0.30
2.38
4.58
6.34
7.74
8.90
9.88
10.68
11.23
11.49
11.48
11.29
10.98
10.55
9.93
9.08
8.02
6.87
5.83
4.96
4.18
3.28
1.97
0.10
-2.35
-5.25
-8.38
-11.42
-14.02
-15.81
-16.48
-15.88
-14.10
-11.46
-8.40
-5.31
-2.43
0.15
2.43
4.35
5.84
6.83
7.32
7.44
7.39
7.39
7.58
8.03
8.68
9.40
10.02
10.36
10.28
9.69
8.63
7.24
5.71
4.21
2.80
1.42
-0.06
-1.87
-4.16
-6.99
-10.27
-13.70
-16.86
-19.26
-20.51
-20.40
-18.99
-16.59
-13.62
-10.52
-7.61
-5.08
-2.94
-1.15
0.39
1.83
3.26
4.81
6.50
8.27
10.00
11.47
12.53
13.13
13.34
13.31
13.23
13.19
13.22
13.18
12.94
12.34
11.31
9.92
8.28
6.55
4.86
3.21
1.50
-0.41
-2.64
-5.22
-8.04
-10.89
-13.45
-15.40
-16.41
-16.25
-14.90
-12.53
-9.54
-6.42
-3.58
-1.24
0.58
2.06
3.41
4.78
6.19
7.53
8.70
9.61
10.27
10.80
11.30
11.83
12.33
12.70
12.89
12.91
12.91
13.03
13.36
13.82
14.29
14.56
14.53
14.18
13.54
12.60
11.28
9.45
7.00
3.92
0.39
-3.23
-6.50
-8.95
-10.17
-9.95
-8.31
-5.57
-2.20
1.24
4.35
6.92
8.94
10.56
11.82
12.73
13.20
13.20
12.82
12.31
11.94
11.89
12.14
12.45
12.46
11.87
10.53
8.53
6.13
3.64
1.27
-0.88
-2.93
-5.06
-7.46
-10.22
-13.37
-16.78
-20.33
-23.78
-26.79
-28.94
-29.84
-29.27
-27.33
-24.41
-21.10
-17.92
-15.15
-12.78
-10.61
-8.39
-6.01
-3.49
-0.97
1.41
3.51
5.21
6.40
6.95
6.85
6.25
5.43
4.76
4.48
4.63
5.01
5.33
5.30
4.78
3.83
2.57
1.19
-0.24
-1.68
-3.14
-4.64
-6.28
-8.20
-10.55
-13.43
-16.67
-19.86
-22.35
-23.50
-22.96
-20.84
-17.62
-14.01
-10.64
-7.82
-5.61
-3.86
-2.40
-1.16
-0.08
0.87
1.86
3.09
4.74
6.85
9.21
11.50
13.33
14.50
15.02
15.13
15.17
15.43
16.00
16.81
17.67
18.31
18.58
18.40
17.78
16.76
15.37
13.61
11.52
9.18
6.74
4.47
2.52
0.94
-0.45
-2.03
-4.21
-7.29
-11.25
-15.82
-20.43
-24.47
-27.38
-28.82
-28.67
-27.10
-24.48
-21.26
-17.85
-14.53
-11.42
-8.51
-5.81
-3.32
-1.16
0.62
2.01
3.13
4.12
5.14
6.23
7.35
8.41
9.36
10.19
10.95
11.65
12.27
12.73
12.94
12.79
12.28
11.48
10.52
9.55
8.66
7.85
7.02
6.00
4.61
2.75
0.38
-2.49
-5.81
-9.46
-13.20
-16.67
-19.36
-20.81
-20.76
-19.26
-16.68
-13.58
-10.50
-7.82
-5.69
-4.01
-2.56
-1.13
0.42
2.07
3.65
4.99
5.95
6.55
6.95
7.35
7.89
8.55
9.21
9.70
9.98
10.11
10.18
10.19
9.97
9.31
8.04
6.22
4.11
2.08
0.39
-0.93
-2.09
-3.48
-5.41
-8.09
-11.48
-15.32
-19.12
-22.33
-24.39
-24.92
-23.80
-21.26
-17.82
-14.07
-10.53
-7.50
-5.06
-3.12
-1.57
-0.31
0.76
1.72
2.71
3.86
5.19
6.57
7.78
8.61
8.96
8.95
8.85
8.93
9.30
9.86
10.32
10.34
9.76
8.57
7.01
5.34
3.78
2.40
1.09
-0.30
-1.93
-3.93
-6.36
-9.26
-12.59
-16.18
-19.69
-22.60
-24.35
-24.54
-23.07
-20.24
-16.64
-12.91
-9.55
-6.73
-4.36
-2.21
-0.11
1.97
3.90
5.50
6.70
7.53
8.16
8.75
9.36
9.92
10.31
10.43
10.36
10.27
10.36
10.70
11.21
11.60
11.62
11.16
10.25
9.13
8.04
7.11
6.29
5.34
3.91
1.69
-1.47
-5.41
-9.66
-13.51
-16.25
-17.39
-16.80
-14.78
-11.83
-8.52
-5.29
-2.35
0.26
2.59
4.68
6.55
8.19
9.60
10.83
11.90
12.82
13.50
13.86
13.80
13.27
12.30
11.00
9.49
7.86
6.18
4.48
2.80
1.23
-0.17
-1.34
-2.32
-3.25
-4.33
-5.77
-7.75
-10.26
-13.15
-16.03
-18.39
-19.74
-19.75
-18.35
-15.79
-12.53
-9.10
-5.88
-3.10
-0.75
1.27
3.09
4.74
6.18
7.31
8.08
8.56
8.84
9.06
9.29
9.54
9.73
9.72
9.46
8.92
8.14
7.14
5.96
4.59
3.06
1.40
-0.34
-2.17
-4.14
-6.43
-9.17
-12.39
-15.90
-19.29
-22.05
-23.72
-24.04
-22.96
-20.65
-17.45
-13.75
-9.91
-6.19
-2.77
0.29
3.01
5.42
7.57
9.49
11.23
12.88
14.64
16.66
18.96
21.34
23.39
24.55
24.38
22.74
19.80
16.02
11.90
7.82
3.96
0.26
-3.39
-7.09
-10.91
-14.83
-18.88
-23.09
-27.44
-31.79
-35.83
-39.11
-41.14
-41.51
-40.09
-37.06
-32.89
-28.18
-23.53
-19.40
-15.95
-13.15
-10.78
-8.62
-6.47
-4.25
-1.97
0.34
2.65
5.00
7.41
9.88
12.31
14.53
16.32
17.50
18.01
17.98
17.64
17.25
17.03
17.01
17.08
16.99
16.50
15.40
13.62
11.18
8.16
4.77
1.32
-1.81
-4.13
-5.27
-5.01
-3.46
-0.99
1.87
4.65
7.04
8.99
10.62
12.01
13.11
13.72
13.64
12.77
11.23
9.34
7.48
5.95
4.86
4.10
3.50
2.89
2.13
1.22
0.22
-0.79
-1.74
-2.60
-3.40
-4.32
-5.62
-7.62
-10.53
-14.31
-18.50
-22.42
-25.23
-26.35
-25.58
-23.20
-19.82
-16.11
-12.61
-9.53
-6.88
-4.52
-2.36
-0.43
1.19
2.38
3.15
3.60
3.90
4.22
4.58
4.87
4.91
4.49
3.60
2.39
1.16
0.15
-0.52
-0.97
-1.48
-2.35
-3.80
-5.85
-8.36
-11.16
-14.08
-16.93
-19.48
-21.39
-22.25
-21.72
-19.63
-16.13
-11.70
-6.92
-2.35
1.68
5.11
8.09
10.85
13.52
16.11
18.45
20.37
21.77
22.69
23.35
23.99
24.78
25.66
26.39
26.70
26.41
25.55
24.35
23.15
22.18
21.44
20.68
19.59
17.89
15.55
12.72
9.69
6.78
4.15
1.85
-0.26
-2.37
-4.71
-7.45
-10.75
-14.62
-18.97
-23.50
-27.76
-31.15
-33.12
-33.28
-31.52
-28.05
-23.32
-17.98
-12.62
-7.67
-3.32
0.50
4.00
7.37
10.70
13.90
16.79
19.17
21.00
22.39
23.55
24.72
26.06
27.57
29.12
30.53
31.65
32.35
32.59
32.34
31.59
30.25
28.26
25.66
22.58
19.31
16.20
13.49
11.23
9.19
6.99
4.23
0.75
-3.23
-7.17
-10.36
-12.23
-12.51
-11.35
-9.17
-6.47
-3.65
-0.91
1.72
4.28
6.74
8.97
10.79
12.04
12.66
12.74
12.50
12.19
11.96
11.82
11.62
11.14
10.16
8.64
6.77
4.84
3.17
1.90
0.92
-0.05
-1.34
-3.19
-5.69
-8.83
-12.52
-16.55
-20.57
-24.05
-26.34
-26.84
-25.26
-21.77
-16.98
-11.74
-6.81
-2.60
0.83
3.66
6.18
8.48
10.58
12.36
13.76
14.83
15.75
16.67
17.71
18.79
19.73
20.27
20.23
19.57
18.38
16.83
15.12
13.37
11.63
9.84
7.97
5.97
3.84
1.55
-0.95
-3.78
-7.12
-11.06
-15.46
-19.95
-23.90
-26.61
-27.53
-26.46
-23.60
-19.49
-14.82
-10.19
-5.95
-2.13
1.43
4.89
8.30
11.54
14.42
16.81
18.69
20.16
21.37
22.31
22.91
23.02
22.64
21.96
21.42
21.46
22.31
23.77
25.22
25.87
25.11
22.84
19.48
15.74
12.29
9.42
6.98
4.57
1.83
-1.33
-4.75
-8.21
-11.54
-14.73
-17.81
-20.74
-23.36
-25.43
-26.78
-27.39
-27.40
-26.98
-26.24
-25.15
-23.60
-21.53
-19.00
-16.20
-13.42
-10.85
-8.63
-6.74
-5.10
-3.69
-2.50
-1.64
-1.28
-1.53
-2.45
-3.99
-5.99
-8.22
-10.49
-12.65
-14.69
-16.73
-18.95
-21.55
-24.66
-28.24
-32.04
-35.63
-38.39
-39.69
-39.10
-36.52
-32.25
-26.86
-21.01
-15.23
-9.79
-4.77
-0.17
3.96
7.56
10.54
12.89
14.69
16.06
17.09
17.82
18.19
18.17
17.80
17.18
16.51
15.97
15.67
15.60
15.59
15.36
14.60
13.12
10.94
8.28
5.49
2.82
0.34
-2.14
-4.96
-8.46
-12.83
-17.98
-23.55
-28.98
-33.58
-36.67
-37.73
-36.48
-32.96
-27.61
-21.22
-14.66
-8.76
-3.95
-0.24
2.76
5.59
8.62
11.91
15.19
18.04
20.12
21.31
21.71
21.54
20.96
20.09
18.96
17.65
16.27
14.97
13.79
12.65
11.35
9.65
7.39
4.59
1.45
-1.77
-4.85
-7.69
-10.44
-13.41
-16.91
-21.08
-25.71
-30.19
-33.67
-35.36
-34.77
-31.89
-27.19
-21.41
-15.29
-9.39
-4.02
0.74
4.93
8.59
11.72
14.29
16.23
17.54
18.32
18.70
18.90
19.07
19.24
19.35
19.28
18.91
18.19
17.15
15.86
14.37
12.67
10.66
8.27
5.41
2.04
-1.84
-6.18
-10.88
-15.71
-20.27
-23.99
-26.32
-26.80
-25.29
-22.01
-17.48
-12.34
-7.17
-2.35
1.97
5.78
9.10
11.88
14.02
15.42
16.09
16.24
16.15
16.10
16.19
16.31
16.14
15.39
13.92
11.84
9.45
7.09
4.96
3.05
1.15
-1.05
-3.84
-7.43
-11.77
-16.58
-21.30
-25.20
-27.60
-28.06
-26.57
-23.47
-19.33
-14.79
-10.29
-6.04
-2.12
1.54
4.94
8.03
10.74
13.01
14.83
16.25
17.36
18.18
18.71
18.88
18.61
17.89
16.78
15.48
14.13
12.86
11.68
10.49
9.17
7.61
5.70
3.42
0.77
-2.22
-5.44
-8.66
-11.53
-13.61
-14.46
-13.81
-11.64
-8.26
-4.17
0.12
4.23
8.01
11.44
14.54
17.26
19.46
21.01
21.91
22.35
22.56
22.73
22.93
23.05
22.96
22.58
21.96
21.20
20.40
19.52
18.43
16.96
14.98
12.55
9.79
6.91
4.05
1.20
-1.82
-5.32
-9.51
-14.37
-19.46
-24.06
-27.33
-28.73
-28.13
-25.90
-22.66
-19.01
-15.32
-11.77
-8.39
-5.25
-2.51
-0.36
1.04
1.76
2.00
2.09
2.34
2.89
3.69
4.50
4.96
4.78
3.87
2.42
0.81
-0.59
-1.56
-2.15
-2.64
-3.34
-4.46
-6.12
-8.28
-10.89
-13.81
-16.82
-19.51
-21.34
-21.85
-20.79
-18.30
-14.83
-11.01
-7.33
-4.02
-1.03
1.83
4.71
7.52
10.01
11.87
12.94
13.34
13.44
13.68
14.32
15.35
16.38
16.93
16.65
15.48
13.75
11.93
10.41
9.29
8.42
7.44
6.03
4.01
1.30
-2.05
-5.87
-9.88
-13.62
-16.46
-17.86
-17.50
-15.43
-12.05
-7.88
-3.41
1.11
5.56
9.86
13.84
17.22
19.74
21.29
21.97
22.01
21.72
21.33
20.94
20.58
20.21
19.76
19.15
18.29
17.10
15.55
13.65
11.48
9.15
6.74
4.30
1.79
-0.84
-3.67
-6.74
-10.07
-13.61
-17.23
-20.65
-23.46
-25.18
-25.36
-23.84
-20.75
-16.51
-11.70
-6.88
-2.44
1.44
4.66
7.22
9.12
10.39
11.16
11.60
11.92
12.30
12.78
13.32
13.83
14.21
14.37
14.23
13.71
12.75
11.40
9.81
8.19
6.68
5.31
3.91
2.22
0.01
-2.81
-6.20
-10.05
-14.21
-18.51
-22.65
-26.19
-28.57
-29.29
-28.06
-25.02
-20.65
-15.64
-10.69
-6.23
-2.44
0.70
3.23
5.15
6.39
6.92
6.91
6.68
6.57
6.82
7.41
8.09
8.46
8.24
7.38
6.03
4.46
2.85
1.28
-0.29
-1.96
-3.75
-5.67
-7.74
-10.01
-12.64
-15.68
-19.06
-22.40
-25.11
-26.58
-26.38
-24.46
-21.17
-17.04
-12.65
-8.34
-4.24
-0.32
3.42
6.92
10.00
12.49
14.32
15.60
16.52
17.25
17.86
18.26
18.29
17.82
16.84
15.40
13.64
11.66
9.50
7.19
4.76
2.35
0.09
-1.86
-3.51
-5.01
-6.63
-8.69
-11.42
-14.90
-19.00
-23.32
-27.28
-30.13
-31.23
-30.25
-27.30
-22.90
-17.78
-12.64
-7.94
-3.78
-0.09
3.26
6.30
8.97
11.17
12.91
14.32
15.56
16.74
17.85
18.79
19.46
19.85
20.06
20.24
20.46
20.71
20.81
20.54
19.68
18.18
16.09
13.59
10.87
8.09
5.30
2.50
-0.36
-3.32
-6.41
-9.65
-13.08
-16.71
-20.43
-23.96
-26.82
-28.46
-28.47
-26.73
-23.49
-19.25
-14.59
-9.94
-5.51
-1.39
2.43
5.83
8.69
10.93
12.58
13.83
14.90
15.91
16.84
17.54
17.83
17.62
16.96
16.04
15.06
14.18
13.45
12.78
11.98
10.87
9.31
7.32
5.03
2.68
0.49
-1.42
-3.12
-4.82
-6.85
-9.44
-12.73
-16.57
-20.59
-24.15
-26.61
-27.40
-26.34
-23.59
-19.68
-15.31
-11.05
-7.20
-3.79
-0.67
2.27
4.97
7.19
8.73
9.54
9.85
10.07
10.60
11.55
12.77
13.82
14.31
14.04
13.09
11.76
10.35
9.03
7.79
6.45
4.79
2.62
-0.20
-3.75
-8.06
-13.05
-18.49
-23.95
-28.86
-32.67
-34.99
-35.67
-34.92
-33.12
-30.71
-28.00
-25.11
-22.09
-19.00
-16.04
-13.53
-11.74
-10.73
-10.26
-9.88
-9.14
-7.86
-6.23
-4.73
-3.90
-4.10
-5.33
-7.29
-9.55
-11.75
-13.76
-15.67
-17.70
-20.11
-23.13
-26.81
-31.06
-35.60
-40.00
-43.70
-46.19
-47.07
-46.24
-43.75
-39.86
-34.86
-29.04
-22.66
-16.00
-9.39
-3.11
2.59
7.56
11.75
15.15
17.72
19.47
20.42
20.75
20.69
20.51
20.35
20.20
19.88
19.12
17.75
15.77
13.34
10.67
7.93
5.16
2.31
-0.70
-3.92
-7.43
-11.34
-15.80
-20.89
-26.41
-31.85
-36.39
-39.14
-39.46
-37.18
-32.68
-26.70
-20.15
-13.71
-7.88
-2.80
1.56
5.37
8.78
11.89
14.68
17.03
18.83
20.02
20.66
20.92
20.97
20.98
21.04
21.16
21.36
21.61
21.78
21.65
20.94
19.36
16.73
13.07
8.58
3.58
-1.62
-6.82
-12.00
-17.29
-22.94
-29.08
-35.55
-41.76
-46.80
-49.64
-49.52
-46.30
-40.49
-33.11
-25.26
-17.81
-11.21
-5.52
-0.64
3.56
7.13
10.05
12.29
13.87
14.86
15.30
15.31
15.00
14.53
14.02
13.52
13.01
12.36
11.47
10.28
8.83
7.14
5.23
3.03
0.43
-2.64
-6.18
-10.19
-14.66
-19.64
-25.14
-30.94
-36.52
-41.11
-43.80
-43.94
-41.32
-36.27
-29.53
-22.00
-14.39
-7.15
-0.47
5.62
11.09
15.88
19.95
23.32
26.13
28.56
30.70
32.47
33.65
34.02
33.46
32.07
30.13
27.98
25.89
23.95
22.06
20.00
17.58
14.70
11.45
8.03
4.68
1.55
-1.42
-4.50
-8.08
-12.57
-18.10
-24.53
-31.27
-37.50
-42.30
-44.91
-44.92
-42.33
-37.56
-31.24
-24.09
-16.72
-9.53
-2.76
3.47
9.11
14.12
18.48
22.27
25.63
28.70
31.62
34.40
36.99
39.27
41.13
42.50
43.43
44.02
44.38
44.60
44.67
44.48
43.87
42.63
40.66
38.00
34.83
31.41
27.97
24.63
21.41
18.21
14.84
11.06
6.66
1.57
-4.03
-9.58
-14.28
-17.32
-18.23
-17.06
-14.36
-10.86
-7.13
-3.39
0.37
4.22
8.08
11.65
14.61
16.77
18.23
19.24
20.08
20.89
21.62
22.17
22.47
22.50
22.29
21.86
21.14
20.05
18.57
16.74
14.65
12.39
9.97
7.33
4.33
0.86
-3.14
-7.70
-12.80
-18.42
-24.46
-30.64
-36.53
-41.55
-45.13
-46.83
-46.56
-44.49
-41.08
-36.78
-31.92
-26.62
-20.80
-14.41
-7.49
-0.33
6.63
12.94
18.32
22.76
26.42
29.51
32.12
34.18
35.53
36.04
35.75
34.86
33.63
32.30
31.00
29.74
28.49
27.14
25.59
23.63
21.04
17.66
13.54
9.03
4.74
1.37
-0.49
-0.58
1.01
3.92
7.75
12.15
16.91
21.91
27.02
32.07
36.84
41.08
44.60
47.35
49.39
50.92
52.14
53.23
54.18
54.82
54.92
54.24
52.73
50.49
47.77
44.81
41.73
38.50
34.97
30.94
26.29
21.09
15.54
9.92
4.51
-0.54
-5.25
-9.81
-14.50
-19.58
-25.09
-30.77
-36.13
-40.46
-43.13
-43.78
-42.40
-39.32
-35.08
-30.22
-25.16
-20.18
-15.41
-10.89
-6.68
-2.79
0.76
3.95
6.75
9.09
10.90
12.18
12.98
13.37
13.44
13.27
12.88
12.29
11.49
10.50
9.27
7.76
5.92
3.76
1.32
-1.30
-4.03
-6.90
-10.06
-13.67
-17.82
-22.37
-26.98
-31.06
-33.99
-35.24
-34.55
-32.00
-27.99
-23.13
-18.01
-13.09
-8.56
-4.42
-0.52
3.25
6.90
10.35
13.40
15.88
17.66
18.69
19.01
18.75
18.12
17.32
16.50
15.69
14.83
13.79
12.41
10.59
8.29
5.52
2.37
-1.02
-4.50
-7.93
-11.26
-14.60
-18.13
-22.11
-26.62
-31.42
-35.97
-39.47
-41.18
-40.66
-37.98
-33.62
-28.36
-22.98
-17.99
-13.60
-9.72
-6.20
-2.98
-0.19
1.91
3.04
3.12
2.25
0.72
-1.09
-2.93
-4.69
-6.40
-8.16
-9.99
-11.78
-13.35
-14.52
-15.21
-15.57
-15.88
-16.49
-17.61
-19.28
-21.30
-23.35
-25.17
-26.63
-27.78
-28.79
-29.83
-31.05
-32.57
-34.50
-36.93
-39.77
-42.71
-45.17
-46.43
-45.84
-43.05
-38.14
-31.56
-24.01
-16.19
-8.71
-1.89
4.15
9.51
14.39
18.94
23.24
27.19
30.63
33.44
35.61
37.22
38.40
39.23
39.68
39.73
39.40
38.77
38.03
37.28
36.54
35.68
34.52
32.89
30.80
28.39
25.89
23.54
21.47
19.59
17.66
15.36
12.49
9.14
5.71
2.90
1.38
1.64
3.70
7.16
11.30
15.35
18.77
21.27
22.89
23.79
24.17
24.20
23.97
23.64
23.33
23.17
23.21
23.36
23.47
23.30
22.71
21.64
20.21
18.65
17.25
16.23
15.61
15.18
14.61
13.47
11.48
8.60
4.98
0.87
-3.54
-8.14
-12.83
-17.30
-21.10
-23.61
-24.39
-23.40
-20.98
-17.82
-14.54
-11.51
-8.71
-5.94
-3.01
0.01
2.81
4.98
6.23
6.51
6.00
5.02
3.85
2.64
1.39
0.01
-1.58
-3.43
-5.51
-7.76
-10.04
-12.26
-14.38
-16.43
-18.49
-20.62
-22.83
-25.06
-27.26
-29.42
-31.62
-33.96
-36.40
-38.64
-40.18
-40.43
-38.99
-35.81
-31.24
-25.87
-20.28
-14.89
-9.94
-5.46
-1.43
2.12
5.15
7.58
9.35
10.55
11.32
11.85
12.33
12.84
13.36
13.75
13.79
13.30
12.21
10.61
8.70
6.70
4.79
2.97
1.18
-0.73
-2.89
-5.33
-8.06
-11.05
-14.34
-17.90
-21.60
-25.03
-27.67
-28.97
-28.67
-26.93
-24.32
-21.57
-19.26
-17.56
-16.31
-15.16
-13.88
-12.48
-11.18
-10.27
-9.90
-9.99
-10.30
-10.56
-10.59
-10.36
-9.96
-9.47
-8.97
-8.51
-8.12
-7.91
-8.01
-8.58
-9.70
-11.35
-13.37
-15.54
-17.61
-19.44
-20.99
-22.33
-23.51
-24.46
-25.02
-24.90
-23.93
-22.03
-19.34
-16.14
-12.73
-9.34
-6.11
-3.09
-0.35
2.01
3.91
5.33
6.35
7.14
7.88
8.65
9.39
9.97
10.24
10.08
9.47
8.48
7.22
5.82
4.48
3.33
2.44
1.73
0.91
-0.40
-2.51
-5.51
-9.11
-12.70
-15.58
-17.20
-17.33
-16.14
-14.05
-11.52
-8.85
-6.17
-3.48
-0.82
1.71
3.94
5.76
7.15
8.20
9.10
10.00
10.91
11.80
12.53
12.95
12.97
12.57
11.82
10.88
9.94
9.08
8.26
7.33
6.09
4.43
2.41
0.21
-2.02
-4.25
-6.51
-8.82
-11.07
-12.94
-14.05
-14.10
-13.04
-11.09
-8.65
-6.08
-3.61
-1.34
0.76
2.73
4.55
6.19
7.57
8.64
9.41
9.91
10.25
10.51
10.77
11.07
11.41
11.74
12.02
12.21
12.26
12.10
11.66
10.81
9.54
7.89
6.03
4.11
2.25
0.40
-1.57
-3.87
-6.63
-9.85
-13.34
-16.73
-19.54
-21.30
-21.63
-20.43
-17.91
-14.56
-10.92
-7.48
-4.50
-2.00
0.14
2.04
3.76
5.28
6.52
7.47
8.20
8.77
9.28
9.77
10.23
10.65
11.04
11.41
11.81
12.18
12.41
12.36
11.86
10.87
9.50
7.98
6.59
5.47
4.56
3.64
2.41
0.59
-1.95
-5.17
-8.86
-12.69
-16.23
-19.05
-20.76
-21.07
-19.94
-17.57
-14.31
-10.65
-7.03
-3.79
-1.10
1.04
2.76
4.22
5.55
6.83
8.05
9.22
10.35
11.49
12.65
13.78
14.70
15.24
15.27
14.80
14.02
13.18
12.43
11.75
10.94
9.71
7.92
5.63
3.09
0.69
-1.34
-2.96
-4.40
-6.01
-8.16
-11.02
-14.50
-18.26
-21.78
-24.50
-25.92
-25.80
-24.21
-21.50
-18.21
-14.87
-11.81
-9.10
-6.66
-4.32
-2.03
0.10
1.87
3.17
4.02
4.60
5.14
5.77
6.42
6.93
7.14
6.97
6.49
5.81
5.03
4.18
3.22
2.17
1.07
0.03
-0.88
-1.71
-2.64
-3.96
-5.96
-8.74
-12.14
-15.73
-18.83
-20.81
-21.24
-20.12
-17.79
-14.85
-11.84
-9.12
-6.76
-4.65
-2.69
-0.78
1.03
2.71
4.22
5.54
6.70
7.65
8.37
8.87
9.21
9.49
9.72
9.89
9.84
9.45
8.68
7.57
6.26
4.86
3.40
1.84
0.10
-1.87
-4.11
-6.66
-9.53
-12.71
-16.05
-19.22
-21.73
-23.03
-22.74
-20.80
-17.54
-13.54
-9.44
-5.72
-2.55
0.11
2.44
4.55
6.45
8.03
9.21
9.98
10.45
10.80
11.21
11.77
12.47
13.20
13.76
13.99
13.75
13.01
11.86
10.45
8.92
7.37
5.81
4.21
2.50
0.58
