1556115527.00
64.000000
-0.00
-0.00
-0.00
-0.00
-0.00
-0.00
-0.00
-0.00
-0.00
-0.01
-0.00
0.00
0.01
0.01
-0.00
-0.03
-0.05
-0.05
-0.00
0.13
0.36
0.66
1.01
1.37
1.72
2.06
2.40
2.77
3.24
3.80
4.42
5.06
5.66
6.20
6.68
7.15
7.64
8.32
9.15
10.09
11.03
11.88
12.56
13.15
13.80
14.64
16.01
17.89
20.16
22.56
24.83
26.83
28.68
30.70
33.16
36.73
41.38
46.86
52.65
58.21
63.21
67.75
72.31
77.38
83.87
91.79
100.73
109.94
118.62
126.30
133.09
140.60
146.90
153.98
162.42
172.89
185.58
199.50
212.02
219.02
215.86
198.78
166.98
121.99
67.63
8.36
-52.16
-111.83
-170.00
-226.72
-282.21
-335.90
-387.30
-435.68
-480.14
-519.49
-552.10
-575.99
-589.24
-590.46
-578.93
-555.36
-521.60
-480.40
-434.67
-386.48
-336.28
-282.74
-223.69
-157.44
-84.52
-8.14
66.52
133.91
190.00
233.16
264.06
284.54
296.49
301.17
299.40
292.12
280.72
267.01
252.64
238.60
225.04
211.49
197.34
182.33
166.75
151.32
136.83
123.81
112.31
102.02
92.40
82.99
73.57
64.25
55.35
47.18
39.94
33.60
28.00
22.94
18.41
14.38
10.91
8.00
5.58
3.46
1.48
-0.44
-2.26
-3.90
-5.27
-6.38
-7.24
-7.94
-8.46
-8.77
-8.80
-8.55
-8.09
-7.53
-6.97
-6.46
-6.02
-5.62
-5.23
-4.87
-4.52
-4.19
-3.92
-3.75
-3.71
-3.76
-3.76
-3.54
-2.97
-2.06
-1.00
-0.12
0.29
0.10
-0.55
-1.41
-2.20
-2.82
-3.30
-3.77
-4.29
-4.79
-5.13
-5.18
-4.97
-4.65
-4.46
-4.49
-4.72
-4.94
-4.93
-4.62
-4.11
-3.58
-3.26
-3.22
-3.37
-3.53
-3.49
-3.16
-2.63
-2.09
-1.74
-1.68
-1.83
-2.01
-1.99
-1.65
-1.03
-0.28
0.44
1.03
1.50
1.92
2.31
2.61
2.67
2.36
1.74
1.02
0.55
0.63
1.28
2.27
3.15
3.54
3.28
2.49
1.49
0.58
0.01
-0.18
-0.06
0.32
0.90
1.65
2.50
3.28
3.76
3.76
3.21
2.19
0.92
-0.35
-1.41
-2.18
-2.63
-2.84
-2.89
-2.89
-2.89
-2.92
-2.98
-3.09
-3.22
-3.38
-3.48
-3.44
-3.14
-2.59
-1.92
-1.35
-1.11
-1.29
-1.79
-2.37
-2.76
-2.81
-2.55
-2.15
-1.81
-1.68
-1.76
-1.97
-2.20
-2.38
-2.48
-2.48
-2.43
-2.35
-2.26
-2.21
-2.20
-2.20
-2.17
-2.04
-1.78
-1.40
-0.95
-0.46
0.06
0.62
1.22
1.84
2.48
3.06
3.49
3.67
3.51
2.93
1.95
0.65
-0.78
-2.10
-3.09
-3.57
-3.52
-3.06
-2.42
-1.88
-1.65
-1.80
-2.28
-2.89
-3.43
-3.70
-3.58
-3.08
-2.24
-1.19
-0.10
0.90
1.67
2.13
2.26
2.15
1.91
1.69
1.59
1.66
1.91
2.32
2.82
3.35
3.82
4.16
4.37
4.47
4.52
4.54
4.52
4.35
3.95
3.31
2.55
1.88
1.47
1.40
1.56
1.75
1.71
1.34
0.64
-0.20
-0.97
-1.49
-1.72
-1.76
-1.80
-2.00
-2.40
-2.94
-3.44
-3.72
-3.67
-3.27
-2.60
-1.73
-0.76
0.22
1.09
1.69
1.89
1.65
1.06
0.33
-0.30
-0.66
-0.65
-0.35
0.07
0.41
0.47
0.15
-0.56
-1.56
-2.69
-3.75
-4.58
-5.03
-5.07
-4.72
-4.08
-3.31
-2.56
-1.98
-1.66
-1.67
-2.01
-2.65
-3.54
-4.57
-5.63
-6.57
-7.28
-7.66
-7.67
-7.31
-6.64
-5.74
-4.75
-3.79
-2.95
-2.21
-1.50
-0.77
-0.00
0.73
1.30
1.63
1.74
1.75
1.76
1.76
1.65
1.28
0.52
-0.59
-1.88
-3.17
-4.34
-5.45
-6.67
-8.21
-10.15
-12.40
-14.70
-16.68
-17.96
-18.20
-17.18
-14.80
-11.17
-6.59
-1.55
3.40
7.80
11.40
14.21
16.38
18.10
19.40
20.21
20.34
19.71
18.39
16.64
14.83
13.30
12.27
11.79
11.77
12.01
12.25
12.27
11.93
11.21
10.23
9.18
8.26
7.54
6.98
6.42
5.69
4.69
3.49
2.28
1.25
0.52
0.07
-0.29
-0.78
-1.58
-2.68
-3.92
-5.02
-5.70
-5.81
-5.34
-4.40
-3.16
-1.81
-0.51
0.58
1.23
1.19
0.26
-1.60
-4.27
-7.50
-10.99
-14.54
-18.02
-21.25
-23.97
-25.74
-26.09
-24.78
-21.93
-18.09
-14.08
-10.68
-8.39
-7.27
-7.09
-7.39
-7.73
-7.76
-7.22
-5.97
-3.94
-1.23
1.91
5.08
7.81
9.69
10.50
10.24
9.17
7.71
6.36
5.48
5.22
5.38
5.54
5.26
4.34
2.97
1.78
1.58
3.05
6.39
11.20
16.55
21.28
24.32
24.99
23.11
19.01
13.43
7.37
1.92
-2.01
-3.88
-3.67
-1.84
0.82
3.42
5.30
6.09
5.77
4.57
2.86
1.08
-0.32
-0.97
-0.65
0.59
2.45
4.45
6.11
7.08
7.25
6.70
5.62
4.24
2.77
1.40
0.31
-0.30
-0.29
0.42
1.81
3.71
5.88
8.10
10.17
11.97
13.34
14.11
14.00
12.72
10.07
6.06
0.99
-4.56
-9.87
-14.23
-17.08
-18.16
-17.50
-15.41
-12.40
-9.05
-5.94
-3.49
-1.99
-1.49
-1.87
-2.85
-4.04
-5.03
-5.46
-5.11
-4.00
-2.34
-0.50
1.11
2.17
2.55
2.29
1.62
0.81
0.11
-0.36
-0.57
-0.60
-0.58
-0.58
-0.65
-0.78
-0.95
-1.17
-1.44
-1.79
-2.23
-2.77
-3.38
-4.04
-4.73
-5.42
-6.05
-6.52
-6.71
-6.54
-5.98
-5.11
-4.08
-3.11
-2.36
-1.96
-1.94
-2.26
-2.78
-3.29
-3.55
-3.33
-2.46
-0.94
1.11
3.41
5.62
7.41
8.59
9.08
8.96
8.37
7.50
6.48
5.39
4.29
3.19
2.16
1.26
0.54
0.05
-0.20
-0.22
-0.10
0.09
0.26
0.35
0.29
0.09
-0.25
-0.70
-1.19
-1.64
-1.99
-2.16
-2.10
-1.81
-1.34
-0.79
-0.25
0.20
0.52
0.71
0.77
0.72
0.54
0.27
-0.04
-0.31
-0.41
-0.26
0.17
0.77
1.40
1.84
1.92
1.59
0.94
0.16
-0.57
-1.10
-1.43
-1.59
-1.68
-1.73
-1.77
-1.82
-1.89
-2.01
-2.24
-2.62
-3.12
-3.69
-4.20
-4.49
-4.43
-3.93
-3.01
-1.78
-0.39
1.00
2.31
3.49
4.55
5.43
6.04
6.26
6.02
5.35
4.40
3.39
2.52
1.90
1.50
1.23
0.89
0.35
-0.44
-1.39
-2.27
-2.80
-2.72
-1.96
-0.58
1.16
2.98
4.55
5.64
6.13
5.98
5.24
4.03
2.48
0.76
-0.94
-2.45
-3.61
-4.30
-4.47
-4.14
-3.40
-2.39
-1.26
-0.12
0.97
1.95
2.77
3.30
3.46
3.22
2.61
1.80
0.97
0.27
-0.20
-0.42
-0.41
-0.17
0.28
0.89
1.56
2.11
2.39
2.31
1.92
1.32
0.69
0.13
-0.29
-0.57
-0.70
-0.67
-0.49
-0.18
0.14
0.37
0.39
0.20
-0.16
-0.61
-1.08
-1.57
-2.11
-2.74
-3.43
-4.07
-4.50
-4.51
-4.00
-3.00
-1.67
-0.27
0.92
1.66
1.81
1.34
0.31
-1.16
-2.90
-4.74
-6.49
-8.04
-9.28
-10.19
-10.76
-11.00
-10.92
-10.46
-9.53
-8.11
-6.21
-4.01
-1.80
0.13
1.54
2.38
2.76
2.89
2.95
3.03
3.05
2.92
2.56
2.04
1.49
1.10
0.96
1.05
1.29
1.59
1.88
2.14
2.35
2.43
2.30
1.91
1.26
0.45
-0.35
-0.99
-1.44
-1.79
-2.20
-2.83
-3.75
-4.89
-6.04
-6.93
-7.33
-7.12
-6.30
-4.99
-3.35
-1.50
0.43
2.32
3.95
5.09
5.53
5.18
4.20
2.88
1.63
0.72
0.25
0.12
0.12
0.09
-0.01
-0.14
-0.24
-0.35
-0.65
-1.38
-2.72
-4.63
-6.86
-8.95
-10.42
-10.87
-10.10
-8.16
-5.29
-1.89
1.59
4.72
7.19
8.91
9.95
10.53
10.84
10.99
10.97
10.75
10.32
9.77
9.22
8.76
8.36
7.93
7.33
6.49
5.43
4.24
3.03
1.88
0.83
-0.07
-0.77
-1.20
-1.34
-1.22
-0.95
-0.63
-0.39
-0.27
-0.25
-0.28
-0.36
-0.50
-0.75
-1.12
-1.52
-1.82
-1.85
-1.54
-0.90
-0.08
0.73
1.34
1.71
1.86
1.91
2.00
2.20
2.57
3.04
3.55
3.99
4.30
4.46
4.52
4.56
4.64
4.74
4.75
4.52
3.91
2.90
1.58
0.15
-1.15
-2.16
-2.80
-3.15
-3.32
-3.43
-3.54
-3.68
-3.85
-4.13
-4.61
-5.36
-6.40
-7.59
-8.71
-9.51
-9.81
-9.56
-8.84
-7.80
-6.59
-5.34
-4.19
-3.22
-2.50
-2.03
-1.78
-1.70
-1.74
-1.91
-2.25
-2.76
-3.38
-3.94
-4.25
-4.12
-3.46
-2.32
-0.80
0.89
2.55
4.01
5.10
5.74
5.94
5.75
5.28
4.65
3.96
3.29
2.70
2.25
1.96
1.75
1.53
1.18
0.63
-0.08
-0.85
-1.52
-1.98
-2.18
-2.09
-1.72
-1.08
-0.24
0.67
1.50
2.10
2.42
2.55
2.59
2.67
2.81
2.94
2.93
2.71
2.24
1.59
0.88
0.21
-0.37
-0.86
-1.33
-1.88
-2.55
-3.32
-4.10
-4.73
-5.06
-4.92
-4.14
-2.62
-0.41
2.16
4.52
5.90
5.58
3.16
-1.36
-7.52
-14.48
-21.16
-26.42
-29.32
-29.30
-26.46
-21.57
-15.87
-10.63
-6.69
-4.21
-2.70
-1.43
0.21
2.40
4.98
7.62
10.02
12.01
13.50
14.38
14.55
13.99
12.83
11.44
10.31
9.80
9.99
10.61
11.15
11.09
10.19
8.49
6.34
4.09
1.96
-0.03
-2.04
-4.22
-6.60
-9.01
-11.15
-12.68
-13.38
-13.19
-12.22
-10.65
-8.67
-6.41
-3.96
-1.38
1.25
3.74
5.90
7.51
8.53
9.09
9.56
10.40
11.95
14.38
17.56
21.14
24.62
27.37
28.75
28.20
25.40
20.53
14.33
7.97
2.72
-0.53
-1.70
-1.39
-0.53
0.24
0.88
2.00
4.27
7.95
12.52
16.86
19.79
20.62
19.40
16.80
13.60
10.36
7.23
4.04
0.55
-3.43
-7.96
-12.95
-18.07
-22.74
-26.12
-27.36
-25.93
-21.95
-16.29
-10.41
-6.03
-4.74
-7.61
-14.80
-25.22
-36.51
-45.38
-48.71
-44.79
-34.30
-20.24
-6.83
2.34
5.77
4.44
1.00
-1.76
-2.17
-0.13
3.44
7.49
11.48
15.49
19.81
24.48
29.02
32.72
34.96
35.57
34.90
33.60
32.36
31.62
31.40
31.35
30.96
29.78
27.61
24.56
20.87
16.80
12.54
8.21
4.05
0.44
-2.20
-3.55
-3.59
-2.61
-1.00
0.87
2.88
5.08
7.65
10.77
14.51
18.82
23.40
27.67
30.75
31.71
29.82
24.88
17.41
8.50
-0.53
-8.56
-14.96
-19.59
-22.60
-24.22
-24.54
-23.58
-21.49
-18.68
-15.95
-14.15
-13.81
-14.78
-16.23
-16.97
-16.04
-13.22
-9.13
-5.04
-2.25
-1.65
-3.38
-6.86
-11.19
-15.49
-19.28
-22.59
-25.80
-29.34
-33.31
-37.27
-40.38
-41.70
-40.61
-37.07
-31.61
-24.99
-17.97
-11.13
-4.99
-0.05
3.12
4.11
2.88
-0.11
-4.11
-8.37
-12.59
-17.03
-22.23
-28.57
-35.77
-42.72
-47.87
-49.88
-48.28
-43.70
-37.50
-31.04
-25.04
-19.44
-13.70
-7.43
-0.79
5.59
10.98
15.10
18.26
21.23
24.69
28.86
33.38
37.54
40.73
42.69
43.53
43.62
43.29
42.68
41.69
40.05
37.47
33.89
29.50
24.82
20.51
17.12
14.88
13.51
12.39
10.76
8.11
4.44
0.18
-3.99
-7.56
-10.35
-12.50
-14.21
-15.50
-16.22
-16.12
-15.15
-13.44
-11.34
-9.14
-6.98
-4.87
-2.83
-1.13
-0.20
-0.49
-2.22
-5.17
-8.71
-12.05
-14.42
-15.27
-14.33
-11.56
-7.14
-1.48
4.77
10.80
15.68
18.61
19.15
17.35
13.89
9.86
6.56
5.09
6.06
9.41
14.49
20.21
25.36
28.95
30.37
29.52
26.72
22.63
18.06
13.82
10.56
8.63
7.91
7.82
7.46
5.92
2.59
-2.57
-9.00
-15.77
-21.90
-26.75
-30.13
-32.28
-33.60
-34.42
-34.88
-34.85
-34.17
-32.65
-30.29
-27.21
-23.65
-19.90
-16.22
-12.85
-9.95
-7.62
-5.89
-4.75
-4.08
-3.70
-3.43
-3.13
-2.76
-2.36
-2.05
-1.93
-2.06
-2.42
-2.89
-3.34
-3.65
-3.78
-3.73
-3.59
-3.44
-3.37
-3.42
-3.64
-4.03
-4.52
-4.99
-5.28
-5.26
-4.86
-4.09
-3.05
-1.80
-0.43
0.98
2.35
3.56
4.50
5.06
5.23
5.00
4.47
3.73
2.88
2.00
1.18
0.50
0.04
-0.16
-0.08
0.22
0.62
0.95
1.06
0.84
0.24
-0.69
-1.86
-3.12
-4.28
-5.17
-5.63
-5.53
-4.82
-3.58
-1.99
-0.28
1.31
2.58
3.46
3.94
4.05
3.88
3.52
3.09
2.74
2.60
2.74
3.16
3.75
4.30
4.60
4.51
4.01
3.19
2.19
1.19
0.29
-0.46
-1.11
-1.73
-2.41
-3.21
-4.11
-4.96
-5.56
-5.65
-5.10
-3.90
-2.24
-0.40
1.33
2.75
3.78
4.46
4.87
5.10
5.16
5.07
4.84
4.52
4.16
3.84
3.62
3.51
3.56
3.74
4.07
4.50
4.98
5.42
5.73
5.83
5.67
5.21
4.46
3.41
2.11
0.67
-0.79
-2.08
-3.01
-3.42
-3.20
-2.34
-1.02
0.45
1.68
2.33
2.29
1.68
0.87
0.29
0.26
0.85
1.90
3.12
4.23
5.05
5.57
5.91
6.21
6.60
7.12
7.73
8.36
8.91
9.32
9.60
9.75
9.77
9.61
9.16
8.29
6.86
4.77
1.96
-1.50
-5.37
-9.20
-12.45
-14.58
-15.23
-14.37
-12.31
-9.59
-6.80
-4.37
-2.51
-1.21
-0.37
0.16
0.46
0.61
0.68
0.76
0.90
1.14
1.48
1.84
2.16
2.35
2.39
2.30
2.11
1.86
1.58
1.29
0.97
0.65
0.31
-0.07
-0.55
-1.18
-2.03
-3.12
-4.36
-5.59
-6.58
-7.10
-6.99
-6.21
-4.84
-3.04
-1.03
1.01
2.90
4.49
5.67
6.39
6.64
6.43
5.82
4.86
3.71
2.58
1.78
1.57
2.10
3.24
4.67
5.97
6.77
6.91
6.44
5.54
4.44
3.26
2.05
0.83
-0.41
-1.60
-2.59
-3.24
-3.37
-2.91
-1.91
-0.48
1.13
2.69
4.03
5.05
5.70
5.97
5.84
5.29
4.37
3.24
2.11
1.19
0.63
0.48
0.65
1.02
1.48
1.93
2.32
2.58
2.64
2.48
2.12
1.68
1.28
0.99
0.78
0.55
0.15
-0.53
-1.47
-2.62
-3.83
-4.94
-5.77
-6.11
-5.81
-4.77
-3.06
-0.96
1.18
2.98
4.23
4.92
5.23
5.42
5.66
6.00
6.34
6.47
6.26
5.65
4.71
3.58
2.42
1.35
0.45
-0.24
-0.70
-0.92
-0.93
-0.84
-0.76
-0.81
-1.04
-1.43
-1.90
-2.39
-2.89
-3.42
-3.97
-4.51
-4.92
-5.07
-4.83
-4.16
-3.11
-1.83
-0.49
0.77
1.85
2.71
3.34
3.75
3.90
3.77
3.36
2.73
1.97
1.21
0.54
-0.02
-0.47
-0.89
-1.31
-1.73
-2.10
-2.33
-2.38
-2.25
-2.03
-1.84
-1.83
-2.09
-2.65
-3.44
-4.36
-5.25
-5.97
-6.36
-6.31
-5.77
-4.74
-3.33
-1.71
-0.05
1.49
2.81
3.89
4.69
5.21
5.42
5.33
4.95
4.37
3.73
3.17
2.78
2.59
2.49
2.34
2.05
1.60
1.08
0.62
0.32
0.18
0.10
-0.07
-0.44
-1.03
-1.81
-2.71
-3.66
-4.59
-5.39
-5.92
-6.06
-5.72
-4.93
-3.82
-2.54
-1.25
-0.06
0.97
1.78
2.34
2.65
2.77
2.79
2.84
2.99
3.23
3.46
3.60
3.57
3.36
3.01
2.59
2.14
1.68
1.22
0.81
0.47
0.24
0.14
0.15
0.23
0.33
0.36
0.28
0.05
-0.32
-0.74
-1.10
-1.30
-1.31
-1.14
-0.87
-0.57
-0.29
0.01
0.36
0.82
1.41
2.08
2.74
3.29
3.65
3.80
3.79
3.72
3.70
3.73
3.75
3.62
3.26
2.62
1.81
0.96
0.24
-0.32
-0.68
-0.90
-0.96
-0.84
-0.53
-0.09
0.36
0.66
0.68
0.35
-0.31
-1.21
-2.22
-3.18
-3.94
-4.35
-4.33
-3.84
-2.95
-1.79
-0.55
0.59
1.48
2.08
2.43
2.61
2.75
2.89
3.04
3.14
3.16
3.13
3.13
3.23
3.43
3.64
3.74
3.66
3.42
3.11
2.80
2.47
2.04
1.43
0.64
-0.21
-0.96
-1.51
-1.87
-2.18
-2.60
-3.18
-3.86
-4.48
-4.90
-5.02
-4.86
-4.46
-3.82
-2.95
-1.79
-0.38
1.16
2.60
3.70
4.32
4.44
4.14
3.57
2.87
2.09
1.28
0.50
-0.15
-0.56
-0.64
-0.43
-0.04
0.35
0.60
0.64
0.53
0.37
0.23
0.14
0.04
-0.17
-0.60
-1.31
-2.25
-3.26
-4.14
-4.66
-4.71
-4.27
-3.43
-2.31
-1.03
0.32
1.65
2.83
3.72
4.22
4.29
3.98
3.44
2.81
2.21
1.66
1.13
0.59
0.01
-0.65
-1.39
-2.22
-3.09
-3.89
-4.51
-4.86
-4.93
-4.78
-4.52
-4.28
-4.14
-4.20
-4.49
-5.02
-5.72
-6.44
-6.99
-7.19
-6.96
-6.32
-5.42
-4.42
-3.44
-2.58
-1.86
-1.35
-1.07
-1.04
-1.21
-1.46
-1.64
-1.62
-1.37
-0.93
-0.46
-0.14
-0.08
-0.31
-0.76
-1.28
-1.72
-2.03
-2.21
-2.36
-2.61
-3.01
-3.61
-4.39
-5.27
-6.14
-6.81
-7.09
-6.76
-5.72
-4.00
-1.77
0.64
2.89
4.68
5.89
6.54
6.80
6.91
7.05
7.30
7.62
7.91
8.04
7.98
7.80
7.67
7.70
7.92
8.26
8.53
8.56
8.25
7.60
6.69
5.62
4.48
3.35
2.32
1.46
0.82
0.41
0.13
-0.17
-0.61
-1.27
-2.12
-3.04
-3.90
-4.54
-4.89
-4.91
-4.65
-4.19
-3.63
-3.05
-2.47
-1.87
-1.20
-0.44
0.38
1.14
1.74
2.09
2.24
2.29
2.42
2.70
3.07
3.29
3.07
2.23
0.83
-0.80
-2.21
-3.00
-3.02
-2.41
-1.50
-0.59
0.11
0.57
0.86
0.99
0.95
0.69
0.23
-0.34
-0.81
-1.00
-0.77
-0.13
0.82
1.90
2.91
3.61
3.86
3.59
2.85
1.84
0.83
0.07
-0.32
-0.36
-0.20
-0.00
0.13
0.20
0.29
0.43
0.60
0.72
0.69
0.52
0.31
0.17
0.12
0.05
-0.35
-1.40
-3.28
-5.89
-8.79
-11.35
-12.93
-13.08
-11.61
-8.66
-4.61
-0.09
4.14
7.23
8.44
7.37
4.18
-0.41
-5.25
-9.13
-11.22
-11.31
-9.79
-7.44
-5.04
-3.14
-1.93
-1.33
-1.13
-1.13
-1.21
-1.27
-1.28
-1.19
-1.02
-0.83
-0.74
-0.87
-1.27
-1.90
-2.65
-3.38
-3.94
-4.22
-4.11
-3.56
-2.63
-1.41
-0.12
1.06
2.01
2.71
3.23
3.65
4.00
4.25
4.34
4.25
4.03
3.76
3.53
3.42
3.42
3.48
3.52
3.45
3.22
2.84
2.36
1.89
1.56
1.46
1.56
1.78
1.99
2.06
1.93
1.58
1.04
0.37
-0.39
-1.20
-1.98
-2.63
-3.06
-3.19
-2.97
-2.42
-1.63
-0.71
0.18
0.93
1.48
1.86
2.13
2.40
2.71
3.06
3.36
3.51
3.44
3.15
2.70
2.22
1.80
1.48
1.27
1.18
1.21
1.36
1.62
1.87
1.97
1.75
1.13
0.21
-0.82
-1.69
-2.25
-2.47
-2.52
-2.62
-2.94
-3.50
-4.19
-4.86
-5.34
-5.51
-5.36
-4.88
-4.07
-2.98
-1.65
-0.21
1.17
2.30
3.06
3.39
3.34
3.02
2.57
2.07
1.61
1.23
0.96
0.83
0.82
0.92
1.06
1.16
1.13
0.94
0.60
0.15
-0.37
-0.94
-1.59
-2.33
-3.12
-3.86
-4.46
-4.87
-5.14
-5.36
-5.63
-5.93
-6.14
-6.05
-5.54
-4.58
-3.28
-1.86
-0.52
0.58
1.38
1.88
2.14
2.23
2.24
2.25
2.35
2.55
2.84
3.15
3.36
3.38
3.16
2.75
2.24
1.77
1.42
1.19
1.02
0.82
0.56
0.24
-0.05
-0.29
-0.46
-0.60
-0.75
-0.91
-1.04
-1.15
-1.27
-1.51
-1.96
-2.63
-3.38
-3.97
-4.13
-3.77
-2.95
-1.89
-0.85
-0.01
0.59
1.02
1.38
1.68
1.90
1.98
1.92
1.81
1.79
1.98
2.43
3.05
3.65
4.06
4.17
4.00
3.65
3.24
2.88
2.63
2.47
2.39
2.33
2.24
2.07
1.77
1.35
0.85
0.35
-0.06
-0.38
-0.66
-1.03
-1.53
-2.18
-2.83
-3.36
-3.62
-3.54
-3.15
-2.51
-1.70
-0.80
0.15
1.08
1.95
2.66
3.14
3.34
3.28
3.02
2.70
2.44
2.31
2.30
2.31
2.22
1.93
1.47
0.93
0.47
0.18
0.06
0.02
-0.04
-0.21
-0.50
-0.84
-1.16
-1.43
-1.68
-2.00
-2.45
-3.01
-3.62
-4.15
-4.51
-4.67
-4.61
-4.40
-4.03
-3.52
-2.86
-2.07
-1.23
-0.41
0.31
0.90
1.36
1.71
1.97
2.13
2.16
2.06
1.87
1.65
1.45
1.28
1.11
0.86
0.50
0.03
-0.43
-0.78
-0.93
-0.94
-0.94
-1.12
-1.53
-2.11
-2.71
-3.17
-3.47
-3.69
-3.96
-4.36
-4.80
-5.09
-5.09
-4.76
-4.17
-3.48
-2.79
-2.10
-1.37
-0.58
0.21
0.90
1.39
1.67
1.78
1.84
1.91
2.01
2.08
2.08
2.00
1.86
1.67
1.46
1.25
1.06
0.88
0.71
0.51
0.20
-0.25
-0.82
-1.44
-1.99
-2.41
-2.71
-3.00
-3.41
-4.00
-4.73
-5.44
-5.91
-5.94
-5.43
-4.40
-2.98
-1.42
0.04
1.18
1.88
2.11
1.97
1.63
1.28
1.10
1.17
1.46
1.91
2.39
2.79
3.07
3.20
3.19
3.06
2.86
2.63
2.43
2.32
2.28
2.28
2.24
2.13
1.95
1.73
1.50
1.24
0.91
0.44
-0.20
-1.01
-1.94
-2.90
-3.81
-4.60
-5.18
-5.50
-5.49
-5.16
-4.53
-3.68
-2.71
-1.70
-0.72
0.22
1.08
1.81
2.37
2.70
2.78
2.64
2.36
2.06
1.85
1.80
1.90
2.14
2.43
2.72
2.97
3.16
3.25
3.26
3.17
2.97
2.64
2.18
1.60
0.96
0.36
-0.11
-0.39
-0.56
-0.70
-0.94
-1.35
-1.93
-2.60
-3.22
-3.68
-3.88
-3.80
-3.45
-2.88
-2.15
-1.28
-0.33
0.65
1.60
2.44
3.10
3.58
3.91
4.18
4.45
4.73
4.99
5.21
5.37
5.48
5.59
5.71
5.80
5.82
5.69
5.40
4.99
4.53
4.11
3.77
3.53
3.31
3.01
2.52
1.79
0.82
-0.25
-1.28
-2.15
-2.87
-3.48
-4.08
-4.70
-5.24
-5.53
-5.41
-4.79
-3.76
-2.52
-1.31
-0.31
0.43
0.92
1.24
1.47
1.66
1.82
2.00
2.23
2.50
2.77
2.98
3.05
2.93
2.62
2.17
1.63
1.07
0.49
-0.05
-0.53
-0.89
-1.11
-1.20
-1.23
-1.29
-1.45
-1.79
-2.34
-3.10
-4.03
-5.06
-6.08
-6.93
-7.45
-7.56
-7.26
-6.65
-5.90
-5.13
-4.37
-3.54
-2.44
-0.97
0.89
2.95
4.92
6.49
7.50
7.91
7.86
7.51
6.98
6.35
5.65
4.88
4.14
3.52
3.10
2.92
2.88
2.84
2.63
2.13
1.30
0.15
-1.24
-2.78
-4.37
-5.88
-7.20
-8.23
-8.89
-9.11
-8.88
-8.19
-7.11
-5.74
-4.25
-2.83
-1.66
-0.84
-0.39
-0.22
-0.23
-0.28
-0.27
-0.15
0.15
0.62
1.22
1.81
2.24
2.34
2.05
1.42
0.59
-0.29
-1.08
-1.74
-2.28
-2.70
-3.06
-3.37
-3.70
-4.08
-4.56
-5.11
-5.63
-5.97
-6.01
-5.67
-4.97
-3.99
-2.81
-1.53
-0.21
1.09
2.29
3.31
4.05
4.44
4.48
4.25
3.91
3.61
3.49
3.58
3.78
3.95
3.95
3.72
3.30
2.82
2.39
2.09
1.93
1.83
1.74
1.58
1.31
0.92
0.40
-0.28
-1.16
-2.24
-3.44
-4.58
-5.42
-5.72
-5.39
-4.46
-3.17
-1.77
-0.51
0.51
1.30
1.93
2.47
2.90
3.17
3.23
3.08
2.81
2.52
2.31
2.17
2.09
1.99
1.82
1.57
1.22
0.77
0.23
-0.36
-0.90
-1.27
-1.37
-1.21
-0.90
-0.66
-0.68
-1.06
-1.76
-2.62
-3.43
-3.97
-4.12
-3.84
-3.18
-2.21
-1.08
0.12
1.26
2.27
3.05
3.52
3.67
3.51
3.15
2.74
2.44
2.33
2.37
2.45
2.40
2.12
1.63
1.02
0.44
-0.02
-0.36
-0.65
-0.98
-1.40
-1.85
-2.28
-2.67
-3.08
-3.62
-4.38
-5.32
-6.24
-6.90
-7.08
-6.76
-6.04
-5.15
-4.23
-3.35
-2.45
-1.43
-0.27
1.00
2.21
3.19
3.79
3.98
3.80
3.37
2.86
2.41
2.11
1.94
1.82
1.63
1.33
0.93
0.53
0.20
-0.01
-0.14
-0.24
-0.35
-0.50
-0.69
-0.94
-1.27
-1.69
-2.19
-2.69
-3.08
-3.20
-2.98
-2.43
-1.61
-0.65
0.37
1.39
2.43
3.49
4.53
5.45
6.10
6.35
6.17
5.66
5.01
4.39
3.93
3.60
3.36
3.11
2.87
2.71
2.68
2.79
2.94
2.96
2.72
2.20
1.51
0.84
0.35
0.09
-0.04
-0.20
-0.55
-1.14
-1.94
-2.85
-3.79
-4.68
-5.44
-5.99
-6.17
-5.87
-5.04
-3.77
-2.29
-0.85
0.35
1.25
1.90
2.44
2.95
3.48
3.94
4.25
4.33
4.17
3.88
3.58
3.40
3.37
3.43
3.46
3.36
3.12
2.81
2.58
2.51
2.60
2.71
2.68
2.41
1.89
1.25
0.62
0.12
-0.28
-0.69
-1.22
-1.93
-2.80
-3.70
-4.51
-5.10
-5.42
-5.46
-5.22
-4.70
-3.89
-2.85
-1.67
-0.47
0.61
1.47
2.08
2.46
2.61
2.58
2.40
2.10
1.78
1.49
1.25
1.02
0.73
0.29
-0.27
-0.85
-1.30
-1.52
-1.49
-1.31
-1.10
-0.95
-0.87
-0.84
-0.86
-0.99
-1.33
-1.94
-2.80
-3.77
-4.69
-5.42
-5.94
-6.27
-6.46
-6.50
-6.31
-5.78
-4.89
-3.75
-2.53
-1.38
-0.34
0.68
1.77
2.94
4.05
4.89
5.27
5.19
4.85
4.52
4.41
4.56
4.81
4.97
4.90
4.62
4.27
4.01
3.87
3.75
3.50
2.97
2.17
1.22
0.31
-0.39
-0.83
-1.09
-1.31
-1.66
-2.20
-2.91
-3.71
-4.47
-5.10
-5.62
-6.04
-6.40
-6.69
-6.83
-6.67
-6.15
-5.30
-4.24
-3.18
-2.29
-1.63
-1.17
-0.78
-0.38
0.09
0.64
1.28
2.00
2.82
3.73
4.68
5.57
6.28
6.74
6.92
6.87
6.64
6.25
5.70
5.01
4.25
3.52
2.94
2.56
2.33
2.14
1.86
1.42
0.83
0.19
-0.41
-0.94
-1.43
-1.99
-2.71
-3.61
-4.59
-5.45
-5.94
-5.86
-5.16
-3.93
-2.36
-0.70
0.85
2.15
3.13
3.75
4.05
4.09
3.96
3.74
3.51
3.30
3.15
3.05
3.05
3.14
3.29
3.44
3.53
3.46
3.22
2.81
2.33
1.85
1.44
1.11
0.84
0.59
0.30
-0.02
-0.38
-0.75
-1.14
-1.57
-2.04
-2.55
-3.06
-3.55
-4.00
-4.43
-4.83
-5.14
-5.22
-4.91
-4.14
-2.97
-1.56
-0.16
1.00
1.77
2.09
2.03
1.71
1.29
0.94
0.76
0.77
0.86
0.89
0.78
0.55
0.29
0.16
0.22
0.41
0.57
0.54
0.24
-0.30
-0.93
-1.53
-2.01
-2.36
-2.69
-3.07
-3.56
-4.18
-4.89
-5.67
-6.51
-7.39
-8.18
-8.71
-8.72
-8.01
-6.51
-4.36
-1.90
0.45
2.36
3.65
4.35
4.60
4.60
4.47
4.29
4.06
3.74
3.34
2.88
2.44
2.13
2.00
2.05
2.19
2.24
2.07
1.62
0.99
0.32
-0.21
-0.53
-0.72
-0.94
-1.34
-1.98
-2.79
-3.63
-4.34
-4.84
-5.11
-5.18
-5.06
-4.74
-4.18
-3.38
-2.38
-1.27
-0.13
0.91
1.80
2.49
2.97
3.26
3.43
3.58
3.81
4.19
4.71
5.28
5.76
5.99
5.87
5.37
4.61
3.75
3.00
2.56
2.52
2.84
3.36
3.80
3.84
3.15
1.61
-0.67
-3.28
-5.63
-7.21
-7.74
-7.32
-6.32
-5.17
-4.15
-3.30
-2.49
-1.59
-0.59
0.36
1.09
1.56
1.86
2.18
2.63
3.21
3.73
3.97
3.78
3.20
2.44
1.74
1.31
1.22
1.38
1.64
1.83
1.89
1.78
1.56
1.24
0.85
0.44
0.05
-0.23
-0.37
-0.40
-0.42
-0.61
-1.10
-1.92
-2.96
-4.04
-4.93
-5.47
-5.58
-5.28
-4.62
-3.70
-2.62
-1.48
-0.36
0.65
1.54
2.29
2.88
3.27
3.42
3.35
3.11
2.85
2.70
2.73
2.88
3.00
2.89
2.44
1.68
0.75
-0.16
-0.90
-1.41
-1.69
-1.78
-1.78
-1.76
-1.82
-2.07
-2.60
-3.46
-4.59
-5.86
-7.05
-7.95
-8.39
-8.30
-7.75
-6.89
-5.92
-5.00
-4.22
-3.58
-3.01
-2.44
-1.86
-1.29
-0.78
-0.35
0.00
0.33
0.65
1.02
1.40
1.78
2.14
2.46
2.72
2.89
2.93
2.81
2.55
2.20
1.85
1.52
1.20
0.82
0.31
-0.38
-1.22
-2.14
-3.08
-3.95
-4.68
-5.21
-5.45
-5.33
-4.82
-3.93
-2.75
-1.39
0.04
1.41
2.63
3.64
4.41
4.93
5.29
5.57
5.85
6.14
6.37
6.44
6.25
5.78
5.08
4.25
3.40
2.62
1.98
1.53
1.27
1.20
1.28
1.39
1.44
1.33
1.03
0.59
0.08
-0.43
-0.91
-1.38
-1.88
-2.47
-3.21
-4.13
-5.24
-6.45
-7.61
-8.48
-8.76
-8.21
-6.78
-4.59
-2.00
0.58
2.80
4.48
5.65
6.46
7.05
7.49
7.74
7.71
7.34
6.68
5.87
5.06
4.36
3.83
3.42
3.09
2.79
2.55
2.38
2.31
2.33
2.40
2.44
2.39
2.24
1.99
1.69
1.36
1.01
0.56
-0.08
-0.98
-2.14
-3.45
-4.68
-5.58
-5.94
-5.69
-4.93
-3.87
-2.74
-1.71
-0.87
-0.24
0.20
0.47
0.59
0.60
0.59
0.66
0.92
1.38
2.00
2.67
3.30
3.80
4.16
4.39
4.51
4.51
4.39
4.14
3.78
3.37
2.98
2.68
2.48
2.33
2.16
1.88
1.50
1.08
0.70
0.44
0.28
0.12
-0.19
-0.79
-1.70
-2.82
-3.96
-4.85
-5.30
-5.18
-4.52
-3.49
-2.31
-1.22
-0.34
0.33
0.87
1.36
1.84
2.24
2.47
2.46
2.22
1.88
1.55
1.37
1.33
1.40
1.49
1.55
1.54
1.47
1.33
1.13
0.85
0.48
0.00
-0.57
-1.23
-1.90
-2.55
-3.12
-3.59
-4.00
-4.41
-4.88
-5.45
-6.05
-6.56
-6.79
-6.61
-5.97
-4.95
-3.72
-2.47
-1.35
-0.42
0.35
1.01
1.60
2.09
2.44
2.64
2.72
2.72
2.68
2.59
2.42
2.18
1.91
1.66
1.45
1.25
1.00
0.66
0.22
-0.21
-0.55
-0.73
-0.78
-0.80
-0.90
-1.13
-1.49
-1.91
-2.32
-2.72
-3.17
-3.69
-4.24
-4.67
-4.77
-4.42
-3.63
-2.59
-1.58
-0.80
-0.30
0.06
0.47
1.05
1.76
2.41
2.77
2.74
2.39
1.87
1.41
1.12
1.01
1.00
1.01
0.95
0.85
0.74
0.65
0.55
0.41
0.16
-0.21
-0.64
-1.08
-1.45
-1.76
-2.07
-2.47
-3.06
-3.80
-4.62
-5.29
-5.61
-5.41
-4.66
-3.46
-2.03
-0.63
0.54
1.41
2.00
2.38
2.61
2.75
2.81
2.82
2.87
3.02
3.32
3.72
4.09
4.31
4.28
4.05
3.72
3.46
3.38
3.49
3.71
3.90
3.91
3.64
3.08
2.31
1.52
0.89
0.55
0.51
0.64
0.75
0.60
0.09
-0.80
-1.94
-3.14
-4.22
-5.00
-5.40
-5.35
-4.87
-4.02
-2.91
-1.69
-0.51
0.52
1.31
1.85
2.17
2.39
2.58
2.81
3.05
3.22
3.22
3.01
2.61
2.16
1.75
1.44
1.19
0.94
0.66
0.39
0.20
0.13
0.13
0.09
-0.11
-0.52
-1.08
-1.66
-2.16
-2.57
-3.00
-3.57
-4.30
-5.06
-5.65
-5.82
-5.46
-4.62
-3.46
-2.18
-0.91
0.29
1.40
2.38
3.16
3.63
3.76
3.60
3.27
2.88
2.52
2.13
1.69
1.15
0.59
0.11
-0.15
-0.16
0.02
0.28
0.46
0.47
0.31
0.01
-0.36
-0.76
-1.18
-1.64
-2.18
-2.80
-3.53
-4.32
-5.11
-5.80
-6.28
-6.46
-6.31
-5.81
-5.01
-3.94
-2.70
-1.39
-0.11
1.02
1.95
2.66
3.18
3.52
3.68
3.65
3.41
2.99
2.49
2.06
1.81
1.74
1.78
1.79
1.69
1.47
1.20
0.98
0.82
0.67
0.43
0.03
-0.51
-1.13
-1.73
-2.30
-2.86
-3.45
-4.06
-4.61
-5.03
-5.27
-5.33
-5.25
-5.01
-4.55
-3.79
-2.68
-1.32
0.11
1.40
2.36
2.95
3.20
3.23
3.13
2.99
2.86
2.76
2.71
2.66
2.56
2.34
1.97
1.49
0.95
0.46
0.09
-0.13
-0.18
-0.13
-0.03
0.02
-0.03
-0.23
-0.57
-1.01
-1.52
-2.03
-2.47
-2.85
-3.16
-3.47
-3.82
-4.24
-4.68
-5.03
-5.13
-4.88
-4.23
-3.25
-2.06
-0.80
0.44
1.60
2.66
3.57
4.28
4.74
4.92
4.84
4.59
4.32
4.18
4.27
4.58
4.97
5.22
5.19
4.81
4.19
3.56
3.07
2.80
2.64
2.43
2.04
1.45
0.75
0.08
-0.48
-0.91
-1.28
-1.65
-2.09
-2.62
-3.24
-3.91
-4.58
-5.13
-5.44
-5.44
-5.06
-4.30
-3.21
-1.86
-0.35
1.18
2.53
3.53
4.07
4.16
3.92
3.55
3.22
2.96
2.74
2.49
2.20
1.90
1.71
1.66
1.71
1.73
1.58
1.18
0.59
-0.04
-0.52
-0.76
-0.78
-0.74
-0.83
-1.22
-1.93
-2.90
-3.95
-4.91
-5.66
-6.12
-6.25
-6.04
-5.52
-4.79
-4.01
-3.37
-2.94
-2.66
-2.25
-1.40
0.08
2.15
4.47
6.57
7.98
8.41
7.90
6.71
5.23
3.81
2.68
1.88
1.35
1.02
0.80
0.69
0.66
0.63
0.48
0.07
-0.65
-1.60
-2.60
-3.41
-3.88
-4.02
-3.99
-4.04
-4.36
-5.00
-5.85
-6.66
-7.14
-7.06
-6.29
-4.86
-2.92
-0.70
1.52
3.51
5.08
6.09
6.55
6.52
6.17
5.68
5.20
4.78
4.41
4.06
3.72
3.42
3.20
3.07
2.98
2.82
2.48
1.96
1.31
0.64
0.07
-0.33
-0.55
-0.65
-0.69
-0.72
-0.77
-0.87
-1.03
-1.28
-1.63
-2.08
-2.61
-3.18
-3.73
-4.16
-4.41
-4.39
-4.06
-3.40
-2.44
-1.28
-0.07
1.01
1.84
2.38
2.69
2.89
3.07
3.26
3.37
3.30
3.01
2.52
1.93
1.34
0.82
0.39
0.03
-0.26
-0.44
-0.49
-0.46
-0.42
-0.49
-0.76
-1.22
-1.81
-2.46
-3.11
-3.76
-4.45
-5.20
-6.00
-6.76
-7.33
-7.56
-7.33
-6.59
-5.36
-3.81
-2.12
-0.49
0.95
2.15
3.15
4.00
4.69
5.19
5.42
5.37
5.09
4.72
4.34
3.99
3.63
3.23
2.76
2.29
1.94
1.78
1.81
1.90
1.89
1.64
1.09
0.32
-0.57
-1.46
-2.30
-3.06
-3.76
-4.41
-5.03
-5.59
-6.07
-6.43
-6.59
-6.46
-5.97
-5.05
-3.70
-2.06
-0.32
1.28
2.55
3.42
3.94
4.24
4.42
4.48
4.39
4.11
3.67
3.20
2.86
2.73
2.77
2.83
2.73
2.38
1.79
1.09
0.38
-0.31
-1.00
-1.73
-2.49
-3.18
-3.72
-4.05
-4.30
-4.64
-5.24
-6.13
-7.14
-7.94
-8.19
-7.67
-6.40
-4.64
-2.73
-0.99
0.40
1.41
2.15
2.76
3.31
3.80
4.20
4.43
4.49
4.47
4.45
4.49
4.61
4.69
4.64
4.39
3.96
3.45
2.99
2.62
2.33
1.99
1.50
0.73
-0.32
-1.59
-2.93
-4.15
-5.06
-5.56
-5.64
-5.36
-4.88
-4.35
-3.82
-3.30
-2.73
-2.03
-1.17
-0.18
0.88
1.93
2.86
3.60
4.09
4.29
4.19
3.83
3.34
2.87
2.57
2.52
2.71
2.99
3.17
3.03
2.47
1.51
0.27
-1.01
-2.08
-2.71
-2.76
-2.23
-1.26
-0.14
0.80
1.30
1.24
0.74
0.03
-0.63
-1.10
-1.32
-1.34
-1.21
-0.93
-0.46
0.22
1.05
1.90
2.63
3.17
3.51
3.70
3.79
3.80
3.68
3.43
3.04
2.62
2.28
2.14
2.25
2.56
2.94
3.24
3.33
3.12
2.57
1.69
0.60
-0.55
-1.55
-2.26
-2.61
-2.64
-2.50
-2.37
-2.39
-2.64
-3.11
-3.71
-4.33
-4.83
-5.10
-5.04
-4.62
-3.86
-2.81
-1.53
-0.05
1.59
3.30
4.96
6.38
7.37
7.83
7.69
7.04
6.01
4.80
3.60
2.56
1.77
1.20
0.81
0.51
0.24
-0.03
-0.34
-0.71
-1.20
-1.83
-2.58
-3.37
-4.12
-4.73
-5.24
-5.68
-6.16
-6.67
-7.14
-7.42
-7.34
-6.82
-5.87
-4.64
-3.33
-2.09
-1.00
-0.03
0.87
1.74
2.53
3.15
3.51
3.58
3.46
3.29
3.21
3.25
3.39
3.54
3.61
3.54
3.30
2.89
2.32
1.60
0.79
-0.03
-0.75
-1.34
-1.82
-2.30
-2.86
-3.58
-4.39
-5.16
-5.76
-6.09
-6.11
-5.81
-5.24
-4.41
-3.33
-2.06
-0.71
0.61
1.79
2.75
3.49
4.02
4.37
4.55
4.59
4.51
4.34
4.10
3.84
3.56
3.28
3.00
2.71
2.42
2.18
1.98
1.85
1.74
1.54
1.13
0.45
-0.52
-1.66
-2.80
-3.81
-4.64
-5.33
-5.97
-6.59
-7.07
-7.21
-6.80
-5.76
-4.21
-2.41
-0.68
0.76
1.85
2.68
3.34
3.90
4.34
4.57
4.53
4.28
3.94
3.65
3.51
3.51
3.52
3.43
3.15
2.70
2.19
1.71
1.35
1.14
1.03
0.96
0.86
0.67
0.36
-0.10
-0.69
-1.39
-2.13
-2.87
-3.57
-4.24
-4.82
-5.24
-5.33
-4.96
-4.05
-2.68
-1.07
0.54
1.93
3.00
3.80
4.41
4.91
5.31
5.57
5.64
5.51
5.19
4.71
4.12
3.48
2.83
2.21
1.68
1.24
0.86
0.49
0.08
-0.37
-0.83
-1.25
-1.59
-1.88
-2.17
-2.54
-3.03
-3.66
-4.38
-5.11
-5.77
-6.26
-6.51
-6.43
-5.94
-4.99
-3.62
-1.92
-0.07
1.72
3.27
4.46
5.30
5.83
6.13
6.22
6.07
5.63
4.91
3.99
3.00
2.08
1.31
0.71
0.24
-0.15
-0.43
-0.58
-0.61
-0.60
-0.66
-0.93
-1.46
-2.21
-3.12
-4.10
-5.15
-6.24
-7.33
-8.25
-8.74
-8.59
-7.73
-6.31
-4.64
-3.06
-1.78
-0.83
-0.09
0.60
1.32
2.03
2.64
3.04
3.20
3.17
3.03
2.88
2.76
2.68
2.59
2.44
2.19
1.85
1.45
1.05
0.70
0.39
0.07
-0.35
-0.92
-1.60
-2.29
-2.90
-3.41
-3.90
-4.48
-5.23
-6.04
-6.68
-6.86
-6.39
-5.29
-3.73
-2.00
-0.34
1.09
2.29
3.30
4.14
4.78
5.17
5.30
5.24
5.14
5.11
5.21
5.32
5.29
4.94
4.28
3.43
2.63
2.07
1.77
1.61
1.40
0.98
0.34
-0.41
-1.09
-1.59
-1.91
-2.13
-2.40
-2.84
-3.49
-4.34
-5.26
-6.11
-6.75
-7.00
-6.75
-5.90
-4.52
-2.74
-0.81
1.01
2.53
3.67
4.45
4.94
5.25
5.40
5.40
5.26
5.02
4.74
4.51
4.34
4.25
4.18
4.12
4.05
3.99
3.94
3.85
3.65
3.25
2.62
1.79
0.86
-0.01
-0.70
-1.18
-1.50
-1.82
-2.32
-3.10
-4.17
-5.36
-6.40
-6.97
-6.83
-5.90
-4.33
-2.40
-0.47
1.22
2.54
3.54
4.30
4.90
5.32
5.49
5.34
4.85
4.11
3.28
2.55
2.06
1.84
1.82
1.85
1.79
1.58
1.23
0.78
0.32
-0.12
-0.50
-0.82
-1.06
-1.25
-1.48
-1.86
-2.50
-3.47
-4.67
-5.93
-7.02
-7.69
-7.81
-7.34
-6.34
-5.00
-3.51
-2.06
-0.79
0.32
1.34
2.32
3.28
4.11
4.69
4.88
4.66
4.11
3.39
2.69
2.11
1.71
1.47
1.35
1.31
1.28
1.19
0.95
0.50
-0.15
-0.92
-1.67
-2.26
-2.66
-2.94
-3.22
-3.67
-4.35
-5.26
-6.27
-7.24
-7.98
-8.34
-8.20
-7.48
-6.18
-4.41
-2.39
-0.35
1.48
2.94
3.94
4.52
4.74
4.68
4.46
4.14
3.78
3.40
3.05
2.74
2.50
2.34
2.22
2.08
1.85
1.48
1.01
0.51
0.04
-0.35
-0.71
-1.09
-1.56
-2.12
-2.72
-3.37
-4.06
-4.82
-5.64
-6.43
-6.98
-7.09
-6.58
-5.45
-3.81
-1.89
0.07
1.85
3.32
4.43
5.20
5.66
5.86
5.86
5.70
5.44
5.16
4.90
4.68
4.43
4.09
3.58
2.93
2.26
1.71
1.39
1.29
1.29
1.23
1.02
0.60
0.05
-0.57
-1.17
-1.73
-2.24
-2.72
-3.20
-3.74
-4.40
-5.21
-6.15
-7.08
-7.76
-7.97
-7.51
-6.36
-4.63
-2.53
-0.33
1.73
3.49
4.87
5.84
6.44
6.69
6.67
6.42
6.00
5.48
4.95
4.50
4.16
3.95
3.78
3.54
3.14
2.59
1.98
1.45
1.13
1.03
1.07
1.06
0.86
0.40
-0.27
-1.03
-1.73
-2.26
-2.61
-2.84
-3.07
-3.41
-3.93
-4.64
-5.48
-6.33
-7.03
-7.43
-7.41
-6.87
-5.79
-4.21
-2.32
-0.34
1.50
3.04
4.22
5.12
5.84
6.49
7.10
7.62
7.95
8.02
7.81
7.34
6.69
5.94
5.17
4.46
3.88
3.53
3.47
3.70
4.11
4.54
4.80
4.76
4.41
3.83
3.18
2.56
2.03
1.55
1.00
0.29
-0.67
-1.85
-3.15
-4.38
-5.31
-5.74
-5.56
-4.78
-3.53
-2.03
-0.49
0.92
2.10
2.99
3.62
4.03
4.26
4.36
4.36
4.28
4.12
3.87
3.49
2.98
2.35
1.66
0.99
0.43
0.03
-0.24
-0.51
-0.91
-1.50
-2.22
-2.86
-3.20
-3.14
-2.77
-2.32
-2.10
-2.32
-3.00
-4.00
-5.06
-5.96
-6.59
-6.89
-6.86
-6.49
-5.71
-4.51
-2.95
-1.17
0.60
2.18
3.43
4.37
5.05
5.56
5.93
6.07
5.89
5.35
4.49
3.54
2.76
2.40
2.55
3.11
3.81
4.38
4.59
4.43
4.03
3.57
3.13
2.65
2.00
1.04
-0.20
-1.56
-2.80
-3.76
-4.34
-4.54
-4.30
-3.50
-2.02
0.10
2.49
4.51
5.41
4.63
2.09
-1.76
-6.16
-10.30
-13.61
-15.84
-16.98
-17.04
-15.89
-13.21
-8.69
-2.32
5.38
13.39
20.38
25.18
27.18
26.52
23.98
20.68
17.64
15.50
14.41
14.07
13.86
12.97
10.51
5.72
-1.75
-11.56
-22.63
-33.24
-41.58
-46.24
-46.74
-43.55
-37.93
-31.33
-24.97
-19.54
-15.22
-11.93
-9.50
-7.82
-6.81
-6.28
-5.87
-5.16
-3.81
-1.73
0.84
3.51
5.91
7.86
9.47
10.97
12.55
14.25
15.89
17.14
17.63
17.06
15.32
12.53
8.98
5.14
1.51
-1.43
-3.42
-4.42
-4.63
-4.38
-3.99
-3.67
-3.49
-3.38
-3.25
-3.02
-2.67
-2.23
-1.77
-1.33
-0.97
-0.69
-0.49
-0.35
-0.24
-0.12
0.02
0.16
0.23
0.16
-0.07
-0.40
-0.75
-1.02
-1.14
-1.13
-1.05
-0.98
-0.98
-1.11
-1.42
-1.88
-2.41
-2.85
-2.99
-2.63
-1.73
-0.35
1.26
2.85
4.21
5.23
5.93
6.38
6.60
6.59
6.30
5.66
4.69
3.47
2.14
0.87
-0.24
-1.16
-1.92
-2.50
-2.86
-2.93
-2.66
-2.13
-1.54
-1.15
-1.19
-1.72
-2.59
-3.57
-4.41
-4.98
-5.26
-5.33
-5.20
-4.85
-4.21
-3.23
-1.93
-0.40
1.21
2.81
4.32
5.72
6.93
7.87
8.46
8.70
8.70
8.64
8.69
8.88
9.06
8.98
8.43
7.39
6.13
5.07
4.63
5.03
6.19
7.76
9.30
10.45
11.08
11.28
11.29
11.29
11.33
11.27
10.83
9.75
7.89
5.28
2.07
-1.51
-5.23
-8.90
-12.38
-15.51
-18.12
-20.04
-21.16
-21.43
-20.89
-19.69
-17.99
-15.95
-13.73
-11.47
-9.32
-7.46
-6.08
-5.26
-5.01
-5.23
-5.70
-6.24
-6.67
-6.97
-7.22
-7.58
-8.19
-9.08
-10.13
-11.13
-11.86
-12.20
-12.18
-11.91
-11.49
-10.92
-10.00
-8.47
-6.17
-3.18
0.19
3.46
6.20
8.13
9.19
9.47
9.19
8.56
7.79
7.07
6.49
6.15
6.10
6.34
6.87
7.66
8.63
9.66
10.61
11.29
11.58
11.39
10.70
9.63
8.37
7.24
6.54
6.49
7.16
8.32
9.61
10.57
10.87
10.41
9.38
8.12
7.04
6.43
6.40
6.85
7.58
8.32
8.88
9.20
9.27
9.16
8.88
8.42
7.70
6.72
5.51
4.18
2.87
1.73
0.85
0.23
-0.20
-0.58
-1.08
-1.83
-2.94
-4.40
-6.13
-7.98
-9.79
-11.45
-12.90
-14.12
-15.10
-15.85
-16.36
-16.66
-16.80
-16.79
-16.65
-16.35
-15.85
-15.13
-14.20
-13.11
-11.92
-10.69
-9.47
-8.28
-7.16
-6.14
-5.26
-4.51
-3.86
-3.24
-2.63
-2.01
-1.43
-0.91
-0.48
-0.12
0.21
0.58
1.01
1.52
2.05
2.53
2.88
3.02
2.92
2.53
1.89
1.07
0.19
-0.65
-1.38
-2.00
-2.57
-3.14
-3.71
-4.20
-4.47
-4.40
-3.89
-2.92
-1.50
0.33
2.46
4.77
7.04
9.06
10.66
11.79
12.49
12.84
12.94
12.85
12.61
12.29
11.97
11.73
11.65
11.70
11.79
11.76
11.46
10.79
9.75
8.41
6.92
5.41
3.98
2.62
1.33
0.06
-1.17
-2.30
-3.28
-4.07
-4.67
-5.13
-5.43
-5.52
-5.30
-4.74
-3.87
-2.89
-2.06
-1.64
-1.73
-2.27
-2.99
-3.59
-3.84
-3.67
-3.22
-2.73
-2.45
-2.47
-2.74
-3.10
-3.39
-3.60
-3.80
-4.11
-4.60
-5.20
-5.76
-6.13
-6.24
-6.13
-5.94
-5.80
-5.76
-5.75
-5.67
-5.44
-5.05
-4.60
-4.23
-4.05
-4.12
-4.45
-4.99
-5.64
-6.27
-6.71
-6.79
-6.36
-5.34
-3.82
-1.98
-0.07
1.68
3.15
4.29
5.17
5.88
6.46
6.90
7.16
7.19
7.00
6.69
6.40
6.27
6.37
6.68
7.10
7.56
8.01
8.41
8.72
8.84
8.70
8.29
7.70
7.12
6.74
6.53
6.29
5.65
4.28
2.05
-0.88
-4.09
-7.11
-9.51
-11.07
-11.75
-11.66
-10.92
-9.63
-7.88
-5.77
-3.48
-1.30
0.45
1.49
1.72
1.25
0.39
-0.40
-0.77
-0.50
0.34
1.54
2.78
3.77
4.37
4.56
4.42
4.06
3.58
3.04
2.49
2.00
1.63
1.42
1.31
1.17
0.80
0.02
-1.27
-2.97
-4.88
-6.71
-8.20
-9.17
-9.55
-9.39
-8.82
-7.98
-6.99
-5.93
-4.87
-3.84
-2.90
-2.08
-1.43
-0.97
-0.64
-0.38
-0.12
0.17
0.48
0.73
0.89
0.97
1.00
1.02
1.07
1.12
1.16
1.18
1.18
1.18
1.17
1.14
1.03
0.78
0.32
-0.38
-1.31
-2.42
-3.56
-4.53
-5.09
-5.08
-4.43
-3.20
-1.56
0.31
2.22
4.03
5.63
6.92
7.83
8.33
8.44
8.27
7.96
7.66
7.47
7.42
7.42
7.37
7.15
6.71
6.04
5.23
4.36
3.49
2.66
1.87
1.08
0.27
-0.59
-1.51
-2.49
-3.55
-4.66
-5.78
-6.77
-7.50
-7.80
-7.61
-6.91
-5.78
-4.35
-2.73
-1.01
0.77
2.50
4.04
5.20
5.83
5.86
5.41
4.70
4.00
3.49
3.18
3.03
2.90
2.71
2.43
2.09
1.76
1.48
1.27
1.09
0.92
0.71
0.43
0.12
-0.19
-0.46
-0.68
-0.89
-1.15
-1.52
-2.03
-2.67
-3.39
-4.12
-4.78
-5.23
-5.34
-5.04
-4.32
-3.28
-2.12
-1.01
-0.02
0.87
1.76
2.76
3.86
4.91
5.72
6.10
5.98
5.46
4.76
4.08
3.55
3.12
2.64
1.93
0.96
-0.15
-1.16
-1.86
-2.20
-2.35
-2.59
-3.20
-4.31
-5.86
-7.65
-9.41
-10.97
-12.18
-12.98
-13.34
-13.23
-12.68
-11.71
-10.39
-8.79
-6.96
-4.96
-2.81
-0.56
1.73
3.97
6.03
7.75
9.00
9.66
9.74
9.35
8.74
8.14
7.73
7.55
7.55
7.61
7.67
7.73
7.84
8.01
8.16
8.10
7.68
6.82
5.59
4.18
2.78
1.48
0.23
-1.13
-2.71
-4.49
-6.29
-7.87
-9.03
-9.68
-9.85
-9.63
-9.06
-8.09
-6.68
-4.82
-2.62
-0.32
1.78
3.42
4.47
4.95
5.07
5.05
5.09
5.28
5.57
5.79
5.81
5.57
5.13
4.60
4.08
3.57
3.03
2.38
1.62
0.83
0.14
-0.37
-0.72
-1.03
-1.45
-2.10
-3.01
-4.15
-5.44
-6.75
-7.97
-8.97
-9.64
-9.86
-9.57
-8.78
-7.58
-6.14
-4.63
-3.28
-2.21
-1.48
-1.03
-0.66
-0.16
0.63
1.69
2.86
3.89
4.56
4.83
4.80
4.64
4.53
4.52
4.57
4.62
4.59
4.50
4.34
4.12
3.76
3.20
2.38
1.33
0.14
-1.06
-2.19
-3.22
-4.17
-5.08
-5.91
-6.54
-6.82
-6.61
-5.87
-4.69
-3.23
-1.67
-0.18
1.16
2.35
3.40
4.30
5.05
5.60
5.93
6.03
5.93
5.65
5.25
4.81
4.37
4.03
3.83
3.78
3.86
4.01
4.14
4.16
4.01
3.63
3.01
2.20
1.25
0.26
-0.68
-1.52
-2.26
-2.97
-3.75
-4.66
-5.67
-6.68
-7.49
-7.94
-7.90
-7.38
-6.50
-5.42
-4.29
-3.21
-2.20
-1.26
-0.35
0.56
1.46
2.36
3.28
4.16
4.95
5.51
5.76
5.67
5.35
4.95
4.63
4.44
4.30
4.05
3.58
2.89
2.12
1.44
0.95
0.64
0.37
-0.06
-0.76
-1.81
-3.18
-4.81
-6.60
-8.38
-9.90
-10.87
-11.09
-10.45
-9.06
-7.16
-5.08
-3.07
-1.28
0.26
1.55
2.55
3.23
3.54
3.51
3.25
2.95
2.75
2.73
2.89
3.11
3.31
3.40
3.37
3.19
2.86
2.34
1.64
0.81
-0.04
-0.76
-1.24
-1.46
-1.44
-1.30
-1.19
-1.22
-1.41
-1.72
-1.98
-1.96
-1.46
-0.40
1.10
2.77
4.25
5.26
5.68
5.59
5.20
4.72
4.27
3.80
3.21
2.42
1.48
0.51
-0.35
-1.02
-1.50
-1.84
-2.13
-2.37
-2.54
-2.59
-2.46
-2.16
-1.72
-1.27
-0.95
-0.85
-1.01
-1.36
-1.77
-2.17
-2.57
-3.07
-3.80
-4.73
-5.69
-6.38
-6.51
-5.91
-4.67
-3.02
-1.30
0.26
1.49
2.37
2.95
3.29
3.48
3.64
3.89
4.35
5.06
5.99
7.01
7.90
8.45
8.57
8.27
7.67
6.93
6.16
5.39
4.61
3.79
2.96
2.22
1.64
1.23
0.94
0.66
0.24
-0.41
-1.33
-2.48
-3.78
-5.06
-6.11
-6.67
-6.57
-5.79
-4.47
-2.88
-1.34
-0.04
0.93
1.65
2.22
2.73
3.18
3.53
3.69
3.64
3.33
2.76
1.94
0.91
-0.21
-1.30
-2.21
-2.87
-3.28
-3.54
-3.73
-3.90
-4.06
-4.19
-4.34
-4.57
-4.98
-5.65
-6.60
-7.77
-9.05
-10.31
-11.32
-11.86
-11.69
-10.69
-8.86
-6.41
-3.65
-0.92
1.58
3.76
5.63
7.21
8.48
9.37
9.82
9.81
9.39
8.67
7.77
6.79
5.77
4.72
3.68
2.65
1.69
0.81
0.03
-0.64
-1.25
-1.82
-2.42
-3.11
-3.95
-4.99
-6.26
-7.71
-9.24
-10.63
-11.61
-11.94
-11.47
-10.23
-8.40
-6.26
-4.10
-2.13
-0.40
1.12
2.50
3.74
4.80
5.56
5.93
5.91
5.61
5.20
4.86
4.66
4.62
4.68
4.78
4.90
5.05
5.21
5.31
5.22
4.82
4.04
2.97
1.77
0.64
-0.29
-1.02
-1.67
-2.41
-3.35
-4.48
-5.59
-6.35
-6.46
-5.74
-4.24
-2.22
-0.02
2.05
3.81
5.23
6.37
7.25
7.82
7.96
7.52
6.46
4.84
2.88
0.90
-0.79
-1.97
-2.56
-2.61
-2.25
-1.67
-1.00
-0.38
0.11
0.44
0.60
0.64
0.60
0.52
0.41
0.24
-0.04
-0.53
-1.30
-2.37
-3.66
-4.98
-6.06
-6.70
-6.76
-6.25
-5.31
-4.11
-2.79
-1.48
-0.23
0.88
1.82
2.59
3.22
3.77
4.29
4.73
5.00
4.98
4.67
4.15
3.62
3.25
3.16
3.31
3.59
3.83
3.87
3.64
3.12
2.39
1.51
0.60
-0.27
-1.07
-1.84
-2.65
-3.57
-4.64
-5.78
-6.86
-7.68
-8.06
-7.87
-7.08
-5.76
-4.06
-2.19
-0.40
1.16
2.41
3.38
4.14
4.77
5.28
5.58
5.57
5.22
4.60
3.87
3.21
2.73
2.43
2.21
1.96
1.65
1.27
0.85
0.38
-0.17
-0.83
-1.55
-2.22
-2.71
-2.98
-3.14
-3.41
-4.04
-5.16
-6.65
-8.16
-9.20
-9.38
-8.49
-6.67
-4.27
-1.75
0.55
2.45
3.97
5.19
6.15
6.82
7.11
6.98
6.53
5.91
5.32
4.84
4.46
4.11
3.70
3.24
2.79
2.40
2.10
1.86
1.57
1.12
0.47
-0.42
-1.48
-2.64
-3.83
-4.98
-6.11
-7.24
-8.39
-9.52
-10.47
-11.03
-10.98
-10.25
-8.89
-7.10
-5.13
-3.19
-1.37
0.30
1.82
3.16
4.23
4.96
5.31
5.35
5.21
5.02
4.81
4.59
4.27
3.78
3.16
2.55
2.16
2.14
2.53
3.18
3.84
4.23
4.19
3.72
2.97
2.16
1.44
0.88
0.36
-0.27
-1.11
-2.17
-3.27
-4.17
-4.61
-4.45
-3.67
-2.38
-0.74
1.02
2.73
4.24
5.44
6.28
6.79
7.03
7.09
7.02
6.88
6.68
6.42
6.10
5.71
5.18
4.50
3.65
2.69
1.72
0.89
0.31
-0.02
-0.15
-0.18
-0.23
-0.37
-0.62
-0.94
-1.31
-1.74
-2.30
-3.09
-4.13
-5.36
-6.57
-7.46
-7.71
-7.17
-5.84
-3.95
-1.80
0.27
2.10
3.63
4.90
5.97
6.80
7.30
7.31
6.76
5.69
4.32
2.88
1.62
0.62
-0.15
-0.79
-1.40
-1.98
-2.50
-2.92
-3.25
-3.53
-3.85
-4.29
-4.82
-5.44
-6.09
-6.78
-7.56
-8.48
-9.54
-10.60
-11.45
-11.81
-11.41
-10.17
-8.20
-5.82
-3.44
-1.45
-0.03
0.85
1.40
1.86
2.39
2.98
3.52
3.88
3.98
3.85
3.57
3.24
2.95
2.69
2.47
2.25
2.04
1.83
1.60
1.29
0.83
0.22
-0.51
-1.25
-1.88
-2.37
-2.77
-3.24
-3.94
-4.90
-6.01
-6.96
-7.43
-7.20
-6.23
-4.69
-2.86
-1.00
0.75
2.33
3.78
5.10
6.21
7.00
7.35
7.30
7.00
6.68
6.57
6.74
7.10
7.45
7.55
7.29
6.69
5.88
4.98
4.10
3.27
2.50
1.81
1.23
0.76
0.31
-0.27
-1.17
-2.48
-4.13
-5.92
-7.56
-8.78
-9.38
-9.27
-8.42
-6.92
-4.90
-2.62
-0.39
1.50
2.84
3.62
4.00
4.21
4.46
4.84
5.29
5.66
5.85
5.80
5.54
5.15
4.71
4.24
3.75
3.23
2.65
2.03
1.37
0.65
-0.14
-1.03
-2.02
-3.05
-4.06
-5.02
-5.92
-6.81
-7.74
-8.65
-9.41
-9.78
-9.55
-8.60
-7.01
-4.97
-2.69
-0.34
1.98
4.25
6.39
8.27
9.73
10.62
10.89
10.66
10.10
9.40
8.68
7.97
7.22
6.36
5.34
4.18
2.96
1.71
0.49
-0.70
-1.88
-3.07
-4.26
-5.44
-6.60
-7.72
-8.82
-9.85
-10.81
-11.59
-12.07
-12.12
-11.63
-10.56
-8.99
-7.09
-5.03
-2.95
-0.95
0.94
2.65
4.04
4.96
5.29
5.08
4.51
3.87
3.41
3.25
3.34
3.52
3.64
3.58
3.31
2.84
2.20
1.43
0.58
-0.28
-1.06
-1.67
-2.09
-2.38
-2.68
-3.18
-4.03
-5.24
-6.68
-8.05
-8.99
-9.27
-8.78
-7.61
-5.95
-4.02
-1.99
0.03
1.97
3.75
5.28
6.48
7.27
7.64
7.61
7.25
6.65
5.90
5.12
4.41
3.86
3.51
3.31
3.18
2.99
2.69
2.27
1.79
1.32
0.88
0.47
0.01
-0.52
-1.14
-1.84
-2.60
-3.45
-4.40
-5.49
-6.61
-7.59
-8.21
-8.25
-7.60
-6.28
-4.45
-2.31
-0.11
1.93
3.66
4.96
5.80
6.22
6.34
6.29
6.20
6.13
6.05
5.90
5.63
5.23
4.76
4.29
3.92
3.66
3.48
3.27
2.97
2.52
1.94
1.33
0.75
0.26
-0.16
-0.61
-1.21
-2.02
-3.04
-4.19
-5.35
-6.43
-7.37
-8.09
-8.52
-8.51
-7.93
-6.72
-4.93
-2.79
-0.57
1.42
3.02
4.16
4.90
5.29
5.39
5.21
4.76
4.09
3.33
2.64
2.15
1.89
1.81
1.77
1.64
1.40
1.07
0.71
0.36
-0.00
-0.43
-0.97
-1.61
-2.30
-3.01
-3.77
-4.66
-5.77
-7.10
-8.50
-9.67
-10.29
-10.13
-9.20
-7.66
-5.80
-3.86
-1.95
-0.12
1.65
3.28
4.62
5.50
5.83
5.68
5.23
4.74
4.37
4.17
4.09
4.03
3.90
3.70
3.46
3.18
2.83
2.39
1.85
1.26
0.70
0.26
-0.03
-0.26
-0.55
-1.03
-1.78
-2.78
-3.93
-5.04
-5.88
-6.22
-5.91
-4.92
-3.31
-1.28
0.96
3.20
5.30
7.12
8.54
9.42
9.70
9.38
8.60
7.64
6.78
6.22
6.00
6.04
6.13
6.10
5.80
5.14
4.06
2.56
0.65
-1.53
-3.77
-5.82
-7.44
-8.53
-9.21
-9.68
-10.20
-10.93
-11.90
-13.05
-14.25
-15.35
-16.15
-16.46
-16.07
-14.84
-12.78
-10.08
-7.07
-4.14
-1.59
0.44
1.95
3.06
3.89
4.52
5.02
5.38
5.61
5.73
5.76
5.71
5.60
5.41
5.14
4.77
4.36
3.94
3.58
3.31
3.08
2.81
2.45
1.96
1.38
0.78
0.21
-0.35
-0.99
-1.80
-2.85
-4.07
-5.33
-6.42
-7.15
-7.35
-6.96
-6.00
-4.56
-2.81
-0.97
0.78
2.32
3.64
4.75
5.67
6.40
6.88
7.08
7.01
6.76
6.42
6.06
5.70
5.32
4.91
4.46
4.04
3.68
3.38
3.08
2.71
2.23
1.65
1.01
0.39
-0.18
-0.69
-1.15
-1.64
-2.22
-2.99
-4.03
-5.37
-6.89
-8.39
-9.59
-10.18
-9.94
-8.82
-6.92
-4.49
-1.82
0.80
3.12
5.01
6.40
7.29
7.69
7.69
7.37
6.83
6.14
5.37
4.59
3.83
3.15
2.60
2.26
2.20
2.47
3.03
3.76
4.51
5.10
5.40
5.36
5.01
4.41
3.64
2.77
1.85
0.93
0.06
-0.79
-1.72
-2.84
-4.21
-5.77
-7.29
-8.50
-9.19
-9.27
-8.81
-7.97
-6.90
-5.73
-4.53
-3.34
-2.21
-1.18
-0.23
0.64
1.48
2.31
3.16
4.06
5.02
6.00
6.91
7.55
7.74
7.37
6.46
5.22
3.88
2.69
1.72
0.97
0.35
-0.19
-0.68
-1.09
-1.43
-1.75
-2.16
-2.77
-3.61
-4.61
-5.63
-6.45
-6.86
-6.70
-5.89
-4.47
-2.58
-0.47
1.57
3.29
4.54
5.30
5.67
5.76
5.68
5.46
5.13
4.69
4.20
3.74
3.36
3.08
2.85
2.58
2.22
1.75
1.23
0.72
0.31
0.01
-0.21
-0.41
-0.66
-1.02
-1.54
-2.28
-3.29
-4.59
-6.10
-7.63
-8.83
-9.39
-9.08
-7.91
-6.11
-4.08
-2.18
-0.61
0.58
1.53
2.37
3.18
3.90
4.39
4.54
4.31
3.77
3.08
2.39
1.80
1.31
0.87
0.42
-0.07
-0.60
-1.11
-1.58
-2.01
-2.43
-2.87
-3.38
-3.97
-4.68
-5.53
-6.51
-7.58
-8.60
-9.35
-9.63
-9.25
-8.19
-6.57
-4.64
-2.68
-0.90
0.58
1.77
2.75
3.60
4.31
4.82
5.06
4.98
4.64
4.17
3.71
3.34
3.07
2.82
2.51
2.07
1.52
0.92
0.36
-0.08
-0.41
-0.69
-1.01
-1.48
-2.15
-3.03
-4.03
-5.00
-5.76
-6.14
-5.98
-5.22
-3.92
-2.25
-0.46
1.17
2.50
3.50
4.27
4.90
5.49
6.02
6.45
6.75
6.89
6.90
6.80
6.59
6.25
5.83
5.39
5.03
4.78
4.62
4.41
4.03
3.41
2.59
1.63
0.64
-0.37
-1.45
-2.68
-4.11
-5.66
-7.14
-8.23
-8.66
-8.30
-7.21
-5.64
-3.92
-2.36
-1.07
-0.07
0.75
1.48
2.15
2.75
3.25
3.61
3.82
3.91
3.90
3.79
3.59
3.30
2.93
2.48
1.98
1.45
0.95
0.52
0.19
-0.07
-0.35
-0.75
-1.33
-2.09
-2.98
-3.93
-4.88
-5.77
-6.58
-7.26
-7.75
-7.95
-7.75
-7.10
-6.01
-4.61
-3.07
-1.57
-0.21
0.97
1.95
2.75
3.30
3.55
3.48
3.14
2.66
2.21
1.91
1.80
1.80
1.79
1.63
1.30
0.82
0.27
-0.27
-0.76
-1.17
-1.52
-1.81
-2.09
-2.41
-2.86
-3.53
-4.46
-5.60
-6.77
-7.73
-8.21
-8.06
-7.23
-5.80
-3.93
-1.84
0.28
2.24
3.91
5.21
6.12
6.70
7.02
7.17
7.20
7.16
7.04
6.88
6.68
6.47
6.28
6.10
5.92
5.76
5.59
5.43
5.24
4.98
4.59
4.03
3.31
2.49
1.66
0.91
0.25
-0.39
-1.11
-1.99
-3.01
-4.02
-4.82
-5.22
-5.08
-4.43
-3.37
-2.09
-0.75
0.54
1.70
2.70
3.52
4.13
4.49
4.60
4.45
4.10
3.61
3.12
2.70
2.41
2.23
2.12
2.02
1.88
1.71
1.52
1.30
1.03
0.64
0.09
-0.63
-1.46
-2.33
-3.16
-3.87
-4.45
-4.93
-5.41
-5.97
-6.65
-7.42
-8.12
-8.55
-8.50
-7.87
-6.68
-5.13
-3.47
-1.94
-0.66
0.36
1.20
1.93
2.58
3.12
3.48
3.63
3.61
3.50
3.38
3.28
3.18
3.01
2.75
2.46
2.22
2.09
2.06
2.06
1.98
1.80
1.50
1.14
0.76
0.37
-0.09
-0.65
-1.32
-2.10
-2.98
-3.96
-5.04
-6.21
-7.32
-8.17
-8.55
-8.36
-7.62
-6.48
-5.14
-3.72
-2.28
-0.81
0.66
2.06
3.26
4.13
4.63
4.82
4.81
4.70
4.51
4.22
3.82
3.34
2.88
2.53
2.35
2.33
2.42
2.58
2.74
2.86
2.83
2.55
1.95
1.12
0.23
-0.48
-0.85
-0.94
-0.96
-1.20
-1.82
-2.80
-3.94
-4.97
-5.72
-6.13
-6.23
-6.02
-5.50
-4.60
-3.31
-1.71
0.02
1.65
2.98
3.88
4.37
4.54
4.52
4.45
4.37
4.31
4.24
4.12
3.92
3.66
3.29
2.80
2.14
1.31
0.39
-0.46
-1.13
-1.56
-1.81
-2.01
-2.30
-2.76
-3.35
-4.04
-4.79
-5.61
-6.50
-7.39
-8.13
-8.47
-8.26
-7.43
-6.11
-4.53
-2.94
-1.49
-0.25
0.83
1.78
2.61
3.28
3.74
3.95
3.93
3.71
3.34
2.84
2.26
1.64
1.03
0.50
0.10
-0.14
-0.27
-0.33
-0.37
-0.45
-0.62
-0.92
-1.40
-2.13
-3.13
-4.37
-5.73
-7.04
-8.09
-8.68
-8.69
-8.11
-7.01
-5.58
-4.02
-2.51
-1.14
0.07
1.17
2.21
3.22
4.17
4.95
5.46
5.61
5.39
4.91
4.32
3.79
3.41
3.22
3.17
3.16
3.12
3.00
2.79
2.47
2.07
1.60
1.08
0.55
-0.03
-0.70
-1.56
-2.63
-3.88
-5.12
-6.12
-6.66
-6.60
-5.93
-4.79
-3.36
-1.79
-0.20
1.31
2.66
3.75
4.52
4.96
5.15
5.23
5.30
5.40
5.48
5.45
5.26
4.92
4.50
4.09
3.70
3.30
2.82
2.23
1.52
0.77
0.06
-0.52
-0.94
-1.25
-1.52
-1.90
-2.50
-3.38
-4.45
-5.57
-6.49
-7.02
-7.07
-6.67
-5.94
-5.03
-4.06
-3.07
-2.07
-1.06
-0.03
0.99
1.96
2.80
3.46
3.87
3.99
3.78
3.27
2.55
1.79
1.17
0.85
0.87
1.15
1.52
1.77
1.78
1.50
0.97
0.25
-0.55
-1.38
-2.17
-2.89
-3.54
-4.18
-4.91
-5.82
-6.89
-8.02
-8.96
-9.49
-9.41
-8.70
-7.49
-6.02
-4.51
-3.13
-1.93
-0.90
0.02
0.85
1.60
2.21
2.63
2.86
2.96
2.99
3.05
3.18
3.40
3.68
4.02
4.44
4.96
5.59
6.28
6.93
7.38
7.49
7.13
6.30
5.12
3.78
2.51
1.47
0.74
0.24
-0.17
-0.58
-1.03
-1.43
-1.62
-1.47
-0.91
-0.04
0.97
1.95
2.77
3.41
3.89
4.22
4.37
4.27
3.89
3.25
2.50
1.82
1.38
1.25
1.37
1.61
1.85
1.96
1.94
1.79
1.53
1.17
0.73
0.22
-0.35
-0.95
-1.55
-2.16
-2.82
-3.56
-4.42
-5.39
-6.38
-7.24
-7.80
-7.88
-7.38
-6.29
-4.71
-2.82
-0.86
0.92
2.37
3.40
4.06
4.45
4.71
4.92
5.10
5.24
5.33
5.37
5.38
5.37
5.28
5.09
4.81
4.47
4.17
3.94
3.78
3.59
3.28
2.80
2.17
1.48
0.81
0.18
-0.43
-1.07
-1.81
-2.68
-3.65
-4.71
-5.79
-6.83
-7.70
-8.26
-8.36
-7.87
-6.74
-5.05
-3.01
-0.87
1.07
2.64
3.80
4.60
5.18
5.62
5.92
6.02
5.86
5.45
4.88
4.29
3.81
3.49
3.29
3.13
2.93
2.68
2.38
2.03
1.62
1.10
0.47
-0.22
-0.87
-1.39
-1.78
-2.16
-2.74
-3.67
-4.93
-6.34
-7.59
-8.40
-8.63
-8.30
-7.54
-6.48
-5.22
-3.82
-2.36
-0.97
0.20
1.06
1.63
1.98
2.22
2.40
2.50
2.44
2.18
1.75
1.29
0.94
0.76
0.75
0.78
0.70
0.43
-0.05
-0.70
-1.40
-2.06
-2.58
-2.93
-3.13
-3.27
-3.44
-3.77
-4.33
-5.13
-6.06
-6.91
-7.43
-7.38
-6.68
-5.36
-3.59
-1.61
0.34
2.08
3.54
4.65
5.38
5.71
5.65
5.26
4.70
4.17
3.82
3.71
3.75
3.81
3.76
3.52
3.11
2.59
2.07
1.61
1.22
0.87
0.49
0.02
-0.55
-1.21
-1.97
-2.81
-3.78
-4.86
-6.02
-7.09
-7.88
-8.14
-7.73
-6.62
-4.97
-3.05
-1.18
0.42
1.65
2.52
3.16
3.70
4.26
4.84
5.42
5.89
6.15
6.12
5.79
5.23
4.61
4.10
3.80
3.72
3.78
3.81
3.68
3.31
2.74
2.05
1.36
0.77
0.31
-0.05
-0.39
-0.85
-1.54
-2.50
-3.68
-4.87
-5.83
-6.32
-6.21
-5.51
-4.36
-2.94
-1.44
0.01
1.31
2.45
3.42
4.24
4.95
5.54
6.00
6.30
6.38
6.24
5.88
5.36
4.74
4.05
3.29
2.49
1.70
1.00
0.50
0.21
0.06
-0.11
-0.44
-0.97
-1.62
-2.22
-2.66
-2.97
-3.30
-3.85
-4.69
-5.75
-6.78
-7.51
-7.71
-7.29
-6.34
-5.00
-3.46
-1.89
-0.40
0.94
2.09
3.01
3.67
4.04
4.12
3.90
3.46
2.88
2.29
1.76
1.36
1.11
0.97
0.93
0.91
0.82
0.57
0.10
-0.57
-1.37
-2.14
-2.76
-3.17
-3.43
-3.68
-4.07
-4.72
-5.66
-6.85
-8.12
-9.25
-9.91
-9.85
-8.92
-7.22
-5.04
-2.79
-0.83
0.64
1.65
2.37
2.95
3.48
3.90
4.07
3.92
3.46
2.84
2.21
1.72
1.37
1.12
0.90
0.68
0.48
0.35
0.31
0.37
0.46
0.48
0.37
0.10
-0.31
-0.79
-1.33
-1.94
-2.65
-3.46
-4.28
-4.93
-5.18
-4.86
-3.91
-2.43
-0.60
1.33
3.20
4.94
6.55
8.04
9.42
10.65
11.70
12.59
13.34
13.99
14.54
14.91
15.00
14.69
13.91
12.72
11.20
9.50
7.74
6.01
4.36
2.86
1.57
0.53
-0.22
-0.73
-1.09
-1.44
-1.89
-2.53
-3.37
-4.34
-5.26
-5.93
-6.19
-5.94
-5.25
-4.31
-3.36
-2.59
-2.13
-1.96
-1.98
-2.11
-2.30
-2.59
-3.05
-3.74
-4.64
-5.66
-6.65
-7.49
-8.14
-8.68
-9.21
-9.83
-10.54
-11.20
-11.66
-11.78
-11.55
-11.10
-10.59
-10.13
-9.75
-9.35
-8.82
-8.09
-7.16
-6.16
-5.25
-4.57
-4.19
-4.06
-3.98
-3.71
-3.00
-1.73
0.06
2.14
4.21
6.00
7.39
8.39
9.11
9.63
10.02
10.29
10.42
10.44
10.35
10.15
9.80
9.26
8.52
7.63
6.72
5.92
5.31
4.85
4.45
3.93
3.20
2.23
1.11
0.00
-0.98
-1.78
-2.47
-3.13
-3.88
-4.73
-5.57
-6.20
-6.42
-6.09
-5.14
-3.61
-1.59
0.77
3.30
5.77
7.91
9.42
10.11
9.94
9.06
7.77
6.38
5.17
4.25
3.60
3.13
2.73
2.32
1.86
1.35
0.75
0.06
-0.75
-1.64
-2.58
-3.50
-4.32
-5.00
-5.52
-5.95
-6.45
-7.17
-8.16
-9.34
-10.49
-11.27
-11.45
-10.93
-9.78
-8.19
-6.38
-4.44
-2.44
-0.38
1.64
3.44
4.81
5.59
5.75
5.41
4.82
4.20
3.74
3.49
3.39
3.34
3.21
2.93
2.50
2.00
1.54
1.20
0.97
0.75
0.40
-0.21
-1.17
-2.44
-3.88
-5.27
-6.37
-6.95
-6.87
-6.06
-4.61
-2.68
-0.52
1.60
3.47
5.01
6.27
7.36
8.39
9.35
10.15
10.62
10.64
10.25
9.66
9.17
8.99
9.17
9.55
9.86
9.87
9.49
8.77
7.83
6.71
5.39
3.80
1.90
-0.26
-2.50
-4.62
-6.48
-8.06
-9.45
-10.75
-11.95
-12.95
-13.47
-13.27
-12.18
-10.23
-7.67
-4.89
-2.29
-0.17
1.33
2.24
2.73
2.96
3.05
2.98
2.74
2.26
1.60
0.90
0.34
0.09
0.20
0.56
0.94
1.09
0.86
0.29
-0.45
-1.15
-1.69
-2.08
-2.42
-2.84
-3.42
-4.14
-4.95
-5.83
-6.79
-7.78
-8.71
-9.34
-9.37
-8.58
-6.90
-4.54
-1.84
0.75
2.90
4.43
5.32
5.74
5.85
5.82
5.67
5.40
4.95
4.30
3.55
2.85
2.34
2.09
2.01
1.94
1.68
1.16
0.44
-0.28
-0.82
-1.13
-1.31
-1.57
-2.11
-2.99
-4.12
-5.31
-6.35
-7.15
-7.71
-8.03
-8.08
-7.73
-6.86
-5.43
-3.55
-1.46
0.57
2.34
3.76
4.85
5.61
6.04
6.12
5.86
5.33
4.64
3.93
3.30
2.80
2.40
2.07
1.75
1.41
1.01
0.57
0.11
-0.29
-0.58
-0.75
-0.90
-1.19
-1.79
-2.78
-4.11
-5.60
-7.05
-8.23
-8.99
-9.18
-8.70
-7.48
-5.57
-3.18
-0.66
1.57
3.23
4.23
4.73
5.02
5.34
5.77
6.18
6.39
6.25
5.80
5.18
4.59
4.14
3.82
3.54
3.19
2.70
2.10
1.49
0.95
0.55
0.29
0.09
-0.16
-0.59
-1.28
-2.23
-3.38
-4.61
-5.81
-6.87
-7.68
-8.11
-7.99
-7.21
-5.71
-3.62
-1.19
1.24
3.34
4.94
5.99
6.59
6.88
6.97
6.91
6.67
6.26
5.73
5.20
4.80
4.65
4.70
4.83
4.86
4.65
4.16
3.51
2.83
2.28
1.93
1.73
1.57
1.34
0.92
0.29
-0.55
-1.56
-2.68
-3.85
-5.04
-6.19
-7.14
-7.70
-7.63
-6.77
-5.12
-2.92
-0.56
1.55
3.12
4.10
4.64
4.93
5.12
5.19
5.04
4.58
3.86
3.06
2.40
2.02
1.90
1.88
1.79
1.55
1.18
0.80
0.50
0.29
0.07
-0.22
-0.65
-1.18
-1.75
-2.32
-2.93
-3.65
-4.58
-5.72
-6.99
-8.20
-9.11
-9.55
-9.43
-8.77
-7.66
-6.20
-4.48
-2.58
-0.61
1.26
2.85
3.97
4.56
4.67
4.46
4.15
3.87
3.67
3.51
3.31
3.01
2.65
2.27
1.94
1.69
1.49
1.30
1.08
0.80
0.45
0.02
-0.51
-1.14
-1.87
-2.68
-3.49
-4.28
-5.06
-5.87
-6.74
-7.58
-8.22
-8.43
-8.03
-6.99
-5.42
-3.57
-1.73
-0.10
1.20
2.15
2.82
3.31
3.72
4.13
4.53
4.87
5.06
5.05
4.83
4.48
4.11
3.79
3.52
3.28
3.01
2.70
2.37
2.06
1.81
1.60
1.37
1.08
0.71
0.28
-0.15
-0.53
-0.87
-1.26
-1.86
-2.79
-4.03
-5.38
-6.45
-6.83
-6.23
-4.67
-2.41
0.10
2.40
4.18
5.33
5.92
6.09
5.97
5.65
5.20
4.68
4.19
3.78
3.46
3.17
2.80
2.31
1.74
1.22
0.92
0.94
1.20
1.54
1.69
1.49
0.92
0.12
-0.68
-1.25
-1.46
-1.32
-0.93
-0.48
-0.17
-0.20
-0.73
-1.72
-3.01
-4.27
-5.13
-5.33
-4.80
-3.69
-2.29
-0.85
0.44
1.52
2.41
3.10
3.59
3.86
3.91
3.79
3.55
3.31
3.11
3.01
3.02
3.11
3.20
3.22
3.08
2.74
2.22
1.60
0.96
0.39
-0.10
-0.53
-0.97
-1.45
-1.93
-2.33
-2.58
-2.67
-2.70
-2.81
-3.14
-3.68
-4.26
-4.61
-4.47
-3.71
-2.39
-0.67
1.21
3.07
4.76
6.19
7.27
7.96
8.23
8.17
7.87
7.43
6.91
6.33
5.70
4.99
4.23
3.43
2.56
1.62
0.63
-0.36
-1.24
-1.95
-2.50
-3.00
-3.60
-4.40
-5.40
-6.52
-7.60
-8.52
-9.21
-9.67
-9.86
-9.79
-9.38
-8.59
-7.40
-5.84
-4.05
-2.18
-0.42
1.10
2.25
3.03
3.49
3.74
3.92
4.14
4.41
4.68
4.86
4.86
4.63
4.22
3.72
3.20
2.70
2.17
1.54
0.76
-0.13
-1.05
-1.91
-2.66
-3.34
-4.02
-4.76
-5.53
-6.28
-6.85
-7.16
-7.13
-6.76
-6.04
-5.01
-3.77
-2.43
-1.19
-0.19
0.54
1.05
1.48
1.92
2.36
2.67
2.72
2.47
2.00
1.55
1.30
1.31
1.50
1.66
1.62
1.30
0.78
0.17
-0.40
-0.90
-1.37
-1.90
-2.55
-3.34
-4.25
-5.20
-6.10
-6.84
-7.30
-7.37
-6.99
-6.16
-4.93
-3.44
-1.82
-0.23
1.19
2.35
3.22
3.82
4.22
4.54
4.84
5.11
5.29
5.30
5.10
4.72
4.25
3.79
3.41
3.11
2.84
2.55
2.25
1.92
1.57
1.19
0.73
0.14
-0.58
-1.37
-2.18
-2.98
-3.78
-4.59
-5.40
-6.12
-6.57
-6.58
-6.07
-5.06
-3.70
-2.21
-0.81
0.34
1.14
1.57
1.68
1.53
1.17
0.66
0.06
-0.60
-1.22
-1.71
-1.96
-1.91
-1.63
-1.29
-1.12
-1.33
-1.97
-2.88
-3.79
-4.43
-4.64
-4.51
-4.25
-4.18
-4.51
-5.27
-6.34
-7.49
-8.51
-9.24
-9.55
-9.36
-8.59
-7.20
-5.28
-3.05
-0.81
1.15
2.65
3.73
4.55
5.27
5.99
6.66
7.17
7.38
7.30
6.97
6.56
6.15
5.80
5.48
5.16
4.83
4.50
4.24
4.05
3.90
3.71
3.40
2.95
2.42
1.89
1.41
0.97
0.45
-0.23
-1.10
-2.04
-2.82
-3.20
-3.00
-2.23
-1.03
0.37
1.76
3.00
4.03
4.85
5.44
5.80
5.94
5.90
5.76
5.57
5.36
5.12
4.81
4.40
3.92
3.42
2.96
2.54
2.13
1.70
1.24
0.81
0.50
0.34
0.29
0.27
0.13
-0.22
-0.80
-1.57
-2.45
-3.35
-4.19
-4.88
-5.34
-5.48
-5.21
-4.53
-3.45
-2.07
-0.55
0.95
2.23
3.19
3.78
4.02
3.97
3.68
3.19
2.54
1.83
1.17
0.73
0.58
0.70
0.93
1.06
0.94
0.51
-0.15
-0.87
-1.52
-2.05
-2.54
-3.06
-3.70
-4.48
-5.37
-6.27
-7.10
-7.76
-8.13
-8.10
-7.58
-6.56
-5.11
-3.39
-1.62
0.00
1.29
2.16
2.58
2.61
2.35
1.95
1.57
1.35
1.40
1.70
2.15
2.54
2.66
2.40
1.79
1.00
0.26
-0.24
-0.46
-0.49
-0.47
-0.56
-0.78
-1.10
-1.42
-1.69
-1.96
-2.30
-2.82
-3.55
-4.37
-5.09
-5.47
-5.34
-4.66
-3.52
-2.11
-0.65
0.67
1.74
2.50
2.93
3.07
3.00
2.88
2.88
3.16
3.75
4.57
5.42
6.06
6.32
6.07
5.33
4.24
3.02
1.89
1.01
0.43
-0.00
-0.51
-1.31
-2.48
-3.90
-5.28
-6.35
-6.89
-6.90
-6.47
-5.77
-4.98
-4.24
-3.67
-3.36
-3.35
-3.57
-3.81
-3.80
-3.28
-2.15
-0.48
1.50
3.55
5.48
7.20
8.65
9.79
10.52
10.80
10.63
10.11
9.39
8.59
7.78
6.95
6.10
5.22
4.36
3.57
2.89
2.30
1.76
1.24
0.73
0.24
-0.21
-0.60
-0.95
-1.26
-1.60
-2.01
-2.59
-3.37
-4.37
-5.56
-6.81
-8.00
-8.97
-9.62
-9.85
-9.61
-8.89
-7.72
-6.20
-4.51
-2.81
-1.25
0.07
1.13
1.99
2.67
3.20
3.55
3.66
3.51
3.10
2.56
2.02
1.67
1.60
1.80
2.18
2.58
2.86
2.92
2.76
2.38
1.82
1.10
0.22
-0.79
-1.87
-2.97
-4.07
-5.19
-6.39
-7.69
-9.02
-10.22
-11.01
-11.19
-10.65
-9.47
-7.88
-6.16
-4.52
-3.08
-1.80
-0.59
0.58
1.71
2.68
3.37
3.71
3.72
3.48
3.12
2.77
2.51
2.38
2.40
2.55
2.78
3.03
3.20
3.25
3.12
2.89
2.60
2.36
2.17
1.96
1.61
1.00
0.07
-1.21
-2.81
-4.64
-6.54
-8.32
-9.69
-10.42
-10.34
-9.42
-7.83
-5.85
-3.80
-1.93
-0.40
0.78
1.66
2.33
2.86
3.29
3.67
4.02
4.37
4.73
5.06
5.29
5.34
5.17
4.85
4.49
4.23
4.10
4.05
3.94
3.65
3.15
2.56
2.02
1.64
1.43
1.30
1.10
0.74
0.17
-0.59
-1.54
-2.64
-3.83
-4.98
-5.86
-6.25
-6.01
-5.15
-3.82
-2.26
-0.65
0.90
2.36
3.69
4.87
5.78
6.36
6.58
6.49
6.22
5.91
5.66
5.49
5.40
5.33
5.25
5.14
4.97
4.69
4.24
3.58
2.73
1.80
0.95
0.30
-0.12
-0.40
-0.72
-1.23
-1.99
-2.94
-3.95
-4.94
-5.91
-6.93
-8.06
-9.22
-10.21
-10.72
-10.49
-9.41
-7.59
-5.37
-3.13
-1.21
0.26
1.31
2.12
2.86
3.60
4.32
4.93
5.34
5.51
5.48
5.30
5.09
4.89
4.71
4.53
4.31
4.07
3.84
3.64
3.47
3.26
2.90
2.32
1.51
0.59
-0.28
-0.96
-1.42
-1.77
-2.19
-2.86
-3.85
-5.09
-6.39
-7.53
-8.27
-8.46
-8.03
-7.01
-5.51
-3.67
-1.67
0.34
2.24
3.96
5.47
6.74
7.74
8.41
8.72
8.70
8.40
7.94
7.43
6.97
6.59
6.28
5.98
5.59
5.02
4.21
3.17
1.99
0.77
-0.34
-1.31
-2.13
-2.89
-3.68
-4.54
-5.47
-6.42
-7.32
-8.13
-8.80
-9.34
-9.69
-9.77
-9.47
-8.66
-7.31
-5.48
-3.39
-1.30
0.54
2.01
3.09
3.86
4.42
4.79
4.93
4.76
4.26
3.47
2.56
1.71
1.08
0.77
0.75
0.90
1.08
1.10
0.87
0.39
-0.27
-0.98
-1.62
-2.13
-2.55
-2.99
-3.58
-4.42
-5.49
-6.68
-7.82
-8.70
-9.16
-9.07
-8.41
-7.19
-5.54
-3.59
-1.55
0.41
2.14
3.56
4.64
5.39
5.87
6.12
6.22
6.25
6.25
6.27
6.31
6.31
6.22
5.97
5.52
4.89
4.11
3.28
2.47
1.75
1.15
0.65
0.19
-0.30
-0.88
-1.58
-2.38
-3.27
-4.26
-5.31
-6.39
-7.37
-8.06
-8.27
-7.90
-6.95
-5.59
-4.05
-2.48
-0.97
0.55
2.09
3.64
5.05
6.11
6.69
6.77
6.47
5.98
5.43
4.91
4.39
3.85
3.25
2.62
1.98
1.35
0.74
0.15
-0.38
-0.82
-1.17
-1.45
-1.72
-2.04
-2.45
-2.98
-3.63
-4.46
-5.51
-6.73
-7.99
-9.03
-9.55
-9.33
-8.33
-6.68
-4.65
-2.54
-0.59
1.07
2.39
3.38
4.07
4.51
4.73
4.79
4.70
4.49
4.15
3.72
3.29
2.97
2.85
2.89
2.98
2.92
2.57
1.90
1.00
0.06
-0.77
-1.43
-1.94
-2.39
-2.87
-3.40
-4.00
-4.67
-5.44
-6.32
-7.29
-8.17
-8.72
-8.69
-7.95
-6.53
-4.64
-2.56
-0.53
1.31
2.90
4.23
5.29
6.05
6.54
6.79
6.88
6.87
6.75
6.51
6.15
5.72
5.33
5.06
4.87
4.67
4.33
3.78
3.06
2.27
1.47
0.69
-0.13
-1.03
-1.99
-2.92
-3.70
-4.26
-4.65
-4.99
-5.42
-5.97
-6.59
-7.06
-7.17
-6.75
-5.74
-4.21
-2.33
-0.34
1.52
3.09
4.26
5.03
5.47
5.70
5.80
5.87
5.93
5.98
5.99
5.90
5.62
5.14
4.48
3.74
3.06
2.53
2.14
1.84
1.53
1.17
0.80
0.47
0.20
-0.05
-0.36
-0.81
-1.38
-2.01
-2.63
-3.18
-3.72
-4.30
-4.93
-5.51
-5.84
-5.69
-4.91
-3.54
-1.76
0.14
1.89
3.29
4.31
5.03
5.55
5.98
6.34
6.64
6.86
6.97
6.98
6.87
6.62
6.27
5.86
5.52
5.39
5.52
5.86
6.22
6.37
6.12
5.42
4.35
3.14
2.00
1.09
0.45
-0.01
-0.45
-1.02
-1.82
-2.88
-4.12
-5.39
-6.49
-7.17
-7.22
-6.53
-5.08
-3.03
-0.68
1.63
3.62
5.07
5.94
6.27
6.19
5.81
5.25
4.61
3.95
3.32
2.72
2.14
1.60
1.11
0.73
0.52
0.48
0.54
0.58
0.46
0.09
-0.53
-1.28
-2.03
-2.62
-3.00
-3.19
-3.29
-3.41
-3.60
-3.88
-4.15
-4.28
-4.16
-3.68
-2.84
-1.68
-0.30
1.17
2.62
3.96
5.11
6.01
6.59
6.77
6.53
5.86
4.89
3.79
2.76
1.98
1.53
1.38
1.36
1.29
0.99
0.38
-0.49
-1.47
-2.32
-2.86
-2.96
-2.70
-2.32
-2.13
-2.44
-3.36
-4.80
-6.46
-7.98
-9.01
-9.33
-8.85
-7.64
-5.86
-3.76
-1.64
0.20
1.52
2.21
2.34
2.10
1.68
1.26
0.89
0.54
0.21
-0.12
-0.41
-0.65
-0.89
-1.21
-1.66
-2.28
-2.97
-3.62
-4.13
-4.48
-4.74
-5.03
-5.45
-6.04
-6.81
-7.72
-8.73
-9.81
-10.85
-11.71
-12.20
-12.10
-11.29
-9.77
-7.70
-5.35
-3.07
-1.13
0.28
1.15
1.63
1.88
2.07
2.28
2.56
2.92
3.43
4.15
5.12
6.32
7.61
8.83
9.82
10.53
10.98
11.30
11.55
11.75
11.82
11.65
11.12
10.23
8.99
7.51
5.87
4.16
2.46
0.84
-0.58
-1.68
-2.32
-2.45
-2.07
-1.32
-0.33
0.71
1.69
2.52
3.15
3.55
3.68
3.52
3.06
2.40
1.67
0.99
0.46
0.03
-0.35
-0.78
-1.29
-1.82
-2.29
-2.63
-2.81
-2.87
-2.86
-2.79
-2.71
-2.63
-2.63
-2.84
-3.38
-4.31
-5.57
-6.97
-8.23
-9.06
-9.29
-8.87
-7.91
-6.57
-5.05
-3.46
-1.91
-0.47
0.77
1.68
2.18
2.25
1.98
1.56
1.20
1.01
0.97
0.96
0.84
0.49
-0.07
-0.74
-1.39
-1.91
-2.25
-2.42
-2.47
-2.44
-2.46
-2.68
-3.28
-4.36
-5.91
-7.72
-9.47
-10.80
-11.45
-11.30
-10.41
-8.94
-7.16
-5.33
-3.64
-2.21
-1.02
-0.01
0.92
1.80
2.61
3.31
3.86
4.24
4.48
4.58
4.52
4.29
3.91
3.44
2.97
2.55
2.21
1.95
1.75
1.63
1.58
1.57
1.44
1.02
0.20
-1.03
-2.52
-3.99
-5.11
-5.65
-5.45
-4.56
-3.14
-1.42
0.35
1.98
3.38
4.54
5.50
6.28
6.86
7.20
7.30
7.20
7.01
6.83
6.71
6.62
6.45
6.12
5.60
4.94
4.27
3.67
3.23
2.89
2.61
2.28
1.86
1.32
0.65
-0.12
-0.96
-1.90
-2.99
-4.33
-6.01
-8.07
-10.39
-12.71
-14.63
-15.79
-15.96
-15.14
-13.52
-11.40
-9.09
-6.79
-4.65
-2.72
-1.07
0.23
1.15
1.71
2.01
2.12
2.14
2.09
1.98
1.84
1.73
1.75
1.96
2.30
2.63
2.77
2.63
2.23
1.77
1.46
1.44
1.69
2.01
2.13
1.87
1.19
0.22
-0.83
-1.76
-2.46
-2.86
-2.95
-2.64
-1.83
-0.43
1.53
3.92
6.43
8.74
10.55
11.71
12.22
12.22
11.94
11.58
11.29
11.13
11.02
10.86
10.50
9.85
8.93
7.81
6.65
5.59
4.70
3.99
3.41
2.90
2.39
1.83
1.19
0.48
-0.27
-1.03
-1.73
-2.38
-2.98
-3.60
-4.33
-5.26
-6.42
-7.71
-8.90
-9.69
-9.79
-9.02
-7.45
-5.35
-3.07
-0.97
0.79
2.16
3.22
4.04
4.63
4.96
4.98
4.78
4.47
4.20
4.04
3.96
3.86
3.64
3.28
2.85
2.48
2.24
2.13
2.04
1.84
1.39
0.65
-0.31
-1.34
-2.30
-3.06
-3.63
-4.05
-4.46
-4.97
-5.64
-6.46
-7.30
-7.97
-8.29
-8.09
-7.35
-6.12
-4.55
-2.83
-1.11
0.47
1.84
2.96
3.80
4.37
4.64
4.63
4.36
3.89
3.31
2.73
2.26
1.95
1.79
1.69
1.52
1.17
0.63
-0.03
-0.67
-1.17
-1.48
-1.70
-1.95
-2.40
-3.14
-4.17
-5.44
-6.87
-8.37
-9.82
-11.05
-11.84
-11.92
-11.13
-9.47
-7.13
-4.49
-1.96
0.12
1.62
2.60
3.24
3.74
4.19
4.56
4.75
4.67
4.35
3.91
3.52
3.29
3.24
3.29
3.30
3.17
2.88
2.46
1.98
1.49
0.98
0.44
-0.20
-0.96
-1.84
-2.84
-3.95
-5.16
-6.47
-7.75
-8.81
-9.33
-9.04
-7.82
-5.81
-3.40
-1.08
0.74
1.94
2.64
3.14
3.66
4.26
4.82
5.16
5.18
4.96
4.66
4.43
4.31
4.19
3.91
3.39
2.68
1.96
1.40
1.09
0.95
0.84
0.64
0.26
-0.29
-0.92
-1.60
-2.32
-3.12
-4.08
-5.20
-6.40
-7.53
-8.33
-8.55
-8.07
-6.90
-5.23
-3.33
-1.48
0.14
1.48
2.54
3.35
3.91
4.24
4.35
4.31
4.21
4.14
4.08
4.00
3.76
3.32
2.70
2.05
1.58
1.45
1.70
2.23
2.84
3.33
3.57
3.56
3.37
3.09
2.74
2.29
1.65
0.78
-0.30
-1.50
-2.64
-3.57
-4.11
-4.18
-3.73
-2.79
-1.44
0.19
1.91
3.53
4.90
5.91
6.56
6.89
6.98
6.87
6.57
6.05
5.34
4.54
3.82
3.32
3.08
2.99
2.86
2.50
1.83
0.93
-0.06
-0.99
-1.81
-2.52
-3.21
-3.94
-4.74
-5.64
-6.66
-7.81
-9.06
-10.28
-11.27
-11.79
-11.65
-10.79
-9.33
-7.46
-5.45
-3.49
-1.68
-0.08
1.29
2.41
3.22
3.66
3.71
3.44
2.98
2.48
2.10
1.93
1.97
2.15
2.32
2.35
2.18
1.81
1.35
0.91
0.55
0.27
-0.02
-0.38
-0.85
-1.40
-2.03
-2.74
-3.57
-4.50
-5.42
-6.09
-6.23
-5.64
-4.35
-2.55
-0.62
1.10
2.40
3.27
3.87
4.37
4.85
5.28
5.52
5.46
5.10
4.56
4.07
3.81
3.79
3.87
3.81
3.44
2.77
1.98
1.31
0.88
0.70
0.59
0.36
-0.09
-0.78
-1.61
-2.51
-3.45
-4.38
-5.22
-5.75
-5.69
-4.83
-3.17
-0.99
1.23
3.01
3.98
4.10
3.53
2.60
1.60
0.74
0.10
-0.32
-0.56
-0.63
-0.56
-0.39
-0.27
-0.32
-0.68
-1.35
-2.20
-3.04
-3.66
-3.94
-3.94
-3.81
-3.70
-3.73
-3.93
-4.29
-4.80
-5.48
-6.36
-7.40
-8.46
-9.29
-9.62
-9.20
-8.01
-6.21
-4.11
-2.06
-0.33
1.02
2.07
2.98
3.84
4.67
5.35
5.80
5.97
5.92
5.78
5.68
5.71
5.85
6.03
6.17
6.25
6.26
6.24
6.25
6.30
6.35
6.32
6.09
5.55
4.70
3.59
2.34
1.11
-0.03
-1.09
-2.15
-3.32
-4.62
-6.02
-7.38
-8.50
-9.24
-9.49
-9.21
-8.39
-7.08
-5.36
-3.39
-1.33
0.63
2.33
3.68
4.65
5.29
5.67
5.86
5.97
6.09
6.27
6.50
6.72
6.84
6.79
6.54
6.16
5.76
5.43
5.17
4.93
4.63
4.20
3.64
3.02
2.38
1.75
1.09
0.35
-0.53
-1.54
-2.67
-3.89
-5.19
-6.52
-7.73
-8.62
-8.92
-8.47
-7.26
-5.44
-3.30
-1.12
0.89
2.61
3.98
4.97
5.59
5.87
5.85
5.61
5.22
4.73
4.17
3.62
3.13
2.78
2.60
2.55
2.53
2.39
2.08
1.64
1.21
0.92
0.83
0.84
0.77
0.41
-0.35
-1.46
-2.78
-4.14
-5.44
-6.60
-7.62
-8.40
-8.81
-8.69
-7.98
-6.73
-5.10
-3.35
-1.66
-0.15
1.13
2.18
2.97
3.46
3.59
3.37
2.86
2.20
1.56
1.08
0.83
0.80
0.89
0.93
0.80
0.43
-0.14
-0.78
-1.35
-1.76
-2.02
-2.20
-2.43
-2.79
-3.32
-4.02
-4.89
-5.90
-7.00
-8.06
-8.88
-9.21
-8.83
-7.65
-5.76
-3.38
-0.90
1.34
3.06
4.14
4.71
4.97
5.20
5.60
6.19
6.85
7.39
7.66
7.62
7.27
6.69
5.93
5.01
4.01
3.02
2.19
1.65
1.44
1.44
1.48
1.38
1.05
0.51
-0.16
-0.87
-1.57
-2.29
-3.08
-3.96
-4.92
-5.85
-6.61
-6.99
-6.84
-6.07
-4.75
-3.05
-1.20
0.58
2.19
3.59
4.83
5.94
6.89
7.59
7.98
8.02
7.77
7.34
6.86
6.40
5.99
5.58
5.13
4.61
4.04
3.47
2.96
2.55
2.25
2.02
1.77
1.37
0.74
-0.16
-1.25
-2.40
-3.47
-4.37
-5.14
-5.91
-6.80
-7.82
-8.86
-9.70
-10.09
-9.88
-9.05
-7.74
-6.13
-4.43
-2.76
-1.17
0.31
1.63
2.71
3.42
3.71
3.55
3.04
2.33
1.59
0.98
0.55
0.31
0.19
0.11
0.02
-0.13
-0.36
-0.70
-1.19
-1.82
-2.58
-3.43
-4.29
-5.12
-5.87
-6.54
-7.12
-7.64
-8.11
-8.54
-8.92
-9.21
-9.31
-9.06
-8.34
-7.09
-5.36
-3.34
-1.27
0.66
2.29
3.61
4.64
5.43
6.00
6.34
6.46
6.36
6.11
5.82
5.62
5.62
5.83
6.16
6.43
6.46
6.10
5.35
4.32
3.17
2.07
1.10
0.24
-0.62
-1.56
-2.58
-3.65
-4.69
-5.64
-6.52
-7.34
-8.05
-8.55
-8.60
-8.04
-6.79
-4.98
-2.88
-0.81
1.00
2.43
3.48
4.20
4.62
4.81
4.83
4.78
4.77
4.85
4.97
5.00
4.79
4.30
3.61
2.88
2.28
1.86
1.60
1.36
1.02
0.51
-0.14
-0.84
-1.49
-2.06
-2.55
-3.01
-3.48
-4.00
-4.61
-5.34
-6.22
-7.23
-8.25
-9.09
-9.49
-9.21
-8.14
-6.36
-4.10
-1.71
0.44
2.14
3.32
4.06
4.53
4.89
5.20
5.42
5.44
5.17
4.56
3.69
2.67
1.66
0.87
0.45
0.54
1.14
2.15
3.31
4.34
4.96
5.05
4.63
3.84
2.89
1.91
1.00
0.15
-0.72
-1.67
-2.73
-3.88
-4.95
-5.71
-5.94
-5.48
-4.34
-2.69
-0.82
0.97
2.48
3.64
4.49
5.14
5.68
6.15
6.56
6.88
7.08
7.16
7.16
7.12
7.09
7.13
7.28
7.56
7.96
8.39
8.73
8.81
8.46
7.56
6.12
4.32
2.41
0.71
-0.60
-1.49
-2.12
-2.73
-3.55
-4.69
-6.09
-7.56
-8.85
-9.75
-10.12
-9.90
-9.13
-7.89
-6.34
-4.70
-3.15
-1.81
-0.69
0.30
1.24
2.19
3.04
3.59
3.64
3.08
1.95
0.48
-1.07
-2.47
-3.62
-4.52
-5.22
-5.74
-6.11
-6.28
-6.27
-6.11
-5.88
-5.69
-5.64
-5.79
-6.16
-6.74
-7.46
-8.18
-8.72
-8.87
-8.49
-7.48
-5.89
-3.85
-1.52
0.91
3.30
5.50
7.36
8.72
9.44
9.49
8.97
8.12
7.26
6.63
6.35
6.37
6.56
6.74
6.74
6.47
5.91
5.11
4.17
3.23
2.39
1.68
1.11
0.58
-0.01
-0.77
-1.81
-3.18
-4.84
-6.61
-8.19
-9.21
-9.35
-8.47
-6.71
-4.39
-1.94
0.29
2.16
3.69
4.97
6.07
6.97
7.57
7.77
7.55
7.00
6.26
5.51
4.82
4.21
3.66
3.12
2.55
1.92
1.25
0.58
-0.05
-0.60
-1.10
-1.65
-2.40
-3.48
-4.98
-6.80
-8.76
-10.58
-11.95
-12.61
-12.42
-11.37
-9.57
-7.28
-4.82
-2.50
-0.51
1.06
2.27
3.20
3.91
4.43
4.74
4.85
4.83
4.77
4.77
4.84
4.96
5.05
5.01
4.80
4.42
3.90
3.30
2.64
1.95
1.24
0.49
-0.28
-1.08
-1.92
-2.84
-3.89
-5.09
-6.38
-7.64
-8.63
-9.11
-8.92
-8.00
-6.46
-4.51
-2.42
-0.41
1.34
2.74
3.79
4.53
5.03
5.35
5.54
5.61
5.60
5.50
5.33
5.12
4.90
4.69
4.53
4.40
4.28
4.15
3.95
3.66
3.29
2.83
2.30
1.67
0.93
0.01
-1.11
-2.42
-3.86
-5.32
-6.65
-7.71
-8.35
-8.48
-8.03
-7.01
-5.50
-3.68
-1.80
-0.04
1.42
2.55
3.35
3.86
4.11
4.12
3.94
3.63
3.28
2.98
2.78
2.67
2.57
2.43
2.17
1.78
1.27
0.70
0.14
-0.31
-0.62
-0.81
-1.00
-1.37
-2.08
-3.18
-4.62
-6.26
-7.85
-9.16
-9.96
-10.10
-9.51
-8.23
-6.43
-4.38
-2.34
-0.58
0.79
1.78
2.46
2.98
3.44
3.87
4.24
4.48
4.47
4.18
3.62
2.91
2.22
1.71
1.43
1.32
1.23
1.00
0.55
-0.07
-0.75
-1.39
-1.97
-2.61
-3.44
-4.56
-5.96
-7.45
-8.76
-9.65
-9.94
-9.58
-8.61
-7.17
-5.39
-3.46
-1.53
0.25
1.78
3.00
3.91
4.53
4.90
5.10
5.16
5.16
5.13
5.09
5.06
5.02
4.96
4.89
4.79
4.66
4.46
4.15
3.71
3.14
2.49
1.81
1.10
0.35
-0.51
-1.49
-2.60
-3.79
-5.01
-6.20
-7.29
-8.17
-8.66
-8.62
-7.91
-6.53
-4.57
-2.27
0.09
2.24
3.98
5.24
6.06
6.53
6.77
6.86
6.81
6.62
6.33
5.98
5.65
5.41
5.24
5.08
4.83
4.44
3.95
3.44
3.00
2.68
2.46
2.28
2.05
1.70
1.20
0.51
-0.33
-1.32
-2.43
-3.66
-4.97
-6.30
-7.48
-8.30
-8.52
-7.97
-6.66
-4.75
-2.54
-0.32
1.68
3.33
4.61
5.56
6.20
6.57
6.71
6.65
6.41
5.97
5.35
4.58
3.75
2.99
2.44
2.14
2.05
2.01
1.85
1.45
0.82
0.03
-0.80
-1.57
-2.25
-2.87
-3.44
-3.96
-4.44
-4.90
-5.40
-6.04
-6.81
-7.61
-8.20
-8.29
-7.65
-6.23
-4.18
-1.79
0.61
2.75
4.47
5.76
6.65
7.20
7.49
7.55
7.43
7.16
6.75
6.23
5.65
5.05
4.52
4.10
3.84
3.72
3.71
3.68
3.52
3.10
2.37
1.36
0.23
-0.87
-1.78
-2.45
-2.99
-3.56
-4.32
-5.35
-6.56
-7.73
-8.59
-8.89
-8.50
-7.42
-5.75
-3.73
-1.59
0.43
2.17
3.55
4.57
5.28
5.71
5.88
5.77
5.36
4.68
3.85
3.05
2.47
2.16
2.06
1.99
1.74
1.21
0.42
-0.46
-1.29
-1.95
-2.48
-2.96
-3.52
-4.25
-5.21
-6.41
-7.83
-9.38
-10.87
-12.02
-12.49
-12.10
-10.80
-8.78
-6.36
-3.88
-1.59
0.40
2.08
3.51
4.69
5.61
6.19
6.39
6.22
5.79
5.26
4.78
4.42
4.17
3.93
3.58
3.08
2.46
1.83
1.29
0.91
0.64
0.39
0.01
-0.61
-1.54
-2.75
-4.17
-5.68
-7.14
-8.37
-9.15
-9.30
-8.69
-7.31
-5.29
-2.92
-0.49
1.71
3.52
4.92
5.95
6.70
7.24
7.59
7.75
7.74
7.56
7.25
6.84
6.36
5.79
5.13
4.38
3.56
2.73
1.93
1.20
0.57
0.04
-0.42
-0.87
-1.37
-1.96
-2.68
-3.52
-4.48
-5.52
-6.59
-7.61
-8.42
-8.81
-8.57
-7.57
-5.83
-3.56
-1.07
1.31
3.37
5.04
6.33
7.29
7.92
8.19
8.10
7.70
7.15
6.63
6.28
6.13
6.09
5.98
5.63
4.96
4.02
2.96
1.93
1.07
0.37
-0.22
-0.84
-1.60
-2.53
-3.65
-4.92
-6.33
-7.82
-9.30
-10.57
-11.37
-11.45
-10.63
-8.95
-6.62
-4.00
-1.47
0.70
2.39
3.63
4.54
5.22
5.74
6.04
6.03
5.64
4.87
3.86
2.81
1.91
1.20
0.65
0.13
-0.44
-1.08
-1.68
-2.15
-2.44
-2.58
-2.64
-2.72
-2.88
-3.15
-3.58
-4.19
-5.03
-6.07
-7.19
-8.18
-8.77
-8.72
-7.89
-6.27
-4.04
-1.51
0.94
3.01
4.50
5.40
5.83
5.99
6.08
6.18
6.32
6.45
6.50
6.39
6.11
5.68
5.13
4.56
4.01
3.52
3.06
2.57
1.97
1.29
0.55
-0.13
-0.69
-1.15
-1.62
-2.30
-3.35
-4.82
-6.57
-8.30
-9.67
-10.34
-10.15
-9.07
-7.29
-5.05
-2.66
-0.36
1.71
3.45
4.87
5.96
6.73
7.22
7.50
7.61
7.58
7.41
7.04
6.45
5.68
4.86
4.13
3.57
3.21
2.96
2.71
2.37
1.92
1.38
0.76
0.05
-0.76
-1.67
-2.65
-3.65
-4.66
-5.69
-6.74
-7.72
-8.45
-8.69
-8.19
-6.86
-4.82
-2.30
0.34
2.80
4.85
6.38
7.36
7.82
7.79
7.39
6.77
6.07
5.44
4.93
4.55
4.23
3.92
3.58
3.18
2.67
2.02
1.21
0.30
-0.62
-1.41
-2.03
-2.50
-2.94
-3.49
-4.25
-5.22
-6.32
-7.42
-8.39
-9.06
-9.28
-8.89
-7.82
-6.08
-3.83
-1.31
1.20
3.46
5.28
6.55
7.23
7.33
6.93
6.18
5.23
4.24
3.31
2.49
1.79
1.23
0.81
0.54
0.40
0.32
0.20
-0.07
-0.53
-1.19
-1.99
-2.89
-3.88
-4.97
-6.20
-7.56
-8.99
-10.30
-11.25
-11.60
-11.16
-9.88
-7.89
-5.46
-2.93
-0.59
1.42
3.06
4.38
5.42
6.17
6.60
6.67
6.42
5.97
5.48
5.07
4.82
4.66
4.52
4.32
4.01
3.62
3.21
2.81
2.46
2.13
1.75
1.24
0.53
-0.40
-1.56
-2.89
-4.31
-5.73
-7.00
-7.97
-8.48
-8.38
-7.57
-6.05
-3.93
-1.43
1.16
3.51
5.41
6.75
7.57
7.98
8.13
8.09
7.89
7.51
6.99
6.38
5.80
5.30
4.86
4.39
3.79
3.03
2.16
1.30
0.55
-0.07
-0.61
-1.16
-1.79
-2.51
-3.33
-4.24
-5.24
-6.38
-7.65
-8.99
-10.21
-11.08
-11.31
-10.76
-9.41
-7.46
-5.20
-2.96
-0.96
0.68
1.96
2.92
3.57
3.88
3.82
3.44
2.84
2.20
1.68
1.35
1.22
1.20
1.17
1.05
0.85
0.61
0.44
0.35
0.29
0.13
-0.29
-1.00
-1.92
-2.87
-3.67
-4.30
-4.87
-5.60
-6.60
-7.79
-8.87
-9.44
-9.20
-8.04
-6.12
-3.76
-1.29
1.05
3.15
4.96
6.48
7.69
8.55
9.00
9.03
8.68
8.07
7.36
6.72
6.27
6.05
5.98
5.94
5.85
5.64
5.37
5.09
4.83
4.56
4.20
3.70
3.02
2.19
1.29
0.37
-0.56
-1.58
-2.76
-4.15
-5.68
-7.15
-8.25
-8.69
-8.30
-7.09
-5.26
-3.12
-0.94
1.05
2.77
4.17
5.22
5.85
6.05
5.84
5.35
4.75
4.22
3.85
3.66
3.56
3.45
3.29
3.07
2.83
2.65
2.57
2.59
2.62
2.59
2.40
2.02
1.49
0.91
0.35
-0.13
-0.60
-1.14
-1.88
-2.88
-4.11
-5.44
-6.63
-7.43
-7.59
-6.99
-5.67
-3.85
-1.83
0.05
1.57
2.68
3.41
3.89
4.21
4.43
4.53
4.48
4.26
3.88
3.39
2.84
2.29
1.80
1.42
1.20
1.13
1.16
1.14
0.94
0.47
-0.27
-1.15
-2.01
-2.76
-3.39
-3.97
-4.64
-5.44
-6.37
-7.30
-8.14
-8.77
-9.05
-8.84
-8.03
-6.58
-4.59
-2.32
-0.13
1.71
3.02
3.86
4.35
4.67
4.89
4.96
4.82
4.42
3.82
3.12
2.45
1.89
1.44
1.04
0.61
0.11
-0.45
-1.03
-1.59
-2.11
-2.63
-3.20
-3.90
-4.75
-5.75
-6.83
-7.88
-8.79
-9.44
-9.71
-9.53
-8.85
-7.70
-6.16
-4.37
-2.52
-0.77
0.78
2.08
3.15
3.98
4.56
4.86
4.85
4.60
4.19
3.77
3.40
3.13
2.89
2.60
2.18
1.62
0.96
0.28
-0.32
-0.78
-1.10
-1.31
-1.51
-1.79
-2.26
-3.00
-4.02
-5.26
-6.53
-7.55
-8.06
-7.88
-7.01
-5.57
-3.80
-1.91
-0.08
1.60
3.07
4.29
5.20
5.77
6.00
5.95
5.71
5.36
4.98
4.62
4.26
3.89
3.50
3.07
2.62
2.19
1.81
1.47
1.15
0.81
0.43
-0.01
-0.50
-1.05
-1.70
-2.51
-3.53
-4.76
-6.10
-7.33
-8.21
-8.47
-7.98
-6.75
-4.95
-2.83
-0.71
1.20
2.74
3.86
4.56
4.86
4.80
4.49
4.04
3.57
3.14
2.73
2.25
1.60
0.80
-0.05
-0.81
-1.33
-1.61
-1.76
-1.92
-2.20
-2.63
-3.18
-3.77
-4.38
-4.99
-5.62
-6.26
-6.90
-7.47
-7.91
-8.09
-7.91
-7.23
-6.03
-4.32
-2.25
-0.03
2.12
4.02
5.57
6.71
7.44
7.82
7.88
7.69
7.32
6.85
6.34
5.90
5.58
5.41
5.37
5.35
5.27
5.07
4.78
4.43
4.05
3.60
3.00
2.23
1.31
0.37
-0.51
-1.29
-2.10
-3.09
-4.34
-5.74
-7.01
-7.81
-7.87
-7.17
-5.86
-4.23
-2.54
-0.96
0.44
1.63
2.59
3.29
3.73
3.94
4.02
4.02
3.97
3.86
3.67
3.45
3.29
3.24
3.34
3.49
3.53
3.35
2.92
2.32
1.71
1.22
0.86
0.56
0.19
-0.30
-0.90
-1.57
-2.26
-2.96
-3.67
-4.35
-4.86
-5.03
-4.71
-3.83
-2.51
-0.93
0.69
2.18
3.44
4.45
5.22
5.80
6.20
6.44
6.52
6.43
6.15
5.71
5.16
4.55
3.92
3.28
2.64
2.03
1.49
1.04
0.67
0.30
-0.19
-0.86
-1.75
-2.77
-3.84
-4.84
-5.74
-6.57
-7.37
-8.11
-8.73
-9.09
-9.04
-8.49
-7.44
-5.97
-4.22
-2.39
-0.65
0.88
2.08
2.92
3.42
3.63
3.63
3.50
3.30
3.05
2.77
2.49
2.21
1.94
1.66
1.35
0.99
0.61
0.24
-0.07
-0.33
-0.61
-1.05
-1.77
-2.84
-4.21
-5.76
-7.32
-8.72
-9.76
-10.28
-10.14
-9.30
-7.84
-5.97
-4.01
-2.22
-0.75
0.36
1.22
1.91
2.52
3.01
3.32
3.36
3.11
2.64
2.10
1.69
1.56
1.73
2.12
2.51
2.70
2.56
2.14
1.56
1.03
0.65
0.42
0.25
-0.05
-0.63
-1.55
-2.79
-4.19
-5.50
-6.49
-6.96
-6.79
-6.02
-4.76
-3.20
-1.54
-0.00
1.28
2.24
2.90
3.37
3.79
4.23
4.74
5.27
5.71
5.97
5.99
5.80
5.46
5.05
4.66
4.35
4.10
3.90
3.70
3.45
3.09
2.59
1.94
1.14
0.26
-0.63
-1.51
-2.40
-3.39
-4.55
-5.88
-7.23
-8.36
-9.00
-8.92
-8.09
-6.63
-4.82
-2.95
-1.27
0.09
1.11
1.84
2.38
2.79
3.06
3.18
3.11
2.87
2.51
2.14
1.81
1.54
1.27
0.95
0.55
0.05
-0.46
-0.94
-1.34
-1.71
-2.09
-2.55
-3.09
-3.70
-4.33
-4.97
-5.63
-6.35
-7.13
-7.89
-8.50
-8.76
-8.50
-7.64
-6.19
-4.31
-2.19
-0.06
1.92
3.64
5.07
6.20
7.05
7.65
7.97
8.06
7.96
7.75
7.51
7.26
6.96
6.52
5.90
5.13
4.32
3.58
3.01
2.61
2.29
1.96
1.55
1.05
0.46
-0.21
-0.97
-1.85
-2.82
-3.87
-4.95
-6.04
-7.08
-7.99
-8.59
-8.68
-8.09
-6.82
-5.04
-3.04
-1.15
0.44
1.69
2.65
3.46
4.18
4.85
5.43
5.88
6.17
6.28
6.19
5.89
5.39
4.75
4.08
3.49
3.05
2.77
2.61
2.50
2.38
2.20
1.97
1.68
1.31
0.84
0.24
-0.52
-1.45
-2.51
-3.65
-4.76
-5.72
-6.39
-6.62
-6.27
-5.28
-3.70
-1.66
0.58
2.74
4.55
5.90
6.78
7.32
7.62
7.73
7.64
7.29
6.64
5.74
4.68
3.59
2.56
1.66
0.87
0.18
-0.42
-0.94
-1.39
-1.77
-2.12
-2.52
-3.03
-3.68
-4.42
-5.14
-5.69
-6.01
-6.18
-6.35
-6.72
-7.33
-8.08
-8.68
-8.84
-8.35
-7.21
-5.56
-3.66
-1.75
0.03
1.58
2.88
3.89
4.61
5.00
5.06
4.83
4.36
3.78
3.22
2.79
2.52
2.38
2.26
2.07
1.74
1.35
1.00
0.83
0.86
1.00
1.04
0.76
0.02
-1.15
-2.62
-4.20
-5.70
-6.98
-7.93
-8.46
-8.46
-7.89
-6.73
-5.10
-3.20
-1.28
0.44
1.84
2.88
3.64
4.23
4.68
5.01
5.14
5.00
4.56
3.91
3.20
2.56
2.04
1.60
1.13
0.56
-0.09
-0.71
-1.17
-1.42
-1.51
-1.60
-1.89
-2.52
-3.52
-4.84
-6.32
-7.76
-8.89
-9.47
-9.34
-8.46
-6.97
-5.12
-3.18
-1.34
0.30
1.76
3.06
4.16
4.99
5.49
5.65
5.54
5.30
5.07
4.92
4.87
4.84
4.75
4.53
4.16
3.67
3.11
2.53
1.97
1.47
1.06
0.76
0.56
0.36
0.03
-0.60
-1.62
-2.97
-4.46
-5.77
-6.58
-6.68
-6.01
-4.71
-3.01
-1.18
0.52
1.94
3.03
3.86
4.53
5.17
5.80
6.38
6.80
6.97
6.86
6.52
6.03
5.50
5.00
4.54
4.13
3.73
3.32
2.85
2.31
1.69
1.02
0.31
-0.44
-1.23
-2.10
-3.10
-4.22
-5.47
-6.81
-8.16
-9.37
-10.21
-10.41
-9.76
-8.21
-5.97
-3.41
-0.98
1.00
2.40
3.31
3.88
4.29
4.60
4.83
4.95
4.93
4.82
4.64
4.41
4.10
3.65
3.00
2.14
1.14
0.11
-0.81
-1.54
-2.10
-2.56
-3.05
-3.65
-4.39
-5.26
-6.27
-7.37
-8.52
-9.59
-10.37
-10.64
-10.20
-8.98
-7.12
-4.93
-2.75
-0.87
0.63
1.83
2.92
4.00
5.03
5.83
6.19
6.04
5.50
4.84
4.33
4.08
4.02
3.96
3.72
3.22
2.54
1.80
1.11
0.51
-0.01
-0.46
-0.87
-1.26
-1.69
-2.24
-3.00
-3.99
-5.08
-6.04
-6.60
-6.53
-5.78
-4.43
-2.71
-0.86
0.88
2.35
3.51
4.38
5.03
5.53
5.90
6.13
6.20
6.09
5.87
5.61
5.36
5.13
4.86
4.48
3.93
3.21
2.41
1.62
0.96
0.49
0.25
0.18
0.16
0.03
-0.37
-1.12
-2.17
-3.32
-4.30
-4.83
-4.72
-3.93
-2.54
-0.76
1.14
2.92
4.36
5.35
5.89
6.05
5.98
5.82
5.60
5.29
4.84
4.21
3.48
2.80
2.30
2.00
1.78
1.47
0.94
0.22
-0.54
-1.12
-1.41
-1.46
-1.48
-1.72
-2.36
-3.44
-4.84
-6.37
-7.83
-9.01
-9.78
-9.96
-9.46
-8.23
-6.37
-4.10
-1.74
0.40
2.07
3.19
3.84
4.19
4.44
4.71
5.00
5.19
5.21
5.03
4.72
4.43
4.28
4.27
4.31
4.23
3.92
3.36
2.65
1.94
1.33
0.85
0.46
0.09
-0.30
-0.73
-1.19
-1.74
-2.47
-3.51
-4.88
-6.49
-8.07
-9.23
-9.60
-8.96
-7.35
-5.07
-2.57
-0.26
1.60
2.96
3.92
4.62
5.19
5.66
6.00
6.19
6.20
6.03
5.70
5.20
4.55
3.82
3.11
2.55
2.20
2.05
2.01
1.92
1.66
1.19
0.57
-0.13
-0.82
-1.51
-2.27
-3.20
-4.39
-5.89
-7.65
-9.53
-11.30
-12.61
-13.14
-12.67
-11.15
-8.77
-5.86
-2.81
0.05
2.57
4.72
6.53
8.05
9.23
10.00
10.25
9.96
9.21
8.16
7.05
6.09
5.44
5.15
5.09
5.06
4.78
4.08
2.95
1.53
0.07
-1.22
-2.25
-3.09
-3.92
-4.83
-5.86
-6.90
-7.79
-8.47
-8.92
-9.21
-9.34
-9.21
-8.67
-7.55
-5.81
-3.58
-1.13
1.23
3.24
4.74
5.68
6.12
6.15
5.86
5.33
4.66
3.95
3.32
2.83
2.51
2.29
2.05
1.70
1.18
0.52
-0.18
-0.82
-1.33
-1.70
-1.99
-2.26
-2.61
-3.05
-3.61
-4.26
-4.96
-5.61
-6.08
-6.21
-5.89
-5.02
-3.67
-1.95
-0.09
1.70
3.27
4.56
5.58
6.36
6.90
7.16
7.09
6.70
6.06
5.29
4.54
3.87
3.28
2.73
2.13
1.44
0.68
-0.06
-0.70
-1.15
-1.39
-1.49
-1.61
-1.93
-2.61
-3.68
-5.06
-6.53
-7.80
-8.61
-8.75
-8.14
-6.78
-4.79
-2.36
0.23
2.69
4.73
6.21
7.10
7.52
7.71
7.88
8.13
8.43
8.67
8.67
8.32
7.58
6.53
5.27
3.91
2.55
1.26
0.10
-0.92
-1.81
-2.60
-3.39
-4.23
-5.16
-6.19
-7.26
-8.33
-9.36
-10.36
-11.31
-12.18
-12.85
-13.17
-12.94
-12.01
-10.36
-8.11
-5.53
-2.93
-0.59
1.37
2.92
4.12
5.07
5.77
6.18
6.26
6.02
5.58
5.10
4.74
4.53
4.41
4.24
3.90
3.36
2.68
2.00
1.43
1.01
0.68
0.33
-0.12
-0.70
-1.37
-2.06
-2.74
-3.42
-4.14
-4.92
-5.68
-6.26
-6.39
-5.85
-4.56
-2.67
-0.49
1.59
3.22
4.28
4.82
5.02
5.07
5.04
4.93
4.68
4.28
3.80
3.41
3.22
3.31
3.60
3.95
4.21
4.31
4.26
4.14
3.99
3.82
3.56
3.19
2.70
2.15
1.56
0.95
0.23
-0.66
-1.70
-2.71
-3.44
-3.62
-3.11
-1.99
-0.50
1.08
2.56
3.86
5.02
6.09
7.05
7.85
8.36
8.52
8.34
7.93
7.47
7.06
6.70
6.29
5.67
4.69
3.36
1.82
0.32
-0.89
-1.68
-2.05
-2.17
-2.25
-2.53
-3.13
-4.13
-5.49
-7.08
-8.69
-10.04
-10.83
-10.83
-9.95
-8.24
-5.98
-3.53
-1.24
0.63
1.93
2.64
2.82
2.54
1.95
1.19
0.42
-0.23
-0.70
-0.98
-1.09
-1.06
-0.91
-0.67
-0.38
-0.12
0.03
0.03
-0.11
-0.36
-0.66
-0.97
-1.27
-1.60
-1.96
-2.40
-2.99
-3.80
-4.89
-6.22
-7.63
-8.83
-9.52
-9.49
-8.71
-7.30
-5.52
-3.62
-1.80
-0.16
1.25
2.40
3.32
4.04
4.67
5.31
6.08
6.97
7.89
8.64
9.02
8.89
8.28
7.32
6.27
5.36
4.71
4.33
4.07
3.77
3.36
2.85
2.36
1.92
1.50
0.96
0.15
-0.96
-2.29
-3.64
-4.82
-5.69
-6.15
-6.15
-5.67
-4.72
-3.42
-1.99
-0.68
0.31
0.97
1.44
1.91
2.49
3.14
3.73
4.10
4.18
4.01
3.73
3.44
3.17
2.91
2.61
2.25
1.86
1.46
1.04
0.54
-0.12
-0.94
-1.89
-2.86
-3.73
-4.46
-5.09
-5.73
-6.53
-7.53
-8.68
-9.80
-10.67
-11.04
-10.73
-9.69
-7.98
-5.79
-3.35
-0.95
1.20
2.92
4.16
4.93
5.32
5.47
5.48
5.44
5.38
5.26
5.06
4.72
4.26
3.70
3.06
2.39
1.70
1.03
0.38
-0.22
-0.78
-1.34
-1.99
-2.79
-3.79
-4.95
-6.21
-7.47
-8.63
-9.59
-10.23
-10.42
-10.03
-9.01
-7.42
-5.41
-3.19
-0.95
1.19
3.18
5.00
6.63
8.06
9.35
10.60
12.00
13.71
15.74
17.94
20.00
21.61
22.55
22.72
22.18
21.04
19.45
17.51
15.34
13.04
10.67
8.25
5.75
3.09
0.20
-2.89
-6.08
-9.17
-11.86
-13.85
-14.91
-14.93
-13.97
-12.30
-10.29
-8.31
-6.62
-5.29
-4.27
-3.41
-2.62
-1.85
-1.12
-0.48
0.06
0.46
0.74
0.87
0.86
0.70
0.41
0.04
-0.38
-0.81
-1.29
-1.83
-2.43
-3.07
-3.70
-4.26
-4.75
-5.20
-5.68
-6.31
-7.16
-8.23
-9.42
-10.51
-11.25
-11.40
-10.88
-9.75
-8.25
-6.61
-5.05
-3.63
-2.32
-1.04
0.19
1.28
2.04
2.35
2.21
1.78
1.33
1.09
1.12
1.35
1.58
1.63
1.41
0.97
0.39
-0.23
-0.84
-1.40
-1.85
-2.10
-2.05
-1.64
-0.99
-0.29
0.21
0.36
0.11
-0.40
-0.97
-1.42
-1.57
-1.36
-0.74
0.29
1.67
3.32
5.07
6.70
8.00
8.79
8.97
8.54
7.56
6.16
4.49
2.73
1.04
-0.43
-1.62
-2.55
-3.27
-3.85
-4.32
-4.70
-4.98
-5.21
-5.45
-5.80
-6.33
-6.99
-7.67
-8.19
-8.37
-8.15
-7.60
-6.88
-6.17
-5.57
-5.04
-4.44
-3.55
-2.25
-0.50
1.54
3.63
5.48
6.84
7.62
7.79
7.42
6.63
5.50
4.16
2.73
1.39
0.31
-0.34
-0.49
-0.19
0.43
1.16
1.83
2.30
2.47
2.27
1.68
0.72
-0.53
-1.93
-3.32
-4.56
-5.60
-6.44
-7.16
-7.81
-8.37
-8.74
-8.76
-8.29
-7.29
-5.85
-4.18
-2.48
-0.94
0.37
1.49
2.48
3.45
4.45
5.45
6.39
7.17
7.73
8.01
8.05
7.89
7.63
7.32
7.02
6.72
6.42
6.12
5.88
5.73
5.71
5.81
5.95
6.05
6.00
5.75
5.30
4.70
4.00
3.23
2.40
1.54
0.72
0.11
-0.12
0.21
1.11
2.43
3.89
5.13
5.92
6.12
5.82
5.14
4.22
3.15
1.92
0.56
-0.89
-2.28
-3.47
-4.37
-5.00
-5.52
-6.11
-6.91
-7.88
-8.88
-9.71
-10.24
-10.43
-10.37
-10.18
-9.94
-9.67
-9.37
-9.05
-8.78
-8.61
-8.53
-8.49
-8.32
-7.86
-6.96
-5.58
-3.78
-1.78
0.18
1.83
3.01
3.68
3.93
3.93
3.84
3.74
3.65
3.52
3.29
2.93
2.48
1.97
1.46
1.01
0.69
0.53
0.52
0.61
0.69
0.63
0.33
-0.26
-1.12
-2.16
-3.28
-4.35
-5.25
-5.85
-6.04
-5.76
-5.03
-3.94
-2.68
-1.44
-0.35
0.58
1.46
2.43
3.57
4.81
5.97
6.82
7.19
7.10
6.69
6.15
5.67
5.30
5.03
4.76
4.42
3.95
3.35
2.59
1.64
0.50
-0.76
-1.97
-2.95
-3.60
-3.93
-4.12
-4.40
-4.97
-5.84
-6.86
-7.75
-8.25
-8.19
-7.55
-6.44
-5.02
-3.43
-1.80
-0.22
1.23
2.49
3.54
4.40
5.12
5.77
6.40
7.02
7.58
8.00
8.21
8.16
7.84
7.30
6.60
5.82
5.01
4.25
3.60
3.07
2.65
2.28
1.83
1.19
0.34
-0.71
-1.84
-2.90
-3.79
-4.49
-5.02
-5.38
-5.58
-5.53
-5.18
-4.49
-3.51
-2.33
-1.08
0.10
1.16
2.04
2.71
3.16
3.40
3.43
3.29
2.99
2.58
2.12
1.69
1.39
1.21
1.09
0.85
0.30
-0.62
-1.81
-3.00
-3.93
-4.45
-4.66
-4.79
-5.12
-5.78
-6.72
-7.77
-8.69
-9.32
-9.61
-9.55
-9.16
-8.42
-7.32
-5.85
-4.05
-2.04
0.01
1.86
3.29
4.19
4.56
4.52
4.29
4.08
3.98
4.00
4.05
4.01
3.81
3.42
2.84
2.07
1.18
0.27
-0.50
-1.02
-1.31
-1.51
-1.85
-2.53
-3.57
-4.82
-6.01
-6.88
-7.27
-7.16
-6.58
-5.64
-4.44
-3.08
-1.64
-0.19
1.22
2.59
3.93
5.20
6.30
7.13
7.60
7.67
7.45
7.07
6.66
6.27
5.87
5.42
4.84
4.16
3.42
2.71
2.09
1.58
1.11
0.60
-0.03
-0.82
-1.76
-2.80
-3.87
-4.94
-5.98
-6.98
-7.89
-8.64
-9.08
-9.05
-8.43
-7.23
-5.60
-3.82
-2.14
-0.77
0.27
1.04
1.69
2.32
2.96
3.58
4.11
4.51
4.78
4.92
4.96
4.93
4.84
4.72
4.60
4.51
4.47
4.48
4.47
4.35
4.01
3.40
2.54
1.57
0.68
0.01
-0.40
-0.71
-1.12
-1.79
-2.70
-3.65
-4.30
-4.39
-3.85
-2.80
-1.53
-0.30
0.76
1.66
2.49
3.30
4.08
4.74
5.17
5.34
5.29
5.08
4.78
4.41
3.94
3.38
2.75
2.12
1.56
1.09
0.69
0.31
-0.09
-0.54
-1.01
-1.53
-2.11
-2.77
-3.55
-4.39
-5.24
-6.03
-6.73
-7.33
-7.78
-7.98
-7.78
-7.05
-5.74
-4.02
-2.17
-0.52
0.75
1.60
2.18
2.65
3.09
3.48
3.69
3.64
3.33
2.87
2.39
1.95
1.56
1.15
0.71
0.28
-0.01
-0.11
-0.06
-0.08
-0.43
-1.31
-2.75
-4.56
-6.42
-8.01
-9.15
-9.82
-10.19
-10.43
-10.71
-11.00
-11.19
-11.03
-10.33
-9.01
-7.09
-4.74
-2.15
0.52
3.14
5.64
7.93
9.86
11.30
12.19
12.53
12.47
12.16
11.77
11.35
10.94
10.51
10.06
9.56
8.95
8.13
7.01
5.58
3.94
2.33
1.00
0.12
-0.33
-0.51
-0.67
-0.97
-1.52
-2.28
-3.15
-4.01
-4.73
-5.17
-5.17
-4.63
-3.54
-2.00
-0.25
1.46
2.93
4.07
4.87
5.38
5.66
5.72
5.54
5.14
4.54
3.83
3.15
2.58
2.16
1.86
1.58
1.24
0.79
0.25
-0.34
-0.91
-1.38
-1.73
-1.98
-2.23
-2.62
-3.30
-4.39
-5.85
-7.57
-9.31
-10.81
-11.86
-12.30
-12.04
-11.04
-9.35
-7.07
-4.40
-1.60
1.10
3.52
5.52
7.00
7.86
8.01
7.47
6.37
4.99
3.66
2.59
1.84
1.31
0.84
0.33
-0.22
-0.74
-1.18
-1.55
-1.93
-2.39
-2.96
-3.60
-4.28
-5.04
-5.93
-7.02
-8.29
-9.54
-10.51
-10.88
-10.49
-9.30
-7.48
-5.27
-2.91
-0.62
1.46
3.22
4.62
5.65
6.33
6.72
6.92
7.01
7.06
7.07
6.98
6.69
6.10
5.20
4.05
2.83
1.74
0.94
0.48
0.30
0.21
0.02
-0.44
-1.28
-2.51
-4.07
-5.80
-7.43
-8.68
-9.25
-9.01
-7.94
-6.23
-4.15
-1.94
0.20
2.18
3.95
5.45
6.62
7.36
7.63
7.47
7.02
6.48
6.01
5.74
5.67
5.71
5.73
5.57
5.19
4.63
4.00
3.42
2.91
2.43
1.86
1.07
-0.02
-1.46
-3.27
-5.42
-7.84
-10.34
-12.60
-14.20
-14.80
-14.28
-12.77
-10.64
-8.36
-6.26
-4.49
-2.98
-1.52
0.08
1.88
3.83
5.75
7.44
8.81
9.85
10.74
11.69
12.87
14.24
15.58
16.50
16.60
15.64
13.67
10.99
7.97
4.96
2.10
-0.58
-3.11
-5.45
-7.49
-9.13
-10.38
-11.36
-12.21
-12.96
-13.47
-13.44
-12.61
-10.92
-8.58
-6.00
-3.67
-1.95
-0.96
-0.65
-0.82
-1.25
-1.77
-2.26
-2.66
-2.94
-3.06
-3.02
-2.83
-2.54
-2.24
-1.98
-1.80
-1.64
-1.38
-0.89
-0.14
0.74
1.55
2.02
1.97
1.32
0.10
-1.55
-3.41
-5.20
-6.58
-7.19
-6.76
-5.23
-2.77
0.27
3.44
6.35
8.71
10.36
11.25
11.42
10.99
10.17
9.21
8.34
7.68
7.23
6.89
6.50
5.92
5.07
3.97
2.70
1.39
0.17
-0.87
-1.74
-2.53
-3.40
-4.49
-5.87
-7.49
-9.16
-10.63
-11.64
-11.96
-11.52
-10.33
-8.53
-6.32
-3.93
-1.54
0.71
2.67
4.25
5.34
5.88
5.89
5.50
4.88
4.22
3.61
3.10
2.65
2.22
1.81
1.42
1.09
0.77
0.45
0.07
-0.37
-0.84
-1.31
-1.76
-2.25
-2.89
-3.79
-4.98
-6.35
-7.66
-8.56
-8.69
-7.83
-5.95
-3.26
-0.12
3.03
5.84
8.07
9.67
10.68
11.20
11.32
11.14
10.72
10.17
9.64
9.21
8.94
8.75
8.49
8.01
7.26
6.29
5.27
4.36
3.65
3.07
2.46
1.69
0.71
-0.42
-1.54
-2.52
-3.35
-4.16
-5.14
-6.43
-8.03
-9.70
-11.03
-11.58
-11.09
-9.48
-6.94
-3.81
-0.47
2.75
5.60
7.90
9.56
10.59
11.07
11.15
11.00
10.76
10.48
10.14
9.70
9.11
8.34
7.45
6.52
5.64
4.90
4.34
3.92
3.52
3.05
2.40
1.55
0.55
-0.53
-1.61
-2.66
-3.68
-4.64
-5.57
-6.48
-7.43
-8.43
-9.44
-10.28
-10.65
-10.24
-8.87
-6.62
-3.82
-0.92
1.66
3.70
5.21
6.33
7.21
7.88
8.31
8.41
8.16
7.65
7.01
6.38
5.79
5.22
4.61
3.94
3.25
2.64
2.18
1.85
1.55
1.15
0.55
-0.27
-1.22
-2.18
-3.01
-3.66
-4.19
-4.72
-5.40
-6.35
-7.56
-8.85
-9.92
-10.42
-10.12
-8.99
-7.17
-4.93
-2.51
-0.08
2.28
4.48
6.38
7.79
8.53
8.54
7.89
6.85
5.68
4.61
3.76
3.15
2.75
2.49
2.33
2.22
2.09
1.86
1.49
0.94
0.24
-0.54
-1.36
-2.15
-2.94
-3.74
-4.64
-5.67
-6.86
-8.21
-9.64
-11.01
-12.09
-12.63
-12.37
-11.16
-9.03
-6.20
-3.08
-0.13
2.26
3.94
4.95
5.47
5.70
5.74
5.64
5.41
5.09
4.77
4.50
4.25
3.94
3.46
2.77
1.99
1.28
0.80
0.59
0.54
0.47
0.22
-0.29
-1.05
-1.98
-2.99
-4.05
-5.16
-6.37
-7.66
-8.99
-10.18
-11.01
-11.21
-10.64
-9.25
-7.17
-4.68
-2.06
0.39
2.50
4.20
5.49
6.44
7.14
7.65
8.01
8.22
8.25
8.09
7.73
7.18
6.53
5.86
5.27
4.85
4.59
4.43
4.25
3.91
3.37
2.64
1.83
1.04
0.33
-0.32
-0.97
-1.69
-2.53
-3.47
-4.46
-5.44
-6.29
-6.88
-7.10
-6.87
-6.16
-5.04
-3.61
-2.00
-0.31
1.33
2.83
4.07
4.96
5.43
5.49
5.18
4.58
3.79
2.94
2.13
1.46
0.98
0.68
0.49
0.31
0.05
-0.31
-0.76
-1.25
-1.77
-2.30
-2.86
-3.41
-3.88
-4.23
-4.44
-4.63
-4.96
-5.57
-6.49
-7.58
-8.54
-9.04
-8.83
-7.83
-6.18
-4.15
-2.00
0.04
1.91
3.63
5.21
6.65
7.84
8.68
9.09
9.10
8.81
8.39
7.98
7.65
7.40
7.22
7.07
6.91
6.72
6.46
6.07
5.53
4.85
4.08
3.28
2.52
1.83
1.21
0.63
0.02
-0.67
-1.47
-2.42
-3.49
-4.58
-5.56
-6.21
-6.31
-5.72
-4.42
-2.56
-0.50
1.41
2.83
3.65
3.93
3.88
3.67
3.41
3.10
2.67
2.08
1.35
0.57
-0.14
-0.71
-1.15
-1.52
-1.91
-2.37
-2.92
-3.54
-4.20
-4.87
-5.54
-6.21
-6.87
-7.47
-7.99
-8.37
-8.61
-8.75
-8.83
-8.84
-8.69
-8.27
-7.43
-6.16
-4.50
-2.65
-0.77
0.98
2.54
3.87
4.96
5.75
6.16
6.18
5.89
5.43
4.99
4.68
4.50
4.38
4.18
3.83
3.26
2.52
1.69
0.83
0.01
-0.72
-1.35
-1.91
-2.44
-3.02
-3.73
-4.64
-5.74
-6.95
-8.11
-9.01
-9.49
-9.40
-8.72
-7.50
-5.90
-4.05
-2.10
-0.17
1.65
3.26
4.57
5.47
5.91
5.89
5.51
4.94
4.35
3.86
3.49
3.20
2.87
2.38
1.68
0.79
-0.18
-1.10
-1.83
-2.31
-2.51
-2.51
-2.44
-2.46
-2.72
-3.32
-4.26
-5.43
-6.60
-7.47
-7.78
-7.35
-6.20
-4.49
-2.52
-0.57
1.13
2.48
3.49
4.29
4.99
5.65
6.26
6.71
6.85
6.62
6.02
5.14
4.14
3.14
2.24
1.47
0.81
0.25
-0.25
-0.69
-1.13
-1.59
-2.08
-2.60
-3.15
-3.78
-4.54
-5.53
-6.75
-8.06
-9.22
-9.92
-9.91
-9.08
-7.52
-5.52
-3.47
-1.74
-0.63
-0.24
-0.40
-0.81
-1.13
-1.17
-1.02
-0.98
-1.42
-2.59
-4.42
-6.55
-8.47
-9.75
-10.28
-10.36
-10.57
-11.63
-14.04
-17.82
-22.35
-26.46
-28.86
-28.59
-25.50
-20.40
-14.82
-10.69
-9.80
-13.45
-21.94
-34.19
-47.62
-58.51
-63.01
-58.43
-44.36
-22.93
1.93
25.98
46.04
60.71
70.14
75.22
76.80
75.37
71.34
65.37
58.48
51.88
46.47
42.49
39.56
36.89
33.72
29.72
25.06
20.34
16.23
13.22
11.34
10.19
9.14
7.58
5.22
2.22
-0.95
-3.71
-5.63
-6.55
-6.64
-6.23
-5.66
-5.13
-4.71
-4.36
-3.97
-3.49
-2.89
-2.21
-1.50
-0.84
-0.32
-0.00
0.07
-0.08
-0.36
-0.69
-0.99
-1.21
-1.36
-1.42
-1.44
-1.45
-1.52
-1.71
-2.04
-2.49
-2.99
-3.44
-3.81
-4.08
-4.34
-4.68
-5.22
-6.00
-6.98
-8.03
-8.93
-9.46
-9.45
-8.82
-7.65
-6.10
-4.41
-2.76
-1.28
-0.00
1.11
2.11
3.01
3.82
4.49
4.97
5.25
5.36
5.40
5.47
5.69
6.07
6.60
7.21
7.85
8.50
9.15
9.77
10.30
10.64
10.65
10.21
9.21
7.53
5.13
1.97
-1.86
-6.09
-10.27
-13.83
-16.32
-17.57
-17.78
-17.45
-17.11
-17.08
-17.32
-17.47
-17.05
-15.73
-13.47
-10.52
-7.29
-4.20
-1.59
0.38
1.65
2.27
2.40
2.28
2.12
2.08
2.19
2.31
2.27
1.91
1.19
0.21
-0.87
-1.88
-2.75
-3.50
-4.25
-5.06
-5.91
-6.67
-7.15
-7.27
-7.10
-6.88
-6.92
-7.44
-8.53
-10.01
-11.59
-12.94
-13.79
-14.03
-13.64
-12.67
-11.21
-9.39
-7.39
-5.44
-3.75
-2.47
-1.63
-1.18
-1.00
-0.94
-0.89
-0.76
-0.52
-0.19
0.16
0.46
0.62
0.61
0.42
0.12
-0.25
-0.61
-0.93
-1.19
-1.38
-1.49
-1.56
-1.60
-1.64
-1.70
-1.81
-1.97
-2.24
-2.68
-3.36
-4.30
-5.47
-6.75
-7.98
-8.93
-9.38
-9.14
-8.12
-6.35
-4.00
-1.32
1.36
3.75
5.65
6.97
7.72
8.00
7.93
7.69
7.43
7.30
7.39
7.74
8.26
8.82
9.25
9.41
9.25
8.76
8.00
7.02
5.85
4.56
3.21
1.92
0.79
-0.11
-0.78
-1.33
-1.88
-2.55
-3.43
-4.53
-5.79
-7.08
-8.23
-9.05
-9.36
-9.04
-8.06
-6.50
-4.53
-2.37
-0.24
1.65
3.13
4.14
4.68
4.86
4.83
4.76
4.79
4.96
5.24
5.53
5.69
5.61
5.19
4.43
3.42
2.29
1.24
0.45
0.05
0.08
0.42
0.89
1.23
1.24
0.80
-0.06
-1.20
-2.42
-3.50
-4.27
-4.63
-4.54
-4.04
-3.23
-2.27
-1.29
-0.38
0.41
1.13
1.78
2.35
2.79
3.03
3.07
3.00
2.95
3.05
3.37
3.88
4.50
5.08
5.49
5.62
5.44
4.95
4.25
3.46
2.74
2.17
1.75
1.43
1.05
0.44
-0.54
-1.98
-3.84
-5.94
-7.91
-9.36
-9.92
-9.44
-8.05
-6.06
-3.90
-1.95
-0.39
0.77
1.65
2.40
3.13
3.85
4.53
5.08
5.40
5.42
5.14
4.62
4.00
3.45
3.08
2.93
2.91
2.89
2.76
2.48
2.10
1.71
1.35
0.98
0.50
-0.21
-1.20
-2.45
-3.86
-5.25
-6.46
-7.33
-7.72
-7.51
-6.68
-5.30
-3.57
-1.71
0.03
1.49
2.64
3.50
4.17
4.71
5.16
5.49
5.61
5.47
5.07
4.51
3.94
3.55
3.39
3.41
3.44
3.31
2.88
2.20
1.41
0.72
0.26
0.04
-0.08
-0.28
-0.77
-1.61
-2.78
-4.12
-5.42
-6.43
-6.94
-6.79
-5.90
-4.30
-2.14
0.33
2.85
5.12
6.96
8.30
9.18
9.67
9.91
9.97
9.93
9.80
9.54
9.13
8.53
7.78
6.97
6.16
5.42
4.74
4.10
3.49
2.85
2.18
1.41
0.52
-0.53
-1.71
-2.98
-4.30
-5.64
-6.99
-8.33
-9.54
-10.43
-10.75
-10.25
-8.85
-6.61
-3.79
-0.74
2.19
4.73
6.76
8.31
9.50
10.50
11.38
12.16
12.74
13.04
13.02
12.71
12.19
11.52
10.68
9.63
8.31
6.73
4.98
3.23
1.67
0.38
-0.67
-1.60
-2.55
-3.65
-4.95
-6.43
-8.06
-9.73
-11.30
-12.55
-13.25
-13.19
-12.32
-10.71
-8.61
-6.30
-4.04
-2.04
-0.39
0.87
1.75
2.31
2.62
2.75
2.74
2.58
2.27
1.83
1.36
0.98
0.78
0.75
0.77
0.68
0.38
-0.09
-0.59
-0.93
-1.06
-1.08
-1.22
-1.75
-2.82
-4.40
-6.28
-8.15
-9.74
-10.82
-11.27
-11.08
-10.25
-8.87
-7.05
-4.98
-2.89
-1.01
0.49
1.52
2.14
2.48
2.68
2.83
2.95
3.02
2.99
2.88
2.72
2.57
2.43
2.23
1.90
1.38
0.67
-0.10
-0.78
-1.27
-1.55
-1.75
-2.07
-2.69
-3.72
-5.07
-6.55
-7.86
-8.68
-8.80
-8.10
-6.63
-4.59
-2.30
-0.07
1.82
3.24
4.17
4.71
4.98
5.06
4.98
4.72
4.27
3.67
3.04
2.49
2.08
1.83
1.61
1.32
0.83
0.13
-0.73
-1.59
-2.32
-2.82
-3.11
-3.34
-3.66
-4.25
-5.16
-6.35
-7.65
-8.80
-9.56
-9.72
-9.17
-7.90
-6.04
-3.80
-1.45
0.74
2.57
4.01
5.18
6.32
7.66
9.33
11.18
12.91
14.15
14.64
14.36
13.52
12.44
11.42
10.62
10.05
9.62
9.23
8.83
8.37
7.84
7.22
6.54
5.84
5.21
4.77
4.61
4.75
5.13
5.56
5.84
5.77
5.32
4.57
3.77
3.19
3.03
3.31
3.91
4.58
5.08
5.23
5.03
4.57
4.02
3.51
3.09
2.72
2.28
1.68
0.89
-0.05
-1.00
-1.90
-2.70
-3.47
-4.30
-5.25
-6.28
-7.29
-8.13
-8.70
-8.97
-9.03
-9.01
-9.07
-9.29
-9.70
-10.27
-10.94
-11.66
-12.33
-12.87
-13.19
-13.20
-12.85
-12.06
-10.81
-9.06
-6.81
-4.15
-1.27
1.55
3.97
5.68
6.47
6.29
5.24
3.57
1.61
-0.28
-1.77
-2.63
-2.76
-2.22
-1.23
-0.05
1.04
1.88
2.39
2.59
2.57
2.38
2.10
1.74
1.29
0.75
0.06
-0.79
-1.81
-2.94
-4.06
-4.95
-5.43
-5.32
-4.57
-3.24
-1.54
0.29
1.98
3.33
4.22
4.63
4.67
4.47
4.26
4.22
4.46
4.99
5.68
6.37
6.84
6.98
6.78
6.33
5.80
5.37
5.18
5.27
5.57
5.89
6.06
5.88
5.28
4.24
2.80
1.06
-0.89
-2.92
-4.83
-6.39
-7.36
-7.61
-7.15
-6.15
-4.89
-3.67
-2.66
-1.90
-1.27
-0.61
0.16
0.98
1.69
2.09
2.08
1.73
1.25
0.87
0.74
0.87
1.10
1.24
1.14
0.75
0.10
-0.72
-1.60
-2.46
-3.24
-3.91
-4.47
-4.93
-5.34
-5.77
-6.25
-6.82
-7.47
-8.13
-8.71
-9.07
-9.09
-8.67
-7.76
-6.37
-4.61
-2.64
-0.70
1.03
2.40
3.36
3.98
4.35
4.58
4.76
4.91
5.01
5.06
5.05
4.99
4.90
4.77
4.57
4.26
3.84
3.36
2.89
2.51
2.25
2.05
1.80
1.36
0.67
-0.25
-1.27
-2.27
-3.16
-3.97
-4.73
-5.45
-6.04
-6.35
-6.19
-5.49
-4.28
-2.74
-1.06
0.58
2.07
3.34
4.34
5.03
5.38
5.39
5.08
4.55
3.92
3.31
2.83
2.51
2.31
2.16
1.97
1.71
1.41
1.17
1.05
1.07
1.16
1.19
1.06
0.70
0.12
-0.61
-1.44
-2.33
-3.27
-4.24
-5.19
-6.03
-6.65
-6.89
-6.63
-5.83
-4.56
-2.98
-1.32
0.20
1.43
2.36
3.01
3.44
3.69
3.75
3.62
3.31
2.86
2.37
1.93
1.57
1.26
0.91
0.49
-0.01
-0.49
-0.80
-0.90
-0.82
-0.71
-0.76
-1.09
-1.68
-2.41
-3.15
-3.82
-4.44
-5.11
-5.86
-6.56
-7.02
-6.98
-6.33
-5.19
-3.81
-2.53
-1.53
-0.76
-0.02
0.91
2.13
3.46
4.60
5.26
5.32
4.91
4.30
3.79
3.51
3.44
3.42
3.30
3.01
2.56
2.04
1.51
1.02
0.57
0.09
-0.44
-1.08
-1.80
-2.57
-3.35
-4.11
-4.83
-5.51
-6.13
-6.64
-6.94
-6.94
-6.57
-5.81
-4.72
-3.36
-1.83
-0.26
1.25
2.57
3.62
4.34
4.77
4.96
5.02
5.00
4.92
4.79
4.58
4.29
3.97
3.65
3.37
3.12
2.87
2.57
2.19
1.75
1.26
0.75
0.25
-0.26
-0.80
-1.41
-2.10
-2.86
-3.65
-4.45
-5.19
-5.75
-6.01
-5.83
-5.15
-3.99
-2.53
-0.95
0.54
1.85
2.98
3.94
4.74
5.36
5.70
5.74
5.47
5.02
4.50
4.02
3.62
3.29
3.01
2.74
2.47
2.16
1.82
1.42
1.01
0.61
0.26
-0.03
-0.31
-0.67
-1.17
-1.83
-2.63
-3.51
-4.43
-5.34
-6.20
-6.92
-7.34
-7.31
-6.71
-5.55
-3.99
-2.26
-0.61
0.79
1.87
2.67
3.27
3.70
3.98
4.11
4.08
3.91
3.64
3.30
2.90
2.45
1.93
1.36
0.77
0.24
-0.16
-0.44
-0.66
-0.90
-1.26
-1.79
-2.49
-3.26
-4.04
-4.78
-5.48
-6.17
-6.81
-7.32
-7.53
-7.31
-6.61
-5.50
-4.15
-2.77
-1.47
-0.28
0.84
1.96
3.04
4.01
4.76
5.21
5.33
5.21
4.91
4.51
4.06
3.58
3.09
2.62
2.22
1.92
1.70
1.56
1.42
1.24
0.96
0.54
-0.01
-0.72
-1.58
-2.59
-3.68
-4.76
-5.67
-6.26
-6.43
-6.15
-5.45
-4.44
-3.21
-1.86
-0.48
0.84
2.02
2.98
3.70
4.20
4.53
4.77
4.94
5.07
5.15
5.19
5.19
5.16
5.08
4.90
4.56
4.02
3.31
2.52
1.79
1.25
0.91
0.70
0.44
-0.01
-0.73
-1.67
-2.69
-3.65
-4.45
-5.07
-5.50
-5.71
-5.63
-5.19
-4.41
-3.40
-2.32
-1.27
-0.26
0.82
2.04
3.36
4.61
5.52
5.88
5.68
5.08
4.34
3.74
3.39
3.29
3.34
3.40
3.38
3.20
2.83
2.29
1.63
0.92
0.25
-0.33
-0.82
-1.26
-1.70
-2.18
-2.73
-3.38
-4.12
-4.92
-5.67
-6.22
-6.39
-6.05
-5.19
-3.91
-2.41
-0.93
0.36
1.36
2.04
2.48
2.81
3.12
3.45
3.75
3.88
3.74
3.32
2.75
2.21
1.85
1.69
1.59
1.39
0.99
0.43
-0.16
-0.66
-1.05
-1.42
-1.88
-2.46
-3.12
-3.81
-4.51
-5.27
-6.13
-7.06
-7.87
-8.33
-8.23
-7.50
-6.27
-4.77
-3.27
-1.92
-0.76
0.22
1.09
1.86
2.51
3.03
3.40
3.65
3.82
3.93
3.96
3.83
3.49
2.92
2.19
1.45
0.83
0.43
0.24
0.16
0.07
-0.11
-0.47
-1.03
-1.80
-2.76
-3.90
-5.12
-6.33
-7.40
-8.23
-8.74
-8.90
-8.72
-8.23
-7.49
-6.54
-5.43
-4.16
-2.71
-1.10
0.63
2.35
3.90
5.13
5.95
6.37
6.52
6.56
6.61
6.74
6.88
6.93
6.78
6.39
5.82
5.17
4.58
4.13
3.79
3.50
3.17
2.70
2.07
1.31
0.48
-0.37
-1.23
-2.11
-3.05
-4.04
-4.99
-5.76
-6.15
-6.05
-5.45
-4.47
-3.28
-2.06
-0.91
0.16
1.19
2.16
3.05
3.78
4.29
4.59
4.74
4.80
4.82
4.75
4.57
4.24
3.81
3.38
3.00
2.71
2.43
2.08
1.57
0.93
0.24
-0.35
-0.75
-0.96
-1.04
-1.13
-1.34
-1.76
-2.39
-3.20
-4.07
-4.87
-5.45
-5.73
-5.63
-5.17
-4.39
-3.33
-2.07
-0.69
0.68
1.89
2.83
3.45
3.82
4.06
4.26
4.45
4.57
4.53
4.27
3.84
3.35
2.92
2.62
2.44
2.31
2.18
2.01
1.80
1.56
1.28
0.90
0.40
-0.22
-0.92
-1.62
-2.24
-2.76
-3.19
-3.60
-4.07
-4.65
-5.27
-5.82
-6.14
-6.08
-5.57
-4.65
-3.43
-2.12
-0.88
0.19
1.06
1.79
2.41
2.90
3.22
3.29
3.09
2.68
2.20
1.83
1.68
1.74
1.91
2.05
2.03
1.82
1.46
0.98
0.40
-0.23
-0.91
-1.59
-2.22
-2.80
-3.34
-3.94
-4.65
-5.52
-6.49
-7.45
-8.24
-8.71
-8.71
-8.15
-7.02
-5.39
-3.44
-1.46
0.30
1.65
2.55
3.08
3.39
3.61
3.83
4.03
4.19
4.28
4.29
4.23
4.09
3.88
3.61
3.29
2.98
2.71
2.51
2.33
2.10
1.75
1.24
0.59
-0.13
-0.81
-1.39
-1.89
-2.38
-2.98
-3.74
-4.67
-5.66
-6.58
-7.25
-7.56
-7.41
-6.78
-5.71
-4.31
-2.72
-1.16
0.22
1.27
1.93
2.27
2.39
2.44
2.54
2.74
2.99
3.20
3.23
3.05
2.66
2.15
1.60
1.08
0.61
0.20
-0.11
-0.26
-0.22
-0.03
0.14
0.04
-0.50
-1.52
-2.85
-4.19
-5.28
-5.95
-6.17
-6.01
-5.53
-4.74
-3.60
-2.07
-0.19
1.98
4.31
6.66
8.89
10.85
12.37
13.30
13.58
13.31
12.76
12.23
11.96
12.02
12.29
12.57
12.67
12.52
12.12
11.56
10.87
10.07
9.13
8.05
6.84
5.59
4.32
3.05
1.76
0.37
-1.14
-2.80
-4.61
-6.54
-8.53
-10.49
-12.27
-13.67
-14.48
-14.58
-13.95
-12.71
-11.06
-9.22
-7.37
-5.62
-4.04
-2.63
-1.42
-0.37
0.54
1.34
2.02
2.58
2.97
3.20
3.31
3.38
3.47
3.61
3.75
3.79
3.64
3.25
2.63
1.80
0.86
-0.09
-0.94
-1.58
-1.98
-2.20
-2.40
-2.79
-3.51
-4.59
-5.90
-7.23
-8.33
-9.00
-9.13
-8.70
-7.78
-6.52
-5.06
-3.55
-2.12
-0.84
0.24
1.11
1.76
2.22
2.55
2.80
3.00
3.15
3.19
3.09
2.86
2.58
2.39
2.35
2.46
2.63
2.69
2.50
2.05
1.38
0.63
-0.12
-0.80
-1.40
-1.94
-2.45
-3.04
-3.79
-4.78
-6.02
-7.38
-8.67
-9.63
-10.04
-9.86
-9.17
-8.15
-7.02
-5.94
-4.97
-4.11
-3.37
-2.75
-2.25
-1.84
-1.46
-0.99
-0.38
0.32
0.99
1.45
1.59
1.43
1.07
0.73
0.51
0.45
0.46
0.43
0.30
0.05
-0.23
-0.48
-0.71
-1.00
-1.45
-2.16
-3.08
-4.08
-4.92
-5.39
-5.36
-4.81
-3.84
-2.58
-1.17
0.25
1.58
2.69
3.52
4.06
4.33
4.45
4.49
4.51
4.49
4.40
4.18
3.82
3.31
2.68
1.98
1.26
0.55
-0.08
-0.63
-1.09
-1.48
-1.89
-2.36
-2.97
-3.74
-4.67
-5.70
-6.74
-7.65
-8.28
-8.47
-8.14
-7.24
-5.84
-4.12
-2.28
-0.57
0.88
2.04
2.95
3.73
4.46
5.16
5.77
6.23
6.48
6.52
6.40
6.20
5.97
5.72
5.39
4.93
4.33
3.65
2.98
2.40
1.93
1.50
1.07
0.55
-0.05
-0.70
-1.36
-2.04
-2.79
-3.63
-4.50
-5.25
-5.68
-5.60
-4.97
-3.88
-2.53
-1.12
0.23
1.48
2.64
3.73
4.72
5.53
6.10
6.41
6.52
6.53
6.50
6.47
6.41
6.28
6.07
5.82
5.55
5.20
4.69
3.95
2.97
1.88
0.84
-0.01
-0.68
-1.29
-2.01
-2.98
-4.18
-5.42
-6.50
-7.21
-7.45
-7.24
-6.62
-5.68
-4.47
-3.08
-1.60
-0.17
1.11
2.17
3.01
3.69
4.27
4.75
5.07
5.15
4.94
4.49
3.91
3.35
2.89
2.53
2.25
1.96
1.66
1.38
1.12
0.86
0.54
0.09
-0.49
-1.16
-1.82
-2.43
-3.00
-3.61
-4.31
-5.08
-5.74
-6.06
-5.84
-5.05
-3.83
-2.48
-1.27
-0.33
0.38
1.04
1.85
2.82
3.86
4.73
5.26
5.38
5.16
4.77
4.32
3.87
3.38
2.82
2.20
1.58
1.05
0.62
0.26
-0.10
-0.52
-0.98
-1.42
-1.81
-2.16
-2.58
-3.21
-4.10
-5.18
-6.22
-6.91
-7.02
-6.45
-5.31
-3.83
-2.31
-0.96
0.17
1.11
1.98
2.83
3.66
4.37
4.87
5.15
5.21
5.15
5.03
4.88
4.66
4.37
3.95
3.47
2.97
2.52
2.16
1.87
1.63
1.36
0.99
0.49
-0.14
-0.87
-1.67
-2.54
-3.50
-4.60
-5.77
-6.92
-7.83
-8.31
-8.24
-7.62
-6.59
-5.29
-3.85
-2.32
-0.70
0.98
2.64
4.13
5.33
6.15
6.61
6.81
6.87
6.88
6.83
6.66
6.27
5.67
4.93
4.22
3.71
3.46
3.43
3.42
3.24
2.75
1.96
1.00
0.05
-0.78
-1.49
-2.18
-2.96
-3.89
-4.92
-5.92
-6.76
-7.29
-7.44
-7.15
-6.40
-5.21
-3.68
-1.98
-0.30
1.16
2.28
3.07
3.61
3.99
4.30
4.58
4.81
4.96
5.04
5.04
4.95
4.75
4.41
3.88
3.17
2.35
1.56
0.91
0.48
0.22
0.01
-0.31
-0.81
-1.49
-2.26
-3.04
-3.81
-4.61
-5.48
-6.39
-7.25
-7.84
-7.98
-7.54
-6.50
-4.98
-3.15
-1.26
0.51
2.01
3.17
4.00
4.57
4.99
5.34
5.63
5.79
5.75
5.43
4.87
4.19
3.53
2.99
2.58
2.20
1.75
1.20
0.61
0.13
-0.16
-0.28
-0.39
-0.69
-1.34
-2.40
-3.75
-5.22
-6.62
-7.79
-8.67
-9.22
-9.41
-9.18
-8.50
-7.36
-5.83
-4.05
-2.19
-0.39
1.26
2.73
3.99
4.96
5.58
5.81
5.68
5.33
4.94
4.64
4.45
4.32
4.17
3.95
3.68
3.39
3.12
2.83
2.41
1.79
0.94
-0.05
-1.03
-1.86
-2.50
-3.01
-3.56
-4.32
-5.33
-6.53
-7.68
-8.49
-8.73
-8.30
-7.29
-5.85
-4.20
-2.48
-0.79
0.82
2.29
3.59
4.65
5.45
6.01
6.36
6.52
6.49
6.24
5.76
5.09
4.31
3.56
2.97
2.62
2.48
2.45
2.37
2.12
1.66
1.00
0.26
-0.45
-1.07
-1.61
-2.15
-2.83
-3.75
-4.95
-6.30
-7.59
-8.57
-8.99
-8.75
-7.86
-6.43
-4.64
-2.66
-0.65
1.23
2.84
4.08
4.90
5.34
5.53
5.58
5.59
5.58
5.55
5.48
5.35
5.18
4.93
4.55
4.00
3.27
2.43
1.59
0.84
0.22
-0.31
-0.85
-1.47
-2.20
-2.99
-3.75
-4.39
-4.92
-5.37
-5.77
-6.13
-6.30
-6.13
-5.47
-4.30
-2.76
-1.09
0.49
1.84
2.98
3.96
4.80
5.42
5.65
5.40
4.69
3.75
2.90
2.39
2.30
2.51
2.76
2.80
2.48
1.84
1.04
0.25
-0.37
-0.80
-1.10
-1.38
-1.72
-2.15
-2.65
-3.16
-3.71
-4.31
-5.00
-5.72
-6.35
-6.64
-6.41
-5.52
-4.01
-2.00
0.30
2.73
5.11
7.31
9.18
10.57
11.38
11.58
11.28
10.65
9.88
9.10
8.36
7.65
6.97
6.33
5.79
5.41
5.21
5.14
5.10
5.02
4.84
4.57
4.19
3.66
2.82
1.53
-0.33
-2.76
-5.62
-8.66
-11.58
-14.09
-15.95
-16.98
-17.09
-16.31
-14.83
-12.93
-10.93
-9.10
-7.55
-6.28
-5.21
-4.24
-3.26
-2.25
-1.16
-0.00
1.21
2.41
3.54
4.53
5.35
5.97
6.32
6.32
5.89
5.00
3.75
2.34
0.97
-0.26
-1.36
-2.43
-3.56
-4.80
-6.10
-7.40
-8.66
-9.82
-10.78
-11.37
-11.37
-10.61
-9.07
-6.95
-4.61
-2.45
-0.76
0.38
1.08
1.55
1.98
2.45
2.92
3.30
3.54
3.62
3.63
3.66
3.74
3.84
3.86
3.69
3.30
2.75
2.17
1.67
1.30
1.01
0.65
0.11
-0.65
-1.59
-2.62
-3.61
-4.47
-5.15
-5.56
-5.64
-5.32
-4.54
-3.35
-1.84
-0.15
1.52
3.04
4.31
5.31
6.07
6.60
6.91
7.00
6.86
6.49
5.95
5.32
4.71
4.17
3.71
3.29
2.89
2.46
2.01
1.53
1.01
0.42
-0.24
-0.95
-1.69
-2.45
-3.24
-4.06
-4.90
-5.70
-6.36
-6.74
-6.73
-6.23
-5.23
-3.78
-2.01
-0.08
1.84
3.59
5.11
6.38
7.40
8.15
8.56
8.59
8.22
7.51
6.63
5.75
4.99
4.41
3.98
3.61
3.22
2.77
2.25
1.71
1.20
0.76
0.38
0.00
-0.44
-1.03
-1.85
-2.90
-4.13
-5.39
-6.50
-7.21
-7.33
-6.77
-5.61
-4.05
-2.36
-0.77
0.57
1.64
2.48
3.13
3.59
3.87
3.96
3.90
3.74
3.51
3.21
2.81
2.32
1.79
1.31
0.96
0.74
0.59
0.40
0.06
-0.43
-1.05
-1.67
-2.24
-2.76
-3.30
-3.98
-4.84
-5.83
-6.79
-7.50
-7.80
-7.57
-6.85
-5.72
-4.32
-2.77
-1.15
0.46
1.95
3.18
4.05
4.50
4.57
4.36
4.01
3.65
3.35
3.16
3.08
3.06
3.04
2.93
2.62
2.06
1.29
0.44
-0.30
-0.81
-1.09
-1.25
-1.46
-1.92
-2.71
-3.79
-5.01
-6.19
-7.10
-7.60
-7.57
-7.00
-5.91
-4.44
-2.73
-0.97
0.65
2.02
3.10
3.91
4.53
5.02
5.42
5.73
5.93
6.01
5.96
5.77
5.43
4.92
4.25
3.47
2.66
1.92
1.31
0.83
0.49
0.26
0.10
-0.05
-0.30
-0.81
-1.71
-3.00
-4.58
-6.18
-7.53
-8.39
-8.63
-8.25
-7.33
-6.01
-4.44
-2.74
-1.05
0.52
1.90
3.08
4.05
4.86
5.50
5.95
6.17
6.14
5.88
5.51
5.14
4.89
4.78
4.76
4.74
4.62
4.37
3.99
3.50
2.90
2.21
1.41
0.56
-0.29
-1.08
-1.79
-2.46
-3.18
-4.02
-4.99
-6.02
-6.98
-7.68
-7.95
-7.67
-6.78
-5.38
-3.63
-1.78
-0.08
1.31
2.31
2.92
3.25
3.43
3.58
3.82
4.13
4.43
4.58
4.45
4.07
3.54
3.08
2.84
2.83
2.97
3.05
2.94
2.60
2.08
1.45
0.78
0.08
-0.66
-1.43
-2.21
-2.96
-3.70
-4.43
-5.16
-5.81
-6.27
-6.41
-6.14
-5.44
-4.42
-3.22
-1.96
-0.74
0.44
1.60
2.72
3.74
4.55
5.05
5.16
4.91
4.37
3.69
3.01
2.43
2.00
1.75
1.65
1.61
1.55
1.37
1.00
0.43
-0.32
-1.17
-2.03
-2.81
-3.46
-3.98
-4.43
-4.90
-5.50
-6.21
-6.94
-7.48
-7.63
-7.25
-6.36
-5.13
-3.73
-2.29
-0.89
0.48
1.74
2.78
3.47
3.73
3.64
3.40
3.23
3.27
3.47
3.67
3.71
3.49
3.12
2.74
2.49
2.38
2.28
2.04
1.55
0.80
-0.09
-1.00
-1.83
-2.58
-3.29
-4.03
-4.85
-5.69
-6.46
-7.04
-7.30
-7.16
-6.61
-5.69
-4.52
-3.19
-1.82
-0.49
0.75
1.89
2.90
3.72
4.32
4.66
4.73
4.60
4.37
4.15
4.02
4.01
4.07
4.12
4.06
3.82
3.38
2.76
2.05
1.33
0.66
0.03
-0.59
-1.26
-2.03
-2.91
-3.87
-4.84
-5.73
-6.45
-6.89
-7.02
-6.83
-6.38
-5.72
-4.86
-3.80
-2.53
-1.08
0.46
1.96
3.29
4.40
5.24
5.85
6.22
6.37
6.29
6.01
5.60
5.16
4.75
4.43
4.19
4.04
3.95
3.87
3.72
3.44
2.95
2.22
1.32
0.34
-0.58
-1.36
-1.97
-2.49
-3.04
-3.74
-4.64
-5.65
-6.59
-7.26
-7.49
-7.22
-6.48
-5.37
-4.01
-2.55
-1.12
0.14
1.19
2.02
2.70
3.33
3.93
4.50
4.94
5.15
5.10
4.83
4.44
4.02
3.63
3.28
2.93
2.55
2.16
1.77
1.42
1.13
0.88
0.62
0.27
-0.21
-0.84
-1.61
-2.44
-3.32
-4.19
-5.04
-5.78
-6.29
-6.47
-6.20
-5.51
-4.47
-3.27
-2.06
-0.96
0.01
0.88
1.69
2.46
3.16
3.72
4.09
4.24
4.18
3.95
3.62
3.27
2.94
2.65
2.41
2.21
2.02
1.85
1.69
1.49
1.19
0.76
0.18
-0.49
-1.15
-1.75
-2.30
-2.91
-3.74
-4.87
-6.21
-7.52
-8.46
-8.74
-8.27
-7.15
-5.66
-4.10
-2.70
-1.54
-0.56
0.33
1.22
2.15
3.11
3.99
4.66
5.04
5.07
4.77
4.25
3.64
3.06
2.58
2.23
2.00
1.88
1.89
2.02
2.23
2.44
2.53
2.38
1.95
1.26
0.39
-0.56
-1.51
-2.45
-3.45
-4.55
-5.78
-7.06
-8.21
-8.98
-9.14
-8.59
-7.35
-5.66
-3.80
-2.03
-0.50
0.78
1.90
2.97
4.03
5.06
5.97
6.69
7.17
7.40
7.41
7.21
6.83
6.27
5.62
4.93
4.30
3.79
3.41
3.12
2.84
2.51
2.10
1.60
1.03
0.37
-0.36
-1.15
-1.95
-2.69
-3.35
-3.96
-4.61
-5.35
-6.18
-6.95
-7.44
-7.47
-6.97
-5.97
-4.62
-3.08
-1.47
0.10
1.56
2.81
3.76
4.36
4.62
4.61
4.44
4.23
4.07
4.04
4.17
4.41
4.62
4.67
4.42
3.85
3.06
2.22
1.50
1.00
0.70
0.48
0.22
-0.19
-0.75
-1.44
-2.15
-2.84
-3.47
-4.05
-4.60
-5.14
-5.64
-6.03
-6.22
-6.09
-5.61
-4.79
-3.70
-2.47
-1.20
0.02
1.18
2.25
3.22
4.03
4.58
4.81
4.73
4.41
4.00
3.61
3.32
3.10
2.87
2.57
2.18
1.74
1.32
0.96
0.64
0.30
-0.16
-0.79
-1.56
-2.37
-3.13
-3.78
-4.34
-4.86
-5.42
-6.03
-6.64
-7.13
-7.34
-7.16
-6.54
-5.55
-4.30
-3.00
-1.80
-0.82
-0.05
0.59
1.22
1.94
2.72
3.40
3.82
3.83
3.45
2.83
2.22
1.81
1.67
1.73
1.83
1.84
1.70
1.44
1.12
0.78
0.41
-0.07
-0.70
-1.50
-2.42
-3.40
-4.37
-5.25
-5.99
-6.53
-6.86
-6.97
-6.85
-6.52
-5.94
-5.12
-4.06
-2.80
-1.41
-0.03
1.24
2.32
3.17
3.83
4.35
4.73
4.98
5.08
5.03
4.87
4.70
4.56
4.51
4.51
4.47
4.31
3.95
3.39
2.68
1.90
1.16
0.51
-0.04
-0.52
-0.98
-1.47
-2.04
-2.71
-3.49
-4.37
-5.32
-6.25
-7.02
-7.48
-7.50
-7.04
-6.17
-5.02
-3.71
-2.35
-0.98
0.38
1.70
2.93
4.00
4.86
5.48
5.86
6.01
5.92
5.63
5.18
4.69
4.24
3.93
3.76
3.68
3.59
3.40
3.07
2.60
2.04
1.44
0.85
0.29
-0.27
-0.88
-1.59
-2.42
-3.38
-4.45
-5.56
-6.60
-7.39
-7.78
-7.61
-6.84
-5.56
-3.97
-2.31
-0.75
0.65
1.91
3.04
4.02
4.80
5.34
5.65
5.83
5.99
6.20
6.43
6.66
6.81
6.89
6.94
6.99
7.09
7.20
7.28
7.25
7.02
6.48
5.55
4.21
2.55
0.75
-1.00
-2.58
-4.06
-5.57
-7.17
-8.76
-10.04
-10.67
-10.36
-9.09
-7.03
-4.47
-1.69
1.18
4.07
6.93
9.63
11.95
13.64
14.52
14.58
13.93
12.79
11.39
9.91
8.49
7.20
6.06
5.07
4.20
3.44
2.76
2.14
1.57
1.01
0.46
-0.10
-0.65
-1.14
-1.55
-1.83
-1.98
-2.03
-2.03
-1.94
-1.67
-1.08
-0.01
1.53
3.39
5.29
6.92
8.06
8.66
8.77
8.54
8.09
7.51
6.86
6.20
5.57
5.02
4.53
4.08
3.59
3.05
2.46
1.87
1.30
0.73
0.10
-0.65
-1.55
-2.58
-3.66
-4.72
-5.73
-6.72
-7.74
-8.87
-10.14
-11.53
-12.98
-14.36
-15.52
-16.28
-16.48
-16.03
-14.96
-13.40
-11.61
-9.86
-8.40
-7.34
-6.68
-6.30
-6.04
-5.81
-5.54
-5.23
-4.88
-4.49
-3.98
-3.34
-2.58
-1.78
-1.07
-0.58
-0.36
-0.38
-0.58
-0.90
-1.32
-1.81
-2.31
-2.76
-3.05
-3.14
-3.11
-3.11
-3.31
-3.85
-4.70
-5.73
-6.64
-7.15
-7.00
-6.11
-4.55
-2.54
-0.41
1.58
3.27
4.64
5.79
6.84
7.86
8.81
9.61
10.13
10.29
10.04
9.41
8.42
7.13
5.55
3.75
1.72
-0.52
-2.98
-5.61
-8.34
-11.00
-13.42
-15.44
-16.97
-17.97
-18.45
-18.45
-18.02
-17.23
-16.21
-15.13
-14.19
-13.57
-13.37
-13.57
-14.05
-14.60
-14.91
-14.66
-13.59
-11.56
-8.64
-5.13
-1.47
1.86
4.49
6.24
7.19
7.53
7.54
7.41
7.23
7.03
6.81
6.62
6.55
6.65
6.93
7.25
7.45
7.37
7.00
6.41
5.74
5.10
4.47
3.78
2.92
1.86
0.65
-0.62
-1.87
-3.06
-4.21
-5.28
-6.15
-6.65
-6.60
-5.91
-4.68
-3.11
-1.51
-0.12
0.94
1.68
2.20
2.63
3.04
3.42
3.71
3.84
3.77
3.53
3.19
2.83
2.48
2.18
1.87
1.54
1.19
0.82
0.48
0.22
0.06
-0.06
-0.22
-0.56
-1.16
-2.04
-3.14
-4.35
-5.55
-6.59
-7.33
-7.65
-7.42
-6.58
-5.18
-3.40
-1.48
0.36
1.98
3.38
4.60
5.67
6.58
7.23
7.55
7.51
7.19
6.74
6.30
5.94
5.65
5.35
4.96
4.45
3.85
3.21
2.64
2.21
1.93
1.77
1.66
1.48
1.09
0.37
-0.73
-2.19
-3.86
-5.51
-6.84
-7.60
-7.64
-6.92
-5.54
-3.70
-1.67
0.32
2.10
3.59
4.77
5.67
6.32
6.72
6.86
6.73
6.38
5.91
5.44
5.08
4.91
4.90
4.95
4.92
4.67
4.16
3.43
2.57
1.73
1.00
0.42
-0.03
-0.42
-0.82
-1.32
-1.97
-2.82
-3.91
-5.22
-6.61
-7.84
-8.60
-8.61
-7.77
-6.15
-3.98
-1.59
0.72
2.77
4.49
5.91
7.08
8.03
8.76
9.22
9.38
9.25
8.85
8.27
7.60
6.98
6.50
6.19
6.05
5.99
5.88
5.62
5.11
4.34
3.40
2.43
1.58
0.95
0.51
0.10
-0.46
-1.32
-2.52
-3.96
-5.45
-6.79
-7.77
-8.25
-8.14
-7.37
-6.00
-4.14
-2.03
0.05
1.88
3.36
4.49
5.36
6.03
6.48
6.66
6.51
6.08
5.52
4.97
4.58
4.36
4.21
4.01
3.69
3.21
2.60
1.91
1.15
0.37
-0.41
-1.14
-1.79
-2.34
-2.85
-3.40
-4.08
-4.91
-5.87
-6.82
-7.60
-8.00
-7.84
-7.00
-5.49
-3.41
-1.02
1.39
3.51
5.13
6.15
6.63
6.69
6.52
6.27
6.02
5.73
5.36
4.84
4.19
3.50
2.87
2.39
2.06
1.83
1.60
1.30
0.89
0.38
-0.18
-0.75
-1.28
-1.80
-2.38
-3.11
-4.04
-5.15
-6.35
-7.44
-8.22
-8.50
-8.17
-7.22
-5.75
-3.94
-1.96
0.02
1.87
3.49
4.81
5.80
6.45
6.80
6.94
6.94
6.88
6.78
6.61
6.31
5.84
5.24
4.56
3.86
3.18
2.50
1.83
1.21
0.69
0.35
0.17
0.02
-0.31
-1.00
-2.14
-3.61
-5.19
-6.65
-7.82
-8.64
-9.11
-9.20
-8.82
-7.87
-6.37
-4.44
-2.33
-0.27
1.54
3.06
4.29
5.26
5.94
6.30
6.30
5.99
5.51
5.04
4.72
4.58
4.54
4.43
4.13
3.58
2.82
1.95
1.11
0.34
-0.35
-0.99
-1.61
-2.21
-2.77
-3.32
-3.91
-4.65
-5.60
-6.72
-7.86
-8.80
-9.30
-9.18
-8.37
-6.95
-5.06
-2.90
-0.68
1.42
3.24
4.65
5.57
6.01
6.04
5.85
5.63
5.52
5.58
5.76
5.93
5.96
5.79
5.41
4.92
4.41
3.93
3.50
3.09
2.67
2.23
1.79
1.41
1.06
0.71
0.26
-0.39
-1.27
-2.34
-3.51
-4.66
-5.68
-6.45
-6.85
-6.76
-6.08
-4.84
-3.17
-1.32
0.43
1.89
2.98
3.73
4.24
4.58
4.76
4.78
4.62
4.31
3.89
3.44
3.02
2.68
2.44
2.29
2.17
2.00
1.69
1.20
0.52
-0.27
-1.04
-1.70
-2.20
-2.59
-2.96
-3.45
-4.13
-5.02
-6.06
-7.11
-7.99
-8.51
-8.50
-7.87
-6.63
-4.88
-2.81
-0.70
1.21
2.71
3.73
4.29
4.51
4.54
4.51
4.49
4.48
4.49
4.45
4.36
4.17
3.86
3.43
2.85
2.13
1.30
0.46
-0.30
-0.88
-1.27
-1.54
-1.81
-2.21
-2.82
-3.63
-4.58
-5.58
-6.53
-7.34
-7.92
-8.12
-7.82
-6.95
-5.54
-3.72
-1.73
0.21
1.92
3.32
4.39
5.15
5.65
5.88
5.85
5.59
5.10
4.46
3.76
3.06
2.40
1.76
1.08
0.28
-0.65
-1.62
-2.47
-3.03
-3.24
-3.20
-3.11
-3.24
-3.72
-4.53
-5.49
-6.36
-6.88
-6.87
-6.20
-4.76
-2.54
0.37
3.69
7.00
9.84
11.86
12.93
13.17
12.81
12.08
11.11
9.94
8.54
6.88
5.00
2.94
0.78
-1.36
-3.34
-5.02
-6.28
-7.07
-7.46
-7.58
-7.58
-7.54
-7.51
-7.47
-7.40
-7.34
-7.38
-7.59
-8.01
-8.65
-9.44
-10.25
-10.98
-11.49
-11.66
-11.38
-10.58
-9.26
-7.53
-5.54
-3.51
-1.62
0.03
1.42
2.59
3.55
4.30
4.82
5.09
5.16
5.12
5.04
4.97
4.90
4.82
4.68
4.51
4.31
4.09
3.83
3.49
3.07
2.56
1.99
1.41
0.85
0.30
-0.27
-0.92
-1.70
-2.62
-3.59
-4.46
-5.00
-5.00
-4.34
-3.06
-1.31
0.65
2.61
4.38
5.85
6.91
7.51
7.60
7.22
6.49
5.59
4.72
4.02
3.53
3.17
2.85
2.48
2.04
1.61
1.27
1.06
0.93
0.75
0.41
-0.20
-1.06
-2.09
-3.20
-4.34
-5.53
-6.82
-8.19
-9.52
-10.56
-11.02
-10.70
-9.59
-7.89
-5.92
-4.04
-2.48
-1.33
-0.54
0.02
0.54
1.14
1.91
2.84
3.87
4.86
5.70
6.30
6.62
6.68
6.56
6.33
6.05
5.74
5.43
5.10
4.71
4.22
3.58
2.74
1.67
0.40
-0.99
-2.33
-3.39
-3.93
-3.81
-3.05
-1.84
-0.48
0.76
1.73
2.43
2.98
3.49
3.98
4.36
4.51
4.37
4.00
3.53
3.13
2.90
2.83
2.84
2.82
2.65
2.26
1.61
0.74
-0.30
-1.39
-2.43
-3.33
-4.05
-4.60
-5.04
-5.47
-5.98
-6.60
-7.30
-7.99
-8.52
-8.75
-8.57
-7.95
-6.93
-5.62
-4.14
-2.56
-0.93
0.69
2.27
3.72
4.95
5.87
6.46
6.73
6.75
6.64
6.44
6.21
5.93
5.59
5.16
4.67
4.14
3.63
3.16
2.73
2.29
1.77
1.14
0.39
-0.45
-1.35
-2.27
-3.23
-4.25
-5.29
-6.25
-6.99
-7.29
-7.04
-6.17
-4.75
-2.97
-1.08
0.67
2.12
3.18
3.90
4.39
4.74
5.00
5.15
5.16
5.00
4.74
4.45
4.23
4.13
4.11
4.09
3.95
3.64
3.15
2.54
1.93
1.45
1.15
1.02
0.95
0.81
0.45
-0.24
-1.27
-2.58
-3.99
-5.27
-6.20
-6.62
-6.42
-5.65
-4.41
-2.89
-1.28
0.20
1.37
2.14
2.52
2.62
2.61
2.67
2.85
3.14
3.39
3.47
3.30
2.91
2.41
1.92
1.53
1.28
1.14
1.03
0.87
0.59
0.18
-0.35
-0.97
-1.62
-2.31
-3.05
-3.85
-4.68
-5.48
-6.13
-6.54
-6.63
-6.41
-5.89
-5.12
-4.16
-3.06
-1.91
-0.80
0.20
1.04
1.73
2.26
2.64
2.84
2.85
2.69
2.48
2.33
2.31
2.40
2.44
2.28
1.81
1.08
0.24
-0.55
-1.17
-1.61
-1.95
-2.24
-2.52
-2.82
-3.14
-3.55
-4.10
-4.77
-5.44
-5.91
-5.95
-5.44
-4.39
-3.00
-1.55
-0.26
0.73
1.42
1.92
2.36
2.83
3.31
3.73
4.01
4.11
4.11
4.10
4.14
4.19
4.19
4.02
3.65
3.10
2.48
1.88
1.38
0.99
0.73
0.56
0.46
0.33
0.07
-0.46
-1.34
-2.54
-3.88
-5.13
-6.00
-6.31
-6.01
-5.21
-4.09
-2.86
-1.73
-0.79
-0.11
0.34
0.63
0.85
1.10
1.44
1.86
2.32
2.77
3.13
3.39
3.54
3.60
3.57
3.45
3.24
2.94
2.57
2.15
1.69
1.20
0.67
0.12
-0.44
-0.98
-1.49
-1.93
-2.32
-2.68
-3.08
-3.58
-4.21
-4.94
-5.62
-6.07
-6.08
-5.57
-4.55
-3.18
-1.72
-0.36
0.76
1.64
2.35
2.96
3.50
3.91
4.09
4.04
3.79
3.47
3.20
3.03
2.94
2.89
2.82
2.74
2.67
2.62
2.58
2.48
2.31
2.06
1.78
1.52
1.27
0.96
0.51
-0.10
-0.85
-1.65
-2.42
-3.12
-3.70
-4.16
-4.42
-4.40
-4.01
-3.23
-2.14
-0.93
0.22
1.15
1.80
2.19
2.41
2.52
2.56
2.52
2.40
2.23
2.06
1.95
1.93
1.98
2.02
1.96
1.73
1.34
0.85
0.33
-0.15
-0.57
-0.94
-1.29
-1.67
-2.12
-2.65
-3.28
-4.01
-4.82
-5.65
-6.38
-6.88
-7.01
-6.69
-5.92
-4.78
-3.41
-1.98
-0.63
0.53
1.44
2.10
2.52
2.77
2.89
2.92
2.88
2.79
2.63
2.46
2.29
2.15
2.01
1.81
1.50
1.07
0.58
0.13
-0.21
-0.43
-0.60
-0.79
-1.08
-1.50
-2.06
-2.76
-3.59
-4.53
-5.48
-6.28
-6.75
-6.76
-6.29
-5.44
-4.33
-3.10
-1.86
-0.68
0.41
1.34
2.08
2.60
2.94
3.14
3.27
3.33
3.30
3.17
2.93
2.61
2.27
1.99
1.79
1.68
1.61
1.52
1.34
1.03
0.58
0.01
-0.63
-1.29
-1.95
-2.60
-3.23
-3.86
-4.47
-5.06
-5.60
-6.00
-6.17
-5.98
-5.34
-4.28
-2.92
-1.46
-0.11
1.01
1.89
2.61
3.26
3.88
4.44
4.84
5.03
4.97
4.71
4.35
3.99
3.74
3.61
3.60
3.64
3.67
3.62
3.45
3.13
2.64
2.01
1.28
0.53
-0.13
-0.64
-1.01
-1.33
-1.72
-2.29
-3.06
-3.94
-4.83
-5.56
-6.05
-6.21
-5.99
-5.39
-4.39
-3.05
-1.48
0.16
1.70
2.96
3.82
4.26
4.30
4.09
3.75
3.43
3.21
3.10
3.08
3.10
3.12
3.12
3.06
2.90
2.60
2.14
1.56
0.93
0.35
-0.12
-0.44
-0.67
-0.90
-1.24
-1.77
-2.50
-3.40
-4.38
-5.32
-6.11
-6.62
-6.75
-6.45
-5.68
-4.51
-3.07
-1.54
-0.08
1.18
2.17
2.91
3.44
3.81
4.03
4.09
3.94
3.55
2.95
2.25
1.61
1.19
1.06
1.15
1.27
1.20
0.82
0.17
-0.57
-1.16
-1.52
-1.70
-1.90
-2.36
-3.17
-4.27
-5.44
-6.47
-7.17
-7.51
-7.52
-7.24
-6.67
-5.79
-4.58
-3.07
-1.39
0.30
1.83
3.06
3.94
4.43
4.58
4.45
4.16
3.81
3.52
3.32
3.21
3.16
3.10
3.02
2.88
2.70
2.44
2.11
1.70
1.22
0.71
0.17
-0.40
-1.00
-1.66
-2.39
-3.19
-4.08
-5.04
-6.05
-7.00
-7.72
-8.02
-7.70
-6.71
-5.14
-3.22
-1.27
0.47
1.82
2.76
3.38
3.79
4.12
4.43
4.72
4.94
5.05
5.00
4.79
4.47
4.11
3.76
3.43
3.12
2.77
2.39
1.98
1.58
1.19
0.80
0.39
-0.05
-0.52
-0.95
-1.34
-1.71
-2.17
-2.86
-3.85
-5.07
-6.30
-7.25
-7.61
-7.22
-6.08
-4.36
-2.34
-0.29
1.55
3.04
4.11
4.76
5.04
5.05
4.90
4.75
4.67
4.68
4.72
4.67
4.47
4.12
3.69
3.30
3.01
2.81
2.64
2.37
1.95
1.39
0.74
0.11
-0.46
-0.95
-1.39
-1.85
-2.39
-3.04
-3.80
-4.63
-5.42
-5.99
-6.19
-5.88
-5.01
-3.67
-2.03
-0.34
1.19
2.43
3.31
3.84
4.03
3.90
3.50
2.90
2.28
1.78
1.53
1.53
1.68
1.80
1.74
1.44
0.94
0.36
-0.15
-0.53
-0.78
-0.97
-1.17
-1.46
-1.85
-2.34
-2.90
-3.52
-4.24
-5.07
-5.99
-6.92
-7.67
-8.03
-7.80
-6.90
-5.41
-3.48
-1.35
0.79
2.82
4.66
6.25
7.57
8.57
9.24
9.62
9.72
9.54
9.03
8.15
6.92
5.50
4.17
3.19
2.73
2.77
3.11
3.48
3.67
3.59
3.28
2.83
2.31
1.74
1.07
0.25
-0.77
-1.96
-3.30
-4.69
-6.02
-7.16
-7.90
-8.11
-7.67
-6.65
-5.23
-3.67
-2.27
-1.21
-0.51
-0.05
0.40
1.02
1.85
2.80
3.71
4.38
4.72
4.72
4.49
4.10
3.62
3.06
2.41
1.70
0.99
0.33
-0.23
-0.66
-0.93
-1.01
-0.84
-0.40
0.25
1.06
1.90
2.66
3.23
3.47
3.23
2.41
0.98
-0.98
-3.20
-5.34
-7.06
-8.09
-8.31
-7.74
-6.53
-4.91
-3.14
-1.46
-0.06
0.99
1.75
2.32
2.79
3.18
3.43
3.43
3.08
2.38
1.41
0.33
-0.72
-1.63
-2.38
-2.96
-3.36
-3.59
-3.66
-3.66
-3.77
-4.23
-5.21
-6.73
-8.57
-10.36
-11.69
-12.24
-11.89
-10.76
-9.18
-7.55
-6.25
-5.53
-5.43
-5.79
-6.28
-6.51
-6.16
-5.08
-3.37
-1.34
0.57
1.95
2.55
2.38
1.67
0.77
0.07
-0.20
0.01
0.66
1.63
2.82
4.10
5.29
6.11
6.33
5.83
4.69
3.19
1.66
0.34
-0.70
-1.53
-2.26
-2.94
-3.58
-4.14
-4.62
-5.07
-5.51
-5.86
-5.94
-5.59
-4.74
-3.48
-2.01
-0.55
0.76
1.91
2.94
3.85
4.61
5.15
5.41
5.38
5.16
4.87
4.62
4.49
4.44
4.44
4.40
4.27
4.06
3.78
3.44
3.07
2.66
2.22
1.75
1.24
0.75
0.26
-0.20
-0.65
-1.16
-1.76
-2.51
-3.42
-4.41
-5.32
-5.96
-6.13
-5.75
-4.86
-3.61
-2.23
-0.92
0.16
0.95
1.47
1.81
2.08
2.40
2.83
3.36
3.89
4.28
4.42
4.32
4.04
3.69
3.40
3.22
3.16
3.20
3.31
3.43
3.48
3.40
3.12
2.67
2.10
1.51
0.92
0.33
-0.31
-1.04
-1.84
-2.66
-3.42
-4.05
-4.50
-4.73
-4.69
-4.33
-3.62
-2.61
-1.40
-0.16
0.96
1.89
2.64
3.26
3.80
4.25
4.57
4.70
4.63
4.40
4.09
3.79
3.51
3.23
2.92
2.54
2.15
1.82
1.64
1.63
1.71
1.77
1.64
1.28
0.70
0.00
-0.70
-1.35
-1.94
-2.53
-3.18
-3.85
-4.41
-4.67
-4.46
-3.76
-2.64
-1.33
-0.03
1.14
2.14
3.04
3.87
4.62
5.24
5.66
5.85
5.82
5.64
5.36
4.99
4.52
3.92
3.20
2.40
1.65
1.09
0.85
0.94
1.28
1.68
1.96
1.94
1.60
0.98
0.22
-0.55
-1.23
-1.81
-2.28
-2.65
-2.96
-3.20
-3.37
-3.37
-3.09
-2.43
-1.40
-0.17
1.01
1.92
2.45
2.66
2.70
2.70
2.71
2.68
2.53
2.25
1.88
1.55
1.35
1.28
1.29
1.28
1.17
0.96
0.69
0.45
0.32
0.32
0.43
0.55
0.53
0.28
-0.22
-0.88
-1.58
-2.20
-2.71
-3.15
-3.59
-4.02
-4.35
-4.43
-4.12
-3.38
-2.28
-0.98
0.38
1.73
3.06
4.38
5.69
6.86
7.76
8.23
8.21
7.76
7.04
6.23
5.50
4.91
4.40
3.89
3.27
2.53
1.72
0.98
0.39
0.01
-0.21
-0.40
-0.62
-0.93
-1.29
-1.64
-1.94
-2.24
-2.60
-3.15
-3.93
-4.93
-6.00
-6.94
-7.55
-7.65
-7.13
-6.01
-4.38
-2.42
-0.34
1.61
3.23
4.36
4.95
5.07
4.87
4.54
4.24
4.02
3.83
3.54
3.03
2.29
1.43
0.64
0.14
0.02
0.22
0.55
0.79
0.78
0.49
0.05
-0.38
-0.67
-0.81
-0.90
-1.09
-1.49
-2.12
-2.86
-3.50
-3.84
-3.77
-3.28
-2.45
-1.40
-0.25
0.91
2.00
2.98
3.78
4.35
4.69
4.80
4.74
4.54
4.23
3.80
3.27
2.71
2.17
1.72
1.38
1.10
0.84
0.56
0.25
-0.05
-0.33
-0.59
-0.84
-1.11
-1.40
-1.70
-1.98
-2.21
-2.40
-2.58
-2.76
-2.96
-3.16
-3.26
-3.11
-2.58
-1.61
-0.29
1.18
2.54
3.58
4.24
4.55
4.64
4.62
4.56
4.47
4.36
4.25
4.15
4.06
3.94
3.79
3.58
3.38
3.24
3.16
3.07
2.82
2.28
1.40
0.23
-1.07
-2.33
-3.42
-4.28
-4.94
-5.44
-5.86
-6.26
-6.68
-7.10
-7.48
-7.72
-7.73
-7.45
-6.89
-6.11
-5.20
-4.25
-3.35
-2.55
-1.92
-1.52
-1.38
-1.50
-1.80
-2.14
-2.37
-2.39
-2.19
-1.86
-1.52
-1.30
-1.27
-1.44
-1.73
-2.06
-2.32
-2.46
-2.40
-2.06
-1.35
-0.24
1.24
2.98
4.78
6.43
7.84
8.99
9.97
10.88
11.76
12.57
13.25
13.79
14.28
14.90
15.82
17.06
18.51
19.93
21.08
21.82
22.15
22.16
21.97
21.66
21.29
20.92
20.60
20.35
20.14
19.85
19.29
18.33
16.93
15.18
13.25
11.27
9.28
7.26
5.13
2.92
0.74
-1.28
-3.08
-4.75
-6.46
-8.37
-10.44
-12.42
-13.98
-14.83
-14.93
-14.44
-13.63
-12.70
-11.74
-10.73
-9.62
-8.42
-7.18
-5.97
-4.91
-4.19
-4.09
-4.83
-6.40
-8.44
-10.30
-11.31
-11.18
-10.11
-8.74
-7.79
-7.64
-8.25
-9.25
-10.25
-11.06
-11.73
-12.38
-13.08
-13.70
-14.02
-13.88
-13.26
-12.31
-11.23
-10.25
-9.48
-8.97
-8.62
-8.27
-7.74
-6.90
-5.72
-4.34
-2.92
-1.64
-0.57
0.32
1.12
1.91
2.71
3.51
4.23
4.79
5.07
5.00
4.50
3.58
2.29
0.77
-0.82
-2.30
-3.51
-4.32
-4.74
-4.90
-5.04
-5.44
-6.26
-7.49
-8.89
-10.12
-10.84
-10.86
-10.19
-9.03
-7.64
-6.30
-5.19
-4.42
-4.00
-3.87
-3.93
-4.13
-4.40
-4.75
-5.17
-5.63
-6.08
-6.42
-6.61
-6.63
-6.52
-6.32
-6.09
-5.86
-5.64
-5.45
-5.29
-5.18
-5.08
-5.00
-4.92
-4.85
-4.85
-4.95
-5.16
-5.45
-5.72
-5.91
-5.96
-5.84
-5.51
-4.96
-4.14
-3.08
-1.83
-0.52
0.73
1.81
2.65
3.22
3.50
3.49
3.24
2.84
2.43
2.15
2.07
2.21
2.50
2.84
3.15
3.36
3.44
3.40
3.22
2.90
2.51
2.09
1.73
1.48
1.35
1.24
1.05
0.67
0.07
-0.66
-1.39
-1.98
-2.33
-2.41
-2.28
-2.01
-1.65
-1.20
-0.64
0.06
0.92
1.87
2.83
3.68
4.32
4.69
4.81
4.74
4.54
4.25
3.89
3.42
2.85
2.22
1.60
1.08
0.72
0.51
0.41
0.31
0.12
-0.20
-0.66
-1.21
-1.80
-2.41
-3.07
-3.80
-4.60
-5.40
-6.06
-6.43
-6.43
-6.03
-5.29
-4.30
-3.16
-1.95
-0.77
0.28
1.09
1.57
1.76
1.73
1.65
1.60
1.61
1.62
1.51
1.22
0.76
0.22
-0.27
-0.61
-0.82
-0.93
-1.04
-1.22
-1.49
-1.90
-2.47
-3.23
-4.21
-5.37
-6.65
-7.89
-8.97
-9.72
-10.02
-9.74
-8.80
-7.22
-5.17
-2.91
-0.78
0.95
2.17
2.89
3.24
3.37
3.38
3.32
3.17
2.96
2.73
2.50
2.31
2.20
2.17
2.22
2.34
2.45
2.49
2.38
2.11
1.72
1.31
0.93
0.58
0.19
-0.33
-1.04
-1.89
-2.78
-3.55
-4.09
-4.29
-4.11
-3.50
-2.48
-1.12
0.43
1.96
3.29
4.29
4.93
5.28
5.42
5.46
5.46
5.46
5.49
5.59
5.75
5.97
6.20
6.38
6.44
6.33
6.00
5.50
4.87
4.21
3.63
3.15
2.77
2.43
2.05
1.62
1.13
0.59
-0.01
-0.71
-1.52
-2.40
-3.24
-3.84
-4.00
-3.64
-2.80
-1.64
-0.34
0.94
2.14
3.24
4.27
5.18
5.89
6.33
6.45
6.28
5.91
5.45
4.97
4.51
4.06
3.60
3.13
2.68
2.26
1.89
1.54
1.16
0.74
0.27
-0.20
-0.62
-0.97
-1.30
-1.72
-2.32
-3.19
-4.30
-5.53
-6.67
-7.48
-7.77
-7.44
-6.51
-5.12
-3.46
-1.75
-0.13
1.32
2.56
3.62
4.48
5.13
5.58
5.82
5.84
5.68
5.37
4.97
4.57
4.26
4.09
4.04
4.00
3.83
3.43
2.79
1.99
1.21
0.53
-0.01
-0.48
-1.02
-1.72
-2.61
-3.66
-4.78
-5.88
-6.84
-7.51
-7.73
-7.38
-6.38
-4.82
-2.88
-0.84
1.04
2.60
3.75
4.53
5.02
5.31
5.47
5.51
5.43
5.24
4.98
4.70
4.45
4.27
4.10
3.90
3.60
3.19
2.70
2.15
1.56
0.94
0.28
-0.40
-1.05
-1.62
-2.10
-2.54
-3.03
-3.68
-4.54
-5.57
-6.63
-7.53
-8.04
-8.03
-7.40
-6.21
-4.57
-2.70
-0.79
0.98
2.50
3.72
4.59
5.13
5.37
5.38
5.29
5.20
5.19
5.28
5.41
5.49
5.45
5.26
4.95
4.54
4.03
3.43
2.70
1.85
0.89
-0.16
-1.26
-2.38
-3.47
-4.47
-5.33
-6.04
-6.62
-7.16
-7.72
-8.31
-8.81
-9.02
-8.72
-7.78
-6.19
-4.14
-1.91
0.21
1.98
3.33
4.31
5.02
5.57
6.04
6.41
6.65
6.75
6.69
6.49
6.16
5.72
5.19
4.61
4.05
3.58
3.24
3.02
2.84
2.58
2.15
1.53
0.76
-0.08
-0.91
-1.70
-2.48
-3.31
-4.23
-5.22
-6.19
-6.96
-7.32
-7.11
-6.27
-4.90
-3.15
-1.26
0.57
2.21
3.61
4.77
5.65
6.21
6.39
6.16
5.58
4.78
3.94
3.22
2.71
2.42
2.29
2.20
2.04
1.74
1.27
0.63
-0.11
-0.87
-1.56
-2.15
-2.63
-3.10
-3.65
-4.39
-5.29
-6.28
-7.19
-7.84
-8.10
-7.89
-7.20
-6.05
-4.49
-2.64
-0.66
1.25
2.92
4.25
5.19
5.79
6.09
6.12
5.91
5.47
4.89
4.29
3.81
3.48
3.26
3.01
2.62
2.05
1.35
0.65
0.09
-0.27
-0.48
-0.64
-0.89
-1.34
-2.03
-3.00
-4.20
-5.57
-6.96
-8.18
-8.96
-9.09
-8.44
-7.05
-5.07
-2.79
-0.50
1.55
3.18
4.30
4.92
5.11
5.01
4.77
4.53
4.38
4.35
4.38
4.43
4.41
4.28
4.03
3.66
3.18
2.67
2.15
1.68
1.28
0.89
0.43
-0.16
-0.91
-1.82
-2.82
-3.85
-4.89
-5.95
-7.05
-8.08
-8.89
-9.22
-8.89
-7.85
-6.23
-4.29
-2.34
-0.57
0.97
2.31
3.52
4.61
5.53
6.20
6.56
6.63
6.46
6.16
5.81
5.47
5.16
4.82
4.45
4.02
3.56
3.12
2.73
2.38
2.00
1.48
0.75
-0.19
-1.27
-2.35
-3.31
-4.10
-4.79
-5.48
-6.30
-7.27
-8.28
-9.13
-9.56
-9.39
-8.53
-7.03
-5.05
-2.79
-0.47
1.73
3.64
5.14
6.14
6.62
6.64
6.35
5.90
5.43
5.02
4.67
4.35
4.04
3.75
3.50
3.29
3.11
2.89
2.58
2.14
1.62
1.09
0.58
0.12
-0.34
-0.86
-1.53
-2.38
-3.41
-4.60
-5.90
-7.19
-8.30
-9.02
-9.12
-8.49
-7.15
-5.28
-3.14
-0.99
1.01
2.76
4.24
5.42
6.28
6.76
6.87
6.67
6.25
5.73
5.21
4.75
4.36
4.05
3.83
3.67
3.52
3.30
2.95
2.44
1.79
1.07
0.33
-0.42
-1.16
-1.90
-2.63
-3.31
-3.92
-4.49
-5.04
-5.64
-6.24
-6.72
-6.89
-6.54
-5.58
-4.05
-2.12
0.00
2.07
3.90
5.35
6.33
6.82
6.84
6.46
5.78
4.90
3.91
2.95
2.14
1.61
1.39
1.44
1.61
1.70
1.58
1.19
0.59
-0.12
-0.84
-1.49
-2.06
-2.58
-3.15
-3.84
-4.74
-5.90
-7.26
-8.71
-10.03
-10.94
-11.19
-10.60
-9.14
-6.92
-4.24
-1.46
1.06
3.10
4.61
5.64
6.30
6.70
6.86
6.77
6.45
5.96
5.43
4.99
4.70
4.54
4.41
4.20
3.84
3.32
2.69
2.01
1.34
0.70
0.09
-0.50
-1.08
-1.66
-2.28
-3.00
-3.91
-5.06
-6.43
-7.89
-9.18
-9.96
-9.93
-8.92
-7.00
-4.49
-1.86
0.49
2.29
3.51
4.29
4.81
5.17
5.41
5.48
5.36
5.07
4.69
4.29
3.96
3.73
3.61
3.56
3.53
3.42
3.13
2.65
2.00
1.29
0.60
-0.02
-0.60
-1.22
-1.96
-2.82
-3.77
-4.76
-5.77
-6.80
-7.82
-8.72
-9.26
-9.19
-8.30
-6.58
-4.23
-1.64
0.78
2.75
4.18
5.17
5.89
6.45
6.89
7.12
7.08
6.76
6.24
5.66
5.13
4.67
4.21
3.69
3.09
2.48
1.95
1.55
1.27
1.03
0.71
0.27
-0.30
-0.96
-1.68
-2.44
-3.26
-4.16
-5.18
-6.31
-7.49
-8.56
-9.30
-9.50
-8.97
-7.70
-5.82
-3.57
-1.23
0.98
2.90
4.46
5.62
6.35
6.67
6.65
6.39
6.02
5.62
5.24
4.86
4.46
4.03
3.54
3.01
2.43
1.82
1.20
0.62
0.16
-0.19
-0.48
-0.83
-1.35
-2.08
-2.96
-3.89
-4.77
-5.60
-6.38
-7.08
-7.55
-7.56
-6.89
-5.45
-3.37
-0.99
1.28
3.12
4.38
5.10
5.41
5.46
5.33
5.04
4.57
3.94
3.18
2.42
1.77
1.31
1.05
0.92
0.75
0.41
-0.17
-0.95
-1.81
-2.54
-2.96
-3.00
-2.75
-2.43
-2.32
-2.67
-3.58
-4.95
-6.49
-7.84
-8.65
-8.69
-7.89
-6.30
-4.15
-1.72
0.70
2.86
4.60
5.89
6.79
7.39
7.80
8.04
8.13
8.02
7.68
7.10
6.34
5.51
4.70
3.99
3.38
2.81
2.23
1.60
0.99
0.45
0.01
-0.43
-1.02
-1.92
-3.19
-4.74
-6.38
-7.86
-8.99
-9.68
-9.85
-9.48
-8.58
-7.18
-5.41
-3.43
-1.48
0.29
1.77
2.94
3.87
4.61
5.17
5.55
5.75
5.79
5.72
5.61
5.48
5.31
5.07
4.76
4.40
4.02
3.66
3.28
2.83
2.21
1.43
0.53
-0.39
-1.25
-2.05
-2.85
-3.72
-4.72
-5.83
-6.98
-8.04
-8.82
-9.07
-8.61
-7.33
-5.31
-2.81
-0.24
2.01
3.68
4.75
5.34
5.65
5.84
5.99
6.10
6.14
6.08
5.91
5.62
5.22
4.68
4.02
3.31
2.62
2.05
1.63
1.31
1.01
0.63
0.13
-0.46
-1.11
-1.80
-2.54
-3.36
-4.28
-5.23
-6.11
-6.82
-7.28
-7.42
-7.19
-6.53
-5.42
-3.89
-2.08
-0.17
1.62
3.10
4.16
4.77
4.91
4.62
3.99
3.14
2.27
1.60
1.27
1.34
1.69
2.12
2.40
2.38
2.07
1.58
1.08
0.69
0.41
0.17
-0.11
-0.49
-0.96
-1.51
-2.23
-3.20
-4.49
-5.98
-7.36
-8.17
-8.07
-6.92
-4.94
-2.57
-0.27
1.60
2.94
3.84
4.49
5.03
5.53
5.94
6.17
6.13
5.78
5.18
4.42
3.63
2.87
2.13
1.35
0.48
-0.46
-1.37
-2.09
-2.53
-2.70
-2.73
-2.81
-3.05
-3.53
-4.21
-5.03
-5.91
-6.80
-7.64
-8.29
-8.59
-8.38
-7.59
-6.25
-4.52
-2.62
-0.74
0.96
2.41
3.59
4.54
5.27
5.84
6.25
6.48
6.52
6.35
6.01
5.58
5.11
4.69
4.31
3.97
3.62
3.25
2.84
2.37
1.82
1.21
0.56
-0.06
-0.57
-0.93
-1.19
-1.49
-1.96
-2.71
-3.71
-4.81
-5.81
-6.46
-6.62
-6.18
-5.19
-3.76
-2.09
-0.41
1.03
2.08
2.70
2.98
3.09
3.19
3.38
3.67
3.94
4.08
4.05
3.85
3.55
3.20
2.80
2.29
1.60
0.74
-0.21
-1.10
-1.81
-2.27
-2.52
-2.65
-2.71
-2.73
-2.67
-2.51
-2.30
-2.16
-2.23
-2.57
-3.07
-3.51
-3.63
-3.24
-2.34
-1.13
0.14
1.23
2.05
2.66
3.21
3.79
4.40
4.95
5.31
5.41
5.32
5.15
5.04
5.04
5.11
5.13
4.91
4.34
3.36
2.07
0.61
-0.85
-2.17
-3.29
-4.24
-5.05
-5.76
-6.34
-6.75
-6.98
-7.08
-7.15
-7.31
-7.56
-7.76
-7.69
-7.10
-5.90
-4.20
-2.26
-0.41
1.11
2.23
3.00
3.53
3.89
4.11
4.16
4.04
3.78
3.45
3.13
2.85
2.58
2.29
1.96
1.59
1.22
0.88
0.59
0.36
0.16
-0.02
-0.22
-0.49
-0.85
-1.37
-2.08
-2.98
-4.04
-5.12
-6.06
-6.65
-6.75
-6.33
-5.44
-4.25
-2.94
-1.64
-0.42
0.73
1.80
2.77
3.57
4.13
4.39
4.34
4.05
3.58
3.04
2.52
2.08
1.78
1.64
1.65
1.73
1.80
1.74
1.48
1.00
0.38
-0.27
-0.85
-1.36
-1.86
-2.47
-3.30
-4.32
-5.38
-6.28
-6.80
-6.81
-6.32
-5.38
-4.10
-2.62
-1.10
0.30
1.43
2.20
2.64
2.88
3.07
3.34
3.67
3.99
4.16
4.12
3.89
3.59
3.31
3.11
2.94
2.73
2.41
1.97
1.43
0.86
0.32
-0.17
-0.66
-1.24
-1.99
-2.93
-4.04
-5.20
-6.27
-7.12
-7.65
-7.82
-7.63
-7.10
-6.27
-5.18
-3.93
-2.63
-1.40
-0.36
0.46
1.10
1.61
2.07
2.52
2.94
3.30
3.54
3.63
3.57
3.41
3.20
2.98
2.76
2.54
2.30
2.04
1.77
1.50
1.23
0.92
0.52
0.00
-0.65
-1.39
-2.17
-2.92
-3.60
-4.17
-4.62
-4.87
-4.83
-4.44
-3.66
-2.58
-1.33
-0.13
0.87
1.62
2.18
2.67
3.16
3.67
4.10
4.34
4.32
4.05
3.62
3.10
2.54
1.94
1.29
0.60
-0.03
-0.52
-0.79
-0.87
-0.86
-0.89
-1.08
-1.48
-2.07
-2.82
-3.70
-4.68
-5.69
-6.63
-7.33
-7.61
-7.33
-6.47
-5.13
-3.52
-1.88
-0.44
0.70
1.56
2.22
2.81
3.39
3.91
4.27
4.39
4.26
3.97
3.66
3.43
3.29
3.17
3.00
2.74
2.44
2.14
1.86
1.57
1.19
0.70
0.12
-0.49
-1.10
-1.76
-2.54
-3.46
-4.46
-5.31
-5.76
-5.61
-4.81
-3.50
-1.93
-0.35
1.01
2.08
2.86
3.43
3.90
4.31
4.64
4.83
4.80
4.52
4.07
3.59
3.23
3.07
3.09
3.17
3.13
2.88
2.44
1.90
1.38
0.94
0.58
0.21
-0.24
-0.85
-1.61
-2.49
-3.44
-4.40
-5.29
-6.05
-6.59
-6.83
-6.68
-6.09
-5.06
-3.66
-2.06
-0.48
0.90
1.96
2.74
3.36
3.95
4.60
5.24
5.76
6.06
6.12
5.99
5.78
5.55
5.29
4.96
4.53
4.03
3.54
3.15
2.89
2.71
2.54
2.31
1.97
1.53
0.97
0.30
-0.47
-1.36
-2.30
-3.24
-4.12
-4.86
-5.36
-5.54
-5.34
-4.71
-3.74
-2.53
-1.25
-0.05
1.01
1.90
2.68
3.37
3.96
4.40
4.61
4.57
4.27
3.78
3.17
2.54
1.90
1.29
0.74
0.27
-0.09
-0.36
-0.57
-0.78
-1.01
-1.26
-1.50
-1.72
-1.95
-2.25
-2.65
-3.14
-3.69
-4.24
-4.76
-5.23
-5.58
-5.73
-5.59
-5.10
-4.29
-3.29
-2.21
-1.15
-0.15
0.76
1.56
2.19
2.61
2.81
2.81
2.70
2.52
2.27
1.93
1.50
1.06
0.73
0.61
0.72
0.94
1.07
0.92
0.45
-0.30
-1.16
-1.97
-2.65
-3.19
-3.65
-4.10
-4.53
-4.91
-5.21
-5.39
-5.47
-5.44
-5.26
-4.85
-4.13
-3.09
-1.80
-0.43
0.86
1.93
2.70
3.17
3.38
3.39
3.26
3.08
2.93
2.87
2.92
3.01
3.06
3.01
2.83
2.56
2.25
1.94
1.63
1.29
0.88
0.38
-0.22
-0.89
-1.60
-2.29
-2.94
-3.53
-4.05
-4.52
-4.93
-5.20
-5.25
-4.98
-4.31
-3.27
-1.98
-0.60
0.72
1.87
2.82
3.56
4.11
4.45
4.55
4.42
4.11
3.72
3.39
3.22
3.21
3.31
3.38
3.31
3.02
2.52
1.88
1.20
0.57
0.04
-0.39
-0.76
-1.11
-1.50
-1.96
-2.49
-3.08
-3.68
-4.27
-4.80
-5.26
-5.66
-5.99
-6.24
-6.35
-6.26
-5.85
-5.07
-3.92
-2.51
-1.01
0.35
1.44
2.21
2.70
3.04
3.34
3.67
4.02
4.37
4.68
4.92
5.07
5.10
4.98
4.69
4.26
3.76
3.24
2.75
2.26
1.73
1.11
0.38
-0.38
-1.10
-1.67
-2.06
-2.29
-2.45
-2.65
-2.95
-3.37
-3.89
-4.44
-4.95
-5.30
-5.40
-5.16
-4.53
-3.51
-2.19
-0.76
0.56
1.60
2.25
2.54
2.59
2.53
2.49
2.52
2.61
2.68
2.66
2.53
2.31
2.06
1.82
1.61
1.40
1.17
0.89
0.61
0.34
0.10
-0.18
-0.61
-1.25
-2.09
-2.99
-3.78
-4.34
-4.69
-4.96
-5.32
-5.81
-6.30
-6.53
-6.21
-5.25
-3.77
-2.06
-0.39
1.08
2.33
3.40
4.28
4.91
5.18
5.08
4.71
4.25
3.87
3.60
3.36
3.07
2.68
2.24
1.87
1.61
1.43
1.24
0.92
0.48
-0.05
-0.57
-1.01
-1.36
-1.63
-1.90
-2.20
-2.59
-3.07
-3.66
-4.35
