1553089387.00
64.000000
-0.00
-0.00
-0.00
-0.00
-0.00
-0.00
-0.00
-0.00
-0.00
-0.00
0.00
0.01
0.01
-0.00
-0.03
-0.05
-0.05
0.00
0.13
0.36
0.66
1.01
1.37
1.72
2.06
2.40
2.79
3.24
3.80
4.42
5.06
5.66
6.20
6.68
7.15
7.68
8.31
9.14
10.09
11.04
11.88
12.56
13.14
13.76
14.65
15.96
17.91
20.32
22.90
25.38
27.58
29.57
31.68
34.32
37.81
42.54
48.15
54.10
59.83
64.97
69.58
74.14
79.34
85.71
93.76
103.00
112.62
121.73
129.77
136.75
143.30
150.75
157.77
166.64
177.95
191.79
206.97
220.57
228.25
225.36
208.53
176.87
132.76
80.05
23.07
-34.94
-92.44
-149.16
-205.23
-260.37
-313.74
-363.87
-409.83
-450.91
-486.50
-515.74
-537.23
-549.22
-549.96
-538.37
-514.21
-478.67
-433.88
-382.45
-327.02
-269.84
-212.63
-156.66
-102.95
-52.37
-5.90
35.58
71.43
101.35
125.50
144.38
158.69
169.15
176.37
180.75
182.57
182.07
179.51
175.23
169.65
163.18
156.15
148.81
141.30
133.69
126.02
118.33
110.69
103.16
95.80
88.68
81.83
75.25
68.95
62.95
57.25
51.86
46.79
42.03
37.58
33.45
29.61
26.07
22.82
19.85
17.16
14.70
12.48
10.45
8.64
7.06
5.72
4.63
3.76
3.05
2.45
1.89
1.36
0.87
0.44
0.13
-0.05
-0.11
-0.12
-0.17
-0.32
-0.59
-0.92
-1.22
-1.37
-1.31
-1.08
-0.82
-0.71
-0.92
-1.49
-2.27
-3.00
-3.39
-3.28
-2.76
-2.15
-1.88
-2.31
-3.50
-5.15
-6.71
-7.58
-7.49
-6.59
-5.49
-4.96
-5.61
-7.51
-10.15
-12.59
-13.94
-13.83
-12.51
-10.83
-9.75
-9.93
-11.57
-14.44
-18.18
-22.19
-25.42
-26.26
-22.89
-14.20
-0.81
14.60
28.05
35.93
36.70
31.59
23.95
17.50
14.66
15.67
19.11
23.21
26.85
29.98
33.08
36.33
39.21
40.68
39.82
36.33
30.94
24.88
19.29
14.79
10.95
6.98
2.19
-3.60
-9.85
-15.59
-19.83
-21.99
-22.12
-20.80
-18.98
-17.66
-17.54
-18.63
-20.03
-20.17
-17.43
-11.08
-1.87
7.92
15.29
17.69
14.11
5.39
-6.41
-19.08
-31.18
-42.25
-52.15
-60.28
-65.16
-64.60
-56.63
-40.70
-18.33
6.95
30.69
48.93
59.16
60.90
55.54
45.61
33.70
21.67
10.11
-1.30
-12.87
-24.46
-34.85
-42.02
-43.80
-38.94
-27.71
-12.06
5.28
22.10
37.08
50.01
61.18
70.53
77.15
79.36
75.62
63.07
42.01
14.92
-14.10
-40.50
-60.28
-70.84
-71.34
-62.67
-47.06
-27.09
-5.63
14.80
32.36
45.96
55.12
59.64
59.44
54.51
45.35
32.79
18.12
3.02
-10.67
-21.35
-27.99
-30.17
-28.09
-22.26
-13.68
-3.83
5.31
11.54
12.93
8.64
-0.68
-12.87
-24.90
-34.12
-39.11
-40.02
-38.13
-35.10
-32.12
-29.62
-27.37
-25.00
-22.31
-19.51
-16.94
-14.83
-13.13
-11.57
-9.94
-8.21
-6.64
-5.52
-4.95
-4.68
-4.23
-3.16
-1.40
0.58
1.99
2.08
0.51
-2.47
-6.05
-9.15
-10.69
-9.92
-6.70
-1.55
4.40
9.71
13.14
14.15
13.16
11.33
10.07
10.33
12.20
14.90
17.22
18.12
17.18
14.75
11.67
8.87
7.01
6.33
6.73
8.04
10.13
12.90
16.11
19.15
21.14
21.18
18.77
14.12
8.14
2.15
-2.77
-6.12
-8.14
-9.51
-10.86
-12.47
-14.19
-15.59
-16.30
-16.13
-15.08
-13.28
-10.92
-8.33
-6.04
-4.68
-4.68
-5.90
-7.51
-8.24
-6.96
-3.32
2.03
7.76
12.46
15.37
16.56
16.64
16.41
16.35
16.57
17.07
17.96
19.60
22.39
26.42
31.25
35.89
39.12
40.03
38.38
34.80
30.52
26.92
24.92
24.60
25.28
25.83
25.22
22.91
19.10
14.52
10.23
7.26
6.35
7.83
11.48
16.53
21.69
25.40
26.31
23.85
18.67
12.55
7.81
6.27
8.40
13.07
18.13
21.41
21.76
19.40
15.48
11.28
7.53
4.36
1.67
-0.29
-0.84
0.72
4.45
9.32
13.46
14.91
12.57
6.80
-0.86
-8.39
-14.29
-18.22
-20.98
-23.95
-28.37
-34.77
-42.79
-51.40
-59.31
-65.38
-68.92
-69.82
-68.54
-66.13
-63.94
-63.36
-65.16
-69.10
-73.76
-76.97
-76.84
-72.71
-65.65
-58.12
-52.89
-51.80
-54.98
-60.88
-67.08
-71.38
-72.57
-70.60
-66.16
-59.98
-52.48
-43.73
-33.89
-23.61
-14.12
-6.88
-2.95
-2.40
-4.15
-6.35
-7.24
-5.89
-2.60
1.38
4.52
5.74
4.93
2.94
1.20
1.19
3.84
9.27
16.66
24.56
31.30
35.67
37.26
36.71
35.34
34.62
35.45
37.84
40.89
43.23
43.70
41.82
38.04
33.48
29.38
26.60
25.33
25.20
25.69
26.51
27.69
29.33
31.22
32.65
32.60
30.28
25.66
19.62
13.65
9.12
6.63
5.68
5.05
3.37
-0.18
-5.52
-11.79
-17.70
-22.07
-24.13
-23.72
-21.29
-17.71
-14.16
-11.69
-10.99
-12.03
-14.06
-15.84
-16.20
-14.52
-11.06
-6.87
-3.28
-1.27
-1.09
-2.21
-3.61
-4.37
-4.00
-2.57
-0.47
1.98
4.76
8.00
11.69
15.37
18.15
19.12
17.86
14.78
11.01
7.85
6.12
5.77
6.02
5.83
4.45
1.67
-2.24
-6.82
-11.60
-16.17
-20.02
-22.49
-22.96
-21.08
-17.06
-11.73
-6.30
-1.88
0.99
2.61
3.87
5.75
8.78
12.73
16.76
19.91
21.59
21.94
21.69
21.81
22.99
25.41
28.76
32.57
36.60
41.03
46.19
52.41
59.71
67.76
75.54
81.87
85.87
87.56
87.72
87.43
87.79
89.57
93.17
98.20
103.73
108.71
112.48
115.02
116.57
117.85
119.75
123.25
127.94
132.46
135.10
134.65
130.71
122.57
110.58
96.66
85.22
79.29
80.30
87.40
98.00
108.20
111.54
103.44
83.45
57.50
30.07
4.04
-19.87
-41.31
-60.16
-79.90
-102.69
-127.73
-147.89
-161.22
-169.07
-175.36
-182.93
-193.32
-211.49
-239.75
-275.86
-308.81
-334.07
-351.48
-364.63
-376.27
-356.99
-289.36
-177.96
-78.72
-3.61
47.72
87.86
118.68
140.16
152.16
150.64
134.31
106.45
79.07
57.36
41.53
27.23
10.38
-12.49
-47.09
-95.82
-155.35
-212.75
-257.26
-279.93
-275.96
-244.53
-190.70
-127.23
-68.17
-23.12
8.35
30.09
47.59
63.87
78.21
85.84
79.25
53.14
7.33
-51.84
-116.31
-177.75
-228.60
-262.33
-274.32
-263.56
-233.10
-189.75
-141.83
-97.85
-63.97
-42.74
-33.15
-32.08
-35.45
-39.04
-38.73
-30.94
-13.40
13.98
48.71
86.12
120.46
146.52
160.99
163.44
156.38
144.58
133.61
127.90
128.92
134.61
140.41
141.73
136.65
127.40
119.43
118.60
127.76
144.90
163.78
176.96
179.52
171.30
156.56
141.17
129.21
120.88
113.03
101.70
84.89
63.90
42.51
24.57
12.02
4.21
-0.94
-5.22
-9.03
-11.61
-12.23
-11.23
-10.01
-10.10
-12.07
-15.18
-18.18
-20.51
-23.03
-27.62
-35.91
-47.93
-61.47
-72.78
-78.33
-76.70
-69.61
-61.44
-57.27
-60.43
-70.93
-85.40
-98.80
-106.86
-107.94
-103.55
-97.32
-93.11
-93.41
-98.54
-106.99
-116.25
-123.81
-127.78
-127.27
-122.56
-115.01
-106.69
-99.52
-94.57
-91.56
-89.28
-86.34
-82.13
-77.26
-73.21
-71.50
-72.74
-76.16
-79.85
-81.44
-78.79
-70.44
-55.56
-34.15
-7.21
22.93
52.69
78.01
95.48
103.52
102.76
95.54
84.87
73.56
63.88
57.66
56.25
60.12
68.07
76.96
82.60
81.54
73.00
59.57
46.10
37.36
35.91
41.19
50.35
60.08
68.15
73.89
77.57
79.47
79.36
76.71
71.33
63.80
55.60
48.61
44.55
44.34
47.79
53.51
59.34
63.04
63.16
59.80
54.59
50.14
48.89
52.05
59.24
68.70
78.18
85.77
90.39
91.79
90.26
86.50
81.62
77.14
74.82
75.99
80.79
87.73
93.97
96.34
92.70
82.87
68.65
53.07
39.08
28.56
21.98
18.77
17.98
18.90
21.17
24.60
28.82
32.98
35.74
35.51
30.93
21.44
7.61
-8.75
-25.03
-38.58
-47.48
-50.88
-49.03
-42.89
-33.67
-22.66
-11.25
-1.06
6.26
9.53
8.76
5.49
2.70
3.86
11.69
27.14
48.93
73.98
98.49
119.14
133.87
142.05
144.11
140.89
133.44
123.08
111.67
101.63
95.34
94.10
97.29
102.19
104.82
101.59
90.76
73.06
51.17
28.41
7.46
-10.31
-24.60
-35.58
-43.38
-48.17
-50.57
-52.11
-55.10
-62.02
-74.38
-91.84
-111.77
-129.78
-141.16
-142.75
-134.53
-120.09
-105.48
-96.91
-98.13
-108.87
-125.17
-141.32
-152.40
-156.14
-153.22
-146.02
-136.89
-126.98
-116.13
-103.76
-89.85
-75.51
-62.58
-52.78
-46.86
-44.26
-43.53
-43.13
-42.24
-41.02
-40.21
-40.29
-41.00
-41.14
-39.29
-34.64
-27.65
-20.02
-13.92
-10.95
-11.24
-13.38
-15.01
-14.03
-9.57
-2.43
5.29
11.23
13.88
13.27
10.80
8.51
7.97
9.56
12.44
15.16
16.51
16.06
14.29
12.14
10.43
9.46
8.92
8.10
6.24
2.78
-2.51
-9.59
-18.27
-28.24
-39.01
-49.81
-59.57
-67.15
-71.74
-73.33
-72.95
-72.37
-73.46
-77.32
-83.69
-90.96
-96.72
-98.85
-96.45
-90.34
-82.90
-77.14
-75.39
-78.08
-83.31
-87.25
-85.57
-75.05
-54.69
-25.58
10.15
50.62
94.65
141.16
187.86
230.46
262.99
279.54
276.42
253.63
214.95
166.56
115.12
66.35
24.49
-7.36
-26.78
-32.33
-24.54
-7.07
12.97
26.53
25.75
7.35
-25.29
-62.94
-94.18
-110.14
-107.98
-91.39
-67.96
-45.21
-27.29
-14.15
-3.00
9.18
23.73
39.86
55.56
68.90
78.97
85.92
90.63
94.04
96.79
99.08
100.60
100.72
98.61
93.47
84.72
72.07
55.68
36.17
14.68
-7.00
-26.59
-41.60
-50.02
-51.09
-45.80
-36.87
-28.12
-23.28
-24.76
-32.75
-45.05
-57.69
-66.11
-66.65
-57.76
-40.63
-18.82
2.91
20.28
30.85
34.65
33.86
31.56
30.48
32.16
36.85
43.98
52.82
62.78
73.42
84.07
93.67
100.88
104.50
103.93
99.32
91.38
80.90
68.46
54.35
38.99
23.44
9.39
-1.27
-7.45
-9.67
-10.15
-11.91
-17.31
-26.77
-38.36
-48.64
-54.20
-53.00
-45.09
-32.23
-16.96
-1.66
12.04
23.37
32.10
38.28
42.05
43.66
43.52
42.30
40.80
39.81
39.81
40.69
41.80
42.16
41.04
38.35
34.83
31.63
29.67
29.06
28.75
26.86
21.45
11.29
-3.60
-21.80
-40.91
-58.13
-70.96
-77.73
-77.90
-72.17
-62.36
-51.15
-41.62
-36.52
-37.48
-44.39
-55.21
-66.55
-74.90
-78.04
-76.01
-71.01
-66.26
-64.39
-66.12
-70.11
-73.77
-74.81
-72.32
-67.00
-60.48
-54.24
-48.97
-44.61
-40.85
-37.67
-35.44
-34.48
-34.65
-35.23
-35.28
-34.29
-32.56
-31.10
-30.98
-32.70
-35.78
-38.89
-40.33
-38.75
-33.56
-25.19
-15.01
-5.00
2.72
6.63
6.33
2.73
-2.19
-6.21
-7.63
-5.98
-2.00
2.74
6.66
8.88
9.41
9.01
8.59
8.77
9.58
10.72
11.84
12.90
14.18
16.01
18.51
21.43
24.27
26.52
27.94
28.52
28.36
27.42
25.40
21.95
16.95
10.88
4.90
0.65
-0.26
3.07
10.27
19.52
27.96
32.61
31.42
24.24
12.81
0.14
-10.66
-17.47
-19.67
-18.01
-13.91
-8.84
-3.82
0.55
4.04
6.61
8.26
9.04
9.01
8.27
6.90
5.10
3.17
1.51
0.57
0.59
1.45
2.73
3.85
4.28
3.72
2.04
-0.78
-4.68
-9.41
-14.41
-18.70
-21.16
-20.90
-17.83
-12.89
-7.89
-4.80
-4.85
-7.76
-11.70
-14.01
-12.36
-5.90
4.34
15.93
26.15
33.17
36.70
37.77
38.03
38.85
40.87
44.00
47.78
51.81
55.86
59.79
63.34
66.13
67.80
68.20
67.45
65.87
63.65
60.70
56.55
50.66
42.77
33.25
23.19
14.21
7.99
5.68
7.38
12.02
17.55
21.55
21.98
17.91
9.93
-0.12
-9.76
-16.76
-19.88
-19.21
-15.97
-11.97
-8.89
-7.75
-8.74
-11.26
-14.40
-17.25
-19.30
-20.51
-21.21
-21.79
-22.42
-22.96
-22.92
-21.83
-19.53
-16.32
-12.97
-10.40
-9.41
-10.41
-13.35
-17.80
-23.07
-28.31
-32.63
-35.29
-35.84
-34.43
-31.88
-29.70
-29.70
-33.35
-41.10
-51.93
-63.43
-72.62
-77.11
-76.19
-71.31
-65.43
-61.65
-61.73
-65.21
-69.82
-72.85
-72.69
-69.58
-65.31
-61.87
-60.26
-59.85
-59.00
-56.14
-50.86
-44.15
-37.79
-33.38
-31.56
-31.92
-33.52
-35.53
-37.42
-38.87
-39.28
-37.62
-32.71
-23.85
-11.50
2.58
15.79
25.61
30.61
31.06
28.82
26.58
26.76
30.62
37.76
46.42
54.26
59.31
60.70
58.88
55.21
51.27
48.09
45.93
44.34
42.78
41.05
39.50
38.78
39.35
41.03
42.91
43.69
42.30
38.46
32.77
26.40
20.44
15.35
11.01
6.99
3.25
0.36
-0.73
0.57
3.81
7.21
8.40
5.58
-1.45
-10.99
-20.22
-26.49
-28.49
-26.67
-22.70
-18.46
-15.11
-12.76
-10.75
-8.39
-5.43
-2.27
0.32
1.72
1.83
1.17
0.57
0.81
2.31
5.04
8.64
12.57
16.35
19.44
21.27
21.24
18.94
14.37
8.15
1.55
-3.84
-6.53
-5.68
-1.45
4.91
11.37
15.67
16.14
12.43
5.63
-2.05
-8.12
-10.73
-9.28
-4.47
2.10
8.68
14.02
17.61
19.69
20.86
21.75
22.77
24.05
25.56
27.20
28.86
30.45
32.01
33.73
36.01
39.34
44.15
50.46
57.63
64.41
69.15
70.53
68.06
62.44
55.50
49.63
46.97
48.62
54.24
62.06
69.44
73.69
72.96
66.77
56.18
43.33
30.83
20.96
15.19
13.94
16.59
21.78
27.80
33.04
36.41
37.48
36.52
34.23
31.40
28.59
25.94
23.27
20.30
16.89
13.16
9.40
5.87
2.60
-0.66
-4.30
-8.68
-14.01
-20.36
-27.76
-36.22
-45.74
-56.04
-66.44
-75.82
-83.00
-87.31
-88.95
-89.20
-89.98
-93.20
-99.91
-109.70
-120.62
-129.78
-134.33
-132.69
-125.32
-114.75
-104.68
-98.50
-98.01
-102.76
-110.53
-118.44
-124.19
-126.73
-126.10
-122.80
-117.18
-109.31
-99.22
-87.39
-74.86
-62.96
-52.84
-44.94
-38.91
-33.90
-29.08
-24.15
-19.49
-15.94
-14.29
-14.63
-16.00
-16.55
-14.21
-7.67
2.82
15.29
26.69
34.10
35.99
32.89
27.08
21.57
18.83
19.98
24.53
30.95
37.52
43.05
47.28
50.75
54.22
58.08
62.05
65.26
66.75
66.04
63.42
59.94
56.86
55.12
54.93
55.77
56.76
56.98
55.81
52.80
47.73
40.53
31.45
21.27
11.25
2.99
-2.17
-3.47
-1.17
3.48
8.53
11.86
11.82
7.83
0.62
-7.89
-15.29
-19.59
-19.98
-17.12
-12.71
-8.65
-6.13
-5.30
-5.48
-5.75
-5.58
-5.00
-4.38
-4.09
-4.15
-4.35
-4.45
-4.35
-4.13
-3.84
-3.39
-2.58
-1.28
0.38
1.90
2.59
1.93
-0.19
-3.37
-6.79
-9.48
-10.56
-9.43
-5.95
-0.45
6.24
12.96
18.49
21.96
23.22
22.94
22.46
23.28
26.43
32.10
39.55
47.48
54.55
59.95
63.57
65.88
67.50
68.76
69.61
69.84
69.48
69.02
69.38
71.41
75.41
80.85
86.62
91.49
94.76
96.45
97.09
97.12
96.47
94.37
89.73
81.76
70.52
57.08
43.27
31.12
22.27
17.49
16.39
17.56
18.88
18.02
13.10
3.29
-10.88
-27.47
-43.74
-56.97
-65.37
-68.77
-68.59
-67.25
-67.19
-69.87
-75.31
-82.23
-88.80
-93.46
-95.68
-95.95
-95.36
-94.81
-94.60
-94.46
-93.97
-93.13
-92.46
-92.75
-94.30
-96.62
-98.38
-98.22
-95.48
-90.72
-85.54
-81.76
-80.44
-81.29
-82.77
-82.77
-79.57
-72.57
-62.51
-51.23
-40.92
-33.24
-28.69
-26.35
-24.30
-20.47
-13.53
-3.46
8.46
20.23
29.98
36.64
40.12
41.10
40.59
39.46
38.26
37.24
36.49
36.03
35.89
36.06
36.40
36.73
36.79
36.39
35.51
34.31
33.08
32.01
31.04
29.73
27.37
23.31
17.28
9.69
1.64
-5.31
-9.53
-9.83
-5.98
1.10
9.38
16.31
19.59
18.18
12.64
4.95
-2.39
-7.36
-9.11
-7.97
-4.96
-1.05
3.18
7.60
12.08
16.27
19.52
21.20
21.03
19.33
16.89
14.64
13.28
13.06
13.82
15.17
16.74
18.34
19.97
21.63
23.18
24.13
23.78
21.49
17.01
10.77
3.76
-2.60
-6.93
-8.29
-6.41
-1.94
3.72
8.64
10.97
9.58
4.60
-2.44
-9.15
-13.18
-13.10
-8.89
-1.78
6.50
14.38
21.00
26.07
29.64
31.75
32.42
31.84
30.57
29.56
29.83
31.99
35.95
40.94
45.90
49.97
52.86
54.89
56.73
58.97
61.60
63.94
64.82
63.04
58.01
50.13
40.84
32.16
26.00
23.48
24.52
27.83
31.25
32.46
29.71
22.50
11.86
0.11
-9.81
-15.47
-15.88
-12.00
-6.45
-2.60
-3.30
-9.89
-21.86
-37.34
-53.96
-69.78
-83.74
-95.59
-105.43
-113.29
-118.86
-121.72
-121.62
-118.85
-114.24
-108.98
-104.20
-100.62
-98.35
-96.86
-95.19
-92.05
-86.02
-75.72
-60.08
-38.79
-12.76
15.58
42.44
63.35
74.45
73.71
61.96
42.84
21.84
4.53
-5.26
-6.55
-1.30
6.71
13.49
16.42
15.12
11.31
7.98
8.08
13.38
23.64
36.50
48.08
54.35
52.88
44.05
31.15
19.07
12.05
11.97
17.78
26.59
35.30
42.02
46.13
47.49
45.60
39.28
27.49
10.49
-9.50
-28.73
-43.21
-50.31
-49.66
-43.29
-34.94
-28.83
-28.46
-35.49
-49.05
-65.84
-80.87
-88.62
-84.39
-65.59
-32.56
11.54
61.96
114.26
165.94
216.77
267.56
317.89
364.75
402.74
426.26
432.11
421.19
397.55
365.87
329.16
288.57
245.72
205.21
174.95
163.18
173.60
201.80
235.99
261.78
268.48
253.60
222.84
186.03
151.76
123.81
101.15
80.58
59.97
39.85
22.58
10.29
2.96
-1.86
-8.05
-18.98
-35.98
-57.59
-80.40
-100.64
-115.75
-125.69
-132.89
-141.22
-154.31
-174.15
-200.31
-230.13
-259.68
-285.00
-303.64
-315.53
-323.22
-331.20
-344.68
-367.92
-402.80
-447.72
-497.52
-544.47
-580.26
-598.30
-595.93
-575.46
-543.82
-510.28
-483.24
-467.22
-461.51
-460.95
-458.70
-449.41
-431.08
-405.13
-374.76
-342.95
-311.26
-280.06
-249.43
-220.19
-194.07
-172.68
-156.40
-143.78
-132.04
-118.32
-101.05
-80.63
-59.11
-39.16
-22.64
-9.86
0.55
10.83
23.11
38.41
56.33
75.36
93.73
110.26
124.91
138.80
153.77
171.67
193.50
218.93
245.98
271.41
291.50
303.17
304.97
297.69
284.23
268.64
254.81
245.22
240.42
239.24
239.59
239.42
237.35
232.81
225.73
216.30
204.78
191.59
177.53
163.86
151.96
142.92
137.06
133.78
131.82
129.72
126.34
121.18
114.43
106.81
99.19
92.34
86.76
82.56
79.53
77.23
75.14
72.81
69.96
66.54
62.78
59.07
55.94
53.80
52.83
52.84
53.28
53.45
52.78
51.12
48.76
46.27
44.15
42.54
41.15
39.42
36.92
33.54
29.64
25.80
22.64
20.47
19.27
18.71
18.44
18.29
18.33
18.80
19.84
21.23
22.41
22.56
20.97
17.35
11.97
5.62
-0.65
-5.76
-8.84
-9.34
-7.27
-3.22
1.63
5.87
8.33
8.59
7.19
5.37
4.57
5.71
8.91
13.50
18.43
22.77
26.05
28.27
29.78
31.04
32.40
34.06
36.10
38.50
41.21
44.09
46.96
49.53
51.47
52.49
52.43
51.40
49.81
48.26
47.35
47.37
48.17
48.98
48.68
46.18
40.83
32.79
22.93
12.62
3.09
-4.89
-11.34
-16.89
-22.53
-29.12
-37.12
-46.37
-56.06
-64.99
-71.83
-75.64
-76.28
-74.49
-71.62
-68.99
-67.35
-66.73
-66.72
-67.05
-67.86
-69.69
-73.07
-78.29
-85.23
-93.70
-103.53
-114.54
-126.15
-137.08
-145.52
-149.71
-148.73
-142.89
-133.51
-122.29
-110.62
-99.33
-88.89
-79.75
-72.39
-67.09
-63.55
-60.73
-57.10
-51.33
-42.96
-32.79
-22.75
-15.28
-12.41
-14.80
-21.18
-28.58
-33.33
-32.66
-26.00
-15.49
-5.20
0.57
-0.84
-9.39
-22.55
-36.64
-48.51
-56.70
-61.53
-64.34
-66.41
-68.17
-69.13
-68.30
-64.66
-57.62
-47.15
-33.78
-18.38
-2.05
14.05
28.82
41.27
50.42
55.31
54.98
48.75
36.52
18.83
-3.55
-30.21
-61.44
-97.82
-139.01
-182.51
-223.35
-255.11
-272.17
-271.81
-255.15
-226.39
-190.71
-152.17
-112.51
-71.61
-28.97
14.89
57.92
97.36
131.20
159.17
182.65
203.56
222.78
239.30
250.48
253.68
247.93
234.89
218.46
203.03
191.57
184.46
179.66
174.10
165.28
152.50
136.94
120.97
107.02
96.44
89.19
84.02
79.24
73.61
66.75
59.21
51.94
45.79
41.06
37.53
34.73
32.41
30.70
29.98
30.59
32.53
35.20
37.60
38.78
38.30
36.37
33.69
31.01
28.78
27.15
25.92
24.82
23.70
22.68
22.03
22.04
22.79
24.09
25.73
27.24
27.94
27.16
24.55
20.39
15.53
11.17
8.51
8.91
12.70
18.87
25.50
30.67
33.26
33.22
31.43
29.27
29.59
34.35
44.08
57.85
74.24
91.85
109.33
125.27
138.45
150.21
161.72
173.24
183.91
193.01
200.23
205.44
208.27
208.14
207.24
206.71
205.89
202.24
193.94
180.70
163.74
144.98
109.43
52.94
-16.93
-84.75
-138.75
-174.96
-195.65
-205.12
-207.55
-206.08
-200.06
-189.45
-175.84
-163.97
-156.76
-155.36
-159.32
-167.70
-179.45
-191.59
-202.49
-206.49
-204.50
-198.93
-191.75
-183.78
-175.46
-166.86
-156.55
-143.80
-128.96
-114.10
-100.95
-90.17
-81.34
-74.03
-67.57
-60.40
-51.64
-41.03
-29.41
-17.99
-9.37
-2.42
3.63
9.40
16.11
24.09
33.39
43.63
53.32
61.63
67.99
71.94
73.41
73.19
71.14
67.30
62.01
53.95
42.47
26.71
6.09
-19.50
-49.52
-84.84
-126.62
-163.38
-189.02
-200.47
-198.82
-187.00
-178.54
-174.88
-175.07
-177.52
-180.46
-184.90
-185.05
-179.38
-167.47
-141.33
-97.88
-41.02
21.40
81.71
133.41
174.08
203.10
221.91
232.81
238.13
238.92
236.44
232.71
228.49
224.56
220.49
216.02
210.94
205.08
198.11
189.91
181.60
173.68
166.98
161.57
157.41
154.38
152.08
149.37
145.75
141.87
138.08
135.24
133.68
133.49
134.49
136.00
134.77
127.51
118.50
110.41
105.61
105.05
108.31
114.08
120.63
121.97
113.94
95.73
69.34
38.55
6.41
-25.53
-56.63
-86.67
-122.40
-168.16
-223.83
-284.72
-344.25
-397.73
-443.47
-481.97
-514.73
-552.62
-603.51
-669.60
-746.26
-826.05
-903.68
-977.37
-1047.73
-1058.96
-980.28
-817.23
-610.83
-407.01
-232.97
-95.60
9.68
91.13
156.85
194.83
206.82
198.52
180.68
164.79
158.55
164.62
182.09
208.26
241.87
276.22
304.90
326.52
342.86
355.92
366.57
374.86
380.58
379.20
367.28
344.07
313.29
280.53
251.15
229.05
216.45
213.46
215.70
218.67
217.01
208.93
195.42
178.99
162.33
147.39
134.80
123.31
111.08
96.87
81.26
65.21
49.49
33.93
17.84
0.20
-19.57
-41.71
-66.08
-90.10
-111.72
-129.88
-144.94
-158.15
-170.89
-183.70
-195.94
-205.84
-211.13
-210.63
-204.67
-195.17
-184.86
-176.33
-171.05
-169.13
-169.68
-171.30
-173.13
-174.98
-177.23
-180.53
-185.87
-194.76
-209.16
-231.02
-260.81
-296.61
-333.39
-364.30
-382.85
-385.32
-372.13
-347.05
-315.28
-281.08
-246.59
-212.06
-177.09
-141.89
-107.57
-75.65
-47.17
-22.18
0.09
20.47
39.37
56.41
70.60
81.01
87.22
89.61
89.33
87.83
86.35
85.58
85.44
85.33
84.52
82.45
78.98
74.32
68.86
62.86
56.29
48.88
40.17
29.85
17.91
4.75
-8.98
-22.51
-35.18
-46.54
-56.45
-64.97
-72.24
-78.37
-83.38
-87.17
-89.51
-90.19
-88.96
-85.64
-80.14
-72.43
-62.67
-51.09
-38.12
-24.23
-10.01
4.04
17.41
29.73
40.79
50.52
59.02
66.48
73.17
79.35
85.27
91.12
96.99
102.92
108.84
114.64
120.11
125.06
129.24
132.51
134.77
136.00
136.30
135.79
134.63
132.93
130.80
128.26
125.31
121.94
118.14
113.90
109.16
103.86
97.87
91.02
83.15
74.20
64.28
53.73
43.08
32.92
23.80
16.10
9.94
5.24
1.86
-0.25
-1.00
-0.14
2.58
7.16
13.30
20.31
27.35
33.68
38.98
43.49
47.89
53.03
59.61
67.80
77.32
87.68
98.42
109.49
121.27
134.49
150.01
168.86
192.07
220.51
254.16
291.33
328.32
359.98
381.23
388.82
382.58
365.33
341.60
315.66
290.22
266.18
243.31
221.35
200.55
181.50
164.50
149.18
134.73
120.52
106.64
93.98
83.72
76.64
72.46
69.80
66.67
61.20
52.49
40.99
28.30
16.72
8.33
4.34
4.68
8.17
13.01
17.45
20.33
21.32
20.76
19.37
17.78
16.46
15.58
15.14
15.06
15.22
15.47
15.64
15.50
14.90
13.79
12.31
10.72
9.30
8.27
7.65
7.26
6.81
5.99
4.58
2.53
-0.05
-2.97
-5.98
-8.88
-11.56
-14.00
-16.24
-18.37
-20.44
-22.51
-24.54
-26.54
-28.42
-30.11
-31.47
-32.39
-32.85
-32.87
-32.60
-32.19
-31.75
-31.30
-30.79
-30.12
-29.29
-28.34
-27.35
-26.42
-25.59
-24.88
-24.27
-23.80
-23.47
-23.27
-23.11
-22.90
-22.52
-21.93
-21.16
-20.29
-19.42
-18.60
-17.84
-17.11
-16.38
-15.62
-14.84
-14.09
-13.41
-12.87
-12.53
-12.42
-12.54
-12.85
-13.32
-13.87
-14.45
-15.00
-15.46
-15.83
-16.07
-16.25
-16.37
-16.48
-16.60
-16.73
-16.87
-17.00
-17.09
-17.14
-17.10
-16.96
-16.72
-16.40
-16.05
-15.73
-15.44
-15.18
-14.90
-14.56
-14.13
-13.59
-12.98
-12.34
-11.68
-11.02
-10.35
-9.63
-8.86
-8.05
-7.25
-6.51
-5.87
-5.37
-4.99
-4.73
-4.55
-4.47
-4.48
-4.61
-4.84
-5.16
-5.55
-5.96
-6.37
-6.77
-7.15
-7.52
-7.88
-8.22
-8.52
-8.76
-8.91
-8.99
-9.01
-9.00
-9.01
-9.04
-9.10
-9.19
-9.29
-9.41
-9.56
-9.75
-9.98
-10.23
-10.51
-10.81
-11.13
-11.43
-11.70
-11.90
-12.01
-12.00
-11.88
-11.65
-11.32
-10.90
-10.38
-9.81
-9.20
-8.61
-8.10
-7.67
-7.33
-7.03
-6.77
-6.53
-6.34
-6.22
-6.18
-6.16
-6.12
-5.99
-5.76
-5.47
-5.20
-5.01
-4.90
-4.88
-4.89
-4.89
-4.86
-4.82
-4.81
-4.86
-5.02
-5.29
-5.66
-6.10
-6.58
-7.09
-7.65
-8.25
-8.90
-9.57
-10.18
-10.70
-11.06
-11.25
-11.30
-11.28
-11.26
-11.29
-11.40
-11.57
-11.79
-12.01
-12.22
-12.40
-12.51
-12.57
-12.56
-12.51
-12.39
-12.22
-11.97
-11.65
-11.28
-10.91
-10.58
-10.34
-10.19
-10.10
-10.04
-9.98
-9.89
-9.80
-9.71
-9.61
-9.52
-9.43
-9.36
-9.33
-9.38
-9.49
-9.65
-9.81
-9.93
-9.99
-9.95
-9.81
-9.57
-9.25
-8.89
-8.54
-8.26
-8.06
-7.92
-7.79
-7.64
-7.46
-7.26
-7.08
-6.97
-6.93
-6.92
-6.92
-6.89
-6.80
-6.67
-6.50
-6.31
-6.11
-5.90
-5.69
-5.45
-5.18
-4.87
-4.51
-4.11
-3.66
-3.24
-2.90
-2.69
-2.66
-2.81
-3.10
-3.46
-3.85
-4.24
-4.62
-5.00
-5.33
-5.58
-5.71
-5.72
-5.62
-5.45
-5.21
-4.94
-4.62
-4.29
-3.98
-3.76
-3.67
-3.73
-3.93
-4.24
-4.64
-5.08
-5.53
-5.98
-6.38
-6.71
-6.93
-7.04
-7.02
-6.87
-6.61
-6.27
-5.90
-5.57
-5.33
-5.21
-5.20
-5.29
-5.39
-5.48
-5.52
-5.51
-5.47
-5.44
-5.41
-5.42
-5.47
-5.55
-5.67
-5.81
-5.97
-6.15
-6.33
-6.52
-6.72
-6.92
-7.07
-7.15
-7.13
-7.01
-6.80
-6.54
-6.26
-5.99
-5.71
-5.42
-5.09
-4.71
-4.32
-3.94
-3.60
-3.31
-3.05
-2.79
-2.49
-2.16
-1.83
-1.55
-1.42
-1.49
-1.77
-2.20
-2.73
-3.25
-3.72
-4.11
-4.42
-4.66
-4.86
-5.02
-5.13
-5.21
-5.25
-5.27
-5.30
-5.34
-5.37
-5.39
-5.36
-5.27
-5.10
-4.87
-4.59
-4.28
-3.99
-3.68
-3.33
-2.92
-2.43
-1.85
-1.23
-0.60
0.00
0.52
0.92
1.18
1.29
1.27
1.15
0.99
0.81
0.65
0.47
0.27
0.02
-0.28
-0.60
-0.90
-1.16
-1.34
-1.44
-1.50
-1.55
-1.65
-1.82
-2.07
-2.36
-2.65
-2.92
-3.13
-3.30
-3.46
-3.64
-3.86
-4.08
-4.28
-4.43
-4.51
-4.53
-4.55
-4.59
-4.61
-4.61
-4.55
-4.43
-4.30
-4.22
-4.24
-4.38
-4.62
-4.89
-5.15
-5.36
-5.55
-5.70
-5.85
-5.99
-6.13
-6.24
-6.34
-6.45
-6.59
-6.76
-6.98
-7.23
-7.50
-7.76
-7.99
-8.17
-8.25
-8.20
-8.02
-7.73
-7.36
-6.98
-6.66
-6.42
-6.27
-6.20
-6.17
-6.16
-6.19
-6.28
-6.44
-6.67
-6.93
-7.16
-7.30
-7.31
-7.21
-7.03
-6.80
-6.56
-6.35
-6.16
-5.99
-5.86
-5.76
-5.66
-5.54
-5.37
-5.11
-4.76
-4.33
-3.84
-3.33
-2.82
-2.33
-1.86
-1.42
-1.02
-0.70
-0.51
-0.45
-0.52
-0.66
-0.80
-0.89
-0.92
-0.93
-0.96
-1.07
-1.25
-1.48
-1.69
-1.85
-1.96
-2.01
-2.05
-2.09
-2.10
-2.06
-1.95
-1.76
-1.49
-1.17
-0.83
-0.50
-0.18
0.11
0.38
0.62
0.82
0.95
1.01
0.97
0.83
0.59
0.28
-0.09
-0.50
-0.91
-1.32
-1.67
-1.92
-2.05
-2.04
-1.91
-1.68
-1.41
-1.14
-0.88
-0.64
-0.42
-0.23
-0.10
-0.02
-0.02
-0.09
-0.20
-0.35
-0.56
-0.83
-1.14
-1.48
-1.79
-2.06
-2.27
-2.45
-2.64
-2.87
-3.15
-3.46
-3.75
-3.97
-4.12
-4.16
-4.12
-4.01
-3.85
-3.68
-3.52
-3.38
-3.26
-3.16
-3.06
-2.95
-2.85
-2.74
-2.64
-2.55
-2.48
-2.42
-2.39
-2.40
-2.45
-2.54
-2.64
-2.74
-2.81
-2.86
-2.88
-2.87
-2.82
-2.75
-2.66
-2.57
-2.46
-2.35
-2.23
-2.10
-1.97
-1.86
-1.77
-1.70
-1.64
-1.58
-1.54
-1.52
-1.57
-1.67
-1.82
-1.97
-2.11
-2.22
-2.32
-2.41
-2.52
-2.61
-2.67
-2.66
-2.57
-2.42
-2.22
-2.03
-1.87
-1.75
-1.67
-1.64
-1.67
-1.77
-1.93
-2.12
-2.28
-2.37
-2.36
-2.25
-2.05
-1.79
-1.48
-1.12
-0.71
-0.29
0.10
0.40
0.59
0.66
0.61
0.47
0.27
0.01
-0.28
-0.60
-0.95
-1.30
-1.65
-1.96
-2.23
-2.42
-2.51
-2.50
-2.37
-2.14
-1.84
-1.51
-1.20
-0.93
-0.72
-0.55
-0.41
-0.30
-0.18
-0.09
-0.02
0.03
0.06
0.07
0.07
0.08
0.09
0.13
0.20
0.30
0.47
0.70
0.95
1.19
1.34
1.39
1.31
1.15
0.95
0.75
0.54
0.32
0.05
-0.24
-0.54
-0.79
-0.95
-1.00
-0.92
-0.73
-0.46
-0.14
0.19
0.49
0.72
0.89
1.00
1.09
1.19
1.34
1.53
1.75
1.96
2.15
2.32
2.48
2.65
2.83
3.02
3.20
3.38
3.54
3.67
3.76
3.79
3.78
3.72
3.66
3.62
3.61
3.63
3.67
3.71
3.73
3.75
3.74
3.65
3.45
3.09
2.59
1.99
1.34
0.70
0.10
-0.48
-1.06
-1.64
-2.20
-2.71
-3.14
-3.49
-3.79
-4.06
-4.35
-4.63
-4.92
-5.20
-5.45
-5.69
-5.93
-6.19
-6.49
-6.83
-7.22
-7.64
-8.08
-8.54
-8.99
-9.42
-9.81
-10.15
-10.42
-10.59
-10.65
-10.59
-10.42
-10.14
-9.76
-9.31
-8.80
-8.29
-7.82
-7.43
-7.12
-6.88
-6.67
-6.46
-6.23
-5.97
-5.73
-5.51
-5.34
-5.23
-5.18
-5.21
-5.31
-5.51
-5.77
-6.10
-6.46
-6.84
-7.25
-7.69
-8.18
-8.69
-9.22
-9.73
-10.22
-10.65
-11.04
-11.38
-11.64
-11.77
-11.70
-11.38
-10.71
-9.67
-8.22
-6.38
-4.21
-1.81
0.69
3.15
5.45
7.47
9.13
10.40
11.26
11.72
11.79
11.53
10.97
10.18
9.24
8.24
7.23
6.27
5.38
4.56
3.81
3.12
2.47
1.88
1.35
0.86
0.43
0.04
-0.31
-0.61
-0.85
-1.02
-1.12
-1.15
-1.13
-1.07
-0.96
-0.80
-0.57
-0.25
0.17
0.70
1.31
2.00
2.74
3.54
4.36
5.19
5.99
6.75
7.45
8.08
8.61
9.04
9.36
9.54
9.57
9.45
9.20
8.83
8.38
7.88
7.36
6.86
6.40
6.01
5.73
5.56
5.51
5.56
5.67
5.80
5.92
6.01
6.08
6.11
6.09
5.97
5.72
5.31
4.76
4.11
3.42
2.74
2.10
1.50
0.95
0.45
0.02
-0.31
-0.52
-0.60
-0.56
-0.46
-0.34
-0.23
-0.15
-0.09
-0.02
0.09
0.23
0.41
0.59
0.76
0.88
0.93
0.87
0.71
0.43
0.04
-0.42
-0.92
-1.40
-1.82
-2.18
-2.46
-2.72
-2.98
-3.25
-3.52
-3.74
-3.84
-3.83
-3.72
-3.57
-3.44
-3.39
-3.42
-3.51
-3.60
-3.64
-3.61
-3.48
-3.21
-2.82
-2.29
-1.66
-1.01
-0.41
0.10
0.49
0.78
1.01
1.17
1.24
1.19
1.00
0.72
0.43
0.23
0.17
0.24
0.34
0.39
0.32
0.13
-0.15
-0.48
-0.84
-1.23
-1.69
-2.22
-2.82
-3.42
-4.00
-4.50
-4.92
-5.26
-5.55
-5.78
-5.93
-5.97
-5.90
-5.76
-5.57
-5.39
-5.21
-5.01
-4.73
-4.33
-3.81
-3.19
-2.53
-1.89
-1.31
-0.80
-0.35
0.04
0.37
0.62
0.79
0.87
0.88
0.85
0.80
0.75
0.69
0.61
0.46
0.23
-0.12
-0.60
-1.17
-1.81
-2.44
-3.04
-3.58
-4.07
-4.50
-4.86
-5.12
-5.26
-5.29
-5.22
-5.06
-4.82
-4.48
-4.01
-3.42
-2.76
-2.12
-1.60
-1.25
-1.06
-0.98
-0.90
-0.75
-0.50
-0.21
0.06
0.22
0.22
0.05
-0.27
-0.68
-1.12
-1.55
-1.93
-2.23
-2.45
-2.60
-2.67
-2.67
-2.64
-2.57
-2.50
-2.43
-2.36
-2.30
-2.25
-2.23
-2.24
-2.30
-2.41
-2.55
-2.72
-2.87
-3.01
-3.08
-3.06
-2.93
-2.66
-2.28
-1.83
-1.37
-0.93
-0.56
-0.25
0.01
0.24
0.44
0.60
0.71
0.77
0.84
0.94
1.08
1.26
1.45
1.63
1.76
1.87
1.97
2.08
2.23
2.40
2.58
2.73
2.86
2.97
3.09
3.25
3.50
3.84
4.27
4.76
5.27
5.75
6.13
6.39
6.49
6.40
6.14
5.75
5.25
4.68
4.05
3.39
2.74
2.16
1.72
1.45
1.35
1.35
1.36
1.30
1.15
0.93
0.69
0.51
0.39
0.33
0.30
0.29
0.27
0.23
0.16
0.06
-0.09
-0.29
-0.54
-0.81
-1.09
-1.35
-1.54
-1.62
-1.56
-1.33
-0.95
-0.47
0.05
0.55
1.02
1.48
1.94
2.39
2.80
3.13
3.34
3.43
3.43
3.38
3.32
3.25
3.17
3.10
3.02
2.96
2.91
2.90
2.89
2.86
2.76
2.55
2.22
1.76
1.22
0.65
0.12
-0.36
-0.81
-1.24
-1.68
-2.11
-2.48
-2.75
-2.87
-2.86
-2.76
-2.66
-2.59
-2.58
-2.61
-2.65
-2.68
-2.70
-2.74
-2.83
-2.98
-3.17
-3.37
-3.53
-3.62
-3.61
-3.50
-3.32
-3.08
-2.82
-2.57
-2.35
-2.18
-2.09
-2.12
-2.27
-2.54
-2.90
-3.34
-3.84
-4.37
-4.91
-5.43
-5.92
-6.38
-6.79
-7.19
-7.57
-7.93
-8.24
-8.48
-8.63
-8.65
-8.52
-8.23
-7.76
-7.15
-6.46
-5.77
-5.17
-4.69
-4.33
-4.05
-3.77
-3.47
-3.11
-2.73
-2.37
-2.07
-1.84
-1.65
-1.46
-1.24
-0.99
-0.73
-0.50
-0.29
-0.11
0.09
0.29
0.50
0.67
0.77
0.82
0.86
0.96
1.20
1.61
2.16
2.77
3.32
3.72
3.95
4.01
3.97
3.87
3.77
3.65
3.49
3.26
3.00
2.72
2.48
2.31
2.23
2.21
2.23
2.26
2.27
2.26
2.21
2.15
2.09
2.05
2.03
1.98
1.82
1.51
1.03
0.45
-0.15
-0.68
-1.08
-1.32
-1.38
-1.32
-1.13
-0.85
-0.53
-0.23
0.02
0.17
0.23
0.23
0.19
0.13
0.06
-0.02
-0.13
-0.26
-0.44
-0.64
-0.81
-0.93
-0.96
-0.90
-0.75
-0.55
-0.30
0.01
0.38
0.83
1.32
1.81
2.22
2.52
2.69
2.74
2.67
2.47
2.16
1.76
1.32
0.89
0.51
0.17
-0.12
-0.41
-0.69
-0.95
-1.14
-1.23
-1.21
-1.11
-0.95
-0.76
-0.55
-0.32
-0.05
0.22
0.47
0.68
0.85
1.04
1.28
1.60
1.98
2.37
2.68
2.87
2.94
2.93
2.90
2.92
3.01
3.17
3.35
3.51
3.61
3.64
3.58
3.45
3.27
3.09
2.92
2.77
2.67
2.64
2.71
2.85
3.03
3.19
3.24
3.15
2.98
2.80
2.71
2.73
2.84
2.94
2.90
2.64
2.15
1.53
0.90
0.36
-0.08
-0.53
-1.10
-1.89
-2.94
-4.16
-5.34
-6.31
-7.00
-7.42
-7.75
-8.15
-8.83
-9.91
-11.28
-12.60
-13.46
-13.64
-13.17
-12.37
-11.67
-11.68
-12.80
-14.87
-17.18
-18.84
-19.22
-18.18
-16.05
-13.34
-10.73
-8.54
-6.21
-2.52
3.81
13.41
26.02
40.55
55.48
68.54
77.23
79.46
74.04
60.99
41.81
19.51
-2.53
-18.76
-25.23
-22.87
-16.60
-11.60
-10.38
-12.46
-15.75
-18.27
-19.21
-19.41
-20.25
-22.31
-24.98
-27.08
-27.75
-26.84
-25.01
-23.20
-22.54
-23.71
-26.53
-30.05
-33.17
-35.23
-36.12
-36.29
-36.44
-37.32
-39.44
-42.74
-46.67
-50.58
-54.02
-56.80
-59.07
-61.09
-63.10
-65.13
-66.88
-67.73
-67.01
-64.10
-58.52
-50.00
-38.52
-24.42
-8.26
9.23
27.31
45.16
61.17
74.93
86.17
94.78
100.70
103.91
104.43
102.44
98.36
92.86
86.98
81.51
77.03
73.60
70.86
68.14
64.81
60.62
55.83
51.31
47.90
46.19
46.16
47.14
48.08
48.05
46.58
43.94
41.36
39.56
39.37
41.40
45.85
52.28
59.14
63.80
63.03
54.27
37.03
13.82
-10.44
-30.19
-41.51
-43.73
-39.33
-32.56
-27.27
-25.38
-26.74
-29.98
-33.67
-37.04
-39.88
-42.16
-43.60
-43.77
-42.41
-39.70
-36.37
-33.38
-31.45
-30.73
-30.82
-30.96
-30.37
-28.54
-25.31
-20.90
-15.82
-10.82
-6.72
-4.24
-3.75
-5.11
-7.63
-10.21
-11.78
-11.54
-9.30
-5.49
-1.08
2.83
5.24
5.66
4.25
1.80
-0.28
-0.44
2.42
8.38
16.39
24.55
30.77
33.68
32.88
29.38
25.11
22.20
22.25
25.76
32.09
39.71
46.80
51.73
53.89
53.78
52.55
51.37
50.78
50.50
49.54
48.54
47.19
45.18
42.33
38.69
34.55
30.40
26.85
24.42
23.38
23.33
23.70
23.80
22.99
20.89
17.45
13.13
9.00
6.57
7.01
10.70
16.79
23.45
28.56
30.80
30.05
27.34
24.13
21.34
19.22
17.42
15.36
12.62
9.04
4.61
-0.54
-6.12
-11.54
-15.88
-18.20
-18.00
-15.65
-12.32
-9.43
-8.13
-8.94
-11.50
-14.95
-18.36
-21.15
-23.29
-25.20
-27.54
-30.89
-35.65
-41.98
-49.86
-59.03
-68.98
-78.84
-87.47
-93.82
-97.29
-98.12
-97.36
-96.62
-97.51
-101.04
-107.34
-115.54
-124.03
-130.93
-134.59
-134.07
-129.60
-122.48
-114.64
-107.95
-103.38
-100.74
-98.82
-96.15
-91.65
-85.12
-77.21
-68.90
-61.01
-53.93
-47.74
-42.49
-38.54
-36.29
-35.70
-35.98
-35.40
-31.78
-23.40
-10.02
6.56
22.87
35.21
41.25
41.21
37.85
34.99
35.66
40.50
47.64
53.84
56.42
54.72
50.37
46.33
45.19
47.98
53.93
61.09
67.55
72.27
75.22
77.08
78.67
80.32
81.82
82.52
81.89
79.81
76.79
73.84
72.01
71.92
73.30
75.13
75.94
74.56
70.71
65.17
59.43
54.89
52.18
50.76
49.24
46.06
40.36
32.43
23.66
15.98
11.02
9.51
11.01
14.13
17.05
18.14
16.40
11.77
5.23
-1.35
-5.46
-4.58
2.84
16.43
33.22
48.26
56.23
53.71
40.80
21.33
1.21
-14.08
-21.50
-21.22
-15.71
-8.21
-1.40
3.11
4.53
2.50
-2.99
-11.34
-21.12
-30.37
-37.34
-41.29
-42.89
-44.11
-47.56
-55.60
-69.49
-88.85
-111.66
-134.63
-154.22
-167.71
-174.12
-174.44
-171.12
-166.89
-163.71
-161.99
-160.61
-157.66
-151.37
-140.97
-127.00
-111.06
-95.12
-80.75
-68.43
-57.48
-46.55
-34.41
-20.71
-6.35
6.92
17.28
23.77
26.72
27.55
27.98
29.29
31.76
34.82
37.59
39.27
39.61
38.80
37.29
35.56
34.06
33.17
32.99
33.08
32.45
29.92
24.72
17.06
8.25
0.10
-5.83
-8.87
-9.31
-7.84
-4.79
0.02
7.08
16.50
27.34
37.92
46.61
52.82
57.13
60.57
63.41
64.56
62.14
54.59
42.16
27.29
13.89
5.64
4.44
9.79
19.24
29.72
38.64
44.49
46.78
45.58
41.37
35.05
28.01
22.06
19.10
20.44
26.27
34.98
43.30
47.18
43.25
30.36
10.37
-12.25
-32.07
-44.61
-48.00
-43.29
-33.63
-22.69
-13.19
-6.23
-1.34
2.65
6.83
11.61
16.69
21.33
24.80
26.66
27.04
26.41
25.42
24.68
24.54
25.07
26.01
26.85
26.95
25.68
22.58
17.54
10.87
3.25
-4.37
-10.95
-15.55
-17.54
-16.84
-14.09
-10.61
-8.10
-8.07
-11.20
-17.03
-23.92
-29.62
-32.02
-29.98
-23.72
-14.73
-5.14
3.11
8.97
12.55
14.74
16.61
18.86
21.59
24.53
27.50
30.63
34.24
38.31
42.01
43.75
41.87
35.56
25.54
13.90
3.33
-4.13
-7.85
-8.65
-8.03
-7.23
-6.52
-5.29
-2.71
1.47
6.47
10.78
12.80
11.77
8.13
3.45
-0.20
-1.16
1.21
6.36
12.96
19.47
24.85
28.73
31.33
33.17
34.60
35.69
36.26
36.13
35.34
34.24
33.39
33.22
33.75
34.47
34.56
33.30
30.57
26.96
23.50
21.10
19.95
19.34
17.88
14.25
7.76
-1.14
-11.00
-19.85
-25.87
-28.00
-26.32
-22.07
-17.28
-14.17
-14.48
-18.81
-26.43
-35.48
-43.56
-48.60
-49.60
-46.88
-41.86
-36.40
-31.96
-29.14
-27.57
-26.39
-24.76
-22.31
-19.19
-15.84
-12.62
-9.72
-7.09
-4.68
-2.57
-0.94
-0.01
0.17
-0.27
-1.04
-1.74
-2.07
-1.88
-1.41
-1.44
-3.20
-7.88
-16.00
-26.80
-38.26
-47.82
-53.56
-55.16
-54.04
-52.60
-52.81
-55.15
-58.41
-60.45
-59.47
-54.97
-47.94
-40.23
-33.55
-28.64
-25.20
-22.25
-18.86
-14.74
-10.40
-6.81
-4.81
-4.57
-5.40
-6.06
-5.33
-2.55
2.04
7.51
12.77
17.01
19.98
21.81
22.63
22.33
20.60
17.21
12.38
6.97
2.31
-0.19
0.36
3.90
9.33
14.71
17.93
17.43
12.83
5.06
-3.85
-11.45
-15.73
-15.69
-11.64
-4.94
2.58
9.33
14.46
17.97
20.55
22.93
25.54
28.22
30.36
31.35
30.92
29.47
27.76
26.65
26.55
27.36
28.53
29.29
28.99
27.18
23.66
18.34
11.42
3.40
-4.82
-12.00
-16.78
-18.09
-15.61
-10.05
-3.05
3.18
6.56
5.81
0.95
-6.67
-14.80
-21.03
-23.66
-22.28
-17.81
-12.07
-6.84
-3.08
-0.59
1.73
5.14
10.30
16.84
23.61
29.20
32.64
33.70
32.80
30.60
27.59
24.04
20.04
15.76
11.60
8.00
5.28
3.29
1.32
-1.63
-6.48
-13.67
-22.77
-32.54
-41.11
-46.58
-47.53
-43.60
-35.69
-25.85
-16.66
-10.47
-8.45
-10.18
-13.79
-16.72
-16.65
-12.41
-4.26
6.37
17.64
27.97
36.55
43.31
48.64
52.93
56.24
58.29
58.65
57.09
53.97
50.14
46.69
44.39
43.28
42.58
41.10
37.89
32.72
26.30
19.97
15.01
12.08
10.87
10.19
8.48
4.48
-2.19
-10.79
-19.77
-27.26
-31.80
-32.82
-30.75
-26.83
-22.66
-19.72
-19.04
-21.00
-25.23
-30.65
-35.66
-38.56
-38.05
-33.73
-26.32
-17.35
-8.65
-1.62
3.16
6.01
7.71
9.06
10.50
12.03
13.49
14.80
16.13
17.78
20.00
22.69
25.38
27.36
28.01
27.10
24.86
21.97
19.26
17.41
16.68
16.84
17.23
17.09
15.85
13.29
9.55
5.03
0.20
-4.44
-8.32
-10.89
-11.65
-10.48
-7.89
-5.05
-3.44
-4.32
-8.06
-13.93
-20.30
-25.23
-27.27
-25.87
-21.43
-15.04
-7.98
-1.29
4.40
8.87
12.14
14.29
15.31
15.17
13.94
11.92
9.79
8.43
8.62
10.65
14.04
17.62
19.98
20.07
17.69
13.62
9.23
5.81
4.00
3.47
3.24
2.11
-0.69
-5.22
-10.92
-16.84
-22.00
-25.63
-27.26
-26.84
-24.77
-21.96
-19.66
-19.11
-21.09
-25.41
-30.92
-35.81
-38.28
-37.26
-32.82
-26.15
-19.08
-13.33
-9.90
-8.73
-8.94
-9.34
-9.04
-7.78
-5.93
-4.05
-2.54
-1.38
-0.36
0.69
1.63
2.09
1.76
0.61
-0.94
-2.26
-2.87
-2.72
-2.27
-2.32
-3.69
-6.82
-11.55
-17.05
-22.01
-25.10
-25.45
-23.14
-19.25
-15.57
-13.79
-14.83
-18.42
-23.21
-27.41
-29.51
-28.77
-25.34
-19.99
-13.76
-7.51
-1.82
3.07
7.09
10.24
12.50
13.79
14.03
13.23
11.66
9.81
8.36
7.82
8.38
9.79
11.55
13.18
14.41
15.16
15.35
14.68
12.64
8.80
3.19
-3.48
-9.93
-14.72
-16.76
-15.73
-12.25
-7.77
-4.09
-2.88
-5.07
-10.45
-17.64
-24.47
-28.82
-29.36
-26.02
-19.84
-12.51
-5.56
0.15
4.50
7.89
10.76
13.32
15.44
16.82
17.17
16.53
15.20
13.77
12.87
12.93
14.00
15.70
17.33
18.16
17.64
15.50
11.85
6.98
1.27
-4.79
-10.56
-15.18
-17.72
-17.48
-14.49
-9.80
-5.31
-3.07
-4.41
-9.21
-15.87
-21.94
-25.03
-23.81
-18.24
-9.53
0.47
9.90
17.37
22.27
24.79
25.70
25.96
26.30
26.98
27.72
28.04
27.62
26.56
25.36
24.68
24.88
25.85
26.96
27.35
26.31
23.56
19.27
14.02
8.50
3.36
-0.92
-4.00
-5.62
-5.64
-4.15
-1.66
0.90
2.31
1.58
-1.61
-6.62
-12.00
-15.97
-17.11
-14.92
-9.88
-3.26
3.48
9.23
13.46
16.23
17.95
19.01
19.68
19.95
19.71
18.82
17.35
15.50
13.61
12.00
10.81
9.96
9.24
8.47
7.58
6.62
5.59
4.26
2.18
-1.10
-5.73
-11.22
-16.57
-20.51
-22.01
-20.78
-17.39
-13.16
-9.70
-8.33
-9.56
-12.87
-16.84
-19.63
-19.69
-16.36
-10.01
-1.89
6.51
14.01
20.15
25.08
29.28
33.04
36.19
38.20
38.41
36.58
33.13
29.10
25.75
24.00
24.01
25.09
26.11
26.03
24.39
21.51
18.20
15.37
13.58
12.77
12.33
11.31
8.85
4.50
-1.59
-8.74
-15.93
-22.10
-26.38
-28.27
-27.72
-25.16
-21.57
-18.34
-16.96
-18.52
-23.15
-29.77
-36.33
-40.55
-40.89
-37.09
-30.23
-22.13
-14.48
-8.21
-3.36
0.52
3.73
6.07
6.92
5.69
2.38
-2.17
-6.53
-9.25
-9.56
-7.74
-5.05
-3.12
-3.24
-5.64
-9.44
-12.93
-14.42
-13.09
-9.44
-5.16
-2.39
-2.61
-5.90
-10.82
-15.04
-16.49
-14.32
-9.24
-3.27
1.13
2.01
-1.29
-7.86
-15.38
-20.95
-21.98
-17.04
-6.34
8.07
22.61
32.81
34.37
24.58
3.38
-26.03
-57.81
-85.28
-103.31
-110.02
-107.08
-98.22
-86.79
-74.59
-61.68
-47.35
-31.46
-15.22
-0.81
10.00
17.10
22.80
30.20
41.58
57.46
76.43
95.71
112.15
123.36
128.44
128.60
125.27
119.28
110.97
100.85
90.06
80.54
75.00
76.33
86.73
105.19
126.81
144.42
151.42
144.25
123.58
93.95
56.20
16.37
-17.08
-39.16
-51.25
-58.15
-63.48
-67.93
-70.43
-69.81
-66.84
-63.89
-64.87
-73.27
-90.90
-117.82
-153.20
-195.59
-235.09
-261.48
-266.58
-247.43
-207.46
-155.44
-102.67
-59.12
-29.88
-13.96
-5.77
0.58
8.10
16.46
23.64
28.45
31.38
34.67
41.08
52.92
70.21
91.39
114.51
138.51
162.92
186.63
206.95
213.05
199.57
166.63
120.18
70.13
26.47
-4.35
-21.18
-27.23
-27.33
-24.39
-19.71
-13.60
-6.50
0.32
5.12
6.68
5.12
1.61
-1.34
-1.92
0.13
3.64
6.67
7.18
4.25
-1.77
-9.97
-18.19
-24.69
-28.63
-30.18
-30.24
-29.92
-29.97
-30.54
-31.88
-33.46
-34.80
-35.79
-36.75
-38.19
-40.52
-43.79
-47.64
-52.63
-59.03
-67.26
-77.63
-89.93
-103.23
-116.05
-127.14
-129.85
-121.62
-102.19
-73.45
-38.91
-2.83
30.51
57.42
75.40
83.59
82.04
72.90
59.62
45.97
34.93
27.96
25.01
25.00
26.64
28.38
29.57
30.27
30.82
31.45
31.94
31.64
29.63
25.09
17.35
6.69
-5.53
-17.34
-26.75
-32.42
-33.98
-31.93
-27.18
-20.82
-13.66
-6.24
0.92
7.22
12.08
15.16
16.52
16.57
15.77
14.56
13.17
11.72
10.28
8.83
7.28
5.45
3.26
0.86
-1.22
-2.36
-2.15
-0.84
0.57
0.66
-1.75
-6.99
-14.27
-21.94
-28.13
-31.42
-31.26
-28.14
-23.39
-18.78
-16.07
-16.51
-20.44
-27.12
-34.89
-41.73
-45.83
-46.24
-42.94
-36.71
-28.65
-19.70
-10.46
-1.28
7.40
14.89
20.32
23.00
22.95
21.12
19.25
19.18
22.04
27.64
34.60
40.96
45.17
46.73
46.18
44.58
42.68
40.47
37.24
32.13
24.75
15.56
5.81
-2.86
-9.02
-11.87
-11.51
-8.91
-5.70
-3.63
-3.99
-7.20
-12.61
-18.78
-24.05
-27.09
-27.36
-25.03
-20.76
-15.38
-9.63
-4.03
1.07
5.46
9.05
11.75
13.44
14.01
13.39
11.77
9.63
7.63
6.38
6.17
6.80
7.79
8.62
8.97
8.77
7.96
6.39
3.81
0.05
-4.71
-9.87
-14.48
-17.49
-18.12
-16.11
-11.93
-6.73
-2.12
0.26
-0.61
-4.73
-10.88
-17.06
-21.17
-21.72
-18.39
-11.90
-3.65
4.89
12.57
18.77
23.31
26.28
27.90
28.39
28.02
27.04
25.73
24.33
23.10
22.24
21.91
22.17
22.93
23.95
24.86
25.22
24.64
22.86
19.85
15.74
10.90
5.82
1.24
-2.06
-3.39
-2.48
0.26
3.68
6.22
6.53
4.05
-0.61
-5.91
-9.92
-11.17
-9.08
-4.10
2.70
10.11
17.19
23.39
28.36
31.79
33.33
32.71
30.01
25.76
20.93
16.51
13.23
11.23
10.17
9.49
8.82
8.15
7.76
7.82
8.10
7.88
6.14
2.17
-4.11
-11.92
-19.92
-26.56
-30.57
-31.24
-28.61
-23.44
-17.20
-11.84
-9.29
-10.87
-16.67
-25.34
-34.42
-41.13
-43.36
-40.38
-33.00
-23.14
-13.02
-4.43
1.68
5.24
6.74
6.75
5.69
3.77
1.13
-1.91
-4.82
-6.95
-7.80
-7.28
-5.75
-3.86
-2.29
-1.53
-1.82
-3.20
-5.67
-9.18
-13.60
-18.61
-23.64
-27.87
-30.37
-30.38
-27.65
-22.73
-17.05
-12.57
-11.03
-13.22
-18.43
-24.58
-29.07
-29.78
-25.90
-18.15
-8.33
1.48
9.73
15.76
19.76
22.35
24.13
25.41
26.09
25.91
24.63
22.32
19.43
16.69
14.81
14.24
15.08
16.94
19.23
21.18
22.06
21.26
18.43
13.56
7.08
-0.27
-7.48
-13.45
-17.19
-18.10
-16.17
-12.23
-7.85
-4.87
-4.75
-7.90
-13.44
-19.56
-24.19
-25.84
-24.00
-19.23
-12.70
-5.68
0.79
6.16
10.23
13.06
14.84
15.79
16.11
15.94
15.43
14.68
13.80
12.95
12.28
11.93
11.96
12.31
12.72
12.78
11.99
9.98
6.63
2.16
-2.95
-8.04
-12.39
-15.36
-16.50
-15.70
-13.41
-10.56
-8.39
-7.97
-9.71
-13.13
-16.97
-19.68
-19.96
-17.21
-11.67
-4.25
3.79
11.27
17.35
21.72
24.54
26.27
27.35
28.01
28.26
27.94
27.03
25.71
24.35
23.32
22.79
22.63
22.55
22.27
21.68
20.86
19.92
18.85
17.38
15.11
11.73
7.32
2.50
-1.66
-4.03
-3.92
-1.48
2.22
5.57
7.04
5.85
2.34
-2.17
-5.92
-7.42
-5.98
-1.90
3.81
9.91
15.39
19.77
23.04
25.41
27.04
27.89
27.71
26.34
23.91
20.92
18.14
16.24
15.51
15.72
16.14
16.01
14.81
12.60
9.92
7.48
5.80
4.80
3.83
1.87
-2.01
-8.13
-15.95
-24.16
-31.19
-35.67
-37.03
-35.60
-32.47
-29.12
-26.89
-26.68
-28.69
-32.40
-36.76
-40.45
-42.27
-41.49
-38.04
-32.46
-25.71
-18.77
-12.32
-6.72
-2.00
1.76
4.42
5.68
5.37
3.62
0.96
-1.82
-4.09
-5.57
-6.48
-7.25
-8.31
-9.69
-11.16
-12.33
-13.02
-13.44
-14.11
-15.67
-18.54
-22.71
-27.71
-32.67
-36.54
-38.36
-37.59
-34.44
-29.88
-25.48
-22.81
-22.81
-25.31
-29.02
-32.10
-32.84
-30.35
-24.85
-17.37
-9.17
-1.25
5.97
12.50
18.35
23.27
26.72
28.13
27.34
24.85
21.77
19.39
18.68
19.86
22.33
25.00
26.83
27.26
26.34
24.52
22.31
19.85
16.92
13.12
8.14
2.08
-4.48
-10.52
-14.94
-16.84
-16.02
-13.07
-9.39
-6.65
-6.20
-8.47
-12.74
-17.49
-21.01
-22.07
-20.31
-16.22
-10.70
-4.69
1.14
6.46
11.18
15.23
18.51
20.85
22.08
22.17
21.30
19.96
18.80
18.44
19.18
20.89
23.15
25.42
27.38
28.88
29.81
29.90
28.58
25.24
19.51
11.55
2.15
-7.47
-15.98
-22.26
-25.76
-26.60
-25.58
-24.00
-23.24
-24.30
-27.38
-31.70
-35.74
-37.70
-36.03
-29.79
-18.78
-3.36
15.71
37.34
60.08
81.97
100.65
113.60
118.72
114.89
102.33
82.56
58.06
31.51
5.13
-19.85
-43.25
-65.54
-86.96
-106.71
-122.44
-130.52
-126.96
-108.76
-75.16
-28.34
26.70
82.95
132.77
169.44
188.42
188.06
169.55
135.95
90.92
37.70
-20.90
-81.67
-139.89
-188.99
-221.57
-231.69
-217.10
-180.31
-128.00
-68.81
-11.02
39.15
77.96
103.61
115.67
114.73
102.50
82.03
57.52
33.58
14.36
2.60
-0.82
3.03
11.66
22.08
31.68
38.93
43.59
46.32
47.95
48.72
48.02
44.65
37.54
26.47
12.43
-2.59
-16.30
-26.82
-33.19
-35.46
-34.53
-31.84
-29.01
-27.45
-28.10
-31.25
-36.37
-42.32
-47.54
-50.65
-50.74
-47.67
-42.13
-35.29
-28.44
-22.59
-18.22
-15.07
-12.54
-10.02
-7.21
-4.29
-1.66
0.24
1.31
1.81
2.63
4.28
6.78
9.71
12.44
14.66
16.23
17.12
17.34
17.53
17.83
18.16
18.37
18.14
17.51
16.69
15.96
15.78
17.72
22.43
29.94
39.69
50.26
60.99
71.73
82.39
92.09
100.19
104.46
102.75
94.17
78.10
59.69
47.29
46.82
49.97
52.19
50.68
47.49
43.02
34.56
19.31
-4.61
-37.45
-78.56
-125.37
-176.10
-229.38
-265.68
-271.90
-248.59
-209.09
-167.84
-133.01
-105.32
-82.91
-63.17
-44.29
-27.99
-16.16
-9.47
-6.65
-6.10
-5.79
-4.71
-2.01
2.77
7.65
10.74
11.22
9.83
7.35
4.74
2.37
1.24
2.35
5.21
9.00
11.11
12.60
13.42
13.22
11.29
8.06
4.45
0.50
-4.11
-10.07
-17.82
-28.20
-38.81
-51.27
-66.30
-83.71
-102.25
-118.74
-128.38
-126.01
-109.15
-79.68
-44.13
-10.60
13.92
26.26
27.60
22.03
14.08
6.38
-0.65
-7.95
-15.53
-22.24
-26.18
-25.86
-20.96
-12.80
-2.76
7.48
16.88
25.54
34.08
42.94
51.92
60.15
66.18
68.59
66.44
59.66
49.25
36.72
23.52
10.52
-1.75
-13.48
-25.13
-37.20
-49.89
-62.97
-76.02
-88.63
-100.64
-111.70
-121.75
-130.83
-139.01
-146.24
-152.37
-157.32
-161.14
-164.15
-166.16
-167.21
-167.33
-166.48
-164.42
-160.69
-154.48
-144.50
-133.40
-122.18
-111.52
-101.90
-93.61
-86.76
-81.41
-77.55
-75.20
-74.48
-74.86
-75.93
-77.17
-78.02
-77.84
-76.08
-72.40
-66.79
-59.62
-51.01
-41.23
-30.44
-18.64
-5.60
8.87
24.75
41.63
58.64
75.05
90.19
103.79
116.17
128.09
140.48
153.97
168.63
183.96
199.28
213.97
227.80
241.11
254.70
269.70
287.39
308.97
335.02
364.88
395.99
423.99
443.58
450.16
441.51
418.60
385.26
346.71
307.78
271.61
239.41
211.00
185.79
163.30
143.27
125.34
108.81
92.71
76.23
59.09
41.69
25.04
10.25
-1.92
-11.40
-18.84
-25.24
-31.62
-38.56
-45.95
-53.06
-58.73
-61.88
-61.92
-58.99
-53.97
-48.12
-42.66
-38.37
-35.45
-33.64
-32.54
-31.80
-31.35
-31.18
-31.32
-31.66
-31.99
-32.11
-31.88
-31.37
-30.68
-30.00
-29.45
-29.08
-28.92
-28.96
-29.24
-29.79
-30.69
-31.91
-33.41
-35.01
-36.51
-37.70
-38.48
-38.96
-39.39
-40.16
-41.55
-43.55
-45.82
-47.70
-48.39
-47.23
-43.93
-38.66
-32.02
-24.86
-18.06
-12.32
-7.99
-5.10
-3.42
-2.57
-2.17
-1.94
-1.68
-1.30
-0.77
-0.11
0.60
1.26
1.76
2.05
2.11
1.96
1.67
1.21
0.50
-0.61
-2.22
-4.34
-6.84
-9.45
-11.88
-13.88
-15.42
-16.64
-17.83
-19.34
-21.34
-23.82
-26.45
-28.69
-29.94
-29.65
-27.54
-23.66
-18.43
-12.50
-6.65
-1.54
2.32
4.69
5.54
5.05
3.53
1.34
-1.10
-3.42
-5.38
-6.85
-7.88
-8.64
-9.30
-9.99
-10.75
-11.57
-12.47
-13.49
-14.70
-16.17
-17.83
-19.60
-21.34
-22.94
-24.37
-25.65
-26.85
-28.06
-29.40
-31.00
-32.98
-35.35
-37.96
-40.36
-41.93
-41.99
-40.00
-35.76
-29.45
-21.64
-13.14
-4.87
2.35
7.97
11.81
14.05
15.10
15.40
15.29
14.97
14.53
14.07
13.72
13.63
13.88
14.34
14.77
14.82
14.28
13.03
11.16
8.82
6.20
3.43
0.62
-2.14
-4.81
-7.36
-9.86
-12.44
-15.25
-18.41
-21.94
-25.66
-29.19
-31.96
-33.32
-32.72
-29.94
-25.16
-18.95
-12.17
-5.77
-0.52
3.11
5.03
5.51
5.00
4.01
2.94
1.98
1.17
0.49
-0.08
-0.48
-0.63
-0.53
-0.31
-0.22
-0.53
-1.41
-2.90
-4.88
-7.18
-9.61
-12.05
-14.43
-16.73
-18.91
-21.01
-23.12
-25.45
-28.20
-31.47
-35.03
-38.30
-40.43
-40.55
-38.12
-33.11
-26.12
-18.08
-10.09
-3.00
2.64
6.69
9.31
10.83
11.65
12.11
12.46
12.81
13.15
13.40
13.51
13.47
13.33
13.16
12.97
12.65
12.03
10.94
9.30
7.13
4.62
2.02
-0.47
-2.75
-4.83
-6.84
-8.96
-11.40
-14.36
-17.95
-22.06
-26.30
-29.98
-32.22
-32.21
-29.45
-24.04
-16.62
-8.28
-0.18
6.73
11.93
15.38
17.37
18.34
18.72
18.85
18.92
19.03
19.19
19.37
19.44
19.27
18.73
17.77
16.41
14.77
12.97
11.10
9.15
7.03
4.62
1.79
-1.51
-5.18
-8.99
-12.65
-15.94
-18.83
-21.54
-24.48
-28.12
-32.69
-37.99
-43.32
-47.62
-49.84
-49.23
-45.64
-39.49
-31.67
-23.24
-15.21
-8.33
-3.03
0.59
2.69
3.60
3.69
3.32
2.76
2.22
1.82
1.66
1.82
2.32
3.07
3.91
4.64
5.03
4.96
4.40
3.41
2.12
0.65
-0.90
-2.43
-3.85
-5.10
-6.12
-6.98
-7.88
-9.23
-11.51
-15.04
-19.70
-24.77
-28.97
-30.88
-29.35
-23.97
-15.23
-4.28
7.38
18.45
28.00
35.66
41.37
45.29
47.62
48.64
48.70
48.18
47.48
46.89
46.51
46.27
45.99
45.46
44.49
42.95
40.67
37.54
33.50
28.59
23.07
17.33
11.76
6.71
2.29
-1.54
-4.99
-8.40
-12.17
-16.69
-22.18
-28.51
-35.05
-40.70
-44.16
-44.33
-40.68
-33.55
-23.99
-13.52
-3.62
4.67
10.94
15.38
18.42
20.55
22.03
22.97
23.37
23.38
23.26
23.32
23.76
24.53
25.38
25.96
25.96
25.27
23.84
21.74
19.02
15.80
12.25
8.64
5.21
2.15
-0.53
-2.99
-5.51
-8.49
-12.29
-17.09
-22.74
-28.61
-33.58
-36.37
-35.90
-31.74
-24.33
-14.85
-4.85
4.30
11.75
17.31
21.26
24.06
26.08
27.45
28.21
28.36
28.06
27.53
27.03
26.63
26.22
25.57
24.44
22.79
20.76
18.56
16.30
13.90
11.11
7.64
3.39
-1.47
-6.52
-11.24
-15.23
-18.35
-20.80
-23.08
-25.86
-29.72
-34.86
-40.90
-46.87
-51.34
-52.97
-50.88
-45.04
-36.32
-26.12
-15.96
-7.01
0.16
5.50
9.26
11.76
13.19
13.71
13.50
12.86
12.23
11.97
12.23
12.79
13.17
12.86
11.52
9.22
6.39
3.53
0.97
-1.26
-3.47
-6.06
-9.32
-13.28
-17.72
-22.24
-26.45
-30.03
-32.84
-34.99
-36.75
-38.58
-40.96
-44.25
-48.45
-53.08
-57.23
-59.67
-59.21
-55.10
-47.25
-36.32
-23.52
-10.33
1.93
12.33
20.38
26.01
29.49
31.24
31.86
31.96
32.09
32.58
33.48
34.59
35.55
36.05
35.98
35.39
34.46
33.37
32.10
30.52
28.38
25.50
21.85
17.59
13.03
8.47
4.12
0.04
-3.87
-7.88
-12.40
-17.83
-24.45
-32.13
-40.20
-47.47
-52.45
-53.87
-51.10
-44.43
-34.91
-24.08
-13.41
-3.96
3.69
9.41
13.30
15.53
16.30
15.91
14.74
13.28
11.98
11.15
10.89
11.11
11.65
12.38
13.20
14.04
14.80
15.31
15.41
14.98
14.01
12.63
11.06
9.57
8.40
7.73
7.55
7.62
7.43
6.38
4.05
0.50
-3.54
-6.78
-7.71
-5.07
1.68
12.21
25.44
39.80
53.64
65.58
74.73
80.81
84.05
85.02
84.35
82.48
79.66
75.88
71.10
65.40
58.95
52.06
45.00
37.99
31.07
24.25
17.45
10.57
3.52
-3.78
-11.34
-19.06
-26.70
-34.00
-40.72
-46.76
-52.24
-57.41
-62.54
-67.80
-73.03
-77.69
-80.90
-81.59
-78.83
-72.14
-61.71
-48.46
-33.76
-19.07
-5.57
6.13
16.01
24.41
31.73
38.18
43.76
48.38
51.98
54.66
56.62
58.03
58.98
59.36
58.98
57.59
55.02
51.18
46.12
39.90
32.70
24.70
16.14
7.28
-1.57
-10.12
-18.18
-25.69
-32.84
-39.98
-47.56
-55.76
-64.36
-72.56
-79.15
-82.85
-82.73
-78.64
-71.23
-61.82
-51.93
-42.87
-35.42
-29.73
-25.54
-22.44
-20.08
-18.21
-16.66
-15.19
-13.52
-11.40
-8.75
-5.77
-2.92
-0.79
0.13
-0.39
-2.28
-5.31
-9.14
-13.53
-18.24
-23.01
-27.51
-31.34
-34.10
-35.58
-35.83
-35.25
-34.47
-34.20
-35.06
-37.47
-41.44
-46.59
-52.12
-56.84
-59.32
-58.15
-52.28
-41.38
-26.04
-7.72
11.48
29.43
44.41
55.49
62.62
66.35
67.58
67.22
65.96
64.24
62.35
60.41
58.45
56.40
54.09
51.41
48.29
44.79
41.00
36.95
32.55
27.57
21.76
14.99
7.28
-1.20
-10.14
-19.26
-28.32
-37.17
-45.77
-54.07
-61.89
-68.76
-73.88
-76.21
-74.77
-69.04
-59.27
-46.48
-32.24
-18.15
-5.41
5.44
14.39
21.76
27.88
32.98
37.15
40.46
42.98
44.77
45.93
46.48
46.52
46.19
45.69
45.23
44.90
44.61
44.09
43.02
41.09
38.13
34.10
29.09
23.25
16.74
9.66
1.98
-6.48
-16.00
-26.74
-38.46
-50.34
-61.00
-68.86
-72.59
-71.60
-66.21
-57.52
-46.97
-35.92
-25.30
-15.56
-6.85
0.79
7.25
12.37
16.09
18.50
19.94
20.85
21.61
22.40
23.20
23.85
24.17
23.99
23.28
22.08
20.50
18.74
16.99
15.43
14.13
13.11
12.24
11.31
10.02
7.92
4.46
-0.81
-8.00
-16.56
-25.20
-32.16
-35.68
-34.64
-28.99
-19.69
-8.32
3.41
13.99
22.59
29.13
33.86
37.17
39.32
40.44
40.63
39.97
38.44
36.19
33.49
30.59
27.61
24.50
21.13
17.55
13.79
9.57
4.93
0.29
-3.86
-7.13
-9.42
-11.04
-12.00
-12.66
-14.45
-17.98
-22.74
-27.96
-32.86
-37.05
-40.53
-42.26
-41.47
-39.41
-35.96
-29.29
-17.85
-1.09
20.04
43.04
66.53
88.26
102.84
107.88
105.46
100.13
98.38
107.49
133.58
181.79
250.80
328.29
399.89
454.38
485.11
492.20
481.83
446.21
384.72
325.50
277.32
231.62
184.42
134.82
84.32
34.48
-14.92
-64.05
-115.42
-175.89
-248.11
-328.79
-412.38
-492.74
-564.03
-621.38
-659.28
-674.79
-672.05
-657.81
-640.01
-627.72
-627.68
-640.93
-661.84
-678.74
-679.85
-659.54
-617.44
-557.24
-485.48
-408.70
-331.83
-258.23
-189.93
-129.02
-78.18
-38.27
-6.89
20.44
48.63
80.68
116.26
152.15
183.72
206.86
220.52
227.44
232.97
243.30
263.42
294.98
334.70
373.97
400.56
402.76
374.66
319.86
251.70
188.94
148.41
138.48
156.03
189.00
222.88
247.32
259.77
264.74
269.97
281.94
304.08
336.40
376.45
420.66
463.97
499.81
521.15
522.68
502.50
464.06
414.37
360.85
309.38
262.24
218.39
175.36
130.98
83.41
32.90
-19.24
-71.25
-119.96
-161.98
-194.70
-216.71
-227.64
-228.77
-220.45
-203.10
-185.53
-175.18
-176.99
-191.57
-214.61
-232.92
-241.83
-239.59
-226.43
-203.56
-173.34
-136.41
-93.35
-45.90
2.33
45.32
78.31
98.55
105.93
103.50
95.59
85.83
76.30
67.70
59.37
51.64
45.29
40.90
38.93
39.49
42.32
47.26
54.41
63.41
74.12
85.75
96.46
103.83
105.24
98.42
82.24
57.27
25.57
-9.47
-44.55
-77.68
-108.48
-137.74
-166.23
-193.52
-217.60
-235.51
-244.33
-242.20
-228.76
-204.90
-172.37
-133.74
-92.56
-53.43
-21.44
-0.87
6.21
0.88
-12.88
-29.50
-43.62
-51.72
-52.81
-48.27
-41.03
-34.33
-30.64
-30.72
-33.18
-34.82
-31.90
-21.82
-4.69
16.11
34.83
45.34
43.63
29.57
7.26
-15.98
-32.20
-35.56
-24.53
-2.69
22.20
40.40
43.21
26.03
-9.71
-56.12
-100.59
-129.15
-130.81
-101.49
-46.06
22.37
86.22
129.22
141.95
124.84
87.33
44.06
9.48
-6.90
-2.61
17.86
45.26
68.45
77.74
67.83
39.44
-0.74
-41.81
-71.92
-82.15
-69.43
-37.33
5.55
48.75
83.59
105.56
114.86
115.24
111.74
108.47
107.22
107.57
107.91
106.98
105.25
105.26
110.92
125.46
149.70
181.25
214.57
242.78
259.97
263.16
252.82
231.80
203.56
170.80
134.94
96.65
56.70
16.23
-23.62
-62.47
-101.05
-140.70
-182.58
-226.69
-271.74
-315.59
-356.14
-392.38
-425.15
-457.22
-492.31
-533.17
-579.26
-625.58
-663.26
-682.40
-675.97
-642.78
-587.98
-520.84
-450.95
-384.79
-324.50
-268.89
-215.72
-163.71
-113.21
-65.36
-20.92
20.57
60.85
102.34
147.36
197.33
251.66
307.33
359.17
401.11
428.07
437.74
431.10
411.38
382.29
346.20
303.65
254.13
197.37
134.03
65.55
-6.62
-80.97
-155.09
-224.45
-282.00
-319.81
-331.91
-316.94
-278.94
-225.95
-166.60
-107.10
-49.88
5.74
61.51
118.32
175.22
229.67
278.36
318.72
349.83
372.85
390.44
405.66
420.38
434.63
446.65
453.14
451.32
439.91
419.25
390.75
355.66
314.47
267.07
213.80
155.13
93.19
31.54
-25.37
-73.29
-109.18
-131.43
-139.73
-135.07
-122.42
-107.86
-96.96
-93.21
-97.67
-109.66
-127.36
-148.42
-170.39
-195.06
-224.06
-257.16
-291.50
-323.04
-349.34
-370.09
-386.57
-400.80
-419.52
-448.15
-487.94
-535.22
-583.53
-627.06
-662.41
-688.50
-673.47
-597.18
-459.09
-281.85
-98.59
64.71
196.06
294.72
365.57
414.98
444.23
453.68
445.65
425.08
398.74
371.80
347.27
326.43
309.34
292.10
269.91
240.06
202.52
158.75
109.72
55.10
-3.12
-64.90
-126.06
-183.07
-230.63
-262.41
-272.43
-257.41
-217.90
-159.77
-93.49
-31.36
15.64
43.50
54.94
56.40
53.89
53.20
57.49
67.96
85.03
107.71
136.21
170.30
207.55
238.21
252.95
245.01
212.58
164.59
105.61
41.61
-20.50
-73.94
-112.28
-128.93
-119.21
-82.04
-20.47
54.38
127.81
184.26
210.73
200.31
155.18
85.25
5.45
-68.60
-125.62
-159.81
-171.26
-166.19
-156.05
-151.17
-156.13
-169.00
-184.93
-200.58
-214.39
-226.27
-236.92
-245.39
-248.91
-245.09
-233.57
-216.43
-197.30
-179.04
-162.31
-145.32
-127.16
-105.71
-79.63
-49.30
-16.85
14.78
43.41
68.47
90.89
112.54
135.68
161.59
190.08
219.64
248.30
274.64
298.29
319.96
341.18
364.29
391.56
424.26
461.67
500.43
534.85
558.19
564.93
552.69
523.25
481.44
433.06
382.78
333.08
284.55
236.95
190.16
144.52
100.55
58.47
18.21
-20.06
-55.38
-85.91
-109.60
-125.05
-132.25
-132.74
-129.21
-124.83
-122.67
-125.14
-133.75
-148.78
-169.12
-192.41
-215.38
-234.63
-247.48
-252.46
-249.48
-239.51
-224.01
-204.56
-182.66
-159.76
-137.19
-116.06
-97.09
-80.51
-66.26
-54.26
-44.55
-37.34
-32.78
-30.74
-30.56
-31.37
-32.17
-32.27
-31.43
-29.74
-27.40
-24.65
-21.70
-18.96
-17.09
-16.78
-18.48
-21.96
-26.19
-29.73
-31.20
-29.95
-26.27
-21.20
-15.85
-10.87
-6.16
-1.05
5.14
12.66
21.10
29.62
37.38
43.87
49.09
53.26
56.65
59.24
60.81
61.15
60.25
58.36
55.81
52.79
49.19
44.59
38.47
30.54
20.88
10.05
-1.08
-11.52
-20.40
-27.24
-31.96
-34.97
-37.00
-38.89
-41.33
-44.63
-48.68
-52.94
-56.70
-59.26
-60.15
-59.22
-56.58
-52.57
-47.63
-42.28
-37.04
-32.41
-28.78
-26.31
-24.89
-24.17
-23.69
-23.05
-22.05
-20.72
-19.25
-17.88
-16.83
-16.23
-16.18
-16.76
-18.10
-20.23
-23.07
-26.35
-29.63
-32.47
-34.53
-35.76
-36.37
-36.71
-37.17
-37.98
-39.23
-40.77
-42.38
-43.67
-44.21
-43.57
-41.43
-37.76
-32.82
-27.24
-21.80
-17.29
-14.25
-12.86
-12.89
-13.86
-15.21
-16.49
-17.47
-18.09
-18.32
-18.09
-17.20
-15.46
-12.85
-9.56
-6.08
-2.94
-0.60
0.76
1.20
0.93
0.21
-0.75
-1.80
-2.82
-3.70
-4.39
-4.92
-5.37
-5.83
-6.26
-6.48
-6.21
-5.15
-3.10
-0.06
3.83
8.27
12.86
17.16
20.77
23.40
24.97
25.60
25.57
25.11
24.40
23.46
22.29
21.01
19.84
19.10
19.04
19.68
20.75
21.80
22.31
21.92
20.49
18.17
15.28
12.20
9.23
6.47
3.85
1.19
-1.69
-4.78
-7.94
-10.84
-13.09
-14.32
-14.23
-12.62
-9.44
-4.88
0.64
6.48
11.93
16.38
19.54
21.40
22.25
22.44
22.29
21.98
21.59
21.14
20.69
20.24
19.77
19.16
18.25
16.89
15.04
12.80
10.34
7.85
5.44
3.08
0.69
-1.76
-4.23
-6.57
-8.57
-10.12
-11.28
-12.24
-13.30
-14.65
-16.31
-18.04
-19.41
-19.86
-18.90
-16.23
-11.82
-6.02
0.54
7.03
12.69
16.97
19.69
20.97
21.18
20.73
19.99
19.19
18.50
18.04
17.85
17.91
18.13
18.31
18.24
17.73
16.76
15.38
13.77
12.12
10.57
9.17
7.88
6.64
5.39
4.13
2.89
1.73
0.71
-0.17
-0.95
-1.74
-2.68
-3.86
-5.27
-6.73
-7.92
-8.38
-7.62
-5.23
-1.03
4.85
11.88
19.28
26.12
31.68
35.58
37.85
38.79
38.82
38.25
37.25
35.95
34.48
33.03
31.81
30.88
30.19
29.47
28.45
26.90
24.73
21.98
18.80
15.36
11.84
8.36
4.98
1.63
-1.84
-5.58
-9.63
-13.93
-18.33
-22.68
-26.82
-30.69
-34.31
-37.80
-41.38
-45.29
-49.78
-55.02
-61.01
-67.50
-74.06
-80.15
-85.30
-89.18
-91.56
-92.46
-92.14
-91.06
-89.84
-89.19
-89.82
-92.32
-97.05
-103.63
-111.41
-119.48
-126.92
-132.95
-137.28
-140.10
-141.97
-143.27
-142.89
-138.87
-128.57
-109.35
-79.38
-38.24
12.56
69.77
128.73
185.25
234.87
273.83
299.96
313.63
317.95
317.97
318.79
323.50
333.04
344.07
350.64
346.81
329.47
299.64
261.89
222.27
177.43
127.87
76.37
27.86
-12.68
-42.25
-60.46
-69.13
-71.45
-70.78
-68.29
-64.59
-59.70
-53.45
-46.06
-38.33
-31.43
-26.62
-24.76
-24.94
-26.36
-28.66
-32.10
-37.65
-46.58
-59.96
-78.01
-99.93
-120.93
-138.41
-150.90
-158.43
-162.19
-163.82
-164.75
-165.94
-167.97
-170.68
-173.64
-174.88
-171.04
-158.29
-134.08
-98.88
-56.74
-14.15
22.60
49.16
64.90
71.82
73.02
70.84
66.53
60.68
54.15
48.63
46.02
48.31
55.92
66.82
76.50
79.03
69.24
45.44
10.90
-27.43
-60.25
-79.99
-83.42
-72.14
-50.94
-25.07
1.99
29.79
57.44
84.15
108.12
126.84
138.19
141.57
137.96
129.07
116.61
101.36
83.33
62.19
38.04
11.84
-13.84
-37.15
-56.92
-73.04
-86.42
-98.35
-109.56
-119.70
-127.54
-131.76
-132.09
-129.75
-127.46
-127.79
-132.48
-140.98
-150.57
-157.87
-160.31
-157.73
-151.68
-145.28
-138.37
-130.14
-119.49
-106.44
-91.88
-76.28
-58.03
-32.99
2.89
49.63
99.86
140.50
158.42
147.62
113.36
70.06
34.31
16.38
16.14
24.44
29.86
25.39
11.15
-6.90
-22.07
-30.87
-34.54
-37.16
-42.25
-50.21
-58.31
-62.63
-60.56
-52.56
-41.65
-32.27
-27.81
-29.22
-34.61
-40.29
-42.62
-39.77
-32.67
-24.14
-17.97
-17.05
-22.10
-31.49
-42.02
-50.46
-55.02
-56.10
-55.41
-55.44
-57.84
-62.38
-66.75
-67.41
-60.82
-44.64
-21.49
5.76
33.86
60.50
85.12
108.77
133.56
161.73
195.18
234.71
279.94
327.85
372.33
404.65
415.27
397.10
348.60
275.87
191.55
111.89
51.38
18.76
15.64
37.94
79.27
133.73
196.68
263.50
328.11
382.18
416.96
426.49
410.26
373.93
327.01
279.03
236.21
200.64
171.10
145.45
122.44
102.10
85.08
71.79
61.93
54.98
50.76
49.03
49.37
50.63
50.19
44.23
28.71
-0.21
-44.99
-105.31
-177.79
-254.85
-326.11
-381.48
-415.05
-427.47
-427.16
-427.02
-438.90
-469.42
-516.28
-569.32
-614.94
-641.72
-643.54
-621.93
-583.49
-536.08
-486.92
-440.17
-397.30
-358.75
-325.48
-298.59
-280.20
-271.24
-262.73
-246.91
-218.57
-176.85
-125.58
-77.67
-38.54
-9.29
12.54
32.39
57.73
94.35
145.70
212.54
292.52
380.73
468.77
546.10
601.68
625.23
610.90
560.13
481.95
390.48
301.30
225.36
166.95
124.70
93.86
70.04
51.22
37.26
28.21
23.44
20.39
15.97
8.36
-2.53
-15.00
-26.17
-33.58
-36.43
-35.22
-32.19
-29.96
-30.12
-33.05
-38.26
-45.15
-53.30
-62.14
-69.80
-73.11
-69.35
-56.96
-37.33
-15.11
3.09
11.36
5.82
-11.63
-36.04
-61.86
-84.89
-103.09
-115.62
-122.17
-121.75
-113.28
-96.35
-72.28
-43.93
-14.59
11.80
33.43
50.00
62.32
71.57
78.81
84.23
87.41
87.76
84.94
79.50
72.47
65.15
58.69
53.77
50.33
47.74
45.20
42.02
38.16
33.89
29.70
26.05
23.21
21.14
19.53
18.05
16.36
14.53
12.66
10.90
9.41
8.24
7.39
6.79
6.73
6.83
7.17
7.77
8.60
9.63
10.73
11.74
12.51
13.20
13.34
12.77
11.38
9.05
5.75
1.54
-3.34
-8.50
-13.46
-17.80
-21.13
-23.26
-24.30
-24.53
-24.26
-23.68
-22.76
-21.32
-19.18
-16.19
-12.48
-8.47
-4.71
-1.68
0.47
2.04
3.63
5.85
9.09
13.25
17.79
21.95
25.11
27.07
28.14
28.98
30.37
32.94
37.20
43.40
51.16
59.16
65.05
65.95
59.59
45.38
25.04
2.19
-18.95
-35.13
-45.16
-49.78
-50.83
-50.03
-48.33
-46.06
-43.29
-40.38
-38.07
-37.17
-38.08
-40.59
-44.05
-46.84
-48.03
-47.29
-44.90
-41.50
-37.78
-34.27
-31.19
-28.42
-25.70
-22.81
-19.65
-16.31
-13.07
-10.31
-8.36
-7.28
-6.83
-6.53
-5.96
-4.92
-3.48
-2.00
-0.88
-0.40
-0.55
-1.12
-1.83
-2.48
-3.05
-3.54
-4.00
-4.43
-4.79
-5.10
-5.49
-6.14
-7.22
-8.74
-10.48
-12.04
-12.97
-12.88
-11.59
-9.16
-5.85
-2.09
1.64
4.96
7.64
9.64
11.06
12.08
12.85
13.44
13.84
14.03
14.00
13.80
13.54
13.29
13.10
12.90
12.60
12.11
11.39
10.54
9.67
8.86
8.08
7.13
5.83
4.07
1.94
-0.29
-2.26
-3.75
-4.69
-5.26
-5.76
-6.45
-7.51
-8.97
-10.70
-12.45
-13.87
-14.58
-14.25
-12.74
-10.16
-6.88
-3.39
-0.20
2.37
4.19
5.39
6.19
6.78
7.29
7.72
8.08
8.35
8.55
8.72
8.88
8.99
8.97
8.73
8.25
7.59
6.87
6.23
5.73
5.36
5.01
4.56
3.90
2.99
1.88
0.71
-0.36
-1.21
-1.81
-2.25
-2.70
-3.34
-4.30
-5.54
-6.87
-7.99
-8.56
-8.34
-7.16
-5.07
-2.20
1.12
4.56
7.77
10.46
12.49
13.83
14.59
14.92
14.97
14.85
14.63
14.35
14.02
13.62
13.14
12.55
11.86
11.07
10.20
9.28
8.29
7.15
5.79
4.16
2.25
0.17
-1.90
-3.77
-5.30
-6.43
-7.23
-7.84
-8.49
-9.40
-10.73
-12.50
-14.53
-16.46
-17.83
-18.18
-17.26
-15.09
-11.94
-8.28
-4.56
-1.15
1.78
4.17
6.05
7.46
8.46
9.10
9.48
9.72
9.91
10.10
10.26
10.31
10.18
9.83
9.27
8.56
7.79
7.05
6.42
5.90
5.44
4.89
4.10
2.93
1.36
-0.52
-2.48
-4.27
-5.68
-6.63
-7.22
-7.69
-8.32
-9.32
-10.73
-12.33
-13.73
-14.49
-14.22
-12.80
-10.30
-7.05
-3.45
0.09
3.22
5.77
7.69
9.10
10.19
11.15
12.13
13.15
14.19
15.21
16.18
17.10
17.94
18.63
19.04
19.03
18.53
17.55
16.22
14.72
13.21
11.81
10.55
9.39
8.28
7.16
5.95
4.56
2.93
0.99
-1.16
-3.36
-5.32
-6.77
-7.57
-7.77
-7.58
-7.30
-7.18
-7.29
-7.55
-7.70
-7.49
-6.60
-4.76
-1.78
2.47
7.96
14.45
21.52
28.60
35.14
40.77
45.41
49.28
52.88
56.75
61.26
66.47
72.02
77.19
81.22
83.63
84.50
84.43
84.24
84.55
85.42
86.32
86.41
84.77
80.77
73.99
64.00
50.13
31.39
6.81
-24.13
-61.10
-102.88
-147.39
-191.56
-231.32
-261.58
-276.66
-271.43
-243.16
-193.32
-128.74
-60.44
-0.60
41.23
60.95
60.71
47.35
29.36
13.82
3.98
-0.13
0.02
3.18
8.75
16.41
25.56
35.24
44.22
50.17
51.14
46.63
37.97
27.43
17.11
8.56
2.69
-0.14
-2.17
-6.24
-13.85
-24.12
-34.72
-43.41
-48.69
-49.99
-47.49
-44.84
-46.66
-56.04
-73.47
-97.83
-127.84
-162.30
-199.79
-221.10
-210.71
-165.69
-98.61
-27.27
36.33
88.29
129.74
163.38
189.18
206.92
214.30
210.11
196.22
176.61
155.21
134.50
114.38
96.72
79.33
59.17
35.04
8.45
-17.71
-41.30
-61.86
-80.84
-99.54
-119.28
-139.86
-159.32
-174.77
-183.48
-183.37
-172.47
-150.07
-116.07
-73.05
-27.07
12.73
36.68
38.63
18.90
-15.23
-54.25
-87.71
-106.69
-105.14
-81.39
-38.65
15.73
71.46
117.41
141.37
136.14
102.63
49.09
-13.39
-75.36
-131.01
-178.08
-199.30
-184.86
-139.64
-80.60
-23.79
22.57
56.59
79.78
95.15
106.38
113.54
116.60
116.61
115.79
115.76
116.85
118.61
120.11
121.77
121.27
116.83
108.22
96.59
83.09
68.11
51.53
33.54
17.96
4.15
-8.68
-20.47
-30.38
-37.70
-42.41
-45.04
-45.84
-45.08
-44.14
-43.79
-44.00
-44.31
-44.29
-43.81
-43.14
-42.05
-40.65
-39.75
-39.76
-40.61
-42.03
-43.60
-44.88
-47.27
-48.86
-48.60
-46.06
-40.75
-32.30
-20.73
-6.20
12.48
33.04
54.22
74.70
93.20
108.76
120.65
128.11
131.11
129.55
123.23
112.86
99.00
82.30
63.65
44.91
26.93
10.54
-3.69
-15.60
-24.83
-31.40
-35.57
-37.67
-38.06
-37.28
-35.71
-33.77
-31.90
-30.19
-28.72
-27.51
-26.45
-25.28
-23.91
-22.27
-20.47
-18.82
-17.58
-16.90
-16.81
-17.05
-17.14
-16.75
-15.65
-14.06
-12.56
-11.81
-12.24
-13.88
-16.25
-18.45
-19.66
-19.49
-18.27
-16.94
-17.10
-19.23
-23.34
-28.59
-33.62
-37.28
-38.94
-38.98
-38.42
-38.49
-40.18
-44.22
-51.09
-60.63
-71.52
-80.74
-84.02
-77.27
-58.62
-30.02
2.99
33.13
54.48
64.66
65.21
60.06
53.14
46.62
40.64
34.38
27.38
20.23
14.22
10.28
8.28
7.05
5.04
0.99
-5.27
-12.99
-20.81
-27.48
-32.41
-35.89
-38.87
-42.50
-47.53
-53.92
-60.95
-67.47
-72.28
-74.57
-73.98
-70.57
-64.62
-56.59
-46.36
-33.80
-18.94
-2.08
16.05
34.38
51.64
66.57
78.21
85.98
89.68
89.40
85.47
78.36
68.63
56.89
43.81
30.10
16.50
3.72
-7.68
-17.24
-24.71
-30.04
-33.35
-34.91
-35.07
-34.29
-32.97
-31.48
-30.16
-29.26
-28.95
-29.30
-30.29
-31.89
-34.00
-36.38
-38.88
-41.44
-44.09
-46.94
-50.03
-53.42
-57.20
-61.48
-66.12
-71.08
-76.37
-82.05
-88.15
-94.60
-101.26
-107.97
-114.58
-120.63
-125.81
-130.00
-133.20
-135.45
-136.43
-135.62
-132.12
-127.12
-120.89
-113.71
-105.97
-98.23
-91.12
-84.46
-77.84
-70.57
-61.89
-50.88
-37.14
-20.98
-3.28
14.75
33.25
52.62
73.50
96.62
122.64
151.52
182.37
213.77
244.15
274.23
305.01
337.56
372.74
411.25
453.69
500.67
552.45
607.76
665.12
719.30
762.20
785.58
784.34
758.63
713.90
658.74
586.08
493.75
382.45
257.10
127.11
3.91
-102.82
-187.62
-249.90
-292.80
-318.81
-330.92
-332.24
-325.14
-311.45
-292.83
-270.82
-246.96
-223.03
-199.27
-175.41
-153.46
-135.85
-124.76
-121.51
-126.58
-139.73
-160.17
-185.79
-213.47
-240.87
-266.39
-289.51
-310.48
-329.89
-347.27
-360.05
-362.68
-349.36
-317.21
-268.32
-210.21
-153.57
-108.36
-80.08
-68.12
-66.63
-68.51
-68.83
-66.01
-61.69
-56.90
-51.51
-43.88
-31.80
-13.57
10.85
40.18
72.63
106.86
141.68
174.70
201.80
216.21
213.44
193.22
160.68
124.89
95.62
79.48
77.57
86.10
99.01
111.26
119.84
124.64
125.54
122.12
113.38
98.20
76.02
47.26
13.78
-21.70
-56.13
-86.69
-111.37
-129.07
-140.03
-145.27
-146.25
-144.08
-140.07
-135.72
-132.69
-131.95
-132.66
-131.92
-125.05
-107.65
-77.49
-36.33
10.71
57.43
99.60
136.90
172.55
210.86
252.41
294.80
330.36
350.20
348.30
324.28
283.57
234.86
186.49
143.47
106.69
74.08
43.12
12.67
-16.64
-43.39
-66.65
-86.78
-105.28
-123.94
-144.23
-166.72
-191.27
-218.00
-248.06
-283.59
-326.46
-376.13
-428.02
-473.71
-503.25
-508.81
-488.01
-444.95
-388.48
-328.65
-273.25
-226.02
-187.25
-155.57
-129.79
-109.58
-95.02
-85.79
-80.70
-78.05
-76.42
-75.24
-74.80
-76.05
-79.68
-85.59
-92.71
-99.34
-103.75
-104.89
-102.69
-98.08
-92.57
-87.52
-83.78
-81.45
-80.05
-78.87
-77.45
-75.74
-74.06
-72.94
-72.76
-73.55
-74.99
-76.48
-77.42
-77.43
-76.42
-74.59
-72.34
-69.98
-67.77
-65.80
-63.96
-62.15
-60.24
-58.17
-55.90
-53.46
-50.83
-47.99
-44.91
-41.53
-37.85
-33.91
-29.80
-25.64
-21.56
-17.66
-13.99
-10.50
-7.11
-3.75
-0.36
3.05
6.40
9.62
12.71
15.76
18.98
22.64
26.95
31.95
37.46
43.10
48.46
53.28
57.58
61.66
66.08
71.33
77.68
85.00
92.82
100.59
107.96
115.00
122.27
130.60
140.66
152.67
166.20
180.38
194.22
207.11
219.00
230.46
242.42
255.91
271.95
291.31
314.13
339.40
364.59
385.88
399.07
401.03
390.94
370.61
343.75
314.49
285.89
259.36
234.90
212.05
190.71
171.34
154.76
141.43
131.07
122.65
114.82
106.43
97.00
86.94
77.21
68.82
62.26
57.17
52.48
47.07
40.31
32.49
24.69
18.17
13.73
11.33
10.18
9.14
7.33
4.39
0.56
-3.56
-7.34
-10.44
-12.85
-14.86
-16.82
-18.91
-21.07
-23.03
-24.45
-25.13
-25.14
-24.85
-24.66
-24.87
-25.48
-26.18
-26.58
-26.30
-25.26
-23.65
-21.95
-20.69
-20.32
-20.94
-22.25
-23.58
-24.16
-23.37
-20.99
-17.33
-13.09
-9.10
-5.99
-3.97
-2.76
-1.87
-0.75
0.82
2.67
4.38
5.38
5.40
4.43
2.79
0.91
-0.92
-2.57
-4.05
-5.33
-6.33
-6.86
-6.88
-6.58
-6.35
-6.65
-7.73
-9.48
-11.45
-13.08
-13.88
-13.71
-12.78
-11.60
-10.76
-10.79
-11.94
-14.06
-16.57
-18.62
-19.40
-18.48
-16.04
-12.79
-9.70
-7.55
-6.60
-6.57
-6.80
-6.65
-5.81
-4.32
-2.50
-0.72
0.78
1.89
2.63
2.95
2.72
1.78
0.13
-2.01
-4.16
-5.79
-6.51
-6.30
-5.47
-4.48
-3.77
-3.61
-4.15
-5.35
-7.09
-9.04
-10.71
-11.57
-11.24
-9.89
-8.21
-7.23
-7.71
-9.70
-12.42
-14.67
-15.46
-14.57
-12.66
-10.78
-9.74
-9.65
-9.89
-9.57
-8.07
-5.39
-2.13
0.87
2.97
3.91
3.84
3.18
2.33
1.61
1.12
0.80
0.45
0.02
-0.42
-0.53
0.04
1.42
3.26
4.83
5.31
4.21
1.77
-1.22
-3.79
-5.23
-5.47
-4.94
-4.27
-3.90
-3.98
-4.39
-4.99
-5.68
-6.37
-6.90
-6.92
-6.07
-4.12
-1.24
2.01
4.92
6.85
7.61
7.41
6.84
6.49
6.71
7.48
8.42
9.05
8.97
8.06
6.39
4.26
2.01
-0.08
-1.79
-3.01
-3.79
-4.34
-5.05
-6.38
-8.72
-12.17
-16.50
-21.10
-25.15
-27.87
-28.87
-28.37
-27.39
-27.49
-30.12
-36.06
-44.74
-54.39
-62.53
-67.03
-66.92
-62.71
-56.01
-48.67
-41.96
-36.13
-30.61
-24.60
-17.57
-9.68
-1.56
5.90
11.98
16.24
18.65
19.40
18.79
17.14
14.79
12.18
9.77
8.00
7.14
7.07
7.29
7.08
5.79
3.15
-0.52
-4.44
-7.65
-9.50
-9.91
-9.56
-9.46
-10.59
-13.37
-17.47
-21.92
-25.50
-27.19
-26.69
-24.54
-21.94
-20.41
-21.29
-25.46
-33.10
-43.65
-55.80
-67.73
-77.45
-83.27
-84.08
-79.57
-70.15
-56.65
-40.01
-21.09
-0.67
20.38
40.92
59.63
75.11
86.33
92.91
95.17
93.88
90.12
84.95
79.22
73.47
67.96
62.73
57.71
52.68
47.37
41.66
35.77
30.25
25.80
22.96
21.95
22.82
25.17
28.43
32.01
35.49
38.69
41.74
44.88
48.37
52.99
59.15
66.88
75.83
85.45
95.19
104.66
113.66
122.09
131.29
142.37
156.08
172.64
191.62
212.12
233.03
253.21
271.69
290.15
310.37
333.74
360.63
389.99
419.46
446.08
467.18
481.03
490.38
498.76
509.42
523.99
541.82
560.65
578.17
593.68
589.16
553.40
480.29
370.87
233.65
82.19
-69.15
-209.01
-330.69
-432.18
-511.74
-569.90
-608.59
-630.47
-638.59
-636.07
-625.70
-609.89
-590.93
-568.56
-542.48
-512.20
-477.51
-439.28
-399.92
-363.21
-333.12
-312.34
-299.59
-291.20
-282.42
-269.56
-251.58
-230.10
-208.03
-187.81
-170.33
-154.42
-138.81
-123.08
-107.94
-94.92
-85.17
-78.74
-74.82
-72.09
-69.24
-65.64
-61.19
-55.78
-49.12
-40.88
-30.99
-20.15
-9.68
-1.19
4.15
6.17
5.81
4.66
4.11
4.75
6.09
7.11
7.06
5.77
4.03
2.98
3.37
5.23
7.89
10.70
13.55
16.97
21.60
27.66
34.33
40.17
43.47
43.40
40.18
34.88
28.73
22.40
16.01
9.24
1.89
-5.85
-13.33
-19.80
-24.74
-28.03
-30.04
-31.27
-32.16
-32.74
-32.74
-31.80
-29.80
-26.91
-23.56
-20.24
-17.32
-15.04
-13.53
-12.88
-13.24
-14.59
-16.58
-18.41
-19.13
-17.84
-14.30
-9.05
-3.31
1.26
3.44
2.80
-0.03
-3.64
-6.16
-5.75
-1.11
8.15
21.12
35.83
49.87
60.99
67.66
69.58
67.29
61.73
53.60
42.85
29.26
12.93
-5.32
-24.12
-41.98
-58.00
-72.28
-83.41
-91.21
-95.77
-97.33
-96.16
-92.63
-87.11
-79.91
-71.11
-60.55
-48.45
-35.42
-22.56
-11.34
-3.59
-0.66
-3.17
-10.58
-21.10
-32.23
-40.86
-44.02
-39.52
-26.69
-6.50
18.51
44.62
67.70
84.07
91.62
90.36
82.55
71.79
61.85
55.31
52.90
53.61
55.43
56.41
55.31
51.81
46.11
38.77
30.35
21.40
12.48
3.55
-5.94
-16.90
-29.73
-43.52
-55.61
-62.46
-61.18
-51.22
-35.09
-17.68
-4.26
1.53
-1.11
-10.39
-23.03
-36.01
-47.49
-56.81
-64.01
-69.12
-71.81
-71.52
-67.68
-59.83
-47.68
-31.05
-10.08
14.51
41.23
68.01
92.61
113.30
129.32
140.87
148.74
153.67
155.98
155.57
152.43
147.15
141.08
135.95
133.07
132.61
133.22
132.31
126.91
114.65
94.59
67.49
35.53
1.51
-32.00
-63.22
-91.36
-116.32
-138.19
-156.88
-171.90
-182.60
-188.46
-189.45
-186.08
-179.32
-170.21
-159.60
-148.11
-136.18
-124.36
-113.38
-103.94
-96.57
-91.20
-87.07
-82.96
-77.67
-70.43
-61.28
-51.08
-41.15
-32.83
-26.94
-23.55
-21.86
-20.61
-18.45
-14.43
-8.31
-0.53
8.06
16.54
24.23
30.84
36.38
40.99
44.90
48.48
52.21
56.65
62.13
68.39
74.60
79.54
82.06
81.62
78.51
73.75
68.56
63.97
60.41
57.79
55.77
54.08
52.72
51.94
51.99
52.86
54.16
55.18
55.12
53.32
49.53
43.99
37.35
30.57
24.77
21.05
20.19
22.42
27.29
33.71
40.39
46.20
50.52
53.21
54.46
54.58
53.87
52.63
51.19
49.92
48.99
48.17
46.90
44.67
41.51
38.37
36.92
38.84
45.03
54.90
66.47
76.85
83.18
83.34
76.29
62.12
41.82
17.03
-10.11
-37.34
-62.68
-84.74
-102.83
-116.75
-126.54
-132.32
-134.38
-133.50
-131.07
-128.80
-128.22
-129.94
-133.41
-137.28
-140.05
-140.86
-139.64
-136.68
-131.96
-124.84
-114.04
-98.48
-78.05
-54.06
-29.08
-5.98
12.86
26.41
34.94
39.66
42.37
45.54
52.35
66.29
90.17
124.86
168.40
215.85
260.51
296.17
319.16
329.06
327.79
318.34
303.53
285.60
265.83
243.95
218.16
185.36
142.09
85.92
17.24
-59.89
-138.38
-210.28
-270.29
-316.23
-348.62
-369.35
-381.04
-386.46
-388.03
-387.30
-384.17
-378.76
-369.44
-352.57
-323.31
-278.35
-217.75
-145.18
-66.81
10.84
79.19
132.59
170.41
196.61
215.60
228.81
233.65
225.24
199.38
150.58
77.94
-13.28
-112.85
-211.02
-301.67
-382.84
-454.82
-490.47
-469.76
-391.88
-278.70
-158.53
-51.32
35.37
101.95
152.42
191.65
219.29
233.91
235.28
227.03
211.95
191.98
168.32
142.23
115.46
86.52
53.76
17.10
-14.56
-35.42
-43.23
-39.13
-26.05
-6.88
13.82
32.21
46.41
57.17
64.98
70.97
76.64
83.51
93.06
105.15
118.66
132.21
145.55
156.51
163.24
164.56
160.04
149.82
133.88
112.09
83.44
50.53
15.26
-20.07
-52.79
-80.32
-100.86
-113.81
-120.04
-121.25
-119.41
-117.00
-115.83
-117.03
-120.87
-126.16
-129.89
-127.68
-115.10
-90.12
-55.13
-16.23
18.92
44.16
57.19
59.85
56.48
51.39
46.96
43.23
39.27
34.66
30.04
26.78
25.85
27.08
29.27
30.81
30.33
27.60
23.46
19.36
16.64
15.89
16.82
18.40
19.43
19.04
17.13
14.29
11.51
9.64
9.07
9.59
10.53
11.10
10.77
9.51
7.70
5.98
4.89
4.67
5.17
6.00
6.65
6.72
6.16
5.14
4.04
3.06
2.16
0.92
-1.19
-4.78
-10.26
-17.45
-25.73
-33.86
-40.32
-43.65
-42.98
-38.17
-30.18
-20.64
-11.26
-3.18
3.22
8.17
12.02
14.82
16.49
17.03
16.84
16.56
16.49
16.47
15.89
14.29
11.77
9.05
6.75
4.97
3.06
0.15
-4.07
-8.67
-11.91
-12.11
-8.63
-2.28
4.98
10.86
13.47
11.98
6.88
-0.16
-6.56
-9.71
-8.13
-2.11
6.29
13.99
18.46
18.59
15.00
9.54
4.12
-0.01
-2.54
-3.66
-3.80
-3.19
-2.05
-0.81
-0.04
-0.46
-2.49
-5.98
-10.14
-13.76
-15.60
-14.98
-12.26
-8.90
-7.00
-8.54
-14.27
-22.98
-31.74
-36.97
-36.08
-28.70
-16.86
-4.13
5.98
11.46
12.33
10.21
7.24
5.12
4.52
5.24
6.60
7.85
8.47
8.20
7.11
5.43
3.53
1.84
0.81
0.76
1.78
3.72
6.21
8.69
10.50
11.13
10.24
7.97
4.78
1.52
-0.96
-2.06
-1.67
-0.35
0.89
0.94
-0.96
-4.85
-9.88
-14.58
-17.35
-17.10
-13.69
-8.02
-1.66
3.71
7.06
8.19
7.78
6.86
6.37
6.75
7.87
9.40
10.96
12.43
13.82
15.07
15.93
15.99
14.87
12.59
9.78
7.45
6.64
7.85
10.68
13.99
16.34
16.70
14.89
11.61
8.08
5.44
4.24
4.31
5.04
5.64
5.48
4.31
2.14
-0.72
-3.68
-5.92
-6.73
-5.92
-4.12
-2.64
-2.94
-5.83
-11.00
-17.03
-22.05
-24.58
-24.10
-21.10
-16.65
-11.78
-7.18
-3.15
0.18
2.75
4.50
5.52
6.13
6.77
7.83
9.38
11.31
13.23
14.67
15.23
14.74
13.28
11.26
9.23
7.74
7.08
7.17
7.60
7.69
6.91
4.96
2.11
-1.06
-3.72
-5.20
-5.30
-4.23
-2.64
-1.20
-0.52
-0.93
-2.55
-5.17
-8.25
-10.93
-12.19
-11.25
-7.90
-2.72
3.14
8.41
12.29
14.75
16.31
17.59
18.93
20.21
21.03
21.10
20.55
19.82
19.53
20.05
21.37
23.06
24.59
25.51
25.60
25.01
24.00
22.87
21.72
20.47
19.04
17.38
15.58
13.77
12.13
10.87
10.25
10.23
10.84
12.09
14.00
16.51
19.41
22.48
25.72
29.74
34.61
40.34
46.66
53.29
60.21
67.80
76.82
87.87
100.90
113.69
123.24
127.05
124.25
115.60
102.38
84.96
62.19
32.04
-8.39
-60.05
-120.98
-186.69
-251.97
-312.90
-367.62
-416.19
-448.91
-456.59
-432.99
-378.79
-301.98
-213.79
-124.34
-40.03
36.16
103.26
159.88
204.88
237.51
258.36
269.07
270.97
265.21
253.00
235.65
213.92
188.94
162.24
135.54
110.22
86.65
64.06
43.22
24.25
6.72
-9.75
-25.49
-40.81
-56.33
-73.02
-92.09
-114.83
-143.01
-178.55
-222.71
-274.91
-331.38
-384.95
-426.52
-447.69
-443.80
-415.99
-370.57
-316.43
-261.81
-211.88
-168.27
-130.17
-95.97
-64.52
-35.26
-7.45
20.40
50.24
83.24
118.58
152.83
180.83
197.52
200.17
189.79
170.80
149.25
130.35
116.65
107.76
101.60
96.11
90.61
85.86
83.09
82.83
84.33
85.90
85.88
83.56
79.40
74.72
70.67
67.57
64.93
61.77
57.41
52.00
46.34
41.50
38.23
36.64
36.15
35.88
34.89
32.35
27.68
20.61
11.17
0.04
-11.65
-22.47
-31.15
-37.00
-40.13
-41.35
-41.71
-42.11
-42.84
-43.50
-43.15
-40.70
-35.43
-27.51
-18.07
-8.95
-2.15
1.03
0.36
-3.23
-8.20
-13.12
-17.20
-20.43
-23.18
-25.81
-28.15
-29.59
-29.44
-27.37
-23.71
-19.28
-14.97
-11.21
-7.84
-4.17
0.43
6.01
11.78
16.32
18.22
16.74
12.14
5.59
-1.23
-6.74
-9.95
-10.52
-8.73
-5.15
-0.47
4.68
9.80
14.72
19.61
25.13
32.28
41.96
54.39
68.62
82.43
92.83
97.06
93.65
83.18
68.19
52.30
39.02
30.74
28.39
31.57
39.11
49.40
60.62
70.82
78.05
80.83
78.59
71.94
62.59
52.71
44.15
37.87
33.75
30.92
28.25
24.93
20.72
15.99
11.46
7.81
5.37
4.00
3.11
1.93
-0.31
-3.95
-8.85
-14.28
-19.08
-22.04
-22.36
-20.00
-15.74
-10.86
-6.46
-3.01
-0.10
3.31
8.30
15.36
24.14
33.46
41.60
46.81
47.69
43.58
34.76
22.48
8.71
-4.40
-15.17
-23.00
-28.54
-33.51
-39.96
-49.47
-62.44
-77.80
-93.13
-105.48
-112.28
-112.24
-105.97
-95.62
-84.11
-74.11
-67.08
-63.04
-60.74
-58.39
-54.45
-48.19
-39.78
-30.05
-20.04
-10.58
-2.04
5.52
12.27
18.34
23.76
28.58
32.90
36.89
40.69
44.29
47.42
49.73
50.93
51.04
50.38
49.41
48.45
47.59
46.57
44.92
42.11
37.81
31.97
24.91
17.22
9.66
2.98
-2.26
-5.86
-8.03
-9.37
-10.67
-12.70
-15.85
-19.92
-24.08
-27.13
-27.92
-25.87
-21.22
-14.99
-8.61
-3.35
0.15
1.97
2.79
3.49
4.69
6.53
8.67
10.58
11.77
12.04
11.48
10.41
9.15
7.95
6.87
5.89
4.99
4.23
3.63
3.18
2.76
2.10
0.93
-0.93
-3.40
-6.13
-8.51
-9.95
-10.12
-9.13
-7.53
-6.13
-5.64
-6.46
-8.42
-10.87
-12.90
-13.58
-12.35
-9.12
-4.34
1.18
6.55
11.09
14.57
17.16
19.29
21.35
23.41
25.25
26.52
26.93
26.53
25.63
24.68
23.97
23.54
23.13
22.37
21.03
19.05
16.69
14.40
12.63
11.69
11.55
11.86
12.07
11.62
10.18
7.78
4.85
1.94
-0.47
-2.15
-3.17
-3.83
-4.51
-5.56
-7.19
-9.50
-12.30
-15.16
-17.46
-18.45
-17.67
-15.06
-11.13
-6.78
-2.91
-0.10
1.63
2.66
3.58
4.81
6.41
8.08
9.43
10.15
10.22
9.91
9.61
9.59
9.94
10.44
10.68
10.26
8.95
6.74
3.89
0.73
-2.37
-5.16
-7.51
-9.47
-11.30
-13.37
-16.10
-19.62
-23.68
-27.54
-30.37
-31.48
-30.71
-28.53
-25.78
-23.43
-22.12
-22.09
-23.22
-25.15
-27.39
-29.33
-30.27
-29.54
-26.76
-22.03
-16.06
-9.97
-4.84
-1.34
0.54
1.39
2.13
3.46
5.66
8.50
11.35
13.66
15.02
15.32
14.68
13.40
11.75
9.98
8.34
6.97
5.96
5.28
4.77
4.18
3.32
2.01
0.21
-1.97
-4.31
-6.45
-7.97
-8.52
-8.03
-6.78
-5.48
-4.99
-6.00
-8.58
-12.10
-15.37
-17.15
-16.64
-13.87
-9.62
-5.09
-1.33
1.13
2.38
3.01
3.61
4.62
6.12
7.91
9.65
11.00
11.77
11.93
11.59
10.87
9.89
8.71
7.34
5.88
4.48
3.37
2.71
2.43
2.15
1.37
-0.30
-2.90
-6.06
-9.09
-11.27
-12.17
-11.71
-10.22
-8.32
-6.68
-5.91
-6.34
-7.89
-10.06
-11.97
-12.66
-11.42
-8.19
-3.47
1.79
6.73
10.84
14.13
16.81
19.13
21.03
22.20
22.33
21.36
19.58
17.61
16.01
15.09
14.78
14.69
14.32
13.35
11.73
9.76
7.95
6.73
6.21
6.10
5.74
4.43
1.79
-1.93
-6.05
-9.60
-11.81
-12.48
-11.89
-10.68
-9.51
-8.92
-9.37
-11.23
-14.64
-19.28
-24.18
-27.79
-28.63
-25.95
-20.14
-12.69
-5.41
0.36
4.28
6.88
9.07
11.37
13.68
15.45
16.16
15.81
14.94
14.32
14.48
15.47
16.76
17.59
17.35
15.96
13.83
11.76
10.47
10.25
10.86
11.57
11.58
10.34
7.81
4.42
0.87
-2.18
-4.41
-5.86
-6.90
-7.99
-9.50
-11.56
-14.04
-16.62
-18.80
-20.15
-20.21
-18.74
-15.84
-11.92
-7.59
-3.48
0.00
2.78
4.97
6.81
8.38
9.58
10.17
10.01
9.16
7.92
6.70
5.84
5.47
5.46
5.48
5.21
4.40
3.05
1.40
-0.21
-1.45
-2.20
-2.63
-3.09
-3.94
-5.44
-7.53
-9.93
-12.22
-14.05
-15.27
-15.99
-16.45
-16.94
-17.69
-18.76
-20.13
-21.64
-23.02
-23.92
-23.90
-22.57
-19.75
-15.62
-10.68
-5.63
-1.13
2.46
5.15
7.19
8.91
10.47
11.77
12.57
12.66
12.06
11.08
10.11
9.48
9.24
9.18
8.97
8.38
7.44
6.40
5.60
5.17
4.97
4.66
3.78
2.12
-0.26
-2.98
-5.60
-7.69
-9.11
-9.93
-10.42
-10.93
-11.79
-13.17
-15.02
-17.07
-18.76
-19.40
-18.35
-15.33
-10.53
-4.63
1.44
6.87
11.18
14.39
16.82
18.82
20.55
21.89
22.60
22.51
21.73
20.50
19.18
18.02
17.05
16.19
15.23
14.11
12.83
11.54
10.33
9.19
8.02
6.55
4.62
2.15
-0.71
-3.65
-6.34
-8.54
-10.22
-11.50
-12.68
-14.06
-15.85
-18.08
-20.57
-22.90
-24.46
-24.69
-23.19
-19.91
-15.19
-9.63
-3.97
1.23
5.64
9.24
12.09
14.28
15.79
16.52
16.40
15.51
14.12
12.63
11.40
10.62
10.20
9.94
9.53
8.88
8.05
7.24
6.64
6.24
5.79
4.90
3.31
0.95
-1.95
-4.99
-7.80
-10.10
-11.84
-13.09
-14.05
-14.93
-16.00
-17.40
-19.12
-20.94
-22.33
-22.64
-21.31
-18.16
-13.49
-7.98
-2.45
2.48
6.48
9.62
12.08
14.02
15.46
16.30
16.50
16.12
15.40
14.62
14.01
13.58
13.20
12.57
11.52
9.96
8.08
6.22
4.78
3.98
3.74
3.69
3.32
2.20
0.15
-2.65
-5.82
-8.91
-11.66
-13.99
-15.95
-17.57
-18.82
-19.70
-20.31
-20.88
-21.67
-22.78
-23.93
-24.48
-23.68
-21.07
-16.71
-11.23
-5.55
-0.52
3.41
6.23
8.24
9.76
10.89
11.56
11.60
11.01
9.98
8.95
8.40
8.61
9.58
10.99
12.32
13.09
13.05
12.26
11.01
9.65
8.33
7.02
5.48
3.49
0.93
-2.13
-5.40
-8.63
-11.52
-13.99
-15.99
-17.56
-18.77
-19.68
-20.43
-21.11
-21.91
-22.81
-23.61
-23.84
-22.96
-20.54
-16.51
-11.27
-5.49
0.08
4.96
9.00
12.30
15.00
17.10
18.45
18.82
18.25
17.02
15.67
14.69
14.35
14.59
15.01
15.20
14.75
13.57
11.74
9.58
7.39
5.38
3.62
1.96
0.19
-1.90
-4.33
-6.93
-9.38
-11.39
-12.80
-13.69
-14.37
-15.14
-16.26
-17.77
-19.45
-20.94
-21.80
-21.59
-20.00
-16.94
-12.62
-7.50
-2.25
2.53
6.40
9.29
11.36
12.93
14.23
15.35
16.26
16.88
17.25
17.45
17.64
17.89
18.08
18.04
17.57
16.54
15.07
13.45
11.96
10.78
9.79
8.62
6.86
4.28
0.84
-3.10
-7.02
-10.41
-12.89
-14.35
-15.00
-15.19
-15.41
-16.17
-17.71
-19.99
-22.60
-24.77
-25.68
-24.70
-21.64
-16.83
-11.09
-5.24
0.00
4.28
7.63
10.19
12.11
13.42
14.06
14.02
13.48
12.75
12.21
12.14
12.54
13.16
13.52
13.21
12.00
10.06
7.85
5.96
4.87
4.62
4.82
4.82
4.02
2.11
-0.74
-4.08
-7.30
-9.92
-11.78
-12.98
-13.83
-14.68
-15.87
-17.58
-19.80
-22.26
-24.44
-25.65
-25.23
-22.84
-18.52
-12.88
-6.70
-0.73
4.49
8.69
11.88
14.12
15.44
15.89
15.58
14.76
13.74
12.85
12.28
12.12
12.33
12.72
13.09
13.20
12.87
12.05
10.92
9.75
8.78
8.05
7.33
6.23
4.38
1.62
-1.91
-5.78
-9.45
-12.42
-14.43
-15.47
-15.78
-15.77
-15.91
-16.55
-17.80
-19.49
-21.20
-22.32
-22.28
-20.71
-17.57
-13.19
-8.11
-2.98
1.65
5.43
8.31
10.39
11.81
12.63
12.84
12.41
11.45
10.28
9.36
9.10
9.65
10.76
11.91
12.53
12.33
11.40
10.15
9.08
8.46
8.16
7.79
6.85
5.05
2.40
-0.74
-3.88
-6.59
-8.64
-10.07
-11.14
-12.18
-13.48
-15.24
-17.45
-19.90
-22.16
-23.60
-23.56
-21.56
-17.51
-11.83
-5.34
0.95
6.25
10.21
13.05
15.25
17.30
19.37
21.23
22.45
22.74
22.06
20.70
19.19
17.98
17.35
17.30
17.69
18.18
18.30
17.37
14.79
10.24
4.05
-2.82
-9.09
-13.67
-16.13
-16.76
-16.35
-15.66
-15.02
-14.38
-13.54
-12.64
-12.27
-13.15
-15.74
-19.74
-24.13
-27.43
-28.45
-26.61
-22.24
-16.48
-10.63
-5.83
-2.60
-0.78
0.18
0.90
1.71
2.63
3.36
3.65
3.50
3.18
3.18
3.88
5.36
7.29
9.11
10.16
10.09
8.94
7.13
5.27
3.79
2.84
2.25
1.58
0.42
-1.46
-3.97
-6.79
-9.44
-11.53
-12.86
-13.42
-13.48
-13.45
-13.74
-14.59
-16.00
-17.63
-18.90
-19.17
-17.88
-14.86
-10.36
-4.96
0.59
5.58
9.60
12.55
14.62
16.16
17.50
18.86
20.26
21.59
22.74
23.62
24.26
24.66
24.80
24.60
23.88
22.52
20.50
18.08
15.66
13.67
12.37
11.71
11.38
10.84
9.63
7.43
4.21
0.24
-4.00
-7.96
-11.22
-13.55
-14.97
-15.77
-16.33
-17.05
-18.19
-19.80
-21.63
-23.25
-24.03
-23.36
-20.92
-16.83
-11.67
-6.24
-1.35
2.54
5.36
7.37
8.92
10.25
11.35
12.05
12.24
11.91
11.29
10.78
10.69
11.16
12.08
13.13
13.90
14.13
13.79
13.10
12.37
11.78
11.25
10.47
9.08
6.86
3.88
0.42
-3.04
-6.14
-8.72
-10.87
-12.88
-15.09
-17.73
-20.79
-23.95
-26.56
-27.83
-27.10
-24.08
-19.00
-12.57
-5.71
0.65
5.81
9.35
11.12
11.22
10.09
8.39
6.86
6.16
6.52
7.81
9.57
11.32
12.79
13.99
15.08
16.13
17.05
17.64
17.74
17.36
16.61
15.52
13.99
11.78
8.71
4.87
0.69
-3.19
-6.22
-8.11
-8.96
-9.09
-9.01
-9.26
-10.44
-13.04
-17.13
-22.17
-26.84
-29.48
-28.70
-24.10
-16.49
-7.60
0.70
7.12
11.40
14.06
15.88
17.28
18.15
18.11
16.93
14.84
12.58
10.94
10.45
11.08
12.24
13.17
13.26
12.42
10.95
9.41
8.13
7.06
5.82
3.90
1.08
-2.50
-6.30
-9.65
-12.04
-13.38
-13.99
-14.45
-15.34
-17.00
-19.33
-21.86
-23.78
-24.28
-22.85
-19.41
-14.43
-8.72
-3.11
1.79
5.73
8.82
11.34
13.46
15.24
16.57
17.28
17.34
16.95
16.37
15.92
15.75
15.74
15.59
15.01
13.88
12.39
10.91
9.81
9.17
8.73
7.99
6.42
3.79
0.25
-3.71
-7.52
-10.71
-13.09
-14.74
-15.89
-16.88
-17.99
-19.41
-21.15
-23.02
-24.65
-25.50
-25.10
-23.14
-19.63
-14.89
-9.52
-4.13
0.77
4.90
8.25
10.90
12.98
14.44
15.13
14.87
13.69
11.85
9.83
8.16
7.13
6.78
6.82
6.86
6.64
6.13
5.44
4.74
4.06
3.26
2.10
0.39
-1.93
-4.66
-7.51
-10.10
-12.19
-13.65
-14.61
-15.27
-15.90
-16.72
-17.78
-18.98
-20.03
-20.48
-19.91
-18.07
-14.91
-10.74
-6.09
-1.43
2.83
6.53
9.69
12.33
14.36
15.67
16.16
15.82
14.91
13.75
12.69
11.94
11.49
11.18
10.81
10.22
9.33
8.20
6.90
5.48
3.92
2.12
-0.02
-2.51
-5.23
-7.88
-10.11
-11.71
-12.68
-13.24
-13.73
-14.51
-15.73
-17.41
-19.32
-21.05
-22.11
-21.98
-20.25
-16.76
-11.77
-5.84
0.20
5.61
9.91
13.01
15.15
16.64
17.76
18.57
18.99
18.89
18.24
17.15
15.86
14.67
13.71
12.94
12.22
11.34
10.21
8.86
7.39
5.86
4.27
2.48
0.34
-2.13
-4.79
-7.34
-9.57
-11.36
-12.81
-14.12
-15.52
-17.19
-19.14
-21.21
-23.02
-24.04
-23.72
-21.65
-17.78
-12.45
-6.41
-0.45
4.71
8.71
11.54
13.41
14.62
15.43
15.96
16.20
16.19
16.01
15.77
15.62
15.57
15.53
15.30
14.70
13.66
12.28
10.83
9.59
8.71
8.13
7.58
6.70
5.28
3.29
0.92
-1.53
-3.81
-5.76
-7.35
-8.71
-9.99
-11.45
-13.28
-15.59
-18.25
-20.83
-22.64
-22.94
-21.22
-17.41
-12.03
-5.96
-0.16
4.65
8.20
10.60
12.22
13.36
14.16
14.59
14.55
14.11
13.45
12.90
12.71
12.94
13.36
13.53
13.09
11.86
10.02
8.01
6.31
5.23
4.67
4.20
3.18
1.19
-1.89
-5.69
-9.59
-12.99
-15.52
-17.15
-18.14
-18.92
-19.79
-21.00
-22.56
-24.40
-26.29
-27.85
-28.63
-28.15
-26.16
-22.65
-18.03
-12.89
-7.85
-3.37
0.43
3.59
6.22
8.36
9.96
10.89
11.16
10.94
10.56
10.37
10.60
11.26
12.12
12.85
13.14
12.84
11.99
10.73
9.25
7.63
5.85
3.79
1.37
-1.33
-4.09
-6.57
-8.50
-9.78
-10.56
-11.15
-11.90
-13.09
-14.80
-16.92
-19.09
-20.82
-21.47
-20.48
-17.56
-12.83
-6.94
-0.81
4.64
8.83
11.68
13.55
14.90
16.08
17.07
17.69
17.70
17.11
16.19
15.43
15.14
15.38
15.84
16.01
15.49
14.12
12.11
9.87
7.79
6.02
4.46
2.79
0.73
-1.81
-4.72
-7.66
-10.34
-12.60
-14.51
-16.34
-18.34
-20.57
-22.78
-24.55
-25.47
-25.42
-24.57
-23.16
-21.28
-18.77
-15.33
-10.81
-5.44
0.16
5.24
9.22
11.94
13.62
14.58
15.09
15.24
15.02
14.51
13.90
13.44
13.30
13.45
13.70
13.73
13.30
12.28
10.71
8.70
6.37
3.81
1.10
-1.66
-4.38
-6.98
-9.42
-11.74
-14.01
-16.31
-18.65
-20.90
-22.77
-23.80
-23.50
-21.49
-17.68
-12.38
-6.26
-0.11
5.34
9.70
12.91
15.24
16.95
18.19
19.00
19.34
19.23
18.79
18.20
17.61
17.07
16.50
15.69
14.55
13.08
11.42
9.82
8.43
7.24
6.06
4.55
2.44
-0.40
-3.85
-7.54
-11.02
-13.86
-15.84
-17.04
-17.78
-18.57
-19.86
-21.91
-24.62
-27.47
-29.67
-30.36
-28.97
-25.28
-19.70
-13.04
-6.31
-0.41
4.15
7.29
9.30
10.52
11.30
11.78
11.96
11.82
11.39
10.82
10.27
9.88
9.67
9.58
9.47
9.21
8.69
7.92
6.90
5.61
3.98
1.90
-0.63
-3.52
-6.46
-9.10
-11.09
-12.31
-12.89
-13.19
-13.69
-14.73
-16.44
-18.57
-20.56
-21.71
-21.42
-19.36
-15.61
-10.68
-5.24
0.04
4.70
8.56
11.65
14.09
15.99
17.42
18.33
18.71
18.57
17.99
17.09
16.00
14.85
13.71
12.66
11.70
10.78
9.81
8.66
7.22
5.37
3.08
0.36
-2.56
-5.40
-7.77
-9.31
-9.91
-9.73
-9.29
-9.19
-10.00
-11.78
-14.19
-16.40
-17.48
-16.67
-13.69
-8.84
-2.84
3.38
8.99
13.39
16.42
18.25
19.25
19.79
20.10
20.21
20.04
19.49
18.55
17.32
16.01
14.78
13.72
12.80
11.95
11.03
9.97
8.69
7.22
5.55
3.71
1.76
-0.33
-2.49
-4.70
-6.83
-8.74
-10.35
-11.69
-12.95
-14.38
-16.19
-18.27
-20.15
-21.10
-20.39
-17.59
-12.87
-6.89
-0.57
5.27
10.10
13.57
15.51
15.80
14.49
11.92
8.84
6.21
4.83
5.05
6.58
8.74
10.77
12.17
12.86
12.99
12.75
12.16
11.17
9.67
7.67
5.33
2.83
0.39
-1.86
-3.89
-5.71
-7.30
-8.68
-9.84
-10.84
-11.84
-13.03
-14.61
-16.56
-18.62
-20.18
-20.55
-19.16
-15.83
-10.92
-5.18
0.49
5.36
9.04
11.56
13.17
14.28
15.17
15.90
16.47
16.75
16.68
16.34
15.88
15.46
15.14
14.83
14.30
13.35
11.87
9.99
8.03
6.33
5.08
4.24
3.50
2.47
0.88
-1.35
-4.02
-6.79
-9.32
-11.44
-13.17
-14.67
-16.17
-17.81
-19.71
-21.90
-24.33
-26.82
-28.97
-30.17
-29.76
-27.29
-22.79
-16.83
-10.39
-4.48
0.25
3.70
6.21
8.24
10.06
11.61
12.68
13.04
12.74
12.13
11.63
11.57
11.99
12.68
13.32
13.66
13.59
13.19
12.55
11.71
10.59
9.05
6.99
4.45
1.58
-1.35
-4.02
-6.19
-7.77
-8.82
-9.56
-10.35
-11.57
-13.51
-16.22
-19.41
-22.50
-24.69
-25.23
-23.65
-19.94
-14.57
-8.38
-2.23
3.21
7.58
10.91
13.39
15.26
16.70
17.76
18.41
18.63
18.49
18.04
17.49
16.97
16.54
16.22
15.90
15.47
14.78
13.83
12.62
11.20
9.54
7.51
5.00
1.97
-1.39
-4.73
-7.58
-9.61
-10.78
-11.40
-12.01
-13.16
-15.16
-17.91
-20.95
-23.59
-25.11
-24.97
-23.02
-19.44
-14.76
-9.66
-4.72
-0.33
3.35
6.33
8.70
10.48
11.63
12.14
12.09
11.70
11.28
11.07
11.17
11.46
11.68
11.57
10.96
9.87
8.43
6.83
5.23
3.67
2.08
0.34
-1.64
-3.93
-6.45
-9.00
-11.38
-13.41
-15.01
-16.32
-17.52
-18.88
-20.52
-22.51
-24.67
-26.75
-28.30
-28.84
-27.90
-25.18
-20.67
-14.79
-8.22
-1.73
4.05
8.82
12.56
15.48
17.81
19.62
20.94
21.73
22.05
22.07
22.04
22.08
22.24
22.42
22.37
21.89
20.93
19.63
18.30
17.29
16.69
16.37
15.88
14.65
12.33
8.92
4.84
0.81
-2.46
-4.58
-5.47
-5.44
-4.95
-4.41
-4.13
-4.23
-4.58
-4.87
-4.56
-3.08
0.02
4.80
10.93
17.63
24.05
29.51
33.74
36.93
39.49
41.88
44.38
47.10
49.98
52.96
55.92
58.72
61.26
63.36
64.78
65.31
64.75
63.05
60.40
57.16
53.70
50.29
46.80
42.86
37.97
31.77
24.29
16.00
7.65
-0.01
-6.49
-11.85
-16.56
-21.47
-27.39
-34.91
-44.06
-54.30
-64.70
-74.28
-82.45
-89.21
-95.28
-101.79
-109.91
-120.46
-133.58
-148.60
-164.08
-178.31
-189.66
-197.13
-200.55
-200.45
-197.69
-193.03
-186.77
-178.85
-169.09
-157.40
-143.87
-128.68
-111.98
-93.95
-75.02
-55.94
-37.70
-21.16
-6.66
6.31
18.88
32.19
46.69
61.79
75.89
87.13
94.41
97.96
99.27
100.31
102.20
104.60
105.94
104.59
100.11
93.54
86.72
81.05
76.52
71.99
66.31
59.46
52.84
48.53
47.90
50.58
54.55
57.15
56.53
52.53
46.58
40.67
36.44
34.54
34.56
35.66
37.03
38.29
39.57
41.16
42.94
44.28
44.06
41.29
35.69
28.00
19.71
12.47
7.16
3.55
0.03
-5.74
-15.75
-30.47
-48.29
-65.82
-79.08
-85.19
-83.46
-75.53
-64.45
-53.21
-43.57
-35.70
-28.84
-22.11
-15.33
-8.98
-3.69
0.35
3.56
6.67
10.14
13.81
16.86
18.28
17.46
14.65
10.92
7.79
6.67
8.32
12.67
18.74
24.93
29.50
31.09
29.01
23.56
15.66
6.63
-2.30
-10.09
-15.93
-19.10
-19.01
-15.61
-9.55
-2.33
4.10
8.23
9.56
8.82
7.53
7.18
8.49
11.33
15.01
18.81
22.30
25.37
27.98
29.91
30.74
29.99
27.43
23.24
18.02
12.64
7.96
4.54
2.50
1.50
0.90
0.13
-1.08
-2.53
-3.63
-3.68
-2.31
0.50
4.29
8.47
12.62
16.67
20.85
25.46
30.47
35.19
38.39
38.68
35.22
28.10
18.58
8.56
-0.09
-6.06
-8.83
-8.34
-4.96
0.53
6.70
11.53
13.02
10.18
3.63
-4.56
-12.06
-17.98
-23.61
-31.88
-45.75
-66.48
-92.85
-121.75
-149.48
-172.49
-187.68
-192.23
-183.71
-161.32
-126.98
-85.71
-44.39
-9.59
14.80
28.55
34.23
35.67
36.09
37.60
41.29
47.61
56.31
66.14
74.68
79.02
77.07
68.84
57.05
46.16
40.51
42.30
50.45
60.80
67.88
67.14
56.80
38.70
17.35
-1.97
-15.27
-21.35
-21.65
-19.04
-16.01
-13.52
-10.88
-6.45
0.92
11.20
23.08
34.53
43.82
50.06
53.26
53.95
52.71
50.01
46.30
42.22
38.69
36.53
35.91
35.95
34.85
30.69
22.55
11.28
-0.59
-9.70
-13.28
-10.23
-1.40
11.10
24.82
37.77
48.84
57.38
62.96
65.29
64.42
60.99
56.21
51.23
46.58
41.66
35.03
25.00
10.53
-8.23
-29.90
-52.26
-72.77
-89.02
-99.19
-102.35
-98.71
-89.58
-77.21
-64.10
-52.40
-43.40
-37.46
-34.19
-32.80
-32.39
-32.09
-31.22
-29.41
-26.74
-23.78
-21.43
-20.65
-22.09
-25.94
-31.74
-38.58
-45.16
-50.07
-52.25
-51.29
-47.65
-42.51
-37.21
-32.51
-28.27
-23.66
-17.68
-10.00
-1.23
7.36
14.53
19.71
23.25
26.03
28.83
31.96
35.33
38.77
42.48
46.97
52.76
59.75
66.87
72.35
74.28
71.39
63.58
51.90
38.21
24.69
13.47
6.47
5.26
10.69
22.24
37.99
54.82
69.39
79.16
83.20
82.20
77.80
71.58
64.46
56.63
48.01
38.74
29.26
20.10
11.44
2.99
-5.81
-15.25
-25.03
-34.32
-42.19
-48.03
-51.82
-54.00
-55.09
-55.28
-54.29
-51.55
-46.67
-39.73
-31.29
-22.22
-13.32
-5.06
2.50
9.67
16.78
24.08
31.44
38.41
44.21
47.95
48.98
47.04
42.40
35.72
27.80
19.32
10.81
2.49
-5.54
-13.26
-20.61
-27.44
-33.48
-38.27
-41.27
-41.99
-40.29
-36.48
-31.30
-25.90
-21.42
-18.80
-18.44
-20.12
-22.99
-25.78
-27.24
-26.44
-23.17
-17.93
-11.73
-5.62
-0.47
3.38
5.88
7.14
7.26
6.11
3.50
-0.65
-6.03
-12.02
-17.71
-22.28
-25.23
-26.49
-26.36
-25.17
-23.17
-20.49
-17.32
-14.09
-11.57
-10.52
-11.36
-13.92
-17.26
-20.20
-21.67
-21.21
-19.01
-15.78
-12.29
-9.13
-6.66
-5.04
-4.28
-4.25
-4.57
-4.55
-3.38
-0.58
3.74
8.73
13.21
16.11
17.05
16.43
15.18
14.18
13.79
13.81
13.67
12.93
11.45
9.50
7.52
5.83
4.51
3.39
2.26
0.88
-0.86
-3.06
-5.74
-8.97
-12.69
-16.74
-20.85
-24.71
-28.04
-30.69
-32.49
-33.37
-33.25
-32.21
-30.50
-28.59
-26.95
-25.88
-25.26
-24.62
-23.34
-21.06
-17.86
-14.25
-10.91
-8.26
-6.27
-4.49
-2.45
0.08
2.84
5.28
6.88
7.43
7.17
6.61
6.23
6.23
6.49
6.73
6.69
6.32
5.70
5.05
4.43
3.78
2.83
1.30
-0.92
-3.66
-6.46
-8.72
-9.93
-9.90
-8.85
-7.39
-6.21
-5.78
-6.12
-6.75
-6.87
-5.78
-3.16
0.65
4.81
8.32
10.47
11.10
10.69
10.05
9.91
10.56
11.73
12.75
12.93
11.90
9.75
6.95
4.08
1.54
-0.56
-2.23
-3.52
-4.36
-4.60
-4.28
-3.66
-3.25
-3.43
-4.14
-4.71
-4.02
-1.02
4.67
12.51
21.08
28.57
33.45
34.87
32.91
28.32
22.26
15.86
9.99
5.19
1.55
-1.19
-3.64
-6.48
-10.16
-14.58
-18.97
-22.18
-23.14
-21.30
-16.96
-11.08
-4.91
0.49
4.54
7.16
8.55
9.03
8.78
7.90
6.37
4.12
1.10
-2.71
-7.18
-12.02
-16.75
-20.82
-23.68
-24.91
-24.32
-22.02
-18.44
-14.31
-10.50
-7.81
-6.74
-7.15
-8.29
-8.90
-7.69
-3.88
2.49
10.49
18.71
25.77
30.86
33.87
35.27
35.69
35.55
34.89
33.47
31.02
27.51
23.21
18.67
14.45
11.00
8.53
7.00
6.27
6.16
6.59
7.43
8.48
9.38
9.67
8.93
7.03
4.24
1.14
-1.54
-3.31
-4.06
-4.15
-4.16
-4.76
-6.40
-9.13
-12.56
-15.88
-18.14
-18.49
-16.60
-12.70
-7.61
-2.47
1.76
4.51
5.77
5.97
5.71
5.46
5.49
5.76
6.10
6.38
6.54
6.67
6.84
7.02
7.04
6.61
5.55
3.95
2.21
0.94
0.59
1.17
2.22
3.03
2.96
1.73
-0.48
-3.12
-5.65
-7.65
-9.01
-9.85
-10.39
-10.91
-11.61
-12.59
-13.78
-14.85
-15.35
-14.79
-12.89
-9.84
-6.24
-2.97
-0.79
0.00
-0.40
-1.37
-2.21
-2.48
-2.13
-1.39
-0.56
0.21
1.02
1.97
3.10
4.25
5.15
5.59
5.53
5.10
4.55
4.07
3.68
3.25
2.61
1.54
-0.04
-2.10
-4.47
-6.87
-8.93
-10.37
-11.05
-11.11
-10.94
-11.08
-11.96
-13.65
-15.71
-17.31
-17.56
-15.85
-12.21
-7.40
-2.50
1.44
3.87
4.88
5.00
4.90
5.03
5.48
6.00
6.33
6.33
6.05
5.75
5.60
5.69
5.98
6.31
6.48
6.50
6.44
6.41
6.44
6.38
5.96
4.91
3.08
0.60
-2.16
-4.76
-6.81
-8.13
-8.78
-9.10
-9.52
-10.46
-12.13
-14.33
-16.43
-17.59
-17.04
-14.45
-10.16
-5.01
-0.04
3.94
6.63
8.23
9.21
9.98
10.71
11.35
11.79
12.00
12.04
11.99
11.92
11.80
11.54
11.11
10.53
9.91
9.34
8.83
8.28
7.56
6.55
5.19
3.48
1.41
-0.96
-3.50
-6.02
-8.25
-9.93
-11.04
-11.72
-12.33
-13.28
-14.72
-16.33
-17.41
-17.11
-14.83
-10.62
-5.20
0.38
5.11
8.43
10.44
11.67
12.65
13.69
14.67
15.28
15.25
14.64
13.75
12.97
12.54
12.37
12.14
11.48
10.25
8.58
6.85
5.47
4.56
3.91
3.04
1.49
-0.99
-4.21
-7.70
-10.89
-13.31
-14.79
-15.41
-15.46
-15.30
-15.31
-15.82
-16.95
-18.57
-20.16
-21.01
-20.44
-18.13
-14.31
-9.71
-5.28
-1.74
0.68
2.27
3.55
4.93
6.44
7.76
8.44
8.17
7.02
5.37
3.72
2.47
1.73
1.45
1.43
1.54
1.74
2.01
2.29
2.35
1.95
0.82
-1.13
-3.77
-6.80
-9.78
-12.30
-14.05
-14.96
-15.19
-15.07
-15.05
-15.50
-16.48
-17.63
-18.35
-17.96
-16.15
-13.04
-9.18
-5.28
-1.93
0.62
2.45
3.77
4.82
5.63
6.15
6.24
5.83
4.98
3.81
2.55
1.40
0.55
0.05
-0.09
0.04
0.27
0.46
0.40
-0.07
-1.02
-2.33
-3.63
-4.34
-3.78
-1.55
2.32
7.26
12.23
16.05
17.81
17.17
14.49
10.73
7.09
4.64
3.93
4.89
6.84
8.84
10.07
10.09
9.05
7.53
6.29
5.94
6.66
8.21
10.12
11.87
13.13
13.75
13.72
13.01
11.63
9.60
7.09
4.36
1.65
-0.96
-3.55
-6.37
-9.67
-13.43
-17.38
-21.02
-23.80
-25.35
-25.57
-24.72
-23.33
-22.05
-21.41
-21.53
-22.02
-22.08
-20.76
-17.41
-12.05
-5.47
1.13
6.53
9.91
11.19
10.91
9.91
9.10
9.07
9.96
11.52
13.28
14.65
15.30
15.14
14.33
13.25
12.19
11.36
10.74
10.13
9.33
8.15
6.51
4.40
1.85
-1.08
-4.25
-7.44
-10.36
-12.69
-14.18
-14.84
-14.98
-15.03
-15.40
-16.13
-16.79
-16.57
-14.71
-10.78
-5.10
1.44
7.77
12.96
16.60
18.81
20.03
20.68
21.00
20.98
20.58
19.89
19.15
18.63
18.52
18.69
18.80
18.43
17.26
15.23
12.60
9.82
7.32
5.39
4.01
2.98
1.89
0.40
-1.69
-4.25
-6.97
-9.38
-11.10
-12.00
-12.21
-12.10
-12.11
-12.61
-13.77
-15.46
-17.26
-18.46
-18.31
-16.33
-12.53
-7.47
-2.13
2.58
6.11
8.47
10.03
11.19
12.10
12.66
12.67
12.10
11.28
10.64
10.61
11.21
12.10
12.71
12.61
11.68
10.15
8.50
7.07
6.04
5.26
4.38
3.01
0.91
-1.92
-5.24
-8.59
-11.53
-13.76
-15.13
-15.78
-15.99
-16.13
-16.56
-17.58
-19.32
-21.75
-24.49
-26.91
-28.24
-27.77
-25.22
-20.76
-15.07
-8.99
-3.31
1.59
5.59
8.77
11.19
12.79
13.44
13.09
11.92
10.37
9.01
8.31
8.42
9.15
10.04
10.65
10.66
10.05
9.02
7.75
6.37
4.85
3.09
0.99
-1.34
-3.76
-6.00
-7.80
-9.06
-9.79
-10.16
-10.42
-10.94
-11.99
-13.68
-15.76
-17.63
-18.47
-17.59
-14.71
-10.12
-4.61
0.81
5.33
8.59
10.73
12.16
13.32
14.43
15.41
16.07
16.23
15.91
15.31
14.73
14.34
14.15
13.96
13.54
12.72
11.56
10.20
8.75
7.26
5.56
3.49
0.97
-1.88
-4.79
-7.37
-9.33
-10.58
-11.17
-11.37
-11.56
-12.10
-13.20
-14.79
-16.45
-17.49
-17.23
-15.22
-11.55
-6.74
-1.57
3.21
7.16
10.23
12.58
14.40
15.85
16.93
17.64
18.03
18.17
18.22
18.28
18.32
18.17
17.65
16.58
14.96
12.92
10.64
8.31
5.99
3.58
0.87
-2.28
-5.82
-9.44
-12.67
-15.05
-16.31
-16.45
-15.81
-14.90
-14.27
-14.34
-15.16
-16.41
-17.38
-17.25
-15.37
-11.56
-6.25
-0.23
5.50
10.30
13.95
16.59
18.54
20.03
21.15
21.81
21.90
21.40
20.42
19.20
17.93
16.75
15.66
14.60
13.47
12.20
10.84
9.50
8.33
7.36
6.46
5.31
3.59
1.13
-2.00
-5.49
-8.85
-11.61
-13.49
-14.41
-14.59
-14.40
-14.23
-14.42
-15.07
-15.97
-16.72
-16.82
-15.87
-13.91
-11.29
-8.64
-6.59
-5.39
-4.96
-4.95
-4.94
-4.75
-4.38
-4.00
-3.77
-3.71
-3.72
-3.67
-3.58
-3.57
-3.85
-4.56
-5.65
-6.90
-8.07
-9.01
-9.74
-10.50
-11.58
-13.18
-15.25
-17.40
-19.00
-19.35
-17.97
-14.84
-10.52
-6.01
-2.42
-0.47
-0.15
-0.66
-0.76
0.57
3.66
7.95
12.39
15.94
18.17
19.38
20.39
22.04
24.73
28.14
31.36
33.31
33.10
30.45
25.68
19.56
12.93
6.52
0.94
-3.22
-5.32
-4.86
-1.82
3.24
9.25
15.12
20.34
25.12
30.09
35.57
41.10
45.47
47.47
46.64
43.66
39.95
36.97
35.56
35.86
37.65
40.67
44.67
48.86
51.53
50.19
42.54
27.76
7.48
-14.58
-33.94
-47.25
-53.58
-54.48
-52.72
-50.81
-49.92
-49.89
-50.06
-50.30
-51.22
-53.73
-58.03
-63.19
-67.40
-68.97
-67.19
-62.73
-57.10
-51.75
-47.37
-43.63
-39.82
-35.46
-30.69
-26.13
-22.57
-20.37
-19.44
-19.32
-19.41
-19.18
-18.26
-16.57
-14.24
-11.72
-9.55
-8.02
-6.95
-5.62
-3.09
1.17
6.82
12.56
16.67
17.82
15.85
11.91
8.02
6.16
7.46
11.76
17.84
23.97
28.59
30.73
30.09
26.88
21.65
15.11
8.14
1.75
-3.12
-5.76
-6.03
-4.40
-1.87
0.42
1.65
1.65
0.95
0.50
1.17
3.31
6.57
10.02
12.65
13.78
13.37
11.90
10.17
8.91
8.66
9.75
12.23
16.02
20.74
25.67
29.85
32.27
32.20
29.47
24.51
18.08
11.06
4.11
-2.40
-8.36
-13.73
-18.41
-22.22
-24.86
-26.10
-25.96
-24.82
-23.48
-23.00
-24.34
-28.02
-33.85
-40.93
-47.84
-53.05
-55.40
-54.34
-50.02
-43.12
-34.72
-25.98
-17.93
-11.22
-6.04
-2.11
1.10
4.13
7.36
10.90
14.65
18.42
21.94
24.83
26.65
26.83
24.90
20.83
15.24
9.42
5.03
3.52
5.59
10.87
18.10
25.56
31.73
35.65
37.15
36.64
34.83
32.42
30.01
28.12
27.16
27.43
28.96
31.45
34.27
36.64
37.83
37.45
35.55
32.53
29.05
25.68
22.84
20.66
18.99
17.56
16.09
14.48
12.73
10.96
9.27
7.71
6.25
4.81
3.34
1.81
0.26
-1.27
-2.75
-4.18
-5.60
-7.01
-8.51
-10.11
-11.88
-13.79
-15.77
-17.57
-18.81
-19.12
-18.18
-15.92
-12.58
-8.69
-4.86
-1.61
0.79
2.40
3.40
4.10
4.69
5.23
5.69
6.03
6.20
6.23
6.16
6.05
5.90
5.66
5.23
4.56
3.60
2.39
0.99
-0.53
-2.12
-3.82
-5.58
-7.40
-9.12
-10.58
-11.69
-12.50
-13.17
-13.87
-14.67
-15.32
-15.37
-14.30
-11.77
-7.89
-3.21
1.45
5.39
8.18
9.87
10.77
11.27
11.68
12.10
12.57
13.03
13.51
14.05
14.66
15.23
15.59
15.51
14.75
13.12
10.50
6.93
2.64
-1.92
-6.27
-9.98
-12.80
-14.79
-16.14
-17.08
-17.79
-18.28
-18.50
-18.40
-17.99
-17.24
-16.05
-14.17
-11.37
-7.62
-3.19
1.23
4.86
7.11
7.87
7.57
6.96
6.72
7.10
7.91
8.66
8.90
8.51
7.71
6.92
6.48
6.41
6.33
5.69
4.03
1.24
-2.37
-6.13
-9.34
-11.48
-12.33
-12.13
-11.45
-11.07
-11.87
-14.61
-19.65
-26.82
-35.23
-43.49
-50.00
-53.51
-53.48
-50.36
-45.36
-40.04
-35.80
-33.37
-32.73
-33.29
-34.18
-34.72
-34.65
-34.15
-33.71
-33.78
-34.51
-35.60
-36.41
-36.11
-34.13
-30.35
-25.21
-19.40
-13.62
-8.17
-2.95
2.29
7.61
12.64
16.59
18.43
17.39
13.12
5.99
-2.98
-12.42
-20.85
-26.97
-30.01
-29.71
-26.28
-20.28
-12.31
-2.85
7.63
18.66
29.65
39.97
49.07
56.70
62.81
67.56
71.05
73.27
74.16
73.71
72.15
69.78
67.03
64.16
61.20
58.00
54.34
50.20
45.74
41.37
37.63
35.06
34.06
34.88
37.53
41.85
47.54
54.17
61.41
69.18
77.76
87.66
99.30
112.42
125.71
136.79
142.67
140.66
129.13
108.16
79.56
46.26
11.48
-22.34
-54.08
-84.13
-113.59
-143.33
-172.81
-199.85
-221.19
-234.03
-237.24
-232.12
-221.80
-209.88
-199.25
-191.43
-187.08
-186.60
-190.16
-196.78
-203.38
-204.67
-194.54
-168.82
-127.79
-76.58
-23.00
26.01
67.04
100.73
129.75
155.93
178.69
195.63
205.25
209.31
213.03
222.46
240.69
265.18
288.20
300.03
293.27
266.31
224.05
175.41
129.62
92.88
67.13
51.00
42.04
37.63
36.52
38.88
45.65
57.78
75.77
99.28
127.23
158.09
187.97
212.93
230.19
238.96
240.17
235.15
224.33
207.02
182.40
147.50
100.91
43.80
-20.30
-86.86
-152.40
-215.69
-277.23
-338.02
-402.54
-474.74
-556.33
-646.05
-739.87
-832.67
-920.06
-998.80
-1040.39
-1021.54
-930.79
-776.24
-583.03
-381.15
-193.69
-32.91
98.01
201.57
279.04
331.89
363.00
377.38
381.53
381.98
383.45
388.41
397.55
408.77
417.18
418.39
409.91
391.24
363.08
326.46
282.65
232.31
178.07
122.43
68.07
17.73
-26.23
-62.22
-90.10
-111.16
-127.51
-141.97
-156.52
-170.14
-178.59
-176.37
-159.87
-130.18
-93.47
-58.54
-33.26
-21.49
-22.11
-28.84
-35.26
-37.37
-34.63
-28.86
-22.07
-14.65
-5.57
6.91
24.00
45.43
70.13
96.77
124.52
151.18
174.36
190.05
193.41
181.10
153.43
115.37
75.09
40.78
17.43
5.74
2.69
4.11
6.92
9.91
13.07
16.28
18.69
18.96
16.38
11.46
5.79
1.35
-0.35
0.89
4.08
7.51
9.56
9.40
7.34
4.52
2.41
2.14
4.08
7.85
12.61
17.50
21.99
26.18
30.49
35.41
41.10
47.19
52.88
57.11
59.28
58.79
55.76
50.69
44.38
37.55
30.64
23.80
16.84
9.39
1.20
-7.78
-17.34
-27.03
-36.12
-43.84
-49.39
-52.14
-51.80
-48.34
-42.19
-34.02
-24.85
-15.56
-7.00
0.31
6.19
10.52
13.37
14.96
15.84
16.53
17.55
19.29
22.23
26.83
33.10
41.03
50.53
61.69
74.52
88.96
104.80
121.91
140.21
159.00
177.41
194.76
210.72
225.10
237.65
248.04
255.85
260.83
261.87
257.36
245.93
226.95
200.29
165.75
122.48
68.13
7.17
-57.40
-123.89
-190.36
-253.92
-311.19
-359.42
-397.27
-424.77
-442.11
-450.18
-451.62
-448.63
-441.37
-428.43
-408.55
-381.82
-349.79
-313.68
-274.58
-235.95
-201.23
-172.03
-148.89
-132.80
-126.21
-132.73
-154.09
-166.22
-154.39
-119.63
-75.43
-35.53
-4.92
19.77
43.90
71.64
93.19
104.40
100.55
80.63
49.49
15.62
-13.44
-36.03
-54.61
-64.14
-65.93
-61.61
-49.40
-25.41
12.14
67.59
130.68
184.14
213.44
213.27
189.12
152.58
114.68
81.57
54.05
28.76
4.16
-18.57
-37.65
-51.89
-61.17
-66.40
-69.40
-71.88
-77.76
-85.98
-93.81
-99.03
-100.75
-99.61
-97.33
-96.02
-97.40
-102.87
-111.88
-122.59
-133.02
-141.81
-148.64
-153.93
-158.43
-162.59
-166.51
-170.79
-175.31
-179.94
-184.62
-189.61
-195.31
-201.96
-209.51
-217.63
-225.51
-232.05
-236.21
-237.14
-234.29
-227.37
-216.21
-200.79
-181.12
-157.29
-129.49
-98.19
-64.26
-29.01
5.90
38.50
66.67
88.38
101.91
106.04
100.14
84.16
58.64
24.75
-15.63
-60.02
-105.23
-147.48
-182.80
-207.43
-218.37
-213.83
-193.32
-157.45
-107.67
-45.76
26.42
106.74
192.53
280.05
364.37
439.74
500.51
542.32
563.07
563.48
546.47
516.18
476.49
430.04
378.01
320.94
259.74
196.64
135.30
80.02
34.81
2.68
-14.46
-15.59
-1.21
25.55
58.16
87.32
103.98
103.44
88.22
67.60
53.57
55.16
74.23
105.29
138.96
166.85
184.98
193.96
196.72
195.62
191.17
182.75
170.16
154.94
140.27
130.11
127.68
134.36
148.87
167.38
184.39
194.45
194.06
183.06
164.21
141.54
118.45
96.75
77.41
62.24
55.22
61.70
85.47
125.23
172.90
215.67
241.39
244.36
228.41
205.37
189.90
193.37
219.76
265.07
319.65
371.97
411.78
431.94
429.08
403.48
358.77
301.25
238.64
178.32
125.70
83.25
50.54
24.97
2.81
-19.50
-44.27
-71.86
-100.72
-128.13
-151.53
-169.68
-182.98
-193.52
-204.36
-218.89
-239.68
-267.16
-298.05
-324.99
-338.49
-330.96
-301.13
-255.94
-208.18
-170.92
-151.51
-148.54
-153.43
-155.47
-147.22
-127.53
-100.89
-74.38
-54.60
-46.04
-51.23
-71.38
-106.19
-152.79
-205.03
-253.73
-289.12
-303.70
-294.71
-264.70
-220.15
-168.87
-117.23
-68.81
-24.48
16.24
53.72
87.30
115.48
136.30
147.67
147.95
136.48
114.73
87.27
61.99
48.37
54.38
82.62
128.00
178.74
220.43
241.72
238.62
215.41
181.22
145.00
111.41
79.85
47.04
10.37
-29.88
-71.31
-111.48
-149.60
-186.13
-220.78
-250.82
-271.18
-276.98
-266.36
-241.76
-209.28
-176.39
-149.81
-134.51
-133.89
-149.73
-181.49
-225.02
-272.18
-312.61
-337.12
-340.99
-325.48
-296.36
-260.68
-223.77
-187.87
-153.02
-119.11
-87.41
-60.60
-41.56
-31.70
-30.36
-35.10
-43.09
-52.19
-61.67
-71.73
-82.82
-94.98
-107.45
-118.76
-127.23
-131.58
-131.23
-126.52
-118.44
-108.29
-97.30
-86.32
-75.84
-66.12
-57.40
-49.99
-44.30
-40.69
-39.41
-40.41
-43.38
-47.80
-53.16
-59.05
-65.24
-71.61
-78.09
-84.60
-90.95
-96.89
-102.13
-106.43
-109.61
-111.59
-112.31
-111.75
-109.90
-106.75
-102.37
-96.85
-90.35
-83.01
-74.96
-66.29
-57.02
-47.17
-36.70
-25.64
-14.02
-1.92
10.56
23.24
35.95
48.44
60.44
71.62
81.62
90.07
96.65
101.18
103.68
104.38
103.68
101.95
99.51
96.39
92.50
87.67
81.89
75.47
69.06
63.49
59.52
57.53
57.35
58.32
59.98
61.93
64.12
66.83
70.57
75.83
82.86
91.38
100.66
110.26
119.94
129.85
140.55
152.82
167.54
185.63
207.88
234.54
265.63
299.24
331.47
357.54
373.87
380.09
379.38
376.81
376.41
381.73
392.38
405.16
416.13
422.82
425.17
424.75
423.10
420.47
421.51
429.85
447.30
472.89
502.86
532.58
558.94
581.85
604.17
639.04
696.91
780.81
883.56
990.25
1084.94
1157.22
1205.16
1233.71
1262.34
1307.42
1376.28
1464.52
1558.60
1642.79
1705.65
1742.80
1682.16
1480.43
1127.28
656.15
133.19
-371.50
-808.53
-1156.13
-1414.08
-1594.18
-1701.36
-1742.91
-1729.43
-1675.83
-1599.72
-1517.17
-1439.23
-1371.15
-1314.36
-1259.56
-1198.39
-1126.62
-1045.80
-962.21
-883.17
-813.71
-755.63
-708.61
-665.84
-621.17
-570.69
-513.79
-453.03
-392.92
-337.99
-291.64
-255.64
-227.03
-201.92
-177.31
-152.85
-130.76
-113.82
-102.60
-94.39
-84.43
-67.76
-43.01
-13.29
15.50
38.04
51.40
56.14
54.81
49.89
42.60
33.15
21.91
10.26
0.38
-6.05
-8.94
-10.11
-12.41
-17.71
-25.47
-32.29
-33.18
-24.54
-6.63
15.72
34.94
44.36
41.69
30.15
16.82
8.91
9.97
18.71
30.47
40.44
46.33
48.91
50.02
50.98
51.56
50.59
47.76
44.87
45.30
52.27
66.89
86.56
106.56
121.96
129.60
129.10
122.53
112.72
101.64
92.56
85.52
79.26
72.44
64.46
55.38
45.32
33.63
19.86
5.17
-7.14
-11.49
-2.56
21.53
56.81
94.08
122.00
132.27
123.20
99.47
69.60
41.29
18.44
0.45
-15.54
-32.40
-50.72
-68.67
-84.34
-97.35
-109.85
-124.99
-145.12
-169.57
-196.16
-220.49
-237.41
-243.18
-236.96
-220.75
-197.27
-169.63
-139.95
-113.80
-96.53
-91.02
-96.41
-109.10
-124.64
-138.47
-149.84
-159.81
-175.39
-199.55
-227.06
-246.31
-247.13
-228.17
-196.86
-169.31
-160.20
-183.96
-243.52
-329.04
-423.46
-511.97
-587.75
-648.76
-698.77
-690.41
-595.10
-419.63
-204.87
3.73
178.99
300.73
385.01
444.35
487.54
513.05
518.84
505.36
475.90
434.07
381.17
322.48
262.60
207.18
154.59
102.91
54.31
16.26
-2.97
1.03
27.66
67.67
109.63
140.72
154.41
152.13
140.30
123.32
102.02
74.35
36.99
-9.04
-58.99
-104.82
-138.63
-156.16
-159.24
-153.75
-146.58
-143.80
-148.81
-163.15
-186.59
-217.50
-248.52
-272.32
-281.46
-270.84
-239.95
-193.38
-139.26
-86.40
-41.59
-8.09
13.52
24.66
27.11
22.46
12.22
-1.80
-17.35
-32.35
-45.46
-56.92
-67.67
-79.00
-91.68
-105.63
-119.87
-132.94
-143.44
-150.57
-154.52
-156.08
-156.27
-155.79
-154.81
-152.83
-148.90
-142.07
-131.72
-117.94
-101.36
-82.93
-63.53
-43.63
-23.24
-1.95
20.66
44.66
69.51
94.17
117.31
137.84
155.22
169.76
182.34
194.15
206.10
218.57
231.25
243.45
254.62
264.70
274.25
284.30
295.89
309.72
326.07
344.89
365.82
388.03
409.82
428.52
441.01
444.63
438.28
422.64
399.49
370.23
334.93
292.61
242.70
186.72
128.94
75.27
31.04
-1.06
-21.74
-34.04
-41.53
-46.68
-50.34
-52.27
-52.13
-50.26
-47.74
-46.01
-46.45
-50.04
-57.20
-67.62
-80.03
-92.00
-100.16
-100.89
-91.87
-73.59
-49.83
-26.60
-9.41
-0.47
2.45
4.73
11.67
25.45
44.10
63.04
77.57
85.02
84.88
77.83
64.74
46.55
25.10
3.75
-13.26
-22.54
-23.10
-16.60
-6.19
5.36
16.78
28.05
39.41
50.47
59.98
66.40
68.31
64.86
55.87
42.20
26.27
12.28
5.41
9.93
26.89
52.79
80.45
101.84
111.64
109.39
99.23
87.19
78.18
74.12
74.03
75.52
76.32
74.53
68.07
54.18
30.19
-4.43
-46.29
-87.95
-120.57
-137.66
-138.10
-126.45
-110.35
-96.55
-87.91
-83.12
-78.94
-73.16
-66.54
-62.60
-65.47
-77.46
-97.80
-122.99
-148.25
-168.81
-180.93
-182.59
-173.89
-157.26
-136.94
-117.72
-103.12
-94.23
-89.47
-85.70
-79.74
-69.76
-55.83
-39.96
-25.91
-18.33
-21.57
-37.85
-65.71
-99.60
-131.06
-151.57
-155.85
-143.68
-119.65
-90.89
-64.08
-43.15
-28.56
-18.30
-9.81
-1.80
4.91
7.99
5.09
-4.40
-18.68
-34.12
-47.01
-55.00
-57.34
-53.96
-44.34
-27.49
-3.30
25.98
55.13
77.61
88.50
87.16
77.88
68.09
64.75
71.23
85.71
102.05
112.51
110.89
94.97
67.06
33.08
0.44
-24.28
-37.02
-36.96
-26.26
-9.12
9.37
24.40
32.45
31.90
23.04
7.68
-11.91
-33.85
-57.18
-81.69
-107.28
-133.44
-159.04
-182.30
-200.82
-211.73
-212.08
-200.04
-176.20
-144.35
-110.75
-81.70
-60.82
-47.30
-36.62
-23.08
-3.08
23.02
50.93
74.71
89.54
93.84
89.67
81.49
74.19
71.35
74.68
84.40
100.30
122.60
151.85
188.23
230.74
276.92
323.30
366.11
401.83
427.13
438.58
432.80
407.28
361.76
299.11
225.11
147.15
72.35
5.93
-49.29
-92.94
-126.47
-152.61
-175.00
-198.00
-226.21
-263.45
-311.26
-367.26
-424.51
-472.63
-501.21
-504.19
-482.81
-445.49
-404.19
-368.99
-344.01
-326.65
-310.47
-289.51
-261.57
-228.40
-193.61
-159.78
-127.03
-93.61
-57.85
-19.77
18.65
54.23
84.42
108.28
126.76
142.17
157.25
174.27
194.44
217.69
242.91
268.17
290.99
308.66
318.76
319.69
311.29
295.04
273.62
250.27
227.92
208.70
193.72
183.04
175.68
169.71
162.62
152.07
136.84
117.42
96.08
75.99
59.90
49.12
43.16
40.30
38.47
36.06
32.28
27.02
20.74
14.10
7.88
2.75
-0.93
-3.34
-5.12
-7.18
-10.44
-15.22
-21.14
-26.88
-30.49
-29.92
-24.14
-13.81
-1.46
9.35
15.60
16.13
12.27
7.04
3.66
4.10
8.43
15.14
22.03
26.97
28.42
25.57
18.56
8.57
-2.17
-10.78
-14.76
-12.97
-6.05
4.01
15.02
25.61
35.62
45.64
56.15
66.67
75.72
81.52
83.01
80.56
75.95
71.52
68.84
67.90
66.93
63.34
54.97
41.29
23.85
5.92
-8.45
-15.77
-14.37
-5.28
7.69
19.00
23.32
17.70
2.85
-17.31
-37.68
-54.41
-66.56
-76.06
-86.15
-99.72
-118.14
-141.23
-167.76
-196.18
-224.52
-250.20
-269.87
-279.73
-276.47
-258.46
-226.48
-183.86
-135.85
-88.19
-45.61
-10.57
17.23
40.13
61.16
82.50
104.63
126.31
145.38
159.68
167.65
168.81
164.06
156.18
149.95
151.45
166.08
196.27
239.64
289.13
335.04
368.23
382.90
377.65
354.75
318.29
272.50
221.11
167.57
115.45
68.43
29.62
0.75
-18.15
-28.32
-31.59
-29.59
-23.69
-15.21
-5.81
2.40
7.26
7.15
1.59
-8.93
-23.16
-39.83
-58.24
-78.43
-101.09
-127.51
-159.30
-197.86
-243.24
-292.95
-341.14
-379.29
-398.55
-392.87
-361.58
-309.79
-246.28
-179.84
-115.88
-55.39
3.68
63.19
122.17
175.95
217.70
241.30
243.81
226.48
193.83
151.69
105.40
58.59
13.31
-29.16
-67.84
-102.21
-132.91
-162.17
-192.90
-226.68
-261.40
-290.60
-305.23
-297.33
-264.14
-209.64
-143.07
-74.91
-12.91
39.91
84.36
122.88
157.86
191.18
224.93
261.28
301.05
341.76
376.92
397.71
396.77
371.69
326.25
268.72
208.01
150.39
98.11
50.64
6.84
-33.43
-69.13
-99.22
-123.80
-144.48
-163.55
-182.77
-202.32
-220.63
-235.21
-243.84
-245.87
-242.59
-236.89
-232.40
-232.62
-240.49
-258.04
-285.77
-321.84
-361.63
-398.29
-424.62
-435.66
-430.74
-413.73
-391.33
-370.27
-354.88
-346.26
-343.25
-343.97
-347.06
-351.72
-356.90
-360.62
-360.08
-352.62
-337.02
-314.03
-285.92
-255.66
-225.41
-195.65
-165.36
-132.68
-96.18
-55.77
-12.99
29.51
68.94
103.45
132.92
159.10
185.16
214.46
248.94
287.66
326.09
356.94
372.41
367.18
340.55
296.99
244.58
192.24
147.00
112.52
89.06
74.55
66.15
61.46
59.37
60.22
65.54
77.32
96.90
123.72
154.62
184.51
207.92
221.07
223.15
216.07
203.06
186.82
168.28
146.47
119.31
84.67
41.35
-10.35
-68.26
-128.30
-184.71
-230.67
-259.71
-267.42
-252.69
-218.20
-169.31
-112.59
-54.14
1.15
49.74
88.94
116.74
132.01
135.06
128.14
115.22
100.95
89.36
82.81
81.67
85.25
92.95
105.13
122.75
146.07
173.13
199.37
218.78
226.12
219.44
200.91
175.96
150.88
130.18
115.04
103.28
90.80
73.51
49.12
17.91
-17.30
-52.16
-82.07
-103.42
-114.40
-115.07
-107.05
-92.65
-74.22
-53.82
-33.02
-13.14
4.67
19.45
30.57
38.02
42.49
45.15
47.24
49.53
51.96
53.74
54.07
53.08
52.28
54.08
60.36
71.09
83.72
94.15
98.59
95.43
86.00
73.75
62.53
54.98
51.77
51.93
53.63
54.80
53.57
48.46
38.72
24.78
8.57
-6.91
-18.49
-24.13
-23.74
-19.06
-12.75
-7.22
-3.69
-2.05
-1.37
-0.70
0.28
1.17
1.19
-0.36
-3.54
-7.76
-11.81
-14.28
-13.77
-9.18
-0.10
12.89
27.83
41.69
51.12
53.72
48.99
38.68
26.01
14.26
5.61
0.52
-2.03
-4.05
-7.95
-16.03
-29.85
-49.45
-72.86
-96.07
-114.10
-122.79
-120.39
-108.30
-90.39
-71.35
-54.95
-43.16
-36.06
-32.67
-31.84
-32.67
-34.59
-37.13
-39.84
-42.20
-43.91
-44.87
-45.21
-45.00
-43.82
-40.64
-34.31
-24.41
-11.91
0.58
9.79
13.10
9.91
2.01
-7.15
-13.88
-15.77
-12.47
-5.76
1.23
5.12
3.47
-4.37
-17.02
-31.36
-43.50
-50.01
-49.07
-40.83
-27.15
-10.79
5.56
19.83
30.98
38.92
44.44
48.80
53.32
58.81
65.18
71.44
76.10
77.72
75.59
70.10
62.69
55.53
50.86
50.08
53.01
57.73
61.02
59.55
51.26
36.39
17.49
-1.43
-16.43
-25.03
-26.97
-24.30
-20.56
-19.56
-24.17
-35.31
-51.59
-69.79
-85.87
-96.33
-99.32
-95.10
-85.49
-72.93
-59.43
-46.10
-33.26
-20.97
-9.55
0.30
7.86
12.75
15.23
15.98
15.71
14.74
12.97
10.31
7.26
5.12
5.75
10.40
18.75
28.52
36.15
38.40
34.06
24.50
13.17
3.93
-0.69
-0.41
2.78
5.69
5.22
-0.36
-10.87
-24.24
-37.27
-46.73
-50.36
-47.58
-39.42
-27.98
-15.50
-3.54
7.25
17.11
26.55
36.03
45.54
54.60
62.34
67.82
70.28
69.44
65.57
59.39
51.97
44.59
38.61
35.19
34.74
36.51
38.51
38.31
33.99
25.29
13.79
2.33
-6.10
-9.53
-7.52
-1.17
7.34
15.30
20.23
20.65
16.74
10.66
5.94
6.27
13.93
28.75
48.26
68.79
87.07
101.40
111.88
119.57
125.39
129.47
131.23
130.02
125.78
119.09
110.55
100.37
87.61
70.72
48.55
21.61
-7.75
-36.30
-61.47
-82.84
-101.19
-117.76
-132.49
-143.25
-146.61
-139.63
-121.77
-95.69
-67.29
-42.46
-26.48
-22.25
-29.35
-44.12
-60.60
-72.21
-73.49
-62.56
-39.04
-5.81
32.37
70.49
104.24
130.54
146.98
151.35
140.10
112.44
68.28
9.20
-60.81
-135.63
-207.56
-269.38
-308.93
-331.23
-336.11
-325.62
-303.41
-273.98
-242.59
-214.78
-195.49
-187.51
-191.70
-202.75
-208.69
-199.72
-173.67
-138.18
-105.53
-86.59
-81.45
-86.69
-95.82
-103.65
-107.00
-104.48
-95.51
-79.32
-55.05
-22.52
15.93
57.68
99.37
137.38
169.45
195.72
218.90
242.77
269.80
298.30
323.41
337.93
334.95
311.06
268.17
213.36
156.53
107.46
73.05
57.00
59.68
78.34
107.82
141.11
170.60
189.49
193.35
180.94
154.39
118.15
77.23
35.70
-4.17
-42.03
-79.02
-117.01
-157.54
-200.59
-243.72
-281.94
-308.56
-317.08
-303.17
-266.41
-210.76
-143.60
-73.76
-9.25
44.44
84.87
112.14
127.69
133.28
130.50
120.85
106.06
88.35
70.20
53.90
41.07
32.50
28.60
29.74
36.22
47.76
62.79
78.22
90.15
95.17
91.78
80.98
65.75
49.78
36.08
26.13
19.62
14.84
9.33
0.77
-12.20
-29.25
-48.33
-66.08
-79.05
-84.90
-83.13
-75.10
-63.15
-49.65
-36.33
-24.18
-13.64
-4.99
1.70
6.49
9.57
11.09
10.92
8.61
3.74
-3.63
-12.40
-20.36
-24.69
-23.15
-15.24
-2.93
9.91
19.01
21.48
17.12
8.32
-1.02
-7.22
-8.12
-3.52
5.01
14.65
21.91
23.45
17.14
3.23
-15.31
-33.31
-45.31
-47.69
-40.12
-25.53
-8.60
6.36
16.92
22.81
25.37
26.33
27.02
27.89
28.70
28.67
26.94
22.94
16.62
8.74
0.65
-5.83
-8.99
-7.59
-1.57
7.76
17.75
25.18
27.43
23.51
14.53
3.24
-7.03
-13.67
-15.64
-13.76
-10.62
-9.84
-15.16
-29.02
-51.48
-79.55
-107.85
-130.42
-142.81
-143.79
-135.39
-121.76
-107.24
-94.91
-86.05
-80.54
-77.50
-75.83
-74.49
-72.46
-68.94
-63.64
-57.04
-50.43
-45.68
-44.51
-47.61
-53.82
-59.87
-61.24
-53.87
-36.30
-10.81
17.03
40.63
55.25
59.85
57.24
52.30
49.63
51.85
59.03
69.32
79.79
87.47
90.00
86.36
77.28
65.35
54.26
47.49
46.85
51.78
59.77
67.55
72.53
73.64
71.29
66.67
60.95
54.70
47.79
39.68
29.89
18.19
4.80
-9.81
-25.06
-40.27
-54.31
-65.42
-71.34
-70.17
-61.56
-47.39
-31.56
-18.52
-11.35
-10.47
-13.54
-16.73
-16.65
-11.88
-3.51
5.42
11.16
10.83
3.40
-9.90
-25.95
-40.84
-51.24
-55.42
-53.57
-47.35
-38.69
-28.97
-18.77
-8.18
2.57
12.72
21.18
26.99
29.83
30.07
28.55
26.13
23.33
20.36
17.31
14.76
14.24
18.30
29.78
50.47
79.92
115.09
151.20
183.67
209.70
228.65
240.93
246.24
242.39
225.79
193.47
145.26
84.85
18.92
-45.06
-101.37
-147.37
-183.39
-211.84
-236.04
-259.38
-284.37
-311.64
-338.89
-360.91
-370.63
-361.65
-331.01
-280.72
-217.35
-149.58
-85.22
-29.02
17.79
56.84
91.19
124.26
158.91
196.51
236.26
274.70
306.26
324.80
326.28
310.46
281.12
244.76
208.47
178.01
156.57
144.66
139.68
137.31
132.40
120.12
97.54
65.07
27.09
-9.32
-36.84
-51.64
-53.45
-45.18
-31.83
-18.82
-10.53
-9.39
-16.36
-31.46
-56.14
-90.46
-132.41
-178.36
-224.14
-266.37
-303.11
-334.71
-363.24
-393.28
-426.08
-457.42
-478.68
-480.43
-456.76
-407.95
-341.40
-255.05
-159.15
-70.20
-2.38
39.88
61.50
69.09
68.89
62.74
50.86
32.16
8.81
-12.96
-26.16
-25.35
-8.08
24.98
69.69
119.13
162.71
190.94
198.13
183.43
150.48
106.00
58.08
14.13
-20.12
-42.28
-51.39
-47.44
-31.71
-6.89
23.10
54.10
82.39
105.21
120.14
125.90
122.68
112.22
97.61
82.63
70.93
64.96
65.43
70.94
78.85
86.15
90.13
89.03
82.26
70.48
55.41
39.34
24.55
12.95
5.78
3.68
6.92
15.32
28.26
44.51
62.15
78.92
92.70
102.12
106.94
108.00
106.73
104.52
102.10
99.19
94.73
87.45
76.64
62.71
47.34
32.97
21.88
15.20
12.26
10.71
7.57
0.46
-11.21
-25.92
-40.78
-52.75
-59.85
-61.80
-59.84
-56.14
-53.04
-52.36
-54.96
-60.56
-67.81
-74.68
-79.14
-79.85
-76.50
-69.85
-61.18
-51.75
-42.50
-34.01
-26.70
-20.92
-16.79
-13.95
-11.54
-8.46
-3.88
2.35
9.73
17.24
23.87
29.04
32.94
36.57
41.29
48.42
58.46
70.68
83.13
93.19
98.57
98.31
93.32
85.93
79.00
74.65
73.55
74.71
76.17
75.76
72.01
64.55
54.12
42.11
30.03
18.95
9.41
1.44
-5.22
-10.84
-15.71
-20.05
-24.16
-28.34
-32.91
-38.02
-43.70
-49.80
-56.05
-62.09
-67.51
-71.94
-75.11
-76.88
-77.14
-75.52
-71.32
-63.72
-52.42
-38.23
-23.19
-9.98
-0.72
3.91
4.98
4.67
5.19
7.74
12.24
17.55
22.04
24.14
22.76
17.53
9.08
-1.03
-10.51
-17.02
-18.96
-16.01
-9.19
-0.37
8.61
16.46
22.72
27.59
31.61
35.30
39.11
43.28
47.93
52.96
58.04
62.58
65.92
67.56
67.50
66.61
66.56
69.34
76.45
88.01
102.44
116.79
127.88
133.36
132.53
126.28
116.29
104.27
91.11
76.81
60.62
41.52
18.76
-7.86
-37.79
-69.84
-102.46
-134.22
-164.23
-192.32
-218.73
-243.67
-266.79
-287.11
-303.29
-314.21
-319.27
-318.54
-312.51
-301.79
-286.96
-268.57
-247.12
-223.14
-197.00
-168.69
-137.71
-103.23
-64.50
-21.48
24.47
70.53
112.66
146.75
169.91
181.53
183.61
180.00
174.93
171.49
170.75
171.65
171.86
168.75
160.48
146.49
127.56
105.45
82.42
60.78
42.29
27.98
17.99
11.74
8.19
6.07
4.07
0.97
-4.04
-11.12
-19.53
-27.81
-34.30
-37.75
-37.95
-35.86
-33.20
-31.80
-32.78
-35.90
-39.65
-41.73
-39.94
-33.21
-22.07
-8.64
4.15
13.76
19.03
20.53
20.20
20.34
22.57
27.26
33.48
39.53
43.70
44.86
42.79
38.07
31.80
25.11
18.95
13.81
9.88
7.16
5.63
5.19
5.57
6.27
6.60
6.00
4.20
1.50
-1.45
-3.94
-5.55
-6.30
-6.53
-6.78
-7.42
-8.61
-10.12
-11.39
-11.67
-10.24
-6.82
-1.80
3.73
8.35
10.87
10.93
9.25
7.32
6.83
8.90
13.58
19.81
25.84
29.90
30.88
28.78
24.54
19.63
15.31
12.19
10.17
8.73
7.43
6.17
5.25
4.94
5.34
6.13
6.89
7.26
7.23
6.98
6.71
6.41
5.80
4.49
2.26
-0.81
-4.11
-6.70
-7.54
-5.89
-1.77
3.90
9.53
13.42
14.53
12.93
9.73
6.57
4.86
5.25
7.47
10.58
13.36
14.67
13.74
10.32
4.77
-1.95
-8.49
-13.46
-15.92
-15.68
-13.39
-10.10
-6.88
-4.31
-2.44
-0.89
0.83
3.00
5.59
8.22
10.38
11.54
11.33
9.60
6.52
2.56
-1.53
-4.78
-6.24
-5.33
-2.15
2.40
6.87
9.81
10.30
8.31
4.66
0.62
-2.56
-4.03
-3.53
-1.41
1.41
3.61
3.87
1.30
-3.98
-10.86
-17.48
-21.97
-23.30
-21.61
-17.96
-13.68
-9.77
-6.56
-3.94
-1.78
-0.18
0.60
0.44
-0.37
-1.11
-1.08
-0.03
1.55
2.60
1.94
-1.07
-6.11
-11.91
-16.76
-19.21
-18.78
-16.15
-12.88
-10.63
-10.43
-12.20
-14.88
-16.95
-17.08
-14.60
-9.66
-3.03
4.20
10.81
15.76
18.38
18.63
17.09
14.91
13.35
13.35
15.25
18.70
23.00
27.35
31.18
34.11
35.89
36.31
35.35
33.24
30.50
27.80
25.75
24.60
24.18
23.85
22.77
20.34
16.42
11.50
6.55
2.69
0.67
0.64
2.01
3.68
4.52
3.78
1.33
-2.26
-6.07
-9.14
-10.68
-10.29
-8.04
-4.41
-0.32
3.06
4.56
3.33
-0.75
-6.95
-13.88
-19.86
-23.36
-23.47
-19.97
-13.29
-4.38
5.52
15.14
23.48
30.31
36.64
44.91
58.70
81.58
115.59
159.63
208.97
256.07
292.76
313.01
315.12
302.10
280.09
255.55
232.44
211.01
188.47
161.12
126.76
86.18
42.90
1.76
-32.98
-58.93
-75.98
-85.72
-90.59
-93.12
-95.64
-100.01
-107.20
-117.13
-128.38
-138.27
-143.54
-141.25
-130.04
-111.23
-89.14
-70.27
-61.17
-66.04
-84.66
-112.09
-140.56
-162.73
-174.83
-177.91
-176.77
-177.10
-182.83
-194.51
-209.49
-223.62
-233.28
-236.86
-235.00
-230.01
-224.65
-220.94
-219.53
-219.17
-217.16
-210.68
-197.70
-177.43
-150.14
-117.15
-81.20
-47.21
-21.61
-10.86
-19.59
-48.15
-91.40
-139.37
-179.97
-202.91
-203.10
-181.02
-141.59
-92.07
-39.53
11.21
58.45
102.97
148.13
191.87
227.87
249.00
251.16
235.20
205.89
169.81
133.04
99.67
71.76
48.47
29.28
14.38
4.19
-0.88
-0.74
4.47
14.38
28.79
47.87
72.65
103.42
137.94
170.64
193.75
200.23
186.98
156.73
117.60
80.38
54.12
43.22
47.07
61.90
83.22
107.25
130.90
151.24
165.15
169.44
161.69
141.25
109.73
70.83
29.66
-8.62
-39.93
-62.34
-76.58
-85.66
-93.50
-103.19
-115.74
-129.94
-143.31
-153.45
-158.92
-159.43
-155.30
-146.82
-134.10
-117.46
-97.94
-77.52
-58.59
-43.07
-31.64
-23.45
-16.71
-9.66
-1.36
7.97
17.22
25.23
31.24
35.33
38.25
40.97
44.28
48.48
53.35
58.23
62.34
64.90
65.41
63.84
60.54
56.25
51.86
48.22
45.87
44.87
44.66
44.27
42.61
38.84
32.78
25.01
16.64
8.91
2.79
-1.41
-4.07
-6.12
-8.68
-12.60
-18.04
-24.37
-30.26
-34.14
-34.74
-31.53
-24.85
-15.74
-5.51
4.67
13.90
21.53
27.06
30.07
30.40
28.22
24.15
19.00
13.54
8.14
2.70
-3.15
-9.78
-17.09
-24.37
-30.37
-33.66
-33.30
-29.21
-22.44
-14.82
-8.40
-4.56
-3.53
-4.31
-5.13
-4.33
-1.06
4.36
10.59
15.79
18.36
17.43
13.19
6.73
-0.34
-6.46
-10.55
-12.21
-11.67
-9.46
-6.11
-1.98
2.76
7.83
12.68
16.43
18.15
17.26
13.86
8.75
3.10
-1.93
-5.75
-8.40
-10.43
-12.54
-15.23
-18.56
-22.14
-25.29
-27.14
-26.86
-23.84
-18.00
-10.02
-1.34
6.23
11.19
12.92
11.96
9.74
7.91
7.60
9.03
11.50
13.84
14.87
13.97
11.18
7.14
2.81
-0.84
-3.17
-3.93
-3.20
-1.23
1.80
5.76
10.50
15.64
20.55
24.28
25.88
24.62
20.29
13.38
5.00
-3.37
-10.41
-15.29
-18.06
-19.52
-20.84
-22.98
-26.19
-29.97
-33.34
-35.27
-35.26
-33.41
-30.35
-27.04
-24.29
-22.53
-21.72
-21.39
-20.82
-19.43
-16.89
-13.25
-8.95
-4.66
-1.12
1.01
1.40
0.14
-2.23
-4.85
-6.76
-7.14
-5.64
-2.35
2.32
7.88
13.94
20.23
26.42
31.99
36.20
38.27
37.71
34.66
29.88
24.55
19.77
16.18
13.74
11.79
9.52
6.33
2.19
-2.35
-6.34
-8.82
-9.08
-6.98
-3.03
1.75
6.10
8.99
9.95
9.28
7.88
6.91
7.28
9.38
12.93
17.20
21.24
24.12
25.26
24.50
22.10
18.76
15.29
12.54
11.08
11.20
12.83
15.69
19.32
23.15
26.55
28.77
29.21
27.52
23.82
18.70
13.05
7.82
3.62
0.59
-1.70
-3.98
-6.95
-10.89
-15.38
-19.40
-21.62
-20.99
-17.13
-10.71
-3.25
3.28
7.34
8.34
6.90
4.52
2.91
3.23
5.66
9.46
13.37
16.11
16.77
14.99
10.84
4.71
-2.84
-11.07
-19.14
-26.10
-31.13
-33.71
-33.84
-32.05
-29.31
-26.72
-25.14
-24.93
-25.81
-27.18
-28.50
-29.57
-30.54
-31.73
-33.29
-35.07
-36.67
-37.61
-37.45
-35.88
-32.72
-28.16
-22.80
-17.78
-14.48
-13.97
-16.42
-20.80
-25.19
-27.53
-26.59
-22.43
-16.35
-10.20
-5.62
-3.44
-3.57
-5.25
-7.47
-9.38
-10.38
-10.16
-8.58
-5.63
-1.31
4.27
10.72
17.39
23.35
27.68
29.69
29.25
26.77
23.11
19.18
15.63
12.71
10.35
8.49
7.24
6.98
8.08
10.48
13.42
15.60
15.64
12.85
7.69
1.72
-3.00
-4.85
-3.44
0.26
4.35
6.91
6.71
3.62
-1.52
-7.52
-13.30
-18.21
-21.98
-24.52
-25.61
-25.04
-22.65
-18.55
-13.17
-7.17
-1.29
3.88
7.83
10.19
10.64
9.07
5.63
0.85
-4.38
-9.00
-11.97
-12.54
-10.48
-6.15
-0.47
5.22
9.54
11.54
11.00
8.62
5.69
3.64
3.52
5.55
9.08
12.71
14.87
14.32
10.71
4.73
-2.16
-8.24
-12.18
-13.51
-12.63
-10.44
-7.81
-5.22
-2.63
0.14
3.15
6.09
8.31
9.10
8.03
5.14
0.98
-3.57
-7.53
-10.10
-10.77
-9.43
-6.30
-1.96
2.81
7.14
10.35
12.16
12.89
13.29
14.22
16.31
19.60
23.53
27.07
29.12
28.97
26.51
22.37
17.60
13.37
10.54
9.43
9.76
10.88
12.07
12.78
12.86
12.44
11.74
10.86
9.61
7.57
4.31
-0.31
-6.09
-12.34
-18.18
-22.78
-25.62
-26.47
-25.46
-22.95
-19.49
-15.77
-12.48
-10.10
-8.73
-7.94
-6.97
-5.02
-1.55
3.33
8.94
14.13
17.70
18.85
17.51
14.32
10.48
7.32
5.83
6.42
8.88
12.56
16.65
20.38
23.12
24.37
23.78
21.24
16.97
11.63
6.11
1.30
-2.26
-4.51
-5.88
-7.05
-8.67
-11.03
-13.98
-16.95
-19.07
-19.51
-17.70
-13.70
-8.33
-3.04
0.56
1.35
-0.82
-4.94
-9.22
-11.90
-11.86
-9.12
-4.65
0.05
3.64
5.30
4.99
3.21
0.69
-1.87
-4.01
-5.52
-6.35
-6.44
-5.71
-4.01
-1.42
1.62
4.29
5.63
4.88
1.94
-2.56
-7.45
-11.51
-13.97
-14.88
-14.93
-15.19
-16.56
-19.34
-23.08
-26.78
-29.27
-29.65
-27.73
-24.06
-19.78
-16.22
-14.48
-14.91
-17.04
-19.63
-21.17
-20.47
-17.11
-11.63
-5.37
0.13
3.65
4.78
3.97
2.27
0.79
0.26
0.88
2.44
4.69
7.43
10.65
14.31
18.12
21.50
23.76
24.37
23.27
20.87
17.86
14.90
12.40
10.39
8.58
6.53
3.89
0.58
-3.10
-6.46
-8.69
-9.09
-7.47
-4.28
-0.62
2.23
3.21
2.00
-0.86
-4.18
-6.65
-7.28
-5.79
-2.64
1.22
4.65
6.75
7.05
5.60
2.91
-0.22
-3.00
-4.83
-5.46
-4.95
-3.48
-1.25
1.48
4.41
7.05
8.79
9.11
7.83
5.20
1.94
-1.10
-3.34
-4.62
-5.26
-5.93
-7.19
-9.36
-12.22
-15.12
-17.10
-17.28
-15.16
-10.95
-5.60
-0.40
3.35
4.98
4.63
3.26
2.21
2.75
5.54
10.40
16.49
22.45
26.95
29.12
28.89
27.05
24.97
24.05
25.13
