1547274726.00
64.000000
-0.00
-0.00
-0.00
-0.00
-0.00
-0.00
-0.00
-0.00
-0.00
-0.01
-0.00
0.00
0.01
0.01
-0.00
-0.03
-0.05
-0.05
-0.00
0.13
0.36
0.66
1.01
1.37
1.72
2.06
2.40
2.77
3.24
3.80
4.42
5.06
5.67
6.21
6.68
7.14
7.63
8.30
9.15
10.12
11.10
11.94
12.57
13.01
13.45
14.04
15.20
16.96
19.25
21.76
24.19
26.33
28.20
30.14
32.46
35.92
40.55
46.15
52.16
57.92
62.99
67.36
71.51
76.07
82.15
89.93
99.09
108.76
117.85
125.58
131.81
138.17
143.04
148.93
156.88
167.78
181.56
196.62
209.57
215.76
210.55
190.79
156.68
110.70
57.11
-0.04
-58.17
-116.51
-175.36
-234.83
-294.21
-351.42
-404.52
-452.07
-493.55
-528.99
-558.32
-581.00
-596.02
-602.16
-597.86
-581.60
-551.54
-505.99
-444.16
-367.23
-278.94
-185.20
-92.75
-7.34
67.30
129.75
180.12
219.09
247.24
265.08
273.47
273.95
268.66
259.81
249.30
237.96
225.81
212.43
197.59
181.58
165.21
149.53
135.44
123.32
112.86
103.36
94.01
84.33
74.27
64.24
54.81
46.44
39.24
32.96
27.17
21.49
15.75
10.02
4.55
-0.37
-4.57
-8.03
-10.92
-13.46
-15.81
-18.05
-20.17
-22.07
-23.64
-24.71
-25.17
-24.90
-24.10
-22.90
-21.47
-19.98
-18.56
-17.25
-16.07
-14.93
-13.80
-12.66
-11.52
-10.43
-9.46
-8.63
-7.92
-7.26
-6.58
-5.87
-5.21
-4.65
-4.23
-3.86
-3.40
-2.67
-1.61
-0.31
1.02
2.12
2.84
3.22
3.39
3.51
3.66
3.77
3.71
3.37
2.75
1.97
1.25
0.81
0.76
1.13
1.84
2.76
3.75
4.67
5.43
5.98
6.31
6.43
6.38
6.15
5.72
5.10
4.30
3.39
2.44
1.52
0.66
-0.13
-0.86
-1.50
-2.01
-2.29
-2.30
-2.01
-1.44
-0.68
0.18
1.02
1.72
2.22
2.52
2.69
2.84
3.05
3.31
3.52
3.52
3.19
2.49
1.50
0.32
-0.98
-2.38
-3.95
-5.67
-7.47
-9.20
-10.68
-11.80
-12.53
-12.90
-12.97
-12.74
-12.17
-11.24
-9.98
-8.46
-6.84
-5.22
-3.66
-2.10
-0.44
1.44
3.57
5.92
8.40
10.91
13.37
15.78
18.13
20.45
22.73
24.96
27.14
29.26
31.36
33.43
35.50
37.55
39.57
41.54
43.40
45.08
46.47
47.51
48.23
48.71
49.10
49.47
49.80
49.99
49.91
49.51
48.82
47.96
47.06
46.20
45.34
44.42
43.34
42.07
40.60
38.94
37.09
35.04
32.80
30.39
27.84
25.17
22.36
19.40
16.30
13.17
10.13
7.34
4.87
2.71
0.73
-1.18
-3.11
-5.06
-6.97
-8.73
-10.31
-11.69
-12.94
-14.09
-15.13
-16.04
-16.71
-17.06
-17.00
-16.48
-15.49
-14.10
-12.47
-10.83
-9.39
-8.33
-7.70
-7.46
-7.45
-7.52
-7.55
-7.50
-7.37
-7.21
-7.00
-6.74
-6.46
-6.19
-6.05
-6.12
-6.47
-7.04
-7.71
-8.29
-8.59
-8.50
-8.02
-7.27
-6.43
-5.71
-5.25
-5.09
-5.17
-5.32
-5.37
-5.19
-4.76
-4.20
-3.69
-3.41
-3.43
-3.76
-4.29
-4.96
-5.70
-6.47
-7.20
-7.74
-7.95
-7.76
-7.24
-6.60
-6.09
-5.86
-5.87
-5.94
-5.88
-5.58
-5.11
-4.59
-4.14
-3.76
-3.33
-2.69
-1.78
-0.65
0.52
1.52
2.18
2.44
2.34
2.01
1.57
1.13
0.75
0.41
0.08
-0.30
-0.76
-1.28
-1.79
-2.23
-2.53
-2.69
-2.73
-2.69
-2.57
-2.38
-2.10
-1.81
-1.61
-1.61
-1.87
-2.32
-2.83
-3.21
-3.36
-3.29
-3.10
-2.93
-2.87
-2.91
-3.02
-3.12
-3.21
-3.30
-3.44
-3.62
-3.81
-4.00
-4.16
-4.32
-4.54
-4.81
-5.07
-5.18
-5.03
-4.55
-3.79
-2.88
-1.94
-1.07
-0.25
0.54
1.33
2.08
2.71
3.17
3.47
3.63
3.70
3.68
3.51
3.11
2.42
1.43
0.20
-1.13
-2.41
-3.48
-4.24
-4.62
-4.63
-4.32
-3.82
-3.24
-2.70
-2.28
-2.02
-1.93
-1.93
-1.94
-1.85
-1.61
-1.25
-0.86
-0.55
-0.38
-0.34
-0.34
-0.23
0.16
0.91
2.02
3.41
4.89
6.27
7.38
8.18
8.72
9.13
9.50
9.89
10.24
10.49
10.59
10.53
10.36
10.13
9.86
9.53
9.13
8.61
7.94
7.10
6.05
4.79
3.38
1.92
0.53
-0.68
-1.67
-2.49
-3.26
-4.13
-5.17
-6.42
-7.79
-9.15
-10.34
-11.21
-11.66
-11.69
-11.31
-10.58
-9.57
-8.30
-6.82
-5.20
-3.53
-1.96
-0.63
0.33
0.84
0.88
0.48
-0.28
-1.24
-2.28
-3.25
-4.06
-4.70
-5.25
-5.82
-6.51
-7.36
-8.28
-9.14
-9.82
-10.21
-10.30
-10.13
-9.75
-9.18
-8.40
-7.34
-5.94
-4.21
-2.27
-0.31
1.41
2.70
3.50
3.88
4.02
4.14
4.39
4.75
5.09
5.22
4.97
4.33
3.41
2.42
1.58
1.00
0.71
0.58
0.48
0.28
-0.05
-0.47
-0.88
-1.20
-1.38
-1.44
-1.42
-1.36
-1.30
-1.23
-1.16
-1.10
-1.09
-1.16
-1.28
-1.42
-1.53
-1.54
-1.44
-1.22
-0.87
-0.41
0.10
0.53
0.73
0.58
0.03
-0.80
-1.72
-2.48
-2.90
-2.98
-2.80
-2.56
-2.41
-2.42
-2.53
-2.64
-2.63
-2.45
-2.13
-1.75
-1.40
-1.12
-0.91
-0.72
-0.57
-0.48
-0.50
-0.65
-0.89
-1.15
-1.30
-1.24
-0.96
-0.50
0.01
0.45
0.75
0.87
0.85
0.78
0.76
0.87
1.14
1.56
2.04
2.46
2.73
2.83
2.77
2.63
2.49
2.41
2.40
2.46
2.55
2.64
2.72
2.77
2.76
2.67
2.45
2.11
1.68
1.24
0.85
0.54
0.29
0.05
-0.20
-0.46
-0.69
-0.85
-0.94
-0.98
-1.03
-1.13
-1.31
-1.60
-2.02
-2.65
-3.53
-4.65
-5.90
-7.09
-7.99
-8.47
-8.48
-8.07
-7.40
-6.64
-5.95
-5.43
-5.10
-4.91
-4.74
-4.43
-3.89
-3.07
-2.01
-0.76
0.60
2.00
3.39
4.66
5.73
6.49
6.92
7.04
6.99
6.89
6.86
6.90
6.95
6.92
6.77
6.52
6.31
6.26
6.45
6.81
7.19
7.37
7.16
6.42
5.14
3.36
1.25
-0.93
-2.85
-4.14
-4.58
-4.12
-2.96
-1.42
0.12
1.41
2.37
3.01
3.45
3.72
3.86
3.83
3.63
3.29
2.90
2.58
2.38
2.32
2.33
2.26
2.01
1.53
0.90
0.27
-0.19
-0.39
-0.37
-0.31
-0.41
-0.78
-1.39
-2.09
-2.66
-2.97
-3.03
-2.98
-2.97
-3.08
-3.24
-3.30
-3.11
-2.65
-2.04
-1.47
-1.12
-1.05
-1.23
-1.49
-1.70
-1.72
-1.53
-1.16
-0.70
-0.23
0.18
0.50
0.76
0.98
1.14
1.23
1.26
1.27
1.37
1.62
2.04
2.50
2.85
2.94
2.75
2.34
1.85
1.34
0.78
0.05
-0.98
-2.36
-4.03
-5.77
-7.35
-8.52
-9.11
-9.01
-8.20
-6.73
-4.71
-2.30
0.31
2.90
5.26
7.21
8.60
9.40
9.71
9.68
9.45
9.13
8.69
8.04
7.16
6.10
5.09
4.37
4.11
4.30
4.78
5.29
5.65
5.80
5.80
5.71
5.60
5.47
5.32
5.13
4.86
4.33
3.34
1.62
-0.90
-4.04
-7.34
-10.21
-12.16
-12.98
-12.80
-11.97
-10.88
-9.83
-8.96
-8.28
-7.80
-7.55
-7.60
-7.94
-8.46
-8.87
-8.89
-8.30
-7.16
-5.74
-4.45
-3.63
-3.43
-3.77
-4.39
-4.99
-5.33
-5.27
-4.82
-4.05
-3.07
-1.92
-0.60
0.94
2.72
4.64
6.42
7.65
7.84
6.60
3.73
-0.77
-6.67
-13.51
-20.46
-26.38
-29.98
-30.25
-26.91
-20.61
-12.86
-5.40
0.37
3.88
5.38
5.64
5.39
5.06
4.69
4.17
3.49
2.80
2.37
2.41
2.90
3.59
4.13
4.20
3.57
2.24
0.39
-1.75
-3.90
-5.83
-7.39
-8.47
-8.99
-8.80
-7.80
-5.93
-3.31
-0.19
3.00
5.86
8.12
9.66
10.55
10.98
11.14
11.16
11.11
10.96
10.67
10.17
9.41
8.42
7.23
5.88
4.34
2.59
0.60
-1.56
-3.66
-5.40
-6.50
-6.86
-6.60
-5.99
-5.29
-4.62
-3.82
-2.66
-0.94
1.30
3.74
5.91
7.42
8.10
8.02
7.45
6.61
5.61
4.42
2.96
1.21
-0.68
-2.53
-4.16
-5.46
-6.46
-7.15
-7.50
-7.39
-6.71
-5.42
-3.70
-1.81
-0.09
1.26
2.19
2.83
3.33
3.83
4.29
4.59
4.58
4.23
3.60
2.87
2.24
1.82
1.61
1.51
1.36
1.03
0.45
-0.37
-1.36
-2.38
-3.30
-3.97
-4.24
-4.04
-3.39
-2.40
-1.25
-0.12
0.82
1.48
1.81
1.85
1.65
1.31
0.89
0.50
0.22
0.08
0.08
0.15
0.21
0.18
0.08
-0.01
0.05
0.31
0.72
1.14
1.40
1.38
1.11
0.70
0.31
0.01
-0.24
-0.52
-0.94
-1.52
-2.19
-2.85
-3.35
-3.62
-3.64
-3.46
-3.15
-2.76
-2.31
-1.79
-1.18
-0.50
0.17
0.69
0.97
0.97
0.77
0.56
0.56
0.91
1.66
2.66
3.70
4.52
4.99
5.11
5.04
4.95
4.97
5.04
4.97
4.48
3.36
1.53
-0.93
-3.85
-6.94
-9.83
-12.04
-13.14
-12.81
-11.07
-8.34
-5.32
-2.74
-1.05
-0.28
-0.07
0.07
0.49
1.25
2.14
2.87
3.26
3.33
3.25
3.21
3.35
3.63
3.96
4.19
4.26
4.12
3.84
3.47
3.03
2.52
1.91
1.14
0.23
-0.78
-1.78
-2.67
-3.41
-4.01
-4.56
-5.10
-5.66
-6.14
-6.42
-6.36
-5.89
-5.07
-4.07
-3.09
-2.31
-1.80
-1.55
-1.42
-1.26
-0.93
-0.40
0.27
0.93
1.46
1.79
1.97
2.10
2.33
2.73
3.30
3.98
4.68
5.37
6.02
6.60
7.09
7.39
7.42
7.19
6.75
6.26
5.86
5.59
5.40
5.14
4.66
3.89
2.86
1.65
0.41
-0.76
-1.78
-2.59
-3.14
-3.43
-3.49
-3.39
-3.27
-3.26
-3.42
-3.74
-4.12
-4.41
-4.49
-4.29
-3.85
-3.26
-2.62
-2.00
-1.39
-0.75
-0.07
0.60
1.16
1.47
1.52
1.34
1.08
0.86
0.74
0.72
0.74
0.79
0.86
1.02
1.29
1.65
2.03
2.32
2.42
2.28
1.89
1.27
0.49
-0.37
-1.18
-1.78
-2.06
-1.96
-1.58
-1.09
-0.75
-0.75
-1.13
-1.77
-2.42
-2.81
-2.82
-2.46
-1.91
-1.34
-0.89
-0.54
-0.20
0.23
0.75
1.30
1.75
2.02
2.08
1.98
1.78
1.58
1.44
1.38
1.45
1.61
1.82
1.99
2.05
1.97
1.77
1.52
1.28
1.05
0.76
0.36
-0.16
-0.75
-1.27
-1.60
-1.68
-1.56
-1.39
-1.30
-1.41
-1.73
-2.21
-2.74
-3.19
-3.46
-3.47
-3.19
-2.64
-1.86
-0.98
-0.09
0.70
1.35
1.84
2.17
2.35
2.36
2.21
1.95
1.66
1.47
1.44
1.60
1.86
2.09
2.20
2.15
1.98
1.76
1.54
1.31
1.02
0.64
0.19
-0.24
-0.58
-0.79
-0.94
-1.09
-1.33
-1.68
-2.07
-2.38
-2.53
-2.46
-2.18
-1.75
-1.26
-0.80
-0.43
-0.16
0.03
0.16
0.27
0.35
0.37
0.32
0.20
0.04
-0.10
-0.18
-0.15
0.01
0.25
0.50
0.66
0.67
0.53
0.31
0.09
-0.07
-0.16
-0.23
-0.36
-0.55
-0.75
-0.91
-0.99
-1.04
-1.19
-1.55
-2.15
-2.87
-3.52
-3.93
-4.02
-3.82
-3.45
-2.99
-2.51
-2.03
-1.55
-1.15
-0.87
-0.75
-0.75
-0.76
-0.67
-0.44
-0.11
0.23
0.47
0.55
0.53
0.46
0.44
0.52
0.70
0.93
1.12
1.20
1.17
1.04
0.86
0.66
0.49
0.35
0.26
0.26
0.32
0.37
0.30
0.02
-0.49
-1.15
-1.80
-2.30
-2.58
-2.69
-2.72
-2.74
-2.74
-2.64
-2.35
-1.89
-1.33
-0.79
-0.34
0.04
0.38
0.75
1.13
1.47
1.70
1.80
1.79
1.72
1.67
1.65
1.66
1.65
1.62
1.57
1.53
1.53
1.57
1.66
1.79
1.93
2.05
2.10
2.03
1.80
1.42
0.92
0.35
-0.20
-0.68
-1.07
-1.35
-1.52
-1.56
-1.48
-1.32
-1.13
-1.01
-1.02
-1.23
-1.66
-2.25
-2.91
-3.48
-3.82
-3.83
-3.50
-2.94
-2.26
-1.55
-0.86
-0.17
0.49
1.09
1.52
1.73
1.72
1.62
1.55
1.56
1.63
1.66
1.56
1.37
1.18
1.12
1.24
1.48
1.78
2.05
2.27
2.46
2.58
2.60
2.45
2.15
1.76
1.37
1.06
0.83
0.61
0.39
0.15
-0.05
-0.16
-0.19
-0.23
-0.38
-0.66
-1.04
-1.41
-1.66
-1.81
-1.93
-2.12
-2.45
-2.88
-3.33
-3.70
-3.92
-3.97
-3.84
-3.53
-3.01
-2.27
-1.37
-0.40
0.48
1.12
1.45
1.48
1.30
1.05
0.86
0.81
0.89
1.07
1.30
1.51
1.69
1.83
1.92
1.98
2.02
2.03
2.02
1.98
1.89
1.71
1.40
1.00
0.58
0.26
0.14
0.27
0.57
0.90
1.12
1.12
0.89
0.52
0.07
-0.36
-0.76
-1.13
-1.48
-1.81
-2.09
-2.29
-2.36
-2.34
-2.28
-2.26
-2.37
-2.67
-3.16
-3.71
-4.17
-4.34
-4.10
-3.42
-2.44
-1.36
-0.43
0.18
0.40
0.31
0.09
-0.04
0.04
0.35
0.79
1.22
1.54
1.76
1.89
2.01
2.12
2.15
2.02
1.71
1.29
0.90
0.68
0.67
0.84
1.09
1.35
1.57
1.73
1.84
1.87
1.77
1.54
1.17
0.73
0.23
-0.27
-0.77
-1.25
-1.66
-1.94
-2.06
-2.02
-1.90
-1.79
-1.78
-1.90
-2.14
-2.44
-2.76
-2.99
-3.07
-2.96
-2.67
-2.25
-1.80
-1.40
-1.01
-0.58
-0.04
0.61
1.27
1.78
2.00
1.87
1.47
0.95
0.52
0.35
0.50
0.94
1.52
2.07
2.41
2.48
2.35
2.14
2.00
2.03
2.18
2.36
2.48
2.47
2.33
2.08
1.75
1.40
1.08
0.86
0.80
0.88
1.02
1.11
1.04
0.80
0.44
0.06
-0.28
-0.54
-0.74
-0.91
-1.04
-1.14
-1.21
-1.26
-1.32
-1.44
-1.61
-1.83
-2.04
-2.22
-2.36
-2.50
-2.69
-2.96
-3.31
-3.70
-4.06
-4.29
-4.34
-4.17
-3.80
-3.27
-2.60
-1.87
-1.12
-0.42
0.17
0.61
0.87
0.98
0.97
0.92
0.90
0.96
1.13
1.39
1.66
1.86
1.94
1.93
1.92
1.98
2.18
2.45
2.70
2.82
2.76
2.56
2.33
2.14
2.00
1.84
1.57
1.14
0.61
0.07
-0.34
-0.53
-0.48
-0.26
0.00
0.19
0.22
0.08
-0.18
-0.50
-0.83
-1.13
-1.40
-1.62
-1.75
-1.79
-1.76
-1.75
-1.89
-2.26
-2.87
-3.61
-4.25
-4.58
-4.45
-3.87
-3.00
-2.02
-1.12
-0.36
0.27
0.80
1.24
1.57
1.75
1.74
1.58
1.37
1.19
1.14
1.21
1.37
1.54
1.68
1.77
1.78
1.74
1.67
1.63
1.67
1.80
2.01
2.20
2.25
2.06
1.64
1.08
0.52
0.10
-0.10
-0.10
0.00
0.09
0.06
-0.13
-0.45
-0.82
-1.14
-1.35
-1.44
-1.47
-1.51
-1.66
-1.96
-2.39
-2.87
-3.30
-3.55
-3.51
-3.15
-2.51
-1.71
-0.95
-0.38
-0.07
0.03
0.03
0.09
0.26
0.53
0.81
1.03
1.18
1.26
1.33
1.39
1.44
1.47
1.49
1.51
1.55
1.63
1.70
1.78
1.86
1.97
2.13
2.29
2.37
2.26
1.91
1.34
0.65
-0.05
-0.66
-1.15
-1.53
-1.82
-2.03
-2.15
-2.19
-2.15
-2.08
-2.04
-2.10
-2.29
-2.56
-2.86
-3.07
-3.14
-3.05
-2.83
-2.52
-2.13
-1.67
-1.09
-0.39
0.38
1.10
1.65
1.96
1.98
1.79
1.51
1.26
1.12
1.11
1.18
1.28
1.34
1.36
1.36
1.35
1.36
1.38
1.39
1.40
1.41
1.45
1.50
1.51
1.42
1.20
0.84
0.42
0.03
-0.24
-0.38
-0.43
-0.45
-0.53
-0.68
-0.91
-1.20
-1.56
-2.00
-2.54
-3.16
-3.75
-4.18
-4.29
-4.02
-3.38
-2.52
-1.63
-0.88
-0.37
-0.07
0.11
0.29
0.52
0.79
1.04
1.24
1.39
1.52
1.66
1.80
1.89
1.86
1.70
1.47
1.28
1.25
1.43
1.77
2.13
2.39
2.47
2.35
2.08
1.72
1.38
1.12
0.97
0.91
0.84
0.65
0.28
-0.22
-0.73
-1.08
-1.20
-1.14
-1.04
-1.09
-1.34
-1.77
-2.24
-2.67
-3.02
-3.32
-3.61
-3.82
-3.82
-3.51
-2.86
-2.00
-1.13
-0.44
0.03
0.34
0.63
1.01
1.46
1.86
2.08
2.03
1.78
1.46
1.24
1.22
1.38
1.63
1.85
1.97
1.99
1.94
1.87
1.78
1.61
1.32
0.91
0.46
0.09
-0.06
0.05
0.34
0.62
0.70
0.42
-0.24
-1.13
-1.99
-2.58
-2.73
-2.44
-1.88
-1.30
-0.94
-0.93
-1.33
-2.07
-2.98
-3.89
-4.61
-4.98
-4.92
-4.43
-3.63
-2.68
-1.72
-0.90
-0.27
0.16
0.44
0.64
0.85
1.11
1.43
1.77
2.04
2.18
2.19
2.11
2.02
2.01
2.15
2.44
2.86
3.36
3.83
4.15
4.18
3.85
3.17
2.25
1.30
0.48
-0.09
-0.39
-0.51
-0.55
-0.64
-0.85
-1.22
-1.71
-2.26
-2.77
-3.18
-3.48
-3.69
-3.87
-4.08
-4.30
-4.47
-4.48
-4.29
-3.91
-3.39
-2.79
-2.13
-1.36
-0.50
0.42
1.26
1.84
2.08
2.02
1.80
1.63
1.67
1.92
2.31
2.66
2.87
2.91
2.83
2.74
2.72
2.77
2.82
2.77
2.56
2.21
1.78
1.39
1.16
1.10
1.17
1.27
1.28
1.13
0.80
0.35
-0.14
-0.58
-0.92
-1.12
-1.25
-1.36
-1.56
-1.88
-2.35
-2.88
-3.38
-3.74
-3.84
-3.60
-3.02
-2.13
-1.05
0.05
1.02
1.80
2.38
2.84
3.24
3.60
3.84
3.86
3.58
3.07
2.51
2.10
1.98
2.17
2.51
2.83
2.95
2.86
2.59
2.28
2.01
1.82
1.66
1.49
1.25
0.96
0.67
0.41
0.20
0.01
-0.22
-0.53
-0.91
-1.32
-1.69
-1.97
-2.18
-2.37
-2.62
-2.99
-3.49
-4.04
-4.54
-4.85
-4.85
-4.48
-3.74
-2.72
-1.56
-0.43
0.54
1.23
1.62
1.73
1.62
1.36
1.07
0.84
0.76
0.87
1.15
1.52
1.87
2.13
2.29
2.43
2.65
3.00
3.44
3.84
4.08
4.14
4.10
4.10
4.28
4.68
5.25
5.96
6.75
7.51
7.90
7.35
5.28
1.45
-3.76
-9.28
-13.76
-16.14
-16.11
-14.17
-11.25
-8.21
-5.52
-3.28
-1.47
-0.16
0.42
0.12
-0.86
-2.02
-2.67
-2.39
-1.17
0.54
2.10
2.96
2.89
2.01
0.68
-0.65
-1.58
-1.89
-1.54
-0.69
0.38
1.37
2.04
2.29
2.15
1.73
1.18
0.61
0.10
-0.30
-0.58
-0.77
-0.94
-1.20
-1.60
-2.17
-2.79
-3.31
-3.58
-3.51
-3.11
-2.48
-1.72
-0.93
-0.16
0.50
1.02
1.35
1.50
1.54
1.54
1.57
1.63
1.65
1.55
1.31
0.97
0.64
0.42
0.35
0.41
0.50
0.57
0.59
0.56
0.50
0.41
0.25
-0.01
-0.39
-0.86
-1.38
-1.90
-2.39
-2.86
-3.28
-3.63
-3.88
-4.02
-4.09
-4.18
-4.29
-4.41
-4.41
-4.14
-3.52
-2.57
-1.43
-0.31
0.64
1.35
1.82
2.10
2.22
2.18
1.99
1.70
1.41
1.23
1.21
1.33
1.44
1.45
1.31
1.10
0.97
1.03
1.30
1.66
1.95
2.02
1.86
1.57
1.30
1.16
1.17
1.20
1.13
0.85
0.35
-0.29
-0.95
-1.52
-1.94
-2.17
-2.21
-2.07
-1.79
-1.44
-1.09
-0.82
-0.70
-0.75
-0.97
-1.35
-1.88
-2.56
-3.36
-4.24
-5.09
-5.81
-6.31
-6.56
-6.60
-6.52
-6.42
-6.34
-6.30
-6.24
-6.11
-5.87
-5.50
-5.06
-4.59
-4.14
-3.79
-3.57
-3.53
-3.64
-3.84
-3.93
-3.72
-2.97
-1.54
0.59
3.39
6.73
10.48
14.55
18.80
23.10
27.22
30.94
34.04
36.38
37.92
38.66
38.64
37.84
36.17
33.49
29.69
24.80
19.06
12.88
6.74
1.05
-3.96
-8.25
-11.98
-15.33
-18.51
-21.62
-24.67
-27.61
-30.34
-32.78
-34.85
-36.54
-37.84
-38.69
-38.99
-38.56
-37.27
-35.07
-32.07
-28.51
-24.65
-20.68
-16.68
-12.66
-8.59
-4.48
-0.47
3.24
6.45
9.05
11.00
12.40
13.43
14.29
15.13
16.03
16.99
17.92
18.70
19.24
19.54
19.61
19.55
19.44
19.31
19.14
18.85
18.34
17.57
16.53
15.29
13.97
12.66
11.42
10.26
9.13
7.95
6.68
5.34
3.99
2.71
1.54
0.44
-0.68
-1.91
-3.29
-4.74
-6.10
-7.19
-7.87
-8.12
-7.98
-7.52
-6.78
-5.76
-4.45
-2.91
-1.32
0.11
1.21
1.91
2.29
2.51
2.71
2.97
3.27
3.53
3.68
3.67
3.52
3.31
3.08
2.85
2.63
2.39
2.11
1.76
1.36
0.90
0.38
-0.23
-0.99
-1.95
-3.08
-4.26
-5.30
-6.06
-6.49
-6.69
-6.87
-7.23
-7.89
-8.84
-9.91
-10.86
-11.49
-11.69
-11.43
-10.75
-9.70
-8.36
-6.87
-5.36
-4.01
-2.94
-2.16
-1.57
-1.02
-0.39
0.32
1.01
1.52
1.72
1.64
1.44
1.30
1.40
1.75
2.28
2.84
3.35
3.79
4.18
4.51
4.70
4.64
4.25
3.60
2.90
2.43
2.39
2.81
3.57
4.43
5.17
5.65
5.87
5.82
5.55
5.09
4.50
3.91
3.46
3.28
3.33
3.45
3.41
3.00
2.22
1.17
0.09
-0.84
-1.57
-2.20
-2.87
-3.71
-4.72
-5.80
-6.88
-7.87
-8.78
-9.62
-10.42
-11.23
-12.10
-13.08
-14.16
-15.23
-16.07
-16.48
-16.38
-15.93
-15.45
-15.35
-15.89
-17.05
-18.55
-19.96
-20.91
-21.21
-20.85
-19.88
-18.32
-16.02
-12.85
-8.77
-3.94
1.32
6.70
12.09
17.62
23.44
29.49
35.27
39.96
42.74
43.19
41.58
38.72
35.62
33.04
31.21
29.88
28.59
26.92
24.73
22.07
19.11
15.94
12.55
8.88
5.00
1.17
-2.24
-4.90
-6.70
-7.79
-8.55
-9.30
-10.18
-11.01
-11.44
-11.10
-9.92
-8.12
-6.17
-4.58
-3.71
-3.64
-4.23
-5.18
-6.17
-6.94
-7.32
-7.21
-6.63
-5.70
-4.60
-3.58
-2.85
-2.54
-2.63
-2.99
-3.41
-3.65
-3.53
-3.00
-2.09
-0.96
0.19
1.14
1.73
1.87
1.59
1.06
0.52
0.17
0.13
0.33
0.59
0.68
0.40
-0.32
-1.43
-2.79
-4.25
-5.63
-6.78
-7.57
-7.90
-7.75
-7.20
-6.44
-5.70
-5.21
-5.08
-5.25
-5.55
-5.74
-5.56
-4.89
-3.66
-1.96
0.06
2.20
4.24
6.02
7.41
8.35
8.82
8.88
8.60
8.02
7.15
5.96
4.47
2.77
1.03
-0.50
-1.63
-2.28
-2.48
-2.35
-2.05
-1.68
-1.31
-0.97
-0.69
-0.50
-0.44
-0.49
-0.60
-0.70
-0.72
-0.68
-0.59
-0.50
-0.45
-0.49
-0.65
-0.92
-1.26
-1.54
-1.66
-1.54
-1.24
-0.92
-0.78
-0.96
-1.39
-1.87
-2.11
-1.95
-1.36
-0.48
0.49
1.38
2.14
2.74
3.22
3.56
3.76
3.85
3.94
4.14
4.56
5.15
5.74
6.05
5.84
4.99
3.58
1.88
0.20
-1.18
-2.15
-2.74
-3.05
-3.23
-3.35
-3.45
-3.55
-3.71
-3.98
-4.42
-4.98
-5.56
-5.99
-6.14
-5.99
-5.62
-5.20
-4.87
-4.73
-4.82
-5.10
-5.53
-6.02
-6.43
-6.59
-6.28
-5.37
-3.85
-1.93
0.06
1.74
2.90
3.55
3.88
4.18
4.61
5.19
5.78
6.24
6.52
6.70
6.93
7.31
7.83
8.33
8.65
8.70
8.52
8.23
7.92
7.58
7.04
6.06
4.47
2.27
-0.33
-2.95
-5.20
-6.83
-7.80
-8.25
-8.43
-8.55
-8.71
-8.91
-9.06
-9.10
-9.03
-8.89
-8.79
-8.80
-8.96
-9.22
-9.46
-9.52
-9.28
-8.62
-7.50
-5.90
-3.88
-1.57
0.83
3.06
4.91
6.26
7.18
7.85
8.52
9.33
10.32
11.40
12.45
13.41
14.31
15.23
16.22
17.27
18.31
19.27
20.07
20.67
21.09
21.31
21.34
21.18
20.83
20.28
19.53
18.52
17.19
15.40
12.98
9.70
5.36
-0.10
-6.49
-13.40
-20.19
-26.22
-30.97
-34.14
-35.68
-35.67
-34.29
-31.71
-28.21
-24.14
-19.93
-16.02
-12.64
-9.86
-7.51
-5.38
-3.31
-1.32
0.46
1.89
2.95
3.76
4.56
5.57
6.85
8.32
9.73
10.80
11.34
11.29
10.71
9.75
8.57
7.24
5.83
4.35
2.88
1.47
0.16
-1.07
-2.31
-3.68
-5.24
-6.88
-8.41
-9.60
-10.27
-10.38
-9.97
-9.16
-8.10
-6.90
-5.66
-4.42
-3.19
-1.97
-0.75
0.48
1.71
2.88
3.88
4.64
5.10
5.25
5.14
4.87
4.54
4.24
4.04
3.95
3.91
3.88
3.82
3.74
3.65
3.57
3.50
3.40
3.25
3.05
2.82
2.57
2.28
1.89
1.34
0.57
-0.36
-1.31
-2.09
-2.58
-2.74
-2.72
-2.71
-2.86
-3.18
-3.56
-3.86
-4.02
-4.11
-4.32
-4.82
-5.67
-6.74
-7.74
-8.34
-8.31
-7.57
-6.24
-4.57
-2.84
-1.27
-0.03
0.84
1.38
1.70
1.91
2.20
2.71
3.52
4.58
5.70
6.65
7.24
7.43
7.33
7.11
6.91
6.75
6.53
6.17
5.63
4.99
4.33
3.70
3.04
2.26
1.30
0.24
-0.76
-1.49
-1.78
-1.60
-1.07
-0.39
0.21
0.55
0.61
0.46
0.26
0.16
0.23
0.46
0.72
0.91
0.92
0.70
0.26
-0.40
-1.25
-2.23
-3.23
-4.09
-4.68
-4.93
-4.90
-4.73
-4.54
-4.40
-4.32
-4.19
-3.96
-3.60
-3.17
-2.76
-2.46
-2.28
-2.20
-2.18
-2.16
-2.17
-2.26
-2.49
-2.91
-3.52
-4.24
-4.98
-5.58
-5.91
-5.88
-5.43
-4.57
-3.41
-2.10
-0.83
0.27
1.16
1.93
2.70
3.61
4.67
5.73
6.56
6.94
6.81
6.30
5.76
5.61
6.20
7.61
9.63
11.73
13.18
13.28
11.50
7.64
1.93
-5.01
-12.27
-18.81
-23.72
-26.48
-27.02
-25.70
-23.12
-19.90
-16.43
-12.94
-9.52
-6.29
-3.41
-1.13
0.39
1.15
1.30
1.03
0.51
-0.15
-0.93
-1.84
-2.84
-3.86
-4.75
-5.34
-5.44
-4.92
-3.80
-2.25
-0.56
0.94
2.05
2.71
3.07
3.33
3.65
4.11
4.66
5.21
5.69
6.05
6.30
6.37
6.22
5.78
5.03
3.98
2.68
1.20
-0.39
-2.04
-3.64
-5.08
-6.26
-7.09
-7.54
-7.61
-7.30
-6.61
-5.52
-4.06
-2.33
-0.47
1.29
2.77
3.87
4.58
5.00
5.29
5.58
5.98
6.52
7.19
7.96
8.82
9.71
10.60
11.43
12.13
12.66
13.03
13.30
13.53
13.78
14.02
14.23
14.38
14.45
14.52
14.68
14.98
15.41
15.89
16.24
16.32
16.05
15.46
14.67
13.82
13.01
12.20
11.26
9.98
8.19
5.81
2.89
-0.51
-4.38
-8.77
-13.67
-18.86
-23.83
-27.79
-30.02
-30.13
-28.36
-25.46
-22.46
-20.21
-19.18
-19.36
-20.52
-22.38
-24.78
-27.51
-30.13
-31.81
-31.52
-28.42
-22.36
-14.09
-5.16
2.67
8.05
10.55
10.75
9.77
8.80
8.46
8.76
9.21
9.30
8.80
7.91
7.06
6.61
6.64
6.91
6.98
6.55
5.52
4.07
2.50
1.10
0.01
-0.76
-1.29
-1.67
-1.99
-2.26
-2.49
-2.68
-2.84
-2.96
-3.07
-3.23
-3.50
-3.94
-4.54
-5.27
-6.05
-6.81
-7.46
-7.96
-8.24
-8.30
-8.10
-7.69
-7.11
-6.40
-5.62
-4.80
-3.96
-3.13
-2.34
-1.66
-1.10
-0.66
-0.27
0.11
0.57
1.11
1.74
2.42
3.15
3.87
4.54
5.12
5.57
5.89
6.07
6.14
6.17
6.22
6.34
6.55
6.80
7.02
7.12
7.04
6.80
6.48
6.17
5.89
5.58
5.16
4.55
3.74
2.79
1.77
0.77
-0.20
-1.13
-2.00
-2.76
-3.31
-3.51
-3.33
-2.85
-2.22
-1.65
-1.26
-1.08
-1.04
-0.99
-0.85
-0.60
-0.26
0.11
0.47
0.80
1.09
1.29
1.34
1.23
0.97
0.68
0.47
0.42
0.57
0.86
1.18
1.45
1.60
1.66
1.69
1.75
1.89
2.07
2.18
2.12
1.85
1.43
1.01
0.72
0.65
0.78
1.05
1.37
1.72
2.08
2.49
2.90
3.29
3.61
3.85
4.02
4.17
4.33
4.55
4.88
5.36
5.98
6.64
7.22
7.58
7.63
7.38
6.88
6.22
5.41
4.42
3.23
1.89
0.57
-0.53
-1.23
-1.47
-1.28
-0.78
-0.09
0.70
1.50
2.20
2.65
2.70
2.25
1.35
0.21
-0.94
-1.89
-2.62
-3.25
-3.96
-4.86
-5.89
-6.81
-7.32
-7.18
-6.36
-5.00
-3.39
-1.78
-0.29
1.10
2.50
4.00
5.58
7.10
8.39
9.29
9.75
9.80
9.50
8.88
7.87
6.39
4.35
1.80
-1.07
-4.00
-6.79
-9.32
-11.63
-13.74
-15.61
-17.06
-17.85
-17.87
-17.21
-16.20
-15.26
-14.66
-14.35
-13.99
-13.04
-11.15
-8.25
-4.65
-0.88
2.57
5.37
7.39
8.69
9.28
9.20
8.42
7.01
5.18
3.22
1.47
0.14
-0.72
-1.22
-1.54
-1.85
-2.21
-2.62
-2.97
-3.19
-3.18
-2.91
-2.42
-1.80
-1.18
-0.72
-0.54
-0.62
-0.88
-1.13
-1.19
-0.97
-0.49
0.08
0.58
0.87
0.93
0.83
0.70
0.66
0.79
1.10
1.56
2.17
2.87
3.64
4.38
5.02
5.47
5.70
5.73
5.67
5.60
5.60
5.65
5.68
5.57
5.23
4.62
3.78
2.79
1.79
0.87
0.11
-0.41
-0.69
-0.73
-0.62
-0.45
-0.31
-0.28
-0.36
-0.51
-0.67
-0.85
-1.15
-1.67
-2.43
-3.32
-4.14
-4.66
-4.81
-4.70
-4.56
-4.63
-4.99
-5.55
-6.09
-6.38
-6.28
-5.79
-4.96
-3.85
-2.57
-1.19
0.16
1.37
2.37
3.13
3.68
4.06
4.28
4.33
4.21
3.93
3.52
3.02
2.42
1.75
1.04
0.35
-0.18
-0.43
-0.31
0.16
0.89
1.69
2.37
2.77
2.85
2.65
2.31
1.94
1.63
1.37
1.08
0.67
0.09
-0.63
-1.42
-2.15
-2.74
-3.14
-3.34
-3.32
-3.07
-2.62
-2.00
-1.28
-0.55
0.15
0.82
1.49
2.17
2.83
3.45
3.96
4.32
4.55
4.67
4.73
4.77
4.79
4.79
4.70
4.48
4.09
3.49
2.75
1.99
1.37
1.00
0.92
1.03
1.17
1.17
0.96
0.54
0.01
-0.54
-1.04
-1.46
-1.78
-1.99
-2.04
-1.91
-1.61
-1.22
-0.86
-0.62
-0.55
-0.64
-0.84
-1.08
-1.33
-1.61
-1.96
-2.38
-2.81
-3.10
-3.08
-2.64
-1.77
-0.63
0.58
1.66
2.54
3.25
3.84
4.34
4.74
4.98
5.08
5.14
5.32
5.76
6.43
7.16
7.72
7.91
7.69
7.16
6.49
5.86
5.30
4.76
4.14
3.39
2.55
1.72
0.98
0.38
-0.13
-0.62
-1.12
-1.58
-1.92
-2.06
-1.97
-1.74
-1.47
-1.30
-1.25
-1.32
-1.43
-1.55
-1.65
-1.78
-2.00
-2.34
-2.76
-3.17
-3.43
-3.41
-3.08
-2.46
-1.68
-0.90
-0.25
0.24
0.59
0.90
1.21
1.54
1.82
1.98
1.98
1.86
1.70
1.60
1.63
1.75
1.90
1.97
1.91
1.69
1.35
0.96
0.59
0.33
0.25
0.34
0.56
0.80
0.94
0.90
0.67
0.30
-0.10
-0.42
-0.61
-0.66
-0.62
-0.53
-0.45
-0.42
-0.47
-0.64
-0.93
-1.30
-1.68
-2.03
-2.32
-2.57
-2.77
-2.94
-3.04
-3.02
-2.81
-2.37
-1.71
-0.91
-0.07
0.68
1.24
1.54
1.55
1.33
0.96
0.59
0.33
0.27
0.41
0.68
1.00
1.28
1.50
1.65
1.75
1.83
1.91
1.98
2.02
2.03
2.01
1.98
1.99
2.09
2.29
2.59
2.91
3.17
3.28
3.18
2.87
2.42
1.93
1.49
1.15
0.92
0.78
0.71
0.71
0.78
0.92
1.05
1.06
0.81
0.23
-0.63
-1.58
-2.39
-2.87
-2.99
-2.89
-2.75
-2.73
-2.91
-3.26
-3.73
-4.30
-4.95
-5.68
-6.47
-7.22
-7.88
-8.39
-8.78
-9.06
-9.24
-9.30
-9.20
-8.92
-8.46
-7.87
-7.19
-6.46
-5.73
-5.05
-4.51
-4.19
-4.10
-4.20
-4.35
-4.42
-4.36
-4.21
-4.10
-4.17
-4.46
-4.91
-5.33
-5.57
-5.52
-5.14
-4.41
-3.33
-1.86
0.00
2.09
4.09
5.58
6.14
5.55
3.85
1.39
-1.40
-4.04
-6.25
-7.86
-8.80
-9.00
-8.36
-6.81
-4.42
-1.51
1.42
3.87
5.52
6.39
6.80
7.15
7.71
8.54
9.50
10.44
11.34
12.30
13.44
14.77
16.15
17.30
18.02
18.22
18.00
17.51
16.89
16.16
15.27
14.10
12.54
10.49
7.86
4.60
0.72
-3.63
-8.15
-12.49
-16.29
-19.35
-21.58
-23.02
-23.75
-23.85
-23.40
-22.53
-21.40
-20.23
-19.19
-18.38
-17.72
-17.06
-16.17
-14.86
-13.07
-10.86
-8.36
-5.77
-3.24
-0.83
1.45
3.59
5.60
7.47
9.16
10.70
12.15
13.58
15.06
16.57
18.01
19.25
20.19
20.77
21.00
20.92
20.58
19.96
19.02
17.71
16.02
13.95
11.56
8.91
6.02
2.98
-0.11
-3.07
-5.64
-7.59
-8.78
-9.21
-9.03
-8.53
-7.98
-7.62
-7.54
-7.76
-8.24
-8.96
-9.93
-11.09
-12.36
-13.49
-14.23
-14.33
-13.68
-12.37
-10.61
-8.72
-6.94
-5.42
-4.16
-3.05
-1.96
-0.73
0.71
2.35
4.12
5.85
7.34
8.36
8.72
8.30
7.13
5.40
3.47
1.82
0.88
0.92
1.95
3.67
5.58
7.13
7.91
7.78
6.88
5.52
4.06
2.76
1.68
0.80
0.06
-0.60
-1.19
-1.74
-2.29
-2.92
-3.67
-4.48
-5.22
-5.70
-5.79
-5.47
-4.88
-4.21
-3.63
-3.26
-3.07
-3.00
-2.92
-2.74
-2.41
-2.00
-1.61
-1.36
-1.34
-1.55
-1.92
-2.32
-2.62
-2.72
-2.60
-2.29
-1.89
-1.46
-1.09
-0.78
-0.50
-0.19
0.23
0.76
1.32
1.80
2.07
2.10
1.97
1.88
2.02
2.52
3.35
4.36
5.33
6.07
6.46
6.53
6.36
6.08
5.76
5.43
5.03
4.51
3.83
3.01
2.12
1.25
0.46
-0.23
-0.84
-1.44
-2.02
-2.57
-3.02
-3.30
-3.35
-3.17
-2.79
-2.32
-1.87
-1.52
-1.27
-1.10
-0.91
-0.64
-0.28
0.14
0.60
1.04
1.46
1.84
2.13
2.25
2.11
1.70
1.08
0.40
-0.21
-0.68
-1.00
-1.26
-1.53
-1.84
-2.15
-2.38
-2.48
-2.43
-2.23
-1.94
-1.55
-1.07
-0.47
0.23
1.00
1.72
2.27
2.53
2.50
2.24
1.89
1.62
1.57
1.78
2.21
2.82
3.50
4.16
4.70
5.04
5.10
4.87
4.44
3.96
3.61
3.55
3.81
4.28
4.79
5.15
5.28
5.19
5.00
4.87
4.93
5.17
5.52
5.80
5.81
5.45
4.70
3.64
2.33
0.85
-0.83
-2.67
-4.59
-6.41
-7.83
-8.63
-8.71
-8.20
-7.39
-6.60
-5.99
-5.57
-5.18
-4.66
-3.99
-3.24
-2.56
-1.97
-1.36
-0.55
0.59
2.01
3.43
4.47
4.83
4.44
3.50
2.36
1.42
0.89
0.80
1.00
1.28
1.47
1.49
1.40
1.26
1.10
0.88
0.51
-0.06
-0.79
-1.54
-2.15
-2.51
-2.63
-2.66
-2.80
-3.19
-3.85
-4.64
-5.34
-5.71
-5.62
-5.09
-4.30
-3.50
-2.89
-2.63
-2.70
-3.03
-3.51
-4.02
-4.48
-4.81
-4.95
-4.89
-4.64
-4.22
-3.67
-2.98
-2.14
-1.15
-0.05
1.00
1.83
2.29
2.34
2.08
1.72
1.49
1.53
1.84
2.28
2.60
2.57
2.06
1.13
-0.04
-1.21
-2.20
-2.94
-3.50
-4.05
-4.72
-5.56
-6.44
-7.11
-7.25
-6.65
-5.23
-3.16
-0.74
1.65
3.71
5.28
6.40
7.20
7.86
8.56
9.38
10.38
11.55
12.84
14.17
15.40
16.35
16.83
16.70
15.91
14.56
12.90
11.24
9.83
8.81
8.08
7.43
6.65
5.60
4.29
2.86
1.43
0.10
-1.11
-2.21
-3.21
-4.02
-4.57
-4.84
-4.90
-4.93
-5.16
-5.75
-6.75
-8.03
-9.34
-10.41
-11.00
-11.01
-10.48
-9.57
-8.46
-7.32
-6.26
-5.38
-4.71
-4.28
-4.14
-4.27
-4.63
-5.12
-5.57
-5.76
-5.53
-4.81
-3.65
-2.18
-0.60
0.90
2.24
3.34
4.19
4.77
5.04
4.98
4.60
3.97
3.23
2.53
2.05
1.87
1.96
2.21
2.44
2.50
2.37
2.13
1.96
2.04
2.42
3.03
3.67
4.09
4.03
3.38
2.10
0.33
-1.65
-3.45
-4.62
-4.75
-3.57
-1.03
2.66
7.08
11.77
16.32
20.43
23.90
26.49
27.93
27.90
26.20
22.90
18.40
13.40
8.59
4.45
1.06
-1.76
-4.28
-6.59
-8.56
-9.94
-10.54
-10.45
-10.02
-9.73
-9.95
-10.83
-12.22
-13.81
-15.27
-16.36
-16.98
-17.15
-16.93
-16.41
-15.63
-14.64
-13.47
-12.14
-10.67
-9.07
-7.36
-5.55
-3.66
-1.75
0.08
1.70
2.97
3.82
4.30
4.55
4.78
5.15
5.76
6.56
7.40
8.11
8.54
8.62
8.36
7.80
7.03
6.14
5.22
4.33
3.52
2.77
2.05
1.33
0.63
0.03
-0.36
-0.37
0.13
1.17
2.61
4.18
5.48
6.16
5.99
4.98
3.30
1.23
-0.96
-3.14
-5.28
-7.41
-9.57
-11.75
-13.93
-16.06
-18.06
-19.86
-21.40
-22.60
-23.39
-23.69
-23.43
-22.59
-21.25
-19.56
-17.74
-16.03
-14.57
-13.34
-12.19
-10.90
-9.25
-7.19
-4.79
-2.26
0.20
2.45
4.43
6.10
7.42
8.27
8.47
7.88
6.47
4.35
1.71
-1.23
-4.23
-7.04
-9.37
-10.91
-11.40
-10.77
-9.22
-7.16
-5.11
-3.51
-2.58
-2.30
-2.41
-2.56
-2.30
-1.27
0.76
3.84
7.72
11.94
15.99
19.50
22.29
24.46
26.21
27.68
28.82
29.35
28.92
27.33
24.63
21.23
17.65
14.28
11.20
8.06
4.28
-0.71
-7.30
-15.54
-25.16
-35.68
-46.34
-55.98
-63.02
-65.77
-63.08
-55.03
-43.22
-30.28
-18.87
-10.58
-5.50
-2.59
-0.56
1.23
2.55
2.81
1.75
0.00
-1.16
-0.44
2.75
7.92
13.85
19.11
22.74
24.49
24.88
24.91
25.59
27.56
30.78
34.46
37.32
37.89
35.00
28.00
16.99
2.79
-13.06
-28.37
-40.72
-47.95
-48.92
-43.95
-34.92
-24.66
-16.04
-10.91
-9.50
-10.49
-11.77
-11.33
-8.15
-2.38
4.94
12.50
19.29
24.87
29.27
32.72
35.25
36.69
36.84
35.75
33.84
31.76
30.02
28.68
27.32
25.27
22.03
17.55
12.30
6.97
2.25
-1.54
-4.43
-6.80
-9.16
-11.93
-15.25
-18.90
-22.32
-24.83
-25.84
-25.19
-23.21
-20.58
-18.10
-16.27
-15.14
-14.39
-13.56
-12.33
-10.69
-8.91
-7.37
-6.32
-5.79
-5.57
-5.30
-4.68
-3.59
-2.09
-0.43
1.11
2.30
3.10
3.55
3.81
4.01
4.17
4.21
4.00
3.45
2.66
1.90
1.56
1.97
3.20
5.02
6.95
8.46
9.20
9.12
8.45
7.62
7.06
7.09
7.77
8.93
10.19
11.10
11.32
10.77
9.67
8.56
8.02
8.46
9.93
12.06
14.27
15.91
16.59
16.22
14.98
13.19
11.19
9.25
7.61
6.43
5.77
5.57
5.58
5.53
5.17
4.47
3.61
2.88
2.51
2.52
2.69
2.72
2.37
1.58
0.52
-0.55
-1.42
-1.98
-2.28
-2.48
-2.75
-3.17
-3.71
-4.23
-4.55
-4.59
-4.38
-4.04
-3.76
-3.68
-3.94
-4.78
-6.50
-9.39
-13.35
-17.74
-21.42
-23.13
-22.11
-18.52
-13.48
-8.48
-4.78
-2.81
-2.17
-1.99
-1.56
-0.61
0.64
1.86
2.87
3.80
4.93
6.37
7.92
9.11
9.41
8.53
6.58
4.02
1.44
-0.68
-2.16
-3.10
-3.77
-4.42
-5.19
-6.03
-6.81
-7.38
-7.63
-7.55
-7.18
-6.57
-5.74
-4.72
-3.53
-2.22
-0.93
0.21
1.10
1.70
2.07
2.28
2.35
2.23
1.77
0.86
-0.46
-2.02
-3.49
-4.59
-5.12
-5.07
-4.58
-3.80
-2.88
-1.85
-0.69
0.63
2.09
3.64
5.16
6.60
7.89
9.05
10.11
11.09
11.95
12.53
12.61
11.98
10.58
8.59
6.43
4.60
3.46
3.10
3.28
3.63
3.84
3.88
3.94
4.30
5.10
6.24
7.46
8.44
9.01
9.18
9.05
8.76
8.36
7.80
6.96
5.74
4.11
2.11
-0.06
-2.16
-3.87
-5.01
-5.50
-5.48
-5.24
-5.10
-5.32
-6.03
-7.23
-8.81
-10.58
-12.37
-14.01
-15.44
-16.72
-18.00
-19.44
-21.15
-23.09
-25.03
-26.68
-27.73
-28.04
-27.61
-26.55
-24.97
-22.87
-20.20
-16.89
-12.99
-8.70
-4.35
-0.24
3.43
6.61
9.41
11.94
14.27
16.36
18.15
19.56
20.59
21.31
21.84
22.27
22.65
22.93
23.00
22.75
22.08
21.01
19.62
18.05
16.43
14.84
13.30
11.83
10.44
9.19
8.10
7.13
6.18
5.10
3.76
2.13
0.31
-1.52
-3.18
-4.58
-5.71
-6.66
-7.52
-8.33
-9.06
-9.60
-9.85
-9.74
-9.29
-8.60
-7.81
-7.05
-6.34
-5.58
-4.65
-3.43
-1.90
-0.14
1.67
3.40
4.94
6.24
7.21
7.77
7.80
7.27
6.26
4.98
3.71
2.64
1.82
1.08
0.16
-1.20
-3.13
-5.58
-8.33
-11.06
-13.42
-15.12
-16.00
-16.08
-15.51
-14.60
-13.65
-12.93
-12.59
-12.65
-13.04
-13.63
-14.30
-14.91
-15.28
-15.23
-14.57
-13.21
-11.17
-8.61
-5.75
-2.82
0.04
2.77
5.35
7.82
10.14
12.29
14.22
15.92
17.33
18.39
19.01
19.14
18.77
18.04
17.13
16.18
15.30
14.45
13.54
12.49
11.30
10.04
8.84
7.76
6.75
5.64
4.19
2.17
-0.52
-3.76
-7.26
-10.60
-13.37
-15.30
-16.38
-16.79
-16.84
-16.76
-16.62
-16.30
-15.58
-14.29
-12.41
-10.06
-7.45
-4.75
-2.06
0.59
3.15
5.48
7.41
8.82
9.70
10.25
10.77
11.59
12.94
14.90
17.38
20.21
23.18
26.05
28.62
30.72
32.15
32.79
32.60
31.61
29.92
27.66
24.94
21.81
18.30
14.48
10.51
6.63
3.13
0.19
-2.10
-3.82
-5.15
-6.23
-7.18
-8.01
-8.71
-9.27
-9.72
-10.06
-10.33
-10.51
-10.59
-10.56
-10.42
-10.21
-9.95
-9.66
-9.34
-8.99
-8.58
-8.14
-7.69
-7.32
-7.10
-7.07
-7.22
-7.48
-7.76
-7.96
-8.01
-7.86
-7.52
-7.01
-6.40
-5.81
-5.35
-5.16
-5.31
-5.82
-6.62
-7.54
-8.40
-9.04
-9.34
-9.29
-8.93
-8.39
-7.80
-7.30
-6.97
-6.79
-6.68
-6.51
-6.18
-5.66
-5.01
-4.32
-3.68
-3.11
-2.60
-2.16
-1.82
-1.70
-1.91
-2.44
-3.18
-3.88
-4.33
-4.39
-4.13
-3.72
-3.35
-3.13
-3.05
-3.00
-2.94
-2.88
-2.91
-3.15
-3.64
-4.31
-5.05
-5.71
-6.22
-6.61
-6.94
-7.28
-7.67
-8.14
-8.69
-9.31
-9.98
-10.61
-11.07
-11.19
-10.87
-10.10
-8.99
-7.73
-6.47
-5.28
-4.07
-2.67
-0.92
1.29
3.90
6.78
9.71
12.53
15.10
17.27
18.91
19.87
20.04
19.46
18.35
17.00
15.71
14.65
13.78
12.94
11.93
10.70
9.30
7.85
6.50
5.33
4.35
3.58
3.03
2.74
2.71
2.91
3.25
3.62
3.93
4.13
4.23
4.25
4.22
4.11
3.89
3.54
3.06
2.48
1.86
1.25
0.68
0.15
-0.37
-0.87
-1.34
-1.73
-2.02
-2.24
-2.41
-2.60
-2.81
-3.02
-3.16
-3.21
-3.18
-3.12
-3.09
-3.10
-3.16
-3.24
-3.31
-3.35
-3.40
-3.48
-3.60
-3.72
-3.77
-3.68
-3.41
-2.97
-2.44
-1.91
-1.46
-1.12
-0.89
-0.70
-0.51
-0.28
-0.02
0.23
0.43
0.55
0.57
0.47
0.30
0.13
0.06
0.17
0.47
0.87
1.23
1.40
1.31
0.97
0.47
-0.09
-0.68
-1.27
-1.91
-2.58
-3.25
-3.88
-4.43
-4.88
-5.24
-5.55
-5.81
-6.05
-6.28
-6.50
-6.71
-6.90
-7.02
-7.07
-7.02
-6.85
-6.52
-6.02
-5.36
-4.59
-3.82
-3.15
-2.59
-2.14
-1.74
-1.41
-1.18
-1.15
-1.34
-1.71
-2.15
-2.51
-2.73
-2.78
-2.68
-2.42
-1.96
-1.27
-0.39
0.56
1.38
1.92
2.13
2.07
1.90
1.76
1.70
1.70
1.60
1.30
0.70
-0.17
-1.20
-2.26
-3.23
-4.05
-4.69
-5.20
-5.61
-5.98
-6.35
-6.72
-7.02
-7.16
-7.06
-6.68
-6.06
-5.31
-4.56
-3.88
-3.28
-2.67
-2.01
-1.35
-0.81
-0.57
-0.72
-1.15
-1.68
-2.08
-2.23
-2.17
-2.05
-1.97
-1.95
-1.87
-1.57
-0.96
-0.08
0.94
1.93
2.83
3.64
4.42
5.21
5.99
6.67
7.11
7.18
6.79
5.94
4.69
3.15
1.46
-0.24
-1.83
-3.21
-4.29
-5.01
-5.37
-5.43
-5.24
-4.87
-4.28
-3.41
-2.20
-0.70
0.90
2.38
3.57
4.46
5.19
5.90
6.63
7.27
7.64
7.60
7.21
6.70
6.36
6.35
6.67
7.12
7.47
7.58
7.46
7.21
6.95
6.72
6.46
6.10
5.60
4.97
4.27
3.55
2.77
1.87
0.81
-0.43
-1.75
-2.99
-4.01
-4.77
-5.35
-5.87
-6.46
-7.15
-7.80
-8.19
-8.12
-7.48
-6.37
-5.02
-3.72
-2.70
-2.07
-1.76
-1.67
-1.65
-1.57
-1.41
-1.17
-0.91
-0.69
-0.52
-0.42
-0.32
-0.17
0.11
0.54
1.11
1.75
2.39
2.99
3.54
4.03
4.46
4.76
4.92
4.90
4.76
4.59
4.49
4.49
4.57
4.62
4.52
4.19
3.67
3.03
2.40
1.85
1.40
1.02
0.62
0.19
-0.23
-0.57
-0.70
-0.55
-0.13
0.45
1.04
1.50
1.77
1.87
1.94
2.11
2.45
2.93
3.46
3.90
4.19
4.35
4.49
4.73
5.09
5.52
5.90
6.10
6.07
5.86
5.58
5.34
5.17
5.02
4.82
4.54
4.15
3.71
3.29
2.93
2.66
2.45
2.22
1.90
1.40
0.68
-0.30
-1.49
-2.76
-3.95
-4.82
-5.21
-5.06
-4.46
-3.55
-2.50
-1.38
-0.15
1.25
2.88
4.64
6.38
7.90
9.10
9.99
10.66
11.24
11.77
12.20
12.48
12.59
12.56
12.46
12.32
12.12
11.76
11.15
10.22
9.00
7.59
6.09
4.60
3.15
1.72
0.29
-1.14
-2.55
-3.88
-5.07
-6.10
-7.00
-7.85
-8.72
-9.63
-10.54
-11.34
-11.94
-12.28
-12.35
-12.22
-11.89
-11.32
-10.48
-9.35
-7.96
-6.42
-4.87
-3.35
-1.90
-0.52
0.73
1.72
2.28
2.27
1.68
0.59
-0.81
-2.38
-4.06
-5.85
-7.75
-9.64
-11.24
-12.13
-11.96
-10.59
-8.19
-5.17
-2.08
0.66
2.81
4.35
5.36
5.91
6.04
5.78
5.16
4.29
3.31
2.36
1.46
0.62
-0.20
-1.01
-1.81
-2.55
-3.20
-3.74
-4.16
-4.54
-4.99
-5.66
-6.64
-7.90
-9.22
-10.24
-10.52
-9.69
-7.50
-3.90
0.90
6.48
12.23
17.49
21.61
24.15
24.96
24.19
22.25
19.61
16.68
13.72
10.86
8.15
5.64
3.39
1.49
-0.06
-1.33
-2.50
-3.72
-5.09
-6.55
-7.95
-9.17
-10.17
-11.06
-12.01
-13.13
-14.43
-15.85
-17.23
-18.48
-19.52
-20.33
-20.87
-21.13
-21.07
-20.72
-20.09
-19.23
-18.18
-16.90
-15.33
-13.39
-10.99
-8.10
-4.74
-1.02
2.88
6.77
10.49
13.91
16.93
19.50
21.54
22.98
23.72
23.76
23.15
22.01
20.51
18.78
16.96
15.11
13.27
11.41
9.56
7.76
6.13
4.80
3.93
3.57
3.63
3.93
4.24
4.33
4.10
3.52
2.67
1.60
0.38
-0.95
-2.34
-3.76
-5.15
-6.53
-7.94
-9.38
-10.81
-12.09
-13.04
-13.48
-13.35
-12.71
-11.70
-10.40
-8.84
-6.93
-4.56
-1.68
1.65
5.23
8.82
12.13
14.96
17.19
18.84
19.99
20.77
21.32
21.69
21.89
21.87
21.51
20.70
19.31
17.28
14.60
11.36
7.77
4.13
0.76
-2.09
-4.23
-5.63
-6.34
-6.48
-6.22
-5.74
-5.20
-4.76
-4.51
-4.46
-4.59
-4.83
-5.14
-5.50
-5.94
-6.48
-7.12
-7.84
-8.52
-9.02
-9.23
-9.09
-8.60
-7.85
-6.98
-6.11
-5.32
-4.66
-4.19
-3.91
-3.85
-4.02
-4.36
-4.79
-5.18
-5.45
-5.55
-5.52
-5.41
-5.27
-5.15
-5.07
-5.10
-5.28
-5.65
-6.21
-6.84
-7.39
-7.74
-7.79
-7.60
-7.25
-6.88
-6.51
-6.11
-5.58
-4.80
-3.69
-2.23
-0.47
1.52
3.60
5.65
7.51
9.08
10.25
11.00
11.33
11.31
11.03
10.57
10.03
9.44
8.81
8.11
7.29
6.32
5.20
4.01
2.84
1.79
0.92
0.25
-0.23
-0.57
-0.81
-1.07
-1.46
-2.08
-2.99
-4.14
-5.40
-6.58
-7.50
-8.12
-8.48
-8.71
-8.95
-9.29
-9.75
-10.33
-10.95
-11.59
-12.19
-12.72
-13.15
-13.43
-13.53
-13.39
-12.94
-12.16
-11.07
-9.77
-8.44
-7.27
-6.41
-5.87
-5.61
-5.56
-5.64
-5.87
-6.23
-6.66
-7.03
-7.12
-6.77
-5.91
-4.66
-3.24
-1.94
-0.94
-0.31
0.06
0.39
0.88
1.65
2.64
3.57
4.13
4.04
3.21
1.80
0.06
-1.70
-3.30
-4.63
-5.68
-6.40
-6.71
-6.52
-5.76
-4.44
-2.64
-0.47
1.94
4.50
7.07
9.54
11.80
13.80
15.52
17.01
18.34
19.58
20.82
22.12
23.49
24.83
25.98
26.75
26.99
26.72
26.09
25.31
24.49
23.64
22.57
21.09
19.05
16.49
13.62
10.73
8.09
5.90
4.19
2.90
1.91
1.13
0.46
-0.14
-0.74
-1.40
-2.16
-3.04
-4.05
-5.13
-6.23
-7.31
-8.33
-9.25
-10.06
-10.71
-11.16
-11.36
-11.28
-10.94
-10.37
-9.67
-8.90
-8.15
-7.47
-6.85
-6.28
-5.73
-5.15
-4.54
-3.94
-3.38
-2.92
-2.63
-2.53
-2.64
-2.92
-3.31
-3.68
-3.93
-3.94
-3.71
-3.27
-2.77
-2.38
-2.21
-2.30
-2.56
-2.85
-3.00
-2.94
-2.72
-2.47
-2.32
-2.36
-2.53
-2.73
-2.85
-2.87
-2.86
-2.90
-3.05
-3.27
-3.50
-3.66
-3.74
-3.78
-3.85
-4.00
-4.21
-4.45
-4.64
-4.76
-4.78
-4.71
-4.57
-4.39
-4.16
-3.92
-3.62
-3.21
-2.64
-1.90
-1.02
-0.10
0.77
1.53
2.16
2.71
3.22
3.75
4.36
5.06
5.82
6.59
7.27
7.78
8.11
8.29
8.39
8.43
8.36
8.07
7.45
6.47
5.22
3.83
2.44
1.15
-0.03
-1.14
-2.22
-3.29
-4.35
-5.43
-6.58
-7.81
-9.07
-10.25
-11.24
-12.00
-12.57
-13.07
-13.64
-14.34
-15.12
-15.85
-16.34
-16.41
-15.99
-15.10
-13.90
-12.65
-11.58
-10.84
-10.41
-10.13
-9.78
-9.13
-8.06
-6.55
-4.67
-2.49
-0.07
2.53
5.20
7.82
10.26
12.48
14.50
16.38
18.20
19.95
21.55
22.88
23.82
24.30
24.26
23.69
22.57
20.97
19.00
16.86
14.72
12.69
10.81
9.04
7.40
5.95
4.83
4.13
3.83
3.77
3.76
3.61
3.29
2.84
2.36
1.91
1.50
1.09
0.69
0.32
0.05
-0.10
-0.14
-0.18
-0.28
-0.48
-0.74
-1.01
-1.22
-1.35
-1.39
-1.37
-1.33
-1.29
-1.28
-1.32
-1.39
-1.46
-1.46
-1.34
-1.07
-0.71
-0.36
-0.14
-0.15
-0.40
-0.82
-1.32
-1.78
-2.15
-2.41
-2.56
-2.63
-2.62
-2.51
-2.32
-2.07
-1.78
-1.48
-1.12
-0.70
-0.21
0.25
0.54
0.55
0.24
-0.25
-0.72
-0.93
-0.78
-0.27
0.43
1.13
1.63
1.87
1.87
1.72
1.54
1.42
1.39
1.41
1.43
1.38
1.26
1.07
0.86
0.66
0.48
0.30
0.10
-0.11
-0.31
-0.46
-0.52
-0.48
-0.36
-0.22
-0.11
-0.13
-0.33
-0.73
-1.26
-1.79
-2.15
-2.21
-1.89
-1.25
-0.45
0.26
0.68
0.70
0.39
-0.07
-0.40
-0.44
-0.11
0.46
1.10
1.63
1.94
2.00
1.86
1.54
1.08
0.47
-0.23
-0.95
-1.60
-2.05
-2.24
-2.14
-1.81
-1.37
-0.96
-0.69
-0.63
-0.71
-0.84
-0.90
-0.82
-0.63
-0.37
-0.14
0.01
0.01
-0.19
-0.61
-1.23
-1.94
-2.58
-2.99
-3.11
-2.95
-2.62
-2.24
-1.90
-1.61
-1.34
-1.01
-0.56
0.06
0.85
1.77
2.71
3.53
4.12
4.43
4.49
4.40
4.22
3.98
3.66
3.25
2.78
2.33
1.98
1.75
1.64
1.55
1.39
1.14
0.78
0.34
-0.19
-0.86
-1.70
-2.69
-3.71
-4.56
-5.08
-5.17
-4.93
-4.53
-4.18
-3.98
-3.91
-3.82
-3.62
-3.29
-2.91
-2.64
-2.54
-2.58
-2.61
-2.45
-1.96
-1.14
-0.07
1.08
2.15
3.03
3.67
4.09
4.31
4.41
4.44
4.44
4.46
4.50
4.59
4.74
4.98
5.29
5.65
5.99
6.22
6.21
5.83
5.01
3.74
2.17
0.49
-1.06
-2.31
-3.21
-3.79
-4.11
-4.19
-3.97
-3.37
-2.40
-1.18
0.03
0.95
1.39
1.30
0.82
0.16
-0.48
-0.99
-1.39
-1.76
-2.22
-2.81
-3.47
-4.10
-4.52
-4.61
-4.33
-3.74
-2.96
-2.14
-1.37
-0.69
-0.10
0.36
0.65
0.74
0.61
0.30
-0.11
-0.52
-0.90
-1.25
-1.57
-1.90
-2.21
-2.47
-2.63
-2.67
-2.55
-2.29
-1.90
-1.42
-0.93
-0.48
-0.15
0.02
0.07
0.00
-0.12
-0.27
-0.43
-0.60
-0.74
-0.85
-0.88
-0.85
-0.80
-0.78
-0.83
-0.96
-1.16
-1.44
-1.80
-2.27
-2.85
-3.52
-4.20
-4.79
-5.20
-5.43
-5.53
-5.59
-5.69
-5.88
-6.18
-6.60
-7.14
-7.85
-8.74
-9.83
-11.07
-12.35
-13.52
-14.43
-14.96
-15.06
-14.67
-13.81
-12.48
-10.73
-8.56
-6.03
-3.18
-0.10
3.12
6.41
9.67
12.80
15.61
17.89
19.43
20.13
20.07
19.47
18.63
17.78
17.02
16.32
15.56
14.67
13.64
12.52
11.37
10.23
9.05
7.74
6.26
4.59
2.80
0.99
-0.75
-2.31
-3.63
-4.64
-5.32
-5.69
-5.81
-5.80
-5.73
-5.67
-5.61
-5.52
-5.36
-5.20
-5.09
-5.14
-5.32
-5.53
-5.55
-5.23
-4.54
-3.62
-2.73
-2.10
-1.82
-1.79
-1.76
-1.53
-0.98
-0.20
0.62
1.27
1.67
1.89
2.06
2.30
2.67
3.11
3.55
3.95
4.32
4.68
5.05
5.34
5.47
5.34
4.93
4.34
3.72
3.24
2.97
2.91
3.01
3.19
3.35
3.39
3.22
2.80
2.15
1.42
0.78
0.40
0.35
0.56
0.82
0.93
0.76
0.34
-0.22
-0.77
-1.20
-1.47
-1.59
-1.56
-1.33
-0.89
-0.25
0.48
1.18
1.73
2.10
2.36
2.63
3.01
3.56
4.23
4.95
5.59
6.03
6.18
6.00
5.53
4.85
4.08
3.29
2.50
1.64
0.61
-0.67
-2.21
-3.94
-5.73
-7.48
-9.07
-10.45
-11.55
-12.29
-12.62
-12.51
-12.01
-11.23
-10.33
-9.49
-8.82
-8.36
-8.06
-7.83
-7.57
-7.23
-6.83
-6.44
-6.15
-6.02
-6.06
-6.25
-6.50
-6.76
-6.97
-7.16
-7.36
-7.64
-8.05
-8.62
-9.33
-10.08
-10.72
-11.08
-11.04
-10.52
-9.51
-7.96
-5.82
-3.05
0.34
4.24
8.40
12.58
16.56
20.26
23.68
26.88
29.85
32.50
34.66
36.15
36.85
36.71
35.75
34.04
31.66
28.70
25.26
21.49
17.56
13.74
10.28
7.36
5.02
3.15
1.48
-0.29
-2.37
-4.91
-7.92
-11.33
-15.00
-18.76
-22.32
-25.39
-27.68
-29.00
-29.33
-28.80
-27.62
-26.04
-24.26
-22.41
-20.60
-18.93
-17.43
-16.11
-14.91
-13.75
-12.56
-11.30
-9.99
-8.70
-7.47
-6.29
-5.11
-3.84
-2.41
-0.79
0.98
2.80
4.55
6.14
7.54
8.80
10.03
11.35
12.83
14.49
16.23
17.90
19.31
20.26
20.63
20.39
19.62
18.46
17.04
15.40
13.51
11.28
8.68
5.75
2.67
-0.34
-3.09
-5.45
-7.39
-8.91
-10.05
-10.82
-11.27
-11.45
-11.47
-11.38
-11.20
-10.92
-10.49
-9.87
-9.06
-8.11
-7.07
-6.01
-4.99
-4.07
-3.32
-2.79
-2.51
-2.45
-2.50
-2.56
-2.52
-2.31
-1.96
-1.51
-1.04
-0.60
-0.25
-0.05
-0.04
-0.23
-0.57
-0.96
-1.29
-1.46
-1.45
-1.32
-1.18
-1.11
-1.19
-1.42
-1.74
-2.09
-2.39
-2.62
-2.74
-2.77
-2.72
-2.62
-2.48
-2.31
-2.09
-1.81
-1.45
-0.99
-0.41
0.28
1.01
1.68
2.19
2.48
2.56
2.52
2.49
2.55
2.71
2.95
3.22
3.49
3.77
4.06
4.30
4.41
4.27
3.85
3.20
2.48
1.89
1.52
1.36
1.28
1.14
0.82
0.35
-0.18
-0.64
-0.98
-1.20
-1.37
-1.55
-1.76
-1.96
-2.08
-2.03
-1.77
-1.31
-0.74
-0.20
0.18
0.35
0.34
0.29
0.34
0.58
0.97
1.38
1.67
1.78
1.72
1.57
1.38
1.21
1.07
0.95
0.92
0.99
1.16
1.33
1.39
1.23
0.84
0.33
-0.14
-0.42
-0.50
-0.46
-0.47
-0.63
-0.97
-1.40
-1.78
-2.03
-2.12
-2.09
-2.00
-1.83
-1.54
-1.11
-0.57
-0.01
0.46
0.83
1.11
1.42
1.81
2.24
2.60
2.75
2.66
2.37
2.04
1.77
1.62
1.55
1.47
1.31
1.08
0.85
0.69
0.66
0.72
0.81
0.82
0.73
0.55
0.36
0.24
0.17
0.08
-0.16
-0.63
-1.30
-1.99
-2.44
-2.46
-2.03
-1.28
-0.49
0.09
0.33
0.26
0.05
-0.10
-0.06
0.16
0.46
0.71
0.82
0.78
0.65
0.49
0.33
0.17
-0.04
-0.30
-0.57
-0.83
-1.06
-1.28
-1.54
-1.91
-2.39
-2.88
-3.26
-3.40
-3.30
-3.06
-2.85
-2.83
-3.05
-3.44
-3.91
-4.32
-4.64
-4.89
-5.10
-5.29
-5.43
-5.48
-5.40
-5.23
-5.02
-4.82
-4.60
-4.25
-3.63
-2.55
-0.93
1.24
3.80
6.53
9.15
11.46
13.30
14.61
15.35
15.52
15.12
14.14
12.61
10.55
8.00
5.04
1.81
-1.46
-4.49
-6.94
-8.53
-9.12
-8.73
-7.55
-5.88
-4.01
-2.21
-0.67
0.51
1.28
1.66
1.73
1.59
1.38
1.19
1.08
1.04
1.00
0.92
0.76
0.54
0.32
0.21
0.28
0.59
1.12
1.75
2.36
2.82
3.10
3.19
3.21
3.24
3.37
3.61
3.93
4.27
4.54
4.67
4.60
4.31
3.82
3.23
2.68
2.27
2.07
2.04
2.08
2.09
1.94
1.58
1.01
0.29
-0.47
-1.10
-1.48
-1.52
-1.24
-0.75
-0.22
0.16
0.29
0.16
-0.12
-0.40
-0.53
-0.42
-0.08
0.39
0.86
1.23
1.45
1.55
1.61
1.68
1.80
1.98
2.21
2.50
2.86
3.27
3.69
4.04
4.18
4.06
3.68
3.13
2.56
2.09
1.76
1.53
1.29
0.95
0.47
-0.15
-0.85
-1.58
-2.27
-2.86
-3.29
-3.50
-3.46
-3.21
-2.79
-2.31
-1.78
-1.21
-0.56
0.14
0.86
1.50
1.99
2.32
2.56
2.80
3.11
3.50
3.92
4.34
4.73
5.11
5.50
5.90
6.25
6.41
6.29
5.79
4.93
3.75
2.35
0.87
-0.58
-1.89
-2.99
-3.81
-4.33
-4.53
-4.41
-3.96
-3.22
-2.26
-1.20
-0.19
0.63
1.19
1.45
1.41
1.08
0.44
-0.52
-1.76
-3.21
-4.69
-6.02
-7.01
-7.55
-7.62
-7.29
-6.67
-5.93
-5.19
-4.53
-3.95
-3.40
-2.80
-2.15
-1.47
-0.85
-0.32
0.11
0.51
0.93
1.40
1.83
2.10
2.06
1.58
0.64
-0.69
-2.28
-3.94
-5.50
-6.84
-7.92
-8.73
-9.33
-9.81
-10.25
-10.69
-11.10
-11.37
-11.36
-10.91
-9.97
-8.55
-6.75
-4.69
-2.47
-0.15
2.17
4.33
6.08
7.20
7.52
7.08
6.13
4.98
3.95
3.20
2.73
2.42
2.09
1.68
1.22
0.83
0.64
0.72
0.99
1.28
1.39
1.17
0.59
-0.26
-1.18
-2.04
-2.75
-3.34
-3.88
-4.42
-4.98
-5.53
-6.00
-6.33
-6.51
-6.52
-6.36
-6.01
-5.45
-4.68
-3.68
-2.50
-1.21
0.13
1.41
2.53
3.37
3.85
3.94
3.71
3.31
2.91
2.67
2.65
2.77
2.91
2.91
2.70
2.30
1.78
1.23
0.68
0.12
-0.47
-1.09
-1.69
-2.22
-2.63
-2.96
-3.29
-3.67
-4.14
-4.67
-5.16
-5.57
-5.89
-6.14
-6.35
-6.50
-6.52
-6.32
-5.83
-5.03
-3.97
-2.74
-1.43
-0.14
1.06
2.11
2.97
3.65
4.15
4.50
4.69
4.75
4.71
4.66
4.75
5.11
5.85
6.96
8.30
9.69
10.95
11.97
12.69
13.13
13.29
13.14
12.68
11.88
10.79
9.46
7.91
6.17
4.23
2.15
0.03
-1.99
-3.79
-5.34
-6.69
-7.93
-9.10
-10.20
-11.12
-11.82
-12.26
-12.51
-12.61
-12.58
-12.36
-11.81
-10.82
-9.29
-7.21
-4.66
-1.80
1.16
3.94
6.33
8.19
9.53
10.41
10.91
11.05
10.73
9.88
8.47
6.59
4.40
2.11
-0.13
-2.20
-4.03
-5.48
-6.41
-6.69
-6.26
-5.21
-3.75
-2.11
-0.49
1.03
2.48
3.89
5.28
6.62
7.85
8.92
9.79
10.39
10.60
10.29
9.37
7.89
6.07
4.18
2.45
0.95
-0.42
-1.86
-3.51
-5.40
-7.40
-9.29
-10.93
-12.20
-13.09
-13.63
-13.89
-13.98
-14.02
-14.13
-14.38
-14.73
-15.08
-15.24
-15.04
-14.33
-13.08
-11.31
-9.14
-6.72
-4.24
-1.89
0.19
1.93
3.32
4.47
5.49
6.53
7.72
9.11
10.67
12.27
13.71
14.80
15.45
15.67
15.60
15.42
15.22
15.01
14.68
14.09
13.18
11.97
10.59
9.13
7.65
6.14
4.57
2.95
1.33
-0.20
-1.55
-2.67
-3.51
-4.06
-4.33
-4.39
-4.35
-4.32
-4.40
-4.61
-4.87
-5.07
-5.13
-5.01
-4.75
-4.43
-4.10
-3.79
-3.51
-3.28
-3.09
-2.96
-2.88
-2.88
-2.96
-3.15
-3.42
-3.71
-3.96
-4.09
-4.13
-4.14
-4.19
-4.33
-4.50
-4.59
-4.48
-4.10
-3.47
-2.68
-1.83
-0.99
-0.20
0.53
1.23
1.91
2.59
3.28
3.98
4.70
5.41
6.03
6.45
6.63
6.57
6.38
6.24
6.29
6.58
7.00
7.36
7.44
7.15
6.50
5.60
4.58
3.53
2.47
1.41
0.36
-0.63
-1.49
-2.17
-2.65
-2.94
-3.11
-3.20
-3.24
-3.21
-3.10
-2.94
-2.78
-2.66
-2.62
-2.65
-2.72
-2.82
-2.94
-3.13
-3.40
-3.71
-3.97
-4.04
-3.86
-3.47
-2.99
-2.60
-2.43
-2.50
-2.79
-3.17
-3.52
-3.75
-3.82
-3.70
-3.42
-3.03
-2.56
-2.02
-1.47
-0.93
-0.46
-0.08
0.26
0.64
1.19
1.98
2.99
4.11
5.18
6.04
6.63
6.93
7.02
6.98
6.87
6.76
6.71
6.76
6.91
7.13
7.34
7.48
7.55
7.59
7.67
7.84
8.04
8.18
8.11
7.77
7.16
6.37
5.48
4.50
3.41
2.15
0.73
-0.72
-2.03
-3.02
-3.65
-4.03
-4.31
-4.63
-5.03
-5.39
-5.57
-5.44
-5.03
-4.48
-3.95
-3.56
-3.28
-2.98
-2.53
-1.86
-1.06
-0.28
0.36
0.82
1.20
1.62
2.21
2.94
3.71
4.38
4.85
5.08
5.15
5.13
5.11
5.12
5.11
5.03
4.81
4.42
3.83
3.03
1.98
0.67
-0.86
-2.53
-4.19
-5.69
-6.89
-7.74
-8.30
-8.70
-9.06
-9.46
-9.90
-10.24
-10.30
-9.94
-9.10
-7.88
-6.50
-5.22
-4.23
-3.59
-3.20
-2.88
-2.48
-1.93
-1.32
-0.80
-0.54
-0.61
-0.98
-1.54
-2.14
-2.65
-2.98
-3.03
-2.73
-2.09
-1.18
-0.20
0.58
0.94
0.80
0.26
-0.43
-0.98
-1.14
-0.79
0.06
1.39
3.12
5.16
7.39
9.63
11.65
13.26
14.28
14.65
14.36
13.53
12.33
10.96
9.56
8.19
6.76
5.18
3.39
1.47
-0.40
-2.05
-3.40
-4.52
-5.57
-6.64
-7.74
-8.72
-9.42
-9.74
-9.71
-9.44
-9.09
-8.72
-8.39
-8.09
-7.85
-7.67
-7.53
-7.41
-7.30
-7.23
-7.32
-7.67
-8.27
-9.01
-9.65
-9.97
-9.89
-9.47
-8.93
-8.49
-8.26
-8.20
-8.15
-7.88
-7.21
-6.02
-4.20
-1.67
1.69
6.00
11.29
17.38
23.90
30.26
35.84
40.13
42.81
43.87
43.42
41.68
38.82
34.98
30.35
25.19
19.91
14.87
10.35
6.42
3.01
-0.04
-2.84
-5.41
-7.73
-9.77
-11.58
-13.28
-14.99
-16.76
-18.55
-20.21
-21.61
-22.68
-23.42
-23.92
-24.30
-24.63
-24.96
-25.24
-25.38
-25.28
-24.86
-24.04
-22.73
-20.88
-18.42
-15.35
-11.74
-7.74
-3.59
0.40
3.96
6.88
9.07
10.51
11.26
11.35
10.84
9.81
8.39
6.79
5.22
3.81
2.61
1.54
0.55
-0.36
-1.14
-1.69
-1.95
-1.99
-1.92
-1.85
-1.84
-1.87
-1.93
-1.99
-2.07
-2.17
-2.26
-2.28
-2.19
-2.01
-1.82
-1.70
-1.67
-1.73
-1.80
-1.87
-2.01
-2.28
-2.72
-3.25
-3.67
-3.80
-3.47
-2.67
-1.48
-0.04
1.53
3.16
4.80
6.37
7.80
8.98
9.84
10.33
10.47
10.32
9.96
9.46
8.89
8.26
7.57
6.81
5.97
5.09
4.18
3.24
2.25
1.19
0.10
-0.93
-1.75
-2.25
-2.44
-2.47
-2.53
-2.78
-3.23
-3.76
-4.21
-4.48
-4.59
-4.62
-4.62
-4.58
-4.38
-3.90
-3.12
-2.11
-1.00
0.05
0.95
1.70
2.32
2.88
3.42
3.95
4.45
4.88
5.17
5.29
5.26
5.18
5.19
5.40
5.87
6.55
7.35
8.15
8.88
9.51
10.03
10.45
10.76
10.89
10.76
10.27
9.36
8.08
6.56
4.97
3.50
2.21
1.04
-0.14
-1.48
-3.04
-4.82
-6.72
-8.65
-10.54
-12.34
-13.99
-15.41
-16.43
-16.86
-16.56
-15.42
-13.46
-10.80
-7.65
-4.25
-0.84
2.36
5.16
7.40
9.01
10.02
10.54
10.77
10.87
10.93
10.94
10.77
10.29
9.42
8.18
6.68
5.05
3.41
1.82
0.36
-0.92
-1.91
-2.49
-2.63
-2.36
-1.84
-1.28
-0.93
-0.93
-1.29
-1.93
-2.68
-3.38
-3.95
-4.35
-4.65
-4.93
-5.25
-5.66
-6.21
-6.92
-7.84
-8.96
-10.22
-11.52
-12.68
-13.54
-14.03
-14.15
-13.99
-13.66
-13.28
-12.88
-12.53
-12.24
-12.06
-12.02
-12.10
-12.21
-12.23
-12.04
-11.62
-11.02
-10.30
-9.53
-8.62
-7.45
-5.87
-3.81
-1.38
1.23
3.74
5.92
7.64
8.90
9.79
10.42
10.91
11.28
11.51
11.52
11.26
10.70
9.86
8.80
7.60
6.36
5.16
4.08
3.17
2.44
1.84
1.26
0.60
-0.17
-1.01
-1.79
-2.33
-2.50
-2.22
-1.48
-0.32
1.19
2.94
4.82
6.69
8.42
9.93
11.19
12.23
13.17
14.10
15.11
16.18
17.20
18.02
18.48
18.47
18.01
17.16
16.06
14.85
13.66
12.57
11.61
10.74
9.87
8.90
7.78
6.53
5.23
3.96
2.73
1.44
-0.03
-1.80
-3.90
-6.23
-8.61
-10.84
-12.77
-14.30
-15.44
-16.29
-16.95
-17.50
-17.96
-18.24
-18.23
-17.82
-17.04
-16.03
-15.00
-14.17
-13.65
-13.39
-13.25
-13.05
-12.66
-12.06
-11.26
-10.32
-9.28
-8.15
-6.93
-5.61
-4.19
-2.70
-1.13
0.51
2.24
3.99
5.69
7.22
8.51
9.51
10.24
10.77
11.19
11.56
11.97
12.47
13.10
13.88
14.74
15.51
16.03
16.16
15.83
15.11
14.11
12.96
11.75
10.52
9.31
8.13
7.01
6.00
5.11
4.34
3.67
3.08
2.57
2.12
1.74
1.38
1.00
0.57
0.09
-0.42
-0.86
-1.13
-1.16
-0.94
-0.56
-0.19
0.02
-0.02
-0.29
-0.66
-0.91
-0.90
-0.57
0.02
0.74
1.44
2.05
2.54
2.92
3.21
3.41
3.50
3.51
3.49
3.49
3.55
3.65
3.65
3.45
2.94
2.17
1.27
0.43
-0.19
-0.57
-0.78
-0.95
-1.20
-1.58
-2.03
-2.51
-2.98
-3.42
-3.89
-4.38
-4.89
-5.38
-5.80
-6.17
-6.49
-6.82
-7.14
-7.47
-7.75
-7.97
-8.14
-8.28
-8.41
-8.51
-8.57
-8.56
-8.45
-8.29
-8.11
-7.98
-7.93
-7.97
-8.09
-8.25
-8.42
-8.57
-8.71
-8.83
-8.96
-9.08
-9.17
-9.25
-9.36
-9.54
-9.83
-10.19
-10.48
-10.50
-10.07
-9.10
-7.65
-5.94
-4.24
-2.82
-1.82
-1.27
-1.06
-1.00
-0.87
-0.46
0.34
1.56
3.08
4.73
6.31
7.68
8.79
9.66
10.37
11.00
11.56
12.04
12.36
12.46
12.29
11.83
11.08
10.05
8.72
7.09
5.16
3.01
0.77
-1.39
-3.27
-4.77
-5.85
-6.54
-6.92
-7.08
-7.11
-7.15
-7.34
-7.80
-8.55
-9.49
-10.40
-11.05
-11.29
-11.12
-10.66
-10.09
-9.57
-9.13
-8.80
-8.51
-8.23
-7.92
-7.56
-7.11
-6.55
-5.87
-5.07
-4.18
-3.24
-2.32
-1.48
-0.74
-0.14
0.36
0.80
1.24
1.74
2.34
3.03
3.73
4.38
4.88
5.24
5.45
5.55
5.56
5.55
5.52
5.52
5.57
5.69
5.82
5.88
5.75
5.36
4.70
3.91
3.12
2.51
2.12
1.94
1.91
1.98
2.12
2.36
2.72
3.21
3.81
4.44
5.01
5.43
5.70
5.82
5.83
5.72
5.46
4.98
4.26
3.34
2.36
1.51
0.92
0.64
0.55
0.47
0.23
-0.21
-0.78
-1.29
-1.58
-1.61
-1.48
-1.36
-1.37
-1.54
-1.77
-1.90
-1.82
-1.59
-1.34
-1.27
-1.43
-1.78
-2.14
-2.36
-2.41
-2.35
-2.31
-2.39
-2.57
-2.79
-2.98
-3.12
-3.24
-3.39
-3.58
-3.73
-3.73
-3.47
-2.95
-2.24
-1.49
-0.83
-0.31
0.05
0.30
0.50
0.68
0.88
1.08
1.25
1.35
1.36
1.27
1.09
0.88
0.69
0.58
0.60
0.76
0.97
1.14
1.15
0.97
0.63
0.27
0.03
-0.05
-0.01
-0.03
-0.24
-0.66
-1.18
-1.59
-1.77
-1.71
-1.58
-1.53
-1.66
-1.96
-2.29
-2.57
-2.78
-3.00
-3.30
-3.63
-3.87
-3.83
-3.41
-2.67
-1.81
-1.04
-0.53
-0.28
-0.22
-0.21
-0.15
-0.03
0.12
0.28
0.43
0.61
0.83
1.13
1.46
1.76
1.97
2.06
2.04
1.99
1.98
2.08
2.26
2.46
2.56
2.49
2.23
1.83
1.36
0.90
0.50
0.17
-0.08
-0.24
-0.29
-0.26
-0.22
-0.29
-0.56
-1.05
-1.69
-2.26
-2.58
-2.49
-2.00
-1.26
-0.44
0.29
0.89
1.39
1.85
2.32
2.79
3.18
3.43
3.52
3.46
3.32
3.18
3.12
3.19
3.38
3.65
3.95
4.20
4.38
4.45
4.43
4.36
4.23
4.05
3.80
3.46
3.02
2.51
2.01
1.56
1.17
0.82
0.46
0.07
-0.34
-0.73
-1.09
-1.37
-1.59
-1.78
-1.98
-2.22
-2.48
-2.78
-3.06
-3.29
-3.40
-3.32
-3.02
-2.52
-1.90
-1.29
-0.75
-0.31
0.05
0.40
0.77
1.17
1.55
1.88
2.10
2.20
2.19
2.10
1.97
1.86
1.81
1.82
1.89
2.00
2.10
2.18
2.23
2.28
2.35
2.45
2.49
2.39
2.08
1.54
0.88
0.25
-0.18
-0.35
-0.29
-0.12
0.01
0.03
-0.05
-0.21
-0.43
-0.76
-1.26
-1.93
-2.66
-3.29
-3.66
-3.67
-3.33
-2.74
-2.00
-1.24
-0.57
-0.05
0.28
0.42
0.44
0.45
0.54
0.72
0.93
1.10
1.16
1.16
1.17
1.29
1.53
1.86
2.16
2.39
2.53
2.62
2.71
2.78
2.79
2.65
2.38
2.06
1.82
1.83
2.11
2.58
3.06
3.38
3.45
3.30
3.07
2.89
2.83
2.83
2.76
2.49
1.94
1.13
0.12
-0.98
-2.06
-3.02
-3.80
-4.31
-4.53
-4.46
-4.15
-3.68
-3.15
-2.65
-2.21
-1.82
-1.43
-0.99
-0.48
0.08
0.57
0.89
0.96
0.81
0.56
0.35
0.33
0.52
0.87
1.25
1.55
1.73
1.80
1.83
1.84
1.86
1.85
1.76
1.55
1.24
0.89
0.54
0.23
-0.04
-0.27
-0.47
-0.62
-0.73
-0.83
-0.97
-1.21
-1.57
-2.03
-2.49
-2.84
-2.97
-2.86
-2.53
-2.05
-1.49
-0.90
-0.34
0.16
0.55
0.82
0.95
0.93
0.79
0.59
0.36
0.18
0.08
0.10
0.22
0.43
0.67
0.88
1.03
1.11
1.15
1.19
1.29
1.49
1.81
2.25
2.77
3.30
3.82
4.32
4.86
5.47
6.18
6.91
7.52
7.85
7.81
7.41
6.78
6.08
5.44
4.88
4.34
3.74
3.03
2.22
1.40
0.69
0.17
-0.16
-0.40
-0.69
-1.13
-1.75
-2.48
-3.18
-3.76
-4.18
-4.49
-4.77
-5.08
-5.46
-5.89
-6.37
-6.94
-7.64
-8.47
-9.39
-10.30
-11.02
-11.44
-11.47
-11.10
-10.42
-9.56
-8.67
-7.90
-7.29
-6.78
-6.29
-5.69
-4.93
-4.06
-3.15
-2.31
-1.56
-0.85
-0.13
0.58
1.21
1.60
1.65
1.38
0.94
0.59
0.53
0.87
1.59
2.58
3.66
4.70
5.60
6.30
6.79
7.12
7.33
7.51
7.66
7.77
7.74
7.53
7.12
6.60
6.10
5.73
5.50
5.35
5.21
4.99
4.69
4.30
3.80
3.18
2.40
1.42
0.28
-0.91
-2.08
-3.15
-4.10
-4.95
-5.77
-6.56
-7.33
-8.02
-8.56
-8.92
-9.08
-9.11
-9.07
-9.02
-8.92
-8.69
-8.23
-7.51
-6.60
-5.61
-4.68
-3.89
-3.24
-2.69
-2.17
-1.69
-1.26
-0.94
-0.77
-0.77
-0.93
-1.18
-1.45
-1.63
-1.63
-1.46
-1.18
-0.91
-0.74
-0.67
-0.63
-0.53
-0.31
0.03
0.40
0.68
0.80
0.75
0.60
0.45
0.39
0.45
0.57
0.70
0.76
0.74
0.68
0.62
0.64
0.75
0.95
1.26
1.71
2.32
3.11
3.97
4.77
5.33
5.55
5.46
5.15
4.78
4.46
4.26
4.17
4.18
4.24
4.32
4.34
4.24
3.95
3.50
2.95
2.39
1.91
1.52
1.22
0.98
0.77
0.57
0.38
0.18
-0.06
-0.32
-0.58
-0.78
-0.89
-0.90
-0.82
-0.68
-0.51
-0.35
-0.22
-0.12
-0.01
0.15
0.40
0.76
1.18
1.55
1.80
1.85
1.72
1.43
1.04
0.56
0.04
-0.50
-0.98
-1.32
-1.46
-1.35
-0.98
-0.38
0.45
1.44
2.54
3.66
4.66
5.39
5.77
5.75
5.39
4.81
4.13
3.41
2.66
1.87
1.03
0.20
-0.52
-1.06
-1.39
-1.56
-1.67
-1.79
-1.96
-2.13
-2.29
-2.40
-2.45
-2.40
-2.17
-1.70
-0.98
-0.09
0.82
1.57
2.08
2.35
2.47
2.51
2.55
2.56
2.51
2.41
2.25
2.08
1.91
1.71
1.45
1.12
0.74
0.38
0.14
0.05
0.12
0.29
0.47
0.61
0.65
0.60
0.44
0.16
-0.25
-0.76
-1.30
-1.72
-1.92
-1.86
-1.63
-1.43
-1.49
-1.94
-2.80
-3.93
-5.11
-6.13
-6.82
-7.13
-7.06
-6.66
-5.96
-5.02
-3.91
-2.73
-1.63
-0.74
-0.16
0.13
0.20
0.19
0.22
0.37
0.63
0.96
1.30
1.61
1.87
2.08
2.23
2.34
2.43
2.53
2.69
2.94
3.29
3.69
4.08
4.41
4.62
4.71
4.70
4.65
4.60
4.56
4.44
4.18
3.72
3.07
2.29
1.50
0.77
0.14
-0.44
-1.03
-1.63
-2.21
-2.67
-2.88
-2.77
-2.37
-1.77
-1.10
-0.49
-0.04
0.23
0.35
0.39
0.43
0.49
0.61
0.78
1.01
1.30
1.64
2.00
2.32
2.55
2.67
2.66
2.57
2.41
2.20
1.93
1.62
1.29
0.98
0.69
0.40
0.01
-0.56
-1.34
-2.30
-3.34
-4.33
-5.19
-5.88
-6.40
-6.77
-7.06
-7.34
-7.72
-8.26
-9.01
-9.87
-10.70
-11.27
-11.35
-10.83
-9.69
-8.06
-6.19
-4.34
-2.77
-1.59
-0.79
-0.23
0.27
0.80
1.40
2.01
2.57
3.04
3.44
3.73
3.92
3.96
3.85
3.64
3.42
3.27
3.24
3.25
3.21
3.02
2.70
2.33
2.05
1.93
1.95
1.98
1.86
1.48
0.85
0.07
-0.72
-1.40
-1.95
-2.40
-2.79
-3.09
-3.23
-3.15
-2.83
-2.33
-1.81
-1.41
-1.19
-1.14
-1.16
-1.12
-0.97
-0.73
-0.44
-0.14
0.17
0.55
1.04
1.66
2.34
3.01
3.59
4.07
4.48
4.86
5.21
5.48
5.60
5.57
5.46
5.39
5.46
5.69
6.02
6.31
6.46
6.41
6.20
5.91
5.63
5.37
5.14
4.86
4.46
3.89
3.16
2.31
1.47
0.74
0.23
-0.05
-0.08
0.05
0.25
0.37
0.30
-0.04
-0.68
-1.54
-2.50
-3.40
-4.12
-4.60
-4.84
-4.86
-4.71
-4.42
-4.05
-3.70
-3.47
-3.42
-3.57
-3.83
-4.08
-4.19
-4.10
-3.84
-3.51
-3.22
-3.06
-3.05
-3.14
-3.25
-3.31
-3.30
-3.23
-3.15
-3.09
-3.05
-2.98
-2.84
-2.60
-2.28
-1.92
-1.60
-1.37
-1.23
-1.12
-0.96
-0.65
-0.18
0.38
0.89
1.24
1.38
1.37
1.33
1.36
1.53
1.79
2.07
2.32
2.51
2.65
2.77
2.87
2.98
3.10
3.21
3.29
3.25
3.02
2.59
2.02
1.45
1.04
0.90
1.00
1.23
1.43
1.50
1.43
1.30
1.16
1.03
0.84
0.55
0.10
-0.44
-0.97
-1.37
-1.61
-1.75
-1.91
-2.23
-2.79
-3.59
-4.59
-5.70
-6.86
-8.02
-9.09
-9.98
-10.59
-10.85
-10.76
-10.44
-10.05
-9.82
-9.84
-10.13
-10.55
-10.96
-11.25
-11.43
-11.56
-11.74
-11.98
-12.15
-11.98
-11.20
-9.60
-7.07
-3.69
0.45
5.23
10.55
16.36
22.51
28.67
34.35
39.00
42.19
43.77
43.87
42.71
40.46
37.12
32.61
27.02
20.77
14.57
9.15
5.01
2.19
0.38
-0.88
-1.99
-3.10
-4.22
-5.36
-6.60
-8.06
-9.87
-12.01
-14.31
-16.50
-18.33
-19.61
-20.29
-20.48
-20.36
-20.09
-19.77
-19.30
-18.45
-16.88
-14.33
-10.72
-6.23
-1.28
3.56
7.79
11.14
13.66
15.68
17.67
20.01
22.80
25.76
28.35
29.95
30.09
28.59
25.56
21.26
16.01
10.06
3.66
-2.89
-9.21
-14.81
-19.22
-22.14
-23.51
-23.55
-22.69
-21.40
-20.07
-18.96
-18.12
-17.52
-17.04
-16.65
-16.34
-16.17
-16.19
-16.31
-16.39
-16.18
-15.52
-14.35
-12.85
-11.28
-9.96
-9.08
-8.68
-8.63
-8.76
-8.96
-9.21
-9.55
-10.00
-10.44
-10.65
-10.34
-9.22
-7.15
-4.14
-0.35
3.99
8.60
13.24
17.62
21.49
24.69
27.19
29.20
31.04
33.00
35.11
37.07
38.36
38.38
36.77
33.53
29.01
23.71
18.17
12.86
8.20
4.52
2.06
0.86
0.68
1.14
1.77
2.29
2.64
2.95
3.33
3.76
4.01
3.74
2.71
0.83
-1.73
-4.62
-7.43
-9.73
-11.17
-11.51
-10.72
-8.91
-6.40
-3.53
-0.59
2.32
5.37
8.81
12.86
17.47
22.21
26.39
29.23
30.15
28.97
25.98
21.74
16.87
11.85
6.96
2.29
-2.13
-6.27
-10.05
-13.37
-16.14
-18.27
-19.70
-20.32
-20.14
-19.25
-17.86
-16.28
-14.73
-13.34
-12.12
-11.05
-10.13
-9.45
-9.14
-9.31
-9.94
-10.87
-11.83
-12.51
-12.72
-12.42
-11.77
-11.06
-10.59
-10.54
-10.92
-11.58
-12.32
-13.05
-13.77
-14.61
-15.64
-16.80
-17.91
-18.69
-18.87
-18.30
-16.90
-14.74
-11.93
-8.68
-5.25
-1.94
0.92
3.07
4.40
4.91
4.78
4.25
3.60
3.04
2.68
2.54
2.61
2.86
3.32
3.99
4.80
5.63
6.27
6.59
6.56
6.31
6.05
5.95
6.04
6.21
6.23
5.80
4.66
2.60
-0.46
-4.43
-8.97
-13.51
-17.34
-19.84
-20.64
-19.81
-17.73
-14.96
-12.03
-9.24
-6.64
-4.10
-1.45
1.41
4.44
7.49
10.38
12.96
15.11
16.77
17.89
18.41
18.29
17.47
15.92
13.69
10.90
7.77
4.59
1.72
-0.55
-2.07
-2.84
-3.05
-2.91
-2.60
-2.14
-1.49
-0.60
0.50
1.69
2.77
3.58
4.02
4.09
3.86
3.42
2.86
2.21
1.45
0.50
-0.72
-2.29
-4.18
-6.25
-8.33
-10.26
-11.96
-13.41
-14.59
-15.48
-15.98
-16.00
-15.46
-14.31
-12.56
-10.23
-7.39
-4.23
-1.01
1.91
4.25
5.88
6.90
7.56
8.13
8.77
9.42
9.92
10.10
9.86
9.25
8.40
7.46
6.52
5.59
4.67
3.79
3.01
2.42
2.04
1.83
1.67
1.45
1.11
0.65
0.14
-0.33
-0.71
-0.99
-1.19
-1.34
-1.47
-1.58
-1.67
-1.78
-1.91
-2.09
-2.31
-2.55
-2.81
-3.10
-3.44
-3.88
-4.42
-5.03
-5.61
-6.08
-6.38
-6.53
-6.64
-6.83
-7.23
-7.89
-8.81
-9.99
-11.40
-12.99
-14.65
-16.07
-16.94
-17.00
-16.20
-14.72
-12.88
-10.92
-8.94
-6.88
-4.62
-2.19
0.27
2.57
4.57
6.24
7.66
8.88
9.89
10.67
11.19
11.50
11.72
11.95
12.22
12.46
12.58
12.54
12.36
12.05
11.65
11.14
10.48
9.66
8.74
7.77
6.78
5.78
4.72
3.53
2.20
0.76
-0.74
-2.22
-3.67
-5.08
-6.45
-7.69
-8.67
-9.25
-9.31
-8.80
-7.81
-6.48
-5.00
-3.49
-2.05
-0.71
0.50
1.58
2.48
3.19
3.70
4.00
4.13
4.12
4.04
3.93
3.82
3.71
3.61
3.51
3.38
3.22
3.02
2.81
2.60
2.38
2.14
1.84
1.45
0.96
0.40
-0.16
-0.65
-1.05
-1.37
-1.66
-2.01
-2.46
-2.97
-3.46
-3.84
-4.05
-4.12
-4.16
-4.32
-4.73
-5.48
-6.54
-7.83
-9.18
-10.44
-11.46
-12.15
-12.44
-12.33
-11.82
-10.93
-9.71
-8.27
-6.73
-5.22
-3.81
-2.52
-1.30
-0.09
1.09
2.20
3.15
3.88
4.39
4.74
5.00
5.24
5.52
5.86
6.31
6.86
7.52
8.26
9.04
9.82
10.54
11.15
11.61
11.88
11.90
11.73
11.43
11.12
10.87
10.67
10.40
9.87
8.98
7.69
6.07
4.26
2.35
0.37
-1.66
-3.72
-5.72
-7.46
-8.75
-9.45
-9.56
-9.25
-8.78
-8.45
-8.48
-8.95
-9.79
-10.81
-11.75
-12.35
-12.45
-11.95
-10.83
-9.16
-7.03
-4.57
-1.94
0.72
3.32
5.84
8.31
10.74
13.11
15.32
17.20
18.62
19.53
19.98
20.08
19.95
19.64
19.20
18.60
17.78
16.64
14.98
12.61
9.41
5.43
0.91
-3.73
-8.02
-11.53
-13.97
-15.22
-15.32
-14.46
-12.90
-10.90
-8.74
-6.62
-4.67
-2.98
-1.58
-0.43
0.57
1.53
2.60
3.83
5.19
6.61
7.96
9.14
10.11
10.88
11.42
11.75
11.80
11.56
11.01
10.18
9.14
7.98
6.80
5.68
4.67
3.77
2.95
2.13
1.19
0.05
-1.33
-2.87
-4.46
-5.94
-7.24
-8.34
-9.26
-10.01
-10.53
-10.69
-10.41
-9.75
-8.89
-8.11
-7.58
-7.29
-7.07
-6.70
-6.05
-5.20
-4.32
-3.54
-2.91
-2.35
-1.75
-1.03
-0.20
0.68
1.61
2.65
3.87
5.28
6.78
8.17
9.24
9.90
10.20
10.35
10.66
11.37
12.58
14.12
15.67
16.78
17.09
16.41
14.75
12.29
9.26
5.83
2.10
-1.92
-6.26
-10.88
-15.65
-20.23
-24.15
-26.87
-27.96
-27.26
-24.95
-21.52
-17.55
-13.53
-9.70
-6.05
-2.50
0.99
4.29
7.16
9.39
10.93
11.98
12.87
13.90
15.21
16.68
18.00
18.87
19.17
19.03
18.75
18.60
18.71
18.96
19.09
18.84
18.08
16.79
15.03
12.85
10.33
7.54
4.66
1.88
-0.71
-3.17
-5.73
-8.64
-12.03
-15.73
-19.39
-22.54
-24.79
-25.96
-26.01
-25.03
-23.13
-20.37
-16.86
-12.72
-8.17
-3.44
1.13
5.26
8.64
11.07
12.44
12.81
12.38
11.44
10.29
9.16
8.15
7.17
6.05
4.58
2.62
0.27
-2.19
-4.34
-5.86
-6.69
-7.08
-7.53
-8.53
-10.34
-12.88
-15.74
-18.42
-20.41
-21.33
-20.90
-18.94
-15.46
-10.67
-5.08
0.59
5.56
9.18
11.18
11.65
11.02
9.85
8.67
7.78
7.27
7.02
6.81
6.42
5.74
4.74
3.49
2.09
0.62
-0.85
-2.27
-3.59
-4.82
-6.05
-7.42
-9.09
-11.19
-13.68
-16.35
-18.75
-20.29
-20.35
-18.55
-14.88
-9.74
-3.95
1.56
5.93
8.67
9.68
9.22
7.82
6.07
4.50
3.48
3.18
3.54
4.36
5.29
5.97
6.06
5.41
4.04
2.20
0.30
-1.24
-2.11
-2.25
-1.82
-1.13
-0.49
-0.01
0.31
0.55
0.71
0.68
0.22
-0.81
-2.40
-4.34
-6.31
-8.01
-9.28
-10.11
-10.59
-10.79
-10.67
-10.12
-9.03
-7.36
-5.24
-2.88
-0.52
1.65
3.53
5.06
6.20
6.88
6.97
6.39
5.17
3.47
1.57
-0.29
-1.98
-3.57
-5.29
-7.34
-9.73
-12.19
-14.30
-15.65
-16.02
-15.51
-14.48
-13.29
-12.22
-11.31
-10.43
-9.47
-8.41
-7.34
-6.46
-5.91
-5.65
-5.53
-5.34
-4.93
-4.32
-3.66
-3.19
-3.09
-3.40
-3.93
-4.46
-4.75
-4.69
-4.36
-3.94
-3.63
-3.55
-3.72
-4.05
-4.39
-4.58
-4.55
-4.27
-3.83
-3.30
-2.78
-2.27
-1.71
-1.03
-0.15
0.95
2.17
3.43
4.62
5.68
6.63
7.51
8.35
9.12
9.79
10.26
10.49
10.45
10.11
9.46
8.52
7.32
5.99
4.70
3.60
2.86
2.55
2.67
3.21
4.06
5.10
6.16
7.02
7.50
7.50
7.09
6.48
5.96
5.75
5.92
6.35
6.81
7.06
6.96
6.54
5.94
5.31
4.76
4.28
3.78
3.14
2.34
1.39
0.37
-0.65
-1.65
-2.64
-3.60
-4.42
-4.95
-5.03
-4.64
-3.93
-3.13
-2.49
-2.10
-1.91
-1.73
-1.45
-1.08
-0.77
-0.71
-0.96
-1.38
-1.64
-1.40
-0.47
1.13
3.20
5.49
7.84
10.22
12.65
15.17
17.68
20.02
21.97
23.36
24.08
24.05
23.24
21.59
19.07
15.69
11.54
6.81
1.79
-3.19
-7.74
-11.57
-14.53
-16.65
-18.11
-19.16
-19.95
-20.50
-20.70
-20.37
-19.37
-17.72
-15.55
-13.08
-10.54
-8.13
-5.96
-4.05
-2.36
-0.84
0.55
1.79
2.87
3.78
4.55
5.23
5.81
6.23
6.36
6.10
5.40
4.36
3.17
2.04
1.11
0.45
0.01
-0.29
-0.52
-0.75
-1.05
-1.47
-2.09
-2.92
-3.94
-5.07
-6.19
-7.14
-7.85
-8.29
-8.54
-8.75
-9.10
-9.68
-10.49
-11.35
-12.04
-12.32
-12.06
-11.30
-10.16
-8.80
-7.35
-5.89
-4.43
-3.03
-1.74
-0.66
0.14
0.66
0.99
1.29
1.71
2.29
2.99
3.67
4.22
4.55
4.70
4.74
4.74
4.74
4.74
4.68
4.56
4.42
4.37
4.51
4.89
5.49
6.22
7.03
7.91
8.98
10.43
12.45
15.10
18.24
21.50
24.32
26.15
26.58
25.50
23.12
19.94
16.55
13.45
10.89
8.84
7.12
5.46
3.70
1.83
-0.07
-1.84
-3.34
-4.46
-5.17
-5.50
-5.60
-5.64
-5.84
-6.28
-6.97
-7.78
-8.56
-9.21
-9.69
-10.01
-10.14
-10.04
-9.65
-8.97
-8.08
-7.15
-6.31
-5.57
-4.85
-3.98
-2.81
-1.31
0.41
2.18
3.83
5.25
6.43
7.43
8.31
9.13
9.84
10.35
10.56
10.42
9.98
9.33
8.59
7.84
7.07
6.22
5.23
4.06
2.71
1.20
-0.46
-2.27
-4.24
-6.29
-8.28
-10.01
-11.27
-11.93
-11.95
-11.37
-10.28
-8.80
-7.02
-5.09
-3.15
-1.36
0.13
1.24
1.92
2.14
1.91
1.26
0.24
-1.07
-2.57
-4.22
-6.01
-7.99
-10.16
-12.48
-14.82
-17.02
-18.89
-20.34
-21.26
-21.61
-21.35
-20.46
-18.94
-16.84
-14.27
-11.33
-8.15
-4.81
-1.42
1.91
5.07
8.01
10.78
13.50
16.40
19.72
23.53
27.69
31.82
35.36
37.74
38.56
37.69
35.36
32.06
28.38
24.92
22.08
20.00
18.57
17.47
16.27
14.60
12.26
9.23
5.67
1.87
-1.90
-5.38
-8.32
-10.54
-11.90
-12.35
-11.99
-11.09
-10.02
-9.15
-8.74
-8.86
-9.41
-10.18
-10.98
-11.70
-12.36
-13.01
-13.64
-14.19
-14.51
-14.47
-13.97
-13.02
-11.68
-10.01
-8.12
-6.10
-4.12
-2.33
-0.87
0.21
0.94
1.40
1.68
1.82
1.83
1.74
1.58
1.38
1.19
0.97
0.68
0.25
-0.38
-1.26
-2.38
-3.71
-5.16
-6.61
-7.90
-8.91
-9.60
-10.06
-10.41
-10.78
-11.18
-11.55
-11.79
-11.84
-11.72
-11.56
-11.49
-11.58
-11.80
-12.02
-12.03
-11.63
-10.68
-9.06
-6.76
-3.79
-0.26
3.74
8.11
12.74
17.55
22.43
27.20
31.59
35.25
37.76
38.80
38.21
36.13
32.94
29.27
25.79
23.07
21.41
20.79
20.84
20.93
20.31
18.33
14.54
8.88
1.67
-6.39
-14.46
-21.68
-27.40
-31.29
-33.36
-33.93
-33.42
-32.29
-30.88
-29.37
-27.82
-26.18
-24.38
-22.38
-20.16
-17.78
-15.36
-13.09
-11.13
-9.54
-8.19
-6.74
-4.73
-1.68
2.70
8.46
15.31
22.70
29.86
35.94
40.18
42.04
41.32
38.28
33.50
27.76
21.82
16.23
11.31
7.16
3.85
1.40
-0.17
-0.99
-1.41
-1.98
-3.30
-5.71
-9.21
-13.35
-17.46
-20.88
-23.23
-24.44
-24.72
-24.34
-23.53
-22.44
-21.17
-19.82
-18.50
-17.27
-16.06
-14.75
-13.22
-11.47
-9.67
-8.06
-6.85
-6.11
-5.78
-5.68
-5.67
-5.69
-5.69
-5.55
-5.10
-4.10
-2.44
-0.14
2.56
5.41
8.21
10.92
13.59
16.28
18.96
21.43
23.49
24.97
25.81
26.08
25.85
25.16
24.00
22.35
20.23
17.74
15.03
12.21
9.32
6.34
3.16
-0.25
-3.84
-7.45
-10.77
-13.46
-15.23
-15.95
-15.69
-14.68
-13.30
-11.86
-10.54
-9.38
-8.28
-7.15
-5.95
-4.71
-3.49
-2.38
-1.44
-0.72
-0.26
-0.07
-0.13
-0.36
-0.66
-0.93
-1.12
-1.24
-1.34
-1.43
-1.56
-1.71
-1.89
-2.08
-2.26
-2.39
-2.53
-2.73
-3.12
-3.73
-4.53
-5.34
-5.93
-6.13
-5.89
-5.34
-4.64
-3.91
-3.16
-2.33
-1.41
-0.47
0.33
0.82
0.98
0.94
0.94
1.21
1.80
2.56
3.23
3.55
3.45
3.00
2.44
2.00
1.79
1.81
1.95
2.08
2.10
1.98
1.73
1.35
0.84
0.23
-0.39
-0.92
-1.25
-1.31
-1.14
-0.86
-0.65
-0.66
-0.96
-1.51
-2.20
-2.92
-3.59
-4.19
-4.77
-5.40
-6.13
-6.90
-7.63
-8.17
-8.36
-8.15
-7.55
-6.70
-5.76
-4.90
-4.26
-3.88
-3.74
-3.77
-3.91
-4.11
-4.36
-4.64
-4.93
-5.23
-5.52
-5.83
-6.23
-6.81
-7.61
-8.58
-9.49
-10.11
-10.25
-9.87
-9.15
-8.33
-7.59
-6.95
-6.23
-5.14
-3.45
-0.99
2.28
6.35
11.12
16.41
21.91
27.19
31.78
35.33
37.65
38.78
38.87
38.10
36.65
34.68
32.35
29.83
27.25
24.66
22.02
19.20
16.07
12.60
8.84
4.98
1.26
-2.10
-4.89
-7.02
-8.47
-9.29
-9.56
-9.39
-8.91
-8.19
-7.36
-6.49
-5.66
-4.91
-4.22
-3.57
-2.90
-2.18
-1.38
-0.52
0.38
1.29
2.14
2.88
3.43
3.72
3.71
3.42
2.87
2.13
1.24
0.21
-0.92
-2.10
-3.27
-4.32
-5.17
-5.77
-6.18
-6.48
-6.80
-7.17
-7.57
-7.92
-8.12
-8.14
-7.99
-7.70
-7.29
-6.77
-6.16
-5.47
-4.78
-4.17
-3.70
-3.37
-3.11
-2.86
-2.57
-2.27
-2.04
-1.93
-1.88
-1.75
-1.35
-0.54
0.63
1.96
3.10
3.75
3.76
3.23
2.40
1.60
1.05
0.81
0.81
0.90
0.94
0.83
0.55
0.08
-0.55
-1.32
-2.21
-3.11
-3.91
-4.52
-4.87
-5.00
-5.01
-5.00
-5.10
-5.36
-5.76
-6.26
-6.78
-7.29
-7.72
-8.04
-8.18
-8.08
-7.74
-7.20
-6.58
-6.01
-5.57
-5.29
-5.16
-5.11
-5.11
-5.13
-5.14
-5.05
-4.77
-4.15
-3.13
-1.70
0.06
1.98
3.92
5.72
7.26
8.45
9.24
9.61
9.61
9.27
8.60
7.62
6.34
4.80
3.15
1.59
0.27
-0.74
-1.50
-2.21
-3.02
-4.04
-5.22
-6.42
-7.49
-8.33
-8.92
-9.30
-9.49
-9.48
-9.26
-8.84
-8.29
-7.73
-7.23
-6.81
-6.40
-5.88
-5.17
-4.27
-3.33
-2.51
-1.97
-1.77
-1.86
-2.05
-2.08
-1.66
-0.58
1.31
4.02
7.44
11.37
15.58
19.80
23.80
27.36
30.27
32.37
33.56
33.83
33.26
31.94
29.98
27.42
24.27
20.54
16.29
11.69
6.96
2.42
-1.65
-5.02
-7.57
-9.27
-10.19
-10.45
-10.22
-9.69
-9.04
-8.40
-7.84
-7.34
-6.84
-6.26
-5.53
-4.64
-3.62
-2.54
-1.51
-0.64
-0.05
0.18
0.08
-0.28
-0.76
-1.25
-1.74
-2.26
-2.90
-3.69
-4.58
-5.47
-6.22
-6.76
-7.10
-7.35
-7.63
-8.03
-8.56
-9.15
-9.69
-10.05
-10.17
-10.06
-9.82
-9.58
-9.46
-9.50
-9.66
-9.87
-10.02
-10.04
-9.90
-9.55
-8.93
-7.96
-6.62
-4.93
-3.04
-1.11
0.72
2.44
4.15
5.99
8.04
10.28
12.61
14.88
17.04
19.08
20.99
22.71
24.04
24.72
24.48
23.16
20.77
17.46
13.49
9.18
4.87
0.89
-2.50
-5.16
-7.11
-8.49
-9.46
-10.18
-10.66
-10.80
-10.46
-9.56
-8.21
-6.68
-5.32
-4.45
-4.21
-4.56
-5.26
-6.04
-6.67
-7.06
-7.24
-7.30
-7.30
-7.25
-7.14
-7.00
-6.89
-6.94
-7.21
-7.66
-8.10
-8.32
-8.12
-7.45
-6.48
-5.44
-4.64
-4.22
-4.22
-4.51
-4.91
-5.25
-5.42
-5.36
-4.98
-4.20
-2.92
-1.08
1.32
4.16
7.26
10.40
13.39
16.06
18.31
20.09
21.43
22.37
22.98
23.29
23.33
23.05
22.36
21.16
19.37
16.94
13.87
10.25
6.24
2.09
-1.94
-5.62
-8.82
-11.53
-13.79
-15.69
-17.27
-18.53
-19.40
-19.81
-19.70
-19.08
-18.00
-16.60
-15.04
-13.45
-11.90
-10.42
-9.03
-7.77
-6.75
-6.13
-5.98
-6.26
-6.77
-7.21
-7.37
-7.13
-6.58
-5.92
-5.36
-4.99
-4.79
-4.64
-4.42
-4.06
-3.50
-2.72
-1.65
-0.17
1.84
4.41
7.46
10.74
14.01
17.04
19.78
22.28
24.57
26.63
28.29
29.33
29.60
29.12
28.01
26.46
24.64
22.56
20.20
17.49
14.46
11.11
7.47
3.53
-0.68
-5.03
-9.25
-13.04
-16.13
-18.45
-20.09
-21.25
-22.03
-22.43
-22.32
-21.62
-20.35
-18.76
-17.18
-15.90
-15.10
-14.73
-14.62
-14.58
-14.47
-14.22
-13.82
-13.28
-12.63
-11.86
-10.95
-9.93
-8.83
-7.73
-6.72
-5.86
-5.12
-4.40
-3.56
-2.44
-0.95
0.93
3.14
5.55
8.11
10.78
13.60
16.57
19.64
22.62
25.29
27.39
28.78
29.45
29.53
29.18
28.55
27.68
26.53
25.02
23.07
20.66
17.79
14.45
10.64
6.39
1.83
-2.75
-6.99
-10.58
-13.36
-15.47
-17.27
-19.09
-21.13
-23.26
-25.13
-26.31
-26.53
-25.81
-24.44
-22.85
-21.39
-20.25
-19.42
-18.75
-18.08
-17.33
-16.49
-15.61
-14.69
-13.73
-12.71
-11.63
-10.53
-9.53
-8.74
-8.18
-7.74
-7.20
-6.23
-4.55
-1.94
1.61
5.95
10.79
15.78
20.62
25.05
28.90
32.01
34.26
35.62
36.10
35.81
34.97
33.74
32.22
30.42
28.22
25.52
22.25
18.41
14.05
9.25
4.12
-1.16
-6.37
-11.25
-15.56
-19.22
-22.27
-24.84
-27.01
-28.73
-29.80
-29.96
-29.08
-27.22
-24.70
-21.95
-19.42
-17.34
-15.76
-14.55
-13.53
-12.60
-11.78
-11.17
-10.85
-10.76
-10.73
-10.49
-9.85
-8.73
-7.26
-5.64
-4.05
-2.51
-0.89
1.07
3.63
6.91
10.85
15.22
19.69
23.94
27.77
31.06
33.72
35.69
36.84
37.10
36.49
35.18
33.47
31.61
29.75
27.84
25.70
23.09
19.90
16.10
11.74
6.93
1.74
-3.73
-9.29
-14.65
-19.49
-23.49
-26.46
-28.33
-29.16
-29.10
-28.39
-27.34
-26.25
-25.39
-24.85
-24.53
-24.16
-23.45
-22.25
-20.63
-18.84
-17.14
-15.64
-14.24
-12.71
-10.91
-8.85
-6.79
-5.00
-3.67
-2.80
-2.21
-1.69
-1.10
-0.46
0.15
0.59
0.82
0.87
0.81
0.78
0.91
1.34
2.13
3.30
4.81
6.55
8.40
10.30
12.22
14.21
16.35
18.73
21.32
24.04
26.72
29.13
31.08
32.41
33.05
32.99
32.28
30.96
29.15
26.96
24.48
21.77
18.78
15.41
11.51
7.01
1.93
-3.54
-9.11
-14.45
-19.28
-23.44
-26.86
-29.52
-31.35
-32.23
-32.01
-30.63
-28.20
-25.00
-21.46
-17.98
-14.94
-12.57
-11.00
-10.24
-10.14
-10.43
-10.78
-10.84
-10.44
-9.61
-8.58
-7.63
-6.97
-6.63
-6.46
-6.27
-5.93
-5.42
-4.85
-4.37
-4.07
-3.95
-3.97
-4.07
-4.24
-4.55
-5.06
-5.76
-6.50
-6.98
-6.84
-5.81
-3.83
-1.04
2.24
5.70
9.19
12.75
16.54
20.68
25.13
29.62
33.73
37.05
39.33
40.52
40.78
40.37
39.47
38.21
36.59
34.58
32.16
29.32
26.05
22.27
17.90
12.88
7.24
1.18
-5.00
-10.95
-16.39
-21.12
-25.07
-28.18
-30.41
-31.71
-32.08
-31.54
-30.26
-28.47
-26.50
-24.66
-23.15
-22.03
-21.13
-20.20
-18.97
-17.36
-15.49
-13.63
-12.10
-11.08
-10.56
-10.36
-10.28
-10.19
-10.12
-10.26
-10.74
-11.61
-12.70
-13.70
-14.28
-14.25
-13.59
-12.46
-11.11
-9.74
-8.49
-7.38
-6.40
-5.50
-4.62
-3.66
-2.46
-0.81
1.54
4.77
8.92
13.79
18.95
23.90
28.14
31.43
33.78
35.39
36.51
37.25
37.58
37.35
36.49
35.04
33.20
31.20
29.22
27.29
25.36
23.37
21.35
19.37
17.43
15.44
13.11
10.13
6.30
1.66
-3.44
-8.49
-13.00
-16.61
-19.21
-20.88
-21.78
-22.09
-21.96
-21.50
-20.80
-19.89
-18.78
-17.47
-15.96
-14.31
-12.63
-11.09
-9.81
-8.82
-8.10
-7.51
-6.95
-6.36
-5.78
-5.25
-4.82
-4.46
-4.09
-3.64
-3.12
-2.67
-2.52
-2.85
-3.74
-5.11
-6.74
-8.34
-9.67
-10.58
-11.04
-11.12
-10.90
-10.42
-9.70
-8.73
-7.53
-6.13
-4.62
-3.07
-1.52
0.05
1.69
3.40
5.16
6.84
8.28
9.33
9.88
9.94
9.62
9.09
8.57
8.16
7.87
7.60
7.20
6.57
5.71
4.74
3.81
3.03
2.44
1.98
1.60
1.28
1.04
0.90
0.84
0.77
0.59
0.18
-0.49
-1.33
-2.19
-2.85
-3.16
-3.06
-2.61
-1.94
-1.23
-0.58
-0.06
0.34
0.64
0.85
0.98
1.01
0.99
0.92
0.85
0.78
0.71
0.69
0.73
0.86
1.06
1.26
1.38
1.34
1.14
0.87
0.63
0.47
0.37
0.23
-0.01
-0.37
-0.79
-1.20
-1.59
-2.04
-2.61
-3.39
-4.32
-5.28
-6.13
-6.82
-7.39
-7.98
-8.72
-9.61
-10.51
-11.18
-11.42
-11.14
-10.42
-9.44
-8.41
-7.48
-6.68
-5.97
-5.21
-4.24
-2.89
-1.05
1.35
4.23
7.41
10.61
13.57
16.13
18.20
19.79
20.91
21.54
21.63
21.16
20.16
18.74
17.02
15.07
12.91
10.48
7.75
4.78
1.70
-1.28
-3.95
-6.13
-7.71
-8.66
-8.98
-8.77
-8.15
-7.29
-6.39
-5.65
-5.27
-5.38
-6.03
-7.21
-8.79
-10.55
-12.21
-13.54
-14.36
-14.61
-14.34
-13.68
-12.76
-11.66
-10.44
-9.11
-7.66
-6.13
-4.57
-3.09
-1.79
-0.77
-0.09
0.23
0.23
-0.03
-0.45
-0.93
-1.36
-1.64
-1.66
-1.38
-0.81
0.02
1.02
2.10
3.12
3.99
4.60
4.93
5.06
5.16
5.43
6.03
7.02
8.37
9.97
11.70
13.46
15.19
16.76
18.02
18.76
18.81
18.12
16.81
15.14
13.45
11.97
10.81
9.91
9.12
8.27
7.26
6.09
4.80
3.46
2.16
0.95
-0.10
-0.96
-1.61
-2.10
-2.49
-2.86
-3.22
-3.53
-3.72
-3.72
-3.50
-3.12
-2.67
-2.28
-2.03
-1.95
-1.99
-2.05
-2.02
-1.77
-1.24
-0.41
0.66
1.82
2.95
3.90
4.63
5.13
5.46
5.73
6.03
6.41
6.92
7.53
8.18
8.75
9.08
9.05
8.57
7.64
6.35
4.76
2.98
1.06
-0.98
-3.12
-5.36
-7.70
-10.18
-12.81
-15.60
-18.50
-21.38
-24.07
-26.44
-28.35
-29.77
-30.68
-31.13
-31.15
-30.85
-30.34
-29.73
-29.11
-28.48
-27.78
-26.91
-25.76
-24.35
-22.74
-21.07
-19.46
-17.94
-16.47
-14.94
-13.31
-11.58
-9.87
-8.29
-6.90
-5.71
-4.65
-3.65
-2.65
-1.67
-0.73
0.15
0.97
1.78
2.62
3.58
4.79
6.37
8.39
10.80
13.43
16.05
18.45
20.54
22.35
24.04
25.76
27.59
29.50
31.37
33.01
34.21
34.83
34.77
34.05
32.75
30.98
28.86
26.46
23.80
20.92
17.89
14.85
12.00
9.56
7.68
6.43
5.85
5.97
6.93
9.02
12.59
17.91
25.02
33.60
42.98
52.21
60.09
65.33
66.62
62.95
53.97
40.31
23.66
6.43
-8.91
-20.60
-28.02
-31.72
-32.96
-33.01
-32.72
-32.33
-31.65
-30.41
-28.49
-25.96
-23.06
-20.08
-17.26
-14.84
-13.09
-12.30
-12.76
-14.60
-17.64
-21.29
-24.72
-27.11
-27.94
-27.26
-25.61
-23.77
-22.41
-21.82
-21.80
-21.89
-21.64
-20.83
-19.53
-18.01
-16.52
-15.17
-13.94
-12.69
-11.33
-9.85
-8.30
-6.76
-5.26
-3.81
-2.40
-1.04
0.21
1.30
2.21
2.97
3.67
4.39
5.19
6.08
7.02
7.99
9.02
10.18
11.58
13.23
15.05
16.79
18.05
18.36
17.30
14.59
10.28
4.75
-1.35
-7.15
-11.84
-14.89
-16.16
-15.97
-14.98
-13.90
-13.27
-13.27
-13.71
-14.19
-14.29
-13.80
-12.73
-11.23
-9.54
-7.82
-6.11
-4.38
-2.53
-0.47
1.82
4.32
6.97
9.71
12.52
15.38
18.21
20.82
22.97
24.36
24.87
24.60
23.89
23.18
22.81
22.85
23.10
23.22
22.91
22.01
20.55
18.66
16.49
14.14
11.72
9.35
7.23
5.54
4.43
3.85
3.60
3.35
2.74
1.48
-0.47
-2.99
-5.83
-8.77
-11.71
-14.71
-17.90
-21.35
-24.95
-28.39
-31.28
-33.22
-33.96
-33.38
-31.43
-28.07
-23.25
-17.04
-9.74
-1.93
5.62
12.17
17.25
20.77
22.93
24.09
24.57
24.54
24.05
23.15
21.94
20.55
19.10
17.54
15.59
12.84
8.98
4.07
-1.42
-6.67
-10.91
-13.66
-14.95
-15.12
-14.56
-13.44
-11.60
-8.80
-4.93
-0.31
4.46
8.64
11.72
13.52
14.21
14.13
13.59
12.78
11.72
10.39
8.77
6.99
5.27
3.88
3.07
2.97
3.54
4.60
5.88
7.15
8.23
9.08
9.69
10.04
10.00
9.40
8.05
5.84
2.84
-0.70
-4.38
-7.81
-10.70
-12.95
-14.68
-16.08
-17.35
-18.59
-19.79
-20.88
-21.83
-22.65
-23.41
-24.15
-24.90
-25.64
-26.40
-27.23
-28.24
-29.50
-30.94
-32.40
-33.67
-34.57
-35.03
-35.06
-34.67
-33.82
-32.40
-30.27
-27.32
-23.56
-19.12
-14.23
-9.19
-4.32
0.14
4.03
7.34
10.19
12.79
15.32
17.90
20.46
22.86
24.85
26.25
26.92
26.87
26.17
24.98
23.47
21.80
20.11
18.49
16.97
15.61
14.40
13.39
12.64
12.19
12.03
12.09
12.27
12.45
12.52
12.42
12.14
11.73
11.23
10.74
10.34
10.06
9.90
9.86
9.91
10.06
10.30
10.59
10.80
10.75
10.26
9.25
7.83
6.28
4.94
4.04
3.66
3.67
3.85
3.98
3.87
3.47
2.78
1.89
0.90
-0.11
-1.04
-1.88
-2.64
-3.41
-4.24
-5.19
-6.27
-7.49
-8.84
-10.25
-11.59
-12.72
-13.49
-13.82
-13.72
-13.25
-12.51
-11.57
-10.51
-9.40
-8.35
-7.44
-6.71
-6.08
-5.40
-4.50
-3.35
-2.10
-0.97
-0.21
0.06
-0.08
-0.42
-0.70
-0.76
-0.56
-0.18
0.29
0.78
1.32
1.94
2.70
3.57
4.47
5.33
6.09
6.76
7.32
7.71
7.81
7.44
6.43
4.77
2.57
0.15
-2.10
-3.80
-4.67
-4.62
-3.69
-2.02
0.23
2.91
5.89
9.03
12.17
15.04
17.38
18.98
19.71
19.57
18.69
17.23
15.31
12.97
10.21
7.01
3.46
-0.22
-3.77
-6.94
-9.63
-11.88
-13.81
-15.52
-16.98
-18.05
-18.51
-18.20
-17.09
-15.32
-13.12
-10.78
-8.53
-6.52
-4.80
-3.41
-2.32
-1.54
-1.09
-0.97
-1.16
-1.58
-2.08
-2.50
-2.75
-2.80
-2.76
-2.76
-2.91
-3.23
-3.64
-4.03
-4.29
-4.44
-4.55
-4.72
-4.99
-5.34
-5.69
-5.91
-5.97
-5.88
-5.68
-5.47
-5.32
-5.25
-5.24
-5.26
-5.23
-5.11
-4.92
-4.69
-4.51
-4.43
-4.45
-4.51
-4.51
-4.37
-4.04
-3.54
-2.95
-2.33
-1.76
-1.26
-0.83
-0.42
0.01
0.49
1.01
1.54
2.00
2.32
2.49
2.49
2.36
2.13
1.81
1.45
1.07
0.68
0.27
-0.15
-0.61
-1.10
-1.56
-1.91
-2.10
-2.17
-2.18
-2.24
-2.41
-2.62
-2.77
-2.73
-2.49
-2.14
-1.83
-1.69
-1.74
-1.85
-1.87
-1.70
-1.36
-0.95
-0.60
-0.37
-0.25
-0.19
-0.12
-0.05
-0.02
-0.06
-0.16
-0.25
-0.27
-0.20
-0.08
0.05
0.20
0.45
0.93
1.71
2.78
4.02
5.24
6.32
7.20
7.95
8.65
9.35
10.00
10.52
10.81
10.79
10.45
9.82
8.96
7.95
6.85
5.70
4.56
3.47
2.47
1.56
0.72
-0.11
-0.95
-1.79
-2.57
-3.17
-3.50
-3.53
-3.30
-2.89
-2.41
-1.93
-1.44
-0.96
-0.53
-0.20
-0.00
0.10
0.20
0.40
0.76
1.23
1.65
1.85
1.73
1.36
0.96
0.73
0.85
1.27
1.84
2.33
2.56
2.49
2.17
1.71
1.23
0.83
0.55
0.40
0.35
0.37
0.37
0.30
0.14
-0.06
-0.24
-0.33
-0.33
-0.28
-0.26
-0.34
-0.51
-0.72
-0.93
-1.12
-1.31
-1.55
-1.83
-2.11
-2.29
-2.28
-2.08
-1.74
-1.41
-1.19
-1.16
-1.28
-1.48
-1.68
-1.86
-2.03
-2.20
-2.38
-2.54
-2.65
-2.71
-2.73
-2.72
-2.65
-2.48
-2.15
-1.67
-1.13
-0.64
-0.31
-0.16
-0.13
-0.13
-0.08
0.06
0.24
0.41
0.51
0.50
0.37
0.15
-0.12
-0.38
-0.60
-0.80
-1.00
-1.23
-1.50
-1.77
-1.95
-1.97
-1.79
-1.45
-1.00
-0.50
0.04
0.68
1.50
2.55
3.85
5.31
6.86
8.42
9.97
11.50
13.00
14.40
15.58
16.42
16.84
16.89
16.69
16.43
16.22
16.03
15.74
15.15
14.09
12.45
10.19
7.29
3.78
-0.27
-4.63
-9.01
-13.08
-16.56
-19.38
-21.64
-23.52
-25.14
-26.51
-27.48
-27.88
-27.65
-26.84
-25.66
-24.38
-23.19
-22.21
-21.43
-20.78
-20.18
-19.60
-19.02
-18.44
-17.86
-17.24
-16.56
-15.81
-15.03
-14.30
-13.66
-13.08
-12.49
-11.73
-10.62
-9.03
-6.87
-4.13
-0.90
2.68
6.39
9.95
13.13
15.74
17.70
19.05
19.87
20.27
20.32
20.08
19.60
18.98
18.37
17.94
17.83
18.11
18.68
19.39
20.02
20.38
20.33
19.80
18.77
17.28
15.44
13.45
11.55
9.92
8.63
7.65
6.87
6.27
5.85
5.65
5.63
5.54
5.07
3.91
1.98
-0.52
-3.11
-5.37
-6.99
-8.04
-8.82
-9.73
-11.17
-13.61
-17.49
-22.99
-29.69
-36.28
-40.86
-41.54
-37.41
-29.09
-18.58
-8.40
-0.48
4.58
7.42
9.24
10.96
12.80
14.41
15.41
15.83
16.11
16.80
18.11
19.76
21.14
21.70
21.09
19.39
16.88
13.76
10.09
5.82
0.89
-4.60
-10.33
-15.86
-20.70
-24.45
-26.81
-27.56
-26.54
-23.78
-19.50
-14.19
-8.46
-2.86
2.24
6.67
10.34
13.14
14.90
15.50
15.01
13.78
12.38
11.37
11.05
11.38
11.95
12.29
12.08
11.27
10.13
9.07
8.45
8.39
8.78
9.25
9.41
8.93
7.68
5.69
3.17
0.41
-2.28
-4.61
-6.31
-7.21
-7.27
-6.56
-5.25
-3.53
-1.60
0.37
2.24
3.88
5.23
6.32
7.29
8.28
9.34
10.34
11.01
10.97
9.93
7.74
4.46
0.29
-4.47
-9.46
-14.27
-18.48
-21.69
-23.57
-23.93
-22.68
-19.87
-15.63
-10.29
-4.38
1.39
6.28
9.80
11.87
12.86
13.42
14.17
15.37
16.82
17.98
18.32
17.60
15.98
13.93
11.93
10.28
8.90
7.45
5.49
2.72
-0.79
-4.58
-7.97
-10.35
-11.43
-11.41
-10.83
-10.23
-9.86
-9.56
-8.90
-7.45
-5.12
-2.17
0.96
3.90
6.53
8.93
11.17
13.16
14.64
15.30
14.98
13.85
12.31
10.90
10.04
9.87
10.20
10.63
10.70
10.07
8.61
6.40
3.66
0.64
-2.40
-5.22
-7.62
-9.45
-10.75
-11.67
-12.43
-13.12
-13.68
-13.82
-13.27
-11.94
-9.99
-7.81
-5.83
-4.33
-3.37
-2.79
-2.38
-1.96
-1.47
-0.92
-0.28
0.46
1.27
2.03
2.45
2.16
0.76
-1.93
-5.77
-10.21
-14.43
-17.52
-18.83
-18.18
-15.94
-12.96
-10.23
-8.70
-9.01
-11.38
-15.57
-20.80
-25.85
-29.22
-29.62
-26.42
-20.05
-11.94
-4.01
2.09
5.62
6.95
7.21
7.65
9.05
11.51
14.55
17.50
19.79
21.16
21.61
21.40
20.86
20.42
20.35
20.73
21.34
21.73
21.42
20.09
17.75
14.71
11.44
8.37
5.74
3.59
1.88
0.54
-0.40
-0.92
-1.06
-1.01
-1.12
-1.72
-2.98
-4.81
-6.89
-8.82
-10.30
-11.22
-11.66
-11.74
-11.51
-10.82
-9.47
-7.32
-4.48
-1.31
1.68
4.03
5.50
6.16
6.28
6.22
6.24
6.42
6.69
6.88
6.84
6.49
5.84
4.94
3.83
2.52
1.01
-0.67
-2.39
-3.93
-5.02
-5.51
-5.41
-4.99
-4.59
-4.46
-4.62
-4.89
-5.04
-4.90
-4.56
-4.22
-4.10
-4.27
-4.65
-5.06
-5.43
-5.80
-6.31
-7.02
-7.88
-8.66
-9.11
-9.05
-8.47
-7.50
-6.31
-5.02
-3.70
-2.38
-1.13
-0.03
0.83
1.43
1.82
2.12
2.40
2.65
2.80
2.76
2.52
2.16
1.80
1.55
1.41
1.32
1.16
0.88
0.49
0.12
-0.11
-0.13
0.03
0.26
0.42
0.41
0.22
-0.08
-0.39
-0.64
-0.83
-1.03
-1.33
-1.76
-2.26
-2.71
-3.02
-3.18
-3.26
-3.40
-3.67
-4.04
-4.40
-4.59
-4.53
-4.30
-4.06
-3.99
-4.18
-4.57
-5.04
-5.44
-5.70
-5.85
-5.90
-5.87
-5.74
-5.42
-4.89
-4.17
-3.35
-2.56
-1.89
-1.39
-1.04
-0.78
-0.54
-0.24
0.17
0.66
1.15
1.51
1.64
1.54
1.33
1.17
1.24
1.61
2.20
2.84
3.36
3.61
3.57
3.34
3.05
2.81
2.64
2.50
2.26
1.85
1.28
0.64
0.06
-0.39
-0.73
-1.02
-1.33
-1.67
-2.00
-2.25
-2.44
-2.60
-2.82
-3.15
-3.60
-4.13
-4.72
-5.33
-5.98
-6.64
-7.26
-7.77
-8.15
-8.40
-8.56
-8.71
-8.85
-9.00
-9.13
-9.24
-9.34
-9.45
-9.61
-9.87
-10.30
-10.96
-11.88
-13.05
-14.37
-15.69
-16.87
-17.82
-18.50
-18.94
-19.12
-18.89
-18.02
-16.20
-13.14
-8.67
-2.78
4.31
12.19
20.34
28.08
34.75
39.77
42.86
44.02
43.60
42.12
40.09
37.87
35.60
33.31
30.99
28.69
26.48
24.42
22.49
20.56
18.46
16.08
13.39
10.47
7.42
4.30
1.17
-1.93
-4.90
-7.58
-9.76
-11.23
-11.91
-11.83
-11.13
-9.95
-8.42
-6.59
-4.48
-2.15
0.23
2.40
4.11
5.21
5.68
5.59
5.04
4.05
2.60
0.69
-1.63
-4.19
-6.78
-9.25
-11.49
-13.48
-15.20
-16.61
-17.64
-18.22
-18.36
-18.11
-17.54
-16.72
-15.64
-14.29
-12.67
-10.84
-8.92
-7.06
-5.38
-3.97
-2.84
-1.91
-1.06
-0.15
0.89
2.10
3.44
4.85
6.27
7.66
9.01
10.28
11.37
12.07
12.12
11.30
9.48
6.75
3.37
-0.35
-4.13
-7.83
-11.45
-15.04
-18.63
-22.16
-25.49
-28.43
-30.81
-32.47
-33.25
-32.96
-31.42
-28.54
-24.35
-19.03
-12.79
-5.83
1.74
9.85
18.37
27.06
35.56
43.46
50.44
56.24
60.62
63.32
63.96
62.20
57.79
50.72
41.30
30.05
17.66
4.90
-7.43
-18.59
-27.89
-34.86
-39.26
-41.13
-40.75
-38.57
-35.12
-30.91
-26.36
-21.77
-17.27
-12.92
-8.71
-4.65
-0.80
2.68
5.67
8.05
9.77
10.84
11.28
11.16
10.51
9.42
7.94
6.16
4.12
1.86
-0.55
-3.03
-5.38
-7.40
-8.90
-9.76
-10.04
-9.89
-9.50
-9.04
-8.52
-7.81
-6.62
-4.60
-1.45
3.00
8.67
15.25
22.23
28.97
34.83
39.18
41.56
41.70
39.66
35.79
30.73
25.24
20.02
15.54
12.00
9.32
7.34
5.85
4.64
3.49
2.14
0.26
-2.43
-6.04
-10.36
-14.85
-18.77
-21.38
-22.26
-21.44
-19.37
-16.69
-14.02
-11.66
-9.62
-7.71
-5.81
-3.96
-2.37
-1.29
-0.81
-0.77
-0.78
-0.45
0.50
2.14
4.33
6.85
9.47
12.02
14.38
16.40
17.89
18.62
18.38
17.04
14.69
11.57
8.12
4.78
1.93
-0.21
-1.62
-2.45
-2.92
-3.26
-3.65
-4.22
-5.05
-6.18
-7.64
-9.48
-11.73
-14.32
-17.02
-19.46
-21.23
-22.04
-21.82
-20.78
-19.31
-17.79
-16.46
-15.37
-14.47
-13.68
-12.95
-12.26
-11.53
-10.65
-9.46
-7.89
-6.04
-4.14
-2.46
-1.14
-0.08
1.03
2.61
4.98
8.28
12.40
17.06
21.84
26.18
29.43
30.94
30.25
27.33
22.68
17.23
12.02
7.83
4.93
3.05
1.64
0.22
-1.40
-3.06
-4.52
-5.63
-6.55
-7.62
-9.22
-11.53
-14.39
-17.39
-19.99
-21.81
-22.73
-22.89
-22.58
-22.05
-21.38
-20.42
-18.96
-16.81
-13.94
-10.51
-6.82
-3.22
-0.02
2.62
4.67
6.21
7.37
8.27
9.01
9.61
10.01
10.11
9.81
9.11
8.09
6.91
5.81
5.02
4.75
5.16
6.24
7.79
9.39
10.53
10.78
10.06
8.66
7.16
6.18
6.03
6.63
7.55
8.27
8.45
7.99
7.00
5.60
3.82
1.59
-1.18
-4.50
-8.25
-12.12
-15.69
-18.55
-20.38
-21.12
-20.92
-20.13
-19.10
-18.06
-17.04
-15.97
-14.78
-13.58
-12.58
-12.02
-11.99
-12.32
-12.70
-12.84
-12.62
-12.08
-11.42
-10.87
-10.62
-10.72
-11.09
-11.54
-11.75
-11.38
-10.19
-8.14
-5.43
-2.40
0.61
3.35
5.75
7.76
9.30
10.20
10.24
9.30
7.50
5.21
2.99
1.38
0.82
1.45
3.14
5.50
7.94
9.93
11.08
11.30
10.74
9.79
8.81
8.11
7.87
8.17
9.10
10.67
12.79
15.13
17.21
18.48
18.54
17.29
14.98
12.05
8.98
6.09
3.53
1.27
-0.72
-2.45
-3.82
-4.72
-5.09
-4.96
-4.45
-3.70
-2.79
-1.73
-0.43
1.18
3.05
4.99
6.64
7.67
7.89
7.40
6.54
5.76
5.40
5.59
6.18
6.90
7.44
7.68
7.65
7.49
7.39
7.48
7.79
8.26
8.82
9.39
9.91
10.36
10.74
11.05
11.28
11.45
11.63
11.98
12.62
13.49
14.27
14.41
13.33
10.74
6.85
2.29
-2.14
-5.87
-8.76
-11.04
-12.96
-14.53
-15.44
-15.35
-14.19
-12.43
-10.90
-10.38
-11.13
-12.74
-14.33
-14.98
-14.23
-12.27
-9.78
-7.62
-6.36
-6.12
-6.61
-7.33
-7.79
-7.79
-7.35
-6.78
-6.54
-7.08
-8.78
-11.84
-16.25
-21.74
-27.72
-33.27
-37.25
-38.50
-36.19
-30.17
-21.17
-10.63
-0.34
8.16
14.04
17.29
18.58
18.82
18.75
18.77
18.91
19.08
19.19
19.20
19.15
19.02
18.74
18.17
17.24
15.95
14.42
12.84
11.36
10.07
8.99
8.06
7.18
6.26
5.28
4.21
3.12
2.08
1.17
0.44
-0.13
-0.59
-0.99
-1.38
-1.74
-2.02
-2.19
-2.25
-2.23
-2.22
-2.28
-2.43
-2.64
-2.85
-2.96
-2.91
-2.62
-2.00
-1.02
0.32
1.89
3.49
4.87
5.85
6.36
6.48
6.34
6.08
5.79
5.47
5.07
4.57
3.93
3.20
2.43
1.69
1.11
0.78
0.82
1.29
2.10
3.11
4.05
4.72
5.03
5.06
5.00
5.03
5.22
5.46
5.56
5.32
4.65
3.61
2.33
0.95
-0.45
-1.83
-3.18
-4.46
-5.61
-6.57
-7.30
-7.77
-7.97
-7.91
-7.61
-7.15
-6.65
-6.25
-6.11
-6.36
-7.10
-8.26
-9.68
-11.03
-12.02
-12.43
-12.23
-11.55
-10.59
-9.51
-8.32
-6.95
-5.38
-3.69
-2.09
-0.82
-0.06
0.16
-0.07
-0.67
-1.60
-2.86
-4.46
-6.28
-8.11
-9.68
-10.76
-11.27
-11.31
-11.03
-10.60
-10.07
-9.39
-8.48
-7.33
-6.00
-4.69
-3.62
-2.93
-2.63
-2.63
-2.74
-2.80
-2.72
-2.49
-2.19
-1.88
-1.56
-1.15
-0.51
0.51
2.02
3.98
6.27
8.69
11.11
13.50
15.95
18.59
21.45
24.45
27.30
29.63
31.05
31.26
30.14
27.76
24.31
20.07
15.32
10.31
5.24
0.26
-4.45
-8.73
-12.40
-15.32
-17.46
-18.88
-19.70
-20.03
-19.91
-19.28
-18.11
-16.39
-14.20
-11.73
-9.20
-6.83
-4.80
-3.24
-2.19
-1.60
-1.36
-1.27
-1.16
-0.95
-0.66
-0.41
-0.32
-0.44
-0.71
-1.00
-1.15
-1.08
-0.81
-0.42
-0.02
0.29
0.50
0.63
0.76
0.93
1.15
1.39
1.59
1.66
1.57
1.32
0.93
0.46
-0.03
-0.48
-0.86
-1.14
-1.28
-1.28
-1.15
-0.95
-0.74
-0.61
-0.63
-0.86
-1.29
-1.88
-2.55
-3.20
-3.73
-4.02
-3.99
-3.62
-2.90
-1.95
-0.89
0.10
0.89
1.40
1.64
1.66
1.53
1.34
1.18
1.11
1.20
1.48
1.89
2.32
2.61
2.65
2.41
1.95
1.42
0.97
0.66
0.50
0.41
0.35
0.30
0.26
0.22
0.14
-0.04
-0.38
-0.82
-1.25
-1.52
-1.54
-1.33
-1.05
-0.86
-0.88
-1.09
-1.39
-1.62
-1.69
-1.61
-1.46
-1.29
-1.14
-1.00
-0.83
-0.66
-0.53
-0.46
-0.46
-0.45
-0.35
-0.10
0.30
0.77
1.22
1.57
1.82
2.02
2.22
2.47
2.81
3.19
3.60
3.95
4.21
4.37
4.41
4.38
4.27
4.09
3.80
3.39
2.90
2.40
1.96
1.64
1.42
1.25
1.06
0.80
0.45
0.06
-0.33
-0.70
-1.05
-1.40
-1.75
-2.11
-2.49
-2.90
-3.34
-3.83
-4.31
-4.70
-4.88
-4.74
-4.23
-3.40
-2.36
-1.29
-0.34
0.39
0.90
1.21
1.40
1.50
1.54
1.55
1.56
1.64
1.84
2.19
2.65
3.07
3.34
3.36
3.20
2.99
2.88
2.95
3.14
3.32
3.35
3.21
2.99
2.77
2.61
2.47
2.23
1.84
1.36
0.95
0.76
0.84
1.07
1.26
1.21
0.91
0.48
0.10
-0.07
-0.02
0.10
0.13
-0.06
-0.44
-0.89
-1.27
-1.52
-1.68
-1.87
-2.19
-2.62
-3.07
-3.35
-3.34
-3.03
-2.52
-2.00
-1.60
-1.36
-1.23
-1.08
-0.83
-0.44
0.10
0.76
1.52
2.34
3.15
3.85
4.32
4.53
4.55
4.51
4.56
4.71
4.89
4.90
4.62
4.05
3.33
2.67
2.21
1.97
1.85
1.71
1.45
1.06
0.62
0.20
-0.15
-0.43
-0.68
-0.91
-1.17
-1.46
-1.78
-2.17
-2.61
-3.02
-3.29
-3.28
-2.93
-2.29
-1.51
-0.80
-0.32
-0.10
-0.08
-0.14
-0.16
-0.12
-0.05
0.02
0.07
0.11
0.20
0.34
0.51
0.66
0.70
0.60
0.34
-0.04
-0.47
-0.87
-1.20
-1.44
-1.60
-1.75
-1.95
-2.24
-2.62
-3.00
-3.30
-3.41
-3.32
-3.04
-2.65
-2.23
-1.86
-1.58
-1.40
-1.31
-1.30
-1.31
-1.32
-1.32
-1.29
-1.24
-1.19
-1.12
-1.03
-0.95
-0.91
-0.96
-1.10
-1.33
-1.55
-1.71
-1.74
-1.66
-1.51
-1.34
-1.13
-0.85
-0.46
0.03
0.56
1.01
1.29
1.41
1.42
1.42
1.49
1.67
1.93
2.21
2.48
2.67
2.75
2.70
2.54
2.31
2.10
1.98
1.99
2.05
2.10
2.02
1.79
1.45
1.09
0.81
0.64
0.58
0.56
0.54
0.46
0.34
0.17
0.01
-0.12
-0.20
-0.25
-0.32
-0.47
-0.76
-1.16
-1.59
-1.92
-2.03
-1.89
-1.54
-1.12
-0.80
-0.70
-0.84
-1.17
-1.54
-1.79
-1.83
-1.63
-1.24
-0.76
-0.27
0.16
0.52
0.81
1.02
1.12
1.11
1.00
0.86
0.79
0.86
1.11
1.47
1.84
2.10
2.20
2.13
1.95
1.74
1.56
1.43
1.36
1.35
1.37
1.41
1.42
1.31
1.03
0.55
-0.04
-0.64
-1.14
-1.49
-1.73
-1.97
-2.27
-2.67
-3.11
-3.50
-3.78
-3.94
-3.99
-3.94
-3.77
-3.49
-3.07
-2.58
-2.10
-1.71
-1.44
-1.26
-1.14
-1.03
-0.90
-0.73
-0.48
-0.12
0.32
0.77
1.09
1.18
1.01
0.69
0.40
0.31
0.46
0.79
1.18
1.49
1.66
1.71
1.65
1.54
1.40
1.29
1.29
1.45
1.73
2.04
2.22
2.17
1.85
1.38
0.90
0.56
0.40
0.32
0.18
-0.11
-0.57
-1.10
-1.55
-1.79
-1.81
-1.67
-1.48
-1.29
-1.10
-0.88
-0.60
-0.28
0.03
0.30
0.56
0.89
1.30
1.74
2.10
2.27
2.24
2.07
1.89
1.79
1.74
1.64
1.39
1.00
0.56
0.22
0.08
0.14
0.30
0.45
0.46
0.33
0.10
-0.13
-0.29
-0.40
-0.53
-0.75
-1.09
-1.49
-1.81
-1.95
-1.89
-1.73
-1.62
-1.68
-1.92
-2.25
-2.55
-2.77
-2.90
-2.99
-3.03
-2.98
-2.79
-2.45
-2.02
-1.61
-1.30
-1.07
-0.83
-0.50
-0.08
0.35
0.68
0.83
0.81
0.71
0.64
0.66
0.76
0.89
0.97
0.99
0.96
0.94
0.98
1.09
1.25
1.41
1.55
1.67
1.77
1.87
1.98
2.06
2.07
1.97
1.72
1.34
0.87
0.39
-0.04
-0.36
-0.56
-0.68
-0.77
-0.89
-1.03
-1.17
-1.28
-1.34
-1.37
-1.43
-1.57
-1.79
-2.07
-2.33
-2.55
-2.66
-2.63
-2.43
-2.01
-1.35
-0.51
0.42
1.32
2.06
2.57
2.84
2.95
2.94
2.88
2.80
2.72
2.66
2.60
2.53
2.42
2.25
2.02
1.79
1.59
1.47
1.39
1.30
1.16
0.97
0.79
0.71
0.72
0.76
0.68
0.37
-0.18
-0.86
-1.48
-1.86
-1.94
-1.78
-1.53
-1.34
-1.28
-1.36
-1.55
-1.82
-2.15
-2.52
-2.83
-2.97
-2.80
-2.31
-1.62
-0.95
-0.57
-0.66
-1.18
-1.97
-2.76
-3.30
-3.48
-3.31
-2.91
-2.41
-1.93
-1.52
-1.19
-0.92
-0.74
-0.66
-0.69
-0.78
-0.84
-0.76
-0.49
-0.04
0.47
0.91
1.18
1.28
1.34
1.52
1.96
2.69
3.62
4.57
5.40
5.97
6.28
6.32
6.11
5.67
5.02
4.19
3.29
2.46
1.80
1.34
1.04
0.79
0.45
-0.02
-0.61
-1.23
-1.79
-2.22
-2.50
-2.60
-2.55
-2.42
-2.31
-2.31
-2.51
-2.93
-3.49
-4.10
-4.60
-4.92
-5.02
-4.89
-4.58
-4.13
-3.58
-2.99
-2.42
-1.94
-1.54
-1.19
-0.82
-0.37
0.15
0.68
1.14
1.49
1.71
1.86
1.98
2.09
2.20
2.32
2.50
2.80
3.23
3.74
4.19
4.45
4.45
4.28
4.12
4.12
4.34
4.64
4.80
4.59
3.89
2.70
1.13
-0.70
-2.68
-4.68
-6.51
-7.94
-8.73
-8.72
-7.93
-6.56
-4.90
-3.22
-1.74
-0.62
0.10
0.37
0.26
-0.12
-0.56
-0.84
-0.79
-0.33
0.47
1.44
2.42
3.26
3.92
4.41
4.76
5.02
5.20
5.32
5.38
5.32
5.08
4.63
3.94
3.09
2.18
1.35
0.67
0.16
-0.19
-0.43
-0.61
-0.75
-0.86
-1.01
-1.28
-1.74
-2.42
-3.30
-4.30
-5.33
-6.33
-7.27
-8.14
-8.97
-9.76
-10.50
-11.13
-11.62
-11.89
-11.96
-11.87
-11.71
-11.55
-11.44
-11.38
-11.32
-11.21
-11.02
-10.75
-10.42
-10.11
-9.90
-9.80
-9.78
-9.66
-9.21
-8.19
-6.39
-3.71
-0.17
4.11
8.92
13.99
18.98
23.60
27.73
31.47
35.10
38.89
42.83
46.44
48.93
49.42
47.41
43.01
36.93
30.22
23.84
18.42
14.08
10.65
7.80
5.28
2.93
0.65
-1.62
-3.90
-6.13
-8.12
-9.63
-10.46
-10.59
-10.20
-9.56
-8.95
-8.51
-8.24
-8.06
-7.91
-7.79
-7.70
-7.65
-7.59
-7.48
-7.36
-7.38
-7.73
-8.55
-9.85
-11.44
-12.99
-14.22
-14.94
-15.20
-15.22
-15.29
-15.65
-16.38
-17.40
-18.53
-19.60
-20.55
-21.43
-22.30
-23.09
-23.62
-23.55
-22.58
-20.56
-17.49
-13.48
-8.65
-3.09
3.07
9.54
15.84
21.41
25.75
28.64
30.20
30.77
30.70
30.18
29.21
27.72
25.77
23.59
21.57
20.05
19.20
18.89
18.82
18.65
18.16
17.28
16.04
14.41
12.26
9.36
5.53
0.80
-4.42
-9.45
-13.52
-16.04
-16.86
-16.25
-14.80
-13.09
-11.51
-10.16
-8.94
-7.75
-6.59
-5.53
-4.67
-4.03
-3.53
-3.07
-2.65
-2.40
-2.57
-3.40
-5.00
-7.27
-9.84
-12.20
-13.87
-14.49
-14.04
-12.78
-11.14
-9.58
-8.35
-7.48
-6.78
-6.06
-5.21
-4.29
-3.48
-2.96
-2.80
-2.91
-3.14
-3.32
-3.36
-3.30
-3.25
-3.29
-3.47
-3.73
-3.98
-4.13
-4.13
-4.03
-3.87
-3.72
-3.62
-3.54
-3.51
-3.49
-3.50
-3.54
-3.62
-3.71
-3.74
-3.69
-3.54
-3.34
-3.19
-3.19
-3.39
-3.74
-4.11
-4.32
-4.24
-3.82
-3.13
-2.27
-1.40
-0.62
-0.01
0.38
0.59
0.67
0.71
0.79
0.97
1.23
1.54
1.83
2.04
2.18
2.22
2.18
2.08
1.97
1.94
2.06
2.35
2.76
3.15
3.38
3.35
3.08
2.64
2.16
1.72
1.39
1.18
1.10
1.11
1.17
1.20
1.13
0.94
0.64
0.31
-0.01
-0.27
-0.50
-0.73
-0.93
-1.05
-0.99
-0.72
-0.27
0.23
0.61
0.81
0.86
0.90
1.04
1.34
1.72
2.04
2.16
2.07
1.81
1.51
1.26
1.12
1.09
1.17
1.35
1.65
2.01
2.34
2.56
2.59
2.47
2.28
2.11
2.00
1.94
1.86
1.75
1.62
1.56
1.61
1.74
1.85
1.80
1.51
1.01
0.45
0.00
-0.19
-0.14
0.04
0.16
0.08
-0.24
-0.73
-1.28
-1.76
-2.08
-2.17
-2.00
-1.57
-0.89
-0.06
0.78
1.45
1.80
1.79
1.50
1.13
0.89
0.91
1.19
1.58
1.91
2.03
1.91
1.65
1.39
1.23
1.19
1.24
1.32
1.43
1.58
1.76
1.89
1.87
1.63
1.19
0.66
0.23
-0.01
-0.03
0.08
0.20
0.21
0.08
-0.19
-0.58
-1.06
-1.61
-2.18
-2.74
-3.26
-3.73
-4.23
-4.83
-5.56
-6.38
-7.21
-7.96
-8.59
-9.10
-9.52
-9.88
-10.17
-10.38
-10.52
-10.62
-10.72
-10.85
-11.06
-11.38
-11.83
-12.41
-13.05
-13.64
-14.05
-14.17
-13.96
-13.43
-12.56
-11.32
-9.60
-7.34
-4.51
-1.19
2.53
6.52
10.74
15.09
19.49
23.74
27.64
31.02
33.81
36.00
37.63
38.66
39.02
38.64
37.50
35.69
33.45
31.03
28.65
26.42
24.36
22.38
20.40
18.32
16.08
13.67
11.09
8.41
5.71
3.09
0.61
-1.71
-3.91
-6.09
-8.35
-10.72
-13.16
-15.55
-17.73
-19.56
-20.97
-21.95
-22.54
-22.72
-22.47
-21.74
-20.47
-18.64
-16.30
-13.53
-10.44
-7.16
-3.82
-0.55
2.52
5.29
7.68
9.64
11.13
12.09
12.48
12.29
11.57
10.40
8.91
7.18
5.28
3.23
1.06
-1.18
-3.36
-5.32
-6.90
-7.99
-8.61
-8.86
-8.93
-8.96
-9.00
-9.03
-8.92
-8.61
-8.12
-7.55
-7.05
-6.73
-6.56
-6.48
-6.35
-6.12
-5.79
-5.46
-5.19
-5.04
-4.93
-4.80
-4.50
-3.99
-3.25
-2.37
-1.46
-0.67
-0.08
0.30
0.52
0.66
0.78
0.88
0.94
0.96
0.95
0.97
1.05
1.19
1.33
1.43
1.49
1.53
1.59
1.69
1.79
1.83
1.78
1.69
1.61
1.60
1.63
1.62
1.50
1.26
0.98
0.77
0.75
0.91
1.15
1.32
1.31
1.07
0.67
0.21
-0.18
-0.44
-0.57
-0.60
-0.60
-0.66
-0.81
-1.07
-1.40
-1.72
-1.96
-2.08
-2.09
-2.04
-2.02
-2.09
-2.26
-2.51
-2.80
-3.10
-3.39
-3.68
-3.98
-4.29
-4.58
-4.85
-5.06
-5.19
-5.21
-5.16
-5.06
-5.05
-5.23
-5.71
-6.45
-7.29
-8.01
-8.38
-8.26
-7.69
-6.83
-5.90
-5.07
-4.42
-3.92
-3.47
-3.01
-2.46
-1.85
-1.23
-0.67
-0.24
0.03
0.21
0.39
0.62
0.97
1.37
1.78
2.17
2.64
3.30
4.29
5.67
7.32
9.08
10.72
12.15
13.35
14.39
15.27
15.94
16.26
16.12
15.52
14.59
13.59
12.73
12.13
11.74
11.42
11.03
10.51
9.93
9.38
8.93
8.60
8.30
7.96
7.55
7.11
6.71
6.43
6.27
6.18
6.08
5.93
5.70
5.40
5.04
4.56
3.89
2.99
1.86
0.63
-0.52
-1.39
-1.86
-1.97
-1.84
-1.62
-1.43
-1.25
-1.01
-0.63
-0.07
0.61
1.28
1.83
2.20
2.39
2.44
2.39
2.24
2.02
1.77
1.51
1.28
1.03
0.70
0.23
-0.39
-1.11
-1.84
-2.57
-3.42
-4.63
-6.41
-8.87
-11.89
-15.11
-18.10
-20.46
-21.93
-22.45
-22.13
-21.17
-19.83
-18.40
-17.07
-16.01
-15.23
-14.70
-14.28
-13.86
-13.34
-12.67
-11.83
-10.80
-9.60
-8.29
-7.00
-5.82
-4.78
-3.82
-2.76
-1.46
0.15
2.01
3.97
5.87
7.60
9.07
10.23
10.97
11.20
10.90
10.14
9.13
8.12
7.32
6.81
6.56
6.42
6.21
5.77
5.02
3.95
2.66
1.30
0.08
-0.85
-1.37
-1.45
-1.14
-0.52
0.32
1.29
2.34
3.39
4.33
5.04
5.39
5.33
4.86
4.08
3.11
2.05
0.94
-0.22
-1.42
-2.59
-3.63
-4.45
-4.99
-5.32
-5.52
-5.66
-5.73
-5.69
-5.44
-4.97
-4.33
-3.62
-2.93
-2.28
-1.66
-1.08
-0.55
-0.13
0.10
0.09
-0.13
-0.50
-0.91
-1.28
-1.54
-1.64
-1.56
-1.32
-0.93
-0.41
0.21
0.92
1.73
2.64
3.64
4.69
5.68
6.50
7.06
7.31
7.30
7.16
6.99
6.90
6.90
6.96
7.02
7.08
7.14
7.26
7.40
7.48
7.37
6.95
6.28
5.50
4.82
4.38
4.12
3.83
3.25
2.24
0.84
-0.77
-2.31
-3.61
-4.61
-5.39
-6.03
-6.62
-7.18
-7.71
-8.22
-8.69
-9.10
-9.33
-9.31
-8.96
-8.31
-7.46
-6.54
-5.70
-5.00
-4.46
-4.04
-3.69
-3.33
-2.87
-2.27
-1.51
-0.62
0.30
1.08
1.61
1.82
1.76
1.57
1.44
1.48
1.75
2.16
2.58
2.87
2.98
2.89
2.69
2.43
2.15
1.85
1.51
1.14
0.81
0.56
0.44
0.41
0.36
0.16
-0.28
-0.96
-1.78
-2.56
-3.13
-3.40
-3.34
-2.99
-2.46
-1.80
-1.10
-0.42
0.16
0.55
0.71
0.65
0.45
0.22
0.03
-0.10
-0.16
-0.18
-0.17
-0.11
0.02
0.21
0.40
0.55
0.60
0.55
0.42
0.23
-0.02
-0.31
-0.63
-0.93
-1.16
-1.32
-1.46
-1.66
-1.98
-2.47
-3.05
-3.65
-4.17
-4.59
-4.97
-5.38
-5.90
-6.55
-7.29
-8.06
-8.76
-9.30
-9.59
-9.54
-9.12
-8.38
-7.44
-6.50
-5.71
-5.11
-4.63
-4.18
-3.69
-3.15
-2.61
-2.08
-1.48
-0.67
0.46
1.90
3.51
5.07
6.36
7.31
7.95
8.37
8.66
8.85
8.93
8.88
8.73
8.51
8.24
7.91
7.48
6.95
6.32
5.65
5.01
4.40
3.85
3.33
2.85
2.44
2.14
1.93
1.78
1.65
1.50
1.39
1.38
1.52
1.82
2.19
2.58
2.89
3.11
3.22
3.21
3.10
2.90
2.66
2.46
2.35
2.31
2.32
2.30
2.18
1.97
1.73
1.56
1.49
1.52
1.58
1.59
1.50
1.31
1.08
0.91
0.89
1.04
1.33
1.69
2.02
2.25
2.33
2.25
2.02
1.66
1.21
0.75
0.34
-0.02
-0.36
-0.76
-1.27
-1.90
-2.59
-3.26
-3.85
-4.35
-4.80
-5.23
-5.65
-6.03
-6.34
-6.55
-6.66
-6.68
-6.61
-6.44
-6.17
-5.83
-5.47
-5.11
-4.77
-4.42
-3.99
-3.44
-2.72
-1.82
-0.71
0.54
1.86
3.10
4.12
4.82
5.19
5.31
5.28
5.21
5.14
5.06
4.94
4.76
4.50
4.17
3.79
3.34
2.85
2.38
2.00
1.80
1.85
2.15
2.58
3.00
3.23
3.15
2.73
2.04
1.23
0.46
-0.15
-0.59
-0.93
-1.25
-1.63
-2.12
-2.76
-3.55
-4.49
-5.52
-6.52
-7.34
-7.76
-7.63
-6.89
-5.55
-3.74
-1.57
0.83
3.35
5.87
8.29
10.46
12.23
13.48
14.12
14.18
13.74
12.95
11.97
10.89
9.77
8.61
7.43
6.29
5.26
4.41
3.72
3.13
2.52
1.79
0.86
-0.27
-1.58
-3.03
-4.58
-6.19
-7.80
-9.32
-10.58
-11.43
-11.68
-11.26
-10.22
-8.75
-7.08
-5.45
-3.94
-2.53
-1.08
0.52
2.32
4.24
6.16
7.90
9.37
10.55
11.47
12.21
12.81
13.27
13.60
13.77
13.80
13.74
13.62
13.43
13.15
12.67
11.91
10.79
9.30
7.51
5.51
3.43
1.34
-0.67
-2.58
-4.40
-6.17
-7.89
-9.57
-11.18
-12.69
-14.01
-15.03
-15.62
-15.66
-15.08
-13.95
-12.43
-10.76
-9.18
-7.87
-6.92
-6.29
-5.90
-5.60
-5.27
-4.85
-4.33
-3.77
-3.27
-2.92
-2.78
-2.82
-2.94
-3.00
-2.86
-2.49
-1.96
-1.43
-1.08
-1.05
-1.32
-1.77
-2.18
-2.39
-2.33
-2.04
-1.61
-1.14
-0.66
-0.16
0.40
1.05
1.79
2.60
3.41
4.15
4.73
5.13
5.32
5.30
5.10
4.73
4.22
3.65
3.15
2.88
2.97
3.46
4.25
5.12
5.89
6.46
6.88
7.31
7.91
8.71
9.61
10.39
10.84
10.87
10.51
9.89
9.09
8.08
6.67
4.60
1.57
-2.65
-8.13
-14.79
-22.36
-30.31
-37.90
-44.20
-48.28
-49.46
-47.58
-43.09
-36.98
-30.42
-24.45
-19.62
-16.01
-13.29
-11.08
-9.07
-7.14
-5.28
-3.50
-1.75
0.03
1.86
3.64
5.21
6.39
7.11
7.35
7.27
7.10
7.08
7.39
8.12
9.21
10.52
11.84
12.97
13.79
14.28
14.53
14.67
14.84
15.15
15.59
16.11
16.58
16.89
16.99
16.93
16.85
16.91
17.22
17.78
18.46
19.02
19.31
19.22
18.77
18.06
17.15
16.09
14.84
13.34
11.56
9.55
7.44
5.33
3.30
1.28
-0.87
-3.32
-6.14
-9.25
-12.37
-15.17
-17.37
-18.90
-19.94
-20.77
-21.67
-22.72
-23.78
-24.63
-25.09
-25.11
-24.76
-24.12
-23.21
-21.94
-20.24
-18.10
-15.65
-13.16
-10.90
-9.04
-7.56
-6.30
-5.00
-3.45
-1.59
0.47
2.53
4.34
5.71
6.56
6.93
6.96
6.81
6.63
6.56
6.64
6.85
7.12
7.36
7.50
7.54
7.47
7.31
7.02
6.52
5.79
4.91
4.03
3.35
2.98
2.89
2.93
2.91
2.72
2.35
1.91
1.52
1.24
1.08
0.94
0.76
0.53
0.27
0.01
-0.28
-0.65
-1.15
-1.75
-2.32
-2.67
-2.64
-2.15
-1.26
-0.11
1.07
2.10
2.83
3.19
3.17
2.82
2.26
1.60
0.94
0.33
-0.21
-0.69
-1.07
-1.30
-1.33
-1.16
-0.86
-0.53
-0.25
-0.07
0.04
0.14
0.23
0.27
0.19
-0.10
-0.60
-1.27
-1.98
-2.61
-3.09
-3.37
-3.46
-3.42
-3.30
-3.13
-2.96
-2.79
-2.66
-2.60
-2.68
-2.93
-3.36
-3.93
-4.51
-4.93
-5.05
-4.78
-4.09
-3.04
-1.73
-0.30
1.10
2.34
3.28
3.87
4.12
4.12
4.00
3.88
3.84
3.88
3.94
3.92
3.75
3.42
3.01
2.64
2.40
2.33
2.36
2.39
2.33
2.16
1.91
1.63
1.34
1.03
0.64
0.19
-0.23
-0.53
-0.70
-0.79
-0.98
-1.40
-2.08
-2.89
-3.57
-3.90
-3.81
-3.43
-3.03
-2.86
-3.05
-3.59
-4.28
-4.88
-5.16
-4.99
-4.35
-3.35
-2.19
-1.05
-0.07
0.70
1.31
1.81
2.23
2.57
2.79
2.89
2.93
3.03
3.26
3.61
3.97
4.20
4.18
3.92
3.53
3.19
3.01
3.04
3.23
3.47
3.66
3.74
3.70
3.52
3.19
2.68
2.02
1.27
0.57
0.05
-0.20
-0.20
-0.03
0.19
0.38
0.47
0.45
0.31
0.04
-0.34
-0.79
-1.27
-1.72
-2.13
-2.52
-2.86
-3.11
-3.18
-2.99
-2.54
-1.85
-1.01
-0.08
0.89
1.88
2.82
3.65
4.34
4.87
5.28
5.63
5.92
6.13
6.22
6.18
6.03
5.85
5.69
5.53
5.28
4.84
4.15
3.23
2.16
1.07
0.06
-0.83
-1.58
-2.20
-2.71
-3.11
-3.38
-3.49
-3.44
-3.22
-2.94
-2.69
-2.57
-2.63
-2.84
-3.11
-3.34
-3.48
-3.50
-3.45
-3.38
-3.32
-3.30
-3.37
-3.53
-3.82
-4.20
-4.60
-4.89
-4.93
-4.65
-4.02
-3.13
-2.09
-1.04
-0.09
0.69
1.31
1.79
2.21
2.57
2.83
2.93
2.81
2.49
2.09
1.74
1.54
1.51
1.61
1.74
1.86
1.93
1.97
1.97
1.91
1.77
1.53
1.19
0.81
0.43
0.10
-0.16
-0.35
-0.50
-0.62
-0.75
-0.93
-1.20
-1.54
-1.90
-2.17
-2.22
-2.03
-1.70
-1.40
-1.36
-1.70
-2.37
-3.14
-3.75
-3.98
-3.77
-3.21
-2.49
-1.77
-1.16
-0.67
-0.27
0.07
0.38
0.69
1.01
1.34
1.66
1.96
2.21
2.42
2.61
2.80
2.99
3.16
3.26
3.22
3.02
2.70
2.37
2.14
2.08
2.16
2.31
2.42
2.40
2.25
2.03
1.80
1.61
1.46
1.32
1.17
1.02
0.87
0.73
0.61
0.47
0.33
0.18
0.03
-0.09
-0.21
-0.35
-0.53
-0.77
-1.06
-1.38
-1.70
-1.96
-2.14
-2.25
-2.31
-2.39
-2.54
-2.77
-3.04
-3.27
-3.33
-3.15
-2.72
-2.09
-1.34
-0.56
0.18
0.84
1.38
1.77
1.99
2.02
1.90
1.71
1.51
1.37
1.26
1.16
1.03
0.85
0.71
0.66
0.74
0.91
1.06
1.08
0.90
0.59
0.24
-0.00
-0.08
-0.00
0.13
0.23
0.22
0.10
-0.07
-0.24
-0.40
-0.61
-0.93
-1.40
-1.98
-2.51
-2.79
-2.69
-2.20
-1.45
-0.65
-0.01
0.39
0.59
0.72
0.88
1.14
1.46
1.76
1.97
2.08
2.13
2.17
2.25
2.34
2.39
2.34
2.19
1.96
1.71
1.47
1.26
1.04
0.83
0.64
0.55
0.60
0.75
0.93
1.02
1.00
0.89
0.79
0.81
0.96
1.16
1.28
1.22
0.92
0.46
-0.02
-0.40
-0.58
-0.59
-0.52
-0.46
-0.51
-0.67
-0.90
-1.15
-1.37
-1.55
-1.71
-1.85
-2.01
-2.20
-2.42
-2.68
-2.99
-3.32
-3.65
-3.89
-3.99
-3.91
-3.61
-3.12
-2.47
-1.73
-1.00
-0.32
0.23
0.67
1.02
1.33
1.59
1.77
1.84
1.74
1.53
1.26
1.06
0.99
1.06
1.24
1.45
1.63
1.79
1.96
2.15
2.35
2.45
2.37
2.08
1.63
1.13
0.70
0.45
0.39
0.50
0.66
0.76
0.68
0.35
-0.19
-0.86
-1.48
-1.91
-2.10
-2.06
-1.91
-1.78
-1.76
-1.86
-2.05
-2.27
-2.52
-2.74
-2.90
-2.95
-2.81
-2.47
-1.96
-1.37
-0.82
-0.40
-0.10
0.12
0.32
0.54
0.79
1.04
1.27
1.45
1.58
1.65
1.71
1.78
1.86
1.92
1.88
1.69
1.38
1.03
0.78
0.76
0.98
1.35
1.71
1.91
1.85
1.57
1.18
0.79
0.46
0.20
-0.04
-0.29
-0.57
-0.82
-1.01
-1.10
-1.09
-1.03
-0.99
-1.05
-1.27
-1.65
-2.15
-2.68
-3.15
-3.47
-3.58
-3.48
-3.17
-2.73
-2.18
-1.59
-1.00
-0.45
-0.01
0.34
0.61
0.86
1.14
1.42
1.64
1.73
1.64
1.44
1.24
1.19
1.33
1.62
1.94
2.13
2.12
1.93
1.66
1.43
1.30
1.25
1.19
1.00
0.60
0.03
-0.59
-1.09
-1.35
-1.33
-1.14
-0.96
-0.95
-1.16
-1.54
-1.92
-2.15
-2.17
-2.03
-1.90
-1.95
-2.26
-2.80
-3.41
-3.86
-4.00
-3.72
-3.07
-2.16
-1.16
-0.19
0.66
1.37
1.97
2.48
2.91
3.27
3.53
3.68
3.74
3.74
3.76
3.84
3.97
4.09
4.06
3.82
3.36
2.79
2.29
2.04
2.06
2.26
2.47
2.49
2.26
1.86
1.43
1.14
1.04
1.10
1.22
1.28
1.24
1.12
0.96
0.85
0.80
0.80
0.83
0.84
0.78
0.67
0.49
0.28
0.06
-0.15
-0.34
-0.48
-0.54
-0.49
-0.32
-0.08
0.12
0.17
-0.00
-0.43
-1.00
-1.59
-2.06
-2.33
-2.41
-2.36
-2.24
-2.11
-2.03
-2.02
-2.13
-2.37
-2.67
-2.93
-3.05
-2.98
-2.77
-2.53
-2.36
-2.34
-2.42
-2.52
-2.56
-2.52
-2.44
-2.39
-2.41
-2.46
-2.51
-2.51
-2.46
-2.42
-2.43
-2.51
-2.65
-2.82
-2.96
-3.08
-3.15
-3.19
-3.17
-3.07
-2.84
-2.47
-1.97
-1.33
-0.57
0.32
1.31
2.29
3.13
3.67
3.85
3.68
3.24
2.65
2.02
1.41
0.84
0.36
0.03
-0.09
0.01
0.30
0.69
1.08
1.41
1.63
1.75
1.79
1.80
1.83
1.97
2.27
2.75
3.36
3.99
4.54
4.90
5.05
5.05
4.96
4.88
4.86
4.91
5.00
5.06
5.00
4.71
4.14
3.31
2.38
1.58
1.13
1.14
1.59
2.31
3.05
3.61
3.85
3.81
3.54
3.15
2.70
2.24
1.78
1.35
0.97
0.63
0.32
0.01
-0.30
-0.60
-0.89
-1.17
-1.47
-1.84
-2.33
-2.95
-3.68
-4.41
-5.06
-5.54
-5.76
-5.75
-5.53
-5.22
-4.94
-4.79
-4.81
-4.94
-5.08
-5.15
-5.13
-5.11
-5.15
-5.29
-5.45
-5.49
-5.24
-4.66
-3.78
-2.77
-1.79
-0.96
-0.29
0.23
0.63
0.92
1.10
1.19
1.25
1.33
1.50
1.76
2.07
2.33
2.43
2.32
2.01
1.60
1.24
1.01
0.95
1.01
1.07
1.06
0.94
0.76
0.58
0.42
0.25
0.02
-0.27
-0.57
-0.77
-0.82
-0.75
-0.71
-0.85
-1.28
-1.93
-2.61
-3.08
-3.18
-2.88
-2.30
-1.62
-0.98
-0.46
-0.03
0.38
0.82
1.31
1.79
2.20
2.46
2.51
2.39
2.12
1.82
1.58
1.47
1.52
1.71
1.96
2.16
2.22
2.12
1.89
1.58
1.27
0.98
0.73
0.48
0.22
-0.02
-0.21
-0.33
-0.41
-0.49
-0.66
-0.93
-1.26
-1.60
-1.90
-2.19
-2.51
-2.90
-3.27
-3.52
-3.52
-3.22
-2.66
-1.97
-1.32
-0.78
-0.38
-0.09
0.17
0.47
0.82
1.17
1.46
1.61
1.60
1.46
1.29
1.22
1.33
1.59
1.88
2.08
2.07
1.87
1.58
1.33
1.24
1.28
1.37
1.37
1.22
0.94
0.61
0.35
0.20
0.13
0.05
-0.11
-0.34
-0.60
-0.80
-0.93
-1.04
-1.25
-1.63
-2.15
-2.69
-3.10
-3.26
-3.14
-2.77
-2.26
-1.68
-1.11
-0.59
-0.13
0.24
0.54
0.75
0.91
1.05
1.18
1.31
1.42
1.49
1.52
1.50
1.45
1.38
1.31
1.28
1.28
1.33
1.37
1.36
1.27
1.08
0.82
0.54
0.32
0.21
0.24
0.41
0.68
0.95
1.11
1.05
0.72
0.13
-0.62
-1.38
-2.00
-2.38
-2.51
-2.49
-2.42
-2.42
-2.54
-2.74
-2.95
-3.10
-3.11
-2.94
-2.60
-2.08
-1.42
-0.66
0.13
0.83
1.35
1.65
1.74
1.72
1.68
1.67
1.71
1.74
1.72
1.63
1.49
1.35
1.26
1.24
1.28
1.33
1.37
1.36
1.28
1.12
0.92
0.71
0.55
0.45
0.39
0.29
0.10
-0.22
-0.60
-0.94
-1.15
-1.19
-1.10
-0.98
-0.93
-0.99
-1.17
-1.43
-1.73
-2.03
-2.34
-2.65
-2.94
-3.20
-3.36
-3.37
-3.14
-2.66
-1.97
-1.18
-0.44
0.14
0.55
0.87
1.18
1.54
1.86
2.04
1.99
1.73
1.38
1.11
1.05
1.21
1.50
1.82
2.10
2.32
2.46
2.49
2.36
2.07
1.66
1.20
0.80
0.53
0.37
0.29
0.28
0.31
0.39
0.47
0.49
0.42
0.21
-0.08
-0.43
-0.79
-1.16
-1.57
-2.01
-2.44
-2.77
-2.94
-2.93
-2.83
-2.75
-2.75
-2.83
-2.88
-2.77
-2.39
-1.73
-0.89
-0.03
0.69
1.16
1.35
1.34
1.22
1.09
0.99
0.94
0.89
0.82
0.75
0.74
0.83
1.01
1.25
1.48
1.66
1.82
1.97
2.13
2.28
2.34
2.28
2.10
1.88
1.74
1.74
1.88
2.08
2.20
2.13
1.85
1.37
0.78
0.15
-0.45
-1.00
-1.49
-1.91
-2.28
-2.59
-2.87
-3.12
-3.36
-3.59
-3.77
-3.83
-3.67
-3.23
-2.55
-1.75
-1.00
-0.42
-0.06
0.18
0.42
0.77
1.23
1.72
2.15
2.45
2.60
2.65
2.67
2.68
2.66
2.61
2.50
2.36
2.20
2.07
1.97
1.90
1.83
1.72
1.49
1.13
0.67
0.21
-0.12
-0.23
-0.13
0.05
0.16
0.06
-0.23
-0.63
-1.02
-1.30
-1.48
-1.63
-1.83
-2.13
-2.54
-3.05
-3.59
-4.16
-4.66
-4.99
-5.03
-4.70
-4.02
-3.08
-2.05
-1.10
-0.36
0.13
0.39
0.49
0.51
0.50
0.47
0.41
0.30
0.13
-0.09
-0.29
-0.45
-0.54
-0.60
-0.67
-0.82
-1.05
-1.32
-1.58
-1.80
-2.00
-2.18
-2.39
-2.62
-2.89
-3.20
-3.56
-3.98
-4.43
-4.82
-5.00
-4.80
-4.05
-2.73
-0.91
1.22
3.44
5.59
7.60
9.50
11.33
13.11
14.71
15.93
16.55
16.40
15.51
14.02
12.16
10.17
8.17
6.20
4.24
2.30
0.38
-1.46
-3.17
-4.69
-5.99
-7.09
-7.96
-8.64
-9.14
-9.48
-9.62
-9.54
-9.20
-8.61
-7.88
-7.16
-6.56
-6.18
-6.01
-5.98
-6.04
-6.15
-6.31
-6.52
-6.73
-6.88
-6.88
-6.76
-6.59
-6.51
-6.57
-6.74
-6.89
-6.84
-6.51
-5.93
-5.30
-4.81
-4.59
-4.64
-4.81
-4.92
-4.83
-4.48
-3.91
-3.22
-2.56
-2.10
-2.05
-2.52
-3.54
-4.90
-6.18
-6.81
-6.20
-3.93
0.12
5.71
12.23
18.83
24.66
28.99
31.40
31.83
30.51
27.86
24.36
20.44
16.42
12.51
8.85
5.53
2.54
-0.16
-2.65
-4.88
-6.69
-7.82
-8.07
-7.44
-6.13
-4.49
-2.85
-1.34
0.07
1.46
2.83
4.03
4.81
5.02
4.72
4.11
3.44
2.82
2.20
1.44
0.48
-0.60
-1.61
-2.33
-2.66
-2.70
-2.68
-2.86
-3.37
-4.16
-5.03
-5.69
-5.94
-5.70
-5.10
-4.33
-3.58
-2.91
-2.28
-1.60
-0.82
-0.00
0.75
1.34
1.75
2.06
2.40
2.88
3.48
4.09
4.59
4.85
4.87
4.68
4.36
3.98
3.57
3.14
2.69
2.25
1.83
1.45
1.10
0.78
0.48
0.19
-0.05
-0.23
-0.33
-0.38
-0.44
-0.54
-0.70
-0.93
-1.20
-1.50
-1.83
-2.19
-2.57
-2.91
-3.15
-3.23
-3.13
-2.92
-2.68
-2.48
-2.33
-2.18
-1.95
-1.60
-1.10
-0.55
-0.05
0.31
0.47
0.47
0.40
0.36
0.41
0.58
0.84
1.10
1.30
1.42
1.52
1.69
1.97
2.33
2.64
2.76
2.64
2.33
2.00
1.79
1.74
1.75
1.68
1.45
1.14
0.94
1.04
1.46
2.04
2.51
2.61
2.29
1.69
1.08
0.71
0.70
0.96
1.31
1.57
1.65
1.57
1.45
1.37
1.40
1.52
1.69
1.87
2.04
2.15
2.16
2.00
1.67
1.23
0.81
0.59
0.65
0.98
1.46
1.90
2.15
2.16
1.95
1.56
1.10
0.64
0.26
0.03
0.01
0.15
0.37
0.51
0.47
0.22
-0.15
-0.49
-0.65
-0.58
-0.31
0.07
0.45
0.77
1.02
1.18
1.24
1.15
0.94
0.65
0.34
0.07
-0.14
-0.34
-0.59
-0.94
-1.39
-1.90
-2.46
-3.05
-3.66
-4.27
-4.79
-5.16
-5.34
-5.37
-5.35
-5.34
-5.37
-5.38
-5.28
-5.03
-4.66
-4.26
-3.92
-3.67
-3.45
-3.19
-2.84
-2.44
-2.09
-1.85
-1.72
-1.63
-1.45
-1.15
-0.74
-0.32
0.00
0.16
0.16
0.06
-0.09
-0.27
-0.45
-0.63
-0.82
-1.02
-1.22
-1.41
-1.59
-1.72
-1.79
-1.83
-1.87
-1.95
-2.09
-2.21
-2.20
-1.97
-1.48
-0.80
-0.04
0.72
1.45
2.18
2.96
3.81
4.65
5.42
5.99
6.32
6.41
6.31
6.06
5.70
5.22
4.60
3.80
2.83
1.73
0.56
-0.57
-1.62
-2.54
-3.32
-3.96
-4.44
-4.74
-4.80
-4.59
-4.12
-3.49
-2.83
-2.31
-2.06
-2.12
-2.45
-2.92
-3.41
-3.84
-4.17
-4.40
-4.53
-4.51
-4.32
-3.94
-3.40
-2.75
-2.01
-1.23
-0.42
0.37
1.02
1.44
1.53
1.32
0.91
0.44
0.00
-0.39
-0.85
-1.49
-2.35
-3.40
-4.51
-5.57
-6.54
-7.40
-8.22
-9.02
-9.78
-10.39
-10.77
-10.79
-10.37
-9.42
-7.88
-5.73
-3.04
0.03
3.25
6.32
8.99
11.06
12.45
13.21
13.46
13.34
12.96
12.39
11.55
10.38
8.80
6.83
4.60
2.30
0.11
-1.84
-3.54
-4.98
-6.12
-6.86
-7.08
-6.73
-5.90
-4.81
-3.75
-2.95
-2.44
-2.10
-1.74
-1.22
-0.54
0.20
0.85
1.38
1.87
2.45
3.27
4.33
5.55
6.78
7.91
8.92
9.82
10.67
11.45
12.19
12.93
13.70
14.51
15.22
15.57
15.26
14.13
12.29
10.04
7.87
6.17
5.17
4.83
4.95
5.23
5.40
5.25
4.70
3.73
2.43
0.86
-0.91
-2.86
-4.96
-7.14
-9.28
-11.18
-12.70
-13.76
-14.38
-14.65
-14.68
-14.49
-14.11
-13.50
-12.63
-11.50
-10.16
-8.75
-7.43
-6.37
-5.68
-5.40
-5.49
-5.88
-6.48
-7.24
-8.12
-9.09
-10.07
-10.93
-11.54
-11.73
-11.39
-10.50
-9.09
-7.28
-5.28
-3.31
-1.55
-0.12
0.94
1.66
2.12
2.40
2.58
2.69
2.73
2.68
2.52
2.26
1.92
1.59
1.36
1.28
1.37
1.61
1.95
2.33
2.70
2.98
3.13
3.09
2.87
2.54
2.18
1.88
1.63
1.41
1.15
0.82
0.41
-0.02
-0.45
-0.83
-1.15
-1.38
-1.52
-1.54
-1.43
-1.17
-0.78
-0.27
0.33
0.96
1.52
1.93
2.14
2.18
2.11
2.04
2.00
2.01
2.03
2.03
2.02
2.00
2.00
2.01
2.03
2.05
2.05
2.02
1.94
1.77
1.52
1.19
0.83
0.49
0.24
0.10
0.08
0.14
0.23
0.28
0.19
-0.08
-0.55
-1.15
-1.77
-2.28
-2.60
-2.69
-2.59
-2.41
-2.22
-2.10
-2.04
-2.03
-1.98
-1.85
-1.61
-1.33
-1.14
-1.18
-1.58
-2.31
-3.27
-4.17
-4.78
-4.98
-4.83
-4.52
-4.25
-4.26
-4.55
-5.04
-5.51
-5.75
-5.62
-5.07
-4.16
-2.97
-1.61
0.12
2.62
6.62
12.81
21.62
32.95
46.07
59.72
72.31
82.62
88.68
89.06
83.22
71.93
57.09
41.03
26.56
14.27
3.94
-4.85
-12.32
-18.58
-23.69
-27.74
-30.96
-33.63
-36.11
-38.39
-40.30
-41.57
-41.94
-41.34
-39.93
-38.07
-36.18
-34.65
-33.51
-32.49
-31.17
-29.18
-26.39
-22.97
-19.36
-16.02
-13.32
-11.26
-9.60
-7.99
-6.17
-4.06
-1.79
0.39
2.21
3.47
4.14
4.28
4.06
3.69
3.36
3.19
3.22
3.39
3.55
3.62
3.56
3.38
3.17
2.99
2.94
3.10
3.58
4.43
5.61
6.96
8.20
9.04
9.31
9.03
8.39
7.67
7.09
6.71
6.47
6.24
5.94
5.58
5.22
4.97
4.81
4.71
4.57
4.33
3.97
3.55
3.09
2.57
1.96
1.18
0.23
-0.85
-1.96
-2.98
-3.83
-4.49
-4.95
-5.24
-5.40
-5.46
-5.44
-5.35
-5.18
-4.91
-4.56
-4.15
-3.75
-3.40
-3.13
-2.85
-2.46
-1.87
-1.07
-0.12
0.88
1.83
2.64
3.30
3.78
4.04
4.08
3.92
3.66
3.44
3.36
3.43
3.55
3.53
3.27
2.79
2.23
1.82
1.68
1.81
2.05
2.18
2.09
1.79
1.41
1.10
0.95
0.94
0.95
0.90
0.76
0.57
0.35
0.13
-0.09
-0.34
-0.59
-0.78
-0.85
-0.72
-0.38
0.14
0.80
1.51
2.21
2.81
3.28
3.65
3.99
4.41
4.98
5.73
6.65
7.70
8.84
9.97
10.95
11.57
11.59
10.86
9.39
7.37
5.10
2.84
0.74
-1.15
-2.89
-4.48
-5.90
-7.07
-7.91
-8.39
-8.55
-8.51
-8.39
-8.30
-8.32
-8.44
-8.58
-8.63
-8.52
-8.23
-7.84
-7.43
-7.07
-6.69
-6.16
-5.31
-4.09
-2.57
-0.95
0.51
1.61
2.28
2.58
2.63
2.58
2.51
2.43
2.33
2.21
2.07
1.93
1.80
1.68
1.53
1.31
0.99
0.63
0.30
0.07
-0.03
-0.04
-0.04
-0.13
-0.35
-0.69
-1.11
-1.56
-2.02
-2.50
-3.07
-3.76
-4.60
-5.61
-6.77
-8.09
-9.55
-11.09
-12.60
-13.97
-15.06
-15.83
-16.26
-16.34
-16.03
-15.28
-14.03
-12.28
-10.16
-7.92
-5.80
-4.00
-2.56
-1.43
-0.46
0.42
1.23
1.88
2.29
2.42
2.29
1.99
1.66
1.45
1.48
1.83
2.52
3.47
4.53
5.54
6.33
6.80
6.92
6.75
6.41
5.97
5.54
5.13
4.74
4.37
3.97
3.47
2.77
1.84
0.73
-0.38
-1.20
-1.51
-1.20
-0.40
0.59
1.49
2.09
2.40
2.58
2.81
3.16
3.59
3.98
4.23
4.27
4.11
3.80
3.38
2.92
2.49
2.20
2.17
2.45
3.01
3.69
4.26
4.54
4.41
3.87
3.00
1.93
0.82
-0.23
-1.13
-1.83
-2.32
-2.60
-2.70
-2.68
-2.56
-2.41
-2.26
-2.16
-2.17
-2.36
-2.77
-3.40
-4.18
-5.00
-5.75
-6.39
-6.92
-7.36
-7.68
-7.78
-7.52
-6.81
-5.69
-4.33
-2.98
-1.82
-0.97
-0.34
0.22
0.84
1.63
2.58
3.63
4.69
5.69
6.56
7.22
7.62
7.69
7.44
6.93
6.28
5.63
5.05
4.57
4.13
3.60
2.94
2.18
1.48
1.04
1.01
1.42
2.10
2.77
3.12
2.97
2.31
1.38
0.49
-0.08
-0.26
-0.16
-0.07
-0.24
-0.80
-1.66
-2.62
-3.42
-3.87
-3.90
-3.58
-3.02
-2.36
-1.71
-1.12
-0.60
-0.10
0.40
0.94
1.46
1.88
2.16
2.27
2.27
2.25
2.30
2.47
2.77
3.20
3.69
4.16
4.48
4.54
4.27
3.74
3.09
2.51
2.13
1.95
1.85
1.68
1.36
0.93
0.52
0.31
0.37
0.65
1.01
1.29
1.42
1.38
1.22
0.97
0.64
0.23
-0.26
-0.80
-1.30
-1.69
-1.96
-2.18
-2.44
-2.81
-3.29
-3.74
-4.02
-4.00
-3.66
-3.07
-2.35
-1.59
-0.85
-0.11
0.63
1.35
1.94
2.35
2.53
2.50
2.33
2.15
2.03
2.02
2.13
2.33
2.59
2.82
2.94
2.91
2.75
2.50
2.25
2.04
1.89
1.72
1.48
1.15
0.73
0.32
0.01
-0.16
-0.20
-0.16
-0.10
-0.07
-0.07
-0.11
-0.18
-0.26
-0.33
-0.42
-0.53
-0.69
-0.90
-1.10
-1.24
-1.23
-1.07
-0.78
-0.43
-0.10
0.20
0.50
0.83
1.19
1.54
1.76
1.76
1.50
1.07
0.58
0.18
-0.06
-0.10
0.04
0.31
0.64
0.95
1.17
1.24
1.20
1.12
1.07
1.12
1.23
1.34
1.35
1.22
0.98
0.70
0.45
0.23
-0.01
-0.30
-0.65
-1.04
-1.40
-1.69
-1.94
-2.22
-2.55
-2.93
-3.28
-3.50
-3.52
-3.35
-3.06
-2.73
-2.43
-2.16
-1.94
-1.74
-1.59
-1.49
-1.45
-1.47
-1.56
-1.79
-2.24
-2.96
-3.87
-4.78
-5.46
-5.68
-5.40
-4.75
-3.93
-3.18
-2.62
-2.26
-2.05
-1.94
-1.89
-1.90
-1.95
-2.01
-2.00
-1.85
-1.55
-1.07
-0.47
0.21
0.93
1.66
2.39
3.07
3.65
4.08
4.29
4.27
4.02
3.61
3.08
2.47
1.80
1.08
0.32
-0.45
-1.16
-1.75
-2.18
-2.42
-2.51
-2.49
-2.40
-2.25
-2.06
-1.77
-1.37
-0.82
-0.12
0.69
1.57
2.47
3.32
4.07
4.71
5.19
5.55
5.79
5.94
5.99
5.92
5.70
5.34
4.92
4.51
4.17
3.89
3.61
3.26
2.83
2.38
2.03
1.89
1.98
2.25
2.56
2.83
3.03
3.24
3.51
3.85
4.12
4.08
3.49
2.23
0.33
-1.92
-4.14
-5.95
-7.10
-7.56
-7.52
-7.27
-7.10
-7.18
-7.56
-8.19
-8.98
-9.83
-10.64
-11.36
-11.90
-12.25
-12.46
-12.62
-12.82
-13.06
-13.26
-13.30
-13.03
-12.38
-11.35
-9.99
-8.35
-6.47
-4.42
-2.27
-0.13
1.89
3.71
5.32
6.66
7.70
8.36
8.62
8.52
8.22
7.88
7.68
7.67
7.79
7.92
7.89
7.62
7.05
6.20
5.13
3.94
2.78
1.78
1.06
0.63
0.37
0.11
-0.30
-0.87
-1.47
-1.86
-1.83
-1.29
-0.29
1.01
2.43
3.83
5.11
6.19
6.98
7.39
7.37
6.97
6.29
5.49
4.71
3.99
3.32
2.63
1.91
1.20
0.56
0.08
-0.23
-0.37
-0.39
-0.32
-0.20
-0.06
0.02
-0.04
-0.26
-0.60
-0.93
-1.14
-1.13
-0.91
-0.55
-0.16
0.21
0.54
0.84
1.10
1.28
1.29
1.10
0.69
0.13
-0.50
-1.14
-1.76
-2.36
-2.95
-3.55
-4.13
-4.67
-5.13
-5.46
-5.66
-5.68
-5.48
-5.02
-4.25
-3.18
-1.91
-0.60
0.54
1.35
1.72
1.67
1.32
0.85
0.45
0.23
0.27
0.53
0.95
1.40
1.78
2.00
2.03
1.90
1.69
1.47
1.28
1.15
1.05
0.96
0.89
0.84
0.87
0.94
0.98
0.87
0.49
-0.16
-1.01
-1.89
-2.64
-3.15
-3.41
-3.47
-3.37
-3.12
-2.65
-1.94
-1.01
0.05
1.11
2.08
2.94
3.77
4.65
5.65
6.75
7.87
8.91
9.82
10.58
11.20
11.68
11.95
11.94
11.62
10.99
10.09
8.94
7.60
6.13
4.67
3.44
2.69
2.54
2.92
3.59
4.24
4.63
4.70
4.51
4.20
3.84
3.40
2.85
2.17
1.43
0.77
0.29
-0.00
-0.19
-0.37
-0.63
-0.95
-1.27
-1.52
-1.71
-1.89
-2.12
-2.47
-2.92
-3.45
-3.98
-4.46
-4.86
-5.14
-5.30
-5.35
-5.34
-5.31
-5.35
-5.49
-5.72
-5.98
-6.20
-6.35
-6.43
-6.51
-6.61
-6.72
-6.80
-6.81
-6.70
-6.51
-6.27
-6.00
-5.66
-5.23
-4.69
-4.06
-3.45
-2.92
-2.48
-2.10
-1.71
-1.34
-1.08
-1.04
-1.29
-1.78
-2.38
-2.95
-3.38
-3.63
-3.64
-3.34
-2.65
-1.59
-0.27
1.10
2.28
3.15
3.71
4.02
4.18
4.22
4.14
3.95
3.70
3.48
3.34
3.28
3.24
3.13
2.92
2.64
2.37
2.13
1.93
1.74
1.49
1.17
0.76
0.27
-0.31
-0.99
-1.73
-2.47
-3.12
-3.60
-3.91
-4.09
-4.26
-4.52
-4.91
-5.41
-5.96
-6.48
-6.89
-7.13
-7.07
-6.64
-5.77
-4.53
-3.10
-1.70
-0.56
0.24
0.72
1.01
1.27
1.56
1.88
2.16
2.34
2.39
2.33
2.22
2.12
2.07
2.04
1.99
1.91
1.80
1.71
1.71
1.84
2.08
2.30
2.36
2.18
1.79
1.31
0.90
0.64
0.51
0.38
0.15
-0.24
-0.74
-1.22
-1.59
-1.83
-2.00
-2.24
-2.65
-3.30
-4.13
-5.01
-5.76
-6.19
-6.16
-5.64
-4.71
-3.54
-2.29
-1.13
-0.17
0.54
0.97
1.18
1.26
1.32
1.45
1.68
1.98
2.30
2.56
2.75
2.86
2.93
2.99
3.03
3.09
3.15
3.21
3.24
3.16
2.93
2.59
2.19
1.85
1.64
1.58
1.60
1.62
1.58
1.46
1.25
0.95
0.55
0.05
-0.49
-1.00
-1.38
-1.61
-1.71
-1.78
-1.94
-2.27
-2.78
-3.46
-4.25
-5.04
-5.73
-6.14
-6.15
-5.65
-4.69
-3.42
-2.05
-0.78
0.24
0.98
1.47
1.78
1.98
2.12
2.25
2.37
2.52
2.70
2.89
3.07
3.21
3.30
3.31
3.24
3.10
2.91
2.71
2.50
2.31
2.14
1.98
1.86
1.75
1.66
1.55
1.40
1.19
0.90
0.55
0.14
-0.30
-0.76
-1.20
-1.56
-1.80
-1.89
-1.87
-1.84
-1.92
-2.18
-2.67
-3.31
-3.96
-4.52
-4.87
-4.99
-4.90
-4.59
-4.07
-3.32
-2.35
-1.26
-0.19
0.73
1.40
1.83
2.09
2.30
2.50
2.73
2.97
3.21
3.44
3.65
3.77
3.76
3.57
3.26
2.95
2.76
2.75
2.90
3.07
3.13
3.03
2.82
2.58
2.40
2.29
2.20
2.05
1.79
1.44
1.08
0.80
0.64
0.60
0.59
0.55
0.44
0.25
0.03
-0.16
-0.32
-0.48
-0.71
-1.09
-1.64
-2.27
-2.88
-3.33
-3.59
-3.69
-3.71
-3.78
-3.98
-4.36
-4.94
-5.65
-6.41
-7.07
-7.42
-7.29
-6.56
-5.26
-3.57
-1.77
-0.16
1.10
1.98
2.62
3.20
3.86
4.59
5.30
5.80
5.97
5.78
5.32
4.72
4.15
3.72
3.46
3.34
3.34
3.42
3.59
3.83
4.11
4.36
4.51
4.46
4.20
3.74
3.20
2.66
2.22
1.90
1.71
1.63
1.61
1.61
1.55
1.36
0.99
0.47
-0.10
-0.60
-0.90
-1.00
-0.97
-0.91
-0.91
-1.00
-1.16
-1.39
-1.69
-2.07
-2.52
-2.96
-3.32
-3.49
-3.47
-3.33
-3.17
-3.12
-3.20
-3.39
-3.61
-3.84
-4.07
-4.30
-4.53
-4.72
-4.78
-4.61
-4.17
-3.48
-2.62
-1.73
-0.90
-0.21
0.33
0.73
0.98
1.03
0.85
0.43
-0.14
-0.72
-1.15
-1.33
-1.29
-1.09
-0.82
-0.51
-0.14
0.36
0.98
1.66
2.25
2.65
2.81
2.79
2.70
2.66
2.68
2.75
2.77
2.65
2.37
1.94
1.44
0.95
0.56
0.28
0.11
0.00
-0.07
-0.14
-0.22
-0.36
-0.58
-0.91
-1.32
-1.72
-2.05
-2.27
-2.44
-2.64
-2.98
-3.51
-4.16
-4.83
-5.33
-5.54
-5.36
-4.78
-3.87
-2.72
-1.47
-0.25
0.86
1.83
2.63
3.25
3.64
3.75
3.57
3.19
2.78
2.50
2.44
2.55
2.69
2.75
2.67
2.52
2.39
2.37
2.46
2.56
2.61
2.57
2.48
2.42
2.41
2.42
2.41
2.34
2.21
2.03
1.80
1.52
1.14
0.69
0.29
0.07
0.09
0.33
0.63
0.79
0.67
0.28
-0.27
-0.79
-1.15
-1.32
-1.31
-1.21
-1.12
-1.09
-1.19
-1.47
-1.95
-2.62
-3.39
-4.11
-4.63
-4.89
-4.94
-4.93
-5.03
-5.34
-5.80
-6.23
-6.38
-6.11
-5.39
-4.36
-3.21
-2.08
-1.04
-0.07
0.85
1.68
2.31
2.68
2.78
2.72
2.66
2.74
2.98
3.29
3.50
3.49
3.24
2.85
2.49
2.35
2.49
2.84
3.23
3.46
3.39
3.02
2.46
1.87
1.36
0.98
0.71
0.50
0.32
0.18
0.04
-0.09
-0.25
-0.48
-0.77
-1.09
-1.42
-1.71
-1.95
-2.14
-2.28
-2.40
-2.57
-2.84
-3.28
-3.90
-4.60
-5.25
-5.67
-5.73
-5.42
-4.80
-3.99
-3.13
-2.32
-1.56
-0.83
-0.07
0.73
1.54
2.30
2.97
3.57
4.18
4.93
5.94
7.26
8.90
10.78
12.76
14.64
16.19
17.17
17.40
16.77
15.25
12.83
9.50
5.26
0.20
-5.42
-11.17
-16.49
-20.83
-23.78
-25.17
-25.10
-23.85
-21.83
-19.51
-17.32
-15.56
-14.30
-13.35
-12.35
-11.00
-9.25
-7.36
-5.75
-4.80
-4.54
-4.68
-4.68
-4.06
-2.61
-0.41
2.25
5.05
7.82
10.49
13.04
15.34
17.19
18.32
18.55
17.83
16.29
14.20
11.84
9.46
7.18
5.08
3.20
1.58
0.26
-0.75
-1.46
-1.92
-2.19
-2.28
-2.17
-1.78
-1.06
-0.01
1.32
2.80
4.32
5.75
7.03
8.14
9.08
9.83
10.35
10.55
10.37
9.80
8.92
7.85
6.73
5.61
4.46
3.22
1.80
0.20
-1.50
-3.17
-4.71
-6.04
-7.17
-8.14
-9.00
-9.76
-10.37
-10.76
-10.86
-10.61
-10.03
-9.23
-8.39
-7.67
-7.22
-7.08
-7.19
-7.41
-7.58
-7.56
-7.25
-6.63
-5.70
-4.49
-3.04
-1.44
0.22
1.82
3.23
4.32
5.03
5.35
5.31
5.01
4.52
3.91
3.23
2.52
1.86
1.34
1.05
1.07
1.40
1.96
2.65
3.31
3.83
4.14
4.18
3.89
3.26
2.26
0.95
-0.52
-1.96
-3.18
-4.01
-4.41
-4.41
-4.10
-3.58
-2.94
-2.26
-1.60
-0.97
-0.39
0.16
0.70
1.24
1.76
2.25
2.68
3.03
3.29
3.45
3.52
3.51
3.38
3.12
2.75
2.32
1.89
1.57
1.38
1.31
1.27
1.16
0.90
0.52
0.10
-0.27
-0.53
-0.69
-0.76
-0.75
-0.62
-0.38
-0.02
0.35
0.63
0.75
0.70
0.58
0.46
0.34
0.17
-0.07
-0.37
-0.63
-0.72
-0.58
-0.25
0.16
0.50
0.73
0.87
1.02
1.23
1.46
1.61
1.60
1.42
1.15
0.90
0.80
0.86
1.01
1.17
1.21
1.11
0.88
0.61
0.38
0.25
0.26
0.37
0.54
0.73
0.89
0.99
1.02
0.95
0.73
0.36
-0.09
-0.52
-0.81
-0.89
-0.75
-0.52
-0.33
-0.28
-0.38
-0.57
-0.75
-0.87
-0.94
-0.98
-1.02
-1.06
-1.06
-1.03
-0.97
-0.92
-0.89
-0.85
-0.79
-0.68
-0.58
-0.53
-0.58
-0.72
-0.89
-1.01
-1.03
-0.96
-0.83
-0.69
-0.57
-0.45
-0.28
-0.08
0.15
0.36
0.55
0.72
0.90
1.11
1.34
1.58
1.81
2.02
2.21
2.38
2.50
2.52
2.42
2.19
1.86
1.47
1.04
0.59
0.11
-0.37
-0.78
-1.08
-1.25
-1.29
-1.28
-1.25
-1.24
-1.21
-1.11
-0.92
-0.67
-0.41
-0.18
0.01
0.17
0.34
0.51
0.65
0.66
0.51
0.21
-0.14
-0.41
-0.51
-0.41
-0.16
0.13
0.38
0.56
0.64
0.64
0.56
0.39
0.14
-0.14
-0.36
-0.43
-0.35
-0.14
0.06
0.18
0.16
0.04
-0.13
-0.28
-0.39
-0.46
-0.50
-0.51
-0.49
-0.45
-0.40
-0.36
-0.31
-0.24
-0.11
0.07
0.27
0.42
0.45
0.36
0.18
0.02
-0.04
0.01
0.09
0.08
-0.11
-0.49
-0.94
-1.28
-1.38
-1.20
-0.87
-0.54
-0.37
-0.38
-0.49
-0.55
-0.50
-0.33
-0.17
-0.13
-0.27
-0.50
-0.71
-0.75
-0.61
-0.38
-0.22
-0.22
-0.39
-0.59
-0.65
-0.47
-0.07
0.41
0.77
0.87
0.70
0.37
0.01
-0.26
-0.43
-0.52
-0.60
-0.66
-0.66
-0.53
-0.25
0.15
0.57
0.85
0.88
0.68
0.34
0.01
-0.16
-0.14
0.02
0.21
0.32
0.34
0.30
0.27
0.31
0.43
0.60
0.76
0.89
1.00
1.10
1.15
1.10
0.87
0.44
-0.16
-0.78
-1.26
-1.45
-1.28
-0.81
-0.17
0.43
0.85
1.01
0.91
0.64
0.28
-0.06
-0.34
-0.54
-0.67
-0.74
-0.78
-0.81
-0.85
-0.92
-1.03
-1.14
-1.25
-1.34
-1.38
-1.36
-1.30
-1.19
-1.04
-0.90
-0.81
-0.80
-0.87
-0.95
-0.98
-0.87
-0.61
-0.27
0.06
0.26
0.29
0.21
0.11
0.12
0.28
0.51
0.72
0.75
0.58
0.22
-0.19
-0.50
-0.62
-0.53
-0.32
-0.11
-0.00
-0.02
-0.14
-0.27
-0.35
-0.33
-0.20
0.01
0.26
0.50
0.67
0.72
0.66
0.52
0.37
0.28
0.26
0.30
0.37
0.43
0.45
0.43
0.34
0.17
-0.09
-0.41
-0.68
-0.77
-0.58
-0.06
0.67
1.42
1.93
2.07
1.82
1.31
0.75
0.33
0.12
0.12
0.25
0.41
0.55
0.61
0.59
0.46
0.27
0.07
-0.05
-0.05
0.05
0.17
0.24
0.23
0.18
0.11
0.04
-0.05
-0.20
-0.39
-0.54
-0.57
-0.41
-0.11
0.19
0.37
0.35
0.19
0.01
-0.06
0.04
0.28
0.56
0.78
0.87
0.85
0.77
0.71
0.73
0.84
0.97
1.05
1.05
0.97
0.87
0.82
0.87
1.00
1.16
1.30
1.38
1.42
1.41
1.36
1.25
1.06
0.81
0.54
0.33
0.21
0.17
0.16
0.09
-0.06
-0.30
-0.59
-0.89
-1.18
-1.42
-1.57
-1.62
-1.55
-1.44
-1.38
-1.47
-1.70
-2.01
-2.22
-2.24
-2.05
-1.74
-1.47
-1.34
-1.38
-1.50
-1.56
-1.49
-1.28
-1.03
-0.81
-0.68
-0.63
-0.61
-0.58
-0.51
-0.45
-0.43
-0.48
-0.57
-0.63
-0.59
-0.42
-0.17
0.08
0.23
0.26
0.17
0.02
-0.18
-0.39
-0.60
-0.78
-0.90
-0.89
-0.72
-0.42
-0.05
0.30
0.57
0.69
0.62
0.38
-0.01
-0.47
-0.88
-1.14
-1.16
-0.98
-0.69
-0.42
-0.25
-0.18
-0.15
-0.05
0.14
0.37
0.57
0.68
0.70
0.69
0.70
0.74
0.78
0.73
0.55
0.26
-0.04
-0.23
-0.21
0.01
0.34
0.64
0.73
0.56
0.17
-0.29
-0.64
-0.78
-0.68
-0.43
-0.15
0.06
0.19
0.24
0.25
0.20
0.05
-0.20
-0.52
-0.84
-1.08
-1.20
-1.18
-1.07
-0.89
-0.66
-0.42
-0.19
-0.06
-0.04
-0.10
-0.17
-0.14
0.02
0.25
0.43
0.45
0.28
0.02
-0.20
-0.29
-0.22
-0.07
0.08
0.19
0.30
0.44
0.61
0.74
0.73
0.51
0.14
-0.25
-0.52
-0.57
-0.41
-0.12
0.22
0.55
0.83
1.03
1.06
0.85
0.41
-0.16
-0.67
-0.92
-0.83
-0.47
0.01
0.41
0.63
0.64
0.50
0.27
0.01
-0.25
-0.43
-0.48
-0.38
-0.15
0.15
0.42
0.61
0.71
0.75
0.74
0.66
0.45
0.11
-0.35
-0.81
-1.13
-1.22
-1.05
-0.67
-0.20
0.26
0.61
0.79
0.79
0.66
0.48
0.31
0.21
0.15
0.10
0.02
-0.08
-0.13
-0.06
0.13
0.37
0.55
0.56
0.42
0.22
0.08
0.07
0.15
0.19
0.06
-0.27
-0.74
-1.21
-1.52
-1.60
-1.44
-1.09
-0.65
-0.24
0.06
0.20
0.18
0.03
-0.19
-0.43
-0.64
-0.79
-0.82
-0.65
-0.26
0.32
0.95
1.44
1.63
1.46
1.03
0.54
0.18
0.03
0.01
-0.03
-0.22
-0.54
-0.88
-1.03
-0.90
-0.52
-0.04
0.33
0.49
0.42
0.26
0.14
0.16
0.30
0.49
0.63
0.69
0.68
0.68
0.74
0.85
0.97
0.98
0.82
0.49
0.05
-0.38
-0.69
-0.83
-0.82
-0.71
-0.59
-0.50
-0.43
-0.36
-0.23
-0.05
0.14
0.25
0.22
0.03
-0.25
-0.53
-0.71
-0.78
-0.76
-0.71
-0.62
-0.47
-0.23
0.09
0.39
0.57
0.54
0.34
0.08
-0.04
0.10
0.51
1.08
1.61
1.90
1.87
1.57
1.14
0.74
0.49
0.42
0.47
0.54
0.59
0.61
0.60
0.57
0.50
0.33
0.03
-0.37
-0.74
-0.96
-0.95
-0.72
-0.39
-0.13
-0.06
-0.24
-0.59
-0.99
-1.31
-1.47
-1.46
-1.35
-1.20
-1.10
-1.08
-1.17
-1.36
-1.61
-1.86
-2.03
-2.07
-1.98
-1.76
-1.47
-1.14
-0.79
-0.44
-0.09
0.23
0.54
0.84
1.18
1.61
2.09
2.57
2.96
3.16
3.17
3.04
2.86
2.72
2.66
2.65
2.64
2.59
2.50
2.36
2.18
1.97
1.72
1.48
1.26
1.06
0.87
0.66
0.40
0.11
-0.17
-0.42
-0.63
-0.84
-1.10
-1.40
-1.69
-1.90
-2.01
-2.06
-2.10
-2.20
-2.37
-2.54
-2.63
-2.59
-2.46
-2.27
-2.07
-1.87
-1.65
-1.39
-1.13
-0.90
-0.71
-0.55
-0.35
-0.08
0.24
0.51
0.64
0.57
0.30
-0.06
-0.41
-0.65
-0.76
-0.77
-0.77
-0.84
-1.01
-1.25
-1.49
-1.61
-1.55
-1.32
-1.01
-0.75
-0.62
-0.61
-0.60
-0.45
-0.12
0.35
0.82
1.15
1.25
1.16
0.97
0.77
0.60
0.47
0.40
0.40
0.51
0.73
1.03
1.30
1.45
1.45
1.31
1.10
0.88
0.67
0.48
0.29
0.14
0.08
0.14
0.34
0.64
0.95
1.16
1.21
1.08
0.81
0.47
0.15
-0.07
-0.18
-0.20
-0.21
-0.26
-0.34
-0.43
-0.44
-0.34
-0.14
0.09
0.26
0.35
0.33
0.28
0.22
0.18
0.12
0.01
-0.13
-0.26
-0.33
-0.30
-0.18
-0.05
0.02
-0.00
-0.08
-0.16
-0.18
-0.14
-0.09
-0.04
0.01
0.09
0.24
0.45
0.68
0.85
0.92
0.85
0.68
0.44
0.20
-0.04
-0.25
-0.39
-0.45
-0.41
-0.27
-0.07
0.19
0.47
0.74
0.96
1.10
1.09
0.91
0.55
0.10
-0.37
-0.75
-0.98
-1.07
-1.11
-1.15
-1.23
-1.31
-1.27
-1.04
-0.62
-0.11
0.30
0.42
0.20
-0.28
-0.83
-1.25
-1.39
-1.27
-1.01
-0.74
-0.54
-0.42
-0.32
-0.19
-0.07
-0.03
-0.14
-0.39
-0.69
-0.88
-0.89
-0.75
-0.58
-0.54
-0.66
-0.85
-0.94
-0.79
-0.41
0.05
0.37
0.45
0.28
0.02
-0.18
-0.24
-0.20
-0.14
-0.16
-0.25
-0.35
-0.39
-0.30
-0.12
0.08
0.20
0.19
-0.00
-0.34
-0.76
-1.14
-1.38
-1.44
-1.32
-1.11
-0.87
-0.68
-0.52
-0.35
-0.15
0.05
0.19
0.22
0.15
0.05
0.02
0.11
0.28
0.43
0.43
0.25
-0.09
-0.42
-0.64
-0.65
-0.45
-0.11
0.29
0.70
1.06
1.32
1.46
1.42
1.24
0.96
0.70
0.54
0.57
0.77
1.09
1.45
1.76
1.95
1.97
1.81
1.51
1.12
0.74
0.43
0.23
0.13
0.10
0.09
0.08
0.07
0.06
0.03
-0.01
-0.07
-0.15
-0.18
-0.11
0.06
0.31
0.54
0.65
0.59
0.35
0.03
-0.29
-0.50
-0.55
-0.45
-0.23
0.03
0.27
0.42
0.48
0.44
0.34
0.19
0.02
-0.15
-0.31
-0.42
-0.46
-0.41
-0.27
-0.04
0.25
0.59
0.92
1.20
1.37
1.39
1.27
1.07
0.84
0.65
0.50
0.33
0.08
-0.25
-0.63
-0.95
-1.10
-1.03
-0.78
-0.43
-0.10
0.15
0.32
0.43
0.51
0.56
0.56
0.47
0.32
0.13
-0.05
-0.16
-0.20
-0.20
-0.20
-0.23
-0.31
-0.42
-0.51
-0.57
-0.59
-0.56
-0.49
-0.40
-0.30
-0.20
-0.12
-0.08
-0.08
-0.10
-0.09
-0.03
0.07
0.16
0.20
0.10
-0.13
-0.46
-0.79
-1.07
-1.27
-1.38
-1.43
-1.40
-1.30
-1.14
-0.97
-0.86
-0.86
-0.96
-1.10
-1.24
-1.30
-1.27
-1.18
-1.05
-0.88
-0.66
-0.41
-0.18
-0.04
-0.05
-0.17
-0.29
-0.25
0.04
0.57
1.21
1.75
2.01
1.92
1.55
1.06
0.65
0.45
0.46
0.61
0.78
0.91
0.98
1.06
1.19
1.36
1.52
1.62
1.61
1.48
1.27
1.03
0.80
0.56
0.32
0.06
-0.18
-0.40
-0.55
-0.62
-0.61
-0.53
-0.43
-0.35
-0.33
-0.35
-0.34
-0.25
-0.06
0.16
0.31
0.31
0.14
-0.14
-0.41
-0.59
-0.64
-0.62
-0.58
-0.57
-0.55
-0.48
-0.34
-0.13
0.08
0.24
0.29
0.22
0.05
-0.19
-0.46
-0.70
-0.88
-0.93
-0.83
-0.61
-0.32
-0.04
0.17
0.28
0.34
0.38
0.43
0.48
0.48
0.39
0.26
0.12
0.05
0.06
0.10
0.09
-0.05
-0.27
-0.51
-0.64
-0.58
-0.34
0.01
0.34
0.56
0.62
0.54
0.39
0.25
0.21
0.28
0.45
0.60
0.64
0.47
0.12
-0.32
-0.68
-0.81
-0.66
-0.29
0.14
0.44
0.48
0.26
-0.10
-0.44
-0.60
-0.55
-0.35
-0.11
0.10
0.29
0.48
0.67
0.79
0.74
0.44
-0.05
-0.56
-0.90
-0.95
-0.73
-0.40
-0.14
-0.06
-0.14
-0.27
-0.35
-0.34
-0.29
-0.27
-0.34
-0.49
-0.68
-0.82
-0.88
-0.86
-0.80
-0.74
-0.70
-0.67
-0.60
-0.45
-0.21
0.10
0.39
0.57
0.53
0.29
-0.10
-0.52
-0.87
-1.12
-1.28
-1.36
-1.35
-1.17
-0.81
-0.28
0.28
0.72
0.91
0.87
0.69
0.55
0.53
0.62
0.69
0.62
0.37
0.05
-0.19
-0.23
-0.04
0.28
0.59
0.77
0.81
0.75
0.67
0.59
0.51
0.41
0.27
0.15
0.08
0.04
-0.01
-0.13
-0.34
-0.60
-0.81
-0.88
-0.77
-0.53
-0.25
-0.04
0.05
0.06
0.05
0.10
0.20
0.31
0.35
0.27
0.10
-0.06
-0.10
0.04
0.30
0.54
0.64
0.54
0.34
0.18
0.21
0.42
0.73
1.01
1.15
1.17
1.15
1.18
1.27
1.40
