1484667583.00
64.000000
-0.00
-0.00
-0.00
-0.00
-0.00
-0.00
-0.00
-0.00
-0.00
-0.00
0.00
0.01
0.01
-0.00
-0.03
-0.05
-0.05
0.00
0.13
0.36
0.66
1.01
1.37
1.72
2.06
2.40
2.79
3.24
3.80
4.42
5.06
5.66
6.20
6.68
7.15
7.68
8.31
9.14
10.09
11.04
11.88
12.56
13.14
13.76
14.65
15.96
17.91
20.32
22.90
25.38
27.58
29.57
31.68
34.32
37.81
42.54
48.15
54.10
59.83
64.97
69.58
74.14
79.34
85.71
93.76
103.00
112.62
121.73
129.77
136.75
143.30
150.75
157.77
166.64
177.95
191.79
206.97
220.57
228.25
225.36
208.53
176.87
132.76
80.05
23.07
-34.94
-92.44
-149.16
-205.23
-260.37
-313.74
-363.87
-409.83
-450.91
-486.50
-515.74
-537.23
-549.22
-549.96
-538.37
-514.20
-478.67
-433.86
-382.42
-326.98
-269.78
-212.54
-156.53
-102.79
-52.16
-5.65
35.89
71.79
101.78
125.99
144.93
159.31
169.84
177.13
181.58
183.48
183.06
180.59
176.41
170.94
164.58
157.68
150.48
143.14
135.71
128.24
120.78
113.39
106.14
99.10
92.32
85.84
79.68
73.85
68.35
63.19
58.40
53.97
49.91
46.21
42.88
39.90
37.28
35.00
33.05
31.44
30.16
29.20
28.55
28.22
28.19
28.45
28.98
29.74
30.68
31.73
32.78
33.69
34.32
34.49
34.05
32.86
30.82
27.90
24.12
19.56
14.35
8.72
2.90
-2.83
-8.23
-13.07
-17.18
-20.42
-22.74
-24.13
-24.66
-24.43
-23.55
-22.15
-20.38
-18.33
-16.12
-13.78
-11.38
-8.95
-6.53
-4.12
-1.73
0.66
3.05
5.48
7.99
10.61
13.32
16.12
19.00
21.98
25.08
28.32
31.72
35.36
39.27
43.36
47.57
51.88
56.27
60.75
65.35
70.13
75.15
80.54
86.13
91.85
97.65
103.49
109.37
115.28
121.24
127.27
133.44
139.45
145.04
150.01
154.12
157.04
158.39
157.62
153.93
148.78
142.71
136.02
128.92
121.55
114.05
106.52
99.11
91.93
85.19
78.72
72.45
66.36
60.48
54.84
49.48
44.50
40.00
36.08
32.56
29.34
26.34
23.49
20.76
18.18
15.76
13.57
11.65
9.88
8.18
6.45
4.69
2.88
1.06
-0.71
-2.36
-3.88
-5.34
-6.83
-8.44
-10.21
-12.10
-14.00
-15.79
-17.36
-18.68
-19.88
-21.19
-22.82
-24.92
-27.47
-30.31
-33.16
-35.84
-38.34
-40.88
-43.87
-47.74
-52.73
-58.79
-65.55
-72.48
-79.15
-85.48
-91.79
-98.71
-106.93
-116.85
-128.37
-140.99
-154.01
-166.82
-179.19
-191.37
-203.91
-217.58
-233.31
-252.02
-274.26
-299.62
-326.21
-350.53
-368.28
-375.64
-370.71
-354.30
-329.50
-300.54
-271.15
-243.64
-218.71
-196.13
-175.53
-156.86
-140.29
-125.75
-112.74
-100.32
-87.57
-74.13
-60.34
-47.15
-35.61
-26.37
-19.31
-13.60
-8.18
-2.23
4.39
11.17
17.24
21.86
24.83
26.47
27.51
28.62
30.16
32.08
34.04
35.64
36.64
37.06
37.13
37.09
37.13
37.28
37.40
37.34
36.96
36.25
35.29
34.22
33.15
32.12
31.11
30.09
29.06
28.08
27.23
26.57
26.07
25.64
25.15
24.52
23.80
23.12
22.66
22.55
22.71
22.95
22.96
22.53
21.61
20.40
19.21
18.35
17.98
17.99
18.17
18.29
18.29
18.26
18.39
18.81
19.46
20.11
20.47
20.37
19.83
19.08
18.45
18.21
18.44
19.06
19.89
20.74
21.53
22.25
22.95
23.60
24.10
24.32
24.23
23.93
23.64
23.53
23.61
23.67
23.33
22.24
20.34
17.92
15.60
14.10
13.96
15.26
17.70
20.62
23.28
25.07
25.60
24.85
23.07
20.77
18.57
17.05
16.60
17.27
18.67
20.16
20.91
20.29
17.96
13.99
8.83
3.11
-2.50
-7.51
-11.69
-15.15
-18.18
-21.17
-24.35
-27.76
-31.21
-34.46
-37.28
-39.65
-41.73
-43.86
-46.34
-49.34
-52.73
-56.15
-59.13
-61.31
-62.59
-63.16
-63.43
-63.81
-64.51
-65.44
-66.30
-66.76
-66.60
-65.83
-64.64
-63.31
-62.13
-61.35
-61.10
-61.43
-62.23
-63.28
-64.22
-64.66
-64.35
-63.31
-61.79
-60.24
-59.04
-58.24
-57.36
-55.55
-51.86
-45.69
-37.12
-26.95
-16.37
-6.45
2.30
10.04
17.37
24.90
32.92
41.23
49.44
57.15
64.18
70.62
76.62
82.30
87.67
92.66
97.19
101.30
105.22
109.27
113.74
118.62
123.50
127.64
130.25
131.00
130.30
129.20
128.96
130.50
134.01
138.94
144.33
149.19
152.55
153.38
150.45
142.47
128.70
109.52
86.70
63.11
41.73
24.75
12.87
5.39
0.80
-2.43
-5.33
-8.26
-11.15
-13.86
-16.36
-18.80
-21.29
-23.76
-25.88
-27.21
-27.39
-26.36
-24.42
-22.16
-20.16
-18.78
-18.00
-17.47
-16.80
-15.73
-14.39
-13.14
-12.43
-12.53
-13.44
-14.92
-16.65
-18.42
-20.12
-21.77
-23.36
-24.78
-25.77
-26.03
-25.35
-23.73
-21.44
-18.90
-16.50
-14.47
-12.83
-11.44
-10.21
-9.13
-8.32
-7.89
-7.81
-7.86
-7.64
-6.77
-5.04
-2.45
0.76
4.32
7.98
11.53
14.68
17.04
18.13
17.40
14.60
9.83
3.70
-2.88
-8.87
-13.49
-16.28
-17.12
-16.17
-13.72
-10.21
-6.22
-2.44
0.40
1.77
1.48
-0.21
-2.71
-5.32
-7.47
-8.84
-9.47
-9.56
-9.35
-9.06
-8.79
-8.56
-8.33
-8.13
-8.04
-8.19
-8.73
-9.66
-10.83
-11.92
-12.50
-12.24
-11.11
-9.35
-7.44
-5.85
-4.91
-4.64
-4.83
-5.23
-5.65
-5.99
-6.22
-6.25
-5.96
-5.16
-3.92
-2.46
-1.24
-0.76
-1.29
-2.74
-4.65
-6.44
-7.54
-7.75
-7.25
-6.42
-5.72
-5.38
-5.37
-5.46
-5.40
-5.10
-4.69
-4.42
-4.52
-5.06
-5.96
-7.03
-8.08
-9.00
-9.69
-10.06
-10.01
-9.45
-8.45
-7.14
-5.69
-4.25
-2.87
-1.45
0.09
1.74
3.43
5.00
6.31
7.32
8.06
8.65
9.17
9.72
10.28
10.82
11.23
11.40
11.23
10.68
9.83
8.87
8.03
7.48
7.42
7.87
8.73
9.77
10.70
11.31
11.51
11.50
11.61
12.23
13.53
15.33
17.14
18.25
18.07
16.28
13.04
8.87
4.57
0.96
-1.26
-1.64
-0.06
3.32
8.02
13.42
18.86
23.82
28.03
31.51
34.45
36.98
39.09
40.69
41.71
42.28
42.84
43.95
46.24
50.24
56.40
65.07
76.29
89.47
103.19
115.35
123.81
127.05
124.69
117.31
105.92
91.25
73.47
52.33
27.59
-0.57
-31.42
-63.68
-95.61
-125.18
-150.29
-169.23
-181.29
-187.09
-188.49
-187.79
-186.65
-185.39
-182.82
-176.96
-166.07
-149.71
-129.11
-106.93
-86.33
-70.12
-59.88
-55.67
-56.31
-59.89
-64.44
-68.41
-70.77
-71.08
-69.39
-66.43
-63.67
-63.33
-68.00
-79.85
-99.83
-127.17
-159.49
-193.58
-226.21
-254.73
-277.22
-292.19
-298.37
-294.86
-281.69
-260.31
-233.59
-205.11
-177.99
-153.76
-131.98
-110.85
-88.33
-63.29
-36.03
-8.01
19.30
45.19
70.29
96.31
125.16
158.32
196.58
240.35
289.83
344.32
401.21
455.19
499.15
526.55
534.42
525.00
504.73
481.10
458.97
438.72
417.16
390.56
357.49
319.82
281.23
244.48
209.67
174.47
136.28
94.65
52.30
14.10
-15.07
-32.70
-39.57
-39.13
-35.71
-32.71
-31.58
-31.98
-32.58
-32.20
-30.34
-27.28
-23.70
-20.30
-17.62
-15.84
-14.93
-14.56
-14.27
-13.74
-12.95
-12.22
-12.02
-12.57
-13.53
-14.07
-13.12
-9.97
-4.58
2.42
9.99
17.10
22.94
26.85
28.17
26.14
20.18
10.33
-2.48
-16.46
-29.41
-39.45
-45.54
-47.63
-46.51
-43.32
-39.24
-35.26
-32.21
-30.73
-31.18
-33.57
-37.43
-41.92
-46.16
-49.49
-51.77
-53.32
-54.67
-56.31
-58.39
-60.72
-62.97
-64.85
-66.34
-67.69
-69.31
-71.65
-75.02
-79.50
-84.83
-90.43
-95.40
-98.87
-100.10
-98.88
-95.59
-91.10
-86.40
-82.32
-79.14
-76.67
-74.37
-71.65
-68.16
-63.76
-58.56
-52.68
-46.22
-39.23
-31.79
-24.16
-16.80
-10.17
-4.65
-0.30
3.13
6.02
8.74
11.33
13.57
15.07
15.48
14.77
13.24
11.38
9.69
8.45
7.57
6.76
5.68
4.14
2.27
0.45
-0.87
-1.35
-0.91
0.24
1.74
3.29
4.77
6.26
7.91
9.81
11.87
13.86
15.48
16.53
17.02
17.06
16.78
16.21
15.24
13.72
11.61
9.05
6.36
3.84
1.70
-0.14
-1.86
-3.65
-5.57
-7.51
-9.26
-10.62
-11.50
-11.94
-12.00
-11.71
-11.11
-10.27
-9.30
-8.44
-7.88
-7.74
-7.95
-8.35
-8.76
-9.00
-9.00
-8.79
-8.50
-8.29
-8.31
-8.62
-9.19
-9.82
-10.31
-10.44
-10.10
-9.38
-8.44
-7.49
-6.70
-6.17
-5.94
-6.00
-6.29
-6.75
-7.25
-7.69
-7.96
-8.01
-7.87
-7.61
-7.31
-7.06
-6.88
-6.82
-6.87
-7.06
-7.36
-7.78
-8.32
-9.04
-10.04
-11.41
-13.12
-14.89
-16.25
-16.58
-15.41
-12.62
-8.52
-3.75
0.93
4.90
7.88
9.93
11.23
11.99
12.29
12.09
11.39
10.25
8.95
7.81
7.12
6.96
7.21
7.59
7.75
7.44
6.58
5.29
3.89
2.69
1.94
1.73
2.02
2.66
3.49
4.40
5.24
5.85
6.03
5.60
4.51
2.90
1.04
-0.71
-2.10
-3.10
-3.84
-4.52
-5.31
-6.26
-7.36
-8.52
-9.75
-11.08
-12.58
-14.27
-16.09
-17.82
-19.25
-20.24
-20.80
-21.12
-21.49
-22.14
-23.17
-24.46
-25.80
-26.97
-27.94
-28.88
-30.09
-31.83
-34.18
-36.95
-39.70
-41.89
-42.98
-42.55
-40.22
-35.72
-28.95
-20.03
-9.54
1.57
12.15
21.10
27.69
31.59
32.88
31.87
29.04
24.93
20.23
15.74
12.19
10.14
9.72
10.63
12.25
13.92
15.11
15.63
15.62
15.48
15.65
16.43
17.79
19.34
20.52
20.82
20.08
18.52
16.65
15.02
14.01
13.75
14.08
14.75
15.51
16.22
16.82
17.37
17.97
18.71
19.65
20.80
22.10
23.46
24.73
25.79
26.52
26.84
26.75
26.30
25.64
25.00
24.58
24.46
24.50
24.31
23.37
21.25
17.86
13.54
9.00
5.07
2.41
1.22
1.18
1.65
1.81
1.05
-0.97
-4.14
-8.07
-12.10
-15.57
-17.88
-18.74
-18.13
-16.32
-13.75
-10.85
-8.02
-5.56
-3.72
-2.65
-2.36
-2.64
-3.00
-2.88
-1.76
0.47
3.54
6.76
9.39
10.87
11.07
10.33
9.29
8.66
8.86
9.84
11.09
11.74
10.94
8.28
4.04
-0.79
-4.85
-7.07
-7.09
-5.58
-3.90
-3.48
-5.11
-8.60
-12.64
-15.26
-14.49
-8.99
1.43
15.48
30.46
42.62
48.03
43.86
29.53
7.37
-17.71
-39.60
-53.00
-55.12
-46.54
-30.73
-12.56
3.41
14.24
18.97
18.23
13.46
6.34
-1.49
-8.46
-13.04
-14.08
-11.17
-4.95
2.94
10.31
15.23
16.60
14.52
10.04
4.70
-0.05
-3.35
-5.02
-5.59
-5.97
-7.12
-9.70
-13.79
-18.87
-24.01
-28.27
-31.17
-32.82
-33.89
-35.19
-37.34
-40.51
-44.42
-48.51
-52.07
-54.47
-55.20
-53.90
-50.34
-44.40
-36.08
-25.52
-13.09
0.42
13.80
25.49
33.89
37.81
36.83
31.39
22.62
11.86
0.36
-11.03
-21.84
-31.83
-40.83
-48.66
-55.20
-60.43
-64.66
-68.56
-73.09
-79.27
-87.94
-99.35
-113.16
-128.48
-144.14
-158.95
-171.70
-181.31
-186.80
-187.55
-183.60
-175.90
-166.01
-155.55
-145.41
-135.37
-124.23
-110.59
-93.75
-74.23
-53.57
-33.60
-15.61
0.05
13.97
27.13
40.48
54.86
71.12
90.10
112.19
136.66
161.28
182.78
198.06
205.56
205.96
201.75
195.90
190.52
186.30
182.89
179.68
176.30
172.57
167.98
161.52
152.09
139.23
123.71
107.41
92.46
80.22
70.91
63.87
58.13
53.07
48.46
44.29
40.39
36.42
32.00
26.95
21.28
15.11
8.46
1.30
-6.31
-13.97
-20.76
-25.41
-26.68
-23.78
-16.75
-6.61
4.67
14.56
20.41
20.29
13.49
0.92
-15.11
-31.54
-45.61
-55.61
-61.13
-62.72
-61.22
-57.20
-50.88
-42.45
-32.46
-21.96
-12.29
-4.61
0.49
3.07
3.52
2.20
-0.75
-5.35
-11.50
-18.73
-26.26
-33.22
-38.97
-43.19
-45.74
-46.49
-45.07
-40.94
-33.64
-23.18
-10.22
3.93
17.67
29.57
38.84
45.56
50.56
55.06
60.07
65.99
72.50
78.77
83.84
87.09
88.34
87.82
86.04
83.70
81.67
80.97
82.50
86.51
92.24
97.79
100.59
98.25
89.40
74.25
54.45
32.55
11.17
-7.54
-22.28
-32.45
-37.95
-38.90
-35.62
-28.90
-20.26
-12.07
-7.07
-7.32
-13.09
-22.24
-30.88
-34.88
-31.84
-22.27
-9.34
2.73
10.63
13.25
11.72
8.22
4.65
1.92
0.04
-1.22
-1.88
-1.75
-0.78
0.62
1.55
1.14
-1.04
-4.64
-8.79
-12.47
-14.94
-15.88
-15.33
-13.59
-11.17
-8.77
-7.08
-6.61
-7.43
-9.09
-10.74
-11.56
-11.05
-9.22
-6.60
-3.93
-1.86
-0.83
-1.01
-2.29
-4.22
-5.97
-6.31
-3.95
1.98
11.44
23.25
35.37
45.50
51.76
53.25
50.07
43.18
34.01
24.18
15.28
8.70
5.41
5.80
9.59
15.87
23.42
30.97
37.54
42.55
45.96
48.25
50.34
53.42
58.57
66.33
76.54
88.27
100.22
111.27
120.87
129.36
137.79
147.41
158.88
171.45
182.86
189.73
188.84
178.50
159.37
134.58
108.59
85.66
68.33
56.77
49.22
42.99
35.73
26.16
14.21
0.44
-14.49
-30.35
-47.58
-67.06
-90.01
-117.82
-152.07
-194.05
-243.75
-298.55
-352.65
-397.70
-425.11
-428.93
-408.05
-366.71
-312.78
-255.04
-200.49
-153.04
-113.55
-80.96
-53.54
-29.69
-8.34
11.02
28.36
43.26
55.20
63.88
69.48
72.48
73.57
73.33
72.16
70.48
68.67
66.88
64.54
59.84
49.52
29.43
-3.86
-51.01
-108.17
-166.89
-215.93
-244.71
-246.59
-220.63
-170.99
-104.61
-28.78
49.89
125.04
189.62
235.80
256.54
248.27
213.05
158.91
97.56
40.66
-3.62
-32.16
-46.39
-50.21
-47.66
-41.48
-33.08
-23.22
-13.04
-4.27
1.12
1.76
-2.32
-9.61
-17.70
-24.24
-27.76
-27.93
-25.35
-20.97
-15.69
-10.14
-4.67
0.44
4.88
8.25
10.17
10.41
8.99
6.30
3.05
0.08
-1.93
-2.71
-2.53
-2.18
-2.66
-4.90
-9.49
-16.47
-25.49
-35.91
-46.96
-57.97
-68.52
-78.50
-88.21
-98.09
-108.35
-118.63
-127.86
-134.64
-137.90
-137.51
-134.46
-130.31
-126.26
-122.30
-117.09
-108.46
-94.54
-74.51
-48.76
-18.29
15.67
51.84
88.32
122.26
150.21
169.22
178.34
179.43
176.50
173.95
174.61
178.62
184.05
188.73
191.97
195.18
200.84
210.40
222.85
234.46
240.26
236.01
219.92
193.06
158.48
119.76
79.76
40.45
3.30
-30.09
-57.95
-78.89
-92.87
-101.58
-108.06
-115.45
-125.49
-137.88
-150.48
-160.63
-166.57
-168.33
-167.66
-167.04
-168.24
-171.31
-174.28
-173.58
-165.05
-145.52
-114.24
-73.88
-30.30
8.98
37.49
52.45
56.15
55.14
57.58
69.75
93.67
126.41
161.49
191.31
209.48
212.38
199.38
172.53
135.89
94.60
54.14
19.43
-6.00
-20.42
-24.04
-18.80
-7.92
4.70
15.08
19.92
17.39
7.60
-7.33
-23.69
-37.12
-43.71
-40.99
-28.72
-8.84
15.02
38.60
58.08
70.92
76.20
74.42
67.14
56.48
44.93
34.98
28.62
26.69
28.16
30.16
28.77
20.38
3.22
-21.77
-50.95
-78.96
-100.18
-110.34
-107.68
-93.46
-71.51
-47.00
-24.86
-8.32
1.69
6.25
7.36
6.85
5.77
4.50
3.25
2.49
2.89
4.96
8.71
13.37
17.80
20.80
21.63
20.13
16.73
12.13
7.05
2.07
-2.46
-6.33
-9.35
-11.21
-11.61
-10.31
-7.33
-3.06
1.85
6.66
10.73
13.68
15.33
15.66
14.69
12.48
9.14
4.90
0.09
-4.82
-9.40
-13.35
-16.62
-19.44
-22.25
-25.54
-29.60
-34.37
-39.27
-43.47
-46.14
-46.84
-45.73
-43.45
-40.90
-38.76
-37.31
-36.39
-35.65
-34.79
-33.73
-32.61
-31.59
-30.73
-29.90
-28.85
-27.41
-25.55
-23.50
-21.58
-20.09
-19.25
-19.07
-19.49
-20.34
-21.43
-22.55
-23.48
-24.12
-24.55
-25.08
-26.24
-28.42
-31.72
-35.83
-40.11
-43.97
-47.17
-49.91
-52.65
-55.73
-59.05
-62.03
-63.97
-64.66
-64.56
-64.68
-65.91
-68.32
-70.72
-70.96
-66.66
-56.12
-38.94
-16.05
10.52
38.48
66.00
92.09
116.57
139.49
160.26
177.34
188.52
192.09
187.90
177.63
163.75
147.76
129.19
106.11
77.25
44.01
10.81
-16.80
-35.43
-46.11
-53.92
-64.76
-81.51
-101.93
-119.87
-128.75
-125.27
-111.00
-90.97
-70.74
-53.66
-39.98
-27.86
-15.43
-2.36
9.62
17.59
19.08
13.34
1.94
-11.83
-24.46
-33.77
-39.83
-44.84
-51.80
-62.63
-76.93
-91.84
-103.40
-108.42
-106.16
-98.52
-88.95
-80.68
-75.25
-72.10
-69.51
-65.94
-61.23
-56.74
-54.38
-55.16
-58.24
-60.98
-60.17
-53.42
-40.31
-22.48
-2.92
15.05
28.65
36.01
36.30
29.61
16.91
-0.00
-18.62
-36.04
-49.48
-56.77
-56.69
-49.13
-35.12
-16.81
2.83
20.41
32.90
38.43
37.00
30.69
23.09
18.30
19.47
27.83
42.31
60.09
77.71
92.17
101.83
106.40
106.71
104.04
99.62
94.51
89.42
84.76
80.68
77.10
73.79
70.48
67.04
63.39
59.56
55.57
51.48
47.47
43.85
40.96
38.98
37.76
36.78
35.42
33.23
30.20
26.77
23.56
21.06
19.41
18.42
17.74
17.12
16.44
15.73
15.07
14.46
13.85
13.13
12.15
10.81
9.03
6.78
4.23
1.71
-0.34
-1.55
-1.82
-1.35
-0.62
0.00
0.38
0.69
1.18
1.95
2.77
3.26
3.07
2.23
1.10
0.25
0.05
0.53
1.37
2.09
2.42
2.42
2.45
3.02
4.52
7.06
10.36
13.96
17.31
19.98
21.84
23.01
23.81
24.56
25.51
26.77
28.30
30.04
31.99
34.24
36.92
40.16
43.93
48.09
52.39
56.55
60.40
63.95
67.34
70.74
74.24
77.70
80.89
83.54
85.59
87.30
89.27
92.28
96.99
103.73
112.21
121.55
130.55
137.99
142.93
144.88
143.83
140.18
134.68
128.22
121.72
115.83
110.53
104.94
97.39
85.89
68.99
46.51
19.97
-7.71
-32.91
-52.48
-64.58
-69.09
-67.45
-61.83
-54.38
-46.43
-38.28
-29.39
-18.99
-6.59
7.48
22.08
35.45
45.73
51.52
52.15
47.77
39.16
27.37
13.57
-0.98
-14.72
-25.81
-32.27
-32.56
-26.19
-14.12
1.33
17.07
30.17
38.58
41.52
39.28
32.77
22.86
10.13
-5.24
-23.32
-44.30
-68.34
-95.40
-124.93
-155.62
-185.16
-210.50
-228.51
-237.07
-235.92
-227.03
-214.10
-201.28
-191.78
-186.86
-185.61
-185.60
-184.11
-179.23
-170.71
-160.06
-149.90
-143.07
-141.72
-146.57
-156.69
-169.63
-181.81
-189.30
-188.71
-178.19
-157.83
-129.57
-96.18
-59.89
-21.24
21.00
68.72
122.52
180.16
236.15
283.06
313.74
323.63
312.21
283.20
243.59
201.77
165.25
138.50
121.83
111.65
102.38
89.19
70.31
47.67
25.59
8.30
-2.41
-7.87
-11.29
-15.67
-22.14
-29.68
-36.40
-41.08
-44.05
-46.80
-50.73
-55.92
-60.82
-63.07
-60.74
-53.54
-43.16
-32.53
-24.72
-21.68
-23.66
-29.33
-36.42
-42.68
-46.61
-47.84
-47.03
-45.39
-44.07
-43.65
-43.95
-44.27
-43.89
-42.47
-40.24
-37.84
-35.83
-34.40
-33.28
-32.06
-30.51
-28.77
-27.28
-26.42
-26.24
-26.34
-26.09
-24.94
-22.73
-19.69
-16.24
-12.80
-9.62
-6.75
-4.21
-2.12
-0.64
0.01
-0.18
-1.01
-2.14
-3.13
-3.68
-3.70
-3.28
-2.64
-1.98
-1.33
-0.52
0.70
2.51
4.87
7.41
9.56
10.77
10.75
9.59
7.76
5.84
4.28
3.19
2.39
1.58
0.57
-0.66
-1.92
-3.01
-3.84
-4.45
-5.01
-5.60
-6.20
-6.64
-6.82
-6.73
-6.49
-6.33
-6.40
-6.70
-7.10
-7.44
-7.62
-7.68
-7.72
-7.90
-8.33
-9.03
-9.86
-10.67
-11.26
-11.53
-11.49
-11.30
-11.17
-11.29
-11.72
-12.30
-12.75
-12.84
-12.51
-11.88
-11.15
-10.43
-9.69
-8.75
-7.52
-6.05
-4.53
-3.14
-1.89
-0.56
1.20
3.59
6.54
9.60
12.17
13.68
13.78
12.51
10.16
7.24
4.40
2.32
1.66
2.85
5.95
10.41
15.10
18.63
19.72
17.67
12.62
5.43
-2.68
-10.56
-17.47
-23.03
-27.00
-29.09
-28.89
-26.13
-20.92
-14.08
-6.92
-0.90
2.89
4.08
3.13
1.00
-1.24
-2.85
-3.68
-4.03
-4.47
-5.41
-6.79
-8.14
-8.79
-8.22
-6.54
-4.47
-3.22
-3.93
-7.16
-12.60
-19.15
-25.15
-28.99
-29.52
-26.39
-20.24
-12.64
-5.69
-1.34
-0.55
-2.59
-5.01
-4.47
1.73
14.19
30.65
46.54
56.60
57.06
47.24
29.86
9.92
-7.47
-19.18
-25.29
-28.73
-33.59
-42.87
-56.86
-72.76
-85.85
-91.42
-86.50
-70.85
-46.63
-17.56
12.12
38.22
57.18
66.47
65.52
56.46
44.13
35.04
35.11
47.30
70.03
97.47
121.61
135.15
134.12
118.80
93.11
62.61
32.48
6.20
-14.59
-29.57
-38.92
-42.96
-42.15
-37.37
-29.95
-21.47
-13.34
-6.54
-1.63
1.03
1.06
-1.73
-7.08
-14.13
-21.52
-27.93
-32.60
-35.44
-36.76
-36.77
-35.35
-32.24
-27.55
-22.11
-17.30
-14.42
-13.87
-14.91
-15.96
-15.50
-12.89
-8.62
-4.02
-0.51
1.13
1.04
0.10
-0.55
-0.16
1.39
3.58
5.62
6.88
7.13
6.60
5.78
5.11
4.82
4.85
4.96
4.91
4.54
3.87
3.05
2.24
1.60
1.22
1.08
1.09
1.14
1.15
1.10
1.04
1.03
1.10
1.23
1.33
1.28
1.04
0.66
0.27
0.02
-0.04
0.03
0.08
-0.04
-0.40
-0.93
-1.47
-1.82
-1.84
-1.52
-0.99
-0.41
-0.00
0.07
-0.18
-0.67
-1.15
-1.38
-1.17
-0.49
0.48
1.46
2.15
2.34
2.02
1.35
0.51
-0.34
-1.12
-1.82
-2.46
-3.01
-3.41
-3.58
-3.48
-3.19
-2.78
-2.38
-2.07
-1.87
-1.77
-1.78
-1.88
-2.05
-2.21
-2.24
-2.03
-1.55
-0.86
-0.11
0.53
0.94
1.12
1.15
1.14
1.14
1.13
1.06
0.92
0.77
0.73
0.86
1.08
1.22
1.03
0.39
-0.62
-1.78
-2.71
-3.12
-2.91
-2.20
-1.26
-0.40
0.20
0.49
0.53
0.38
0.10
-0.29
-0.80
-1.35
-1.82
-2.06
-1.98
-1.63
-1.19
-0.86
-0.79
-1.00
-1.33
-1.60
-1.66
-1.46
-1.07
-0.60
-0.16
0.23
0.60
1.01
1.47
1.95
2.36
2.63
2.74
2.70
2.54
2.27
1.85
1.27
0.57
-0.16
-0.78
-1.15
-1.21
-0.96
-0.44
0.33
1.35
2.57
3.93
5.25
6.30
6.94
7.12
6.90
6.44
5.86
5.21
4.43
3.40
2.10
0.59
-0.84
-1.86
-2.18
-1.70
-0.58
0.79
1.87
2.26
1.73
0.31
-1.66
-3.78
-5.50
-6.30
-5.72
-3.64
-0.40
3.08
5.61
6.18
4.42
0.86
-3.36
-6.99
-9.22
-9.93
-9.61
-8.86
-8.02
-7.02
-5.63
-3.72
-1.50
0.46
1.58
1.50
0.38
-1.27
-2.78
-3.56
-3.40
-2.44
-1.09
0.26
1.38
2.31
3.25
4.36
5.60
6.67
7.12
6.58
4.95
2.47
-0.39
-3.08
-5.25
-6.80
-7.74
-7.94
-7.20
-5.34
-2.61
0.21
2.06
2.08
0.17
-2.93
-5.95
-7.75
-7.94
-6.91
-5.50
-4.40
-3.82
-3.49
-3.00
-2.19
-1.20
-0.38
0.10
0.30
0.45
0.77
1.22
1.63
1.69
1.27
0.54
-0.09
-0.17
0.50
1.81
3.24
4.21
4.30
3.43
1.93
0.33
-0.84
-1.25
-0.85
0.14
1.39
2.50
3.21
3.32
2.82
1.75
0.32
-1.23
-2.63
-3.71
-4.44
-4.94
-5.37
-5.90
-6.60
-7.39
-8.03
-8.25
-7.81
-6.66
-5.00
-3.21
-1.74
-0.87
-0.65
-0.84
-1.05
-0.97
-0.48
0.32
1.16
1.84
2.32
2.69
3.13
3.75
4.52
5.25
5.79
6.04
6.09
6.16
6.54
7.44
8.86
10.59
12.18
13.10
12.90
11.41
8.94
6.17
3.88
2.65
2.49
2.83
2.84
1.89
-0.08
-2.58
-4.81
-6.13
-6.35
-5.79
-4.98
-4.40
-4.26
-4.44
-4.69
-4.72
-4.34
-3.50
-2.25
-0.79
0.59
1.65
2.29
2.60
2.89
3.44
4.43
5.78
7.25
8.57
9.54
10.18
10.54
10.69
10.57
10.05
9.00
7.48
5.73
4.13
3.03
2.58
2.62
2.81
2.77
2.37
1.77
1.38
1.61
2.61
4.09
5.43
5.91
5.12
3.15
0.63
-1.58
-2.76
-2.65
-1.56
-0.18
0.74
0.68
-0.49
-2.62
-5.34
-8.35
-11.45
-14.52
-17.51
-20.38
-23.09
-25.61
-27.91
-29.88
-31.40
-32.39
-32.90
-33.15
-33.47
-34.08
-34.79
-34.92
-33.28
-28.53
-19.77
-6.99
8.52
24.39
37.78
46.26
48.69
45.54
38.60
30.23
22.45
16.44
12.38
10.01
9.05
9.44
11.15
13.97
17.19
19.84
20.99
20.27
17.95
14.84
11.84
9.56
8.11
7.19
6.33
5.24
3.90
2.60
1.74
1.60
2.19
3.25
4.31
4.88
4.69
3.69
2.07
0.10
-1.90
-3.74
-5.23
-6.25
-6.74
-6.71
-6.31
-5.72
-5.22
-5.02
-5.29
-6.05
-7.26
-8.72
-10.14
-11.26
-11.90
-12.03
-11.84
-11.49
-11.11
-10.71
-10.22
-9.70
-9.36
-9.52
-10.36
-11.91
-14.00
-16.44
-19.26
-22.62
-26.75
-31.79
-37.78
-44.91
-53.66
-64.69
-78.23
-93.43
-107.89
-118.15
-120.83
-114.06
-98.41
-76.72
-53.01
-31.05
-13.32
-0.75
6.77
9.67
8.25
2.69
-6.62
-18.73
-32.05
-44.65
-54.58
-60.39
-61.27
-57.18
-48.79
-37.22
-23.85
-9.93
3.59
16.28
28.39
40.92
55.51
74.05
98.06
127.69
161.22
195.07
224.71
246.21
257.74
260.40
257.69
253.87
251.86
251.72
250.59
243.99
227.86
200.23
161.82
115.65
65.98
17.21
-26.72
-62.67
-88.50
-103.34
-107.82
-104.16
-95.66
-85.89
-77.69
-72.60
-70.80
-71.44
-73.19
-74.77
-75.24
-74.22
-71.85
-68.70
-65.45
-62.70
-60.80
-59.69
-58.95
-57.98
-56.13
-52.87
-47.92
-41.37
-33.62
-25.36
-17.42
-10.62
-5.55
-2.54
-1.58
-2.41
-4.58
-7.48
-10.47
-12.84
-14.01
-13.64
-11.74
-8.71
-5.18
-1.88
0.65
2.18
2.75
2.60
1.99
1.20
0.41
-0.25
-0.74
-1.11
-1.37
-1.57
-1.72
-1.82
-1.87
-1.91
-2.02
-2.19
-2.35
-2.35
-1.95
-1.05
0.29
1.85
3.29
4.31
4.79
4.80
4.53
4.21
3.93
3.67
3.29
2.65
1.68
0.43
-0.93
-2.18
-3.09
-3.60
-3.77
-3.88
-4.26
-5.14
-6.53
-8.18
-9.62
-10.45
-10.50
-9.91
-9.10
-8.55
-8.59
-9.29
-10.41
-11.53
-12.21
-12.17
-11.48
-10.61
-10.22
-10.96
-13.00
-15.85
-18.52
-19.91
-19.48
-17.61
-15.53
-14.88
-16.84
-21.62
-28.24
-35.06
-40.45
-43.55
-44.61
-44.87
-45.97
-49.39
-55.93
-65.50
-76.98
-88.22
-96.04
-96.78
-87.47
-67.47
-39.77
-11.04
10.22
16.74
5.53
-20.47
-53.24
-82.52
-99.25
-98.34
-79.50
-46.34
-4.62
39.65
81.11
115.49
139.60
151.58
151.49
142.22
129.80
122.48
128.35
152.00
191.89
239.89
283.71
311.37
315.46
295.35
256.12
205.33
149.78
93.83
40.05
-9.22
-50.78
-81.06
-97.73
-101.17
-94.66
-83.11
-70.83
-60.12
-51.03
-42.22
-32.50
-21.68
-10.68
-0.95
6.12
9.55
8.78
3.57
-5.73
-17.90
-30.83
-41.98
-49.39
-52.71
-53.48
-54.50
-58.39
-66.28
-77.29
-89.11
-99.25
-106.12
-109.53
-110.18
-108.75
-105.38
-99.50
-90.44
-78.06
-63.13
-47.19
-32.02
-19.04
-8.81
-1.01
5.26
10.88
16.29
21.30
25.30
27.72
28.46
27.96
26.97
26.20
25.98
26.21
26.52
26.48
25.78
24.26
21.82
18.42
14.21
9.57
5.24
2.17
1.17
2.62
6.20
11.01
15.86
19.70
21.90
22.34
21.29
19.13
16.26
12.97
9.49
6.11
3.11
0.71
-0.98
-1.97
-2.40
-2.44
-2.27
-2.03
-1.80
-1.68
-1.70
-1.89
-2.31
-2.92
-3.66
-4.39
-4.91
-5.01
-4.61
-3.69
-2.41
-1.00
0.28
1.22
1.69
1.70
1.33
0.67
-0.13
-0.97
-1.79
-2.51
-3.06
-3.35
-3.32
-3.01
-2.57
-2.29
-2.46
-3.27
-4.61
-6.24
-7.76
-8.79
-9.13
-8.73
-7.70
-6.25
-4.63
-3.08
-1.81
-0.96
-0.62
-0.80
-1.42
-2.29
-3.16
-3.77
-3.89
-3.43
-2.44
-1.06
0.50
2.02
3.29
4.14
4.42
4.09
3.24
2.09
0.97
0.22
0.12
0.79
2.15
4.03
6.09
8.08
9.76
10.98
11.73
12.05
12.00
11.65
11.03
10.19
9.17
8.07
7.02
6.08
5.32
4.65
3.88
2.77
1.10
-1.14
-3.72
-6.19
-8.00
-8.76
-8.34
-6.92
-4.88
-2.63
-0.53
1.21
2.43
3.05
3.01
2.34
1.18
-0.21
-1.55
-2.63
-3.42
-4.03
-4.66
-5.45
-6.42
-7.46
-8.40
-9.12
-9.56
-9.71
-9.53
-8.93
-7.76
-5.95
-3.51
-0.68
2.21
4.78
6.71
7.82
8.08
7.56
6.41
4.89
3.35
2.20
1.75
2.14
3.23
4.60
5.73
6.16
5.55
3.81
1.08
-2.30
-5.81
-8.79
-10.60
-10.79
-9.36
-6.73
-3.67
-1.03
0.64
1.18
0.80
-0.14
-1.37
-2.74
-4.26
-5.91
-7.57
-9.01
-10.02
-10.48
-10.52
-10.41
-10.54
-11.16
-12.34
-13.91
-15.62
-17.27
-18.73
-19.99
-20.98
-21.45
-20.97
-19.03
-15.36
-10.08
-3.81
2.50
8.01
12.14
14.75
16.05
16.49
16.60
17.02
18.54
22.07
28.40
37.92
50.15
63.66
76.26
85.68
90.37
90.10
85.96
79.68
72.77
65.72
57.93
48.18
35.69
20.62
4.34
-11.18
-23.97
-32.61
-36.40
-35.28
-29.80
-21.11
-11.18
-2.57
2.20
1.61
-4.22
-13.42
-23.06
-30.32
-33.42
-31.92
-26.45
-18.07
-7.82
3.40
14.53
24.24
31.06
33.91
32.61
28.23
22.79
18.46
16.87
18.40
22.20
26.51
29.35
29.09
24.87
16.67
5.14
-8.64
-23.50
-38.19
-51.55
-62.56
-70.44
-74.92
-76.26
-75.21
-72.67
-69.37
-65.59
-61.21
-55.95
-49.74
-42.95
-36.26
-30.41
-25.85
-22.55
-20.12
-18.06
-16.04
-14.03
-12.28
-11.15
-10.90
-11.60
-13.04
-14.76
-16.25
-17.03
-16.88
-15.94
-14.57
-13.20
-11.97
-10.68
-8.73
-5.43
-0.33
6.55
14.69
23.28
31.49
38.65
44.23
47.86
49.21
48.05
44.42
38.73
31.77
24.64
18.32
13.51
10.34
8.48
7.36
6.40
5.28
3.96
2.58
1.28
0.12
-0.93
-1.90
-2.76
-3.39
-3.72
-3.73
-3.54
-3.32
-3.16
-3.05
-2.82
-2.33
-1.56
-0.63
0.19
0.60
0.30
-0.90
-3.09
-6.22
-10.08
-14.28
-18.32
-21.71
-24.03
-24.99
-24.52
-22.73
-19.88
-16.39
-12.75
-9.45
-6.83
-5.02
-3.93
-3.33
-2.96
-2.65
-2.34
-1.99
-1.52
-0.82
0.31
2.15
4.94
8.75
13.30
17.85
21.36
22.83
21.87
18.97
15.38
12.60
11.67
12.74
15.07
17.54
19.17
19.32
17.77
14.50
9.67
3.60
-3.10
-9.49
-14.52
-17.42
-17.95
-16.59
-14.36
-12.47
-11.80
-12.61
-14.44
-16.27
-16.98
-15.74
-12.40
-7.46
-1.83
3.56
8.00
11.14
12.90
13.40
12.91
11.86
10.74
9.95
9.73
10.15
11.16
12.70
14.78
17.40
20.43
23.57
26.36
28.35
29.29
29.10
27.90
25.85
23.06
19.56
15.50
11.14
6.88
3.09
-0.00
-2.42
-4.38
-6.17
-7.94
-9.68
-11.21
-12.36
-13.01
-13.24
-13.23
-13.20
-13.30
-13.63
-14.18
-14.98
-16.06
-17.48
-19.26
-21.35
-23.55
-25.57
-27.04
-27.70
-27.48
-26.60
-25.52
-24.86
-25.18
-26.71
-29.37
-32.74
-36.34
-39.88
-43.38
-47.20
-51.80
-57.45
-64.12
-71.41
-78.71
-85.33
-90.69
-94.39
-96.44
-97.59
-99.67
-105.56
-118.51
-140.85
-172.71
-211.37
-251.68
-287.54
-313.74
-327.28
-327.81
-317.02
-297.73
-273.00
-245.68
-218.35
-193.27
-172.13
-155.80
-144.19
-136.27
-130.53
-125.46
-119.81
-112.81
-104.15
-93.92
-82.48
-70.39
-58.18
-46.25
-34.74
-23.51
-12.15
-0.22
12.64
26.53
41.25
56.32
71.28
85.87
100.14
114.48
129.46
145.67
163.78
184.41
207.97
234.22
261.73
287.78
308.83
321.58
324.29
317.47
303.63
286.16
267.89
250.22
233.24
216.37
199.35
182.52
166.57
152.05
138.92
126.66
114.66
102.62
90.65
79.14
68.48
58.84
50.14
42.10
34.49
27.18
20.31
14.26
9.64
7.09
6.94
9.03
12.63
16.66
20.11
22.41
23.56
24.01
24.32
24.89
25.73
26.57
27.03
26.91
26.22
25.25
24.35
23.74
23.44
23.27
22.98
22.42
21.63
20.72
19.85
18.98
17.96
16.61
14.93
13.18
11.90
11.63
12.69
14.96
17.99
21.14
23.86
25.79
26.81
26.94
26.23
24.86
23.11
21.32
19.84
18.86
18.35
18.00
17.38
16.07
13.86
10.73
6.80
2.23
-2.78
-7.97
-12.99
-17.44
-21.02
-23.49
-24.91
-25.47
-25.50
-25.34
-25.25
-25.41
-25.89
-26.60
-27.25
-27.39
-26.48
-24.13
-20.27
-15.23
-9.71
-4.41
0.20
4.12
7.71
11.48
15.72
20.40
25.14
29.45
32.92
35.38
36.87
37.49
37.32
36.32
34.42
31.65
28.24
24.59
21.18
18.27
15.79
13.32
10.26
6.16
0.96
-4.93
-10.83
-16.00
-19.99
-22.66
-24.13
-24.62
-24.33
-23.48
-22.40
-21.44
-20.95
-21.10
-21.71
-22.34
-22.34
-21.09
-18.17
-13.52
-7.45
-0.52
6.55
13.12
18.79
23.45
27.24
30.44
33.28
35.93
38.44
40.78
42.93
44.89
46.72
48.61
50.72
53.15
55.76
58.23
60.21
61.55
62.54
63.87
66.31
70.14
74.89
79.39
82.29
82.70
80.60
76.70
71.90
66.68
60.92
54.16
46.11
37.06
27.89
19.62
12.92
7.84
3.94
0.78
-1.70
-3.06
-2.72
-0.42
3.54
8.22
12.54
15.67
17.41
18.10
18.30
18.38
18.22
17.12
13.99
7.72
-2.33
-15.90
-31.65
-47.18
-59.54
-65.90
-64.45
-54.86
-38.44
-17.76
4.03
23.91
39.63
49.97
54.89
55.39
53.11
49.77
46.55
43.57
39.84
33.80
24.10
10.37
-6.59
-25.17
-43.87
-61.90
-79.26
-96.29
-112.98
-128.62
-141.89
-151.40
-156.29
-156.57
-152.97
-146.54
-138.23
-128.63
-118.07
-106.70
-94.73
-82.58
-70.88
-60.52
-52.35
-46.90
-44.18
-43.47
-43.59
-43.26
-41.53
-38.17
-33.65
-28.99
-25.39
-23.87
-25.04
-28.93
-34.95
-41.95
-48.44
-53.05
-54.92
-54.22
-51.99
-49.81
-49.04
-50.20
-52.84
-55.77
-57.72
-57.71
-55.38
-50.73
-43.95
-35.23
-24.96
-13.84
-3.04
6.09
12.42
15.50
15.79
14.53
13.29
13.36
15.33
18.89
23.00
26.40
28.01
27.38
24.77
20.97
17.03
13.91
12.13
11.73
12.21
12.72
12.29
10.24
6.43
1.53
-3.12
-5.93
-5.61
-1.70
5.29
14.06
23.07
31.03
37.24
41.56
44.16
45.32
45.27
44.33
42.96
41.76
41.31
41.79
42.88
43.76
43.38
40.96
36.29
29.96
23.07
16.88
12.25
9.39
7.76
6.40
4.22
0.54
-4.71
-10.94
-16.99
-21.57
-23.62
-22.67
-18.94
-13.33
-7.04
-1.19
3.46
6.67
8.56
9.43
9.49
8.82
7.44
5.37
2.71
-0.34
-3.59
-6.86
-10.04
-12.97
-15.53
-17.61
-19.31
-20.93
-23.02
-26.25
-31.01
-37.10
-43.50
-48.59
-50.64
-48.62
-42.68
-34.31
-25.79
-19.32
-16.20
-16.43
-18.91
-22.10
-24.69
-25.89
-25.53
-23.70
-20.57
-16.37
-11.54
-6.78
-2.84
-0.24
1.09
1.75
2.58
4.14
6.41
8.91
11.17
13.20
15.65
19.54
25.54
33.52
42.46
50.88
57.68
62.63
66.53
70.61
75.75
81.77
87.38
90.70
90.17
85.32
77.06
67.45
59.01
54.04
53.96
59.05
68.29
79.41
89.31
94.76
93.45
84.90
70.94
55.14
41.67
33.75
32.65
37.41
45.43
53.62
59.29
60.59
56.31
45.40
26.85
0.11
-33.86
-71.84
-108.32
-136.79
-151.73
-150.62
-134.89
-109.22
-79.80
-52.27
-30.29
-15.28
-6.75
-2.99
-1.36
1.38
8.52
22.23
42.38
65.84
87.28
101.12
103.86
95.55
79.61
61.06
44.32
31.63
22.89
16.70
11.72
7.47
4.16
1.92
0.11
-2.68
-7.87
-15.93
-25.84
-35.35
-41.91
-43.91
-41.43
-36.20
-30.88
-27.79
-28.08
-31.35
-36.07
-40.40
-43.05
-43.71
-42.92
-41.55
-40.21
-38.97
-37.41
-35.03
-31.71
-27.83
-24.14
-21.38
-19.87
-19.34
-19.07
-18.28
-16.51
-13.81
-10.68
-7.74
-5.28
-2.97
0.20
5.47
13.71
24.82
37.53
50.01
60.74
69.48
77.42
86.57
98.55
113.54
130.02
145.43
157.40
164.56
166.74
164.34
157.52
145.92
129.04
107.13
81.75
55.59
31.50
11.36
-4.65
-17.78
-29.83
-42.06
-54.56
-66.48
-76.54
-83.71
-87.65
-88.51
-86.77
-82.90
-77.32
-70.46
-62.85
-55.21
-48.35
-43.13
-40.30
-40.28
-42.97
-47.70
-53.33
-58.60
-62.59
-64.84
-65.40
-64.47
-62.12
-58.25
-52.71
-45.56
-37.15
-28.01
-18.56
-8.94
0.92
10.99
20.84
29.64
36.35
40.18
40.94
39.12
35.69
31.68
27.87
24.62
21.95
19.67
17.55
15.36
12.79
9.42
4.57
-2.56
-12.69
-26.10
-42.27
-59.72
-76.12
-88.75
-95.10
-93.60
-83.95
-67.28
-45.88
-22.64
-0.54
17.91
30.84
37.28
37.20
31.53
22.03
10.96
0.46
-8.04
-14.05
-17.84
-19.71
-19.51
-16.47
-9.68
1.08
14.94
29.97
43.92
55.10
62.79
67.13
68.53
67.18
62.96
55.69
45.49
33.00
19.15
5.05
-8.47
-20.76
-31.46
-40.36
-47.43
-52.82
-56.83
-59.82
-62.05
-63.61
-64.45
-64.50
-63.80
-62.54
-60.95
-59.15
-57.12
-54.68
-51.62
-47.87
-43.65
-39.41
-35.72
-33.07
-31.66
-31.27
-31.35
-31.17
-30.14
-28.00
-24.91
-21.37
-18.01
-15.22
-13.11
-11.60
-10.59
-10.15
-10.35
-11.22
-12.60
-14.32
-16.44
-19.49
-24.25
-31.37
-40.84
-51.75
-62.54
-71.67
-78.18
-81.91
-83.24
-82.60
-80.07
-75.33
-67.87
-57.30
-43.43
-26.51
-7.42
12.08
29.53
42.25
48.13
46.43
38.01
24.91
9.51
-6.31
-21.40
-35.07
-46.56
-54.90
-59.31
-59.92
-58.36
-57.57
-60.77
-69.86
-84.02
-99.43
-110.37
-111.42
-99.84
-76.91
-47.58
-18.51
4.37
17.84
21.77
18.16
9.47
-2.50
-16.67
-31.84
-45.98
-56.50
-61.26
-59.77
-53.34
-44.02
-33.10
-20.17
-3.63
17.48
41.78
65.14
82.14
88.68
84.18
71.77
56.70
43.81
35.69
32.51
33.18
36.76
43.28
53.37
67.21
83.75
100.57
114.52
122.72
123.54
116.74
103.34
85.26
64.84
44.55
26.58
12.42
2.64
-3.08
-5.66
-6.16
-5.42
-4.03
-2.41
-1.13
-0.95
-2.69
-6.94
-13.71
-22.25
-31.04
-37.99
-41.05
-38.76
-30.94
-18.92
-5.37
6.70
15.08
19.22
20.26
20.29
21.08
23.12
25.48
26.36
24.23
18.75
10.95
2.82
-3.56
-6.99
-7.71
-7.36
-8.43
-13.36
-23.54
-38.72
-56.98
-75.28
-90.48
-100.19
-103.37
-100.47
-93.02
-83.20
-73.31
-65.25
-60.30
-58.94
-60.79
-64.79
-69.50
-73.42
-75.30
-74.28
-69.82
-61.46
-48.68
-30.85
-7.75
19.64
48.35
73.15
87.58
85.93
65.84
30.04
-13.76
-55.10
-84.28
-95.51
-88.23
-66.29
-35.42
-0.74
34.64
69.19
101.60
129.50
149.46
158.03
153.61
137.64
114.64
90.98
72.74
63.85
64.92
73.35
84.37
92.76
94.51
88.02
74.33
56.57
38.62
23.76
13.68
8.23
6.10
5.66
5.84
6.37
7.48
9.38
11.87
14.30
15.98
16.62
16.59
16.79
18.15
21.13
25.40
29.92
33.42
35.03
34.66
33.01
31.15
29.96
29.62
29.67
29.34
28.06
25.80
23.04
20.45
18.44
16.91
15.36
13.24
10.39
7.19
4.43
2.74
2.34
2.78
3.23
2.93
1.56
-0.67
-3.22
-5.49
-7.15
-8.08
-8.32
-7.77
-6.22
-3.45
0.56
5.46
10.59
15.21
18.87
21.52
23.65
26.02
29.28
33.57
38.26
42.08
43.65
41.97
36.93
29.34
20.49
11.50
3.02
-4.88
-12.22
-18.76
-23.85
-26.81
-27.44
-26.52
-25.56
-26.24
-29.53
-35.20
-41.86
-47.57
-50.75
-50.80
-48.18
-44.10
-39.85
-36.37
-34.01
-32.60
-31.67
-30.78
-29.59
-27.95
-25.73
-22.72
-18.57
-12.90
-5.54
3.17
12.35
20.73
27.01
30.39
30.81
28.88
25.65
22.19
19.24
17.15
15.90
15.23
14.80
14.28
13.45
12.27
10.86
9.47
8.36
7.68
7.47
7.63
7.96
8.23
8.23
7.79
6.79
5.26
3.27
1.02
-1.21
-3.07
-4.23
-4.44
-3.66
-2.16
-0.40
1.11
2.05
2.44
2.69
3.45
5.33
8.66
13.29
18.67
23.89
28.05
30.45
30.86
29.52
27.09
24.40
22.20
20.93
20.61
20.88
21.21
20.97
19.71
17.10
13.03
7.58
1.04
-6.15
-13.45
-20.35
-26.52
-31.83
-36.47
-40.74
-45.04
-49.75
-55.22
-61.69
-69.15
-77.19
-84.77
-90.44
-92.76
-90.96
-85.33
-77.21
-68.44
-60.61
-54.38
-49.35
-44.48
-38.75
-31.73
-23.67
-15.29
-7.31
-0.15
6.13
11.65
16.56
20.91
24.75
28.07
30.88
33.18
34.88
35.87
36.13
35.74
34.95
34.08
33.33
32.73
32.28
32.03
32.14
32.71
33.64
34.56
35.01
34.64
33.45
31.72
29.76
27.69
25.37
22.61
19.38
16.02
13.11
11.16
10.37
10.49
11.02
11.43
11.34
10.53
8.98
6.81
4.32
1.97
0.18
-0.72
-0.69
0.06
1.17
2.29
3.11
3.43
3.13
2.17
0.64
-1.18
-2.85
-3.94
-4.20
-3.80
-3.16
-2.86
-3.23
-4.28
-5.73
-7.19
-8.41
-9.35
-10.06
-10.56
-10.69
-10.23
-9.05
-7.36
-5.72
-4.89
-5.36
-7.16
-9.71
-12.07
-13.42
-13.34
-12.06
-10.20
-8.51
-7.38
-6.92
-6.99
-7.46
-8.32
-9.46
-10.45
-10.34
-8.00
-2.59
5.84
16.24
26.84
35.82
42.06
45.40
46.50
46.41
46.01
45.71
45.56
45.42
45.27
45.26
45.61
46.48
47.81
49.23
50.15
49.94
48.10
44.50
39.42
33.44
27.26
21.43
16.24
11.73
7.69
3.89
0.21
-3.35
-6.62
-9.43
-11.63
-13.22
-14.37
-15.41
-16.68
-18.43
-20.65
-23.11
-25.48
-27.48
-29.14
-30.74
-32.68
-35.22
-38.39
-41.92
-45.39
-48.48
-51.00
-52.91
-54.16
-54.63
-54.15
-52.59
-50.04
-46.80
-43.27
-39.74
-36.32
-32.92
-29.34
-25.53
-21.65
-18.07
-15.20
-13.31
-12.38
-12.03
-11.70
-10.89
-9.39
-7.40
-5.39
-3.91
-3.27
-3.39
-3.88
-4.25
-4.19
-3.65
-2.82
-2.03
-1.47
-1.21
-1.20
-1.31
-1.45
-1.63
-1.89
-2.28
-2.83
-3.48
-4.21
-4.95
-5.66
-6.31
-6.90
-7.42
-7.86
-8.14
-8.15
-7.77
-6.90
-5.51
-3.64
-1.37
1.17
3.87
6.63
9.30
11.69
13.57
14.79
15.35
15.41
15.25
15.11
15.10
15.22
15.35
15.39
15.33
15.18
15.01
14.88
14.75
14.55
14.17
13.52
12.60
11.52
10.52
9.84
9.61
9.80
10.16
10.34
10.06
9.31
8.34
7.61
7.55
8.27
9.53
10.77
11.46
11.30
10.49
9.57
9.14
9.55
10.73
12.18
13.28
13.50
12.57
10.48
7.25
2.92
-2.57
-9.09
-16.22
-23.09
-28.57
-31.61
-31.67
-28.87
-23.86
-17.49
-10.42
-2.99
4.59
11.98
18.54
23.44
26.08
26.41
25.04
22.96
21.11
20.05
19.89
20.43
21.39
22.59
23.89
25.11
26.04
26.44
26.20
25.30
23.87
22.05
19.96
17.68
15.30
12.98
10.92
9.32
8.30
7.88
7.95
8.33
8.82
9.31
9.74
10.10
10.41
10.66
10.83
10.94
11.05
11.33
11.90
12.86
14.17
15.70
17.33
18.98
20.67
22.44
24.32
26.28
28.20
29.92
31.33
32.39
33.19
33.91
34.81
36.12
37.97
40.37
43.20
46.31
49.52
52.75
55.95
59.13
62.32
65.59
68.98
72.50
75.98
79.05
81.14
81.67
80.18
76.48
70.69
63.11
54.08
43.75
32.09
18.92
4.03
-12.59
-30.66
-49.44
-67.86
-84.47
-97.81
-106.72
-110.61
-109.62
-104.61
-96.85
-87.79
-78.72
-70.60
-63.98
-59.12
-55.91
-53.99
-52.77
-51.52
-49.66
-46.88
-43.35
-39.62
-36.37
-34.11
-32.97
-32.62
-32.48
-31.85
-30.11
-26.87
-21.93
-15.38
-7.56
0.91
9.24
16.65
22.62
27.00
30.08
32.43
34.57
36.75
38.75
39.90
39.31
36.17
30.25
22.05
12.84
4.33
-1.88
-4.85
-4.69
-2.55
-0.23
0.50
-1.49
-6.19
-12.55
-18.92
-23.75
-26.17
-26.40
-25.52
-25.15
-26.80
-31.42
-39.13
-49.26
-60.49
-71.14
-79.52
-84.11
-83.95
-78.89
-69.72
-58.12
-46.31
-36.45
-29.99
-27.27
-27.47
-29.04
-30.31
-30.00
-27.54
-22.99
-16.82
-9.62
-1.98
5.51
12.22
17.57
21.16
22.96
23.37
23.13
22.98
23.28
23.93
24.41
24.16
22.95
21.10
19.39
18.68
19.43
21.42
23.78
25.28
24.80
21.71
16.01
8.33
-0.36
-8.99
-16.63
-22.60
-26.46
-27.97
-27.10
-24.07
-19.44
-14.13
-9.34
-6.23
-5.48
-7.00
-9.90
-12.77
-14.23
-13.55
-10.83
-6.97
-3.14
-0.32
1.15
1.50
1.30
1.07
1.02
1.03
0.79
0.05
-1.24
-2.99
-5.02
-7.23
-9.57
-12.01
-14.34
-16.15
-16.89
-16.08
-13.52
-9.54
-4.83
-0.36
3.03
4.79
4.89
3.72
1.91
0.11
-1.18
-1.70
-1.45
-0.63
0.37
1.01
0.68
-1.10
-4.45
-9.01
-13.96
-18.31
-21.22
-22.34
-21.84
-20.33
-18.47
-16.76
-15.41
-14.37
-13.53
-12.82
-12.26
-11.95
-12.02
-12.56
-13.62
-15.28
-17.62
-20.67
-24.40
-28.57
-32.74
-36.26
-38.42
-38.70
-36.94
-33.50
-29.15
-24.88
-21.61
-19.89
-19.84
-21.24
-23.62
-26.43
-29.07
-30.91
-31.31
-29.76
-26.05
-20.35
-13.30
-5.76
1.40
7.58
12.52
16.26
18.92
20.55
21.12
20.49
18.61
15.57
11.65
7.26
2.88
-1.07
-4.31
-6.78
-8.59
-10.00
-11.22
-12.41
-13.56
-14.59
-15.35
-15.72
-15.57
-14.80
-13.33
-11.30
-8.99
-6.84
-5.30
-4.62
-4.76
-5.35
-5.85
-5.67
-4.33
-1.52
2.88
8.76
15.70
23.06
30.03
35.89
40.19
42.88
44.28
44.84
44.95
44.83
44.50
43.89
42.99
41.86
40.69
39.63
38.71
37.78
36.63
35.11
33.26
31.42
30.04
29.55
30.11
31.54
33.40
35.24
36.81
38.19
39.70
41.75
44.59
48.21
52.36
56.59
60.44
63.49
65.39
65.91
65.05
63.06
60.51
58.23
57.09
57.80
60.47
64.50
68.60
71.20
70.93
67.19
60.33
51.46
41.95
32.97
25.09
18.31
12.24
6.45
0.64
-5.27
-11.17
-16.94
-22.55
-28.17
-34.16
-40.95
-48.86
-57.81
-67.10
-75.45
-81.20
-82.74
-78.97
-69.56
-54.98
-36.22
-14.36
9.76
35.60
62.75
90.44
117.23
141.02
159.60
171.32
175.78
173.94
167.65
158.87
148.80
137.62
124.63
108.93
90.07
68.42
45.09
21.60
-0.67
-20.77
-38.26
-53.10
-65.30
-74.67
-80.58
-82.09
-78.31
-68.99
-55.04
-38.65
-22.87
-11.03
-5.91
-9.15
-21.06
-40.18
-63.19
-85.04
-100.05
-103.81
-95.49
-79.18
-62.87
-55.43
-62.62
-84.47
-115.35
-146.62
-170.38
-182.16
-181.47
-170.31
-151.28
-126.46
-97.61
-67.14
-38.67
-16.40
-3.52
-0.89
-6.67
-17.38
-29.46
-40.79
-51.01
-60.83
-70.98
-81.22
-90.34
-96.92
-100.31
-101.05
-100.52
-100.10
-100.28
-100.59
-99.93
-97.27
-91.97
-83.79
-72.50
-57.78
-39.24
-16.68
9.48
37.99
66.81
93.57
115.97
132.36
142.21
146.34
146.79
146.26
147.12
150.34
154.94
158.34
157.51
150.43
137.04
119.21
99.45
79.71
60.30
39.94
16.73
-10.84
-43.53
-81.74
-125.81
-175.60
-229.08
-280.99
-322.77
-344.46
-338.20
-301.68
-239.82
-163.79
-87.69
-24.24
18.61
39.01
40.35
28.99
11.89
-5.20
-18.62
-26.79
-29.88
-29.05
-25.63
-20.43
-13.49
-3.64
11.14
33.12
63.97
103.39
148.53
193.90
232.44
257.28
263.59
249.77
217.61
171.62
118.02
63.73
15.57
-20.55
-40.64
-43.63
-31.87
-10.60
13.68
35.28
50.87
59.79
63.25
63.01
60.48
56.48
51.67
46.85
42.89
40.44
39.39
38.87
37.75
35.14
30.76
24.82
17.63
9.25
-0.51
-11.78
-24.30
-37.22
-49.47
-60.28
-69.52
-77.61
-85.01
-91.57
-96.36
-98.06
-95.73
-89.48
-80.59
-71.06
-62.74
-56.76
-53.29
-51.82
-51.56
-51.89
-52.44
-53.16
-54.05
-55.04
-55.91
-56.25
-55.68
-54.14
-52.09
-50.48
-50.59
-53.39
-59.14
-67.34
-77.03
-87.24
-97.14
-105.93
-112.39
-114.88
-111.77
-102.35
-87.67
-70.52
-54.57
-42.96
-37.22
-37.04
-40.89
-46.95
-53.62
-59.43
-62.68
-61.52
-54.48
-41.51
-24.60
-7.39
6.03
12.96
13.32
9.72
6.31
6.91
13.48
25.50
40.48
55.36
67.93
77.63
85.41
92.85
100.94
109.49
117.12
122.15
123.55
121.45
117.08
111.98
107.27
103.54
101.63
103.47
111.96
129.83
157.61
192.54
229.04
260.89
283.83
297.14
303.23
305.61
306.94
307.92
307.72
305.36
300.54
293.62
284.80
273.57
259.00
240.54
218.60
194.34
168.80
142.06
113.15
80.62
43.64
2.76
-40.09
-82.30
-121.38
-155.63
-184.25
-207.05
-224.05
-234.95
-238.84
-233.95
-217.90
-188.29
-143.87
-85.80
-18.20
52.21
117.38
170.04
205.48
222.47
223.08
211.50
192.57
170.60
148.81
129.12
112.45
98.75
87.16
76.00
63.05
45.98
23.15
-5.49
-37.98
-70.53
-98.66
-118.99
-130.59
-135.36
-137.18
-140.06
-146.49
-156.91
-170.24
-185.35
-202.09
-221.48
-244.91
-273.07
-305.27
-339.44
-372.56
-401.13
-421.49
-430.14
-424.29
-402.61
-365.63
-315.80
-256.84
-193.00
-128.52
-67.48
-13.80
29.11
59.21
76.59
83.62
84.42
83.31
83.28
85.34
88.59
90.87
89.46
81.55
65.01
39.61
8.32
-22.56
-44.95
-52.03
-41.25
-15.44
18.37
52.12
79.79
98.88
110.08
115.62
117.80
118.28
118.12
117.90
117.66
116.53
112.79
104.66
91.24
73.02
51.81
30.08
10.20
-5.84
-16.51
-20.89
-18.91
-11.70
-1.50
8.87
16.94
21.39
22.42
21.49
20.53
21.14
23.94
28.41
33.25
36.78
37.64
35.09
29.17
20.55
10.16
-1.05
-12.40
-23.47
-34.14
-44.47
-54.68
-65.04
-75.77
-86.78
-97.59
-107.54
-116.14
-123.64
-131.29
-141.15
-155.34
-174.79
-198.12
-221.24
-238.02
-241.77
-227.18
-191.88
-137.46
-69.36
3.84
71.99
125.34
156.44
162.20
144.75
111.48
73.34
41.85
25.60
27.30
42.92
63.01
76.33
74.03
52.73
15.34
-30.70
-76.64
-115.64
-144.39
-162.81
-172.58
-175.47
-172.61
-164.63
-152.37
-137.12
-120.52
-103.71
-86.84
-68.99
-48.68
-24.75
3.12
34.31
67.93
103.19
139.40
175.41
208.87
236.26
253.62
258.38
250.65
233.62
212.33
191.59
174.10
159.87
147.30
134.92
122.78
112.50
106.03
104.09
105.37
106.95
105.82
100.45
91.46
81.49
73.78
70.87
73.70
81.63
93.21
107.01
122.05
137.57
152.37
164.38
170.85
169.31
158.69
139.95
115.90
90.19
66.07
45.52
29.15
16.60
7.11
-0.21
-6.43
-13.08
-22.04
-35.09
-52.93
-74.73
-98.16
-120.32
-139.04
-153.70
-165.24
-175.16
-184.35
-192.35
-197.45
-197.80
-192.46
-182.04
-168.49
-154.44
-142.65
-135.71
-135.78
-144.08
-160.13
-180.97
-201.43
-215.55
-218.55
-208.67
-187.72
-160.17
-131.06
-104.24
-81.12
-60.99
-42.06
-23.12
-4.39
12.52
25.59
33.70
37.47
39.23
41.90
47.53
56.29
66.57
75.98
82.78
86.74
88.93
90.79
92.92
94.65
94.41
90.70
83.04
72.24
60.09
48.59
39.15
32.17
27.07
22.89
18.85
14.75
10.99
8.28
7.21
7.83
9.59
11.54
12.68
12.43
10.74
8.11
5.27
2.83
1.08
-0.04
-0.81
-1.49
-2.16
-2.79
-3.23
-3.41
-3.36
-3.17
-3.03
-3.04
-3.30
-3.77
-4.39
-5.04
-5.61
-6.02
-6.26
-6.35
-6.32
-6.19
-5.91
-5.47
-4.83
-4.00
-3.11
-2.35
-1.90
-1.87
-2.22
-2.77
-3.27
-3.52
-3.49
-3.38
-3.43
-3.85
-4.53
-5.24
-5.65
-5.61
-5.20
-4.65
-4.24
-4.11
-4.26
-4.60
-5.06
-5.60
-6.22
-6.83
-7.26
-7.31
-6.86
-5.95
-4.76
-3.49
-2.33
-1.35
-0.59
-0.09
0.10
-0.06
-0.57
-1.38
-2.32
-3.22
-3.93
-4.35
-4.46
-4.30
-3.98
-3.61
-3.33
-3.24
-3.35
-3.60
-3.83
-3.88
-3.68
-3.20
-2.55
-1.88
-1.29
-0.75
-0.18
0.55
1.50
2.51
3.34
3.69
3.40
2.53
1.32
0.10
-0.85
-1.41
-1.63
-1.66
-1.68
-1.84
-2.19
-2.70
-3.27
-3.77
-4.11
-4.26
-4.23
-4.11
-3.96
-3.81
-3.62
-3.36
-3.03
-2.68
-2.38
-2.13
-1.87
-1.50
-0.93
-0.19
0.57
1.16
1.42
1.33
1.03
0.79
0.89
1.39
2.18
2.90
3.21
2.95
2.18
1.23
0.43
0.02
0.00
0.18
0.32
0.34
0.25
0.21
0.33
0.60
0.90
1.09
1.16
1.16
1.23
1.44
1.77
2.08
2.23
2.10
1.69
1.15
0.57
0.08
-0.30
-0.56
-0.71
-0.75
-0.68
-0.51
-0.30
-0.12
-0.00
0.02
-0.00
-0.04
-0.06
-0.02
0.09
0.30
0.62
1.00
1.34
1.50
1.41
1.10
0.73
0.48
0.45
0.55
0.59
0.37
-0.19
-0.96
-1.67
-2.09
-2.12
-1.87
-1.62
-1.57
-1.84
-2.31
-2.78
-3.03
-2.93
-2.54
-2.00
-1.48
-1.08
-0.75
-0.31
0.41
1.47
2.75
4.01
4.95
5.48
5.66
5.70
5.81
5.96
5.95
5.43
4.18
2.22
-0.10
-2.33
-4.07
-5.16
-5.75
-6.12
-6.49
-6.99
-7.49
-7.84
-7.91
-7.66
-7.19
-6.65
-6.20
-5.95
-5.92
-6.04
-6.20
-6.27
-6.18
-5.93
-5.57
-5.17
-4.72
-4.25
-3.77
-3.39
-3.22
-3.33
-3.65
-3.92
-3.84
-3.21
-2.09
-0.76
0.39
1.09
1.30
1.20
1.08
1.19
1.58
2.15
2.67
2.98
3.01
2.83
2.51
2.09
1.54
0.77
-0.29
-1.59
-2.94
-4.03
-4.59
-4.46
-3.71
-2.58
-1.40
-0.45
0.08
0.20
0.04
-0.18
-0.28
-0.14
0.17
0.47
0.57
0.34
-0.17
-0.76
-1.25
-1.49
-1.52
-1.47
-1.48
-1.53
-1.55
-1.39
-1.01
-0.50
-0.08
0.01
-0.32
-0.99
-1.81
-2.58
-3.16
-3.54
-3.78
-3.93
-4.01
-4.00
-3.85
-3.52
-3.04
-2.42
-1.73
-0.99
-0.19
0.77
2.00
3.61
5.61
7.84
9.93
11.41
11.90
11.28
9.79
7.92
6.23
5.09
4.56
4.42
4.36
4.18
3.88
3.57
3.39
3.28
3.04
2.44
1.43
0.17
-0.94
-1.54
-1.41
-0.65
0.41
1.41
2.02
2.17
1.95
1.56
1.14
0.75
0.33
-0.17
-0.74
-1.26
-1.55
-1.46
-0.99
-0.30
0.37
0.79
0.84
0.59
0.17
-0.26
-0.61
-0.80
-0.85
-0.73
-0.40
0.14
0.85
1.61
2.30
2.76
2.91
2.67
2.11
1.30
0.40
-0.44
-1.10
-1.48
-1.59
-1.48
-1.20
-0.78
-0.22
0.47
1.27
2.11
2.85
3.37
3.62
3.66
3.63
3.78
4.27
5.12
6.20
7.22
7.95
8.27
8.25
8.09
7.99
8.09
8.42
8.85
9.27
9.56
9.66
9.54
9.11
8.28
7.00
5.28
3.24
1.08
-0.97
-2.79
-4.29
-5.50
-6.47
-7.20
-7.73
-8.04
-8.13
-8.07
-7.92
-7.72
-7.57
-7.53
-7.62
-7.85
-8.19
-8.57
-8.96
-9.33
-9.63
-9.81
-9.77
-9.36
-8.45
-7.05
-5.38
-3.77
-2.58
-2.02
-2.02
-2.31
-2.53
-2.38
-1.75
-0.70
0.57
1.84
2.96
3.89
4.65
5.31
5.86
6.28
6.47
6.30
5.68
4.63
3.31
1.99
0.96
0.37
0.15
0.10
-0.06
-0.46
-1.02
-1.53
-1.78
-1.68
-1.34
-0.99
-0.78
-0.67
-0.52
-0.14
0.50
1.26
1.92
2.29
2.30
2.11
1.90
1.82
1.87
1.98
2.02
1.96
1.82
1.68
1.58
1.55
1.54
1.50
1.44
1.39
1.43
1.63
2.08
2.77
3.67
4.73
5.86
6.97
7.95
8.71
9.20
9.39
9.31
8.99
8.48
7.76
6.81
5.63
4.31
3.03
2.02
1.42
1.20
1.17
1.07
0.70
0.04
-0.84
-1.76
-2.64
-3.45
-4.20
-4.94
-5.64
-6.25
-6.68
-6.90
-6.90
-6.68
-6.25
-5.63
-4.86
-4.02
-3.20
-2.50
-1.98
-1.64
-1.47
-1.34
-1.18
-0.94
-0.66
-0.50
-0.64
-1.22
-2.21
-3.42
-4.58
-5.46
-5.98
-6.21
-6.31
-6.42
-6.52
-6.50
-6.23
-5.66
-4.84
-3.90
-2.96
-2.08
-1.22
-0.36
0.46
1.15
1.57
1.62
1.38
0.95
0.49
0.11
-0.18
-0.39
-0.54
-0.62
-0.57
-0.41
-0.17
0.02
0.10
0.02
-0.13
-0.21
-0.11
0.19
0.61
0.98
1.21
1.29
1.35
1.53
1.93
2.52
3.13
3.59
3.83
3.89
3.89
3.96
4.17
4.49
4.81
5.01
4.98
4.71
4.18
3.47
2.65
1.79
0.98
0.29
-0.24
-0.60
-0.76
-0.77
-0.68
-0.57
-0.53
-0.62
-0.90
-1.32
-1.78
-2.15
-2.32
-2.24
-1.94
-1.49
-0.99
-0.49
-0.04
0.40
0.87
1.38
1.89
2.29
2.46
2.32
1.85
1.15
0.38
-0.33
-0.87
-1.21
-1.38
-1.43
-1.38
-1.22
-0.96
-0.63
-0.28
-0.00
0.12
0.09
-0.12
-0.45
-0.93
-1.51
-2.13
-2.64
-2.87
-2.69
-2.12
-1.30
-0.45
0.26
0.78
1.24
1.83
2.70
3.78
4.78
5.34
5.25
4.51
3.38
2.27
1.47
1.12
1.10
1.20
1.24
1.16
1.01
0.85
0.73
0.60
0.40
0.08
-0.33
-0.77
-1.16
-1.45
-1.61
-1.59
-1.38
-0.96
-0.40
0.17
0.60
0.76
0.65
0.36
0.07
-0.08
-0.05
0.12
0.32
0.42
0.42
0.33
0.22
0.13
0.01
-0.24
-0.71
-1.49
-2.51
-3.64
-4.68
-5.44
-5.80
-5.72
-5.18
-4.20
-2.86
-1.35
0.02
0.93
1.19
0.79
0.01
-0.77
-1.28
-1.47
-1.55
-1.74
-2.17
-2.73
-3.19
-3.32
-3.01
-2.40
-1.73
-1.22
-0.93
-0.82
-0.75
-0.64
-0.44
-0.15
0.31
1.06
2.24
3.83
5.61
7.20
8.18
8.29
7.55
6.21
4.62
3.04
1.58
0.27
-0.89
-1.84
-2.51
-2.84
-2.95
-3.06
-3.42
-4.12
-5.12
-6.17
-6.98
-7.34
-7.19
-6.58
-5.64
-4.47
-3.13
-1.70
-0.20
1.32
2.80
4.24
5.61
6.90
8.08
9.06
9.72
9.89
9.47
8.45
7.00
5.45
4.24
3.66
3.78
4.36
4.96
5.17
4.81
4.00
3.04
2.23
1.73
1.53
1.49
1.56
1.73
2.04
2.48
2.91
3.15
2.98
2.37
1.43
0.41
-0.40
-0.80
-0.71
-0.17
0.68
1.61
2.41
2.89
2.93
2.54
1.82
1.00
0.29
-0.16
-0.32
-0.26
-0.09
0.08
0.22
0.28
0.26
0.13
-0.10
-0.42
-0.71
-0.87
-0.87
-0.76
-0.70
-0.83
-1.15
-1.53
-1.76
-1.68
-1.27
-0.71
-0.18
0.18
0.38
0.54
0.81
1.27
1.85
2.40
2.73
2.77
2.52
2.09
1.63
1.20
0.82
0.43
-0.04
-0.54
-0.97
-1.22
-1.21
-1.00
-0.77
-0.69
-0.84
-1.17
-1.53
-1.74
-1.70
-1.41
-0.95
-0.48
-0.10
0.12
0.19
0.15
0.05
-0.06
-0.19
-0.43
-0.86
-1.55
-2.40
-3.22
-3.77
-3.88
-3.48
-2.66
-1.62
-0.52
0.50
1.43
2.28
3.05
3.69
4.08
4.13
3.82
3.29
2.73
2.35
2.26
2.42
2.65
2.74
2.59
2.21
1.75
1.36
1.14
1.02
0.93
0.76
0.49
0.17
-0.07
-0.16
-0.10
0.04
0.10
0.03
-0.19
-0.45
-0.60
-0.56
-0.33
-0.03
0.19
0.24
0.14
0.05
0.12
0.46
1.01
1.57
1.93
1.97
1.74
1.40
1.13
1.00
0.94
0.83
0.55
0.07
-0.57
-1.25
-1.90
-2.50
-3.03
-3.50
-3.89
-4.16
-4.24
-4.06
-3.57
-2.76
-1.72
-0.59
0.44
1.18
1.50
1.40
0.95
0.33
-0.29
-0.73
-0.92
-0.91
-0.75
-0.56
-0.39
-0.23
-0.02
0.27
0.61
0.92
1.09
1.08
0.95
0.80
0.69
0.64
0.57
0.37
-0.01
-0.56
-1.19
-1.84
-2.43
-3.00
-3.58
-4.23
-4.94
-5.61
-6.08
-6.20
-5.89
-5.18
-4.26
-3.37
-2.71
-2.43
-2.51
-2.84
-3.28
-3.76
-4.22
-4.70
-5.24
-5.91
-6.70
-7.62
-8.58
-9.47
-10.23
-10.81
-11.17
-11.31
-11.16
-10.69
-9.88
-8.83
-7.76
-6.90
-6.47
-6.51
-6.92
-7.53
-8.18
-8.83
-9.50
-10.15
-10.68
-10.80
-10.24
-8.78
-6.36
-3.18
0.45
4.17
7.76
11.07
14.08
16.75
19.00
20.76
21.99
22.73
23.14
23.42
23.64
23.76
23.62
23.03
21.86
20.14
18.02
15.68
13.31
11.08
9.17
7.78
7.08
7.20
8.08
9.46
10.92
11.98
12.23
11.43
9.56
6.84
3.66
0.47
-2.30
-4.36
-5.60
-6.08
-6.02
-5.64
-5.14
-4.59
-4.03
-3.43
-2.74
-1.91
-0.93
0.20
1.45
2.70
3.80
4.60
5.02
5.08
4.81
4.32
3.73
3.17
2.70
2.39
2.19
1.99
1.58
0.79
-0.45
-2.00
-3.53
-4.62
-4.95
-4.47
-3.36
-2.02
-0.94
-0.43
-0.57
-1.19
-1.96
-2.58
-2.94
-3.05
-3.03
-2.94
-2.75
-2.38
-1.83
-1.20
-0.69
-0.52
-0.72
-1.13
-1.50
-1.62
-1.39
-0.94
-0.42
0.03
0.39
0.74
1.15
1.61
2.05
2.37
2.47
2.35
2.05
1.64
1.20
0.79
0.40
0.08
-0.17
-0.34
-0.43
-0.49
-0.61
-0.84
-1.21
-1.68
-2.15
-2.53
-2.76
-2.83
-2.74
-2.54
-2.26
-1.93
-1.60
-1.31
-1.09
-0.88
-0.59
-0.13
0.49
1.17
1.67
1.81
1.56
1.07
0.59
0.34
0.33
0.39
0.25
-0.24
-1.01
-1.77
-2.26
-2.31
-1.99
-1.55
-1.20
-1.02
-0.93
-0.76
-0.41
0.10
0.59
0.86
0.81
0.52
0.17
-0.00
0.14
0.57
1.17
1.81
2.37
2.83
3.18
3.35
3.27
2.85
2.08
1.06
-0.02
-0.98
-1.66
-2.04
-2.17
-2.11
-1.94
-1.63
-1.18
-0.60
0.07
0.70
1.20
1.52
1.65
1.68
1.68
1.73
1.86
2.07
2.32
2.53
2.64
2.61
2.42
2.09
1.67
1.20
0.71
0.21
-0.29
-0.74
-1.07
-1.20
-1.11
-0.84
-0.47
-0.10
0.13
0.17
0.01
-0.34
-0.81
-1.32
-1.79
-2.17
-2.46
-2.67
-2.79
-2.78
-2.53
-1.99
-1.16
-0.18
0.73
1.37
1.68
1.72
1.69
1.80
2.09
2.47
2.71
2.62
2.15
1.44
0.70
0.12
-0.26
-0.54
-0.88
-1.40
-2.10
-2.89
-3.62
-4.18
-4.49
-4.51
-4.25
-3.74
-3.02
-2.18
-1.31
-0.52
0.12
0.56
0.76
0.70
0.42
0.03
-0.30
-0.43
-0.29
0.04
0.36
0.48
0.30
-0.14
-0.65
-1.05
-1.21
-1.13
-0.91
-0.74
-0.72
-0.91
-1.21
-1.44
-1.45
-1.17
-0.69
-0.22
0.03
-0.00
-0.25
-0.47
-0.47
-0.18
0.31
0.78
1.04
1.05
0.92
0.86
1.00
1.37
1.79
2.06
1.97
1.48
0.69
-0.18
-0.91
-1.42
-1.74
-2.02
-2.39
-2.84
-3.21
-3.27
-2.84
-1.95
-0.83
0.19
0.86
1.11
1.11
1.15
1.46
2.07
2.85
3.52
3.87
3.84
3.52
3.10
2.74
2.52
2.42
2.35
2.22
2.01
1.70
1.34
0.95
0.53
0.10
-0.30
-0.64
-0.86
-0.94
-0.91
-0.83
-0.77
-0.77
-0.80
-0.81
-0.70
-0.40
0.13
0.84
1.64
2.40
3.00
3.34
3.45
3.41
3.32
3.28
3.29
3.31
3.24
3.04
2.72
2.35
1.96
1.58
1.20
0.76
0.26
-0.26
-0.69
-0.90
-0.83
-0.46
0.14
0.84
1.49
1.95
2.12
1.94
1.44
0.76
0.06
-0.43
-0.60
-0.45
-0.11
0.27
0.54
0.64
0.61
0.53
0.50
0.60
0.87
1.28
1.74
2.15
2.36
2.27
1.90
1.38
0.94
0.78
0.92
1.24
1.46
1.36
0.86
0.04
-0.92
-1.86
-2.70
-3.45
-4.15
-4.75
-5.16
-5.28
-5.10
-4.68
-4.11
-3.48
-2.82
-2.17
-1.57
-1.10
-0.81
-0.66
-0.59
-0.45
-0.20
0.08
0.23
0.15
-0.15
-0.48
-0.66
-0.53
-0.11
0.43
0.90
1.13
1.07
0.75
0.22
-0.49
-1.34
-2.25
-3.08
-3.66
-3.90
-3.85
-3.68
-3.54
-3.56
-3.72
-3.95
-4.22
-4.57
-5.12
-6.04
-7.34
-8.85
-10.32
-11.48
-12.17
-12.47
-12.61
-12.90
-13.59
-14.80
-16.46
-18.38
-20.24
-21.74
-22.63
-22.77
-22.23
-21.27
-20.28
-19.78
-20.16
-21.53
-23.53
-25.35
-25.97
-24.56
-20.88
-15.46
-9.40
-3.90
0.27
2.98
4.68
5.98
7.15
7.99
7.91
6.49
3.78
0.50
-2.23
-3.40
-2.58
-0.15
2.91
5.34
6.09
4.51
0.49
-5.77
-13.81
-23.01
-32.58
-41.57
-49.00
-54.07
-56.46
-56.51
-55.08
-53.30
-52.13
-52.01
-52.67
-53.40
-53.39
-52.25
-50.24
-48.13
-46.75
-46.44
-46.81
-46.90
-45.68
-42.62
-37.97
-32.55
-27.35
-23.11
-20.18
-18.74
-18.82
-20.14
-21.79
-22.01
-18.48
-9.33
5.75
24.91
44.55
60.70
70.70
74.05
72.25
67.69
62.28
56.90
51.50
45.83
40.04
34.62
29.98
26.09
22.53
18.88
15.33
12.77
12.48
15.44
21.74
30.50
40.17
49.04
55.78
59.72
60.92
60.06
58.06
55.80
53.77
51.98
50.03
47.41
43.77
39.04
33.44
27.35
21.17
15.28
9.96
5.43
1.84
-0.81
-2.62
-3.80
-4.58
-5.20
-5.80
-6.43
-7.02
-7.41
-7.43
-7.00
-6.22
-5.36
-4.79
-4.80
-5.54
-6.97
-8.94
-11.27
-13.79
-16.37
-18.92
-21.33
-23.52
-25.42
-27.00
-28.22
-29.05
-29.49
-29.56
-29.29
-28.74
-27.93
-26.81
-25.27
-23.18
-20.48
-17.17
-13.43
-9.49
-5.63
-2.04
1.18
4.02
6.57
8.90
11.11
13.36
15.82
18.62
21.76
25.10
28.30
30.97
32.77
33.49
33.11
31.76
29.66
27.12
24.41
21.73
19.22
16.90
14.69
12.47
10.21
7.90
5.55
3.23
1.00
-1.02
-2.67
-3.73
-3.94
-3.16
-1.44
0.99
3.68
6.18
8.10
9.34
10.01
10.43
10.86
11.38
11.85
12.01
11.69
10.97
10.12
9.40
8.92
8.50
7.81
6.65
5.08
3.47
2.28
1.81
2.02
2.56
3.00
3.05
2.71
2.23
1.94
2.05
2.54
3.23
3.84
4.17
4.14
3.85
3.44
3.05
2.70
2.35
1.91
1.31
0.49
-0.53
-1.75
-3.20
-4.92
-6.95
-9.32
-11.97
-14.81
-17.65
-20.30
-22.57
-24.30
-25.44
-26.00
-26.09
-25.83
-25.35
-24.74
-24.01
-23.12
-21.94
-20.36
-18.29
-15.68
-12.54
-8.93
-4.95
-0.78
3.36
7.26
10.76
13.80
16.43
18.78
20.90
22.77
24.32
25.46
26.21
26.65
26.89
26.97
26.82
26.34
25.43
24.09
22.43
20.71
19.17
18.05
17.45
17.30
17.41
17.45
17.18
16.46
15.42
14.33
13.49
13.10
13.20
13.71
14.49
15.46
16.55
17.67
18.66
19.35
19.62
19.45
18.93
18.21
17.44
16.69
15.97
15.27
14.53
13.71
12.77
11.68
10.40
8.96
7.42
5.80
4.13
2.40
0.62
-1.18
-2.88
-4.34
-5.44
-6.16
-6.52
-6.64
-6.63
-6.60
-6.68
-6.91
-7.26
-7.68
-8.05
-8.30
-8.40
-8.40
-8.35
-8.23
-8.02
-7.63
-7.06
-6.39
-5.73
-5.19
-4.76
-4.31
-3.71
-2.90
-1.99
-1.14
-0.59
-0.43
-0.62
-1.03
-1.52
-2.00
-2.46
-2.91
-3.33
-3.62
-3.69
-3.45
-2.90
-2.16
-1.40
-0.77
-0.36
-0.12
0.04
0.27
0.61
1.05
1.46
1.69
1.65
1.32
0.78
0.13
-0.55
-1.24
-1.96
-2.66
-3.22
-3.46
-3.22
-2.43
-1.19
0.20
1.38
2.07
2.11
1.51
0.43
-0.88
-2.17
-3.23
-3.97
-4.43
-4.80
-5.29
-6.03
-7.00
-7.99
-8.69
-8.80
-8.16
-6.78
-4.91
-2.85
-0.92
0.63
1.67
2.13
2.06
1.56
0.83
0.12
-0.39
-0.58
-0.50
-0.34
-0.33
-0.67
-1.39
-2.42
-3.53
-4.46
-5.04
-5.19
-4.91
-4.26
-3.37
-2.35
-1.32
-0.36
0.46
1.14
1.67
2.05
2.26
2.29
2.18
2.02
1.95
2.08
2.40
2.82
3.15
3.20
2.90
2.31
1.56
0.74
-0.06
-0.86
-1.59
-2.17
-2.45
-2.25
-1.51
-0.33
1.09
2.47
3.57
4.29
4.68
4.83
4.90
4.95
4.96
4.83
4.47
3.90
3.26
2.78
2.65
2.92
3.43
3.91
4.13
4.02
3.66
3.23
2.80
2.33
1.67
0.71
-0.45
-1.50
-2.12
-2.10
-1.58
-0.94
-0.58
-0.72
-1.25
-1.81
-2.02
-1.73
-1.03
-0.20
0.50
1.03
1.52
2.18
3.06
4.00
4.68
4.81
4.28
3.24
2.06
1.12
0.66
0.74
1.22
1.78
2.15
2.10
1.58
0.71
-0.21
-0.84
-0.92
-0.39
0.59
1.72
2.75
3.54
4.11
4.56
4.95
5.27
5.40
5.24
4.78
4.17
3.61
3.25
3.11
3.01
2.69
1.93
0.70
-0.83
-2.38
-3.73
-4.78
-5.61
-6.36
-7.17
-8.07
-8.99
-9.84
-10.58
-11.21
-11.69
-11.95
-11.84
-11.14
-9.66
-7.36
-4.40
-1.17
1.79
3.93
4.86
4.44
2.86
0.51
-2.11
-4.59
-6.69
-8.35
-9.60
-10.52
-11.14
-11.42
-11.34
-10.92
-10.20
-9.25
-8.08
-6.63
-4.85
-2.75
-0.45
1.76
3.55
4.69
5.12
5.04
4.77
4.71
5.06
5.84
6.87
7.88
8.72
9.36
9.97
10.75
11.81
13.09
14.35
15.40
16.06
16.36
16.38
16.19
15.78
15.12
14.32
13.61
13.33
13.74
14.77
15.99
16.69
16.20
14.25
11.24
7.98
5.43
4.19
4.28
5.17
6.16
6.72
6.70
6.34
5.99
5.96
6.30
6.90
7.64
8.47
9.46
10.74
12.30
13.95
15.36
16.14
15.99
14.86
12.91
10.48
7.97
5.65
3.64
1.86
0.15
-1.60
-3.37
-4.99
-6.14
-6.51
-5.90
-4.40
-2.38
-0.42
0.88
1.13
0.28
-1.28
-2.97
-4.17
-4.49
-3.86
-2.45
-0.57
1.50
3.52
5.30
6.65
7.32
7.13
6.04
4.20
1.99
-0.19
-2.01
-3.33
-4.14
-4.51
-4.48
-3.99
-2.96
-1.41
0.55
2.63
4.46
5.70
6.17
5.84
4.87
3.50
2.02
0.67
-0.40
-1.07
-1.35
-1.25
-0.82
-0.14
0.68
1.47
2.07
2.33
2.19
1.74
1.12
0.49
-0.07
-0.56
-1.12
-1.83
-2.67
-3.50
-4.09
-4.18
-3.69
-2.70
-1.46
-0.29
0.58
1.02
1.06
0.83
0.50
0.23
0.14
0.29
0.69
1.28
1.94
2.51
2.89
3.02
2.89
2.57
2.09
1.49
0.80
0.03
-0.79
-1.54
-2.14
-2.56
-2.79
-2.91
-2.99
-3.05
-3.04
-2.85
-2.39
-1.62
-0.57
0.73
2.20
3.85
5.62
7.35
8.75
9.46
9.28
8.24
6.71
5.18
4.11
3.66
3.73
4.01
4.26
4.34
4.36
4.45
4.68
5.02
5.29
5.29
4.88
4.01
2.66
0.81
-1.52
-4.25
-7.11
-9.73
-11.72
-12.78
-12.91
-12.31
-11.37
-10.46
-9.78
-9.33
-8.94
-8.32
-7.32
-5.86
-4.02
-1.96
0.07
1.84
3.18
3.98
4.23
4.02
3.49
2.77
1.96
1.14
0.37
-0.32
-0.98
-1.70
-2.62
-3.82
-5.22
-6.56
-7.47
-7.61
-6.84
-5.32
-3.40
-1.52
0.06
1.26
2.22
3.08
3.93
4.74
5.36
5.62
5.43
4.87
4.09
3.28
2.60
2.09
1.70
1.35
0.94
0.45
-0.11
-0.77
-1.58
-2.64
-3.99
-5.57
-7.10
-8.18
-8.44
-7.65
-5.87
-3.41
-0.70
1.80
3.79
5.16
5.96
6.33
6.41
6.31
6.07
5.73
5.30
4.84
4.43
4.13
3.99
3.98
3.99
3.92
3.66
3.14
2.31
1.14
-0.41
-2.36
-4.61
-6.92
-8.92
-10.22
-10.51
-9.72
-8.00
-5.71
-3.23
-0.88
1.19
2.96
4.50
5.85
7.01
7.89
8.41
8.56
8.34
7.85
7.21
6.48
5.75
4.99
4.21
3.35
2.40
1.29
0.00
-1.48
-3.11
-4.69
-6.01
-6.75
-6.72
-5.84
-4.27
-2.31
-0.33
1.36
2.56
3.26
3.52
3.47
3.23
2.80
2.22
1.47
0.57
-0.41
-1.37
-2.20
-2.82
-3.18
-3.29
-3.19
-2.99
-2.82
-2.85
-3.24
-4.04
-5.12
-6.14
-6.68
-6.34
-5.03
-3.04
-0.93
0.76
1.69
1.98
1.98
2.09
2.52
3.16
3.72
3.92
3.68
3.11
2.42
1.75
1.10
0.34
-0.57
-1.59
-2.53
-3.24
-3.74
-4.28
-5.22
-6.77
-8.82
-10.88
-12.25
-12.33
-10.95
-8.42
-5.34
-2.35
0.13
2.00
3.38
4.43
5.25
5.82
6.09
6.00
5.53
4.72
3.65
2.41
1.07
-0.28
-1.57
-2.80
-3.95
-5.06
-6.16
-7.35
-8.76
-10.48
-12.47
-14.42
-15.79
-15.97
-14.55
-11.53
-7.29
-2.53
2.04
5.87
8.73
10.58
11.53
11.72
11.31
10.45
9.36
8.28
7.42
6.89
6.61
6.43
6.09
5.43
4.38
3.07
1.71
0.57
-0.17
-0.49
-0.52
-0.62
-1.17
-2.50
-4.63
-7.24
-9.62
-10.93
-10.53
-8.28
-4.54
-0.16
4.00
7.27
9.39
10.48
10.88
10.91
10.84
10.89
11.19
11.86
12.88
14.07
15.05
15.43
14.93
13.49
11.29
8.74
6.22
4.03
2.29
0.93
-0.30
-1.70
-3.57
-6.02
-8.98
-11.93
-14.11
-14.63
-12.80
-8.47
-2.17
5.03
11.83
17.09
20.18
20.98
19.87
17.49
14.55
11.80
9.94
9.44
10.23
11.54
11.81
9.19
2.26
-9.17
-23.63
-38.25
-49.68
-55.25
-53.90
-46.51
-35.43
-23.43
-12.73
-4.35
1.80
6.42
10.15
13.30
15.86
17.82
19.50
21.40
23.88
26.73
29.02
29.52
27.46
23.12
17.93
13.90
12.52
13.93
16.66
18.33
16.79
11.20
2.30
-8.08
-18.07
-26.67
-33.94
-40.60
-47.40
-54.47
-61.33
-67.06
-70.61
-70.93
-67.11
-58.44
-44.88
-27.44
-8.25
9.78
23.87
32.25
34.77
32.84
28.80
25.06
23.06
22.89
23.12
21.56
16.34
7.14
-3.99
-12.94
-14.97
-6.89
10.99
34.19
55.45
67.53
66.19
51.93
29.53
5.78
-13.34
-24.66
-28.18
-26.05
-21.19
-16.16
-12.91
-12.91
-17.09
-25.53
-36.89
-48.29
-55.74
-55.38
-45.03
-25.45
-0.77
22.17
35.85
34.76
17.91
-10.09
-40.21
-62.24
-68.76
-58.12
-34.87
-7.59
14.85
26.79
27.43
20.24
10.77
4.06
2.87
7.14
14.73
22.69
28.51
30.94
30.11
27.11
23.20
19.23
15.39
11.46
7.31
3.31
0.27
-1.03
-0.39
1.50
3.38
4.05
3.06
0.95
-1.11
-2.00
-1.32
0.41
2.09
2.61
1.46
-1.10
-4.18
-6.72
-7.96
-7.71
-6.38
-4.65
-3.19
-2.36
-2.13
-2.23
-2.36
-2.26
-1.85
-1.18
-0.45
0.01
-0.19
-1.27
-2.99
-4.62
-5.05
-3.45
0.17
4.65
8.16
9.02
6.62
1.76
-3.89
-8.73
-12.11
-14.62
-17.46
-21.50
-26.49
-31.08
-33.52
-32.69
-28.65
-22.66
-16.44
-11.30
-7.62
-4.87
-2.17
1.13
5.05
9.10
12.67
15.39
17.35
18.85
20.21
21.51
22.57
23.07
22.77
21.54
19.36
16.35
12.68
8.58
4.40
0.54
-2.63
-4.88
-6.16
-6.60
-6.45
-5.94
-5.18
-4.27
-3.24
-2.21
-1.34
-0.76
-0.52
-0.47
-0.39
-0.12
0.37
0.89
1.08
0.71
-0.30
-1.73
-3.18
-4.26
-4.70
-4.52
-3.94
-3.33
-3.05
-3.32
-4.18
-5.41
-6.67
-7.53
-7.69
-7.08
-5.82
-4.24
-2.65
-1.30
-0.29
0.40
0.82
1.00
0.98
0.80
0.53
0.29
0.22
0.39
0.79
1.32
1.78
2.01
1.91
1.44
0.63
-0.42
-1.62
-2.83
-3.85
-4.51
-4.67
-4.29
-3.47
-2.39
-1.22
-0.10
0.96
1.99
3.00
3.95
4.70
5.08
4.99
4.37
3.33
2.11
0.98
0.19
-0.14
-0.11
0.06
0.07
-0.29
-1.01
-1.94
-2.79
-3.29
-3.31
-2.89
-2.14
-1.21
-0.22
0.81
1.90
3.04
4.15
5.07
5.59
5.57
4.96
3.92
2.71
1.63
0.86
0.42
0.19
0.02
-0.17
-0.40
-0.60
-0.74
-0.87
-1.10
-1.52
-2.09
-2.60
-2.77
-2.31
-1.17
0.47
2.23
3.72
4.64
4.97
4.85
4.54
4.17
3.79
3.32
2.74
2.10
1.56
1.24
1.15
1.15
1.04
0.66
-0.02
-0.91
-1.90
-2.93
-4.01
-5.13
-6.21
-7.07
-7.50
-7.34
-6.60
-5.43
-4.07
-2.71
-1.48
-0.45
0.36
0.89
1.10
0.96
0.54
0.01
-0.48
-0.77
-0.82
-0.67
-0.39
-0.07
0.23
0.44
0.51
0.41
0.25
0.18
0.40
1.00
1.87
2.77
3.41
3.62
3.49
3.24
3.10
3.11
3.11
2.88
2.31
1.50
0.68
0.07
-0.27
-0.48
-0.74
-1.20
-1.86
-2.63
-3.39
-4.11
-4.81
-5.51
-6.12
-6.49
-6.47
-5.99
-5.09
-3.96
-2.78
-1.71
-0.86
-0.23
0.18
0.39
0.41
0.26
-0.00
-0.27
-0.46
-0.50
-0.39
-0.19
0.02
0.13
0.10
-0.08
-0.44
-0.95
-1.66
-2.57
-3.60
-4.58
-5.24
-5.32
-4.74
-3.58
-2.16
-0.83
0.17
0.75
1.06
1.30
1.63
2.05
2.40
2.49
2.23
1.66
0.95
0.31
-0.17
-0.51
-0.86
-1.43
-2.28
-3.37
-4.55
-5.65
-6.56
-7.31
-7.89
-8.26
-8.32
-7.90
-6.89
-5.31
-3.31
-1.13
0.97
2.80
4.24
5.25
5.86
6.15
6.21
6.17
6.09
5.99
5.86
5.63
5.24
4.63
3.74
2.61
1.35
0.16
-0.75
-1.28
-1.51
-1.65
-1.97
-2.65
-3.69
-4.90
-6.00
-6.74
-6.94
-6.56
-5.66
-4.39
-2.96
-1.58
-0.41
0.47
1.06
1.42
1.60
1.62
1.50
1.23
0.89
0.52
0.21
-0.01
-0.15
-0.28
-0.43
-0.64
-0.88
-1.09
-1.21
-1.19
-1.02
-0.79
-0.69
-0.95
-1.76
-3.15
-4.90
-6.64
-7.92
-8.35
-7.84
-6.50
-4.65
-2.65
-0.74
0.97
2.45
3.69
4.68
5.32
5.56
5.44
5.08
4.68
4.42
4.39
4.58
4.86
5.04
4.98
4.59
3.92
3.04
2.09
1.13
0.23
-0.59
-1.34
-2.02
-2.66
-3.36
-4.21
-5.30
-6.58
-7.87
-8.89
-9.31
-8.94
-7.79
-6.04
-4.04
-2.13
-0.54
0.63
1.48
2.16
2.85
3.65
4.53
5.38
6.11
6.60
6.88
7.03
7.14
7.33
7.63
8.03
8.41
8.64
8.55
8.05
7.11
5.81
4.31
2.83
1.49
0.34
-0.75
-1.91
-3.33
-5.05
-6.98
-8.93
-10.65
-11.84
-12.32
-11.97
-10.89
-9.29
-7.47
-5.74
-4.28
-3.15
-2.28
-1.51
-0.76
0.00
0.75
1.38
1.84
2.10
2.19
2.21
2.27
2.46
2.84
3.39
4.08
4.81
5.47
5.98
6.23
6.16
5.75
5.03
4.08
3.04
2.03
1.13
0.38
-0.29
-0.98
-1.81
-2.85
-4.00
-5.07
-5.76
-5.83
-5.25
-4.19
-3.04
-2.13
-1.66
-1.54
-1.51
-1.28
-0.75
0.01
0.78
1.33
1.56
1.53
1.39
1.27
1.25
1.35
1.49
1.63
1.73
1.78
1.73
1.56
1.26
0.87
0.41
-0.08
-0.58
-1.11
-1.71
-2.43
-3.31
-4.37
-5.57
-6.76
-7.71
-8.17
-7.99
-7.11
-5.70
-4.02
-2.31
-0.75
0.61
1.75
2.68
3.33
3.68
3.75
3.65
3.54
3.51
3.54
3.56
3.45
3.13
2.66
2.10
1.54
1.04
0.59
0.22
-0.06
-0.18
-0.12
0.05
0.16
0.01
-0.56
-1.62
-3.01
-4.46
-5.67
-6.32
-6.28
-5.56
-4.32
-2.81
-1.25
0.20
1.50
2.68
3.78
4.75
5.51
5.92
5.95
5.67
5.32
5.15
5.30
5.75
6.33
6.76
6.79
6.36
5.56
4.63
3.79
3.17
2.76
2.44
2.02
1.41
0.55
-0.56
-1.85
-3.26
-4.66
-5.89
-6.76
-7.11
-6.87
-6.03
-4.73
-3.13
-1.40
0.32
1.94
3.42
4.73
5.86
6.77
7.42
7.78
7.81
7.56
7.13
6.64
6.18
5.79
5.46
5.15
4.83
4.42
3.86
3.06
1.97
0.64
-0.77
-2.01
-2.90
-3.39
-3.60
-3.82
-4.32
-5.26
-6.61
-8.10
-9.38
-10.10
-10.09
-9.36
-8.06
-6.45
-4.78
-3.27
-2.11
-1.38
-1.11
-1.24
-1.58
-1.92
-2.07
-1.89
-1.38
-0.64
0.16
0.79
1.10
1.00
0.58
0.02
-0.41
-0.54
-0.32
0.07
0.39
0.39
-0.10
-1.10
-2.58
-4.41
-6.38
-8.25
-9.68
-10.35
-10.06
-8.87
-7.07
-5.09
-3.33
-2.03
-1.24
-0.83
-0.64
-0.47
-0.21
0.20
0.74
1.33
1.81
2.04
1.93
1.48
0.79
0.01
-0.72
-1.32
-1.73
-1.98
-2.12
-2.29
-2.65
-3.35
-4.41
-5.66
-6.78
-7.38
-7.17
-6.11
-4.43
-2.51
-0.75
0.63
1.59
2.21
2.66
3.07
3.53
4.02
4.52
4.96
5.28
5.42
5.38
5.22
5.02
4.84
4.64
4.32
3.79
3.04
2.22
1.52
1.08
0.91
0.83
0.57
-0.09
-1.25
-2.77
-4.37
-5.70
-6.47
-6.55
-5.99
-4.96
-3.70
-2.43
-1.30
-0.35
0.43
1.09
1.66
2.15
2.54
2.81
2.95
3.00
3.05
3.18
3.45
3.83
4.19
4.37
4.22
3.70
2.88
1.91
0.98
0.17
-0.48
-0.96
-1.29
-1.47
-1.51
-1.45
-1.40
-1.55
-2.08
-3.12
-4.60
-6.32
-7.94
-9.07
-9.43
-8.93
-7.69
-6.00
-4.17
-2.46
-1.01
0.16
1.09
1.83
2.39
2.81
3.10
3.31
3.50
3.68
3.85
3.99
4.04
3.95
3.71
3.33
2.84
2.32
1.79
1.26
0.62
-0.26
-1.51
-3.13
-4.99
-6.79
-8.20
-8.93
-8.81
-7.89
-6.40
-4.66
-3.01
-1.71
-0.89
-0.51
-0.43
-0.45
-0.41
-0.24
0.09
0.55
1.13
1.78
2.41
2.88
3.07
2.90
2.49
2.03
1.81
1.96
2.42
2.90
3.04
2.56
1.43
-0.17
-1.91
-3.42
-4.43
-4.80
-4.52
-3.71
-2.61
-1.47
-0.55
0.05
0.39
0.62
0.91
1.29
1.65
1.80
1.60
1.11
0.54
0.13
0.05
0.18
0.32
0.21
-0.22
-0.83
-1.38
-1.66
-1.64
-1.47
-1.40
-1.63
-2.29
-3.32
-4.56
-5.82
-6.83
-7.36
-7.21
-6.36
-4.97
-3.31
-1.73
-0.42
0.54
1.28
1.93
2.58
3.20
3.69
3.99
4.13
4.26
4.53
5.02
5.58
6.02
6.13
5.88
5.37
4.82
4.42
4.20
4.07
3.80
3.22
2.21
0.79
-0.95
-2.87
-4.77
-6.41
-7.53
-7.89
-7.39
-6.07
-4.20
-2.12
-0.23
1.20
2.10
2.53
2.68
2.70
2.72
2.76
2.79
2.80
2.79
2.79
2.84
2.95
3.14
3.44
3.79
4.14
4.40
4.49
4.40
4.12
3.70
3.18
2.58
1.95
1.33
0.80
0.39
0.11
-0.19
-0.69
-1.58
-2.96
-4.71
-6.48
-7.83
-8.36
-7.93
-6.69
-5.00
-3.32
-1.97
-1.08
-0.59
-0.31
-0.10
0.13
0.36
0.55
0.66
0.68
0.63
0.54
0.44
0.31
0.12
-0.19
-0.65
-1.21
-1.82
-2.38
-2.87
-3.36
-4.01
-4.90
-5.97
-7.02
-7.73
-7.83
-7.24
-6.10
-4.69
-3.33
-2.16
-1.20
-0.33
0.57
1.47
2.25
2.76
2.88
2.67
2.30
1.99
1.93
2.10
2.39
2.62
2.65
2.48
2.17
1.82
1.49
1.12
0.60
-0.16
-1.19
-2.41
-3.60
-4.52
-4.97
-4.86
-4.24
-3.26
-2.12
-0.95
0.13
1.15
2.11
3.03
3.87
4.55
5.02
5.27
5.35
5.32
5.31
5.41
5.72
6.26
6.96
7.65
8.13
8.24
8.00
7.62
7.37
7.44
7.80
8.23
8.48
8.45
8.30
8.37
8.89
9.82
10.80
11.41
11.45
11.16
11.13
12.02
14.24
17.72
22.00
26.53
30.93
35.01
38.73
41.91
44.13
44.91
43.95
41.43
38.12
35.02
32.87
31.79
31.07
29.59
26.43
21.30
14.74
7.67
0.89
-5.37
-11.40
-17.57
-23.73
-29.00
-32.09
-31.95
-28.51
-23.00
-17.53
-14.21
-14.25
-17.40
-22.14
-26.46
-28.67
-28.11
-25.25
-21.26
-17.41
-14.51
-12.72
-11.69
-10.94
-10.17
-9.34
-8.68
-8.41
-8.67
-9.44
-10.54
-11.77
-12.91
-13.80
-14.36
-14.59
-14.58
-14.54
-14.68
-15.14
-15.93
-16.91
-17.91
-18.87
-19.82
-20.86
-22.02
-23.13
-23.83
-23.78
-22.74
-20.74
-18.10
-15.20
-12.43
-10.03
-8.11
-6.67
-5.63
-4.93
-4.43
-4.00
-3.61
-3.24
-2.93
-2.69
-2.53
-2.44
-2.37
-2.31
-2.31
-2.40
-2.59
-2.87
-3.22
-3.69
-4.34
-5.18
-6.02
-6.51
-6.21
-4.85
-2.48
0.47
3.39
5.71
7.17
7.87
8.15
8.32
8.55
8.71
8.56
7.90
6.69
5.10
3.45
2.08
1.22
0.92
0.98
1.13
1.05
0.60
-0.18
-1.09
-1.91
-2.54
-3.05
-3.62
-4.39
-5.32
-6.18
-6.65
-6.46
-5.60
-4.25
-2.78
-1.46
-0.41
0.43
1.23
2.07
2.92
3.64
4.09
4.22
4.08
3.79
3.44
3.04
2.54
1.87
1.04
0.14
-0.72
-1.45
-2.08
-2.72
-3.52
-4.53
-5.67
-6.66
-7.23
-7.17
-6.47
-5.31
-3.97
-2.71
-1.71
-0.92
-0.23
0.48
1.25
2.05
2.76
3.30
3.68
3.95
4.21
4.53
4.87
5.14
5.21
5.00
4.52
3.86
3.13
2.40
1.65
0.78
-0.33
-1.78
-3.58
-5.60
-7.59
-9.22
-10.13
-10.11
-9.13
-7.39
-5.28
-3.22
-1.53
-0.33
0.42
0.92
1.34
1.83
2.42
3.11
3.80
4.45
4.96
5.29
5.32
4.99
4.27
3.22
1.97
0.76
-0.19
-0.74
-0.88
-0.78
-0.73
-1.04
-1.83
-3.05
-4.40
-5.51
-6.00
-5.68
-4.64
-3.17
-1.68
-0.54
0.06
0.17
-0.05
-0.35
-0.51
-0.41
0.01
0.70
1.54
2.31
2.72
2.57
1.78
0.50
-0.89
-1.98
-2.49
-2.41
-2.05
-1.85
-2.24
-3.39
-5.18
-7.22
-8.98
-10.03
-10.12
-9.26
-7.68
-5.72
-3.69
-1.79
-0.12
1.32
2.50
3.39
3.93
4.14
4.08
3.88
3.61
3.32
3.00
2.68
2.45
2.38
2.52
2.74
2.84
2.63
2.02
1.05
-0.08
-1.24
-2.39
-3.61
-4.94
-6.30
-7.46
-8.09
-7.95
-7.02
-5.51
-3.75
-2.09
-0.72
0.32
1.12
1.84
2.60
3.46
4.38
5.20
5.78
5.94
5.64
4.96
4.12
3.38
2.92
2.72
2.66
2.51
2.15
1.60
0.95
0.29
-0.41
-1.28
-2.36
-3.50
-4.34
-4.40
-3.35
-1.18
1.73
4.76
7.35
9.17
10.25
10.79
11.03
11.06
10.83
10.27
9.38
8.35
7.46
6.98
6.95
7.19
7.33
6.99
5.97
4.31
2.33
0.41
-1.15
-2.25
-3.02
-3.68
-4.57
-5.83
-7.47
-9.23
-10.68
-11.39
-11.05
-9.66
-7.51
-5.11
-2.90
-1.15
0.19
1.32
2.48
3.77
5.05
6.15
6.92
7.32
7.36
7.09
6.54
5.76
4.85
3.93
3.18
2.71
2.51
2.49
2.47
2.21
1.43
-0.02
-2.13
-4.55
-6.69
-7.96
-8.05
-7.08
-5.53
-3.91
-2.45
-1.02
0.74
2.97
5.47
7.64
8.87
8.88
7.93
6.66
5.69
5.32
5.39
5.47
5.13
4.21
2.87
1.52
0.52
0.05
0.04
0.19
0.18
-0.24
-1.13
-2.44
-4.02
-5.69
-7.29
-8.65
-9.60
-10.02
-9.81
-8.97
-7.57
-5.77
-3.77
-1.71
0.34
2.38
4.44
6.51
8.47
10.14
11.29
11.80
11.66
11.02
10.08
9.01
7.86
6.63
5.28
3.83
2.36
1.04
-0.03
-0.79
-1.30
-1.69
-2.08
-2.61
-3.33
-4.21
-5.14
-5.97
-6.48
-6.50
-5.97
-4.98
-3.75
-2.50
-1.38
-0.43
0.44
1.32
2.22
3.08
3.75
4.15
4.29
4.30
4.35
4.53
4.77
4.94
4.83
4.31
3.44
2.39
1.38
0.60
0.09
-0.24
-0.55
-1.01
-1.66
-2.47
-3.32
-4.07
-4.57
-4.68
-4.26
-3.26
-1.76
0.01
1.68
2.96
3.65
3.80
3.64
3.46
3.42
3.57
3.75
3.79
3.61
3.26
2.92
2.74
2.80
2.98
3.05
2.77
2.00
0.77
-0.78
-2.52
-4.42
-6.51
-8.80
-11.09
-12.96
-13.86
-13.41
-11.58
-8.78
-5.70
-3.02
-1.12
0.01
0.63
1.07
1.54
2.06
2.57
3.01
3.36
3.64
3.88
4.03
4.10
4.10
4.11
4.16
4.18
4.06
3.59
2.64
1.24
-0.48
-2.30
-3.95
-5.21
-5.92
-6.02
-5.51
-4.53
-3.23
-1.83
-0.48
0.64
1.38
1.69
1.54
1.01
0.31
-0.28
-0.53
-0.37
0.12
0.70
1.19
1.46
1.54
1.50
1.39
1.17
0.74
0.04
-0.95
-2.16
-3.49
-4.81
-5.99
-6.83
-7.11
-6.66
-5.42
-3.50
-1.22
1.05
2.99
4.42
5.36
5.95
6.34
6.60
6.73
6.65
6.30
5.71
5.01
4.44
4.15
4.23
4.58
4.97
5.20
5.12
4.77
4.22
3.60
2.94
2.21
1.31
0.18
-1.17
-2.68
-4.24
-5.74
-7.05
-8.00
-8.39
-8.04
-6.92
-5.13
-2.91
-0.61
1.49
3.20
4.50
5.41
6.02
6.40
6.56
6.47
6.17
5.72
5.26
4.91
4.77
4.83
4.97
4.99
4.73
4.10
3.14
2.03
0.99
0.19
-0.34
-0.67
-1.00
-1.50
-2.29
-3.34
-4.59
-5.88
-7.08
-8.01
-8.46
-8.31
-7.42
-5.82
-3.76
-1.57
0.34
1.73
2.53
2.88
2.97
2.95
2.83
2.65
2.41
2.18
2.04
2.02
2.04
1.92
1.49
0.70
-0.34
-1.36
-2.14
-2.62
-2.95
-3.43
-4.31
-5.61
-7.11
-8.41
-9.07
-8.82
-7.61
-5.67
-3.38
-1.10
0.87
2.39
3.43
4.05
4.28
4.16
3.70
2.97
2.04
1.11
0.30
-0.27
-0.60
-0.83
-1.10
-1.51
-2.07
-2.67
-3.18
-3.54
-3.78
-4.07
-4.60
-5.50
-6.71
-7.93
-8.76
-8.78
-7.81
-5.94
-3.56
-1.19
0.71
1.89
2.38
2.36
2.13
1.90
1.79
1.82
1.97
2.21
2.49
2.73
2.85
2.79
2.54
2.21
1.97
1.91
2.07
2.30
2.35
2.03
1.22
-0.01
-1.38
-2.58
-3.27
-3.25
-2.52
-1.24
0.29
1.74
2.85
3.51
3.74
3.70
3.56
3.47
3.50
3.66
3.90
4.14
4.32
4.40
4.36
4.19
3.91
3.52
3.06
2.55
2.06
1.60
1.17
0.72
0.18
-0.53
-1.47
-2.69
-4.16
-5.74
-7.19
-8.16
-8.35
-7.61
-6.03
-3.95
-1.82
-0.02
1.22
1.87
2.07
1.99
1.83
1.72
1.77
2.03
2.48
3.05
3.62
4.06
4.23
4.08
3.61
2.83
1.86
0.80
-0.24
-1.27
-2.30
-3.38
-4.53
-5.64
-6.54
-6.98
-6.78
-5.88
-4.38
-2.50
-0.53
1.25
2.66
3.60
4.09
4.21
4.10
3.82
3.45
2.98
2.41
1.78
1.15
0.61
0.22
-0.04
-0.24
-0.53
-1.04
-1.85
-2.94
-4.25
-5.69
-7.17
-8.58
-9.80
-10.62
-10.81
-10.18
-8.69
-6.54
-4.13
-1.90
-0.16
1.03
1.82
2.47
3.20
4.05
4.92
5.64
6.11
6.30
6.33
6.32
6.33
6.31
6.12
5.62
4.76
3.59
2.21
0.69
-0.99
-2.91
-5.10
-7.40
-9.46
-10.84
-11.20
-10.44
-8.80
-6.72
-4.68
-2.97
-1.68
-0.70
0.13
0.92
1.61
2.07
2.17
1.93
1.54
1.27
1.39
1.96
2.80
3.60
4.08
4.11
3.77
3.29
2.86
2.57
2.32
1.93
1.18
-0.02
-1.64
-3.48
-5.24
-6.57
-7.21
-7.09
-6.24
-4.85
-3.11
-1.21
0.71
2.51
4.02
5.07
5.57
5.50
5.05
4.50
4.13
4.12
4.47
5.02
5.59
5.99
6.17
6.15
6.01
5.77
5.37
4.73
3.76
2.45
0.87
-0.88
-2.70
-4.53
-6.24
-7.67
-8.59
-8.76
-8.11
-6.72
-4.91
-3.06
-1.47
-0.27
0.62
1.38
2.16
2.97
3.67
4.06
4.03
3.63
3.00
2.36
1.85
1.51
1.29
1.14
1.03
0.95
0.88
0.65
0.09
-1.00
-2.65
-4.68
-6.69
-8.21
-8.82
-8.34
-6.92
-4.91
-2.77
-0.90
0.54
1.58
2.36
2.99
3.46
3.65
3.44
2.78
1.80
0.74
-0.11
-0.54
-0.53
-0.22
0.15
0.33
0.15
-0.43
-1.35
-2.47
-3.68
-4.84
-5.79
-6.35
-6.31
-5.57
-4.18
-2.35
-0.43
1.24
2.47
3.20
3.53
3.59
3.45
3.16
2.71
2.10
1.39
0.68
0.07
-0.34
-0.54
-0.57
-0.58
-0.79
-1.35
-2.40
-3.85
-5.56
-7.29
-8.80
-9.85
-10.28
-9.97
-8.95
-7.34
-5.34
-3.23
-1.21
0.60
2.14
3.43
4.46
5.18
5.52
5.47
5.06
4.42
3.70
3.06
2.57
2.24
2.00
1.79
1.51
1.12
0.62
0.01
-0.75
-1.74
-3.01
-4.51
-6.01
-7.14
-7.52
-6.96
-5.57
-3.72
-1.85
-0.29
0.89
1.80
2.60
3.36
4.04
4.45
4.51
4.26
3.88
3.61
3.60
3.81
4.09
4.28
4.28
4.13
3.93
3.77
3.68
3.58
3.37
2.98
2.39
1.58
0.59
-0.60
-1.91
-3.18
-4.11
-4.35
-3.73
-2.31
-0.44
1.36
2.67
3.33
3.52
3.58
3.86
4.50
5.44
6.45
7.28
7.75
7.86
7.73
7.52
7.48
7.77
8.48
9.58
10.86
12.01
12.70
12.72
12.08
11.09
10.31
10.44
12.01
15.20
19.65
24.56
28.97
32.16
33.98
34.90
35.85
37.69
40.71
44.25
46.72
46.06
40.41
28.92
12.00
-8.77
-31.18
-53.14
-73.05
-90.03
-103.70
-114.03
-121.21
-125.76
-128.36
-129.64
-129.76
-128.24
-124.10
-116.53
-105.57
-92.46
-79.42
-68.77
-62.08
-59.48
-59.79
-61.13
-61.91
-61.48
-60.47
-60.44
-63.18
-69.87
-80.56
-94.17
-108.90
-122.94
-135.02
-144.59
-151.74
-156.99
-161.10
-164.94
-169.19
-173.78
-177.49
-177.93
-172.27
-158.22
-135.22
-104.57
-68.79
-30.25
10.00
53.06
101.65
158.80
225.80
300.40
376.39
444.83
496.83
526.72
534.18
524.11
504.21
481.65
460.38
440.58
420.18
397.12
371.03
343.19
315.22
287.65
259.30
227.90
191.49
149.30
101.95
51.04
-1.56
-53.88
-103.60
-147.76
-182.97
-206.16
-215.74
-212.29
-198.51
-178.34
-155.73
-133.73
-114.24
-98.22
-86.13
-77.95
-73.16
-70.55
-68.53
-65.67
-61.31
-55.88
-50.65
-47.27
-46.98
-50.13
-56.02
-63.05
-69.18
-72.50
-71.80
-67.02
-59.33
-50.80
-43.71
-39.65
-39.03
-40.88
-43.42
-44.74
-43.54
-39.39
-32.59
-23.83
-13.92
-3.75
5.63
13.03
17.29
17.65
14.11
7.60
-0.25
-7.57
-12.81
-15.18
-14.71
-12.18
-8.60
-5.02
-2.08
0.01
1.40
2.44
3.35
4.17
4.68
4.61
3.79
2.31
0.44
-1.43
-2.98
-4.06
-4.64
-4.79
-4.51
-3.84
-2.79
-1.48
-0.14
0.99
1.68
1.86
1.58
1.04
0.46
-0.02
-0.32
-0.53
-0.73
-1.01
-1.36
-1.70
-1.93
-1.89
-1.53
-0.85
0.06
1.03
1.87
2.38
2.46
2.03
1.12
-0.20
-1.81
-3.55
-5.19
-6.46
-7.15
-7.22
-6.87
-6.48
-6.44
-7.02
-8.17
-9.57
-10.81
-11.62
-11.95
-12.01
-12.04
-12.21
-12.51
-12.74
-12.73
-12.40
-11.81
-11.05
-10.22
-9.34
-8.41
-7.42
-6.41
-5.46
-4.61
-3.89
-3.31
-2.87
-2.57
-2.41
-2.34
-2.26
-2.05
-1.69
-1.29
-1.05
-1.15
-1.65
-2.42
-3.19
-3.72
-3.94
-3.97
-4.04
-4.41
-5.11
-6.02
-6.88
-7.44
-7.60
-7.47
-7.23
-7.07
-7.04
-7.09
-7.13
-7.13
-7.17
-7.42
-7.94
-8.71
-9.50
-10.02
-10.09
-9.70
-9.05
-8.39
-7.97
-7.84
-7.93
-8.10
-8.15
-8.01
-7.62
-7.05
-6.34
-5.55
-4.73
-3.96
-3.33
-2.94
-2.86
-3.10
-3.57
-4.16
-4.76
-5.28
-5.71
-6.08
-6.44
-6.80
-7.20
-7.59
-7.94
-8.21
-8.34
-8.31
-8.13
-7.86
-7.58
-7.36
-7.21
-7.09
-6.90
-6.58
-6.09
-5.47
-4.83
-4.27
-3.87
-3.63
-3.52
-3.41
-3.19
-2.78
-2.18
-1.44
-0.67
0.03
0.60
1.01
1.29
1.47
1.57
1.59
1.51
1.28
0.85
0.12
-0.87
-2.06
-3.26
-4.26
-4.90
-5.06
-4.78
-4.14
-3.25
-2.20
-1.12
-0.09
0.78
1.43
1.81
1.96
2.01
2.09
2.31
2.76
3.43
4.23
5.05
5.71
6.10
6.14
5.90
5.50
5.06
4.67
4.28
3.81
3.19
2.44
1.65
0.91
0.24
-0.42
-1.18
-2.07
-3.06
-4.03
-4.85
-5.41
-5.68
-5.59
-5.14
-4.34
-3.30
-2.22
-1.31
-0.75
-0.59
-0.75
-1.08
-1.41
-1.65
-1.72
-1.60
-1.33
-1.00
-0.78
-0.81
-1.12
-1.64
-2.16
-2.49
-2.53
-2.28
-1.88
-1.49
-1.25
-1.22
-1.37
-1.67
-2.08
-2.55
-3.03
-3.48
-3.81
-3.91
-3.68
-3.08
-2.17
-1.12
-0.15
0.59
1.02
1.22
1.36
1.56
1.87
2.20
2.43
2.40
2.11
1.60
1.02
0.47
0.02
-0.33
-0.63
-0.97
-1.41
-1.97
-2.64
-3.29
-3.84
-4.22
-4.40
-4.41
-4.30
-4.09
-3.82
-3.55
-3.38
-3.45
-3.85
-4.52
-5.31
-5.99
-6.34
-6.26
-5.78
-5.03
-4.19
-3.40
-2.76
-2.33
-2.12
-2.13
-2.34
-2.71
-3.19
-3.79
-4.49
-5.30
-6.16
-6.99
-7.68
-8.17
-8.40
-8.36
-8.09
-7.70
-7.31
-7.05
-7.03
-7.30
-7.83
-8.55
-9.35
-10.16
-10.98
-11.84
-12.81
-13.88
-15.00
-16.01
-16.68
-16.77
-16.11
-14.65
-12.42
-9.55
-6.23
-2.71
0.67
3.53
5.47
6.32
6.17
5.40
4.56
4.12
4.35
5.19
6.41
7.71
8.93
10.04
11.13
12.33
13.67
15.12
16.58
17.93
19.10
19.99
20.57
20.72
20.32
19.22
17.41
14.97
12.18
9.40
6.98
5.13
3.91
3.26
2.97
2.88
2.82
2.66
2.40
2.05
1.66
1.26
0.91
0.64
0.50
0.58
0.90
1.39
1.91
2.23
2.21
1.85
1.30
0.77
0.44
0.30
0.25
0.14
-0.15
-0.62
-1.20
-1.80
-2.34
-2.78
-3.11
-3.29
-3.25
-2.97
-2.39
-1.58
-0.66
0.24
0.95
1.38
1.52
1.42
1.18
0.87
0.44
-0.18
-1.06
-2.19
-3.47
-4.70
-5.76
-6.70
-7.65
-8.82
-10.32
-12.05
-13.80
-15.25
-16.24
-16.76
-16.99
-17.09
-17.16
-17.14
-16.90
-16.31
-15.34
-14.11
-12.84
-11.83
-11.32
-11.44
-12.13
-13.23
-14.42
-15.31
-15.51
-14.65
-12.50
-9.04
-4.53
0.47
5.25
9.18
11.92
13.52
14.37
14.99
15.80
16.92
18.27
19.63
20.78
21.63
22.20
22.56
22.77
22.91
22.99
23.03
23.04
23.06
23.15
23.36
23.68
24.06
24.43
24.72
24.94
25.23
25.78
26.69
27.97
29.44
30.80
31.80
32.31
32.43
32.44
32.65
33.30
34.42
35.89
37.54
39.30
41.30
43.82
47.21
51.60
56.81
62.33
67.51
71.93
75.66
79.30
83.77
89.88
97.79
106.73
114.94
120.10
119.83
112.49
97.56
75.99
50.06
22.92
-1.94
-21.48
-33.73
-38.42
-36.98
-32.27
-27.69
-26.13
-29.07
-36.28
-46.22
-56.79
-66.29
-73.93
-79.89
-84.90
-89.61
-94.30
-98.86
-103.09
-107.00
-110.88
-115.13
-119.95
-125.15
-130.12
-134.08
-136.36
-136.67
-135.12
-132.21
-128.55
-124.76
-121.35
-118.68
-116.90
-115.94
-115.25
-113.80
-110.21
-103.06
-91.54
-75.92
-57.80
-39.89
-25.27
-16.35
-14.00
-17.41
-24.56
-33.37
-42.68
-52.73
-64.55
-78.96
-95.55
-112.14
-125.27
-131.26
-127.35
-112.34
-87.16
-55.17
-22.15
4.52
17.94
14.44
-4.18
-30.46
-53.46
-62.75
-52.34
-22.79
19.42
64.81
104.39
132.33
146.80
149.13
142.34
129.79
114.51
99.03
85.42
75.13
69.01
66.94
67.84
69.80
70.82
69.66
66.37
62.24
59.05
58.02
59.26
61.70
63.66
63.70
61.25
56.74
51.31
46.28
42.59
40.44
39.45
38.97
38.42
37.56
36.39
35.05
33.58
31.99
30.27
28.48
26.74
25.10
23.52
21.82
19.85
17.54
15.01
12.48
10.12
8.00
6.07
4.29
2.66
1.29
0.32
-0.21
-0.31
-0.12
0.21
0.56
0.88
1.15
1.31
1.33
1.12
0.66
-0.00
-0.72
-1.30
-1.62
-1.62
-1.44
-1.27
-1.30
-1.63
-2.17
-2.69
-2.95
-2.82
-2.37
-1.86
-1.60
-1.86
-2.65
-3.78
-4.86
-5.52
-5.52
-4.86
-3.72
-2.40
-1.17
-0.17
0.60
1.25
1.88
2.52
3.11
3.51
3.64
3.49
3.20
3.03
3.19
3.75
4.62
5.53
6.20
6.36
5.93
4.95
3.54
1.88
0.15
-1.51
-2.97
-4.17
-5.08
-5.70
-5.99
-5.98
-5.69
-5.20
-4.65
-4.23
-4.10
-4.36
-4.95
-5.69
-6.37
-6.79
-6.90
-6.73
-6.40
-5.99
-5.54
-5.00
-4.37
-3.64
-2.87
-2.18
-1.68
-1.40
-1.28
-1.17
-0.88
-0.20
0.99
2.65
4.60
6.52
8.11
9.21
9.83
10.08
10.12
10.01
9.74
9.22
8.41
7.38
6.24
5.08
3.89
2.61
1.18
-0.35
-1.79
-2.90
-3.47
-3.45
-2.94
-2.16
-1.31
-0.50
0.31
1.21
2.26
3.41
4.46
5.17
5.36
4.98
4.18
3.25
2.48
2.06
2.03
2.30
2.72
3.14
3.50
3.76
3.93
3.96
3.82
3.44
2.78
1.92
1.00
0.28
-0.04
0.15
0.77
1.67
2.62
3.45
4.10
4.61
5.00
5.28
5.36
5.20
4.79
4.21
3.62
3.18
3.00
3.10
3.40
3.73
3.94
3.91
3.63
3.18
2.71
2.30
1.89
1.44
0.84
0.15
-0.48
-0.81
-0.68
-0.10
0.69
1.40
1.78
1.78
1.52
1.18
0.85
0.53
0.11
-0.48
-1.22
-1.97
-2.52
-2.70
-2.45
-1.88
-1.25
-0.85
-0.87
-1.31
-1.94
-2.50
-2.72
-2.51
-2.03
-1.51
-1.16
-1.03
-0.99
-0.83
-0.46
0.09
0.65
0.99
1.03
0.81
0.56
0.44
0.52
0.71
0.78
0.51
-0.20
-1.34
-2.78
-4.32
-5.76
-6.89
-7.56
-7.73
-7.42
-6.75
-5.87
-4.88
-3.78
-2.59
-1.30
-0.02
1.01
1.57
1.57
1.11
0.44
-0.12
-0.41
-0.39
-0.15
0.15
0.47
0.78
1.10
1.32
1.32
0.94
0.18
-0.79
-1.67
-2.14
-1.97
-1.18
0.09
1.58
3.04
4.35
5.46
6.36
7.03
7.41
7.45
7.14
6.58
5.93
5.34
4.90
4.58
4.27
3.85
3.20
2.30
1.22
0.07
-1.00
-1.82
-2.27
-2.28
-1.88
-1.21
-0.43
0.32
0.99
1.63
2.31
3.05
3.78
4.35
4.67
4.70
4.55
4.39
4.38
4.60
4.99
5.40
5.66
5.69
5.50
5.23
4.99
4.78
4.49
3.95
3.11
2.05
1.06
0.43
0.38
0.91
1.76
2.67
3.38
3.80
3.98
4.05
4.08
4.11
4.12
4.03
3.83
3.54
3.25
3.05
3.01
3.09
3.15
3.05
2.73
2.25
1.75
1.30
0.91
0.41
-0.40
-1.60
-3.04
-4.35
-5.10
-5.01
-4.12
-2.73
-1.29
-0.11
0.67
1.17
1.56
1.97
2.35
2.58
2.56
2.38
2.24
2.36
2.80
3.35
3.68
3.49
2.68
1.36
-0.21
-1.86
-3.49
-5.14
-6.84
-8.46
-9.74
-10.41
-10.25
-9.33
-7.86
-6.15
-4.47
-2.97
-1.64
-0.43
0.75
1.93
3.08
4.15
5.10
5.86
6.40
6.63
6.51
5.99
5.15
4.06
2.84
1.55
0.23
-1.10
-2.42
-3.62
-4.60
-5.21
-5.35
-4.95
-4.02
-2.66
-1.02
0.75
2.48
4.06
5.42
6.50
7.26
7.67
7.73
7.50
7.09
6.65
6.24
5.90
5.53
5.09
4.55
3.98
3.53
3.27
3.26
3.39
3.51
3.42
2.99
2.15
0.94
-0.48
-1.88
-3.03
-3.70
-3.81
-3.44
-2.84
-2.26
-1.94
-1.90
-1.98
-1.96
-1.62
-0.93
-0.03
0.91
1.70
2.31
2.79
3.23
3.62
3.90
3.95
3.73
3.24
2.62
1.98
1.39
0.82
0.19
-0.56
-1.46
-2.49
-3.59
-4.70
-5.73
-6.57
-7.03
-6.97
-6.33
-5.16
-3.64
-2.02
-0.53
0.68
1.53
2.00
2.10
1.90
1.50
1.09
0.84
0.86
1.16
1.59
2.03
2.31
2.42
2.35
2.18
1.92
1.52
0.91
0.06
-1.04
-2.30
-3.62
-4.85
-5.83
-6.44
-6.54
-6.08
-5.09
-3.68
-2.07
-0.53
0.68
1.41
1.64
1.54
1.34
1.25
1.39
1.71
2.08
2.35
2.43
2.34
2.13
1.87
1.57
1.19
0.68
-0.01
-0.90
-2.01
-3.29
-4.66
-5.96
-6.94
-7.41
-7.22
-6.40
-5.08
-3.45
-1.70
0.02
1.58
2.90
3.94
4.68
5.13
5.39
5.54
5.69
5.87
6.07
6.21
6.18
5.93
5.42
4.69
3.86
3.07
2.44
1.96
1.51
0.89
-0.06
-1.39
-2.90
-4.28
-5.26
-5.69
-5.60
-5.14
-4.39
-3.26
-1.62
0.53
2.98
5.24
6.80
7.40
7.15
6.47
5.83
5.48
5.37
5.22
4.74
3.89
2.89
2.11
1.83
2.18
3.02
4.09
5.12
5.91
6.36
6.38
5.89
4.83
3.16
1.01
-1.30
-3.33
-4.68
-5.09
-4.55
-3.26
-1.53
0.25
1.77
2.79
3.20
3.09
2.75
2.52
2.68
3.31
4.22
5.10
5.66
5.83
5.80
5.89
6.38
7.35
8.62
9.87
10.76
11.06
10.63
9.51
7.84
5.94
4.20
3.07
2.87
3.64
5.19
7.11
8.98
10.47
11.44
11.95
12.16
12.23
12.37
12.73
13.41
14.40
15.57
16.74
17.73
18.55
19.28
20.06
20.83
21.21
20.62
18.54
14.86
10.02
4.89
0.37
-2.96
-5.01
-6.00
-6.21
-5.77
-4.71
-3.15
-1.41
-0.04
0.45
-0.23
-2.02
-4.56
-7.44
-10.27
-12.72
-14.44
-15.11
-14.52
-12.66
-9.81
-6.42
-2.97
0.10
2.42
3.63
3.43
1.65
-1.56
-5.69
-9.91
-13.36
-15.39
-15.82
-14.89
-13.12
-11.06
-9.12
-7.47
-6.12
-5.04
-4.21
-3.68
-3.45
-3.51
-3.76
-4.03
-4.18
-4.16
-4.04
-3.98
-4.18
-4.79
-5.84
-7.21
-8.71
-10.05
-11.01
-11.44
-11.35
-10.87
-10.23
-9.63
-9.20
-8.96
-8.91
-8.99
-9.18
-9.45
-9.74
-9.92
-9.84
-9.37
-8.47
-7.28
-6.07
-5.13
-4.68
-4.76
-5.24
-5.86
-6.37
-6.61
-6.57
-6.32
-5.99
-5.67
-5.43
-5.29
-5.30
-5.48
-5.85
-6.38
-6.93
-7.35
-7.43
-7.03
-6.13
-4.82
-3.28
-1.76
-0.55
0.18
0.31
-0.15
-1.05
-2.19
-3.37
-4.41
-5.18
-5.62
-5.66
-5.28
-4.48
-3.36
-2.12
-0.97
-0.10
0.45
0.82
1.19
1.73
2.44
3.17
3.68
3.78
3.52
3.04
2.62
2.39
2.38
2.44
2.41
2.20
1.85
1.45
1.06
0.66
0.20
-0.42
-1.18
-2.03
-2.85
-3.50
-3.91
-4.04
-3.92
-3.62
-3.26
-2.93
-2.71
-2.59
-2.53
-2.41
-2.15
-1.63
-0.85
0.14
1.20
2.17
2.91
3.27
3.11
2.33
0.89
-1.07
-3.22
-5.12
-6.38
-6.77
-6.36
-5.41
-4.21
-2.95
-1.69
-0.45
0.72
1.63
2.08
1.96
1.33
0.45
-0.40
-1.01
-1.34
-1.51
-1.71
-2.11
-2.78
-3.66
-4.63
-5.50
-6.11
-6.39
-6.38
-6.21
-6.08
-6.15
-6.41
-6.78
-7.06
-7.10
-6.86
-6.45
-6.06
-5.90
-6.05
-6.46
-6.98
-7.38
-7.50
-7.27
-6.70
-5.95
-5.23
-4.80
-4.83
-5.38
-6.31
-7.34
-8.15
-8.45
-8.16
-7.41
-6.40
-5.39
-4.55
-3.89
-3.35
-2.83
-2.27
-1.66
-1.08
-0.56
-0.15
0.13
0.29
0.28
0.09
-0.31
-0.93
-1.72
-2.65
-3.66
-4.64
-5.43
-5.85
-5.71
-4.91
-3.61
-2.10
-0.76
0.07
0.31
0.10
-0.28
-0.58
-0.68
-0.66
-0.64
-0.67
-0.71
-0.60
-0.25
0.29
0.87
1.27
1.35
1.12
0.69
0.20
-0.28
-0.72
-1.10
-1.32
-1.22
-0.69
0.33
1.71
3.18
4.49
5.48
6.17
6.67
7.14
7.70
8.32
8.88
9.25
9.32
9.09
8.66
8.17
7.73
7.39
7.10
6.78
6.32
5.70
4.92
4.04
3.09
2.10
1.09
0.16
-0.53
-0.79
-0.55
0.13
0.97
1.66
1.97
1.90
1.62
1.47
1.66
2.24
3.04
3.81
4.36
4.59
4.54
4.34
4.14
4.05
4.12
4.34
4.67
5.02
5.27
5.29
5.00
4.39
3.54
2.62
1.87
1.54
1.81
2.77
4.28
6.06
7.70
8.83
9.23
8.92
8.13
7.18
6.32
5.66
5.20
4.86
4.58
4.38
4.32
4.40
4.54
4.54
4.20
3.42
2.24
0.83
-0.60
-1.85
-2.79
-3.33
-3.42
-3.04
-2.20
-1.02
0.34
1.68
2.79
3.59
4.06
4.29
4.40
4.46
4.53
4.62
4.75
4.95
5.28
5.78
6.43
7.15
7.84
8.36
8.64
8.65
8.46
8.18
7.94
7.89
8.12
8.70
9.65
10.96
12.61
14.54
16.66
18.86
21.06
23.20
25.25
27.13
28.68
29.66
29.91
29.41
28.36
26.98
25.38
23.46
20.99
17.92
14.54
11.42
9.22
8.24
8.29
8.79
9.17
9.17
8.98
9.05
9.65
10.62
11.48
11.66
10.81
9.04
6.82
4.73
3.20
2.45
2.44
3.06
4.10
5.36
6.60
7.47
7.69
7.16
6.15
5.21
4.93
5.67
7.25
8.96
9.87
9.29
7.20
4.28
1.58
-0.03
-0.42
-0.24
-0.73
-2.98
-7.41
-13.42
-19.46
-23.53
-23.84
-19.39
-10.34
1.92
15.19
27.02
35.44
39.57
39.89
38.05
36.23
36.45
39.89
46.78
56.50
68.00
80.15
91.89
102.23
110.17
114.84
115.63
112.53
106.21
97.84
88.81
80.24
72.74
66.44
61.06
56.20
51.47
46.66
41.76
37.00
32.73
29.37
27.15
26.03
25.64
25.47
25.09
24.28
23.12
21.77
20.39
18.90
17.13
14.87
12.07
8.90
5.74
3.01
1.02
-0.22
-1.05
-2.02
-3.79
-6.98
-12.09
-19.45
-29.20
-41.44
-56.03
-72.73
-91.16
-110.86
-131.30
-151.61
-170.29
-184.91
-192.58
-190.88
-179.14
-159.24
-135.45
-113.12
-96.77
-88.45
-87.27
-90.10
-93.01
-92.74
-87.66
-77.75
-64.28
-49.15
-34.34
-21.49
-11.62
-4.97
-1.03
1.07
2.33
3.51
5.16
7.63
11.12
15.61
20.80
26.07
30.78
34.57
37.69
40.85
44.87
50.07
55.98
61.45
65.17
66.34
65.15
62.72
60.68
60.40
62.39
66.19
70.44
73.39
73.36
69.24
60.79
49.01
36.15
25.37
19.86
21.52
29.84
41.49
51.27
54.05
46.78
29.74
6.13
-19.41
-42.88
-62.12
-76.97
-88.33
-97.07
-103.47
-107.32
-108.47
-107.27
-104.58
-101.33
-98.00
-94.38
-89.66
-82.88
-73.39
-61.18
-46.91
-31.75
-17.00
-3.73
7.40
16.26
23.10
28.31
32.26
35.14
36.95
37.45
36.14
32.26
24.96
13.51
-2.22
-21.54
-42.85
-63.92
-82.47
-96.67
-105.37
-107.91
-103.72
-91.90
-71.36
-41.41
-2.56
42.91
90.80
135.60
171.59
194.15
200.67
191.18
168.04
135.15
96.66
55.66
13.07
-32.42
-83.28
-140.83
-203.05
-263.67
-313.26
-342.26
-344.43
-319.23
-272.04
-212.37
-151.07
-97.68
-58.76
-37.10
-31.67
-38.14
-49.84
-59.55
-61.58
-53.48
-36.53
-14.71
7.39
26.47
41.13
51.62
58.66
62.61
63.42
61.12
56.48
51.06
46.60
44.18
43.65
43.82
43.15
40.75
36.82
32.52
29.18
27.61
27.67
28.34
28.36
26.79
23.45
18.86
14.04
9.95
7.18
5.75
5.22
4.93
4.37
3.37
2.16
1.15
0.69
0.91
1.68
2.68
3.64
4.41
4.96
5.34
5.63
5.76
5.64
5.14
4.23
3.06
1.96
1.32
1.46
2.40
3.80
5.20
6.04
6.03
5.17
3.75
2.17
0.79
-0.19
-0.78
-1.08
-1.23
-1.39
-1.64
-2.07
-2.68
-3.48
-4.48
-5.67
-6.97
-8.22
-9.17
-9.53
-9.12
-7.96
-6.32
-4.62
-3.24
-2.37
-1.94
-1.68
-1.31
-0.71
0.04
0.77
1.36
1.83
2.30
2.92
3.72
4.56
5.18
5.38
5.09
4.48
3.81
3.38
3.32
3.64
4.16
4.62
4.84
4.73
4.30
3.75
3.24
2.92
2.82
2.82
2.79
2.64
2.42
2.26
2.21
2.24
2.16
1.72
0.82
-0.42
-1.67
-2.61
-3.02
-2.98
-2.74
-2.62
-2.73
-2.94
-3.04
-2.76
-2.10
-1.18
-0.31
0.29
0.60
0.75
0.93
1.23
1.60
1.86
1.88
1.64
1.26
0.94
0.82
0.95
1.21
1.48
1.60
1.48
1.13
0.56
-0.11
-0.77
-1.27
-1.51
-1.48
-1.28
-1.08
-1.02
-1.16
-1.45
-1.76
-1.95
-1.97
-1.80
-1.46
-0.94
-0.20
0.77
1.85
2.87
3.58
3.87
3.76
3.44
3.10
2.77
2.36
1.71
0.70
-0.54
-1.78
-2.72
-3.25
-3.44
-3.52
-3.68
-3.95
-4.23
-4.35
-4.20
-3.81
-3.30
-2.87
-2.61
-2.53
-2.56
-2.60
-2.56
-2.37
-2.04
-1.61
-1.11
-0.62
-0.13
0.37
0.93
1.60
2.38
3.19
3.93
4.51
4.92
5.17
5.32
5.41
5.46
5.42
5.23
4.83
4.25
3.56
2.90
2.42
2.18
2.15
2.25
2.35
2.36
2.21
1.92
1.56
1.21
0.94
0.78
0.75
0.79
0.81
0.75
0.57
0.33
0.09
-0.07
-0.14
-0.17
-0.24
-0.40
-0.65
-0.95
-1.28
-1.62
-1.92
-2.17
-2.29
-2.23
-1.96
-1.47
-0.83
-0.13
0.45
0.73
0.60
0.01
-0.92
-1.93
-2.68
-2.90
-2.48
-1.51
-0.22
1.13
2.31
3.24
3.90
4.27
4.34
4.10
3.60
2.96
2.37
1.96
1.78
1.71
1.62
1.40
1.05
0.69
0.51
0.60
0.92
1.33
1.66
1.82
1.82
1.74
1.67
1.61
1.53
1.36
1.10
0.81
0.55
0.40
0.35
0.38
0.40
0.34
0.21
0.06
0.01
0.21
0.76
1.69
2.87
4.09
5.08
5.65
5.71
5.27
4.46
3.47
2.44
1.51
0.73
0.12
-0.37
-0.77
-1.09
-1.38
-1.62
-1.84
-2.04
-2.20
-2.23
-2.03
-1.49
-0.64
0.39
1.36
2.04
2.29
2.11
1.60
1.00
0.49
0.20
0.23
0.51
0.90
1.24
1.41
1.38
1.23
1.09
1.03
1.05
1.08
1.06
1.01
1.07
1.37
1.96
2.71
3.38
3.65
3.34
2.45
1.19
-0.14
-1.29
-2.12
-2.67
-3.08
-3.42
-3.66
-3.68
-3.33
-2.58
-1.61
-0.67
-0.04
0.23
0.20
0.10
0.12
0.29
0.47
0.48
0.20
-0.26
-0.70
-0.87
-0.64
-0.06
0.66
1.26
1.53
1.37
0.86
0.17
-0.42
-0.68
-0.43
0.30
1.31
2.27
2.90
3.02
2.70
2.20
1.72
1.42
1.29
1.23
1.13
0.96
0.77
0.60
0.50
0.44
0.39
0.40
0.51
0.83
1.39
2.11
2.84
3.37
3.50
3.16
2.42
1.50
0.68
0.23
0.28
0.79
1.56
2.31
2.82
3.02
2.97
2.82
2.72
2.70
2.68
2.55
2.26
1.83
1.43
1.20
1.25
1.49
1.72
1.74
1.43
0.82
0.08
-0.65
-1.30
-1.90
-2.47
-2.96
-3.27
-3.21
-2.71
-1.81
-0.68
0.40
1.19
1.57
1.57
1.34
1.10
1.01
1.13
1.40
1.66
1.76
1.64
1.35
1.05
0.89
0.92
1.08
1.23
1.27
1.17
1.01
0.91
0.92
1.02
1.08
0.93
0.47
-0.26
-1.11
-1.85
-2.31
-2.42
-2.28
-2.05
-1.90
-1.90
-1.94
-1.87
-1.52
-0.84
0.05
0.93
1.55
1.83
1.81
1.66
1.55
1.53
1.61
1.67
1.64
1.54
1.42
1.33
1.26
1.11
0.74
0.07
-0.87
-1.95
-2.96
-3.67
-3.99
-3.88
-3.45
-2.86
-2.21
-1.58
-0.97
-0.33
0.38
1.12
1.84
2.45
2.85
3.04
3.05
2.97
2.92
2.98
3.17
3.46
3.75
3.95
4.00
3.88
3.63
3.31
2.96
2.60
2.17
1.59
0.75
-0.29
-1.42
-2.41
-2.98
-2.97
-2.42
-1.50
-0.50
0.38
1.10
1.71
2.30
2.87
3.30
3.36
2.92
1.99
0.70
-0.77
-2.30
-3.89
-5.59
-7.35
-9.01
-10.26
-10.84
-10.65
-9.78
-8.47
-6.93
-5.25
-3.44
-1.51
0.45
2.30
3.89
5.29
6.79
8.82
11.73
15.57
19.96
24.23
27.68
29.91
30.94
31.17
31.14
31.24
31.49
31.61
31.23
30.12
28.28
25.95
23.44
20.88
18.27
15.42
12.20
8.56
4.59
0.42
-3.89
-8.27
-12.70
-17.01
-20.87
-23.89
-25.77
-26.47
-26.29
-25.77
-25.39
-25.46
-25.88
-26.33
-26.41
-25.87
-24.66
-22.89
-20.71
-18.19
-15.31
-12.00
-8.27
-4.25
-0.15
3.78
7.33
10.31
12.62
14.24
15.26
15.88
16.35
16.85
17.41
17.96
18.37
18.56
18.51
18.18
17.50
16.34
14.60
12.31
9.70
7.14
4.94
3.26
2.07
1.25
0.69
0.36
0.28
0.44
0.77
1.19
1.64
2.13
2.76
3.58
4.55
5.51
6.22
6.44
6.04
5.06
3.64
2.03
0.46
-0.92
-2.06
-2.89
-3.43
-3.67
-3.65
-3.51
-3.42
-3.56
-4.02
-4.78
-5.68
-6.52
-7.20
-7.62
-7.79
-7.70
-7.33
-6.68
-5.80
-4.86
-4.02
-3.42
-3.08
-2.96
-3.04
-3.40
-4.19
-5.49
-7.22
-9.11
-10.76
-11.80
-12.14
-11.91
-11.41
-10.92
-10.51
-10.18
-9.84
-9.49
-9.22
-9.16
-9.36
-9.73
-10.09
-10.21
-9.95
-9.29
-8.33
-7.27
-6.32
-5.63
-5.29
-5.24
-5.30
-5.30
-5.13
-4.86
-4.72
-4.86
-5.28
-5.75
-5.90
-5.43
-4.25
-2.52
-0.64
1.06
2.36
3.28
3.90
4.29
4.44
4.27
3.71
2.79
1.67
0.58
-0.27
-0.78
-0.96
-0.98
-1.02
-1.22
-1.60
-2.05
-2.43
-2.64
-2.69
-2.66
-2.66
-2.69
-2.66
-2.47
-2.02
-1.36
-0.58
0.14
0.73
1.22
1.71
2.35
3.22
4.30
5.48
6.58
7.42
7.92
8.10
8.11
8.12
8.19
8.30
8.23
7.80
6.95
5.78
4.55
3.51
2.80
2.41
2.24
2.19
2.20
2.29
2.54
2.97
3.58
4.31
5.06
5.70
6.11
6.20
5.89
5.23
4.30
3.26
2.27
1.36
0.56
-0.15
-0.79
-1.36
-1.82
-2.13
-2.30
-2.41
-2.58
-2.88
-3.30
-3.73
-4.02
-4.06
-3.85
-3.48
-3.07
-2.69
-2.29
-1.78
-1.06
-0.18
0.70
1.34
1.59
1.45
1.10
0.75
0.57
0.56
0.63
0.63
0.47
0.19
-0.11
-0.34
-0.43
-0.36
-0.17
0.20
0.81
1.75
3.02
4.48
5.87
6.90
7.37
7.23
6.60
5.71
4.80
4.03
3.49
3.17
3.00
2.90
2.81
2.70
2.60
2.59
2.72
3.00
3.40
3.83
4.14
4.19
3.99
3.61
3.20
2.89
2.72
2.60
2.34
1.79
0.96
0.04
-0.70
-1.06
-0.98
-0.59
-0.10
0.34
0.74
1.15
1.63
2.15
2.55
2.65
2.30
1.48
0.36
-0.86
-1.96
-2.74
-3.16
-3.25
-3.10
-2.79
-2.36
-1.81
-1.14
-0.44
0.19
0.63
0.82
0.79
0.69
0.68
0.87
1.24
1.69
2.06
2.28
2.33
2.27
2.11
1.90
1.60
1.21
0.76
0.32
-0.04
-0.27
-0.40
-0.47
-0.54
-0.63
-0.69
-0.68
-0.52
-0.23
0.18
0.64
1.09
1.48
1.73
1.82
1.76
1.62
1.54
1.64
2.00
2.56
3.16
3.60
3.71
3.47
2.95
2.32
1.69
1.12
0.57
-0.05
-0.78
-1.60
-2.41
-3.07
-3.48
-3.62
-3.61
-3.59
-3.70
-4.05
-4.59
-5.20
-5.64
-5.72
-5.33
-4.57
-3.67
-2.93
-2.60
-2.76
-3.27
-3.91
-4.42
-4.69
-4.77
-4.77
-4.81
-4.85
-4.82
-4.56
-4.06
-3.44
-2.88
-2.56
-2.53
-2.71
-2.94
-3.05
-3.00
-2.83
-2.67
-2.59
-2.62
-2.64
-2.55
-2.25
-1.75
-1.20
-0.82
-0.82
-1.35
-2.39
-3.83
-5.49
-7.21
-8.87
-10.38
-11.63
-12.47
-12.81
-12.68
-12.26
-11.85
-11.73
-11.98
-12.40
-12.60
-12.17
-10.88
-8.76
-6.08
-3.18
-0.30
2.51
5.28
8.10
10.97
13.80
16.46
18.87
20.96
22.71
24.10
25.10
25.63
25.62
25.06
23.96
22.46
20.76
19.05
17.49
16.14
14.90
13.66
12.33
10.91
9.44
8.04
6.77
5.65
4.60
3.54
2.41
1.24
0.09
-0.89
-1.62
-2.06
-2.25
-2.31
-2.37
-2.54
-2.88
-3.38
-3.96
-4.50
-4.88
-5.03
-5.00
-4.87
-4.78
-4.77
-4.79
-4.69
-4.36
-3.76
-2.96
-2.11
-1.30
-0.55
0.14
0.77
1.24
1.44
1.29
0.85
0.35
0.09
0.25
0.86
1.73
2.54
3.03
3.05
2.64
1.95
1.20
0.56
0.13
-0.10
-0.20
-0.24
-0.26
-0.24
-0.12
0.12
0.47
0.89
1.33
1.69
1.94
2.05
1.98
1.77
1.46
1.09
0.68
0.23
-0.29
-0.87
-1.47
-2.03
-2.51
-2.89
-3.20
-3.48
-3.72
-3.90
-3.92
-3.71
-3.26
-2.59
-1.82
-1.06
-0.39
0.21
0.79
1.44
2.17
2.89
3.45
3.70
3.60
3.27
2.94
2.79
2.84
2.94
2.87
2.49
1.83
1.11
0.63
0.56
0.89
1.44
1.97
2.31
2.46
2.52
2.67
2.98
3.43
3.84
4.03
3.88
3.42
2.84
2.37
2.13
2.13
2.25
2.33
2.35
2.37
2.50
2.80
3.23
3.64
3.89
3.87
3.59
3.08
2.46
1.78
1.12
0.55
0.12
-0.16
-0.31
-0.40
-0.48
-0.60
-0.71
-0.74
-0.66
-0.52
-0.37
-0.28
-0.27
-0.31
-0.28
-0.08
0.30
0.81
1.28
1.51
1.36
0.80
-0.04
-0.93
-1.62
-1.95
-1.94
-1.74
-1.52
-1.42
-1.45
-1.53
-1.59
-1.62
-1.69
-1.85
-2.07
-2.21
-2.11
-1.69
-0.95
-0.09
0.69
1.20
1.41
1.38
1.19
0.94
0.65
0.32
-0.06
-0.48
-0.93
-1.36
-1.73
-2.01
-2.18
-2.23
-2.17
-2.07
-1.95
-1.87
-1.81
-1.73
-1.60
-1.37
-1.09
-0.81
-0.60
-0.52
-0.57
-0.74
-0.98
-1.21
-1.40
-1.46
-1.38
-1.12
-0.69
-0.13
0.46
0.94
1.22
1.29
1.19
1.00
0.84
0.72
0.57
0.26
-0.30
-1.13
-2.11
-3.04
-3.74
-4.03
-3.94
-3.50
-2.81
-1.99
-1.14
-0.28
0.51
1.22
1.80
2.22
2.46
2.51
2.38
2.10
1.72
1.26
0.76
0.21
-0.39
-1.02
-1.57
-1.95
-2.07
-1.94
-1.63
-1.28
-1.00
-0.87
-0.89
-1.00
-1.10
-1.07
-0.83
-0.40
0.09
0.44
0.48
0.20
-0.28
-0.75
-1.02
-1.05
-0.90
-0.72
-0.59
-0.51
-0.44
-0.35
-0.30
-0.36
-0.57
-0.88
-1.18
-1.33
-1.26
-1.01
-0.68
-0.40
-0.25
-0.28
-0.43
-0.60
-0.69
-0.63
-0.45
-0.17
0.10
0.34
0.55
0.74
0.91
1.05
1.09
0.96
0.67
0.28
-0.09
-0.32
-0.32
-0.06
0.37
0.88
1.34
1.64
1.74
1.61
1.28
0.79
0.22
-0.31
-0.71
-0.91
-0.96
-0.97
-1.09
-1.41
-1.93
-2.57
-3.21
-3.81
-4.37
-4.86
-5.18
-5.11
-4.43
-3.05
-1.03
1.36
3.75
5.83
7.34
8.20
8.41
8.02
7.13
5.87
4.35
2.73
1.16
-0.27
-1.50
-2.47
-3.19
-3.70
-4.04
-4.30
-4.51
-4.57
-4.25
-3.20
-1.13
2.02
6.02
10.31
14.24
17.17
18.66
18.30
15.75
10.64
2.79
-7.43
-18.93
-29.99
-38.80
-44.06
-45.62
-44.49
-42.43
-41.19
-41.83
-44.45
-48.35
-52.51
-56.13
-58.95
-61.34
-64.00
-67.67
-72.75
-79.09
-85.99
-92.37
-97.19
-99.83
-100.37
-99.51
-98.44
-98.54
-100.96
-106.35
-114.31
-123.02
-129.19
-128.67
-117.45
-93.03
-55.28
-6.63
48.66
105.75
160.36
209.34
250.51
282.24
302.98
311.45
307.12
290.71
264.53
232.11
197.47
164.23
134.87
110.38
90.50
74.25
60.52
48.58
38.10
28.97
21.05
13.92
6.97
-0.29
-7.99
-15.63
-22.30
-27.10
-29.58
-30.00
-29.24
-28.47
-28.53
-29.62
-31.31
-32.80
-33.34
-32.60
-30.75
-28.40
-26.23
-24.72
-24.01
-23.89
-23.98
-23.87
-23.36
-22.40
-21.14
-19.71
-18.17
-16.48
-14.57
-12.45
-10.25
-8.23
-6.61
-5.45
-4.65
-3.98
-3.24
-2.43
-1.69
-1.22
-1.10
-1.18
-1.17
-0.83
-0.14
0.65
1.16
1.13
0.51
-0.45
-1.41
-2.10
-2.47
-2.66
-2.92
-3.35
-3.96
-4.62
-5.19
-5.53
-5.59
-5.39
-4.97
-4.40
-3.71
-2.98
-2.24
-1.59
-1.08
-0.80
-0.84
-1.20
-1.78
-2.39
-2.83
-3.04
-3.07
-3.17
-3.59
-4.42
-5.55
-6.72
-7.60
-8.05
-8.06
-7.76
-7.28
-6.71
-6.05
-5.28
-4.40
-3.46
-2.49
-1.47
-0.42
0.64
1.64
2.48
2.99
3.08
2.73
1.99
0.97
-0.18
-1.33
-2.38
-3.23
-3.83
-4.17
-4.28
-4.20
-3.96
-3.58
-3.11
-2.56
-2.02
-1.52
-1.08
-0.68
-0.21
0.33
0.96
1.57
1.99
2.00
1.52
0.63
-0.46
-1.45
-2.12
-2.42
-2.44
-2.41
-2.51
-2.82
-3.29
-3.81
-4.22
-4.48
-4.58
-4.58
-4.58
-4.63
-4.82
-5.19
-5.75
-6.44
-7.17
-7.86
-8.44
-9.04
-9.82
-11.00
-12.69
-14.80
-17.02
-18.94
-20.25
-20.85
-21.01
-21.21
-21.91
-23.40
-25.63
-28.24
-30.75
-32.77
-34.15
-34.96
-35.45
-35.90
-36.61
-37.84
-39.82
-42.64
-46.06
-49.36
-51.46
-51.09
-47.35
-39.98
-29.45
-16.79
-3.09
10.78
24.21
36.65
47.42
55.66
60.56
61.78
59.65
55.13
49.48
43.81
38.85
34.95
32.32
31.21
31.84
34.23
37.95
42.02
45.15
46.16
44.39
39.93
33.53
26.29
19.35
13.62
9.65
7.63
7.45
8.67
10.65
12.66
14.08
14.49
13.76
11.94
9.17
5.66
1.72
-2.18
-5.44
-7.58
-8.50
-8.63
-8.84
-10.17
-13.23
-18.08
-23.99
-29.81
-34.42
-37.21
-38.36
-38.73
-39.58
-42.00
-46.43
-52.45
-59.06
-65.01
-69.44
-72.20
-73.86
-75.62
-79.09
-86.10
-98.34
-116.83
-141.17
-169.10
-196.76
-219.60
-233.72
-236.91
-229.03
-211.27
-185.42
-153.06
-115.38
-73.57
-29.06
16.14
59.77
99.55
133.69
161.12
181.70
196.11
205.41
210.42
211.12
206.71
196.22
179.67
158.99
137.92
120.74
110.42
107.17
108.31
109.61
107.27
99.44
86.53
70.37
52.94
35.52
18.88
3.79
-8.27
-15.23
-15.26
-7.73
6.21
23.94
42.15
57.90
69.32
75.75
77.67
76.32
73.32
70.38
69.09
70.70
76.03
85.28
97.64
111.08
122.48
128.24
125.22
111.72
87.83
55.15
15.94
-27.34
-72.12
-115.13
-152.35
-179.71
-194.66
-197.72
-193.05
-187.11
-186.13
-193.25
-207.03
-222.02
-231.28
-229.38
-214.54
-188.86
-156.75
-122.58
-88.87
-55.66
-21.22
16.69
59.49
106.76
156.04
203.24
243.57
272.98
289.29
292.97
286.63
273.75
257.08
237.83
216.00
191.58
165.53
139.89
116.63
96.21
76.81
54.79
26.05
-12.29
-61.01
-118.38
-180.15
-240.07
-290.84
-325.64
-340.05
-333.60
-310.30
-277.49
-243.54
-215.02
-195.08
-183.21
-176.38
-170.87
-163.64
-152.65
-136.53
-114.06
-84.41
-48.09
-7.95
30.59
60.57
75.84
73.38
54.63
24.80
-9.15
-40.98
-66.58
-83.97
-92.36
-91.14
-79.64
-57.82
-27.07
9.41
47.13
81.46
108.78
127.21
136.71
138.68
135.31
129.10
122.36
116.77
113.11
111.10
109.59
107.14
102.57
95.37
85.79
74.50
62.23
49.47
36.57
23.85
11.84
1.14
-7.86
-15.21
-21.40
-26.96
-31.91
-35.39
-35.81
-31.49
-21.60
-6.68
11.28
29.68
46.20
59.63
69.94
77.81
83.93
88.53
91.37
92.12
90.85
88.18
85.15
82.84
82.07
83.29
86.69
92.41
100.53
111.10
123.84
138.11
152.86
166.77
178.58
187.49
193.51
197.39
200.30
203.13
205.95
207.75
206.71
200.92
189.13
171.14
147.80
120.52
90.68
59.29
27.03
-5.38
-36.88
-66.03
-91.48
-112.72
-130.52
-147.01
-164.82
-185.90
-210.28
-235.60
-257.63
-271.68
-274.34
-264.76
-244.90
-218.61
-190.23
-163.02
-138.46
-116.30
-95.26
-73.80
-50.76
-25.60
1.41
29.15
55.62
78.35
95.01
104.50
107.65
107.31
107.32
111.00
119.65
132.09
145.38
156.42
163.44
166.66
167.79
168.66
169.99
170.80
168.86
161.88
148.63
129.42
105.80
79.51
51.53
21.69
-10.85
-46.47
-84.02
-120.59
-152.23
-175.39
-188.31
-191.70
-188.30
-181.53
-174.17
-167.54
-161.62
-155.81
-149.74
-143.52
-137.54
-131.92
-126.04
-118.72
-108.88
-96.20
-81.64
-67.23
-55.40
-48.01
-45.61
-47.24
-50.74
-53.57
-53.52
-49.26
-40.65
-28.63
-14.95
-1.59
9.84
18.66
25.37
31.34
38.12
46.51
56.05
65.02
71.20
72.76
68.99
60.58
49.27
37.11
25.88
16.73
10.10
5.99
4.12
4.05
5.09
6.30
6.56
4.93
0.94
-5.14
-12.28
-19.08
-24.24
-27.06
-27.67
-26.86
-25.80
-25.58
-26.77
-29.38
-32.83
-36.21
-38.58
-39.24
-37.84
-34.43
-29.35
-23.13
-16.52
-10.44
-5.94
-4.00
-5.07
-8.78
-13.77
-18.05
-19.73
-17.74
-12.28
-4.67
3.22
9.68
13.63
14.63
12.76
8.36
2.00
-5.36
-12.44
-17.85
-20.52
-20.12
-17.22
-13.08
-9.28
-7.24
-7.85
-11.28
-16.95
-23.64
-29.96
-34.69
-37.21
-37.59
-36.46
-34.58
-32.48
-30.38
-28.20
-25.71
-22.71
-19.03
-14.64
-9.65
-4.38
0.75
5.29
8.90
11.43
12.84
13.12
12.22
10.23
7.47
4.54
2.20
1.06
1.29
2.63
4.60
6.81
9.25
12.08
15.38
18.84
21.69
22.96
22.03
18.90
14.28
9.27
4.87
1.71
-0.07
-0.47
0.47
2.81
6.45
10.82
14.78
16.81
15.67
11.03
3.83
-3.87
-9.61
-11.54
-9.11
-3.29
3.82
9.86
12.94
12.17
7.73
0.50
-8.24
-17.12
-24.85
-30.32
-32.78
-32.12
-29.03
-24.74
-20.61
-17.43
-14.93
-11.92
-6.89
1.10
11.79
23.60
34.36
42.20
46.15
46.39
43.86
39.68
34.84
29.92
25.13
20.39
15.30
9.26
1.75
-7.29
-17.23
-26.87
-34.85
-40.30
-43.15
-44.05
-43.89
-43.18
-41.81
-39.20
-34.74
-28.24
-20.18
-11.55
-3.58
2.71
6.71
8.26
7.52
4.83
0.65
-4.45
-9.71
-14.14
-16.68
-16.51
-13.30
-7.41
0.14
8.05
15.03
20.16
22.92
23.23
21.31
17.60
12.69
7.22
1.81
-2.97
-6.57
-8.48
-8.19
-5.28
0.44
8.80
19.17
30.50
41.52
51.03
58.10
62.25
63.40
61.74
57.63
51.47
43.74
35.07
26.30
18.43
12.32
8.51
6.91
6.87
7.42
7.68
7.02
5.33
2.84
-0.03
-2.86
-5.34
-7.35
-8.87
-9.90
-10.49
-10.61
-10.17
-9.16
-7.63
-5.77
-3.84
-2.13
-0.75
0.35
1.44
2.94
5.24
8.57
12.69
16.95
20.42
22.19
21.76
19.31
15.75
12.30
10.16
9.92
11.39
13.63
15.20
14.64
10.72
2.87
-8.84
-23.61
-40.08
-56.65
-71.72
-84.07
-93.03
-98.52
-100.90
-100.70
-98.45
-94.72
-90.19
-85.75
-82.42
-80.99
-81.77
-84.30
-87.69
-91.05
-93.97
-97.03
-101.52
-108.94
-120.31
-135.69
-154.09
-173.86
-192.95
-209.14
-220.23
-224.33
-220.70
-210.52
-197.06
-184.94
-178.12
-177.92
-182.00
-185.01
-180.93
-165.71
-138.87
-103.28
-63.36
-22.88
16.48
54.96
93.50
132.54
171.20
207.56
239.56
265.61
284.85
297.04
302.17
300.32
291.92
277.85
259.63
239.26
218.78
199.86
183.40
169.24
156.12
141.98
124.56
102.30
75.36
46.14
18.65
-2.77
-15.26
-18.40
-14.05
-4.93
6.86
20.82
37.58
57.78
80.94
105.14
127.74
146.43
159.97
167.74
169.09
162.93
148.26
125.43
97.13
68.32
44.77
30.91
28.02
33.93
44.14
53.69
59.05
58.69
52.94
43.06
30.33
15.66
-0.47
-17.91
-36.52
-55.99
-75.85
-95.58
-114.89
-134.02
-153.52
-173.70
-194.08
-213.16
-228.64
-238.54
-242.22
-240.68
-236.30
-231.74
-228.99
-228.94
-231.57
-236.24
-242.15
-248.34
-253.78
-257.39
-258.17
-255.36
-248.40
-236.82
-220.27
-198.71
-172.72
-143.73
-113.80
-84.89
-58.11
-33.17
-8.45
18.28
48.79
83.39
120.27
155.79
185.49
205.46
213.65
210.51
198.73
182.20
164.94
150.12
139.62
133.93
132.29
132.84
133.11
130.71
124.24
113.98
101.83
90.41
81.81
76.57
73.63
71.00
66.87
60.33
51.49
41.11
30.01
18.83
8.08
-1.53
-9.05
-13.35
-13.49
-9.00
-0.08
12.46
27.33
42.97
57.71
70.07
79.01
84.05
85.20
82.80
77.23
68.95
58.56
46.91
35.12
24.35
15.48
8.78
3.83
-0.29
-4.58
-9.65
-15.43
-21.17
-25.84
-28.58
-29.23
-28.52
-27.76
-28.20
-30.32
-33.42
-35.81
-35.53
-31.31
-23.12
-12.19
-0.47
10.26
19.12
26.27
32.76
39.90
48.79
60.02
73.71
89.54
106.80
124.12
139.17
148.72
149.38
138.80
117.18
87.93
57.24
32.02
17.43
14.84
21.52
31.99
40.60
43.77
40.80
33.26
23.53
13.38
3.58
-5.57
-13.48
-18.86
-20.15
-16.43
-8.35
1.61
9.88
13.06
9.24
-1.31
-16.44
-33.08
-48.45
-60.73
-69.05
-72.90
-71.58
-64.03
-49.51
-28.43
-3.03
22.95
45.48
61.71
71.06
75.19
76.93
78.73
81.61
85.01
87.59
88.27
86.98
84.41
81.38
77.95
73.43
66.91
58.25
48.45
39.25
31.98
26.52
21.23
13.82
2.87
-11.15
-25.96
-38.61
-47.02
-50.87
-51.57
-51.31
-52.07
-55.03
-60.69
-69.26
-80.81
-95.01
-110.75
-125.98
-138.27
-145.73
-147.98
-146.32
-143.12
-140.60
-139.78
-140.01
-139.51
-136.46
-130.11
-121.18
-111.52
-102.98
-96.34
-90.71
-83.61
-71.91
-52.87
-25.23
10.42
51.74
95.27
137.21
174.11
203.20
222.49
230.88
228.15
215.18
193.92
167.13
137.85
108.61
80.87
54.90
30.23
6.49
-15.85
-35.31
-49.79
-57.43
-57.55
-51.03
-40.11
-27.82
-16.98
-9.54
-6.25
-6.78
-10.12
-15.07
-20.65
-26.18
-31.35
-36.02
-40.09
-43.46
-45.96
-47.41
-47.69
-46.74
-44.63
-41.54
-37.80
-33.93
-30.52
-28.08
-26.88
-26.85
-27.50
-28.07
-27.74
-25.89
-22.33
-17.32
-11.47
-5.54
-0.12
4.42
8.11
11.19
14.00
16.77
19.60
22.30
24.56
26.01
26.35
25.42
23.28
20.20
16.57
12.89
9.57
6.86
4.83
3.32
2.14
1.04
-0.07
-1.21
-2.29
-3.31
-4.36
-5.63
-7.37
-9.70
-12.66
-16.11
-19.77
-23.19
-25.79
-27.00
-26.47
-24.34
-21.32
-18.55
-17.24
-18.14
-21.27
-25.90
-30.83
-34.84
-37.06
-37.14
-35.16
-31.51
-26.76
-21.58
-16.64
-12.53
-9.61
-7.93
-7.13
-6.65
-5.86
-4.40
-2.35
-0.16
1.49
2.04
1.21
-0.91
-3.98
-7.57
-11.29
-14.75
-17.48
-18.94
-18.70
-16.55
-12.78
-8.14
-3.55
0.10
2.28
2.78
1.71
-0.70
-4.27
-8.77
-13.99
-19.68
-25.52
-31.16
-36.24
-40.50
-43.76
-46.19
-48.27
-50.57
-53.60
-57.49
-62.05
-66.97
-72.20
-78.15
-85.69
-95.67
-108.50
-123.89
-140.90
-158.49
-175.71
-191.87
-206.29
-218.04
-225.88
-228.56
-225.27
-216.01
-201.60
-183.38
-162.89
-141.51
-120.41
-100.63
-82.95
-67.81
-55.00
-43.59
-32.18
-19.38
-4.41
12.16
28.09
39.76
43.27
36.11
18.66
-5.34
-29.73
-47.99
-55.34
-50.04
-33.49
-9.37
17.63
42.82
62.35
73.92
77.56
75.85
73.61
76.63
89.74
115.19
151.95
196.02
241.55
281.86
310.86
324.42
321.98
307.41
288.74
275.88
277.13
295.88
328.94
367.49
400.31
417.70
414.44
390.72
351.03
302.00
250.29
201.17
157.95
121.87
92.20
66.54
41.57
14.11
-17.62
-52.95
-88.52
-118.93
-138.33
-142.26
-129.21
-101.39
-64.46
-26.18
5.58
25.09
30.31
23.37
9.57
-4.62
-13.94
-15.92
-11.36
-3.41
4.00
7.70
6.22
-0.30
-10.54
-22.79
-35.42
-47.06
-56.63
-63.24
-66.37
-66.05
-62.94
-58.25
-53.46
-49.82
-47.98
-47.83
-48.56
-49.17
-48.88
-47.43
-45.09
-42.34
-39.57
-36.87
-34.11
-31.22
-28.40
-26.15
-25.02
-25.30
-26.78
-28.77
-30.35
-30.72
-29.39
-26.34
-21.90
-16.68
-11.42
-6.89
-3.80
-2.50
-2.94
-4.50
-6.25
-7.15
-6.50
-4.13
-0.50
3.56
7.13
9.46
10.19
9.33
7.13
3.99
0.38
-3.12
-5.92
-7.44
-7.33
-5.63
-2.89
0.01
2.15
2.97
2.51
1.40
0.51
0.60
2.03
4.70
8.28
12.37
16.68
20.95
24.83
27.88
29.65
29.81
28.39
25.75
22.49
19.14
16.04
13.20
10.42
7.46
4.24
0.91
-2.17
-4.60
-6.11
-6.63
-6.37
-5.57
-4.41
-2.86
-0.67
2.38
6.29
10.66
14.78
17.88
19.49
19.58
18.55
17.09
15.80
14.99
14.77
15.10
15.95
17.30
19.03
20.82
22.27
23.07
23.29
23.36
23.95
25.48
27.91
30.65
32.68
33.05
31.24
27.51
23.04
19.72
19.58
23.96
32.64
43.44
52.58
55.87
50.05
33.91
8.57
-22.86
-56.23
-87.19
-112.12
-128.71
-136.56
-137.49
-135.12
-133.89
-137.51
-147.46
-162.34
-178.47
-191.35
-197.56
-196.21
-189.19
-180.36
-173.84
-172.24
-175.46
-180.92
-184.52
-182.34
-171.89
-152.20
-123.00
-83.73
-33.51
27.59
96.42
165.67
224.73
262.69
271.97
251.14
205.39
144.95
82.18
28.56
-7.58
-22.41
-16.83
4.39
34.58
67.23
97.61
122.98
141.59
151.65
151.00
138.33
114.92
85.24
55.77
32.43
17.74
9.95
4.22
-4.71
-20.03
-41.63
-66.86
-92.19
-114.81
-133.38
-147.78
-158.27
-164.87
-167.09
-164.40
-156.84
-145.44
-132.10
-118.94
-107.60
-98.79
-92.20
-86.85
-81.47
-74.81
-65.85
-54.07
-39.77
-24.14
-9.18
3.04
11.04
14.61
14.73
13.14
11.61
11.38
13.03
16.55
21.48
27.03
32.18
35.98
37.99
38.63
39.10
40.95
45.25
52.03
60.11
67.71
73.19
75.72
75.39
72.87
68.90
63.93
58.18
51.83
45.30
39.22
34.30
31.02
29.42
29.04
29.14
29.11
28.74
28.30
28.40
29.63
32.16
35.70
39.63
43.19
45.74
46.92
46.55
44.59
41.08
36.29
30.72
25.13
20.29
16.75
14.57
13.37
12.47
11.22
9.24
6.49
3.25
-0.11
-3.30
-6.14
-8.65
-10.89
-12.96
-14.93
-16.86
-18.84
-20.93
-23.14
-25.41
-27.65
-29.78
-31.76
-33.64
-35.58
-37.78
-40.45
-43.73
-47.63
-52.10
-56.96
-62.00
-66.93
-71.43
-75.13
-77.66
-78.67
-77.98
-75.62
-71.87
-67.13
-61.73
-55.67
-48.65
-40.18
-30.05
-18.78
-7.74
1.06
5.65
4.79
-1.43
-11.48
-22.68
-31.79
-35.56
-31.31
-17.14
7.87
43.47
88.20
139.30
192.95
244.70
290.27
326.38
351.33
365.19
369.45
366.26
357.74
345.56
330.99
315.10
298.93
283.28
268.52
254.20
239.37
222.95
204.46
184.38
163.99
144.93
128.44
114.94
103.96
94.49
85.48
76.21
66.52
56.66
47.03
37.84
28.88
19.43
8.51
-4.84
-21.13
-40.20
-61.30
-83.44
-105.75
-127.85
-149.99
-172.83
-197.26
-224.30
-254.94
-289.87
-328.74
-369.55
-408.44
-440.30
-460.29
-465.46
-455.78
-434.05
-404.52
-371.28
-336.99
-302.72
-268.67
-235.21
-203.46
-175.11
-151.66
-133.56
-119.85
-108.42
-96.83
-83.11
-66.33
-46.64
-24.88
-1.93
21.57
45.31
68.92
91.69
112.40
129.56
141.81
148.47
149.80
146.91
141.52
135.36
129.72
125.09
121.14
116.97
111.72
104.97
96.83
87.87
78.65
69.61
61.00
53.21
46.79
42.37
40.19
39.67
39.41
37.68
33.19
25.76
16.46
7.05
-0.77
-6.14
-9.23
-10.87
-12.09
-13.63
-15.79
-18.65
-22.13
-25.99
-29.78
-32.70
-33.83
-32.47
-28.56
-22.84
-16.68
-11.66
-8.97
-9.09
-11.66
-15.62
-19.66
-22.48
-23.10
-20.94
-15.90
-8.34
1.02
11.18
21.11
29.82
36.54
40.85
42.64
42.18
40.00
36.72
32.94
29.15
25.72
22.91
20.95
19.98
20.01
20.76
21.69
22.07
21.37
19.45
16.79
14.26
12.67
12.42
13.22
14.26
14.60
13.72
11.61
8.79
5.95
3.60
1.96
0.99
0.59
0.66
1.09
1.70
2.07
1.67
0.02
-2.99
-7.01
-11.27
-14.93
-17.39
-18.56
-18.82
-18.75
-18.87
-19.34
-19.92
-20.21
-19.85
-18.71
-16.93
-14.79
-12.53
-10.39
-8.48
-6.94
-5.92
-5.53
-5.80
-6.60
-7.69
-8.69
-9.23
-9.05
-8.04
-6.34
-4.27
-2.31
-0.98
-0.63
-1.29
-2.70
-4.29
-5.44
-5.68
-4.79
-2.85
-0.15
2.84
5.62
7.66
8.49
7.71
5.12
0.78
-4.92
-11.28
-17.48
-22.71
-26.29
-27.87
-27.44
-25.30
-21.96
-18.07
-14.23
-10.98
-8.72
-7.57
-7.47
-8.15
-9.24
-10.33
-11.09
-11.34
-10.96
-9.85
-7.95
-5.22
-1.68
2.46
6.89
11.10
14.56
16.77
17.36
16.16
13.32
9.35
4.95
0.84
-2.48
-4.95
-6.84
-8.67
-10.79
-13.36
-16.22
-19.14
-21.96
-24.70
-27.41
-30.09
-32.53
-34.36
-35.22
-34.96
-33.86
-32.50
-31.57
-31.58
-32.58
-34.19
-35.72
-36.54
-36.28
-35.02
-33.12
-31.15
-29.55
-28.60
-28.23
-28.15
-27.92
-27.12
-25.48
-22.93
-19.58
-15.55
-10.87
-5.42
0.94
8.26
16.38
24.88
33.20
40.76
47.11
51.88
54.87
55.93
55.14
52.77
49.31
45.33
41.29
37.38
33.45
29.26
24.64
19.69
14.80
10.43
6.92
4.28
2.20
0.20
-2.06
-4.79
-7.95
-11.30
-14.54
-17.38
-19.56
-20.93
-21.44
-21.18
-20.32
-19.14
-17.84
-16.59
-15.43
-14.29
-12.99
-11.26
-8.83
-5.50
-1.25
3.74
9.09
14.35
19.16
23.25
26.42
28.54
29.49
29.16
27.51
24.71
21.04
16.85
12.49
8.27
4.39
1.01
-1.81
-4.06
-5.81
-7.25
-8.57
-9.98
-11.63
-13.62
-15.93
-18.46
-20.94
-23.05
-24.42
-24.79
-24.08
-22.48
-20.29
-17.87
-15.50
-13.30
-11.30
-9.51
-7.92
-6.45
-5.06
-3.61
-1.99
-0.19
1.63
3.20
4.21
4.41
3.84
2.89
2.17
2.34
3.82
6.53
9.88
13.01
15.14
15.89
15.42
14.29
13.10
12.23
11.65
11.07
10.12
8.67
6.79
4.78
2.90
1.29
-0.05
-1.28
-2.64
-4.45
-7.05
-10.69
-15.41
-20.92
-26.51
-31.22
-34.28
-35.51
-35.69
-36.52
-40.16
-48.37
-61.74
-79.18
-98.09
-115.12
-127.23
-132.58
-130.92
-123.45
-112.05
-98.69
-84.92
-71.78
-59.98
-50.02
-42.31
-36.84
-33.04
-29.63
-24.85
-16.97
-5.04
10.53
27.94
44.58
58.02
67.08
72.27
75.53
79.15
84.66
92.10
100.03
106.29
109.05
107.55
102.24
94.63
87.10
82.70
84.63
95.19
114.20
137.74
158.22
166.36
154.72
121.39
71.73
17.07
-29.22
-56.74
-61.56
-46.74
-19.96
10.27
37.66
59.25
74.40
83.03
84.56
78.13
64.00
44.91
26.11
13.96
13.56
26.63
50.85
80.74
109.57
131.47
142.88
142.87
132.91
116.00
95.65
75.10
56.59
41.16
28.84
19.24
12.03
7.06
4.13
2.59
1.07
-2.49
-10.32
-24.44
-45.90
-74.68
-108.92
-144.73
-176.45
-197.39
-201.79
-186.78
-153.94
-109.28
-61.30
-17.92
16.57
42.92
66.25
93.08
127.88
170.45
215.69
255.70
283.23
294.51
290.18
274.11
250.94
224.04
194.86
163.85
131.80
100.58
72.52
48.96
29.19
10.05
-12.59
-41.94
-78.85
-121.14
-164.20
-202.56
-231.81
-250.13
-258.96
-262.31
-264.89
-269.69
-276.07
-279.46
-272.90
-249.88
-207.30
-147.13
-76.29
-4.59
57.95
103.88
129.87
137.13
130.37
115.92
99.61
84.99
72.83
61.70
49.26
33.56
13.50
-11.67
-43.24
-83.18
-132.94
-191.26
-252.56
-307.14
-343.99
-354.91
-338.01
-298.61
-246.86
-193.45
-145.50
-104.90
-69.28
-34.79
1.23
39.18
77.67
114.85
149.41
180.52
207.30
228.22
241.09
243.71
234.66
213.87
182.61
143.29
99.23
54.73
14.94
-14.73
-30.05
-29.57
-15.73
5.61
27.00
42.11
47.86
45.17
37.76
30.03
25.12
23.95
25.58
28.21
30.15
30.39
28.58
24.77
19.16
12.00
3.61
-5.45
-14.38
-22.18
-27.86
-30.76
-30.84
-28.73
-25.53
-22.47
-20.41
-19.62
-19.71
-19.91
-19.53
-18.37
-16.83
-15.77
-16.01
-17.88
-20.95
-24.22
-26.51
-27.07
-25.85
-23.45
-20.81
-18.73
-17.56
-17.28
-17.63
-18.37
-19.31
-20.31
-21.18
-21.71
-21.67
-20.97
-19.67
-17.96
-16.05
-14.15
-12.36
-10.76
-9.46
-8.50
-7.91
-7.67
-7.62
-7.65
-7.69
-7.76
-7.93
-8.22
-8.55
-8.80
-8.86
-8.67
-8.24
-7.61
-6.79
-5.78
-4.58
-3.28
-2.06
-1.14
-0.68
-0.75
-1.24
-1.92
-2.53
-2.81
-2.63
-1.92
-0.79
0.62
2.06
3.29
4.15
4.49
4.30
3.67
2.78
1.84
1.07
0.61
0.50
0.68
0.99
1.29
1.40
1.17
0.55
-0.44
-1.60
-2.63
-3.21
-3.12
-2.36
-1.15
0.15
1.24
1.93
2.21
2.17
1.94
1.58
1.10
0.49
-0.31
-1.28
-2.34
-3.36
-4.16
-4.60
-4.67
-4.48
-4.23
-4.16
-4.30
-4.61
-4.87
-4.95
-4.81
-4.55
-4.31
-4.27
-4.51
-5.03
-5.79
-6.75
-7.82
-8.91
-9.96
-10.93
-11.80
-12.55
-13.11
-13.41
-13.44
-13.30
-13.17
-13.29
-13.71
-14.33
-14.85
-14.98
-14.62
-14.01
-13.57
-13.76
-14.86
-16.82
-19.36
-22.15
-24.99
-27.86
-30.83
-33.88
-36.85
-39.51
-41.61
-43.14
-44.27
-45.35
-46.82
-48.99
-51.97
-55.58
-59.50
-63.37
-67.03
-70.70
-74.88
-80.12
-86.57
-93.72
-100.44
-105.35
-107.33
-105.84
-100.84
-92.54
-81.18
-67.06
-50.89
-33.99
-18.19
-5.26
3.69
8.64
10.44
10.23
8.80
6.37
2.95
-1.12
-4.69
-6.04
-3.30
4.65
17.75
34.54
52.47
68.50
79.76
84.29
81.47
72.17
58.53
43.41
29.78
20.13
16.22
19.09
29.16
46.18
69.14
96.18
124.68
151.72
174.87
192.72
205.25
213.54
219.25
223.89
228.48
233.29
238.04
242.02
244.17
243.11
237.30
225.30
206.33
180.71
150.03
116.96
84.57
55.58
31.66
13.13
-1.02
-12.65
-23.93
-36.74
-52.10
-69.98
-89.34
-108.50
-125.74
-139.72
-149.85
-156.22
-159.44
-160.34
-159.82
-158.73
-157.70
-157.12
-156.94
-156.72
-155.94
-154.26
-151.88
-149.47
-147.83
-147.15
-146.38
-143.25
-134.83
-118.96
-95.43
-66.65
-37.19
-12.36
3.64
9.19
5.77
-2.70
-11.27
-15.66
-13.53
-4.87
8.35
23.03
36.01
44.79
48.05
45.69
38.74
29.01
18.85
10.82
7.11
9.06
16.76
28.92
43.24
57.13
68.51
76.24
80.39
81.92
82.28
82.98
85.38
90.63
99.52
112.21
127.68
143.44
155.78
160.74
155.40
138.92
112.73
79.66
42.61
3.56
-36.56
-77.06
-116.49
-152.21
-181.12
-200.82
-210.82
-212.71
-209.40
-203.80
-197.81
-192.02
-185.81
-178.04
-167.40
-152.74
-133.41
-109.62
-82.67
-54.90
-29.06
-7.40
8.96
20.21
27.29
31.14
32.41
31.43
28.73
25.47
23.36
24.09
28.64
36.83
47.52
59.42
71.84
85.15
100.38
118.41
138.99
160.30
179.53
193.95
202.21
204.81
203.72
201.16
198.51
195.79
192.16
186.87
180.08
173.00
167.22
163.76
162.43
162.02
160.97
158.14
153.19
146.22
137.37
126.34
112.49
95.09
73.73
48.55
20.31
-9.71
-39.67
-67.31
-90.25
-106.57
-115.43
-117.44
-114.45
-108.87
-102.68
-96.76
-90.81
-83.81
-74.63
-62.57
-47.57
-30.38
-12.72
2.57
11.74
11.03
-1.86
-26.38
-58.43
-91.25
-117.45
-131.87
-133.58
-126.12
-115.83
-108.72
-107.87
-112.36
-118.28
-121.07
-117.77
-108.13
-94.13
-78.59
-63.73
-50.61
-39.51
-30.71
-24.87
-22.79
-24.71
-29.57
-35.15
-38.80
-38.58
-33.98
-26.21
-17.55
-10.31
-5.82
-3.99
-3.61
-3.03
-0.92
3.43
10.16
18.99
28.96
38.31
44.44
44.67
37.40
23.15
4.67
-14.02
-29.39
-39.74
-45.65
-49.02
-51.85
-55.01
-58.15
-60.36
-60.90
-59.71
-57.33
-54.55
-52.00
-50.12
-49.16
-49.33
-51.04
-54.73
-60.61
-68.06
-75.30
-79.49
-77.53
-67.15
-47.96
-21.81
7.69
36.25
60.04
76.54
84.77
85.06
78.71
67.60
53.84
39.47
25.92
13.96
3.72
-4.88
-11.71
-16.37
-18.30
-17.21
-13.32
-7.56
-1.53
2.78
3.57
-0.09
-7.57
-16.38
-22.75
-22.87
-14.53
1.87
23.27
45.20
63.39
75.09
79.44
77.09
69.44
58.08
44.71
31.23
19.61
11.55
7.90
8.57
12.32
17.20
20.97
21.46
17.23
8.17
-4.16
-16.72
-26.09
-29.89
-27.99
-22.59
-17.09
-14.43
-15.62
-19.50
-23.60
-25.71
-25.04
-22.46
-19.65
-18.06
-18.09
-18.87
-18.93
-16.92
-12.32
-5.63
1.86
8.73
13.88
16.93
18.26
18.63
18.81
19.18
19.69
19.99
19.69
18.71
17.25
15.78
14.80
14.62
15.25
16.37
17.55
18.34
18.46
17.82
16.54
14.79
12.72
10.41
7.90
5.30
2.82
0.80
-0.49
-0.93
-0.59
0.19
1.02
1.58
1.74
1.58
1.29
1.00
0.73
0.32
-0.43
-1.69
-3.42
-5.41
-7.49
-9.48
-11.38
-13.15
-14.68
-15.72
-16.01
-15.53
-14.56
-13.63
-13.22
-13.45
-13.98
-14.17
-13.37
-11.26
-7.88
-3.67
0.75
4.80
8.03
10.17
11.23
11.53
11.51
11.69
12.37
13.56
15.04
16.46
17.45
17.75
17.09
15.16
11.63
6.27
-0.93
-9.55
-18.73
-27.34
-34.17
-38.19
-38.83
-36.12
-30.62
-23.30
-15.28
-7.65
-1.32
3.07
5.20
5.20
3.74
1.89
0.79
1.23
3.32
6.45
9.53
11.53
11.80
10.32
7.53
4.16
0.88
-1.74
-3.39
-3.90
-3.33
-1.84
0.32
2.92
5.80
8.85
11.96
14.99
17.71
19.89
21.21
21.30
19.73
16.14
10.53
3.43
-3.95
-10.01
-13.25
-12.85
-9.00
-2.83
3.95
9.83
13.94
16.28
17.53
18.57
20.03
22.01
24.12
25.57
25.43
22.95
17.60
9.39
-1.14
-12.93
-24.54
-34.45
-41.49
-45.03
-45.06
-42.17
-37.21
-31.03
-24.31
-17.57
-11.21
-5.76
-1.95
-0.65
-2.62
-8.08
-16.46
-26.36
-35.87
-43.18
-47.16
-47.62
-45.29
-41.38
-37.12
-33.37
-30.48
-28.44
-27.08
-26.20
-25.54
-24.62
-22.68
-18.79
-12.16
-2.53
9.61
23.03
36.17
47.52
56.16
61.91
65.29
67.18
68.34
69.06
69.02
67.41
63.25
55.79
44.88
31.13
15.81
0.54
-13.08
-23.79
-30.88
-34.14
-33.84
-30.52
-24.91
-17.79
-10.05
-2.69
3.23
6.77
7.28
4.61
-0.92
-8.49
-17.05
-25.52
-32.89
-38.22
-40.92
-40.79
-38.20
-34.11
-29.81
-26.49
-24.79
-24.47
-24.55
-23.76
-21.05
-16.09
-9.44
-2.21
4.22
8.70
10.48
9.51
6.29
1.97
-1.88
-3.61
-1.86
3.93
13.29
24.69
36.06
45.37
51.30
53.57
52.78
49.98
46.14
41.75
36.77
30.91
23.97
16.07
7.65
-0.77
-8.69
-15.83
-21.97
-26.80
-29.80
-30.39
-28.14
-23.13
-16.05
-8.09
-0.58
5.42
9.44
11.55
12.20
11.91
11.08
9.84
8.19
6.14
3.78
1.40
-0.62
-1.88
-2.16
-1.38
0.20
2.18
3.99
5.08
5.11
3.91
1.62
-1.41
-4.74
-7.92
-10.66
-12.79
-14.33
-15.36
-15.94
-16.09
-15.74
-14.82
-13.33
-11.38
-9.16
-6.92
-4.83
-3.09
-1.84
-1.20
-1.25
-1.92
-3.00
-4.13
-4.93
-5.06
-4.39
-3.05
-1.49
-0.32
-0.15
-1.29
-3.64
-6.68
-9.56
-11.58
-12.37
-12.03
-11.07
-10.10
-9.62
-9.85
-10.91
-12.73
-15.19
-18.08
-21.05
-23.72
-25.88
-27.58
-29.18
-31.19
-33.95
-37.48
-41.31
-44.73
-46.99
-47.63
-46.63
-44.24
-40.96
-37.21
-33.15
-28.58
-23.15
-16.47
-8.52
0.19
8.75
16.08
21.36
24.41
25.64
26.01
26.55
28.07
30.87
34.82
39.50
44.48
49.42
54.07
58.16
61.36
63.27
63.68
62.79
61.29
60.13
60.15
61.70
64.41
67.43
69.70
70.30
68.67
64.57
58.02
49.27
38.99
28.30
18.60
11.14
6.53
4.54
4.33
4.96
5.85
6.94
8.32
9.77
10.63
9.96
7.17
2.40
-3.31
-8.50
-11.87
-12.74
-11.13
-7.46
-2.31
3.62
9.52
14.32
16.92
16.43
12.68
6.25
-1.60
-9.50
-16.32
-21.50
-25.00
-27.06
-27.90
-27.48
-25.59
-21.92
-16.43
-9.49
-1.94
5.28
11.52
16.80
21.75
27.26
33.91
41.67
50.14
58.80
67.26
74.75
79.66
79.47
71.67
55.19
31.60
5.01
-19.43
-37.59
-48.01
-51.87
-51.81
-50.30
-48.56
-46.74
-44.74
-42.99
-42.53
-44.48
-49.41
-56.93
-65.93
-74.97
-82.69
-88.17
-91.17
-92.08
-91.81
-91.35
-91.36
-91.81
-92.06
-91.22
-88.65
-84.28
-78.54
-71.97
-64.81
-56.96
-48.01
-37.78
-26.58
-15.43
-5.63
1.51
5.23
5.42
2.65
-2.02
-7.18
-11.35
-13.33
-12.40
-8.63
-2.81
3.86
10.14
15.13
18.35
19.67
19.02
16.25
11.18
3.82
-5.41
-15.58
-25.43
-33.77
-39.92
-44.16
-47.59
-51.66
-57.32
-64.50
-72.02
-78.23
-81.92
-82.89
-81.99
-80.46
-79.25
-78.66
-78.45
-78.20
-77.48
-75.77
-72.32
-66.21
-56.71
-43.87
-28.90
-13.76
-0.51
9.46
15.84
19.25
20.68
21.10
21.28
21.87
23.62
27.35
33.70
42.99
55.00
69.06
84.22
99.52
114.10
127.14
137.76
144.90
147.50
144.81
136.65
123.58
106.70
87.24
66.16
43.99
21.05
-2.16
-24.72
-45.36
-62.94
-76.93
-87.76
-96.49
-104.22
-111.46
-117.80
-122.26
-123.81
-121.85
-116.41
-107.85
-96.42
-82.02
-64.43
-43.86
-21.44
0.75
20.34
35.48
45.62
51.48
54.49
55.89
56.10
54.72
51.17
45.35
38.07
30.73
24.54
19.86
16.03
11.86
6.60
0.57
-4.77
-7.46
-5.93
0.16
9.79
20.86
31.00
38.34
41.94
42.01
39.50
35.62
31.36
27.20
23.13
18.87
14.26
9.42
4.70
0.53
-2.90
-5.70
-8.17
-10.61
-13.12
-15.51
-17.44
-18.62
-18.91
-18.45
-17.70
-17.29
-17.93
-20.07
-23.75
-28.61
-34.05
-39.48
-44.34
-48.09
-50.03
-49.44
-45.88
-39.66
-32.19
-25.75
-22.85
-25.29
-33.38
-45.77
-59.70
-71.83
-79.09
-79.47
-72.46
-59.06
-41.39
-21.97
-2.91
14.50
29.83
43.13
54.36
63.12
68.48
69.28
64.44
53.43
36.74
16.06
-5.78
-25.48
-40.19
-48.58
-51.34
-50.88
-50.36
-52.45
-58.44
-68.11
-80.27
-93.54
-106.88
-119.75
-131.73
-142.25
-150.29
-154.48
-153.48
-146.37
-133.07
-114.41
-92.00
-67.64
-42.91
-18.60
5.38
29.81
55.78
84.43
116.66
152.92
192.78
234.47
274.59
308.44
331.31
340.13
335.05
319.77
300.51
283.68
273.51
270.72
272.85
276.06
277.15
274.72
269.05
260.91
250.44
236.74
218.52
195.18
167.61
138.25
110.04
85.44
65.47
49.80
37.22
26.50
16.94
8.46
1.37
-4.09
-8.02
-11.07
-14.16
-18.24
-23.85
-30.90
-38.68
-46.13
-52.22
-56.32
-58.38
-58.87
-58.66
-58.65
-59.66
-62.24
-66.58
-72.39
-78.89
-84.75
-88.33
-88.01
-82.71
-72.35
-57.92
-41.26
-24.44
-9.16
3.69
14.03
22.26
28.85
34.02
37.70
39.75
40.23
39.54
38.28
37.08
36.33
35.94
35.51
34.51
32.59
29.69
26.15
22.40
18.83
15.68
12.92
10.42
7.94
5.08
1.29
-4.00
-11.19
-20.08
-29.65
-38.10
-43.33
-43.68
-38.57
-28.74
-15.99
-2.39
10.40
21.55
30.98
38.99
45.68
50.91
54.30
55.73
55.52
54.55
53.87
54.25
55.76
57.77
59.27
59.36
57.68
54.52
50.61
46.64
42.92
39.28
35.22
30.30
24.37
17.65
10.56
3.54
-3.14
-9.26
-14.52
-18.37
-20.06
-18.91
-14.66
-7.62
1.33
11.08
20.57
29.08
36.27
42.03
46.28
48.92
49.81
48.99
46.78
43.88
41.20
39.62
39.66
41.21
43.50
45.37
45.69
43.84
39.89
34.47
28.45
22.41
16.50
10.38
3.51
-4.62
-14.33
-25.70
-38.60
-52.66
-67.28
-81.50
-94.19
-104.15
-110.48
-112.79
-111.35
-107.04
-101.12
-94.81
-88.99
-84.02
-79.68
-75.43
-70.70
-65.19
-58.96
-52.39
-45.92
-39.92
-34.49
-29.52
-24.90
-20.54
-16.57
-13.17
-10.46
-8.46
-6.98
-5.86
-5.05
-4.76
-5.36
-7.12
-10.06
-13.88
-18.07
-22.17
-25.83
-28.82
-30.99
-32.09
-31.91
-30.36
-27.58
-24.02
-20.25
-16.73
-13.73
-11.22
-8.99
-6.89
-4.93
-3.32
-2.28
-1.94
-2.26
-3.00
-3.94
-4.94
-6.05
-7.45
-9.30
-11.65
-14.33
-17.09
-19.71
-22.04
-24.10
-25.98
-27.90
-30.07
-32.70
-35.84
-39.32
-42.61
-44.99
-45.74
-44.45
-41.30
-37.01
-32.59
-29.00
-26.77
-25.93
-26.19
-27.28
-29.14
-31.99
-36.10
-41.46
-47.50
-53.16
-57.27
-58.95
-58.09
-55.22
-51.30
-47.32
-44.03
-41.87
-41.12
-41.90
-44.19
-47.70
-51.93
-56.32
-60.46
-64.29
-67.91
-71.31
-74.04
-75.07
-73.12
-67.11
-56.67
-42.22
-24.88
-6.04
13.03
31.46
48.88
65.31
80.91
95.64
109.06
120.24
127.94
131.16
129.62
124.06
116.18
108.13
101.79
98.20
97.42
98.72
101.14
104.00
107.18
111.04
116.07
122.52
130.18
138.46
146.58
153.71
159.07
161.78
160.82
155.25
144.66
129.61
111.84
93.93
78.50
67.41
61.13
58.84
58.88
59.52
59.43
57.90
54.77
50.22
44.74
38.82
32.89
27.10
21.19
14.71
7.27
-0.93
-9.06
-15.84
-20.14
-21.63
-21.04
-19.99
-20.30
-23.31
-29.36
-37.87
-47.72
-57.81
-67.44
-76.37
-84.53
-91.80
-97.80
-101.91
-103.60
-102.71
-99.74
-95.93
-93.07
-93.04
-97.19
-105.82
-117.93
-131.53
-144.32
-154.46
-161.22
-165.03
-167.23
-169.49
-173.26
-179.36
-187.87
-198.13
-208.91
-218.63
-225.60
-228.46
-226.45
-219.71
-209.03
-195.47
-179.68
-161.40
-139.77
-113.99
-84.41
-53.10
-23.58
0.35
16.24
23.97
25.79
25.11
24.96
26.82
30.54
35.16
39.93
44.95
50.91
58.33
66.86
75.12
81.35
84.33
84.17
82.34
81.03
82.12
86.35
93.05
100.58
107.24
111.94
114.67
116.20
117.62
119.70
122.62
126.04
129.30
131.84
133.35
133.92
133.92
133.93
134.49
135.89
138.02
140.19
141.33
140.25
136.13
128.81
118.85
107.23
94.95
82.65
70.54
58.51
46.53
34.90
24.33
15.78
10.17
8.10
9.52
13.79
19.78
26.21
32.02
36.62
39.91
42.17
43.77
44.94
45.77
46.24
46.34
46.14
45.69
44.94
43.69
41.63
38.48
34.22
29.09
23.67
18.65
14.76
12.55
12.14
13.17
14.73
15.58
14.43
10.44
3.54
-5.50
-15.23
-24.07
-30.80
-34.77
-36.02
-34.99
-32.35
-28.85
-25.26
-22.39
-20.93
-21.25
-23.24
-26.22
-29.23
-31.41
-32.40
-32.55
-32.77
-34.23
-37.90
-44.25
-53.12
-63.82
-75.32
-86.57
-96.60
-104.67
-110.24
-113.00
-113.03
-110.95
-108.14
-106.52
-108.16
-114.54
-125.86
-140.83
-157.00
-171.60
-182.66
-189.61
-193.29
-195.38
-197.44
-200.17
-203.15
-205.17
-204.86
-201.28
-194.29
-184.62
-173.68
-163.28
-155.26
-150.92
-150.62
-153.47
-157.51
-160.24
-159.47
-153.94
-143.53
-128.99
-111.36
-91.49
-69.85
-46.86
-23.14
0.19
21.82
40.68
56.41
69.58
81.48
93.46
106.39
120.22
134.08
146.70
157.04
164.71
170.04
173.82
176.88
179.85
183.06
186.63
190.57
194.80
199.23
203.89
209.11
215.45
223.56
233.68
245.19
256.47
265.29
269.58
268.16
261.10
249.33
234.06
216.13
195.89
173.49
149.41
124.65
100.58
78.41
58.72
41.31
25.46
10.41
-4.21
-18.21
-31.06
-42.15
-51.14
-58.01
-63.01
-66.58
-69.11
-70.85
-71.79
-71.65
-69.92
-66.14
-60.18
-52.52
-44.36
-37.33
-33.00
-32.36
-35.48
-41.51
-49.02
-56.44
-62.37
-65.82
-66.25
-63.60
-58.26
-51.05
-43.08
-35.55
-29.54
-25.85
-25.00
-27.23
-32.57
-40.93
-51.95
-65.06
-79.45
-94.17
-108.34
-121.27
-132.48
-141.85
-149.56
-156.13
-162.29
-168.77
-176.00
-183.91
-191.83
-198.75
-203.61
-205.85
-205.60
-203.73
-201.43
-199.75
-199.03
-198.70
-197.41
-193.33
-184.69
-170.23
-149.43
-122.69
-91.25
-57.04
-22.47
10.01
38.32
61.09
77.91
89.27
96.27
100.24
102.48
104.10
105.90
108.36
111.49
114.79
117.27
117.70
115.09
109.20
100.76
91.35
82.89
76.91
74.15
74.27
76.12
78.03
78.25
75.33
68.49
57.95
44.97
31.61
20.07
11.81
6.94
4.33
2.30
-0.30
-3.23
-4.94
-3.43
2.65
13.00
25.56
37.15
44.53
45.46
39.22
26.76
10.35
-7.03
-22.25
-32.73
-36.95
-34.68
-26.96
-15.75
-3.48
7.41
14.73
16.69
12.18
1.02
-15.59
-34.93
-52.95
-65.21
-68.02
-59.71
-41.04
-14.81
15.19
45.32
72.95
96.58
115.61
130.02
140.17
146.87
151.39
155.17
159.37
164.56
170.57
176.82
182.80
188.37
193.59
198.41
202.18
203.77
201.89
195.72
185.52
172.64
159.32
148.06
140.96
139.10
142.09
147.84
152.88
153.11
145.03
126.88
99.20
64.61
26.74
-11.12
-46.96
-80.06
-110.40
-137.82
-161.54
-180.35
-193.39
-200.78
-203.71
-203.88
-202.62
-200.22
-195.89
-188.57
-177.85
-164.70
-151.33
-140.29
-133.24
-130.08
-128.85
-126.56
-120.37
-108.61
-91.33
-69.90
-46.37
-22.65
-0.09
20.63
39.20
55.30
68.38
77.58
82.05
81.29
75.55
65.99
54.44
42.86
32.75
24.73
18.55
13.48
8.71
3.67
-2.00
-8.72
-17.24
-28.51
-43.25
-61.39
-81.56
-101.25
-117.36
-127.05
-128.42
-120.84
-104.90
-82.05
-54.27
-23.73
7.51
37.82
66.21
92.42
116.59
138.91
159.18
176.66
190.23
198.79
201.72
198.98
191.11
179.02
163.82
146.72
128.98
111.74
95.85
81.61
68.62
55.96
42.48
27.35
10.46
-7.41
-24.73
-39.65
-50.57
-56.63
-57.97
-55.52
-50.62
-44.45
-37.81
-31.05
-24.39
-18.16
-12.91
-9.18
-7.27
-6.93
-7.46
-8.04
-8.17
-7.93
-7.97
-9.17
-12.29
-17.63
-24.99
-33.76
-43.31
-53.18
-63.31
-73.92
-85.16
-96.85
-108.29
-118.58
-127.14
-134.19
-140.86
-148.70
-158.82
-170.99
-183.45
-193.39
-198.09
-195.86
-186.64
-171.77
-153.22
-133.08
-112.90
-93.67
-75.68
-58.51
-41.12
-22.17
-0.63
23.53
49.06
73.63
94.78
110.92
121.93
129.05
134.09
138.55
143.07
147.29
150.26
150.80
147.84
140.67
129.14
113.89
96.38
78.75
63.21
51.27
43.14
37.62
32.66
26.30
17.63
7.11
-3.69
-13.00
-19.57
-23.19
-24.56
-24.80
-24.92
-25.54
-27.05
-29.82
-34.35
-41.06
-49.85
-59.68
-68.42
-73.26
-71.58
-61.85
-44.34
-21.22
4.04
27.83
47.47
61.98
71.99
78.95
84.00
87.21
87.44
82.97
72.63
56.81
37.96
20.23
8.55
7.19
18.58
42.51
76.19
114.90
153.18
186.00
209.80
222.98
225.90
220.50
209.55
195.88
181.69
168.19
