1543508563.00
64.000000
-0.00
-0.00
-0.00
-0.00
-0.00
-0.00
-0.00
-0.00
-0.00
-0.00
0.00
0.01
0.01
-0.00
-0.03
-0.05
-0.05
0.00
0.13
0.36
0.66
1.01
1.37
1.72
2.06
2.40
2.79
3.24
3.79
4.41
5.05
5.68
6.24
6.74
7.19
7.65
8.13
8.74
9.43
10.11
10.73
11.25
11.70
12.22
13.00
14.13
15.86
18.03
20.40
22.74
24.88
26.86
28.92
31.41
34.59
38.84
43.90
49.36
54.75
59.74
64.29
68.69
73.41
78.83
85.51
93.14
101.24
109.21
116.57
123.16
129.21
135.58
140.66
146.74
154.81
165.59
178.40
190.55
197.42
193.73
175.32
140.81
92.61
35.11
-26.51
-88.22
-148.10
-206.03
-262.72
-318.69
-374.01
-428.03
-480.26
-529.57
-573.53
-607.98
-627.40
-626.47
-602.00
-554.46
-487.89
-409.08
-325.18
-241.92
-162.90
-89.86
-23.57
35.40
86.50
129.53
164.69
192.69
214.50
230.87
242.21
248.57
249.85
246.17
238.18
226.94
213.71
199.71
185.69
171.93
158.48
145.07
131.51
117.94
104.73
92.39
81.31
71.64
63.27
55.96
49.39
43.30
37.56
32.11
26.92
21.97
17.27
12.83
8.69
4.86
1.33
-1.88
-4.81
-7.49
-9.98
-12.27
-14.32
-16.07
-17.49
-18.61
-19.49
-20.21
-20.85
-21.41
-21.86
-22.13
-22.18
-22.08
-21.91
-21.75
-21.56
-21.23
-20.60
-19.71
-18.63
-17.42
-16.20
-15.02
-13.89
-12.81
-11.76
-10.74
-9.71
-8.63
-7.47
-6.26
-5.05
-3.96
-3.06
-2.41
-1.98
-1.72
-1.59
-1.55
-1.57
-1.63
-1.74
-1.87
-2.04
-2.18
-2.22
-1.99
-1.37
-0.31
1.06
2.50
3.73
4.57
5.00
5.15
5.19
5.24
5.28
5.23
4.99
4.55
4.00
3.47
3.09
2.95
3.05
3.35
3.73
4.09
4.35
4.47
4.50
4.47
4.47
4.53
4.61
4.69
4.78
4.93
5.22
5.74
6.50
7.39
8.22
8.80
8.97
8.69
8.00
6.95
5.60
3.92
1.92
-0.38
-2.85
-5.28
-7.47
-9.22
-10.46
-11.19
-11.47
-11.35
-10.88
-10.07
-8.95
-7.55
-5.98
-4.36
-2.84
-1.53
-0.45
0.45
1.32
2.34
3.66
5.33
7.24
9.19
10.99
12.52
13.80
14.98
16.18
17.47
18.83
20.18
21.45
22.65
23.82
25.04
26.32
27.63
28.89
30.01
30.95
31.70
32.30
32.78
33.21
33.63
34.07
34.54
34.98
35.29
35.36
35.07
34.34
33.17
31.59
29.70
27.59
25.36
23.10
20.87
18.71
16.62
14.61
12.72
10.98
9.45
8.14
7.00
5.93
4.81
3.58
2.24
0.93
-0.23
-1.13
-1.74
-2.17
-2.58
-3.12
-3.89
-4.85
-5.90
-6.83
-7.51
-7.86
-7.94
-7.88
-7.82
-7.85
-7.99
-8.18
-8.38
-8.54
-8.64
-8.66
-8.53
-8.20
-7.61
-6.80
-5.85
-4.90
-4.10
-3.51
-3.13
-2.90
-2.77
-2.71
-2.73
-2.84
-3.03
-3.25
-3.45
-3.55
-3.53
-3.41
-3.23
-3.04
-2.92
-2.90
-3.00
-3.19
-3.40
-3.56
-3.59
-3.50
-3.34
-3.20
-3.18
-3.31
-3.52
-3.72
-3.82
-3.77
-3.59
-3.31
-3.00
-2.72
-2.55
-2.52
-2.67
-2.98
-3.37
-3.77
-4.11
-4.32
-4.42
-4.43
-4.39
-4.38
-4.46
-4.69
-5.05
-5.46
-5.73
-5.66
-5.10
-4.05
-2.70
-1.33
-0.20
0.52
0.84
0.86
0.75
0.64
0.59
0.59
0.60
0.55
0.40
0.13
-0.19
-0.48
-0.66
-0.70
-0.66
-0.63
-0.68
-0.79
-0.88
-0.82
-0.57
-0.19
0.17
0.35
0.30
0.06
-0.24
-0.46
-0.57
-0.61
-0.68
-0.84
-1.11
-1.45
-1.78
-2.03
-2.15
-2.14
-2.04
-1.88
-1.72
-1.61
-1.61
-1.75
-2.03
-2.43
-2.87
-3.25
-3.49
-3.56
-3.49
-3.36
-3.27
-3.29
-3.39
-3.47
-3.40
-3.11
-2.59
-1.92
-1.19
-0.47
0.21
0.82
1.35
1.76
1.98
1.98
1.80
1.48
1.11
0.79
0.56
0.43
0.37
0.36
0.40
0.49
0.64
0.81
0.97
1.03
0.96
0.79
0.56
0.34
0.14
-0.06
-0.27
-0.49
-0.69
-0.81
-0.85
-0.86
-0.89
-1.04
-1.29
-1.61
-1.90
-2.08
-2.12
-2.07
-1.97
-1.89
-1.86
-1.89
-2.02
-2.25
-2.60
-3.05
-3.51
-3.85
-3.92
-3.61
-2.93
-2.01
-1.04
-0.19
0.44
0.85
1.09
1.23
1.30
1.31
1.27
1.20
1.13
1.07
0.99
0.83
0.61
0.38
0.26
0.35
0.65
1.07
1.44
1.60
1.49
1.12
0.61
0.08
-0.35
-0.59
-0.61
-0.43
-0.13
0.18
0.35
0.27
-0.04
-0.51
-0.97
-1.26
-1.29
-1.09
-0.78
-0.51
-0.41
-0.52
-0.79
-1.12
-1.41
-1.61
-1.73
-1.81
-1.90
-2.04
-2.23
-2.46
-2.74
-3.07
-3.41
-3.70
-3.78
-3.51
-2.81
-1.71
-0.40
0.85
1.80
2.29
2.34
2.09
1.71
1.36
1.10
0.92
0.78
0.65
0.56
0.57
0.72
1.02
1.36
1.64
1.76
1.67
1.41
1.09
0.80
0.63
0.56
0.57
0.60
0.62
0.61
0.58
0.54
0.46
0.34
0.13
-0.15
-0.49
-0.84
-1.18
-1.42
-1.53
-1.46
-1.22
-0.90
-0.63
-0.57
-0.80
-1.32
-1.96
-2.54
-2.88
-2.91
-2.72
-2.48
-2.38
-2.53
-2.92
-3.44
-3.89
-4.08
-3.87
-3.22
-2.19
-0.95
0.31
1.38
2.14
2.53
2.57
2.36
2.03
1.67
1.36
1.13
1.00
0.95
0.97
1.04
1.11
1.16
1.15
1.11
1.08
1.11
1.20
1.33
1.44
1.48
1.41
1.26
1.03
0.75
0.42
0.03
-0.37
-0.73
-1.00
-1.15
-1.23
-1.29
-1.38
-1.51
-1.66
-1.76
-1.78
-1.75
-1.73
-1.81
-2.02
-2.30
-2.54
-2.57
-2.27
-1.64
-0.77
0.17
0.98
1.53
1.76
1.73
1.56
1.34
1.15
1.02
0.91
0.79
0.65
0.47
0.27
0.05
-0.15
-0.30
-0.36
-0.25
0.02
0.42
0.83
1.11
1.17
0.96
0.57
0.12
-0.24
-0.44
-0.47
-0.38
-0.26
-0.21
-0.29
-0.51
-0.85
-1.25
-1.60
-1.85
-1.95
-1.93
-1.88
-1.87
-1.97
-2.15
-2.36
-2.56
-2.76
-2.95
-3.09
-3.07
-2.74
-1.95
-0.74
0.67
1.98
2.85
3.15
2.92
2.39
1.80
1.32
0.98
0.75
0.58
0.46
0.45
0.57
0.79
1.00
1.08
0.98
0.75
0.58
0.61
0.94
1.46
1.97
2.22
2.12
1.70
1.12
0.57
0.14
-0.16
-0.37
-0.52
-0.61
-0.60
-0.52
-0.42
-0.42
-0.57
-0.85
-1.16
-1.42
-1.56
-1.62
-1.66
-1.75
-1.93
-2.16
-2.41
-2.63
-2.82
-3.01
-3.22
-3.47
-3.68
-3.76
-3.58
-3.06
-2.23
-1.22
-0.21
0.60
1.14
1.44
1.60
1.73
1.89
2.04
2.13
2.11
1.98
1.78
1.59
1.47
1.44
1.48
1.53
1.53
1.47
1.38
1.31
1.33
1.39
1.41
1.32
1.07
0.74
0.45
0.32
0.33
0.36
0.23
-0.13
-0.68
-1.22
-1.55
-1.59
-1.40
-1.17
-1.07
-1.17
-1.42
-1.71
-1.92
-2.03
-2.07
-2.13
-2.26
-2.46
-2.69
-2.90
-3.00
-2.91
-2.56
-1.95
-1.13
-0.22
0.64
1.29
1.70
1.87
1.87
1.77
1.62
1.42
1.15
0.85
0.58
0.40
0.38
0.50
0.72
0.94
1.11
1.21
1.26
1.28
1.29
1.28
1.23
1.14
1.01
0.85
0.66
0.44
0.19
-0.11
-0.46
-0.86
-1.27
-1.61
-1.82
-1.84
-1.68
-1.40
-1.11
-0.94
-0.98
-1.24
-1.67
-2.13
-2.48
-2.63
-2.53
-2.21
-1.74
-1.18
-0.59
0.01
0.60
1.13
1.54
1.78
1.86
1.84
1.82
1.83
1.87
1.85
1.71
1.44
1.12
0.88
0.79
0.84
0.99
1.17
1.36
1.55
1.76
1.91
1.92
1.72
1.32
0.77
0.22
-0.21
-0.47
-0.57
-0.56
-0.54
-0.55
-0.60
-0.67
-0.72
-0.76
-0.80
-0.92
-1.15
-1.52
-1.96
-2.40
-2.74
-2.96
-3.11
-3.26
-3.48
-3.74
-3.95
-3.97
-3.66
-3.02
-2.15
-1.23
-0.42
0.21
0.68
1.11
1.60
2.16
2.70
3.07
3.19
3.03
2.68
2.26
1.88
1.60
1.41
1.27
1.15
1.05
0.97
0.94
0.96
1.02
1.09
1.14
1.13
1.02
0.83
0.59
0.37
0.22
0.18
0.23
0.31
0.34
0.25
0.04
-0.26
-0.51
-0.62
-0.57
-0.41
-0.30
-0.36
-0.62
-1.00
-1.34
-1.51
-1.50
-1.41
-1.40
-1.55
-1.88
-2.26
-2.55
-2.65
-2.56
-2.40
-2.30
-2.33
-2.47
-2.57
-2.48
-2.09
-1.39
-0.49
0.45
1.27
1.86
2.24
2.43
2.49
2.43
2.26
1.98
1.63
1.29
1.05
0.97
1.00
1.07
1.08
0.98
0.80
0.63
0.55
0.61
0.80
1.05
1.27
1.38
1.37
1.23
1.01
0.79
0.61
0.52
0.51
0.56
0.60
0.58
0.47
0.28
0.03
-0.25
-0.52
-0.74
-0.90
-0.98
-0.98
-0.92
-0.83
-0.76
-0.75
-0.82
-0.95
-1.09
-1.20
-1.26
-1.33
-1.48
-1.81
-2.34
-2.99
-3.61
-4.02
-4.10
-3.83
-3.25
-2.47
-1.56
-0.58
0.41
1.36
2.17
2.74
3.01
3.00
2.74
2.36
1.94
1.54
1.21
0.98
0.90
0.98
1.20
1.47
1.69
1.73
1.56
1.25
0.93
0.73
0.70
0.80
0.92
0.96
0.88
0.70
0.50
0.32
0.14
-0.06
-0.32
-0.62
-0.88
-1.03
-1.01
-0.88
-0.74
-0.72
-0.87
-1.18
-1.52
-1.77
-1.83
-1.71
-1.51
-1.37
-1.43
-1.72
-2.21
-2.78
-3.30
-3.67
-3.83
-3.75
-3.39
-2.75
-1.84
-0.78
0.28
1.17
1.75
2.01
2.04
1.96
1.90
1.90
1.93
1.94
1.89
1.76
1.61
1.49
1.47
1.56
1.74
1.95
2.09
2.10
1.93
1.62
1.25
0.94
0.74
0.67
0.67
0.63
0.49
0.22
-0.14
-0.46
-0.64
-0.60
-0.37
-0.05
0.22
0.32
0.21
-0.07
-0.42
-0.75
-1.01
-1.19
-1.32
-1.41
-1.48
-1.57
-1.70
-1.94
-2.32
-2.81
-3.33
-3.72
-3.79
-3.41
-2.58
-1.44
-0.23
0.79
1.45
1.76
1.86
1.91
2.03
2.19
2.28
2.20
1.95
1.61
1.34
1.22
1.22
1.23
1.10
0.81
0.43
0.12
0.03
0.22
0.61
1.06
1.43
1.60
1.53
1.24
0.80
0.29
-0.19
-0.54
-0.70
-0.66
-0.48
-0.29
-0.22
-0.34
-0.66
-1.07
-1.46
-1.74
-1.88
-1.90
-1.89
-1.90
-1.95
-2.03
-2.13
-2.26
-2.45
-2.67
-2.84
-2.82
-2.45
-1.69
-0.63
0.50
1.47
2.11
2.40
2.42
2.29
2.07
1.77
1.37
0.89
0.42
0.11
0.08
0.36
0.88
1.44
1.88
2.07
2.02
1.78
1.49
1.23
1.05
0.92
0.81
0.65
0.43
0.19
-0.04
-0.21
-0.35
-0.51
-0.74
-1.08
-1.51
-1.92
-2.23
-2.40
-2.50
-2.62
-2.85
-3.18
-3.46
-3.49
-3.11
-2.27
-1.10
0.18
1.30
2.13
2.61
2.79
2.73
2.48
2.08
1.57
1.02
0.56
0.29
0.27
0.47
0.80
1.10
1.30
1.38
1.42
1.48
1.57
1.64
1.59
1.35
0.93
0.43
-0.03
-0.34
-0.46
-0.45
-0.41
-0.45
-0.62
-0.92
-1.28
-1.68
-2.06
-2.40
-2.64
-2.74
-2.71
-2.59
-2.46
-2.39
-2.39
-2.38
-2.19
-1.63
-0.65
0.68
2.11
3.37
4.27
4.76
4.93
4.98
5.07
5.29
5.63
6.04
6.46
6.80
6.99
6.96
6.66
6.06
5.18
4.07
2.79
1.37
-0.19
-1.83
-3.47
-4.98
-6.19
-7.03
-7.52
-7.73
-7.79
-7.74
-7.54
-7.14
-6.51
-5.69
-4.80
-3.96
-3.26
-2.70
-2.22
-1.73
-1.20
-0.67
-0.24
-0.01
-0.07
-0.43
-1.01
-1.67
-2.22
-2.49
-2.38
-1.86
-1.04
-0.10
0.79
1.48
1.91
2.10
2.14
2.11
2.05
1.96
1.81
1.59
1.29
0.97
0.71
0.56
0.54
0.60
0.67
0.69
0.64
0.56
0.50
0.51
0.58
0.71
0.84
0.96
1.05
1.10
1.07
0.94
0.71
0.39
0.05
-0.25
-0.43
-0.48
-0.38
-0.13
0.23
0.63
0.97
1.15
1.08
0.79
0.37
-0.05
-0.33
-0.40
-0.26
0.05
0.49
0.99
1.48
1.87
2.09
2.10
1.90
1.59
1.23
0.90
0.58
0.22
-0.22
-0.74
-1.29
-1.79
-2.19
-2.49
-2.69
-2.81
-2.77
-2.54
-2.09
-1.53
-1.09
-0.99
-1.35
-2.09
-2.97
-3.69
-4.03
-3.99
-3.75
-3.57
-3.64
-3.98
-4.44
-4.81
-4.94
-4.79
-4.42
-3.94
-3.49
-3.17
-3.05
-3.18
-3.53
-3.97
-4.22
-3.97
-2.89
-0.91
1.79
4.66
7.02
8.28
8.21
7.03
5.28
3.62
2.51
2.08
2.14
2.40
2.59
2.62
2.53
2.40
2.27
2.14
2.01
1.88
1.82
1.89
2.08
2.37
2.67
2.89
2.94
2.76
2.33
1.73
1.09
0.58
0.34
0.41
0.73
1.13
1.46
1.62
1.57
1.31
0.87
0.26
-0.47
-1.22
-1.87
-2.33
-2.60
-2.77
-2.98
-3.29
-3.68
-3.95
-3.92
-3.46
-2.63
-1.62
-0.71
-0.09
0.15
0.11
-0.06
-0.16
-0.12
0.08
0.33
0.54
0.64
0.63
0.58
0.57
0.65
0.77
0.87
0.85
0.65
0.25
-0.38
-1.31
-2.59
-4.24
-6.14
-8.03
-9.55
-10.42
-10.51
-9.85
-8.67
-7.21
-5.67
-4.13
-2.63
-1.15
0.29
1.65
2.84
3.77
4.41
4.74
4.80
4.69
4.48
4.19
3.83
3.38
2.86
2.31
1.83
1.51
1.43
1.58
1.90
2.29
2.68
3.01
3.25
3.39
3.46
3.48
3.44
3.37
3.25
3.06
2.81
2.51
2.19
1.93
1.75
1.65
1.56
1.40
1.12
0.72
0.31
0.02
-0.06
0.11
0.46
0.85
1.13
1.19
1.00
0.59
0.05
-0.48
-0.90
-1.12
-1.13
-1.00
-0.83
-0.73
-0.79
-1.05
-1.47
-1.94
-2.31
-2.43
-2.23
-1.75
-1.08
-0.39
0.21
0.66
0.97
1.15
1.19
1.08
0.83
0.49
0.20
0.09
0.20
0.47
0.76
0.95
0.99
0.95
0.96
1.09
1.30
1.50
1.55
1.36
1.01
0.62
0.33
0.25
0.36
0.57
0.73
0.70
0.39
-0.19
-0.92
-1.59
-2.05
-2.19
-2.05
-1.78
-1.55
-1.48
-1.58
-1.80
-2.06
-2.29
-2.48
-2.58
-2.54
-2.29
-1.81
-1.11
-0.31
0.48
1.16
1.69
2.04
2.26
2.37
2.41
2.42
2.42
2.45
2.47
2.46
2.38
2.22
2.01
1.80
1.66
1.62
1.68
1.79
1.88
1.90
1.81
1.61
1.34
1.07
0.85
0.72
0.64
0.58
0.48
0.30
0.07
-0.15
-0.33
-0.47
-0.59
-0.78
-1.07
-1.46
-1.87
-2.22
-2.45
-2.53
-2.52
-2.43
-2.31
-2.15
-1.93
-1.62
-1.18
-0.62
-0.01
0.52
0.85
0.90
0.69
0.36
0.09
0.02
0.18
0.51
0.87
1.12
1.19
1.10
0.94
0.81
0.80
0.92
1.09
1.18
1.10
0.86
0.54
0.32
0.29
0.43
0.61
0.69
0.61
0.43
0.30
0.31
0.46
0.63
0.63
0.36
-0.13
-0.70
-1.16
-1.39
-1.38
-1.23
-1.07
-1.00
-1.05
-1.20
-1.37
-1.50
-1.54
-1.53
-1.51
-1.55
-1.68
-1.84
-1.93
-1.83
-1.51
-1.03
-0.51
-0.08
0.22
0.45
0.69
0.99
1.28
1.45
1.40
1.13
0.78
0.52
0.47
0.64
0.92
1.18
1.31
1.27
1.06
0.75
0.39
0.05
-0.19
-0.26
-0.15
0.09
0.37
0.56
0.59
0.44
0.14
-0.24
-0.64
-1.02
-1.31
-1.48
-1.50
-1.38
-1.18
-0.99
-0.92
-1.00
-1.22
-1.53
-1.85
-2.07
-2.09
-1.86
-1.36
-0.66
0.09
0.73
1.15
1.34
1.36
1.33
1.32
1.34
1.37
1.37
1.30
1.18
0.99
0.77
0.53
0.34
0.24
0.28
0.45
0.70
0.93
1.09
1.19
1.24
1.29
1.30
1.20
0.91
0.43
-0.14
-0.65
-0.91
-0.87
-0.55
-0.13
0.24
0.43
0.38
0.14
-0.21
-0.60
-0.99
-1.37
-1.72
-2.02
-2.23
-2.33
-2.34
-2.29
-2.25
-2.25
-2.24
-2.14
-1.86
-1.35
-0.66
0.09
0.72
1.15
1.35
1.39
1.39
1.40
1.45
1.49
1.47
1.36
1.14
0.86
0.59
0.39
0.32
0.41
0.63
0.90
1.12
1.19
1.08
0.82
0.49
0.20
0.02
-0.02
0.02
0.10
0.20
0.32
0.46
0.62
0.74
0.75
0.62
0.34
-0.02
-0.39
-0.72
-0.99
-1.23
-1.44
-1.64
-1.81
-1.98
-2.17
-2.40
-2.59
-2.64
-2.45
-1.97
-1.29
-0.57
0.01
0.36
0.47
0.47
0.47
0.55
0.74
1.00
1.26
1.46
1.51
1.39
1.11
0.75
0.42
0.23
0.25
0.46
0.80
1.16
1.47
1.65
1.67
1.50
1.16
0.71
0.27
-0.07
-0.22
-0.21
-0.09
0.01
0.00
-0.14
-0.37
-0.59
-0.74
-0.78
-0.77
-0.78
-0.86
-1.03
-1.26
-1.47
-1.62
-1.67
-1.62
-1.47
-1.20
-0.81
-0.32
0.18
0.58
0.78
0.74
0.57
0.42
0.41
0.57
0.80
0.97
0.97
0.82
0.64
0.58
0.69
0.92
1.12
1.18
1.06
0.83
0.62
0.50
0.48
0.49
0.45
0.31
0.09
-0.18
-0.44
-0.67
-0.83
-0.94
-1.00
-1.06
-1.14
-1.26
-1.38
-1.48
-1.52
-1.47
-1.38
-1.31
-1.30
-1.35
-1.44
-1.51
-1.51
-1.41
-1.19
-0.84
-0.39
0.12
0.64
1.11
1.47
1.70
1.79
1.75
1.60
1.39
1.16
0.97
0.86
0.83
0.82
0.79
0.70
0.55
0.38
0.24
0.16
0.16
0.24
0.39
0.58
0.76
0.84
0.76
0.48
0.06
-0.40
-0.77
-0.93
-0.84
-0.57
-0.19
0.16
0.41
0.53
0.50
0.38
0.18
-0.05
-0.28
-0.49
-0.66
-0.80
-0.94
-1.13
-1.40
-1.74
-2.07
-2.29
-2.29
-2.02
-1.50
-0.82
-0.12
0.47
0.87
1.06
1.06
0.95
0.80
0.63
0.45
0.23
-0.03
-0.31
-0.53
-0.63
-0.58
-0.37
-0.09
0.19
0.42
0.58
0.70
0.80
0.89
0.96
0.93
0.76
0.45
0.07
-0.26
-0.43
-0.36
-0.10
0.24
0.52
0.62
0.53
0.27
-0.07
-0.42
-0.74
-1.02
-1.26
-1.44
-1.53
-1.49
-1.37
-1.20
-1.06
-0.98
-0.90
-0.74
-0.38
0.20
0.92
1.61
2.07
2.17
1.93
1.48
0.98
0.59
0.35
0.22
0.17
0.13
0.11
0.12
0.14
0.14
0.04
-0.15
-0.38
-0.53
-0.49
-0.20
0.27
0.77
1.11
1.14
0.85
0.33
-0.24
-0.67
-0.84
-0.74
-0.49
-0.24
-0.16
-0.30
-0.59
-0.91
-1.10
-1.13
-1.03
-0.93
-0.93
-1.06
-1.29
-1.52
-1.66
-1.68
-1.57
-1.33
-0.98
-0.55
-0.08
0.35
0.66
0.82
0.84
0.78
0.72
0.71
0.81
0.99
1.23
1.47
1.64
1.69
1.59
1.36
1.08
0.85
0.72
0.69
0.74
0.82
0.90
1.00
1.14
1.30
1.43
1.42
1.17
0.65
-0.07
-0.82
-1.43
-1.76
-1.79
-1.56
-1.20
-0.83
-0.55
-0.38
-0.33
-0.37
-0.46
-0.57
-0.71
-0.87
-1.03
-1.19
-1.33
-1.44
-1.56
-1.70
-1.88
-2.07
-2.18
-2.11
-1.79
-1.23
-0.53
0.17
0.72
1.08
1.24
1.23
1.10
0.88
0.62
0.42
0.36
0.48
0.73
0.96
1.05
0.93
0.66
0.37
0.21
0.22
0.38
0.62
0.85
1.04
1.18
1.28
1.31
1.21
0.92
0.44
-0.15
-0.70
-1.04
-1.08
-0.84
-0.47
-0.18
-0.10
-0.28
-0.63
-1.04
-1.40
-1.70
-1.94
-2.09
-2.12
-1.93
-1.49
-0.86
-0.15
0.49
0.99
1.35
1.65
1.96
2.25
2.44
2.41
2.12
1.60
1.01
0.50
0.22
0.18
0.30
0.47
0.60
0.67
0.69
0.68
0.63
0.51
0.29
0.01
-0.27
-0.45
-0.50
-0.44
-0.38
-0.41
-0.57
-0.80
-0.99
-1.03
-0.92
-0.71
-0.51
-0.42
-0.49
-0.70
-0.98
-1.27
-1.50
-1.66
-1.76
-1.80
-1.76
-1.59
-1.27
-0.83
-0.33
0.12
0.44
0.62
0.70
0.75
0.83
0.95
1.07
1.15
1.17
1.16
1.19
1.31
1.50
1.73
1.93
2.03
2.00
1.82
1.53
1.18
0.81
0.49
0.25
0.12
0.07
0.06
0.05
-0.01
-0.09
-0.17
-0.22
-0.26
-0.32
-0.46
-0.68
-0.94
-1.14
-1.24
-1.25
-1.23
-1.25
-1.32
-1.40
-1.44
-1.43
-1.40
-1.44
-1.56
-1.76
-1.93
-1.98
-1.87
-1.59
-1.20
-0.72
-0.17
0.42
1.00
1.46
1.70
1.65
1.36
0.92
0.50
0.18
0.04
0.02
0.09
0.20
0.33
0.51
0.74
1.01
1.27
1.46
1.54
1.50
1.37
1.16
0.90
0.59
0.26
-0.09
-0.37
-0.52
-0.47
-0.22
0.15
0.52
0.72
0.67
0.40
-0.00
-0.40
-0.69
-0.84
-0.89
-0.92
-0.99
-1.15
-1.36
-1.59
-1.75
-1.80
-1.71
-1.48
-1.14
-0.74
-0.29
0.17
0.65
1.10
1.48
1.70
1.73
1.56
1.24
0.84
0.45
0.12
-0.14
-0.30
-0.33
-0.20
0.09
0.48
0.86
1.09
1.09
0.88
0.57
0.28
0.10
0.00
-0.07
-0.18
-0.34
-0.49
-0.58
-0.57
-0.49
-0.42
-0.44
-0.58
-0.82
-1.06
-1.23
-1.29
-1.23
-1.11
-0.98
-0.93
-0.99
-1.15
-1.33
-1.44
-1.36
-1.03
-0.49
0.13
0.68
1.03
1.15
1.11
1.02
0.97
1.01
1.09
1.16
1.20
1.22
1.25
1.31
1.39
1.46
1.46
1.35
1.16
0.92
0.66
0.44
0.27
0.18
0.18
0.23
0.32
0.39
0.39
0.32
0.21
0.10
0.03
0.00
-0.02
-0.08
-0.22
-0.44
-0.69
-0.87
-0.94
-0.87
-0.70
-0.53
-0.46
-0.55
-0.81
-1.19
-1.60
-1.96
-2.18
-2.25
-2.15
-1.91
-1.54
-1.06
-0.51
0.05
0.52
0.84
0.96
0.90
0.74
0.57
0.51
0.57
0.75
0.98
1.18
1.29
1.27
1.14
0.92
0.70
0.58
0.62
0.84
1.16
1.44
1.56
1.43
1.11
0.72
0.35
0.09
-0.09
-0.23
-0.36
-0.47
-0.55
-0.54
-0.45
-0.29
-0.13
-0.01
0.02
-0.07
-0.29
-0.61
-0.99
-1.32
-1.57
-1.70
-1.75
-1.77
-1.81
-1.83
-1.75
-1.46
-0.96
-0.31
0.32
0.75
0.90
0.81
0.66
0.58
0.67
0.86
1.05
1.13
1.08
0.98
0.91
0.93
1.00
1.05
1.02
0.90
0.76
0.64
0.60
0.61
0.67
0.76
0.88
1.05
1.22
1.32
1.23
0.90
0.37
-0.22
-0.69
-0.92
-0.91
-0.73
-0.54
-0.43
-0.45
-0.53
-0.61
-0.64
-0.65
-0.70
-0.88
-1.22
-1.69
-2.20
-2.62
-2.87
-2.94
-2.84
-2.61
-2.27
-1.80
-1.19
-0.45
0.30
0.93
1.30
1.39
1.29
1.19
1.23
1.44
1.75
2.00
2.07
1.97
1.78
1.62
1.55
1.57
1.59
1.55
1.44
1.31
1.19
1.11
1.03
0.93
0.77
0.57
0.36
0.15
-0.06
-0.28
-0.49
-0.67
-0.77
-0.76
-0.64
-0.47
-0.30
-0.21
-0.23
-0.36
-0.56
-0.75
-0.86
-0.85
-0.75
-0.64
-0.60
-0.71
-0.98
-1.38
-1.82
-2.21
-2.49
-2.54
-2.33
-1.83
-1.12
-0.37
0.23
0.55
0.56
0.38
0.15
0.01
0.01
0.11
0.28
0.47
0.66
0.84
0.98
1.05
1.06
1.03
1.02
1.06
1.10
1.08
0.97
0.81
0.69
0.70
0.86
1.06
1.19
1.14
0.94
0.66
0.40
0.20
0.01
-0.22
-0.52
-0.85
-1.12
-1.27
-1.28
-1.24
-1.24
-1.38
-1.66
-2.04
-2.40
-2.60
-2.56
-2.23
-1.66
-0.93
-0.17
0.53
1.09
1.46
1.62
1.56
1.29
0.88
0.43
0.06
-0.08
0.04
0.39
0.84
1.24
1.48
1.55
1.52
1.48
1.48
1.47
1.39
1.17
0.83
0.45
0.16
0.03
0.07
0.21
0.34
0.42
0.42
0.36
0.26
0.11
-0.11
-0.40
-0.75
-1.10
-1.40
-1.62
-1.77
-1.92
-2.09
-2.31
-2.55
-2.76
-2.89
-2.90
-2.73
-2.37
-1.77
-0.96
-0.00
0.97
1.78
2.30
2.47
2.34
2.05
1.78
1.62
1.58
1.58
1.53
1.38
1.15
0.92
0.73
0.63
0.57
0.51
0.45
0.42
0.46
0.57
0.73
0.86
0.89
0.78
0.55
0.22
-0.15
-0.50
-0.76
-0.88
-0.83
-0.63
-0.34
-0.07
0.12
0.16
0.08
-0.10
-0.35
-0.66
-1.02
-1.40
-1.77
-2.02
-2.07
-1.91
-1.57
-1.16
-0.77
-0.46
-0.22
0.00
0.24
0.49
0.71
0.85
0.88
0.84
0.77
0.71
0.68
0.65
0.62
0.55
0.46
0.35
0.23
0.12
0.05
0.08
0.24
0.52
0.86
1.16
1.30
1.24
0.99
0.65
0.31
0.03
-0.21
-0.43
-0.69
-0.96
-1.17
-1.26
-1.18
-1.02
-0.90
-0.94
-1.15
-1.43
-1.60
-1.51
-1.14
-0.63
-0.16
0.14
0.27
0.34
0.49
0.80
1.22
1.61
1.87
1.95
1.90
1.77
1.61
1.39
1.07
0.66
0.23
-0.07
-0.13
0.08
0.46
0.82
1.00
0.92
0.64
0.30
0.03
-0.11
-0.14
-0.15
-0.23
-0.37
-0.54
-0.68
-0.79
-0.91
-1.10
-1.33
-1.57
-1.72
-1.75
-1.70
-1.66
-1.72
-1.92
-2.18
-2.39
-2.40
-2.13
-1.56
-0.78
0.04
0.73
1.12
1.17
0.93
0.58
0.27
0.13
0.16
0.29
0.42
0.52
0.59
0.65
0.73
0.79
0.79
0.70
0.57
0.45
0.45
0.58
0.80
1.04
1.22
1.32
1.36
1.35
1.32
1.25
1.12
0.95
0.79
0.69
0.68
0.74
0.77
0.69
0.48
0.18
-0.14
-0.41
-0.63
-0.86
-1.14
-1.50
-1.91
-2.29
-2.57
-2.69
-2.67
-2.55
-2.36
-2.12
-1.84
-1.51
-1.13
-0.70
-0.21
0.31
0.81
1.20
1.41
1.38
1.17
0.86
0.57
0.41
0.45
0.66
0.97
1.28
1.51
1.61
1.61
1.55
1.44
1.30
1.10
0.79
0.40
-0.01
-0.34
-0.51
-0.52
-0.41
-0.24
-0.08
0.06
0.17
0.20
0.10
-0.19
-0.68
-1.28
-1.83
-2.16
-2.16
-1.83
-1.26
-0.62
-0.07
0.30
0.46
0.48
0.46
0.50
0.65
0.88
1.10
1.21
1.15
0.93
0.66
0.43
0.31
0.32
0.40
0.51
0.61
0.72
0.84
0.99
1.13
1.21
1.16
0.98
0.70
0.38
0.13
-0.05
-0.19
-0.37
-0.63
-0.97
-1.28
-1.48
-1.51
-1.44
-1.40
-1.55
-1.92
-2.43
-2.90
-3.13
-3.00
-2.52
-1.81
-1.04
-0.35
0.16
0.47
0.64
0.74
0.85
1.01
1.19
1.33
1.41
1.41
1.39
1.36
1.34
1.31
1.24
1.13
1.04
1.02
1.10
1.24
1.36
1.39
1.30
1.13
0.93
0.75
0.58
0.41
0.19
-0.05
-0.32
-0.60
-0.89
-1.16
-1.37
-1.46
-1.36
-1.08
-0.68
-0.30
-0.09
-0.15
-0.52
-1.11
-1.78
-2.36
-2.71
-2.76
-2.49
-1.97
-1.27
-0.50
0.23
0.82
1.22
1.43
1.49
1.47
1.42
1.38
1.36
1.34
1.30
1.24
1.17
1.14
1.16
1.25
1.37
1.47
1.48
1.39
1.20
0.97
0.74
0.53
0.35
0.18
0.02
-0.09
-0.10
0.05
0.33
0.66
0.90
0.95
0.73
0.29
-0.28
-0.81
-1.17
-1.35
-1.39
-1.38
-1.40
-1.47
-1.54
-1.55
-1.50
-1.46
-1.53
-1.78
-2.16
-2.57
-2.85
-2.85
-2.53
-1.92
-1.12
-0.27
0.52
1.14
1.53
1.70
1.67
1.53
1.36
1.23
1.21
1.30
1.46
1.64
1.76
1.76
1.62
1.35
1.03
0.73
0.54
0.47
0.48
0.51
0.51
0.43
0.30
0.14
0.00
-0.07
-0.06
0.03
0.17
0.29
0.31
0.13
-0.24
-0.74
-1.24
-1.60
-1.76
-1.75
-1.66
-1.63
-1.68
-1.77
-1.78
-1.63
-1.30
-0.86
-0.42
-0.05
0.24
0.48
0.74
1.02
1.26
1.38
1.33
1.15
0.93
0.79
0.79
0.90
1.03
1.11
1.10
1.07
1.09
1.20
1.35
1.45
1.41
1.19
0.84
0.47
0.22
0.11
0.12
0.16
0.12
-0.07
-0.36
-0.69
-0.95
-1.08
-1.09
-1.04
-0.99
-0.99
-1.05
-1.15
-1.26
-1.39
-1.56
-1.78
-2.04
-2.30
-2.51
-2.58
-2.47
-2.16
-1.68
-1.06
-0.37
0.33
0.99
1.54
1.90
2.01
1.86
1.50
1.06
0.71
0.59
0.76
1.14
1.61
2.01
2.22
2.20
1.98
1.62
1.21
0.81
0.46
0.18
-0.03
-0.17
-0.21
-0.15
0.01
0.21
0.38
0.46
0.41
0.27
0.11
-0.04
-0.16
-0.29
-0.47
-0.70
-0.92
-1.08
-1.13
-1.10
-1.03
-1.00
-1.05
-1.22
-1.47
-1.76
-2.03
-2.21
-2.23
-2.04
-1.61
-0.99
-0.28
0.38
0.88
1.15
1.24
1.22
1.21
1.30
1.47
1.67
1.79
1.73
1.50
1.13
0.76
0.48
0.35
0.35
0.40
0.41
0.34
0.21
0.07
0.01
0.05
0.14
0.18
0.07
-0.22
-0.59
-0.93
-1.11
-1.12
-1.00
-0.85
-0.73
-0.66
-0.61
-0.58
-0.59
-0.69
-0.90
-1.20
-1.47
-1.62
-1.58
-1.35
-0.96
-0.48
0.05
0.56
0.99
1.27
1.33
1.17
0.88
0.58
0.40
0.40
0.53
0.73
0.91
1.03
1.10
1.10
1.06
0.95
0.79
0.61
0.47
0.42
0.49
0.67
0.86
0.97
0.94
0.74
0.42
0.07
-0.24
-0.44
-0.48
-0.38
-0.17
0.06
0.21
0.23
0.05
-0.31
-0.78
-1.28
-1.74
-2.11
-2.38
-2.57
-2.63
-2.52
-2.21
-1.72
-1.16
-0.65
-0.30
-0.14
-0.09
-0.03
0.15
0.49
0.95
1.40
1.73
1.83
1.71
1.43
1.09
0.81
0.66
0.68
0.81
0.98
1.11
1.16
1.14
1.10
1.08
1.05
1.01
0.90
0.72
0.52
0.38
0.32
0.35
0.41
0.43
0.36
0.18
-0.09
-0.39
-0.67
-0.92
-1.10
-1.22
-1.29
-1.35
-1.44
-1.59
-1.83
-2.16
-2.54
-2.86
-2.99
-2.83
-2.33
-1.57
-0.72
0.01
0.49
0.71
0.78
0.82
0.91
1.03
1.10
1.02
0.77
0.42
0.09
-0.09
-0.05
0.24
0.68
1.15
1.48
1.57
1.41
1.08
0.73
0.49
0.39
0.42
0.52
0.63
0.70
0.69
0.56
0.31
-0.04
-0.42
-0.70
-0.82
-0.77
-0.66
-0.60
-0.70
-0.97
-1.33
-1.68
-1.92
-2.02
-1.94
-1.72
-1.37
-0.92
-0.41
0.10
0.54
0.88
1.13
1.31
1.47
1.59
1.68
1.68
1.59
1.41
1.18
0.95
0.75
0.61
0.51
0.46
0.45
0.51
0.66
0.91
1.20
1.42
1.46
1.28
0.90
0.46
0.10
-0.08
-0.08
-0.01
-0.00
-0.14
-0.42
-0.75
-1.02
-1.17
-1.21
-1.24
-1.34
-1.57
-1.91
-2.26
-2.52
-2.60
-2.45
-2.13
-1.70
-1.24
-0.82
-0.45
-0.14
0.11
0.32
0.54
0.78
1.05
1.30
1.44
1.41
1.20
0.88
0.57
0.36
0.32
0.41
0.53
0.61
0.60
0.54
0.48
0.50
0.62
0.82
1.05
1.25
1.37
1.36
1.20
0.90
0.51
0.13
-0.15
-0.30
-0.35
-0.40
-0.51
-0.69
-0.90
-1.06
-1.15
-1.23
-1.39
-1.69
-2.10
-2.51
-2.76
-2.71
-2.35
-1.76
-1.08
-0.47
0.02
0.39
0.68
0.97
1.26
1.51
1.64
1.58
1.35
1.02
0.71
0.52
0.50
0.62
0.81
1.04
1.26
1.47
1.64
1.69
1.58
1.30
0.91
0.55
0.33
0.32
0.45
0.60
0.64
0.52
0.29
0.05
-0.15
-0.29
-0.43
-0.63
-0.87
-1.16
-1.48
-1.84
-2.29
-2.81
-3.31
-3.61
-3.53
-2.99
-2.07
-1.00
-0.02
0.68
1.08
1.25
1.33
1.39
1.46
1.56
1.62
1.64
1.60
1.49
1.34
1.16
1.04
0.99
1.05
1.19
1.35
1.47
1.48
1.38
1.16
0.88
0.57
0.28
0.03
-0.18
-0.33
-0.44
-0.51
-0.55
-0.55
-0.50
-0.42
-0.31
-0.18
-0.07
-0.00
-0.03
-0.21
-0.57
-1.06
-1.60
-2.07
-2.39
-2.52
-2.51
-2.42
-2.28
-2.10
-1.88
-1.59
-1.24
-0.84
-0.40
0.07
0.56
1.08
1.55
1.91
2.07
2.01
1.74
1.38
1.06
0.90
0.95
1.16
1.41
1.53
1.46
1.17
0.78
0.41
0.18
0.12
0.20
0.34
0.44
0.46
0.38
0.26
0.17
0.16
0.27
0.44
0.59
0.64
0.56
0.39
0.22
0.12
0.08
0.03
-0.14
-0.50
-0.99
-1.51
-1.88
-2.01
-1.92
-1.73
-1.55
-1.50
-1.55
-1.62
-1.57
-1.36
-0.99
-0.55
-0.16
0.11
0.24
0.27
0.26
0.28
0.39
0.59
0.85
1.07
1.18
1.13
0.96
0.73
0.58
0.57
0.71
0.92
1.09
1.15
1.07
0.91
0.75
0.63
0.58
0.56
0.52
0.38
0.14
-0.18
-0.55
-0.87
-1.11
-1.23
-1.25
-1.23
-1.20
-1.23
-1.35
-1.53
-1.74
-1.88
-1.90
-1.74
-1.41
-0.94
-0.40
0.17
0.70
1.16
1.49
1.65
1.65
1.52
1.33
1.17
1.10
1.11
1.16
1.16
1.07
0.87
0.59
0.32
0.10
0.02
0.08
0.27
0.53
0.77
0.91
0.89
0.70
0.38
-0.00
-0.36
-0.62
-0.75
-0.76
-0.69
-0.60
-0.54
-0.54
-0.62
-0.75
-0.96
-1.22
-1.53
-1.83
-2.09
-2.25
-2.26
-2.13
-1.85
-1.48
-1.07
-0.64
-0.23
0.18
0.58
0.96
1.30
1.55
1.66
1.61
1.44
1.22
1.05
0.98
1.01
1.07
1.07
0.97
0.75
0.48
0.24
0.13
0.17
0.35
0.57
0.73
0.77
0.64
0.42
0.21
0.13
0.26
0.54
0.85
1.02
0.93
0.58
0.11
-0.33
-0.61
-0.75
-0.83
-1.00
-1.29
-1.64
-1.93
-2.05
-1.98
-1.80
-1.62
-1.52
-1.48
-1.42
-1.27
-0.97
-0.56
-0.12
0.27
0.52
0.63
0.63
0.59
0.61
0.72
0.93
1.20
1.47
1.68
1.79
1.76
1.61
1.37
1.08
0.80
0.58
0.44
0.36
0.30
0.24
0.16
0.07
-0.02
-0.10
-0.21
-0.38
-0.64
-0.93
-1.18
-1.32
-1.31
-1.21
-1.12
-1.17
-1.37
-1.70
-2.02
-2.22
-2.22
-1.98
-1.55
-0.97
-0.32
0.36
1.00
1.53
1.92
2.14
2.20
2.11
1.94
1.71
1.47
1.26
1.13
1.10
1.18
1.33
1.46
1.51
1.43
1.25
1.06
0.92
0.85
0.81
0.72
0.52
0.24
-0.04
-0.25
-0.38
-0.48
-0.63
-0.87
-1.16
-1.42
-1.52
-1.44
-1.24
-1.01
-0.87
-0.89
-1.03
-1.27
-1.54
-1.86
-2.19
-2.50
-2.69
-2.65
-2.30
-1.66
-0.85
-0.03
0.65
1.13
1.41
1.57
1.66
1.71
1.71
1.63
1.47
1.27
1.08
0.94
0.88
0.87
0.88
0.85
0.75
0.60
0.45
0.37
0.42
0.62
0.89
1.13
1.24
1.14
0.80
0.30
-0.24
-0.67
-0.84
-0.74
-0.43
-0.09
0.11
0.05
-0.23
-0.61
-0.96
-1.19
-1.35
-1.51
-1.73
-2.02
-2.30
-2.53
-2.65
-2.68
-2.61
-2.43
-2.10
-1.62
-1.05
-0.46
0.04
0.43
0.72
0.94
1.17
1.41
1.62
1.77
1.84
1.81
1.70
1.53
1.33
1.11
0.95
0.87
0.89
1.00
1.15
1.30
1.43
1.54
1.64
1.68
1.63
1.42
1.04
0.54
0.01
-0.42
-0.70
-0.82
-0.82
-0.76
-0.66
-0.53
-0.36
-0.21
-0.14
-0.22
-0.51
-0.98
-1.55
-2.12
-2.57
-2.80
-2.74
-2.37
-1.72
-0.93
-0.15
0.45
0.78
0.82
0.65
0.41
0.25
0.28
0.52
0.94
1.45
1.91
2.21
2.27
2.07
1.71
1.31
0.99
0.80
0.73
0.74
0.76
0.75
0.70
0.61
0.45
0.21
-0.11
-0.44
-0.70
-0.82
-0.79
-0.68
-0.59
-0.63
-0.84
-1.19
-1.61
-2.04
-2.39
-2.59
-2.59
-2.38
-2.00
-1.53
-1.08
-0.68
-0.34
0.03
0.48
0.97
1.40
1.63
1.57
1.26
0.82
0.40
0.09
-0.11
-0.27
-0.41
-0.50
-0.49
-0.35
-0.11
0.15
0.33
0.37
0.31
0.24
0.26
0.37
0.52
0.61
0.55
0.33
0.01
-0.31
-0.58
-0.82
-1.07
-1.40
-1.81
-2.26
-2.64
-2.90
-3.04
-3.11
-3.24
-3.47
-3.81
-4.17
-4.44
-4.51
-4.35
-4.00
-3.54
-3.03
-2.49
-1.88
-1.19
-0.40
0.45
1.31
2.11
2.83
3.43
3.88
4.12
4.12
3.90
3.54
3.19
2.97
2.92
2.96
2.96
2.82
2.50
2.11
1.80
1.69
1.80
2.00
2.14
2.09
1.83
1.45
1.06
0.75
0.50
0.28
0.05
-0.15
-0.26
-0.22
-0.07
0.07
0.05
-0.19
-0.61
-1.06
-1.38
-1.44
-1.27
-0.93
-0.53
-0.13
0.23
0.54
0.81
1.00
1.10
1.12
1.07
1.01
0.95
0.89
0.84
0.78
0.74
0.73
0.79
0.88
0.96
0.96
0.86
0.66
0.43
0.23
0.11
0.05
-0.00
-0.12
-0.30
-0.47
-0.54
-0.44
-0.21
0.03
0.13
0.01
-0.30
-0.65
-0.93
-1.08
-1.19
-1.34
-1.58
-1.85
-1.99
-1.90
-1.51
-0.94
-0.33
0.17
0.48
0.62
0.65
0.68
0.75
0.88
1.04
1.18
1.25
1.21
1.07
0.89
0.75
0.69
0.69
0.70
0.64
0.50
0.32
0.19
0.18
0.27
0.39
0.42
0.29
-0.01
-0.36
-0.63
-0.70
-0.55
-0.26
0.02
0.16
0.10
-0.15
-0.49
-0.79
-0.98
-1.09
-1.17
-1.33
-1.59
-1.91
-2.17
-2.23
-2.04
-1.62
-1.09
-0.57
-0.13
0.24
0.57
0.88
1.13
1.25
1.21
1.03
0.81
0.66
0.62
0.70
0.82
0.91
0.94
0.91
0.87
0.83
0.78
0.71
0.61
0.51
0.45
0.48
0.59
0.74
0.81
0.75
0.53
0.20
-0.14
-0.39
-0.49
-0.47
-0.40
-0.38
-0.42
-0.51
-0.58
-0.59
-0.56
-0.54
-0.61
-0.82
-1.18
-1.64
-2.13
-2.58
-2.86
-2.89
-2.60
-2.00
-1.18
-0.30
0.48
1.01
1.26
1.27
1.11
0.89
0.67
0.52
0.48
0.56
0.73
0.95
1.16
1.29
1.30
1.20
1.04
0.87
0.75
0.73
0.80
0.94
1.08
1.18
1.17
0.99
0.66
0.20
-0.29
-0.70
-0.95
-0.99
-0.85
-0.64
-0.50
-0.53
-0.79
-1.20
-1.63
-1.92
-1.96
-1.75
-1.39
-1.02
-0.74
-0.56
-0.42
-0.22
0.08
0.42
0.69
0.80
0.70
0.46
0.19
-0.02
-0.14
-0.20
-0.25
-0.31
-0.36
-0.37
-0.28
-0.05
0.29
0.64
0.90
1.01
0.95
0.78
0.61
0.53
0.57
0.68
0.77
0.73
0.53
0.18
-0.29
-0.82
-1.33
-1.76
-2.04
-2.17
-2.19
-2.18
-2.23
-2.36
-2.53
-2.67
-2.70
-2.58
-2.31
-1.93
-1.50
-1.02
-0.52
-0.06
0.33
0.59
0.74
0.83
0.95
1.15
1.45
1.79
2.08
2.24
2.22
2.04
1.74
1.42
1.14
0.97
0.92
0.98
1.09
1.19
1.22
1.16
0.98
0.71
0.39
0.08
-0.14
-0.25
-0.25
-0.20
-0.15
-0.10
-0.05
0.04
0.18
0.33
0.44
0.44
0.31
0.07
-0.22
-0.51
-0.78
-1.03
-1.24
-1.40
-1.46
-1.39
-1.18
-0.83
-0.42
0.01
0.36
0.59
0.68
0.65
0.57
0.50
0.50
0.60
0.81
1.07
1.35
1.57
1.72
1.78
1.78
1.73
1.61
1.43
1.21
0.97
0.80
0.72
0.70
0.65
0.45
0.05
-0.51
-1.08
-1.48
-1.63
-1.54
-1.34
-1.17
-1.12
-1.20
-1.34
-1.48
-1.54
-1.54
-1.53
-1.54
-1.61
-1.69
-1.68
-1.51
-1.13
-0.59
-0.05
0.36
0.55
0.55
0.49
0.52
0.70
0.97
1.20
1.29
1.22
1.09
1.03
1.11
1.30
1.51
1.62
1.58
1.40
1.11
0.81
0.54
0.34
0.20
0.11
0.02
-0.07
-0.17
-0.30
-0.43
-0.55
-0.64
-0.66
-0.62
-0.52
-0.40
-0.32
-0.36
-0.57
-0.91
-1.29
-1.60
-1.75
-1.71
-1.51
-1.21
-0.85
-0.47
-0.09
0.26
0.57
0.81
0.98
1.12
1.23
1.32
1.37
1.37
1.31
1.19
1.06
0.94
0.89
0.89
0.94
1.00
1.03
1.04
1.10
1.25
1.53
1.91
2.27
2.45
2.35
1.93
1.27
0.56
-0.01
-0.33
-0.37
-0.22
-0.05
-0.02
-0.19
-0.51
-0.84
-1.04
-1.02
-0.83
-0.65
-0.63
-0.85
-1.29
-1.82
-2.29
-2.60
-2.71
-2.66
-2.51
-2.28
-1.99
-1.60
-1.09
-0.47
0.20
0.83
1.30
1.55
1.60
1.53
1.44
1.40
1.39
1.34
1.23
1.04
0.87
0.80
0.86
1.03
1.23
1.39
1.48
1.50
1.48
1.44
1.36
1.24
1.08
0.89
0.68
0.44
0.20
-0.05
-0.25
-0.38
-0.43
-0.44
-0.49
-0.66
-0.98
-1.42
-1.87
-2.21
-2.32
-2.24
-2.06
-1.94
-1.99
-2.22
-2.50
-2.66
-2.52
-2.06
-1.35
-0.54
0.22
0.81
1.20
1.41
1.48
1.47
1.44
1.42
1.43
1.44
1.40
1.27
1.06
0.84
0.71
0.73
0.89
1.13
1.32
1.38
1.28
1.03
0.73
0.47
0.33
0.32
0.41
0.50
0.50
0.36
0.13
-0.09
-0.18
-0.10
0.09
0.25
0.24
-0.01
-0.41
-0.81
-1.08
-1.16
-1.10
-1.00
-1.02
-1.25
-1.73
-2.40
-3.11
-3.66
-3.86
-3.60
-2.90
-1.91
-0.83
0.14
0.87
1.34
1.59
1.68
1.68
1.63
1.57
1.54
1.53
1.51
1.44
1.29
1.08
0.87
0.71
0.65
0.64
0.65
0.62
0.54
0.46
0.44
0.51
0.64
0.77
0.83
0.78
0.61
0.36
0.09
-0.18
-0.41
-0.58
-0.65
-0.61
-0.44
-0.18
0.11
0.35
0.47
0.43
0.22
-0.14
-0.62
-1.16
-1.71
-2.14
-2.38
-2.36
-2.14
-1.80
-1.50
-1.35
-1.38
-1.57
-1.79
-1.95
-1.98
-1.85
-1.55
-1.11
-0.57
0.01
0.58
1.11
1.57
1.96
2.27
2.45
2.47
2.29
1.92
1.43
0.88
0.36
-0.04
-0.28
-0.30
-0.11
0.25
0.69
1.11
1.42
1.58
1.59
1.45
1.17
0.78
0.33
-0.08
-0.35
-0.40
-0.24
0.06
0.34
0.49
0.45
0.23
-0.07
-0.33
-0.44
-0.40
-0.25
-0.12
-0.12
-0.30
-0.60
-0.92
-1.14
-1.20
-1.13
-1.04
-1.06
-1.30
-1.79
-2.47
-3.21
-3.82
-4.13
-4.03
-3.52
-2.71
-1.80
-0.93
-0.20
0.43
1.01
1.58
2.08
2.41
2.46
2.22
1.81
1.40
1.14
1.07
1.10
1.11
1.00
0.79
0.59
0.52
0.67
1.00
1.37
1.64
1.72
1.59
1.31
0.97
0.64
0.34
0.04
-0.27
-0.59
-0.90
-1.15
-1.33
-1.44
-1.56
-1.77
-2.10
-2.54
-3.00
-3.37
-3.51
-3.36
-2.95
-2.35
-1.65
-0.96
-0.32
0.23
0.68
1.03
1.26
1.36
1.36
1.27
1.11
0.92
0.74
0.61
0.54
0.54
0.59
0.66
0.70
0.69
0.61
0.46
0.31
0.22
0.22
0.29
0.33
0.25
-0.02
-0.43
-0.88
-1.21
-1.39
-1.43
-1.46
-1.58
-1.83
-2.15
-2.41
-2.53
-2.44
-2.14
-1.68
-1.07
-0.38
0.32
0.91
1.33
1.52
1.54
1.46
1.37
1.31
1.29
1.29
1.27
1.23
1.19
1.17
1.16
1.15
1.12
1.05
0.95
0.81
0.65
0.48
0.32
0.17
0.03
-0.12
-0.29
-0.50
-0.72
-0.89
-0.98
-0.96
-0.92
-0.98
-1.28
-1.85
-2.59
-3.25
-3.56
-3.38
-2.74
-1.82
-0.89
-0.10
0.49
0.96
1.37
1.71
1.91
1.89
1.67
1.36
1.13
1.11
1.26
1.49
1.62
1.57
1.36
1.09
0.86
0.76
0.75
0.77
0.73
0.58
0.33
0.01
-0.27
-0.46
-0.49
-0.37
-0.16
-0.01
-0.03
-0.30
-0.84
-1.54
-2.26
-2.84
-3.18
-3.26
-3.15
-2.97
-2.82
-2.75
-2.72
-2.65
-2.42
-2.01
-1.43
-0.76
-0.05
0.65
1.32
1.95
2.47
2.77
2.78
2.46
1.92
1.32
0.86
0.68
0.81
1.15
1.56
1.92
2.14
2.22
2.18
2.06
1.83
1.50
1.07
0.62
0.25
0.04
0.03
0.17
0.31
0.32
0.10
-0.34
-0.92
-1.48
-1.94
-2.22
-2.32
-2.28
-2.09
-1.73
-1.17
-0.41
0.45
1.25
1.82
2.05
1.96
1.64
1.25
0.89
0.60
0.40
0.27
0.22
0.26
0.40
0.64
0.93
1.23
1.48
1.64
1.66
1.53
1.23
0.80
0.36
0.01
-0.16
-0.16
-0.13
-0.18
-0.41
-0.79
-1.22
-1.55
-1.73
-1.78
-1.81
-1.95
-2.22
-2.57
-2.89
-3.02
-2.87
-2.45
-1.84
-1.17
-0.53
0.01
0.45
0.85
1.24
1.65
2.04
2.37
2.60
2.69
2.68
2.60
2.47
2.28
1.98
1.55
1.05
0.56
0.22
0.15
0.36
0.76
1.19
1.51
1.63
1.55
1.33
1.04
0.73
0.43
0.16
-0.05
-0.16
-0.15
-0.03
0.15
0.29
0.31
0.20
-0.02
-0.29
-0.56
-0.78
-0.98
-1.16
-1.36
-1.56
-1.72
-1.78
-1.71
-1.54
-1.36
-1.26
-1.33
-1.61
-2.05
-2.59
-3.12
-3.53
-3.74
-3.72
-3.45
-2.94
-2.22
-1.32
-0.35
0.59
1.34
1.80
1.95
1.86
1.69
1.57
1.57
1.69
1.81
1.86
1.79
1.63
1.46
1.33
1.28
1.30
1.38
1.50
1.66
1.81
1.88
1.80
1.53
1.11
0.65
0.29
0.13
0.19
0.42
0.72
0.97
1.10
1.09
0.95
0.69
0.35
-0.05
-0.49
-0.90
-1.24
-1.45
-1.52
-1.48
-1.39
-1.31
-1.29
-1.35
-1.46
-1.59
-1.67
-1.68
-1.61
-1.55
-1.59
-1.79
-2.16
-2.55
-2.79
-2.69
-2.18
-1.36
-0.42
0.41
0.98
1.26
1.31
1.26
1.17
1.09
1.04
1.01
1.02
1.07
1.13
1.15
1.09
0.96
0.83
0.80
0.96
1.32
1.79
2.20
2.44
2.44
2.24
1.92
1.57
1.24
0.96
0.72
0.52
0.38
0.29
0.23
0.15
0.01
-0.21
-0.49
-0.83
-1.21
-1.63
-2.06
-2.43
-2.67
-2.70
-2.53
-2.21
-1.86
-1.60
-1.53
-1.70
-2.14
-2.81
-3.63
-4.43
-4.98
-5.09
-4.67
-3.80
-2.65
-1.45
-0.37
0.52
1.23
1.76
2.12
2.28
2.26
2.13
1.99
1.90
1.87
1.86
1.84
1.84
1.86
1.94
2.00
2.00
1.87
1.64
1.41
1.31
1.39
1.65
1.96
2.21
2.26
2.06
1.65
1.11
0.57
0.15
-0.08
-0.10
0.01
0.18
0.33
0.41
0.42
0.36
0.18
-0.10
-0.49
-0.91
-1.28
-1.52
-1.61
-1.62
-1.63
-1.73
-1.91
-2.14
-2.36
-2.57
-2.79
-3.05
-3.30
-3.43
-3.30
-2.82
-2.04
-1.10
-0.21
0.52
1.05
1.45
1.76
1.99
2.10
2.05
1.87
1.65
1.49
1.43
1.46
1.50
1.53
1.56
1.62
1.75
1.92
2.06
2.09
2.03
1.90
1.79
1.73
1.69
1.61
1.43
1.18
0.92
0.74
0.71
0.78
0.85
0.80
0.59
0.24
-0.14
-0.42
-0.53
-0.49
-0.39
-0.33
-0.36
-0.48
-0.65
-0.80
-0.91
-1.00
-1.10
-1.24
-1.41
-1.61
-1.83
-2.08
-2.36
-2.66
-2.95
-3.17
-3.23
-3.10
-2.73
-2.14
-1.34
-0.40
0.54
1.35
1.90
2.15
2.16
2.05
1.89
1.73
1.54
1.30
1.04
0.86
0.86
1.08
1.43
1.71
1.78
1.58
1.23
0.88
0.69
0.73
0.91
1.16
1.36
1.49
1.56
1.57
1.48
1.20
0.69
0.01
-0.66
-1.09
-1.12
-0.73
-0.13
0.36
0.49
0.17
-0.48
-1.21
-1.79
-2.11
-2.19
-2.12
-1.99
-1.87
-1.79
-1.79
-1.90
-2.12
-2.40
-2.61
-2.61
-2.29
-1.62
-0.70
0.31
1.20
1.83
2.13
2.15
1.97
1.71
1.45
1.21
0.97
0.71
0.42
0.14
-0.07
-0.16
-0.09
0.12
0.39
0.65
0.84
0.94
0.99
1.00
0.98
0.93
0.80
0.62
0.44
0.35
0.36
0.42
0.41
0.25
-0.08
-0.49
-0.86
-1.07
-1.11
-1.09
-1.14
-1.39
-1.87
-2.44
-2.92
-3.11
-2.89
-2.31
-1.52
-0.73
-0.10
0.30
0.51
0.62
0.70
0.81
0.93
1.04
1.14
1.22
1.29
1.35
1.36
1.33
1.26
1.19
1.19
1.25
1.39
1.52
1.56
1.45
1.15
0.71
0.21
-0.27
-0.66
-0.90
-0.97
-0.86
-0.62
-0.33
-0.13
-0.09
-0.27
-0.61
-1.01
-1.37
-1.62
-1.80
-2.00
-2.30
-2.72
-3.15
-3.43
-3.41
-3.03
-2.33
-1.45
-0.55
0.25
0.92
1.50
2.01
2.48
2.87
3.16
3.32
3.30
3.13
2.82
2.43
2.04
1.73
1.57
1.55
1.61
1.65
1.58
1.38
1.07
0.74
0.47
0.31
0.25
0.26
0.32
0.38
0.43
0.43
0.35
0.18
-0.09
-0.40
-0.69
-0.88
-0.92
-0.82
-0.64
-0.47
-0.39
-0.47
-0.70
-1.04
-1.47
-1.94
-2.43
-2.91
-3.32
-3.59
-3.62
-3.36
-2.81
-2.05
-1.22
-0.44
0.19
0.64
0.93
1.11
1.23
1.34
1.45
1.55
1.61
1.59
1.47
1.29
1.07
0.91
0.86
0.93
1.08
1.24
1.34
1.36
1.33
1.31
1.32
1.34
1.34
1.29
1.18
1.05
0.93
0.81
0.68
0.52
0.34
0.19
0.10
0.07
0.05
-0.03
-0.26
-0.61
-1.02
-1.35
-1.52
-1.51
-1.42
-1.38
-1.46
-1.67
-1.95
-2.19
-2.32
-2.33
-2.29
-2.24
-2.20
-2.13
-1.91
-1.46
-0.75
0.13
1.03
1.72
2.07
2.06
1.78
1.45
1.23
1.20
1.31
1.41
1.40
1.23
0.96
0.71
0.54
0.49
0.53
0.57
0.56
0.47
0.34
0.20
0.11
0.10
0.17
0.27
0.34
0.32
0.19
-0.03
-0.29
-0.53
-0.73
-0.86
-0.91
-0.86
-0.75
-0.62
-0.55
-0.64
-0.92
-1.38
-1.89
-2.30
-2.46
-2.30
-1.84
-1.17
-0.44
0.22
0.69
0.95
1.03
1.02
1.01
1.09
1.26
1.46
1.63
1.67
1.57
1.39
1.19
1.05
0.97
0.91
0.82
0.71
0.62
0.64
0.78
1.00
1.16
1.13
0.86
0.43
0.01
-0.27
-0.34
-0.30
-0.30
-0.47
-0.84
-1.35
-1.89
-2.32
-2.59
-2.67
-2.59
-2.45
-2.33
-2.34
-2.51
-2.81
-3.08
-3.14
-2.86
-2.23
-1.41
-0.59
0.01
0.37
0.53
0.67
0.90
1.20
1.45
1.52
1.33
0.94
0.52
0.21
0.09
0.12
0.23
0.34
0.47
0.65
0.90
1.18
1.39
1.47
1.40
1.27
1.20
1.27
1.51
1.88
2.29
2.62
2.76
2.61
2.10
1.30
0.37
-0.47
-1.03
-1.24
-1.16
-0.94
-0.74
-0.65
-0.64
-0.66
-0.69
-0.74
-0.86
-1.08
-1.38
-1.68
-1.91
-2.02
-2.04
-2.01
-1.97
-1.94
-1.86
-1.64
-1.20
-0.51
0.37
1.28
2.04
2.47
2.49
2.12
1.53
0.94
0.56
0.48
0.70
1.07
1.41
1.61
1.60
1.46
1.29
1.18
1.20
1.34
1.55
1.75
1.87
1.83
1.58
1.16
0.68
0.28
0.11
0.23
0.54
0.89
1.08
1.03
0.74
0.33
-0.05
-0.30
-0.39
-0.39
-0.38
-0.43
-0.57
-0.77
-1.01
-1.29
-1.63
-2.05
-2.51
-2.92
-3.17
-3.15
-2.86
-2.38
-1.83
-1.36
-1.01
-0.74
-0.49
-0.20
0.12
0.41
0.61
0.69
0.66
0.57
0.49
0.45
0.47
0.55
0.67
0.81
0.96
1.11
1.26
1.39
1.48
1.50
1.41
1.16
0.78
0.31
-0.14
-0.44
-0.53
-0.45
-0.30
-0.21
-0.25
-0.37
-0.49
-0.51
-0.42
-0.29
-0.20
-0.26
-0.47
-0.82
-1.26
-1.75
-2.28
-2.80
-3.23
-3.42
-3.28
-2.78
-2.03
-1.20
-0.47
0.04
0.33
0.47
0.56
0.67
0.82
0.97
1.09
1.14
1.14
1.12
1.10
1.09
1.07
1.06
1.05
1.04
1.01
0.94
0.84
0.72
0.62
0.60
0.66
0.77
0.87
0.90
0.81
0.64
0.43
0.24
0.11
-0.00
-0.14
-0.36
-0.63
-0.90
-1.08
-1.09
-0.98
-0.81
-0.72
-0.78
-1.01
-1.39
-1.82
-2.24
-2.58
-2.77
-2.77
-2.55
-2.12
-1.55
-0.95
-0.41
-0.03
0.22
0.39
0.57
0.85
1.19
1.54
1.80
1.90
1.86
1.73
1.64
1.65
1.75
1.88
1.93
1.85
1.65
1.41
1.22
1.12
1.10
1.06
0.94
0.69
0.36
0.01
-0.26
-0.44
-0.53
-0.57
-0.57
-0.53
-0.39
-0.13
0.22
0.55
0.77
0.79
0.63
0.36
0.11
-0.09
-0.26
-0.52
-0.92
-1.48
-2.07
-2.50
-2.62
-2.39
-1.89
-1.31
-0.82
-0.48
-0.25
-0.02
0.27
0.61
0.90
1.01
0.89
0.56
0.17
-0.15
-0.26
-0.13
0.18
0.55
0.88
1.08
1.15
1.11
1.03
0.95
0.87
0.80
0.72
0.62
0.49
0.33
0.11
-0.20
-0.60
-1.05
-1.45
-1.71
-1.76
-1.63
-1.42
-1.26
-1.22
-1.31
-1.47
-1.63
-1.75
-1.81
-1.78
-1.61
-1.26
-0.69
0.09
0.94
1.69
2.16
2.26
2.04
1.68
1.37
1.26
1.39
1.64
1.88
1.95
1.81
1.52
1.20
0.97
0.87
0.88
0.92
0.90
0.78
0.61
0.44
0.32
0.26
0.23
0.17
0.02
-0.23
-0.55
-0.86
-1.07
-1.13
-1.02
-0.79
-0.57
-0.49
-0.65
-1.08
-1.68
-2.29
-2.74
-2.93
-2.83
-2.50
-2.01
-1.46
-0.92
-0.44
-0.04
0.26
0.49
0.70
0.90
1.10
1.24
1.30
1.23
1.09
0.95
0.88
0.93
1.07
1.25
1.40
1.48
1.50
1.47
1.42
1.36
1.29
1.24
1.21
1.21
1.24
1.25
1.18
1.00
0.69
0.30
-0.05
-0.26
-0.26
-0.08
0.19
0.39
0.38
0.12
-0.36
-0.93
-1.46
-1.86
-2.09
-2.15
-2.06
-1.85
-1.58
-1.34
-1.27
-1.44
-1.82
-2.24
-2.46
-2.31
-1.73
-0.84
0.10
0.87
1.31
1.45
1.38
1.19
0.97
0.76
0.59
0.48
0.50
0.62
0.84
1.05
1.18
1.18
1.06
0.88
0.71
0.57
0.50
0.46
0.47
0.51
0.57
0.61
0.60
0.51
0.35
0.20
0.14
0.18
0.26
0.27
0.13
-0.14
-0.42
-0.56
-0.48
-0.22
0.03
0.10
-0.14
-0.66
-1.33
-1.97
-2.43
-2.66
-2.65
-2.40
-1.94
-1.28
-0.48
0.36
1.11
1.65
1.91
1.91
1.73
1.47
1.24
1.09
1.01
0.96
0.87
0.73
0.52
0.30
0.14
0.12
0.28
0.56
0.89
1.15
1.27
1.23
1.06
0.84
0.63
0.44
0.28
0.14
0.03
-0.01
0.01
0.08
0.12
0.05
-0.15
-0.46
-0.78
-1.05
-1.19
-1.23
-1.20
-1.14
-1.10
-1.12
-1.22
-1.42
-1.70
-2.01
-2.23
-2.25
-1.97
-1.43
-0.72
-0.00
0.58
0.93
1.06
1.02
0.93
0.85
0.85
0.91
0.97
0.98
0.89
0.72
0.57
0.54
0.70
1.03
1.39
1.60
1.53
1.19
0.73
0.36
0.24
0.37
0.65
0.90
0.99
0.87
0.60
0.29
0.03
-0.17
-0.30
-0.37
-0.41
-0.43
-0.46
-0.55
-0.74
-1.01
-1.31
-1.53
-1.62
-1.55
-1.41
-1.30
-1.33
-1.53
-1.85
-2.16
-2.28
-2.09
-1.54
-0.76
0.06
0.67
0.96
0.93
0.73
0.59
0.66
1.01
1.51
2.01
2.33
2.39
2.23
1.90
1.48
1.04
0.61
0.26
0.04
0.01
0.17
0.44
0.70
0.82
0.75
0.52
0.23
0.00
-0.10
-0.05
0.07
0.18
0.20
0.10
-0.14
-0.48
-0.92
-1.38
-1.80
-2.07
-2.12
-1.94
-1.60
-1.27
-1.07
-1.07
-1.19
-1.29
-1.22
-0.91
-0.39
0.18
0.67
1.00
1.18
1.25
1.29
1.27
1.17
0.95
0.62
0.26
0.00
-0.07
0.02
0.17
0.23
0.12
-0.12
-0.33
-0.33
-0.04
0.49
1.10
1.58
1.78
1.70
1.40
1.01
0.60
0.23
-0.09
-0.32
-0.48
-0.58
-0.68
-0.84
-1.08
-1.38
-1.64
-1.76
-1.67
-1.39
-1.02
-0.72
-0.61
-0.76
-1.15
-1.63
-2.03
-2.14
-1.86
-1.24
-0.45
0.27
0.71
0.82
0.66
0.42
0.21
0.10
0.08
0.08
0.06
0.02
0.01
0.05
0.17
0.35
0.58
0.83
1.06
1.25
1.34
1.30
1.14
0.91
0.67
0.51
0.47
0.54
0.67
0.80
0.86
0.81
0.65
0.42
0.21
0.04
-0.07
-0.13
-0.20
-0.28
-0.40
-0.54
-0.69
-0.87
-1.10
-1.35
-1.60
-1.78
-1.86
-1.81
-1.63
-1.33
-0.94
-0.46
0.06
0.53
0.86
1.00
0.97
0.84
0.72
0.69
0.77
0.93
1.16
1.39
1.59
1.68
1.61
1.36
0.97
0.60
0.37
0.41
0.68
1.07
1.40
1.51
1.38
1.10
0.79
0.58
0.49
0.44
0.36
0.19
-0.06
-0.32
-0.52
-0.61
-0.60
-0.55
-0.50
-0.47
-0.47
-0.52
-0.62
-0.82
-1.11
-1.47
-1.85
-2.18
-2.43
-2.55
-2.54
-2.37
-2.01
-1.46
-0.78
-0.10
0.43
0.70
0.69
0.51
0.31
0.21
0.27
0.43
0.60
0.72
0.81
0.93
1.14
1.44
1.76
2.02
2.13
2.04
1.79
1.40
0.95
0.48
0.04
-0.30
-0.55
-0.69
-0.78
-0.87
-0.99
-1.15
-1.34
-1.50
-1.62
-1.70
-1.77
-1.86
-1.99
-2.13
-2.20
-2.12
-1.81
-1.30
-0.66
-0.03
0.42
0.62
0.60
0.46
0.36
0.39
0.56
0.74
0.82
0.74
0.56
0.40
0.38
0.55
0.82
1.07
1.19
1.14
1.00
0.86
0.81
0.85
0.91
0.92
0.85
0.68
0.47
0.25
0.06
-0.12
-0.30
-0.48
-0.65
-0.79
-0.86
-0.88
-0.89
-0.99
-1.24
-1.67
-2.19
-2.66
-2.86
-2.68
-2.12
-1.32
-0.51
0.11
0.41
0.39
0.18
-0.06
-0.19
-0.13
0.12
0.51
0.94
1.32
1.59
1.72
1.72
1.63
1.49
1.35
1.20
1.05
0.89
0.75
0.65
0.60
0.61
0.67
0.76
0.87
1.02
1.17
1.29
1.30
1.13
0.75
0.21
-0.36
-0.82
-1.06
-1.08
-0.94
-0.75
-0.60
-0.55
-0.64
-0.89
-1.29
-1.81
-2.34
-2.70
-2.72
-2.33
-1.61
-0.76
-0.03
0.42
0.58
0.56
0.50
0.54
0.70
0.90
1.08
1.15
1.08
0.86
0.53
0.12
-0.29
-0.63
-0.81
-0.76
-0.52
-0.17
0.16
0.33
0.26
-0.05
-0.49
-0.92
-1.18
-1.23
-1.08
-0.82
-0.54
-0.27
-0.01
0.26
0.56
0.85
1.07
1.17
1.14
1.03
0.87
0.67
0.42
0.10
-0.29
-0.72
-1.11
-1.35
-1.36
-1.11
-0.63
-0.02
0.59
1.07
1.34
1.40
1.31
1.15
1.00
0.88
0.80
0.75
0.73
0.74
0.78
0.86
0.97
1.10
1.24
1.37
1.44
1.46
1.44
1.41
1.40
1.40
1.38
1.27
1.06
0.82
0.66
0.66
0.83
1.02
1.07
0.83
0.29
-0.37
-0.93
-1.22
-1.19
-0.98
-0.76
-0.69
-0.83
-1.13
-1.50
-1.87
-2.19
-2.43
-2.59
-2.61
-2.51
-2.26
-1.92
-1.52
-1.11
-0.72
-0.34
0.04
0.42
0.78
1.08
1.27
1.30
1.18
0.94
0.64
0.37
0.22
0.24
0.43
0.71
1.00
1.20
1.26
1.16
0.98
0.78
0.64
0.59
0.62
0.67
0.70
0.69
0.66
0.63
0.60
0.58
0.51
0.38
0.17
-0.07
-0.32
-0.51
-0.62
-0.64
-0.61
-0.57
-0.53
-0.51
-0.48
-0.43
-0.33
-0.23
-0.17
-0.25
-0.50
-0.92
-1.44
-1.97
-2.40
-2.65
-2.66
-2.41
-1.93
-1.29
-0.59
0.08
0.61
0.97
1.18
1.31
1.42
1.56
1.70
1.79
1.77
1.65
1.44
1.23
1.06
1.00
1.05
1.19
1.37
1.57
1.72
1.78
1.69
1.44
1.05
0.57
0.09
-0.26
-0.42
-0.35
-0.09
0.24
0.51
0.59
0.43
0.07
-0.38
-0.76
-1.00
-1.08
-1.07
-1.06
-1.12
-1.24
-1.40
-1.58
-1.77
-1.97
-2.16
-2.30
-2.31
-2.16
-1.90
-1.64
-1.45
-1.36
-1.26
-1.01
-0.53
0.13
0.79
1.26
1.41
1.28
1.04
0.86
0.87
1.06
1.31
1.45
1.39
1.12
0.71
0.30
0.02
-0.07
0.04
0.26
0.52
0.73
0.87
0.96
1.02
1.11
1.23
1.34
1.35
1.21
0.91
0.48
0.02
-0.38
-0.65
-0.81
-0.90
-0.99
-1.14
-1.33
-1.52
-1.66
-1.73
-1.74
-1.74
-1.75
-1.81
-1.88
-1.90
-1.80
-1.53
-1.09
-0.54
0.01
0.49
0.87
1.18
1.46
1.73
1.98
2.12
2.07
1.78
1.29
0.71
0.20
-0.13
-0.18
0.04
0.45
0.94
1.32
1.43
1.18
0.61
-0.11
-0.71
-0.97
-0.81
-0.33
0.24
0.65
0.79
0.70
0.50
0.31
0.17
0.03
-0.18
-0.51
-0.89
-1.26
-1.54
-1.74
-1.88
-2.01
-2.13
-2.17
-2.08
-1.86
-1.57
-1.35
-1.28
-1.40
-1.61
-1.74
-1.66
-1.29
-0.69
0.03
0.71
1.28
1.67
1.87
1.87
1.70
1.41
1.10
0.89
0.88
1.04
1.27
1.39
1.28
0.94
0.50
0.13
-0.02
0.07
0.33
0.61
0.82
0.91
0.90
0.81
0.66
0.45
0.19
-0.06
-0.24
-0.26
-0.11
0.16
0.41
0.53
0.44
0.17
-0.15
-0.38
-0.43
-0.28
-0.02
0.20
0.21
-0.11
-0.76
-1.64
-2.55
-3.24
-3.58
-3.50
-3.08
-2.45
-1.76
-1.08
-0.44
0.19
0.81
1.35
1.73
1.89
1.81
1.56
1.24
0.94
0.70
0.53
0.40
0.30
0.26
0.29
0.42
0.61
0.81
0.96
1.04
1.07
1.10
1.14
1.17
1.13
0.98
0.68
0.26
-0.21
-0.65
-0.96
-1.10
-1.09
-0.98
-0.85
-0.79
-0.83
-0.97
-1.14
-1.28
-1.33
-1.29
-1.20
-1.08
-0.95
-0.82
-0.69
-0.54
-0.38
-0.22
-0.03
0.18
0.44
0.71
0.97
1.14
1.19
1.12
0.95
0.75
0.58
0.47
0.44
0.49
0.63
0.82
1.03
1.16
1.13
0.91
0.55
0.18
-0.04
-0.02
0.20
0.51
0.72
0.72
0.48
0.06
-0.45
-0.92
-1.28
-1.45
-1.44
-1.29
-1.10
-0.96
-0.96
-1.13
-1.44
-1.80
-2.08
-2.21
-2.13
-1.84
-1.40
-0.89
-0.39
0.02
0.35
0.62
0.87
1.11
1.31
1.39
1.32
1.12
0.90
0.77
0.76
0.86
0.96
1.00
0.95
0.87
0.83
0.86
0.90
0.90
0.80
0.64
0.48
0.40
0.40
0.44
0.44
0.39
0.34
0.35
0.47
0.62
0.68
0.52
0.12
-0.41
-0.90
-1.22
-1.33
-1.34
-1.36
-1.46
-1.61
-1.71
-1.66
-1.48
-1.29
-1.25
-1.44
-1.76
-2.02
-1.99
-1.57
-0.84
-0.02
0.64
0.99
1.01
0.86
0.73
0.75
0.92
1.17
1.35
1.37
1.24
1.07
0.97
1.01
1.12
1.20
1.14
0.94
0.66
0.45
0.42
0.59
0.89
1.22
1.46
1.54
1.44
1.17
0.81
0.40
0.01
-0.33
-0.60
-0.79
-0.89
-0.88
-0.77
-0.57
-0.41
-0.38
-0.54
-0.84
-1.16
-1.34
-1.32
-1.13
-0.91
-0.81
-0.91
-1.18
-1.51
-1.77
-1.87
-1.75
-1.48
-1.11
-0.73
-0.39
-0.08
0.20
0.44
0.65
0.78
0.79
0.69
0.54
0.44
0.47
0.65
0.94
1.24
1.46
1.54
1.45
1.21
0.87
0.50
0.19
0.04
0.08
0.27
0.49
0.60
0.53
0.31
0.09
0.00
0.08
0.27
0.40
0.35
0.09
-0.27
-0.60
-0.79
-0.85
-0.89
-1.03
-1.33
-1.70
-2.00
-2.07
-1.84
-1.36
-0.72
-0.03
0.61
1.15
1.53
1.70
1.63
1.34
0.95
0.59
0.33
0.21
0.17
0.13
0.08
0.04
0.08
0.21
0.42
0.63
0.80
0.93
1.04
1.17
1.27
1.31
1.22
0.98
0.65
0.32
0.08
-0.05
-0.09
-0.11
-0.17
-0.31
-0.54
-0.84
-1.17
-1.49
-1.73
-1.85
-1.86
-1.81
-1.75
-1.75
-1.80
-1.85
-1.81
-1.65
-1.37
-1.02
-0.65
-0.26
0.19
0.71
1.27
1.76
2.03
2.00
1.71
1.31
0.97
0.81
0.85
1.00
1.16
1.24
1.23
1.16
1.09
1.04
1.01
1.00
0.98
0.96
0.94
0.88
0.74
0.44
-0.02
-0.58
-1.09
-1.37
-1.32
-0.95
-0.39
0.14
0.48
0.53
0.32
-0.05
-0.47
-0.85
-1.18
-1.49
-1.83
-2.19
-2.51
-2.68
-2.59
-2.21
-1.60
-0.92
-0.32
0.15
0.50
0.83
1.19
1.56
1.81
1.85
1.65
1.33
1.05
0.93
0.96
1.07
1.13
1.08
0.93
0.77
0.67
0.67
0.70
0.68
0.53
0.27
-0.05
-0.31
-0.43
-0.38
-0.22
-0.07
-0.05
-0.20
-0.47
-0.71
-0.77
-0.61
-0.34
-0.17
-0.32
-0.82
-1.56
-2.25
-2.61
-2.48
-1.92
-1.12
-0.35
0.24
0.61
0.85
1.05
1.22
1.31
1.25
1.04
0.76
0.54
0.48
0.58
0.75
0.87
0.88
0.81
0.73
0.67
0.63
0.56
0.41
0.21
0.06
0.06
0.24
0.52
0.73
0.74
0.50
0.10
-0.31
-0.58
-0.65
-0.59
-0.54
-0.63
-0.87
-1.19
-1.42
-1.46
-1.30
-1.07
-0.97
-1.10
-1.47
-1.91
-2.21
-2.19
-1.84
-1.25
-0.60
-0.00
0.48
0.88
1.20
1.41
1.44
1.26
0.89
0.47
0.18
0.14
0.35
0.71
1.05
1.23
1.19
1.01
0.78
0.62
0.58
0.65
0.77
0.85
0.83
0.67
0.41
0.09
-0.22
-0.44
-0.57
-0.60
-0.57
-0.51
-0.44
-0.39
-0.35
-0.34
-0.36
-0.40
-0.46
-0.52
-0.55
-0.55
-0.53
-0.52
-0.62
-0.88
-1.29
-1.78
-2.19
-2.37
-2.22
-1.75
-1.07
-0.32
0.41
1.04
1.53
1.84
1.88
1.64
1.16
0.61
0.19
0.06
0.21
0.54
0.86
1.02
0.99
0.85
0.73
0.70
0.81
1.02
1.29
1.57
1.84
2.01
2.03
1.83
1.40
0.85
0.32
-0.03
-0.15
-0.08
0.03
0.05
-0.08
-0.30
-0.49
-0.55
-0.45
-0.31
-0.26
-0.42
-0.78
-1.22
-1.59
-1.80
-1.84
-1.81
-1.82
-1.92
-2.07
-2.13
-2.02
-1.70
-1.24
-0.80
-0.48
-0.33
-0.27
-0.18
0.08
0.54
1.13
1.67
1.98
1.96
1.61
1.07
0.53
0.16
0.06
0.21
0.53
0.89
1.16
1.30
1.31
1.23
1.14
1.06
1.02
0.99
0.97
0.95
0.93
0.90
0.81
0.60
0.19
-0.42
-1.14
-1.79
-2.18
-2.21
-1.90
-1.43
-1.03
-0.89
-1.08
-1.55
-2.17
-2.77
-3.22
-3.45
-3.41
-3.12
-2.62
-1.97
-1.27
-0.57
0.05
0.56
0.96
1.22
1.37
1.44
1.48
1.55
1.64
1.73
1.72
1.55
1.22
0.85
0.58
0.54
0.76
1.13
1.51
1.75
1.82
1.77
1.72
1.75
1.84
1.89
1.79
1.48
1.00
0.51
0.17
0.08
0.22
0.46
0.62
0.57
0.27
-0.20
-0.68
-1.04
-1.24
-1.30
-1.30
-1.33
-1.39
-1.46
-1.54
-1.62
-1.77
-2.02
-2.36
-2.73
-3.00
-3.06
-2.83
-2.31
-1.60
-0.85
-0.23
0.15
0.28
0.24
0.21
0.32
0.62
1.03
1.40
1.60
1.57
1.33
1.02
0.75
0.62
0.63
0.76
0.94
1.09
1.17
1.20
1.20
1.21
1.24
1.28
1.28
1.23
1.12
0.99
0.87
0.78
0.71
0.63
0.52
0.37
0.19
-0.03
-0.25
-0.45
-0.58
-0.60
-0.51
-0.35
-0.18
-0.11
-0.18
-0.42
-0.78
-1.21
-1.60
-1.89
-2.05
-2.09
-2.10
-2.16
-2.30
-2.50
-2.64
-2.58
-2.21
-1.55
-0.68
0.21
0.94
1.43
1.67
1.76
1.81
1.87
1.93
1.91
1.74
1.39
0.94
0.47
0.12
-0.07
-0.11
-0.09
-0.07
-0.09
-0.11
-0.11
-0.08
-0.05
-0.07
-0.19
-0.37
-0.56
-0.64
-0.54
-0.23
0.21
0.65
0.94
0.99
0.81
0.50
0.23
0.08
0.07
0.09
0.02
-0.21
-0.61
-1.07
-1.48
-1.75
-1.86
-1.83
-1.69
-1.45
-1.09
-0.61
-0.04
0.54
1.00
1.26
1.28
1.13
0.94
0.82
0.83
0.96
1.15
1.31
1.38
1.34
1.25
1.12
1.00
0.88
0.75
0.57
0.35
0.12
-0.07
-0.13
-0.03
0.20
0.45
0.59
0.54
0.30
-0.04
-0.33
-0.49
-0.53
-0.53
-0.57
-0.69
-0.88
-1.09
-1.29
-1.50
-1.76
-2.11
-2.50
-2.84
-2.98
-2.81
-2.33
-1.58
-0.71
0.09
0.66
0.91
0.87
0.68
0.53
0.58
0.84
1.20
1.50
1.64
1.61
1.52
1.50
1.58
1.74
1.84
1.79
1.58
1.28
1.01
0.88
0.92
1.04
1.15
1.15
0.99
0.70
0.37
0.09
-0.07
-0.10
-0.02
0.08
0.12
0.03
-0.25
-0.71
-1.26
-1.80
-2.20
-2.40
-2.40
-2.26
-2.06
-1.86
-1.71
-1.59
-1.51
-1.47
-1.46
-1.47
-1.46
-1.38
-1.19
-0.92
-0.66
-0.47
-0.39
-0.39
-0.38
-0.26
0.01
0.42
0.87
1.24
1.44
1.42
1.24
0.99
0.80
0.77
0.92
1.22
1.61
1.98
2.26
2.35
2.21
1.85
1.32
0.74
0.23
-0.12
-0.27
-0.29
-0.30
-0.38
-0.54
-0.73
-0.87
-0.90
-0.85
-0.82
-0.91
-1.17
-1.58
-2.03
-2.38
-2.50
-2.35
-1.96
-1.42
-0.81
-0.22
0.32
0.79
1.19
1.52
1.80
2.05
2.26
2.41
2.48
2.43
2.28
2.07
1.85
1.66
1.52
1.42
1.35
1.32
1.35
1.49
1.70
1.91
2.00
1.91
1.64
1.29
0.98
0.83
0.85
1.00
1.15
1.15
0.93
0.46
-0.19
-0.91
-1.60
-2.13
-2.48
-2.69
-2.85
-3.06
-3.41
-3.89
-4.42
-4.90
-5.20
-5.23
-5.00
-4.54
-3.94
-3.29
-2.67
-2.12
-1.62
-1.15
-0.65
-0.06
0.60
1.30
1.93
2.40
2.65
2.67
2.53
2.32
2.13
1.98
1.86
1.74
1.64
1.59
1.64
1.80
2.02
2.20
2.23
2.05
1.63
1.07
0.48
-0.03
-0.36
-0.49
-0.48
-0.40
-0.33
-0.31
-0.34
-0.38
-0.39
-0.36
-0.29
-0.23
-0.20
-0.26
-0.44
-0.78
-1.25
-1.79
-2.31
-2.67
-2.81
-2.71
-2.40
-1.94
-1.38
-0.77
-0.15
0.39
0.79
1.01
1.04
0.98
0.89
0.86
0.87
0.91
0.92
0.89
0.80
0.68
0.55
0.44
0.37
0.35
0.40
0.52
0.67
0.77
0.77
0.62
0.36
0.06
-0.20
-0.39
-0.56
-0.76
-1.05
-1.39
-1.68
-1.78
-1.63
-1.25
-0.79
-0.47
-0.40
-0.61
-0.98
-1.35
-1.58
-1.59
-1.41
-1.08
-0.67
-0.23
0.20
0.57
0.86
1.05
1.12
1.10
1.04
0.95
0.86
0.76
0.66
0.58
0.53
0.57
0.71
0.93
1.19
1.40
1.51
1.51
1.41
1.28
1.18
1.12
1.10
1.04
0.90
0.65
0.31
-0.03
-0.29
-0.40
-0.37
-0.25
-0.15
-0.15
-0.29
-0.55
-0.87
-1.18
-1.42
-1.56
-1.59
-1.51
-1.28
-0.91
-0.40
0.19
0.75
1.21
1.51
1.69
1.80
1.90
2.00
2.04
1.96
1.77
1.48
1.21
1.01
0.92
0.90
0.88
0.80
0.65
0.45
0.28
0.21
0.30
0.55
0.95
1.38
1.69
1.72
1.36
0.65
-0.24
-1.11
-1.80
-2.25
-2.49
-2.62
-2.70
-2.74
-2.74
-2.69
-2.64
-2.63
-2.70
-2.84
-3.00
-3.07
-2.95
-2.60
-2.01
-1.29
-0.57
-0.01
0.29
0.35
0.26
0.19
0.24
0.44
0.73
1.02
1.22
1.34
1.39
1.41
1.38
1.27
1.08
0.83
0.59
0.45
0.47
0.64
0.93
1.23
1.47
1.57
1.54
1.42
1.26
1.12
1.02
0.95
0.86
0.74
0.57
0.35
0.11
-0.15
-0.40
-0.62
-0.79
-0.90
-0.95
-1.02
-1.16
-1.44
-1.84
-2.30
-2.66
-2.79
-2.59
-2.06
-1.31
-0.50
0.20
0.67
0.91
0.99
1.01
1.05
1.14
1.23
1.25
1.15
0.92
0.60
0.29
0.09
0.06
0.22
0.49
0.74
0.87
0.83
0.66
0.47
0.37
0.40
0.54
0.68
0.75
0.70
0.57
0.43
0.31
0.21
0.08
-0.12
-0.39
-0.72
-1.04
-1.35
-1.64
-1.97
-2.32
-2.64
-2.78
-2.60
-2.01
-1.06
0.06
1.08
1.76
1.97
1.75
1.28
0.83
0.59
0.65
0.95
1.31
1.55
1.56
1.34
1.03
0.78
0.71
0.83
1.04
1.23
1.31
1.33
1.36
1.45
1.57
1.61
1.46
1.11
0.65
0.21
-0.07
-0.14
-0.10
-0.08
-0.19
-0.47
-0.85
-1.23
-1.52
-1.69
-1.75
-1.75
-1.71
-1.68
-1.69
-1.80
-2.08
-2.52
-3.05
-3.53
-3.75
-3.58
-2.98
-2.06
-1.03
-0.09
0.59
0.99
1.18
1.26
1.35
1.48
1.63
1.73
1.74
1.63
1.46
1.30
1.22
1.25
1.37
1.51
1.59
1.61
1.57
1.53
1.50
1.47
1.40
1.29
1.17
1.13
1.22
1.42
1.63
1.70
1.52
1.08
0.46
-0.18
-0.70
-1.00
-1.07
-0.98
-0.82
-0.70
-0.65
-0.69
-0.77
-0.89
-1.03
-1.22
-1.42
-1.64
-1.83
-1.98
-2.12
-2.25
-2.44
-2.68
-2.92
-3.05
-2.97
-2.61
-1.97
-1.13
-0.22
0.59
1.20
1.56
1.71
1.75
1.80
1.89
2.00
2.06
1.99
1.77
1.46
1.16
0.96
0.89
0.93
0.99
0.99
0.92
0.82
0.79
0.89
1.15
1.48
1.74
1.83
1.68
1.34
0.89
0.45
0.10
-0.14
-0.28
-0.36
-0.39
-0.40
-0.41
-0.47
-0.64
-0.90
-1.22
-1.52
-1.74
-1.86
-1.92
-1.99
-2.09
-2.24
-2.44
-2.66
-2.84
-2.90
-2.75
-2.35
-1.72
-0.98
-0.30
0.22
0.53
0.74
0.95
1.25
1.63
2.00
2.25
2.31
2.20
1.95
1.63
1.25
0.85
0.51
0.32
0.33
0.53
0.83
1.10
1.22
1.20
1.09
0.98
0.93
0.90
0.83
0.68
0.47
0.30
0.22
0.25
0.30
0.25
0.05
-0.28
-0.62
-0.83
-0.82
-0.64
-0.40
-0.26
-0.28
-0.45
-0.69
-0.93
-1.13
-1.33
-1.58
-1.92
-2.33
-2.74
-3.07
-3.25
-3.25
-3.06
-2.71
-2.23
-1.64
-0.98
-0.30
0.33
0.86
1.25
1.51
1.66
1.76
1.82
1.83
1.75
1.56
1.29
0.99
0.74
0.58
0.51
0.51
0.59
0.79
1.12
1.53
1.87
1.98
1.75
1.25
0.71
0.37
0.40
0.73
1.16
1.46
1.49
1.25
0.86
0.43
0.03
-0.33
-0.63
-0.84
-0.90
-0.82
-0.66
-0.56
-0.60
-0.77
-0.98
-1.11
-1.13
-1.09
-1.11
-1.29
-1.61
-1.94
-2.17
-2.21
-2.08
-1.88
-1.69
-1.51
-1.27
-0.90
-0.37
0.23
0.79
1.20
1.41
1.46
1.44
1.41
1.38
1.31
1.17
0.95
0.73
0.60
0.64
0.89
1.30
1.71
1.98
2.00
1.76
1.33
0.87
0.52
0.32
0.26
0.25
0.22
0.15
0.07
0.02
-0.02
-0.13
-0.38
-0.77
-1.22
-1.56
-1.65
-1.48
-1.16
-0.92
-0.94
-1.25
-1.72
-2.12
-2.25
-2.04
-1.57
-1.00
-0.49
-0.11
0.15
0.36
0.56
0.79
1.04
1.24
1.36
1.34
1.16
0.85
0.48
0.16
0.02
0.11
0.39
0.77
1.13
1.35
1.40
1.31
1.12
0.88
0.60
0.33
0.09
-0.07
-0.10
0.02
0.26
0.53
0.70
0.66
0.35
-0.19
-0.87
-1.51
-2.02
-2.35
-2.55
-2.69
-2.82
-2.95
-3.01
-2.92
-2.61
-2.10
-1.44
-0.75
-0.14
0.34
0.67
0.87
1.01
1.15
1.32
1.50
1.66
1.74
1.70
1.57
1.39
1.24
1.15
1.11
1.07
0.99
0.85
0.71
0.65
0.72
0.95
1.24
1.44
1.42
1.16
0.74
0.36
0.20
0.31
0.59
0.82
0.80
0.46
-0.12
-0.73
-1.19
-1.41
-1.45
-1.40
-1.36
-1.33
-1.28
-1.16
-1.00
-0.88
-0.91
-1.15
-1.58
-2.11
-2.62
-3.02
-3.26
-3.31
-3.20
-2.95
-2.53
-1.95
-1.21
-0.35
0.54
1.37
2.04
2.48
2.68
2.65
2.44
2.14
1.81
1.53
1.33
1.23
1.18
1.16
1.13
1.07
1.04
1.05
1.14
1.26
1.36
1.33
1.13
0.78
0.39
0.12
0.07
0.30
0.71
1.16
1.47
1.52
1.28
0.80
0.19
-0.44
-1.00
-1.40
-1.61
-1.60
-1.43
-1.17
-0.92
-0.80
-0.84
-1.00
-1.23
-1.44
-1.61
-1.75
-1.94
-2.23
-2.61
-3.01
-3.29
-3.35
-3.13
-2.67
-2.07
-1.43
-0.81
-0.22
0.37
0.99
1.63
2.21
2.65
2.89
2.95
2.86
2.67
2.42
2.10
1.71
1.28
0.85
0.50
0.29
0.26
0.41
0.68
1.01
1.31
1.47
1.42
1.14
0.70
0.21
-0.21
-0.49
-0.61
-0.62
-0.58
-0.55
-0.55
-0.62
-0.75
-0.91
-1.03
-1.03
-0.86
-0.55
-0.21
0.01
-0.02
-0.33
-0.87
-1.51
-2.14
-2.67
-3.08
-3.32
-3.35
-3.13
-2.62
-1.86
-0.97
-0.08
0.71
1.35
1.84
2.22
2.52
2.70
2.71
2.53
2.16
1.69
1.23
0.87
0.68
0.62
0.68
0.83
1.09
1.44
1.83
2.17
2.33
2.25
1.97
1.61
1.28
1.01
0.78
0.53
0.22
-0.10
-0.36
-0.48
-0.46
-0.36
-0.26
-0.22
-0.25
-0.35
-0.54
-0.81
-1.17
-1.56
-1.88
-2.05
-2.02
-1.87
-1.73
-1.77
-2.03
-2.48
-2.98
-3.34
-3.45
-3.25
-2.79
-2.17
-1.47
-0.75
-0.04
0.62
1.19
1.61
1.81
1.77
1.56
1.29
1.07
0.95
0.96
1.03
1.09
1.10
1.04
1.00
1.03
1.18
1.42
1.62
1.70
1.56
1.25
0.90
0.65
0.59
0.66
0.77
0.80
0.73
0.67
0.72
0.93
1.17
1.24
0.98
0.36
-0.41
-1.07
-1.39
-1.30
-0.94
-0.56
-0.36
-0.45
-0.76
-1.16
-1.49
-1.64
-1.59
-1.39
-1.17
-1.03
-1.09
-1.41
-1.96
-2.65
-3.29
-3.72
-3.79
-3.44
-2.73
-1.78
-0.77
0.17
0.96
1.60
2.10
2.48
2.71
2.76
2.57
2.16
1.64
1.16
0.86
0.82
1.00
1.25
1.44
1.48
1.40
1.29
1.23
1.26
1.33
1.35
1.23
0.92
0.45
-0.09
-0.56
-0.86
-0.92
-0.74
-0.39
0.01
0.32
0.44
0.36
0.08
-0.35
-0.86
-1.42
-1.92
-2.28
-2.43
-2.37
-2.18
-2.03
-2.01
-2.14
-2.29
-2.29
-1.99
-1.38
-0.62
0.10
0.61
0.88
0.98
1.04
1.12
1.22
1.27
1.25
1.15
1.04
1.03
1.16
1.39
1.63
1.74
1.66
1.41
1.10
0.87
0.80
0.88
1.04
1.18
1.25
1.24
1.19
1.14
1.08
1.00
0.90
0.82
0.79
0.81
0.82
0.72
0.44
0.00
-0.49
-0.92
-1.19
-1.34
-1.43
-1.54
-1.70
-1.85
-1.95
-1.96
-1.95
-1.99
-2.11
-2.34
-2.63
-2.91
-3.12
-3.20
-3.12
-2.81
-2.28
-1.58
-0.84
-0.19
0.27
0.58
0.82
1.09
1.40
1.69
1.86
1.82
1.59
1.28
1.01
0.90
0.97
1.20
1.52
1.84
2.10
2.24
2.23
2.06
1.78
1.46
1.19
1.00
0.90
0.86
0.86
0.87
0.90
0.97
1.03
1.05
0.95
0.68
0.27
-0.19
-0.57
-0.79
-0.78
-0.60
-0.33
-0.05
0.13
0.16
0.03
-0.23
-0.56
-0.85
-1.06
-1.11
-1.05
-0.93
-0.87
-0.96
-1.26
-1.74
-2.34
-2.99
-3.58
-4.04
-4.31
-4.31
-3.97
-3.28
-2.27
-1.08
0.08
1.00
1.55
1.73
1.68
1.59
1.60
1.73
1.90
2.01
1.99
1.83
1.60
1.36
1.17
1.05
1.01
1.06
1.19
1.37
1.55
1.67
1.69
1.59
1.41
1.20
0.98
0.77
0.52
0.22
-0.13
-0.44
-0.63
-0.63
-0.46
-0.21
-0.04
-0.09
-0.36
-0.76
-1.13
-1.34
-1.37
-1.30
-1.24
-1.24
-1.28
-1.28
-1.20
-1.07
-1.02
-1.19
-1.61
-2.17
-2.65
-2.81
-2.51
-1.79
-0.80
0.24
1.14
1.82
2.26
2.49
2.52
2.37
2.04
1.57
1.05
0.63
0.42
0.47
0.72
1.03
1.25
1.27
1.09
0.81
0.58
0.50
0.60
0.81
1.02
1.13
1.10
0.96
0.78
0.63
0.55
0.55
0.56
0.51
0.34
0.08
-0.21
-0.43
-0.50
-0.41
-0.24
-0.10
-0.12
-0.35
-0.75
-1.19
-1.53
-1.67
-1.64
-1.54
-1.49
-1.65
-2.05
-2.65
-3.30
-3.82
-4.02
-3.80
-3.18
-2.25
-1.22
-0.25
0.51
1.03
1.34
1.50
1.57
1.58
1.57
1.54
1.52
1.54
1.59
1.67
1.75
1.80
1.85
1.92
2.00
2.06
2.06
1.94
1.72
1.46
1.24
1.12
1.07
1.01
0.86
0.56
0.19
-0.11
-0.26
-0.23
-0.11
-0.03
-0.09
-0.27
-0.50
-0.67
-0.75
-0.79
-0.86
-1.00
-1.19
-1.35
-1.43
-1.40
-1.31
-1.19
-1.11
-1.07
-1.13
-1.34
-1.70
-2.23
-2.83
-3.40
-3.82
-3.99
-3.87
-3.45
-2.76
-1.83
-0.75
0.35
1.32
2.03
2.45
2.61
2.64
2.61
2.58
2.50
2.33
2.05
1.68
1.34
1.12
1.06
1.14
1.28
1.40
1.49
1.56
1.64
1.74
1.82
1.84
1.80
1.70
1.54
1.31
1.00
0.60
0.14
-0.28
-0.55
-0.61
-0.50
-0.29
-0.10
-0.01
-0.03
-0.14
-0.31
-0.52
-0.77
-1.02
-1.24
-1.41
-1.53
-1.63
-1.76
-1.97
-2.26
-2.57
-2.83
-2.98
-3.00
-2.90
-2.68
-2.36
-1.94
-1.47
-0.98
-0.53
-0.15
0.19
0.55
0.97
1.44
1.89
2.24
2.43
2.47
2.37
2.20
2.00
1.81
1.66
1.58
1.59
1.66
1.74
1.77
1.70
1.55
1.37
1.19
1.06
1.00
0.97
0.95
0.92
0.84
0.69
0.46
0.18
-0.09
-0.29
-0.39
-0.41
-0.40
-0.44
-0.56
-0.76
-1.01
-1.24
-1.39
-1.41
-1.31
-1.21
-1.21
-1.43
-1.90
-2.52
-3.11
-3.50
-3.57
-3.31
-2.81
-2.15
-1.41
-0.66
0.08
0.75
1.27
1.57
1.65
1.55
1.35
1.14
0.96
0.82
0.70
0.62
0.60
0.67
0.84
1.06
1.29
1.48
1.63
1.77
1.89
1.97
1.92
1.64
1.13
0.48
-0.14
-0.54
-0.63
-0.44
-0.14
0.10
0.17
0.08
-0.09
-0.22
-0.25
-0.18
-0.12
-0.15
-0.30
-0.56
-0.89
-1.26
-1.70
-2.27
-2.97
-3.67
-4.14
-4.13
-3.52
-2.42
-1.12
0.02
0.74
1.00
0.97
0.87
0.87
0.98
1.15
1.30
1.41
1.50
1.57
1.57
1.43
1.13
0.72
0.37
0.24
0.42
0.87
1.44
1.94
2.25
2.34
2.23
1.99
1.64
1.22
0.77
0.35
0.03
-0.12
-0.11
0.01
0.14
0.19
0.12
-0.06
-0.27
-0.42
-0.47
-0.43
-0.35
-0.34
-0.45
-0.69
-0.99
-1.24
-1.37
-1.35
-1.22
-1.06
-0.99
-1.11
-1.44
-1.99
-2.64
-3.26
-3.72
-3.88
-3.67
-3.12
-2.31
-1.37
-0.47
0.27
0.77
1.06
1.22
1.37
1.55
1.76
1.93
1.99
1.93
1.80
1.69
1.62
1.60
1.59
1.58
1.59
1.68
1.85
2.07
2.23
2.24
2.05
1.72
1.35
1.05
0.92
0.96
1.08
1.18
1.13
0.87
0.43
-0.07
-0.47
-0.66
-0.60
-0.42
-0.29
-0.37
-0.69
-1.17
-1.64
-1.92
-1.91
-1.62
-1.15
-0.62
-0.18
0.07
0.07
-0.20
-0.68
-1.25
-1.81
-2.24
-2.52
-2.68
-2.77
-2.85
-2.91
-2.88
-2.70
-2.32
-1.75
-1.07
-0.33
0.42
1.17
1.87
2.48
2.90
3.07
2.94
2.55
2.02
1.50
1.11
0.93
0.92
1.00
1.08
1.10
1.06
0.98
0.91
0.89
0.92
0.98
1.02
1.03
1.00
0.95
0.88
0.78
0.64
0.43
0.18
-0.07
-0.26
-0.34
-0.30
-0.17
-0.05
-0.02
-0.13
-0.38
-0.71
-1.01
-1.22
-1.28
-1.21
-1.10
-1.06
-1.18
-1.52
-2.01
-2.50
-2.76
-2.63
-2.07
-1.17
-0.15
0.73
1.29
1.51
1.45
1.28
1.12
1.04
1.06
1.12
1.19
1.26
1.31
1.33
1.29
1.16
0.93
0.62
0.33
0.14
0.13
0.34
0.68
1.00
1.17
1.10
0.81
0.45
0.14
-0.03
-0.09
-0.14
-0.28
-0.50
-0.73
-0.83
-0.74
-0.52
-0.32
-0.29
-0.49
-0.81
-1.12
-1.28
-1.24
-1.08
-0.91
-0.83
-0.89
-1.11
-1.47
-1.93
-2.44
-2.90
-3.19
-3.21
-2.88
-2.26
-1.44
-0.62
0.07
0.52
0.72
0.75
0.75
0.83
1.03
1.33
1.62
1.78
1.74
1.49
1.10
0.72
0.45
0.39
0.55
0.86
1.23
1.54
1.72
1.80
1.83
1.88
1.99
2.10
2.11
1.94
1.59
1.14
0.74
0.48
0.37
0.33
0.28
0.15
-0.05
-0.27
-0.43
-0.50
-0.47
-0.39
-0.28
-0.16
-0.07
-0.03
-0.12
-0.37
-0.76
-1.21
-1.59
-1.81
-1.87
-1.88
-1.99
-2.31
-2.87
-3.56
-4.20
-4.59
-4.62
-4.24
-3.49
-2.47
-1.27
-0.02
1.12
2.01
2.51
2.60
2.38
1.99
1.59
1.26
1.01
0.83
0.70
0.66
0.75
0.97
1.27
1.55
1.73
1.78
1.75
1.67
1.58
1.49
1.41
1.37
1.38
1.47
1.59
1.70
1.72
1.62
1.40
1.07
0.66
0.20
-0.27
-0.67
-0.91
-0.92
-0.71
-0.36
0.01
0.25
0.31
0.19
-0.06
-0.34
-0.57
-0.69
-0.71
-0.69
-0.72
-0.88
-1.19
-1.60
-2.01
-2.32
-2.49
-2.60
-2.74
-2.97
-3.24
-3.40
-3.27
-2.78
-1.97
-1.01
-0.09
0.66
1.22
1.65
1.98
2.21
2.25
2.07
1.68
1.23
0.89
0.77
0.91
1.22
1.52
1.70
1.71
1.60
1.43
1.27
1.11
0.96
0.81
0.69
0.65
0.70
0.80
0.87
0.80
0.58
0.27
-0.00
-0.13
-0.06
0.13
0.34
0.46
0.45
0.31
0.09
-0.14
-0.37
-0.60
-0.84
-1.08
-1.29
-1.46
-1.58
-1.73
-1.97
-2.39
-2.96
-3.59
-4.10
-4.29
-4.01
-3.24
-2.09
-0.78
0.42
1.24
1.56
1.37
0.83
0.19
-0.31
-0.50
-0.35
0.02
0.47
0.83
1.02
1.05
0.99
0.92
0.90
0.93
0.99
1.06
1.14
1.22
1.34
1.48
1.61
1.65
1.54
1.27
0.90
0.55
0.34
0.32
0.48
0.71
0.89
0.96
0.87
0.63
0.28
-0.13
-0.53
-0.88
-1.13
-1.26
-1.25
-1.14
-0.97
-0.83
-0.76
-0.83
-1.06
-1.44
-1.92
-2.38
-2.72
-2.84
-2.72
-2.37
-1.88
-1.31
-0.71
-0.11
0.46
0.95
1.32
1.52
1.55
1.40
1.17
0.92
0.78
0.82
1.07
1.47
1.90
2.22
2.32
2.20
1.94
1.66
1.48
1.42
1.45
1.50
1.48
1.35
1.10
0.76
0.40
0.08
-0.11
-0.16
-0.12
-0.08
-0.17
-0.39
-0.67
-0.84
-0.79
-0.53
-0.18
0.05
0.02
-0.27
-0.65
-0.92
-0.95
-0.77
-0.54
-0.45
-0.62
-0.99
-1.45
-1.84
-2.07
-2.17
-2.19
-2.19
-2.14
-1.95
-1.53
-0.91
-0.16
0.57
1.16
1.56
1.79
1.92
1.93
1.81
1.52
1.09
0.60
0.18
-0.04
-0.03
0.12
0.31
0.41
0.43
0.46
0.64
1.04
1.63
2.25
2.68
2.76
2.48
1.92
1.26
0.67
0.24
0.01
-0.07
-0.04
0.03
0.10
0.14
0.09
-0.04
-0.25
-0.49
-0.72
-0.91
-1.03
-1.11
-1.18
-1.23
-1.28
-1.34
-1.42
-1.54
-1.68
-1.82
-1.91
-1.92
-1.85
-1.76
-1.70
-1.69
-1.67
-1.55
-1.22
-0.67
0.04
0.77
1.35
1.68
1.73
1.60
1.40
1.23
1.14
1.07
0.96
0.75
0.44
0.11
-0.14
-0.24
-0.21
-0.10
0.02
0.15
0.31
0.50
0.70
0.85
0.91
0.85
0.72
0.58
0.47
0.40
0.33
0.23
0.10
-0.04
-0.16
-0.25
-0.33
-0.43
-0.58
-0.81
-1.11
-1.45
-1.80
-2.12
-2.38
-2.54
-2.54
-2.35
-1.93
-1.30
-0.53
0.26
0.90
1.30
1.40
1.27
1.04
0.82
0.68
0.62
0.61
0.61
0.63
0.68
0.75
0.82
0.83
0.79
0.73
0.71
0.81
1.02
1.29
1.50
1.57
1.46
1.18
0.81
0.45
0.16
-0.03
-0.12
-0.12
-0.06
0.00
0.03
-0.01
-0.14
-0.34
-0.57
-0.77
-0.92
-0.99
-1.00
-0.97
-0.92
-0.87
-0.85
-0.91
-1.08
-1.41
-1.89
-2.44
-2.92
-3.20
-3.19
-2.87
-2.27
-1.53
-0.75
-0.06
0.45
0.75
0.86
0.86
0.81
0.81
0.88
1.03
1.21
1.38
1.52
1.62
1.72
1.81
1.86
1.80
1.63
1.34
1.02
0.76
0.63
0.66
0.80
0.98
1.13
1.24
1.30
1.31
1.25
1.07
0.75
0.35
-0.06
-0.35
-0.43
-0.27
0.04
0.37
0.59
0.62
0.47
0.21
-0.05
-0.25
-0.37
-0.48
-0.65
-0.94
-1.38
-1.90
-2.38
-2.68
-2.74
-2.56
-2.24
-1.93
-1.75
-1.77
-1.97
-2.23
-2.43
-2.44
-2.20
-1.72
-1.08
-0.41
0.21
0.69
1.00
1.15
1.13
0.98
0.77
0.62
0.60
0.76
1.03
1.32
1.47
1.44
1.25
1.01
0.85
0.82
0.94
1.16
1.44
1.74
2.01
2.17
2.12
1.83
1.34
0.79
0.37
0.19
0.26
0.49
0.72
0.85
0.82
0.68
0.47
0.19
-0.14
-0.51
-0.86
-1.11
-1.19
-1.11
-0.93
-0.78
-0.73
-0.79
-0.92
-1.06
-1.16
-1.22
-1.24
-1.24
-1.18
-1.06
-0.90
-0.79
-0.82
-1.06
-1.47
-1.94
-2.29
-2.38
-2.13
-1.57
-0.83
-0.10
0.49
0.88
1.07
1.15
1.19
1.24
1.31
1.35
1.34
1.26
1.13
1.03
0.99
1.07
1.26
1.53
1.82
2.03
2.12
2.06
1.88
1.61
1.33
1.08
0.88
0.73
0.64
0.60
0.59
0.58
0.53
0.38
0.10
-0.27
-0.65
-0.92
-0.99
-0.85
-0.60
-0.38
-0.33
-0.46
-0.70
-0.93
-1.07
-1.13
-1.21
-1.42
-1.83
-2.34
-2.80
-3.05
-3.02
-2.75
-2.36
-1.97
-1.62
-1.28
-0.87
-0.38
0.16
0.68
1.06
1.27
1.33
1.28
1.20
1.16
1.16
1.22
1.31
1.41
1.46
1.41
1.25
1.02
0.80
0.65
0.59
0.59
0.59
0.55
0.48
0.42
0.40
0.40
0.37
0.25
0.08
-0.06
-0.07
0.08
0.36
0.61
0.69
0.55
0.21
-0.21
-0.60
-0.90
-1.12
-1.28
-1.43
-1.55
-1.64
-1.69
-1.72
-1.76
-1.81
-1.81
-1.70
-1.43
-1.04
-0.60
-0.19
0.14
0.38
0.57
0.70
0.74
0.68
0.54
0.39
0.34
0.43
0.65
0.88
1.01
0.97
0.80
0.62
0.55
0.66
0.92
1.24
1.49
1.59
1.50
1.27
0.99
0.75
0.64
0.64
0.73
0.82
0.87
0.87
0.84
0.77
0.67
0.49
0.24
-0.05
-0.33
-0.53
-0.64
-0.69
-0.73
-0.81
-0.94
-1.10
-1.28
-1.50
-1.81
-2.20
-2.64
-3.04
-3.30
-3.40
-3.32
-3.10
-2.78
-2.34
-1.77
-1.10
-0.38
0.29
0.84
1.25
1.55
1.79
1.99
2.11
2.09
1.90
1.57
1.19
0.89
0.74
0.76
0.86
0.94
0.92
0.80
0.66
0.59
0.66
0.88
1.17
1.44
1.59
1.60
1.47
1.25
1.02
0.82
0.69
0.65
0.65
0.64
0.55
0.34
0.03
-0.30
-0.54
-0.62
-0.53
-0.33
-0.15
-0.07
-0.14
-0.32
-0.53
-0.72
-0.89
-1.10
-1.40
-1.79
-2.20
-2.54
-2.76
-2.83
-2.83
-2.84
-2.89
-2.89
-2.71
-2.24
-1.44
-0.44
0.57
1.38
1.85
1.97
1.83
1.57
1.31
1.12
1.02
0.98
0.97
0.97
1.00
1.07
1.22
1.42
1.65
1.84
1.93
1.87
1.69
1.41
1.09
0.79
0.55
0.42
0.39
0.45
0.56
0.63
0.63
0.55
0.42
0.29
0.18
0.09
-0.04
-0.24
-0.50
-0.82
-1.12
-1.34
-1.45
-1.43
-1.31
-1.14
-1.01
-0.97
-1.06
-1.26
-1.49
-1.69
-1.81
-1.87
-1.94
-2.05
-2.17
-2.17
-1.92
-1.30
-0.38
0.65
1.54
2.06
2.15
1.89
1.47
1.09
0.85
0.79
0.82
0.88
0.92
0.92
0.88
0.84
0.80
0.81
0.87
0.98
1.14
1.29
1.40
1.42
1.36
1.25
1.11
0.98
0.88
0.81
0.79
0.81
0.85
0.85
0.76
0.53
0.19
-0.22
-0.63
-0.99
-1.30
-1.59
-1.87
-2.10
-2.20
-2.11
-1.82
-1.44
-1.10
-0.95
-1.02
-1.29
-1.68
-2.07
-2.39
-2.55
-2.53
-2.31
-1.92
-1.42
-0.91
-0.48
-0.18
0.03
0.20
0.38
0.61
0.86
1.10
1.28
1.39
1.43
1.43
1.38
1.26
1.08
0.86
0.64
0.53
0.59
0.88
1.34
1.85
2.25
2.42
2.29
1.90
1.35
0.78
0.32
0.06
0.00
0.12
0.33
0.54
0.68
0.72
0.68
0.62
0.61
0.66
0.72
0.72
0.59
0.33
-0.01
-0.33
-0.55
-0.63
-0.53
-0.31
-0.01
0.24
0.34
0.20
-0.18
-0.67
-1.07
-1.12
-0.67
0.30
1.60
2.90
3.87
4.28
4.15
3.71
3.37
3.46
4.18
5.45
7.00
8.46
9.54
10.03
9.84
9.03
7.72
6.16
4.71
3.73
3.45
3.87
4.72
5.59
6.16
6.36
6.39
6.55
7.04
7.78
8.45
8.70
8.37
7.56
6.61
5.83
5.36
5.06
4.64
3.86
2.65
1.18
-0.25
-1.36
-2.03
-2.34
-2.50
-2.75
-3.21
-3.87
-4.56
-5.12
-5.44
-5.55
-5.61
-5.81
-6.22
-6.83
-7.48
-7.99
-8.25
-8.27
-8.15
-8.00
-7.87
-7.72
-7.48
-7.07
-6.52
-5.88
-5.24
-4.68
-4.20
-3.75
-3.29
-2.80
-2.29
-1.75
-1.20
-0.65
-0.15
0.24
0.40
0.26
-0.19
-0.84
-1.55
-2.13
-2.49
-2.62
-2.59
-2.51
-2.43
-2.35
-2.17
-1.81
-1.20
-0.36
0.59
1.44
1.90
1.72
0.68
-1.33
-4.33
-8.21
-12.75
-17.59
-22.29
-26.40
-29.56
-31.58
-32.43
-32.18
-30.96
-28.83
-25.88
-22.21
-18.03
-13.68
-9.48
-5.72
-2.48
0.24
2.54
4.46
6.01
7.13
7.83
8.20
8.38
8.55
8.84
9.26
9.71
10.08
10.27
10.25
10.08
9.87
9.73
9.68
9.69
9.65
9.45
9.01
8.32
7.49
6.64
5.91
5.36
4.99
4.75
4.56
4.35
4.06
3.65
3.11
2.42
1.65
0.84
0.09
-0.57
-1.12
-1.60
-2.03
-2.43
-2.78
-3.08
-3.32
-3.52
-3.65
-3.68
-3.53
-3.13
-2.47
-1.58
-0.55
0.51
1.49
2.30
2.86
3.14
3.19
3.09
2.94
2.83
2.79
2.80
2.81
2.82
2.82
2.84
2.84
2.79
2.66
2.47
2.32
2.28
2.37
2.52
2.63
2.59
2.42
2.19
2.01
1.94
1.96
1.98
1.90
1.71
1.43
1.13
0.88
0.66
0.44
0.20
-0.08
-0.34
-0.52
-0.60
-0.58
-0.53
-0.56
-0.72
-1.02
-1.36
-1.64
-1.79
-1.80
-1.76
-1.82
-2.08
-2.55
-3.18
-3.82
-4.33
-4.55
-4.40
-3.87
-2.99
-1.89
-0.75
0.26
0.97
1.34
1.42
1.32
1.19
1.14
1.23
1.45
1.73
1.98
2.11
2.09
1.94
1.75
1.64
1.64
1.73
1.82
1.82
1.71
1.52
1.35
1.27
1.31
1.39
1.41
1.29
0.99
0.56
0.09
-0.34
-0.64
-0.81
-0.88
-0.95
-1.13
-1.49
-2.02
-2.64
-3.20
-3.55
-3.59
-3.31
-2.78
-2.10
-1.38
-0.71
-0.14
0.34
0.72
1.00
1.17
1.24
1.27
1.28
1.33
1.40
1.47
1.52
1.55
1.58
1.67
1.85
2.10
2.33
2.46
2.42
2.25
2.01
1.80
1.64
1.51
1.33
1.06
0.69
0.27
-0.14
-0.49
-0.76
-0.94
-1.05
-1.09
-1.12
-1.19
-1.38
-1.72
-2.19
-2.72
-3.18
-3.48
-3.60
-3.51
-3.24
-2.78
-2.13
-1.30
-0.40
0.43
1.03
1.33
1.36
1.25
1.16
1.17
1.27
1.44
1.63
1.85
2.09
2.35
2.55
2.61
2.47
2.18
1.87
1.68
1.68
1.86
2.08
2.20
2.13
1.89
1.58
1.31
1.15
1.10
1.07
0.96
0.72
0.40
0.07
-0.17
-0.29
-0.31
-0.30
-0.34
-0.41
-0.53
-0.69
-0.94
-1.34
-1.94
-2.73
-3.60
-4.39
-4.89
-4.95
-4.53
-3.70
-2.62
-1.52
-0.58
0.11
0.56
0.88
1.19
1.54
1.92
2.22
2.34
2.27
2.06
1.81
1.62
1.52
1.49
1.47
1.44
1.41
1.40
1.46
1.58
1.68
1.68
1.55
1.29
0.98
0.72
0.60
0.60
0.66
0.69
0.64
0.50
0.31
0.07
-0.24
-0.67
-1.25
-1.90
-2.49
-2.90
-3.08
-3.06
-2.92
-2.74
-2.52
-2.21
-1.76
-1.20
-0.60
-0.09
0.29
0.54
0.79
1.12
1.52
1.94
2.24
2.34
2.24
2.03
1.83
1.73
1.76
1.90
2.06
2.21
2.33
2.44
2.55
2.65
2.69
2.66
2.52
2.30
2.06
1.82
1.61
1.40
1.14
0.81
0.46
0.13
-0.11
-0.26
-0.40
-0.65
-1.07
-1.62
-2.16
-2.52
-2.59
-2.40
-2.13
-2.01
-2.21
-2.77
-3.54
-4.24
-4.62
-4.53
-4.00
-3.22
-2.38
-1.61
-0.95
-0.32
0.34
1.03
1.65
2.10
2.29
2.25
2.07
1.88
1.75
1.73
1.76
1.84
1.92
2.01
2.07
2.12
2.14
2.17
2.22
2.31
2.43
2.52
2.51
2.35
2.04
1.63
1.21
0.89
0.75
0.80
1.00
1.24
1.38
1.30
0.98
0.44
-0.18
-0.78
-1.23
-1.48
-1.51
-1.34
-1.03
-0.67
-0.39
-0.27
-0.36
-0.65
-1.09
-1.62
-2.20
-2.82
-3.48
-4.17
-4.81
-5.28
-5.47
-5.28
-4.70
-3.81
-2.74
-1.61
-0.54
0.41
1.19
1.80
2.21
2.44
2.50
2.43
2.28
2.14
2.08
2.15
2.35
2.62
2.88
3.02
2.99
2.80
2.49
2.17
1.94
1.88
2.00
2.27
2.59
2.85
2.92
2.73
2.30
1.70
1.09
0.58
0.22
-0.01
-0.17
-0.29
-0.41
-0.49
-0.49
-0.40
-0.23
-0.04
0.11
0.13
-0.02
-0.34
-0.79
-1.28
-1.72
-2.03
-2.20
-2.22
-2.18
-2.20
-2.35
-2.70
-3.20
-3.76
-4.21
-4.36
-4.12
-3.47
-2.53
-1.43
-0.35
0.61
1.38
1.96
2.32
2.46
2.38
2.11
1.74
1.38
1.18
1.19
1.42
1.77
2.11
2.35
2.45
2.44
2.39
2.35
2.30
2.21
2.03
1.80
1.57
1.41
1.34
1.32
1.26
1.11
0.84
0.53
0.24
0.04
-0.05
-0.07
-0.06
-0.08
-0.16
-0.31
-0.51
-0.71
-0.91
-1.09
-1.30
-1.54
-1.82
-2.07
-2.24
-2.26
-2.19
-2.12
-2.25
-2.67
-3.39
-4.24
-4.97
-5.33
-5.21
-4.63
-3.73
-2.71
-1.71
-0.76
0.15
1.03
1.85
2.49
2.82
2.79
2.51
2.17
2.00
2.10
2.37
2.59
2.55
2.18
1.62
1.13
0.94
1.11
1.52
1.91
2.06
1.92
1.59
1.27
1.14
1.23
1.44
1.61
1.60
1.37
1.03
0.75
0.68
0.86
1.20
1.53
1.66
1.52
1.16
0.70
0.25
-0.11
-0.37
-0.58
-0.79
-1.04
-1.33
-1.64
-1.90
-2.09
-2.19
-2.23
-2.26
-2.35
-2.54
-2.83
-3.20
-3.58
-3.92
-4.15
-4.21
-4.05
-3.63
-2.96
-2.10
-1.14
-0.18
0.68
1.38
1.91
2.25
2.46
2.57
2.61
2.55
2.37
2.07
1.68
1.30
0.99
0.83
0.78
0.78
0.80
0.81
0.88
1.05
1.34
1.68
1.97
2.14
2.19
2.19
2.23
2.38
2.58
2.74
2.70
2.42
1.90
1.26
0.68
0.27
0.07
0.02
-0.00
-0.09
-0.26
-0.50
-0.73
-0.91
-1.03
-1.13
-1.24
-1.36
-1.48
-1.59
-1.70
-1.86
-2.11
-2.48
-2.98
-3.56
-4.14
-4.62
-4.86
-4.76
-4.28
-3.45
-2.41
-1.32
-0.30
0.57
1.25
1.76
2.07
2.15
2.04
1.79
1.53
1.35
1.31
1.36
1.44
1.48
1.45
1.40
1.36
1.39
1.46
1.57
1.65
1.68
1.62
1.46
1.21
0.91
0.61
0.36
0.18
0.08
0.01
-0.04
-0.14
-0.31
-0.57
-0.93
-1.36
-1.82
-2.24
-2.58
-2.82
-2.95
-3.00
-2.97
-2.83
-2.51
-2.02
-1.36
-0.66
-0.02
0.50
0.90
1.21
1.48
1.69
1.78
1.71
1.46
1.14
0.86
0.74
0.79
0.96
1.13
1.20
1.14
0.99
0.83
0.73
0.73
0.81
0.94
1.04
1.03
0.87
0.57
0.19
-0.19
-0.48
-0.64
-0.71
-0.74
-0.79
-0.89
-1.04
-1.20
-1.37
-1.53
-1.69
-1.87
-2.06
-2.29
-2.53
-2.79
-3.01
-3.12
-3.06
-2.78
-2.30
-1.68
-1.00
-0.32
0.32
0.92
1.46
1.89
2.13
2.15
1.94
1.58
1.20
0.91
0.74
0.70
0.75
0.88
1.11
1.43
1.82
2.20
2.48
2.59
2.53
2.40
2.27
2.19
2.11
1.97
1.71
1.32
0.89
0.49
0.19
-0.01
-0.15
-0.28
-0.43
-0.58
-0.71
-0.75
-0.70
-0.60
-0.53
-0.60
-0.86
-1.30
-1.84
-2.33
-2.66
-2.78
-2.74
-2.65
-2.62
-2.73
-2.99
-3.37
-3.77
-4.05
-4.09
-3.80
-3.12
-2.13
-0.95
0.26
1.31
2.10
2.58
2.80
2.85
2.82
2.75
2.63
2.41
2.05
1.57
1.04
0.58
0.27
0.16
0.22
0.37
0.53
0.65
0.73
0.78
0.79
0.78
0.72
0.59
0.39
0.16
-0.05
-0.18
-0.21
-0.16
-0.12
-0.15
-0.31
-0.58
-0.90
-1.24
-1.57
-1.93
-2.33
-2.73
-3.04
-3.15
-2.99
-2.61
-2.13
-1.68
-1.32
-1.00
-0.59
0.00
0.79
1.65
2.36
2.74
2.72
2.37
1.87
1.43
1.15
1.07
1.09
1.12
1.10
1.04
1.01
1.09
1.30
1.61
1.92
2.11
2.08
1.83
1.44
1.07
0.86
0.90
1.15
1.45
1.60
1.46
1.00
0.31
-0.43
-1.05
-1.45
-1.60
-1.53
-1.31
-1.06
-0.89
-0.88
-1.04
-1.32
-1.59
-1.75
-1.78
-1.71
-1.71
-1.88
-2.27
-2.82
-3.40
-3.85
-4.06
-3.96
-3.56
-2.91
-2.09
-1.22
-0.39
0.30
0.83
1.19
1.41
1.52
1.57
1.56
1.54
1.50
1.48
1.48
1.48
1.49
1.54
1.64
1.80
2.00
2.22
2.39
2.48
2.48
2.41
2.29
2.14
1.96
1.77
1.57
1.41
1.31
1.23
1.10
0.82
0.35
-0.27
-0.88
-1.30
-1.39
-1.13
-0.66
-0.17
0.16
0.24
0.09
-0.19
-0.47
-0.67
-0.76
-0.77
-0.79
-0.90
-1.18
-1.62
-2.17
-2.72
-3.18
-3.48
-3.67
-3.85
-4.09
-4.42
-4.74
-4.87
-4.61
-3.86
-2.68
-1.25
0.15
1.30
2.09
2.53
2.72
2.76
2.73
2.66
2.57
2.46
2.34
2.18
2.00
1.79
1.60
1.47
1.45
1.51
1.58
1.60
1.53
1.41
1.35
1.43
1.64
1.90
2.07
2.04
1.80
1.44
1.10
0.89
0.85
0.89
0.86
0.63
0.19
-0.36
-0.85
-1.13
-1.15
-0.99
-0.81
-0.74
-0.82
-0.98
-1.10
-1.11
-1.03
-0.98
-1.08
-1.40
-1.88
-2.38
-2.80
-3.10
-3.34
-3.61
-3.95
-4.31
-4.53
-4.42
-3.90
-3.00
-1.86
-0.67
0.42
1.33
2.04
2.58
2.96
3.16
3.13
2.85
2.33
1.68
1.07
0.68
0.58
0.77
1.11
1.43
1.62
1.66
1.61
1.54
1.49
1.40
1.25
1.00
0.70
0.45
0.32
0.31
0.35
0.29
0.03
-0.46
-1.07
-1.68
-2.11
-2.27
-2.18
-1.91
-1.58
-1.33
-1.24
-1.31
-1.52
-1.78
-2.03
-2.22
-2.38
-2.51
-2.64
-2.73
-2.69
-2.45
-1.96
-1.27
-0.49
0.24
0.82
1.24
1.57
1.90
2.26
2.60
2.82
2.82
2.58
2.15
1.67
1.31
1.15
1.19
1.32
1.44
1.45
1.36
1.25
1.19
1.24
1.37
1.45
1.39
1.15
0.77
0.40
0.15
0.10
0.18
0.28
0.27
0.11
-0.15
-0.43
-0.66
-0.85
-1.00
-1.13
-1.22
-1.22
-1.12
-0.98
-0.91
-1.04
-1.40
-1.93
-2.50
-2.93
-3.12
-3.06
-2.78
-2.35
-1.81
-1.22
-0.63
-0.05
0.48
0.97
1.40
1.75
2.01
2.12
2.08
1.90
1.65
1.39
1.19
1.06
0.98
0.91
0.84
0.76
0.71
0.75
0.90
1.13
1.40
1.59
1.66
1.60
1.46
1.33
1.23
1.15
1.03
0.80
0.49
0.13
-0.17
-0.35
-0.42
-0.44
-0.48
-0.62
-0.87
-1.20
-1.54
-1.84
-2.07
-2.21
-2.29
-2.35
-2.44
-2.57
-2.78
-3.04
-3.35
-3.66
-3.89
-3.93
-3.65
-3.00
-2.05
-0.95
0.07
0.85
1.33
1.55
1.67
1.80
1.97
2.13
2.22
2.22
2.17
2.13
2.14
2.15
2.10
1.92
1.63
1.30
1.03
0.88
0.84
0.87
0.92
0.98
1.07
1.19
1.28
1.29
1.15
0.86
0.53
0.24
0.08
0.03
0.02
-0.04
-0.17
-0.33
-0.46
-0.56
-0.64
-0.76
-0.94
-1.16
-1.38
-1.64
-1.95
-2.33
-2.76
-3.07
-3.10
-2.74
-2.02
-1.10
-0.22
0.42
0.77
0.94
1.04
1.18
1.33
1.43
1.39
1.19
0.89
0.62
0.50
0.58
0.83
1.15
1.42
1.58
1.62
1.56
1.46
1.34
1.22
1.06
0.88
0.68
0.50
0.40
0.40
0.49
0.65
0.80
0.87
0.82
0.67
0.47
0.25
0.06
-0.12
-0.30
-0.51
-0.75
-1.00
-1.26
-1.50
-1.73
-1.93
-2.10
-2.26
-2.44
-2.71
-3.10
-3.59
-4.04
-4.26
-4.09
-3.47
-2.53
-1.45
-0.43
0.45
1.15
1.70
2.10
2.29
2.22
1.92
1.51
1.15
0.98
1.04
1.26
1.48
1.60
1.57
1.46
1.36
1.37
1.49
1.67
1.80
1.81
1.67
1.44
1.22
1.10
1.12
1.24
1.37
1.43
1.36
1.17
0.90
0.60
0.33
0.11
-0.04
-0.11
-0.13
-0.15
-0.25
-0.46
-0.82
-1.25
-1.67
-1.98
-2.13
-2.13
-2.05
-1.95
-1.92
-1.96
-2.09
-2.29
-2.54
-2.81
-3.07
-3.24
-3.25
-3.02
-2.52
-1.74
-0.78
0.22
1.08
1.69
2.00
2.06
1.98
1.87
1.78
1.71
1.63
1.53
1.43
1.40
1.48
1.64
1.82
1.95
1.99
1.99
2.04
2.19
2.42
2.65
2.73
2.59
2.25
1.79
1.36
1.05
0.84
0.69
0.52
0.30
0.07
-0.11
-0.22
-0.28
-0.36
-0.53
-0.84
-1.22
-1.58
-1.81
-1.89
-1.87
-1.85
-1.89
-1.99
-2.09
-2.12
-2.03
-1.85
-1.68
-1.68
-1.93
-2.46
-3.16
-3.85
-4.30
-4.31
-3.82
-2.90
-1.74
-0.57
0.43
1.18
1.75
2.22
2.68
3.09
3.40
3.50
3.31
2.85
2.20
1.53
1.01
0.78
0.85
1.17
1.54
1.79
1.83
1.69
1.48
1.34
1.30
1.31
1.28
1.15
0.93
0.71
0.57
0.51
0.49
0.39
0.15
-0.23
-0.65
-1.02
-1.25
-1.34
-1.34
-1.30
-1.30
-1.38
-1.59
-1.98
-2.55
-3.26
-3.93
-4.33
-4.26
-3.63
-2.58
-1.35
-0.26
0.52
0.98
1.25
1.49
1.77
2.06
2.24
2.23
2.05
1.77
1.51
1.31
1.14
0.98
0.84
0.78
0.87
1.14
1.52
1.86
2.03
1.95
1.67
1.30
0.92
0.57
0.26
-0.01
-0.19
-0.20
-0.03
0.28
0.57
0.70
0.52
0.06
-0.58
-1.22
-1.73
-2.04
-2.16
-2.17
-2.13
-2.13
-2.23
-2.47
-2.85
-3.33
-3.81
-4.12
-4.14
-3.82
-3.17
-2.29
-1.32
-0.37
0.48
1.19
1.73
2.12
2.34
2.41
2.38
2.30
2.20
2.08
1.93
1.72
1.43
1.13
0.89
0.80
0.88
1.12
1.42
1.70
1.90
1.99
1.99
1.91
1.77
1.59
1.40
1.24
1.18
1.23
1.38
1.55
1.64
1.54
1.20
0.64
-0.07
-0.81
-1.46
-1.92
-2.15
-2.16
-2.01
-1.80
-1.63
-1.59
-1.71
-2.00
-2.41
-2.87
-3.36
-3.83
-4.23
-4.49
-4.51
-4.17
-3.40
-2.24
-0.85
0.50
1.56
2.14
2.23
1.95
1.52
1.13
0.87
0.74
0.69
0.68
0.68
0.71
0.76
0.83
0.88
0.92
0.97
1.05
1.17
1.32
1.43
1.45
1.34
1.12
0.87
0.65
0.53
0.51
0.55
0.56
0.47
0.26
-0.02
-0.27
-0.38
-0.30
-0.12
0.06
0.12
-0.01
-0.24
-0.48
-0.61
-0.62
-0.56
-0.52
-0.56
-0.69
-0.90
-1.15
-1.43
-1.74
-2.06
-2.33
-2.48
-2.48
-2.32
-2.07
-1.82
-1.60
-1.40
-1.17
-0.83
-0.40
0.06
0.45
0.65
0.65
0.52
0.39
0.39
0.55
0.80
1.04
1.16
1.11
0.93
0.72
0.57
0.53
0.64
0.88
1.24
1.65
2.05
2.36
2.51
2.47
2.25
1.93
1.61
1.34
1.17
1.11
1.14
1.25
1.42
1.61
1.74
1.78
1.71
1.61
1.60
1.86
2.48
3.44
4.62
5.86
7.02
8.06
8.98
9.80
10.51
11.01
11.20
11.00
10.40
9.47
8.34
7.17
6.15
5.45
5.18
5.44
6.25
7.55
9.26
11.27
13.42
15.52
17.41
18.89
19.77
19.86
18.93
16.74
13.09
7.89
1.31
-6.23
-14.08
-21.54
-27.95
-32.81
-35.84
-36.91
-36.05
-33.48
-29.60
-24.93
-20.09
-15.58
-11.76
-8.74
-6.54
-5.07
-4.23
-3.91
-3.96
-4.18
-4.37
-4.42
-4.27
-3.96
-3.55
-3.07
-2.50
-1.81
-1.02
-0.16
0.71
1.53
2.26
2.82
3.16
3.19
2.87
2.25
1.45
0.64
-0.01
-0.43
-0.64
-0.72
-0.77
-0.83
-0.87
-0.85
-0.75
-0.63
-0.55
-0.59
-0.74
-0.93
-1.04
-0.97
-0.70
-0.25
0.25
0.72
1.10
1.40
1.71
2.08
2.53
2.98
3.33
3.47
3.35
3.03
2.65
2.38
2.36
2.65
3.23
3.98
4.73
5.33
5.63
5.54
5.00
3.99
2.50
0.60
-1.56
-3.71
-5.53
-6.78
-7.36
-7.40
-7.20
-7.06
-7.17
-7.53
-7.97
-8.27
-8.27
-7.93
-7.30
-6.48
-5.56
-4.57
-3.54
-2.48
-1.46
-0.56
0.14
0.62
0.90
1.13
1.43
1.87
2.43
3.00
3.42
3.53
3.29
2.78
2.16
1.63
1.34
1.28
1.39
1.55
1.64
1.66
1.68
1.78
2.03
2.41
2.85
3.21
3.42
3.46
3.35
3.17
2.95
2.71
2.41
2.03
1.59
1.12
0.73
0.47
0.35
0.32
0.28
0.16
-0.07
-0.36
-0.62
-0.75
-0.71
-0.52
-0.22
0.10
0.38
0.58
0.74
0.90
1.11
1.42
1.79
2.16
2.42
2.51
2.41
2.18
1.87
1.54
1.23
0.92
0.65
0.44
0.33
0.33
0.39
0.44
0.42
0.30
0.15
0.05
0.04
0.14
0.29
0.41
0.45
0.37
0.14
-0.20
-0.58
-0.87
-0.98
-0.87
-0.60
-0.35
-0.28
-0.46
-0.81
-1.16
-1.34
-1.29
-1.08
-0.83
-0.66
-0.59
-0.58
-0.57
-0.55
-0.55
-0.58
-0.66
-0.77
-0.88
-0.97
-1.07
-1.17
-1.25
-1.29
-1.24
-1.12
-0.95
-0.75
-0.52
-0.27
0.02
0.30
0.53
0.71
0.87
1.04
1.22
1.35
1.33
1.16
0.89
0.68
0.68
0.88
1.18
1.35
1.21
0.71
-0.06
-0.90
-1.63
-2.10
-2.30
-2.25
-2.03
-1.72
-1.39
-1.07
-0.80
-0.60
-0.48
-0.47
-0.57
-0.77
-1.00
-1.20
-1.29
-1.27
-1.17
-1.05
-0.98
-0.94
-0.93
-0.86
-0.67
-0.33
0.15
0.70
1.21
1.57
1.69
1.58
1.31
1.01
0.85
0.94
1.32
1.93
2.60
3.12
3.28
3.01
2.34
1.47
0.59
-0.13
-0.67
-1.10
-1.53
-2.00
-2.44
-2.72
-2.75
-2.53
-2.22
-2.02
-2.05
-2.33
-2.72
-3.05
-3.17
-3.04
-2.71
-2.30
-1.90
-1.60
-1.39
-1.23
-1.10
-0.96
-0.80
-0.63
-0.44
-0.22
0.02
0.27
0.49
0.63
0.64
0.52
0.30
0.07
-0.10
-0.18
-0.19
-0.18
-0.22
-0.34
-0.56
-0.82
-1.03
-1.10
-0.97
-0.64
-0.19
0.23
0.47
0.44
0.16
-0.27
-0.66
-0.85
-0.77
-0.45
-0.01
0.42
0.72
0.85
0.82
0.69
0.50
0.25
-0.07
-0.45
-0.81
-1.07
-1.11
-0.89
-0.47
0.03
0.49
0.87
1.21
1.60
2.08
2.59
2.98
3.13
2.99
2.64
2.23
1.90
1.72
1.68
1.75
1.90
2.10
2.33
2.46
2.36
1.91
1.13
0.14
-0.84
-1.62
-2.11
-2.34
-2.42
-2.41
-2.31
-2.08
-1.68
-1.16
-0.64
-0.29
-0.19
-0.33
-0.57
-0.76
-0.84
-0.82
-0.83
-0.98
-1.31
-1.75
-2.15
-2.37
-2.36
-2.15
-1.87
-1.63
-1.48
-1.41
-1.33
-1.15
-0.80
-0.30
0.28
0.85
1.30
1.57
1.66
1.60
1.46
1.31
1.19
1.16
1.23
1.41
1.66
1.96
2.22
2.39
2.40
2.25
1.98
1.68
1.45
1.35
1.38
1.49
1.59
1.59
1.44
1.15
0.75
0.31
-0.09
-0.39
-0.54
-0.56
-0.48
-0.36
-0.29
-0.30
-0.38
-0.48
-0.51
-0.40
-0.13
0.27
0.69
1.02
1.17
1.11
0.90
0.63
0.40
0.24
0.14
0.05
-0.10
-0.35
-0.68
-1.04
-1.37
-1.60
-1.70
-1.65
-1.50
-1.33
-1.19
-1.13
-1.10
-1.04
-0.86
-0.52
-0.07
0.36
0.68
0.78
0.67
0.38
0.00
-0.39
-0.71
-0.92
-1.00
-0.97
-0.89
-0.83
-0.86
-0.98
-1.15
-1.30
-1.38
-1.42
-1.47
-1.60
-1.84
-2.13
-2.36
-2.44
-2.32
-2.06
-1.72
-1.39
-1.15
-1.00
-0.90
-0.81
-0.70
-0.60
-0.56
-0.65
-0.89
-1.23
-1.54
-1.67
-1.51
-1.08
-0.50
0.04
0.37
0.41
0.23
-0.02
-0.20
-0.22
-0.08
0.09
0.20
0.17
0.00
-0.19
-0.29
-0.22
0.05
0.45
0.87
1.20
1.37
1.38
1.29
1.21
1.25
1.45
1.74
1.99
2.02
1.73
1.14
0.37
-0.38
-0.90
-1.09
-0.98
-0.67
-0.34
-0.13
-0.10
-0.22
-0.40
-0.51
-0.46
-0.26
0.04
0.33
0.55
0.64
0.63
0.58
0.52
0.49
0.48
0.48
0.53
0.66
0.87
1.12
1.32
1.38
1.27
1.06
0.87
0.80
0.86
1.00
1.09
1.06
0.92
0.75
0.64
0.64
0.68
0.69
0.59
0.37
0.09
-0.19
-0.41
-0.56
-0.64
-0.68
-0.70
-0.70
-0.64
-0.50
-0.27
0.04
0.35
0.59
0.70
0.64
0.44
0.17
-0.09
-0.26
-0.30
-0.22
-0.07
0.05
0.12
0.11
0.03
-0.10
-0.28
-0.53
-0.88
-1.31
-1.78
-2.19
-2.45
-2.55
-2.50
-2.36
-2.18
-2.00
-1.84
-1.72
-1.67
-1.71
-1.78
-1.79
-1.65
-1.29
-0.75
-0.11
0.49
0.99
1.38
1.71
2.02
2.32
2.56
2.69
2.70
2.64
2.56
2.51
2.46
2.36
2.17
1.86
1.53
1.26
1.11
1.07
1.05
0.96
0.74
0.45
0.21
0.15
0.32
0.67
1.04
1.24
1.21
0.97
0.65
0.41
0.35
0.47
0.67
0.84
0.87
0.72
0.42
0.03
-0.36
-0.71
-1.00
-1.23
-1.39
-1.50
-1.53
-1.53
-1.52
-1.54
-1.57
-1.55
-1.35
-0.88
-0.16
0.70
1.49
1.99
2.08
1.75
1.16
0.52
0.03
-0.19
-0.16
0.03
0.24
0.36
0.36
0.26
0.12
0.03
-0.02
-0.02
-0.03
-0.06
-0.11
-0.13
-0.09
0.02
0.19
0.33
0.40
0.32
0.11
-0.18
-0.45
-0.61
-0.58
-0.39
-0.10
0.16
0.24
0.11
-0.23
-0.65
-1.04
-1.30
-1.40
-1.38
-1.31
-1.24
-1.19
-1.16
-1.11
-1.03
-0.91
-0.76
-0.60
-0.41
-0.22
-0.01
0.22
0.43
0.59
0.68
0.68
0.61
0.50
0.36
0.21
0.05
-0.11
-0.24
-0.28
-0.19
0.06
0.43
0.81
1.09
1.18
1.08
0.84
0.54
0.29
0.13
0.10
0.16
0.29
0.45
0.62
0.81
0.99
1.11
1.12
0.98
0.70
0.35
0.05
-0.12
-0.09
0.09
0.32
0.49
0.53
0.44
0.28
0.12
0.02
0.02
0.13
0.36
0.65
0.93
1.11
1.11
0.91
0.60
0.29
0.11
0.11
0.30
0.58
0.85
0.98
0.92
0.65
0.27
-0.10
-0.28
-0.17
0.23
0.82
1.40
1.79
1.87
1.67
1.27
0.80
0.32
-0.10
-0.42
-0.57
-0.52
-0.26
0.12
0.49
0.72
0.73
0.54
0.27
0.05
-0.01
0.10
0.31
0.50
0.60
0.54
0.35
0.08
-0.21
-0.48
-0.70
-0.88
-0.97
-0.94
-0.75
-0.41
0.05
0.49
0.82
0.96
0.93
0.81
0.71
0.71
0.79
0.93
1.03
1.03
0.91
0.67
0.39
0.14
-0.00
-0.02
0.06
0.18
0.25
0.22
0.12
-0.00
-0.04
0.04
0.26
0.51
0.70
0.73
0.59
0.33
0.04
-0.20
-0.37
-0.49
-0.59
-0.66
-0.67
-0.57
-0.33
-0.02
0.25
0.35
0.22
-0.12
-0.56
-0.98
-1.25
-1.31
-1.15
-0.84
-0.47
-0.18
-0.08
-0.19
-0.43
-0.63
-0.65
-0.41
0.02
0.48
0.83
0.97
0.95
0.82
0.64
0.44
0.21
-0.02
-0.16
-0.10
0.23
0.76
1.33
1.72
1.74
1.39
0.78
0.13
-0.32
-0.44
-0.25
0.11
0.40
0.48
0.28
-0.09
-0.45
-0.66
-0.67
-0.51
-0.31
-0.16
-0.11
-0.14
-0.21
-0.30
-0.45
-0.69
-1.05
-1.46
-1.82
-2.02
-1.98
-1.74
-1.39
-1.08
-0.89
-0.86
-0.94
-1.04
-1.09
-1.05
-0.89
-0.63
-0.26
0.20
0.71
1.20
1.57
1.74
1.70
1.45
1.06
0.61
0.17
-0.20
-0.42
-0.48
-0.39
-0.17
0.10
0.38
0.62
0.80
0.91
0.95
0.96
0.96
0.96
0.93
0.85
0.69
0.44
0.16
-0.06
-0.15
-0.08
0.11
0.32
0.43
0.37
0.14
-0.18
-0.46
-0.59
-0.54
-0.35
-0.14
0.01
0.04
-0.05
-0.20
-0.40
-0.63
-0.90
-1.20
-1.44
-1.52
-1.39
-1.10
-0.75
-0.52
-0.48
-0.59
-0.70
-0.70
-0.52
-0.21
0.12
0.39
0.54
0.62
0.67
0.71
0.73
0.71
0.63
0.52
0.43
0.40
0.48
0.66
0.89
1.11
1.27
1.30
1.21
1.02
0.77
0.52
0.32
0.20
0.17
0.21
0.29
0.37
0.40
0.36
0.25
0.12
0.05
0.11
0.29
0.55
0.75
0.81
0.65
0.34
-0.02
-0.32
-0.51
-0.63
-0.75
-0.94
-1.19
-1.43
-1.60
-1.67
-1.67
-1.66
-1.69
-1.76
-1.84
-1.88
-1.86
-1.81
-1.78
-1.76
-1.72
-1.58
-1.24
-0.69
0.01
0.70
1.24
1.52
1.51
1.31
1.02
0.77
0.63
0.60
0.62
0.61
0.56
0.49
0.46
0.51
0.64
0.78
0.84
0.78
0.63
0.47
0.42
0.49
0.61
0.69
0.66
0.52
0.38
0.34
0.41
0.54
0.61
0.54
0.35
0.13
-0.01
-0.00
0.11
0.26
0.33
0.24
-0.02
-0.41
-0.84
-1.22
-1.48
-1.59
-1.55
-1.44
-1.32
-1.23
-1.19
-1.18
-1.20
-1.24
-1.33
-1.45
-1.58
-1.66
-1.60
-1.35
-0.95
-0.44
0.12
0.66
1.17
1.62
1.97
2.18
2.18
1.98
1.64
1.26
0.94
0.71
0.59
0.55
0.56
0.60
0.64
0.65
0.58
0.43
0.24
0.13
0.21
0.50
0.95
1.35
1.54
1.42
1.03
0.52
0.03
-0.33
-0.59
-0.78
-0.90
-0.93
-0.79
-0.51
-0.19
0.01
-0.04
-0.37
-0.85
-1.31
-1.58
-1.64
-1.56
-1.46
-1.46
-1.56
-1.70
-1.76
-1.65
-1.34
-0.86
-0.30
0.24
0.70
1.04
1.28
1.41
1.44
1.35
1.16
0.90
0.64
0.46
0.43
0.54
0.73
0.92
1.01
0.95
0.76
0.52
0.34
0.28
0.38
0.59
0.83
1.01
1.06
0.98
0.77
0.52
0.28
0.11
0.02
-0.01
-0.02
-0.04
-0.04
-0.00
0.10
0.22
0.27
0.13
-0.26
-0.85
-1.50
-2.02
-2.29
-2.28
-2.10
-1.90
-1.80
-1.85
-2.03
-2.26
-2.46
-2.53
-2.43
-2.11
-1.58
-0.90
-0.17
0.48
0.95
1.18
1.24
1.22
1.23
1.33
1.50
1.69
1.81
1.80
1.64
1.40
1.12
0.86
0.64
0.47
0.36
0.33
0.42
0.62
0.92
1.23
1.44
1.49
1.34
1.06
0.73
0.43
0.20
0.05
-0.06
-0.11
-0.07
0.08
0.33
0.61
0.84
0.94
0.89
0.74
0.54
0.34
0.16
-0.04
-0.29
-0.57
-0.87
-1.14
-1.34
-1.49
-1.57
-1.61
-1.61
-1.58
-1.55
-1.57
-1.71
-1.99
-2.39
-2.81
-3.15
-3.27
-3.13
-2.73
-2.14
-1.40
-0.59
0.24
1.02
1.63
1.98
2.03
1.82
1.51
1.26
1.18
1.27
1.39
1.41
1.26
0.97
0.70
0.61
0.77
1.15
1.61
1.99
2.18
2.16
1.97
1.66
1.32
1.01
0.78
0.63
0.55
0.51
0.48
0.46
0.48
0.57
0.70
0.81
0.79
0.56
0.10
-0.49
-1.05
-1.42
-1.53
-1.40
-1.17
-0.96
-0.89
-0.99
-1.21
-1.47
-1.69
-1.84
-1.95
-2.10
-2.33
-2.67
-3.08
-3.48
-3.76
-3.82
-3.62
-3.14
-2.41
-1.52
-0.55
0.38
1.18
1.78
2.17
2.36
2.42
2.39
2.33
2.26
2.18
2.09
1.97
1.83
1.70
1.55
1.41
1.25
1.07
0.86
0.65
0.49
0.42
0.49
0.69
0.95
1.15
1.18
1.00
0.68
0.33
0.09
0.07
0.24
0.52
0.75
0.84
0.74
0.50
0.21
-0.05
-0.26
-0.43
-0.61
-0.83
-1.09
-1.34
-1.53
-1.65
-1.75
-1.88
-2.07
-2.31
-2.53
-2.67
-2.73
-2.79
-2.93
-3.20
-3.57
-3.88
-3.96
-3.66
-2.94
-1.86
-0.60
0.64
1.65
2.30
2.59
2.58
2.44
2.30
2.21
2.15
2.05
1.90
1.73
1.64
1.69
1.85
2.05
2.16
2.15
2.04
1.92
1.86
1.83
1.80
1.68
1.47
1.21
0.96
0.78
0.69
0.68
0.71
0.75
0.78
0.75
0.61
0.36
0.03
-0.31
-0.58
-0.69
-0.67
-0.59
-0.55
-0.65
-0.92
-1.30
-1.71
-2.04
-2.20
-2.21
-2.12
-2.04
-2.06
-2.24
-2.58
-3.05
-3.58
-4.09
-4.50
-4.70
-4.58
-4.09
-3.19
-1.98
-0.62
0.67
1.70
2.35
2.60
2.57
2.43
2.34
2.36
2.46
2.50
2.33
1.95
1.44
1.00
0.80
0.88
1.15
1.43
1.57
1.56
1.48
1.45
1.51
1.61
1.63
1.46
1.10
0.64
0.24
0.02
0.01
0.12
0.21
0.17
-0.04
-0.40
-0.79
-1.13
-1.39
-1.58
-1.74
-1.91
-2.09
-2.25
-2.37
-2.50
-2.68
-2.95
-3.31
-3.62
-3.70
-3.38
-2.61
-1.45
-0.10
1.20
2.24
2.93
3.26
3.34
3.27
3.13
2.92
2.62
2.23
1.78
1.36
1.06
0.95
1.00
1.12
1.20
1.18
1.09
1.02
1.07
1.26
1.54
1.75
1.77
1.52
1.05
0.50
0.03
-0.28
-0.43
-0.54
-0.70
-0.94
-1.20
-1.35
-1.29
-1.05
-0.75
-0.58
-0.65
-1.01
-1.56
-2.14
-2.63
-2.95
-3.09
-3.12
-3.10
-3.10
-3.17
-3.37
-3.68
-4.06
-4.36
-4.43
-4.13
-3.40
-2.28
-0.92
0.45
1.66
2.55
3.07
3.26
3.20
3.01
2.81
2.66
2.59
2.56
2.52
2.42
2.23
2.00
1.79
1.69
1.72
1.87
2.07
2.23
2.31
2.27
2.13
1.91
1.62
1.28
0.88
0.48
0.11
-0.14
-0.19
-0.05
0.24
0.53
0.69
0.63
0.36
-0.05
-0.47
-0.81
-1.06
-1.28
-1.51
-1.76
-1.98
-2.07
-2.01
-1.80
-1.56
-1.39
-1.37
-1.48
-1.67
-1.88
-2.08
-2.33
-2.71
-3.26
-3.92
-4.52
-4.81
-4.56
-3.73
-2.46
-1.03
0.20
1.02
1.38
1.45
1.43
1.49
1.69
1.96
2.20
2.35
2.41
2.44
2.51
2.61
2.71
2.74
2.63
2.42
2.16
1.96
1.88
1.95
2.09
2.21
2.19
1.97
1.59
1.14
0.75
0.51
0.44
0.47
0.52
0.48
0.29
-0.05
-0.49
-0.93
-1.29
-1.54
-1.68
-1.78
-1.89
-2.03
-2.16
-2.23
-2.22
-2.18
-2.18
-2.27
-2.49
-2.78
-3.04
-3.17
-3.10
-2.81
-2.33
-1.69
-0.95
-0.18
0.57
1.25
1.86
2.37
2.77
3.03
3.11
2.97
2.64
2.18
1.72
1.37
1.18
1.16
1.27
1.42
1.53
1.55
1.47
1.31
1.15
1.06
1.06
1.13
1.20
1.21
1.14
1.02
0.90
0.78
0.61
0.33
-0.10
-0.63
-1.11
-1.39
-1.41
-1.22
-0.99
-0.83
-0.83
-0.95
-1.12
-1.30
-1.48
-1.70
-2.01
-2.40
-2.81
-3.20
-3.52
-3.80
-4.10
-4.46
-4.83
-5.11
-5.10
-4.66
-3.73
-2.39
-0.88
0.52
1.59
2.22
2.48
2.54
2.56
2.64
2.75
2.83
2.80
2.66
2.46
2.29
2.23
2.26
2.36
2.47
2.58
2.68
2.81
2.94
3.02
3.01
2.84
2.51
2.07
1.62
1.24
1.00
0.88
0.80
0.68
0.44
0.10
-0.28
-0.58
-0.73
-0.77
-0.76
-0.82
-1.01
-1.32
-1.65
-1.92
-2.08
-2.12
-2.11
-2.14
-2.25
-2.41
-2.60
-2.77
-2.95
-3.17
-3.46
-3.78
-4.02
-4.02
-3.64
-2.85
-1.74
-0.46
0.77
1.83
2.63
3.16
3.43
3.47
3.30
2.96
2.50
2.03
1.63
1.36
1.26
1.30
1.46
1.69
1.96
2.21
2.40
2.45
2.34
2.03
1.56
1.01
0.49
0.11
-0.08
-0.06
0.09
0.27
0.38
0.36
0.21
-0.03
-0.30
-0.53
-0.69
-0.77
-0.77
-0.72
-0.67
-0.66
-0.73
-0.89
-1.10
-1.29
-1.44
-1.58
-1.77
-2.11
-2.65
-3.33
-4.01
-4.51
-4.66
-4.37
-3.65
-2.59
-1.33
-0.03
1.14
2.07
2.70
3.03
3.12
3.06
2.91
2.69
2.38
2.01
1.61
1.23
0.96
0.82
0.81
0.91
1.05
1.20
1.37
1.57
1.80
2.03
2.19
2.20
2.01
1.60
1.04
0.39
-0.23
-0.77
-1.20
-1.52
-1.76
-1.91
-1.98
-1.97
-1.91
-1.84
-1.80
-1.81
-1.89
-2.01
-2.20
-2.44
-2.75
-3.09
-3.39
-3.51
-3.36
-2.88
-2.10
-1.12
-0.10
0.87
1.70
2.36
2.84
3.11
3.15
2.95
2.58
2.15
1.80
1.61
1.59
1.64
1.68
1.63
1.49
1.33
1.23
1.26
1.42
1.63
1.81
1.91
1.90
1.81
1.67
1.50
1.30
1.08
0.85
0.63
0.45
0.32
0.22
0.11
-0.02
-0.21
-0.46
-0.73
-1.00
-1.26
-1.51
-1.76
-2.04
-2.36
-2.70
-2.98
-3.15
-3.18
-3.10
-3.03
-3.06
-3.26
-3.58
-3.92
-4.14
-4.11
-3.77
-3.12
-2.20
-1.07
0.16
1.38
2.42
3.16
3.54
3.58
3.40
3.14
2.89
2.69
2.54
2.41
2.32
2.28
2.31
2.38
2.44
2.44
2.37
2.22
2.04
1.83
1.63
1.44
1.28
1.17
1.10
1.03
0.87
0.54
0.05
-0.50
-0.95
-1.16
-1.12
-0.97
-0.88
-1.02
-1.40
-1.87
-2.25
-2.37
-2.24
-1.96
-1.72
-1.68
-1.86
-2.21
-2.66
-3.14
-3.60
-3.99
-4.19
-4.05
-3.44
-2.35
-0.92
0.54
1.77
2.57
2.95
3.08
3.16
3.28
3.38
3.32
2.98
2.36
1.66
1.12
0.92
1.11
1.52
1.92
2.12
2.06
1.85
1.65
1.58
1.61
1.62
1.45
1.05
0.49
-0.07
-0.51
-0.76
-0.88
-1.00
-1.22
-1.53
-1.90
-2.22
-2.44
-2.54
-2.57
-2.62
-2.78
-3.09
-3.55
-4.01
-4.31
-4.28
-3.83
-3.02
-2.02
-1.03
-0.22
0.37
0.80
1.17
1.56
1.99
2.38
2.64
2.70
2.55
2.26
1.93
1.65
1.48
1.43
1.48
1.61
1.82
2.12
2.44
2.70
2.75
2.52
2.01
1.37
0.77
0.37
0.24
0.31
0.40
0.33
0.01
-0.53
-1.16
-1.71
-2.02
-2.06
-1.87
-1.58
-1.36
-1.33
-1.58
-2.09
-2.76
-3.49
-4.11
-4.47
-4.43
-3.91
-2.93
-1.61
-0.18
1.09
1.97
2.35
2.30
2.01
1.71
1.58
1.68
1.93
2.21
2.40
2.46
2.41
2.28
2.12
1.94
1.74
1.53
1.34
1.20
1.16
1.21
1.31
1.40
1.42
1.34
1.19
1.00
0.82
0.70
0.63
0.55
0.41
0.20
-0.07
-0.32
-0.48
-0.57
-0.60
-0.66
-0.81
-1.09
-1.47
-1.89
-2.26
-2.54
-2.74
-2.90
-3.10
-3.41
-3.83
-4.26
-4.54
-4.48
-3.91
-2.85
-1.43
0.09
1.47
2.50
3.13
3.39
3.40
3.25
3.03
2.77
2.45
2.06
1.67
1.31
1.09
1.04
1.17
1.39
1.60
1.71
1.70
1.60
1.45
1.29
1.10
0.88
0.58
0.21
-0.17
-0.50
-0.72
-0.85
-0.91
-0.95
-1.01
-1.12
-1.26
-1.41
-1.55
-1.66
-1.79
-1.96
-2.21
-2.56
-2.96
-3.32
-3.56
-3.57
-3.29
-2.70
-1.84
-0.83
0.17
1.03
1.66
2.07
2.31
2.45
2.55
2.61
2.61
2.52
2.33
2.07
1.77
1.47
1.22
1.04
0.96
1.02
1.20
1.44
1.63
1.65
1.44
1.03
0.51
0.03
-0.33
-0.52
-0.59
-0.62
-0.65
-0.75
-0.91
-1.12
-1.36
-1.63
-1.87
-2.06
-2.20
-2.31
-2.48
-2.76
-3.19
-3.69
-4.14
-4.37
-4.26
-3.77
-2.93
-1.83
-0.59
0.69
1.89
2.91
3.65
4.05
4.11
3.90
3.52
3.08
2.68
2.41
2.32
2.41
2.60
2.74
2.69
2.39
1.89
1.35
0.94
0.74
0.70
0.72
0.71
0.65
0.59
0.60
0.68
0.75
0.72
0.54
0.22
-0.09
-0.28
-0.32
-0.26
-0.21
-0.28
-0.48
-0.74
-0.96
-1.08
-1.15
-1.25
-1.47
-1.79
-2.12
-2.33
-2.39
-2.32
-2.25
-2.27
-2.44
-2.75
-3.15
-3.58
-4.00
-4.31
-4.37
-4.06
-3.31
-2.20
-0.92
0.29
1.24
1.89
2.31
2.60
2.82
3.00
3.09
3.08
2.97
2.80
2.61
2.42
2.23
2.04
1.87
1.75
1.71
1.76
1.88
2.05
2.21
2.33
2.35
2.24
1.99
1.63
1.24
0.88
0.64
0.51
0.46
0.41
0.32
0.14
-0.09
-0.32
-0.52
-0.67
-0.79
-0.95
-1.15
-1.36
-1.52
-1.54
-1.38
-1.10
-0.81
-0.70
-0.86
-1.28
-1.82
-2.23
-2.34
-2.12
-1.68
-1.29
-1.20
-1.54
-2.29
-3.26
-4.19
-4.82
-4.97
-4.58
-3.67
-2.36
-0.83
0.70
2.00
2.93
3.41
3.49
3.30
2.96
2.56
2.15
1.77
1.43
1.21
1.14
1.19
1.31
1.41
1.44
1.39
1.34
1.33
1.38
1.42
1.41
1.33
1.21
1.08
0.95
0.77
0.50
0.15
-0.21
-0.43
-0.43
-0.25
-0.03
0.03
-0.19
-0.71
-1.39
-2.05
-2.50
-2.65
-2.57
-2.39
-2.27
-2.31
-2.51
-2.79
-3.04
-3.14
-3.04
-2.73
-2.26
-1.66
-0.96
-0.19
0.61
1.44
2.25
2.98
3.54
3.84
3.81
3.46
2.87
2.16
1.51
1.06
0.89
0.96
1.17
1.40
1.56
1.64
1.66
1.66
1.65
1.57
1.38
1.10
0.80
0.56
0.43
0.40
0.35
0.20
-0.10
-0.48
-0.86
-1.14
-1.30
-1.34
-1.27
-1.13
-0.96
-0.83
-0.83
-1.00
-1.33
-1.74
-2.11
-2.36
-2.46
-2.48
-2.49
-2.58
-2.81
-3.15
-3.53
-3.85
-3.94
-3.71
-3.10
-2.17
-1.09
-0.05
0.81
1.42
1.83
2.09
2.31
2.51
2.69
2.83
2.88
2.80
2.59
2.25
1.84
1.49
1.28
1.26
1.41
1.58
1.65
1.53
1.29
1.05
0.99
1.19
1.59
2.02
2.29
2.28
1.97
1.51
1.04
0.69
0.47
0.30
0.10
-0.20
-0.59
-0.97
-1.23
-1.29
-1.18
-1.00
-0.88
-0.88
-1.00
-1.17
-1.30
-1.37
-1.43
-1.57
-1.84
-2.20
-2.54
-2.73
-2.68
-2.45
-2.16
-1.95
-1.95
-2.22
-2.75
-3.47
-4.25
-4.84
-5.00
-4.56
-3.52
-2.06
-0.50
0.84
1.81
2.43
2.87
3.25
3.59
3.79
3.71
3.33
2.74
2.13
1.70
1.56
1.70
2.00
2.36
2.66
2.87
3.00
3.03
2.95
2.73
2.37
1.90
1.40
0.97
0.69
0.57
0.59
0.62
0.59
0.45
0.21
-0.06
-0.27
-0.37
-0.37
-0.33
-0.32
-0.40
-0.59
-0.85
-1.11
-1.26
-1.28
-1.22
-1.17
-1.26
-1.53
-1.91
-2.28
-2.53
-2.60
-2.54
-2.43
-2.39
-2.45
-2.63
-2.89
-3.22
-3.54
-3.74
-3.67
-3.20
-2.28
-1.02
0.39
1.68
2.68
3.28
3.49
3.37
3.01
2.52
2.02
1.62
1.41
1.40
1.55
1.74
1.87
1.89
1.79
1.65
1.54
1.52
1.56
1.63
1.63
1.48
1.14
0.68
0.19
-0.17
-0.33
-0.32
-0.21
-0.15
-0.23
-0.44
-0.75
-1.06
-1.32
-1.52
-1.67
-1.78
-1.88
-1.98
-2.11
-2.30
-2.57
-2.84
-3.00
-2.92
-2.52
-1.86
-1.06
-0.29
0.38
0.91
1.35
1.73
2.05
2.26
2.33
2.24
2.00
1.63
1.16
0.67
0.26
0.03
0.10
0.46
1.02
1.59
1.97
2.04
1.82
1.40
0.94
0.57
0.34
0.25
0.20
0.13
-0.01
-0.19
-0.37
-0.53
-0.65
-0.78
-0.94
-1.13
-1.32
-1.43
-1.44
-1.36
-1.25
-1.20
-1.24
-1.39
-1.63
-1.94
-2.30
-2.71
-3.14
-3.54
-3.82
-3.93
-3.79
-3.37
-2.65
-1.66
-0.47
0.78
1.96
2.92
3.55
3.82
3.75
3.43
2.97
2.51
2.12
1.87
1.76
1.75
1.82
1.92
2.03
2.12
2.15
2.09
1.92
1.66
1.38
1.15
1.07
1.13
1.29
1.43
1.48
1.37
1.08
0.66
0.18
-0.27
-0.63
-0.85
-0.94
-0.96
-0.97
-0.98
-1.00
-1.00
-0.96
-0.93
-0.98
-1.16
-1.50
-1.95
-2.41
-2.80
-3.05
-3.19
-3.29
-3.46
-3.75
-4.14
-4.52
-4.68
-4.45
-3.72
-2.53
-1.09
0.36
1.57
2.43
2.91
3.10
3.10
3.01
2.93
2.90
2.95
3.04
3.09
3.02
2.82
2.52
2.24
2.04
1.95
1.94
1.93
1.88
1.81
1.75
1.68
1.57
1.39
1.11
0.77
0.46
0.28
0.26
0.39
0.56
0.66
0.62
0.41
0.09
-0.25
-0.50
-0.63
-0.64
-0.63
-0.72
-1.00
-1.48
-2.06
-2.59
-2.93
-3.02
-2.89
-2.67
-2.46
-2.37
-2.40
-2.58
-2.89
-3.29
-3.75
-4.14
-4.30
-4.11
-3.49
-2.51
-1.31
-0.09
0.98
1.84
2.48
2.95
3.25
3.40
3.37
3.15
2.77
2.30
1.85
1.52
1.36
1.37
1.48
1.58
1.60
1.51
1.35
1.18
1.08
1.05
1.07
1.08
1.04
0.94
0.81
0.67
0.53
0.39
0.18
-0.13
-0.56
-1.06
-1.55
-1.91
-2.09
-2.08
-1.95
-1.85
-1.88
-2.11
-2.48
-2.87
-3.12
-3.08
-2.72
-2.04
-1.15
-0.16
0.79
1.57
2.06
2.24
2.12
1.81
1.46
1.18
1.03
0.97
0.95
0.93
0.89
0.89
0.95
1.07
1.18
1.22
1.14
0.95
0.72
0.55
0.48
0.52
0.57
0.55
0.38
0.05
-0.39
-0.83
-1.19
-1.40
-1.47
-1.45
-1.41
-1.41
-1.50
-1.70
-2.01
-2.42
-2.90
-3.41
-3.87
-4.18
-4.23
-3.94
-3.25
-2.20
-0.93
0.38
1.54
2.36
2.79
2.88
2.74
2.53
2.40
2.37
2.43
2.50
2.48
2.31
2.01
1.65
1.36
1.23
1.30
1.56
1.88
2.14
2.24
2.19
2.03
1.85
1.68
1.52
1.32
1.05
0.71
0.35
0.03
-0.23
-0.43
-0.65
-0.90
-1.19
-1.44
-1.58
-1.56
-1.44
-1.32
-1.27
-1.36
-1.54
-1.75
-1.91
-2.03
-2.14
-2.31
-2.59
-2.97
-3.40
-3.84
-4.22
-4.52
-4.71
-4.70
-4.42
-3.77
-2.75
-1.42
0.08
1.52
2.72
3.53
3.91
3.91
3.65
3.29
2.95
2.68
2.46
2.25
2.02
1.81
1.69
1.75
1.98
2.29
2.53
2.55
2.35
2.03
1.76
1.64
1.69
1.77
1.71
1.42
0.95
0.43
0.04
-0.10
-0.02
0.18
0.35
0.37
0.21
-0.09
-0.48
-0.88
-1.23
-1.48
-1.57
-1.53
-1.40
-1.28
-1.24
-1.33
-1.50
-1.68
-1.77
-1.79
-1.77
-1.82
-1.99
-2.28
-2.64
-3.01
-3.36
-3.67
-3.92
-4.05
-3.95
-3.53
-2.74
-1.67
-0.45
0.73
1.71
2.43
2.87
3.10
3.14
3.06
2.87
2.60
2.31
2.02
1.80
1.68
1.70
1.84
2.07
2.33
2.52
2.56
2.44
2.21
1.99
1.87
1.85
1.88
1.84
1.67
1.39
1.06
0.77
0.58
0.49
0.45
0.39
0.26
0.03
-0.29
-0.66
-1.03
-1.33
-1.55
-1.70
-1.82
-1.95
-2.05
-2.07
-1.92
-1.64
-1.30
-1.05
-1.04
-1.31
-1.81
-2.46
-3.19
-3.94
-4.64
-5.20
-5.44
-5.19
-4.38
-3.06
-1.45
0.13
1.41
2.21
2.57
2.65
2.66
2.77
2.99
3.23
3.35
3.23
2.88
2.44
2.07
1.91
1.97
2.16
2.31
2.31
2.15
1.93
1.75
1.70
1.76
1.81
1.72
1.41
0.92
0.35
-0.13
-0.41
-0.43
-0.26
0.03
0.32
0.49
0.50
0.33
0.03
-0.31
-0.60
-0.74
-0.71
-0.56
-0.36
-0.22
-0.25
-0.46
-0.84
-1.34
-1.86
-2.35
-2.74
-3.01
-3.19
-3.30
-3.41
-3.56
-3.78
-4.02
-4.22
-4.30
-4.19
-3.84
-3.22
-2.35
-1.26
-0.02
1.24
2.34
3.15
3.58
3.64
3.43
3.06
2.65
2.25
1.87
1.55
1.32
1.26
1.43
1.82
2.32
2.76
2.98
2.89
2.53
2.04
1.61
1.35
1.29
1.33
1.36
1.29
1.11
0.88
0.66
0.49
0.37
0.25
0.11
-0.06
-0.24
-0.36
-0.43
-0.46
-0.50
-0.60
-0.76
-0.95
-1.10
-1.17
-1.14
-1.09
-1.08
-1.19
-1.44
-1.77
-2.08
-2.27
-2.29
-2.18
-2.07
-2.08
-2.31
-2.81
-3.46
-4.11
-4.56
-4.68
-4.39
-3.72
-2.74
-1.57
-0.31
0.92
2.00
2.84
3.38
3.61
3.61
3.49
3.30
3.04
2.67
2.18
1.67
1.31
1.25
1.52
2.00
2.46
2.68
2.58
2.24
1.82
1.50
1.33
1.30
1.34
1.36
1.30
1.14
0.86
0.47
0.04
-0.35
-0.59
-0.64
-0.53
-0.36
-0.25
-0.28
-0.47
-0.72
-0.92
-0.99
-0.92
-0.78
-0.70
-0.76
-0.98
-1.30
-1.60
-1.77
-1.77
-1.66
-1.51
-1.41
-1.42
-1.55
-1.78
-2.10
-2.49
-2.94
-3.34
-3.57
-3.48
-2.98
-2.09
-0.95
0.23
1.24
1.97
2.40
2.61
2.67
2.63
2.50
2.25
1.92
1.56
1.22
0.95
0.77
0.66
0.63
0.72
0.95
1.33
1.77
2.18
2.45
2.49
2.31
1.97
1.57
1.18
0.86
0.63
0.49
0.46
0.52
0.63
0.72
0.72
0.56
0.23
-0.22
-0.67
-1.01
-1.14
-1.08
-0.88
-0.66
-0.51
-0.47
-0.54
-0.71
-0.95
-1.25
-1.57
-1.84
-2.00
-2.04
-2.01
-2.06
-2.33
-2.87
-3.59
-4.29
-4.70
-4.67
-4.19
-3.36
-2.34
-1.25
-0.18
0.82
1.69
2.32
2.64
2.63
2.40
2.12
1.98
2.02
2.19
2.33
2.29
2.07
1.77
1.55
1.50
1.62
1.78
1.88
1.82
1.63
1.38
1.16
1.00
0.89
0.84
0.84
0.91
1.02
1.13
1.16
1.06
0.79
0.41
-0.05
-0.55
-1.04
-1.47
-1.75
-1.79
-1.56
-1.15
-0.71
-0.43
-0.42
-0.67
-1.05
-1.39
-1.58
-1.60
-1.52
-1.45
-1.47
-1.65
-1.97
-2.43
-2.97
-3.53
-4.01
-4.30
-4.29
-3.92
-3.20
-2.18
-0.99
0.26
1.45
2.46
3.20
3.61
3.70
3.52
3.19
2.83
2.54
2.37
2.28
2.22
2.11
1.91
1.61
1.26
0.93
0.69
0.61
0.71
0.97
1.30
1.59
1.73
1.70
1.51
1.21
0.85
0.49
0.15
-0.14
-0.36
-0.49
-0.54
-0.53
-0.48
-0.44
-0.46
-0.59
-0.84
-1.19
-1.55
-1.84
-1.95
-1.88
-1.67
-1.44
-1.28
-1.25
-1.35
-1.57
-1.90
-2.34
-2.90
-3.50
-4.03
-4.30
-4.12
-3.46
-2.40
-1.16
0.03
1.03
1.78
2.38
2.89
3.34
3.65
3.70
3.43
2.86
2.08
1.29
0.63
0.23
0.13
0.31
0.71
1.19
1.64
1.97
2.14
2.18
2.11
1.94
1.68
1.32
0.91
0.54
0.32
0.28
0.39
0.54
0.59
0.48
0.22
-0.08
-0.32
-0.44
-0.48
-0.50
-0.57
-0.71
-0.89
-1.06
-1.23
-1.43
-1.69
-2.05
-2.46
-2.84
-3.12
-3.25
-3.29
-3.37
-3.55
-3.83
-4.06
-4.05
-3.62
-2.75
-1.56
-0.30
0.80
1.62
2.15
2.47
2.64
2.69
2.59
2.37
2.12
1.95
1.96
2.14
2.37
2.50
2.43
2.16
1.81
1.52
1.38
1.43
1.56
1.71
1.79
1.80
1.74
1.63
1.47
1.24
0.93
0.58
0.21
-0.10
-0.30
-0.38
-0.36
-0.28
-0.18
-0.12
-0.10
-0.13
-0.24
-0.42
-0.68
-1.04
-1.44
-1.83
-2.10
-2.20
-2.12
-1.94
-1.83
-1.96
-2.42
-3.17
-4.04
-4.77
-5.16
-5.05
-4.45
-3.47
-2.26
-0.97
0.25
1.32
2.15
2.71
2.97
2.96
2.79
2.55
2.37
2.29
2.29
2.32
2.31
2.22
2.05
1.84
1.64
1.49
1.41
1.39
1.43
1.49
1.51
1.46
1.30
1.05
0.74
0.42
0.16
-0.03
-0.13
-0.16
-0.17
-0.22
-0.40
-0.72
-1.19
-1.72
-2.18
-2.44
-2.46
-2.28
-2.06
-1.95
-2.04
-2.33
-2.74
-3.17
-3.53
-3.75
-3.77
-3.48
-2.84
-1.80
-0.44
1.07
2.52
3.65
4.33
4.48
4.17
3.55
2.78
2.03
1.42
1.02
0.82
0.81
0.92
1.11
1.34
1.58
1.79
1.94
1.99
1.95
1.83
1.63
1.37
1.07
0.74
0.44
0.23
0.15
0.18
0.23
0.22
0.07
-0.20
-0.55
-0.91
-1.24
-1.54
-1.82
-2.05
-2.19
-2.21
-2.10
-1.93
-1.80
-1.77
-1.83
-1.95
-2.09
-2.26
-2.51
-2.87
-3.35
-3.83
-4.17
-4.20
-3.81
-2.99
-1.83
-0.52
0.75
1.79
2.49
2.85
2.93
2.82
2.64
2.46
2.33
2.24
2.20
2.21
2.24
2.28
2.32
2.32
2.24
2.09
1.88
1.67
1.52
1.48
1.53
1.61
1.63
1.49
1.15
0.67
0.15
-0.27
-0.49
-0.51
-0.40
-0.26
-0.17
-0.16
-0.21
-0.29
-0.38
-0.51
-0.68
-0.87
-1.04
-1.16
-1.24
-1.36
-1.58
-1.94
-2.42
-2.94
-3.43
-3.82
-4.09
-4.23
-4.21
-3.99
-3.51
-2.75
-1.76
-0.67
0.37
1.24
1.89
2.36
2.73
3.03
3.25
3.30
3.14
2.77
2.28
1.81
1.47
1.33
1.34
1.42
1.51
1.56
1.58
1.55
1.47
1.35
1.18
0.98
0.77
0.59
0.43
0.27
0.10
-0.11
-0.34
-0.55
-0.72
-0.82
-0.87
-0.92
-1.03
-1.21
-1.45
-1.69
-1.93
-2.17
-2.47
-2.87
-3.34
-3.74
-3.87
-3.54
-2.66
-1.37
0.09
1.41
2.36
2.88
3.04
2.98
2.84
2.68
2.49
2.24
1.94
1.60
1.29
1.05
0.92
0.90
0.97
1.07
1.14
1.16
1.12
1.03
0.95
0.91
0.88
0.83
0.75
0.61
0.44
0.28
0.14
0.04
-0.06
-0.17
-0.30
-0.46
-0.64
-0.84
-1.07
-1.34
-1.66
-2.03
-2.41
-2.75
-3.02
-3.20
-3.30
-3.39
-3.52
-3.70
-3.89
-4.01
-3.98
-3.73
-3.22
-2.48
-1.54
-0.49
0.59
1.59
2.39
2.92
3.17
3.17
3.04
2.85
2.65
2.44
2.21
1.97
1.78
1.71
1.81
2.04
2.32
2.53
2.61
2.56
2.44
2.33
2.25
2.14
1.94
1.62
1.20
0.78
0.48
0.33
0.30
0.28
0.15
-0.12
-0.53
-0.97
-1.32
-1.52
-1.55
-1.46
-1.35
-1.30
-1.35
-1.50
-1.69
-1.87
-2.00
-2.08
-2.13
-2.21
-2.35
-2.56
-2.84
-3.17
-3.55
-3.91
-4.19
-4.27
-4.04
-3.43
-2.45
-1.23
0.06
1.19
2.04
2.55
2.80
2.92
3.05
3.25
3.49
3.64
3.61
3.31
2.79
2.14
1.50
1.01
0.73
0.68
0.79
1.00
1.21
1.39
1.53
1.67
1.82
1.96
2.03
1.98
1.79
1.53
1.29
1.14
1.08
1.03
0.87
0.57
0.14
-0.33
-0.73
-1.04
-1.28
-1.46
-1.59
-1.64
-1.58
-1.47
-1.38
-1.39
-1.55
-1.82
-2.11
-2.36
-2.53
-2.66
-2.80
-3.00
-3.27
-3.58
-3.88
-4.08
-4.06
-3.70
-2.91
-1.71
-0.28
1.11
2.21
2.86
3.08
3.03
2.92
2.87
2.89
2.90
2.84
2.68
2.45
2.21
1.98
1.78
1.64
1.58
1.63
1.76
1.94
2.07
2.09
1.96
1.69
1.30
0.83
0.28
-0.29
-0.80
-1.16
-1.30
-1.23
-1.05
-0.88
-0.83
-0.92
-1.09
-1.23
-1.30
-1.32
-1.36
-1.51
-1.81
-2.22
-2.66
-3.08
-3.48
-3.88
-4.27
-4.58
-4.61
-4.18
-3.21
-1.80
-0.21
1.22
2.24
2.79
2.94
2.87
2.72
2.55
2.34
2.09
1.87
1.75
1.78
1.93
2.10
2.20
2.19
2.12
2.06
2.09
2.19
2.28
2.26
2.05
1.68
1.25
0.88
0.64
0.55
0.57
0.59
0.53
0.36
0.12
-0.12
-0.28
-0.35
-0.37
-0.42
-0.54
-0.77
-1.07
-1.42
-1.77
-2.05
-2.26
-2.39
-2.45
-2.50
-2.58
-2.74
-2.96
-3.21
-3.46
-3.70
-3.93
-4.15
-4.28
-4.18
-3.71
-2.79
-1.47
0.03
1.46
2.54
3.17
3.33
3.17
2.83
2.46
2.15
1.94
1.86
1.90
2.02
2.19
2.33
2.42
2.44
2.41
2.35
2.28
2.23
2.17
2.11
2.04
1.95
1.82
1.62
1.33
0.98
0.63
0.32
0.09
-0.10
-0.28
-0.47
-0.66
-0.83
-0.95
-1.04
-1.12
-1.25
-1.44
-1.67
-1.92
-2.17
-2.38
-2.54
-2.65
-2.71
-2.78
-2.94
-3.24
-3.70
-4.21
-4.55
-4.53
-3.98
-2.89
-1.44
0.13
1.51
2.51
3.09
3.35
3.46
3.53
3.62
3.64
3.50
3.14
2.60
2.02
1.55
1.28
1.21
1.28
1.37
1.41
1.39
1.33
1.26
1.22
1.19
1.14
1.06
0.95
0.80
0.60
0.33
-0.02
-0.41
-0.80
-1.12
-1.32
-1.41
-1.46
-1.56
-1.75
-2.02
-2.36
-2.73
-3.12
-3.54
-3.94
-4.20
-4.18
-3.72
-2.80
-1.54
-0.15
1.09
1.99
2.48
2.63
2.60
2.54
2.56
2.63
2.64
2.48
2.08
1.49
0.87
0.36
0.07
-0.01
0.03
0.09
0.10
0.07
0.07
0.17
0.35
0.55
0.65
0.55
0.19
-0.37
-0.96
-1.45
-1.69
-1.67
-1.48
-1.23
-1.01
-0.89
-0.87
-0.94
-1.14
-1.51
-2.05
-2.66
-3.16
-3.33
-3.02
-2.22
-1.11
0.09
1.14
1.91
2.38
2.62
2.74
2.81
2.84
2.81
2.67
2.42
2.07
1.70
1.38
1.18
1.10
1.14
1.24
1.38
1.54
1.71
1.87
1.98
1.98
1.85
1.56
1.17
0.74
0.33
-0.01
-0.25
-0.41
-0.50
-0.56
-0.62
-0.72
-0.90
-1.17
-1.52
-1.90
-2.22
-2.44
-2.53
-2.54
-2.55
-2.65
-2.90
-3.28
-3.76
-4.24
-4.62
-4.79
-4.66
-4.13
-3.20
-1.94
-0.56
0.73
1.71
2.30
2.55
2.58
2.56
2.55
2.53
2.44
2.25
1.99
1.77
1.69
1.77
1.96
2.13
2.17
2.06
1.88
1.78
1.87
2.14
2.46
2.64
2.55
2.18
1.59
0.94
0.35
-0.11
-0.41
-0.56
-0.59
-0.57
-0.56
-0.65
-0.86
-1.19
-1.54
-1.83
-1.96
-1.92
-1.79
-1.65
-1.60
-1.73
-2.06
-2.58
-3.25
-3.98
-4.63
-5.08
-5.17
-4.81
-3.99
-2.76
-1.30
0.19
1.51
2.52
3.21
3.62
3.86
4.01
4.06
3.97
3.68
3.17
2.50
1.77
1.12
0.63
0.35
0.27
0.38
0.63
0.97
1.35
1.73
2.02
2.14
2.02
1.66
1.10
0.45
-0.15
-0.59
-0.83
-0.89
-0.88
-0.89
-0.96
-1.08
-1.22
-1.33
-1.43
-1.58
-1.81
-2.16
-2.61
-3.11
-3.62
-4.02
-4.20
-4.05
-3.49
-2.53
-1.24
0.21
1.58
2.67
3.34
3.56
3.40
3.01
2.55
2.13
1.82
1.63
1.52
1.44
1.35
1.24
1.13
1.05
1.03
1.11
1.28
1.53
1.77
1.94
1.97
1.82
1.53
1.14
0.69
0.26
-0.13
-0.41
-0.59
-0.69
-0.77
-0.89
-1.13
-1.50
-1.93
-2.35
-2.62
-2.68
-2.52
-2.23
-1.92
-1.71
-1.71
-1.93
-2.36
-2.93
-3.55
-4.11
-4.47
-4.50
-4.07
-3.17
-1.88
-0.40
1.01
2.14
2.87
3.23
3.31
3.24
3.09
2.89
2.63
2.31
1.96
1.65
1.44
1.40
1.53
1.81
2.16
2.50
2.76
2.89
2.89
2.77
2.57
2.36
2.16
1.98
1.80
1.58
1.29
0.93
0.53
0.18
-0.09
-0.26
-0.37
-0.49
-0.67
-0.89
-1.10
-1.25
-1.32
-1.37
-1.47
-1.67
-1.95
-2.22
-2.40
-2.44
-2.42
-2.50
-2.82
-3.46
-4.32
-5.17
-5.73
-5.76
-5.20
-4.16
-2.88
-1.61
-0.48
0.48
1.33
2.13
2.87
3.49
3.88
3.97
3.77
3.35
2.84
2.35
1.99
1.77
1.68
1.67
1.69
1.68
1.66
1.66
1.72
1.87
2.10
2.35
2.55
2.59
2.41
1.99
1.39
0.72
0.09
-0.37
-0.63
-0.70
-0.71
-0.75
-0.88
-1.11
-1.37
-1.54
-1.59
-1.53
-1.45
-1.44
-1.53
-1.70
-1.86
-1.94
-1.94
-1.96
-2.08
-2.38
-2.81
-3.24
-3.54
-3.60
-3.43
-3.06
-2.53
-1.82
-0.93
0.13
1.26
2.31
3.10
3.55
3.65
3.49
3.16
2.75
2.31
1.88
1.48
1.15
0.91
0.76
0.73
0.82
1.01
1.30
1.63
1.89
1.96
1.78
1.33
0.72
0.11
-0.35
-0.62
-0.73
-0.80
-0.92
-1.12
-1.36
-1.56
-1.65
-1.65
-1.62
-1.62
-1.71
-1.88
-2.10
-2.33
-2.56
-2.77
-2.91
-2.92
-2.72
-2.26
-1.54
-0.62
0.43
1.45
2.33
2.93
3.19
3.11
2.78
2.34
1.93
1.64
1.47
1.38
1.31
1.24
1.18
1.17
1.21
1.26
1.28
1.21
1.05
0.85
0.68
0.58
0.54
0.47
0.29
-0.07
-0.58
-1.14
-1.64
-1.96
-2.05
-1.97
-1.82
-1.71
-1.72
-1.89
-2.22
-2.67
-3.18
-3.64
-3.90
-3.81
-3.29
-2.37
-1.18
0.02
1.05
1.77
2.19
2.37
2.42
2.38
2.28
2.12
1.91
1.65
1.35
1.02
0.69
0.40
0.23
0.27
0.51
0.90
1.28
1.52
1.53
1.34
1.07
0.82
0.65
0.55
0.47
0.35
0.18
-0.05
-0.33
-0.63
-0.94
-1.27
-1.62
-1.98
-2.37
-2.79
-3.23
-3.67
-4.03
-4.25
-4.27
-4.04
-3.54
-2.77
-1.76
-0.59
0.62
1.75
2.65
3.26
3.57
3.59
3.37
2.97
2.47
1.98
1.61
1.41
1.38
1.44
1.49
1.45
1.36
1.28
1.29
1.42
1.61
1.72
1.64
1.32
0.81
0.22
-0.31
-0.66
-0.82
-0.81
-0.72
-0.64
-0.62
-0.71
-0.90
-1.18
-1.54
-1.94
-2.37
-2.78
-3.12
-3.33
-3.37
-3.24
-2.98
-2.63
-2.21
-1.72
-1.12
-0.37
0.53
1.52
2.50
3.33
3.88
4.08
3.91
3.43
2.74
2.00
1.36
0.95
0.81
0.84
0.90
0.82
0.54
0.16
-0.16
-0.23
0.01
0.44
0.85
1.06
0.97
0.65
0.23
-0.16
-0.45
-0.66
-0.84
-1.03
-1.24
-1.45
-1.67
-1.92
-2.22
-2.57
-2.95
-3.26
-3.43
-3.35
-2.98
-2.33
-1.49
-0.59
0.22
0.84
1.23
1.48
1.68
1.89
2.11
2.26
2.27
2.11
1.84
1.57
1.41
1.37
1.39
1.39
1.29
1.11
0.91
0.75
0.68
0.68
0.71
0.73
0.67
0.47
0.10
-0.44
-1.09
-1.69
-2.07
-2.11
-1.82
-1.34
-0.93
-0.80
-1.08
-1.74
-2.63
-3.51
-4.15
-4.36
-4.04
-3.24
-2.10
-0.86
0.26
1.12
1.69
2.07
2.34
2.58
2.75
2.81
2.68
2.38
2.00
1.62
1.33
1.16
1.10
1.13
1.23
1.41
1.64
1.88
2.07
2.13
2.02
1.73
1.33
0.91
0.56
0.35
0.28
0.30
0.30
0.21
0.01
-0.28
-0.58
-0.82
-0.96
-1.02
-1.05
-1.11
-1.24
-1.42
-1.63
-1.82
-1.96
-2.03
-2.03
-1.97
-1.91
-1.91
-2.04
-2.38
-2.95
-3.68
-4.44
-5.01
-5.19
-4.82
-3.90
-2.55
-1.01
0.44
1.60
2.39
2.84
3.09
3.22
3.31
3.33
3.26
3.11
2.91
2.70
2.52
2.35
2.16
1.97
1.83
1.83
1.98
2.23
2.43
2.43
2.17
1.72
1.24
0.88
0.75
0.78
0.89
0.94
0.86
0.66
0.35
-0.04
-0.48
-0.92
-1.28
-1.47
-1.45
-1.25
-1.00
-0.84
-0.89
-1.12
-1.49
-1.88
-2.26
-2.66
-3.12
-3.67
-4.25
-4.74
-5.03
-5.03
-4.73
-4.20
-3.50
-2.72
-1.88
-1.00
-0.09
0.82
1.72
2.55
3.28
3.85
4.22
4.37
4.28
3.99
3.56
3.08
2.64
2.29
2.05
1.91
1.85
1.84
1.86
1.91
1.98
2.05
2.12
2.15
2.11
1.96
1.70
1.33
0.91
0.51
0.15
-0.19
-0.55
-0.98
-1.43
-1.82
-2.01
-1.92
-1.55
-1.03
-0.58
-0.39
-0.56
-1.07
-1.77
-2.46
-2.97
-3.15
-2.97
-2.46
-1.71
-0.86
-0.03
0.70
1.25
1.65
1.93
2.13
2.25
2.28
2.17
1.88
1.44
0.95
0.53
0.29
0.27
0.46
0.76
1.04
1.19
1.17
0.98
0.69
0.37
0.08
-0.14
-0.28
-0.35
-0.37
-0.38
-0.44
-0.59
-0.87
-1.24
-1.63
-1.93
-2.07
-2.04
-1.95
-1.89
-2.01
-2.32
-2.81
-3.37
-3.91
-4.30
-4.44
-4.27
-3.70
-2.74
-1.51
-0.21
0.92
1.71
2.09
2.14
2.04
1.97
2.00
2.14
2.30
2.39
2.38
2.30
2.18
2.06
1.95
1.83
1.66
1.44
1.19
0.99
0.89
0.93
1.10
1.32
1.50
1.57
1.50
1.32
1.10
0.87
0.64
0.35
-0.03
-0.49
-0.99
-1.43
-1.72
-1.84
-1.84
-1.81
-1.82
-1.93
-2.11
-2.32
-2.53
-2.74
-2.96
-3.22
-3.47
-3.62
-3.53
-3.10
-2.31
-1.23
-0.04
1.10
2.05
2.73
3.15
3.30
3.22
2.94
2.50
2.00
1.54
1.22
1.08
1.09
1.15
1.20
1.22
1.24
1.30
1.44
1.64
1.83
1.97
2.01
1.91
1.68
1.34
0.92
0.49
0.09
-0.20
-0.34
-0.34
-0.25
-0.11
0.04
0.20
0.36
0.47
0.51
0.42
0.21
-0.10
-0.47
-0.82
-1.13
-1.35
-1.49
-1.56
-1.59
-1.62
-1.69
-1.85
-2.11
-2.46
-2.87
-3.29
-3.70
-4.07
-4.35
-4.43
-4.21
-3.60
-2.60
-1.33
0.02
1.25
2.23
2.90
3.26
3.31
3.09
2.64
2.05
1.47
1.01
0.79
0.81
1.02
1.31
1.57
1.74
1.82
1.83
1.82
1.78
1.70
1.53
1.28
0.99
0.75
0.63
0.65
0.72
0.73
0.56
0.21
-0.24
-0.67
-0.99
-1.23
-1.43
-1.66
-1.92
-2.12
-2.16
-2.01
-1.75
-1.51
-1.47
-1.71
-2.19
-2.80
-3.38
-3.78
-3.90
-3.71
-3.19
-2.40
-1.40
-0.31
0.76
1.70
2.45
2.99
3.31
3.46
3.45
3.27
2.96
2.53
2.08
1.68
1.44
1.39
1.53
1.75
1.95
2.01
1.90
1.65
1.33
1.05
0.86
0.75
0.68
0.56
0.34
0.03
-0.31
-0.59
-0.75
-0.80
-0.78
-0.76
-0.81
-0.94
-1.13
-1.30
-1.42
-1.44
-1.41
-1.37
-1.37
-1.46
-1.63
-1.85
-2.09
-2.30
-2.51
-2.74
-3.05
-3.46
-3.94
-4.35
-4.51
-4.25
-3.44
-2.12
-0.46
1.28
2.83
3.98
4.62
4.76
4.50
3.98
3.36
2.77
2.28
1.91
1.64
1.45
1.33
1.28
1.31
1.41
1.57
1.74
1.91
2.07
2.22
2.32
2.31
2.12
1.75
1.27
0.79
0.43
0.21
0.10
-0.00
-0.18
-0.46
-0.80
-1.16
-1.48
-1.71
-1.83
-1.83
-1.74
-1.62
-1.52
-1.53
-1.63
-1.77
-1.86
-1.83
-1.69
-1.53
-1.48
-1.62
-1.98
-2.51
-3.15
-3.82
-4.44
-4.90
-5.02
-4.68
-3.80
-2.44
-0.82
0.76
2.06
2.93
3.42
3.66
3.80
3.89
3.86
3.62
3.11
2.41
1.74
1.28
1.14
1.26
1.44
1.51
1.41
1.22
1.10
1.15
1.36
1.64
1.82
1.83
1.66
1.40
1.16
0.97
0.81
0.63
0.36
0.02
-0.34
-0.64
-0.78
-0.77
-0.66
-0.57
-0.63
-0.87
-1.22
-1.52
-1.65
-1.63
-1.54
-1.57
-1.84
-2.34
-2.95
-3.52
-3.96
-4.22
-4.32
-4.22
-3.83
-3.08
-1.98
-0.64
0.71
1.85
2.67
3.14
3.33
3.33
3.21
3.04
2.82
2.56
2.24
1.88
1.47
1.06
0.74
0.56
0.54
0.63
0.77
0.90
0.99
1.06
1.13
1.17
1.12
0.90
0.51
0.01
-0.43
-0.69
-0.69
-0.49
-0.22
-0.06
-0.12
-0.46
-1.00
-1.60
-2.13
-2.48
-2.61
-2.54
-2.36
-2.16
-2.08
-2.21
-2.59
-3.17
-3.80
-4.27
-4.35
-3.91
-2.95
-1.62
-0.14
1.25
2.43
3.32
3.92
4.26
4.35
4.16
3.72
3.08
2.35
1.69
1.22
1.03
1.08
1.28
1.48
1.59
1.57
1.49
1.43
1.44
1.49
1.51
1.40
1.12
0.75
0.38
0.13
0.03
0.02
0.02
-0.06
-0.23
-0.48
-0.77
-1.04
-1.28
-1.43
-1.46
-1.39
-1.27
-1.23
-1.38
-1.73
-2.19
-2.58
-2.72
-2.59
-2.30
-2.05
-2.03
-2.31
-2.82
-3.35
-3.71
-3.78
-3.53
-3.00
-2.25
-1.35
-0.38
0.60
1.48
2.21
2.72
3.02
3.12
3.07
2.92
2.69
2.43
2.15
1.88
1.68
1.56
1.56
1.66
1.83
1.99
2.11
2.16
2.19
2.20
2.20
2.17
2.04
1.78
1.37
0.88
0.37
-0.07
-0.41
-0.62
-0.75
-0.84
-0.92
-1.02
-1.13
-1.21
-1.22
-1.17
-1.05
-0.93
-0.83
-0.81
-0.87
-1.02
-1.25
-1.55
-1.88
-2.14
-2.24
-2.18
-2.03
-1.96
-2.16
-2.69
-3.47
-4.24
-4.68
-4.56
-3.78
-2.44
-0.80
0.83
2.15
2.99
3.34
3.33
3.14
2.92
2.73
2.54
2.30
1.98
1.62
1.30
1.11
1.09
1.22
1.44
1.69
1.92
2.08
2.11
2.00
1.74
1.38
1.01
0.72
0.54
0.48
0.50
0.51
0.45
0.29
0.06
-0.17
-0.30
-0.32
-0.26
-0.24
-0.36
-0.65
-1.06
-1.46
-1.73
-1.83
-1.81
-1.79
-1.88
-2.13
-2.54
-3.01
-3.46
-3.80
-4.00
-4.07
-3.98
-3.69
-3.13
-2.25
-1.08
0.25
1.54
2.59
3.29
3.62
3.65
3.45
3.06
2.49
1.74
0.92
0.21
-0.16
-0.04
0.56
1.48
2.40
3.04
3.25
3.05
2.61
2.14
1.80
1.66
1.67
1.74
1.74
1.59
1.28
0.80
0.21
-0.38
-0.83
-1.07
-1.05
-0.85
-0.59
-0.42
-0.40
-0.53
-0.75
-0.96
-1.10
-1.13
-1.05
-0.90
-0.74
-0.66
-0.70
-0.91
-1.23
-1.58
-1.86
-2.02
-2.05
-2.02
-2.02
-2.15
-2.49
-3.06
-3.78
-4.51
-5.01
-5.08
-4.56
-3.44
-1.86
-0.09
1.57
2.89
3.72
4.05
3.96
3.60
3.11
2.63
2.23
1.94
1.76
1.65
1.60
1.57
1.56
1.52
1.45
1.32
1.20
1.14
1.19
1.37
1.61
1.82
1.91
1.86
1.71
1.51
1.36
1.26
1.20
1.11
0.95
0.68
0.33
-0.08
-0.48
-0.84
-1.12
-1.27
-1.27
-1.14
-0.95
-0.77
-0.69
-0.75
-0.93
-1.18
-1.44
-1.67
-1.84
-1.96
-2.01
-1.95
-1.79
-1.59
-1.46
-1.53
-1.87
-2.47
-3.20
-3.88
-4.37
-4.53
-4.35
-3.83
-3.03
-2.01
-0.86
0.33
1.41
2.30
2.92
3.29
3.43
3.40
3.21
2.88
2.43
1.96
1.59
1.43
1.53
1.83
2.20
2.50
2.60
2.48
2.20
1.85
1.51
1.27
1.17
1.17
1.24
1.28
1.23
1.07
0.83
0.57
0.35
0.17
0.02
-0.17
-0.40
-0.65
-0.86
-0.96
-0.94
-0.86
-0.83
-0.93
-1.15
-1.44
-1.67
-1.75
-1.66
-1.46
-1.29
-1.26
-1.43
-1.79
-2.22
-2.61
-2.86
-2.93
-2.88
-2.85
-2.94
-3.17
-3.42
-3.47
-3.11
-2.22
-0.90
0.60
1.98
3.02
3.64
3.90
3.93
3.82
3.60
3.29
2.86
2.33
1.75
1.17
0.67
0.33
0.20
0.32
0.67
1.17
1.72
2.19
2.47
2.50
2.28
1.89
1.43
1.04
0.80
0.71
0.68
0.61
0.43
0.15
-0.11
-0.31
-0.42
-0.51
-0.68
-0.96
-1.27
-1.44
-1.36
-1.06
-0.69
-0.47
-0.59
-1.04
-1.68
-2.28
-2.61
-2.63
-2.39
-2.07
-1.85
-1.82
-1.99
-2.26
-2.57
-2.87
-3.19
-3.53
-3.85
-4.05
-3.97
-3.48
-2.54
-1.25
0.20
1.58
2.69
3.40
3.69
3.64
3.36
2.97
2.57
2.20
1.91
1.68
1.51
1.41
1.37
1.37
1.38
1.37
1.35
1.34
1.39
1.52
1.71
1.86
1.89
1.73
1.41
1.02
0.68
0.50
0.52
0.66
0.79
0.82
0.68
0.44
0.19
0.01
-0.05
-0.03
-0.01
-0.03
-0.09
-0.18
-0.25
-0.32
-0.42
-0.60
-0.88
-1.26
-1.70
-2.14
-2.50
-2.75
-2.86
-2.83
-2.71
-2.56
-2.46
-2.48
-2.62
-2.87
-3.14
-3.36
-3.41
-3.22
-2.73
-1.96
-0.99
0.07
1.11
2.03
2.78
3.34
3.66
3.69
3.42
2.88
2.20
1.60
1.26
1.26
1.56
1.98
2.33
2.48
2.39
2.14
1.85
1.62
1.49
1.41
1.34
1.24
1.12
1.01
0.93
0.82
0.63
0.31
-0.10
-0.49
-0.69
-0.60
-0.24
0.22
0.57
0.65
0.43
0.03
-0.44
-0.84
-1.14
-1.35
-1.51
-1.60
-1.61
-1.54
-1.41
-1.32
-1.36
-1.58
-1.98
-2.47
-2.97
-3.40
-3.74
-3.98
-4.12
-4.13
-3.94
-3.48
-2.71
-1.67
-0.47
0.71
1.72
2.44
2.84
2.96
2.89
2.70
2.48
2.27
2.06
1.85
1.62
1.35
1.09
0.88
0.80
0.90
1.18
1.55
1.92
2.15
2.17
1.96
1.58
1.13
0.72
0.43
0.29
0.29
0.36
0.45
0.50
0.51
0.48
0.43
0.34
0.17
-0.12
-0.52
-0.94
-1.25
-1.33
-1.13
-0.76
-0.37
-0.13
-0.13
-0.32
-0.60
-0.87
-1.10
-1.30
-1.56
-1.90
-2.31
-2.75
-3.16
-3.51
-3.81
-4.06
-4.24
-4.22
-3.88
-3.11
-1.93
-0.51
0.89
2.02
2.73
3.04
3.08
3.00
2.90
2.78
2.60
2.32
1.97
1.61
1.34
1.18
1.16
1.23
1.34
1.42
1.44
1.40
1.31
1.21
1.16
1.16
1.19
1.21
1.19
1.13
1.05
0.98
0.93
0.86
0.72
0.46
0.09
-0.31
-0.63
-0.76
-0.68
-0.48
-0.29
-0.25
-0.42
-0.75
-1.13
-1.40
-1.50
-1.44
-1.32
-1.21
-1.15
-1.15
-1.23
-1.42
-1.78
-2.34
-3.05
-3.78
-4.38
-4.67
-4.59
-4.13
-3.33
-2.29
-1.11
0.09
1.17
2.05
2.67
3.04
3.22
3.26
3.19
3.02
2.78
2.49
2.18
1.84
1.46
1.03
0.59
0.23
0.07
0.17
0.53
1.04
1.52
1.82
1.89
1.76
1.54
1.33
1.18
1.08
1.00
0.91
0.81
0.71
0.59
0.44
0.24
-0.01
-0.25
-0.42
-0.47
-0.40
-0.31
-0.30
-0.45
-0.78
-1.21
-1.64
-1.95
-2.08
-2.06
-1.95
-1.87
-1.89
-2.07
-2.41
-2.86
-3.35
-3.84
-4.22
-4.40
-4.26
-3.69
-2.69
-1.36
0.09
1.38
2.35
2.91
3.11
3.08
2.94
2.77
2.62
2.48
2.32
2.11
1.84
1.54
1.27
1.12
1.12
1.25
1.45
1.62
1.71
1.74
1.75
1.77
1.80
1.81
1.78
1.66
1.47
1.21
0.87
0.48
0.09
-0.24
-0.43
-0.48
-0.43
-0.38
-0.43
-0.62
-0.92
-1.25
-1.52
-1.65
-1.65
-1.55
-1.42
-1.33
-1.34
-1.44
-1.60
-1.76
-1.91
-2.02
-2.14
-2.28
-2.49
-2.77
-3.09
-3.45
-3.80
-4.09
-4.23
-4.10
-3.60
-2.68
-1.40
0.07
1.48
2.59
3.27
3.53
3.49
3.30
3.08
2.84
2.53
2.12
1.64
1.21
0.99
1.07
1.44
1.99
2.54
2.96
3.18
3.21
3.06
2.79
2.40
1.95
1.49
1.10
0.84
0.70
0.65
0.63
0.55
0.41
0.21
-0.01
-0.18
-0.31
-0.42
-0.55
-0.70
-0.85
-0.95
-0.94
-0.82
-0.64
-0.51
-0.49
-0.60
-0.80
-1.01
-1.18
-1.31
-1.45
-1.64
-1.88
-2.13
-2.35
-2.52
-2.68
-2.95
-3.40
-4.02
-4.71
-5.22
-5.33
-4.86
-3.81
-2.28
-0.55
1.13
2.51
3.44
3.87
3.86
3.58
3.18
2.79
2.48
2.23
2.01
1.81
1.67
1.64
1.76
2.01
2.30
2.52
2.61
2.57
2.44
2.29
2.14
1.97
1.76
1.48
1.15
0.80
0.50
0.30
0.22
0.23
0.28
0.30
0.21
-0.01
-0.33
-0.66
-0.93
-1.05
-1.02
-0.85
-0.64
-0.50
-0.49
-0.63
-0.88
-1.18
-1.45
-1.66
-1.81
-1.91
-2.01
-2.12
-2.29
-2.54
-2.89
-3.33
-3.78
-4.11
-4.14
-3.75
-2.90
-1.70
-0.37
0.87
1.83
2.44
2.75
2.88
2.89
2.81
2.62
2.27
1.79
1.27
0.87
0.74
0.91
1.29
1.71
2.01
2.08
1.95
1.75
1.59
1.52
1.52
1.50
1.37
1.14
0.86
0.66
0.58
0.61
0.61
0.47
0.13
-0.31
-0.67
-0.79
-0.62
-0.32
-0.09
-0.12
-0.45
-0.96
-1.44
-1.76
-1.89
-1.92
-1.97
-2.06
-2.18
-2.27
-2.33
-2.45
-2.74
-3.27
-3.99
-4.72
-5.24
-5.34
-4.95
-4.13
-3.02
-1.79
-0.61
0.46
1.38
2.12
2.69
3.04
3.17
3.10
2.89
2.61
2.34
2.16
2.10
2.21
2.45
2.79
3.15
3.44
3.58
3.55
3.37
3.07
2.73
2.36
1.98
1.61
1.23
0.88
0.56
0.30
0.11
-0.01
-0.04
0.01
0.09
0.16
0.16
0.07
-0.09
-0.29
-0.46
-0.59
-0.68
-0.76
-0.86
-0.99
-1.15
-1.34
-1.54
-1.75
-1.93
-2.04
-2.07
-2.04
-1.99
-1.99
-2.04
-2.15
-2.33
-2.61
-3.04
-3.63
-4.33
-4.98
-5.34
-5.23
-4.53
-3.33
-1.82
-0.24
1.16
2.23
2.95
3.34
3.50
3.53
3.49
3.43
3.33
3.15
2.85
2.45
2.01
1.65
1.49
1.58
1.90
2.30
2.63
2.77
2.65
2.32
1.91
1.52
1.24
1.08
1.02
1.02
1.05
1.11
1.21
1.31
1.37
1.31
1.11
0.80
0.45
0.13
-0.11
-0.27
-0.37
-0.43
-0.44
-0.41
-0.36
-0.40
-0.63
-1.13
-1.84
-2.58
-3.13
-3.36
-3.25
-2.94
-2.63
-2.49
-2.62
-3.02
-3.63
-4.30
-4.88
-5.17
-5.01
-4.32
-3.13
-1.61
0.01
1.48
2.64
3.37
3.67
3.56
3.14
2.56
1.98
1.58
1.46
1.62
1.94
2.26
2.44
2.47
2.38
2.29
2.27
2.32
2.35
2.27
2.02
1.60
1.08
0.52
-0.01
-0.48
-0.86
-1.16
-1.35
-1.44
-1.46
-1.45
-1.50
-1.63
-1.85
-2.14
-2.41
-2.62
-2.75
-2.83
-2.89
-2.96
-3.07
-3.17
-3.20
-3.08
-2.75
-2.15
-1.28
-0.18
1.00
2.06
2.78
3.06
2.93
2.58
2.26
2.15
2.28
2.51
2.64
2.51
2.14
1.66
1.27
1.11
1.20
1.46
1.75
1.98
2.10
2.12
2.09
2.01
1.89
1.72
1.49
1.18
0.81
0.40
-0.03
-0.47
-0.87
-1.20
-1.43
-1.55
-1.62
-1.70
-1.82
-1.99
-2.17
-2.31
-2.42
-2.53
-2.71
-2.96
-3.25
-3.51
-3.69
-3.82
-3.95
-4.10
-4.20
-4.08
-3.56
-2.58
-1.23
0.25
1.59
2.58
3.18
3.42
3.42
3.26
3.00
2.71
2.44
2.23
2.14
2.15
2.23
2.33
2.38
2.39
2.38
2.37
2.43
2.56
2.76
2.96
3.11
3.12
2.95
2.60
2.11
1.55
0.99
0.52
0.18
-0.03
-0.16
-0.27
-0.41
-0.62
-0.85
-1.06
-1.21
-1.29
-1.35
-1.40
-1.46
-1.49
-1.46
-1.41
-1.42
-1.58
-1.93
-2.40
-2.87
-3.16
-3.23
-3.12
-3.01
-3.10
-3.48
-4.07
-4.67
-5.00
-4.85
-4.16
-3.05
-1.70
-0.34
0.90
1.94
2.76
3.32
3.59
3.55
3.24
2.73
2.17
1.69
1.40
1.34
1.46
1.66
1.82
1.90
1.90
1.89
1.94
2.08
2.27
2.43
2.48
2.40
2.18
1.87
1.51
1.11
0.71
0.35
0.06
-0.10
-0.11
-0.01
0.16
0.32
0.40
0.38
0.23
-0.04
-0.39
-0.77
-1.08
-1.25
-1.22
-1.01
-0.73
-0.52
-0.56
-0.94
-1.69
-2.69
-3.77
-4.74
-5.41
-5.68
-5.47
-4.80
-3.74
-2.45
-1.11
0.09
1.06
1.81
2.37
2.79
3.08
3.20
3.11
2.86
2.54
2.28
2.16
2.16
2.21
2.18
2.00
1.70
1.37
1.14
1.09
1.20
1.38
1.52
1.55
1.45
1.30
1.13
0.97
0.78
0.49
0.09
-0.40
-0.85
-1.18
-1.31
-1.29
-1.22
-1.19
-1.26
-1.40
-1.52
-1.55
-1.49
-1.38
-1.35
-1.48
-1.78
-2.20
-2.66
-3.09
-3.48
-3.86
-4.20
-4.41
-4.35
-3.91
-3.06
-1.93
-0.70
0.43
1.38
2.14
2.75
3.24
3.60
3.80
3.83
3.71
3.46
3.10
2.65
2.17
1.75
1.46
1.34
1.37
1.47
1.56
1.64
1.73
1.84
1.97
2.02
1.93
1.67
1.27
0.87
0.53
0.31
0.15
-0.01
-0.21
-0.43
-0.61
-0.70
-0.71
-0.70
-0.75
-0.92
-1.24
-1.62
-1.98
-2.21
-2.27
-2.19
-2.06
-1.96
-1.98
-2.14
-2.43
-2.83
-3.27
-3.71
-4.05
-4.20
-4.06
-3.53
-2.58
-1.25
0.31
1.86
3.13
3.90
4.10
3.84
3.36
2.91
2.62
2.48
2.36
2.12
1.72
1.24
0.86
0.69
0.74
0.89
1.00
0.97
0.82
0.64
0.53
0.54
0.65
0.76
0.79
0.66
0.40
0.05
-0.32
-0.66
-0.97
-1.28
-1.57
-1.84
-2.02
-2.11
-2.16
-2.27
-2.56
-3.03
-3.56
-3.90
-3.82
-3.21
-2.11
-0.77
0.53
1.61
2.37
2.86
3.16
3.31
3.31
3.11
2.71
2.16
1.60
1.13
0.85
0.80
0.91
1.09
1.26
1.31
1.24
1.05
0.80
0.54
0.32
0.16
0.05
-0.05
-0.16
-0.33
-0.54
-0.78
-1.01
-1.21
-1.39
-1.53
-1.64
-1.72
-1.76
-1.85
-2.08
-2.59
-3.39
-4.36
-5.20
-5.55
-5.15
-3.98
-2.27
-0.45
1.10
2.12
2.63
2.76
2.72
2.65
2.61
2.61
2.65
2.73
2.83
2.93
2.97
2.88
2.64
2.28
1.85
1.46
1.17
1.05
1.11
1.31
1.55
1.70
1.65
1.39
0.94
0.40
-0.14
-0.59
-0.93
-1.12
-1.16
-1.05
-0.85
-0.68
-0.67
-0.90
-1.37
-1.97
-2.50
-2.83
-2.93
-2.87
-2.82
-2.94
-3.28
-3.78
-4.30
-4.67
-4.74
-4.45
-3.79
-2.82
-1.65
-0.40
0.77
1.75
2.44
2.83
2.95
2.89
2.70
2.45
2.17
1.90
1.68
1.59
1.65
1.87
2.16
2.40
2.46
2.30
2.01
1.73
1.62
1.71
1.94
2.15
2.21
2.07
1.84
1.62
1.48
1.40
1.24
0.92
0.41
-0.18
-0.70
-1.03
-1.15
-1.17
-1.19
-1.31
-1.52
-1.76
-1.93
-1.96
-1.87
-1.73
-1.66
-1.76
-2.04
-2.47
-2.96
-3.45
-3.87
-4.15
-4.21
-3.95
-3.29
-2.25
-0.97
0.33
1.44
2.22
2.65
2.77
2.69
2.50
2.24
1.99
1.79
1.67
1.61
1.56
1.49
1.38
1.29
1.27
1.37
1.53
1.64
1.58
1.32
0.91
0.49
0.19
0.07
0.06
0.07
-0.01
-0.21
-0.48
-0.75
-0.97
-1.17
-1.42
-1.81
-2.36
-3.00
-3.62
-4.09
-4.29
-4.19
-3.78
-3.10
-2.22
-1.19
-0.11
0.95
1.87
2.57
2.98
3.06
2.86
2.48
2.09
1.83
1.78
1.90
2.08
2.16
2.06
1.79
1.47
1.26
1.22
1.32
1.43
1.40
1.14
0.70
0.19
-0.23
-0.45
-0.47
-0.38
-0.31
-0.40
-0.69
-1.12
-1.56
-1.88
-1.99
-1.89
-1.70
-1.56
-1.62
-1.96
-2.60
-3.43
-4.31
-5.04
-5.44
-5.35
-4.71
-3.57
-2.08
-0.45
1.08
2.33
3.18
3.62
3.70
3.56
3.32
3.05
2.81
2.59
2.38
2.18
2.03
1.97
2.03
2.15
2.26
2.28
2.16
1.91
1.61
1.36
1.23
1.19
1.19
1.13
0.97
0.68
0.29
-0.13
-0.55
-0.93
-1.25
-1.50
-1.67
-1.76
-1.83
-1.94
-2.12
-2.41
-2.76
-3.11
-3.43
-3.69
-3.92
-4.10
-4.15
-3.96
-3.40
-2.47
-1.25
0.04
1.16
1.98
2.47
2.73
2.90
3.05
3.14
3.07
2.78
2.31
1.81
1.49
1.45
1.67
2.02
2.33
2.46
2.39
2.18
1.91
1.64
1.37
1.14
0.97
0.89
0.91
0.96
0.97
0.85
0.60
0.26
-0.07
-0.35
-0.56
-0.75
-0.96
-1.20
-1.45
-1.65
-1.76
-1.77
-1.77
-1.87
-2.15
-2.65
-3.28
-3.92
-4.37
-4.50
-4.25
-3.67
-2.88
-2.01
-1.19
-0.45
0.22
0.82
1.39
1.90
2.34
2.68
2.89
2.96
2.85
2.57
2.13
1.60
1.09
0.74
0.65
0.81
1.11
1.42
1.58
1.56
1.39
1.16
0.97
0.83
0.75
0.71
0.68
0.63
0.55
0.36
0.03
-0.44
-1.00
-1.54
-1.96
-2.24
-2.39
-2.49
-2.56
-2.62
-2.67
-2.73
-2.81
-2.93
-3.04
-2.99
-2.65
-1.92
-0.84
0.40
1.56
2.40
2.83
2.88
2.69
2.41
2.13
1.89
1.69
1.51
1.37
1.28
1.24
1.23
1.21
1.16
1.10
1.07
1.11
1.22
1.34
1.42
1.38
1.23
0.99
0.74
0.54
0.41
0.32
0.19
-0.01
-0.31
-0.65
-0.98
-1.21
-1.33
-1.34
-1.30
-1.28
-1.34
-1.52
-1.78
-2.08
-2.33
-2.46
-2.47
-2.36
-2.22
-2.18
-2.33
-2.70
-3.22
-3.74
-4.03
-3.89
-3.20
-1.98
-0.46
1.06
2.28
3.01
3.29
3.28
3.17
3.10
3.10
3.06
2.87
2.51
2.05
1.68
1.54
1.67
1.96
2.23
2.32
2.16
1.84
1.52
1.37
1.50
1.81
2.14
2.27
2.05
1.48
0.71
-0.06
-0.63
-0.91
-0.94
-0.83
-0.73
-0.70
-0.73
-0.77
-0.75
-0.67
-0.60
-0.63
-0.80
-1.10
-1.46
-1.81
-2.09
-2.31
-2.49
-2.66
-2.83
-2.98
-3.11
-3.25
-3.44
-3.71
-4.04
-4.30
-4.32
-3.92
-3.01
-1.66
-0.07
1.46
2.65
3.33
3.49
3.28
2.92
2.57
2.35
2.20
2.03
1.80
1.51
1.27
1.19
1.32
1.62
1.94
2.16
2.21
2.13
2.00
1.91
1.89
1.91
1.92
1.85
1.66
1.35
0.91
0.36
-0.22
-0.69
-0.94
-0.90
-0.61
-0.22
0.08
0.12
-0.15
-0.66
-1.24
-1.76
-2.11
-2.27
-2.29
-2.24
-2.19
-2.19
-2.27
-2.44
-2.71
-3.02
-3.32
-3.50
-3.44
-3.05
-2.29
-1.23
-0.01
1.15
2.08
2.65
2.86
2.81
2.64
2.48
2.41
2.41
2.38
2.24
1.93
1.49
1.04
0.71
0.60
0.71
0.95
1.19
1.30
1.23
1.02
0.76
0.55
0.46
0.47
0.51
0.52
0.43
0.22
-0.09
-0.50
-1.00
-1.58
-2.21
-2.79
-3.21
-3.36
-3.19
-2.77
-2.24
-1.80
-1.59
-1.69
-2.07
-2.61
-3.15
-3.49
-3.46
-2.98
-2.06
-0.85
0.44
1.59
2.45
3.00
3.32
3.48
3.54
3.52
3.35
3.00
2.47
1.84
1.22
0.72
0.39
0.27
0.34
0.58
0.95
1.36
1.73
1.96
1.99
1.83
1.53
1.16
0.74
0.27
-0.25
-0.78
-1.24
-1.50
-1.49
-1.21
-0.75
-0.27
0.04
0.09
-0.17
-0.65
-1.23
-1.76
-2.10
-2.24
-2.22
-2.15
-2.15
-2.30
-2.60
-3.01
-3.46
-3.86
-4.12
-4.12
-3.72
-2.86
-1.59
-0.06
1.49
2.79
3.67
4.10
4.14
3.89
3.47
2.96
2.43
1.94
1.57
1.35
1.28
1.29
1.29
1.23
1.10
0.93
0.81
0.79
0.89
1.06
1.24
1.32
1.26
1.03
0.68
0.32
0.04
-0.10
-0.10
-0.04
-0.05
-0.19
-0.46
-0.73
-0.86
-0.78
-0.56
-0.39
-0.44
-0.81
-1.36
-1.88
-2.12
-2.01
-1.64
-1.26
-1.08
-1.20
-1.58
-2.13
-2.75
-3.39
-3.97
-4.38
-4.47
-4.12
-3.30
-2.11
-0.76
0.51
1.54
2.28
2.75
3.03
3.17
3.18
3.09
2.89
2.61
2.26
1.90
1.55
1.27
1.10
1.04
1.08
1.16
1.27
1.39
1.53
1.67
1.77
1.77
1.57
1.14
0.54
-0.13
-0.70
-1.04
-1.11
-0.94
-0.66
-0.42
-0.33
-0.42
-0.65
-0.92
-1.13
-1.27
-1.36
-1.47
-1.65
-1.91
-2.21
-2.54
-2.85
-3.13
-3.31
-3.31
-3.02
-2.34
-1.31
-0.06
1.19
2.23
2.94
3.32
3.41
3.31
3.07
2.68
2.15
1.53
0.92
0.44
0.18
0.12
0.21
0.33
0.43
0.51
0.64
0.86
1.15
1.44
1.64
1.68
1.59
1.38
1.12
0.79
0.42
0.00
-0.39
-0.68
-0.78
-0.73
-0.64
-0.69
-1.00
-1.58
-2.27
-2.85
-3.11
-2.98
-2.52
-1.96
-1.55
-1.50
-1.86
-2.53
-3.31
-3.95
-4.27
-4.17
-3.65
-2.75
-1.57
-0.25
1.03
2.12
2.87
3.27
3.39
3.39
3.39
3.41
3.38
3.16
2.73
2.16
1.59
1.18
0.98
0.95
0.99
1.03
1.09
1.22
1.44
1.68
1.83
1.77
1.48
1.07
0.69
0.47
0.46
0.60
0.77
0.86
0.84
0.70
0.46
0.13
-0.30
-0.79
-1.26
-1.59
-1.70
-1.60
-1.40
-1.31
-1.46
-1.85
-2.33
-2.69
-2.77
-2.59
-2.31
-2.16
-2.30
-2.73
-3.32
-3.84
-4.08
-3.90
-3.24
-2.18
-0.87
0.46
1.60
2.38
2.75
2.78
2.62
2.43
2.29
2.23
2.23
2.24
2.23
2.17
2.07
1.92
1.74
1.55
1.39
1.30
1.29
1.36
1.48
1.58
1.60
1.48
1.21
0.81
0.36
-0.05
-0.33
-0.40
-0.28
-0.03
0.24
0.45
0.47
0.28
-0.10
-0.57
-1.01
-1.33
-1.49
-1.54
-1.55
-1.60
-1.73
-1.93
-2.20
-2.52
-2.89
-3.32
-3.77
-4.14
-4.31
-4.14
-3.59
-2.67
-1.47
-0.14
1.17
2.33
3.20
3.71
3.82
3.59
3.16
2.67
2.22
1.86
1.53
1.20
0.87
0.61
0.51
0.63
0.92
1.23
1.42
1.40
1.23
1.05
0.98
1.06
1.22
1.31
1.20
0.88
0.38
-0.14
-0.56
-0.80
-0.86
-0.80
-0.70
-0.67
-0.74
-0.96
-1.30
-1.70
-2.09
-2.39
-2.56
-2.58
-2.52
-2.46
-2.52
-2.75
-3.12
-3.54
-3.83
-3.85
-3.51
-2.84
-1.93
-0.90
0.13
1.10
1.97
2.70
3.21
3.44
3.35
3.00
2.51
2.06
1.76
1.66
1.72
1.86
2.01
2.12
2.19
2.20
2.16
2.07
1.96
1.85
1.77
1.70
1.61
1.46
1.24
0.95
0.65
0.41
0.26
0.23
0.27
0.29
0.24
0.08
-0.15
-0.39
-0.55
-0.65
-0.74
-0.95
-1.34
-1.91
-2.53
-3.05
-3.32
-3.31
-3.08
-2.79
-2.62
-2.68
-3.01
-3.54
-4.12
-4.60
-4.82
-4.71
-4.23
-3.42
-2.34
-1.12
0.12
1.24
2.10
2.65
2.88
2.91
2.86
2.87
3.00
3.20
3.38
3.43
3.30
2.99
2.56
2.12
1.77
1.58
1.57
1.73
2.00
2.29
2.52
2.64
2.60
2.40
2.02
1.49
0.87
0.25
-0.27
-0.58
-0.67
-0.57
-0.39
-0.21
-0.10
-0.09
-0.16
-0.28
-0.40
-0.51
-0.59
-0.62
-0.61
-0.58
-0.58
-0.67
-0.89
-1.23
-1.64
-2.07
-2.42
-2.67
-2.80
-2.88
-2.98
-3.20
-3.57
-4.04
-4.46
-4.62
-4.37
-3.62
-2.44
-1.01
0.44
1.69
2.59
3.09
3.24
3.11
2.83
2.48
2.17
1.93
1.78
1.70
1.64
1.56
1.48
1.41
1.40
1.45
1.57
1.74
1.95
2.15
2.32
2.39
2.28
1.98
1.49
0.91
0.32
-0.16
-0.52
-0.76
-0.94
-1.07
-1.16
-1.17
-1.11
-1.00
-0.89
-0.84
-0.88
-1.00
-1.20
-1.45
-1.73
-2.04
-2.35
-2.66
-2.97
-3.29
-3.61
-3.91
-4.13
-4.23
-4.11
-3.73
-3.08
-2.21
-1.20
-0.16
0.83
1.72
2.48
3.10
3.56
3.85
3.93
3.79
3.45
2.99
2.53
2.18
2.00
1.97
2.01
1.99
1.88
1.71
1.55
1.50
1.59
1.75
1.86
1.83
1.60
1.23
0.78
0.32
-0.13
-0.55
-0.94
-1.23
-1.34
-1.21
-0.85
-0.35
0.12
0.40
0.40
0.11
-0.35
-0.87
-1.33
-1.69
-1.97
-2.19
-2.39
-2.54
-2.64
-2.69
-2.77
-3.02
-3.50
-4.15
-4.77
-5.06
-4.76
-3.80
-2.31
-0.62
0.91
2.04
2.69
2.96
2.98
2.91
2.81
2.68
2.53
2.35
2.20
2.09
2.05
2.07
2.15
2.28
2.45
2.61
2.71
2.68
2.48
2.11
1.66
1.21
0.87
0.67
0.61
0.65
0.72
0.77
0.76
0.68
0.52
0.29
0.02
-0.27
-0.55
-0.77
-0.89
-0.89
-0.81
-0.70
-0.63
-0.67
-0.86
-1.18
-1.60
-2.02
-2.38
-2.62
-2.71
-2.67
-2.58
-2.52
-2.64
-2.99
-3.56
-4.21
-4.73
