1547700355.00
64.000000
-0.00
-0.00
-0.00
-0.00
-0.00
-0.00
-0.00
-0.00
-0.00
-0.01
-0.00
0.00
0.01
0.01
-0.00
-0.03
-0.05
-0.05
-0.00
0.13
0.36
0.66
1.01
1.37
1.72
2.06
2.40
2.77
3.23
3.79
4.41
5.07
5.70
6.26
6.71
7.10
7.43
7.87
8.43
9.12
9.86
10.55
11.13
11.63
12.17
12.86
14.08
15.86
18.12
20.63
23.11
25.36
27.36
29.34
31.57
34.74
38.94
44.08
49.74
55.35
60.45
64.91
68.98
73.08
78.24
84.74
92.54
101.14
109.70
117.46
124.05
130.63
135.10
139.68
145.55
154.08
165.89
179.97
193.09
200.27
196.12
176.62
141.39
92.91
36.02
-24.16
-84.04
-142.24
-199.06
-255.48
-312.30
-369.20
-425.48
-479.46
-528.36
-568.08
-593.58
-600.02
-584.55
-547.52
-492.35
-424.99
-351.84
-278.30
-208.06
-143.76
-86.67
-37.43
3.79
37.51
64.63
86.41
104.02
118.18
129.15
136.95
141.51
143.03
142.06
139.39
135.88
132.21
128.72
125.34
121.79
117.69
112.75
106.99
100.67
94.22
88.11
82.60
77.68
73.18
68.84
64.45
59.98
55.52
51.22
47.18
43.40
39.84
36.44
33.16
30.00
26.97
24.09
21.37
18.88
16.68
14.83
13.36
12.21
11.28
10.49
9.80
9.24
8.83
8.56
8.35
8.10
7.72
7.27
6.85
6.57
6.49
6.56
6.62
6.54
6.30
5.92
5.54
5.25
5.09
5.03
4.99
4.87
4.64
4.31
3.94
3.60
3.38
3.34
3.47
3.74
4.06
4.37
4.63
4.81
4.89
4.82
4.59
4.19
3.68
3.16
2.74
2.50
2.43
2.49
2.61
2.73
2.83
2.87
2.84
2.72
2.52
2.31
2.11
1.96
1.83
1.67
1.44
1.13
0.79
0.49
0.27
0.14
0.09
0.07
0.09
0.17
0.36
0.67
1.04
1.39
1.61
1.70
1.70
1.71
1.82
2.06
2.41
2.85
3.34
3.86
4.37
4.78
4.95
4.77
4.17
3.20
1.99
0.64
-0.75
-2.21
-3.74
-5.33
-6.84
-8.08
-8.84
-9.02
-8.67
-7.95
-7.09
-6.27
-5.56
-4.92
-4.28
-3.55
-2.72
-1.81
-0.83
0.21
1.35
2.63
4.03
5.50
6.93
8.24
9.41
10.51
11.60
12.78
14.09
15.53
17.05
18.60
20.18
21.77
23.35
24.89
26.30
27.51
28.48
29.23
29.80
30.28
30.72
31.14
31.53
31.87
32.08
32.11
31.91
31.42
30.69
29.78
28.75
27.67
26.54
25.31
23.93
22.40
20.76
19.13
17.58
16.12
14.71
13.26
11.73
10.14
8.56
7.12
5.91
4.95
4.20
3.55
2.87
2.11
1.28
0.45
-0.31
-0.96
-1.53
-2.06
-2.59
-3.11
-3.58
-3.96
-4.27
-4.54
-4.83
-5.11
-5.36
-5.49
-5.48
-5.33
-5.10
-4.87
-4.71
-4.67
-4.79
-5.05
-5.42
-5.82
-6.10
-6.17
-5.96
-5.53
-5.02
-4.59
-4.35
-4.31
-4.38
-4.46
-4.46
-4.40
-4.32
-4.31
-4.38
-4.49
-4.57
-4.54
-4.40
-4.19
-4.01
-3.92
-3.90
-3.90
-3.81
-3.59
-3.28
-3.00
-2.88
-2.99
-3.28
-3.62
-3.81
-3.72
-3.33
-2.75
-2.15
-1.70
-1.48
-1.48
-1.62
-1.81
-1.99
-2.17
-2.36
-2.59
-2.84
-3.05
-3.14
-3.09
-2.92
-2.71
-2.59
-2.59
-2.71
-2.85
-2.88
-2.73
-2.44
-2.10
-1.86
-1.79
-1.88
-2.03
-2.14
-2.15
-2.04
-1.88
-1.74
-1.65
-1.59
-1.53
-1.39
-1.17
-0.85
-0.47
-0.11
0.17
0.29
0.23
-0.02
-0.38
-0.75
-1.04
-1.17
-1.12
-0.92
-0.65
-0.42
-0.32
-0.42
-0.72
-1.13
-1.52
-1.76
-1.75
-1.49
-1.10
-0.75
-0.60
-0.74
-1.12
-1.62
-2.06
-2.33
-2.37
-2.24
-2.03
-1.84
-1.74
-1.72
-1.73
-1.69
-1.56
-1.32
-1.01
-0.69
-0.39
-0.16
0.00
0.06
-0.02
-0.23
-0.53
-0.80
-0.90
-0.75
-0.37
0.10
0.48
0.63
0.51
0.19
-0.20
-0.53
-0.72
-0.76
-0.66
-0.47
-0.27
-0.12
-0.11
-0.26
-0.52
-0.82
-1.06
-1.19
-1.22
-1.19
-1.15
-1.08
-0.98
-0.88
-0.84
-0.96
-1.27
-1.70
-2.14
-2.40
-2.42
-2.24
-1.96
-1.74
-1.61
-1.55
-1.46
-1.25
-0.94
-0.58
-0.26
-0.01
0.14
0.25
0.33
0.41
0.46
0.47
0.40
0.26
0.05
-0.17
-0.37
-0.47
-0.46
-0.34
-0.17
-0.01
0.07
0.08
0.03
-0.05
-0.15
-0.29
-0.46
-0.66
-0.81
-0.86
-0.78
-0.61
-0.44
-0.37
-0.46
-0.69
-0.98
-1.22
-1.40
-1.51
-1.61
-1.73
-1.85
-1.89
-1.76
-1.44
-0.97
-0.47
-0.07
0.15
0.22
0.20
0.17
0.20
0.27
0.36
0.42
0.43
0.39
0.31
0.21
0.10
-0.03
-0.14
-0.22
-0.25
-0.23
-0.18
-0.12
-0.02
0.11
0.27
0.44
0.57
0.58
0.45
0.21
-0.06
-0.25
-0.32
-0.26
-0.15
-0.08
-0.11
-0.27
-0.51
-0.77
-0.98
-1.10
-1.11
-1.04
-0.91
-0.78
-0.71
-0.73
-0.83
-0.96
-1.03
-1.00
-0.84
-0.58
-0.27
0.03
0.27
0.42
0.49
0.47
0.35
0.15
-0.12
-0.37
-0.55
-0.62
-0.60
-0.56
-0.55
-0.61
-0.70
-0.74
-0.68
-0.50
-0.28
-0.12
-0.09
-0.20
-0.35
-0.40
-0.29
-0.01
0.34
0.61
0.71
0.59
0.25
-0.19
-0.63
-0.96
-1.12
-1.11
-1.00
-0.90
-0.91
-1.04
-1.21
-1.30
-1.22
-0.99
-0.69
-0.48
-0.46
-0.61
-0.81
-0.90
-0.80
-0.53
-0.20
0.05
0.13
0.06
-0.07
-0.17
-0.17
-0.09
0.03
0.17
0.29
0.38
0.40
0.31
0.08
-0.25
-0.57
-0.75
-0.65
-0.27
0.31
0.88
1.24
1.28
0.98
0.46
-0.11
-0.61
-0.94
-1.13
-1.21
-1.24
-1.24
-1.23
-1.20
-1.16
-1.15
-1.17
-1.22
-1.26
-1.28
-1.29
-1.32
-1.40
-1.53
-1.67
-1.75
-1.75
-1.69
-1.61
-1.58
-1.59
-1.61
-1.57
-1.43
-1.23
-1.01
-0.83
-0.69
-0.53
-0.27
0.10
0.53
0.91
1.15
1.26
1.34
1.51
1.83
2.25
2.65
2.88
2.87
2.65
2.32
1.98
1.69
1.43
1.21
1.00
0.81
0.64
0.49
0.35
0.18
-0.02
-0.23
-0.42
-0.56
-0.64
-0.64
-0.57
-0.46
-0.36
-0.34
-0.50
-0.85
-1.37
-1.90
-2.27
-2.32
-2.02
-1.44
-0.75
-0.14
0.26
0.41
0.32
0.11
-0.10
-0.18
-0.05
0.29
0.73
1.16
1.48
1.68
1.82
1.95
2.08
2.17
2.16
2.01
1.80
1.63
1.57
1.62
1.68
1.66
1.49
1.22
0.90
0.59
0.29
-0.05
-0.42
-0.78
-1.04
-1.11
-0.96
-0.67
-0.34
-0.06
0.12
0.22
0.25
0.19
0.04
-0.21
-0.49
-0.73
-0.81
-0.71
-0.47
-0.19
0.02
0.06
-0.09
-0.39
-0.73
-0.99
-1.05
-0.86
-0.49
-0.03
0.37
0.62
0.71
0.67
0.55
0.39
0.21
0.05
-0.06
-0.07
0.01
0.16
0.27
0.28
0.18
0.03
-0.09
-0.12
-0.10
-0.12
-0.25
-0.51
-0.85
-1.16
-1.37
-1.46
-1.47
-1.44
-1.40
-1.32
-1.17
-0.96
-0.70
-0.46
-0.29
-0.24
-0.31
-0.49
-0.73
-0.96
-1.09
-1.06
-0.82
-0.45
-0.08
0.14
0.11
-0.18
-0.64
-1.12
-1.47
-1.61
-1.50
-1.18
-0.74
-0.30
0.05
0.25
0.29
0.24
0.18
0.16
0.19
0.23
0.23
0.19
0.13
0.08
0.05
0.02
-0.08
-0.28
-0.57
-0.91
-1.23
-1.48
-1.58
-1.54
-1.33
-0.96
-0.52
-0.10
0.19
0.30
0.23
0.06
-0.13
-0.31
-0.47
-0.63
-0.78
-0.88
-0.86
-0.74
-0.54
-0.40
-0.39
-0.52
-0.70
-0.79
-0.70
-0.41
0.01
0.48
0.88
1.14
1.22
1.08
0.73
0.22
-0.31
-0.70
-0.82
-0.66
-0.30
0.08
0.34
0.43
0.36
0.22
0.10
0.02
-0.04
-0.08
-0.13
-0.18
-0.21
-0.23
-0.22
-0.18
-0.10
0.01
0.16
0.33
0.44
0.46
0.31
0.02
-0.39
-0.82
-1.17
-1.37
-1.41
-1.31
-1.14
-0.96
-0.79
-0.64
-0.54
-0.51
-0.58
-0.74
-0.94
-1.06
-1.01
-0.74
-0.31
0.15
0.50
0.65
0.57
0.35
0.12
-0.03
-0.03
0.12
0.34
0.55
0.67
0.67
0.55
0.37
0.19
0.02
-0.12
-0.24
-0.34
-0.38
-0.32
-0.17
0.03
0.20
0.28
0.22
0.06
-0.15
-0.33
-0.46
-0.55
-0.65
-0.77
-0.91
-0.98
-0.97
-0.86
-0.71
-0.64
-0.70
-0.90
-1.18
-1.43
-1.56
-1.57
-1.55
-1.61
-1.78
-2.05
-2.27
-2.32
-2.13
-1.76
-1.35
-1.09
-1.09
-1.34
-1.74
-2.13
-2.40
-2.49
-2.46
-2.42
-2.48
-2.71
-3.08
-3.47
-3.71
-3.68
-3.37
-2.91
-2.49
-2.31
-2.45
-2.85
-3.31
-3.61
-3.52
-2.93
-1.82
-0.27
1.58
3.51
5.32
6.80
7.82
8.41
8.72
9.00
9.48
10.18
10.90
11.25
10.86
9.65
7.88
6.09
4.86
4.53
5.07
6.14
7.32
8.27
8.82
8.99
8.79
8.25
7.34
6.06
4.50
2.83
1.22
-0.18
-1.28
-2.06
-2.53
-2.76
-2.87
-2.98
-3.26
-3.80
-4.60
-5.54
-6.45
-7.13
-7.48
-7.52
-7.40
-7.24
-7.11
-6.93
-6.53
-5.77
-4.61
-3.20
-1.81
-0.69
0.00
0.30
0.37
0.41
0.55
0.77
0.97
1.00
0.82
0.51
0.22
0.12
0.30
0.66
1.03
1.17
0.93
0.30
-0.56
-1.42
-2.08
-2.42
-2.49
-2.38
-2.21
-2.05
-1.87
-1.63
-1.29
-0.90
-0.54
-0.34
-0.34
-0.52
-0.79
-1.04
-1.18
-1.21
-1.16
-1.12
-1.12
-1.18
-1.26
-1.31
-1.33
-1.33
-1.37
-1.43
-1.50
-1.48
-1.28
-0.89
-0.37
0.14
0.51
0.63
0.51
0.20
-0.23
-0.70
-1.16
-1.55
-1.80
-1.82
-1.59
-1.16
-0.67
-0.27
-0.07
-0.04
-0.08
-0.07
0.04
0.21
0.36
0.42
0.38
0.28
0.19
0.13
0.11
0.08
0.05
0.04
0.11
0.26
0.44
0.55
0.53
0.36
0.11
-0.10
-0.17
-0.08
0.13
0.34
0.47
0.47
0.35
0.15
-0.09
-0.31
-0.50
-0.60
-0.60
-0.49
-0.31
-0.14
-0.04
-0.02
-0.06
-0.11
-0.14
-0.16
-0.20
-0.28
-0.41
-0.55
-0.66
-0.70
-0.65
-0.50
-0.29
-0.05
0.15
0.25
0.25
0.19
0.16
0.22
0.37
0.53
0.58
0.49
0.29
0.11
0.06
0.17
0.32
0.38
0.25
-0.06
-0.40
-0.61
-0.59
-0.34
0.01
0.34
0.57
0.66
0.64
0.54
0.39
0.25
0.17
0.18
0.27
0.39
0.46
0.40
0.21
-0.10
-0.46
-0.85
-1.23
-1.56
-1.78
-1.81
-1.59
-1.14
-0.58
-0.07
0.28
0.42
0.41
0.34
0.27
0.21
0.12
-0.07
-0.34
-0.64
-0.87
-0.94
-0.85
-0.65
-0.42
-0.23
-0.08
0.08
0.31
0.61
0.96
1.26
1.43
1.44
1.29
1.05
0.77
0.51
0.30
0.16
0.08
0.07
0.07
0.05
-0.03
-0.15
-0.27
-0.34
-0.33
-0.26
-0.18
-0.14
-0.16
-0.18
-0.14
0.02
0.27
0.54
0.72
0.75
0.61
0.33
-0.00
-0.34
-0.60
-0.75
-0.74
-0.60
-0.39
-0.18
-0.03
0.07
0.15
0.21
0.29
0.34
0.35
0.32
0.30
0.36
0.55
0.83
1.12
1.27
1.21
0.91
0.47
0.04
-0.23
-0.29
-0.15
0.08
0.28
0.38
0.37
0.30
0.25
0.23
0.24
0.23
0.19
0.12
0.05
-0.01
-0.04
-0.10
-0.21
-0.38
-0.58
-0.77
-0.88
-0.92
-0.89
-0.85
-0.87
-0.96
-1.08
-1.20
-1.26
-1.22
-1.07
-0.78
-0.39
0.05
0.46
0.75
0.86
0.76
0.51
0.16
-0.18
-0.43
-0.55
-0.50
-0.28
0.05
0.39
0.63
0.68
0.57
0.39
0.30
0.36
0.53
0.69
0.70
0.56
0.32
0.14
0.10
0.22
0.36
0.40
0.24
-0.10
-0.52
-0.88
-1.09
-1.13
-1.05
-0.91
-0.80
-0.75
-0.77
-0.84
-0.91
-0.92
-0.86
-0.70
-0.50
-0.30
-0.14
-0.05
0.01
0.06
0.15
0.28
0.40
0.48
0.45
0.31
0.09
-0.13
-0.27
-0.29
-0.22
-0.14
-0.11
-0.16
-0.22
-0.23
-0.13
0.06
0.22
0.25
0.09
-0.23
-0.62
-1.01
-1.34
-1.63
-1.83
-1.89
-1.76
-1.41
-0.92
-0.44
-0.11
0.04
0.06
0.13
0.33
0.67
1.04
1.29
1.32
1.11
0.73
0.27
-0.17
-0.52
-0.75
-0.81
-0.69
-0.43
-0.11
0.16
0.33
0.36
0.32
0.30
0.35
0.48
0.62
0.71
0.74
0.73
0.76
0.87
1.01
1.10
1.05
0.89
0.70
0.63
0.73
0.98
1.24
1.38
1.35
1.20
1.02
0.90
0.85
0.83
0.80
0.76
0.74
0.78
0.86
0.92
0.90
0.78
0.59
0.40
0.27
0.22
0.24
0.30
0.34
0.33
0.24
0.05
-0.21
-0.49
-0.72
-0.84
-0.85
-0.81
-0.80
-0.85
-0.95
-1.04
-1.02
-0.86
-0.58
-0.29
-0.09
-0.05
-0.18
-0.40
-0.58
-0.60
-0.42
-0.08
0.29
0.54
0.55
0.31
-0.10
-0.51
-0.76
-0.79
-0.63
-0.37
-0.14
0.03
0.14
0.23
0.31
0.35
0.27
0.03
-0.31
-0.66
-0.90
-0.97
-0.88
-0.74
-0.64
-0.66
-0.77
-0.88
-0.93
-0.89
-0.78
-0.69
-0.69
-0.79
-0.94
-1.07
-1.07
-0.90
-0.62
-0.30
-0.04
0.11
0.17
0.18
0.21
0.29
0.36
0.35
0.20
-0.09
-0.47
-0.79
-0.91
-0.74
-0.30
0.30
0.89
1.31
1.48
1.44
1.32
1.24
1.26
1.33
1.37
1.30
1.11
0.86
0.65
0.55
0.55
0.59
0.56
0.43
0.20
-0.10
-0.44
-0.81
-1.20
-1.55
-1.76
-1.76
-1.57
-1.29
-1.08
-1.05
-1.17
-1.28
-1.22
-0.90
-0.43
0.00
0.20
0.06
-0.33
-0.80
-1.17
-1.32
-1.21
-0.89
-0.43
0.09
0.55
0.85
0.91
0.74
0.42
0.07
-0.19
-0.29
-0.21
0.00
0.29
0.60
0.83
0.92
0.80
0.45
-0.09
-0.69
-1.21
-1.48
-1.45
-1.14
-0.68
-0.24
0.01
0.01
-0.23
-0.57
-0.87
-1.02
-1.00
-0.89
-0.83
-0.92
-1.15
-1.43
-1.61
-1.60
-1.36
-0.93
-0.38
0.21
0.81
1.40
1.93
2.32
2.54
2.54
2.36
2.05
1.67
1.23
0.78
0.33
-0.09
-0.43
-0.67
-0.84
-0.98
-1.09
-1.16
-1.13
-0.94
-0.59
-0.18
0.21
0.45
0.54
0.53
0.51
0.56
0.72
0.94
1.13
1.23
1.21
1.09
0.91
0.71
0.52
0.35
0.23
0.17
0.19
0.30
0.42
0.48
0.44
0.29
0.09
-0.09
-0.18
-0.19
-0.18
-0.21
-0.31
-0.46
-0.62
-0.74
-0.80
-0.79
-0.76
-0.70
-0.60
-0.41
-0.10
0.35
0.87
1.36
1.66
1.64
1.25
0.58
-0.20
-0.88
-1.29
-1.39
-1.25
-0.99
-0.69
-0.35
0.02
0.46
0.87
1.16
1.20
0.99
0.62
0.27
0.07
0.06
0.17
0.24
0.16
-0.12
-0.54
-1.00
-1.41
-1.72
-1.94
-2.07
-2.08
-1.95
-1.63
-1.15
-0.61
-0.15
0.13
0.21
0.13
0.00
-0.09
-0.08
0.03
0.20
0.36
0.46
0.47
0.40
0.29
0.18
0.10
0.07
0.12
0.20
0.27
0.26
0.18
0.05
-0.05
-0.06
0.07
0.32
0.60
0.82
0.93
0.95
0.94
0.93
0.86
0.67
0.31
-0.17
-0.64
-0.92
-0.92
-0.64
-0.23
0.17
0.43
0.54
0.56
0.50
0.41
0.23
-0.03
-0.36
-0.63
-0.74
-0.62
-0.30
0.07
0.29
0.22
-0.16
-0.69
-1.18
-1.43
-1.40
-1.19
-0.97
-0.84
-0.83
-0.84
-0.79
-0.64
-0.47
-0.41
-0.51
-0.76
-1.08
-1.33
-1.48
-1.57
-1.72
-2.02
-2.55
-3.24
-3.97
-4.59
-4.95
-4.95
-4.54
-3.73
-2.63
-1.33
0.02
1.27
2.34
3.17
3.76
4.14
4.39
4.55
4.64
4.63
4.50
4.18
3.66
2.93
2.02
0.98
-0.13
-1.20
-2.08
-2.63
-2.75
-2.46
-1.86
-1.15
-0.48
0.05
0.47
0.83
1.19
1.53
1.80
1.95
1.99
1.99
2.04
2.15
2.28
2.32
2.18
1.80
1.25
0.62
0.06
-0.32
-0.46
-0.34
-0.02
0.40
0.81
1.13
1.34
1.45
1.49
1.44
1.25
0.89
0.39
-0.13
-0.47
-0.49
-0.19
0.29
0.74
0.98
1.01
0.93
0.94
1.15
1.56
2.05
2.43
2.59
2.50
2.22
1.83
1.45
1.18
1.04
1.03
1.08
1.08
0.94
0.63
0.21
-0.21
-0.54
-0.77
-0.91
-1.00
-1.01
-0.85
-0.45
0.16
0.81
1.25
1.27
0.83
0.13
-0.53
-0.86
-0.81
-0.51
-0.26
-0.30
-0.67
-1.24
-1.78
-2.10
-2.15
-2.03
-1.87
-1.77
-1.70
-1.56
-1.31
-0.97
-0.66
-0.49
-0.51
-0.62
-0.69
-0.62
-0.42
-0.24
-0.25
-0.53
-1.00
-1.44
-1.62
-1.41
-0.90
-0.31
0.12
0.26
0.13
-0.10
-0.25
-0.21
0.00
0.27
0.50
0.62
0.68
0.76
0.90
1.14
1.44
1.76
2.05
2.28
2.45
2.56
2.62
2.65
2.63
2.54
2.34
1.97
1.40
0.70
-0.02
-0.62
-1.02
-1.24
-1.40
-1.64
-1.99
-2.43
-2.86
-3.21
-3.49
-3.79
-4.14
-4.56
-4.97
-5.33
-5.65
-5.99
-6.44
-6.97
-7.38
-7.39
-6.77
-5.50
-3.79
-2.05
-0.64
0.20
0.48
0.40
0.23
0.24
0.65
1.52
2.76
4.10
5.17
5.62
5.25
4.13
2.59
1.09
0.04
-0.40
-0.34
-0.09
0.01
-0.20
-0.72
-1.39
-2.03
-2.53
-2.84
-2.96
-2.89
-2.56
-1.95
-1.10
-0.16
0.58
0.88
0.68
0.11
-0.51
-0.84
-0.68
-0.11
0.62
1.19
1.39
1.19
0.72
0.20
-0.15
-0.23
0.02
0.52
1.17
1.78
2.20
2.25
1.87
1.08
0.04
-0.98
-1.66
-1.73
-1.02
0.43
2.40
4.50
6.30
7.46
7.82
7.37
6.26
4.72
2.98
1.27
-0.21
-1.36
-2.15
-2.62
-2.90
-3.05
-3.10
-3.00
-2.69
-2.17
-1.59
-1.14
-0.98
-1.15
-1.54
-1.95
-2.18
-2.15
-1.88
-1.47
-0.99
-0.48
0.07
0.65
1.22
1.72
2.09
2.33
2.49
2.66
2.87
3.08
3.17
3.06
2.76
2.38
2.07
1.96
2.03
2.18
2.27
2.19
1.98
1.72
1.49
1.31
1.08
0.67
0.01
-0.88
-1.87
-2.79
-3.49
-3.92
-4.11
-4.15
-4.09
-3.99
-3.86
-3.71
-3.54
-3.35
-3.09
-2.75
-2.28
-1.71
-1.07
-0.49
-0.04
0.20
0.26
0.24
0.23
0.34
0.56
0.85
1.11
1.24
1.23
1.05
0.76
0.39
0.02
-0.28
-0.40
-0.26
0.14
0.75
1.39
1.88
2.10
2.02
1.70
1.26
0.84
0.48
0.20
-0.02
-0.21
-0.40
-0.61
-0.87
-1.18
-1.52
-1.84
-2.06
-2.15
-2.13
-2.07
-2.07
-2.21
-2.47
-2.78
-3.06
-3.24
-3.31
-3.26
-3.06
-2.70
-2.16
-1.50
-0.84
-0.30
0.09
0.36
0.65
1.05
1.60
2.26
2.89
3.40
3.72
3.84
3.79
3.63
3.40
3.15
2.92
2.71
2.52
2.33
2.12
1.87
1.60
1.35
1.11
0.85
0.53
0.14
-0.27
-0.61
-0.79
-0.80
-0.68
-0.54
-0.48
-0.54
-0.74
-1.03
-1.34
-1.61
-1.82
-1.94
-1.96
-1.84
-1.63
-1.37
-1.15
-1.04
-1.04
-1.07
-1.02
-0.81
-0.42
0.08
0.55
0.86
0.96
0.87
0.69
0.53
0.45
0.46
0.50
0.51
0.47
0.35
0.19
0.05
0.00
0.08
0.25
0.44
0.59
0.68
0.71
0.72
0.73
0.70
0.55
0.27
-0.12
-0.52
-0.81
-0.94
-0.90
-0.73
-0.52
-0.30
-0.11
-0.00
0.02
-0.05
-0.18
-0.33
-0.44
-0.47
-0.40
-0.28
-0.14
-0.04
0.03
0.06
0.10
0.17
0.29
0.47
0.68
0.90
1.09
1.20
1.16
0.95
0.56
0.11
-0.25
-0.39
-0.24
0.07
0.33
0.35
0.07
-0.39
-0.82
-1.02
-0.95
-0.71
-0.48
-0.38
-0.43
-0.56
-0.69
-0.83
-0.99
-1.22
-1.46
-1.66
-1.71
-1.60
-1.38
-1.14
-0.94
-0.77
-0.56
-0.26
0.13
0.57
0.94
1.19
1.27
1.20
1.02
0.79
0.54
0.32
0.20
0.22
0.41
0.73
1.10
1.44
1.70
1.85
1.93
1.95
1.91
1.81
1.66
1.49
1.35
1.29
1.34
1.43
1.49
1.40
1.15
0.78
0.37
0.04
-0.15
-0.19
-0.15
-0.09
-0.05
-0.06
-0.09
-0.13
-0.16
-0.19
-0.24
-0.28
-0.30
-0.24
-0.13
-0.01
0.03
-0.08
-0.36
-0.74
-1.10
-1.30
-1.26
-1.00
-0.58
-0.14
0.23
0.48
0.56
0.49
0.28
-0.04
-0.40
-0.72
-0.91
-0.90
-0.65
-0.23
0.29
0.79
1.20
1.46
1.55
1.44
1.13
0.64
0.01
-0.65
-1.19
-1.49
-1.50
-1.25
-0.89
-0.55
-0.36
-0.37
-0.55
-0.82
-1.10
-1.30
-1.38
-1.31
-1.10
-0.79
-0.48
-0.24
-0.14
-0.21
-0.40
-0.67
-0.97
-1.25
-1.49
-1.64
-1.68
-1.58
-1.38
-1.13
-0.91
-0.78
-0.74
-0.75
-0.76
-0.72
-0.66
-0.60
-0.58
-0.61
-0.68
-0.74
-0.73
-0.58
-0.22
0.38
1.21
2.18
3.16
4.00
4.61
4.99
5.23
5.41
5.63
5.90
6.17
6.36
6.45
6.41
6.25
5.98
5.58
5.02
4.27
3.38
2.44
1.56
0.79
0.13
-0.50
-1.19
-2.00
-2.89
-3.80
-4.61
-5.28
-5.77
-6.15
-6.42
-6.59
-6.56
-6.22
-5.47
-4.27
-2.71
-1.02
0.54
1.68
2.24
2.21
1.73
1.04
0.40
-0.02
-0.15
-0.03
0.20
0.43
0.58
0.61
0.58
0.52
0.44
0.32
0.06
-0.36
-0.95
-1.59
-2.11
-2.40
-2.46
-2.40
-2.38
-2.50
-2.74
-2.95
-2.94
-2.62
-2.03
-1.32
-0.69
-0.30
-0.19
-0.28
-0.47
-0.66
-0.81
-0.95
-1.12
-1.31
-1.47
-1.48
-1.24
-0.67
0.18
1.19
2.15
2.89
3.28
3.30
3.02
2.55
2.00
1.41
0.76
-0.01
-0.90
-1.83
-2.66
-3.24
-3.50
-3.51
-3.41
-3.39
-3.55
-3.86
-4.18
-4.33
-4.21
-3.84
-3.35
-2.90
-2.65
-2.63
-2.79
-3.01
-3.18
-3.21
-3.07
-2.79
-2.37
-1.86
-1.27
-0.65
-0.01
0.67
1.43
2.29
3.26
4.26
5.11
5.63
5.71
5.37
4.83
4.46
4.63
5.57
7.23
9.33
11.41
13.02
13.86
13.84
13.06
11.71
10.01
8.17
6.39
4.86
3.77
3.23
3.18
3.42
3.67
3.64
3.09
1.95
0.27
-1.76
-3.89
-5.85
-7.43
-8.56
-9.23
-9.48
-9.39
-9.02
-8.48
-7.91
-7.47
-7.24
-7.22
-7.22
-6.97
-6.26
-5.07
-3.60
-2.18
-1.09
-0.39
0.03
0.38
0.80
1.27
1.63
1.71
1.46
1.01
0.61
0.47
0.68
1.15
1.67
2.06
2.22
2.20
2.10
2.03
2.00
1.99
1.91
1.70
1.33
0.87
0.40
0.02
-0.24
-0.42
-0.60
-0.85
-1.18
-1.53
-1.78
-1.87
-1.81
-1.71
-1.73
-2.00
-2.54
-3.27
-4.02
-4.59
-4.84
-4.70
-4.21
-3.50
-2.75
-2.17
-1.90
-1.92
-2.16
-2.46
-2.66
-2.71
-2.59
-2.34
-2.01
-1.59
-1.12
-0.64
-0.22
0.03
0.05
-0.15
-0.49
-0.83
-1.03
-1.01
-0.78
-0.44
-0.14
0.00
-0.04
-0.21
-0.35
-0.33
-0.10
0.31
0.80
1.25
1.63
1.95
2.28
2.67
3.15
3.68
4.18
4.62
4.96
5.21
5.35
5.39
5.32
5.16
4.96
4.75
4.58
4.46
4.36
4.24
4.00
3.61
3.09
2.52
2.05
1.79
1.78
1.94
2.15
2.24
2.13
1.82
1.38
0.88
0.37
-0.16
-0.71
-1.28
-1.79
-2.16
-2.34
-2.34
-2.30
-2.36
-2.60
-2.99
-3.38
-3.55
-3.35
-2.80
-2.03
-1.27
-0.70
-0.37
-0.20
-0.05
0.18
0.46
0.68
0.67
0.34
-0.27
-0.99
-1.61
-2.02
-2.18
-2.19
-2.16
-2.16
-2.16
-2.10
-1.92
-1.63
-1.27
-0.96
-0.76
-0.67
-0.64
-0.62
-0.56
-0.46
-0.36
-0.28
-0.22
-0.15
-0.04
0.12
0.33
0.57
0.75
0.83
0.78
0.60
0.37
0.16
0.07
0.14
0.37
0.68
0.98
1.20
1.30
1.30
1.25
1.17
1.06
0.91
0.72
0.50
0.34
0.28
0.34
0.49
0.64
0.75
0.80
0.86
0.97
1.14
1.35
1.49
1.54
1.50
1.45
1.45
1.49
1.50
1.37
1.08
0.66
0.18
-0.25
-0.61
-0.88
-1.09
-1.23
-1.29
-1.23
-1.08
-0.90
-0.76
-0.72
-0.74
-0.73
-0.62
-0.34
0.07
0.55
0.98
1.29
1.41
1.35
1.13
0.82
0.50
0.20
-0.07
-0.37
-0.79
-1.40
-2.22
-3.17
-4.11
-4.84
-5.18
-5.04
-4.42
-3.42
-2.16
-0.85
0.37
1.32
1.90
2.04
1.78
1.23
0.56
-0.05
-0.42
-0.48
-0.20
0.35
1.05
1.77
2.41
2.91
3.23
3.38
3.35
3.18
2.88
2.52
2.16
1.87
1.67
1.55
1.48
1.45
1.43
1.46
1.54
1.63
1.69
1.66
1.51
1.27
1.00
0.77
0.63
0.57
0.56
0.52
0.43
0.24
-0.07
-0.48
-0.97
-1.51
-2.05
-2.56
-2.99
-3.30
-3.46
-3.45
-3.27
-2.95
-2.56
-2.17
-1.86
-1.67
-1.64
-1.76
-1.97
-2.22
-2.44
-2.57
-2.58
-2.48
-2.35
-2.22
-2.15
-2.14
-2.19
-2.28
-2.39
-2.49
-2.55
-2.54
-2.48
-2.42
-2.40
-2.42
-2.40
-2.24
-1.87
-1.30
-0.64
-0.04
0.37
0.56
0.59
0.57
0.59
0.74
1.02
1.46
2.02
2.64
3.18
3.48
3.42
2.98
2.28
1.57
1.08
0.96
1.17
1.53
1.82
1.91
1.76
1.45
1.08
0.69
0.28
-0.16
-0.64
-1.08
-1.39
-1.46
-1.28
-0.89
-0.39
0.12
0.55
0.84
0.97
0.93
0.78
0.61
0.48
0.42
0.40
0.35
0.23
0.05
-0.16
-0.31
-0.37
-0.33
-0.23
-0.10
0.03
0.16
0.25
0.29
0.21
0.00
-0.32
-0.67
-0.95
-1.08
-1.03
-0.85
-0.63
-0.43
-0.30
-0.21
-0.13
0.00
0.16
0.31
0.38
0.32
0.16
-0.03
-0.11
-0.02
0.27
0.65
0.99
1.15
1.07
0.78
0.40
0.04
-0.22
-0.37
-0.41
-0.39
-0.33
-0.25
-0.17
-0.12
-0.15
-0.27
-0.42
-0.49
-0.38
-0.09
0.33
0.71
0.92
0.88
0.60
0.18
-0.28
-0.68
-1.00
-1.24
-1.38
-1.42
-1.30
-1.00
-0.49
0.19
0.94
1.67
2.29
2.71
2.88
2.74
2.28
1.50
0.49
-0.60
-1.57
-2.23
-2.48
-2.34
-1.97
-1.51
-1.10
-0.77
-0.48
-0.18
0.14
0.45
0.70
0.85
0.95
1.06
1.22
1.40
1.50
1.39
0.98
0.31
-0.47
-1.14
-1.53
-1.60
-1.43
-1.20
-1.11
-1.23
-1.51
-1.80
-1.93
-1.85
-1.59
-1.27
-1.03
-0.91
-0.91
-0.95
-0.93
-0.82
-0.58
-0.26
0.11
0.47
0.79
0.97
0.96
0.73
0.30
-0.24
-0.75
-1.11
-1.23
-1.08
-0.72
-0.23
0.26
0.64
0.82
0.77
0.46
-0.05
-0.68
-1.32
-1.85
-2.18
-2.26
-2.13
-1.87
-1.54
-1.24
-0.99
-0.82
-0.70
-0.64
-0.63
-0.68
-0.79
-0.93
-1.08
-1.17
-1.21
-1.16
-1.00
-0.67
-0.08
0.81
1.93
3.08
4.00
4.43
4.26
3.54
2.46
1.24
0.10
-0.84
-1.50
-1.86
-1.88
-1.55
-0.87
0.05
1.07
2.01
2.73
3.15
3.28
3.23
3.07
2.85
2.56
2.16
1.65
1.08
0.55
0.16
-0.08
-0.23
-0.38
-0.61
-0.90
-1.18
-1.38
-1.46
-1.46
-1.46
-1.53
-1.69
-1.92
-2.14
-2.28
-2.29
-2.14
-1.86
-1.46
-1.00
-0.52
-0.10
0.18
0.28
0.20
-0.01
-0.24
-0.42
-0.47
-0.38
-0.17
0.11
0.39
0.59
0.67
0.61
0.41
0.18
0.01
-0.02
0.13
0.42
0.76
1.04
1.22
1.29
1.33
1.40
1.55
1.72
1.83
1.79
1.56
1.17
0.68
0.20
-0.23
-0.55
-0.74
-0.78
-0.64
-0.35
0.03
0.37
0.55
0.51
0.30
0.06
-0.09
-0.09
0.04
0.24
0.39
0.48
0.52
0.57
0.67
0.81
0.96
1.07
1.08
1.02
0.90
0.78
0.70
0.67
0.66
0.65
0.66
0.72
0.84
1.04
1.25
1.41
1.47
1.41
1.26
1.08
0.89
0.68
0.45
0.19
-0.07
-0.27
-0.34
-0.21
0.11
0.56
1.05
1.48
1.79
1.94
1.93
1.78
1.57
1.38
1.27
1.26
1.32
1.33
1.10
0.50
-0.54
-1.95
-3.58
-5.26
-6.87
-8.33
-9.57
-10.47
-10.87
-10.60
-9.63
-8.03
-6.02
-3.79
-1.47
0.91
3.34
5.73
7.90
9.58
10.56
10.75
10.29
9.42
8.45
7.59
6.97
6.59
6.37
6.21
5.97
5.55
4.86
3.89
2.68
1.33
-0.04
-1.35
-2.51
-3.50
-4.30
-4.91
-5.30
-5.44
-5.35
-5.02
-4.51
-3.90
-3.25
-2.64
-2.11
-1.65
-1.20
-0.68
-0.05
0.63
1.23
1.60
1.66
1.45
1.15
0.93
0.93
1.15
1.49
1.80
1.99
2.04
2.00
1.94
1.85
1.68
1.38
0.95
0.50
0.18
0.13
0.45
1.11
2.03
3.06
4.10
5.02
5.72
6.09
6.05
5.56
4.68
3.55
2.38
1.35
0.63
0.30
0.39
0.87
1.68
2.67
3.66
4.42
4.80
4.68
4.10
3.18
2.11
1.09
0.29
-0.21
-0.39
-0.38
-0.36
-0.58
-1.23
-2.40
-4.00
-5.77
-7.36
-8.45
-8.86
-8.67
-8.13
-7.56
-7.22
-7.20
-7.43
-7.74
-7.99
-8.07
-7.96
-7.68
-7.21
-6.57
-5.73
-4.75
-3.71
-2.73
-1.92
-1.37
-1.06
-0.91
-0.79
-0.60
-0.30
0.06
0.37
0.53
0.50
0.34
0.15
0.01
-0.04
0.01
0.10
0.20
0.26
0.28
0.25
0.20
0.16
0.14
0.15
0.17
0.18
0.20
0.25
0.34
0.44
0.48
0.39
0.15
-0.20
-0.54
-0.75
-0.75
-0.55
-0.23
0.08
0.29
0.37
0.31
0.16
-0.03
-0.21
-0.33
-0.33
-0.21
0.03
0.33
0.62
0.80
0.83
0.71
0.52
0.33
0.23
0.24
0.34
0.45
0.55
0.62
0.65
0.65
0.61
0.52
0.39
0.23
0.08
-0.01
0.02
0.19
0.49
0.82
1.09
1.18
1.07
0.77
0.41
0.08
-0.13
-0.22
-0.23
-0.23
-0.22
-0.19
-0.08
0.12
0.39
0.63
0.75
0.71
0.53
0.28
0.07
-0.04
-0.06
-0.05
-0.07
-0.17
-0.34
-0.55
-0.72
-0.83
-0.86
-0.81
-0.68
-0.46
-0.14
0.23
0.56
0.77
0.77
0.57
0.25
-0.05
-0.19
-0.07
0.26
0.68
1.02
1.15
1.05
0.77
0.46
0.21
0.12
0.14
0.22
0.28
0.28
0.22
0.12
0.00
-0.11
-0.20
-0.23
-0.20
-0.11
-0.02
-0.01
-0.13
-0.37
-0.64
-0.84
-0.89
-0.80
-0.64
-0.50
-0.43
-0.41
-0.37
-0.25
-0.02
0.26
0.52
0.67
0.65
0.48
0.22
-0.04
-0.20
-0.22
-0.14
-0.02
0.07
0.08
0.03
-0.04
-0.05
0.04
0.22
0.46
0.70
0.90
1.03
1.08
1.07
0.99
0.81
0.53
0.13
-0.31
-0.73
-1.02
-1.13
-1.07
-0.86
-0.59
-0.29
-0.01
0.21
0.27
0.11
-0.28
-0.82
-1.35
-1.64
-1.56
-1.10
-0.40
0.32
0.85
1.08
1.01
0.77
0.50
0.29
0.20
0.20
0.26
0.33
0.39
0.42
0.38
0.25
0.02
-0.27
-0.53
-0.65
-0.58
-0.34
-0.01
0.31
0.54
0.65
0.63
0.51
0.31
0.07
-0.16
-0.36
-0.46
-0.46
-0.36
-0.22
-0.09
-0.03
-0.08
-0.23
-0.48
-0.76
-1.02
-1.19
-1.27
-1.25
-1.19
-1.09
-0.93
-0.69
-0.35
0.05
0.43
0.70
0.80
0.73
0.56
0.37
0.23
0.17
0.18
0.26
0.38
0.51
0.64
0.72
0.74
0.69
0.56
0.39
0.21
0.05
-0.08
-0.15
-0.22
-0.35
-0.63
-1.14
-1.88
-2.76
-3.65
-4.41
-4.92
-5.10
-4.89
-4.27
-3.27
-2.04
-0.82
0.16
0.74
0.96
1.00
1.11
1.41
1.88
2.36
2.68
2.78
2.75
2.76
2.94
3.32
3.77
4.15
4.30
4.21
3.95
3.68
3.54
3.57
3.71
3.79
3.65
3.22
2.54
1.80
1.19
0.83
0.75
0.94
1.36
2.04
3.01
4.23
5.52
6.62
7.24
7.19
6.38
4.81
2.52
-0.43
-3.94
-7.78
-11.56
-14.78
-16.93
-17.68
-16.89
-14.69
-11.34
-7.22
-2.73
1.74
5.81
9.14
11.47
12.65
12.67
11.68
9.97
7.88
5.79
3.99
2.65
1.79
1.30
1.01
0.80
0.58
0.36
0.15
-0.07
-0.35
-0.73
-1.20
-1.67
-2.01
-2.15
-2.09
-1.98
-1.96
-2.14
-2.45
-2.77
-2.92
-2.85
-2.59
-2.28
-2.06
-1.96
-1.94
-1.85
-1.58
-1.07
-0.37
0.43
1.21
1.91
2.53
3.08
3.57
3.98
4.30
4.54
4.75
5.00
5.34
5.75
6.20
6.66
7.09
7.47
7.72
7.73
7.33
6.46
5.16
3.62
2.08
0.76
-0.23
-0.87
-1.20
-1.27
-1.13
-0.86
-0.60
-0.49
-0.66
-1.10
-1.71
-2.30
-2.69
-2.79
-2.60
-2.24
-1.87
-1.66
-1.69
-2.00
-2.52
-3.16
-3.77
-4.21
-4.41
-4.38
-4.20
-4.01
-3.96
-4.12
-4.47
-4.98
-5.57
-6.22
-6.90
-7.58
-8.22
-8.74
-9.12
-9.39
-9.61
-9.85
-10.11
-10.23
-10.04
-9.38
-8.24
-6.76
-5.17
-3.76
-2.72
-2.11
-1.90
-1.93
-2.01
-1.92
-1.49
-0.64
0.57
1.94
3.22
4.18
4.69
4.77
4.52
4.08
3.61
3.19
2.88
2.71
2.64
2.59
2.44
2.06
1.42
0.57
-0.37
-1.28
-2.13
-3.00
-3.96
-5.07
-6.19
-7.09
-7.50
-7.29
-6.55
-5.58
-4.80
-4.64
-5.46
-7.42
-10.43
-14.09
-17.66
-20.11
-20.38
-17.85
-12.59
-5.51
1.97
8.37
12.79
15.06
15.70
15.48
15.00
14.52
14.02
13.45
12.88
12.55
12.69
13.37
14.35
15.24
15.64
15.38
14.60
13.73
13.22
13.40
14.22
15.24
15.86
15.51
13.98
11.49
8.57
5.84
3.72
2.31
1.38
0.61
-0.32
-1.47
-2.69
-3.71
-4.24
-4.17
-3.56
-2.68
-1.86
-1.34
-1.24
-1.49
-1.93
-2.38
-2.69
-2.80
-2.74
-2.56
-2.34
-2.17
-2.09
-2.15
-2.34
-2.61
-2.92
-3.18
-3.35
-3.43
-3.46
-3.45
-3.46
-3.48
-3.50
-3.52
-3.54
-3.58
-3.65
-3.75
-3.83
-3.82
-3.66
-3.34
-2.89
-2.44
-2.11
-1.97
-2.04
-2.24
-2.41
-2.39
-2.04
-1.31
-0.27
0.90
1.96
2.70
2.97
2.81
2.36
1.91
1.70
1.92
2.55
3.40
4.11
4.27
3.58
1.99
-0.22
-2.53
-4.30
-5.03
-4.50
-2.90
-0.71
1.50
3.23
4.24
4.55
4.43
4.17
4.04
4.16
4.50
4.97
5.42
5.73
5.80
5.57
5.04
4.28
3.43
2.71
2.22
1.93
1.62
1.02
0.00
-1.29
-2.41
-2.80
-2.02
0.09
3.29
6.95
10.12
11.72
10.87
7.29
1.55
-5.02
-10.77
-14.38
-15.35
-14.17
-11.87
-9.49
-7.54
-5.98
-4.48
-2.83
-1.21
-0.16
-0.25
-1.71
-4.34
-7.45
-10.18
-11.83
-12.10
-11.21
-9.69
-8.10
-6.78
-5.68
-4.49
-2.92
-0.94
1.15
2.84
3.68
3.50
2.48
1.10
-0.13
-0.82
-0.88
-0.44
0.20
0.76
1.11
1.28
1.44
1.77
2.32
3.00
3.60
3.91
3.84
3.45
2.94
2.51
2.27
2.25
2.35
2.45
2.44
2.30
2.05
1.76
1.46
1.17
0.90
0.65
0.42
0.24
0.08
-0.09
-0.32
-0.65
-1.01
-1.30
-1.43
-1.37
-1.18
-0.99
-0.92
-0.98
-1.10
-1.18
-1.17
-1.12
-1.17
-1.48
-2.10
-2.98
-3.97
-4.88
-5.57
-5.97
-6.05
-5.83
-5.36
-4.69
-3.90
-3.09
-2.39
-1.85
-1.46
-1.15
-0.83
-0.42
0.06
0.56
1.03
1.41
1.70
1.90
2.00
1.98
1.80
1.46
1.01
0.55
0.20
0.04
0.08
0.23
0.41
0.52
0.52
0.48
0.49
0.64
0.91
1.20
1.34
1.19
0.71
-0.04
-0.86
-1.58
-2.03
-2.17
-2.04
-1.75
-1.46
-1.30
-1.31
-1.47
-1.65
-1.68
-1.41
-0.83
-0.04
0.74
1.27
1.45
1.32
1.02
0.75
0.61
0.60
0.62
0.55
0.34
0.01
-0.33
-0.59
-0.75
-0.83
-0.94
-1.12
-1.35
-1.55
-1.62
-1.51
-1.24
-0.94
-0.73
-0.69
-0.80
-0.93
-0.92
-0.70
-0.29
0.20
0.64
0.97
1.19
1.39
1.59
1.80
1.93
1.94
1.82
1.63
1.48
1.45
1.54
1.71
1.84
1.84
1.68
1.40
1.10
0.84
0.65
0.51
0.35
0.14
-0.11
-0.34
-0.44
-0.41
-0.28
-0.12
-0.03
-0.04
-0.14
-0.30
-0.50
-0.74
-1.04
-1.33
-1.55
-1.56
-1.33
-0.90
-0.43
-0.05
0.15
0.20
0.24
0.38
0.63
0.92
1.12
1.14
0.98
0.74
0.54
0.44
0.43
0.43
0.36
0.18
-0.06
-0.28
-0.40
-0.35
-0.17
0.11
0.38
0.56
0.63
0.64
0.64
0.71
0.83
0.95
0.97
0.84
0.56
0.24
0.01
-0.05
0.04
0.22
0.36
0.40
0.32
0.17
-0.03
-0.25
-0.49
-0.71
-0.85
-0.85
-0.69
-0.41
-0.15
-0.00
-0.00
-0.09
-0.16
-0.14
-0.03
0.13
0.26
0.34
0.40
0.49
0.64
0.82
0.95
0.97
0.81
0.51
0.14
-0.17
-0.33
-0.28
-0.05
0.25
0.52
0.67
0.71
0.69
0.65
0.59
0.48
0.31
0.07
-0.16
-0.29
-0.32
-0.31
-0.36
-0.57
-0.93
-1.33
-1.62
-1.67
-1.48
-1.14
-0.81
-0.59
-0.50
-0.50
-0.50
-0.43
-0.27
-0.02
0.30
0.67
1.06
1.41
1.63
1.64
1.42
1.03
0.62
0.34
0.27
0.38
0.53
0.54
0.32
-0.10
-0.55
-0.84
-0.83
-0.55
-0.17
0.11
0.19
0.09
-0.07
-0.16
-0.16
-0.12
-0.15
-0.29
-0.48
-0.61
-0.57
-0.36
-0.08
0.15
0.22
0.12
-0.09
-0.29
-0.39
-0.35
-0.14
0.19
0.61
1.03
1.37
1.54
1.48
1.20
0.78
0.36
0.09
0.07
0.28
0.63
0.95
1.10
1.02
0.74
0.39
0.10
-0.01
0.09
0.33
0.58
0.69
0.58
0.27
-0.14
-0.49
-0.68
-0.67
-0.53
-0.36
-0.24
-0.19
-0.17
-0.16
-0.16
-0.21
-0.31
-0.44
-0.55
-0.57
-0.47
-0.28
-0.06
0.14
0.27
0.34
0.37
0.40
0.45
0.51
0.53
0.49
0.38
0.24
0.16
0.19
0.36
0.59
0.81
0.92
0.88
0.71
0.47
0.22
-0.02
-0.22
-0.37
-0.46
-0.49
-0.49
-0.48
-0.51
-0.53
-0.49
-0.35
-0.11
0.13
0.22
0.07
-0.34
-0.89
-1.40
-1.71
-1.72
-1.46
-1.04
-0.61
-0.31
-0.18
-0.18
-0.25
-0.30
-0.30
-0.27
-0.24
-0.23
-0.24
-0.19
-0.04
0.19
0.46
0.65
0.71
0.66
0.59
0.56
0.63
0.73
0.81
0.81
0.73
0.63
0.56
0.56
0.60
0.64
0.63
0.54
0.37
0.15
-0.06
-0.17
-0.13
0.05
0.31
0.52
0.57
0.42
0.11
-0.29
-0.70
-1.06
-1.35
-1.51
-1.49
-1.23
-0.75
-0.18
0.29
0.54
0.54
0.40
0.26
0.21
0.24
0.30
0.34
0.34
0.36
0.44
0.58
0.72
0.79
0.76
0.67
0.56
0.48
0.42
0.34
0.18
-0.06
-0.33
-0.52
-0.57
-0.45
-0.21
0.06
0.26
0.37
0.41
0.43
0.43
0.43
0.39
0.34
0.31
0.37
0.51
0.65
0.64
0.35
-0.20
-0.88
-1.44
-1.68
-1.53
-1.09
-0.58
-0.22
-0.11
-0.22
-0.39
-0.47
-0.38
-0.14
0.16
0.39
0.48
0.36
0.09
-0.28
-0.65
-0.91
-0.99
-0.87
-0.59
-0.23
0.12
0.39
0.55
0.65
0.73
0.81
0.88
0.89
0.79
0.57
0.28
-0.00
-0.20
-0.28
-0.27
-0.24
-0.25
-0.30
-0.39
-0.47
-0.54
-0.61
-0.70
-0.81
-0.89
-0.86
-0.66
-0.28
0.19
0.66
0.98
1.06
0.90
0.55
0.17
-0.10
-0.17
-0.02
0.24
0.48
0.57
0.49
0.32
0.14
0.05
0.08
0.15
0.21
0.19
0.07
-0.11
-0.31
-0.48
-0.58
-0.57
-0.42
-0.17
0.16
0.47
0.71
0.81
0.79
0.66
0.49
0.30
0.12
-0.08
-0.28
-0.49
-0.70
-0.88
-1.00
-1.05
-1.04
-0.99
-0.94
-0.86
-0.74
-0.53
-0.26
0.05
0.29
0.39
0.28
0.02
-0.31
-0.55
-0.59
-0.39
-0.03
0.37
0.69
0.86
0.88
0.81
0.71
0.60
0.49
0.33
0.12
-0.09
-0.24
-0.26
-0.14
0.06
0.24
0.32
0.27
0.11
-0.10
-0.28
-0.40
-0.43
-0.41
-0.36
-0.34
-0.37
-0.48
-0.66
-0.87
-1.08
-1.22
-1.28
-1.22
-1.08
-0.88
-0.65
-0.44
-0.23
-0.02
0.19
0.41
0.63
0.82
0.97
1.05
1.05
1.00
0.93
0.87
0.85
0.91
1.04
1.18
1.25
1.20
1.01
0.75
0.51
0.36
0.30
0.29
0.25
0.11
-0.09
-0.31
-0.47
-0.50
-0.41
-0.23
-0.01
0.23
0.46
0.65
0.78
0.78
0.62
0.29
-0.13
-0.54
-0.84
-0.97
-0.94
-0.80
-0.64
-0.50
-0.39
-0.33
-0.29
-0.28
-0.27
-0.21
-0.08
0.13
0.36
0.54
0.63
0.59
0.45
0.25
0.04
-0.13
-0.21
-0.13
0.13
0.52
0.94
1.23
1.27
1.06
0.69
0.31
0.04
-0.12
-0.20
-0.25
-0.28
-0.26
-0.17
-0.03
0.09
0.14
0.10
0.05
0.07
0.21
0.46
0.70
0.81
0.69
0.34
-0.15
-0.65
-1.01
-1.18
-1.16
-1.02
-0.84
-0.67
-0.51
-0.34
-0.15
0.03
0.14
0.17
0.10
0.02
0.02
0.17
0.48
0.86
1.18
1.32
1.24
0.99
0.71
0.55
0.61
0.89
1.32
1.73
1.96
1.93
1.62
1.11
0.56
0.14
-0.03
0.07
0.35
0.67
0.87
0.90
0.78
0.57
0.35
0.14
-0.05
-0.20
-0.29
-0.32
-0.28
-0.23
-0.24
-0.39
-0.67
-1.01
-1.32
-1.48
-1.48
-1.36
-1.17
-0.99
-0.85
-0.73
-0.63
-0.54
-0.46
-0.42
-0.42
-0.42
-0.39
-0.32
-0.20
-0.06
0.05
0.11
0.10
0.05
0.01
0.02
0.11
0.28
0.49
0.64
0.68
0.54
0.30
0.06
-0.05
0.03
0.25
0.49
0.59
0.48
0.21
-0.11
-0.32
-0.41
-0.40
-0.40
-0.46
-0.59
-0.73
-0.84
-0.91
-1.01
-1.16
-1.33
-1.40
-1.27
-0.92
-0.46
-0.06
0.12
0.05
-0.18
-0.43
-0.61
-0.72
-0.80
-0.91
-1.05
-1.16
-1.20
-1.18
-1.15
-1.16
-1.23
-1.30
-1.31
-1.25
-1.15
-1.10
-1.19
-1.42
-1.70
-1.89
-1.86
-1.56
-1.05
-0.43
0.18
0.75
1.30
1.87
2.45
2.94
3.22
3.23
2.99
2.65
2.37
2.23
2.22
2.20
2.03
1.65
1.07
0.41
-0.21
-0.68
-1.01
-1.27
-1.58
-2.03
-2.69
-3.51
-4.43
-5.31
-6.04
-6.54
-6.81
-6.93
-7.00
-7.15
-7.46
-7.94
-8.52
-9.06
-9.42
-9.46
-9.05
-8.08
-6.53
-4.46
-2.00
0.66
3.44
6.36
9.60
13.31
17.51
21.88
25.85
28.68
29.79
28.88
26.12
22.02
17.35
12.95
9.53
7.62
7.45
8.96
11.80
15.43
19.13
22.10
23.59
23.09
20.55
16.44
11.71
7.44
4.46
3.12
3.25
4.31
5.62
6.44
6.16
4.38
1.06
-3.40
-8.19
-12.35
-15.17
-16.46
-16.64
-16.45
-16.55
-17.18
-18.15
-19.09
-19.70
-19.99
-20.15
-20.36
-20.64
-20.78
-20.47
-19.49
-17.84
-15.74
-13.58
-11.66
-10.11
-8.82
-7.51
-5.95
-4.03
-1.89
0.17
1.83
2.87
3.29
3.30
3.16
3.06
3.08
3.19
3.28
3.24
2.98
2.45
1.65
0.64
-0.41
-1.32
-1.91
-2.09
-1.89
-1.40
-0.72
0.10
1.04
2.05
3.06
3.91
4.47
4.64
4.43
3.95
3.33
2.70
2.14
1.68
1.31
0.99
0.70
0.40
0.04
-0.38
-0.85
-1.29
-1.66
-1.90
-2.00
-2.02
-2.04
-2.16
-2.42
-2.78
-3.14
-3.40
-3.46
-3.30
-2.98
-2.58
-2.17
-1.78
-1.35
-0.84
-0.22
0.46
1.11
1.62
1.92
2.01
1.98
1.93
1.92
1.94
1.95
1.89
1.75
1.58
1.46
1.43
1.47
1.48
1.36
1.06
0.62
0.16
-0.19
-0.34
-0.29
-0.12
0.07
0.17
0.15
0.04
-0.10
-0.21
-0.23
-0.15
-0.00
0.17
0.33
0.46
0.55
0.61
0.62
0.59
0.47
0.23
-0.11
-0.48
-0.77
-0.90
-0.83
-0.62
-0.42
-0.36
-0.48
-0.70
-0.89
-0.90
-0.67
-0.29
0.09
0.30
0.23
-0.08
-0.46
-0.75
-0.82
-0.68
-0.43
-0.19
-0.06
-0.02
-0.00
0.05
0.17
0.34
0.51
0.63
0.72
0.77
0.76
0.66
0.45
0.15
-0.15
-0.35
-0.37
-0.27
-0.14
-0.12
-0.27
-0.58
-0.96
-1.28
-1.45
-1.41
-1.17
-0.78
-0.36
-0.02
0.14
0.08
-0.17
-0.48
-0.71
-0.75
-0.58
-0.28
0.01
0.15
0.11
-0.09
-0.33
-0.48
-0.47
-0.32
-0.12
0.03
0.06
-0.07
-0.30
-0.56
-0.79
-0.94
-0.99
-0.92
-0.74
-0.48
-0.19
0.07
0.21
0.18
-0.01
-0.27
-0.46
-0.46
-0.22
0.18
0.58
0.81
0.76
0.47
0.05
-0.30
-0.47
-0.41
-0.21
0.03
0.22
0.34
0.44
0.53
0.59
0.56
0.38
0.07
-0.26
-0.48
-0.47
-0.20
0.25
0.69
0.97
0.98
0.74
0.37
0.01
-0.20
-0.22
-0.06
0.22
0.51
0.70
0.72
0.58
0.35
0.14
0.02
0.05
0.16
0.28
0.33
0.32
0.27
0.25
0.29
0.39
0.53
0.66
0.73
0.67
0.47
0.13
-0.28
-0.64
-0.87
-0.88
-0.72
-0.45
-0.18
0.02
0.08
-0.01
-0.26
-0.65
-1.12
-1.51
-1.69
-1.52
-1.03
-0.33
0.36
0.84
1.03
0.97
0.80
0.70
0.73
0.89
1.08
1.19
1.16
1.02
0.84
0.69
0.58
0.47
0.31
0.08
-0.19
-0.41
-0.49
-0.40
-0.20
0.01
0.14
0.19
0.22
0.32
0.51
0.72
0.81
0.66
0.29
-0.19
-0.59
-0.77
-0.72
-0.55
-0.36
-0.25
-0.22
-0.19
-0.10
0.06
0.27
0.45
0.54
0.53
0.45
0.36
0.35
0.45
0.65
0.87
1.03
1.06
0.97
0.83
0.70
0.61
0.51
0.37
0.16
-0.08
-0.25
-0.29
-0.19
-0.02
0.13
0.20
0.19
0.18
0.23
0.41
0.71
1.09
1.50
1.85
2.08
2.17
2.14
2.04
1.97
2.00
2.20
2.49
2.71
2.63
2.12
1.18
0.04
-0.95
-1.39
-1.11
-0.32
0.40
0.36
-0.87
-3.23
-6.14
-8.72
-10.12
-9.93
-8.45
-6.71
-5.81
-6.47
-8.67
-11.64
-14.15
-15.01
-13.62
-10.46
-7.04
-5.03
-5.55
-8.63
-13.29
-17.87
-20.46
-19.52
-14.43
-5.83
4.50
13.52
17.13
11.17
-6.83
-35.51
-68.35
-95.03
-107.43
-102.18
-81.53
-51.62
-18.93
10.52
33.25
48.55
57.35
60.80
59.89
55.38
48.24
39.85
31.86
25.98
23.23
23.32
24.59
25.00
23.06
18.46
12.17
5.85
1.32
-0.33
0.77
3.31
5.61
6.35
5.10
2.35
-0.80
-3.09
-3.64
-2.29
0.36
3.37
5.92
7.53
8.17
8.11
7.79
7.58
7.69
8.08
8.60
9.02
9.19
8.98
8.33
7.19
5.59
3.59
1.34
-0.88
-2.76
-4.01
-4.55
-4.47
-4.09
-3.72
-3.57
-3.60
-3.62
-3.39
-2.82
-2.02
-1.24
-0.72
-0.55
-0.62
-0.66
-0.33
0.56
2.00
3.75
5.39
6.51
6.87
6.50
5.72
5.09
5.16
6.34
8.75
12.14
15.80
18.59
19.15
16.26
9.45
-0.56
-11.82
-21.73
-27.93
-29.23
-26.02
-19.97
-13.22
-7.46
-3.48
-1.17
-0.02
0.47
0.53
0.25
-0.28
-0.76
-0.82
-0.22
1.06
2.68
4.13
4.89
4.71
3.68
2.19
0.77
-0.16
-0.42
-0.15
0.29
0.52
0.31
-0.37
-1.29
-2.14
-2.63
-2.63
-2.26
-1.79
-1.55
-1.75
-2.35
-3.17
-3.90
-4.33
-4.39
-4.17
-3.86
-3.61
-3.51
-3.52
-3.54
-3.43
-3.08
-2.44
-1.53
-0.47
0.58
1.42
1.96
2.18
2.16
2.01
1.83
1.67
1.57
1.56
1.67
1.92
2.27
2.67
3.02
3.21
3.25
3.17
3.07
3.04
3.13
3.33
3.57
3.77
3.86
3.81
3.60
3.28
2.89
2.54
2.29
2.22
2.34
2.62
2.98
3.31
3.53
3.58
3.53
3.43
3.34
3.26
3.17
3.05
2.87
2.64
2.33
1.91
1.34
0.62
-0.13
-0.76
-1.11
-1.13
-0.93
-0.72
-0.73
-1.07
-1.69
-2.39
-2.95
-3.20
-3.08
-2.65
-2.03
-1.35
-0.70
-0.15
0.29
0.62
0.83
0.93
0.92
0.83
0.70
0.59
0.54
0.58
0.71
0.92
1.16
1.36
1.50
1.56
1.56
1.53
1.48
1.40
1.30
1.14
0.93
0.71
0.52
0.41
0.40
0.47
0.57
0.66
0.71
0.70
0.65
0.56
0.45
0.29
0.11
-0.09
-0.29
-0.49
-0.75
-1.12
-1.65
-2.29
-2.91
-3.28
-3.26
-2.82
-2.11
-1.38
-0.86
-0.62
-0.61
-0.67
-0.64
-0.46
-0.16
0.18
0.49
0.78
1.09
1.47
1.92
2.38
2.73
2.92
2.95
2.91
2.91
3.00
3.14
3.23
3.15
2.85
2.37
1.80
1.24
0.71
0.18
-0.41
-1.06
-1.76
-2.40
-2.93
-3.29
-3.50
-3.58
-3.58
-3.54
-3.48
-3.42
-3.39
-3.40
-3.49
-3.67
-3.91
-4.16
-4.34
-4.37
-4.19
-3.77
-3.16
-2.46
-1.80
-1.27
-0.94
-0.81
-0.83
-0.89
-0.89
-0.70
-0.28
0.36
1.12
1.84
2.35
2.58
2.52
2.25
1.87
1.51
1.25
1.14
1.19
1.32
1.47
1.54
1.52
1.48
1.51
1.71
2.08
2.52
2.92
3.17
3.25
3.22
3.15
3.09
3.05
2.97
2.81
2.62
2.44
2.37
2.43
2.60
2.77
2.83
2.70
2.40
2.02
1.68
1.51
1.56
1.78
2.07
2.33
2.46
2.43
2.22
1.87
1.39
0.80
0.08
-0.75
-1.68
-2.69
-3.76
-4.88
-6.05
-7.24
-8.32
-9.08
-9.25
-8.64
-7.26
-5.36
-3.33
-1.55
-0.26
0.53
1.00
1.33
1.60
1.80
1.89
1.86
1.81
1.85
2.02
2.27
2.44
2.43
2.19
1.82
1.43
1.10
0.83
0.53
0.12
-0.40
-0.93
-1.35
-1.54
-1.47
-1.18
-0.75
-0.25
0.30
0.89
1.47
1.96
2.25
2.25
1.98
1.50
0.98
0.60
0.50
0.73
1.24
1.87
2.43
2.76
2.75
2.43
1.92
1.42
1.13
1.17
1.60
2.34
3.27
4.20
4.96
5.38
5.41
5.06
4.43
3.65
2.83
2.09
1.50
1.11
0.91
0.83
0.75
0.59
0.40
0.38
0.83
1.98
3.80
5.97
7.96
9.26
9.65
9.28
8.57
7.99
7.91
8.48
9.68
11.26
12.84
13.88
13.90
12.63
10.19
7.04
3.87
1.22
-0.64
-1.83
-2.64
-3.37
-4.16
-5.00
-5.85
-6.68
-7.51
-8.32
-9.03
-9.54
-9.77
-9.73
-9.46
-9.00
-8.39
-7.71
-7.08
-6.67
-6.64
-7.04
-7.79
-8.74
-9.73
-10.64
-11.45
-12.13
-12.64
-12.91
-12.89
-12.59
-12.16
-11.76
-11.56
-11.62
-11.84
-12.05
-12.10
-11.91
-11.54
-11.11
-10.75
-10.47
-10.18
-9.71
-8.94
-7.91
-6.76
-5.75
-5.04
-4.71
-4.65
-4.69
-4.69
-4.56
-4.32
-4.00
-3.58
-3.01
-2.23
-1.26
-0.19
0.78
1.52
2.00
2.34
2.75
3.40
4.33
5.46
6.58
7.51
8.14
8.47
8.58
8.54
8.40
8.22
8.05
7.89
7.75
7.56
7.23
6.69
5.97
5.19
4.51
4.10
3.98
4.10
4.29
4.40
4.33
4.06
3.64
3.14
2.63
2.18
1.84
1.62
1.50
1.42
1.32
1.19
1.07
0.98
0.98
1.05
1.17
1.28
1.36
1.41
1.42
1.38
1.29
1.13
0.93
0.74
0.62
0.60
0.63
0.66
0.59
0.42
0.17
-0.06
-0.19
-0.17
-0.03
0.17
0.33
0.39
0.32
0.14
-0.12
-0.45
-0.82
-1.20
-1.56
-1.82
-1.96
-1.93
-1.77
-1.54
-1.27
-1.03
-0.81
-0.60
-0.36
-0.03
0.35
0.73
1.00
1.07
0.95
0.70
0.44
0.26
0.21
0.24
0.28
0.27
0.20
0.09
-0.02
-0.13
-0.25
-0.41
-0.58
-0.73
-0.81
-0.80
-0.73
-0.62
-0.53
-0.52
-0.59
-0.73
-0.91
-1.13
-1.35
-1.55
-1.70
-1.78
-1.81
-1.79
-1.77
-1.76
-1.77
-1.78
-1.75
-1.66
-1.50
-1.31
-1.09
-0.87
-0.66
-0.44
-0.21
0.05
0.34
0.65
0.94
1.17
1.31
1.36
1.31
1.21
1.09
0.98
0.92
0.91
0.91
0.88
0.79
0.60
0.34
0.07
-0.12
-0.16
-0.00
0.29
0.60
0.79
0.75
0.47
0.05
-0.37
-0.65
-0.74
-0.68
-0.57
-0.50
-0.51
-0.54
-0.60
-0.68
-0.85
-1.18
-1.65
-2.14
-2.48
-2.50
-2.14
-1.48
-0.67
0.11
0.71
1.10
1.26
1.26
1.14
0.99
0.87
0.83
0.86
0.94
0.99
0.99
0.95
0.93
1.00
1.16
1.32
1.36
1.21
0.89
0.51
0.21
0.09
0.14
0.29
0.41
0.43
0.35
0.23
0.13
0.08
0.05
-0.05
-0.28
-0.66
-1.11
-1.55
-1.87
-2.05
-2.12
-2.15
-2.16
-2.09
-1.86
-1.41
-0.78
-0.17
0.20
0.12
-0.44
-1.30
-2.15
-2.64
-2.53
-1.79
-0.58
0.77
1.93
2.66
2.88
2.68
2.23
1.74
1.34
1.10
0.99
0.99
1.06
1.21
1.43
1.67
1.88
1.96
1.82
1.42
0.84
0.20
-0.30
-0.57
-0.57
-0.44
-0.32
-0.33
-0.48
-0.69
-0.84
-0.86
-0.76
-0.61
-0.50
-0.48
-0.56
-0.73
-0.96
-1.23
-1.46
-1.57
-1.46
-1.11
-0.61
-0.13
0.17
0.21
0.06
-0.14
-0.22
-0.09
0.21
0.57
0.91
1.17
1.39
1.59
1.80
1.95
1.99
1.88
1.67
1.47
1.36
1.35
1.39
1.37
1.24
1.02
0.78
0.62
0.55
0.52
0.46
0.31
0.06
-0.21
-0.43
-0.50
-0.38
-0.10
0.28
0.64
0.86
0.88
0.65
0.24
-0.25
-0.74
-1.15
-1.47
-1.70
-1.86
-1.95
-1.93
-1.81
-1.60
-1.33
-1.03
-0.70
-0.31
0.15
0.68
1.23
1.73
2.09
2.26
2.22
2.04
1.80
1.63
1.65
1.89
2.32
2.77
3.06
3.08
2.82
2.41
2.07
1.98
2.18
2.53
2.77
2.66
2.04
0.92
-0.56
-2.17
-3.64
-4.69
-5.07
-4.60
-3.24
-1.09
1.52
4.16
6.33
7.70
8.13
7.71
6.71
5.45
4.19
3.10
2.23
1.55
0.95
0.32
-0.45
-1.43
-2.61
-3.89
-5.10
-6.05
-6.60
-6.72
-6.45
-5.90
-5.13
-4.20
-3.13
-1.92
-0.61
0.69
1.87
2.83
3.48
3.81
3.89
3.83
3.79
3.88
4.16
4.56
4.94
5.09
4.82
4.09
3.00
1.79
0.77
0.21
0.23
0.76
1.59
2.45
3.12
3.51
3.63
3.55
3.37
3.17
2.98
2.79
2.56
2.23
1.70
0.92
-0.19
-1.66
-3.51
-5.74
-8.24
-10.75
-12.89
-14.20
-14.32
-13.18
-11.03
-8.33
-5.61
-3.27
-1.51
-0.35
0.30
0.50
0.37
-0.01
-0.48
-0.89
-1.09
-1.04
-0.75
-0.34
0.03
0.22
0.14
-0.23
-0.80
-1.39
-1.82
-1.95
-1.76
-1.32
-0.80
-0.35
-0.07
0.02
-0.06
-0.20
-0.32
-0.35
-0.24
0.02
0.37
0.72
1.02
1.21
1.32
1.39
1.42
1.43
1.38
1.24
1.02
0.74
0.49
0.36
0.41
0.66
1.03
1.42
1.70
1.80
1.75
1.62
1.49
1.37
1.20
0.94
0.59
0.23
-0.03
-0.11
-0.06
0.01
-0.01
-0.17
-0.41
-0.60
-0.69
-0.73
-0.83
-1.11
-1.56
-2.04
-2.39
-2.46
-2.25
-1.85
-1.39
-0.95
-0.58
-0.28
-0.06
0.07
0.06
-0.07
-0.26
-0.39
-0.38
-0.21
0.05
0.29
0.41
0.35
0.18
-0.01
-0.09
0.02
0.30
0.64
0.96
1.18
1.32
1.44
1.63
1.87
2.13
2.30
2.33
2.21
1.97
1.67
1.35
1.05
0.80
0.64
0.59
0.64
0.71
0.71
0.57
0.26
-0.16
-0.61
-0.99
-1.24
-1.35
-1.31
-1.15
-0.90
-0.57
-0.16
0.31
0.79
1.22
1.50
1.60
1.55
1.44
1.39
1.45
1.62
1.82
1.94
1.90
1.70
1.37
1.00
0.63
0.31
0.07
-0.10
-0.16
-0.13
-0.01
0.13
0.26
0.32
0.31
0.24
0.16
0.11
0.09
0.07
0.02
-0.12
-0.36
-0.68
-1.03
-1.34
-1.60
-1.80
-1.95
-2.04
-2.08
-2.06
-2.00
-1.88
-1.73
-1.55
-1.33
-1.10
-0.88
-0.72
-0.64
-0.64
-0.64
-0.57
-0.37
-0.06
0.25
0.43
0.41
0.20
-0.08
-0.26
-0.24
-0.05
0.17
0.27
0.13
-0.21
-0.65
-1.01
-1.21
-1.21
-1.08
-0.90
-0.72
-0.57
-0.48
-0.46
-0.53
-0.69
-0.93
-1.22
-1.55
-1.87
-2.18
-2.41
-2.56
-2.58
-2.49
-2.29
-1.99
-1.64
-1.27
-0.97
-0.78
-0.71
-0.68
-0.55
-0.17
0.55
1.54
2.65
3.66
4.42
4.84
4.97
4.85
4.57
4.16
3.64
3.05
2.42
1.83
1.31
0.94
0.73
0.69
0.80
1.01
1.27
1.52
1.70
1.77
1.71
1.53
1.25
0.93
0.61
0.35
0.12
-0.09
-0.32
-0.57
-0.78
-0.88
-0.80
-0.58
-0.34
-0.25
-0.42
-0.85
-1.43
-1.98
-2.38
-2.58
-2.62
-2.59
-2.52
-2.40
-2.20
-1.89
-1.48
-1.05
-0.66
-0.37
-0.17
-0.01
0.13
0.27
0.37
0.40
0.35
0.25
0.14
0.07
0.06
0.10
0.18
0.25
0.32
0.36
0.38
0.38
0.36
0.34
0.35
0.41
0.50
0.58
0.57
0.44
0.21
-0.03
-0.17
-0.14
0.03
0.25
0.40
0.37
0.13
-0.28
-0.79
-1.29
-1.73
-2.06
-2.25
-2.30
-2.21
-2.03
-1.80
-1.53
-1.25
-0.93
-0.60
-0.29
-0.05
0.06
0.03
-0.11
-0.29
-0.44
-0.50
-0.43
-0.22
0.08
0.41
0.66
0.72
0.56
0.22
-0.19
-0.52
-0.69
-0.69
-0.60
-0.50
-0.45
-0.43
-0.42
-0.38
-0.32
-0.27
-0.26
-0.30
-0.33
-0.31
-0.19
-0.01
0.15
0.22
0.13
-0.09
-0.33
-0.50
-0.52
-0.40
-0.22
-0.10
-0.09
-0.20
-0.34
-0.41
-0.34
-0.10
0.26
0.66
1.02
1.29
1.41
1.34
1.08
0.67
0.19
-0.21
-0.42
-0.37
-0.11
0.29
0.69
1.03
1.27
1.46
1.63
1.76
1.84
1.82
1.68
1.43
1.11
0.75
0.40
0.09
-0.13
-0.20
-0.11
0.14
0.48
0.81
1.00
0.98
0.76
0.40
-0.01
-0.37
-0.65
-0.82
-0.88
-0.82
-0.68
-0.52
-0.41
-0.43
-0.62
-0.95
-1.33
-1.67
-1.88
-1.95
-1.93
-1.86
-1.77
-1.66
-1.51
-1.29
-1.05
-0.81
-0.65
-0.56
-0.51
-0.45
-0.31
-0.07
0.21
0.49
0.70
0.84
0.92
0.97
0.98
0.91
0.70
0.35
-0.08
-0.43
-0.58
-0.45
-0.13
0.21
0.38
0.27
-0.08
-0.53
-0.88
-1.00
-0.86
-0.57
-0.28
-0.12
-0.16
-0.39
-0.70
-0.97
-1.12
-1.13
-1.08
-1.05
-1.12
-1.27
-1.41
-1.48
-1.41
-1.25
-1.07
-0.89
-0.69
-0.39
0.06
0.64
1.23
1.68
1.87
1.78
1.50
1.13
0.76
0.47
0.29
0.25
0.35
0.53
0.70
0.73
0.58
0.26
-0.12
-0.41
-0.54
-0.48
-0.27
0.04
0.43
0.84
1.18
1.31
1.13
0.66
0.02
-0.56
-0.88
-0.89
-0.67
-0.43
-0.35
-0.52
-0.87
-1.28
-1.60
-1.73
-1.66
-1.41
-1.05
-0.64
-0.19
0.26
0.65
0.94
1.10
1.13
1.06
0.93
0.78
0.62
0.46
0.32
0.23
0.19
0.18
0.17
0.08
-0.10
-0.31
-0.47
-0.47
-0.28
0.08
0.49
0.83
0.99
0.96
0.81
0.62
0.50
0.50
0.59
0.67
0.66
0.51
0.22
-0.10
-0.36
-0.53
-0.60
-0.67
-0.79
-0.99
-1.26
-1.50
-1.65
-1.67
-1.54
-1.25
-0.84
-0.36
0.12
0.50
0.68
0.63
0.40
0.11
-0.08
-0.07
0.12
0.41
0.65
0.78
0.81
0.82
0.90
1.02
1.08
0.94
0.53
-0.08
-0.67
-1.01
-0.94
-0.47
0.21
0.87
1.28
1.36
1.16
0.83
0.50
0.26
0.14
0.11
0.11
0.10
0.08
0.06
0.04
-0.02
-0.12
-0.28
-0.49
-0.68
-0.79
-0.80
-0.69
-0.56
-0.53
-0.67
-1.02
-1.47
-1.86
-1.99
-1.77
-1.20
-0.40
0.41
1.05
1.39
1.41
1.19
0.87
0.59
0.48
0.59
0.88
1.21
1.42
1.42
1.17
0.79
0.39
0.12
0.03
0.14
0.38
0.70
1.04
1.36
1.61
1.74
1.69
1.42
0.96
0.41
-0.10
-0.42
-0.50
-0.37
-0.14
0.05
0.09
-0.03
-0.27
-0.50
-0.65
-0.71
-0.71
-0.71
-0.75
-0.83
-0.91
-0.96
-0.98
-0.96
-0.96
-0.99
-1.06
-1.08
-1.01
-0.79
-0.41
0.06
0.49
0.78
0.86
0.76
0.54
0.33
0.23
0.28
0.44
0.66
0.85
0.96
0.99
0.96
0.93
0.92
0.96
1.03
1.11
1.14
1.08
0.89
0.56
0.12
-0.31
-0.63
-0.75
-0.63
-0.34
0.05
0.44
0.76
0.95
0.97
0.81
0.49
0.08
-0.27
-0.45
-0.43
-0.28
-0.16
-0.17
-0.37
-0.68
-0.98
-1.17
-1.22
-1.15
-1.01
-0.79
-0.49
-0.08
0.38
0.80
1.08
1.14
1.06
0.94
0.90
1.02
1.24
1.49
1.64
1.67
1.60
1.47
1.33
1.16
0.97
0.73
0.49
0.33
0.33
0.52
0.80
1.04
1.06
0.80
0.33
-0.20
-0.56
-0.62
-0.39
-0.02
0.27
0.34
0.19
-0.09
-0.34
-0.51
-0.63
-0.77
-1.01
-1.32
-1.62
-1.81
-1.84
-1.72
-1.54
-1.35
-1.20
-1.06
-0.90
-0.64
-0.26
0.21
0.72
1.16
1.42
1.45
1.22
0.79
0.29
-0.16
-0.43
-0.46
-0.27
0.10
0.52
0.87
1.04
1.00
0.80
0.55
0.33
0.21
0.14
0.09
0.01
-0.08
-0.16
-0.19
-0.18
-0.15
-0.15
-0.20
-0.27
-0.34
-0.40
-0.45
-0.52
-0.63
-0.80
-1.01
-1.24
-1.46
-1.66
-1.81
-1.88
-1.86
-1.72
-1.47
-1.12
-0.71
-0.29
0.06
0.29
0.35
0.25
0.04
-0.16
-0.28
-0.27
-0.15
0.01
0.17
0.31
0.43
0.52
0.54
0.45
0.24
-0.07
-0.39
-0.62
-0.69
-0.59
-0.36
-0.09
0.18
0.39
0.52
0.57
0.52
0.41
0.27
0.17
0.16
0.24
0.37
0.47
0.47
0.33
0.08
-0.21
-0.46
-0.60
-0.60
-0.47
-0.23
0.09
0.42
0.73
0.97
1.13
1.19
1.16
1.08
0.96
0.82
0.67
0.53
0.41
0.33
0.32
0.41
0.59
0.84
1.09
1.26
1.27
1.12
0.86
0.56
0.29
0.05
-0.18
-0.40
-0.56
-0.63
-0.58
-0.43
-0.28
-0.21
-0.25
-0.37
-0.50
-0.57
-0.58
-0.55
-0.54
-0.58
-0.68
-0.85
-1.09
-1.40
-1.74
-2.02
-2.18
-2.16
-2.01
-1.79
-1.58
-1.41
-1.26
-1.06
-0.79
-0.46
-0.12
0.17
0.37
0.50
0.60
0.69
0.77
0.81
0.78
0.70
0.61
0.59
0.70
0.95
1.27
1.53
1.62
1.48
1.12
0.63
0.14
-0.21
-0.31
-0.12
0.28
0.75
1.07
1.10
0.80
0.27
-0.28
-0.65
-0.76
-0.67
-0.53
-0.50
-0.63
-0.89
-1.14
-1.28
-1.27
-1.15
-0.99
-0.86
-0.76
-0.71
-0.67
-0.65
-0.70
-0.83
-1.06
-1.31
-1.48
-1.47
-1.23
-0.79
-0.28
0.19
0.52
0.71
0.77
0.77
0.73
0.69
0.65
0.65
0.67
0.70
0.69
0.63
0.54
0.49
0.53
0.70
0.94
1.16
1.30
1.31
1.24
1.12
0.92
0.58
0.05
-0.62
-1.26
-1.65
-1.66
-1.29
-0.70
-0.11
0.30
0.49
0.51
0.40
0.22
-0.04
-0.38
-0.73
-1.00
-1.08
-0.95
-0.69
-0.46
-0.41
-0.58
-0.90
-1.23
-1.43
-1.44
-1.25
-0.96
-0.65
-0.37
-0.12
0.11
0.33
0.51
0.64
0.72
0.81
0.93
1.11
1.29
1.38
1.35
1.19
1.00
0.86
0.82
0.88
0.97
1.03
1.05
1.06
1.13
1.28
1.46
1.60
1.63
1.50
1.23
0.90
0.61
0.44
0.41
0.46
0.48
0.39
0.15
-0.18
-0.49
-0.67
-0.69
-0.58
-0.44
-0.35
-0.36
-0.46
-0.62
-0.79
-0.98
-1.20
-1.46
-1.76
-2.06
-2.31
-2.42
-2.35
-2.10
-1.73
-1.31
-0.92
-0.60
-0.34
-0.15
-0.01
0.06
0.05
-0.04
-0.17
-0.27
-0.26
-0.09
0.19
0.52
0.78
0.93
0.96
0.94
0.97
1.12
1.43
1.83
2.20
2.39
2.28
1.88
1.29
0.70
0.30
0.19
0.34
0.62
0.86
0.94
0.80
0.49
0.11
-0.22
-0.42
-0.46
-0.35
-0.20
-0.12
-0.19
-0.44
-0.78
-1.09
-1.26
-1.25
-1.12
-1.00
-0.97
-1.09
-1.29
-1.49
-1.62
-1.65
-1.55
-1.33
-0.97
-0.52
-0.05
0.34
0.54
0.48
0.20
-0.15
-0.41
-0.46
-0.24
0.17
0.64
1.00
1.14
1.03
0.74
0.41
0.17
0.06
0.09
0.17
0.27
0.36
0.47
0.63
0.81
0.95
0.97
0.89
0.74
0.63
0.60
0.63
0.61
0.47
0.21
-0.12
-0.38
-0.50
-0.49
-0.39
-0.31
-0.31
-0.41
-0.61
-0.91
-1.28
-1.69
-2.05
-2.25
-2.21
-1.93
-1.50
-1.07
-0.78
-0.71
-0.82
-1.01
-1.13
-1.11
-0.91
-0.62
-0.30
-0.04
0.12
0.18
0.21
0.26
0.40
0.62
0.90
1.15
1.30
1.30
1.14
0.91
0.67
0.50
0.41
0.39
0.42
0.51
0.69
0.94
1.25
1.52
1.68
1.68
1.52
1.28
1.04
0.86
0.79
0.80
0.84
0.83
0.68
0.39
-0.02
-0.42
-0.73
-0.86
-0.81
-0.64
-0.47
-0.39
-0.48
-0.74
-1.12
-1.53
-1.87
-2.05
-2.02
-1.80
-1.43
-1.00
-0.58
-0.25
-0.02
0.11
0.17
0.20
0.22
0.26
0.31
0.37
0.43
0.50
0.60
0.73
0.85
0.94
0.97
0.91
0.79
0.64
0.48
0.36
0.30
0.33
0.42
0.53
0.58
0.52
0.34
0.11
-0.07
-0.13
-0.08
0.04
0.13
0.12
0.01
-0.15
-0.31
-0.43
-0.51
-0.57
-0.65
-0.75
-0.86
-0.97
-1.09
-1.22
-1.34
-1.44
-1.48
-1.45
-1.34
-1.17
-0.98
-0.81
-0.70
-0.64
-0.59
-0.49
-0.29
0.02
0.41
0.84
1.26
1.60
1.80
1.83
1.66
1.32
0.91
0.52
0.28
0.20
0.25
0.31
0.27
0.10
-0.15
-0.35
-0.37
-0.19
0.14
0.47
0.68
0.70
0.53
0.24
-0.09
-0.39
-0.63
-0.79
-0.86
-0.84
-0.75
-0.63
-0.52
-0.48
-0.51
-0.63
-0.86
-1.16
-1.51
-1.83
-2.02
-2.01
-1.81
-1.50
-1.19
-0.96
-0.83
-0.72
-0.56
-0.28
0.11
0.50
0.79
0.94
0.94
0.91
0.92
1.02
1.18
1.33
1.38
1.35
1.28
1.26
1.30
1.39
1.46
1.44
1.30
1.10
0.92
0.81
0.80
0.85
0.93
1.01
1.05
1.08
1.07
1.03
0.93
0.80
0.63
0.48
0.37
0.32
0.34
0.37
0.38
0.31
0.17
-0.03
-0.22
-0.36
-0.45
-0.50
-0.56
-0.65
-0.75
-0.85
-0.91
-0.93
-0.95
-1.04
-1.23
-1.51
-1.80
-2.00
-2.03
-1.88
-1.62
-1.36
-1.20
-1.21
-1.36
-1.55
-1.67
-1.61
-1.36
-0.95
-0.49
-0.05
0.29
0.53
0.69
0.80
0.86
0.88
0.84
0.72
0.54
0.33
0.18
0.15
0.29
0.59
0.97
1.29
1.41
1.29
0.94
0.49
0.07
-0.20
-0.26
-0.15
0.07
0.31
0.49
0.59
0.59
0.53
0.48
0.47
0.54
0.66
0.77
0.80
0.74
0.63
0.53
0.48
0.45
0.40
0.27
0.07
-0.14
-0.28
-0.33
-0.33
-0.34
-0.40
-0.51
-0.61
-0.67
-0.73
-0.87
-1.18
-1.66
-2.20
-2.64
-2.79
-2.59
-2.06
-1.34
-0.61
-0.00
0.41
0.61
0.66
0.62
0.54
0.42
0.24
-0.01
-0.29
-0.49
-0.49
-0.26
0.17
0.67
1.10
1.36
1.44
1.41
1.32
1.23
1.12
0.99
0.84
0.72
0.69
0.73
0.80
0.84
0.81
0.71
0.59
0.49
0.42
0.41
0.42
0.43
0.40
0.30
0.12
-0.13
-0.42
-0.70
-0.93
-1.10
-1.21
-1.28
-1.31
-1.28
-1.19
-1.06
-0.97
-0.98
-1.13
-1.38
-1.61
-1.70
-1.53
-1.12
-0.53
0.10
0.62
0.95
1.06
1.03
0.91
0.80
0.72
0.69
0.67
0.66
0.66
0.70
0.82
1.03
1.30
1.55
1.68
1.62
1.36
0.97
0.59
0.32
0.21
0.23
0.29
0.28
0.15
-0.10
-0.40
-0.63
-0.72
-0.67
-0.53
-0.43
-0.45
-0.64
-0.93
-1.21
-1.35
-1.31
-1.15
-0.99
-0.92
-0.98
-1.13
-1.31
-1.45
-1.55
-1.61
-1.61
-1.49
-1.20
-0.73
-0.13
0.45
0.88
1.12
1.17
1.11
0.99
0.86
0.70
0.50
0.26
0.00
-0.20
-0.28
-0.19
0.10
0.57
1.15
1.72
2.14
2.29
2.16
1.81
1.35
0.91
0.55
0.28
0.08
-0.06
-0.17
-0.22
-0.24
-0.23
-0.22
-0.23
-0.26
-0.31
-0.36
-0.41
-0.47
-0.55
-0.68
-0.86
-1.09
-1.35
-1.59
-1.77
-1.86
-1.84
-1.73
-1.55
-1.33
-1.09
-0.82
-0.54
-0.25
0.01
0.22
0.34
0.40
0.46
0.60
0.85
1.18
1.50
1.67
1.61
1.35
1.00
0.70
0.57
0.62
0.77
0.93
1.01
1.01
0.95
0.87
0.77
0.66
0.57
0.57
0.70
0.94
1.16
1.24
1.08
0.69
0.21
-0.20
-0.40
-0.36
-0.17
0.03
0.13
0.11
-0.00
-0.13
-0.21
-0.22
-0.17
-0.09
-0.01
0.04
0.03
-0.08
-0.28
-0.57
-0.91
-1.25
-1.54
-1.74
-1.82
-1.79
-1.72
-1.67
-1.68
-1.75
-1.84
-1.87
-1.78
-1.55
-1.21
-0.80
-0.40
-0.03
0.27
0.49
0.60
0.60
0.48
0.29
0.08
-0.06
-0.08
0.06
0.31
0.64
0.95
1.18
1.30
1.30
1.19
1.02
0.84
0.70
0.62
0.59
0.58
0.57
0.55
0.55
0.59
0.68
0.78
0.87
0.90
0.91
0.95
1.09
1.35
1.66
1.87
1.85
1.54
1.03
0.48
0.08
-0.07
0.01
0.20
0.37
0.45
0.45
0.45
0.47
0.50
0.47
0.31
0.07
-0.18
-0.33
-0.33
-0.22
-0.08
-0.01
-0.08
-0.24
-0.44
-0.60
-0.67
-0.68
-0.63
-0.55
-0.47
-0.38
-0.30
-0.27
-0.33
-0.50
-0.79
-1.19
-1.62
-2.03
-2.38
-2.63
-2.75
-2.74
-2.57
-2.22
-1.72
-1.12
-0.51
0.06
0.52
0.84
1.05
1.15
1.15
1.05
0.89
0.71
0.60
0.61
0.75
0.97
1.17
1.29
1.32
1.31
1.32
1.37
1.43
1.41
1.30
1.12
0.95
0.89
1.00
1.24
1.51
1.65
1.53
1.12
0.52
-0.09
-0.51
-0.61
-0.38
0.05
0.49
0.78
0.85
0.71
0.43
0.09
-0.30
-0.70
-1.07
-1.32
-1.36
-1.15
-0.75
-0.32
-0.02
0.05
-0.10
-0.33
-0.51
-0.57
-0.51
-0.40
-0.34
-0.35
-0.43
-0.50
-0.52
-0.48
-0.44
-0.45
-0.54
-0.71
-0.93
-1.14
-1.36
-1.58
-1.84
-2.15
-2.49
-2.83
-3.12
-3.38
-3.60
-3.81
-3.97
-4.02
-3.87
-3.46
-2.84
-2.11
-1.40
-0.82
-0.39
-0.08
0.17
0.40
0.60
0.77
0.92
1.12
1.41
1.82
2.26
2.60
2.75
2.67
2.45
2.18
1.95
1.76
1.59
1.40
1.21
1.06
1.00
1.02
1.06
1.09
1.08
1.09
1.19
1.38
1.62
1.80
1.83
1.64
1.23
0.67
0.06
-0.51
-0.96
-1.24
-1.35
-1.35
-1.29
-1.24
-1.26
-1.34
-1.43
-1.48
-1.44
-1.33
-1.19
-1.04
-0.90
-0.72
-0.42
0.07
0.72
1.43
2.00
2.25
2.13
1.68
1.13
0.69
0.49
0.55
0.75
0.95
1.06
1.10
1.13
1.19
1.29
1.36
1.34
1.22
1.02
0.82
0.65
0.49
0.30
0.03
-0.28
-0.51
-0.58
-0.43
-0.12
0.20
0.37
0.30
-0.01
-0.49
-0.99
-1.41
-1.69
-1.82
-1.84
-1.81
-1.77
-1.77
-1.83
-1.91
-1.93
-1.78
-1.40
-0.83
-0.18
0.38
0.72
0.78
0.64
0.42
0.26
0.24
0.36
0.59
0.88
1.20
1.53
1.83
2.01
1.99
1.72
1.25
0.72
0.32
0.17
0.26
0.49
0.67
0.67
0.48
0.21
0.02
0.04
0.24
0.53
0.74
0.75
0.58
0.29
0.01
-0.19
-0.32
-0.41
-0.54
-0.72
-0.95
-1.18
-1.36
-1.45
-1.46
-1.40
-1.29
-1.14
-0.99
-0.87
-0.79
-0.74
-0.64
-0.45
-0.13
0.31
0.78
1.20
1.49
1.61
1.58
1.44
1.27
1.08
0.91
0.73
0.54
0.37
0.25
0.23
0.34
0.56
0.78
0.90
0.84
0.61
0.30
0.03
-0.10
-0.10
-0.03
0.00
-0.09
-0.30
-0.58
-0.83
-1.00
-1.06
-1.04
-0.98
-0.95
-0.95
-0.98
-1.02
-1.04
-1.01
-0.93
-0.82
-0.72
-0.63
-0.54
-0.42
-0.22
0.05
0.37
0.69
0.99
1.26
1.51
1.73
1.88
1.89
1.72
1.35
0.86
0.32
-0.13
-0.41
-0.44
-0.22
0.18
0.64
1.02
1.18
1.08
0.78
0.46
0.23
0.18
0.26
0.35
0.34
0.22
0.04
-0.11
-0.20
-0.27
-0.39
-0.61
-0.91
-1.21
-1.43
-1.57
-1.70
-1.90
-2.22
-2.56
-2.78
-2.68
-2.18
-1.36
-0.43
0.34
0.76
0.82
0.64
0.46
0.46
0.68
1.04
1.35
1.50
1.46
1.35
1.30
1.37
1.52
1.63
1.57
1.36
1.06
0.83
0.78
0.91
1.13
1.32
1.38
1.31
1.15
0.95
0.75
0.56
0.38
0.20
0.05
-0.07
-0.18
-0.31
-0.50
-0.76
-1.06
-1.34
-1.54
-1.64
-1.68
-1.74
-1.85
-2.02
-2.17
-2.20
-2.04
-1.70
-1.28
-0.89
-0.62
-0.50
-0.44
-0.35
-0.14
0.16
0.47
0.72
0.85
0.89
0.91
0.98
1.11
1.26
1.35
1.34
1.25
1.14
1.08
1.11
1.16
1.17
1.07
0.87
0.64
0.50
0.49
0.62
0.79
0.89
0.84
0.65
0.37
0.06
-0.25
-0.55
-0.85
-1.11
-1.24
-1.17
-0.90
-0.54
-0.24
-0.15
-0.33
-0.69
-1.10
-1.43
-1.63
-1.71
-1.75
-1.75
-1.70
-1.55
-1.27
-0.89
-0.49
-0.14
0.09
0.21
0.29
0.34
0.41
0.47
0.53
0.58
0.65
0.75
0.89
1.04
1.16
1.22
1.23
1.17
1.06
0.90
0.72
0.54
0.39
0.31
0.31
0.35
0.39
0.36
0.23
0.03
-0.19
-0.36
-0.44
-0.42
-0.33
-0.19
-0.03
0.15
0.30
0.37
0.31
0.10
-0.20
-0.51
-0.75
-0.92
-1.06
-1.26
-1.55
-1.91
-2.22
-2.34
-2.18
-1.76
-1.17
-0.55
-0.04
0.33
0.55
0.69
0.78
0.85
0.91
0.95
0.98
1.00
1.07
1.19
1.34
1.48
1.53
1.42
1.15
0.76
0.36
0.06
-0.08
-0.06
0.04
0.15
0.18
0.14
0.07
0.02
0.03
0.08
0.12
0.13
0.11
0.08
0.07
0.07
0.04
-0.03
-0.16
-0.31
-0.46
-0.59
-0.73
-0.94
-1.22
-1.54
-1.80
-1.89
-1.73
-1.30
-0.70
-0.07
0.44
0.73
0.80
0.72
0.59
0.50
0.48
0.56
0.68
0.82
0.92
0.93
0.85
0.69
0.47
0.29
0.21
0.28
0.47
0.75
1.03
1.24
1.32
1.23
0.96
0.51
-0.04
-0.60
-1.05
-1.29
-1.27
-0.99
-0.55
-0.09
0.27
0.41
0.31
0.01
-0.41
-0.87
-1.30
-1.69
-2.02
-2.29
-2.47
-2.52
-2.39
-2.05
-1.53
-0.92
-0.33
0.12
0.37
0.44
0.41
0.40
0.50
0.74
1.04
1.31
1.47
1.50
1.45
1.38
1.35
1.39
1.49
1.62
1.74
1.81
1.76
1.56
1.19
0.72
0.24
-0.11
-0.28
-0.23
-0.02
0.27
0.54
0.71
0.71
0.52
0.20
-0.20
-0.56
-0.79
-0.87
-0.82
-0.70
-0.62
-0.65
-0.81
-1.10
-1.44
-1.79
-2.10
-2.34
-2.46
-2.42
-2.17
-1.73
-1.16
-0.56
-0.03
0.32
0.47
0.44
0.33
0.21
0.18
0.28
0.49
0.78
1.08
1.29
1.35
1.25
1.06
0.88
0.81
0.88
1.02
1.14
1.16
1.07
0.94
0.87
0.92
1.07
1.22
1.25
1.10
0.82
0.51
0.28
0.18
0.17
0.21
0.23
0.21
0.20
0.21
0.21
0.16
0.02
-0.19
-0.41
-0.58
-0.69
-0.79
-0.95
-1.21
-1.53
-1.77
-1.82
-1.61
-1.20
-0.69
-0.18
0.25
0.60
0.92
1.25
1.62
2.02
2.42
2.81
3.16
3.44
3.67
3.87
4.06
4.26
4.44
4.54
4.51
4.29
3.90
3.40
2.94
2.64
2.64
2.92
3.37
3.71
3.61
2.81
1.20
-1.13
-3.88
-6.67
-9.15
-11.11
-12.51
-13.45
-14.12
-14.74
-15.50
-16.48
-17.71
-19.06
-20.36
-21.40
-22.02
-22.18
-21.96
-21.50
-20.96
-20.43
-19.92
-19.34
-18.57
-17.53
-16.16
-14.51
-12.67
-10.81
-9.10
-7.65
-6.54
-5.77
-5.23
-4.82
-4.38
-3.80
-3.00
-1.93
-0.61
0.89
2.46
3.96
5.27
6.30
7.06
7.66
8.26
9.10
10.34
12.02
14.07
16.25
18.27
19.86
20.85
21.17
20.88
20.06
18.81
17.19
15.29
13.23
11.25
9.62
8.62
8.39
8.93
10.01
11.28
12.33
12.87
12.79
12.18
11.26
10.29
9.44
8.77
8.23
7.75
7.31
6.92
6.64
6.47
6.34
6.11
5.66
4.94
3.99
2.90
1.80
0.82
-0.01
-0.65
-1.12
-1.43
-1.61
-1.72
-1.81
-1.92
-2.07
-2.24
-2.39
-2.48
-2.49
-2.40
-2.24
-2.03
-1.83
-1.68
-1.62
-1.63
-1.64
-1.64
-1.58
-1.50
-1.43
-1.36
-1.28
-1.14
-0.89
-0.55
-0.15
0.24
0.59
0.86
1.05
1.15
1.16
1.09
1.00
0.91
0.84
0.79
0.70
0.55
0.35
0.17
0.08
0.11
0.21
0.28
0.21
-0.02
-0.33
-0.57
-0.59
-0.34
0.08
0.51
0.78
0.79
0.59
0.29
0.03
-0.13
-0.17
-0.14
-0.08
-0.03
-0.04
-0.15
-0.41
-0.84
-1.42
-2.05
-2.58
-2.89
-2.88
-2.56
-2.02
-1.40
-0.83
-0.44
-0.25
-0.23
-0.31
-0.38
-0.41
-0.45
-0.55
-0.75
-1.03
-1.29
-1.38
-1.24
-0.86
-0.39
0.01
0.20
0.14
-0.08
-0.31
-0.43
-0.39
-0.22
-0.02
0.11
0.10
-0.06
-0.32
-0.62
-0.90
-1.11
-1.22
-1.25
-1.23
-1.17
-1.07
-0.94
-0.80
-0.70
-0.70
-0.85
-1.14
-1.54
-1.94
-2.23
-2.32
-2.20
-1.94
-1.70
-1.64
-1.86
-2.35
-2.98
-3.56
-3.92
-3.98
-3.74
-3.30
-2.74
-2.08
-1.32
-0.49
0.36
1.09
1.59
1.80
1.77
1.64
1.56
1.59
1.75
1.97
2.19
2.37
2.48
2.52
2.45
2.26
1.95
1.58
1.25
1.05
1.05
1.25
1.58
1.95
2.27
2.47
2.54
2.46
2.27
1.98
1.66
1.33
1.08
0.95
0.98
1.13
1.27
1.27
1.05
0.62
0.08
-0.38
-0.64
-0.66
-0.51
-0.33
-0.18
-0.10
-0.05
0.01
0.08
0.12
0.07
-0.06
-0.21
-0.30
-0.30
-0.19
-0.02
0.13
0.26
0.36
0.50
0.68
0.90
1.09
1.17
1.12
0.98
0.80
0.65
0.54
0.44
0.33
0.19
0.06
-0.01
-0.02
0.01
-0.00
-0.09
-0.24
-0.38
-0.42
-0.33
-0.19
-0.11
-0.21
-0.47
-0.77
-0.97
-1.00
-0.90
-0.82
-0.89
-1.12
-1.42
-1.59
-1.50
-1.16
-0.68
-0.23
0.08
0.24
0.33
0.45
0.62
0.82
0.96
1.00
0.95
0.84
0.74
0.65
0.56
0.42
0.23
0.01
-0.18
-0.30
-0.37
-0.42
-0.47
-0.53
-0.60
-0.63
-0.62
-0.57
-0.53
-0.50
-0.47
-0.42
-0.35
-0.27
-0.21
-0.18
-0.17
-0.13
-0.03
0.09
0.15
0.08
-0.15
-0.49
-0.85
-1.12
-1.25
-1.23
-1.09
-0.85
-0.55
-0.25
-0.00
0.11
0.03
-0.19
-0.43
-0.55
-0.46
-0.19
0.14
0.36
0.41
0.30
0.11
-0.03
-0.07
-0.00
0.12
0.27
0.44
0.62
0.81
0.97
1.03
0.96
0.75
0.45
0.15
-0.10
-0.28
-0.40
-0.47
-0.52
-0.53
-0.52
-0.47
-0.41
-0.37
-0.37
-0.43
-0.56
-0.72
-0.91
-1.13
-1.36
-1.61
-1.86
-2.04
-2.09
-1.94
-1.60
-1.17
-0.75
-0.45
-0.31
-0.26
-0.20
-0.05
0.22
0.55
0.85
1.07
1.17
1.18
1.14
1.10
1.08
1.04
0.98
0.87
0.75
0.64
0.57
0.55
0.55
0.54
0.54
0.60
0.78
1.09
1.45
1.72
1.75
1.48
0.97
0.41
-0.01
-0.18
-0.09
0.14
0.33
0.39
0.27
0.01
-0.28
-0.53
-0.68
-0.73
-0.69
-0.61
-0.51
-0.43
-0.37
-0.35
-0.37
-0.45
-0.62
-0.91
-1.32
-1.77
-2.16
-2.33
-2.17
-1.64
-0.82
0.08
0.84
1.29
1.38
1.16
0.80
0.45
0.19
0.02
-0.09
-0.16
-0.14
0.01
0.32
0.72
1.03
1.14
0.98
0.66
0.35
0.19
0.23
0.36
0.45
0.39
0.19
-0.07
-0.28
-0.43
-0.50
-0.56
-0.62
-0.67
-0.69
-0.70
-0.73
-0.82
-0.98
-1.22
-1.48
-1.71
-1.84
-1.80
-1.56
-1.16
-0.70
-0.30
-0.08
-0.02
-0.02
0.04
0.27
0.66
1.07
1.35
1.37
1.12
0.73
0.35
0.11
0.06
0.14
0.26
0.35
0.39
0.43
0.53
0.66
0.73
0.58
0.12
-0.62
-1.46
-2.14
-2.42
-2.23
-1.69
-1.03
-0.49
-0.18
-0.10
-0.12
-0.12
-0.03
0.16
0.41
0.69
0.95
1.16
1.30
1.35
1.29
1.13
0.89
0.63
0.40
0.26
0.26
0.40
0.61
0.81
0.91
0.89
0.75
0.58
0.47
0.49
0.64
0.88
1.15
1.35
1.44
1.39
1.22
1.00
0.81
0.72
0.76
0.92
1.15
1.37
1.55
1.66
1.72
1.75
1.76
1.78
1.82
1.88
1.96
2.07
2.18
2.25
2.27
2.21
2.07
1.88
1.60
1.21
0.66
-0.07
-0.93
-1.87
-2.79
-3.60
-4.27
-4.75
-5.06
-5.22
-5.28
-5.29
-5.31
-5.32
-5.29
-5.16
-4.89
-4.49
-4.01
-3.48
-2.96
-2.45
-1.93
-1.42
-0.96
-0.61
-0.39
-0.30
-0.27
-0.26
-0.24
-0.22
-0.21
-0.16
-0.04
0.21
0.56
0.93
1.20
1.28
1.17
0.98
0.83
0.83
0.98
1.17
1.27
1.22
1.01
0.72
0.44
0.23
0.11
0.07
0.10
0.20
0.31
0.40
0.37
0.17
-0.20
-0.69
-1.18
-1.55
-1.69
-1.56
-1.14
-0.51
0.18
0.75
1.06
1.09
0.93
0.74
0.66
0.72
0.84
0.87
0.74
0.50
0.30
0.30
0.52
0.86
1.10
1.10
0.89
0.62
0.48
0.58
0.88
1.22
1.43
1.44
1.29
1.11
0.98
0.91
0.81
0.59
0.22
-0.24
-0.65
-0.89
-0.90
-0.75
-0.60
-0.60
-0.82
-1.21
-1.61
-1.85
-1.85
-1.61
-1.28
-1.00
-0.88
-0.93
-1.06
-1.15
-1.13
-1.00
-0.80
-0.60
-0.41
-0.24
-0.06
0.14
0.34
0.49
0.57
0.55
0.47
0.39
0.35
0.40
0.50
0.59
0.64
0.61
0.53
0.47
0.50
0.63
0.86
1.10
1.22
1.17
0.95
0.68
0.51
0.56
0.83
1.20
1.50
1.61
1.49
1.20
0.86
0.53
0.24
-0.06
-0.39
-0.69
-0.90
-0.94
-0.85
-0.74
-0.74
-0.91
-1.19
-1.45
-1.60
-1.60
-1.50
-1.34
-1.14
-0.88
-0.54
-0.16
0.16
0.31
0.21
-0.07
-0.39
-0.58
-0.54
-0.23
0.23
0.70
1.05
1.19
1.10
0.86
0.56
0.33
0.25
0.33
0.52
0.75
0.92
0.97
0.90
0.72
0.49
0.27
0.10
0.03
0.08
0.21
0.38
0.53
0.59
0.51
0.26
-0.12
-0.55
-0.89
-1.03
-0.93
-0.65
-0.34
-0.16
-0.24
-0.55
-0.99
-1.38
-1.59
-1.58
-1.41
-1.17
-0.96
-0.78
-0.58
-0.34
-0.03
0.29
0.51
0.56
0.44
0.19
-0.07
-0.21
-0.17
0.03
0.35
0.66
0.88
0.98
0.98
0.95
0.96
1.04
1.17
1.29
1.36
1.33
1.24
1.16
1.12
1.12
1.12
1.04
0.81
0.44
-0.01
-0.46
-0.76
-0.86
-0.73
-0.42
-0.06
0.25
0.40
0.36
0.13
-0.25
-0.68
-1.10
-1.47
-1.74
-1.90
-1.94
-1.87
-1.66
-1.35
-0.97
-0.62
-0.38
-0.33
-0.44
-0.61
-0.72
-0.64
-0.37
0.03
0.40
0.64
0.68
0.55
0.32
0.10
-0.09
-0.21
-0.29
-0.34
-0.37
-0.36
-0.30
-0.16
0.04
0.28
0.49
0.63
0.68
0.63
0.49
0.28
0.01
-0.26
-0.47
-0.56
-0.48
-0.24
0.07
0.32
0.39
0.20
-0.21
-0.76
-1.27
-1.57
-1.54
-1.18
-0.61
-0.03
0.36
0.46
0.28
-0.04
-0.35
-0.52
-0.52
-0.34
-0.02
0.40
0.85
1.24
1.48
1.55
1.46
1.29
1.11
0.96
0.80
0.62
0.42
0.26
0.18
0.23
0.36
0.50
0.57
0.52
0.36
0.14
-0.08
-0.23
-0.27
-0.17
0.05
0.29
0.43
0.38
0.13
-0.21
-0.49
-0.60
-0.54
-0.45
-0.48
-0.74
-1.22
-1.81
-2.33
-2.68
-2.82
-2.83
-2.78
-2.71
-2.58
-2.31
-1.85
-1.22
-0.53
0.06
0.46
0.65
0.74
0.84
1.04
1.31
1.53
1.59
1.44
1.16
0.90
0.76
0.80
0.94
1.07
1.09
0.99
0.84
0.74
0.74
0.84
0.95
0.98
0.91
0.75
0.56
0.41
0.31
0.26
0.20
0.07
-0.13
-0.39
-0.64
-0.81
-0.87
-0.85
-0.81
-0.83
-0.95
-1.16
-1.39
-1.57
-1.69
-1.77
-1.85
-1.94
-2.00
-1.96
-1.74
-1.35
-0.83
-0.28
0.20
0.53
0.69
0.70
0.61
0.51
0.45
0.46
0.52
0.58
0.58
0.51
0.35
0.14
-0.07
-0.23
-0.29
-0.23
-0.07
0.17
0.43
0.67
0.90
1.11
1.32
1.53
1.70
1.82
1.91
1.96
1.99
1.99
1.89
1.68
1.37
1.07
0.85
0.80
0.86
0.93
0.92
0.77
0.53
0.27
0.10
-0.00
-0.07
-0.21
-0.49
-0.87
-1.30
-1.64
-1.80
-1.75
-1.54
-1.28
-1.07
-0.96
-0.88
-0.76
-0.51
-0.12
0.30
0.64
0.79
0.71
0.45
0.14
-0.11
-0.21
-0.17
-0.03
0.10
0.16
0.10
-0.03
-0.18
-0.27
-0.27
-0.23
-0.21
-0.23
-0.29
-0.32
-0.22
0.03
0.39
0.69
0.80
0.63
0.24
-0.20
-0.48
-0.44
-0.07
0.48
0.95
1.10
0.81
0.16
-0.63
-1.30
-1.64
-1.59
-1.24
-0.79
-0.41
-0.22
-0.20
-0.26
-0.28
-0.15
0.11
0.45
0.78
0.99
1.08
1.08
1.04
1.00
0.93
0.80
0.56
0.22
-0.13
-0.38
-0.45
-0.33
-0.07
0.23
0.46
0.58
0.57
0.46
0.30
0.13
-0.02
-0.10
-0.10
-0.01
0.14
0.32
0.46
0.54
0.49
0.29
-0.04
-0.47
-0.89
-1.22
-1.40
-1.41
-1.30
-1.11
-0.87
-0.59
-0.25
0.12
0.49
0.79
0.98
1.01
0.90
0.72
0.53
0.38
0.30
0.25
0.20
0.13
0.04
-0.05
-0.08
-0.02
0.17
0.43
0.71
0.93
1.04
1.05
0.98
0.89
0.81
0.77
0.76
0.73
0.66
0.51
0.27
-0.03
-0.34
-0.57
-0.64
-0.56
-0.37
-0.18
-0.11
-0.23
-0.51
-0.86
-1.12
-1.21
-1.09
-0.80
-0.44
-0.12
0.06
0.06
-0.12
-0.40
-0.66
-0.79
-0.70
-0.41
0.02
0.47
0.83
1.05
1.14
1.13
1.06
0.97
0.86
0.73
0.60
0.50
0.49
0.59
0.82
1.09
1.32
1.42
1.33
1.07
0.70
0.28
-0.12
-0.47
-0.71
-0.77
-0.63
-0.29
0.14
0.49
0.62
0.43
-0.02
-0.57
-1.05
-1.32
-1.35
-1.18
-0.92
-0.67
-0.53
-0.55
-0.74
-1.04
-1.36
-1.59
-1.63
-1.49
-1.21
-0.91
-0.71
-0.65
-0.72
-0.86
-0.98
-1.02
-0.95
-0.77
-0.55
-0.34
-0.18
-0.10
-0.09
-0.11
-0.11
-0.02
0.19
0.52
0.90
1.23
1.44
1.46
1.26
0.88
0.41
-0.03
-0.32
-0.40
-0.25
0.03
0.34
0.56
0.64
0.61
0.53
0.44
0.35
0.21
-0.02
-0.32
-0.64
-0.87
-0.91
-0.77
-0.49
-0.20
-0.04
-0.07
-0.28
-0.60
-0.91
-1.13
-1.20
-1.12
-0.94
-0.72
-0.51
-0.32
-0.16
-0.01
0.14
0.31
0.53
0.81
1.13
1.44
1.64
1.65
1.44
1.06
0.62
0.24
0.01
-0.07
-0.07
-0.05
-0.07
-0.14
-0.22
-0.31
-0.40
-0.47
-0.48
-0.36
-0.12
0.19
0.43
0.47
0.24
-0.18
-0.63
-0.90
-0.91
-0.67
-0.31
-0.01
0.15
0.16
0.08
-0.03
-0.15
-0.28
-0.47
-0.69
-0.87
-0.91
-0.73
-0.31
0.26
0.81
1.21
1.34
1.22
0.94
0.64
0.43
0.36
0.39
0.44
0.46
0.41
0.31
0.21
0.15
0.13
0.14
0.13
0.12
0.14
0.23
0.40
0.60
0.72
0.65
0.34
-0.14
-0.64
-1.01
-1.11
-0.93
-0.56
-0.15
0.13
0.17
-0.05
-0.46
-0.95
-1.39
-1.67
-1.75
-1.63
-1.33
-0.88
-0.35
0.19
0.63
0.88
0.92
0.80
0.61
0.45
0.37
0.35
0.32
0.23
0.10
-0.03
-0.06
0.07
0.33
0.65
0.89
0.95
0.78
0.43
0.02
-0.32
-0.48
-0.45
-0.27
-0.04
0.17
0.35
0.49
0.64
0.78
0.88
0.88
0.74
0.51
0.24
0.03
-0.09
-0.11
-0.09
-0.12
-0.26
-0.55
-0.96
-1.41
-1.80
-2.05
-2.09
-1.94
-1.64
-1.25
-0.84
-0.45
-0.09
0.21
0.45
0.63
0.72
0.74
0.71
0.66
0.62
0.62
0.66
0.71
0.74
0.70
0.58
0.44
0.34
0.34
0.47
0.69
0.93
1.13
1.22
1.19
1.04
0.79
0.47
0.15
-0.13
-0.32
-0.38
-0.34
-0.22
-0.08
0.03
0.09
0.10
0.06
0.00
-0.04
-0.04
-0.00
0.01
-0.07
-0.28
-0.62
-0.99
-1.29
-1.41
-1.35
-1.13
-0.83
-0.55
-0.34
-0.24
-0.24
-0.31
-0.38
-0.37
-0.23
0.02
0.31
0.53
0.64
0.63
0.56
0.50
0.47
0.48
0.51
0.59
0.70
0.83
0.93
0.91
0.77
0.57
0.43
0.45
0.66
0.96
1.16
1.15
0.85
0.36
-0.19
-0.62
-0.82
-0.76
-0.49
-0.11
0.27
0.54
0.65
0.57
0.34
-0.01
-0.41
-0.81
-1.14
-1.31
-1.29
-1.07
-0.72
-0.38
-0.13
-0.03
-0.05
-0.10
-0.11
-0.04
0.12
0.33
0.58
0.86
1.13
1.35
1.44
1.40
1.23
1.01
0.83
0.74
0.73
0.76
0.76
0.72
0.65
0.60
0.60
0.58
0.49
0.27
-0.06
-0.43
-0.73
-0.95
-1.10
-1.24
-1.41
-1.54
-1.53
-1.33
-0.97
-0.58
-0.34
-0.34
-0.54
-0.83
-1.06
-1.20
-1.28
-1.39
-1.58
-1.82
-2.01
-2.06
-1.92
-1.62
-1.23
-0.85
-0.54
-0.31
-0.20
-0.17
-0.21
-0.29
-0.34
-0.33
-0.21
0.00
0.29
0.58
0.84
1.02
1.12
1.15
1.11
1.00
0.81
0.55
0.26
-0.00
-0.17
-0.17
-0.00
0.32
0.71
1.08
1.31
1.34
1.17
0.90
0.63
0.43
0.29
0.13
-0.12
-0.50
-0.97
-1.41
-1.72
-1.88
-1.88
-1.77
-1.57
-1.26
-0.84
-0.36
0.09
0.41
0.51
0.43
0.21
-0.02
-0.18
-0.24
-0.19
-0.08
0.01
0.04
0.01
-0.02
0.00
0.12
0.33
0.58
0.78
0.89
0.90
0.82
0.67
0.48
0.28
0.13
0.10
0.20
0.39
0.55
0.58
0.41
0.13
-0.14
-0.28
-0.23
-0.08
0.05
0.07
-0.03
-0.22
-0.43
-0.62
-0.78
-0.93
-1.06
-1.14
-1.12
-0.95
-0.63
-0.20
0.24
0.57
0.70
0.61
0.39
0.15
0.03
0.06
0.21
0.36
0.43
0.39
0.32
0.30
0.39
0.60
0.85
1.05
1.13
1.05
0.86
0.61
0.40
0.29
0.29
0.36
0.41
0.37
0.23
0.05
-0.08
-0.13
-0.11
-0.09
-0.12
-0.21
-0.30
-0.33
-0.29
-0.21
-0.16
-0.21
-0.37
-0.61
-0.87
-1.10
-1.29
-1.39
-1.38
-1.22
-0.90
-0.47
-0.02
0.33
0.49
0.47
0.34
0.22
0.16
0.16
0.16
0.10
-0.04
-0.21
-0.33
-0.33
-0.18
0.08
0.38
0.67
0.91
1.08
1.17
1.15
1.02
0.81
0.57
0.37
0.24
0.16
0.12
0.08
0.03
0.01
0.02
0.04
0.06
0.04
-0.02
-0.08
-0.10
-0.06
0.02
0.08
0.04
-0.11
-0.36
-0.62
-0.82
-0.95
-1.03
-1.11
-1.22
-1.34
-1.39
-1.31
-1.07
-0.67
-0.20
0.26
0.65
0.96
1.20
1.37
1.44
1.38
1.15
0.79
0.39
0.06
-0.12
-0.12
0.01
0.18
0.29
0.30
0.23
0.13
0.05
0.02
0.03
0.08
0.13
0.19
0.25
0.31
0.37
0.39
0.37
0.29
0.15
-0.02
-0.15
-0.17
-0.04
0.21
0.51
0.70
0.67
0.37
-0.15
-0.73
-1.23
-1.54
-1.64
-1.60
-1.46
-1.27
-1.06
-0.82
-0.57
-0.32
-0.08
0.13
0.30
0.39
0.40
0.31
0.15
-0.02
-0.14
-0.13
0.04
0.34
0.66
0.88
0.93
0.77
0.49
0.21
0.01
-0.06
-0.04
0.01
0.02
-0.02
-0.10
-0.18
-0.25
-0.30
-0.31
-0.30
-0.26
-0.22
-0.21
-0.24
-0.26
-0.21
-0.05
0.23
0.53
0.70
0.61
0.22
-0.38
-0.99
-1.43
-1.56
-1.36
-0.96
-0.46
-0.00
0.37
0.65
0.83
0.89
0.80
0.57
0.25
-0.02
-0.12
0.01
0.31
0.66
0.88
0.89
0.68
0.35
0.05
-0.09
-0.04
0.15
0.39
0.56
0.63
0.60
0.54
0.48
0.43
0.34
0.17
-0.05
-0.26
-0.38
-0.34
-0.19
-0.01
0.12
0.16
0.13
0.04
-0.10
-0.33
-0.67
-1.08
-1.48
-1.75
-1.82
-1.70
-1.47
-1.21
-0.96
-0.73
-0.46
-0.12
0.27
0.66
0.96
1.10
1.08
0.91
0.69
0.50
0.40
0.38
0.39
0.37
0.29
0.19
0.09
0.06
0.09
0.15
0.21
0.25
0.28
0.31
0.33
0.31
0.23
0.10
-0.03
-0.08
-0.02
0.13
0.33
0.47
0.49
0.39
0.19
-0.07
-0.35
-0.63
-0.91
-1.17
-1.36
-1.44
-1.38
-1.22
-1.05
-0.94
-0.96
-1.06
-1.15
-1.09
-0.84
-0.40
0.10
0.52
0.77
0.83
0.74
0.60
0.49
0.47
0.53
0.66
0.84
1.04
1.23
1.40
1.52
1.55
1.48
1.32
1.07
0.81
0.56
0.36
0.23
0.13
0.04
-0.07
-0.22
-0.42
-0.64
-0.87
-1.02
-1.03
-0.86
-0.53
-0.16
0.08
0.10
-0.13
-0.49
-0.80
-0.92
-0.83
-0.64
-0.53
-0.60
-0.82
-1.06
-1.14
-1.01
-0.72
-0.45
-0.31
-0.31
-0.31
-0.15
0.26
0.84
1.39
1.66
1.51
0.99
0.31
-0.25
-0.53
-0.50
-0.24
0.07
0.29
0.38
0.41
0.48
0.65
0.90
1.14
1.22
1.07
0.75
0.40
0.19
0.19
0.34
0.47
0.41
0.09
-0.39
-0.82
-1.02
-0.95
-0.69
-0.42
-0.29
-0.30
-0.37
-0.41
-0.35
-0.25
-0.23
-0.37
-0.67
-1.04
-1.34
-1.48
-1.41
-1.18
-0.88
-0.61
-0.44
-0.33
-0.22
-0.04
0.24
0.55
0.78
0.85
0.74
0.52
0.30
0.17
0.16
0.23
0.36
0.49
0.61
0.73
0.84
0.92
0.94
0.85
0.62
0.26
-0.17
-0.59
-0.86
-0.92
-0.76
-0.46
-0.13
0.12
0.26
0.29
0.22
0.04
-0.27
-0.69
-1.16
-1.51
-1.62
-1.43
-0.99
-0.48
-0.07
0.10
0.05
-0.12
-0.31
-0.42
-0.41
-0.32
-0.16
0.06
0.35
0.68
1.01
1.23
1.25
1.07
0.79
0.54
0.44
0.54
0.76
1.00
1.15
1.14
0.99
0.74
0.45
0.16
-0.06
-0.18
-0.20
-0.14
-0.08
-0.09
-0.20
-0.39
-0.58
-0.71
-0.73
-0.65
-0.53
-0.44
-0.45
-0.58
-0.80
-1.03
-1.19
-1.23
-1.15
-1.01
-0.87
-0.75
-0.60
-0.39
-0.10
0.25
0.60
0.85
0.94
0.89
0.74
0.55
0.38
0.25
0.13
0.03
-0.03
-0.00
0.15
0.42
0.73
0.96
1.01
0.87
0.62
0.37
0.24
0.26
0.40
0.57
0.71
0.80
0.81
0.75
0.62
0.44
0.28
0.18
0.19
0.28
0.37
0.38
0.26
0.05
-0.20
-0.41
-0.49
-0.43
-0.21
0.16
0.64
1.19
1.73
2.17
2.48
2.67
2.77
2.85
2.96
3.15
3.42
3.81
4.32
4.93
5.59
6.25
6.85
7.36
7.75
8.03
8.25
8.43
8.61
8.83
9.09
9.34
9.55
9.67
9.72
9.70
9.64
9.52
9.26
8.75
7.86
6.56
4.87
2.89
0.73
-1.51
-3.70
-5.74
-7.52
-8.98
-10.04
-10.75
-11.17
-11.41
-11.61
-11.85
-12.18
-12.56
-12.87
-12.99
-12.82
-12.38
-11.80
-11.26
-10.96
-10.94
-11.10
-11.21
-10.99
-10.24
-8.93
-7.23
-5.40
-3.74
-2.43
-1.45
-0.69
0.02
0.73
1.41
1.98
2.37
2.64
2.92
3.31
3.85
4.44
4.93
5.21
5.27
5.19
5.11
5.10
5.12
5.08
4.86
4.38
3.68
2.85
2.05
1.39
0.96
0.76
0.77
0.97
1.31
1.74
2.20
2.58
2.80
2.83
2.73
2.61
2.57
2.66
2.82
2.91
2.79
2.40
1.73
0.90
0.05
-0.68
-1.20
-1.45
-1.48
-1.35
-1.15
-0.95
-0.76
-0.58
-0.40
-0.27
-0.26
-0.46
-0.87
-1.39
-1.85
-2.08
-2.00
-1.65
-1.21
-0.85
-0.73
-0.89
-1.24
-1.67
-2.06
-2.40
-2.73
-3.15
-3.74
-4.47
-5.25
-5.89
-6.26
-6.31
-6.10
-5.75
-5.37
-4.99
-4.61
-4.18
-3.76
-3.46
-3.49
-3.96
-4.87
-6.04
-7.21
-8.09
-8.53
-8.49
-8.07
-7.40
-6.61
-5.84
-5.17
-4.66
-4.31
-4.06
-3.80
-3.42
-2.88
-2.19
-1.43
-0.71
-0.08
0.44
0.86
1.22
1.52
1.78
1.99
2.12
2.19
2.18
2.11
2.01
1.93
1.94
2.09
2.41
2.82
3.26
3.64
3.91
4.11
4.27
4.45
4.64
4.79
4.82
4.72
4.56
4.46
4.53
4.76
5.06
5.26
5.24
5.01
4.69
4.43
4.36
4.45
4.60
4.64
4.49
4.11
3.57
2.98
2.41
1.93
1.55
1.25
1.03
0.84
0.67
0.48
0.23
-0.08
-0.46
-0.88
-1.30
-1.72
-2.15
-2.61
-3.13
-3.68
-4.20
-4.59
-4.73
-4.57
-4.13
-3.50
-2.75
-1.98
-1.25
-0.60
-0.08
0.28
0.45
0.46
0.37
0.28
0.29
0.40
0.61
0.86
1.10
1.29
1.40
1.39
1.24
0.95
0.57
0.18
-0.11
-0.25
-0.23
-0.11
0.07
0.25
0.37
0.39
0.27
0.01
-0.34
-0.67
-0.87
-0.86
-0.68
-0.41
-0.20
-0.15
-0.32
-0.68
-1.14
-1.60
-1.97
-2.16
-2.13
-1.92
-1.57
-1.17
-0.79
-0.46
-0.17
0.10
0.38
0.68
0.98
1.23
1.37
1.37
1.21
0.94
0.66
0.46
0.41
0.52
0.72
0.89
0.95
0.87
0.71
0.54
0.46
0.50
0.61
0.70
0.69
0.56
0.34
0.15
0.06
0.07
0.14
0.17
0.05
-0.22
-0.61
-1.01
-1.32
-1.49
-1.51
-1.43
-1.30
-1.18
-1.06
-0.91
-0.70
-0.38
0.00
0.40
0.72
0.89
0.92
0.82
0.69
0.57
0.49
0.44
0.42
0.45
0.53
0.68
0.86
1.02
1.09
1.02
0.84
0.64
0.50
0.48
0.61
0.81
1.02
1.13
1.09
0.84
0.41
-0.14
-0.69
-1.14
-1.40
-1.46
-1.41
-1.37
-1.42
-1.59
-1.83
-2.03
-2.12
-2.08
-1.91
-1.65
-1.30
-0.84
-0.28
0.31
0.83
1.18
1.28
1.17
0.95
0.74
0.65
0.69
0.80
0.86
0.81
0.63
0.45
0.38
0.51
0.79
1.08
1.21
1.07
0.73
0.35
0.12
0.14
0.34
0.58
0.71
0.66
0.48
0.27
0.10
-0.02
-0.11
-0.20
-0.29
-0.36
-0.40
-0.45
-0.54
-0.71
-0.96
-1.25
-1.50
-1.62
-1.57
-1.33
-0.90
-0.35
0.23
0.72
1.03
1.11
0.99
0.73
0.46
0.27
0.24
0.36
0.58
0.81
0.94
0.93
0.81
0.62
0.45
0.35
0.31
0.34
0.41
0.55
0.71
0.87
0.94
0.86
0.62
0.28
-0.06
-0.33
-0.52
-0.65
-0.76
-0.84
-0.84
-0.74
-0.56
-0.41
-0.39
-0.60
-0.98
-1.42
-1.77
-1.95
-1.94
-1.77
-1.49
-1.15
-0.77
-0.37
-0.02
0.23
0.35
0.34
0.29
0.31
0.42
0.61
0.81
0.94
1.00
1.03
1.09
1.22
1.39
1.52
1.55
1.43
1.21
0.94
0.70
0.57
0.55
0.64
0.79
0.94
1.04
1.04
0.91
0.65
0.31
-0.06
-0.39
-0.61
-0.66
-0.56
-0.39
-0.27
-0.31
-0.53
-0.88
-1.28
-1.66
-2.07
-2.53
-3.04
-3.47
-3.63
-3.33
-2.57
-1.53
-0.50
0.27
0.69
0.83
0.88
0.98
1.18
1.41
1.58
1.64
1.56
1.40
1.17
0.93
0.72
0.60
0.63
0.80
1.02
1.15
1.08
0.83
0.52
0.29
0.30
0.54
0.92
1.27
1.46
1.42
1.17
0.80
0.39
-0.02
-0.41
-0.80
-1.15
-1.44
-1.59
-1.58
-1.42
-1.19
-0.99
-0.93
-1.04
-1.31
-1.63
-1.88
-1.96
-1.86
-1.64
-1.38
-1.16
-0.98
-0.83
-0.65
-0.43
-0.16
0.12
0.37
0.57
0.72
0.84
0.94
1.07
1.24
1.44
1.65
1.80
1.84
1.76
1.58
1.42
1.35
1.43
1.58
1.71
1.69
1.51
1.18
0.81
0.46
0.14
-0.18
-0.51
-0.82
-1.02
-1.07
-0.98
-0.85
-0.78
-0.83
-0.94
-1.06
-1.13
-1.19
-1.29
-1.48
-1.69
-1.80
-1.66
-1.24
-0.63
-0.01
0.46
0.72
0.82
0.86
0.90
0.91
0.84
0.65
0.34
0.03
-0.16
-0.13
0.11
0.49
0.87
1.17
1.36
1.47
1.55
1.62
1.64
1.54
1.27
0.83
0.30
-0.17
-0.47
-0.54
-0.45
-0.31
-0.27
-0.39
-0.65
-0.95
-1.17
-1.25
-1.19
-1.07
-1.00
-1.05
-1.24
-1.51
-1.82
-2.07
-2.20
-2.17
-1.95
-1.54
-1.00
-0.41
0.15
0.59
0.89
1.05
1.13
1.18
1.25
1.37
1.52
1.65
1.70
1.66
1.50
1.27
1.02
0.80
0.61
0.45
0.32
0.24
0.24
0.35
0.55
0.79
0.98
1.03
0.94
0.75
0.51
0.31
0.16
0.05
-0.03
-0.13
-0.24
-0.36
-0.46
-0.53
-0.58
-0.65
-0.80
-1.10
-1.57
-2.13
-2.67
-3.03
-3.09
-2.83
-2.33
-1.70
-1.07
-0.52
-0.10
0.20
0.40
0.54
0.69
0.88
1.13
1.39
1.61
1.76
1.81
1.81
1.76
1.66
1.49
1.22
0.92
0.70
0.66
0.81
1.08
1.26
1.25
1.00
0.63
0.30
0.13
0.12
0.19
0.24
0.20
0.06
-0.10
-0.24
-0.32
-0.33
-0.31
-0.30
-0.31
-0.34
-0.39
-0.42
-0.41
-0.40
-0.46
-0.68
-1.10
-1.70
-2.35
-2.85
-3.06
-2.88
-2.36
-1.64
-0.88
-0.20
0.33
0.70
0.91
0.99
0.97
0.88
0.78
0.71
0.68
0.68
0.68
0.64
0.56
0.47
0.38
0.30
0.20
0.07
-0.06
-0.14
-0.08
0.13
0.46
0.80
1.04
1.10
1.01
0.85
0.72
0.67
0.69
0.70
0.63
0.46
0.21
-0.04
-0.23
-0.33
-0.37
-0.40
-0.49
-0.67
-0.96
-1.33
-1.77
-2.24
-2.68
-3.01
-3.14
-3.00
-2.59
-1.96
-1.25
-0.59
-0.11
0.15
0.20
0.13
0.04
0.08
0.33
0.81
1.46
2.14
2.66
2.89
2.78
2.38
1.82
1.25
0.79
0.51
0.40
0.48
0.72
1.07
1.45
1.72
1.79
1.59
1.15
0.60
0.10
-0.19
-0.21
0.01
0.32
0.56
0.60
0.39
0.01
-0.46
-0.91
-1.29
-1.57
-1.80
-1.99
-2.12
-2.14
-2.01
-1.70
-1.27
-0.80
-0.41
-0.16
-0.08
-0.12
-0.21
-0.26
-0.21
-0.02
0.31
0.72
1.13
1.46
1.64
1.66
1.55
1.38
1.20
1.05
0.93
0.84
0.78
0.76
0.83
0.95
1.06
1.06
0.90
0.59
0.22
-0.08
-0.18
-0.08
0.15
0.36
0.40
0.19
-0.25
-0.81
-1.34
-1.74
-1.92
-1.92
-1.81
-1.71
-1.71
-1.85
-2.06
-2.23
-2.23
-1.98
-1.51
-0.94
-0.44
-0.13
-0.04
-0.05
-0.02
0.19
0.57
1.03
1.41
1.59
1.58
1.46
1.35
1.36
1.49
1.67
1.78
1.75
1.57
1.31
1.04
0.82
0.67
0.56
0.51
0.50
0.56
0.69
0.86
1.01
1.05
0.94
0.67
0.31
-0.07
-0.38
-0.54
-0.54
-0.39
-0.18
-0.04
-0.07
-0.28
-0.63
-1.04
-1.40
-1.68
-1.93
-2.19
-2.51
-2.86
-3.14
-3.27
-3.18
-2.89
-2.50
-2.06
-1.61
-1.08
-0.44
0.32
1.08
1.65
1.90
1.78
1.42
1.00
0.73
0.69
0.82
1.05
1.29
1.52
1.70
1.81
1.77
1.56
1.22
0.85
0.60
0.53
0.65
0.82
0.96
1.02
1.04
1.09
1.20
1.35
1.45
1.42
1.25
0.97
0.61
0.17
-0.37
-0.98
-1.61
-2.14
-2.42
-2.38
-2.07
-1.63
-1.26
-1.11
-1.23
-1.54
-1.89
-2.13
-2.16
-1.99
-1.69
-1.36
-1.07
-0.80
-0.50
-0.13
0.32
0.81
1.28
1.68
1.98
2.15
2.19
2.09
1.84
1.48
1.10
0.78
0.56
0.45
0.38
0.33
0.29
0.30
0.41
0.62
0.88
1.10
1.18
1.10
0.85
0.53
0.25
0.09
0.11
0.27
0.49
0.64
0.61
0.38
-0.01
-0.44
-0.81
-1.03
-1.10
-1.05
-0.96
-0.92
-1.01
-1.25
-1.58
-1.92
-2.16
-2.24
-2.15
-1.92
-1.63
-1.29
-0.90
-0.47
0.01
0.47
0.84
1.05
1.12
1.07
0.99
0.92
0.88
0.87
0.87
0.85
0.79
0.65
0.44
0.18
-0.04
-0.13
-0.03
0.21
0.45
0.55
0.42
0.12
-0.23
-0.47
-0.54
-0.49
-0.42
-0.41
-0.48
-0.52
-0.44
-0.20
0.11
0.33
0.29
-0.09
-0.73
-1.44
-2.02
-2.30
-2.28
-2.03
-1.68
-1.35
-1.08
-0.86
-0.69
-0.53
-0.37
-0.19
0.02
0.26
0.51
0.71
0.85
0.93
1.02
1.18
1.41
1.63
1.75
1.72
1.58
1.43
1.39
1.46
1.56
1.56
1.37
1.04
0.71
0.52
0.57
0.78
1.00
1.08
0.95
0.65
0.29
0.00
-0.18
-0.32
-0.49
-0.75
-1.09
-1.43
-1.64
-1.70
-1.64
-1.59
-1.68
-1.97
-2.40
-2.83
-3.09
-3.06
-2.73
-2.16
-1.51
-0.88
-0.34
0.09
0.48
0.90
1.37
1.87
2.28
2.50
2.45
2.15
1.71
1.26
0.96
0.91
1.10
1.45
1.86
2.20
2.38
2.35
2.13
1.75
1.32
0.95
0.72
0.63
0.63
0.66
0.64
0.54
0.39
0.20
-0.01
-0.25
-0.53
-0.83
-1.12
-1.32
-1.39
-1.34
-1.21
-1.11
-1.08
-1.17
-1.37
-1.67
-2.05
-2.46
-2.83
-3.09
-3.13
-2.92
-2.45
-1.81
-1.10
-0.41
0.21
0.73
1.15
1.48
1.70
1.82
1.81
1.70
1.52
1.31
1.12
1.01
1.02
1.15
1.36
1.56
1.69
1.70
1.59
1.42
1.24
1.13
1.08
1.08
1.08
1.07
1.01
0.93
0.81
0.66
0.46
0.23
-0.02
-0.24
-0.41
-0.53
-0.64
-0.79
-1.00
-1.25
-1.48
-1.64
-1.72
-1.76
-1.83
-2.00
-2.27
-2.60
-2.90
-3.07
-3.04
-2.81
-2.39
-1.82
-1.16
-0.41
0.38
1.18
1.90
2.45
2.77
2.81
2.61
2.27
1.87
1.51
1.24
1.10
1.10
1.20
1.35
1.49
1.55
1.47
1.30
1.08
0.88
0.73
0.60
0.45
0.26
0.07
-0.06
-0.06
0.08
0.30
0.47
0.50
0.34
0.04
-0.32
-0.65
-0.92
-1.13
-1.33
-1.54
-1.78
-2.04
-2.28
-2.50
-2.67
-2.79
-2.82
-2.71
-2.43
-1.95
-1.33
-0.67
-0.07
0.40
0.74
1.04
1.34
1.67
1.96
2.12
2.09
1.89
1.62
1.41
1.36
1.45
1.59
1.65
1.56
1.32
1.01
0.74
0.57
0.50
0.50
0.51
0.49
0.45
0.36
0.24
0.10
-0.03
-0.11
-0.11
-0.05
0.00
-0.04
-0.24
-0.60
-1.02
-1.40
-1.66
-1.81
-1.92
-2.08
-2.30
-2.49
-2.52
-2.29
-1.78
-1.07
-0.35
0.21
0.52
0.60
0.54
0.48
0.52
0.68
0.96
1.27
1.56
1.74
1.77
1.66
1.46
1.25
1.13
1.09
1.08
1.01
0.83
0.57
0.37
0.32
0.44
0.64
0.77
0.72
0.50
0.24
0.09
0.12
0.29
0.49
0.56
0.45
0.16
-0.23
-0.64
-1.02
-1.34
-1.64
-1.97
-2.36
-2.78
-3.17
-3.38
-3.29
-2.88
-2.22
-1.48
-0.81
-0.32
-0.01
0.20
0.36
0.50
0.62
0.74
0.86
1.04
1.27
1.52
1.70
1.78
1.76
1.73
1.72
1.72
1.63
1.41
1.08
0.78
0.67
0.82
1.15
1.43
1.46
1.17
0.70
0.25
0.01
-0.02
0.03
-0.00
-0.17
-0.42
-0.61
-0.67
-0.67
-0.72
-0.94
-1.29
-1.63
-1.78
-1.68
-1.41
-1.17
-1.18
-1.48
-1.96
-2.41
-2.63
-2.54
-2.18
-1.67
-1.14
-0.64
-0.17
0.29
0.72
1.09
1.34
1.45
1.42
1.33
1.31
1.43
1.70
2.04
2.28
2.27
1.96
1.45
0.91
0.56
0.50
0.73
1.13
1.50
1.69
1.61
1.30
0.90
0.57
0.40
0.43
0.56
0.66
0.63
0.44
0.17
-0.09
-0.28
-0.42
-0.60
-0.89
-1.26
-1.63
-1.88
-1.96
-1.93
-1.93
-2.08
-2.39
-2.77
-3.04
-3.05
-2.80
-2.35
-1.84
-1.38
-0.98
-0.58
-0.13
0.40
0.91
1.30
1.48
1.44
1.27
1.11
1.06
1.16
1.33
1.46
1.45
1.30
1.04
0.79
0.67
0.72
0.95
1.29
1.65
1.90
1.98
1.87
1.62
1.31
1.04
0.85
0.72
0.56
0.28
-0.15
-0.71
-1.28
-1.74
-1.98
-1.96
-1.70
-1.30
-0.91
-0.66
-0.67
-0.95
-1.43
-1.97
-2.41
-2.64
-2.64
-2.42
-2.02
-1.47
-0.80
-0.08
0.62
1.16
1.50
1.64
1.65
1.60
1.53
1.40
1.14
0.78
0.40
0.14
0.13
0.37
0.74
1.08
1.24
1.19
0.99
0.75
0.56
0.47
0.49
0.59
0.71
0.79
0.79
0.67
0.43
0.11
-0.21
-0.48
-0.62
-0.62
-0.48
-0.29
-0.15
-0.19
-0.48
-1.01
-1.66
-2.25
-2.65
-2.75
-2.58
-2.23
-1.79
-1.30
-0.77
-0.20
0.41
1.01
1.50
1.79
1.86
1.74
1.51
1.29
1.14
1.07
1.02
0.95
0.82
0.66
0.53
0.51
0.58
0.70
0.75
0.68
0.47
0.21
0.02
-0.00
0.15
0.39
0.55
0.52
0.24
-0.18
-0.62
-0.94
-1.11
-1.16
-1.16
-1.17
-1.18
-1.22
-1.29
-1.39
-1.53
-1.70
-1.86
-1.99
-2.07
-2.10
-2.05
-1.87
-1.51
-0.95
-0.28
0.34
0.79
1.00
1.04
1.03
1.13
1.38
1.71
2.00
2.14
2.09
1.89
1.66
1.47
1.36
1.29
1.19
1.01
0.77
0.53
0.36
0.29
0.32
0.38
0.40
0.36
0.30
0.24
0.19
0.14
0.07
-0.02
-0.10
-0.17
-0.23
-0.32
-0.48
-0.74
-1.07
-1.42
-1.79
-2.20
-2.66
-3.15
-3.56
-3.74
-3.56
-2.97
-2.06
-1.01
-0.01
0.80
1.37
1.70
1.83
1.84
1.75
1.63
1.50
1.42
1.39
1.42
1.47
1.48
1.41
1.24
1.03
0.82
0.69
0.69
0.78
0.94
1.10
1.21
1.23
1.14
0.92
0.60
0.21
-0.16
-0.43
-0.54
-0.47
-0.31
-0.18
-0.21
-0.44
-0.84
-1.30
-1.68
-1.88
-1.91
-1.86
-1.88
-2.05
-2.34
-2.61
-2.69
-2.44
-1.90
-1.21
-0.55
-0.06
0.23
0.40
0.50
0.59
0.65
0.65
0.61
0.60
0.70
0.93
1.25
1.56
1.81
1.96
2.07
2.20
2.33
2.38
2.27
1.94
1.46
0.99
0.66
0.54
0.58
0.63
0.58
0.38
0.09
-0.18
-0.35
-0.40
-0.41
-0.47
-0.63
-0.90
-1.24
-1.56
-1.79
-1.91
-1.91
-1.86
-1.80
-1.77
-1.77
-1.78
-1.75
-1.66
-1.52
-1.33
-1.12
-0.89
-0.62
-0.30
0.05
0.40
0.69
0.88
0.97
1.01
1.04
1.09
1.16
1.20
1.15
1.01
0.81
0.64
0.64
0.85
1.23
1.63
1.88
1.83
1.50
1.00
0.54
0.25
0.17
0.21
0.26
0.25
0.16
0.09
0.07
0.10
0.12
0.02
-0.26
-0.68
-1.15
-1.57
-1.87
-2.04
-2.13
-2.18
-2.20
-2.16
-1.99
-1.64
-1.12
-0.53
0.04
0.50
0.83
1.08
1.28
1.45
1.57
1.59
1.52
1.40
1.29
1.26
1.33
1.46
1.60
1.70
1.70
1.63
1.50
1.34
1.19
1.06
0.94
0.79
0.61
0.39
0.17
0.00
-0.08
-0.12
-0.18
-0.32
-0.59
-0.96
-1.36
-1.68
-1.84
-1.82
-1.64
-1.44
-1.36
-1.52
-1.91
-2.44
-2.92
-3.18
-3.14
-2.82
-2.30
-1.68
-1.04
-0.41
0.15
0.57
0.83
0.93
0.96
1.04
1.21
1.46
1.69
1.78
1.68
1.42
1.12
0.92
0.93
1.12
1.40
1.63
1.68
1.52
1.18
0.76
0.39
0.16
0.11
0.27
0.55
0.86
1.07
1.06
0.76
0.21
-0.44
-0.99
-1.28
-1.26
-1.00
-0.70
-0.57
-0.73
-1.20
-1.86
-2.53
-3.05
-3.34
-3.36
-3.14
-2.75
-2.20
-1.50
-0.70
0.10
0.77
1.17
1.27
1.14
0.95
0.85
0.94
1.18
1.43
1.60
1.66
1.69
1.81
2.07
2.42
2.70
2.76
2.52
2.02
1.44
0.94
0.61
0.47
0.45
0.46
0.46
0.45
0.43
0.41
0.36
0.22
-0.06
-0.47
-0.95
-1.35
-1.59
-1.60
-1.45
-1.29
-1.30
-1.59
-2.12
-2.74
-3.24
-3.46
-3.34
-2.93
-2.33
-1.68
-1.08
-0.55
-0.12
0.21
0.44
0.56
0.57
0.51
0.43
0.41
0.50
0.71
1.01
1.31
1.55
1.65
1.63
1.53
1.41
1.28
1.16
1.00
0.80
0.59
0.44
0.40
0.50
0.68
0.83
0.82
0.59
0.17
-0.29
-0.62
-0.73
-0.62
-0.40
-0.22
-0.19
-0.33
-0.60
-0.90
-1.20
-1.50
-1.82
-2.16
-2.45
-2.56
-2.38
-1.85
-1.04
-0.14
0.66
1.18
1.39
1.34
1.16
0.97
0.86
0.79
0.73
0.65
0.56
0.54
0.65
0.94
1.35
1.77
2.09
2.20
2.10
1.81
1.42
1.00
0.62
0.31
0.08
-0.05
-0.11
-0.10
-0.06
-0.01
0.01
-0.06
-0.22
-0.48
-0.80
-1.11
-1.35
-1.52
-1.62
-1.69
-1.77
-1.86
-1.93
-1.98
-2.02
-2.06
-2.09
-2.07
-1.94
-1.64
-1.17
-0.59
0.02
0.56
0.98
1.27
1.49
1.68
1.85
1.96
1.93
1.68
1.19
0.57
-0.02
-0.37
-0.40
-0.12
0.33
0.77
1.05
1.15
1.12
1.05
1.00
0.95
0.89
0.78
0.63
0.48
0.31
0.10
-0.18
-0.55
-0.95
-1.27
-1.43
-1.40
-1.26
-1.14
-1.17
-1.39
-1.76
-2.20
-2.57
-2.79
-2.78
-2.50
-1.94
-1.15
-0.27
0.47
0.90
0.92
0.64
0.28
0.11
0.28
0.76
1.34
1.81
1.99
1.90
1.65
1.42
1.29
1.26
1.26
1.22
1.14
1.08
1.13
1.33
1.63
1.86
1.89
1.63
1.11
0.49
-0.06
-0.40
-0.53
-0.53
-0.49
-0.49
-0.54
-0.59
-0.58
-0.51
-0.41
-0.34
-0.36
-0.50
-0.77
-1.17
-1.65
-2.16
-2.61
-2.85
-2.81
-2.44
-1.82
-1.09
-0.39
0.15
0.54
0.83
1.07
1.30
1.49
1.60
1.60
1.51
1.36
1.22
1.09
1.00
0.92
0.86
0.83
0.83
0.82
0.76
0.65
0.49
0.34
0.25
0.22
0.24
0.23
0.15
-0.03
-0.27
-0.53
-0.76
-0.93
-1.05
-1.16
-1.26
-1.35
-1.41
-1.41
-1.33
-1.20
-1.06
-1.00
-1.08
-1.35
-1.78
-2.25
-2.60
-2.66
-2.35
-1.69
-0.81
0.12
0.91
1.44
1.70
1.74
1.64
1.50
1.36
1.27
1.24
1.29
1.42
1.59
1.75
1.80
1.71
1.45
1.08
0.73
0.49
0.43
0.50
0.63
0.75
0.78
0.72
0.59
0.40
0.18
-0.06
-0.31
-0.55
-0.75
-0.86
-0.85
-0.70
-0.47
-0.27
-0.22
-0.42
-0.86
-1.46
-2.03
-2.39
-2.43
-2.14
-1.60
-0.92
-0.20
0.49
1.09
1.55
1.80
1.84
1.73
1.55
1.42
1.37
1.36
1.33
1.19
0.96
0.70
0.53
0.53
0.66
0.84
0.94
0.87
0.64
0.36
0.13
0.04
0.08
0.19
0.28
0.28
0.17
-0.05
-0.35
-0.71
-1.09
-1.47
-1.79
-1.99
-2.06
-2.00
-1.88
-1.77
-1.76
-1.87
-2.08
-2.28
-2.37
-2.25
-1.89
-1.33
-0.68
-0.04
0.50
0.90
1.17
1.34
1.41
1.39
1.27
1.09
0.90
0.78
0.79
0.96
1.21
1.48
1.69
1.82
1.86
1.84
1.79
1.72
1.62
1.48
1.32
1.11
0.86
0.60
0.36
0.14
-0.03
-0.21
-0.44
-0.76
-1.14
-1.48
-1.67
-1.68
-1.56
-1.44
-1.47
-1.67
-2.00
-2.37
-2.70
-2.99
-3.26
-3.50
-3.59
-3.42
-2.90
-2.08
-1.12
-0.24
0.42
0.85
1.12
1.28
1.35
1.29
1.09
0.81
0.60
0.60
0.87
1.32
1.78
2.09
2.17
2.07
1.92
1.83
1.83
1.86
1.81
1.66
1.42
1.16
0.96
0.82
0.73
0.62
0.46
0.25
0.05
-0.10
-0.17
-0.15
-0.06
0.05
0.11
0.07
-0.11
-0.45
-0.90
-1.39
-1.85
-2.25
-2.54
-2.74
-2.83
-2.80
-2.63
-2.32
-1.89
-1.38
-0.84
-0.31
0.16
0.55
0.84
1.07
1.27
1.46
1.68
1.86
1.95
1.89
1.64
1.22
0.74
0.32
0.11
0.18
0.48
0.90
1.26
1.41
1.33
1.06
0.77
0.56
0.50
0.51
0.50
0.38
0.16
-0.09
-0.27
-0.32
-0.23
-0.08
0.03
0.03
-0.14
-0.43
-0.77
-1.05
-1.23
-1.31
-1.40
-1.58
-1.90
-2.29
-2.61
-2.73
-2.59
-2.23
-1.79
-1.37
-1.02
-0.71
-0.37
0.06
0.57
1.07
1.49
1.75
1.83
1.74
1.53
1.28
1.03
0.85
0.80
0.93
1.22
1.59
1.94
2.10
2.02
1.70
1.27
0.84
0.52
0.31
0.14
-0.05
-0.29
-0.56
-0.80
-0.98
-1.10
-1.16
-1.17
-1.10
-0.94
-0.73
-0.55
-0.47
-0.55
-0.76
-1.02
-1.23
-1.32
-1.28
-1.12
-0.87
-0.55
-0.16
0.27
0.68
1.03
1.26
1.37
1.40
1.40
1.38
1.34
1.25
1.05
0.73
0.31
-0.09
-0.35
-0.35
-0.05
0.48
1.11
1.66
1.98
1.98
1.68
1.16
0.58
0.09
-0.23
-0.32
-0.20
0.02
0.25
0.36
0.29
0.06
-0.30
-0.69
-1.05
-1.35
-1.61
-1.84
-2.06
-2.26
-2.40
-2.47
-2.47
-2.45
-2.44
-2.42
-2.31
-2.01
-1.46
-0.70
0.12
0.80
1.24
1.42
1.45
1.44
1.46
1.51
1.52
1.44
1.29
1.18
1.19
1.32
1.53
1.68
1.70
1.59
1.42
1.26
1.17
1.10
1.01
0.85
0.62
0.36
0.15
0.01
-0.05
-0.05
-0.03
-0.01
-0.04
-0.11
-0.27
-0.49
-0.73
-0.94
-1.09
-1.15
-1.17
-1.20
-1.26
-1.36
-1.46
-1.59
-1.75
-1.97
-2.25
-2.50
-2.63
-2.52
-2.16
-1.61
-0.96
-0.31
0.29
0.84
1.30
1.63
1.75
1.64
1.37
1.08
0.92
1.00
1.26
1.58
1.83
1.94
1.90
1.79
1.71
1.72
1.81
1.94
2.03
1.99
1.81
1.48
1.08
0.72
0.49
0.42
0.43
0.44
0.32
0.08
-0.24
-0.55
-0.80
-0.98
-1.14
-1.31
-1.43
-1.43
-1.25
-0.93
-0.60
-0.45
-0.61
-1.07
-1.72
-2.33
-2.71
-2.77
-2.50
-2.01
-1.45
-0.93
-0.53
-0.23
0.01
0.28
0.61
0.98
1.33
1.57
1.66
1.61
1.47
1.31
1.14
0.99
0.85
0.71
0.61
0.58
0.64
0.81
1.06
1.34
1.58
1.70
1.65
1.44
1.11
0.73
0.39
0.12
-0.05
-0.15
-0.19
-0.20
-0.22
-0.26
-0.34
-0.45
-0.58
-0.71
-0.81
-0.91
-1.02
-1.21
-1.50
-1.91
-2.37
-2.83
-3.19
-3.40
-3.45
-3.33
-3.07
-2.68
-2.16
-1.54
-0.85
-0.16
0.46
0.94
1.26
1.42
1.44
1.32
1.07
0.74
0.45
0.32
0.47
0.91
1.48
1.99
2.22
2.07
1.61
1.05
0.61
0.42
0.46
0.56
0.58
0.41
0.11
-0.21
-0.40
-0.45
-0.40
-0.38
-0.44
-0.61
-0.81
-0.96
-1.04
-1.07
-1.13
-1.25
-1.46
-1.74
-2.04
-2.33
-2.55
-2.63
-2.50
-2.12
-1.52
-0.80
-0.09
0.48
0.89
1.14
1.32
1.50
1.69
1.87
1.98
2.00
1.93
1.82
1.71
1.67
1.70
1.78
1.87
1.91
1.86
1.71
1.48
1.23
1.02
0.91
0.92
1.02
1.14
1.18
1.06
0.76
0.35
-0.08
-0.40
-0.59
-0.67
-0.73
-0.85
-1.05
-1.28
-1.44
-1.48
-1.45
-1.44
-1.57
-1.90
-2.36
-2.79
-3.00
-2.86
-2.37
-1.64
-0.87
-0.22
0.23
0.51
0.71
0.91
1.11
1.23
1.18
0.97
0.70
0.54
0.61
0.91
1.30
1.61
1.76
1.75
1.68
1.65
1.69
1.76
1.77
1.68
1.51
1.32
1.15
0.98
0.78
0.51
0.19
-0.14
-0.41
-0.60
-0.72
-0.83
-0.97
-1.16
-1.35
-1.49
-1.54
-1.51
-1.45
-1.46
-1.60
-1.89
-2.28
-2.67
-2.96
-3.06
-2.97
-2.65
-2.10
-1.34
-0.44
0.48
1.24
1.66
1.66
1.31
0.81
0.40
0.26
0.46
0.89
1.37
1.73
1.87
1.82
1.66
1.47
1.29
1.13
0.98
0.82
0.69
0.64
0.70
0.84
1.00
1.08
1.06
0.93
0.74
0.54
0.37
0.23
0.10
-0.02
-0.15
-0.29
-0.40
-0.49
-0.53
-0.58
-0.68
-0.89
-1.23
-1.64
-2.05
-2.38
-2.59
-2.68
-2.71
-2.69
-2.61
-2.44
-2.14
-1.73
-1.25
-0.75
-0.28
0.15
0.52
0.86
1.16
1.43
1.67
1.85
1.91
1.81
1.54
1.16
0.81
0.59
0.55
0.68
0.89
1.10
1.26
1.34
1.36
1.31
1.17
0.97
0.74
0.54
0.43
0.42
0.47
0.51
0.49
0.38
0.18
-0.08
-0.36
-0.60
-0.76
-0.85
-0.88
-0.92
-1.03
-1.26
-1.56
-1.89
-2.21
-2.53
-2.88
-3.29
-3.74
-4.12
-4.28
-4.09
-3.54
-2.74
-1.89
-1.15
-0.61
-0.22
0.13
0.51
0.92
1.27
1.46
1.42
1.23
1.02
0.97
1.15
1.55
2.03
2.43
2.63
2.59
2.35
1.99
1.62
1.30
1.07
0.95
0.94
1.05
1.26
1.53
1.76
1.86
1.72
1.35
0.82
0.28
-0.14
-0.37
-0.41
-0.37
-0.37
-0.45
-0.63
-0.83
-1.00
-1.10
-1.11
-1.03
-0.89
-0.67
-0.39
-0.03
0.39
0.87
1.37
1.90
2.43
2.94
3.39
3.75
3.95
3.98
3.83
3.54
3.19
2.85
2.63
2.56
2.63
2.79
2.97
3.10
3.17
3.17
3.09
2.94
2.69
2.32
1.83
1.27
0.74
0.28
-0.10
-0.42
-0.76
-1.17
-1.64
-2.12
-2.53
-2.80
-2.92
-2.93
-2.92
-2.99
-3.19
-3.56
-4.03
-4.53
-4.92
-5.10
-4.98
-4.59
-3.99
-3.28
-2.58
-1.95
-1.43
-0.98
-0.58
-0.19
0.20
0.58
0.94
1.27
1.57
1.82
2.02
2.15
2.17
2.09
1.90
1.65
1.37
1.12
0.91
0.74
0.61
0.45
0.27
0.06
-0.16
-0.33
-0.43
-0.46
-0.46
-0.44
-0.44
-0.47
-0.55
-0.69
-0.92
-1.23
-1.57
-1.87
-2.04
-2.05
-1.91
-1.74
-1.66
-1.79
-2.16
-2.70
-3.28
-3.72
-3.86
-3.62
-3.02
-2.18
-1.27
-0.45
0.20
0.65
0.94
1.10
1.14
1.03
0.78
0.45
0.19
0.17
0.45
0.98
1.58
2.04
2.22
2.12
1.86
1.59
1.37
1.18
0.99
0.77
0.58
0.44
0.39
0.36
0.27
0.10
-0.12
-0.27
-0.27
-0.13
0.04
0.08
-0.09
-0.43
-0.83
-1.14
-1.30
-1.32
-1.28
-1.26
-1.32
-1.53
-1.91
-2.46
-3.11
-3.73
-4.14
-4.14
-3.66
-2.74
-1.59
-0.45
0.46
1.05
1.37
1.53
1.64
1.77
1.88
1.94
1.91
1.80
1.69
1.62
1.60
1.60
1.54
1.38
1.15
0.93
0.85
0.97
1.28
1.65
1.92
1.93
1.62
1.04
0.38
-0.18
-0.48
-0.50
-0.29
-0.00
0.19
0.19
-0.03
-0.42
-0.86
-1.24
-1.53
-1.74
-1.90
-2.05
-2.19
-2.30
-2.36
-2.41
-2.47
-2.56
-2.63
-2.56
-2.27
-1.70
-0.95
-0.19
0.44
0.87
1.15
1.38
1.63
1.88
2.06
2.10
2.01
1.87
1.77
1.75
1.77
1.72
1.55
1.26
0.98
0.81
0.83
1.01
1.23
1.38
1.36
1.16
0.85
0.54
0.30
0.14
0.04
-0.10
-0.30
-0.55
-0.81
-0.99
-1.05
-1.04
-1.01
-1.07
-1.25
-1.55
-1.92
-2.30
-2.65
-2.91
-3.01
-2.89
-2.50
-1.89
-1.19
-0.57
-0.14
0.07
0.15
0.23
0.39
0.65
0.95
1.22
1.45
1.64
1.81
1.97
2.10
2.16
2.14
2.05
1.90
1.73
1.54
1.35
1.21
1.13
1.10
1.03
0.85
0.50
0.04
-0.42
-0.68
-0.66
-0.38
-0.01
0.24
0.21
-0.12
-0.63
-1.14
-1.50
-1.67
-1.73
-1.76
-1.89
-2.13
-2.45
-2.76
-2.97
-3.05
-2.95
-2.67
-2.25
-1.71
-1.16
-0.69
-0.33
-0.07
0.17
0.49
0.91
1.35
1.67
1.75
1.58
1.26
0.98
0.92
1.12
1.46
1.80
1.98
1.96
1.79
1.58
1.46
1.43
1.46
1.46
1.37
1.19
0.97
0.75
0.58
0.42
0.25
0.03
-0.23
-0.49
-0.69
-0.83
-0.91
-1.01
-1.17
-1.41
-1.68
-1.93
-2.14
-2.33
-2.53
-2.79
-3.10
-3.38
-3.54
-3.43
-3.03
-2.34
-1.48
-0.60
0.16
0.71
1.04
1.18
1.19
1.14
1.10
1.09
1.12
1.19
1.27
1.36
1.44
1.50
1.52
1.51
1.45
1.32
1.15
0.99
0.89
0.88
0.94
0.99
0.96
0.81
0.53
0.20
-0.10
-0.34
-0.51
-0.65
-0.78
-0.92
-1.04
-1.12
-1.14
-1.10
-1.06
-1.05
-1.12
-1.27
-1.50
-1.76
-1.99
-2.17
-2.29
-2.39
-2.45
-2.44
-2.28
-1.86
-1.15
-0.24
0.72
1.52
2.03
2.23
2.19
2.05
1.89
1.77
1.72
1.76
1.91
2.17
2.47
2.69
2.68
2.36
1.79
1.16
0.67
0.46
0.52
0.70
0.82
0.76
0.52
0.19
-0.09
-0.24
-0.27
-0.22
-0.20
-0.26
-0.41
-0.60
-0.73
-0.76
-0.69
-0.59
-0.56
-0.68
-1.00
-1.45
-1.93
-2.32
-2.48
-2.36
-1.95
-1.32
-0.58
0.11
0.65
0.94
1.02
0.97
0.89
0.86
0.88
0.93
0.98
1.05
1.20
1.46
1.80
2.13
2.32
2.28
2.05
1.74
1.52
1.49
1.62
1.82
1.95
1.90
1.68
1.33
0.93
0.51
0.12
-0.25
-0.57
-0.84
-1.02
-1.11
-1.11
-1.09
-1.07
-1.10
-1.23
-1.45
-1.78
-2.18
-2.56
-2.81
-2.83
-2.57
-2.09
-1.50
-0.95
-0.52
-0.21
0.07
0.43
0.94
1.59
2.24
2.76
3.00
2.92
2.58
2.12
1.70
1.44
1.38
1.46
1.60
1.72
1.80
1.83
1.85
1.85
1.79
1.63
1.37
0.99
0.55
0.07
-0.42
-0.89
-1.29
-1.57
-1.68
-1.62
-1.44
-1.23
-1.08
-1.02
-1.02
-1.06
-1.13
-1.24
-1.43
-1.73
-2.09
-2.43
-2.68
-2.76
-2.64
-2.33
-1.86
-1.31
-0.76
-0.30
0.00
0.17
0.28
0.43
0.67
1.02
1.41
1.76
2.01
2.16
2.26
2.34
2.42
2.48
2.47
2.37
2.20
2.02
1.90
1.88
1.89
1.86
1.69
1.37
0.97
0.62
0.42
0.41
0.49
0.53
0.42
0.12
-0.31
-0.78
-1.16
-1.40
-1.52
-1.58
-1.66
-1.76
-1.89
-1.99
-2.01
-1.96
-1.86
-1.77
-1.72
-1.67
-1.55
-1.27
-0.79
-0.17
0.47
1.02
1.38
1.54
1.61
1.70
1.90
2.21
2.56
2.84
3.00
3.04
3.04
3.06
3.13
3.19
3.21
3.15
3.04
2.97
2.98
3.04
3.09
3.05
2.87
2.61
2.35
2.21
2.19
2.30
2.44
2.56
2.61
2.56
2.39
2.14
1.84
1.54
1.33
1.23
1.21
1.16
0.96
0.50
-0.24
-1.19
-2.21
-3.14
-3.85
-4.30
-4.50
-4.52
-4.48
-4.49
-4.64
-4.97
-5.45
-5.98
-6.46
-6.80
-6.98
-7.06
-7.14
-7.25
-7.40
-7.49
-7.38
-7.00
-6.33
-5.47
-4.57
-3.76
-3.12
-2.63
-2.23
-1.83
-1.34
-0.71
0.08
0.98
1.88
2.65
3.20
3.53
3.68
3.76
3.86
4.04
4.28
4.55
4.80
5.03
5.24
5.44
5.61
5.72
5.71
5.53
5.16
4.61
3.95
3.27
2.65
2.08
1.50
0.82
0.03
-0.80
-1.55
-2.07
-2.35
-2.44
-2.51
-2.64
-2.86
-3.08
-3.16
-3.04
-2.74
-2.36
-1.99
-1.66
-1.33
-0.91
-0.38
0.25
0.88
1.40
1.72
1.81
1.72
1.54
1.35
1.25
1.25
1.32
1.42
1.46
1.44
1.37
1.31
1.31
1.37
1.42
1.37
1.12
0.65
0.05
-0.52
-0.90
-0.95
-0.65
-0.07
0.67
1.40
1.96
2.28
2.35
2.20
1.91
1.60
1.31
1.10
0.96
0.86
0.82
0.84
0.98
1.25
1.63
2.04
2.39
2.57
2.57
2.39
2.09
1.74
1.37
0.95
0.45
-0.13
-0.77
-1.37
-1.83
-2.12
-2.25
-2.35
-2.53
-2.85
-3.28
-3.71
-4.04
-4.23
-4.31
-4.38
-4.54
-4.82
-5.19
-5.58
-5.93
-6.22
-6.47
-6.66
-6.72
-6.58
-6.15
-5.44
-4.51
-3.51
-2.57
-1.80
-1.20
-0.75
-0.38
-0.05
0.24
0.47
0.62
0.72
0.81
0.92
1.09
1.30
1.53
1.72
1.85
1.91
1.87
1.72
1.49
1.21
0.93
0.73
0.64
0.67
0.78
0.89
0.96
0.96
0.90
0.78
0.60
0.35
0.02
-0.35
-0.67
-0.88
-0.95
-0.91
-0.89
-1.01
-1.36
-1.92
-2.54
-3.07
-3.35
-3.35
-3.09
-2.67
-2.16
-1.61
-1.00
-0.33
0.36
1.00
1.48
1.74
1.81
1.77
1.73
1.80
2.00
2.29
2.59
2.84
3.03
3.17
3.29
3.40
3.48
3.50
3.44
3.27
3.02
2.72
2.43
2.17
1.99
1.86
1.73
1.53
1.22
0.81
0.36
-0.03
-0.27
-0.35
-0.30
-0.24
-0.25
-0.36
-0.55
-0.71
-0.78
-0.75
-0.69
-0.75
-1.02
-1.53
-2.20
-2.92
-3.54
-3.97
-4.18
-4.16
-3.93
-3.53
-2.99
-2.38
-1.83
-1.42
-1.17
-1.02
-0.86
-0.58
-0.17
0.31
0.70
0.90
0.86
0.68
0.47
0.41
0.54
0.87
1.29
1.71
2.06
2.33
2.50
2.59
2.54
2.34
2.01
1.62
1.28
1.08
1.02
0.98
0.84
0.50
0.01
-0.51
-0.87
-0.95
-0.78
-0.53
-0.36
-0.42
-0.74
-1.26
-1.89
-2.57
-3.21
-3.77
-4.15
-4.24
-3.98
-3.38
-2.56
-1.69
-0.94
-0.38
0.03
0.35
0.68
1.01
1.27
1.43
1.44
1.33
1.17
1.01
0.86
0.73
0.61
0.53
0.54
0.68
0.95
1.30
1.61
1.79
1.77
1.56
1.22
0.86
0.52
0.24
0.02
-0.18
-0.40
-0.66
-0.95
-1.23
-1.44
-1.51
-1.43
-1.18
-0.84
-0.47
-0.16
0.05
0.15
0.21
0.31
0.54
0.97
1.60
2.40
3.28
4.19
5.08
5.90
6.65
7.34
7.93
8.38
8.66
8.71
8.51
8.05
7.33
6.35
5.16
3.85
2.51
1.25
0.12
-0.88
-1.78
-2.63
-3.43
-4.16
-4.77
-5.19
-5.43
-5.57
-5.72
-5.99
-6.40
-6.90
-7.41
-7.82
-8.11
-8.26
-8.33
-8.36
-8.36
-8.36
-8.35
-8.36
-8.45
-8.70
-9.19
-9.98
-11.03
-12.19
-13.25
-13.95
-14.10
-13.59
-12.45
-10.86
-9.09
-7.39
-5.96
-4.86
-4.01
-3.24
-2.36
-1.24
0.09
1.50
2.81
3.89
4.72
5.36
5.93
6.48
7.04
7.55
7.95
8.24
8.41
8.51
8.57
8.60
8.60
8.57
8.49
8.39
8.26
8.14
8.04
7.95
7.85
7.72
7.51
7.19
6.80
6.36
5.94
5.57
5.28
5.03
4.76
4.41
3.92
3.30
2.58
1.86
1.18
0.60
0.13
-0.24
-0.48
-0.58
-0.51
-0.27
0.08
0.39
0.55
0.44
0.05
-0.52
-1.09
-1.46
-1.48
-1.11
-0.43
0.40
1.16
1.69
1.91
1.84
1.57
1.20
0.83
0.53
0.33
0.22
0.17
0.14
0.07
-0.09
-0.32
-0.59
-0.82
-0.94
-0.94
-0.83
-0.67
-0.52
-0.41
-0.33
-0.26
-0.21
-0.17
-0.20
-0.31
-0.50
-0.67
-0.72
-0.53
-0.09
0.51
1.11
1.51
1.60
1.40
1.07
0.80
0.76
0.98
1.36
1.77
2.07
2.20
2.19
2.06
1.85
1.60
1.35
1.15
1.08
1.20
1.51
1.96
2.46
2.88
3.16
3.26
3.20
3.05
2.89
2.81
2.86
3.06
3.38
3.76
4.10
4.32
4.38
4.29
4.09
3.91
3.83
3.95
4.26
4.69
5.12
5.44
5.55
5.43
5.09
4.55
3.88
3.19
2.66
2.45
2.63
3.08
3.51
3.55
2.93
1.62
-0.15
-1.98
-3.49
-4.44
-4.79
-4.69
-4.31
-3.83
-3.42
-3.18
-3.21
-3.56
-4.19
-4.94
-5.64
-6.09
-6.22
-6.09
-5.87
-5.70
-5.68
-5.81
-5.99
-6.11
-6.14
-6.12
-6.15
-6.28
-6.52
-6.79
-7.00
-7.08
-7.02
-6.88
-6.67
-6.40
-6.03
-5.54
-4.94
-4.27
-3.61
-3.04
-2.58
-2.23
-1.95
-1.70
-1.47
-1.26
-1.07
-0.89
-0.69
-0.39
0.07
0.71
1.43
2.06
2.45
2.52
2.35
2.16
2.15
2.39
2.82
3.24
3.47
3.44
3.22
2.96
2.79
2.77
2.88
3.08
3.34
3.64
3.96
4.20
4.23
3.96
3.34
2.40
1.25
-0.02
-1.37
-2.74
-4.09
-5.29
-6.22
-6.75
-6.84
-6.58
-6.14
-5.69
-5.39
-5.24
-5.17
-5.01
-4.63
-4.02
-3.22
-2.42
-1.74
-1.28
-1.01
-0.83
-0.63
-0.35
-0.01
0.33
0.62
0.88
1.13
1.42
1.72
1.99
2.17
2.25
2.25
2.21
2.17
2.12
2.04
1.94
1.81
1.65
1.45
1.21
0.94
0.68
0.54
0.54
0.67
0.77
0.67
0.24
-0.50
-1.36
-2.07
-2.42
-2.30
-1.79
-1.07
-0.32
0.30
0.72
0.97
1.09
1.12
1.11
1.09
1.08
1.13
1.25
1.44
1.65
1.83
1.94
1.96
1.86
1.64
1.32
0.93
0.56
0.31
0.25
0.39
0.67
0.98
1.20
1.29
1.24
1.10
0.92
0.73
0.53
0.30
0.06
-0.21
-0.49
-0.78
-1.07
-1.34
-1.59
-1.85
-2.13
-2.47
-2.82
-3.08
-3.09
-2.74
-2.03
-1.12
-0.23
0.43
0.78
0.87
0.85
0.86
0.96
1.10
1.22
1.25
1.25
1.25
1.34
1.50
1.69
1.82
1.86
1.82
1.77
1.76
1.80
1.87
1.94
1.97
1.92
1.80
1.59
1.30
0.96
0.60
0.30
0.09
-0.03
-0.08
-0.12
-0.19
-0.31
-0.51
-0.79
-1.15
-1.58
-2.02
-2.39
-2.58
-2.49
-2.08
-1.38
-0.54
0.27
0.92
1.34
1.57
1.74
1.93
2.19
2.45
2.61
2.58
2.35
1.99
1.63
1.37
1.25
1.27
1.40
1.60
1.87
2.15
2.41
2.59
2.63
2.54
2.35
2.12
1.90
1.76
1.72
1.76
1.83
1.86
1.75
1.50
1.15
0.80
0.54
0.41
0.34
0.23
-0.02
-0.42
-0.89
-1.33
-1.68
-1.91
-2.07
-2.17
-2.23
-2.22
-2.16
-2.13
-2.25
-2.62
-3.28
-4.16
-5.11
-5.96
-6.58
-6.98
-7.21
-7.37
-7.55
-7.74
-7.89
-7.93
-7.81
-7.53
-7.12
-6.62
-6.03
-5.31
-4.46
-3.51
-2.55
-1.71
-1.08
-0.63
-0.22
0.29
0.99
1.82
2.58
3.10
3.27
3.15
2.92
2.75
2.72
2.82
2.98
3.10
3.15
3.12
2.98
2.73
2.36
1.90
1.43
1.07
0.88
0.89
1.04
1.27
1.57
1.94
2.42
3.01
3.63
4.13
4.36
4.27
3.92
3.47
3.11
2.97
3.04
3.22
3.34
3.32
3.14
2.87
2.58
2.35
2.17
2.01
1.83
1.57
1.23
0.83
0.47
0.25
0.23
0.39
0.60
0.69
0.53
0.13
-0.36
-0.76
-0.91
-0.80
-0.51
-0.20
0.05
0.20
0.26
0.23
0.07
-0.21
-0.55
-0.81
-0.85
-0.56
0.04
0.82
1.60
2.22
2.64
2.91
3.15
3.40
3.68
3.93
4.10
4.17
4.14
4.07
4.02
4.02
4.12
4.32
4.61
4.96
5.32
5.65
5.90
6.07
6.10
5.92
5.48
4.73
3.72
2.55
1.35
0.21
-0.93
-2.17
-3.61
-5.22
-6.87
-8.32
-9.40
-10.07
-10.40
-10.56
-10.67
-10.78
-10.83
-10.73
-10.39
-9.78
-8.94
-7.98
-6.98
-6.02
-5.10
-4.24
-3.44
-2.71
-2.10
-1.58
-1.11
-0.58
0.05
0.77
1.47
2.02
2.32
2.38
2.30
2.22
2.22
2.31
2.42
2.46
2.35
2.11
1.80
1.49
1.20
0.90
0.55
0.12
-0.36
-0.77
-1.00
-1.01
-0.84
-0.65
-0.58
-0.72
-1.02
-1.35
-1.58
-1.61
-1.45
-1.13
-0.71
-0.24
0.26
0.72
1.07
1.23
1.22
1.10
0.97
0.93
0.98
1.08
1.14
1.09
0.88
0.52
0.05
-0.44
-0.85
-1.07
-1.04
-0.79
-0.46
-0.22
-0.19
-0.40
-0.75
-1.06
-1.20
-1.10
-0.85
-0.57
-0.41
-0.42
-0.60
-0.86
-1.11
-1.30
-1.41
-1.50
-1.61
-1.78
-2.01
-2.28
-2.57
-2.89
-3.22
-3.53
-3.72
-3.72
-3.44
-2.90
-2.20
-1.48
-0.89
-0.48
-0.22
-0.00
0.27
0.62
1.01
1.36
1.61
1.79
1.97
2.21
2.55
2.96
3.35
3.64
3.81
3.89
3.93
3.99
4.08
4.18
4.27
4.32
4.33
4.31
4.27
4.25
4.24
4.29
4.39
4.57
4.80
5.11
5.49
5.92
6.38
6.80
7.14
7.31
7.30
7.13
6.87
6.58
6.32
6.10
5.89
5.59
5.13
4.40
3.34
1.91
0.12
-1.95
-4.12
-6.19
-7.93
-9.19
-9.95
-10.27
-10.29
-10.12
-9.83
-9.43
-8.94
-8.38
-7.78
-7.20
-6.67
-6.18
-5.72
-5.25
-4.76
-4.20
-3.55
-2.75
-1.84
-0.88
0.01
0.69
1.07
1.11
0.82
0.20
-0.69
-1.76
-2.87
-3.84
-4.45
-4.51
-3.90
-2.66
-0.96
0.83
2.32
3.21
3.37
2.93
2.16
1.37
0.75
0.34
0.08
-0.10
-0.24
-0.31
-0.26
-0.13
-0.02
-0.04
-0.26
-0.68
-1.24
-1.86
-2.48
-3.10
-3.71
-4.32
-4.88
-5.31
-5.52
-5.46
-5.17
-4.72
-4.22
-3.75
-3.33
-2.95
-2.60
-2.28
-2.02
-1.87
-1.85
-1.95
-2.13
-2.27
-2.32
-2.24
-2.06
-1.85
-1.68
-1.56
-1.46
-1.31
-1.07
-0.79
-0.54
-0.38
-0.33
-0.29
-0.14
0.20
0.71
1.30
1.78
2.06
2.10
1.97
1.81
1.68
1.63
1.63
1.64
1.62
1.58
1.54
1.52
1.53
1.54
1.52
1.49
1.49
1.56
1.73
1.96
2.15
2.24
2.16
1.95
1.70
1.46
1.29
1.17
1.04
0.85
0.58
0.25
-0.11
-0.45
-0.77
-1.11
-1.47
-1.88
-2.27
-2.58
-2.76
-2.82
-2.76
-2.63
-2.42
-2.08
-1.56
-0.88
-0.11
0.62
1.17
1.47
1.53
1.43
1.28
1.13
1.00
0.89
0.80
0.76
0.80
0.89
1.00
1.03
0.96
0.78
0.58
0.45
0.48
0.72
1.11
1.56
1.97
2.25
2.38
2.38
2.31
2.25
2.27
2.38
2.57
2.78
2.91
2.88
2.62
2.15
1.55
1.00
0.66
0.60
0.79
1.07
1.26
1.24
1.06
0.86
0.82
1.06
1.53
2.10
2.60
2.91
3.05
3.09
3.15
3.37
3.84
4.66
5.87
7.44
9.19
10.76
11.70
11.60
10.26
7.86
4.88
1.93
-0.47
-2.10
-3.02
-3.49
-3.77
-4.00
-4.16
-4.15
-3.94
-3.55
-3.07
-2.57
-2.07
-1.54
-0.95
-0.23
0.67
1.84
3.38
5.34
7.61
9.97
12.06
13.54
14.17
13.84
12.60
10.54
7.87
4.84
1.84
-0.75
-2.61
-3.63
-3.95
-3.86
-3.65
-3.54
-3.57
-3.71
-3.90
-4.14
-4.45
-4.82
-5.17
-5.40
-5.40
-5.15
-4.71
-4.20
-3.73
-3.32
-2.93
-2.52
-2.10
-1.74
-1.57
-1.65
-1.97
-2.45
-2.95
-3.41
-3.79
-4.12
-4.39
-4.57
-4.61
-4.47
-4.19
-3.86
-3.58
-3.40
-3.33
-3.33
-3.37
-3.44
-3.54
-3.66
-3.76
-3.75
-3.60
-3.29
-2.89
-2.50
-2.23
-2.15
-2.24
-2.47
-2.76
-3.12
-3.57
-4.18
-4.98
-5.91
-6.83
-7.54
-7.86
-7.78
-7.39
-6.87
-6.39
-6.00
-5.66
-5.29
-4.81
-4.23
-3.64
-3.15
-2.82
-2.62
-2.41
-2.04
-1.43
-0.63
0.20
0.86
1.24
1.35
1.34
1.38
1.55
1.81
2.03
2.07
1.92
1.67
1.52
1.60
1.96
2.48
3.01
3.40
3.57
3.58
3.48
3.34
3.18
2.99
2.79
2.63
2.60
2.72
2.98
3.28
3.49
3.51
3.34
3.07
2.85
2.83
3.12
3.72
4.57
5.51
6.42
7.20
7.83
8.33
8.79
9.24
9.71
10.24
10.83
11.48
12.17
12.78
13.20
13.33
13.21
13.05
13.15
13.79
15.04
16.66
18.16
18.91
18.41
16.44
13.15
8.99
4.53
0.34
-3.18
-5.83
-7.60
-8.61
-9.04
-9.12
-9.10
-9.18
-9.48
-10.02
-10.72
-11.41
-11.97
-12.35
-12.64
-12.94
-13.36
-13.87
-14.35
-14.63
-14.55
-14.08
-13.26
-12.14
-10.76
-9.13
-7.26
-5.23
-3.16
-1.18
0.63
2.29
3.83
5.26
6.45
7.18
7.20
6.41
4.88
2.84
0.66
-1.36
-3.01
-4.20
-4.95
-5.33
-5.46
-5.44
-5.41
-5.47
-5.62
-5.83
-6.02
-6.11
-6.15
-6.24
-6.52
-7.09
-7.92
-8.90
-9.84
-10.52
-10.75
-10.36
-9.27
-7.46
-5.05
-2.27
0.55
3.11
5.27
7.00
8.45
9.78
11.03
12.12
12.87
13.08
12.66
11.65
10.17
8.34
6.24
3.87
1.28
-1.45
-4.15
-6.58
-8.50
-9.76
-10.31
-10.26
-9.80
-9.12
-8.37
-7.57
-6.68
-5.64
-4.43
-3.08
-1.72
-0.46
0.60
1.48
2.25
3.00
3.79
4.57
5.25
5.73
5.96
5.94
5.77
5.53
5.27
4.96
4.59
4.12
3.60
3.11
2.75
2.59
2.61
2.77
2.97
3.14
3.25
3.27
3.22
3.08
2.84
2.50
2.05
1.57
1.12
0.80
0.64
0.61
0.64
0.60
0.40
0.01
-0.52
-1.09
-1.56
-1.80
-1.71
-1.32
-0.68
0.05
0.72
1.18
1.35
1.28
1.05
0.82
0.71
0.76
0.97
1.29
1.67
2.09
2.60
3.22
3.93
4.65
5.21
5.50
5.45
5.14
4.69
4.23
3.77
3.28
2.63
1.78
0.77
-0.29
-1.23
-1.99
-2.57
-3.04
-3.50
-3.96
-4.41
-4.83
-5.20
-5.56
-5.92
-6.24
-6.42
-6.30
-5.76
-4.80
-3.52
-2.12
-0.79
0.33
1.18
1.79
2.24
2.60
2.93
3.23
3.51
3.73
3.88
3.95
3.95
3.87
3.71
3.46
3.10
2.67
2.22
1.80
1.45
1.16
0.88
0.55
0.14
-0.32
-0.76
-1.09
-1.26
-1.25
-1.14
-1.03
-1.00
-1.11
-1.35
-1.65
-1.90
-2.02
-1.96
-1.70
-1.31
-0.86
-0.47
-0.27
-0.33
-0.67
-1.21
-1.77
-2.12
-2.10
-1.61
-0.72
0.42
1.55
2.44
2.95
3.07
2.93
2.73
2.65
2.75
3.00
3.25
3.38
3.34
3.22
3.12
3.16
3.30
3.39
3.26
2.82
2.10
1.27
0.56
0.10
-0.10
-0.18
-0.33
-0.67
-1.19
-1.75
-2.18
-2.38
-2.36
-2.25
-2.19
-2.26
-2.46
-2.68
-2.84
-2.87
-2.78
-2.60
-2.40
-2.20
-2.04
-1.93
-1.89
-1.90
-1.92
-1.86
-1.64
-1.25
-0.73
-0.18
0.28
0.62
0.88
1.18
1.60
2.15
2.73
3.20
3.43
3.38
3.10
2.70
2.28
1.88
1.49
1.07
0.60
0.09
-0.43
-0.89
-1.26
-1.57
-1.84
-2.16
-2.54
-2.99
-3.41
-3.71
-3.82
-3.72
-3.49
-3.24
-3.05
-2.97
-2.98
-3.05
-3.14
-3.21
-3.25
-3.24
-3.13
-2.89
-2.55
-2.20
-1.98
-1.97
-2.14
-2.38
-2.52
-2.44
-2.13
-1.67
-1.15
-0.68
-0.28
0.03
0.28
0.47
0.62
0.75
0.87
0.98
1.05
1.03
0.89
0.63
0.31
0.04
-0.10
-0.10
-0.01
0.10
0.12
0.01
-0.23
-0.53
-0.80
-0.92
-0.84
-0.58
-0.22
0.10
0.27
0.26
0.08
-0.17
-0.43
-0.66
-0.84
-0.98
-1.07
-1.07
-0.98
-0.83
-0.65
-0.51
-0.42
-0.36
-0.29
-0.15
0.09
0.41
0.78
1.17
1.55
1.90
2.18
2.35
2.31
2.05
1.59
1.04
0.55
0.23
0.15
0.22
0.33
0.36
0.29
0.16
0.07
0.10
0.22
0.41
0.61
0.78
0.91
1.00
1.00
0.90
0.69
0.41
0.13
-0.08
-0.22
-0.33
-0.46
-0.62
-0.78
-0.90
-0.97
-1.02
-1.07
-1.19
-1.36
-1.58
-1.83
-2.07
-2.28
-2.37
-2.23
-1.78
-1.03
-0.08
0.84
1.53
1.85
1.81
1.55
1.27
1.14
1.19
1.34
1.45
1.42
1.25
1.05
0.94
1.02
1.27
1.57
1.78
1.83
1.72
1.50
1.26
1.03
0.81
0.58
0.34
0.08
-0.17
-0.40
-0.59
-0.75
-0.86
-0.96
-1.06
-1.17
-1.32
-1.49
-1.65
-1.79
-1.90
-2.02
-2.19
-2.40
-2.61
-2.76
-2.84
-2.87
-2.92
-3.00
-3.08
-3.02
-2.70
-2.03
-1.07
0.02
1.04
1.78
2.16
2.19
1.99
1.68
1.38
1.16
1.07
1.10
1.19
1.31
1.39
1.41
1.37
1.30
1.28
1.33
1.44
1.54
1.57
1.49
1.30
1.06
0.81
0.58
0.38
0.21
0.07
-0.02
-0.05
-0.03
-0.01
-0.03
-0.12
-0.27
-0.43
-0.53
-0.54
-0.46
-0.32
-0.23
-0.28
-0.56
-1.05
-1.69
-2.33
-2.79
-2.94
-2.75
-2.28
-1.68
-1.10
-0.62
-0.22
0.15
0.54
0.94
1.30
1.54
1.67
1.73
1.79
1.88
1.95
1.94
1.79
1.51
1.22
1.06
1.11
1.34
1.62
1.81
1.79
1.57
1.20
0.75
0.29
-0.11
-0.43
-0.64
-0.74
-0.76
-0.77
-0.87
-1.14
-1.58
-2.13
-2.65
-3.01
-3.10
-2.92
-2.58
-2.24
-2.06
-2.14
-2.41
-2.72
-2.86
-2.70
-2.20
-1.50
-0.76
-0.12
0.35
0.70
0.98
1.24
1.48
1.65
1.73
1.73
1.70
1.67
1.64
1.58
1.45
1.24
0.99
0.77
0.65
0.68
0.82
1.00
1.10
1.03
0.76
0.35
-0.04
-0.25
-0.22
0.03
0.35
0.53
0.44
0.08
-0.46
-0.97
-1.30
-1.38
-1.23
-0.98
-0.78
-0.77
-1.01
-1.45
-1.98
-2.44
-2.69
-2.64
-2.29
-1.69
-0.97
-0.26
0.35
0.77
1.01
1.07
1.04
1.00
1.04
1.18
1.44
1.74
1.96
1.99
1.80
1.46
1.12
0.94
1.00
1.26
1.57
1.77
1.75
1.55
1.26
1.00
0.84
0.78
0.77
0.76
0.72
0.64
0.52
0.34
0.08
-0.27
-0.68
-1.12
-1.53
-1.86
-2.09
-2.21
-2.29
-2.40
-2.59
-2.92
-3.36
-3.86
-4.29
-4.52
-4.43
-3.97
-3.21
-2.28
-1.37
-0.61
-0.06
0.31
0.63
1.04
1.59
2.27
2.97
3.59
4.07
4.41
4.61
4.67
4.59
4.33
3.92
3.43
2.97
2.63
2.47
2.44
2.44
2.37
2.18
1.88
1.55
1.28
1.12
1.01
0.87
0.61
0.23
-0.22
-0.59
-0.79
-0.80
-0.71
-0.63
-0.65
-0.77
-0.92
-0.97
-0.86
-0.63
-0.37
-0.19
-0.19
-0.38
-0.74
-1.21
-1.72
-2.17
-2.48
-2.58
-2.45
-2.11
-1.63
-1.11
-0.63
-0.26
-0.00
0.15
0.24
0.30
0.36
0.46
0.64
0.90
1.24
1.62
2.01
2.36
2.63
2.78
2.81
2.73
2.52
2.21
1.84
1.45
1.12
0.93
0.91
1.01
1.12
1.11
0.89
0.48
-0.00
-0.40
-0.59
-0.55
-0.38
-0.22
-0.21
-0.38
-0.72
-1.13
-1.53
-1.88
-2.16
-2.41
-2.66
-2.93
-3.25
-3.62
-3.99
-4.25
-4.25
-3.90
-3.18
-2.20
-1.18
-0.33
0.20
0.43
0.46
0.43
0.46
0.55
0.69
0.83
0.93
0.99
1.01
1.03
1.05
1.13
1.27
1.46
1.65
1.73
1.65
1.40
1.10
0.87
0.81
0.87
0.95
0.93
0.77
0.51
0.26
0.11
0.10
0.18
0.26
0.25
0.12
-0.12
-0.45
-0.82
-1.16
-1.43
-1.61
-1.70
-1.73
-1.75
-1.79
-1.80
-1.71
-1.43
-0.92
-0.22
0.57
1.30
1.87
2.20
2.32
2.25
2.05
1.74
1.36
0.93
0.52
0.16
-0.11
-0.27
-0.34
-0.32
-0.20
0.05
0.41
0.86
1.31
1.65
1.80
1.70
1.39
0.96
0.53
0.20
-0.01
-0.12
-0.20
-0.30
-0.44
-0.60
-0.70
-0.70
-0.59
-0.43
-0.29
-0.29
-0.49
-0.88
-1.35
-1.74
-1.86
-1.60
-0.96
-0.07
0.86
1.66
2.23
2.58
2.79
2.91
2.93
2.81
2.51
2.05
1.53
1.05
0.69
0.46
0.30
0.13
-0.09
-0.33
-0.55
-0.74
-0.89
-1.07
-1.30
-1.56
-1.78
-1.88
-1.82
-1.63
-1.40
-1.21
-1.11
-1.09
-1.14
-1.24
-1.43
-1.72
-2.05
-2.29
-2.32
-2.06
-1.57
-1.03
-0.67
-0.66
-1.00
-1.55
-2.05
-2.27
-2.06
-1.46
-0.62
0.27
1.08
1.74
2.26
2.66
2.93
3.05
3.01
2.85
2.67
2.57
2.59
2.69
2.76
2.70
2.50
2.27
2.13
2.17
2.35
2.51
2.49
2.19
1.68
1.10
0.65
0.43
0.44
0.57
0.69
0.68
0.54
0.30
0.08
-0.04
-0.03
0.11
0.29
0.40
0.35
0.11
-0.26
-0.68
-1.05
-1.30
-1.44
-1.51
-1.59
-1.73
-1.96
-2.27
-2.62
-2.93
-3.14
-3.18
-2.99
-2.59
-2.05
-1.46
-0.94
-0.52
-0.19
0.13
0.49
0.90
1.27
1.49
1.45
1.16
0.80
0.57
0.66
1.07
1.65
2.13
2.29
2.07
1.62
1.16
0.91
0.92
1.09
1.26
1.30
1.21
1.05
0.88
0.74
0.56
0.32
0.05
-0.14
-0.16
0.05
0.39
0.68
0.75
0.50
-0.02
-0.63
-1.14
-1.44
-1.49
-1.36
-1.17
-1.05
-1.09
-1.31
-1.62
-1.90
-2.00
-1.86
-1.47
-0.98
-0.53
-0.23
-0.07
0.03
0.14
0.30
0.43
0.46
0.36
0.22
0.17
0.30
0.64
1.07
1.43
1.61
1.57
1.38
1.12
0.90
0.73
0.63
0.56
0.51
0.49
0.49
0.49
0.48
0.44
0.37
0.28
0.16
0.02
-0.11
-0.19
-0.21
-0.18
-0.17
-0.25
-0.46
-0.73
-0.97
-1.07
-0.99
-0.81
-0.66
-0.68
-0.91
-1.32
-1.77
-2.15
-2.36
-2.38
-2.22
-1.90
-1.47
-1.00
-0.56
-0.21
0.02
0.16
0.29
0.50
0.85
1.32
1.81
2.16
2.25
2.05
1.66
1.26
1.04
1.11
1.45
1.94
2.45
2.89
3.25
3.55
3.83
4.06
4.20
4.25
4.23
4.20
4.20
4.28
4.43
4.62
4.82
5.00
5.11
5.13
5.09
5.03
5.03
5.16
5.44
5.83
6.24
6.54
6.59
6.24
5.35
3.90
2.01
-0.03
-1.81
-3.01
-3.54
-3.59
-3.52
-3.69
-4.26
-5.14
-6.09
-6.91
-7.52
-8.01
-8.54
-9.15
-9.78
-10.26
-10.42
-10.22
-9.75
-9.16
-8.57
-8.03
-7.47
-6.80
-5.99
-5.09
-4.22
-3.48
-2.91
-2.47
-2.05
-1.57
-0.98
-0.28
0.44
1.10
1.62
1.91
1.97
1.84
1.62
1.47
1.52
1.84
2.34
2.90
3.37
3.69
3.93
4.20
4.64
5.31
6.15
7.01
7.69
8.04
7.97
7.45
6.53
5.30
3.92
2.55
1.36
0.44
-0.15
-0.48
-0.62
-0.66
-0.66
-0.67
-0.72
-0.88
-1.23
-1.84
-2.73
-3.84
-5.03
-6.17
-7.13
-7.86
-8.33
-8.56
-8.60
-8.55
-8.51
-8.60
-8.85
-9.19
-9.45
-9.40
-8.91
-7.97
-6.75
-5.51
-4.46
-3.70
-3.23
-2.99
-2.91
-2.95
-3.03
-3.05
-2.81
-2.20
-1.22
-0.08
0.91
1.50
1.61
1.38
1.09
0.96
1.09
1.44
1.85
2.21
2.48
2.69
2.92
3.21
3.61
4.15
4.83
5.64
6.53
7.31
7.78
7.78
7.26
6.38
5.39
4.57
4.09
3.94
3.98
4.05
4.05
3.96
3.86
3.77
3.67
3.44
2.96
2.13
0.90
-0.65
-2.36
-4.00
-5.35
-6.20
-6.47
-6.25
-5.76
-5.29
-5.08
-5.26
-5.78
-6.43
-6.97
-7.20
-7.04
-6.64
-6.23
-6.09
-6.38
-7.05
-7.83
-8.32
-8.12
-6.98
-4.88
-2.04
1.20
4.42
7.28
9.50
10.87
11.27
10.66
9.14
6.95
4.45
2.05
0.07
-1.30
-2.09
-2.48
-2.73
-3.06
-3.63
-4.42
-5.28
-5.98
-6.26
-5.96
-5.11
-3.93
-2.71
-1.73
-1.09
-0.70
-0.35
0.11
0.74
1.42
1.93
2.13
1.97
1.53
1.05
0.80
1.09
2.15
4.08
6.70
9.62
12.21
13.83
14.08
12.94
10.85
8.50
6.58
5.53
5.39
5.83
6.35
6.45
5.86
4.57
2.85
1.15
-0.11
-0.64
-0.47
0.18
0.95
1.58
2.04
2.50
3.22
4.28
5.53
6.56
6.89
6.20
4.53
2.26
0.04
-1.47
-1.77
-0.69
1.63
4.66
7.49
8.96
7.87
3.45
-4.23
-14.02
-23.94
-31.84
-36.16
-36.49
-33.63
-29.05
-24.20
-19.96
-16.50
-13.55
-10.83
-8.30
-6.13
-4.48
-3.30
-2.23
-0.84
1.21
3.87
6.76
9.30
10.98
11.62
11.42
10.84
10.42
10.49
11.10
11.96
12.68
12.91
12.49
11.53
10.34
9.27
8.58
8.35
8.48
8.77
8.99
9.00
8.75
8.32
7.79
7.24
6.70
6.14
5.54
4.86
4.15
3.45
2.77
2.11
1.41
0.63
-0.23
-1.11
-1.91
-2.56
-3.03
-3.42
-3.79
-4.21
-4.60
-4.84
-4.80
-4.45
-3.88
-3.28
-2.88
-2.78
-2.98
-3.36
-3.77
-4.06
-4.19
-4.17
-4.09
-4.05
-4.12
-4.31
-4.60
-4.92
-5.17
-5.27
-5.16
-4.86
-4.42
-3.90
-3.37
-2.84
-2.31
-1.78
-1.29
-0.91
-0.65
-0.49
-0.35
-0.09
0.31
0.82
1.27
1.55
1.61
1.51
1.38
1.30
1.30
1.33
1.36
1.38
1.44
1.59
1.81
2.05
2.21
2.23
2.10
1.88
1.64
1.41
1.21
1.01
0.75
0.44
0.11
-0.14
-0.26
-0.22
-0.06
0.10
0.18
0.19
0.20
0.35
0.71
1.25
1.83
2.25
2.40
2.28
2.02
1.78
1.68
1.71
1.80
1.85
1.80
1.68
1.56
1.52
1.58
1.67
1.75
1.77
1.74
1.72
1.75
1.80
1.80
1.68
1.42
1.09
0.78
0.61
0.62
0.72
0.78
0.64
0.25
-0.37
-1.06
-1.64
-1.98
-2.03
-1.82
-1.48
-1.12
-0.78
-0.42
-0.01
0.50
1.04
1.52
1.85
2.01
2.11
2.30
2.72
3.43
4.40
5.57
6.89
8.41
10.15
12.09
14.08
15.83
16.97
17.23
16.48
14.77
12.33
9.47
6.50
3.69
1.23
-0.80
-2.37
-3.55
-4.43
-5.12
-5.71
-6.23
-6.71
-7.14
-7.48
-7.68
-7.68
-7.44
-6.97
-6.32
-5.60
-4.95
-4.47
-4.23
-4.26
-4.61
-5.31
-6.40
-7.79
-9.32
-10.70
-11.66
-12.01
-11.72
-10.95
-9.93
-8.91
-8.01
-7.25
-6.60
-5.98
-5.38
-4.79
-4.21
-3.62
-2.98
-2.32
-1.68
-1.15
-0.81
-0.70
-0.77
-0.93
-1.07
-1.15
-1.13
-1.05
-0.93
-0.78
-0.60
-0.38
-0.13
0.14
0.38
0.59
0.73
0.80
0.84
0.87
0.93
1.04
1.19
1.36
1.50
1.57
1.57
1.53
1.47
1.41
1.36
1.31
1.27
1.26
1.30
1.40
1.52
1.59
1.57
1.47
1.34
1.24
1.18
1.10
0.91
0.57
0.08
-0.46
-0.90
-1.14
-1.14
-0.92
-0.56
-0.14
0.26
0.57
0.74
0.74
0.62
0.43
0.27
0.17
0.12
0.10
0.08
0.07
0.11
0.18
0.28
0.37
0.44
0.53
0.66
0.83
0.99
1.05
0.98
0.81
0.61
0.52
0.56
0.72
0.87
0.94
0.90
0.77
0.61
0.46
0.33
0.22
0.08
-0.08
-0.28
-0.51
-0.75
-0.95
-1.05
-0.98
-0.73
-0.38
-0.02
0.23
0.33
0.32
0.33
0.44
0.65
0.86
0.91
0.70
0.27
-0.22
-0.57
-0.61
-0.36
0.05
0.45
0.70
0.77
0.71
0.57
0.38
0.11
-0.27
-0.76
-1.27
-1.71
-1.99
-2.12
-2.19
-2.32
-2.62
-3.10
-3.70
-4.26
-4.66
-4.87
-4.93
-4.98
-5.12
-5.36
-5.59
-5.72
-5.66
-5.46
-5.21
-5.00
-4.83
-4.63
-4.28
-3.77
-3.15
-2.57
-2.16
-1.95
-1.86
-1.81
-1.67
-1.44
-1.16
-0.87
-0.63
-0.42
-0.20
0.08
0.44
0.87
1.30
1.69
2.01
2.23
2.37
2.46
2.53
2.62
2.74
2.87
3.01
3.16
3.32
3.54
3.82
4.15
4.51
4.89
5.26
5.64
6.01
6.33
6.55
6.62
6.51
6.28
5.97
5.67
5.40
5.17
4.98
4.83
4.73
4.66
4.59
4.43
4.15
3.76
3.29
2.83
2.45
2.21
2.13
2.17
2.29
2.38
2.30
1.96
1.34
0.53
-0.31
-1.00
-1.41
-1.54
-1.45
-1.29
-1.19
-1.22
-1.41
-1.71
-2.04
-2.31
-2.45
-2.39
-2.12
-1.67
-1.11
-0.51
0.03
0.41
0.56
0.49
0.24
-0.07
-0.32
-0.42
-0.36
-0.19
0.03
0.22
0.38
0.49
0.58
0.65
0.70
0.76
0.83
0.91
0.97
0.93
0.75
0.39
-0.08
-0.57
-0.95
-1.14
-1.14
-1.04
-0.97
-1.05
-1.30
-1.65
-1.99
-2.21
-2.24
-2.10
-1.84
-1.53
-1.22
-0.92
-0.60
-0.26
0.06
0.29
0.37
0.25
-0.02
-0.34
-0.58
-0.66
-0.58
-0.42
-0.29
-0.26
-0.35
-0.47
-0.53
-0.46
-0.24
0.04
0.25
0.30
0.14
-0.19
-0.60
-0.96
-1.14
-1.11
-0.88
-0.57
-0.30
-0.18
-0.24
-0.46
-0.77
-1.08
-1.30
-1.40
-1.36
-1.18
-0.88
-0.48
-0.02
0.45
0.84
1.07
1.09
0.94
0.70
0.52
0.46
0.54
0.64
0.65
0.51
0.25
0.01
-0.09
-0.01
0.18
0.35
0.39
0.29
0.12
-0.01
-0.03
0.02
0.08
0.10
0.08
0.07
0.12
0.23
0.31
0.28
0.13
-0.11
-0.36
-0.55
-0.63
-0.57
-0.33
0.10
0.75
1.51
2.23
2.72
2.89
2.78
2.55
2.38
2.36
2.45
2.53
2.44
2.14
1.66
1.14
0.69
0.43
0.36
0.46
0.64
0.77
0.78
0.61
0.28
-0.15
-0.57
-0.91
-1.12
-1.22
-1.24
-1.24
-1.22
-1.20
-1.17
-1.13
-1.08
-1.06
-1.08
-1.16
-1.30
-1.48
-1.68
-1.86
-2.00
-2.05
-1.97
-1.75
-1.37
-0.88
-0.37
0.06
0.31
0.33
0.10
-0.35
-0.96
-1.68
-2.47
-3.27
-4.02
-4.64
-5.02
-5.14
-5.03
-4.77
-4.51
-4.32
-4.27
-4.36
-4.51
-4.66
-4.79
-4.87
-4.96
-5.06
-5.16
-5.22
-5.10
-4.68
-3.85
-2.60
-1.01
0.75
2.51
4.14
5.62
6.97
8.23
9.40
10.46
11.35
12.07
12.69
13.36
14.20
15.27
16.45
17.55
18.36
18.71
18.56
18.01
17.17
16.15
15.00
13.72
12.34
10.90
9.47
8.08
6.68
5.19
3.59
1.99
0.58
-0.47
-1.15
-1.69
-2.48
-3.87
-5.97
-8.57
-11.21
-13.39
-14.75
-15.18
-14.76
-13.71
-12.27
-10.68
-9.18
-8.00
-7.30
-7.14
-7.40
-7.86
-8.23
-8.29
-7.94
-7.22
-6.30
-5.39
-4.71
-4.39
-4.41
-4.65
-4.94
-5.10
-5.09
-4.92
-4.72
-4.56
-4.50
-4.51
-4.52
-4.47
-4.33
-4.11
-3.80
-3.41
-2.91
-2.27
-1.47
-0.45
0.75
2.11
3.49
4.74
5.70
6.27
6.43
6.28
5.94
5.58
5.29
5.11
5.04
5.04
5.07
5.05
4.92
4.61
4.11
3.43
2.67
1.90
1.17
0.49
-0.16
-0.83
-1.52
-2.16
-2.69
-3.03
-3.16
-3.08
-2.84
-2.46
-1.97
-1.35
-0.61
0.24
1.12
1.93
2.55
2.92
3.04
3.03
3.06
3.40
4.24
5.78
8.08
11.11
14.72
18.52
21.92
24.21
24.77
23.35
20.19
15.99
11.65
7.90
5.06
3.06
1.56
0.27
-0.91
-1.94
-2.71
-3.26
-3.72
-4.27
-5.03
-5.97
-6.95
-7.83
-8.47
-8.84
-8.94
-8.83
-8.61
-8.43
-8.41
-8.60
-8.95
-9.31
-9.51
-9.44
-9.10
-8.66
-8.33
-8.23
-8.41
-8.75
-9.07
-9.23
-9.21
-9.10
-9.13
-9.54
-10.50
-12.04
-14.06
-16.29
-18.42
-20.10
-21.04
-21.08
-20.14
-18.33
-15.88
-13.12
-10.39
-7.92
-5.84
-4.11
-2.63
-1.31
-0.14
0.83
1.57
2.08
2.44
2.75
3.09
3.45
3.74
3.85
3.74
3.45
3.11
2.84
2.76
2.88
3.18
3.61
4.09
4.56
4.91
5.07
5.01
4.77
4.45
4.17
4.04
4.01
3.99
3.84
3.50
3.03
2.56
2.25
2.15
2.20
2.26
2.22
2.05
1.80
1.55
1.38
1.25
1.08
0.80
0.45
0.11
-0.09
-0.08
0.08
0.27
0.34
0.23
-0.02
-0.28
-0.43
-0.42
-0.30
-0.17
-0.12
-0.14
-0.15
-0.04
0.21
0.55
0.83
0.94
0.83
0.59
0.38
0.33
0.46
0.69
0.89
0.96
0.85
0.60
0.26
-0.10
-0.41
-0.60
-0.65
-0.56
-0.36
-0.16
-0.04
-0.05
-0.15
-0.28
-0.36
-0.35
-0.26
-0.15
-0.11
-0.17
-0.39
-0.73
-1.14
-1.48
-1.61
-1.43
-0.93
-0.22
0.51
1.05
1.25
1.09
0.68
0.20
-0.17
-0.34
-0.28
-0.03
0.30
0.63
0.88
1.00
1.01
0.96
0.93
0.96
1.03
1.11
1.15
1.12
1.06
1.03
1.07
1.15
1.22
1.19
1.03
0.76
0.45
0.18
0.00
-0.08
-0.11
-0.15
-0.26
-0.45
-0.69
-0.90
-0.99
-0.87
-0.54
-0.08
0.40
0.75
0.88
0.79
0.55
0.27
0.10
0.09
0.27
0.58
0.93
1.20
1.33
1.30
1.12
0.86
0.60
0.42
0.33
0.34
0.42
0.51
0.61
0.70
0.80
0.93
1.06
1.15
1.12
0.94
0.65
0.32
0.10
0.03
0.10
0.20
0.20
0.04
-0.24
-0.55
-0.80
-0.92
-0.96
-0.97
-1.01
-1.04
-1.02
-0.88
-0.63
-0.32
-0.01
0.26
0.50
0.72
0.92
1.07
1.15
1.15
1.08
1.03
1.03
1.10
1.21
1.30
1.34
1.30
1.19
1.00
0.69
0.29
-0.12
-0.40
-0.42
-0.13
0.37
0.88
1.21
1.22
0.95
0.55
0.21
0.06
0.11
0.30
0.51
0.62
0.59
0.42
0.15
-0.19
-0.55
-0.92
-1.27
-1.54
-1.64
-1.50
-1.11
-0.58
-0.06
0.25
0.29
0.12
-0.08
-0.14
0.02
0.36
0.73
0.99
1.08
1.04
0.92
0.81
0.70
0.59
0.48
0.41
0.44
0.60
0.84
1.04
1.07
0.87
0.49
0.04
-0.34
-0.57
-0.64
-0.59
-0.48
-0.35
-0.20
-0.05
0.07
0.12
0.07
-0.09
-0.31
-0.52
-0.66
-0.69
-0.63
-0.51
-0.41
-0.35
-0.33
-0.29
-0.14
0.17
0.58
1.00
1.30
1.40
1.28
1.06
0.85
0.75
0.80
0.97
1.19
1.39
1.55
1.64
1.64
1.54
1.33
1.05
0.73
0.43
0.18
0.01
-0.09
-0.07
0.06
0.31
0.60
0.86
0.99
0.96
0.82
0.68
0.62
0.69
0.82
0.90
0.83
0.63
0.38
0.19
0.13
0.20
0.34
0.49
0.62
0.80
1.10
1.57
2.17
2.79
3.30
3.68
3.98
4.40
5.09
6.10
7.33
8.52
9.35
9.59
9.19
8.30
7.19
6.14
5.24
4.47
3.66
2.70
1.54
0.28
-0.96
-2.11
-3.19
-4.31
-5.55
-6.87
-8.10
-8.99
-9.37
-9.22
-8.67
-7.95
-7.28
-6.78
-6.49
-6.34
-6.25
-6.12
-5.88
-5.51
-5.00
-4.42
-3.83
-3.28
-2.80
-2.35
-1.92
-1.53
-1.22
-1.07
-1.06
-1.11
-1.08
-0.85
-0.39
0.21
0.78
1.17
1.29
1.16
0.87
0.54
0.29
0.21
0.35
0.70
1.18
1.66
1.97
2.00
1.73
1.24
0.72
0.34
0.19
0.24
0.39
0.54
0.61
0.59
0.50
0.34
0.08
-0.30
-0.79
-1.32
-1.73
-1.92
-1.85
-1.56
-1.19
-0.85
-0.63
-0.49
-0.39
-0.24
-0.01
0.28
0.57
0.75
0.77
0.60
0.30
-0.01
-0.23
-0.28
-0.14
0.14
0.44
0.71
0.92
1.08
1.25
1.41
1.55
1.60
1.51
1.29
1.00
0.72
0.52
0.42
0.39
0.37
0.30
0.21
0.13
0.11
0.17
0.30
0.42
0.47
0.38
0.15
-0.17
-0.48
-0.72
-0.83
-0.84
-0.78
-0.71
-0.66
-0.61
-0.53
-0.38
-0.14
0.15
0.44
0.67
0.79
0.80
0.75
0.72
0.74
0.83
0.94
1.02
1.00
0.88
0.68
0.46
0.29
0.22
0.27
0.45
0.71
1.01
1.27
1.44
1.44
1.26
0.93
0.47
-0.08
-0.70
-1.42
-2.20
-3.00
-3.71
-4.21
-4.40
-4.23
-3.74
-3.05
-2.31
-1.66
-1.23
-1.09
-1.25
-1.69
-2.36
-3.16
-3.98
-4.69
-5.20
-5.47
-5.52
-5.41
-5.23
-5.00
-4.72
-4.32
-3.76
-3.05
-2.22
-1.37
-0.56
0.18
0.89
1.61
2.43
3.36
4.40
5.49
6.53
7.47
8.25
8.87
9.33
9.63
9.75
9.63
9.26
8.65
7.88
7.09
6.41
5.92
5.61
5.42
5.23
4.97
4.65
4.32
4.07
3.91
3.81
3.70
3.52
3.24
2.85
2.42
1.99
1.63
1.42
1.43
1.67
2.07
2.48
2.77
2.81
2.62
2.27
1.88
1.52
1.23
0.99
0.76
0.50
0.18
-0.22
-0.71
-1.29
-1.92
-2.53
-3.05
-3.41
-3.61
-3.69
-3.70
-3.74
-3.85
-4.02
-4.20
-4.33
-4.39
-4.39
-4.39
-4.41
-4.46
-4.52
-4.51
-4.39
-4.13
-3.77
-3.38
-3.05
-2.85
-2.77
-2.79
-2.80
-2.71
-2.47
-2.06
-1.50
-0.84
-0.11
0.62
1.28
1.80
2.08
2.10
1.90
1.62
1.39
1.28
1.30
1.36
1.39
1.32
1.13
0.86
0.57
0.28
0.01
-0.24
-0.50
-0.74
-0.92
-0.99
-0.89
-0.65
-0.35
-0.10
0.02
0.01
-0.07
-0.11
-0.05
0.10
0.26
0.35
0.33
0.25
0.14
0.05
-0.04
-0.17
-0.37
-0.57
-0.64
-0.48
-0.08
0.47
0.97
1.25
1.25
1.03
0.70
0.38
0.07
-0.25
-0.63
-1.07
-1.49
-1.79
-1.94
-1.94
-1.84
-1.71
-1.55
-1.36
-1.12
-0.88
-0.70
-0.63
-0.66
-0.77
-0.89
-1.01
-1.16
-1.36
-1.61
-1.84
-1.98
-1.96
-1.77
-1.50
-1.22
-1.00
-0.84
-0.72
-0.56
-0.35
-0.05
0.31
0.70
1.08
1.41
1.63
1.68
1.57
1.34
1.06
0.86
0.81
0.94
1.23
1.58
1.89
2.07
2.06
1.89
1.60
1.28
0.99
0.74
0.55
0.37
0.19
-0.00
-0.16
-0.22
-0.14
0.07
0.31
0.49
0.50
0.36
0.14
-0.00
0.00
0.14
0.28
0.30
0.12
-0.19
-0.44
-0.47
-0.19
0.32
0.89
1.32
1.50
1.41
1.08
0.63
0.15
-0.25
-0.46
-0.42
-0.15
0.29
0.73
1.04
1.18
1.19
1.17
1.21
1.32
1.45
1.51
1.47
1.34
1.21
1.14
1.15
1.15
1.05
0.78
0.35
-0.13
-0.54
-0.77
-0.79
-0.66
-0.47
-0.33
-0.23
-0.14
0.01
0.27
0.61
0.96
1.25
1.41
1.45
1.42
1.36
1.30
1.24
1.20
1.18
1.19
1.25
1.34
1.41
1.37
1.17
0.81
0.37
-0.03
-0.29
-0.38
-0.36
-0.32
-0.34
-0.44
-0.54
-0.55
-0.45
-0.26
-0.12
-0.13
-0.34
-0.68
-1.05
-1.36
-1.55
-1.66
-1.74
-1.81
-1.85
-1.83
-1.74
-1.64
-1.59
-1.65
-1.80
-1.98
-2.11
-2.12
-2.05
-1.93
-1.81
-1.68
-1.46
-1.08
-0.57
-0.02
0.43
0.64
0.61
0.40
0.14
-0.08
-0.26
-0.43
-0.63
-0.87
-1.09
-1.21
-1.19
-1.05
-0.85
-0.68
-0.60
-0.61
-0.68
-0.77
-0.88
-0.98
-1.07
-1.13
-1.12
-1.00
-0.77
-0.46
-0.10
0.22
0.44
0.51
0.42
0.17
-0.19
-0.58
-0.90
-1.06
-1.01
-0.78
-0.48
-0.25
-0.18
-0.30
-0.50
-0.67
-0.69
-0.54
-0.26
0.04
0.28
0.38
0.36
0.31
0.35
0.56
0.98
1.49
1.93
2.09
1.88
1.32
0.59
-0.10
-0.58
-0.82
-0.86
-0.79
-0.64
-0.42
-0.10
0.28
0.64
0.85
0.85
0.68
0.44
0.26
0.18
0.16
0.10
-0.07
-0.37
-0.75
-1.09
-1.31
-1.35
-1.22
-0.91
-0.48
0.03
0.53
0.94
1.19
1.25
1.15
0.95
0.71
0.46
0.21
-0.02
-0.18
-0.25
-0.20
-0.07
0.05
0.09
0.04
-0.03
-0.05
0.06
0.29
0.56
0.76
0.84
0.79
0.68
0.55
0.43
0.32
0.20
0.06
-0.08
-0.18
-0.23
-0.26
-0.30
-0.38
-0.48
-0.58
-0.64
-0.67
-0.71
-0.80
-0.97
-1.21
-1.45
-1.60
-1.61
-1.45
-1.16
-0.82
-0.48
-0.17
0.08
0.28
0.43
0.51
0.52
0.44
0.29
0.12
-0.03
-0.10
-0.06
0.08
0.31
0.57
0.79
0.91
0.89
0.72
0.44
0.16
-0.04
-0.10
-0.03
0.11
0.26
0.37
0.45
0.49
0.49
0.42
0.19
-0.20
-0.70
-1.18
-1.49
-1.56
-1.43
-1.23
-1.10
-1.12
-1.25
-1.39
-1.45
-1.39
-1.20
-0.93
-0.62
-0.28
0.10
0.52
0.95
1.35
1.65
1.80
1.78
1.59
1.30
0.98
0.74
0.62
0.61
0.64
0.63
0.52
0.35
0.16
0.05
0.04
0.11
0.19
0.21
0.13
-0.05
-0.30
-0.57
-0.86
-1.10
-1.26
-1.26
-1.07
-0.73
-0.34
-0.04
0.07
-0.06
-0.39
-0.84
-1.29
-1.66
-1.91
-1.99
-1.89
-1.63
-1.27
-0.92
-0.68
-0.60
-0.61
-0.64
-0.58
-0.43
-0.27
-0.21
-0.30
-0.51
-0.72
-0.82
-0.74
-0.56
-0.35
-0.22
-0.16
-0.15
-0.11
-0.03
0.07
0.14
0.21
0.31
0.53
0.91
1.39
1.85
2.12
2.13
1.92
1.62
1.38
1.28
1.31
1.37
1.35
1.20
0.95
0.63
0.30
-0.06
-0.44
-0.80
-1.07
-1.16
-1.05
-0.78
-0.47
-0.23
-0.11
-0.08
-0.04
0.08
0.29
0.49
0.62
0.61
0.49
0.35
0.23
0.13
-0.03
-0.28
-0.63
-1.00
-1.27
-1.36
-1.28
-1.11
-0.94
-0.81
-0.71
-0.59
-0.44
-0.28
-0.17
-0.17
-0.25
-0.35
-0.39
-0.36
-0.30
-0.34
-0.55
-0.91
-1.31
-1.58
-1.62
-1.40
-1.03
-0.63
-0.32
-0.15
-0.07
-0.03
0.01
0.06
0.10
0.14
0.19
0.27
0.36
0.45
0.51
0.55
0.60
0.69
0.84
0.99
1.06
0.99
0.76
0.45
0.17
0.01
0.01
0.13
0.29
0.42
0.45
0.39
0.25
0.07
-0.13
-0.32
-0.49
-0.59
-0.63
-0.60
-0.51
-0.40
-0.30
-0.24
-0.24
-0.28
-0.36
-0.45
-0.55
-0.66
-0.78
-0.85
-0.82
-0.65
-0.34
0.04
0.40
0.65
0.77
0.79
0.80
0.87
1.00
1.14
1.26
1.30
1.29
1.23
1.11
0.92
0.61
0.22
-0.14
-0.33
-0.24
0.12
0.57
0.91
1.00
0.82
0.52
0.27
0.14
0.12
0.07
-0.10
-0.39
-0.68
-0.81
-0.69
-0.36
0.01
0.23
0.16
-0.18
-0.68
-1.18
-1.53
-1.64
-1.52
-1.22
-0.86
-0.51
-0.25
-0.07
0.06
0.21
0.39
0.58
0.75
0.83
0.83
0.74
0.63
0.55
0.51
0.52
0.59
0.71
0.86
1.04
1.18
1.23
1.14
0.89
0.52
0.10
-0.28
-0.53
-0.58
-0.43
-0.13
0.17
0.33
0.25
-0.03
-0.41
-0.75
-0.95
-1.01
-0.99
-0.93
-0.84
-0.64
-0.33
0.07
0.40
0.50
0.32
-0.08
-0.53
-0.85
-1.00
-1.01
-0.97
-0.93
-0.84
-0.62
-0.25
0.17
0.50
0.62
0.52
0.31
0.15
0.12
0.22
0.34
0.39
0.38
0.35
0.40
0.55
0.73
0.83
0.75
0.48
0.12
-0.18
-0.33
-0.30
-0.16
-0.02
0.02
-0.07
-0.27
-0.53
-0.78
-0.98
-1.10
-1.15
-1.13
-1.06
-0.95
-0.80
-0.58
-0.32
-0.02
0.27
0.52
0.72
0.86
0.95
0.96
0.85
0.62
0.28
-0.07
-0.29
-0.30
-0.09
0.26
0.63
0.91
1.05
1.04
0.92
0.69
0.38
0.05
-0.20
-0.30
-0.24
-0.07
0.07
0.11
0.03
-0.10
-0.18
-0.16
-0.08
-0.06
-0.20
-0.49
-0.82
-1.02
-0.96
-0.64
-0.21
0.16
0.28
0.14
-0.15
-0.40
-0.44
-0.24
0.10
0.37
0.45
0.31
0.07
-0.13
-0.17
-0.02
0.23
0.49
0.72
0.90
1.07
1.26
1.47
1.71
1.96
2.19
2.36
2.40
2.26
1.94
1.52
1.12
0.83
0.67
0.58
0.50
0.38
0.27
0.23
0.34
0.56
0.81
0.97
0.98
0.84
0.65
0.53
0.59
0.90
1.43
2.08
2.67
3.04
3.15
3.07
3.00
3.19
3.78
4.72
5.84
6.88
7.70
8.30
8.89
9.68
10.89
12.61
14.87
17.63
20.71
23.69
25.91
26.56
24.97
20.95
14.99
8.10
1.53
-3.70
-7.14
-8.91
-9.51
-9.46
-9.11
-8.62
-8.10
-7.76
-7.98
-9.22
-11.76
-15.61
-20.37
-25.32
-29.60
-32.47
-33.47
-32.57
-30.07
-26.54
-22.62
-18.84
-15.55
-12.89
-10.86
-9.41
-8.50
-8.06
-7.99
-8.09
-8.07
-7.64
-6.64
-5.12
-3.34
-1.62
-0.26
0.67
1.27
1.77
2.36
3.13
4.00
4.83
5.48
5.85
5.94
5.81
5.54
5.20
4.87
4.60
4.41
4.29
4.19
4.03
3.78
3.43
3.03
2.66
2.40
2.32
2.43
2.70
3.06
3.47
3.87
4.22
4.50
4.69
4.81
4.86
4.83
4.72
4.48
4.15
3.81
3.64
3.81
4.39
5.24
6.03
6.33
5.88
4.71
3.16
1.73
0.86
0.82
1.66
3.25
5.25
7.03
7.74
6.46
2.61
-3.71
-11.53
-19.29
-25.37
-28.69
-29.03
-26.97
-23.47
-19.40
-15.26
-11.26
-7.46
-3.98
-1.06
1.05
2.24
2.63
2.53
2.29
2.14
2.11
2.01
1.56
0.57
-0.90
-2.58
-4.10
-5.18
-5.75
-5.98
-6.09
-6.22
-6.32
-6.14
-5.41
-4.01
-2.07
0.07
1.99
3.33
3.88
3.58
2.55
1.06
-0.44
-1.41
-1.30
0.29
3.37
7.55
12.08
16.12
19.00
20.48
20.69
20.07
19.10
18.08
17.16
16.31
15.52
14.88
14.56
14.71
15.29
16.08
16.69
16.78
16.22
15.14
13.84
12.63
11.70
11.03
10.45
9.76
8.80
7.55
6.13
4.73
3.56
2.77
2.36
2.25
2.23
2.08
1.64
0.81
-0.39
-1.94
-3.79
-5.97
-8.45
-11.19
-14.01
-16.60
-18.64
-19.84
-20.09
-19.49
-18.33
-16.95
-15.62
-14.46
-13.45
-12.50
-11.55
-10.55
-9.54
-8.56
-7.59
-6.58
-5.45
-4.19
-2.83
-1.52
-0.44
0.24
0.49
0.37
0.09
-0.13
-0.14
0.08
0.44
0.76
0.88
0.74
0.37
-0.15
-0.67
-1.11
-1.41
-1.58
-1.68
-1.75
-1.82
-1.87
-1.88
-1.81
-1.67
-1.51
-1.41
-1.40
-1.48
-1.59
-1.62
-1.49
-1.20
-0.81
-0.43
-0.16
0.00
0.16
0.47
1.14
2.32
4.11
6.57
9.72
13.52
17.76
22.03
25.72
28.21
29.06
28.23
26.07
23.20
20.25
17.58
15.27
13.19
11.13
9.00
6.76
4.43
1.96
-0.71
-3.61
-6.64
-9.55
-12.05
-13.92
-15.04
-15.49
-15.48
-15.29
-15.18
-15.36
-15.87
-16.59
-17.25
-17.55
-17.23
-16.24
-14.67
-12.81
-10.91
-9.21
-7.79
-6.66
-5.79
-5.16
-4.71
-4.36
-3.98
-3.48
-2.79
-1.97
-1.14
-0.45
0.05
0.36
0.54
0.66
0.76
0.81
0.79
0.72
0.66
0.70
0.88
1.13
1.32
1.35
1.17
0.85
0.54
0.35
0.29
0.31
0.31
0.24
0.16
0.17
0.34
0.70
1.14
1.51
1.67
1.60
1.36
1.11
0.95
0.93
1.00
1.06
1.01
0.83
0.58
0.33
0.18
0.16
0.25
0.45
0.71
1.01
1.30
1.49
1.50
1.29
0.88
0.39
-0.04
-0.32
-0.40
-0.35
-0.26
-0.21
-0.24
-0.33
-0.43
-0.50
-0.51
-0.45
-0.32
-0.12
0.12
0.36
0.54
0.59
0.52
0.34
0.14
0.00
-0.02
0.07
0.20
0.30
0.36
0.40
0.49
0.66
0.87
1.00
0.99
0.82
0.62
0.54
0.70
1.02
1.34
1.43
1.22
0.81
0.40
0.19
0.22
0.39
0.50
0.43
0.15
-0.22
-0.52
-0.65
-0.59
-0.37
-0.06
0.31
0.71
1.13
1.51
1.81
1.98
2.01
1.94
1.81
1.74
1.80
2.08
2.56
3.21
3.94
4.71
5.55
6.57
7.93
9.75
11.99
14.41
16.64
18.27
18.96
18.60
17.21
15.02
12.29
9.35
6.52
4.10
2.37
1.45
1.30
1.68
2.21
2.47
2.23
1.42
0.22
-1.14
-2.41
-3.51
-4.50
-5.57
-6.93
-8.71
-10.93
-13.44
-16.03
-18.46
-20.50
-22.02
-22.92
-23.17
-22.81
-21.92
-20.68
-19.28
-17.87
-16.53
-15.23
-13.86
-12.33
-10.59
-8.70
-6.78
-4.98
-3.43
-2.18
-1.19
-0.42
0.21
0.73
1.17
1.54
1.88
2.19
2.50
2.75
2.92
2.96
2.88
2.73
2.58
2.51
2.52
2.56
2.52
2.35
2.02
1.62
1.28
1.08
1.08
1.25
1.46
1.58
1.51
1.21
0.77
0.30
-0.05
-0.16
-0.01
0.33
0.74
1.09
1.26
1.25
1.14
1.07
1.14
1.41
1.79
2.15
2.34
2.28
1.98
1.58
1.19
0.93
0.82
0.84
0.97
1.14
1.30
1.39
1.38
1.25
1.03
0.76
0.50
0.27
0.11
0.03
0.04
0.16
0.37
0.61
0.81
0.90
0.84
0.64
0.36
0.04
-0.26
-0.52
-0.70
-0.81
-0.84
-0.80
-0.74
-0.65
-0.57
-0.48
-0.39
-0.28
-0.14
0.05
0.29
0.57
0.82
0.96
0.94
0.74
0.46
0.21
0.08
0.09
0.20
0.33
0.43
0.47
0.49
0.48
0.45
0.43
0.46
0.61
0.93
1.36
1.76
1.96
1.89
1.59
1.22
0.94
0.84
0.89
0.96
0.95
0.82
0.60
0.34
0.06
-0.22
-0.53
-0.87
-1.17
-1.36
-1.38
-1.23
-0.99
-0.76
-0.62
-0.53
-0.40
-0.17
0.19
0.57
0.84
0.90
0.79
0.63
0.56
0.63
0.78
0.87
0.76
0.45
0.07
-0.21
-0.25
-0.01
0.38
0.78
1.08
1.24
1.28
1.26
1.16
0.96
0.60
0.07
-0.55
-1.15
-1.61
-1.87
-1.98
-2.04
-2.15
-2.34
-2.58
-2.81
-2.99
-3.10
-3.16
-3.14
-3.03
-2.72
-2.16
-1.30
-0.16
1.21
2.75
4.34
5.87
7.15
8.02
8.35
8.13
7.48
6.62
5.76
5.07
4.59
4.26
3.99
3.70
3.35
2.95
2.53
2.09
1.63
1.17
0.73
0.36
0.09
-0.05
