1522159594.00
64.000000
-0.00
-0.00
-0.00
-0.00
-0.00
-0.00
-0.00
-0.00
-0.00
-0.00
0.00
0.01
0.01
-0.00
-0.03
-0.05
-0.05
0.00
0.13
0.36
0.66
1.01
1.37
1.72
2.06
2.40
2.79
3.24
3.80
4.42
5.06
5.66
6.20
6.68
7.15
7.68
8.31
9.14
10.09
11.04
11.88
12.56
13.14
13.76
14.65
15.96
17.91
20.32
22.90
25.38
27.58
29.57
31.68
34.32
37.81
42.54
48.15
54.10
59.83
64.97
69.58
74.14
79.34
85.71
93.76
103.00
112.62
121.73
129.77
136.75
143.30
150.75
157.77
166.64
177.95
191.79
206.97
220.56
228.24
225.36
208.53
176.89
132.80
80.09
23.09
-34.98
-92.57
-149.41
-205.59
-260.81
-314.22
-364.35
-410.30
-451.37
-487.00
-516.32
-537.92
-550.02
-550.82
-539.23
-515.03
-479.47
-434.70
-383.39
-328.18
-271.28
-214.32
-158.50
-104.80
-54.13
-7.60
33.80
69.30
98.61
122.00
140.17
154.03
164.37
171.73
176.26
177.94
176.77
173.02
167.24
160.25
152.81
145.47
138.32
131.10
123.35
114.72
105.23
95.29
85.53
76.57
68.73
61.93
55.75
49.64
43.12
35.80
27.47
18.25
8.85
0.78
-3.91
-3.26
3.64
15.94
31.05
45.48
56.15
61.46
61.68
58.38
53.49
48.38
43.58
39.08
34.76
30.74
27.35
24.83
23.11
21.79
20.35
18.39
15.85
13.08
10.57
8.83
8.09
8.23
8.76
9.02
8.55
7.40
6.12
5.50
6.05
7.60
9.29
10.04
9.05
6.38
2.82
-0.49
-2.70
-3.61
-3.68
-3.57
-3.74
-4.27
-4.92
-5.38
-5.45
-5.10
-4.40
-3.50
-2.68
-2.17
-2.16
-2.70
-3.56
-4.39
-4.83
-4.69
-4.02
-3.03
-1.96
-0.94
-0.00
0.88
1.63
2.11
2.16
1.75
1.08
0.45
0.20
0.48
1.23
2.25
3.30
4.25
5.14
6.10
7.23
8.54
9.90
11.10
11.97
12.40
12.38
11.91
10.98
9.60
7.80
5.56
2.95
0.09
-2.85
-5.68
-8.24
-10.33
-11.78
-12.47
-12.37
-11.63
-10.52
-9.37
-8.50
-8.05
-7.99
-8.12
-8.22
-8.14
-7.84
-7.40
-6.99
-6.68
-6.46
-6.23
-5.90
-5.41
-4.84
-4.28
-3.84
-3.57
-3.43
-3.37
-3.35
-3.38
-3.50
-3.70
-3.92
-4.02
-3.92
-3.65
-3.33
-3.14
-3.17
-3.34
-3.44
-3.20
-2.45
-1.16
0.53
2.33
3.96
5.17
5.80
5.82
5.33
4.50
3.53
2.58
1.75
1.05
0.51
0.14
-0.02
0.06
0.36
0.76
1.07
1.13
0.89
0.41
-0.15
-0.63
-0.98
-1.23
-1.47
-1.82
-2.37
-3.18
-4.28
-5.69
-7.37
-9.17
-10.84
-12.01
-12.34
-11.60
-9.81
-7.22
-4.28
-1.43
1.00
2.90
4.35
5.53
6.50
7.26
7.64
7.51
6.85
5.84
4.78
4.01
3.73
3.94
4.42
4.86
4.98
4.67
4.00
3.15
2.30
1.56
0.86
0.07
-0.96
-2.27
-3.78
-5.35
-6.82
-8.10
-9.12
-9.83
-10.08
-9.70
-8.53
-6.51
-3.78
-0.67
2.39
5.01
6.96
8.18
8.80
9.03
9.01
8.85
8.56
8.16
7.69
7.25
6.96
6.85
6.88
6.92
6.82
6.49
5.88
5.08
4.16
3.19
2.20
1.14
-0.06
-1.48
-3.18
-5.17
-7.37
-9.58
-11.48
-12.72
-13.01
-12.19
-10.35
-7.79
-4.93
-2.14
0.26
2.16
3.55
4.49
5.04
5.25
5.15
4.79
4.22
3.56
2.92
2.44
2.18
2.16
2.27
2.37
2.27
1.86
1.14
0.19
-0.83
-1.80
-2.68
-3.53
-4.47
-5.64
-7.09
-8.75
-10.47
-12.02
-13.15
-13.66
-13.38
-12.25
-10.33
-7.80
-4.96
-2.17
0.26
2.12
3.39
4.21
4.75
5.18
5.52
5.71
5.67
5.38
4.98
4.64
4.53
4.69
4.98
5.12
4.87
4.14
3.06
1.89
0.89
0.18
-0.29
-0.72
-1.34
-2.30
-3.60
-5.19
-6.94
-8.64
-10.07
-10.92
-10.95
-10.01
-8.14
-5.63
-2.84
-0.13
2.25
4.22
5.75
6.85
7.53
7.75
7.57
7.07
6.42
5.79
5.31
5.03
4.91
4.85
4.73
4.43
3.91
3.15
2.24
1.27
0.32
-0.57
-1.46
-2.44
-3.60
-4.99
-6.56
-8.25
-9.87
-11.20
-11.98
-11.98
-11.06
-9.21
-6.64
-3.68
-0.73
1.87
3.93
5.43
6.48
7.25
7.82
8.19
8.29
8.05
7.48
6.73
6.00
5.45
5.16
5.05
4.95
4.71
4.22
3.53
2.74
1.93
1.18
0.45
-0.35
-1.33
-2.56
-4.07
-5.82
-7.72
-9.61
-11.24
-12.30
-12.49
-11.56
-9.49
-6.49
-3.02
0.34
3.10
4.99
6.04
6.43
6.44
6.21
5.77
5.09
4.15
3.09
2.16
1.59
1.52
1.85
2.34
2.70
2.72
2.36
1.76
1.11
0.55
0.10
-0.40
-1.14
-2.30
-3.93
-5.90
-7.95
-9.73
-10.94
-11.36
-10.91
-9.68
-7.85
-5.64
-3.28
-0.94
1.27
3.23
4.90
6.18
7.09
7.64
7.99
8.28
8.69
9.27
10.01
10.84
11.65
12.36
12.90
13.20
13.20
12.91
12.40
11.80
11.22
10.72
10.20
9.50
8.42
6.87
4.83
2.39
-0.29
-2.94
-5.17
-6.53
-6.64
-5.37
-2.99
-0.11
2.54
4.41
5.35
5.54
5.33
4.98
4.54
3.89
2.92
1.63
0.24
-0.98
-1.74
-1.94
-1.68
-1.18
-0.75
-0.61
-0.89
-1.47
-2.18
-2.82
-3.28
-3.63
-4.04
-4.68
-5.59
-6.67
-7.76
-8.71
-9.47
-10.02
-10.34
-10.27
-9.60
-8.15
-5.90
-3.06
-0.02
2.81
5.16
6.94
8.26
9.25
9.96
10.33
10.24
9.63
8.57
7.33
6.21
5.45
5.08
4.97
4.88
4.58
4.03
3.30
2.53
1.76
0.90
-0.20
-1.66
-3.44
-5.36
-7.15
-8.67
-9.98
-11.22
-12.54
-13.91
-15.07
-15.62
-15.22
-13.71
-11.25
-8.22
-5.09
-2.26
0.01
1.70
2.92
3.83
4.51
4.98
5.17
5.10
4.86
4.65
4.66
5.00
5.58
6.17
6.55
6.56
6.21
5.62
4.91
4.18
3.39
2.52
1.48
0.22
-1.24
-2.89
-4.70
-6.62
-8.57
-10.39
-11.80
-12.51
-12.28
-11.01
-8.88
-6.27
-3.64
-1.37
0.35
1.55
2.40
3.10
3.74
4.31
4.73
4.92
4.87
4.68
4.49
4.44
4.60
4.90
5.20
5.34
5.19
4.71
3.98
3.10
2.17
1.25
0.33
-0.62
-1.66
-2.83
-4.20
-5.82
-7.72
-9.81
-11.86
-13.54
-14.43
-14.24
-12.88
-10.57
-7.72
-4.82
-2.26
-0.21
1.39
2.70
3.84
4.86
5.69
6.22
6.41
6.29
5.99
5.64
5.33
5.13
5.01
4.96
4.89
4.77
4.53
4.15
3.59
2.87
2.00
1.00
-0.07
-1.19
-2.34
-3.56
-4.90
-6.44
-8.16
-9.97
-11.63
-12.81
-13.21
-12.64
-11.10
-8.82
-6.12
-3.37
-0.88
1.16
2.70
3.79
4.50
4.91
5.10
5.13
5.03
4.82
4.54
4.25
4.03
3.94
3.98
4.09
4.13
4.02
3.74
3.29
2.73
2.06
1.27
0.34
-0.70
-1.77
-2.82
-3.86
-4.97
-6.27
-7.81
-9.52
-11.12
-12.27
-12.64
-12.02
-10.46
-8.16
-5.49
-2.79
-0.40
1.49
2.78
3.47
3.67
3.56
3.33
3.13
3.04
3.06
3.13
3.21
3.29
3.42
3.64
3.93
4.22
4.39
4.33
3.99
3.38
2.59
1.71
0.82
-0.09
-1.05
-2.15
-3.51
-5.17
-7.06
-8.96
-10.54
-11.47
-11.51
-10.55
-8.68
-6.18
-3.40
-0.70
1.60
3.36
4.58
5.39
5.93
6.32
6.58
6.68
6.60
6.32
5.93
5.53
5.26
5.12
5.09
5.07
4.95
4.67
4.27
3.78
3.25
2.65
1.93
0.97
-0.27
-1.78
-3.48
-5.24
-6.95
-8.51
-9.84
-10.80
-11.21
-10.94
-9.91
-8.20
-5.99
-3.51
-1.00
1.37
3.45
5.10
6.19
6.64
6.45
5.77
4.87
4.01
3.40
3.14
3.18
3.44
3.76
4.00
4.04
3.79
3.28
2.59
1.88
1.29
0.88
0.55
0.15
-0.55
-1.64
-3.15
-4.98
-6.97
-8.91
-10.57
-11.71
-12.07
-11.47
-9.87
-7.42
-4.44
-1.37
1.39
3.55
5.01
5.85
6.26
6.44
6.53
6.59
6.62
6.55
6.38
6.11
5.78
5.44
5.11
4.77
4.38
3.93
3.44
2.95
2.49
2.01
1.41
0.58
-0.53
-1.89
-3.41
-4.97
-6.49
-7.95
-9.34
-10.62
-11.63
-12.11
-11.81
-10.55
-8.40
-5.63
-2.64
0.17
2.53
4.38
5.75
6.73
7.40
7.75
7.75
7.43
6.85
6.17
5.59
5.26
5.23
5.40
5.59
5.58
5.23
4.59
3.81
3.09
2.55
2.17
1.76
1.12
0.13
-1.25
-2.98
-4.97
-7.14
-9.36
-11.34
-12.73
-13.13
-12.27
-10.18
-7.19
-3.84
-0.69
1.83
3.57
4.60
5.16
5.49
5.74
5.96
6.08
6.00
5.68
5.15
4.53
3.91
3.39
2.95
2.56
2.17
1.71
1.15
0.48
-0.32
-1.25
-2.28
-3.36
-4.47
-5.61
-6.83
-8.18
-9.70
-11.26
-12.63
-13.51
-13.63
-12.85
-11.21
-8.91
-6.22
-3.49
-0.96
1.19
2.91
4.24
5.28
6.09
6.69
7.02
7.03
6.74
6.29
5.93
5.93
6.44
7.40
8.52
9.42
9.77
9.44
8.55
7.36
6.16
5.14
4.28
3.45
2.45
1.16
-0.46
-2.31
-4.24
-6.04
-7.51
-8.43
-8.63
-8.00
-6.55
-4.42
-1.90
0.66
2.95
4.74
5.96
6.66
6.93
6.88
6.58
6.10
5.51
4.91
4.42
4.09
3.90
3.76
3.57
3.21
2.63
1.83
0.90
-0.09
-1.05
-1.98
-2.89
-3.87
-4.98
-6.28
-7.83
-9.59
-11.45
-13.15
-14.36
-14.75
-14.10
-12.43
-9.95
-7.07
-4.17
-1.55
0.65
2.43
3.83
4.94
5.77
6.31
6.52
6.38
5.95
5.39
4.88
4.61
4.66
4.95
5.24
5.27
4.88
4.08
3.07
2.09
1.34
0.85
0.43
-0.17
-1.18
-2.69
-4.57
-6.54
-8.27
-9.47
-9.95
-9.64
-8.60
-6.92
-4.76
-2.34
0.12
2.40
4.35
5.87
6.97
7.68
8.02
8.06
7.82
7.38
6.84
6.30
5.82
5.42
5.10
4.81
4.55
4.31
4.09
3.84
3.50
2.98
2.20
1.12
-0.24
-1.83
-3.57
-5.34
-7.00
-8.38
-9.22
-9.28
-8.40
-6.52
-3.76
-0.41
3.15
6.57
9.53
11.85
13.45
14.35
14.65
14.57
14.30
14.04
13.92
13.88
13.83
13.57
12.99
12.02
10.71
9.12
7.33
5.38
3.33
1.26
-0.77
-2.72
-4.61
-6.57
-8.70
-11.10
-13.70
-16.32
-18.64
-20.33
-21.11
-20.86
-19.62
-17.58
-15.02
-12.21
-9.41
-6.78
-4.42
-2.37
-0.63
0.81
1.95
2.77
3.25
3.43
3.37
3.18
3.01
2.97
3.15
3.52
4.01
4.49
4.84
4.98
4.85
4.42
3.65
2.56
1.17
-0.44
-2.18
-3.94
-5.67
-7.37
-9.02
-10.53
-11.68
-12.17
-11.73
-10.26
-7.95
-5.19
-2.46
-0.11
1.70
3.02
3.98
4.66
5.08
5.19
4.98
4.53
3.99
3.54
3.29
3.28
3.41
3.53
3.41
2.92
1.96
0.62
-0.94
-2.50
-3.86
-4.96
-5.81
-6.55
-7.35
-8.35
-9.63
-11.14
-12.69
-14.00
-14.73
-14.58
-13.38
-11.15
-8.12
-4.64
-1.15
1.97
4.48
6.28
7.46
8.18
8.61
8.85
8.95
8.94
8.83
8.74
8.77
8.99
9.35
9.70
9.81
9.50
8.71
7.54
6.17
4.76
3.41
2.10
0.79
-0.58
-2.05
-3.62
-5.33
-7.20
-9.21
-11.19
-12.78
-13.54
-13.10
-11.37
-8.60
-5.31
-2.11
0.54
2.47
3.75
4.56
5.07
5.32
5.30
5.04
4.67
4.36
4.28
4.48
4.88
5.31
5.54
5.46
5.02
4.29
3.42
2.57
1.83
1.23
0.67
0.04
-0.79
-1.88
-3.13
-4.46
-5.76
-7.02
-8.26
-9.48
-10.56
-11.22
-11.15
-10.08
-7.96
-4.97
-1.52
1.94
5.00
7.41
9.12
10.18
10.75
10.94
10.86
10.53
9.98
9.26
8.50
7.84
7.41
7.23
7.23
7.26
7.15
6.83
6.28
5.58
4.83
4.05
3.26
2.39
1.42
0.34
-0.85
-2.15
-3.53
-5.02
-6.57
-8.05
-9.26
-9.90
-9.71
-8.56
-6.58
-4.09
-1.52
0.78
2.62
4.00
5.08
5.97
6.72
7.27
7.51
7.36
6.83
6.04
5.17
4.45
4.02
3.95
4.16
4.46
4.65
4.60
4.28
3.73
2.99
2.08
1.01
-0.22
-1.56
-2.91
-4.19
-5.42
-6.72
-8.20
-9.90
-11.68
-13.20
-14.09
-14.05
-12.96
-10.92
-8.18
-5.06
-1.91
0.99
3.38
5.09
6.06
6.39
6.25
5.92
5.60
5.44
5.49
5.71
6.08
6.52
6.95
7.29
7.46
7.39
7.05
6.44
5.61
4.65
3.62
2.60
1.57
0.48
-0.78
-2.32
-4.16
-6.27
-8.49
-10.63
-12.51
-13.95
-14.78
-14.87
-14.10
-12.44
-10.01
-7.05
-3.94
-1.05
1.35
3.14
4.37
5.18
5.72
6.12
6.40
6.59
6.65
6.60
6.43
6.20
5.97
5.79
5.66
5.55
5.34
4.96
4.35
3.54
2.59
1.62
0.68
-0.21
-1.09
-2.05
-3.15
-4.42
-5.87
-7.51
-9.34
-11.26
-13.10
-14.57
-15.31
-15.04
-13.60
-11.13
-7.98
-4.65
-1.59
0.90
2.76
4.12
5.15
5.98
6.65
7.13
7.38
7.44
7.38
7.31
7.34
7.53
7.88
8.36
8.87
9.32
9.59
9.59
9.26
8.57
7.54
6.22
4.68
3.00
1.27
-0.43
-2.07
-3.74
-5.52
-7.49
-9.62
-11.67
-13.28
-14.03
-13.63
-12.04
-9.47
-6.36
-3.19
-0.35
1.93
3.63
4.86
5.77
6.44
6.88
7.03
6.85
6.33
5.62
4.90
4.30
3.90
3.63
3.33
2.85
2.13
1.19
0.12
-0.98
-2.08
-3.20
-4.44
-5.83
-7.37
-8.96
-10.54
-12.07
-13.57
-15.11
-16.67
-18.07
-18.96
-18.94
-17.75
-15.39
-12.21
-8.73
-5.49
-2.80
-0.72
0.86
2.10
3.04
3.67
3.91
3.78
3.37
2.86
2.47
2.35
2.52
2.89
3.34
3.69
3.83
3.70
3.38
2.99
2.67
2.48
2.28
1.87
1.00
-0.50
-2.68
-5.29
-7.92
-10.18
-11.87
-13.02
-13.79
-14.27
-14.50
-14.42
-13.65
-11.70
-8.34
-3.84
0.95
4.98
7.35
7.60
5.83
3.10
0.96
0.71
2.62
5.85
9.05
11.04
11.33
10.22
9.25
10.47
15.46
24.79
38.04
54.41
73.06
92.68
107.63
110.82
97.32
68.48
31.57
-4.26
-31.85
-47.83
-52.80
-49.93
-42.43
-32.26
-20.29
-7.68
3.22
9.27
7.85
-1.68
-17.32
-34.45
-47.73
-53.06
-49.11
-37.28
-20.63
-2.72
12.95
23.51
27.33
24.31
15.97
4.86
-6.26
-15.20
-20.90
-23.49
-23.90
-23.09
-21.62
-19.68
-17.48
-15.42
-14.04
-13.68
-14.29
-15.35
-16.14
-16.07
-14.94
-13.14
-11.46
-10.85
-12.04
-15.04
-19.05
-22.40
-23.26
-20.35
-13.67
-4.73
4.46
11.85
16.32
18.06
18.08
17.57
17.21
16.94
16.29
14.92
12.89
10.69
9.02
8.20
8.06
8.05
7.44
5.80
3.35
0.77
-1.11
-1.73
-1.06
0.53
2.61
4.95
7.55
10.43
13.24
15.35
16.09
15.11
12.68
9.51
6.35
3.65
1.35
-0.85
-3.16
-5.44
-7.32
-8.42
-8.61
-8.12
-7.28
-6.44
-5.79
-5.26
-4.66
-3.82
-2.67
-1.31
0.05
1.11
1.61
1.39
0.50
-0.87
-2.12
-2.66
-1.98
0.17
3.56
7.64
11.67
15.09
17.60
19.18
19.92
19.85
18.97
17.29
15.07
12.80
10.94
9.66
8.68
7.29
4.88
1.33
-2.77
-6.40
-8.66
-9.33
-9.16
-9.27
-10.64
-13.60
-17.87
-22.82
-27.84
-32.49
-36.52
-39.76
-41.83
-42.10
-40.15
-36.13
-30.84
-25.36
-20.52
-16.69
-13.92
-11.62
-8.76
-4.44
1.49
8.29
14.55
18.77
19.74
16.57
9.39
-0.54
-11.34
-21.16
-28.36
-31.65
-29.86
-20.79
-5.03
13.31
29.36
40.47
46.57
49.09
49.85
50.56
51.90
52.92
52.01
47.84
40.05
29.37
18.36
8.14
-0.18
-6.34
-11.13
-15.55
-19.92
-23.91
-26.89
-28.43
-28.74
-28.29
-27.70
-27.58
-27.95
-27.83
-26.48
-23.68
-19.97
-16.41
-13.88
-12.84
-13.31
-14.83
-16.57
-17.80
-17.97
-16.90
-14.75
-11.81
-8.45
-5.07
-1.95
0.87
3.35
5.73
8.34
11.61
15.91
21.15
26.55
30.69
31.99
29.49
24.08
18.38
15.78
18.81
27.67
39.91
51.33
57.82
56.78
48.46
35.19
20.17
6.23
-4.88
-12.30
-15.55
-14.18
-9.41
-2.95
2.94
6.83
8.51
8.02
5.24
0.02
-6.25
-13.37
-20.20
-25.24
-27.31
-25.83
-21.28
-14.87
-8.60
-4.16
-2.81
-4.60
-8.59
-13.11
-16.04
-15.86
-12.19
-5.80
1.98
9.75
16.91
23.46
27.31
27.06
22.70
15.45
6.64
-2.72
-11.78
-19.55
-25.27
-28.75
-29.91
-29.50
-28.37
-27.28
-26.61
-26.45
-26.50
-26.37
-25.64
-23.67
-20.39
-15.84
-10.38
-4.46
1.63
7.89
14.46
21.35
28.32
34.52
38.69
39.63
36.85
30.99
23.75
17.19
12.94
11.73
13.13
15.82
18.14
18.72
16.76
12.20
5.37
-3.02
-12.03
-20.60
-27.58
-32.03
-33.33
-31.23
-25.92
-18.01
-8.53
1.22
9.77
15.84
18.64
17.99
14.33
8.49
1.40
-5.98
-12.75
-18.19
-21.75
-23.22
-22.81
-21.14
-19.00
-17.13
-16.00
-15.68
-15.96
-16.45
-16.75
-16.56
-15.75
-14.43
-12.90
-11.62
-11.01
-11.26
-12.23
-13.44
-14.17
-13.77
-11.85
-8.52
-4.30
0.05
3.80
6.52
8.15
9.00
9.55
10.23
11.27
12.66
14.15
15.42
16.19
16.30
15.75
14.62
13.04
11.21
9.29
7.51
6.08
5.16
4.77
4.75
4.75
4.37
3.18
0.95
-2.37
-6.50
-10.85
-14.67
-17.15
-17.75
-16.36
-13.33
-9.40
-5.29
-1.55
1.67
4.49
7.14
9.73
12.17
14.22
15.63
16.28
16.21
15.57
14.48
13.00
11.06
8.61
5.69
2.58
-0.28
-2.37
-3.30
-3.03
-1.92
-0.63
0.08
-0.37
-2.12
-4.87
-7.94
-10.57
-12.09
-12.13
-10.60
-7.67
-3.66
1.03
5.93
10.52
14.34
17.08
18.73
19.52
19.83
19.99
20.16
20.24
20.03
19.29
18.01
16.39
14.79
13.49
12.62
12.09
11.68
11.19
10.46
9.41
8.06
6.35
4.17
1.41
-1.84
-5.18
-8.01
-9.74
-10.03
-8.68
-5.87
-2.13
1.83
5.45
8.48
10.94
12.92
14.48
16.13
18.23
20.77
23.25
25.12
26.04
25.99
25.19
23.94
23.52
24.91
28.28
32.69
36.58
38.60
38.04
35.07
30.74
27.87
29.09
35.66
46.69
59.83
72.67
83.67
92.49
92.21
78.67
52.43
19.38
-13.46
-41.37
-62.14
-75.32
-81.93
-84.13
-83.18
-79.69
-72.94
-61.80
-45.94
-26.97
-8.96
2.70
3.96
-3.62
-15.90
-26.88
-31.87
-29.46
-21.53
-11.88
-4.25
-0.53
0.21
-0.68
-1.29
-0.65
0.30
0.85
1.37
2.97
6.72
13.09
21.12
29.11
35.06
37.53
35.98
31.26
24.84
18.05
11.89
6.90
3.72
2.91
4.84
9.54
16.39
24.04
30.86
35.45
37.01
35.43
30.88
23.49
13.43
1.12
-12.54
-26.04
-37.45
-45.00
-47.56
-45.19
-38.99
-30.70
-22.11
-14.62
-9.00
-5.36
-3.28
-2.05
-0.79
1.29
4.76
9.80
16.01
22.53
28.19
31.85
32.81
31.18
27.99
25.01
24.16
26.70
32.64
40.62
48.44
54.00
56.21
55.35
52.76
50.00
48.14
47.35
47.14
46.90
46.30
45.48
44.74
44.32
44.08
43.60
42.32
39.77
35.79
30.48
24.09
16.92
9.10
0.61
-8.75
-19.16
-30.57
-42.53
-54.23
-64.65
-72.95
-78.80
-82.54
-85.08
-87.56
-90.87
-95.32
-100.50
-105.48
-109.23
-110.96
-110.35
-107.53
-103.05
-97.73
-92.45
-87.94
-84.55
-82.04
-79.66
-76.35
-71.23
-63.96
-54.97
-45.28
-36.10
-28.31
-22.20
-17.49
-13.60
-10.01
-6.51
-3.23
-0.56
1.04
1.18
-0.32
-3.27
-7.14
-11.12
-14.34
-16.07
-16.05
-14.52
-12.16
-9.82
-8.21
-7.72
-8.41
-10.03
-12.22
-14.63
-16.93
-18.88
-20.34
-21.29
-21.89
-22.42
-23.12
-24.16
-25.49
-26.94
-28.28
-29.32
-29.98
-30.28
-30.32
-30.19
-30.06
-30.13
-30.68
-31.92
-33.74
-35.67
-36.94
-36.73
-34.57
-30.54
-25.37
-20.12
-15.88
-13.31
-12.47
-12.91
-13.93
-14.90
-15.41
-15.41
-15.12
-14.90
-14.99
-15.39
-16.00
-16.70
-17.43
-18.16
-18.96
-20.00
-21.57
-23.74
-26.48
-29.87
-34.23
-39.88
-46.66
-53.66
-59.36
-62.18
-60.68
-54.28
-43.54
-30.04
-15.64
-1.66
11.45
23.90
35.95
48.38
62.05
77.56
94.98
113.86
133.52
153.13
171.87
186.37
192.71
188.80
176.16
158.66
140.04
122.53
106.91
94.35
83.71
74.75
67.89
63.59
61.76
61.64
62.19
62.06
60.21
55.91
49.50
42.00
34.51
27.76
22.04
17.51
14.38
12.82
12.60
13.31
14.03
13.39
10.03
3.14
-7.01
-19.08
-31.21
-41.75
-49.51
-54.08
-55.73
-55.20
-53.31
-50.81
-48.34
-46.44
-45.65
-46.27
-48.25
-51.14
-54.15
-56.47
-57.53
-57.28
-56.20
-55.05
-54.48
-54.73
-55.50
-56.18
-56.07
-54.74
-52.15
-48.61
-44.61
-40.65
-37.06
-34.04
-31.60
-29.70
-28.24
-27.10
-26.17
-25.27
-24.27
-23.05
-21.59
-19.99
-18.46
-17.20
-16.37
-15.96
-15.81
-15.62
-15.03
-13.77
-11.75
-9.11
-6.15
-3.21
-0.59
1.55
3.19
4.36
5.13
5.57
5.73
5.72
5.70
5.83
6.23
6.93
7.90
9.04
10.31
11.69
13.21
14.87
16.55
18.02
18.96
19.02
18.01
15.93
12.98
9.56
6.15
3.17
0.97
-0.28
-0.52
0.16
1.54
3.19
4.60
5.20
4.63
2.85
0.12
-3.06
-6.19
-8.92
-11.13
-12.84
-14.11
-14.89
-15.09
-14.61
-13.47
-11.78
-9.71
-7.33
-4.58
-1.34
2.46
6.71
11.12
15.27
18.81
21.55
23.54
24.99
26.20
27.35
28.50
29.59
30.44
30.86
30.69
29.87
28.47
26.65
24.58
22.41
20.18
17.86
15.49
13.19
11.16
9.61
8.66
8.25
8.15
8.08
7.83
7.35
6.73
6.15
5.70
5.40
5.18
4.89
4.39
3.66
2.80
2.04
1.67
1.93
2.93
4.57
6.59
8.67
10.47
11.79
12.55
12.81
12.68
12.27
11.65
10.85
9.91
8.87
7.82
6.91
6.30
6.12
6.41
7.12
8.12
9.30
10.54
11.76
12.90
13.82
14.37
14.41
13.86
12.78
11.39
10.02
8.98
8.53
8.78
9.66
10.98
12.48
13.99
15.37
16.61
17.74
18.84
19.96
21.17
22.55
24.11
25.81
27.57
29.21
30.55
31.42
31.68
31.24
29.99
27.85
24.76
20.71
15.80
10.25
4.33
-1.64
-7.34
-12.50
-16.89
-20.34
-22.74
-24.00
-24.14
-23.22
-21.38
-18.82
-15.77
-12.53
-9.36
-6.51
-4.13
-2.27
-0.89
0.06
0.66
0.96
1.03
0.97
0.95
1.13
1.64
2.49
3.54
4.62
5.49
5.99
6.02
5.59
4.80
3.78
2.72
1.83
1.34
1.41
2.14
3.53
5.43
7.65
9.94
12.03
13.75
15.01
15.81
16.26
16.41
16.33
16.00
15.40
14.53
13.50
12.48
11.65
11.13
10.89
10.76
10.46
9.67
8.11
5.61
2.15
-2.16
-7.02
-12.03
-16.70
-20.59
-23.34
-24.76
-24.82
-23.61
-21.35
-18.36
-15.00
-11.68
-8.77
-6.46
-4.74
-3.37
-2.08
-0.63
1.01
2.67
4.10
5.19
5.98
6.70
7.54
8.53
9.48
10.03
9.96
9.18
7.85
6.16
4.22
1.99
-0.64
-3.69
-6.95
-10.00
-12.29
-13.40
-13.17
-11.77
-9.58
-7.05
-4.58
-2.36
-0.48
1.06
2.27
3.16
3.71
3.96
4.00
3.93
3.84
3.73
3.50
3.05
2.35
1.43
0.46
-0.36
-0.88
-1.02
-0.81
-0.39
0.08
0.42
0.50
0.28
-0.17
-0.67
-1.03
-1.09
-0.77
-0.10
0.90
2.15
3.61
5.17
6.69
7.99
8.88
9.24
8.99
8.15
6.79
4.96
2.75
0.26
-2.38
-4.99
-7.39
-9.42
-11.02
-12.17
-12.89
-13.25
-13.29
-13.07
-12.68
-12.22
-11.81
-11.47
-11.12
-10.56
-9.52
-7.75
-5.08
-1.60
2.40
6.39
9.74
11.94
12.73
12.24
10.90
9.30
7.90
6.91
6.24
5.61
4.74
3.49
1.91
0.18
-1.50
-2.97
-4.18
-5.11
-5.75
-6.09
-6.11
-5.80
-5.25
-4.62
-4.09
-3.81
-3.75
-3.73
-3.44
-2.63
-1.16
0.84
3.01
4.87
6.00
6.15
5.34
3.80
1.84
-0.24
-2.20
-3.91
-5.27
-6.22
-6.72
-6.83
-6.64
-6.32
-5.97
-5.66
-5.36
-5.02
-4.58
-4.05
-3.41
-2.68
-1.94
-1.28
-0.86
-0.87
-1.42
-2.50
-3.93
-5.41
-6.67
-7.50
-7.87
-7.88
-7.66
-7.39
-7.18
-7.16
-7.41
-7.97
-8.78
-9.63
-10.26
-10.38
-9.87
-8.75
-7.18
-5.36
-3.43
-1.42
0.68
2.84
4.98
6.91
8.40
9.20
9.17
8.27
6.56
4.24
1.52
-1.34
-4.08
-6.45
-8.20
-9.07
-8.88
-7.56
-5.25
-2.32
0.78
3.58
5.81
7.38
8.36
8.91
9.12
9.02
8.62
7.90
6.93
5.85
4.82
3.97
3.41
3.12
3.01
2.96
2.83
2.54
2.07
1.48
0.82
0.14
-0.59
-1.44
-2.44
-3.56
-4.66
-5.48
-5.80
-5.44
-4.44
-2.95
-1.24
0.44
1.90
3.08
3.99
4.66
5.11
5.38
5.52
5.68
5.98
6.47
7.07
7.52
7.54
6.89
5.53
3.65
1.54
-0.46
-2.12
-3.34
-4.16
-4.71
-5.09
-5.38
-5.60
-5.69
-5.54
-5.03
-4.08
-2.66
-0.83
1.28
3.52
5.71
7.75
9.50
10.83
11.59
11.59
10.72
9.00
6.67
4.14
1.88
0.24
-0.63
-0.83
-0.63
-0.37
-0.30
-0.52
-0.97
-1.53
-2.03
-2.41
-2.69
-3.04
-3.69
-4.86
-6.66
-9.02
-11.74
-14.49
-16.99
-19.01
-20.48
-21.39
-21.79
-21.73
-21.21
-20.18
-18.60
-16.46
-13.79
-10.67
-7.24
-3.71
-0.35
2.60
4.98
6.75
8.03
9.00
9.83
10.60
11.27
11.74
11.92
11.80
11.46
11.03
10.61
10.25
9.90
9.56
9.26
9.10
9.20
9.68
10.59
11.95
13.66
15.52
17.37
19.07
20.55
21.78
22.88
24.02
25.49
27.35
29.41
31.41
33.12
34.37
35.22
35.87
36.57
37.56
38.73
39.69
40.23
40.32
40.09
39.77
39.57
39.60
39.96
40.41
40.37
39.48
37.50
34.29
29.95
24.76
18.20
11.09
5.14
0.08
-4.57
-9.07
-13.45
-17.64
-21.48
-24.73
-26.91
-27.76
-27.39
-26.08
-24.55
-23.84
-24.90
-28.08
-32.92
-38.20
-42.73
-45.79
-47.06
-46.61
-44.67
-41.40
-36.83
-31.07
-24.36
-17.24
-10.36
-4.17
1.20
5.88
10.08
13.95
17.47
20.30
21.81
21.18
17.83
11.77
3.78
-4.70
-12.03
-17.09
-19.87
-21.58
-24.14
-29.22
-37.42
-47.96
-59.02
-68.57
-75.18
-78.40
-78.69
-76.90
-73.76
-69.71
-64.97
-59.86
-54.90
-50.84
-48.34
-47.66
-48.52
-50.15
-51.60
-52.08
-51.18
-48.96
-45.79
-42.16
-38.53
-35.23
-32.43
-30.18
-28.44
-27.10
-25.96
-24.82
-23.46
-21.69
-19.34
-16.22
-12.16
-7.00
-0.70
6.65
14.77
23.25
31.69
39.78
47.39
54.48
60.97
66.71
71.46
74.99
77.25
78.53
79.38
80.42
82.14
84.54
87.21
89.34
90.06
88.73
85.09
79.27
71.67
62.83
53.31
43.66
34.40
26.00
18.82
13.05
8.60
5.17
2.34
-0.33
-3.11
-6.16
-9.49
-13.05
-16.76
-20.52
-24.20
-27.66
-30.75
-33.25
-35.05
-36.08
-36.42
-36.28
-35.95
-35.74
-35.80
-36.10
-36.44
-36.51
-36.03
-34.83
-32.87
-30.31
-27.37
-24.31
-21.32
-18.55
-16.09
-13.94
-12.13
-10.63
-9.44
-8.47
-7.61
-6.71
-5.67
-4.44
-3.05
-1.63
-0.32
0.68
1.22
1.15
0.40
-1.03
-3.06
-5.49
-8.05
-10.40
-12.16
-13.04
-12.85
-11.54
-9.28
-6.38
-3.22
-0.27
2.11
3.63
4.15
3.80
2.85
1.73
0.83
0.37
0.33
0.46
0.40
-0.11
-1.21
-2.81
-4.77
-6.91
-9.05
-11.01
-12.59
-13.61
-13.97
-13.80
-13.39
-13.09
-13.13
-13.49
-13.84
-13.71
-12.70
-10.65
-7.69
-4.15
-0.41
3.22
6.58
9.59
12.30
14.75
16.98
19.01
20.80
22.29
23.39
24.02
24.17
23.89
23.30
22.52
21.62
20.64
19.61
18.54
17.50
16.55
15.72
14.94
14.08
12.95
11.45
9.60
7.60
5.76
4.38
3.69
3.70
4.29
5.26
6.34
7.35
8.17
8.78
9.18
9.38
9.40
9.22
8.81
8.20
7.47
6.73
6.06
5.48
4.90
4.19
3.20
1.88
0.30
-1.42
-3.13
-4.76
-6.29
-7.80
-9.39
-11.17
-13.27
-15.88
-19.19
-23.31
-28.11
-33.23
-38.09
-42.02
-44.56
-45.58
-45.32
-44.26
-42.98
-41.88
-41.15
-40.75
-40.45
-40.05
-39.35
-38.23
-36.66
-34.66
-32.26
-29.58
-26.72
-23.84
-21.06
-18.44
-16.02
-13.73
-11.48
-9.19
-6.85
-4.51
-2.34
-0.52
0.80
1.61
2.08
2.56
3.42
4.91
7.07
9.70
12.45
14.97
17.02
18.55
19.62
20.39
20.98
21.47
21.86
22.13
22.27
22.25
22.07
21.71
21.19
20.54
19.75
18.85
17.83
16.70
15.48
14.21
12.94
11.69
10.47
9.18
7.73
6.04
4.15
2.19
0.39
-1.01
-1.88
-2.17
-1.97
-1.37
-0.47
0.63
1.88
3.17
4.40
5.48
6.34
6.97
7.38
7.59
7.64
7.52
7.28
6.96
6.61
6.27
5.95
5.61
5.23
4.77
4.28
3.86
3.60
3.55
3.60
3.57
3.22
2.38
1.04
-0.63
-2.36
-3.85
-4.86
-5.27
-5.02
-4.13
-2.70
-0.84
1.32
3.60
5.82
7.78
9.28
10.22
10.55
10.39
9.94
9.47
9.18
9.12
9.20
9.26
9.14
8.78
8.21
7.52
6.82
6.15
5.54
4.95
4.35
3.65
2.79
1.69
0.30
-1.37
-3.21
-5.05
-6.68
-7.88
-8.42
-8.17
-7.12
-5.37
-3.19
-0.90
1.20
2.95
4.32
5.37
6.23
6.94
7.51
7.92
8.15
8.25
8.28
8.29
8.31
8.32
8.28
8.14
7.88
7.52
7.13
6.78
6.52
6.28
5.93
5.27
4.16
2.60
0.74
-1.19
-2.94
-4.36
-5.36
-5.89
-5.87
-5.26
-4.08
-2.46
-0.59
1.31
3.08
4.67
6.10
7.38
8.46
9.26
9.68
9.73
9.48
9.08
8.66
8.29
7.93
7.51
6.94
6.19
5.30
4.35
3.40
2.49
1.59
0.67
-0.29
-1.30
-2.35
-3.46
-4.69
-6.06
-7.52
-8.89
-9.93
-10.38
-10.10
-9.12
-7.59
-5.76
-3.86
-2.04
-0.37
1.15
2.55
3.86
5.08
6.18
7.07
7.68
7.88
7.59
6.68
5.14
3.02
0.53
-2.04
-4.37
-6.22
-7.52
-8.29
-8.69
-8.90
-9.06
-9.33
-9.83
-10.70
-12.00
-13.67
-15.48
-17.05
-17.94
-17.78
-16.36
-13.72
-10.16
-6.15
-2.26
1.08
3.64
5.51
7.00
8.44
10.08
11.91
13.68
15.04
15.75
15.72
15.15
14.36
13.64
13.13
12.74
12.29
11.54
10.42
9.03
7.58
6.29
5.23
4.29
3.20
1.72
-0.24
-2.57
-4.99
-7.18
-8.89
-10.01
-10.55
-10.51
-9.88
-8.65
-6.83
-4.60
-2.20
0.09
2.06
3.67
4.98
6.08
6.99
7.70
8.16
8.38
8.43
8.43
8.45
8.46
8.41
8.19
7.77
7.18
6.44
5.61
4.67
3.65
2.52
1.30
-0.08
-1.66
-3.52
-5.65
-7.92
-10.09
-11.85
-12.94
-13.20
-12.62
-11.32
-9.47
-7.27
-4.95
-2.74
-0.84
0.61
1.55
2.02
2.14
2.01
1.77
1.52
1.33
1.27
1.31
1.34
1.22
0.83
0.13
-0.78
-1.72
-2.53
-3.11
-3.51
-3.86
-4.29
-4.91
-5.72
-6.70
-7.82
-9.04
-10.26
-11.31
-11.92
-11.82
-10.84
-9.01
-6.59
-3.96
-1.48
0.63
2.31
3.61
4.60
5.34
5.81
6.03
6.01
5.87
5.68
5.55
5.49
5.53
5.67
5.89
6.14
6.31
6.23
5.79
4.93
3.72
2.31
0.83
-0.66
-2.20
-3.89
-5.76
-7.75
-9.63
-11.11
-11.92
-11.94
-11.25
-10.00
-8.42
-6.65
-4.75
-2.70
-0.50
1.78
3.97
5.92
7.49
8.67
9.52
10.17
10.68
11.07
11.32
11.38
11.23
10.87
10.31
9.58
8.74
7.86
6.98
6.09
5.13
3.97
2.56
0.91
-0.79
-2.28
-3.35
-3.87
-3.85
-3.38
-2.59
-1.57
-0.38
0.91
2.23
3.48
4.54
5.30
5.72
5.85
5.79
5.64
5.45
5.19
4.75
4.06
3.11
1.99
0.84
-0.19
-1.03
-1.70
-2.28
-2.85
-3.48
-4.21
-5.10
-6.19
-7.47
-8.86
-10.14
-11.08
-11.46
-11.13
-10.15
-8.65
-6.87
-5.05
-3.34
-1.84
-0.56
0.54
1.50
2.37
3.12
3.72
4.12
4.29
4.25
4.04
3.74
3.41
3.06
2.64
2.09
1.36
0.49
-0.47
-1.41
-2.28
-3.10
-3.95
-4.93
-6.12
-7.51
-8.97
-10.26
-11.15
-11.42
-11.04
-10.08
-8.73
-7.16
-5.52
-3.86
-2.18
-0.51
1.08
2.50
3.64
4.50
5.10
5.52
5.77
5.84
5.66
5.20
4.53
3.73
2.93
2.20
1.52
0.86
0.20
-0.45
-1.09
-1.70
-2.32
-3.01
-3.82
-4.72
-5.63
-6.39
-6.82
-6.77
-6.13
-4.91
-3.20
-1.22
0.81
2.69
4.28
5.50
6.37
6.92
7.22
7.37
7.48
7.61
7.76
7.82
7.67
7.18
6.36
5.29
4.12
2.99
2.00
1.17
0.49
-0.12
-0.78
-1.63
-2.76
-4.16
-5.70
-7.17
-8.33
-9.04
-9.24
-9.00
-8.43
-7.64
-6.64
-5.43
-4.03
-2.47
-0.88
0.62
1.91
2.93
3.67
4.13
4.33
4.28
4.03
3.68
3.38
3.25
3.33
3.57
3.77
3.76
3.41
2.70
1.74
0.63
-0.54
-1.70
-2.87
-4.05
-5.29
-6.55
-7.78
-8.83
-9.50
-9.61
-9.03
-7.81
-6.10
-4.15
-2.19
-0.37
1.22
2.56
3.59
4.24
4.48
4.35
3.96
3.49
3.10
2.87
2.76
2.67
2.46
2.09
1.53
0.85
0.10
-0.70
-1.54
-2.43
-3.36
-4.29
-5.16
-5.94
-6.64
-7.30
-7.99
-8.79
-9.70
-10.64
-11.41
-11.78
-11.53
-10.57
-8.97
-6.96
-4.81
-2.75
-0.90
0.75
2.26
3.66
4.91
5.92
6.61
6.98
7.09
7.05
6.98
6.92
6.85
6.68
6.37
5.91
5.34
4.76
4.25
3.87
3.60
3.35
3.02
2.53
1.81
0.88
-0.23
-1.44
-2.64
-3.71
-4.52
-4.93
-4.82
-4.13
-2.91
-1.29
0.51
2.31
3.93
5.27
6.31
7.08
7.60
7.92
8.07
8.07
7.97
7.79
7.59
7.38
7.14
6.84
6.45
5.98
5.45
4.88
4.26
3.58
2.79
1.88
0.86
-0.22
-1.33
-2.44
-3.54
-4.58
-5.46
-6.03
-6.15
-5.73
-4.81
-3.57
-2.21
-0.92
0.18
1.13
2.00
2.89
3.79
4.58
5.12
5.30
5.14
4.78
4.43
4.21
4.10
3.98
3.73
3.29
2.76
2.26
1.91
1.71
1.56
1.32
0.85
0.11
-0.90
-2.12
-3.48
-4.90
-6.30
-7.56
-8.56
-9.16
-9.26
-8.82
-7.89
-6.62
-5.20
-3.81
-2.58
-1.55
-0.68
0.06
0.69
1.23
1.61
1.84
1.90
1.78
1.54
1.24
0.93
0.64
0.40
0.15
-0.17
-0.64
-1.31
-2.17
-3.15
-4.11
-4.93
-5.55
-6.04
-6.56
-7.27
-8.29
-9.56
-10.89
-12.03
-12.75
-12.97
-12.68
-11.95
-10.87
-9.52
-7.99
-6.39
-4.85
-3.47
-2.30
-1.29
-0.37
0.51
1.33
2.02
2.47
2.60
2.42
2.03
1.57
1.21
1.04
1.05
1.14
1.18
1.10
0.91
0.71
0.57
0.54
0.54
0.44
0.11
-0.48
-1.24
-2.05
-2.76
-3.28
-3.57
-3.59
-3.31
-2.63
-1.53
-0.04
1.69
3.42
4.94
6.14
6.99
7.59
8.02
8.32
8.44
8.35
8.03
7.56
7.06
6.66
6.40
6.23
6.00
5.60
4.92
3.98
2.84
1.63
0.47
-0.54
-1.35
-1.96
-2.45
-2.91
-3.43
-4.06
-4.76
-5.43
-5.90
-6.03
-5.75
-5.07
-4.09
-2.88
-1.49
0.02
1.57
3.05
4.28
5.13
5.52
5.54
5.37
5.19
5.17
5.33
5.57
5.73
5.69
5.45
5.15
5.04
5.35
6.15
7.35
8.71
9.89
10.67
10.93
10.69
10.09
9.29
8.48
7.84
7.52
7.57
7.98
8.57
9.16
9.57
9.75
9.76
9.73
9.84
10.15
10.62
11.14
11.58
11.84
11.92
11.88
11.79
11.66
11.45
11.06
10.37
9.38
8.17
6.97
6.00
5.44
5.33
5.56
5.89
5.97
5.42
3.89
1.19
-2.67
-7.42
-12.55
-17.45
-21.55
-24.47
-26.08
-26.48
-25.93
-24.75
-23.25
-21.66
-20.17
-18.87
-17.80
-16.88
-16.03
-15.15
-14.21
-13.21
-12.21
-11.27
-10.41
-9.67
-9.02
-8.48
-8.06
-7.78
-7.66
-7.70
-7.90
-8.23
-8.67
-9.19
-9.81
-10.48
-11.15
-11.71
-12.01
-11.93
-11.42
-10.48
-9.15
-7.48
-5.50
-3.20
-0.56
2.35
5.37
8.25
10.74
12.71
14.12
15.09
15.79
16.40
16.97
17.46
17.75
17.70
17.26
16.48
15.48
14.42
13.45
12.61
11.88
11.11
10.15
8.86
7.23
5.37
3.53
1.95
0.80
0.10
-0.34
-0.80
-1.58
-2.87
-4.71
-6.98
-9.41
-11.66
-13.37
-14.24
-14.12
-13.04
-11.27
-9.19
-7.16
-5.39
-3.92
-2.59
-1.19
0.44
2.36
4.54
6.83
9.07
11.10
12.78
14.03
14.75
14.81
14.04
12.22
9.21
5.04
0.06
-5.14
-9.81
-13.33
-15.36
-15.96
-15.49
-14.43
-13.13
-11.73
-10.09
-7.95
-5.09
-1.51
2.54
6.60
10.18
12.87
14.47
14.95
14.41
12.98
10.80
8.04
4.91
1.75
-1.09
-3.27
-4.56
-4.92
-4.46
-3.48
-2.34
-1.42
-1.01
-1.27
-2.15
-3.39
-4.66
-5.59
-5.94
-5.61
-4.60
-3.05
-1.10
1.08
3.31
5.39
7.15
8.41
9.11
9.22
8.78
7.82
6.38
4.52
2.25
-0.39
-3.34
-6.44
-9.47
-12.06
-13.82
-14.41
-13.70
-11.82
-9.11
-6.04
-3.06
-0.54
1.19
1.93
1.57
0.27
-1.59
-3.48
-4.82
-5.28
-4.79
-3.57
-1.95
-0.19
1.58
3.32
5.02
6.62
7.99
8.91
9.20
8.72
7.36
5.10
2.03
-1.61
-5.49
-9.18
-12.28
-14.45
-15.50
-15.38
-14.22
-12.27
-9.83
-7.19
-4.55
-2.05
0.27
2.36
4.18
5.67
6.80
7.60
8.19
8.68
9.17
9.68
10.20
10.70
11.24
11.91
12.84
14.06
15.47
16.85
17.94
18.61
18.90
19.02
19.24
19.74
20.59
21.68
22.81
23.71
24.13
23.75
22.36
19.87
16.45
12.58
8.95
6.23
4.88
4.96
6.17
8.02
10.04
11.92
13.52
14.80
15.69
16.05
15.68
14.44
12.33
9.56
6.44
3.24
0.14
-2.85
-5.79
-8.68
-11.51
-14.16
-16.48
-18.43
-20.04
-21.51
-23.04
-24.75
-26.56
-28.20
-29.33
-29.72
-29.38
-28.59
-27.80
-27.44
-27.72
-28.56
-29.65
-30.66
-31.34
-31.59
-31.36
-30.59
-29.12
-26.78
-23.55
-19.59
-15.31
-11.21
-7.71
-4.95
-2.76
-0.75
1.50
4.17
7.11
9.89
12.02
13.13
13.14
12.22
10.67
8.80
6.87
5.04
3.39
2.01
0.94
0.16
-0.41
-0.90
-1.38
-1.87
-2.32
-2.65
-2.82
-2.88
-2.93
-3.09
-3.42
-3.89
-4.36
-4.65
-4.63
-4.21
-3.41
-2.31
-0.99
0.46
1.96
3.42
4.74
5.81
6.59
7.06
7.30
7.46
7.66
8.03
8.56
9.14
9.54
9.53
8.95
7.78
6.16
4.21
1.98
-0.61
-3.77
-7.66
-12.17
-16.96
-21.49
-25.26
-27.98
-29.59
-30.23
-30.09
-29.24
-27.71
-25.45
-22.48
-18.90
-14.93
-10.81
-6.78
-3.03
0.35
3.30
5.80
7.85
9.43
10.53
11.15
11.36
11.26
10.99
10.63
10.19
9.61
8.80
7.76
6.61
5.53
4.72
4.25
4.04
3.94
3.82
3.63
3.41
3.25
3.28
3.59
4.28
5.39
6.93
8.78
10.61
11.97
12.43
11.74
9.96
7.43
4.63
1.97
-0.33
-2.24
-3.84
-5.20
-6.35
-7.25
-7.84
-8.10
-8.03
-7.71
-7.23
-6.71
-6.27
-6.03
-6.02
-6.22
-6.58
-7.03
-7.59
-8.31
-9.28
-10.56
-12.08
-13.68
-15.17
-16.39
-17.21
-17.54
-17.34
-16.53
-15.11
-13.18
-10.94
-8.64
-6.48
-4.50
-2.62
-0.68
1.37
3.39
5.10
6.17
6.39
5.76
4.48
2.81
1.03
-0.65
-2.07
-3.09
-3.61
-3.62
-3.25
-2.80
-2.56
-2.76
-3.37
-4.18
-4.83
-5.05
-4.78
-4.17
-3.51
-3.05
-2.81
-2.66
-2.38
-1.81
-0.97
-0.01
0.91
1.73
2.57
3.68
5.29
7.52
10.24
13.15
15.85
17.96
19.27
19.76
19.62
19.13
18.58
18.16
17.90
17.73
17.56
17.34
17.05
16.72
16.33
15.80
14.95
13.61
11.71
9.26
6.44
3.49
0.73
-1.54
-3.09
-3.76
-3.54
-2.53
-0.93
0.96
2.85
4.48
5.70
6.46
6.86
7.08
7.33
7.76
8.36
8.96
9.29
9.04
8.04
6.30
4.05
1.60
-0.73
-2.72
-4.26
-5.36
-6.13
-6.71
-7.29
-8.05
-9.08
-10.36
-11.72
-12.92
-13.78
-14.26
-14.48
-14.59
-14.74
-14.88
-14.87
-14.55
-13.78
-12.62
-11.19
-9.67
-8.20
-6.85
-5.60
-4.43
-3.30
-2.19
-1.18
-0.34
0.24
0.54
0.66
0.79
1.13
1.81
2.75
3.74
4.53
4.96
5.03
4.91
4.76
4.67
4.59
4.32
3.64
2.41
0.55
-1.91
-4.87
-8.15
-11.49
-14.55
-16.98
-18.51
-19.05
-18.65
-17.52
-15.92
-14.06
-12.07
-9.94
-7.61
-5.03
-2.22
0.66
3.30
5.42
6.83
7.54
7.81
8.01
8.41
9.09
9.82
10.28
10.20
9.51
8.41
7.20
6.22
5.67
5.63
6.08
6.99
8.26
9.77
11.27
12.47
13.05
12.85
11.89
10.41
8.86
7.71
7.33
7.87
9.23
11.09
13.10
14.94
16.42
17.49
18.24
18.73
19.01
19.05
18.69
17.98
16.87
15.36
13.43
11.07
8.27
5.05
1.47
-2.48
-6.43
-10.15
-13.47
-16.28
-18.58
-20.45
-22.11
-23.81
-26.14
-29.20
-33.22
-38.27
-43.90
-49.23
-53.04
-54.25
-52.37
-47.93
-41.49
-34.15
-26.86
-20.07
-13.64
-7.17
-0.34
8.67
17.04
24.82
31.75
37.42
41.38
43.36
43.39
41.86
39.52
36.85
34.67
32.90
30.63
26.82
20.94
13.28
4.70
-3.89
-12.32
-20.27
-26.06
-27.80
-24.46
-16.65
-6.40
3.53
10.50
12.49
9.32
2.34
-6.35
-14.64
-21.07
-25.09
-27.42
-28.36
-28.31
-27.34
-25.51
-23.10
-20.50
-18.10
-16.05
-14.28
-12.48
-10.39
-7.71
-4.26
-0.34
3.59
7.14
10.17
12.77
15.17
17.48
19.67
21.66
23.27
24.44
25.29
26.08
27.04
28.21
29.22
29.37
27.81
23.90
17.53
9.32
0.51
-7.47
-13.44
-16.88
-17.99
-17.46
-16.17
-14.91
-14.20
-14.37
-15.56
-17.80
-20.96
-24.74
-28.63
-31.96
-34.04
-34.39
-32.88
-29.76
-25.64
-21.26
-17.39
-14.57
-13.10
-12.98
-13.94
-15.54
-17.24
-18.55
-19.06
-18.40
-16.28
-12.56
-7.39
-1.20
5.33
11.55
17.11
22.03
26.61
31.09
35.37
39.01
41.44
42.31
41.77
40.36
38.78
37.59
36.98
36.91
37.18
37.62
38.08
38.39
38.44
38.07
37.22
35.90
34.20
32.22
30.07
27.82
25.61
23.58
21.90
20.63
19.71
18.93
17.98
16.59
14.63
12.10
9.16
6.04
2.94
-0.01
-2.73
-5.25
-7.67
-10.11
-12.71
-15.53
-18.51
-21.47
-24.19
-26.44
-28.11
-29.21
-29.82
-30.08
-30.15
-30.13
-30.10
-30.11
-30.16
-30.21
-30.14
-29.81
-29.05
-27.77
-25.95
-23.72
-21.28
-18.86
-16.67
-14.77
-13.07
-11.41
-9.58
-7.51
-5.25
-3.02
-1.01
0.63
1.88
2.81
3.54
4.13
4.62
4.98
5.27
5.55
5.94
6.49
7.21
8.02
8.88
9.76
10.74
11.85
13.03
14.07
14.78
15.05
15.04
15.16
15.95
17.88
21.16
25.68
31.07
36.86
42.62
48.12
53.36
58.49
63.71
69.17
74.80
80.44
85.72
90.18
93.28
94.48
93.45
90.26
85.53
80.27
75.64
72.45
70.87
70.28
69.66
67.89
64.24
58.41
50.56
41.08
30.50
19.47
8.70
-1.07
-9.29
-15.71
-20.54
-24.35
-27.89
-31.81
-36.38
-41.45
-46.41
-50.51
-53.14
-54.01
-53.32
-51.64
-49.63
-47.84
-46.46
-45.32
-44.03
-42.11
-39.19
-35.19
-30.31
-25.03
-19.99
-15.90
-13.30
-12.49
-13.36
-15.45
-18.13
-20.74
-22.83
-24.19
-24.83
-24.89
-24.46
-23.61
-22.38
-20.87
-19.18
-17.37
-15.38
-13.01
-10.05
-6.46
-2.52
1.16
3.88
5.12
4.80
3.29
1.21
-0.84
-2.60
-4.12
-5.75
-7.81
-10.43
-13.51
-16.69
-19.66
-22.24
-24.54
-26.80
-29.23
-31.81
-34.22
-35.90
-36.37
-35.33
-32.92
-29.55
-25.81
-22.18
-18.90
-15.97
-13.28
-10.69
-8.18
-5.83
-3.82
-2.31
-1.46
-1.34
-2.01
-3.47
-5.63
-8.35
-11.37
-14.35
-17.00
-19.09
-20.52
-21.30
-21.48
-21.18
-20.49
-19.57
-18.66
-18.04
-18.00
-18.70
-20.09
-21.89
-23.66
-24.92
-25.30
-24.66
-23.05
-20.76
-18.12
-15.44
-12.89
-10.57
-8.47
-6.59
-4.97
-3.62
-2.53
-1.63
-0.85
-0.20
0.08
-0.38
-1.91
-4.51
-7.68
-10.48
-11.90
-11.33
-8.79
-4.93
-0.66
3.28
6.49
8.87
10.45
11.25
11.29
10.78
10.21
10.16
11.10
13.07
15.66
18.19
20.06
20.97
21.00
20.37
19.32
18.02
16.58
15.12
13.79
12.73
12.02
11.57
11.23
10.77
10.03
8.89
7.32
5.37
3.16
0.88
-1.25
-3.00
-4.25
-4.95
-5.14
-4.90
-4.30
-3.47
-2.50
-1.54
-0.66
0.17
1.10
2.39
4.26
6.77
9.73
12.84
15.72
18.15
20.02
21.36
22.20
22.49
22.17
21.20
19.66
17.76
15.80
14.02
12.58
11.49
10.60
9.73
8.70
7.33
5.56
3.29
0.46
-2.96
-6.99
-11.56
-16.50
-21.53
-26.28
-30.39
-33.49
-35.37
-35.93
-35.25
-33.54
-31.11
-28.35
-25.64
-23.21
-21.13
-19.29
-17.47
-15.47
-13.22
-10.85
-8.65
-6.95
-6.00
-5.88
-6.49
-7.57
-8.81
-9.94
-10.74
-11.17
-11.28
-11.23
-11.18
-11.24
-11.46
-11.78
-12.16
-12.56
-12.94
-13.20
-13.22
-12.80
-11.84
-10.33
-8.49
-6.58
-4.77
-3.11
-1.46
0.34
2.34
4.41
6.29
7.70
8.52
8.79
8.69
8.46
8.30
8.34
8.59
8.99
9.40
9.65
9.66
9.42
9.07
8.80
8.71
8.79
8.85
8.68
8.10
7.08
5.69
4.12
2.61
1.44
0.88
1.14
2.33
4.44
7.29
10.65
14.28
17.94
21.39
24.32
26.39
27.31
26.99
25.70
23.93
22.25
21.05
20.39
20.06
19.76
19.36
18.96
18.84
19.10
19.48
19.33
17.81
14.34
8.91
2.16
-4.84
-11.04
-15.71
-18.56
-19.61
-18.99
-16.93
-13.77
-10.10
-6.70
-4.26
-3.09
-2.91
-3.09
-2.96
-2.33
-1.63
-1.66
-3.16
-6.29
-10.50
-14.80
-18.24
-20.31
-21.11
-21.16
-21.05
-21.17
-21.60
-22.22
-22.94
-23.85
-25.13
-27.03
-29.67
-33.02
-36.90
-41.05
-45.11
-48.70
-51.45
-53.05
-53.35
-52.40
-50.43
-47.67
-44.31
-40.43
-36.09
-31.40
-26.65
-22.25
-18.65
-16.24
-15.20
-15.45
-16.62
-18.04
-18.86
-18.12
-15.00
-9.05
-0.35
10.37
21.92
32.92
42.18
49.04
53.49
56.08
57.57
58.61
59.49
60.11
60.11
59.19
57.26
54.51
51.32
48.09
45.13
42.61
40.63
39.31
38.75
39.00
39.91
41.10
42.06
42.26
41.37
39.38
36.54
33.30
30.10
27.32
25.17
23.73
22.86
22.31
21.74
20.91
19.77
18.49
17.34
16.51
15.93
15.24
13.92
11.51
7.78
2.82
-3.04
-9.37
-15.66
-21.41
-26.15
-29.58
-31.61
-32.48
-32.65
-32.63
-32.75
-33.12
-33.64
-34.17
-34.60
-34.96
-35.28
-35.52
-35.52
-35.07
-34.02
-32.38
-30.29
-27.95
-25.43
-22.69
-19.55
-15.78
-11.29
-6.18
-0.78
4.41
8.88
12.25
14.40
15.43
15.64
15.38
15.05
15.05
15.73
17.35
20.00
23.51
27.57
31.70
35.49
38.58
40.69
41.59
41.14
39.33
36.35
32.63
28.73
25.12
22.03
19.43
17.07
14.63
11.88
8.73
5.27
1.69
-1.78
-4.96
-7.76
-10.23
-12.53
-14.88
-17.47
-20.39
-23.54
-26.69
-29.49
-31.55
-32.57
-32.34
-30.83
-28.20
-24.74
-20.84
-16.88
-13.15
-9.82
-6.86
-4.20
-1.73
0.58
2.72
4.61
6.22
7.54
8.58
9.34
9.76
9.76
9.24
8.21
6.75
5.09
3.47
2.08
1.01
0.24
-0.41
-1.17
-2.27
-3.90
-6.11
-8.82
-11.79
-14.66
-16.95
-18.17
-17.89
-15.92
-12.35
-7.61
-2.39
2.61
6.80
9.90
11.84
12.75
12.79
12.09
10.81
9.15
7.40
5.87
4.79
4.26
4.20
4.42
4.72
4.91
4.86
4.49
3.77
2.67
1.15
-0.83
-3.30
-6.25
-9.58
-13.06
-16.31
-18.83
-20.12
-19.84
-17.88
-14.50
-10.22
-5.70
-1.55
1.88
4.50
6.46
7.92
9.01
9.70
9.95
9.76
9.22
8.50
7.73
6.91
5.89
4.45
2.48
0.05
-2.51
-4.81
-6.46
-7.33
-7.52
-7.41
-7.45
-8.09
-9.63
-12.16
-15.52
-19.35
-23.08
-26.07
-27.71
-27.68
-26.02
-23.16
-19.77
-16.55
-14.04
-12.43
-11.71
-11.70
-12.22
-13.18
-14.55
-16.33
-18.52
-21.10
-24.05
-27.33
-30.85
-34.37
-37.56
-40.06
-41.65
-42.36
-42.47
-42.46
-42.74
-43.49
-44.55
-45.44
-45.47
-43.90
-40.17
-34.02
-25.60
-15.50
-4.54
6.33
16.34
25.04
32.26
38.08
42.67
46.24
49.07
51.46
53.74
56.05
58.25
59.86
60.20
58.64
54.96
49.49
42.97
36.32
30.20
24.87
20.16
15.73
11.30
6.86
2.60
-1.20
-4.38
-6.99
-9.26
-11.38
-13.35
-14.88
-15.47
-14.71
-12.48
-9.04
-4.95
-0.76
3.23
7.08
11.06
15.41
20.13
24.93
29.35
33.01
35.65
37.06
37.03
35.28
31.56
25.90
18.75
10.97
3.55
-2.66
-7.28
-10.44
-12.64
-14.56
-16.76
-19.56
-23.01
-26.86
-30.68
-33.94
-36.09
-36.72
-35.61
-32.86
-28.81
-24.07
-19.38
-15.44
-12.71
-11.25
-10.74
-10.55
-10.04
-8.76
-6.61
-3.75
-0.45
3.09
6.77
10.56
14.39
18.12
21.62
24.79
27.63
30.15
32.28
33.81
34.45
33.98
32.42
30.08
27.48
25.16
23.59
23.00
23.48
24.93
27.11
29.66
32.13
34.06
35.14
35.22
34.42
32.92
30.84
28.12
24.52
19.85
14.09
7.53
0.63
-6.15
-12.53
-18.47
-23.98
-29.06
-33.57
-37.36
-40.31
-42.45
-43.88
-44.69
-44.86
-44.20
-42.53
-39.78
-36.15
-32.04
-27.96
-24.28
-21.07
-18.08
-14.79
-10.57
-4.92
2.42
11.36
21.53
32.32
43.08
53.14
61.98
69.19
74.56
78.06
79.86
80.29
79.77
78.70
77.30
75.50
73.01
69.38
64.23
57.39
48.98
39.30
28.77
17.85
7.11
-2.77
-11.01
-16.95
-20.24
-21.11
-20.24
-18.57
-16.91
-15.70
-14.97
-14.52
-14.18
-13.92
-13.87
-14.16
-14.84
-15.79
-16.80
-17.67
-18.28
-18.57
-18.57
-18.31
-17.85
-17.36
-17.07
-17.30
-18.31
-20.31
-23.29
-27.08
-31.31
-35.47
-39.06
-41.64
-42.95
-43.03
-42.10
-40.53
-38.64
-36.55
-34.17
-31.28
-27.68
-23.42
-18.79
-14.26
-10.27
-7.05
-4.55
-2.55
-0.85
0.65
1.88
2.68
2.95
2.71
2.13
1.39
0.59
-0.30
-1.48
-3.24
-5.87
-9.56
-14.35
-20.00
-26.03
-31.76
-36.46
-39.55
-40.80
-40.33
-38.50
-35.62
-31.84
-27.08
-21.22
-14.38
-7.10
-0.24
5.21
8.57
9.57
8.46
5.77
2.09
-2.04
-6.28
-10.41
-14.31
-17.86
-20.96
-23.48
-25.30
-26.39
-26.84
-26.93
-27.07
-27.59
-28.58
-29.73
-30.42
-29.91
-27.62
-23.31
-17.13
-9.52
-1.06
7.69
16.22
24.10
30.96
36.53
40.71
43.57
45.35
46.34
46.77
46.74
46.27
45.37
44.09
42.54
40.86
39.12
37.29
35.30
33.04
30.58
28.05
25.69
23.65
21.92
20.29
18.42
15.98
12.78
8.85
4.40
-0.22
-4.59
-8.30
-10.96
-12.30
-12.21
-10.81
-8.46
-5.65
-2.92
-0.65
0.95
1.87
2.22
2.16
1.83
1.30
0.61
-0.27
-1.29
-2.40
-3.47
-4.41
-5.18
-5.84
-6.48
-7.16
-7.90
-8.67
-9.41
-10.16
-11.01
-12.14
-13.69
-15.61
-17.71
-19.56
-20.67
-20.61
-19.12
-16.24
-12.26
-7.68
-3.03
1.28
5.06
8.33
11.25
13.96
16.52
18.82
20.67
21.96
22.65
22.86
22.75
22.46
22.05
21.48
20.70
19.70
18.56
17.41
16.33
15.33
14.25
12.90
11.11
8.77
5.89
2.56
-1.09
-4.83
-8.42
-11.50
-13.68
-14.63
-14.21
-12.54
-10.04
-7.27
-4.71
-2.56
-0.72
1.09
3.09
5.23
7.17
8.48
8.83
8.24
7.06
5.81
4.92
4.58
4.68
4.99
5.30
5.53
5.71
5.88
6.05
6.13
5.99
5.57
4.82
3.76
2.43
0.86
-0.90
-2.72
-4.27
-5.12
-4.77
-2.88
0.60
5.30
10.50
15.34
19.00
20.93
21.00
19.49
16.89
13.71
10.33
6.89
3.42
-0.06
-3.46
-6.56
-9.08
-10.88
-11.94
-12.40
-12.51
-12.49
-12.46
-12.44
-12.36
-12.20
-12.01
-11.98
-12.38
-13.45
-15.33
-17.95
-21.04
-24.16
-26.86
-28.72
-29.47
-29.02
-27.49
-25.07
-22.07
-18.72
-15.22
-11.66
-8.10
-4.65
-1.47
1.23
3.28
4.65
5.51
6.23
7.23
8.83
11.13
13.96
16.95
19.64
21.66
22.81
23.15
22.93
22.52
22.27
22.42
23.01
23.86
24.67
25.00
24.50
23.01
20.67
17.97
15.62
14.29
14.37
15.83
18.18
20.80
23.12
24.93
26.31
27.48
28.56
29.46
29.82
29.26
27.54
24.63
20.75
16.26
11.54
6.95
2.77
-0.76
-3.48
-5.29
-6.17
-6.26
-5.78
-5.10
-4.62
-4.71
-5.61
-7.42
-10.04
-13.18
-16.46
-19.44
-21.70
-22.94
-22.96
-21.76
-19.44
-16.23
-12.35
-7.98
-3.23
1.77
6.85
11.68
15.82
18.83
20.43
20.59
19.60
17.97
16.26
14.93
14.14
13.79
13.57
13.11
12.18
10.72
8.89
6.99
5.29
3.98
3.03
2.26
1.37
0.05
-1.95
-4.70
-8.12
-11.93
-15.70
-18.90
-21.08
-21.93
-21.40
-19.74
-17.38
-14.82
-12.53
-10.77
-9.65
-9.12
-9.05
-9.27
-9.60
-9.89
-10.04
-10.02
-9.90
-9.85
-10.01
-10.51
-11.33
-12.30
-13.16
-13.65
-13.69
-13.37
-12.98
-12.83
-13.12
-13.80
-14.59
-15.17
-15.23
-14.65
-13.41
-11.51
-8.97
-5.81
-2.16
1.67
5.22
8.03
9.81
10.53
10.46
9.97
9.39
8.87
8.40
7.84
7.08
5.99
4.58
2.85
0.85
-1.41
-3.96
-6.81
-9.90
-13.09
-16.17
-18.90
-21.08
-22.61
-23.54
-23.98
-24.15
-24.23
-24.38
-24.63
-24.89
-24.86
-24.08
-22.12
-18.70
-13.98
-8.57
-3.37
0.75
3.32
4.40
4.53
4.40
4.57
5.15
5.93
6.48
6.50
5.93
4.97
3.94
3.10
2.54
2.17
1.83
1.45
1.04
0.73
0.65
0.76
0.89
0.73
0.03
-1.34
-3.31
-5.68
-8.19
-10.60
-12.69
-14.20
-14.85
-14.37
-12.63
-9.69
-5.88
-1.72
2.28
5.74
8.52
10.69
12.38
13.68
14.61
15.16
15.33
15.17
14.82
14.42
14.08
13.80
13.58
13.36
13.12
12.82
12.43
11.88
11.09
10.00
8.60
6.95
5.13
3.19
1.12
-1.11
-3.59
-6.26
-8.97
-11.37
-13.02
-13.51
-12.56
-10.13
-6.49
-2.05
2.66
7.20
11.27
14.77
17.73
20.22
22.34
24.11
25.57
26.71
27.57
28.21
28.71
29.10
29.33
29.26
28.74
27.65
25.99
23.88
21.53
19.11
16.72
14.34
11.87
9.24
6.42
3.44
0.37
-2.71
-5.68
-8.32
-10.33
-11.35
-11.16
-9.79
-7.63
-5.24
-3.24
-1.99
-1.50
-1.48
-1.53
-1.37
-0.91
-0.27
0.32
0.68
0.76
0.59
0.26
-0.19
-0.71
-1.30
-1.96
-2.69
-3.53
-4.55
-5.76
-7.14
-8.62
-10.12
-11.61
-13.14
-14.75
-16.53
-18.50
-20.71
-23.16
-25.84
-28.61
-31.19
-33.13
-33.94
-33.28
-31.13
-27.79
-23.78
-19.63
-15.65
-11.96
-8.55
-5.39
-2.53
-0.07
1.86
3.23
4.09
4.57
4.82
4.99
5.23
5.59
6.03
6.38
6.40
5.92
4.89
3.46
1.88
0.32
-1.20
-2.86
-4.87
-7.32
-10.05
-12.78
-15.19
-17.15
-18.70
-19.94
-20.83
-21.15
-20.51
-18.61
-15.43
-11.28
-6.73
-2.43
1.18
3.93
5.92
7.41
8.70
10.05
11.61
13.36
15.22
17.00
18.51
19.67
20.50
21.12
21.69
22.35
23.18
24.21
25.44
26.83
28.24
29.45
30.11
29.90
28.63
26.44
23.74
21.03
18.63
16.53
14.40
11.84
8.70
5.28
2.25
0.46
0.56
2.81
7.09
12.94
19.83
27.19
34.39
40.73
45.43
47.78
47.28
43.86
37.84
29.80
20.35
9.92
-1.32
-13.30
-25.79
-38.23
-49.72
-59.29
-66.15
-70.04
-71.26
-70.55
-68.86
-67.20
-66.48
-67.46
-70.50
-75.34
-80.96
-85.75
-88.11
-87.05
-82.62
-75.85
-68.22
-60.98
-54.61
-48.87
-43.10
-36.81
-29.96
-23.05
-16.80
-11.76
-8.15
-5.72
-3.98
-2.33
-0.26
2.60
6.45
11.34
17.12
23.36
29.38
34.30
37.45
38.54
37.83
35.98
33.70
31.48
29.44
27.50
25.55
23.65
22.00
20.78
20.04
19.62
19.29
18.80
17.98
16.60
14.41
11.06
6.24
-0.15
-7.88
-16.30
-24.54
-31.64
-36.88
-39.82
-40.46
-39.08
-36.15
-32.26
-28.00
-23.96
-20.61
-18.23
-16.73
-15.64
-14.23
-11.73
-7.78
-2.61
2.93
7.65
10.55
11.22
10.15
8.58
8.11
10.12
15.27
23.32
33.18
43.29
52.14
58.69
62.65
64.33
64.33
63.14
61.00
58.02
54.35
50.45
46.88
44.03
41.78
39.41
35.95
30.68
23.64
15.66
8.05
2.00
-1.95
-4.07
-5.13
-6.03
-7.33
-9.10
-11.03
-12.62
-13.60
-13.95
-13.96
-14.02
-14.42
-15.22
-16.24
-17.16
-17.63
-17.41
-16.43
-14.81
-12.82
-10.77
-8.90
-7.31
-5.93
-4.57
-2.97
-0.96
1.51
4.22
6.79
8.68
9.44
8.89
7.34
5.50
4.32
4.61
6.69
10.27
14.52
18.37
20.85
21.29
19.45
15.53
10.02
3.66
-2.78
-8.66
-13.62
-17.68
-21.08
-24.12
-26.98
-29.64
-32.01
-34.05
-35.87
-37.60
-39.30
-40.78
-41.64
-41.45
-40.01
-37.54
-34.66
-32.15
-30.65
-30.39
-31.14
-32.40
-33.66
-34.64
-35.38
-36.13
-37.20
-38.74
-40.74
-43.11
-45.75
-48.64
-51.77
-55.10
-58.51
-61.89
-65.20
-68.51
-71.97
-75.56
-78.92
-81.27
-81.46
-78.28
-70.83
-58.89
-43.13
-25.14
-7.06
8.95
21.47
30.34
36.80
42.98
50.98
61.73
74.49
87.07
96.71
101.14
99.39
92.24
82.13
72.74
68.21
71.79
84.57
104.64
127.15
145.63
154.25
150.00
133.93
110.80
87.39
70.21
63.40
67.56
79.62
93.82
103.48
103.01
89.68
64.33
30.90
-5.04
-38.42
-66.06
-86.85
-100.90
-108.57
-109.92
-105.08
-94.76
-80.44
-64.56
-49.78
-37.69
-27.88
-18.27
-6.39
9.09
27.65
47.74
66.77
82.01
91.81
96.39
97.27
96.04
93.16
87.72
78.88
65.28
45.11
17.63
-15.31
-49.09
-77.55
-94.91
-97.26
-82.25
-51.37
-10.48
32.08
68.50
93.25
103.61
99.13
73.18
27.84
-25.41
-73.69
-111.50
-139.76
-159.93
-170.06
-165.81
-143.83
-105.78
-55.89
-3.09
42.03
72.23
86.10
87.24
81.12
72.37
64.63
56.08
45.58
32.14
16.17
-2.74
-22.39
-39.67
-52.20
-59.02
-61.07
-60.34
-58.99
-57.83
-55.99
-51.83
-44.51
-34.62
-23.68
-13.64
-6.09
-1.91
-0.53
0.31
2.64
7.36
14.10
21.76
29.23
36.00
41.99
46.18
49.38
52.54
56.07
59.78
62.67
63.16
59.51
50.39
35.59
16.94
-2.45
-19.48
-32.06
-39.80
-43.66
-44.97
-44.66
-43.22
-41.17
-38.76
-37.22
-37.89
-41.27
-46.40
-51.09
-52.18
-48.86
-41.67
-32.35
-23.04
-15.29
-9.78
-6.69
-6.08
-7.99
-12.23
-17.61
-22.18
-24.02
-22.07
-16.72
-9.78
-3.53
0.46
2.16
3.13
5.53
10.63
18.14
26.37
33.11
36.83
37.25
35.06
31.41
27.03
21.85
15.48
7.81
-0.68
-8.77
-15.05
-18.51
-18.71
-15.78
-10.16
-2.71
5.03
10.71
11.61
5.60
-7.56
-25.29
-42.67
-54.01
-55.05
-44.75
-25.82
-3.41
17.02
31.31
38.60
40.51
39.68
38.23
37.05
35.87
34.08
31.54
28.81
27.04
27.07
28.91
31.72
34.46
36.43
37.67
38.64
39.42
39.29
36.59
29.64
17.78
2.05
-15.07
-30.65
-42.54
-50.07
-53.84
-55.17
-54.91
-53.37
-50.46
-46.18
-40.89
-35.29
-30.17
-25.71
-21.73
-17.83
-13.60
-8.95
-4.16
0.28
3.88
6.41
8.06
9.24
10.41
11.72
12.97
13.66
13.26
11.53
8.69
5.33
2.08
-0.63
-2.71
-4.24
-5.26
-5.60
-4.85
-2.66
1.01
5.72
10.62
14.71
17.11
17.34
15.52
12.18
8.15
4.25
1.02
-1.35
-2.98
-4.11
-4.93
-5.37
-5.28
-4.58
-3.44
-2.27
-1.62
-1.83
-2.85
-4.21
-5.25
-5.42
-4.62
-3.20
-1.87
-1.29
-1.86
-3.49
-5.69
-7.76
-9.09
-9.26
-8.21
-6.12
-3.42
-0.62
1.82
3.52
4.32
4.26
3.52
2.31
0.81
-0.84
-2.52
-4.07
-5.32
-6.10
-6.42
-6.37
-6.20
-6.14
-6.30
-6.65
-7.07
-7.38
-7.63
-7.90
-8.30
-8.94
-9.91
-11.27
-13.05
-15.21
-17.55
-19.69
-21.04
-21.07
-19.39
-16.01
-11.28
-5.81
-0.22
4.97
9.40
12.89
15.36
16.84
17.42
17.26
16.58
15.64
14.67
13.79
12.99
12.16
11.15
9.85
8.22
6.34
4.44
2.73
1.22
-0.28
-2.12
-4.61
-7.85
-11.76
-15.96
-19.71
-22.26
-23.23
-22.67
-20.98
-18.61
-15.99
-13.40
-10.90
-7.81
-3.51
1.94
7.63
12.20
14.62
14.42
11.97
8.33
5.67
5.75
8.84
13.56
17.73
19.78
19.14
16.43
13.28
12.65
16.90
26.46
39.65
53.71
66.41
75.83
80.49
72.75
48.63
11.63
-27.67
-57.94
-72.57
-70.86
-57.33
-39.24
-23.19
-12.60
-7.73
-6.65
-6.47
-6.91
-6.46
-4.61
-1.91
0.56
2.69
4.88
7.26
9.50
11.25
13.10
15.77
20.28
27.49
38.02
51.29
65.08
76.36
82.30
81.42
72.85
57.55
38.63
20.78
8.56
4.14
7.18
15.37
26.06
36.39
45.52
54.61
65.16
76.94
86.26
88.05
77.93
54.06
16.34
-32.08
-85.19
-135.84
-177.62
-207.01
-222.16
-222.83
-202.61
-162.31
-111.28
-62.61
-27.27
-4.07
10.08
18.80
24.60
29.36
32.79
34.39
34.37
33.36
31.98
29.55
26.12
22.13
17.91
12.46
5.28
-2.74
-9.58
-12.93
-11.63
-4.34
9.62
29.58
52.63
75.27
94.20
106.59
110.16
99.46
73.32
37.40
1.61
-26.44
-44.19
-53.06
-55.98
-55.58
-53.60
-49.96
-44.32
-37.28
-30.57
-25.90
-23.95
-24.21
-25.42
-26.31
-25.48
-22.41
-17.76
-13.03
-9.59
-8.00
-7.99
-8.81
-9.57
-9.34
-7.70
-4.98
-2.06
0.22
1.48
1.78
1.45
0.93
0.74
1.20
2.30
3.75
5.17
6.30
6.97
7.12
6.81
6.31
5.94
6.02
6.66
7.78
9.05
10.03
10.21
9.30
7.34
4.72
1.98
-0.49
-2.51
-4.48
-6.74
-9.68
-13.54
-18.33
-23.84
-29.73
-35.32
-39.48
-40.80
-38.01
-30.79
-20.10
-8.20
2.24
9.18
12.04
11.87
10.53
9.69
9.97
10.89
11.46
11.04
9.78
8.41
7.78
8.21
9.30
10.21
10.11
8.79
6.66
4.62
3.44
3.49
4.59
6.20
7.72
8.82
9.50
10.08
10.98
12.43
14.43
16.74
18.90
20.45
21.12
20.92
20.21
19.49
19.14
19.33
20.01
20.88
21.65
22.03
21.85
20.88
19.58
17.95
15.97
13.69
11.31
9.13
7.42
6.30
5.68
5.37
5.03
4.49
3.79
3.04
2.36
1.73
1.03
0.12
-1.04
-2.35
-3.48
-4.09
-3.93
-2.97
-1.41
0.43
2.20
3.64
4.51
4.75
4.42
3.63
2.60
1.53
0.57
-0.20
-0.77
-1.16
-1.39
-1.50
-1.60
-1.84
-2.36
-3.22
-4.31
-5.45
-6.43
-7.16
-7.72
-8.29
-9.08
-10.18
-11.60
-13.24
-14.95
-16.54
-17.81
-18.51
-18.41
-17.35
-15.35
-12.63
-9.56
-6.54
-3.90
-1.79
-0.18
1.03
1.95
2.61
2.97
2.95
2.52
1.73
0.73
-0.32
-1.28
-2.10
-2.76
-3.28
-3.61
-3.70
-3.45
-2.84
-2.01
-1.14
-0.53
-0.42
-0.94
-2.05
-3.62
-5.45
-7.37
-9.25
-10.99
-12.46
-13.46
-13.82
-13.41
-12.29
-10.60
-8.67
-6.71
-4.78
-2.88
-1.09
0.37
1.27
1.51
1.08
0.05
-1.47
-3.26
-5.15
-6.94
-8.45
-9.46
-9.80
-9.52
-9.13
-9.12
-9.57
-10.22
-10.77
-10.94
-10.67
-10.12
-9.65
-10.41
-12.91
-16.56
-20.29
-23.31
-25.33
-26.34
-26.53
-26.15
-26.92
-29.49
-32.70
-34.84
-35.09
-33.69
-31.42
-29.09
-27.39
-29.01
-34.77
-42.60
-49.65
-54.61
-57.80
-60.19
-62.73
-66.19
-74.29
-88.65
-107.18
-126.22
-142.95
-155.36
-161.53
-159.69
-129.61
-69.32
1.92
61.42
100.02
120.07
127.92
129.54
128.87
127.67
123.09
113.78
102.02
91.52
84.38
80.68
79.58
79.92
80.70
78.75
72.90
64.90
57.57
52.52
49.82
48.91
49.06
49.60
48.57
45.41
41.55
38.97
38.24
38.21
36.76
31.88
22.71
9.36
-6.18
-20.71
-31.55
-37.82
-40.32
-40.41
-39.08
-36.57
-32.95
-28.41
-23.56
-19.34
-16.69
-15.93
-16.45
-17.02
-16.62
-14.67
-11.52
-8.07
-5.16
-3.21
-2.03
-1.04
0.31
2.19
4.32
6.14
7.12
7.07
6.23
5.05
4.01
3.30
2.81
2.22
1.13
-0.65
-3.09
-5.89
-8.47
-10.13
-10.23
-8.43
-4.72
0.29
5.52
9.72
11.81
11.30
8.47
4.20
-0.43
-4.56
-7.91
-10.74
-13.45
-16.28
-19.08
-21.46
-23.06
-23.87
-24.17
-24.54
-25.52
-27.27
-29.62
-32.08
-34.17
-35.50
-36.52
-37.50
-38.76
-40.49
-42.75
-45.57
-48.82
-52.20
-55.23
-57.19
-57.14
-54.32
-48.37
-39.53
-28.68
-17.09
-6.04
3.49
11.02
16.60
20.47
22.95
24.30
24.69
24.34
23.54
22.65
22.02
21.78
21.76
21.49
20.41
18.20
14.97
11.25
7.76
5.07
3.28
1.97
0.40
-2.17
-6.17
-11.53
-17.76
-24.06
-29.43
-32.92
-33.72
-31.41
-26.12
-18.53
-9.70
-0.71
7.56
14.67
20.50
25.06
28.33
30.23
30.71
29.87
28.07
25.85
23.79
22.26
21.34
20.82
20.37
19.70
18.64
17.27
15.74
14.18
12.59
10.78
8.45
5.26
1.02
-4.23
-10.06
-15.67
-20.02
-22.05
-21.04
-16.83
-9.87
-1.12
8.33
17.54
25.93
33.26
39.49
44.60
48.48
51.00
52.10
51.89
50.75
49.14
47.51
46.10
44.86
43.54
41.85
39.62
36.85
33.78
30.63
27.58
24.57
21.39
17.77
13.44
8.25
2.20
-4.51
-11.43
-17.93
-23.19
-26.44
-27.13
-25.05
-20.46
-13.99
-6.49
1.15
8.20
14.17
18.84
22.21
24.36
25.42
25.51
24.78
23.46
21.82
20.21
18.88
17.95
17.32
16.74
15.88
14.46
12.36
9.64
6.54
3.34
0.27
-2.57
-5.28
-8.06
-11.15
-14.73
-18.85
-23.37
-27.94
-31.97
-34.70
-35.31
-33.23
-28.32
-21.07
-12.39
-3.38
5.04
12.32
18.28
22.91
26.18
28.04
28.52
27.83
26.47
25.07
24.15
23.97
24.37
24.96
25.21
24.79
23.69
22.15
20.61
19.40
18.57
17.85
16.75
14.81
11.84
8.05
3.97
0.39
-1.90
-2.13
0.31
5.79
14.17
24.68
36.02
46.63
55.18
60.94
63.88
64.48
63.34
60.79
56.82
51.18
43.72
34.65
24.63
14.64
5.74
-1.25
-5.97
-8.60
-9.76
-10.31
-11.01
-12.35
-14.48
-17.29
-20.61
-24.30
-28.30
-32.53
-36.90
-41.27
-45.60
-49.93
-54.33
-58.70
-62.57
-65.15
-65.49
-62.90
-57.22
-49.02
-39.34
-29.44
-20.37
-12.82
-7.08
-3.20
-1.10
-0.68
-1.83
-4.28
-7.58
-11.11
-14.16
-16.15
-16.80
-16.24
-14.96
-13.60
-12.71
-12.59
-13.20
-14.30
-15.58
-16.85
-18.00
-19.10
-20.28
-21.75
-23.79
-26.66
-30.44
-34.90
-39.39
-42.82
-44.05
-42.20
-37.07
-29.26
-19.99
-10.70
-2.56
3.82
8.41
11.58
13.81
15.44
16.62
17.29
17.32
16.65
15.29
13.34
10.95
8.24
5.27
2.03
-1.54
-5.43
-9.59
-13.84
-17.92
-21.63
-24.82
-27.48
-29.69
-31.57
-33.27
-34.92
-36.72
-38.86
-41.44
-44.34
-47.14
-49.09
-49.30
-47.03
-41.98
-34.40
-25.07
-15.04
-5.32
3.34
10.56
16.30
20.67
23.79
25.80
26.79
26.95
26.59
26.12
25.91
26.21
26.99
28.09
29.24
30.24
31.01
31.52
31.70
31.39
30.38
28.49
25.72
22.29
18.59
15.05
11.94
9.29
6.83
4.10
0.70
-3.53
-8.25
-12.70
-15.91
-17.08
-15.89
-12.62
-7.94
-2.65
2.71
7.95
13.16
18.48
23.93
29.38
34.61
39.44
43.83
47.75
51.15
53.88
55.67
56.28
55.59
53.63
50.67
47.04
43.11
39.11
35.13
31.05
26.66
21.63
15.77
9.07
1.74
-5.74
-12.75
-18.63
-22.82
-24.96
-24.95
-22.97
-19.45
-14.98
-10.15
-5.46
-1.23
2.39
5.45
8.01
10.07
11.48
12.05
11.68
10.53
9.11
8.12
8.11
9.22
11.01
12.69
13.44
12.80
10.82
7.92
4.63
1.30
-2.06
-5.69
-9.92
-14.93
-20.75
-27.08
-33.36
-38.74
-42.40
-43.82
-42.91
-39.87
-35.15
-29.25
-22.58
-15.47
-8.15
-0.94
5.76
11.56
16.37
20.23
23.28
25.58
27.14
28.13
28.74
29.03
28.98
28.94
29.05
29.18
28.92
27.78
25.95
23.82
21.60
19.27
17.60
17.00
17.22
17.35
16.04
13.37
10.04
6.96
5.13
6.92
13.90
25.82
40.63
54.92
67.39
77.82
86.54
94.24
103.52
116.06
131.58
147.87
161.34
171.08
177.13
179.53
165.56
128.85
73.04
10.54
-39.65
-77.07
-104.16
-123.14
-135.87
-143.09
-143.86
-138.25
-128.07
-116.51
-107.62
-102.18
-99.54
-98.57
-97.91
-94.90
-87.66
-76.13
-62.09
-48.83
-37.72
-29.20
-23.20
-19.31
-16.16
-12.83
-9.38
-6.78
-6.52
-8.46
-11.75
-15.43
-18.79
-21.29
-23.00
-24.63
-27.05
-30.96
-35.83
-40.66
-44.53
-47.02
-48.15
-48.40
-48.46
-49.00
-50.44
-52.62
-54.93
-56.56
-56.53
-54.02
-48.50
-39.98
-29.07
-16.76
-4.17
7.86
18.92
29.02
38.35
47.05
55.10
62.33
68.54
73.64
77.60
80.37
81.85
81.91
80.51
77.86
74.45
70.86
67.51
64.39
61.08
56.87
51.04
43.19
33.26
21.55
8.57
-4.96
-18.06
-29.57
-38.24
-43.07
-43.73
-40.75
-35.48
-29.56
-24.41
-20.69
-18.25
-16.32
-14.03
-10.82
-6.67
-2.00
2.51
6.26
8.82
10.01
9.83
8.35
5.81
2.63
-0.54
-2.89
-3.66
-2.46
0.53
4.46
8.08
10.08
9.53
6.17
0.34
-7.10
-15.12
-22.71
-29.07
-33.68
-36.32
-37.07
-36.25
-34.33
-31.87
-29.39
-27.35
-26.03
-25.54
-25.80
-26.49
-27.18
-27.45
-27.10
-26.23
-25.27
-24.74
-25.08
-26.49
-28.82
-31.72
-34.73
-37.44
-39.52
-40.78
-41.18
-40.83
-40.04
-39.22
-38.86
-39.35
-40.86
-43.24
-46.05
-48.55
-49.84
-49.12
-45.91
-40.22
-32.66
-24.17
-15.81
-8.40
-2.39
2.11
5.25
7.22
8.19
8.34
7.89
7.10
6.31
5.80
5.79
6.31
7.25
8.35
9.30
9.87
9.86
9.19
7.76
5.46
2.15
-2.21
-7.49
-13.35
-19.32
-24.89
-29.61
-32.97
-34.44
-33.45
-29.62
-23.01
-14.28
-4.61
4.65
12.48
18.48
22.81
25.95
28.27
29.86
30.52
30.06
28.50
26.20
23.70
21.44
19.59
18.01
16.40
14.53
12.41
10.23
8.26
6.63
5.25
3.81
1.98
-0.49
-3.61
-7.23
-11.05
-14.61
-17.36
-18.63
-17.80
-14.54
-9.04
-2.02
5.42
12.23
17.70
21.65
24.28
25.94
26.83
26.96
26.23
24.63
22.35
19.74
17.17
14.88
12.92
11.16
9.35
7.29
4.88
2.15
-0.70
-3.47
-5.99
-8.27
-10.46
-12.80
-15.52
-18.73
-22.44
-26.53
-30.74
-34.68
-37.75
-39.25
-38.47
-35.04
-29.08
-21.31
-12.79
-4.62
2.39
7.95
12.16
15.34
17.80
19.73
21.19
22.20
22.86
23.36
23.97
24.89
26.21
27.75
29.12
29.82
29.42
27.74
24.89
21.26
17.30
13.33
9.46
5.55
1.44
-3.00
-7.70
-12.46
-17.11
-21.50
-25.50
-28.85
-31.13
-31.76
-30.29
-26.59
-21.05
-14.54
-8.10
-2.65
1.30
3.76
5.21
6.25
7.41
8.82
10.21
11.03
10.75
9.13
6.42
3.28
0.50
-1.39
-2.27
-2.46
-2.41
-2.46
-2.68
-2.99
-3.29
-3.64
-4.25
-5.37
-7.15
-9.59
-12.54
-15.82
-19.22
-22.43
-25.03
-26.52
-26.44
-24.49
-20.65
-15.16
-8.39
-0.81
7.09
14.77
21.66
27.30
31.39
33.85
34.80
34.47
33.15
31.13
28.76
26.43
24.50
23.12
22.15
21.23
19.95
18.08
15.71
13.16
10.76
8.65
6.73
4.65
2.09
-1.18
-5.18
-9.69
-14.28
-18.31
-21.01
-21.60
-19.53
-14.70
-7.51
1.21
10.44
19.26
26.96
33.14
37.64
40.48
41.76
41.69
40.53
38.59
36.24
33.87
31.78
30.19
29.09
28.31
27.48
26.28
24.49
22.12
19.34
16.38
13.39
10.40
7.37
4.17
0.70
-3.19
-7.57
-12.43
-17.49
-22.12
-25.42
-26.45
-24.62
-19.94
-13.12
-5.30
2.29
8.75
13.70
17.20
19.53
20.95
21.58
21.40
20.45
18.82
16.75
14.49
12.24
10.09
8.11
6.35
4.86
3.66
2.67
1.73
0.69
-0.53
-1.88
-3.26
-4.56
-5.81
-7.17
-8.87
-11.11
-14.05
-17.69
-21.86
-26.15
-29.93
-32.41
-32.87
-30.92
-26.69
-20.84
-14.34
-8.20
-3.10
0.68
3.30
5.02
6.12
6.70
6.70
6.07
4.86
3.30
1.76
0.60
0.07
0.13
0.56
1.00
1.16
0.92
0.37
-0.31
-0.94
-1.47
-1.95
-2.53
-3.37
-4.62
-6.43
-8.97
-12.41
-16.78
-21.87
-27.06
-31.41
-33.89
-33.68
-30.52
-24.82
-17.57
-9.97
-3.15
2.20
5.85
8.00
9.03
9.32
9.13
8.60
7.85
7.00
6.23
5.68
5.39
5.28
5.15
4.81
4.15
3.21
2.17
1.23
0.56
0.17
-0.06
-0.37
-1.02
-2.22
-4.08
-6.62
-9.79
-13.44
-17.34
-20.99
-23.78
-24.91
-23.78
-20.12
-14.23
-6.97
0.49
7.02
11.84
14.71
15.91
15.95
15.37
14.55
13.63
12.66
11.67
10.79
10.19
10.05
10.34
10.86
11.27
11.24
10.60
9.42
7.95
6.46
5.12
3.95
2.79
1.38
-0.46
-2.89
-5.86
-9.20
-12.50
-15.27
-16.93
-17.04
-15.36
-11.96
-7.21
-1.73
3.81
8.80
12.84
15.77
17.63
18.58
18.82
18.53
17.87
17.03
16.22
15.63
15.35
15.30
15.26
14.94
14.15
12.83
11.09
9.14
7.15
5.27
3.50
1.80
0.03
-2.00
-4.47
-7.55
-11.26
-15.39
-19.43
-22.66
-24.31
-23.82
-21.04
-16.30
-10.36
-4.16
1.44
5.88
9.03
11.05
12.24
12.88
13.14
13.07
12.71
12.12
11.47
10.90
10.50
10.20
9.81
9.11
7.95
6.30
4.27
2.06
-0.17
-2.33
-4.44
-6.60
-8.93
-11.53
-14.45
-17.67
-21.16
-24.82
-28.50
-31.88
-34.47
-35.72
-35.10
-32.41
-27.88
-22.16
-16.11
-10.53
-5.88
-2.29
0.44
2.55
4.19
5.35
5.95
5.92
5.32
4.38
3.40
2.69
2.42
2.59
3.05
3.52
3.78
3.68
3.19
2.40
1.41
0.32
-0.84
-2.07
-3.41
-4.94
-6.71
-8.81
-11.25
-13.91
-16.46
-18.38
-19.03
-17.93
-14.88
-10.12
-4.29
1.84
7.54
12.41
16.31
19.28
21.37
22.58
22.85
22.21
20.87
19.18
17.59
16.41
15.81
15.72
15.90
16.06
15.87
15.16
13.88
12.20
10.37
8.65
7.12
5.63
3.89
1.59
-1.44
-5.12
-9.23
-13.42
-17.33
-20.57
-22.70
-23.28
-22.00
-18.85
-14.26
-8.98
-3.85
0.46
3.67
5.87
7.33
8.29
8.82
8.90
8.45
7.55
6.41
5.32
4.49
3.99
3.67
3.34
2.78
1.86
0.60
-0.90
-2.52
-4.13
-5.70
-7.27
-8.96
-10.89
-13.20
-15.99
-19.28
-22.99
-26.85
-30.48
-33.34
-34.89
-34.68
-32.52
-28.60
-23.42
-17.75
-12.36
-7.80
-4.32
-1.81
0.01
1.45
2.68
3.75
4.67
5.55
6.56
7.89
9.61
11.54
13.37
14.79
15.65
16.05
16.25
16.46
16.74
16.96
16.93
16.49
15.60
14.34
12.80
10.98
8.83
6.20
3.04
-0.55
-4.28
-7.68
-10.21
-11.43
-11.12
-9.36
-6.47
-2.92
0.92
4.77
8.49
11.93
14.81
16.78
17.53
16.94
15.28
13.09
11.03
9.72
9.50
10.39
12.04
13.72
14.34
12.68
7.76
-0.63
-11.69
-23.69
-34.47
-42.22
-46.12
-46.52
-44.62
-41.85
-39.32
-37.54
-36.60
-36.39
-36.88
-38.04
-39.74
-41.53
-42.69
-42.39
-40.08
-35.73
-29.94
-23.65
-17.88
-13.28
-9.98
-7.67
-5.77
-3.80
-1.54
0.89
3.22
5.13
6.48
7.36
7.99
8.71
9.76
11.19
12.90
14.62
16.10
17.15
17.72
17.88
17.73
17.34
16.72
15.92
14.98
14.00
13.02
11.98
10.71
9.04
6.89
4.46
2.19
0.71
0.56
2.06
5.10
9.23
13.73
17.90
21.22
23.51
24.94
25.88
26.70
27.58
28.44
28.98
28.96
28.28
27.10
25.74
24.47
23.43
22.52
21.60
20.51
19.22
17.76
16.18
14.43
12.44
10.17
7.68
5.11
2.70
0.54
-1.43
-3.41
-5.70
-8.45
-11.55
-14.59
-16.94
-17.99
-17.38
-15.14
-11.63
-7.43
-3.10
0.97
4.59
7.73
10.39
12.58
14.27
15.49
16.31
16.91
17.45
18.08
18.87
19.79
20.74
21.56
21.99
21.77
20.60
18.24
14.64
9.93
4.52
-1.04
-6.15
-10.44
-13.82
-16.57
-19.15
-22.07
-25.63
-29.84
-34.44
-39.05
-43.36
-47.15
-50.28
-52.49
-53.38
-52.44
-49.34
-44.08
-37.25
-29.80
-22.78
-16.92
-12.44
-9.03
-6.16
-3.36
-0.47
2.37
4.86
6.81
8.27
9.49
10.79
12.35
14.11
15.81
17.15
17.97
18.32
18.47
18.74
19.31
20.12
20.91
21.27
20.90
19.72
17.89
15.77
13.76
12.15
11.04
10.29
9.61
8.62
7.01
4.66
1.70
-1.48
-4.32
-6.27
-6.91
-6.11
-4.05
-1.10
2.28
5.68
8.78
11.36
13.22
14.16
13.99
12.58
10.01
6.56
2.76
-0.76
-3.46
-4.97
-5.19
-4.24
-2.45
-0.29
1.71
3.05
3.31
2.25
-0.16
-3.77
-8.36
-13.65
-19.31
-24.94
-30.06
-34.28
-37.43
-39.66
-41.33
-42.79
-44.14
-45.03
-44.83
-42.88
-38.77
-32.49
-24.40
-15.13
-5.39
4.14
12.84
20.21
25.93
29.90
32.31
33.59
34.27
34.84
35.58
36.52
37.45
38.11
38.34
38.21
37.95
37.83
37.98
38.31
38.53
38.37
37.69
36.56
35.24
34.03
33.13
32.59
32.35
32.27
32.20
31.98
31.50
30.72
29.66
28.54
27.66
27.32
27.66
28.48
29.29
29.41
28.29
25.84
22.56
19.39
17.26
16.63
17.16
17.81
17.31
14.81
10.33
4.73
-0.69
-4.84
-7.26
-8.22
-8.47
-8.74
-9.55
-11.17
-13.74
-17.37
-21.95
-27.06
-32.00
-36.03
-38.75
-40.37
-41.55
-42.99
-44.98
-47.19
-48.88
-49.45
-48.73
-47.07
-44.95
-42.64
-39.95
-36.40
-31.65
-25.79
-19.47
-13.57
-8.87
-5.71
-3.92
-2.96
-2.22
-1.26
0.03
1.53
2.95
4.05
4.76
5.17
5.51
6.01
6.80
7.82
8.92
9.82
10.25
9.91
8.64
6.48
3.74
0.96
-1.18
-2.20
-2.01
-0.99
0.17
0.81
0.54
-0.61
-2.33
-4.18
-5.89
-7.32
-8.47
-9.23
-9.40
-8.70
-6.90
-4.01
-0.32
3.66
7.34
10.27
12.30
13.56
14.41
15.22
16.18
17.26
18.19
18.65
18.48
17.72
16.59
15.34
14.10
12.77
11.05
8.54
4.87
-0.09
-6.19
-12.96
-19.76
-25.95
-31.09
-35.06
-38.11
-40.65
-43.10
-45.69
-48.39
-50.92
-52.88
-53.81
-53.30
-51.06
-46.98
-41.18
-34.05
-26.16
-18.17
-10.65
-4.02
1.49
5.80
8.98
11.20
12.71
13.79
14.69
15.51
16.22
16.70
16.81
16.52
15.90
15.10
14.25
13.38
12.42
11.29
9.89
8.23
6.36
4.37
2.32
0.26
-1.80
-3.82
-5.80
-7.76
-9.72
-11.65
-13.40
-14.64
-14.94
-13.96
-11.57
-8.02
-3.86
0.27
3.84
6.61
8.69
10.35
11.86
13.36
14.79
16.01
16.88
17.41
17.72
17.99
18.42
19.09
19.93
20.74
21.23
21.06
20.01
18.02
15.23
11.98
8.66
5.61
2.95
0.61
-1.68
-4.24
-7.32
-10.95
-14.87
-18.60
-21.52
-23.05
-22.85
-20.90
-17.46
-13.05
-8.22
-3.47
0.80
4.29
6.72
7.92
7.89
6.82
5.05
2.94
0.75
-1.43
-3.56
-5.61
-7.43
-8.74
-9.31
-9.02
-7.97
-6.40
-4.54
-2.65
-0.91
0.44
1.31
1.58
1.10
-0.30
-2.71
-6.01
-9.95
-14.13
-18.20
-21.72
-24.39
-26.15
-27.19
-27.75
-27.92
-27.74
-26.86
-24.70
-20.21
-12.40
-1.00
13.16
28.25
42.10
52.87
59.81
61.32
56.91
48.14
38.30
30.44
25.68
24.02
23.58
22.89
21.19
18.62
15.82
12.79
9.55
5.91
1.60
-3.65
-9.83
-16.85
-24.54
-32.68
-41.01
-48.81
-54.97
-58.71
-60.46
-61.49
-63.13
-65.88
-70.09
-74.34
-77.29
-78.29
-77.52
-75.94
-74.67
-73.77
-73.09
-71.54
-67.13
-57.93
-43.11
-23.65
-2.39
16.90
30.84
37.52
37.28
32.44
26.16
21.39
20.22
23.66
31.62
43.22
56.62
69.33
78.64
82.46
80.43
74.55
68.94
68.28
75.83
91.85
113.38
135.46
153.02
162.85
164.44
159.66
151.51
142.86
135.70
131.11
129.58
131.03
134.57
138.07
138.14
130.64
112.03
80.17
34.97
-21.72
-86.31
-153.44
-215.99
-265.82
-295.53
-300.68
-281.93
-245.38
-200.68
-157.64
-122.87
-98.17
-81.77
-70.62
-62.42
-56.18
-51.48
-47.38
-41.81
-32.32
-17.13
3.04
25.04
44.72
59.05
67.34
71.05
72.40
72.69
71.87
68.01
58.94
44.55
27.86
13.92
7.65
11.99
27.09
51.10
79.50
106.18
125.20
132.37
125.98
106.78
77.68
38.46
-4.90
-43.39
-70.89
-87.14
-95.18
-97.88
-96.94
-93.23
-87.62
-80.66
-73.63
-68.23
-65.92
-67.50
-73.18
-82.28
-93.33
-102.21
-103.46
-93.04
-70.10
-37.30
0.38
37.26
68.48
91.07
103.58
105.78
97.87
80.59
56.11
28.35
2.12
-19.87
-34.56
-41.21
-41.22
-37.24
-31.98
-27.22
-23.53
-20.65
-18.04
-14.97
-11.18
-6.81
-2.33
1.68
4.72
6.55
7.30
7.42
7.54
7.98
8.72
9.56
10.28
10.77
11.01
11.08
11.03
10.97
10.86
10.59
10.18
9.65
9.06
8.37
7.53
6.47
5.18
3.58
1.55
-0.98
-3.92
-6.91
-9.36
-10.59
-10.20
-8.20
-5.12
-1.73
1.32
3.75
5.65
7.32
8.94
10.48
11.68
12.24
11.98
10.95
9.38
7.55
5.70
4.00
2.50
1.22
0.16
-0.74
-1.49
-2.13
-2.70
-3.31
-4.12
-5.35
-7.17
-9.65
-12.73
-16.17
-19.60
-22.47
-24.22
-24.32
-22.43
-18.54
-12.98
-6.34
0.65
7.35
13.28
18.20
22.02
24.75
26.39
27.01
26.74
25.83
24.64
23.57
22.90
22.70
22.79
22.80
22.35
21.19
19.36
17.10
14.76
12.60
10.66
8.75
6.61
4.00
0.87
-2.69
-6.40
-9.88
-12.69
-14.42
-14.76
-13.57
-10.96
-7.25
-2.90
1.58
5.72
9.13
11.63
13.16
13.85
13.97
13.78
13.51
13.23
12.91
12.45
11.80
11.02
10.26
9.64
9.14
8.61
7.86
6.74
5.30
3.71
2.17
0.79
-0.52
-1.98
-3.80
-6.08
-8.76
-11.66
-14.54
-17.15
-19.16
-20.20
-19.89
-17.96
-14.36
-9.33
-3.36
2.95
9.02
14.38
18.75
21.96
23.97
24.82
24.68
23.79
22.44
20.97
19.65
18.63
17.96
17.54
17.21
16.86
16.43
15.96
15.52
15.17
14.90
14.65
14.30
13.79
13.06
12.08
10.81
9.10
6.79
3.69
-0.25
-4.89
-9.80
-14.34
-17.80
-19.64
-19.65
-17.99
-15.12
-11.61
-8.00
-4.68
-1.87
0.39
2.19
3.65
4.93
6.04
6.85
7.13
6.62
5.26
3.21
0.85
-1.46
-3.51
-5.33
-7.12
-9.15
-11.54
-14.30
-17.33
-20.55
-24.00
-27.77
-31.95
-36.53
-41.39
-46.28
-50.96
-55.21
-58.83
-61.60
-63.22
-63.36
-61.77
-58.41
-53.56
-47.77
-41.74
-36.05
-31.06
-26.83
-23.23
-20.08
-17.24
-14.68
-12.41
-10.42
-8.64
-7.01
-5.57
-4.42
-3.68
-3.31
-2.98
-2.19
-0.40
2.65
6.83
11.62
16.36
20.48
23.72
26.15
28.02
29.66
31.25
32.83
34.31
35.55
36.54
37.45
38.64
40.57
43.54
47.54
52.22
56.96
61.12
64.24
66.17
66.99
66.90
66.11
64.77
62.95
60.72
58.15
55.31
52.31
49.29
46.40
43.80
41.60
39.84
38.44
37.28
36.20
35.03
33.61
31.80
29.48
26.64
23.42
20.05
16.82
13.87
11.15
8.44
5.52
2.29
-1.10
-4.27
-6.78
-8.24
-8.40
-7.14
-4.49
-0.66
3.95
8.69
12.80
15.64
16.86
16.60
15.33
13.69
12.19
10.98
9.91
8.71
7.15
5.26
3.29
1.54
0.26
-0.52
-0.91
-1.12
-1.31
-1.58
-2.05
-2.91
-4.37
-6.55
-9.35
-12.41
-15.26
-17.55
-19.21
-20.52
-21.87
-23.43
-24.99
-26.00
-25.85
-24.19
-21.17
-17.34
-13.44
-10.09
-7.61
-6.02
-5.17
-4.92
-5.13
-5.72
-6.62
-7.75
-9.02
-10.34
-11.60
-12.70
-13.53
-14.04
-14.27
-14.40
-14.60
-15.00
-15.65
-16.53
-17.61
-18.91
-20.46
-22.25
-24.18
-26.05
-27.66
-28.95
-30.03
-31.23
-32.88
-35.15
-37.87
-40.48
-42.17
-42.14
-39.95
-35.70
-30.12
-24.25
-19.10
-15.30
-12.93
-11.66
-11.00
-10.50
-9.90
-9.12
-8.15
-7.08
-6.00
-5.04
-4.33
-3.94
-3.84
-3.92
-4.05
-4.17
-4.36
-4.80
-5.64
-6.93
-8.61
-10.55
-12.62
-14.73
-16.83
-18.89
-20.87
-22.77
-24.62
-26.47
-28.27
-29.84
-30.76
-30.54
-28.79
-25.42
-20.79
-15.59
-10.61
-6.55
-3.74
-2.21
-1.73
-1.97
-2.66
-3.62
-4.79
-6.11
-7.55
-9.01
-10.44
-11.90
-13.56
-15.62
-18.19
-21.10
-23.87
-25.87
-26.57
-25.76
-23.68
-20.81
-17.70
-14.71
-11.94
-9.35
-7.00
-5.11
-4.03
-4.03
-5.05
-6.70
-8.26
-8.94
-8.14
-5.64
-1.60
3.48
8.93
14.07
18.36
21.51
23.52
24.58
24.94
24.87
24.49
23.85
22.96
21.81
20.37
18.69
16.78
14.72
12.61
10.60
8.81
7.32
6.07
4.93
3.71
2.26
0.47
-1.70
-4.27
-7.20
-10.42
-13.81
-17.22
-20.52
-23.57
-26.27
-28.46
-29.93
-30.41
-29.63
-27.51
-24.15
-19.95
-15.46
-11.19
-7.51
-4.52
-2.12
-0.17
1.47
2.79
3.71
4.13
4.04
3.52
2.72
1.78
0.75
-0.37
-1.62
-2.96
-4.25
-5.30
-5.96
-6.24
-6.32
-6.52
-7.20
-8.58
-10.77
-13.74
-17.37
-21.51
-26.02
-30.64
-35.02
-38.62
-40.84
-41.08
-39.04
-34.73
-28.60
-21.34
-13.73
-6.41
0.25
6.13
11.23
15.60
19.25
22.20
24.58
26.63
28.69
31.00
33.70
36.71
39.85
42.97
46.01
48.97
51.90
54.80
57.54
59.96
61.89
63.30
64.42
65.61
67.24
69.30
71.25
72.12
70.87
66.88
60.27
51.80
42.51
33.35
24.95
17.72
12.08
8.49
7.23
8.10
10.14
11.99
12.31
10.46
6.69
1.96
-2.68
-6.56
-9.61
-12.23
-14.90
-17.85
-20.96
-23.87
-26.22
-27.83
-28.74
-29.14
-29.23
-29.08
-28.68
-27.98
-27.02
-25.98
-25.16
-24.85
-25.23
-26.28
-27.71
-29.01
-29.55
-28.75
-26.30
-22.24
-16.97
-11.14
-5.42
-0.29
4.04
7.68
10.84
13.68
16.18
18.14
19.18
18.92
17.17
13.99
9.84
5.50
1.88
-0.23
-0.41
1.19
3.96
7.04
9.60
11.13
11.51
10.93
9.75
8.29
6.81
5.38
4.04
2.70
1.28
-0.30
-2.02
-3.75
-5.20
-6.00
-5.87
-4.83
-3.18
-1.54
-0.54
-0.66
-2.04
-4.55
-7.92
-11.89
-16.25
-20.75
-25.07
-28.86
-31.85
-34.04
-35.62
-36.85
-37.76
-38.11
-37.46
-35.54
-32.49
-28.93
-25.77
-23.86
-23.65
-25.10
-27.76
-31.03
-34.37
-37.39
-39.89
-41.81
-43.12
-43.74
-43.49
-42.04
-39.04
-34.32
-28.01
-20.62
-12.93
-5.67
0.76
6.41
11.64
16.87
22.22
27.40
31.82
34.88
36.30
36.25
35.22
33.77
32.29
30.87
29.43
27.87
26.23
24.70
23.50
22.72
22.25
21.84
21.24
20.31
19.04
17.47
15.56
13.17
10.15
6.52
2.66
-0.74
-2.92
-3.30
-1.79
1.21
5.00
8.84
12.19
14.79
16.52
17.29
16.98
15.51
12.91
9.48
5.71
2.15
-0.74
-2.75
-3.91
-4.42
-4.54
-4.48
-4.34
-4.13
-3.82
-3.46
-3.17
-3.20
-3.77
-4.99
-6.84
-9.12
-11.66
-14.32
-16.98
-19.48
-21.45
-22.32
-21.52
-18.74
-14.16
-8.46
-2.59
2.59
6.63
9.54
11.57
13.03
14.02
14.46
14.21
13.23
11.69
9.94
8.40
7.38
6.96
6.94
6.99
6.72
5.92
4.61
3.00
1.36
-0.16
-1.51
-2.83
-4.28
-6.02
-8.13
-10.69
-13.76
-17.28
-20.99
-24.32
-26.45
-26.54
-24.06
-19.08
-12.25
-4.62
2.73
8.98
13.83
17.32
19.74
21.36
22.34
22.72
22.54
21.90
20.98
19.96
18.98
18.11
17.33
16.59
15.78
14.78
13.54
12.02
10.30
8.52
6.80
5.23
3.76
2.23
0.37
-2.06
-5.21
-9.09
-13.45
-17.87
-21.72
-24.32
-25.00
-23.37
-19.39
-13.46
-6.38
0.89
7.49
12.84
16.76
19.39
20.99
21.78
21.89
21.36
20.28
18.87
17.50
16.54
16.21
16.45
16.95
17.26
17.03
16.10
14.57
12.70
10.73
8.78
6.79
4.60
2.05
-0.91
-4.25
-7.91
-11.80
-15.78
-19.56
-22.56
-24.06
-23.40
-20.31
-15.07
-8.51
-1.70
4.43
9.37
13.02
15.60
17.35
18.43
18.82
18.51
17.56
16.18
14.74
13.56
12.86
12.67
12.76
12.84
12.59
11.86
10.59
8.92
6.99
4.93
2.77
0.50
-1.95
-4.64
-7.66
-11.09
-14.95
-19.10
-23.17
-26.52
-28.42
-28.22
-25.66
-20.97
-14.81
-8.09
-1.73
3.65
7.77
10.71
12.77
14.22
15.26
15.89
16.07
15.78
15.12
14.32
13.63
13.23
13.08
13.00
12.78
12.27
11.45
10.39
9.19
7.87
6.40
4.73
2.85
0.73
-1.64
-4.33
-7.47
-11.12
-15.18
-19.28
-22.73
-24.73
-24.61
-22.17
-17.79
-12.36
-6.90
-2.24
1.25
3.69
5.42
6.79
7.91
8.75
9.23
9.34
9.25
9.14
9.17
9.33
9.51
9.56
9.39
8.99
8.42
7.76
7.03
6.18
5.14
3.79
2.06
-0.06
-2.59
-5.52
-8.81
-12.41
-16.20
-19.99
-23.53
-26.42
-28.25
-28.57
-27.09
-23.76
-18.91
-13.16
-7.32
-2.13
1.94
4.75
6.50
7.53
8.21
8.69
9.02
9.12
9.01
8.82
8.80
9.18
10.05
11.28
12.59
13.64
14.23
14.29
13.89
13.15
12.12
10.83
9.26
7.41
5.32
3.08
0.79
-1.43
-3.39
-4.90
-5.77
-5.84
-5.09
-3.62
-1.64
0.51
2.45
3.86
4.54
4.50
3.92
3.10
2.28
1.58
1.01
0.46
-0.10
-0.64
-1.04
-1.18
-1.03
-0.64
-0.15
0.35
0.85
1.43
2.17
3.13
4.22
5.23
5.87
5.85
4.97
3.21
0.80
-1.77
-3.84
-4.79
-4.21
-2.04
1.30
5.15
8.76
11.57
13.32
14.05
13.90
12.97
11.28
8.84
5.75
2.34
-0.97
-3.77
-5.84
-7.28
-8.40
-9.59
-11.16
-13.23
-15.73
-18.44
-21.10
-23.49
-25.44
-26.96
-28.19
-29.41
-30.97
-33.11
-35.90
-39.08
-42.12
-44.34
-45.09
-43.97
-40.92
-36.22
-30.44
-24.26
-18.29
-12.92
-8.35
-4.47
-1.08
2.08
5.20
8.34
11.51
14.69
17.90
21.15
24.40
27.57
30.46
32.91
34.80
36.13
37.02
37.59
37.89
37.87
37.41
36.32
34.45
31.69
28.02
23.52
18.44
13.16
8.21
4.08
1.10
-0.63
-1.30
-1.25
-0.91
-0.64
-0.62
-0.84
-1.19
-1.60
-2.10
-2.79
-3.79
-5.06
-6.39
-7.45
-7.87
-7.49
-6.51
-5.43
-4.80
-4.99
-6.06
-7.68
-9.30
-10.20
-9.90
-8.44
-6.36
-4.42
-3.32
-3.48
-4.76
-6.48
-7.21
-5.62
-1.03
6.46
16.19
27.20
38.38
48.57
56.77
62.67
66.06
66.55
63.86
58.30
50.85
42.89
35.87
31.06
30.06
33.54
40.75
49.63
57.64
62.34
61.70
54.43
36.59
8.77
-23.21
-51.47
-70.95
-81.07
-83.94
-82.34
-78.51
-73.73
-67.87
-60.88
-53.42
-46.75
-41.83
-38.87
-37.41
-36.58
-35.55
-33.33
-29.64
-25.16
-21.06
-18.18
-16.66
-16.09
-15.83
-15.35
-14.08
-11.96
-9.50
-7.41
-6.17
-5.70
-5.62
-5.49
-5.07
-4.21
-3.07
-2.07
-1.56
-1.64
-2.06
-2.44
-2.49
-2.08
-1.32
-0.43
0.24
0.33
-0.46
-2.17
-4.49
-6.57
-7.29
-5.63
-1.23
5.31
12.48
18.46
21.92
22.33
20.14
16.39
12.24
8.41
5.24
2.68
0.69
-0.70
-1.41
-1.43
-0.94
-0.23
0.37
0.58
0.37
-0.08
-0.44
-0.42
0.08
1.00
2.12
3.17
4.04
4.80
5.68
6.83
8.25
9.70
10.89
11.60
11.78
11.69
11.64
11.94
12.67
13.74
15.04
16.44
17.92
19.31
20.57
21.70
22.84
24.24
26.17
28.72
31.75
34.89
37.44
39.00
39.54
39.49
39.43
39.86
40.83
41.70
42.83
43.69
43.80
42.90
41.14
38.97
37.03
35.98
36.34
38.36
41.64
45.40
48.50
49.82
48.54
44.56
38.51
31.57
25.02
19.62
15.72
13.26
12.07
11.94
12.62
13.69
14.47
14.13
11.79
7.00
-0.02
-8.48
-17.28
-25.43
-32.36
-38.01
-42.65
-46.63
-49.98
-52.40
-53.44
-52.75
-50.49
-47.31
-44.21
-42.14
-41.62
-42.50
-44.06
-45.43
-45.94
-45.40
-44.05
-42.36
-40.72
-39.33
-38.25
-37.49
-37.16
-37.34
-37.97
-38.78
-39.41
-39.57
-39.37
-39.24
-39.77
-41.42
-44.36
-48.37
-53.05
-57.98
-62.78
-67.12
-70.64
-73.05
-74.10
-73.77
-72.41
-70.48
-68.53
-66.86
-65.54
-64.41
-63.26
-61.86
-59.87
-56.71
-51.51
-43.38
-31.70
-16.64
0.68
18.40
34.48
47.27
56.03
60.90
62.73
62.70
62.01
61.72
62.61
65.04
68.73
72.70
75.46
75.35
71.29
63.17
52.06
40.02
29.35
21.80
18.07
17.63
19.14
21.01
21.99
21.43
19.18
15.39
10.24
3.94
-3.16
-10.50
-17.30
-22.83
-26.64
-28.74
-29.58
-29.76
-29.84
-30.11
-30.64
-31.36
-32.22
-33.27
-34.61
-36.36
-38.56
-41.19
-44.30
-48.08
-52.80
-58.74
-65.86
-73.59
-80.74
-85.68
-86.66
-82.28
-71.94
-56.12
-36.45
-15.57
3.45
17.99
26.54
29.08
26.90
21.96
16.06
10.36
5.24
0.59
-3.89
-8.48
-13.52
-19.39
-26.49
-34.80
-43.62
-51.52
-56.77
-57.96
-54.55
-47.16
-37.31
-26.97
-18.07
-12.05
-9.60
-10.62
-14.14
-18.58
-21.97
-22.53
-19.19
-12.01
-2.26
7.94
16.32
21.25
22.16
19.69
15.27
10.46
6.42
3.50
1.40
-0.49
-2.65
-5.18
-7.82
-10.19
-12.07
-13.51
-14.81
-16.34
-18.41
-21.22
-24.91
-29.58
-35.26
-41.80
-48.63
-54.74
-58.64
-58.71
-53.67
-43.09
-27.71
-9.41
9.23
25.72
38.36
46.75
51.66
54.44
56.28
57.69
58.40
57.81
55.51
51.63
46.90
42.24
38.31
35.24
32.57
29.62
25.90
21.48
17.02
13.60
12.24
13.55
17.46
23.18
29.37
34.48
37.09
36.31
32.10
25.40
18.01
12.12
9.67
11.74
18.16
27.72
38.61
49.03
57.70
63.94
67.61
68.84
67.87
65.02
60.75
55.66
50.45
45.73
41.91
39.07
36.95
35.07
32.91
30.09
26.47
22.25
17.79
13.46
9.44
5.65
1.84
-2.31
-6.97
-12.14
-17.59
-22.91
-27.55
-30.80
-31.87
-30.05
-24.97
-16.90
-6.80
3.87
13.60
21.27
26.46
29.38
30.54
30.43
29.37
27.45
24.77
21.62
18.45
15.74
13.82
12.67
11.99
11.33
10.27
8.59
6.29
3.51
0.45
-2.72
-5.93
-9.14
-12.32
-15.48
-18.69
-22.09
-25.92
-30.37
-35.37
-40.51
-44.98
-47.84
-48.33
-46.09
-41.38
-34.85
-27.42
-19.94
-13.08
-7.28
-2.74
0.49
2.54
3.68
4.32
4.90
5.73
7.02
8.75
10.76
12.80
14.56
15.82
16.45
16.49
16.08
15.36
14.44
13.26
11.70
9.57
6.73
3.10
-1.34
-6.59
-12.62
-19.32
-26.39
-33.24
-39.01
-42.65
-43.22
-40.16
-33.49
-23.86
-12.33
-0.13
11.63
22.15
30.94
37.80
42.70
45.73
47.06
46.99
45.95
44.38
42.78
41.52
40.83
40.72
40.99
41.27
41.12
40.21
38.39
35.74
32.58
29.26
26.02
22.86
19.52
15.58
10.69
4.71
-2.12
-9.14
-15.43
-19.98
-21.92
-20.78
-16.68
-10.26
-2.59
5.17
12.07
17.60
21.67
24.47
26.22
27.01
26.82
25.61
23.60
21.35
19.67
19.33
20.76
23.76
27.62
31.32
33.95
34.97
34.36
32.47
29.84
26.91
23.95
21.00
17.89
14.37
10.18
5.21
-0.39
-6.06
-10.95
-14.08
-14.67
-12.44
-7.69
-1.24
5.78
12.25
17.34
20.59
21.90
21.39
19.28
15.79
11.15
5.76
0.19
-4.90
-8.85
-11.34
-12.49
-12.80
-12.97
-13.48
-14.48
-15.77
-17.01
-17.99
-18.78
-19.70
-21.15
-23.44
-26.76
-31.05
-35.99
-40.93
-44.89
-46.71
-45.41
-40.59
-32.71
-23.03
-13.23
-4.82
1.29
4.90
6.36
6.23
5.03
3.16
0.98
-1.14
-2.81
-3.71
-3.77
-3.17
-2.35
-1.83
-2.05
-3.25
-5.36
-8.03
-10.75
-13.06
-14.77
-16.02
-17.25
-19.01
-21.64
-25.12
-28.95
-32.25
-33.97
-33.16
-29.28
-22.36
-13.12
-2.75
7.38
16.09
22.65
26.84
28.83
28.91
27.48
24.87
21.53
18.04
14.98
12.83
11.70
11.35
11.25
10.86
9.86
8.29
6.41
4.50
2.69
0.80
-1.57
-4.85
-9.28
-14.73
-20.60
-25.94
-29.59
-30.58
-28.36
-23.06
-15.46
-6.74
1.80
9.14
14.74
18.47
20.58
21.36
21.11
20.05
18.37
16.31
14.12
12.06
10.31
8.96
7.94
7.11
6.34
5.56
4.78
3.98
3.06
1.79
-0.21
-3.25
-7.46
-12.60
-18.00
-22.66
-25.51
-25.69
-22.83
-17.18
-9.58
-1.22
6.71
13.26
17.95
20.72
21.81
21.59
20.42
18.59
16.36
14.04
11.90
10.16
8.87
7.91
7.02
5.95
4.58
2.93
1.18
-0.51
-2.08
-3.67
-5.56
-8.09
-11.48
-15.66
-20.15
-24.14
-26.61
-26.67
-23.89
-18.49
-11.29
-3.43
4.05
10.42
15.38
18.95
21.18
22.11
21.73
20.15
17.67
14.81
12.17
10.23
9.13
8.72
8.58
8.30
7.61
6.48
5.06
3.59
2.19
0.85
-0.65
-2.63
-5.43
-9.25
-14.05
-19.40
-24.47
-28.18
-29.41
-27.48
-22.37
-14.84
-6.19
2.20
9.23
14.35
17.53
19.05
19.27
18.50
16.99
15.03
12.89
10.91
9.34
8.23
7.48
6.81
5.92
4.67
3.10
1.46
0.04
-1.00
-1.76
-2.60
-4.03
-6.52
-10.25
-14.99
-20.11
-24.63
-27.47
-27.72
-24.99
-19.53
-12.21
-4.25
3.21
9.39
14.03
17.26
19.32
20.36
20.37
19.29
17.26
14.66
12.05
9.96
8.69
8.15
7.96
7.62
6.70
5.00
2.62
-0.16
-2.95
-5.44
-7.52
-9.30
-11.07
-13.20
-15.96
-19.53
-23.82
-28.46
-32.77
-35.85
-36.78
-34.91
-30.11
-22.95
-14.53
-6.12
1.28
7.14
11.51
14.67
16.94
18.43
19.13
19.01
18.16
16.74
14.95
12.94
10.78
8.56
6.40
4.47
2.90
1.72
0.79
-0.09
-1.14
-2.48
-4.14
-6.12
-8.43
-11.15
-14.33
-17.94
-21.79
-25.49
-28.46
-30.02
-29.60
-26.89
-21.99
-15.43
-8.00
-0.64
5.90
11.11
14.82
17.04
17.88
17.48
15.99
13.63
10.71
7.64
4.86
2.70
1.32
0.71
0.68
0.98
1.40
1.82
2.32
3.03
4.04
5.29
6.49
7.15
6.71
4.75
1.13
-3.91
-9.84
-15.86
-21.07
-24.64
-25.91
-24.57
-20.79
-15.11
-8.38
-1.48
4.89
10.33
14.75
18.19
20.71
22.37
23.15
23.09
22.30
21.01
19.49
18.02
16.82
16.01
15.59
15.46
15.43
15.27
14.76
13.77
12.28
10.34
8.11
5.73
3.37
1.10
-1.13
-3.45
-6.08
-9.24
-13.02
-17.26
-21.50
-25.01
-26.96
-26.64
-23.74
-18.48
-11.58
-4.11
2.81
8.31
11.96
13.83
14.34
14.06
13.46
12.83
12.22
11.60
10.90
10.13
9.33
8.55
7.78
6.98
6.12
5.22
4.32
3.44
2.53
1.49
0.19
-1.47
-3.52
-5.87
-8.37
-10.79
-12.99
-14.91
-16.72
-18.70
-21.11
-23.96
-26.83
-28.91
-29.24
-27.09
-22.33
-15.56
-7.92
-0.66
5.28
9.53
12.29
14.00
15.07
15.68
15.79
15.30
14.27
12.93
11.69
10.88
10.69
11.03
11.58
11.97
11.84
11.04
9.63
7.87
6.02
4.31
2.82
1.42
-0.06
-1.80
-3.89
-6.34
-9.13
-12.21
-15.45
-18.52
-20.88
-21.87
-20.92
-17.85
-12.91
-6.87
-0.70
4.72
8.82
11.49
12.96
13.67
14.00
14.17
14.20
14.00
13.46
12.57
11.48
10.41
9.56
9.02
8.71
8.46
8.06
7.36
6.29
4.88
3.18
1.24
-0.89
-3.12
-5.36
-7.55
-9.68
-11.89
-14.40
-17.39
-20.90
-24.65
-28.04
-30.23
-30.42
-28.11
-23.35
-16.76
-9.38
-2.35
3.45
7.58
10.06
11.26
11.63
11.56
11.26
10.82
10.24
9.59
8.96
8.47
8.22
8.16
8.17
8.06
7.65
6.87
5.76
4.41
2.88
1.20
-0.66
-2.73
-4.98
-7.31
-9.58
-11.73
-13.82
-16.04
-18.62
-21.67
-24.98
-27.97
-29.80
-29.67
-27.10
-22.20
-15.62
-8.38
-1.50
4.27
8.56
11.36
12.85
13.32
13.03
12.25
11.25
10.25
9.38
8.71
8.20
7.91
7.86
8.13
8.71
9.49
10.23
10.61
10.36
9.36
7.73
5.81
4.02
2.72
2.07
1.97
2.03
1.69
0.31
-2.62
-7.36
-13.71
-20.98
-28.07
-33.83
-37.37
-38.41
-37.37
-35.18
-32.88
-31.22
-30.41
-30.25
-30.32
-30.29
-30.14
-30.03
-30.28
-31.08
-32.46
-34.31
-36.42
-38.59
-40.66
-42.48
-43.91
-44.78
-44.89
-44.08
-42.32
-39.64
-36.27
-32.50
-28.68
-25.10
-21.90
-19.10
-16.63
-14.35
-12.12
-9.81
-7.35
-4.69
-1.91
0.84
3.37
5.53
7.28
8.67
9.75
10.49
10.64
9.91
8.01
4.94
1.01
-3.20
-7.02
-9.95
-11.79
-12.58
-12.59
-12.12
-11.42
-10.68
-10.05
-9.68
-9.70
-10.27
-11.45
-13.29
-15.80
-18.96
-22.67
-26.67
-30.43
-33.25
-34.33
-33.05
-29.18
-23.03
-15.28
-6.82
1.46
8.93
15.16
19.92
23.07
24.51
24.22
22.35
19.26
15.52
11.87
9.01
7.57
7.88
9.96
13.48
17.88
22.51
26.83
30.55
33.63
36.22
38.48
40.39
41.77
42.35
41.90
40.52
38.62
36.86
35.98
36.53
38.77
42.59
47.63
53.31
59.07
64.45
69.17
73.14
76.31
78.59
79.77
79.55
77.71
74.25
69.50
63.97
58.25
52.75
47.69
43.07
38.84
34.98
31.55
28.70
26.61
25.40
25.12
25.58
26.47
27.29
27.57
27.03
25.71
24.06
22.82
22.79
24.49
28.00
32.81
38.04
42.63
45.73
46.84
45.91
43.21
39.18
34.22
28.65
22.64
16.18
9.11
1.22
-7.62
-17.27
-27.17
-36.33
-43.58
-47.89
-48.74
-46.43
-41.98
-36.90
-32.76
-30.73
-31.39
-34.64
-39.89
-46.21
-52.48
-57.43
-59.85
-58.81
-54.06
-46.21
-36.69
-27.26
-19.42
-13.90
-10.60
-8.85
-7.90
-7.32
-7.07
-7.23
-7.79
-8.40
-8.52
-7.58
-5.26
-1.59
2.99
7.86
12.31
15.79
18.15
19.62
20.86
22.62
25.47
29.54
34.45
39.39
43.33
45.34
44.77
41.54
36.15
29.67
23.49
18.89
16.65
16.73
18.34
20.26
21.32
20.84
18.76
15.43
11.32
6.72
1.66
-4.03
-10.50
-17.71
-25.36
-32.96
-39.96
-45.88
-50.44
-53.56
-55.35
-56.02
-55.86
-55.24
-54.54
-54.08
-54.01
-54.19
-54.13
-53.11
-50.46
-45.79
-39.31
-31.76
-24.23
-17.81
-13.27
-10.88
-10.47
-11.53
-13.42
-15.52
-17.35
-18.59
-19.12
-19.04
-18.59
-18.14
-18.00
-18.32
-19.05
-19.93
-20.65
-20.96
-20.78
-20.27
-19.72
-19.46
-19.79
-20.85
-22.55
-24.51
-26.13
-26.64
-25.38
-22.05
-16.88
-10.56
-4.07
1.71
6.19
9.23
10.98
11.77
11.98
11.88
11.69
11.53
11.44
11.37
11.28
11.13
10.88
10.54
10.11
9.57
8.95
8.29
7.63
6.97
6.20
5.07
3.26
0.62
-2.73
-6.27
-9.19
-10.66
-10.14
-7.62
-3.62
1.05
5.54
9.25
11.96
13.71
14.62
14.78
14.18
12.83
10.89
8.66
6.54
4.83
3.63
2.85
2.26
1.68
0.99
0.21
-0.60
-1.41
-2.24
-3.24
-4.62
-6.58
-9.25
-12.54
-16.09
-19.32
-21.55
-22.18
-20.94
-17.96
-13.76
-9.00
-4.33
-0.18
3.27
6.02
8.09
9.45
10.06
9.89
9.06
7.83
6.54
5.50
4.87
4.66
4.70
4.77
4.69
4.36
3.79
3.07
2.34
1.68
1.08
0.37
-0.73
-2.54
-5.20
-8.55
-12.07
-15.01
-16.59
-16.32
-14.13
-10.37
-5.69
-0.80
3.70
7.39
10.08
11.73
12.47
12.48
12.02
11.30
10.48
9.67
8.95
8.45
8.26
8.40
8.69
8.80
8.39
7.29
5.63
3.77
2.13
0.96
0.20
-0.46
-1.35
-2.75
-4.74
-7.24
-10.03
-12.76
-14.99
-16.19
-15.89
-13.86
-10.26
-5.64
-0.73
3.74
7.31
9.84
11.46
12.35
12.72
12.66
12.21
11.45
10.54
9.71
9.18
9.04
9.21
9.47
9.58
9.38
8.86
8.13
7.29
6.36
5.23
3.76
1.86
-0.47
-3.10
-5.88
-8.75
-11.71
-14.73
-17.66
-20.16
-21.69
-21.68
-19.80
-16.08
-10.98
-5.31
0.12
4.65
8.02
10.28
11.70
12.52
12.90
12.82
12.29
11.41
10.43
9.66
9.31
9.42
9.80
10.13
10.14
9.71
8.83
7.65
6.32
4.94
3.55
2.13
0.64
-0.95
-2.68
-4.60
-6.79
-9.31
-12.14
-15.06
-17.67
-19.39
-19.64
-18.08
-14.70
-9.94
-4.52
0.76
5.28
8.78
11.29
13.05
14.30
15.17
15.68
15.82
15.62
15.18
14.63
14.06
13.39
12.45
11.01
8.95
6.27
3.16
-0.10
-3.23
-6.04
-8.52
-10.83
-13.18
-15.78
-18.66
-21.73
-24.76
-27.57
-30.02
-32.08
-33.65
-34.53
-34.34
-32.77
-29.73
-25.58
-21.06
-17.08
-14.33
-13.08
-13.12
-13.93
-14.95
-15.82
-16.36
-16.62
-16.60
-16.27
-15.50
-14.17
-12.29
-9.95
-7.37
-4.75
-2.24
0.09
2.22
4.13
5.74
6.94
7.64
7.86
7.70
7.38
7.08
6.85
6.55
5.90
4.67
2.80
0.58
-1.43
-2.49
-1.99
0.34
4.31
9.34
14.67
19.60
23.67
26.75
28.91
30.34
31.17
31.48
31.30
30.64
29.59
28.32
27.08
26.08
25.45
25.24
25.34
25.55
25.63
25.35
24.59
23.32
21.66
19.79
17.84
15.89
13.90
11.78
9.51
7.11
4.68
2.24
-0.23
-2.80
-5.44
-7.85
-9.50
-9.76
-8.20
-4.85
-0.24
4.73
9.13
12.28
13.98
14.42
14.02
13.19
12.19
11.08
9.79
8.28
6.56
4.81
3.26
2.04
1.11
0.25
-0.89
-2.58
-4.94
-7.84
-10.97
-14.00
-16.72
-19.11
-21.22
-23.15
-24.92
-26.55
-28.08
-29.55
-31.10
-32.84
-34.65
-36.11
-36.46
-34.98
-31.22
-25.26
-17.59
-9.20
-1.31
5.00
9.33
11.97
13.68
15.29
17.32
20.20
23.78
27.25
29.67
30.67
30.62
30.40
30.88
32.54
35.83
40.40
44.80
47.43
47.45
45.15
41.62
38.24
36.37
37.88
43.88
53.69
65.15
75.34
81.23
80.17
70.65
48.65
16.01
-19.21
-47.95
-65.83
-74.32
-77.57
-79.04
-80.02
-79.88
-77.87
-72.62
-64.88
-56.68
-49.85
-45.25
-42.78
-41.87
-41.88
-41.83
-40.33
-37.50
-34.05
-30.62
-27.53
-24.88
-22.76
-21.21
-19.84
-18.29
-16.89
-16.12
-16.19
-16.91
-17.85
-18.69
-19.38
-20.00
-20.80
-22.25
-24.52
-27.16
-29.21
-29.54
-27.34
-22.50
-15.53
-7.43
0.55
7.41
12.71
16.50
19.08
20.80
21.83
22.26
22.15
21.58
20.71
19.76
18.92
18.30
17.91
17.65
17.37
16.91
16.17
15.09
13.72
12.13
10.38
8.51
6.48
4.28
1.91
-0.60
-3.20
-5.86
-8.58
-11.22
-13.54
-15.10
-15.38
-14.00
-10.86
-6.28
-0.95
4.32
8.80
12.07
14.05
14.94
15.06
14.65
13.88
12.78
11.41
9.85
8.30
6.93
5.92
5.28
4.93
4.67
4.30
3.71
2.87
1.86
0.78
-0.29
-1.32
-2.34
-3.41
-4.56
-5.84
-7.31
-9.05
-11.15
-13.56
-16.04
-18.10
-19.09
-18.44
-15.84
-11.48
-5.96
-0.17
5.07
9.19
12.01
13.70
14.59
14.99
15.10
14.98
14.66
14.17
13.58
13.05
12.66
12.45
12.39
12.39
12.35
12.15
11.69
10.83
9.53
7.78
5.69
3.49
1.40
-0.47
-2.16
-3.86
-5.81
-8.19
-10.96
-13.87
-16.40
-18.00
-18.13
-16.52
-13.25
-8.73
-3.63
1.34
5.60
8.84
10.99
12.14
12.46
12.11
11.27
10.12
8.89
7.78
7.00
6.62
6.60
6.80
7.00
7.01
6.70
6.03
5.03
3.80
2.40
0.91
-0.62
-2.18
-3.75
-5.40
-7.19
-9.22
-11.59
-14.31
-17.24
-20.07
-22.30
-23.34
-22.73
-20.22
-15.98
-10.58
-4.82
0.43
4.55
7.32
8.94
9.82
10.38
10.84
11.15
11.10
10.55
9.51
8.24
7.11
6.41
6.20
6.30
6.39
6.18
5.53
4.47
3.16
1.74
0.35
-0.98
-2.30
-3.67
-5.22
-7.05
-9.25
-11.80
-14.59
-17.32
-19.57
-20.83
-20.64
-18.77
-15.29
-10.65
-5.52
-0.63
3.48
6.52
8.52
9.69
10.26
10.44
10.33
10.01
9.58
9.14
8.84
8.78
8.96
9.31
9.69
9.92
9.90
9.59
9.02
8.26
7.36
6.31
5.03
3.43
1.48
-0.83
-3.44
-6.29
-9.28
-12.23
-14.82
-16.61
-17.09
-15.92
-13.00
-8.62
-3.39
1.96
6.72
10.47
13.06
14.59
15.34
15.57
15.49
15.18
14.69
14.03
13.25
12.47
11.86
11.54
11.48
11.54
11.44
10.93
9.89
8.36
6.52
4.60
2.76
1.05
-0.61
-2.37
-4.37
-6.72
-9.44
-12.45
-15.58
-18.50
-20.80
-21.98
-21.61
-19.49
-15.74
-10.88
-5.63
-0.75
3.20
6.01
7.79
8.80
9.34
9.57
9.57
9.37
9.06
8.75
8.56
8.59
8.82
9.18
9.48
9.55
9.23
8.48
7.33
5.94
4.44
2.96
1.46
-0.12
-1.86
-3.79
-5.83
-7.93
-10.08
-12.35
-14.78
-17.24
-19.34
-20.54
-20.31
-18.39
-14.89
-10.30
-5.30
-0.59
3.33
6.18
7.91
8.70
8.84
8.67
8.47
8.34
8.24
8.05
7.69
7.20
6.73
6.43
6.32
6.28
6.10
5.61
4.74
3.57
2.22
0.80
-0.66
-2.18
-3.80
-5.56
-7.50
-9.68
-12.12
-14.80
-17.54
-20.00
-21.71
-22.21
-21.19
-18.64
-14.86
-10.41
-5.87
-1.76
1.65
4.23
6.03
7.16
7.69
7.74
7.41
6.83
6.20
5.69
5.46
5.59
6.03
6.61
7.12
7.34
7.18
6.68
5.96
5.17
4.41
3.70
3.00
2.26
1.40
0.34
-1.07
-2.97
-5.37
-8.08
-10.63
-12.37
-12.68
-11.23
-8.04
-3.56
1.58
6.71
11.32
15.11
17.99
19.99
21.20
21.74
21.74
21.31
20.61
19.79
19.00
18.36
17.92
17.65
17.44
17.08
16.37
15.20
13.54
11.54
9.44
7.47
5.76
4.32
3.01
1.60
-0.13
-2.34
-5.03
-8.07
-11.14
-13.80
-15.55
-15.96
-14.81
-12.22
-8.61
-4.65
-1.00
1.87
3.81
4.94
5.51
5.77
5.81
5.66
5.31
4.80
4.24
3.78
3.54
3.55
3.77
4.04
4.15
3.96
3.37
2.40
1.16
-0.27
-1.79
-3.43
-5.22
-7.23
-9.49
-12.03
-14.86
-17.94
-21.17
-24.21
-26.55
-27.56
-26.79
-24.13
-19.99
-15.12
-10.42
-6.57
-3.86
-2.20
-1.27
-0.71
-0.33
-0.12
-0.11
-0.35
-0.74
-1.07
-1.14
-0.81
-0.11
0.75
1.50
1.89
1.82
1.42
0.91
0.54
0.41
0.43
0.38
0.04
-0.66
-1.70
-3.00
-4.55
-6.43
-8.69
-11.16
-13.36
-14.58
-14.20
-11.99
-8.22
-3.60
1.02
4.97
7.92
9.84
10.90
11.30
11.14
10.48
9.40
8.03
6.59
5.31
4.42
4.01
4.04
4.27
4.35
3.91
2.66
0.51
-2.40
-5.79
-9.31
-12.70
-15.88
-18.95
-22.17
-25.74
-29.81
-34.25
-38.72
-42.65
-45.41
-46.41
-45.30
-42.06
-37.00
-30.72
-23.95
-17.43
-11.77
-7.40
-4.50
-3.10
-3.04
-4.02
-5.65
-7.54
-9.38
-11.01
-12.48
-14.04
-16.14
-19.37
-24.35
-31.54
-40.88
-51.59
-62.01
-69.96
-73.26
-70.52
-61.67
-48.03
-31.91
-15.84
-1.87
8.92
16.35
20.93
23.38
24.36
24.41
23.89
23.11
22.30
21.59
20.96
20.27
19.31
17.94
16.25
14.53
13.25
12.85
13.55
15.27
17.67
20.33
22.91
25.33
27.65
30.03
32.55
35.17
37.71
39.91
41.54
42.44
42.53
41.89
40.68
39.18
37.62
36.06
34.32
31.95
28.44
23.46
16.99
9.45
1.62
-5.58
-11.27
-14.91
-16.32
-15.77
-13.82
-11.18
-8.55
-6.52
-5.49
-5.71
-7.28
-10.10
-13.89
-18.11
-22.08
-25.10
-26.58
-26.25
-24.20
-20.78
-16.52
-11.91
-7.32
-2.94
1.17
5.01
8.62
12.06
15.34
18.46
21.39
24.01
26.24
28.10
29.75
31.43
33.42
35.91
38.87
42.10
45.31
48.19
50.56
52.34
53.58
54.31
54.58
54.34
53.53
52.08
50.03
47.50
44.75
42.11
39.90
38.32
37.39
36.91
36.57
36.04
35.11
33.79
32.24
30.71
29.30
27.96
26.42
24.39
21.65
18.24
14.48
10.83
7.82
5.92
5.47
6.65
9.42
13.45
18.20
22.96
27.10
30.18
32.15
33.22
33.75
34.04
34.28
34.52
34.84
35.36
36.31
37.84
39.94
42.25
44.09
44.55
42.72
37.95
30.12
19.78
8.00
-3.86
-14.62
-23.53
-30.47
-35.74
-39.86
-43.27
-46.19
-48.64
-50.49
-51.56
-51.71
-50.86
-48.99
-46.26
-42.98
-39.54
-36.30
-33.53
-31.30
-29.63
-28.50
-27.93
-27.94
-28.46
-29.20
-29.78
-29.78
-29.02
-27.65
-26.05
-24.72
-23.99
-23.94
-24.40
-25.09
-25.77
-26.33
-26.81
-27.33
-28.04
-29.07
-30.51
-32.46
-34.84
-37.39
-39.62
-40.88
-40.60
-38.50
-34.76
-29.94
-24.89
-20.36
-16.80
-14.29
-12.59
-11.37
-10.38
-9.59
-9.09
-8.94
-9.09
-9.33
-9.39
-9.13
-8.57
-7.93
-7.54
-7.64
-8.27
-9.32
-10.53
-11.68
-12.69
-13.62
-14.64
-15.86
-17.34
-19.09
-21.05
-23.20
-25.44
-27.56
-29.18
-29.77
-28.86
-26.22
-22.04
-16.93
-11.68
-7.04
-3.42
-0.85
0.91
2.17
3.14
3.86
4.26
4.31
4.11
3.87
3.84
4.20
4.92
5.79
6.47
6.72
6.40
5.64
4.66
3.69
2.90
2.27
1.70
0.99
0.01
-1.34
-3.08
-5.19
-7.65
-10.33
-12.97
-15.14
-16.31
-16.02
-14.05
-10.60
-6.21
-1.62
2.46
5.56
7.62
8.84
9.55
10.07
10.55
11.01
11.42
11.68
11.74
11.65
11.47
11.33
11.33
11.50
11.78
11.96
11.86
11.33
10.37
9.09
7.67
6.25
4.89
3.56
2.17
0.62
-1.19
-3.30
-5.68
-8.16
-10.42
-12.02
-12.50
-11.54
-9.12
-5.51
-1.26
3.04
6.88
9.95
12.17
13.63
14.49
14.88
14.92
14.66
14.17
13.56
12.98
12.56
12.43
12.55
12.75
12.80
12.46
11.62
10.33
8.78
7.17
5.60
4.05
2.43
0.61
-1.48
-3.85
-6.51
-9.41
-12.46
-15.46
-18.03
-19.66
-19.86
-18.34
-15.17
-10.83
-6.06
-1.63
1.88
4.24
5.50
5.92
5.81
5.43
4.92
4.37
3.86
3.43
3.14
3.01
3.03
3.16
3.28
3.25
2.96
2.36
1.56
0.74
0.07
-0.42
-0.84
-1.49
-2.65
-4.46
-6.88
-9.73
-12.74
-15.67
-18.25
-20.21
-21.16
-20.73
-18.67
-15.01
-10.18
-4.86
0.16
4.29
7.26
9.14
10.21
10.79
11.10
11.20
11.07
10.66
10.00
9.23
8.52
8.01
7.73
7.59
7.39
6.91
6.02
4.74
3.19
1.53
-0.11
-1.67
-3.17
-4.65
-6.19
-7.86
-9.78
-12.06
-14.73
-17.63
-20.40
-22.48
-23.29
-22.41
-19.75
-15.59
-10.52
-5.25
-0.40
3.60
6.65
8.86
10.46
11.64
12.52
13.15
13.53
13.68
13.65
13.51
13.29
12.97
12.50
11.88
11.10
10.22
9.27
8.24
7.09
5.78
4.27
2.54
0.63
-1.40
-3.49
-5.62
-7.83
-10.25
-13.00
-16.08
-19.27
-22.11
-23.95
-24.20
-22.58
-19.19
-14.54
-9.39
-4.46
-0.28
2.96
5.33
7.02
8.25
9.10
9.58
9.66
9.37
8.81
8.16
7.57
7.14
6.85
6.60
6.29
5.84
5.22
4.42
3.42
2.21
0.80
-0.76
-2.40
-4.03
-5.60
-7.17
-8.84
-10.77
-13.06
-15.65
-18.23
-20.35
-21.46
-21.10
-19.13
-15.70
-11.27
-6.41
-1.66
2.59
6.07
8.68
10.35
11.15
11.24
10.93
10.53
10.31
10.37
10.66
11.01
11.23
11.22
10.95
10.45
9.75
8.89
7.85
6.63
5.22
3.63
1.94
0.23
-1.46
-3.16
-5.03
-7.29
-10.09
-13.42
-17.01
-20.35
-22.82
-23.83
-23.00
-20.28
-15.96
-10.57
-4.80
0.66
5.26
8.68
10.86
11.98
12.30
12.13
11.69
11.14
10.59
10.10
9.76
9.57
9.50
9.47
9.33
8.98
8.35
7.41
6.18
4.69
3.00
1.19
-0.65
-2.44
-4.18
-5.99
-8.06
-10.60
-13.70
-17.21
-20.71
-23.57
-25.13
-24.88
-22.65
-18.68
-13.57
-8.05
-2.84
1.56
4.99
7.52
9.36
10.75
11.82
12.57
12.97
12.96
12.59
12.00
11.37
10.91
10.69
10.71
10.85
10.90
10.64
9.93
8.69
6.98
4.97
2.89
0.97
-0.65
-2.01
-3.33
-4.87
-6.91
-9.56
-12.68
-15.91
-18.65
-20.29
-20.32
-18.53
-15.03
-10.29
-4.96
0.28
4.88
8.52
11.13
12.81
13.77
14.21
14.30
14.17
13.91
13.57
13.19
12.80
12.39
11.96
11.48
10.94
10.28
9.46
8.41
7.13
5.63
3.99
2.30
0.62
-1.05
-2.82
-4.82
-7.21
-10.06
-13.28
-16.59
-19.50
-21.41
-21.76
-20.23
-16.93
-12.35
-7.22
-2.31
1.88
5.15
7.59
9.41
10.75
11.66
12.12
12.11
11.71
11.06
10.36
9.79
9.42
9.22
9.00
8.58
7.79
6.60
5.09
3.45
1.89
0.53
-0.66
-1.80
-3.10
-4.75
-6.88
-9.46
-12.41
-15.52
-18.45
-20.79
-22.05
-21.78
-19.77
-16.11
-11.26
-5.94
-0.93
3.16
6.08
7.84
8.69
8.91
8.69
8.15
7.36
6.40
5.34
4.22
3.02
1.66
0.06
-1.83
-3.96
-6.20
-8.37
-10.30
-11.90
-13.24
-14.49
-15.90
-17.73
-20.14
-23.15
-26.69
-30.60
-34.66
-38.56
-41.91
-44.23
-45.05
-44.09
-41.35
-37.18
-32.19
-27.06
-22.36
-18.41
-15.28
-12.86
-10.97
-9.47
-8.30
-7.44
-6.91
-6.62
-6.45
-6.17
-5.52
-4.28
-2.30
0.46
3.97
8.10
12.69
17.49
22.21
26.55
30.22
32.98
34.69
35.33
34.97
33.82
32.16
30.31
28.65
27.47
26.96
27.16
27.96
29.18
30.62
32.13
33.61
34.99
36.24
37.36
38.40
39.40
40.27
40.82
40.66
39.45
37.05
33.62
29.61
25.44
21.36
17.26
12.81
7.71
1.99
-3.96
-9.52
-14.11
-17.44
-19.57
-20.87
-21.77
-22.64
-23.69
-25.01
-26.58
-28.37
-30.26
-31.98
-33.12
-33.18
-31.73
-28.60
-24.03
-18.59
-13.00
-7.85
-3.45
0.19
3.26
5.88
8.10
9.83
10.95
11.43
11.38
11.01
10.55
10.19
9.99
9.88
9.71
9.32
8.64
7.68
6.57
5.48
4.53
3.70
2.87
1.83
0.34
-1.72
-4.31
-7.15
-9.79
-11.69
-12.35
-11.49
-9.20
-5.92
-2.26
1.15
3.91
5.97
7.52
8.82
10.08
11.34
12.50
13.46
14.21
14.78
15.26
15.65
15.85
15.71
15.11
14.02
12.57
10.94
9.29
7.67
6.04
4.27
2.30
0.10
-2.29
-4.82
-7.44
-10.04
-12.46
-14.42
-15.54
-15.47
-14.06
-11.45
-8.08
-4.57
-1.48
0.82
2.32
3.24
3.88
4.45
4.94
5.20
5.09
4.57
3.82
3.11
2.69
2.67
2.98
3.43
3.87
4.23
4.54
4.90
5.35
5.80
6.07
5.93
5.19
3.75
1.63
-1.01
-3.86
-6.52
-8.52
-9.51
-9.26
-7.83
-5.49
-2.67
0.21
2.93
5.43
7.82
10.22
12.65
15.01
17.09
18.79
20.09
21.10
22.00
22.89
23.79
24.59
25.16
25.40
25.31
24.98
24.49
23.89
23.20
22.33
21.22
19.72
17.63
14.77
11.05
6.54
1.56
-3.31
-7.44
-10.26
-11.48
-11.15
-9.63
-7.45
-5.13
-3.10
-1.62
-0.77
-0.47
-0.60
-1.01
-1.64
-2.48
-3.50
-4.63
-5.74
-6.63
-7.19
-7.39
-7.40
-7.43
-7.70
-8.29
-9.11
-9.99
-10.69
-11.10
-11.26
-11.32
-11.47
-11.84
-12.47
-13.31
-14.28
-15.33
-16.40
-17.40
-18.17
-18.41
-17.79
-16.12
-13.41
-9.96
-6.29
-2.90
-0.16
1.84
3.20
4.14
4.81
5.26
5.44
5.27
4.78
4.10
3.46
3.05
3.01
3.27
3.70
4.03
4.04
3.61
2.72
1.51
0.17
-1.09
-2.18
-3.11
-4.04
-5.17
-6.68
-8.65
-10.99
-13.39
-15.47
-16.77
-16.93
-15.80
-13.46
-10.25
-6.63
-3.10
0.02
2.55
4.50
5.98
7.12
7.97
8.54
8.81
8.78
8.53
8.18
7.86
7.61
7.41
7.17
6.78
6.21
5.50
4.70
3.88
3.01
2.04
0.91
-0.40
-1.85
-3.40
-5.02
-6.78
-8.71
-10.86
-13.13
-15.29
-17.01
-17.95
-17.82
-16.50
-14.08
-10.86
-7.31
-3.91
-1.05
1.12
2.61
3.65
4.47
5.24
6.03
6.80
7.44
7.82
7.84
7.48
6.86
6.15
5.54
5.14
4.93
4.78
4.51
4.03
3.30
2.39
1.33
0.14
-1.20
-2.70
-4.38
-6.21
-8.18
-10.31
-12.54
-14.76
-16.73
-18.09
-18.45
-17.56
-15.36
-12.10
-8.23
-4.31
-0.82
1.96
3.99
5.45
6.59
7.60
8.57
9.49
10.23
10.73
10.96
11.00
10.97
10.96
11.02
11.07
10.99
10.66
9.97
8.94
7.63
6.15
4.57
2.98
1.42
-0.09
-1.55
-3.00
-4.56
-6.34
-8.46
-10.94
-13.67
-16.36
-18.61
-19.92
-19.90
-18.37
-15.50
-11.78
-7.81
-4.22
-1.37
0.66
2.05
3.09
3.97
4.74
5.31
5.53
5.35
4.85
4.25
3.81
3.72
3.99
4.45
4.79
4.74
4.18
3.21
2.04
0.94
0.08
-0.53
-0.99
-1.50
-2.21
-3.21
-4.50
-6.03
-7.73
-9.48
-11.12
-12.41
-13.06
-12.77
-11.39
-8.95
-5.71
-2.12
1.36
4.34
6.64
8.24
9.26
9.82
10.01
9.90
9.57
9.11
8.64
8.27
8.03
7.83
7.57
7.14
6.49
5.68
4.84
4.10
3.51
2.98
2.31
1.32
-0.14
-2.06
-4.29
-6.65
-8.93
-11.01
-12.79
-14.18
-15.04
-15.22
-14.53
-12.88
-10.28
-6.94
-3.21
0.47
3.68
6.16
7.83
8.84
9.45
9.91
10.33
10.66
10.74
10.46
9.85
9.09
8.43
8.01
7.80
7.57
7.05
6.06
4.66
3.09
1.62
0.41
-0.59
-1.55
-2.75
-4.33
-6.32
-8.64
-11.13
-13.60
-15.80
-17.45
-18.22
-17.85
-16.24
-13.51
-9.97
-6.11
-2.42
0.72
3.10
4.79
5.96
6.84
7.57
8.13
8.43
8.38
8.00
7.49
7.07
6.90
6.94
7.03
6.93
6.51
5.78
4.88
3.93
3.00
2.08
1.05
-0.20
-1.75
-3.62
-5.80
-8.22
-10.76
-13.28
-15.55
-17.33
-18.36
-18.40
-17.34
-15.24
-12.29
-8.84
-5.30
-2.04
0.71
2.88
4.51
5.72
6.62
7.24
7.57
7.58
7.33
6.92
6.54
6.34
6.32
6.36
6.24
5.75
4.82
3.54
2.15
0.91
-0.03
-0.69
-1.21
-1.80
-2.65
-3.91
-5.63
-7.79
-10.18
-12.46
-14.15
-14.75
-13.98
-11.89
-8.87
-5.54
-2.47
-0.01
1.80
3.14
4.24
5.22
6.04
6.58
6.75
6.58
6.18
5.74
5.38
5.16
4.98
4.73
4.28
3.56
2.59
1.49
0.38
-0.60
-1.42
-2.16
-3.01
-4.20
-5.91
-8.16
-10.79
-13.44
-15.64
-16.94
-17.05
-15.89
-13.62
-10.55
-7.08
-3.58
-0.31
2.60
5.10
7.21
8.91
10.16
10.91
11.14
10.91
10.34
9.65
9.02
8.58
8.37
8.27
8.07
7.53
6.49
4.97
3.12
1.21
-0.52
-1.96
-3.14
-4.20
-5.34
-6.71
-8.41
-10.39
-12.53
-14.59
-16.22
-17.03
-16.63
-14.85
-11.81
-7.90
-3.71
0.23
3.56
6.25
8.42
10.24
11.79
12.98
13.69
13.86
13.56
12.99
12.40
11.98
11.78
11.71
11.59
11.24
10.56
9.57
8.40
7.21
6.14
5.22
4.35
3.37
2.12
0.49
-1.59
-4.11
-6.99
-10.02
-12.85
-14.95
-15.82
-15.12
-12.86
-9.38
-5.23
-0.90
3.33
7.41
11.40
15.26
18.73
21.38
22.84
23.01
22.11
20.56
18.81
17.14
15.64
14.25
12.89
11.53
10.14
8.72
7.22
5.64
3.98
2.23
0.38
-1.63
-3.89
-6.37
-8.97
-11.51
-13.86
-16.07
-18.33
-20.85
-23.59
-26.19
-28.04
-28.54
-27.33
-24.51
-20.56
-16.15
-11.90
-8.21
-5.26
-2.98
-1.23
0.18
1.40
2.50
3.52
4.38
5.05
5.49
5.76
5.97
6.23
6.58
6.97
7.26
7.28
6.91
6.18
5.19
4.13
3.15
2.33
1.62
0.89
-0.04
-1.28
-2.92
-4.92
-7.16
-9.41
-11.32
-12.52
-12.66
-11.55
-9.26
-6.15
-2.70
0.58
3.40
5.65
7.41
8.81
9.92
10.78
11.38
11.72
11.87
11.93
11.99
12.11
12.27
12.41
12.40
12.14
11.54
10.60
9.42
8.13
6.82
5.53
4.19
2.69
0.96
-1.04
-3.29
-5.75
-8.38
-11.09
-13.68
-15.81
-17.07
-17.10
-15.74
-13.13
-9.70
-6.01
-2.56
0.34
2.62
4.36
5.68
6.66
7.33
7.69
7.76
7.61
7.34
7.01
6.65
6.27
5.90
5.59
5.35
5.15
4.88
4.39
3.59
2.50
1.21
-0.14
-1.47
-2.85
-4.41
-6.32
-8.67
-11.40
-14.35
-17.22
-19.65
-21.24
-21.66
-20.72
-18.48
-15.25
-11.50
-7.77
-4.49
-1.89
0.01
1.36
2.37
3.19
3.89
4.45
4.77
4.80
4.58
4.20
3.82
3.58
3.49
3.51
3.50
3.29
2.76
1.90
0.73
-0.60
-1.98
-3.32
-4.59
-5.86
-7.28
-8.99
-11.03
-13.34
-15.74
-17.94
-19.65
-20.58
-20.52
-19.35
-17.10
-13.91
-10.08
-6.01
-2.09
1.34
4.16
6.40
8.20
9.69
10.91
11.83
12.37
12.51
12.33
12.02
11.74
11.64
11.72
11.89
12.00
11.94
11.61
10.96
9.98
8.72
7.27
5.75
4.24
2.76
1.27
-0.32
-2.10
-4.05
-6.15
-8.33
-10.46
-12.40
-13.87
-14.58
-14.21
-12.62
-9.93
-6.54
-2.97
0.29
2.93
4.89
6.26
7.20
7.81
8.16
8.26
8.13
7.80
7.35
6.87
6.49
6.27
6.20
6.14
5.86
5.19
4.06
2.60
1.05
-0.32
-1.35
-2.07
-2.60
-3.09
-3.65
-4.33
-5.20
-6.30
-7.67
-9.18
-10.54
-11.31
-11.08
-9.60
-6.93
-3.40
0.46
4.16
7.35
9.89
11.81
13.25
14.33
15.09
15.51
15.53
15.15
14.49
13.75
13.13
12.72
12.46
12.16
11.63
10.75
9.58
8.24
6.89
5.61
4.41
3.25
2.06
0.80
-0.55
-2.03
-3.70
-5.57
-7.64
-9.76
-11.69
-13.07
-13.56
-12.92
-11.12
-8.37
-5.09
-1.74
1.24
3.66
5.48
6.80
7.75
8.40
8.76
8.79
8.47
7.82
6.99
6.09
5.28
4.64
4.14
3.71
3.24
2.63
1.83
0.85
-0.28
-1.51
-2.81
-4.15
-5.51
-6.91
-8.37
-9.97
-11.76
-13.77
-15.97
-18.18
-20.08
-21.28
-21.40
-20.21
-17.75
-14.35
-10.50
-6.76
-3.49
-0.84
1.30
3.17
4.96
6.71
8.32
9.63
10.50
10.91
10.95
10.77
10.52
10.29
10.10
9.87
9.54
9.02
8.28
7.32
6.19
4.90
3.49
2.03
0.58
-0.83
-2.18
-3.51
-4.93
-6.55
-8.44
-10.55
-12.63
-14.28
-15.08
-14.65
-12.86
-9.92
-6.26
-2.44
1.02
3.84
5.94
7.43
8.49
9.22
9.70
9.93
9.92
9.70
9.30
8.75
8.04
7.20
6.23
5.15
4.03
2.90
1.82
0.81
-0.18
-1.24
-2.50
-4.05
-5.91
-7.98
-10.06
-11.97
-13.62
-15.07
-16.55
-18.24
-20.19
-22.13
-23.59
-24.04
-23.11
-20.84
-17.58
-13.93
-10.43
-7.37
-4.76
-2.44
-0.23
1.93
3.90
5.47
6.50
6.99
7.09
7.00
6.93
6.99
7.16
7.40
7.62
7.76
7.79
7.70
7.52
7.25
6.91
6.54
6.18
5.82
5.43
4.90
4.08
2.85
1.15
-0.95
-3.18
-5.15
-6.41
-6.56
-5.44
-3.10
0.17
3.94
7.77
11.28
14.19
16.30
17.55
17.95
17.61
16.72
15.49
14.13
12.73
11.35
9.99
8.64
7.34
6.10
4.91
3.74
2.55
1.30
0.00
-1.32
-2.63
-3.92
-5.22
-6.58
-8.03
-9.65
-11.48
-13.54
-15.77
-17.93
-19.66
-20.52
-20.16
-18.50
-15.77
-12.45
-9.12
-6.19
-3.82
-1.92
-0.24
1.39
3.02
4.53
5.74
6.53
6.90
6.95
6.86
6.77
6.72
6.72
6.70
6.61
6.42
6.18
5.91
5.60
5.15
4.44
3.39
1.98
0.33
-1.41
-3.13
-4.82
-6.55
-8.35
-10.13
-11.58
-12.30
-11.96
-10.47
-8.01
-4.96
-1.82
0.99
3.23
4.78
5.68
6.05
6.05
5.86
5.56
5.17
4.66
4.02
3.30
2.64
2.19
2.01
2.02
2.03
1.81
1.24
0.32
-0.85
-2.16
-3.57
-5.09
-6.75
-8.48
-10.17
-11.70
-13.10
-14.46
-15.95
-17.57
-19.11
-20.11
-20.08
-18.73
-16.07
-12.49
-8.56
-4.80
-1.51
1.26
3.63
5.71
7.50
8.90
9.77
10.09
9.97
9.66
9.41
9.32
9.37
9.40
9.27
8.90
8.32
7.57
6.68
5.67
4.56
3.44
2.43
1.68
1.19
0.84
0.38
-0.42
-1.63
-3.13
-4.63
-5.77
-6.24
-5.79
-4.36
-2.02
1.02
4.46
7.98
11.29
14.17
16.53
18.33
19.52
20.09
20.05
19.45
18.47
17.27
16.07
14.94
13.90
12.90
11.86
10.70
9.37
7.84
6.08
4.13
2.03
-0.12
-2.24
-4.31
-6.38
-8.54
-10.86
-13.37
-15.92
-18.26
-20.01
-20.80
-20.40
-18.75
-16.06
-12.71
-9.16
-5.76
-2.78
-0.28
1.73
3.26
4.28
4.74
4.66
4.18
3.55
3.09
3.01
3.38
4.06
4.77
5.22
5.20
4.68
3.79
2.74
1.72
0.79
-0.10
-1.08
-2.32
-3.91
-5.89
-8.15
-10.45
-12.42
-13.68
-13.91
-12.95
-10.88
-7.98
-4.68
-1.38
1.61
4.11
6.05
7.46
8.38
8.85
8.95
8.71
8.24
7.61
6.93
6.35
5.96
5.84
5.93
6.13
6.23
6.06
5.51
4.55
3.28
1.82
0.33
-1.13
-2.58
-4.15
-5.99
-8.18
-10.64
-13.07
-15.01
-16.01
-15.77
-14.27
-11.79
-8.78
-5.70
-2.84
-0.32
1.84
3.66
5.08
6.06
6.52
6.52
6.19
5.75
5.39
5.26
5.38
5.71
6.07
6.27
6.13
5.56
4.64
3.56
2.57
1.85
1.39
1.00
0.35
-0.82
-2.64
-5.00
-7.64
-10.17
-12.23
-13.49
-13.69
-12.70
-10.54
-7.41
-3.70
0.13
3.62
6.44
8.46
9.75
10.44
10.70
10.65
10.38
9.98
9.50
9.00
8.52
8.10
7.74
7.43
7.13
6.80
6.41
5.91
5.32
4.69
4.02
3.30
2.41
1.24
-0.36
-2.42
-4.89
-7.61
-10.35
-12.86
-14.90
-16.21
-16.62
-16.10
-14.70
-12.65
-10.28
-7.91
-5.80
-4.10
-2.82
-1.86
-1.11
-0.48
0.08
0.49
0.69
0.66
0.47
0.29
0.26
0.43
0.66
0.76
0.51
-0.15
-1.05
-1.93
-2.50
-2.65
-2.52
-2.48
-2.94
-4.25
-6.53
-9.60
-12.97
-15.91
-17.64
-17.47
-15.12
-10.76
-5.05
1.13
6.87
11.51
14.73
16.52
17.12
16.96
16.50
16.15
15.98
15.58
14.12
10.77
5.21
-1.97
-9.34
-15.19
-18.32
-18.56
-16.74
-14.12
-11.75
-9.98
-8.56
-7.04
-5.23
-3.30
-1.68
-0.70
-0.32
-0.24
-0.03
0.59
1.64
2.95
4.38
5.96
7.93
10.67
14.42
19.12
24.36
29.40
33.50
36.08
36.88
36.00
33.79
30.73
27.37
24.22
21.65
19.84
18.72
18.00
17.22
15.95
14.01
11.55
8.99
6.72
4.99
3.76
2.72
1.47
-0.27
-2.59
-5.30
-8.10
-11.01
-14.24
-18.24
-23.54
-30.30
-38.17
-46.15
-52.87
-56.85
-57.25
-53.76
-46.71
-37.10
-26.49
-16.96
-10.97
-10.95
-16.17
-25.08
-34.56
-41.22
-43.12
-40.33
-34.32
-26.99
-19.75
-13.06
-7.00
-1.42
3.52
7.27
9.27
9.35
7.92
5.92
4.44
4.15
5.15
6.90
8.46
8.93
7.87
5.46
2.47
-0.05
-1.37
-1.31
-0.37
0.60
0.83
-0.01
-1.70
-3.80
-6.06
-8.62
-11.43
-13.75
-13.95
-10.14
-1.50
10.89
24.18
35.12
41.70
44.25
44.44
44.12
43.89
42.81
39.32
32.65
23.73
14.82
8.25
5.04
4.54
4.94
4.56
2.68
-0.21
-2.85
-4.10
-3.54
-1.59
0.78
2.61
3.40
3.33
3.09
3.43
4.72
6.70
8.58
9.53
9.02
7.03
4.07
0.82
-2.10
-4.38
-5.97
-6.93
-7.19
-6.42
-4.26
-0.68
3.79
8.02
10.61
10.47
7.17
1.30
-5.83
-12.49
-17.35
-19.92
-20.65
-20.52
-20.37
-20.59
-20.86
-20.45
-18.71
-15.41
-10.93
-6.07
-1.67
1.81
4.53
7.11
10.20
13.99
17.91
20.88
21.84
20.29
16.59
11.68
6.66
2.33
-0.94
-3.02
-3.77
-2.99
-0.55
3.25
7.63
11.59
14.36
15.80
16.41
16.88
17.64
18.39
18.30
16.45
12.41
6.68
0.47
-4.69
-7.56
-7.56
-4.78
0.19
6.61
13.65
20.46
26.13
29.87
31.17
30.05
27.11
23.29
19.51
16.37
13.94
11.92
9.84
7.23
3.91
-0.10
-4.64
-9.48
-14.51
-19.65
-24.84
-29.88
-34.51
-38.61
-42.33
-46.15
-50.62
-56.08
-62.27
-68.37
-73.17
-75.54
-74.78
-70.76
-63.79
-54.42
-43.40
-31.64
-20.17
-9.99
-1.74
4.51
9.25
13.23
17.07
20.91
24.50
27.48
29.69
31.68
34.58
39.72
47.86
58.83
71.44
83.82
93.93
99.93
100.66
96.05
87.06
75.53
63.87
54.33
48.28
45.53
44.12
41.53
36.07
27.81
18.62
11.31
8.31
10.41
16.30
22.45
25.60
24.41
19.75
13.59
7.92
3.93
1.70
0.53
-2.12
-7.58
-15.09
-22.98
-30.41
-37.87
-46.42
-56.60
-67.90
-81.44
-96.73
-111.45
-123.22
-131.70
-138.44
-145.29
-153.26
-162.36
-175.37
-193.35
-214.22
-234.21
-250.23
-260.33
-262.95
-256.69
-220.37
-149.59
-61.00
20.66
80.80
117.89
137.21
145.48
148.36
149.34
146.79
139.60
129.37
119.28
111.45
106.13
102.67
100.32
98.56
94.83
88.50
81.78
77.94
78.29
80.98
81.93
77.44
64.57
42.08
12.92
-16.49
-39.22
-51.31
-52.84
-46.73
-36.73
-25.89
-16.46
-9.20
-3.70
0.70
4.25
6.79
8.05
7.70
5.21
0.10
-7.53
-16.63
-25.49
-32.57
-37.06
-39.07
-39.27
-38.72
-38.20
-37.86
-37.39
-36.50
-35.26
-34.19
-33.93
-34.76
-36.63
-39.19
-42.16
-45.54
-49.58
-54.54
-60.49
-67.05
-73.40
-78.67
-82.23
-84.05
-84.70
-85.05
-85.80
-86.78
-86.67
-82.85
-72.65
-54.54
-29.14
0.70
30.59
55.90
73.12
80.71
80.15
74.16
65.69
56.99
49.67
44.83
43.13
44.76
49.40
57.82
69.86
84.13
98.40
110.77
120.39
127.27
131.76
134.14
137.00
142.01
149.10
156.91
164.17
170.77
177.37
184.62
192.59
203.90
219.16
236.38
251.75
262.26
267.38
268.88
269.64
251.76
207.06
139.70
63.75
-8.24
-71.38
-125.98
-173.27
-213.24
-244.52
-261.77
-262.11
-246.64
-220.51
-190.33
-161.75
-138.23
-120.99
-109.14
-97.04
-80.83
-59.36
-34.51
-9.29
13.60
31.97
43.80
44.08
33.79
14.89
-9.57
-35.83
-59.54
-76.87
-85.98
-87.53
-83.89
-76.45
-67.26
-56.79
-45.93
-35.95
-28.10
-23.24
-21.29
-21.24
-20.99
-19.35
-16.09
-12.18
-8.94
-7.15
-6.90
-7.46
-7.87
-7.10
-4.93
-1.57
2.38
6.36
10.47
14.57
18.50
22.10
25.34
28.12
30.41
32.02
32.75
32.51
31.47
30.33
30.10
31.59
34.79
38.64
41.32
41.05
36.91
29.12
19.01
8.42
-1.11
-8.88
-15.13
-20.76
-26.84
-34.31
-43.75
-55.09
-67.49
-79.57
-89.84
-97.10
-100.89
-101.35
-99.33
-96.21
-93.37
-91.73
-91.40
-91.56
-90.68
-86.93
-78.58
-64.79
-46.21
-24.69
-2.69
17.44
34.07
47.01
55.42
59.63
61.10
61.10
59.84
56.90
52.06
45.85
39.46
34.18
31.02
30.06
30.36
30.61
29.77
27.57
24.49
21.51
19.65
19.64
21.42
24.10
26.35
27.09
25.95
23.26
19.89
16.60
13.89
11.63
9.33
6.56
3.22
-0.36
-3.71
-6.57
-9.05
-11.50
-14.31
-17.63
-21.21
-24.31
-25.41
-23.57
-18.02
-8.72
3.49
17.05
30.08
40.91
48.51
52.58
53.19
50.71
45.48
37.90
28.65
18.74
9.38
1.50
-4.52
-9.15
-13.26
-17.78
-23.16
-29.15
-34.86
-39.11
-40.93
-39.93
-36.50
-31.64
-26.55
-22.23
-19.19
-17.41
-16.56
-16.36
-16.64
-17.39
-18.54
-19.78
-20.60
-20.36
-18.80
-15.67
-11.33
-6.40
-1.62
2.46
5.56
7.74
9.29
10.50
11.61
12.59
13.28
13.49
13.13
12.28
11.16
10.04
9.11
8.49
8.12
7.87
7.57
7.14
6.54
5.78
4.90
3.90
2.74
1.41
-0.02
-1.39
-2.42
-2.84
-2.54
-1.61
-0.35
0.82
1.51
1.46
0.62
-0.87
-2.77
-4.86
-6.95
-8.94
-10.80
-12.56
-14.24
-15.83
-17.24
-18.39
-19.21
-19.77
-20.24
-20.92
-22.05
-23.78
-26.13
-29.07
-32.49
-36.25
-40.15
-43.72
-46.34
-47.33
-46.23
-42.87
-37.47
-30.60
-22.94
-15.14
-7.72
-1.01
4.79
9.63
13.50
16.46
18.47
19.49
19.45
18.40
16.51
14.11
11.50
8.93
6.53
4.32
2.36
0.72
-0.50
-1.29
-1.78
-2.16
-2.62
-3.17
-3.61
-3.53
-2.48
-0.11
3.60
8.41
13.77
19.08
23.85
27.84
31.05
33.64
35.79
37.59
38.96
39.75
39.82
39.12
37.74
35.93
33.95
32.06
30.41
29.04
27.83
26.60
25.17
23.42
21.30
18.85
16.14
13.29
10.53
8.22
6.82
6.73
8.14
10.83
14.29
17.79
20.72
22.71
23.77
24.13
24.06
23.76
23.29
22.65
21.81
20.84
19.80
18.81
17.92
17.14
16.48
15.92
15.45
14.98
14.40
13.52
12.15
10.14
7.47
4.34
1.17
-1.48
-3.12
-3.43
-2.50
-0.77
1.10
2.46
2.89
2.38
1.19
-0.28
-1.71
-2.94
-4.00
-4.98
-5.95
-6.89
-7.73
-8.43
-9.04
-9.66
-10.39
-11.30
-12.37
-13.57
-14.86
-16.24
-17.73
-19.36
-21.08
-22.78
-24.24
-25.16
-25.19
-24.06
-21.69
-18.28
-14.30
-10.36
-6.99
-4.42
-2.59
-1.19
0.07
1.33
2.50
3.37
3.78
3.73
3.35
2.83
2.32
1.88
1.54
1.34
1.33
1.51
1.76
1.78
1.26
-0.05
-2.14
-4.82
-7.69
-10.34
-12.42
-13.66
-13.93
-13.19
-11.57
-9.36
-6.92
-4.63
-2.72
-1.30
-0.32
0.27
0.50
0.34
-0.21
-1.05
-2.00
-2.81
-3.34
-3.63
-3.88
-4.31
-5.08
-6.19
-7.49
-8.76
-9.84
-10.67
-11.34
-12.03
-12.94
-14.24
-15.99
-18.14
-20.45
-22.57
-24.06
-24.52
-23.67
-21.47
-18.10
-13.96
-9.55
-5.33
-1.65
1.34
3.63
5.26
6.32
6.85
6.94
6.73
6.42
6.22
6.29
6.66
7.22
7.80
8.21
8.34
8.19
7.81
7.28
6.60
5.71
4.48
2.81
0.66
-1.91
-4.67
-7.28
-9.34
-10.45
-10.33
-8.88
-6.31
-3.00
0.51
3.75
6.40
8.42
9.90
10.98
11.72
12.05
11.90
11.28
10.39
9.47
8.76
8.33
8.01
7.58
6.83
5.70
4.32
2.87
1.49
0.21
-1.04
-2.43
-4.14
-6.25
-8.77
-11.58
-14.37
-16.71
-18.08
-18.04
-16.38
-13.26
-9.13
-4.69
-0.57
2.81
5.36
7.23
8.64
9.70
10.41
10.69
10.52
10.06
9.56
9.27
9.24
9.32
9.22
8.67
7.62
6.23
4.77
3.50
2.50
1.67
0.80
-0.34
-1.91
-3.99
-6.58
-9.61
-12.87
-15.99
-18.45
-19.64
-19.10
-16.71
-12.78
-7.91
-2.84
1.83
5.80
9.01
11.57
13.62
15.20
16.32
16.98
17.22
17.16
16.97
16.82
16.84
17.11
17.63
18.30
19.01
19.64
20.17
20.58
20.87
20.97
20.77
20.17
19.19
17.95
16.68
15.58
14.72
14.12
13.80
13.86
14.54
16.04
18.40
21.36
24.43
27.10
29.00
30.00
30.14
29.55
28.30
26.43
24.05
21.36
18.61
15.98
13.46
10.72
7.27
2.57
-3.73
-11.75
-21.31
-32.07
-43.58
-55.32
-66.72
-77.19
-86.14
-93.09
-97.78
-100.11
-100.18
-98.19
-94.33
-88.82
-81.91
-73.90
-65.14
-55.97
-46.63
-37.30
-28.12
-19.35
-11.38
-4.69
0.33
3.51
5.04
5.37
5.05
4.49
3.96
3.57
3.36
3.40
3.71
4.26
4.83
5.10
4.73
3.55
1.63
-0.69
-2.89
-4.43
-5.01
-4.68
-3.84
-3.15
-3.26
-4.59
-7.12
-10.37
-13.56
-15.81
-16.48
-15.36
-12.68
-9.06
-5.21
-1.72
1.16
3.51
5.62
7.77
10.11
12.60
15.12
17.61
20.15
22.93
26.13
29.80
33.79
37.79
41.42
44.29
46.08
46.56
45.71
43.70
40.95
37.98
35.19
32.61
29.88
26.39
21.60
15.47
8.54
1.80
-3.68
-7.26
-8.89
-9.05
-8.47
-7.80
-7.36
-7.10
-6.74
-5.92
-4.33
-1.87
1.42
5.31
9.45
13.46
17.01
19.83
21.76
22.72
22.75
21.96
20.48
18.53
16.29
13.95
11.65
9.51
7.58
5.79
3.95
1.80
-0.84
-3.85
-6.77
-8.87
-9.52
-8.46
-5.95
-2.68
0.64
3.53
6.00
8.37
11.03
14.16
17.61
20.97
23.83
25.90
27.12
27.56
27.40
26.81
25.91
24.81
23.57
22.27
21.01
19.94
19.20
18.88
18.89
19.03
18.96
18.44
17.32
15.67
13.75
11.89
10.40
9.49
9.27
9.67
10.53
11.60
12.50
12.89
12.47
11.13
8.91
6.05
2.81
-0.56
-3.89
-7.08
-10.05
-12.77
-15.19
-17.27
-18.98
-20.32
-21.28
-21.87
-22.15
-22.24
-22.35
-22.74
-23.64
-25.19
-27.40
-30.13
-33.18
-36.29
-39.14
-41.38
-42.66
-42.66
-41.24
-38.48
-34.66
-30.25
-25.69
-21.32
-17.28
-13.50
-9.85
-6.28
-2.90
0.10
2.49
4.24
5.45
6.41
7.33
8.35
9.41
10.34
11.03
11.40
11.50
11.40
11.26
11.29
11.80
13.03
15.14
17.99
21.21
24.32
26.93
28.91
30.41
31.68
32.91
34.03
34.75
34.70
33.68
31.66
28.84
25.54
22.11
18.80
15.79
13.17
10.91
8.90
6.89
4.58
1.58
-2.45
-7.71
-14.06
-20.98
-27.65
-33.17
-36.88
-38.53
-38.29
-36.56
-33.74
-30.16
-26.07
-21.79
-17.69
-14.10
-11.11
-8.52
-5.91
-2.87
0.74
4.79
8.95
12.88
16.31
18.94
20.38
20.14
17.84
13.52
7.81
1.89
-2.92
-5.55
-5.73
-4.15
-2.30
-1.93
-4.49
-10.53
-19.54
-30.12
-40.48
-48.95
-54.44
-56.60
-55.69
-52.45
-47.92
-43.25
-39.49
-37.32
-36.86
-37.62
-38.74
-39.40
-39.18
-38.08
-36.40
-34.41
-32.11
-29.28
-25.76
-21.72
-17.72
-14.52
-12.67
-12.22
-12.71
-13.36
-13.45
-12.51
-10.33
-6.91
-2.28
3.41
9.81
16.21
21.66
25.23
26.34
24.99
21.73
17.40
12.75
8.23
3.99
0.01
-3.59
-6.55
-8.46
-9.05
-8.26
-6.34
-3.67
-0.64
2.52
5.61
8.46
10.90
12.67
13.58
13.64
13.11
12.53
12.39
12.85
13.61
14.06
13.57
11.80
8.82
5.12
1.37
-1.85
-4.36
-6.24
-7.66
-8.77
-9.76
-10.82
-12.24
-14.15
-16.45
-19.24
-22.19
-24.51
-25.23
-23.70
-19.83
-14.30
-8.03
-1.86
2.62
4.52
4.13
2.59
1.11
0.62
1.12
2.53
4.78
6.03
4.83
0.74
-5.80
-14.43
-24.97
-38.37
-55.26
-75.71
-101.33
-132.10
-165.62
-197.51
-223.26
-239.37
-245.10
-241.05
-215.46
-165.38
-98.65
-30.37
26.56
64.10
86.98
99.97
106.82
110.51
110.63
107.35
102.18
97.67
95.88
97.89
102.58
108.43
114.20
117.39
116.81
113.08
108.20
104.23
102.52
102.64
103.69
104.86
104.46
101.51
95.98
88.67
80.38
71.69
62.30
51.80
39.88
25.83
9.36
-9.03
-28.07
-45.98
-60.84
-71.23
-76.34
-76.18
-71.88
-65.14
-57.70
-50.81
-44.98
-39.99
-35.33
-30.47
-25.15
-19.51
-13.85
-8.37
-3.06
2.27
7.80
13.44
18.87
23.62
27.38
30.06
31.85
33.07
33.99
34.75
35.35
35.74
35.86
35.71
35.24
34.36
32.97
31.01
28.54
25.81
23.16
20.87
19.05
17.57
16.14
14.46
12.38
9.88
6.99
3.69
-0.12
-4.60
-9.79
-15.44
-20.97
-25.65
-28.81
-30.11
-29.69
-28.11
-26.12
-24.34
-23.08
-22.30
-21.68
-20.86
-19.54
-17.63
-15.23
-12.61
-10.14
-8.21
-7.09
-6.79
-7.02
-7.22
-6.69
-4.83
-1.39
3.48
9.26
15.28
20.84
25.46
28.89
31.09
32.19
32.35
31.70
30.30
28.15
25.31
21.92
18.22
14.56
11.24
8.43
6.15
4.23
2.47
0.66
-1.29
-3.44
-5.80
-8.44
-11.48
-15.11
-19.49
-24.72
-30.71
-37.12
-43.35
-48.64
-52.27
-53.80
-53.15
-50.68
-46.94
-42.50
-37.76
-32.88
-27.89
-22.84
-17.93
-13.46
-9.75
-6.99
-5.13
-3.93
-3.03
-2.07
-0.76
1.03
3.25
5.70
8.07
10.01
11.28
11.79
11.64
11.02
10.18
9.29
8.34
7.23
5.78
3.86
1.43
-1.34
-4.12
-6.44
-7.85
-8.06
-7.04
-5.04
-2.50
0.11
2.47
4.43
5.99
7.21
8.10
8.64
8.79
8.54
8.00
7.35
6.83
6.60
6.78
7.36
8.22
9.21
10.17
10.99
11.60
11.98
12.15
12.11
11.82
11.23
10.28
8.93
7.16
5.02
2.67
0.39
-1.46
-2.49
-2.38
-1.02
1.48
4.79
8.51
12.22
15.65
18.64
21.15
23.16
24.67
25.68
26.23
26.39
26.29
26.02
25.63
25.12
24.40
23.37
21.99
20.34
18.61
17.01
15.70
14.71
13.90
13.07
12.00
10.55
8.63
6.20
3.30
0.08
-3.18
-5.99
-7.83
-8.27
-7.19
-4.83
-1.74
1.45
4.26
6.51
8.32
9.90
11.40
12.74
13.68
13.95
13.47
12.41
11.16
10.14
9.57
9.40
9.34
9.03
8.19
6.77
4.92
2.92
0.97
-0.87
-2.66
-4.52
-6.56
-8.81
-11.25
-13.85
-16.58
-19.36
-21.98
-24.04
-25.04
-24.54
-22.37
-18.75
-14.24
-9.57
-5.35
-1.91
0.72
2.73
4.38
5.79
6.99
7.89
8.43
8.61
8.54
8.42
8.35
8.36
8.34
8.12
7.59
6.77
5.76
4.70
3.66
2.60
1.43
0.07
-1.50
-3.19
-4.94
-6.73
-8.60
-10.57
-12.59
-14.36
-15.47
-15.48
-14.09
-11.34
-7.56
-3.28
0.95
4.74
7.90
10.39
12.27
13.59
14.38
14.70
14.59
14.18
13.56
12.84
12.10
11.38
10.71
10.10
9.49
8.79
7.89
6.71
5.25
3.56
1.75
-0.09
-1.87
-3.58
-5.22
-6.84
-8.53
-10.35
-12.29
-14.22
-15.84
-16.73
-16.48
-14.86
-11.91
-7.98
-3.61
0.65
4.43
7.57
10.16
12.36
14.28
15.90
17.05
17.58
17.39
16.54
15.25
13.73
12.21
10.77
9.40
8.06
6.72
5.39
4.12
2.90
1.71
0.46
-0.92
-2.52
-4.35
-6.39
-8.63
-11.05
-13.60
-16.17
-18.53
-20.36
-21.24
-20.83
-18.98
-15.80
-11.69
-7.20
-2.90
0.79
3.68
5.74
7.09
7.84
8.09
7.95
7.54
6.95
6.30
5.62
4.94
4.26
3.61
3.02
2.50
2.04
1.53
0.86
-0.08
-1.34
-2.94
-4.84
-6.97
-9.20
-11.41
-13.50
-15.46
-17.42
-19.52
-21.82
-24.09
-25.87
-26.59
-25.79
-23.41
-19.76
-15.45
-11.08
-7.07
-3.60
-0.64
1.90
4.05
5.77
6.98
7.65
7.87
7.81
7.66
7.61
7.74
8.03
8.38
8.66
8.73
8.51
7.95
7.07
5.90
4.49
2.91
1.19
-0.64
-2.55
-4.53
-6.60
-8.79
-11.11
-13.55
-16.01
-18.22
-19.81
-20.38
-19.60
-17.41
-14.01
-9.87
-5.55
-1.55
1.85
4.62
6.85
8.71
10.24
11.42
12.19
12.57
12.70
12.75
12.89
13.18
13.51
13.71
13.58
13.02
12.00
10.59
8.93
7.13
5.30
3.47
1.61
-0.34
-2.47
-4.82
-7.35
-9.97
-12.60
-15.16
-17.55
-19.60
-21.03
-21.46
-20.57
-18.28
-14.81
-10.66
-6.47
-2.78
0.12
2.25
3.79
4.96
5.87
6.50
6.77
6.66
6.24
5.70
5.22
4.90
4.75
4.66
4.53
4.30
3.93
3.45
2.83
2.05
1.04
-0.18
-1.57
-3.01
-4.40
-5.72
-7.03
-8.48
-10.18
-12.10
-14.03
-15.55
-16.24
-15.75
-13.97
-11.05
-7.37
-3.40
0.44
3.83
6.59
8.68
10.12
10.98
11.34
11.26
10.77
9.96
8.94
7.88
6.96
6.31
5.97
5.85
5.73
5.38
4.64
3.42
1.78
-0.18
-2.33
-4.53
-6.71
-8.84
-10.95
-13.11
-15.39
-17.74
-19.99
-21.79
-22.73
-22.48
-20.90
-18.11
-14.47
-10.48
-6.62
-3.19
-0.33
1.96
3.81
5.32
6.58
7.60
8.33
8.72
8.74
8.45
7.97
7.44
6.98
6.66
6.48
6.38
6.28
6.08
5.72
5.16
4.38
3.37
2.14
0.75
-0.70
-2.06
-3.24
-4.23
-5.08
-5.91
-6.78
-7.57
-8.05
-7.90
-6.88
-4.88
-2.06
1.22
4.53
7.46
9.75
11.29
12.19
12.61
12.74
12.65
12.39
11.93
11.33
10.69
10.13
9.73
9.42
9.03
8.40
7.46
6.26
4.93
3.58
2.25
0.90
-0.56
-2.19
-3.99
-5.91
-7.88
-9.81
-11.67
-13.50
-15.40
-17.50
-19.80
-22.09
-23.91
-24.69
-23.95
-21.54
-17.77
-13.27
-8.81
-5.01
-2.13
-0.11
1.29
2.36
3.31
4.22
5.11
5.95
6.67
7.24
7.62
7.78
7.76
7.62
7.44
7.34
7.36
7.46
7.51
7.32
6.74
5.68
4.16
2.29
0.24
-1.85
-3.91
-5.96
-8.07
-10.34
-12.83
-15.51
-18.21
-20.63
-22.36
-22.99
-22.21
-19.99
-16.53
-12.27
-7.78
-3.55
0.07
2.95
5.12
6.75
8.01
9.06
9.92
10.59
11.04
11.27
11.32
11.25
11.11
10.88
10.57
10.21
9.91
9.76
9.78
9.86
9.74
9.12
7.81
5.84
3.45
0.96
-1.36
-3.41
-5.32
-7.32
-9.60
-12.25
-15.10
-17.80
-19.86
-20.82
-20.36
-18.41
-15.19
-11.11
-6.74
-2.58
0.99
3.79
5.82
7.18
8.06
8.60
8.90
9.00
8.91
8.65
8.31
8.03
7.92
8.02
8.25
8.43
8.41
8.14
7.62
6.95
6.16
5.25
4.12
2.72
1.07
-0.75
-2.59
-4.40
-6.18
-8.03
-10.07
-12.31
-14.61
-16.68
-18.07
-18.38
-17.35
-14.99
-11.56
-7.49
-3.26
0.73
4.22
7.09
9.34
11.04
12.32
13.28
13.99
14.42
14.53
14.28
13.68
12.87
12.01
11.24
10.58
9.95
9.19
8.20
6.95
5.54
4.08
2.62
1.08
-0.66
-2.74
-5.12
-7.68
-10.18
-12.53
-14.75
-17.04
-19.56
-22.24
-24.68
-26.21
-26.20
-24.27
-20.56
-15.66
-10.40
-5.52
-1.49
1.62
3.98
5.89
7.56
9.05
10.33
11.32
11.96
12.28
12.32
12.17
11.93
11.64
11.36
11.13
10.94
10.73
10.38
9.75
8.71
7.23
5.40
3.40
1.43
-0.39
-2.04
-3.66
-5.45
-7.58
-10.10
-12.89
-15.66
-17.96
-19.34
-19.43
-18.04
-15.23
-11.31
-6.76
-2.14
2.08
5.61
8.36
10.41
11.90
12.95
13.55
13.69
13.35
12.63
11.73
10.89
10.26
9.86
9.56
9.17
8.60
7.83
6.92
5.95
4.86
3.53
1.82
-0.33
-2.80
-5.36
-7.77
-9.93
-11.91
-13.93
-16.14
-18.50
-20.68
-22.13
-22.30
-20.84
-17.83
-13.70
-9.10
-4.66
-0.77
2.43
5.03
7.12
8.76
9.86
10.32
10.12
9.38
8.37
7.38
6.64
6.22
6.04
5.89
5.58
4.98
4.09
3.02
1.93
0.94
0.07
-0.73
-1.62
-2.73
-4.17
-6.00
-8.22
-10.78
-13.55
-16.29
-18.58
-19.92
-19.81
-17.98
-14.52
-9.92
-4.93
-0.22
3.75
6.93
9.52
11.73
13.65
15.18
16.09
16.26
15.81
15.05
14.38
14.05
14.10
14.34
14.57
14.63
14.53
14.31
14.02
13.60
12.94
11.94
10.59
8.97
7.18
5.31
3.33
1.12
-1.43
-4.34
-7.48
-10.48
-12.83
-13.96
-13.42
-11.10
-7.25
-2.53
2.28
6.42
9.49
11.44
12.58
13.31
13.90
14.44
14.78
14.76
14.30
13.45
12.41
11.35
10.40
9.54
8.67
7.71
6.65
5.51
4.38
3.25
2.11
0.83
-0.69
-2.52
-4.64
-6.93
-9.22
-11.34
-13.17
-14.63
-15.61
-15.92
-15.29
-13.41
-10.07
-5.35
0.39
6.57
12.62
18.10
22.86
26.94
30.39
33.20
35.20
36.16
35.95
34.62
32.41
29.65
26.64
23.51
20.28
16.92
13.48
10.06
6.81
3.83
1.07
-1.57
-4.15
-6.67
-8.98
-10.91
-12.43
-13.67
-14.98
-16.78
-19.39
-22.93
-27.17
-31.62
-35.56
-38.26
-39.11
-37.83
-34.52
-29.71
-24.16
-18.66
-13.84
-9.97
-7.05
-4.88
-3.28
-2.14
-1.47
-1.28
-1.52
-1.95
-2.27
-2.15
-1.41
-0.06
1.69
3.53
5.14
6.29
6.80
6.58
5.62
4.03
1.96
-0.39
-2.92
-5.68
-8.88
-12.78
-17.53
-22.99
-28.67
-33.85
-37.80
-40.12
-40.77
-40.08
-38.47
-36.21
-33.35
-29.74
-25.32
-20.21
-14.77
-9.59
-5.24
-2.34
-1.38
-2.74
-6.48
-12.16
-18.83
-25.22
-30.14
-32.90
-33.49
-32.49
-30.61
-28.39
-25.95
-23.06
-19.48
-15.16
-10.38
-5.64
-1.46
1.73
3.73
4.58
4.53
4.06
3.78
4.32
6.20
9.68
14.72
21.00
28.10
35.60
43.20
50.76
58.23
65.62
72.92
80.08
86.95
93.35
99.08
104.00
108.07
111.36
113.96
115.91
117.10
117.26
115.88
112.29
105.69
95.34
80.80
62.20
40.33
16.59
-7.35
-30.00
-50.31
-67.76
-82.21
-93.61
-101.78
-106.41
-107.20
-104.14
-97.58
-88.27
-77.22
-65.46
-53.89
-43.16
-33.62
-25.41
-18.51
-12.82
-8.20
-4.50
-1.55
0.85
2.91
4.85
6.79
8.79
10.80
12.69
14.33
15.61
16.52
17.16
17.69
18.28
19.01
19.79
20.34
20.25
19.13
16.65
12.74
7.55
1.51
-4.85
-10.88
-15.99
-19.73
-21.85
-22.38
-21.55
-19.76
-17.46
-15.09
-12.96
-11.27
-10.12
-9.52
-9.37
-9.50
-9.71
-9.81
-9.69
-9.40
-9.01
-8.65
-8.38
-8.13
-7.82
-7.38
-6.84
-6.30
-5.90
-5.77
-5.94
-6.42
-7.17
-8.17
-9.38
-10.75
-12.23
-13.77
-15.38
-17.10
-18.93
-20.73
-22.18
-22.79
-22.05
-19.63
-15.58
-10.32
-4.57
0.92
5.58
9.14
11.68
13.40
14.51
15.15
15.39
15.29
14.99
14.67
14.46
14.40
14.42
14.38
14.16
13.73
13.06
12.11
10.83
9.17
7.15
4.88
2.52
0.18
-2.18
-4.73
-7.68
-11.13
-14.94
-18.76
-22.10
-24.44
-25.44
-24.92
-22.94
-19.71
-15.58
-10.95
-6.29
-2.00
1.58
4.33
6.28
7.61
8.48
9.01
9.25
9.18
8.85
8.35
7.83
7.42
7.19
7.10
7.08
7.02
6.85
6.51
5.96
5.15
4.06
2.73
1.26
-0.22
-1.66
-3.05
-4.54
-6.31
-8.50
-11.11
-13.91
-16.42
-18.07
-18.26
-16.67
-13.28
-8.47
-2.82
2.99
8.44
13.27
17.40
20.89
23.73
25.85
27.11
27.43
26.93
25.95
24.94
24.30
24.24
24.67
25.26
25.59
25.20
23.74
21.09
17.35
12.87
8.20
3.91
0.46
-1.98
-3.61
-4.90
-6.45
-8.75
-12.05
-16.23
-20.93
-25.61
-29.67
-32.55
-33.75
-32.90
-29.80
-24.53
-17.48
-9.33
-0.97
6.76
13.21
18.07
21.30
23.10
23.71
23.38
22.31
20.67
18.61
16.32
13.99
11.82
10.02
8.72
7.96
7.69
7.73
7.82
7.71
7.25
6.45
5.52
4.74
4.33
4.28
4.36
4.13
3.22
1.45
-1.06
-3.93
-6.65
-8.71
-9.65
-9.08
-6.68
-2.30
3.85
11.14
18.48
24.61
28.48
29.61
28.19
24.94
20.73
16.22
11.65
6.98
2.13
-2.82
-7.56
-11.66
-14.88
-17.24
-19.09
-20.83
-22.69
-24.57
-26.08
-26.71
-26.23
-24.75
-22.88
-21.43
-21.12
-22.36
-25.07
-28.83
-33.06
-37.14
-40.56
-42.89
-43.75
-42.85
-40.11
-35.73
-30.22
-24.25
-18.48
-13.36
-9.06
-5.53
-2.65
-0.32
1.46
2.63
3.14
3.03
2.44
1.62
0.82
0.21
-0.18
-0.49
-0.96
-1.78
-3.07
-4.75
-6.65
-8.57
-10.38
-12.07
-13.71
-15.45
-17.42
-19.70
-22.29
-25.03
-27.58
-29.46
-30.14
-29.17
-26.37
-21.94
-16.39
-10.41
-4.64
0.46
4.70
8.11
10.82
12.92
14.49
15.48
15.89
15.76
15.21
14.47
13.80
13.41
13.37
13.55
13.68
13.45
12.66
11.33
9.67
7.98
6.50
5.31
4.28
3.21
1.87
0.05
-2.39
-5.50
-9.17
-13.02
-16.44
-18.70
-19.15
-17.50
-13.91
-8.98
-3.52
1.60
5.76
8.64
10.28
10.88
10.77
10.22
9.36
8.30
7.09
5.91
5.01
4.63
4.93
5.86
7.17
8.48
9.45
9.81
9.43
8.26
6.32
3.67
0.50
-2.91
-6.16
-8.97
-11.24
-13.15
-14.92
-16.66
-18.15
-18.83
-18.12
-15.66
-11.61
-6.64
-1.67
2.52
5.55
7.51
8.76
9.67
10.42
10.99
11.25
11.16
10.78
10.34
10.03
9.94
10.00
10.03
9.86
9.38
8.67
7.84
7.04
6.29
5.55
4.71
3.67
2.35
0.66
-1.54
-4.41
-8.10
-12.55
-17.41
-21.98
-25.35
-26.69
-25.56
-22.06
-16.83
-10.79
-4.83
0.45
4.86
8.46
11.40
13.77
15.51
16.50
16.68
16.18
15.27
14.30
13.52
12.98
12.55
12.01
11.18
10.06
8.75
7.45
6.26
5.19
4.09
2.80
1.14
-0.99
-3.67
-6.92
-10.66
-14.60
-18.18
-20.68
-21.43
-20.07
-16.69
-11.81
-6.18
-0.52
4.61
8.96
12.45
15.09
16.89
17.83
17.88
17.11
15.72
14.02
12.36
10.99
9.95
9.04
7.93
6.35
4.24
1.84
-0.46
-2.28
-3.45
-4.05
-4.36
-4.75
-5.55
-6.96
-9.05
-11.68
-14.47
-16.81
-17.99
-17.39
-14.70
-10.04
-3.98
2.61
8.81
13.92
17.52
19.56
20.27
19.96
18.99
17.60
15.99
14.29
12.58
10.91
9.26
7.54
5.62
3.37
0.75
-2.18
-5.29
-8.47
-11.65
-14.84
-18.10
-21.47
-24.98
-28.63
-32.38
-36.13
-39.59
-42.29
-43.62
-42.91
-39.72
-33.96
-25.97
-16.46
-6.31
3.60
12.49
19.77
25.06
28.31
29.76
29.90
29.28
28.33
27.26
26.13
24.92
23.70
22.57
21.60
20.71
19.63
18.03
15.73
12.77
9.46
6.23
3.33
0.79
-1.68
-4.51
-8.08
-12.50
-17.47
-22.32
-26.15
-28.16
-27.89
-25.41
-21.24
-16.19
-11.04
-6.35
-2.38
0.83
3.36
5.24
6.46
7.02
6.97
6.46
5.77
5.20
5.00
5.26
5.93
6.77
7.45
7.64
7.19
6.19
4.91
3.77
3.09
2.99
3.32
3.71
3.74
3.07
1.57
-0.68
-3.37
-6.02
-8.06
-8.89
-8.10
-5.55
-1.49
3.48
8.54
12.89
15.91
17.33
17.20
15.81
13.53
10.63
7.24
3.42
-0.73
-4.97
-8.96
-12.31
-14.80
-16.42
-17.47
-18.44
-19.84
-22.08
-25.27
-29.27
-33.73
-38.23
-42.47
-46.37
-50.15
-54.29
-59.34
-65.79
-73.88
-83.48
-93.94
-104.06
-112.13
-116.32
-115.32
-108.92
-98.31
-85.79
-73.94
-64.70
-58.68
-55.17
-52.71
-49.85
-45.73
-40.10
-33.02
-24.50
-14.26
-1.99
12.38
28.41
45.23
61.89
77.64
92.26
105.99
119.28
132.44
145.40
157.60
168.15
176.12
180.80
181.86
179.36
173.67
165.26
154.61
142.16
128.23
113.16
97.28
80.99
64.80
49.28
34.98
22.32
11.49
2.34
-5.63
-13.31
-21.82
-32.27
-45.34
-60.95
-78.07
-94.85
-109.20
-119.33
-124.22
-123.75
-118.50
-109.34
-97.20
-82.93
-67.36
-51.38
-35.91
-21.73
-9.31
1.30
10.35
18.23
25.33
31.90
38.01
43.58
48.43
52.34
55.16
56.77
57.20
56.52
54.86
52.33
49.01
44.95
40.22
34.95
29.36
23.71
18.30
13.36
9.00
5.29
2.22
-0.20
-1.98
-3.15
-3.84
-4.26
-4.67
-5.28
-6.15
-7.17
-8.10
-8.71
-8.91
-8.82
-8.66
-8.66
-8.86
-9.09
-8.99
-8.15
-6.29
-3.29
0.74
5.54
10.73
15.88
20.58
24.43
27.18
28.71
29.09
28.55
27.33
25.71
23.88
22.01
20.29
18.90
17.93
17.41
17.12
16.75
15.94
14.45
12.21
9.38
6.22
2.99
-0.16
-3.23
-6.30
-9.49
-12.81
-16.12
-19.06
-21.19
-22.07
-21.44
-19.33
-16.08
-12.23
-8.35
-4.88
-2.03
0.20
1.93
3.24
4.17
4.72
4.92
4.90
4.83
4.90
5.19
5.68
6.20
6.59
6.74
6.72
6.67
6.78
7.10
7.57
7.98
8.09
7.68
6.57
4.66
1.89
-1.64
-5.66
-9.66
-12.94
-14.84
-14.94
-13.29
-10.41
-7.14
-4.39
-2.80
-2.69
-3.93
-6.06
-8.50
-10.69
-12.24
-12.99
-13.01
-12.45
-11.52
-10.46
-9.48
-8.87
-8.99
-10.21
-12.82
-16.90
-22.27
-28.55
-35.24
-41.78
-47.68
-52.56
-56.18
-58.49
-59.70
-60.17
-60.34
-60.52
-60.73
-60.68
-59.83
-57.66
-53.80
-48.20
-41.16
-33.25
-25.17
-17.55
-10.83
-5.21
-0.59
3.22
6.44
9.17
11.41
13.11
14.21
14.74
14.64
13.83
12.12
9.35
5.55
0.98
-3.88
-8.59
-12.85
-16.65
-20.11
-23.39
-26.53
-29.46
-32.11
-34.49
-36.62
-38.50
-39.92
-40.48
-39.71
-37.25
-33.10
-27.64
-21.57
-15.68
-10.67
-6.95
-4.62
-3.50
-3.19
-3.15
-2.79
-1.61
0.65
3.96
7.90
11.86
15.19
17.37
18.20
17.72
16.13
13.73
10.79
7.59
4.40
1.57
-0.60
-1.85
-2.06
-1.28
0.33
2.58
5.29
8.35
11.64
15.04
18.26
20.88
22.44
22.56
21.12
18.35
14.74
10.89
7.26
3.96
0.78
-2.70
-6.95
-12.23
-18.54
-25.61
-32.95
-39.90
-45.71
-49.60
-51.00
-49.74
-46.25
-41.41
-36.31
-31.72
-27.83
-24.20
-20.04
-14.65
-7.77
0.47
9.71
19.66
30.23
41.43
53.12
64.88
76.03
85.92
94.13
100.53
105.32
108.85
111.44
113.23
114.21
114.26
113.45
111.98
110.14
108.20
106.41
104.83
103.37
101.78
99.78
97.38
94.70
91.89
89.12
86.55
84.32
82.56
81.29
80.49
80.54
81.52
83.03
84.43
85.29
85.63
85.81
86.24
87.09
89.12
92.33
95.88
98.56
99.82
100.09
100.44
101.85
104.58
109.38
115.15
118.77
116.28
105.19
85.83
61.21
35.83
14.00
0.55
-2.82
1.82
10.01
17.35
21.05
19.75
12.87
-11.97
-58.02
-117.33
-175.21
-220.30
-249.21
-263.98
-268.25
-264.88
-255.23
-237.64
-211.51
-178.95
-144.65
-113.68
-89.46
-73.19
-63.96
-59.67
-56.21
-50.70
-42.59
-33.00
-23.69
-15.40
-8.02
-1.26
4.65
10.07
14.46
16.59
15.22
10.17
2.71
-5.04
-10.96
-13.94
-13.30
-9.60
-4.27
0.99
4.86
6.64
5.96
4.43
2.65
1.15
0.04
-0.74
-1.27
-1.52
-1.44
