1553885926.00
64.000000
-0.00
-0.00
-0.00
-0.00
-0.00
-0.00
-0.00
-0.00
-0.00
-0.01
-0.00
0.00
0.01
0.01
-0.00
-0.03
-0.05
-0.05
-0.00
0.13
0.36
0.66
1.01
1.37
1.72
2.06
2.40
2.77
3.24
3.80
4.42
5.06
5.66
6.20
6.68
7.15
7.64
8.31
9.14
10.09
11.04
11.88
12.56
13.14
13.76
14.58
15.96
17.91
20.32
22.90
25.38
27.58
29.57
31.68
34.20
37.82
42.54
48.14
54.10
59.83
64.99
69.63
74.20
79.22
85.67
93.61
102.69
112.16
121.15
129.11
136.07
143.62
149.90
157.05
165.82
176.98
190.69
205.77
219.34
227.06
224.22
207.22
175.58
131.20
78.14
20.81
-37.44
-94.99
-151.63
-207.60
-262.93
-316.57
-367.45
-414.39
-456.45
-492.76
-522.28
-543.68
-555.49
-556.42
-545.49
-522.79
-489.22
-446.40
-396.46
-341.70
-284.46
-226.93
-171.08
-118.39
-69.99
-26.49
11.95
45.41
74.08
98.06
117.37
132.00
142.00
147.42
148.29
144.91
138.27
130.41
124.33
123.19
129.04
141.68
158.45
175.12
187.63
193.54
192.73
186.79
177.80
167.30
155.90
143.69
130.85
118.07
106.34
96.37
88.21
81.22
74.38
66.82
58.44
49.55
40.95
33.51
27.75
23.67
20.79
18.40
15.88
12.98
9.77
6.64
3.98
1.99
0.65
-0.27
-1.06
-1.95
-3.00
-4.07
-4.95
-5.35
-5.16
-4.45
-3.48
-2.62
-2.15
-2.24
-2.85
-3.80
-4.78
-5.45
-5.52
-4.86
-3.55
-1.97
-0.60
0.13
0.05
-0.65
-1.56
-2.28
-2.62
-2.64
-2.54
-2.51
-2.59
-2.71
-2.74
-2.63
-2.46
-2.34
-2.38
-2.59
-2.94
-3.31
-3.62
-3.80
-3.85
-3.79
-3.69
-3.62
-3.60
-3.56
-3.36
-2.91
-2.20
-1.33
-0.50
0.15
0.54
0.74
0.91
1.17
1.57
2.08
2.62
3.17
3.75
4.40
5.10
5.77
6.33
6.72
6.96
7.12
7.29
7.48
7.64
7.65
7.37
6.70
5.61
4.08
2.16
0.02
-2.16
-4.19
-5.96
-7.41
-8.58
-9.45
-9.98
-10.10
-9.79
-9.14
-8.41
-7.82
-7.53
-7.55
-7.73
-7.89
-7.91
-7.73
-7.38
-6.90
-6.31
-5.60
-4.82
-4.09
-3.58
-3.36
-3.39
-3.44
-3.25
-2.69
-1.79
-0.78
0.05
0.45
0.39
-0.02
-0.57
-1.00
-1.18
-1.03
-0.58
0.10
0.90
1.71
2.41
2.89
3.05
2.81
2.11
0.98
-0.39
-1.69
-2.57
-2.86
-2.62
-2.17
-1.87
-1.92
-2.20
-2.39
-2.07
-1.01
0.71
2.77
4.70
6.12
6.76
6.51
5.34
3.34
0.73
-2.11
-4.70
-6.64
-7.68
-7.89
-7.53
-7.00
-6.59
-6.47
-6.63
-6.96
-7.38
-7.82
-8.23
-8.54
-8.61
-8.27
-7.39
-5.93
-3.94
-1.52
1.22
4.17
7.21
10.07
12.44
13.97
14.46
13.96
12.73
11.14
9.45
7.78
6.11
4.40
2.71
1.21
0.10
-0.55
-0.86
-1.06
-1.43
-2.12
-3.14
-4.37
-5.65
-6.85
-7.87
-8.60
-8.99
-9.00
-8.69
-8.18
-7.63
-7.16
-6.75
-6.24
-5.43
-4.17
-2.47
-0.51
1.37
2.86
3.70
3.79
3.17
2.03
0.61
-0.82
-1.99
-2.73
-2.97
-2.74
-2.13
-1.27
-0.27
0.81
1.89
2.94
3.88
4.61
5.07
5.23
5.08
4.71
4.19
3.61
3.10
2.76
2.68
2.89
3.36
3.93
4.42
4.63
4.38
3.57
2.22
0.42
-1.63
-3.74
-5.74
-7.52
-9.10
-10.53
-11.87
-13.10
-14.12
-14.75
-14.83
-14.25
-13.02
-11.26
-9.21
-7.12
-5.27
-3.88
-3.14
-3.10
-3.71
-4.76
-5.93
-6.85
-7.21
-6.78
-5.49
-3.38
-0.68
2.35
5.38
8.09
10.29
11.87
12.84
13.26
13.20
12.75
12.00
11.10
10.22
9.56
9.16
8.98
8.82
8.47
7.83
6.91
5.85
4.80
3.82
2.88
1.86
0.65
-0.76
-2.25
-3.67
-4.86
-5.75
-6.40
-6.94
-7.52
-8.24
-9.11
-10.09
-11.07
-11.93
-12.53
-12.70
-12.23
-10.96
-8.81
-5.89
-2.43
1.24
4.81
8.07
10.88
13.20
14.99
16.23
16.91
17.10
16.91
16.53
16.15
15.87
15.74
15.68
15.55
15.25
14.70
13.94
13.09
12.26
11.56
11.01
10.57
10.14
9.69
9.21
8.76
8.45
8.29
8.23
8.09
7.68
6.89
5.75
4.47
3.30
2.46
2.00
1.82
1.73
1.52
1.10
0.45
-0.37
-1.29
-2.23
-3.12
-3.89
-4.47
-4.85
-5.08
-5.30
-5.67
-6.32
-7.25
-8.33
-9.29
-9.83
-9.71
-8.82
-7.24
-5.18
-2.90
-0.65
1.35
2.93
3.98
4.48
4.48
4.15
3.68
3.26
3.00
2.89
2.90
2.96
3.00
3.03
3.06
3.10
3.15
3.21
3.25
3.23
3.11
2.86
2.50
2.05
1.56
1.08
0.59
0.06
-0.53
-1.18
-1.83
-2.45
-3.03
-3.59
-4.19
-4.88
-5.63
-6.40
-7.12
-7.79
-8.47
-9.26
-10.18
-11.16
-11.98
-12.40
-12.20
-11.29
-9.77
-7.83
-5.74
-3.73
-1.93
-0.44
0.76
1.66
2.28
2.61
2.65
2.45
2.07
1.62
1.24
1.06
1.16
1.48
1.86
2.11
2.07
1.71
1.14
0.55
0.10
-0.17
-0.36
-0.66
-1.18
-1.95
-2.84
-3.64
-4.21
-4.54
-4.75
-5.05
-5.58
-6.39
-7.44
-8.58
-9.68
-10.59
-11.16
-11.24
-10.68
-9.45
-7.60
-5.36
-3.00
-0.82
1.00
2.34
3.21
3.68
3.84
3.87
3.93
4.18
4.66
5.31
5.99
6.52
6.80
6.81
6.58
6.23
5.84
5.51
5.29
5.18
5.13
5.04
4.81
4.37
3.70
2.84
1.88
0.92
0.04
-0.70
-1.33
-1.90
-2.49
-3.20
-4.09
-5.14
-6.27
-7.27
-7.91
-7.98
-7.33
-6.00
-4.20
-2.21
-0.37
1.12
2.16
2.81
3.19
3.41
3.59
3.78
4.02
4.34
4.68
4.98
5.13
5.11
4.93
4.69
4.47
4.31
4.17
4.00
3.75
3.44
3.06
2.67
2.26
1.82
1.32
0.75
0.12
-0.57
-1.30
-2.01
-2.68
-3.28
-3.80
-4.24
-4.63
-5.02
-5.47
-6.07
-6.89
-7.96
-9.20
-10.36
-11.08
-11.06
-10.14
-8.44
-6.30
-4.14
-2.26
-0.78
0.38
1.35
2.20
2.92
3.44
3.71
3.80
3.87
4.04
4.36
4.76
5.08
5.21
5.18
5.12
5.18
5.46
5.92
6.40
6.72
6.77
6.53
6.08
5.51
4.90
4.31
3.81
3.46
3.27
3.22
3.23
3.19
3.05
2.81
2.52
2.24
2.00
1.75
1.44
0.99
0.40
-0.28
-0.97
-1.57
-2.03
-2.36
-2.67
-3.08
-3.67
-4.44
-5.32
-6.20
-7.00
-7.70
-8.29
-8.79
-9.20
-9.54
-9.91
-10.43
-11.23
-12.30
-13.50
-14.50
-14.95
-14.57
-13.26
-11.13
-8.44
-5.55
-2.80
-0.46
1.32
2.52
3.21
3.55
3.70
3.83
4.02
4.34
4.81
5.40
6.08
6.76
7.36
7.81
8.08
8.16
8.10
7.96
7.78
7.61
7.49
7.41
7.35
7.22
6.95
6.49
5.91
5.32
4.85
4.55
4.38
4.23
4.02
3.71
3.34
2.97
2.60
2.19
1.69
1.09
0.43
-0.20
-0.73
-1.17
-1.61
-2.08
-2.63
-3.22
-3.79
-4.32
-4.81
-5.33
-5.91
-6.53
-7.13
-7.64
-8.04
-8.35
-8.68
-9.13
-9.80
-10.72
-11.77
-12.79
-13.54
-13.77
-13.32
-12.13
-10.27
-7.90
-5.26
-2.64
-0.29
1.58
2.87
3.64
4.03
4.24
4.40
4.62
4.91
5.26
5.68
6.19
6.78
7.36
7.76
7.82
7.48
6.85
6.13
5.56
5.28
5.27
5.41
5.51
5.43
5.09
4.52
3.79
2.99
2.19
1.44
0.74
0.09
-0.49
-0.96
-1.32
-1.60
-1.86
-2.20
-2.73
-3.44
-4.26
-5.02
-5.58
-5.93
-6.22
-6.65
-7.39
-8.48
-9.85
-11.32
-12.66
-13.77
-14.67
-15.47
-16.26
-17.03
-17.73
-18.33
-18.81
-19.13
-19.29
-19.34
-19.17
-18.40
-16.45
-12.81
-7.40
-0.58
7.06
14.57
20.86
25.12
27.37
28.41
29.35
31.06
33.85
37.78
42.16
45.88
47.96
48.30
47.63
46.82
46.42
46.66
48.33
52.25
58.80
67.49
76.75
83.60
83.89
73.45
47.50
7.73
-36.98
-75.30
-99.87
-109.63
-107.77
-99.03
-87.81
-77.29
-68.94
-63.71
-62.68
-66.26
-72.69
-77.38
-73.94
-56.52
-23.21
22.09
69.33
105.41
119.72
109.09
78.98
40.41
4.64
-21.38
-36.39
-43.41
-46.72
-48.91
-50.13
-49.19
-45.76
-41.25
-38.33
-40.01
-47.03
-58.51
-71.99
-84.05
-91.09
-90.30
-80.32
-61.65
-36.57
-8.47
18.93
42.69
61.17
74.10
81.89
85.21
84.69
81.11
75.93
71.50
70.41
74.32
82.74
92.61
99.22
97.97
86.44
66.03
41.77
20.36
7.67
6.34
14.95
28.79
41.75
48.60
45.03
30.28
7.23
-18.70
-41.43
-56.08
-60.17
-53.83
-39.11
-19.05
3.29
25.07
43.69
56.94
63.50
63.55
58.94
52.66
47.63
45.82
47.87
53.35
61.11
69.95
78.96
87.56
95.15
100.71
102.66
99.57
90.40
74.25
50.47
18.70
-20.92
-67.64
-119.89
-175.37
-230.11
-279.34
-319.15
-347.74
-365.22
-372.66
-370.85
-359.55
-338.24
-305.48
-260.46
-204.63
-142.05
-78.03
-17.33
37.02
87.49
130.15
160.08
176.58
183.94
187.66
191.22
194.80
195.57
188.96
172.27
142.39
99.82
48.66
-4.77
-53.06
-89.45
-110.02
-115.28
-110.95
-100.01
-87.41
-76.61
-68.04
-58.82
-44.52
-21.94
10.11
45.66
75.25
92.14
96.63
93.80
88.98
84.87
81.06
75.84
67.75
57.47
47.29
39.91
36.58
36.79
38.64
39.87
38.99
35.60
31.05
27.69
27.57
30.89
35.54
39.00
37.54
29.54
16.14
0.94
-11.81
-19.21
-21.05
-19.46
-17.46
-17.42
-19.89
-24.14
-28.86
-33.14
-36.75
-39.80
-42.24
-43.75
-44.25
-44.11
-44.58
-47.15
-52.70
-60.76
-69.67
-76.32
-77.41
-70.77
-56.15
-35.49
-12.12
10.16
28.19
40.22
46.39
48.32
48.32
48.53
50.11
53.40
57.86
62.59
66.81
70.13
72.52
73.93
74.12
72.66
69.82
66.22
62.62
59.59
57.41
56.16
55.82
56.28
57.38
59.62
63.36
68.55
74.66
81.09
87.45
93.38
97.94
94.77
78.64
47.83
6.05
-39.41
-81.11
-113.96
-135.94
-147.78
-151.84
-150.20
-144.57
-136.15
-126.33
-116.73
-109.22
-105.37
-105.75
-109.02
-111.12
-106.73
-91.37
-63.88
-27.44
10.85
42.45
60.70
63.55
54.44
40.19
27.63
20.79
20.53
25.53
34.05
44.86
56.92
68.64
77.26
80.24
74.80
60.94
41.56
21.31
4.75
-5.44
-9.11
-8.12
-5.24
-3.16
-3.43
-6.35
-11.11
-16.25
-20.15
-21.58
-20.09
-16.10
-10.69
-5.04
-0.17
3.19
4.76
4.66
3.33
1.36
-0.69
-2.51
-3.94
-5.05
-6.06
-7.09
-7.98
-8.43
-8.27
-7.61
-6.84
-6.38
-6.36
-7.00
-8.45
-10.58
-13.22
-16.28
-19.71
-23.25
-26.33
-28.28
-28.70
-27.51
-24.65
-20.27
-14.81
-8.95
-3.28
1.83
6.12
9.19
10.78
11.36
11.99
13.84
17.72
23.86
31.87
40.62
48.51
51.57
47.19
36.22
22.21
8.29
-3.94
-13.69
-20.33
-23.42
-23.01
-19.60
-14.93
-10.69
-8.80
-10.51
-15.65
-22.83
-29.99
-35.03
-36.41
-33.93
-28.97
-23.09
-18.46
-16.21
-15.57
-14.79
-11.34
-2.93
11.09
29.38
48.93
65.98
77.27
80.59
75.19
62.13
44.07
24.51
6.78
-6.93
-16.03
-21.10
-23.35
-23.98
-23.84
-23.35
-22.71
-22.06
-21.54
-21.48
-21.62
-21.48
-20.59
-18.75
-16.11
-13.15
-10.49
-8.56
-7.68
-7.73
-8.32
-9.01
-9.49
-9.63
-9.43
-8.95
-8.17
-7.11
-5.60
-3.26
0.18
4.78
10.36
16.63
22.71
28.07
32.41
34.67
34.49
32.11
28.17
23.32
18.00
12.56
8.21
4.83
2.30
0.64
-0.32
-0.70
-0.47
0.26
1.65
3.74
5.98
7.42
7.09
4.20
-1.30
-8.64
-16.56
-23.73
-29.27
-32.90
-34.65
-34.60
-32.98
-30.04
-26.40
-23.03
-20.97
-20.82
-22.28
-24.24
-25.45
-25.33
-23.94
-22.00
-20.39
-19.53
-18.91
-16.99
-12.15
-3.73
7.30
19.40
30.64
39.33
44.54
46.47
46.85
47.69
50.20
53.85
58.10
62.39
66.25
69.48
72.25
75.76
80.87
87.48
93.85
99.11
103.00
105.51
106.45
100.89
86.54
65.59
46.59
30.35
15.77
2.27
-9.25
-17.64
-21.97
-20.99
-14.26
-2.77
9.58
19.43
24.42
23.30
15.98
3.92
-9.25
-19.28
-23.13
-22.25
-18.41
-12.25
-3.45
7.97
20.61
32.21
39.82
40.74
30.27
7.58
-23.62
-57.70
-90.54
-120.92
-148.73
-173.71
-195.38
-217.91
-244.71
-276.42
-311.15
-345.66
-376.26
-398.44
-408.25
-378.28
-299.97
-189.69
-76.91
17.27
87.66
138.15
174.95
202.57
222.76
231.14
224.13
202.17
169.02
131.26
92.63
57.04
28.37
9.69
-0.56
-4.63
-0.73
9.72
23.87
38.22
50.37
59.12
64.33
64.47
59.23
50.48
41.25
34.37
31.09
31.24
33.34
35.51
35.31
31.74
25.66
18.84
13.13
9.43
7.83
7.85
8.82
9.91
10.63
10.65
9.98
8.97
7.93
7.11
6.58
6.25
5.95
5.46
4.71
3.85
3.39
3.99
6.16
9.92
14.72
19.61
23.61
25.95
26.33
24.88
22.01
18.27
14.23
10.49
7.60
5.96
5.68
6.53
7.98
9.38
10.23
10.34
9.75
8.71
7.48
6.24
5.11
4.12
3.28
2.59
2.06
1.63
1.23
0.78
0.21
-0.45
-1.15
-1.77
-2.24
-2.56
-2.80
-3.09
-3.54
-4.19
-5.01
-5.87
-6.64
-7.16
-7.36
-7.20
-6.75
-6.10
-5.37
-4.64
-3.95
-3.30
-2.68
-2.11
-1.66
-1.37
-1.24
-1.23
-1.25
-1.26
-1.26
-1.35
-1.59
-1.96
-2.35
-2.59
-2.52
-2.17
-1.67
-1.26
-1.13
-1.30
-1.68
-2.06
-2.29
-2.37
-2.41
-2.61
-3.13
-3.98
-5.08
-6.25
-7.36
-8.41
-9.50
-10.79
-12.40
-14.32
-16.39
-18.37
-20.00
-21.03
-21.29
-20.69
-19.25
-17.15
-14.63
-12.03
-9.64
-7.63
-6.06
-4.84
-3.84
-2.93
-2.03
-1.11
-0.17
0.79
1.75
2.69
3.58
4.37
5.02
5.52
5.87
6.09
6.25
6.39
6.52
6.62
6.68
6.69
6.68
6.63
6.43
6.04
5.45
4.73
4.03
3.55
3.40
3.60
3.92
4.09
3.98
3.65
3.25
2.96
2.87
2.93
2.98
2.51
1.25
-0.63
-2.63
-4.24
-5.20
-5.55
-5.56
-5.53
-6.25
-8.04
-10.50
-12.83
-14.48
-15.39
-15.87
-16.33
-17.04
-18.96
-22.40
-26.75
-30.87
-33.96
-35.98
-37.37
-38.79
-40.81
-45.02
-52.25
-61.90
-72.37
-82.06
-89.86
-95.10
-97.36
-89.16
-68.06
-38.61
-9.12
14.61
31.44
43.25
52.87
62.76
74.20
85.99
96.43
104.70
110.98
115.54
117.94
116.90
110.63
97.87
77.98
52.84
26.83
5.14
-8.67
-14.08
-13.18
-9.41
-5.78
-4.44
-5.75
-8.61
-11.40
-13.00
-13.14
-11.41
-7.66
-1.90
4.89
10.74
13.18
9.89
-0.36
-16.83
-36.47
-54.85
-67.48
-71.67
-67.47
-57.33
-44.96
-33.51
-24.34
-16.90
-9.79
-1.86
6.88
15.39
22.47
27.59
31.05
33.34
34.34
33.10
28.76
21.63
13.74
8.11
7.07
10.84
17.40
23.47
26.35
25.16
21.14
16.20
12.09
9.39
7.65
6.08
4.20
2.18
0.54
-0.33
-0.51
-0.40
-0.67
-1.74
-3.55
-5.60
-7.12
-7.46
-6.40
-4.34
-2.11
-0.69
-0.67
-1.94
-3.74
-5.09
-5.28
-4.23
-2.45
-0.72
0.30
0.39
-0.11
-0.59
-0.57
0.07
1.14
2.32
3.34
3.90
3.94
3.68
3.57
4.00
5.10
6.79
8.81
10.88
12.53
13.35
13.21
12.17
10.16
7.16
3.69
1.15
1.41
5.89
13.93
22.54
27.37
24.32
11.38
-10.26
-36.29
-60.36
-78.44
-90.53
-97.73
-98.54
-89.52
-68.60
-38.18
-5.28
21.46
36.23
39.61
36.03
31.75
31.21
35.14
41.01
45.28
45.58
41.71
35.39
27.77
20.73
15.42
12.02
9.97
8.60
7.35
5.70
2.85
-2.11
-9.12
-17.29
-25.12
-30.94
-33.39
-31.79
-26.28
-18.21
-9.97
-3.63
-0.37
-0.32
-2.52
-5.13
-6.20
-4.28
0.54
6.63
12.74
18.61
23.96
27.53
27.14
21.45
12.19
3.74
1.00
6.90
20.09
33.99
39.53
29.90
3.28
-31.02
-56.30
-61.84
-49.77
-29.72
-11.12
1.02
6.12
6.17
3.72
-0.10
-5.83
-14.08
-24.18
-35.54
-46.84
-56.96
-64.70
-69.08
-70.73
-72.50
-77.52
-86.32
-96.20
-102.02
-98.94
-85.01
-62.44
-37.07
-14.82
-1.22
3.92
6.74
15.97
38.02
73.35
115.96
155.72
182.35
188.74
172.83
136.38
83.41
19.41
-48.34
-110.47
-156.64
-178.03
-170.27
-134.79
-78.79
-12.98
51.71
106.88
147.80
173.00
183.13
179.80
165.33
142.39
114.07
83.50
53.66
26.96
5.12
-10.91
-20.69
-23.82
-19.93
-9.00
8.30
30.32
54.87
79.63
102.49
121.37
133.77
136.55
126.82
103.63
69.58
30.88
-4.54
-29.88
-41.69
-40.45
-29.46
-13.12
4.29
19.05
27.96
28.75
20.87
6.20
-11.14
-26.05
-34.34
-34.14
-26.46
-14.92
-5.00
-3.05
-14.65
-42.48
-84.24
-132.12
-174.84
-201.69
-206.90
-191.87
-164.15
-133.81
-109.08
-93.72
-87.04
-85.81
-86.53
-86.75
-85.01
-80.34
-71.93
-59.35
-43.20
-25.41
-8.76
3.94
10.87
11.70
7.50
0.17
-8.18
-15.65
-20.75
-22.45
-20.24
-14.22
-5.07
6.00
17.57
28.31
37.22
43.70
47.40
47.96
45.10
38.84
29.84
19.59
10.23
3.90
1.98
4.42
9.68
15.26
18.62
18.11
13.53
6.12
-2.09
-9.09
-13.74
-16.03
-17.02
-18.26
-21.22
-26.75
-34.83
-44.35
-53.11
-58.19
-56.62
-46.42
-27.69
-3.00
23.15
45.73
61.04
67.88
67.65
63.35
58.01
53.53
50.35
47.99
45.90
44.06
42.98
43.21
44.79
47.02
48.75
48.95
47.14
43.62
39.26
35.02
31.52
28.79
26.39
23.73
20.56
17.13
14.19
12.62
13.04
15.48
19.24
23.10
25.81
26.55
25.20
22.35
19.02
16.20
14.54
13.84
13.29
11.97
9.31
5.39
0.85
-3.31
-6.18
-7.18
-6.71
-5.93
-6.07
-7.88
-11.48
-16.19
-20.65
-23.05
-21.54
-15.58
-6.01
5.55
17.38
28.00
36.51
42.72
46.94
49.76
50.73
48.54
41.90
30.08
13.14
-8.18
-32.10
-57.63
-79.13
-90.37
-89.62
-80.18
-67.05
-54.42
-45.02
-40.22
-40.15
-43.33
-47.45
-49.52
-46.48
-36.41
-19.96
-0.27
18.63
33.93
45.23
53.35
58.95
61.72
60.31
53.28
40.40
23.58
6.41
-7.34
-15.52
-18.44
-17.95
-16.58
-16.29
-17.46
-18.85
-18.18
-13.18
-3.26
9.62
21.27
26.69
22.54
8.53
-11.55
-31.25
-44.12
-46.83
-40.52
-29.75
-19.69
-13.32
-10.42
-8.41
-4.57
1.96
9.81
16.31
19.29
18.35
14.87
10.72
7.11
4.10
0.84
-3.69
-9.62
-16.07
-21.52
-24.41
-23.85
-20.03
-14.04
-7.37
-1.51
2.47
3.85
2.27
-2.38
-9.91
-19.63
-30.21
-39.70
-46.40
-48.79
-46.53
-40.52
-32.50
-24.25
-16.92
-10.62
-4.46
2.41
10.04
17.49
23.44
27.06
28.40
28.43
28.56
30.42
34.68
40.63
46.33
49.54
49.01
44.80
38.25
29.30
19.95
13.56
13.13
19.41
30.51
43.31
54.20
60.00
58.80
50.87
38.19
23.55
10.52
-0.26
-8.59
-14.85
-19.71
-23.66
-26.57
-28.22
-28.94
-29.61
-31.64
-35.38
-39.74
-42.33
-40.79
-34.49
-24.50
-13.70
-5.47
-2.15
-3.42
-7.07
-10.20
-10.78
-8.49
-4.43
-0.42
1.87
1.66
-0.25
-2.38
-2.97
-0.80
4.20
11.20
18.15
21.82
18.53
4.63
-21.15
-55.61
-91.85
-123.05
-144.11
-152.70
-148.52
-135.75
-114.35
-84.31
-47.77
-9.36
24.33
48.98
63.66
68.69
66.92
62.67
60.14
61.79
68.01
76.65
86.27
95.83
104.42
110.86
109.07
95.73
72.66
51.82
36.51
26.88
19.95
14.20
8.94
4.41
2.19
3.82
9.75
17.96
26.67
34.24
39.59
42.05
41.25
37.92
33.07
27.50
20.81
13.18
5.09
-2.73
-9.58
-15.11
-18.57
-19.26
-17.07
-13.39
-9.92
-8.56
-10.92
-17.87
-29.90
-45.92
-63.45
-79.48
-91.59
-98.23
-98.89
-93.94
-80.29
-57.94
-31.06
-6.83
8.29
11.20
3.09
-11.06
-25.01
-33.48
-34.36
-28.61
-19.35
-10.02
-3.03
0.82
2.57
3.55
5.36
8.66
13.31
18.79
24.48
29.36
31.92
30.86
25.90
18.68
11.89
8.17
9.10
14.45
21.99
28.39
30.78
27.21
18.85
9.94
4.94
5.31
9.09
12.61
12.95
9.47
3.77
-1.36
-3.78
-3.34
-1.13
1.70
4.16
5.62
6.02
6.08
7.12
10.23
15.70
22.77
30.15
35.48
35.95
29.26
14.76
-6.56
-32.97
-62.51
-92.66
-116.29
-124.46
-112.64
-85.47
-54.14
-29.49
-16.85
-14.54
-15.98
-13.97
-5.62
6.40
16.31
19.76
16.83
11.39
7.93
9.05
14.28
20.37
23.47
21.49
15.49
8.79
4.79
5.62
11.55
21.32
32.06
41.01
46.20
47.02
44.05
38.41
31.45
24.36
17.91
12.34
7.52
3.44
0.45
-0.69
0.21
2.74
6.07
9.01
10.36
9.44
6.12
0.90
-5.38
-11.54
-16.14
-17.81
-16.01
-11.56
-6.68
-4.27
-5.98
-11.47
-18.29
-23.11
-23.46
-19.22
-12.27
-5.35
-0.51
1.64
1.41
-0.89
-5.40
-12.08
-19.37
-23.59
-20.85
-9.62
7.60
24.97
36.03
37.08
29.54
16.98
3.77
-6.86
-13.65
-16.83
-17.01
-14.50
-9.30
-1.76
6.86
14.68
19.80
20.92
17.57
10.79
2.62
-4.80
-9.92
-12.35
-12.53
-11.51
-10.50
-10.45
-11.80
-14.43
-17.81
-21.20
-23.96
-25.57
-25.83
-24.84
-22.88
-20.18
-16.92
-13.22
-9.14
-4.75
-0.11
4.73
9.63
14.32
18.46
21.66
23.68
24.50
24.34
23.61
22.74
21.95
21.29
20.66
19.92
18.98
17.85
16.59
15.22
13.67
11.76
9.27
6.09
2.29
-1.82
-5.77
-9.04
-11.24
-12.19
-11.89
-10.53
-8.38
-5.87
-3.50
-1.74
-0.93
-1.06
-1.86
-2.86
-3.64
-3.93
-3.69
-3.05
-2.16
-1.07
0.30
2.06
4.27
6.94
10.01
13.34
16.61
19.40
21.26
21.91
21.37
19.96
18.28
17.10
17.08
18.51
21.26
24.83
28.54
31.65
33.33
33.17
31.35
28.55
25.51
22.71
20.24
17.93
15.48
12.20
7.77
2.53
-2.92
-8.30
-13.75
-19.62
-26.12
-33.04
-40.56
-48.40
-55.50
-60.69
-63.39
-63.81
-62.60
-60.49
-58.20
-57.44
-59.52
-64.47
-71.29
-78.49
-84.34
-86.82
-83.89
-68.26
-38.21
0.41
37.98
67.20
85.47
93.39
92.90
86.22
75.60
62.85
48.91
36.04
26.92
23.08
24.12
28.14
32.74
35.82
35.27
30.34
21.71
10.92
-0.47
-11.23
-20.31
-26.81
-30.10
-30.55
-28.86
-25.39
-20.49
-15.15
-11.18
-10.65
-15.00
-24.12
-36.53
-49.53
-59.82
-64.86
-63.54
-56.04
-43.14
-25.90
-5.61
15.56
34.82
49.77
58.88
61.84
59.21
51.63
38.45
19.66
-4.13
-32.48
-62.15
-87.84
-103.82
-106.10
-93.93
-70.02
-39.20
-6.82
23.09
48.72
69.68
85.84
96.59
100.87
98.09
89.11
76.35
63.21
52.91
47.11
45.34
45.66
46.04
45.39
43.92
42.09
39.65
35.30
27.14
14.00
-3.37
-22.25
-39.15
-51.43
-58.56
-61.98
-63.82
-65.47
-66.83
-66.60
-63.40
-56.88
-48.03
-38.80
-31.08
-25.94
-23.35
-22.36
-21.71
-20.29
-17.61
-13.81
-9.44
-5.15
-1.41
1.69
4.42
7.25
10.67
14.90
19.78
24.82
29.36
32.74
34.40
34.08
31.99
28.84
25.72
23.64
23.14
24.10
25.52
25.92
24.04
19.51
13.04
5.86
-1.04
-7.36
-13.24
-19.14
-25.37
-31.91
-38.29
-43.77
-47.58
-49.10
-47.68
-42.31
-32.46
-18.49
-1.92
14.92
29.46
39.33
42.61
38.27
26.18
8.35
-11.35
-29.59
-44.75
-55.60
-60.19
-56.38
-45.72
-28.96
-9.21
9.23
23.07
31.70
37.23
42.72
49.04
55.10
58.70
57.25
50.25
39.95
30.46
24.79
24.45
28.40
33.92
38.13
38.32
33.60
25.47
17.29
13.14
16.14
27.53
46.20
68.54
87.56
96.23
90.50
70.64
40.80
7.36
-22.68
-41.19
-43.09
-31.72
-15.93
-5.35
-6.13
-18.93
-39.04
-58.53
-69.72
-69.07
-62.20
-58.55
-65.70
-86.38
-118.96
-159.16
-201.91
-242.58
-262.26
-250.96
-215.30
-172.47
-134.66
-104.50
-79.67
-57.38
-38.35
-18.24
3.17
26.39
53.90
88.52
129.86
173.82
208.83
223.93
214.30
181.03
133.33
85.18
48.86
29.11
22.31
20.38
17.37
12.50
7.32
4.62
6.06
10.63
15.30
17.28
15.92
13.46
13.41
16.85
22.65
28.41
31.63
31.24
28.14
24.72
23.90
27.56
34.88
43.16
49.22
50.57
46.79
39.83
32.85
28.80
29.27
33.80
40.74
48.35
54.44
58.14
60.38
62.95
67.11
73.24
80.12
86.24
90.20
88.88
80.26
65.28
47.00
28.45
12.33
-1.20
-13.21
-25.78
-44.81
-74.27
-112.00
-150.47
-181.08
-196.22
-194.51
-179.23
-157.56
-142.99
-146.84
-171.84
-213.12
-263.51
-315.30
-365.73
-414.24
-434.06
-411.23
-357.42
-295.81
-237.53
-190.62
-141.15
-84.31
-22.01
41.98
101.03
148.64
185.37
216.30
244.83
271.68
291.91
300.96
297.21
279.10
248.42
211.53
175.94
146.28
125.00
110.68
102.05
98.37
96.57
93.54
88.46
82.54
77.47
75.60
77.44
82.63
89.51
94.35
93.91
87.75
78.16
68.42
61.49
58.00
56.95
56.47
54.57
50.29
44.10
37.01
29.51
21.55
12.58
2.55
-7.87
-17.55
-25.46
-31.11
-34.73
-37.16
-39.48
-42.57
-46.75
-51.53
-55.74
-57.89
-56.79
-52.07
-44.38
-35.31
-26.79
-20.51
-17.44
-17.71
-20.88
-26.37
-33.88
-43.38
-54.87
-67.88
-81.34
-93.75
-103.58
-109.77
-111.92
-110.34
-105.81
-99.45
-92.45
-85.76
-79.85
-74.45
-68.66
-61.33
-51.76
-40.15
-27.53
-15.16
-3.77
6.81
17.37
28.63
40.52
52.11
62.00
69.08
73.03
74.36
74.05
73.00
71.56
69.46
66.08
60.93
54.10
46.34
38.87
32.76
28.47
25.62
23.30
20.55
16.81
12.03
6.57
0.94
-4.33
-8.69
-11.49
-12.09
-10.09
-5.70
0.17
6.14
10.94
13.94
15.22
15.45
15.39
15.51
15.78
15.68
14.52
12.00
8.34
4.32
1.12
-0.02
1.83
6.70
13.32
19.50
23.18
23.26
19.92
14.47
8.72
4.37
2.52
3.16
5.71
9.80
15.19
21.23
26.54
29.22
27.93
22.53
13.75
3.00
-8.18
-19.23
-30.91
-44.55
-60.44
-75.92
-83.28
-75.40
-52.33
-21.00
9.27
31.38
42.55
44.25
41.19
38.58
39.73
45.33
54.03
62.53
66.38
62.49
46.77
18.46
-19.50
-61.69
-101.41
-131.91
-147.84
-145.76
-125.36
-89.93
-45.25
1.23
42.01
71.80
89.26
93.52
87.56
76.20
63.59
52.41
42.92
33.54
22.16
7.59
-9.73
-27.22
-41.70
-51.08
-54.81
-54.04
-50.88
-47.14
-43.54
-40.02
-36.14
-32.43
-30.50
-31.90
-36.97
-44.20
-50.65
-53.37
-50.89
-43.67
-34.11
-25.30
-19.59
-17.68
-18.54
-20.16
-20.66
-19.18
-15.99
-12.36
-9.81
-9.29
-10.73
-13.11
-14.96
-15.14
-13.36
-10.21
-6.82
-4.15
-2.65
-2.06
-1.86
-1.68
-1.56
-1.85
-2.78
-4.20
-5.59
-6.44
-6.57
-6.31
-6.21
-6.70
-7.82
-9.30
-10.89
-12.63
-14.87
-17.98
-21.99
-26.46
-30.57
-33.43
-34.33
-32.86
-28.86
-22.45
-13.96
-3.89
7.20
18.89
30.86
42.89
54.66
65.70
75.32
82.82
87.59
89.33
88.10
84.30
78.62
71.87
64.85
58.19
52.29
47.24
42.87
38.91
35.10
31.28
27.39
23.44
19.47
15.53
11.64
7.82
4.06
0.44
-2.79
-5.29
-6.68
-6.81
-5.84
-4.25
-2.64
-1.53
-1.23
-1.81
-3.23
-5.36
-8.07
-11.13
-14.22
-16.85
-18.54
-18.89
-17.69
-15.04
-11.26
-6.85
-2.40
1.52
4.50
6.31
7.04
6.98
6.52
6.02
5.69
5.60
5.74
6.08
6.56
7.15
7.73
8.19
8.46
8.53
8.51
8.58
8.83
9.27
9.75
10.08
10.05
9.54
8.51
6.99
5.06
2.85
0.49
-1.87
-4.10
-6.05
-7.60
-8.62
-9.06
-8.99
-8.59
-8.19
-8.07
-8.44
-9.32
-10.51
-11.70
-12.52
-12.69
-12.03
-10.50
-8.24
-5.49
-2.63
-0.04
1.98
3.35
4.19
4.74
5.24
5.77
6.22
6.37
6.05
5.28
4.26
3.33
2.83
2.93
3.60
4.65
5.79
6.79
7.48
7.78
7.69
7.27
6.65
5.95
5.22
4.45
3.54
2.40
1.04
-0.39
-1.62
-2.42
-2.72
-2.68
-2.67
-3.07
-4.11
-5.79
-7.88
-10.06
-12.07
-13.81
-15.35
-16.93
-18.88
-21.45
-24.71
-28.42
-31.97
-34.61
-35.58
-34.43
-31.09
-26.01
-20.22
-15.26
-12.92
-14.66
-20.93
-30.73
-41.78
-51.26
-56.90
-57.79
-54.57
-48.81
-42.01
-34.83
-27.01
-18.07
-7.97
2.47
11.96
19.44
24.65
28.17
31.01
34.06
37.45
40.68
43.15
44.66
45.60
46.70
48.45
50.83
53.44
55.48
56.33
56.00
55.21
54.87
55.63
57.43
59.70
61.83
62.97
62.37
59.75
55.29
49.32
42.15
33.92
25.07
16.58
9.24
3.46
-0.49
-2.60
-3.34
-3.14
-2.02
-1.82
-2.19
-1.93
-0.78
-0.03
-1.89
-8.22
-17.90
-30.23
-43.14
-54.09
-61.92
-67.21
-71.14
-73.98
-76.47
-78.94
-81.12
-82.08
-80.94
-77.42
-71.38
-61.51
-46.02
-24.49
1.60
28.77
52.40
67.90
72.19
60.98
36.54
8.33
-14.41
-29.20
-39.46
-49.46
-60.58
-70.57
-75.03
-71.08
-56.67
-33.68
-7.16
17.17
35.14
44.98
47.48
45.33
42.43
39.79
37.65
34.83
30.06
23.09
15.09
8.23
4.62
5.48
10.52
17.85
24.88
29.85
32.47
33.50
33.89
33.79
32.34
28.33
21.01
10.70
-0.82
-10.85
-17.05
-18.30
-15.47
-10.99
-7.32
-5.74
-6.33
-8.27
-10.49
-12.25
-12.98
-12.62
-11.76
-10.58
-8.93
-6.83
-4.83
-3.49
-2.68
-0.72
4.57
13.91
26.61
40.26
50.97
54.62
48.65
30.84
4.46
-22.92
-45.59
-60.80
-67.34
-64.36
-52.32
-34.28
-15.94
-4.29
-2.35
-11.43
-28.53
-47.42
-61.43
-66.28
-61.30
-48.94
-32.93
-14.65
1.89
14.12
21.54
25.07
26.26
26.46
26.65
27.71
30.16
32.93
34.56
33.04
26.31
13.30
-5.20
-26.27
-45.72
-59.87
-67.39
-68.64
-65.16
-58.63
-50.14
-40.07
-28.51
-15.88
-3.32
7.20
14.15
17.08
16.85
15.33
14.59
16.10
20.13
25.62
30.66
33.66
34.06
32.58
30.76
30.10
31.39
34.27
37.56
39.91
40.48
39.25
36.85
34.12
31.71
29.89
28.65
27.81
27.18
26.56
25.74
24.48
22.41
19.15
14.44
8.33
1.33
-5.69
-11.71
-15.92
-18.06
-18.54
-18.40
-18.70
-19.95
-21.69
-22.74
-21.87
-18.61
-13.61
-8.41
-4.64
-3.07
-3.31
-4.02
-3.76
-1.83
1.57
5.39
8.14
8.67
6.59
2.42
-2.69
-7.33
-10.40
-11.02
-9.02
-5.27
-1.40
0.82
0.25
-3.31
-9.07
-15.91
-22.30
-27.07
-30.06
-31.73
-32.79
-33.66
-34.49
-35.19
-35.22
-32.47
-23.30
-5.48
20.60
50.50
76.45
90.01
88.56
72.88
49.13
26.24
11.49
7.53
11.86
19.61
24.39
20.63
8.10
-6.31
-12.78
-4.68
18.20
49.56
79.14
96.02
91.01
61.40
12.84
-43.79
-96.33
-134.05
-149.64
-141.23
-104.64
-52.04
-8.72
6.30
-7.69
-38.27
-70.38
-92.77
-99.67
-89.83
-66.54
-33.58
5.76
46.53
82.33
106.52
114.29
105.45
84.63
57.69
31.75
13.97
8.63
15.33
29.22
43.16
50.10
45.29
26.74
-2.41
-34.33
-59.73
-71.80
-68.63
-53.34
-33.90
-16.26
-5.70
-4.21
-9.62
-16.95
-21.04
-19.08
-11.61
-1.84
6.33
9.90
8.63
4.81
1.53
1.18
3.77
7.39
9.42
8.15
2.99
-5.38
-15.63
-26.36
-36.34
-44.29
-48.61
-47.79
-41.13
-29.90
-17.05
-6.31
-0.86
-2.22
-9.72
-20.84
-32.08
-40.02
-43.00
-42.15
-41.40
-45.96
-59.55
-81.57
-106.20
-124.29
-127.24
-111.48
-80.58
-43.13
-8.11
19.65
41.15
60.66
81.45
103.03
120.98
129.57
126.07
112.75
95.85
82.52
77.05
79.29
86.17
93.51
97.33
95.40
86.48
70.10
47.28
20.57
-5.70
-25.33
-32.59
-24.84
-4.99
18.95
36.22
41.93
39.17
34.20
32.28
38.25
47.01
52.99
52.47
44.92
33.29
22.33
12.32
5.25
2.01
1.64
3.64
8.29
16.79
30.54
49.04
68.71
84.60
91.79
87.61
73.98
55.91
38.99
26.71
18.82
11.88
2.33
-11.74
-29.60
-47.68
-61.79
-68.98
-68.31
-60.70
-48.14
-32.64
-16.67
-3.55
3.22
0.85
-10.87
-28.28
-44.58
-52.48
-47.64
-31.60
-11.67
2.33
2.48
-13.56
-41.66
-73.30
-99.43
-113.93
-115.10
-104.89
-86.98
-65.29
-43.42
-24.69
-11.74
-5.33
-3.36
-1.00
7.27
24.80
50.45
78.63
101.48
111.80
105.59
82.30
43.83
-6.62
-64.83
-125.25
-180.33
-221.51
-242.24
-241.00
-222.59
-196.68
-173.79
-160.65
-157.82
-159.43
-156.23
-140.64
-110.00
-67.25
-19.36
25.67
61.76
85.60
97.79
102.22
103.45
105.29
109.98
117.60
127.02
136.63
144.19
148.05
147.16
139.51
123.13
97.72
65.68
32.21
9.29
3.55
12.17
30.44
50.93
67.03
75.87
78.15
77.51
77.31
77.29
74.43
64.87
45.02
13.14
-24.70
-62.19
-92.06
-109.09
-112.66
-105.32
-91.05
-74.41
-58.79
-45.49
-34.98
-27.22
-22.91
-23.88
-30.63
-40.95
-50.84
-55.80
-52.73
-42.27
-28.61
-18.23
-16.98
-25.97
-40.37
-52.17
-53.88
-41.57
-16.42
17.25
54.95
88.26
108.92
114.33
107.91
95.26
81.79
71.70
67.25
66.95
66.25
58.24
38.78
9.08
-24.08
-50.87
-63.79
-62.61
-55.23
-53.65
-65.87
-93.15
-127.01
-152.79
-156.89
-134.04
-89.79
-36.99
11.15
46.66
67.64
75.25
70.03
51.07
18.86
-21.17
-57.73
-76.54
-66.63
-26.04
37.08
107.38
167.97
205.96
214.73
194.40
151.48
97.60
47.04
13.22
4.61
21.94
58.29
101.52
138.60
159.97
161.29
143.23
110.24
68.80
25.81
-12.48
-42.46
-63.78
-77.64
-85.87
-89.81
-89.98
-87.25
-84.06
-84.43
-89.73
-100.10
-111.58
-117.48
-112.43
-96.07
-72.92
-51.96
-34.98
-21.47
-9.49
3.24
17.46
31.62
42.50
46.75
43.11
33.55
21.44
10.34
2.85
-0.40
-0.72
-0.23
-0.60
-2.01
-3.08
-2.57
0.12
4.65
9.70
13.45
14.36
12.05
7.36
2.16
-2.06
-4.54
-5.31
-5.14
-5.10
-6.10
-8.50
-12.05
-15.97
-19.56
-22.25
-23.67
-23.69
-22.37
-19.96
-16.76
-13.07
-9.18
-5.46
-2.27
0.15
1.68
2.40
2.61
2.68
3.01
3.80
4.98
6.26
7.24
7.65
7.42
6.77
6.06
5.64
5.73
6.26
6.99
7.54
7.60
7.01
5.79
4.12
2.22
0.28
-1.57
-3.23
-4.68
-5.87
-6.80
-7.47
-7.94
-8.38
-9.02
-10.03
-11.51
-13.35
-15.33
-17.21
-18.89
-20.40
-21.84
-23.16
-24.11
-24.19
-22.93
-20.13
-16.06
-11.40
-6.96
-3.38
-0.92
0.56
1.47
2.21
2.99
3.76
4.23
4.06
3.00
0.98
-1.77
-4.85
-7.82
-10.36
-12.38
-14.00
-15.44
-16.97
-18.80
-21.08
-23.93
-27.43
-31.57
-36.24
-41.22
-46.33
-51.48
-56.80
-62.50
-68.73
-75.34
-81.66
-86.57
-88.71
-86.85
-80.31
-69.52
-56.11
-42.65
-31.95
-26.11
-25.75
-29.73
-35.51
-39.99
-40.31
-34.52
-21.81
-2.78
20.67
45.60
68.66
86.91
98.54
103.26
102.12
97.04
90.08
82.98
76.88
72.28
69.15
67.05
65.50
64.22
63.19
62.58
62.50
62.70
62.62
61.79
60.26
58.68
57.84
58.10
59.06
59.74
59.26
57.36
54.62
52.03
50.43
50.01
50.26
50.28
49.26
46.83
43.17
38.86
34.64
31.23
29.05
28.10
27.81
27.16
25.03
20.62
13.90
5.69
-2.56
-9.24
-13.09
-13.47
-10.48
-4.80
2.49
10.13
16.97
22.18
25.49
27.28
28.48
30.20
33.39
38.33
44.51
50.68
55.22
56.62
54.02
47.50
38.03
27.11
16.35
7.17
0.63
-2.49
-1.73
2.89
10.66
19.99
28.64
34.37
35.72
32.59
26.31
18.96
12.40
7.36
3.20
-1.55
-8.21
-17.10
-27.24
-36.78
-43.97
-48.06
-49.74
-50.85
-53.51
-59.02
-67.02
-75.44
-81.32
-82.04
-76.66
-66.61
-55.42
-47.53
-46.61
-54.04
-68.32
-85.55
-100.84
-109.95
-110.59
-102.93
-89.19
-72.67
-56.43
-42.35
-30.87
-21.47
-13.61
-7.48
-4.10
-4.60
-9.24
-16.68
-24.17
-28.62
-28.01
-22.46
-14.07
-5.80
0.12
3.21
4.69
6.53
10.05
15.06
20.02
22.97
22.56
18.72
12.55
5.73
-0.24
-4.54
-7.18
-8.62
-9.28
-9.31
-8.52
-6.59
-3.32
1.18
6.36
11.23
14.96
17.29
18.59
19.56
20.74
22.09
22.88
21.99
18.01
10.52
0.44
-10.42
-20.35
-28.23
-33.57
-36.00
-35.01
-31.12
-24.93
-17.33
-9.89
-4.77
-3.72
-6.85
-12.28
-17.14
-20.88
-24.07
-27.76
-32.79
-39.35
-46.40
-51.89
-53.77
-51.36
-48.17
-48.15
-53.46
-63.52
-76.18
-89.00
-100.73
-112.10
-111.87
-97.08
-73.78
-51.25
-34.42
-23.89
-19.19
-19.85
-23.95
-26.75
-23.96
-11.59
11.80
43.26
75.88
102.37
118.85
126.52
130.03
131.99
132.78
131.34
126.51
118.35
109.09
102.22
101.75
109.20
122.79
138.83
153.23
162.09
161.81
149.97
126.13
91.22
52.71
18.05
-8.60
-26.48
-37.72
-46.58
-54.26
-60.37
-63.42
-62.29
-58.12
-55.44
-58.45
-68.91
-85.07
-102.49
-116.88
-125.29
-127.21
-124.49
-122.03
-123.62
-130.84
-143.05
-158.41
-175.26
-192.02
-206.94
-203.67
-172.75
-113.32
-35.27
45.41
114.02
161.79
187.56
195.90
193.87
185.78
174.32
161.29
148.96
140.36
137.88
141.85
149.19
153.85
147.17
123.00
81.60
30.76
-16.51
-47.32
-53.91
-36.93
-4.89
28.98
53.09
62.01
57.50
46.68
36.22
31.14
32.49
37.91
42.91
42.99
36.19
23.64
8.24
-7.28
-20.71
-31.40
-38.43
-39.48
-31.31
-10.67
22.93
65.42
108.33
142.99
162.96
166.86
158.56
143.40
126.37
110.19
95.16
79.81
65.73
54.13
46.00
46.96
57.21
72.95
87.47
93.49
83.95
60.40
25.51
-15.38
-56.84
-96.29
-133.43
-169.82
-207.39
-250.49
-295.23
-341.80
-390.47
-441.34
-493.98
-545.24
-588.80
-616.59
-625.50
-606.91
-563.32
-501.71
-430.78
-358.02
-287.21
-218.87
-127.72
-55.02
1.70
37.71
51.10
45.40
29.01
12.08
2.52
3.09
7.52
17.50
30.50
46.65
67.47
93.47
122.55
150.72
173.29
183.21
184.07
177.91
167.91
157.14
147.78
140.68
136.61
134.05
125.91
111.33
90.09
64.74
40.40
23.00
17.00
26.78
52.11
84.37
119.71
156.58
193.70
229.31
260.59
284.11
301.77
315.09
319.07
315.47
310.20
307.26
308.24
312.47
317.42
325.34
335.04
334.82
320.65
297.14
270.64
247.79
233.51
192.34
112.81
51.62
19.08
-3.55
-23.05
-44.47
-71.48
-105.56
-145.06
-179.29
-199.27
-208.75
-209.36
-201.05
-187.58
-174.07
-164.69
-161.43
-159.45
-154.93
-152.43
-152.44
-151.61
-148.04
-141.10
-131.30
-119.91
-105.55
-88.11
-72.67
-61.13
-52.31
-45.46
-40.38
-37.19
-35.93
-34.95
-32.86
-31.09
-29.64
-26.97
-21.85
-13.74
-3.02
8.97
20.72
30.21
34.28
31.78
24.54
16.51
12.15
14.73
25.18
41.35
58.56
70.07
70.93
60.74
43.73
26.08
12.76
5.81
3.83
3.23
-1.36
-13.26
-32.29
-55.57
-80.18
-104.55
-127.92
-149.74
-159.32
-149.98
-125.93
-98.50
-75.64
-59.31
-48.41
-40.84
-34.98
-29.66
-26.87
-26.18
-25.88
-23.74
-18.75
-11.62
-3.56
4.62
13.12
21.87
30.64
39.36
47.98
55.92
62.04
65.83
67.27
66.69
63.67
58.00
50.19
41.64
35.12
31.23
30.58
32.97
37.30
41.47
43.58
42.67
39.13
34.18
28.85
24.12
20.36
17.42
14.23
10.96
8.51
8.09
10.59
16.03
23.90
33.17
42.68
51.49
59.15
65.46
70.52
74.59
77.95
80.92
83.58
85.75
87.16
87.83
87.98
88.14
88.77
89.79
90.56
89.83
86.43
79.83
70.61
59.92
49.12
39.04
29.57
19.99
9.48
-2.66
-17.13
-34.88
-57.18
-84.38
-114.76
-144.04
-166.13
-175.36
-169.26
-150.59
-126.97
-108.28
-102.11
-110.18
-127.66
-145.47
-154.65
-150.36
-133.71
-110.75
-89.93
-77.26
-73.71
-76.20
-80.41
-83.46
-84.66
-84.72
-84.43
-85.00
-85.64
-83.69
-76.95
-65.82
-53.11
-42.36
-36.18
-35.57
-42.36
-55.73
-71.50
-84.77
-92.52
-93.86
-89.25
-79.90
-67.60
-58.06
-55.77
-61.72
-74.80
-93.54
-115.50
-136.86
-153.59
-143.23
-101.39
-46.62
-2.39
21.63
28.75
26.78
22.04
17.71
14.58
8.63
1.07
-2.66
2.75
18.29
40.79
64.36
82.93
92.97
93.07
83.68
72.36
67.95
75.51
96.13
126.61
161.13
194.03
220.37
240.48
256.64
269.64
277.72
280.95
280.88
279.59
279.05
279.64
283.00
287.75
288.43
277.05
250.83
211.55
163.59
112.25
47.96
-21.63
-79.55
-116.70
-148.05
-185.17
-228.05
-271.33
-307.52
-329.07
-327.98
-301.41
-241.15
-157.91
-74.77
-11.81
25.75
45.17
57.49
72.35
95.33
120.08
136.06
138.32
127.98
109.12
85.60
59.39
29.19
-3.53
-32.89
-54.17
-64.75
-64.62
-55.42
-39.93
-21.42
-5.38
8.53
19.73
26.58
28.88
27.57
23.01
13.56
-1.42
-23.42
-52.22
-88.13
-131.82
-182.13
-234.40
-280.53
-311.27
-319.54
-303.78
-268.08
-222.18
-177.33
-141.08
-114.34
-92.23
-68.06
-37.86
-2.96
31.60
59.13
75.10
79.75
78.32
78.00
85.47
102.77
124.81
143.59
153.12
152.60
145.76
137.80
132.16
128.26
122.39
110.98
93.97
75.03
59.20
49.59
45.22
41.78
34.32
20.60
2.97
-12.80
-21.52
-22.08
-18.28
-16.60
-22.14
-35.70
-54.61
-74.45
-91.66
-105.46
-116.67
-125.54
-129.76
-124.19
-104.15
-68.77
-22.26
27.16
70.38
101.02
117.18
118.74
111.60
102.04
93.89
88.87
89.63
95.89
106.39
117.13
121.63
113.32
87.92
45.84
-6.46
-58.15
-98.65
-121.66
-127.33
-121.05
-110.39
-99.20
-89.48
-86.04
-92.56
-108.50
-127.17
-138.12
-131.80
-104.19
-59.30
-7.97
37.29
68.57
84.68
89.71
89.29
87.39
85.31
82.93
79.79
75.90
71.80
67.16
60.34
49.33
33.59
14.72
-3.67
-18.01
-26.39
-29.07
-27.47
-23.71
-19.62
-16.31
-14.37
-14.02
-15.75
-20.07
-27.18
-36.84
-48.54
-61.52
-74.62
-87.62
-100.49
-112.25
-119.95
-118.81
-104.04
-73.67
-30.39
18.45
63.07
95.37
112.06
115.31
110.90
104.96
101.24
100.63
101.54
101.36
97.86
89.81
77.18
61.01
43.91
27.23
12.43
0.42
-8.77
-15.47
-19.90
-21.99
-21.70
-19.56
-16.93
-15.26
-15.66
-18.32
-22.35
-26.34
-29.02
-29.60
-27.78
-23.63
-17.04
-8.09
2.55
13.57
23.11
29.29
30.88
27.82
21.20
12.93
4.97
-1.32
-5.49
-7.93
-9.54
-11.17
-13.27
-15.80
-18.33
-20.46
-21.95
-22.75
-22.93
-22.51
-21.42
-19.52
-16.70
-13.10
-9.13
-5.44
-2.66
-1.26
-1.21
-1.98
-2.83
-3.05
-2.34
-0.90
0.63
1.59
1.58
0.68
-0.66
-1.86
-2.54
-2.64
-2.40
-2.18
-2.24
-2.66
-3.31
-3.97
-4.42
-4.56
-4.39
-4.02
-3.56
-3.10
-2.67
-2.25
-1.80
-1.30
-0.77
-0.32
-0.07
-0.19
-0.90
-2.26
-4.12
-6.18
-8.06
-9.49
-10.35
-10.77
-11.08
-11.66
-12.78
-14.48
-16.61
-18.81
-20.67
-21.96
-22.64
-22.99
-23.50
-24.74
-27.12
-30.68
-35.01
-39.34
-42.79
-44.66
-44.66
-43.02
-40.51
-38.34
-37.84
-39.98
-44.70
-50.48
-54.24
-52.29
-41.86
-22.54
3.24
30.92
55.62
73.82
84.46
89.07
90.36
90.90
91.96
93.62
95.43
97.15
98.88
100.92
103.88
107.89
112.59
116.90
119.40
119.18
116.11
110.59
103.20
94.94
86.50
78.49
71.02
64.12
58.49
55.00
53.78
49.93
38.49
16.39
-14.84
-50.39
-84.83
-113.38
-133.33
-144.23
-147.57
-145.21
-141.25
-136.58
-132.52
-131.96
-137.61
-150.74
-170.02
-191.17
-207.52
-212.64
-202.60
-173.38
-128.22
-74.32
-20.02
27.79
65.19
91.61
108.67
119.04
125.20
128.26
129.16
128.74
127.74
126.59
125.34
123.62
120.79
116.34
109.42
100.02
88.91
77.24
66.20
56.66
48.99
40.87
30.99
18.38
2.64
-16.48
-38.55
-61.81
-83.15
-99.25
-107.98
-108.98
-104.38
-97.35
-90.61
-85.62
-82.60
-81.26
-81.37
-82.61
-83.72
-82.45
-75.90
-61.54
-38.99
-10.83
17.80
41.18
55.34
59.92
57.59
52.34
47.32
43.58
40.40
36.52
31.58
26.48
22.86
21.73
22.80
24.62
25.42
24.35
21.79
19.14
17.92
18.92
21.54
24.16
24.90
22.70
17.89
12.11
7.52
5.68
6.91
9.94
12.90
14.15
13.09
10.30
7.05
4.66
3.83
4.53
6.10
7.73
8.91
9.46
9.53
9.41
9.47
10.06
11.73
14.98
19.98
25.98
31.16
32.95
29.12
19.01
4.14
-11.84
-24.83
-32.09
-33.10
-29.40
-23.49
-17.34
-11.69
-6.30
-0.69
5.04
10.04
12.94
13.41
11.58
8.25
4.55
1.30
-1.17
-3.06
-5.01
-7.51
-10.61
-14.00
-16.85
-18.06
-17.11
-13.82
-8.66
-2.88
2.41
6.33
8.32
8.52
7.95
7.29
7.39
8.55
9.91
10.79
10.44
8.02
3.35
-2.67
-9.52
-16.17
-22.19
-28.75
-36.53
-46.94
-63.07
-89.73
-124.50
-166.83
-213.80
-259.39
-295.94
-313.66
-305.63
-271.20
-216.00
-149.17
-80.75
-17.50
42.50
91.69
124.35
140.84
144.95
140.40
130.34
117.41
104.37
93.21
83.87
77.39
73.81
72.16
72.37
73.18
73.96
74.82
75.96
74.41
71.39
68.02
64.49
60.54
56.00
51.03
45.76
39.84
32.18
23.10
13.51
4.95
-0.75
-2.35
0.10
4.88
9.27
10.90
9.80
7.69
7.02
9.37
14.40
20.08
23.64
23.02
18.12
11.23
5.59
4.00
7.70
15.72
25.53
33.88
37.84
36.07
27.94
13.94
-4.51
-24.79
-43.10
-55.08
-57.79
-51.55
-40.52
-30.95
-27.83
-31.97
-39.22
-42.70
-36.64
-19.50
5.27
31.06
51.24
62.13
63.93
59.53
52.31
43.99
34.11
21.06
3.79
-16.77
-37.22
-53.06
-60.33
-58.53
-51.64
-46.23
-47.77
-57.50
-71.78
-83.74
-86.72
-78.08
-58.30
-31.95
-5.91
12.99
20.48
16.24
4.37
-7.92
-13.03
-6.33
11.99
36.32
58.24
71.51
74.86
72.06
68.98
70.28
76.98
86.08
93.34
93.73
84.97
67.40
43.42
16.30
-9.92
-31.47
-45.93
-53.06
-54.90
-54.80
-56.26
-61.34
-70.09
-80.00
-87.53
-90.34
-88.90
-86.70
-88.34
-97.16
-110.85
-124.79
-132.02
-126.22
-105.37
-73.05
-36.98
-4.98
18.71
35.06
48.42
64.06
85.33
112.64
144.25
177.32
208.65
234.32
249.86
250.61
233.66
198.93
149.63
91.68
32.28
-21.54
-64.08
-91.74
-103.65
-101.53
-89.36
-72.29
-55.03
-40.63
-30.10
-22.82
-17.67
-13.85
-11.07
-9.44
-9.23
-10.55
-13.30
-17.06
-21.04
-24.29
-26.03
-25.96
-24.48
-22.58
-21.33
-21.42
-22.77
-24.68
-26.27
-26.96
-26.72
-25.95
-25.18
-24.61
-23.96
-22.59
-19.84
-15.59
-10.44
-5.62
-2.33
-0.84
-0.24
1.13
4.51
9.65
14.76
17.56
16.91
13.97
11.72
13.18
19.26
27.81
34.56
35.35
28.43
15.21
-0.70
-15.49
-26.84
-34.41
-39.14
-42.16
-44.07
-44.88
-44.51
-43.21
-41.58
-40.20
-39.13
-37.83
-35.58
-32.11
-28.03
-24.51
-22.59
-22.42
-22.93
-22.34
-19.04
-12.32
-2.49
9.38
21.96
33.90
43.65
49.33
49.08
41.79
28.06
10.45
-7.06
-20.47
-27.19
-26.91
-21.31
-13.13
-5.10
0.92
4.26
5.33
5.13
4.80
5.21
6.77
9.45
13.10
17.74
23.70
31.41
40.85
50.97
59.57
63.94
62.00
53.40
39.99
25.21
12.55
3.97
-0.81
-4.00
-8.26
-15.15
-24.21
-33.26
-39.67
-41.72
-39.53
-34.85
-29.87
-25.94
-22.74
-18.59
-11.55
-0.85
12.58
26.45
38.19
46.13
49.95
50.54
49.13
46.58
43.03
38.35
32.64
26.38
20.27
14.95
10.71
7.55
5.42
4.07
3.59
4.20
5.96
8.64
11.77
14.92
17.81
20.33
22.09
23.28
24.51
26.28
28.48
30.49
31.52
30.91
28.26
22.61
13.96
2.94
-9.82
-24.08
-39.71
-56.28
-73.06
-89.12
-104.68
-118.85
-129.84
-135.63
-134.64
-125.73
-108.26
-82.16
-44.22
1.53
46.90
84.57
111.97
129.87
139.24
139.80
130.76
114.95
92.61
66.94
42.95
24.80
13.61
7.30
2.28
-4.58
-13.72
-24.88
-35.53
-42.81
-45.42
-44.38
-42.19
-41.22
-42.55
-45.67
-49.77
-52.98
-53.55
-50.67
-44.74
-36.96
-28.57
-20.50
-13.24
-7.47
-3.32
-0.70
0.48
0.41
-0.44
-1.32
-1.35
0.05
2.77
6.33
9.95
12.77
14.10
13.63
11.62
8.83
6.32
4.95
5.18
6.80
9.02
10.83
11.42
10.51
8.36
5.61
3.02
1.23
0.63
1.26
2.76
4.37
5.11
4.13
1.11
-3.39
-7.93
-10.63
-9.96
-5.45
1.80
9.37
14.43
14.94
10.79
4.06
-1.66
-2.84
2.38
13.18
26.03
35.71
36.70
24.77
-1.63
-40.38
-85.38
-127.53
-157.01
-166.32
-152.92
-120.32
-76.87
-32.71
3.65
27.72
39.39
41.62
38.52
33.85
30.58
31.06
37.11
49.80
68.90
92.43
116.82
137.73
151.37
155.71
151.16
140.60
128.44
119.50
117.50
123.93
137.38
153.47
165.47
165.80
148.40
111.42
59.31
2.80
-43.69
-67.07
-60.54
-26.52
24.27
77.21
119.08
141.76
142.73
123.39
86.97
38.16
-15.89
-64.96
-97.46
-104.74
-85.77
-49.27
-11.04
12.53
11.20
-15.63
-60.22
-111.38
-159.41
-198.93
-228.37
-247.65
-255.95
-251.38
-232.30
-199.31
-156.44
-110.62
-69.62
-39.50
-22.86
-18.75
-24.02
-35.25
-50.00
-66.99
-85.22
-102.87
-116.95
-124.08
-122.23
-112.23
-97.58
-82.84
-71.91
-66.73
-67.19
-72.01
-79.83
-89.92
-102.34
-116.90
-132.06
-144.75
-150.64
-145.39
-126.13
-92.62
-47.80
2.14
50.00
89.96
118.74
135.85
142.96
142.51
137.02
128.38
116.56
101.00
81.98
60.25
37.75
17.82
4.61
2.28
12.58
30.66
47.02
51.57
36.63
0.91
-49.24
-101.81
-142.62
-160.28
-152.22
-122.14
-75.84
-19.91
40.20
100.65
153.15
186.79
208.24
223.90
231.79
233.51
232.28
231.40
232.34
233.39
230.85
220.71
198.26
162.46
118.02
72.06
31.24
-0.56
-23.02
-37.78
-46.81
-53.36
-59.65
-65.67
-70.89
-74.65
-76.35
-75.56
-71.62
-63.92
-53.62
-42.37
-31.26
-21.29
-13.24
-7.59
-4.53
-3.65
-4.07
-5.20
-6.49
-7.21
-7.10
-6.40
-5.69
-5.52
-6.07
-6.98
-7.81
-8.09
-7.46
-5.94
-3.88
-1.74
0.04
1.29
1.99
2.30
2.35
2.20
1.78
0.96
-0.35
-2.16
-4.38
-6.78
-9.12
-11.19
-12.84
-14.07
-14.92
-15.47
-15.80
-15.90
-15.80
-15.54
-15.23
-14.99
-14.98
-15.32
-16.04
-17.05
-18.14
-19.10
-19.71
-19.83
-19.36
-18.24
-16.50
-14.21
-11.51
-8.61
-5.87
-3.65
-2.21
-1.62
-1.75
-2.32
-3.01
-3.48
-3.55
-3.37
-3.25
-3.50
-4.19
-5.21
-6.33
-7.35
-7.88
-7.65
-6.77
-5.68
-4.99
-5.18
-6.50
-8.88
-11.75
-13.68
-13.19
-9.53
-3.05
5.09
13.45
20.94
27.19
32.72
39.33
48.65
60.87
74.54
87.34
97.09
102.33
102.34
93.39
73.61
44.64
11.09
-21.87
-50.41
-72.20
-86.18
-92.61
-93.02
-88.99
-82.16
-74.31
-66.85
-60.45
-55.28
-51.61
-50.21
-51.88
-56.66
-61.42
-61.97
-54.01
-34.85
-4.77
32.13
69.31
99.17
117.49
124.78
123.41
114.85
98.52
73.51
41.26
7.19
-20.61
-34.88
-33.43
-21.02
-6.53
1.90
1.37
-5.22
-11.87
-13.65
-9.42
-2.16
3.34
3.75
-1.24
-8.85
-15.36
-17.99
-16.34
-12.30
-8.79
-9.13
-15.73
-29.38
-48.82
-71.54
-94.51
-114.50
-128.23
-132.39
-124.44
-102.32
-69.31
-31.35
4.35
31.49
46.83
50.96
47.46
40.70
33.78
27.68
22.36
17.77
14.88
14.63
17.64
23.71
31.66
39.94
46.98
52.25
56.38
59.55
63.10
67.67
73.05
78.55
83.32
87.48
89.69
88.86
83.90
74.15
59.73
42.01
23.43
6.67
-6.35
-15.16
-20.31
-22.95
-23.95
-23.72
-22.27
-19.74
-16.76
-14.35
-13.51
-14.39
-16.42
-18.50
-19.67
-19.49
-18.16
-16.36
-14.78
-13.88
-13.59
-13.48
-13.02
-11.83
-9.85
-7.32
-4.70
-2.45
-0.90
-0.13
-0.02
-0.26
-0.52
-0.61
-0.58
-0.71
-1.43
-3.10
-5.85
-9.50
-13.62
-17.68
-21.24
-24.00
-25.89
-26.95
-27.25
-26.88
-25.93
-24.47
-22.63
-20.54
-18.39
-16.34
-14.59
-13.24
-12.35
-11.86
-11.70
-11.79
-12.07
-12.49
-12.98
-13.42
-13.68
-13.67
-13.38
-12.85
-12.14
-11.29
-10.29
-9.07
-7.56
-5.71
-3.54
-1.09
1.51
4.10
6.52
8.64
10.44
12.02
13.56
15.18
16.94
18.73
20.36
21.68
22.56
22.94
22.77
22.02
20.66
18.71
16.28
13.56
10.73
7.97
5.38
3.03
1.00
-0.58
-1.63
-2.09
-2.06
-1.72
-1.32
-1.03
-0.96
-1.15
-1.59
-2.26
-3.06
-3.87
-4.47
-4.67
-4.35
-3.53
-2.39
-1.17
-0.05
0.86
1.51
1.90
2.01
1.87
1.57
1.23
1.02
1.01
1.16
1.31
1.27
0.96
0.41
-0.21
-0.71
-1.00
-1.12
-1.22
-1.53
-2.17
-3.16
-4.37
-5.58
-6.53
-7.04
-7.01
-6.47
-5.51
-4.29
-2.90
-1.35
0.43
2.58
5.13
8.02
11.01
13.82
16.23
18.17
19.77
21.30
22.93
24.76
26.68
28.51
30.05
31.20
31.92
32.24
32.21
31.96
31.79
32.08
33.21
35.23
37.68
39.46
39.21
35.78
28.87
19.24
8.55
-1.31
-8.94
-13.85
-16.54
-18.01
-19.29
-20.91
-22.92
-25.04
-27.00
-28.60
-29.65
-29.88
-28.86
-26.31
-22.27
-17.27
-12.30
-8.42
-6.30
-5.84
-6.23
-6.32
-5.29
-2.95
0.16
2.87
3.81
2.04
-2.62
-9.40
-16.81
-23.43
-28.06
-30.18
-30.15
-29.02
-28.00
-28.00
-29.26
-31.31
-33.49
-34.72
-33.93
-30.52
-24.72
-17.75
-11.77
-9.60
-11.59
-18.56
-30.29
-44.62
-58.12
-67.69
-71.83
-71.10
-67.50
-63.44
-60.67
-58.93
-56.08
-49.28
-36.59
-18.18
3.42
24.31
40.77
50.63
54.19
53.60
51.37
49.14
47.31
45.52
43.49
41.53
40.39
40.79
42.89
45.97
48.78
50.08
49.12
46.31
42.06
37.14
32.31
27.96
24.05
20.29
16.30
11.91
7.26
2.69
-1.35
-4.52
-6.70
-8.03
-8.79
-9.32
-9.88
-10.54
-11.26
-11.92
-12.45
-12.84
-13.18
-13.63
-14.29
-15.17
-16.04
-16.52
-16.16
-14.66
-11.99
-8.45
-4.51
-0.57
2.73
5.15
6.75
7.81
8.62
9.29
9.74
9.83
9.53
8.95
8.52
8.70
9.82
11.87
14.48
17.07
19.06
20.12
20.27
19.85
19.37
19.26
19.77
20.90
22.36
23.71
24.27
23.22
19.79
13.59
4.93
-5.05
-14.56
-21.81
-25.63
-25.93
-23.66
-20.29
-17.15
-15.03
-14.03
-13.88
-14.30
-15.19
-16.56
-18.34
-20.09
-21.12
-20.75
-18.54
-14.55
-9.39
-3.95
0.94
4.73
7.36
9.11
10.41
11.62
12.84
13.91
14.61
14.70
14.15
13.07
11.67
10.18
8.75
7.42
6.18
4.95
3.70
2.43
1.20
0.11
-0.79
-1.51
-2.10
-2.67
-3.31
-4.03
-4.77
-5.39
-5.76
-5.82
-5.62
-5.29
-4.99
-4.87
-4.97
-5.30
-5.77
-6.33
-6.84
-7.17
-7.15
-6.64
-5.63
-4.22
-2.63
-1.17
-0.02
0.75
1.23
1.56
1.86
2.15
2.36
2.39
2.21
1.83
1.34
0.81
0.28
-0.26
-0.84
-1.47
-2.11
-2.76
-3.43
-4.21
-5.23
-6.58
-8.25
-10.10
-11.88
-13.32
-14.20
-14.41
-14.00
-13.09
-11.82
-10.32
-8.69
-6.96
-5.18
-3.41
-1.73
-0.16
1.34
2.89
4.61
6.56
8.64
10.66
12.41
13.71
14.51
14.86
14.83
14.42
13.55
12.11
9.99
7.20
3.94
0.60
-2.28
-4.03
-4.05
-2.01
1.99
7.33
13.05
18.10
21.74
23.71
24.28
24.00
23.43
22.87
22.34
21.63
20.47
18.73
16.37
13.47
10.10
6.33
2.20
-2.22
-6.77
-11.24
-15.41
-19.12
-22.24
-24.68
-26.33
-27.02
-26.58
-24.89
-21.96
-17.97
-13.31
-8.54
-4.33
-1.37
-0.19
-0.94
-3.32
-6.57
-9.77
-12.13
-13.30
-13.39
-12.83
-11.99
-11.02
-9.83
-8.23
-6.22
-4.04
-2.14
-0.89
-0.43
-0.57
-0.95
-1.27
-1.42
-1.50
-1.74
-2.29
-3.12
-4.00
-4.62
-4.75
-4.34
-3.57
-2.70
-1.99
-1.54
-1.25
-0.88
-0.24
0.74
1.93
3.09
3.95
4.38
4.38
4.12
3.78
3.47
3.22
2.93
2.44
1.60
0.29
-1.57
-3.94
-6.65
-9.34
-11.54
-12.74
-12.66
-11.30
-9.00
-6.25
-3.51
-1.00
1.32
3.63
6.07
8.58
10.92
12.78
13.93
14.36
14.26
13.94
13.68
13.66
13.89
14.27
14.64
14.86
14.85
14.60
14.12
13.44
12.62
11.69
10.71
9.76
8.91
8.20
7.62
7.06
6.42
5.58
4.55
3.44
2.41
1.54
0.78
-0.02
-1.01
-2.21
-3.39
-4.20
-4.32
-3.65
-2.36
-0.82
0.58
1.59
2.19
2.48
2.56
2.47
2.16
1.55
0.65
-0.44
-1.50
-2.32
-2.74
-2.75
-2.52
-2.29
-2.35
-2.82
-3.52
-4.03
-3.80
-2.41
0.22
3.76
7.68
11.40
14.38
16.23
16.59
15.22
12.13
7.70
2.72
-1.79
-4.97
-6.48
-6.56
-5.92
-5.26
-5.02
-5.23
-5.66
-6.06
-6.34
-6.58
-6.91
-7.34
-7.75
-7.95
-7.78
-7.22
-6.45
-5.70
-5.21
-5.07
-5.25
-5.57
-5.82
-5.84
-5.57
-5.09
-4.55
-4.10
-3.82
-3.68
-3.55
-3.26
-2.68
-1.84
-0.88
-0.04
0.51
0.73
0.71
0.60
0.55
0.60
0.72
0.88
1.05
1.25
1.46
1.53
1.26
0.46
-0.84
-2.41
-3.80
-4.60
-4.58
-3.79
-2.48
-0.96
0.57
1.99
3.25
4.27
4.89
4.93
4.31
3.17
1.81
0.58
-0.27
-0.68
-0.75
-0.69
-0.64
-0.67
-0.74
-0.79
-0.78
-0.76
-0.76
-0.82
-0.93
-1.06
-1.16
-1.23
-1.28
-1.39
-1.56
-1.81
-2.08
-2.31
-2.41
-2.39
-2.27
-2.15
-2.10
-2.17
-2.37
-2.64
-2.93
-3.19
-3.37
-3.43
-3.40
-3.31
-3.26
-3.34
-3.58
-3.94
-4.29
-4.49
-4.47
-4.31
-4.21
-4.36
-4.86
-5.65
-6.51
-7.20
-7.53
-7.41
-6.80
-5.68
-4.08
-2.07
0.15
2.28
4.01
5.11
5.56
5.52
5.21
4.83
4.44
4.02
3.50
2.91
2.34
1.96
1.88
2.12
2.56
3.05
3.45
3.71
3.90
4.08
4.27
4.37
4.25
3.83
3.17
2.42
1.82
1.53
1.57
1.84
2.16
2.35
2.32
2.06
1.61
1.05
0.46
-0.09
-0.56
-0.94
-1.27
-1.57
-1.88
-2.21
-2.56
-2.94
-3.35
-3.80
-4.26
-4.73
-5.20
-5.72
-6.31
-6.92
-7.46
-7.71
-7.47
-6.63
-5.20
-3.38
-1.43
0.40
1.92
3.06
3.83
4.27
4.40
4.27
3.91
3.38
2.80
2.28
1.92
1.75
1.74
1.82
1.92
1.98
2.02
2.10
2.26
2.51
2.84
3.16
3.39
3.47
3.36
3.03
2.49
1.76
0.89
0.01
-0.80
-1.48
-2.04
-2.55
-3.07
-3.65
-4.29
-4.91
-5.47
-5.95
-6.42
-6.93
-7.44
-7.85
-7.95
-7.55
-6.54
-4.96
-3.02
-1.04
0.65
1.83
2.41
2.44
2.09
1.71
1.61
1.95
2.57
3.09
3.10
2.35
0.92
-0.76
-1.84
-1.64
-0.01
2.43
4.50
5.05
3.43
-0.13
-4.56
-7.91
-8.51
-5.58
0.13
6.72
11.98
14.36
13.66
11.04
8.95
9.53
13.95
21.75
31.45
41.36
50.07
56.67
57.82
50.93
36.55
20.46
10.47
12.25
26.44
48.21
69.29
81.33
81.84
71.63
54.89
36.87
22.05
12.38
7.20
4.49
2.28
1.25
1.70
4.51
10.34
18.54
25.85
26.45
16.19
-5.98
-37.29
-73.13
-109.24
-144.46
-176.93
-201.71
-215.28
-216.14
-205.39
-185.73
-160.54
-132.95
-105.83
-81.07
-60.94
-47.57
-42.15
-44.18
-50.80
-57.17
-57.10
-45.23
-18.66
19.34
63.14
104.83
137.35
157.10
164.71
163.99
155.99
145.76
135.71
125.76
114.93
103.13
91.66
81.82
73.95
67.81
61.19
51.56
37.80
19.94
-1.23
-24.46
-48.78
-72.81
-95.18
-112.20
-121.85
-123.92
-120.50
-115.32
-111.90
-114.27
-121.45
-130.73
-137.74
-137.94
-127.46
-104.89
-72.16
-33.48
5.31
39.41
66.45
87.48
105.78
125.25
148.84
172.91
193.80
207.02
209.32
199.68
180.46
156.45
132.94
113.42
97.89
84.29
69.56
52.35
33.66
16.15
2.02
-8.74
-18.72
-31.93
-51.18
-77.04
-107.16
-137.80
-165.74
-189.62
-209.82
-227.40
-242.51
-253.02
-255.27
-244.84
-219.04
-178.21
-125.70
-66.49
-5.98
50.53
98.12
132.12
150.00
150.86
135.73
107.86
72.55
36.00
3.63
-20.93
-36.15
-40.37
-33.92
-19.70
-2.11
15.17
30.82
45.81
62.42
82.80
110.34
145.56
185.18
223.34
254.61
275.85
286.44
287.62
266.20
218.43
153.23
86.77
30.51
-13.40
-48.41
-78.71
-106.67
-132.26
-151.28
-159.94
-157.07
-144.44
-125.34
-103.37
-82.14
-64.81
-53.34
-46.02
-40.27
-34.39
-28.32
-22.80
-18.60
-16.11
-15.12
-14.87
-13.16
-8.70
-2.09
4.33
7.76
6.31
-0.41
-11.18
-23.62
-34.33
-40.89
-42.38
-39.50
-33.75
-26.51
-18.59
-10.36
-2.08
5.92
12.90
17.92
20.31
20.09
18.16
15.87
14.48
14.65
16.28
18.66
20.81
21.73
20.68
17.47
12.48
6.52
0.54
-4.63
-8.60
-11.28
-12.76
-13.20
-12.53
-10.65
-7.70
-4.24
-1.13
0.68
0.60
-0.61
-2.06
-2.63
-1.48
1.56
5.76
9.85
12.55
13.04
11.28
7.70
3.14
-1.63
-6.01
-9.69
-12.47
-14.29
-15.10
-15.02
-14.38
-13.65
-13.36
-14.02
-15.96
-19.20
-23.41
-27.94
-31.93
-34.57
-35.22
-33.58
-29.80
-24.41
-18.20
-11.98
-6.47
-2.08
0.95
2.67
3.30
3.16
2.62
2.06
1.84
2.20
3.24
4.85
6.82
8.79
10.35
11.20
11.15
10.27
8.86
7.33
6.11
5.52
5.68
6.52
7.81
9.25
10.57
11.64
12.46
13.20
14.02
14.99
16.05
17.07
17.86
18.37
18.62
18.68
18.62
18.40
17.90
17.04
15.82
14.27
12.41
10.19
7.51
4.30
0.65
-3.17
-6.83
-10.06
-12.75
-14.99
-16.95
-18.76
-20.45
-21.93
-23.11
-23.95
-24.46
-24.67
-24.57
-24.07
-23.13
-21.82
-20.30
-18.78
-17.35
-15.87
-14.01
-11.39
-7.81
-3.35
1.71
7.06
12.58
18.35
24.51
31.05
37.62
43.62
48.37
51.51
53.02
53.23
52.58
51.39
49.75
47.59
44.77
41.23
37.08
32.64
28.43
25.05
22.99
22.48
23.34
25.09
27.08
28.77
29.80
30.02
29.36
27.69
24.83
20.57
14.89
7.98
0.32
-7.48
-14.78
-21.06
-26.14
-30.12
-33.45
-36.61
-39.89
-43.17
-45.96
-47.67
-47.99
-47.15
-45.91
-45.22
-45.82
-47.91
-51.14
-54.82
-58.25
-60.96
-62.77
-63.75
-64.11
-64.05
-63.74
-63.25
-62.51
-61.29
-59.28
-56.17
-51.80
-46.20
-39.71
-32.85
-26.23
-20.47
-16.05
-13.16
-11.70
-11.25
-11.27
-11.20
-10.70
-9.63
-8.11
-6.40
-4.75
-3.31
-2.06
-0.79
0.84
3.20
6.59
11.14
16.71
22.88
28.98
34.24
38.00
40.01
40.57
40.54
41.10
43.21
47.15
52.33
57.46
61.17
62.57
61.57
58.65
54.47
49.39
43.48
36.68
29.23
21.83
15.39
10.65
7.79
6.38
5.67
5.02
4.18
3.25
2.48
1.90
1.28
0.21
-1.62
-4.27
-7.42
-10.56
-13.17
-14.92
-15.75
-15.82
-15.41
-14.75
-14.00
-13.25
-12.58
-12.03
-11.64
-11.44
-11.36
-11.35
-11.36
-11.35
-11.29
-11.17
-10.98
-10.72
-10.41
-10.11
-9.82
-9.56
-9.34
-9.27
-9.52
-10.36
-12.00
-14.57
-18.01
-22.09
-26.53
-31.06
-35.44
-39.48
-42.93
-45.47
-46.76
-46.48
-44.54
-41.11
-36.67
-31.86
-27.25
-23.23
-19.84
-16.91
-14.21
-11.65
-9.29
-7.28
-5.71
-4.49
-3.40
-2.23
-0.78
1.06
3.45
6.65
10.96
16.57
23.39
30.94
38.42
44.96
49.85
52.74
53.64
52.84
50.73
47.65
43.88
39.65
35.19
30.71
26.43
22.58
19.34
16.87
15.23
14.36
14.11
14.20
14.36
14.32
13.97
13.32
12.47
11.49
10.35
8.90
6.94
4.40
1.39
-1.77
-4.68
-7.07
-8.87
-10.20
-11.26
-12.16
-12.75
-12.73
-11.70
-9.44
-5.99
-1.69
2.95
7.39
11.22
14.19
16.19
17.22
17.38
16.87
15.96
14.95
14.10
13.49
13.10
12.75
12.26
11.45
10.20
8.43
6.09
3.20
-0.08
-3.47
-6.66
-9.43
-11.73
-13.69
-15.50
-17.26
-18.90
-20.22
-20.97
-21.03
-20.44
-19.40
-18.17
-16.99
-16.02
-15.35
-15.01
-15.00
-15.32
-15.88
-16.51
-16.99
-17.05
-16.52
-15.43
-14.00
-12.58
-11.43
-10.60
-9.88
-8.85
-7.17
-4.67
-1.55
1.78
4.84
7.23
8.77
9.49
9.59
9.33
8.96
8.71
8.72
9.08
9.81
10.85
12.07
13.30
14.36
15.12
15.57
15.85
16.14
16.62
17.34
18.20
18.98
19.44
19.45
19.00
18.20
17.23
16.26
15.43
14.80
14.39
14.16
14.01
13.78
13.34
12.60
11.55
10.30
8.99
7.80
6.88
6.33
6.24
6.57
7.24
8.06
8.82
9.34
9.51
9.31
8.82
8.09
7.14
5.92
4.44
2.79
1.27
0.25
0.11
1.02
2.86
5.21
7.51
9.23
10.06
9.93
8.97
7.40
5.42
3.22
0.98
-1.11
-2.88
-4.22
-5.10
-5.59
-5.80
-5.89
-5.93
-5.93
-5.84
-5.51
-4.82
-3.66
-2.04
-0.13
1.79
3.33
4.19
4.27
3.68
2.68
1.55
0.42
-0.71
-1.94
-3.34
-4.84
-6.27
-7.44
-8.24
-8.75
-9.11
-9.53
-10.11
-10.88
-11.78
-12.77
-13.84
-15.03
-16.37
-17.80
-19.20
-20.38
-21.14
-21.36
-20.95
-19.96
-18.49
-16.74
-14.89
-13.13
-11.60
-10.33
-9.21
-8.00
-6.41
-4.25
-1.50
1.58
4.54
6.86
8.06
7.82
6.02
2.80
-1.43
-5.95
-9.86
-12.32
-12.84
-11.43
-8.65
-5.28
-2.03
0.82
3.42
6.24
9.67
13.79
18.29
22.58
26.13
28.65
30.25
31.26
32.08
32.90
33.65
34.03
33.73
32.60
30.75
28.50
26.17
23.92
21.66
19.11
15.96
12.12
7.75
3.33
-0.62
-3.68
-5.75
-7.02
-7.86
-8.58
-9.37
-10.28
-11.29
-12.42
-13.72
-15.20
-16.78
-18.25
-19.38
-20.07
-20.41
-20.66
-21.15
-22.07
-23.47
-25.18
-26.92
-28.33
-29.04
-28.72
-27.10
-24.09
-19.86
-14.81
-9.52
-4.53
-0.16
3.48
6.52
9.16
11.56
13.74
15.68
17.33
18.66
19.68
20.30
20.43
19.95
18.82
17.09
14.92
12.51
9.99
7.46
4.92
2.42
-0.03
-2.35
-4.45
-6.23
-7.57
-8.38
-8.62
-8.30
-7.57
-6.64
-5.74
-5.05
-4.60
-4.23
-3.63
-2.44
-0.36
2.55
5.84
8.70
10.16
9.50
6.53
1.70
-4.12
-9.94
-14.99
-18.84
-21.34
-22.51
-22.49
-21.56
-20.19
-18.98
-18.48
-18.91
-20.06
-21.37
-22.23
-22.29
-21.64
-20.75
-20.21
-20.45
-21.54
-23.14
-24.66
-25.49
-25.18
-23.53
-20.68
-16.97
-12.90
-9.03
-5.90
-3.90
-3.14
-3.33
-3.83
-3.80
-2.57
0.10
3.87
7.99
11.68
14.38
15.96
16.60
16.59
16.16
15.48
14.70
14.14
14.24
15.43
17.98
21.80
26.49
31.47
36.17
40.22
43.46
45.94
47.78
49.07
49.87
50.12
49.72
48.58
46.63
43.88
40.50
36.72
32.75
28.75
24.66
20.34
15.60
10.39
4.90
-0.51
-5.47
-9.76
-13.39
-16.49
-19.23
-21.62
-23.51
-24.71
-25.07
-24.60
-23.49
-21.96
-20.23
-18.48
-16.83
-15.39
-14.20
-13.20
-12.18
-10.88
-9.12
-6.94
-4.70
-2.91
-2.00
-2.08
-2.84
-3.69
-4.02
-3.49
-2.18
-0.48
1.10
2.21
2.79
3.07
3.29
3.62
4.00
4.26
4.22
3.88
3.42
3.06
2.93
2.91
2.72
2.01
0.60
-1.43
-3.75
-5.91
-7.54
-8.46
-8.68
-8.42
-7.97
-7.58
-7.42
-7.50
-7.69
-7.79
-7.66
-7.23
-6.58
-5.86
-5.23
-4.75
-4.41
-4.14
-3.86
-3.52
-3.14
-2.72
-2.29
-1.85
-1.43
-1.08
-0.85
-0.76
-0.77
-0.83
-0.90
-0.99
-1.26
-1.92
-3.13
-4.96
-7.23
-9.64
-11.78
-13.32
-14.11
-14.22
-13.91
-13.45
-13.09
-12.93
-12.96
-13.08
-13.17
-13.13
-12.86
-12.24
-11.10
-9.32
-6.86
-3.87
-0.68
2.25
4.50
5.82
6.25
6.06
5.68
5.47
5.58
5.94
6.26
6.28
5.90
5.19
4.38
3.68
3.30
3.33
3.77
4.55
5.50
6.30
6.61
6.15
4.93
3.28
1.79
1.02
1.25
2.33
3.81
5.08
5.60
5.04
3.23
0.12
-4.26
-9.80
-16.19
-23.01
-29.77
-35.99
-41.37
-45.74
-49.01
-51.09
-51.83
-51.09
-48.85
-45.29
-40.82
-35.95
-31.19
-26.90
-23.27
-20.27
-17.79
-15.63
-13.59
-11.53
-9.36
-7.08
-4.76
-2.51
-0.47
1.31
2.87
4.33
5.90
7.74
9.94
12.42
14.96
17.17
18.67
19.15
18.50
16.90
14.73
12.51
10.71
9.64
9.36
9.65
10.10
10.24
9.68
8.23
6.07
3.69
1.76
0.88
1.27
2.63
4.21
5.03
4.27
1.59
-2.74
-7.92
-12.80
-16.23
-17.31
-15.61
-11.23
-4.78
2.85
10.70
18.02
24.45
29.87
34.25
37.37
38.83
38.28
35.68
31.54
26.83
22.69
19.88
18.52
18.01
17.34
15.62
12.45
8.16
3.66
0.08
-1.76
-1.64
-0.04
2.06
3.58
3.87
2.91
1.26
-0.22
-0.91
-0.61
0.44
1.86
3.15
3.53
1.58
-4.64
-16.71
-34.56
-55.41
-74.20
-85.30
-84.95
-73.10
-53.40
-31.53
-12.55
0.96
9.27
14.24
17.69
20.29
21.69
21.34
19.37
16.75
14.78
14.53
16.12
18.74
21.07
21.96
20.88
18.04
14.26
10.41
7.26
4.91
2.87
0.48
-2.54
-5.90
-8.85
-10.51
-10.22
-7.37
-1.99
5.31
13.76
22.72
31.71
40.28
47.94
54.24
59.63
64.36
68.42
71.54
73.39
73.59
71.76
67.84
62.27
56.74
52.35
49.01
45.77
41.65
36.33
30.19
24.01
13.34
-2.64
-21.39
-39.23
-53.27
-61.44
-62.26
-55.68
-43.74
-30.20
-18.35
-10.82
-8.91
-12.35
-19.54
-28.36
-36.74
-42.80
-45.14
-42.29
-33.95
-21.66
-8.23
3.38
11.10
14.28
13.59
10.53
7.11
4.53
2.95
1.85
0.50
-1.80
-5.66
-11.60
-19.75
-29.13
-38.16
-45.23
-49.02
-49.05
-45.88
-40.81
-35.45
-31.27
-29.13
-29.25
-31.10
-33.43
-34.70
-33.69
-30.02
-24.27
-17.84
-12.40
-9.07
-7.81
-7.45
-6.47
-3.93
0.25
5.36
10.14
13.20
13.53
10.96
6.31
1.13
-2.71
-2.97
2.78
16.56
38.07
63.80
87.74
105.19
115.15
119.29
119.77
117.64
112.06
100.85
82.12
56.09
25.91
-3.33
-26.75
-41.66
-48.27
-49.39
-48.80
-49.46
-52.38
-56.74
-60.97
-63.88
-65.38
-65.08
-62.63
-57.70
-50.19
-40.53
-29.89
-19.92
-12.32
-8.22
-7.66
-9.95
-13.89
-18.22
-21.79
-23.66
-23.11
-19.97
-14.70
-8.24
-1.95
2.92
5.73
6.69
6.10
4.79
3.55
3.00
3.49
5.11
7.70
10.87
14.14
17.14
19.90
22.76
26.14
30.19
34.47
38.05
39.94
39.58
37.15
33.48
29.47
25.81
22.78
20.49
19.09
18.82
19.78
21.70
23.92
25.57
25.99
25.08
23.30
21.32
19.64
18.38
17.35
16.24
14.64
12.12
8.27
2.83
-3.98
-11.44
-18.46
-24.07
-28.01
-30.89
-33.83
-37.83
-43.08
-48.77
-53.45
-55.59
-54.08
-48.56
-39.60
-28.82
-18.73
-12.06
-10.70
-14.78
-22.24
-29.45
-32.63
-29.50
-20.29
-7.47
5.63
16.27
23.25
26.96
28.81
30.44
32.93
36.32
39.64
41.60
41.25
38.49
34.22
30.01
27.25
26.42
26.67
26.12
23.04
16.50
6.03
-9.07
-29.31
-53.69
-77.99
-95.68
-101.60
-95.06
-80.28
-64.34
-53.74
-51.08
-53.86
-56.06
-51.87
-38.91
-19.04
3.01
22.35
36.15
44.32
48.64
51.15
52.71
52.86
50.73
45.83
38.74
31.13
25.04
22.02
22.51
25.72
29.26
30.98
29.73
25.60
19.84
14.11
9.75
7.21
5.90
4.58
2.16
-1.83
-6.99
-12.31
-16.58
-19.02
-19.47
-18.48
-17.01
-15.83
-15.28
-15.26
-15.36
-15.25
-14.79
-14.02
-12.87
-10.99
-7.69
-2.02
6.24
16.29
26.34
34.19
38.03
37.25
32.54
25.49
17.77
10.42
3.67
-2.76
-9.24
-15.74
-21.88
-27.11
-31.06
-33.80
-35.81
-37.59
-39.27
-40.32
-39.77
-36.73
-31.01
-23.35
-15.07
-7.43
-0.95
4.71
10.36
16.46
22.62
27.69
30.34
29.85
26.39
20.83
14.05
6.42
-2.29
-12.55
-24.47
-37.50
-50.46
-61.89
-70.51
-75.40
-76.15
-72.76
-65.68
-55.62
-43.55
-30.48
-17.26
-4.40
7.84
19.26
29.47
37.83
43.66
46.70
47.31
46.47
45.25
44.35
43.95
44.11
45.17
48.02
53.66
62.37
73.21
83.86
91.39
93.46
89.37
80.35
68.82
57.22
46.85
37.52
28.11
17.67
6.31
-4.58
-12.99
-17.37
-17.55
-15.03
-12.15
-10.96
-11.98
-14.04
-15.12
-13.61
-9.30
-3.47
1.96
5.42
6.46
5.70
4.07
2.00
-0.97
-5.87
-13.54
-23.95
-36.01
-47.96
-57.99
-64.64
-66.91
-64.08
-55.77
-42.18
-24.46
-4.80
13.77
28.23
36.43
37.78
33.43
25.69
17.20
9.95
4.82
1.55
-0.66
-2.52
-4.15
-5.06
-4.45
-1.80
2.73
8.28
13.65
17.79
20.26
21.15
20.96
20.13
18.81
16.73
13.33
8.11
1.14
-6.79
-14.25
-19.68
-22.05
-21.19
-17.87
-13.58
-9.97
-8.27
-8.93
-11.70
-15.76
-20.16
-23.75
-25.66
-25.78
-24.85
-24.03
-24.24
-25.82
-28.45
-31.65
-34.71
-37.18
-39.17
-40.99
-42.67
-43.67
-43.38
-41.58
-38.74
-35.13
-30.53
-24.50
-16.67
-7.08
3.41
12.50
18.27
16.25
3.62
-16.67
-36.66
-47.86
-45.47
-30.03
-6.88
16.56
33.90
42.90
45.26
44.40
43.63
43.23
42.26
39.58
34.90
28.94
23.48
20.18
19.44
20.24
20.78
19.65
16.38
11.60
6.39
2.30
0.45
0.90
2.71
4.48
5.21
4.59
3.04
1.42
0.75
1.72
4.27
7.69
10.90
13.09
13.86
13.33
11.87
9.94
7.81
5.49
2.87
-0.01
-2.70
-4.50
-4.75
-3.22
-0.26
3.21
6.07
7.53
7.41
6.28
5.15
5.10
6.84
10.66
16.32
23.14
29.99
35.38
37.73
35.86
29.54
19.75
8.43
-2.24
-10.69
-16.49
-20.25
-23.08
-25.83
-28.68
-31.20
-32.73
-32.87
-31.64
-29.36
-26.41
-23.05
-19.40
-15.57
-11.83
-8.58
-6.30
-5.30
-5.57
-6.74
-8.16
-9.17
-9.31
-8.48
-6.95
-5.19
-3.68
-2.69
-2.23
-2.15
-2.19
-2.11
-1.73
-0.96
0.18
1.60
3.13
4.57
5.77
6.62
7.13
7.34
7.34
7.18
6.90
6.47
5.85
4.97
3.86
2.58
1.31
0.26
-0.32
-0.27
0.43
1.71
3.39
5.24
7.01
8.43
9.27
9.35
8.66
7.36
5.80
4.38
3.41
3.05
3.17
3.53
3.82
3.82
3.48
2.84
2.05
1.26
0.60
0.25
0.35
1.00
2.21
3.77
5.37
6.58
7.06
6.66
5.44
3.67
1.69
-0.22
-1.86
-3.18
-4.23
-5.09
-5.86
-6.58
-7.22
-7.73
-8.04
-8.15
-8.12
-8.05
-8.03
-8.10
-8.19
-8.21
-8.03
-7.61
-6.93
-6.02
-4.85
-3.36
-1.49
0.74
3.16
5.44
7.23
8.21
8.29
7.60
6.47
5.30
4.42
4.03
4.14
4.60
5.18
5.67
5.90
5.81
5.46
4.96
4.50
4.23
4.28
4.74
5.60
6.77
8.08
9.33
10.31
10.86
10.90
10.45
9.62
8.56
7.44
6.40
5.57
5.03
4.81
4.92
5.34
5.95
6.52
6.71
6.16
4.67
2.32
-0.53
-3.39
-5.88
-7.96
-9.89
-11.99
-14.44
-17.05
-19.35
-20.87
-21.34
-20.82
-19.61
-18.06
-16.39
-14.70
-13.00
-11.25
-9.52
-7.84
-6.31
-5.00
-3.99
-3.35
-3.07
-3.02
-2.98
-2.73
-2.15
-1.33
-0.51
0.04
0.12
-0.27
-0.91
-1.54
-1.87
-1.79
-1.33
-0.64
0.09
0.69
1.06
1.20
1.13
0.89
0.51
-0.03
-0.73
-1.57
-2.52
-3.54
-4.60
-5.74
-6.96
-8.18
-9.21
-9.74
-9.47
-8.22
-6.05
-3.37
-0.77
1.11
1.82
1.28
-0.26
-2.32
-4.39
-6.04
-7.04
-7.33
-6.90
-5.86
-4.36
-2.68
-1.18
-0.23
-0.08
-0.74
-1.97
-3.40
-4.70
-5.66
-6.32
-6.84
-7.44
-8.20
-9.04
-9.75
-9.98
-9.41
-7.83
-5.29
-2.15
0.90
2.99
3.40
1.77
-1.58
-5.76
-9.49
-11.58
-11.31
-8.79
-4.96
-1.32
0.56
-0.43
-4.55
-11.07
-18.59
-25.52
-30.62
-33.34
-33.84
-32.70
-30.57
-27.87
-24.74
-21.10
-16.90
-12.12
-6.87
-1.18
4.97
11.65
18.83
26.31
33.67
40.39
46.01
50.26
53.17
54.98
55.99
56.47
56.54
56.22
55.48
54.30
52.74
50.89
48.84
46.64
44.24
41.51
38.26
34.35
29.72
24.51
19.01
13.59
8.63
4.40
1.05
-1.39
-3.01
-3.96
-4.38
-4.42
-4.17
-3.72
-3.13
-2.40
-1.52
-0.40
1.10
3.11
5.72
8.92
12.60
16.59
20.70
24.76
28.55
31.65
33.43
33.14
30.13
24.13
15.48
5.14
-5.57
-15.33
-23.28
-29.15
-33.19
-35.81
-37.32
-37.74
-36.93
-34.84
-31.76
-28.26
-25.01
-22.48
-20.79
-19.64
-18.68
-17.68
-16.74
-16.12
-16.04
-16.53
-17.42
-18.49
-19.58
-20.67
-21.85
-23.13
-24.40
-25.38
-25.77
-25.34
-23.97
-21.73
-18.77
-15.32
-11.65
-8.00
-4.53
-1.26
1.94
5.27
8.89
12.77
16.72
20.47
23.79
26.60
28.92
30.73
31.92
32.23
31.39
29.24
25.82
21.39
16.39
11.30
6.54
2.39
-1.06
-3.87
-6.22
-8.26
-10.07
-11.61
-12.79
-13.53
-13.83
-13.82
-13.69
-13.65
-13.83
-14.29
-14.99
-15.83
-16.64
-17.31
-17.75
-17.95
-17.91
-17.63
-17.04
-16.05
-14.58
-12.71
-10.71
-8.97
-7.89
-7.65
-8.14
-9.00
-9.72
-9.90
-9.41
-8.43
-7.40
-6.77
-6.85
-7.68
-9.02
-10.46
-11.51
-11.75
-10.89
-8.86
-5.82
-2.19
1.46
4.51
6.54
7.46
7.50
7.13
6.81
6.85
7.35
8.18
9.15
10.08
10.85
11.39
11.66
11.62
11.24
10.57
9.73
8.89
8.26
7.96
7.98
8.18
8.29
8.12
7.59
6.79
5.97
5.38
5.15
5.22
5.44
5.59
5.52
5.21
4.73
4.16
3.56
2.93
2.23
1.42
0.48
-0.63
-1.93
-3.42
-5.05
-6.73
-8.33
-9.76
-10.95
-11.91
-12.69
-13.31
-13.81
-14.15
-14.26
-14.03
-13.27
-11.83
-9.58
-6.55
-2.96
0.84
4.44
7.47
9.75
11.24
12.07
12.37
12.30
11.95
11.43
10.84
10.31
9.92
9.72
9.63
9.54
9.28
8.76
7.97
7.00
6.08
5.45
5.30
5.66
6.40
7.21
7.79
7.90
7.49
6.69
5.72
4.78
3.96
3.26
2.64
2.05
1.46
0.88
0.31
-0.28
-0.90
-1.54
-2.19
-2.83
-3.47
-4.15
-4.93
-5.84
-6.87
-7.97
-9.07
-10.15
-11.22
-12.32
-13.50
-14.71
-15.81
-16.56
-16.68
-15.96
-14.38
-12.11
-9.45
-6.71
-4.12
-1.78
0.32
2.19
3.80
5.08
5.96
6.43
6.55
6.43
6.21
5.99
5.81
5.70
5.64
5.59
5.52
5.41
5.30
5.23
5.26
5.40
5.56
5.59
5.33
4.71
3.77
2.69
1.64
0.76
0.02
-0.65
-1.35
-2.13
-2.97
-3.79
-4.57
-5.30
-6.03
-6.79
-7.62
-8.52
-9.49
-10.51
-11.53
-12.40
-12.90
-12.80
-11.93
-10.29
-8.02
-5.41
-2.78
-0.35
1.72
3.40
4.68
5.62
6.25
6.61
6.69
6.51
6.13
5.65
5.21
4.93
4.85
4.92
5.04
5.07
4.96
4.71
4.39
4.06
3.78
3.56
3.36
3.10
2.67
1.96
0.91
-0.48
-2.08
-3.71
-5.15
-6.26
-7.02
-7.49
-7.82
-8.21
-8.83
-9.74
-10.92
-12.13
-13.07
-13.38
-12.84
-11.38
-9.15
-6.39
-3.41
-0.50
2.08
4.18
5.70
6.66
7.20
7.53
7.85
8.24
8.68
9.02
9.15
9.03
8.72
8.30
7.88
7.49
7.12
6.76
6.44
6.20
6.06
6.00
5.91
5.60
4.89
3.70
2.09
0.29
-1.41
-2.76
-3.66
-4.21
-4.66
-5.23
-6.09
-7.24
-8.59
-10.04
-11.49
-12.85
-13.97
-14.60
-14.47
-13.41
-11.42
-8.75
-5.75
-2.80
-0.12
2.24
4.32
6.19
7.83
9.17
10.08
10.50
10.50
10.24
9.94
9.72
9.62
9.56
9.43
9.17
8.82
8.49
8.27
8.23
8.30
8.37
8.32
8.04
7.45
6.52
5.30
3.89
2.45
1.17
0.14
-0.64
-1.33
-2.14
-3.29
-4.86
-6.75
-8.69
-10.25
-11.00
-10.64
-9.14
-6.89
-4.62
-3.24
-3.48
-5.54
-9.00
-12.87
-15.98
-17.40
-16.71
-14.14
-10.29
-5.91
-1.61
2.24
5.47
8.00
9.85
11.07
11.85
12.43
13.08
13.94
14.96
15.88
16.34
16.02
14.81
12.89
10.65
8.57
7.08
6.38
6.44
7.03
7.81
8.48
8.83
8.79
8.36
7.63
6.69
5.69
4.76
4.03
3.51
3.12
2.65
1.90
0.70
-0.96
-2.94
-4.97
-6.74
-8.00
-8.61
-8.65
-8.38
-8.18
-8.40
-9.26
-10.76
-12.70
-14.74
-16.50
-17.67
-17.99
-17.33
-15.68
-13.14
-9.95
-6.44
-3.00
0.05
2.48
4.21
5.30
5.90
6.24
6.55
6.95
7.48
8.07
8.60
8.94
9.08
9.08
9.04
9.04
9.06
9.00
8.78
8.37
7.83
7.25
6.75
6.38
6.10
5.83
5.48
4.98
4.32
3.50
2.59
1.67
0.82
0.11
-0.46
-0.97
-1.53
-2.26
-3.23
-4.41
-5.72
-7.03
-8.22
-9.19
-9.87
-10.25
-10.37
-10.38
-10.55
-11.14
-12.29
-13.91
-15.60
-16.75
-16.78
-15.36
-12.54
-8.73
-4.55
-0.63
2.59
4.88
6.26
6.85
6.84
6.44
5.85
5.27
4.85
4.71
4.87
5.28
5.81
6.33
6.73
6.93
6.93
6.77
6.53
6.24
5.94
5.60
5.16
4.56
3.78
2.88
1.97
1.17
0.55
0.10
-0.29
-0.75
-1.38
-2.20
-3.14
-4.08
-4.90
-5.53
-5.93
-6.18
-6.44
-6.92
-7.83
-9.20
-10.87
-12.43
-13.35
-13.18
-11.72
-9.08
-5.65
-2.01
1.28
3.78
5.31
5.89
5.75
5.23
4.69
4.35
4.34
4.60
4.97
5.28
5.39
5.30
5.06
4.79
4.59
4.50
4.46
4.38
4.15
3.73
3.15
2.53
1.98
1.56
1.23
0.87
0.33
-0.44
-1.36
-2.32
-3.18
-3.89
-4.52
-5.22
-6.11
-7.31
-8.76
-10.33
-11.78
-12.85
-13.29
-12.91
-11.65
-9.54
-6.79
-3.70
-0.65
2.05
4.16
5.59
6.43
6.86
7.10
7.33
7.61
7.89
8.09
8.13
8.02
7.80
7.52
7.22
6.93
6.70
6.54
6.51
6.56
6.60
6.48
6.09
5.37
4.42
3.38
2.41
1.60
0.94
0.32
-0.38
-1.25
-2.28
-3.38
-4.43
-5.34
-6.12
-6.85
-7.67
-8.72
-10.02
-11.50
-12.94
-14.04
-14.49
-14.06
-12.63
-10.25
-7.12
-3.56
0.06
3.44
6.32
8.54
10.05
10.84
11.00
10.67
10.01
9.17
8.29
7.42
6.59
5.83
5.08
4.24
3.11
1.50
-0.68
-3.24
-5.78
-7.72
-8.62
-8.36
-7.21
-5.70
-4.35
-3.43
-2.87
-2.40
-1.73
-0.79
0.22
0.97
1.14
0.63
-0.39
-1.57
-2.52
-3.00
-3.01
-2.76
-2.55
-2.66
-3.26
-4.38
-5.97
-7.87
-9.81
-11.42
-12.27
-11.97
-10.34
-7.48
-3.80
0.11
3.70
6.54
8.50
9.62
10.13
10.27
10.25
10.21
10.22
10.27
10.33
10.41
10.52
10.67
10.81
10.86
10.73
10.39
9.90
9.39
8.98
8.71
8.49
8.18
7.70
7.04
6.27
5.49
4.70
3.83
2.82
1.63
0.34
-0.90
-1.93
-2.72
-3.34
-3.98
-4.78
-5.80
-6.95
-8.11
-9.17
-10.11
-11.04
-12.08
-13.31
-14.73
-16.17
-17.30
-17.76
-17.22
-15.49
-12.64
-9.00
-5.05
-1.36
1.68
3.89
5.34
6.26
6.94
7.56
8.18
8.75
9.15
9.29
9.14
8.79
8.35
7.98
7.78
7.76
7.91
8.13
8.33
8.46
8.44
8.27
7.95
7.51
6.96
6.33
5.62
4.82
3.96
3.09
2.26
1.54
0.91
0.32
-0.35
-1.18
-2.22
-3.44
-4.74
-5.98
-7.03
-7.84
-8.41
-8.85
-9.30
-9.94
-10.88
-12.12
-13.57
-15.05
-16.34
-17.20
-17.43
-16.81
-15.22
-12.67
-9.33
-5.58
-1.90
1.30
3.72
5.32
6.24
6.69
6.88
6.94
6.96
6.95
6.97
7.01
7.07
7.08
6.99
6.74
6.37
5.98
5.70
5.61
5.70
5.87
5.95
5.83
5.45
4.84
4.09
3.26
2.37
1.40
0.35
-0.73
-1.79
-2.73
-3.53
-4.22
-4.88
-5.59
-6.35
-7.14
-7.90
-8.64
-9.43
-10.40
-11.60
-12.96
-14.24
-15.02
-14.93
-13.69
-11.29
-7.99
-4.22
-0.50
2.74
5.21
6.87
7.86
8.45
8.89
9.31
9.68
9.87
9.77
9.42
8.99
8.70
8.67
8.81
8.94
8.82
8.41
7.82
7.28
6.97
6.87
6.82
6.55
5.88
4.77
3.31
1.67
-0.02
-1.69
-3.31
-4.85
-6.30
-7.59
-8.73
-9.74
-10.73
-11.79
-13.02
-14.37
-15.65
-16.53
-16.66
-15.78
-13.85
-11.02
-7.67
-4.21
-0.98
1.80
4.04
5.73
6.86
7.48
7.69
7.67
7.62
7.67
7.86
8.10
8.23
8.17
7.91
7.55
7.19
6.92
6.75
6.65
6.55
6.38
6.07
5.54
4.76
3.74
2.60
1.44
0.38
-0.57
-1.47
-2.41
-3.48
-4.70
-6.01
-7.32
-8.51
-9.51
-10.32
-10.99
-11.70
-12.62
-13.87
-15.35
-16.69
-17.34
-16.75
-14.63
-11.12
-6.77
-2.30
1.63
4.67
6.84
8.34
9.43
10.25
10.85
11.25
11.48
11.64
11.79
11.90
11.87
11.60
11.03
10.25
9.43
8.77
8.38
8.21
8.10
7.89
7.46
6.80
5.96
5.02
4.05
3.07
2.09
1.07
0.02
-1.07
-2.22
-3.43
-4.66
-5.88
-7.00
-7.96
-8.76
-9.46
-10.16
-10.97
-12.01
-13.33
-14.89
-16.53
-17.93
-18.67
-18.36
-16.75
-13.86
-10.00
-5.65
-1.37
2.43
5.49
7.76
9.28
10.18
10.59
10.65
10.49
10.25
10.05
9.95
9.94
9.98
9.99
9.91
9.71
9.45
9.20
9.04
9.02
9.07
9.09
8.91
8.43
7.61
6.49
5.19
3.91
2.80
1.95
1.34
0.86
0.31
-0.49
-1.61
-2.98
-4.40
-5.64
-6.53
-7.07
-7.41
-7.80
-8.42
-9.39
-10.72
-12.39
-14.34
-16.49
-18.59
-20.26
-21.00
-20.35
-18.12
-14.45
-9.83
-4.92
-0.32
3.61
6.70
8.99
10.53
11.36
11.53
11.11
10.31
9.39
8.62
8.19
8.14
8.38
8.75
9.12
9.37
9.46
9.41
9.23
8.97
8.65
8.28
7.77
7.07
6.09
4.84
3.43
2.03
0.83
-0.05
-0.66
-1.13
-1.66
-2.40
-3.39
-4.55
-5.78
-6.96
-8.02
-8.94
-9.75
-10.50
-11.27
-12.15
-13.19
-14.36
-15.50
-16.27
-16.31
-15.29
-13.08
-9.86
-6.00
-2.02
1.64
4.70
7.07
8.80
9.95
10.59
10.73
10.42
9.79
8.99
8.23
7.65
7.31
7.18
7.17
7.17
7.10
6.93
6.67
6.34
5.99
5.60
5.11
4.41
3.40
2.06
0.52
-1.05
-2.44
-3.55
-4.42
-5.20
-6.03
-6.98
-7.98
-8.93
-9.80
-10.67
-11.71
-13.01
-14.48
-15.80
-16.48
-16.10
-14.45
-11.63
-7.99
-4.00
-0.08
3.45
6.42
8.71
10.28
11.11
11.26
10.87
10.15
9.30
8.53
7.95
7.61
7.48
7.46
7.42
7.24
6.84
6.22
5.44
4.63
3.95
3.46
3.14
2.85
2.38
1.56
0.31
-1.29
-3.03
-4.68
-6.10
-7.24
-8.19
-9.04
-9.88
-10.80
-11.83
-13.02
-14.31
-15.48
-16.18
-15.96
-14.44
-11.55
-7.55
-3.03
1.30
4.86
7.33
8.70
9.23
9.26
9.15
9.09
9.14
9.26
9.37
9.38
9.29
9.11
8.89
8.65
8.40
8.10
7.72
7.24
6.63
5.89
5.03
4.09
3.09
2.05
0.92
-0.31
-1.66
-3.08
-4.47
-5.76
-6.89
-7.88
-8.76
-9.60
-10.48
-11.49
-12.73
-14.26
-15.94
-17.50
-18.46
-18.34
-16.82
-13.93
-9.99
-5.55
-1.18
2.71
5.88
8.27
9.89
10.82
11.18
11.15
10.92
10.67
10.55
10.54
10.56
10.46
10.12
9.49
8.65
7.79
7.14
6.86
6.97
7.35
7.73
7.84
7.52
6.69
5.45
3.94
2.33
0.74
-0.74
-2.09
-3.31
-4.40
-5.42
-6.41
-7.39
-8.38
-9.34
-10.25
-11.07
-11.88
-12.79
-13.95
-15.37
-16.88
-18.05
-18.31
-17.21
-14.60
-10.74
-6.20
-1.67
2.32
5.51
7.89
9.58
10.73
11.42
11.72
11.73
11.58
11.42
11.36
11.39
11.46
11.50
11.46
11.36
11.25
11.19
11.16
11.13
11.03
10.78
10.36
9.79
9.05
8.13
7.04
5.80
4.49
3.23
2.13
1.25
0.53
-0.17
-0.97
-1.92
-3.03
-4.24
-5.48
-6.76
-8.09
-9.48
-10.94
-12.43
-13.85
-15.04
-15.78
-15.83
-15.04
-13.34
-10.85
-7.83
-4.59
-1.43
1.41
3.79
5.63
6.90
7.61
7.83
7.66
7.21
6.62
5.98
5.42
5.03
4.92
5.10
5.48
5.86
6.01
5.78
5.16
4.29
3.36
2.53
1.86
1.36
0.93
0.50
-0.05
-0.81
-1.85
-3.17
-4.68
-6.23
-7.61
-8.68
-9.43
-10.00
-10.64
-11.59
-12.95
-14.58
-16.11
-17.06
-16.95
-15.57
-12.96
-9.45
-5.52
-1.68
1.66
4.24
6.01
7.06
7.60
7.86
8.03
8.18
8.32
8.43
8.51
8.59
8.72
8.87
8.96
8.86
8.51
7.93
7.23
6.53
5.94
5.48
5.13
4.84
4.50
3.95
3.06
1.76
0.09
-1.78
-3.58
-5.10
-6.23
-7.02
-7.64
-8.29
-9.13
-10.23
-11.63
-13.24
-14.89
-16.26
-16.95
-16.60
-14.92
-11.94
-7.94
-3.48
0.84
4.52
7.28
9.08
10.11
10.60
10.75
10.67
10.40
9.96
9.41
8.85
8.37
8.02
7.74
7.42
6.99
6.47
5.99
5.73
5.77
6.08
6.48
6.68
6.46
5.74
4.59
3.23
1.88
0.72
-0.21
-0.96
-1.64
-2.37
-3.19
-4.12
-5.10
-6.12
-7.15
-8.19
-9.22
-10.21
-11.13
-12.00
-12.83
-13.59
-14.11
-14.11
-13.22
-11.15
-7.86
-3.63
0.98
5.35
8.96
11.54
13.07
13.70
13.59
12.94
11.91
10.68
9.48
8.54
7.97
7.77
7.80
7.84
7.69
7.31
6.78
6.23
5.79
5.52
5.35
5.18
4.88
4.40
3.71
2.81
1.77
0.66
-0.44
-1.44
-2.31
-3.07
-3.77
-4.51
-5.34
-6.27
-7.28
-8.29
-9.24
-10.03
-10.66
-11.13
-11.60
-12.25
-13.24
-14.59
-16.08
-17.29
-17.69
-16.88
-14.69
-11.28
-7.07
-2.59
1.67
5.39
8.37
10.54
11.93
12.60
12.67
12.30
11.70
11.03
10.46
10.07
9.85
9.76
9.70
9.58
9.36
9.04
8.67
8.30
7.95
7.60
7.22
6.73
6.10
5.25
4.18
2.86
1.31
-0.39
-2.09
-3.61
-4.80
-5.59
-6.08
-6.46
-7.02
-7.94
-9.27
-10.88
-12.52
-13.98
-15.16
-16.12
-17.01
-18.00
-19.22
-20.71
-22.42
-24.16
-25.63
-26.39
-25.99
-24.09
-20.63
-15.91
-10.50
-5.07
-0.19
3.82
6.88
9.11
10.65
11.64
12.21
12.47
12.55
12.59
12.71
12.93
13.20
13.40
13.44
13.26
12.93
12.55
12.22
12.02
11.95
11.91
11.81
11.48
10.77
9.62
8.03
6.17
4.25
2.51
1.06
-0.12
-1.17
-2.26
-3.50
-4.87
-6.25
-7.53
-8.65
-9.64
-10.62
-11.63
-12.61
-13.36
-13.54
-12.83
-11.05
-8.27
-4.78
-1.03
2.54
5.57
7.91
9.51
10.41
10.66
10.36
9.63
8.65
7.66
6.86
6.40
6.26
6.34
6.43
6.34
5.98
5.36
4.66
4.07
3.74
3.67
3.71
3.61
3.12
2.09
0.55
-1.31
-3.22
-4.93
-6.32
-7.43
-8.37
-9.30
-10.35
-11.61
-13.09
-14.77
-16.48
-17.90
-18.61
-18.17
-16.31
-13.11
-8.99
-4.61
-0.61
2.57
4.87
6.42
7.49
8.26
8.78
9.01
8.85
8.25
7.28
6.06
4.82
3.77
3.07
2.76
2.72
2.80
2.85
2.82
2.78
2.80
2.88
2.89
2.65
2.03
1.00
-0.32
-1.71
-2.99
-4.03
-4.80
-5.29
-5.59
-5.81
-6.17
-6.90
-8.08
-9.59
-11.01
-11.78
-11.38
-9.54
-6.32
-2.13
2.50
7.00
10.96
14.10
16.30
17.57
17.99
17.75
17.12
16.34
15.61
15.02
14.54
14.10
13.57
12.88
11.94
10.67
8.98
6.77
4.03
0.89
-2.38
-5.43
-7.95
-9.79
-11.04
-11.92
-12.71
-13.56
-14.48
-15.35
-16.03
-16.45
-16.63
-16.65
-16.61
-16.54
-16.49
-16.50
-16.67
-17.03
-17.51
-17.89
-17.82
-16.87
-14.76
-11.41
-7.05
-2.12
2.82
7.27
10.90
13.60
15.45
16.62
17.29
17.60
17.62
17.36
16.86
16.11
15.15
14.08
13.00
12.02
11.25
10.73
10.41
10.16
9.85
9.35
8.63
7.77
6.88
6.09
5.43
4.88
4.31
3.52
2.32
0.55
-1.86
-4.92
-8.57
-12.64
-16.76
-20.32
-22.53
-22.70
-20.50
-16.20
-10.68
-5.09
-0.48
2.58
4.10
4.52
4.41
4.26
4.42
5.20
6.96
10.00
14.25
19.09
23.31
25.50
24.59
20.29
13.19
4.52
-4.44
-12.74
-19.90
-25.74
-30.06
-32.50
-32.59
-29.99
-24.83
-17.67
-9.49
-1.31
5.92
11.46
14.77
15.47
13.38
8.61
1.62
-6.82
-15.71
-24.00
-30.85
-35.78
-38.69
-39.81
-39.54
-38.27
-36.27
-33.63
-30.37
-26.55
-22.26
-17.71
-13.10
-8.49
-3.86
0.95
6.02
11.23
16.30
20.77
24.25
26.48
27.42
27.19
25.91
23.67
20.50
16.41
11.55
6.26
1.06
-3.48
-6.87
-8.85
-9.44
-8.89
-7.57
-5.87
-4.07
-2.42
-1.06
-0.09
0.44
0.58
0.47
0.36
0.47
0.97
1.85
2.94
3.96
4.65
4.85
4.52
3.67
2.30
0.35
-2.21
-5.26
-8.48
-11.29
-13.05
-13.26
-11.74
-8.69
-4.62
-0.16
4.09
7.67
10.23
11.60
11.79
11.04
9.87
8.94
8.85
9.98
12.29
15.43
18.85
22.09
24.96
27.47
29.77
31.99
34.09
35.94
37.44
38.61
39.63
40.77
42.25
44.12
46.19
48.07
49.24
49.17
47.43
43.81
38.35
31.44
23.65
15.70
8.24
1.71
-3.71
-8.15
-11.89
-15.29
-18.59
-21.91
-25.15
-28.08
-30.39
-31.76
-31.93
-30.77
-28.30
-24.69
-20.30
-15.54
-10.83
-6.46
-2.52
1.03
4.32
7.47
10.65
14.03
17.85
22.35
27.60
33.39
39.19
44.25
47.88
49.59
49.18
46.61
41.91
35.11
26.38
16.21
5.39
-5.14
-14.60
-22.60
-29.09
-34.17
-37.76
-39.51
-38.94
-35.84
-30.63
-24.44
-18.80
-15.18
-14.47
-16.73
-21.26
-26.90
-32.40
-36.69
-39.11
-39.45
-38.02
-35.51
-32.80
-30.62
-29.30
-28.65
-28.12
-27.03
-24.88
-21.53
-17.13
-11.95
-6.29
-0.40
5.40
10.67
14.83
17.36
17.94
16.69
14.13
11.04
8.23
6.25
5.31
5.32
6.03
7.19
8.62
10.27
12.02
13.74
15.26
16.41
17.12
17.37
17.18
16.51
15.33
13.68
11.72
9.78
8.17
7.08
6.43
5.96
5.30
4.18
2.59
0.71
-1.20
-2.93
-4.44
-5.79
-7.14
-8.60
-10.18
-11.84
-13.49
-15.09
-16.66
-18.18
-19.57
-20.61
-21.00
-20.48
-18.90
-16.38
-13.21
-9.85
-6.68
-3.98
-1.83
-0.20
1.00
1.87
2.44
2.72
2.73
2.55
2.33
2.20
2.27
2.54
2.91
3.23
3.38
3.31
3.11
2.89
2.75
2.72
2.67
2.36
1.51
-0.13
-2.69
-6.12
-10.23
-14.74
-19.35
-23.89
-28.24
-32.36
-36.10
-39.24
-41.46
-42.39
-41.70
-39.17
-34.69
-28.41
-20.73
-12.37
-4.29
2.56
7.52
10.42
11.70
12.15
12.61
13.63
15.27
17.19
18.83
19.74
19.76
18.99
17.72
16.24
14.74
13.29
11.97
10.92
10.32
10.33
10.94
11.93
12.88
13.33
12.91
11.45
9.07
6.10
2.96
0.10
-2.17
-3.69
-4.51
-4.86
-5.00
-5.23
-5.76
-6.71
-8.04
-9.61
-11.12
-12.22
-12.58
-11.98
-10.41
-8.02
-5.09
-1.95
1.12
3.88
6.16
7.77
8.57
8.52
7.71
6.38
4.87
3.48
2.39
1.61
1.03
0.46
-0.24
-1.18
-2.40
-3.84
-5.38
-6.76
-7.60
-7.49
-6.13
-3.49
0.08
3.98
7.51
10.08
11.42
11.58
10.87
9.63
8.15
6.54
4.76
2.73
0.37
-2.33
-5.28
-8.25
-11.00
-13.24
-14.76
-15.41
-15.17
-14.10
-12.32
-10.07
-7.65
-5.45
-3.85
-3.15
-3.50
-4.76
-6.65
-8.81
-11.00
-13.12
-15.13
-16.90
-18.20
-18.71
-18.14
-16.38
-13.58
-10.00
-5.93
-1.54
3.06
7.80
12.52
16.99
20.88
23.95
26.07
27.25
27.64
27.42
26.77
25.81
24.62
23.21
21.60
19.80
17.87
15.87
13.90
12.04
10.29
8.59
6.88
5.03
2.99
0.71
-1.78
-4.31
-6.59
-8.18
-8.50
-6.94
-3.21
2.66
10.21
18.67
26.97
34.01
39.02
41.81
42.72
42.25
40.80
38.52
35.34
31.12
25.94
20.27
14.87
10.51
7.29
4.70
2.13
-0.58
-3.13
-4.59
-3.72
0.51
8.33
18.24
28.14
36.66
43.68
49.38
53.58
55.56
54.21
48.77
37.78
21.08
1.10
-17.66
-31.38
-38.05
-37.59
-31.17
-20.50
-9.92
-3.86
-4.32
-10.06
-19.96
-32.68
-46.78
-60.15
-70.50
-79.61
-91.68
-110.50
-137.44
-174.88
-223.08
-279.81
-340.35
-376.15
-365.06
-308.91
-232.31
-159.48
-104.93
-70.08
-50.29
-38.78
-31.74
-25.19
-16.86
-4.25
16.84
44.52
76.75
111.19
147.99
185.56
221.48
254.98
275.22
294.43
302.46
290.73
254.32
195.56
124.05
53.63
0.23
-24.31
-15.60
17.44
62.84
108.59
145.83
168.92
163.71
125.96
67.55
8.43
-40.31
-74.03
-93.55
-101.13
-99.98
-94.69
-88.46
-84.03
-82.08
-83.69
-85.72
-82.10
-64.79
-33.25
5.34
42.74
72.97
92.19
101.36
98.78
84.53
61.41
33.61
6.26
-15.86
-28.23
-30.29
-25.41
-18.34
-12.10
-7.67
-5.01
-3.09
0.03
5.96
14.78
25.30
35.32
42.83
45.56
40.84
27.06
4.95
-22.27
-50.12
-74.00
-90.56
-97.93
-96.16
-86.92
-72.53
-55.13
-36.53
-18.55
-2.97
8.51
14.87
15.74
11.42
2.97
-7.75
-18.41
-26.75
-31.26
-31.66
-28.92
-24.94
-21.69
-20.58
-22.09
-25.70
-30.07
-33.57
-34.38
-31.32
-24.78
-17.28
-13.39
-18.43
-36.26
-67.14
-106.78
-147.39
-180.18
-198.09
-197.34
-177.86
-142.46
-95.88
-43.91
7.47
52.26
85.17
102.58
104.64
95.17
80.67
67.72
60.85
61.96
69.80
80.91
90.90
97.98
102.51
106.49
111.37
117.21
124.00
131.43
139.14
145.39
149.36
149.67
144.59
132.19
112.35
89.20
69.12
57.77
56.05
62.95
75.96
93.18
113.64
128.81
132.21
120.92
105.71
85.82
59.78
25.57
-11.45
-43.92
-66.09
-75.05
-72.27
-62.60
-53.29
-48.16
-48.13
-52.05
-59.34
-70.23
-84.01
-99.33
-114.40
-129.07
-143.00
-156.93
-171.90
-188.78
-206.19
-219.43
-222.42
-210.50
-183.59
-145.09
-101.05
-57.78
-20.33
8.73
29.25
42.16
48.42
48.40
43.15
34.49
25.13
17.53
13.20
12.34
13.76
15.50
15.57
12.80
6.86
-2.04
-13.53
-26.87
-40.48
-51.60
-56.53
-51.85
-35.86
-9.90
21.51
51.70
73.99
83.74
79.71
64.05
41.16
16.08
-6.80
-24.49
-35.39
-39.03
-35.94
-27.66
-16.67
-6.08
1.07
2.78
-1.31
-9.82
-20.08
-28.89
-33.37
-31.49
-22.44
-6.90
13.05
34.23
53.16
67.02
74.43
75.83
73.10
68.74
64.91
62.85
62.71
63.99
65.94
67.87
69.31
69.90
69.43
67.75
64.90
61.19
57.16
53.45
50.52
48.52
47.26
46.32
45.29
44.03
42.69
41.59
40.90
40.45
39.65
37.71
34.04
28.57
21.95
15.28
9.70
5.88
3.72
2.38
0.69
-2.33
-7.01
-12.87
-18.73
-23.30
-25.59
-25.28
-22.95
-20.09
-18.91
-21.87
-30.94
-46.62
-67.17
-88.62
-105.76
-113.94
-111.00
-98.17
-79.56
-60.42
-45.01
-35.28
-30.73
-29.53
-29.84
-30.61
-31.54
-32.44
-32.73
-31.52
-28.02
-22.11
-14.62
-7.04
-0.78
3.27
5.06
5.34
5.14
5.38
6.49
8.33
10.39
12.05
12.90
12.93
12.48
12.08
12.10
12.60
13.30
13.79
13.73
13.04
11.91
10.68
9.59
8.70
7.82
6.60
4.77
2.31
-0.43
-2.79
-4.08
-3.80
-1.95
1.01
4.25
6.91
8.42
8.65
7.86
6.50
4.98
3.47
1.97
0.41
-1.14
-2.34
-2.64
-1.51
1.30
5.44
10.03
14.01
16.44
16.99
16.00
14.27
12.72
12.10
12.79
14.78
17.67
20.77
23.10
23.64
21.65
17.00
10.35
2.98
-3.67
-8.60
-11.49
-12.66
-12.79
-12.58
-12.48
-12.74
-13.38
-14.48
-16.00
-17.73
-19.19
-19.89
-19.51
-18.01
-15.66
-12.86
-10.33
-8.66
-8.05
-8.16
-8.20
-7.12
-3.82
2.63
12.60
24.93
37.61
48.52
56.29
60.49
61.52
60.29
58.00
55.93
54.10
52.60
52.03
53.60
58.00
64.25
69.13
68.15
57.26
33.02
-4.65
-51.90
-101.91
-147.80
-185.60
-215.78
-242.23
-260.07
-264.90
-254.66
-231.92
-201.97
-170.11
-140.26
-114.55
-92.26
-69.68
-43.72
-13.70
17.17
43.19
59.06
64.31
62.63
61.16
67.31
83.57
106.98
129.20
142.52
143.90
136.01
125.03
116.79
113.43
111.68
105.73
90.82
66.38
37.70
10.71
-8.85
-17.35
-14.56
-4.03
8.92
19.58
25.14
25.61
23.92
22.10
20.73
19.03
15.47
8.99
-0.37
-11.29
-21.84
-30.62
-37.34
-42.59
-47.00
-50.72
-53.18
-53.33
-50.10
-43.03
-32.84
-21.33
-10.67
-2.64
1.90
3.23
2.46
0.78
-1.09
-3.35
-6.84
-12.37
-20.19
-29.71
-39.60
-48.18
-54.10
-56.68
-56.10
-53.10
-48.79
-44.29
-40.40
-37.39
-34.94
-32.38
-29.09
-24.90
-19.85
-14.57
-9.97
-6.82
-5.25
-4.77
-4.63
-4.25
-3.53
-1.91
0.91
4.99
10.23
16.55
23.97
32.43
41.56
50.68
60.11
69.75
78.88
86.35
91.48
94.74
97.74
102.49
110.60
124.24
143.75
167.17
190.84
210.88
224.59
230.95
230.34
213.92
178.22
126.43
67.55
11.13
-36.70
-73.37
-98.38
-112.47
-117.43
-114.41
-105.71
-94.82
-85.73
-81.57
-83.58
-90.92
-101.27
-112.00
-119.69
-122.43
-120.56
-116.12
-111.50
-108.40
-107.15
-106.78
-105.15
-98.83
-85.36
-64.76
-39.86
-15.01
6.04
22.02
33.93
43.69
52.59
59.70
62.50
58.81
49.24
36.28
24.09
15.96
12.84
13.35
15.00
15.59
14.28
11.13
6.70
1.85
-2.67
-5.97
-7.07
-5.20
-0.29
6.70
13.98
19.52
22.04
21.21
17.60
12.12
5.46
-2.03
-10.20
-18.61
-26.41
-32.44
-35.88
-36.58
-35.27
-33.15
-31.41
-30.76
-31.31
-32.69
-34.26
-35.46
-35.88
-34.99
-32.57
-28.62
-23.40
-17.53
-11.90
-7.45
-4.91
-4.47
-5.67
-7.56
-8.97
-8.82
-6.47
-1.71
5.23
13.84
23.49
33.43
42.89
51.09
57.40
61.36
62.86
62.07
59.42
55.46
50.71
45.59
40.37
35.29
30.50
26.16
22.38
19.18
16.49
14.18
12.08
10.03
7.95
5.81
3.64
1.49
-0.54
-2.40
-4.04
-5.43
-6.55
-7.40
-7.96
-8.30
-8.59
-9.05
-9.84
-11.02
-12.48
-13.94
-15.10
-15.69
-15.70
-15.36
-15.07
-15.19
-15.95
-17.36
-19.19
-21.03
-22.28
-22.53
-21.75
-20.19
-18.32
-16.62
-15.43
-14.78
-14.44
-13.88
-13.07
-12.64
-13.49
-16.30
-21.25
-27.80
-34.74
-40.60
-43.51
-42.89
-39.43
-34.54
-29.78
-26.78
-27.29
-32.80
-43.76
-57.79
-71.12
-78.80
-75.34
-56.42
-21.15
26.78
79.93
129.74
170.62
198.96
212.84
211.78
196.32
167.78
128.95
84.80
35.77
-8.33
-36.45
-45.27
-40.74
-31.85
-24.45
-20.09
-17.38
-16.78
-18.83
-25.13
-36.64
-51.68
-65.78
-74.01
-71.44
-56.38
-32.29
-4.48
21.92
43.78
59.85
70.31
75.47
75.74
72.24
67.12
63.83
64.75
69.65
75.31
77.44
71.40
53.96
24.94
-12.39
-52.18
-88.12
-115.62
-134.78
-146.29
-151.97
-153.92
-153.79
-153.33
-153.97
-155.67
-153.85
-145.35
-125.44
-91.36
-44.64
8.39
60.45
103.73
133.35
148.32
150.17
142.43
128.15
106.91
83.00
60.30
41.71
28.81
21.85
17.60
13.15
6.48
-2.78
-12.65
-20.86
-25.72
-26.58
-23.99
-19.53
-14.47
-9.83
-6.09
-2.86
0.00
2.52
4.82
6.62
7.78
8.48
8.87
8.91
8.68
7.99
6.71
5.02
3.29
1.84
0.89
0.38
0.07
-0.16
-0.48
-0.98
-1.68
-2.53
-3.43
-4.22
-4.80
-5.21
-5.72
-6.81
-8.94
-12.21
-16.21
-19.98
-22.40
-22.57
-20.27
-15.92
-10.37
-4.53
0.96
5.86
10.21
14.12
17.58
20.44
22.50
23.65
23.97
23.67
23.03
22.28
21.53
20.77
19.93
18.91
17.66
16.08
13.94
10.84
6.18
-0.54
-9.50
-20.27
-31.89
-43.15
-53.04
-61.05
-67.29
-72.15
-75.97
-78.64
-79.57
-77.89
-72.80
-63.95
-51.57
-36.50
-20.01
-3.57
11.36
23.64
32.57
38.04
40.42
40.41
38.81
36.35
33.55
30.70
27.91
25.25
22.76
20.47
18.37
16.39
14.43
12.39
10.30
8.29
6.58
5.33
4.52
3.97
3.42
2.69
1.81
1.07
0.86
1.51
3.14
5.55
8.31
10.90
12.85
13.92
14.08
13.52
12.48
11.23
9.99
8.94
8.19
7.86
8.02
8.63
9.56
10.64
11.71
12.66
13.48
14.21
14.85
15.38
15.85
16.35
17.02
17.96
19.07
20.03
20.38
19.77
18.09
15.59
12.76
10.14
8.17
6.99
6.46
6.07
5.01
2.24
-3.07
-11.12
-21.08
-31.15
-39.03
-42.79
-41.58
-35.90
-27.32
-17.72
-8.63
-0.84
5.51
10.53
14.25
16.43
16.69
14.75
10.58
4.55
-2.65
-10.09
-16.80
-21.89
-24.78
-25.35
-23.98
-21.38
-18.43
-15.84
-13.98
-12.81
-12.03
-11.19
-9.98
-8.20
-5.85
-3.05
-0.00
3.05
5.68
7.32
7.37
5.34
1.16
-4.70
-11.27
-17.31
-21.69
-23.77
-23.58
-21.64
-18.66
-15.31
-12.08
-9.36
-7.53
-6.94
-7.72
-9.52
-11.47
-12.46
-11.61
-8.69
-4.33
0.32
4.05
6.14
6.55
5.76
4.37
2.92
1.76
1.17
1.48
3.07
6.22
10.85
16.43
22.12
27.11
30.82
33.02
33.79
33.27
31.62
28.95
25.39
21.21
16.90
13.02
10.02
8.11
7.14
6.79
6.64
6.38
6.03
5.88
6.31
7.42
8.96
10.36
11.09
10.71
9.05
6.38
3.49
1.29
0.30
0.48
1.03
0.95
-1.10
-6.25
-14.55
-24.56
-33.82
-39.99
-41.60
-38.89
-33.50
-28.91
-29.33
-37.39
-52.17
-68.96
-81.09
-82.19
-68.96
-41.86
-5.93
30.79
60.35
77.17
78.34
62.51
30.08
-17.94
-71.08
-112.18
-127.89
-116.24
-84.85
-45.02
-8.73
20.58
42.20
57.36
67.22
72.14
72.78
69.02
63.13
57.97
53.71
50.47
48.36
46.16
41.41
32.09
18.57
4.01
-7.53
-12.55
-9.86
-0.74
11.21
21.53
26.97
26.67
21.99
15.08
7.92
1.79
-2.57
-4.87
-5.12
-3.37
0.15
4.86
9.50
12.62
13.24
11.30
7.52
3.03
-1.21
-4.70
-7.47
-9.85
-12.15
-14.29
-15.96
-16.95
-17.21
-17.03
-16.85
-16.95
-17.26
-17.33
-16.39
-13.85
-9.61
-4.28
1.04
5.09
7.02
6.75
5.04
3.33
3.00
4.76
8.19
11.91
14.18
13.66
10.02
4.07
-2.44
-7.65
-10.31
-10.17
-7.78
-4.41
-1.83
-1.81
-6.77
-18.16
-35.03
-53.34
-67.09
-70.54
-61.20
-41.46
-17.86
1.95
12.95
14.92
11.86
8.80
9.48
14.67
22.41
29.63
34.04
35.34
34.78
33.99
33.77
33.87
33.18
30.54
25.57
18.80
11.33
3.86
-4.07
-13.56
-24.67
-35.53
-43.12
-45.09
-41.30
-33.86
-25.84
-19.68
-15.91
-13.15
-9.41
-3.55
3.94
11.39
17.01
19.83
20.13
19.14
18.23
18.02
18.35
17.99
16.08
12.67
8.71
5.53
4.15
4.76
6.65
8.55
9.29
8.44
6.40
4.00
2.07
1.00
0.61
0.37
-0.26
-1.63
-3.68
-5.87
-7.54
-8.20
-7.70
-6.26
-4.39
-2.67
-1.58
-1.20
-1.27
-1.37
-1.11
-0.34
0.82
2.04
3.06
3.77
4.32
5.02
6.09
7.55
9.24
10.86
12.15
12.95
13.29
13.28
13.12
12.99
13.03
13.36
14.07
15.14
16.39
17.55
18.31
18.52
18.32
18.12
18.29
18.79
18.98
17.74
14.10
7.88
0.05
-7.55
-12.88
-14.69
-12.91
-8.50
-2.84
2.87
7.81
11.34
12.80
11.57
7.48
1.20
-5.79
-11.61
-14.91
-15.37
-13.72
-11.20
-8.86
-7.15
-6.05
-5.38
-5.22
-5.82
-7.41
-9.82
-12.39
-14.29
-14.94
-14.36
-13.20
-12.46
-12.85
-14.50
-16.95
-19.44
-21.43
-22.93
-24.34
-26.10
-28.16
-29.80
-29.94
-27.81
-23.50
-18.07
-13.09
-9.83
-8.65
-8.92
-9.45
-9.23
-7.96
-6.11
-4.54
-3.83
-3.93
-4.18
-3.73
-2.04
0.83
4.25
7.33
9.34
9.98
9.46
8.27
6.94
5.80
4.89
4.00
2.86
1.26
-0.78
-3.02
-5.08
-6.60
-7.29
-6.98
-5.62
-3.25
-0.04
3.62
7.30
10.79
14.35
18.60
23.99
30.25
36.08
39.60
39.22
34.61
26.94
18.37
11.01
6.12
3.89
3.87
5.50
8.27
11.57
14.39
15.41
13.56
8.62
1.54
-6.06
-12.59
-17.23
-20.08
-21.90
-23.51
-25.48
-27.98
-30.95
-34.17
-37.24
-39.55
-40.30
-38.75
-34.54
-27.88
-19.57
-10.70
-2.26
5.13
11.35
16.50
20.69
23.80
25.50
25.43
23.60
20.51
17.04
14.17
12.51
12.11
12.39
12.50
11.64
9.24
5.06
-0.77
-7.74
-14.95
-21.15
-25.00
-25.49
-22.32
-16.03
-7.77
1.11
9.55
16.83
22.62
26.75
29.18
29.93
29.30
27.99
27.03
27.45
29.64
33.25
37.24
40.30
41.35
39.93
36.52
32.27
28.53
26.20
25.64
26.66
28.73
30.55
30.45
26.93
19.34
8.46
-4.14
-16.07
-24.82
-28.24
-26.49
-21.33
-15.53
-11.52
-10.72
-14.18
-21.45
-30.73
-38.89
-45.09
-49.93
-54.88
-60.45
-65.77
-70.53
-73.99
-75.31
-72.62
-67.18
-61.01
-55.94
-52.15
-49.20
-49.12
-53.90
-64.02
-75.94
-88.12
-99.52
-110.80
-122.92
-123.51
-106.46
-74.87
-51.00
-36.12
-27.51
-17.15
-3.31
13.53
31.87
47.61
57.34
59.37
55.44
44.15
23.80
-4.05
-32.69
-51.65
-54.24
-39.72
-12.48
22.09
54.09
80.58
99.66
111.57
117.78
118.73
114.95
105.14
91.97
77.77
65.23
55.71
49.94
47.67
46.97
45.54
41.90
36.44
29.51
21.94
14.10
6.71
0.74
-3.12
-4.38
-2.80
1.89
9.06
17.79
26.68
34.53
40.49
43.92
44.45
42.19
37.88
32.51
27.24
22.87
19.84
18.18
17.53
17.20
16.43
14.58
11.27
6.63
1.30
-3.54
-6.47
-6.27
-2.49
4.32
12.71
20.69
26.45
28.87
27.73
23.48
16.90
8.91
0.59
-6.78
-11.70
-12.79
-9.48
-2.41
6.62
15.29
21.64
24.76
24.83
22.78
19.67
16.17
12.57
8.85
5.00
1.06
-2.90
-6.76
-10.28
-13.09
-14.75
-14.87
-13.38
-10.65
-7.43
-4.43
-2.05
-0.30
0.96
1.89
2.60
3.12
3.49
3.72
3.49
1.85
-2.72
-11.67
-25.44
-42.65
-60.28
-74.60
-82.76
-83.91
-79.46
-72.13
-64.62
-58.50
-53.96
-50.44
-47.31
-44.39
-42.01
-40.47
-39.75
-39.39
-38.89
-37.95
-36.59
-35.08
-33.53
-31.80
-29.45
-26.05
-21.49
-16.10
-10.54
-5.55
-1.68
0.86
2.13
2.40
1.96
1.11
0.13
-0.72
-1.24
-1.37
-1.24
-1.12
-1.35
-2.19
-3.69
-5.66
-7.74
-9.52
-10.72
-11.26
-11.23
-10.75
-9.80
-8.12
-5.38
-1.35
3.80
9.41
14.49
18.09
19.64
19.22
17.45
15.10
12.81
10.85
9.22
7.84
6.67
5.81
5.36
5.32
5.51
5.59
5.25
4.27
2.66
0.60
-1.57
-3.37
-4.29
-3.96
-2.40
-0.07
2.24
3.59
3.23
0.93
-2.80
-6.84
-10.07
-11.83
-12.13
-11.54
-10.95
-11.11
-12.35
-14.18
-15.51
-15.45
-13.81
-11.17
-8.54
-7.00
-7.27
-9.57
-13.02
-16.03
-17.33
-16.54
-14.13
-10.94
-7.91
-5.84
-5.41
-6.45
-7.98
-8.84
-7.76
-3.10
7.32
25.54
52.44
83.06
108.58
122.50
123.71
115.00
100.82
85.58
72.35
62.13
54.02
46.84
40.06
33.35
26.31
18.35
8.84
-2.73
-16.35
-31.18
-45.70
-57.31
-63.90
-64.72
-60.36
-52.19
-41.99
-31.50
-22.26
-15.14
-10.26
-7.37
-6.10
-5.87
-6.04
-6.07
-5.80
-5.27
-4.54
-3.46
-1.85
0.23
2.47
4.51
6.04
6.96
7.53
8.26
9.73
12.10
15.02
17.79
19.71
20.45
20.08
19.00
17.61
16.11
14.41
12.22
9.32
5.64
1.33
-3.36
-8.09
-12.48
-16.08
-18.40
-19.06
-17.90
-15.07
-11.10
-6.72
-2.67
0.51
2.60
3.64
3.84
3.44
2.66
1.68
0.71
-0.09
-0.59
-0.80
-0.83
-0.90
-1.21
-1.81
-2.63
-3.42
-3.93
-3.98
-3.52
-2.66
-1.56
-0.40
0.70
1.61
2.26
2.59
2.63
2.43
2.11
1.73
1.35
0.92
0.35
-0.46
-1.57
-2.95
-4.51
-6.10
-7.60
-8.90
-9.96
-10.70
-11.08
-11.04
-10.52
-9.49
-7.98
-6.08
-3.96
-1.78
0.31
2.23
3.92
5.35
6.50
7.31
7.78
7.94
7.95
8.00
8.29
8.89
9.74
10.66
11.42
11.87
11.96
11.73
11.26
10.62
9.87
9.08
8.30
7.58
6.93
6.33
5.70
5.00
4.24
3.47
2.71
1.95
1.18
0.43
-0.13
-0.26
0.16
0.97
1.67
1.69
0.76
-0.73
-1.80
-1.27
1.57
6.57
12.72
18.66
23.39
26.65
28.92
31.04
33.69
37.07
40.96
45.04
49.07
52.80
55.77
57.19
56.16
52.15
45.43
37.21
29.32
23.61
21.13
21.43
22.41
20.99
14.37
1.42
-16.58
-36.20
-53.34
-64.97
-70.24
-70.50
-68.30
-65.86
-64.07
-62.52
-60.44
-57.69
-54.98
-53.35
-53.26
-54.20
-54.86
-53.82
-50.35
-44.59
-37.42
-29.89
-22.61
-15.74
-9.30
-3.45
1.53
5.40
8.13
10.02
11.49
13.17
15.41
17.97
20.25
21.79
22.62
23.23
24.19
25.69
27.96
30.82
33.40
34.45
33.13
29.44
23.98
17.45
10.31
3.69
-1.23
-4.03
-5.64
-8.35
-15.66
-31.67
-59.09
-96.70
-137.04
-168.71
-181.05
-168.50
-132.25
-78.99
-17.77
47.28
106.57
150.98
176.74
184.31
174.67
149.25
112.13
71.79
33.07
-0.30
-25.70
-42.89
-53.79
-61.28
-67.62
-71.18
-71.29
-68.43
-63.94
-58.87
-53.88
-48.99
-43.60
-36.75
-27.64
-16.72
-5.52
4.39
13.14
19.96
23.97
25.05
24.11
22.61
21.66
21.88
23.50
26.27
29.30
31.86
33.72
35.24
36.93
39.11
40.69
40.38
37.42
31.86
24.82
17.89
12.20
7.94
4.48
0.93
-3.09
-7.38
-11.47
-14.63
-15.88
-14.73
-11.15
-5.57
1.29
8.62
15.57
21.40
25.64
28.25
29.38
29.21
27.81
25.13
21.20
16.39
11.40
7.15
4.30
2.85
2.13
1.22
-0.55
-3.10
-5.65
-7.31
-7.56
-6.66
-5.54
-5.16
-5.87
-7.19
-7.99
-7.11
-3.98
1.10
7.06
12.40
15.78
16.33
13.74
8.21
0.14
-9.98
-21.71
-34.54
-47.86
-60.75
-72.10
-80.66
-85.31
-85.35
-80.70
-71.95
-60.28
-47.19
-34.12
-22.21
-12.07
-3.80
2.89
8.49
13.48
18.30
23.19
28.21
33.13
37.42
40.23
40.67
38.16
32.79
25.47
17.72
11.24
7.32
6.48
8.40
12.13
16.46
20.30
22.90
23.87
23.20
21.17
18.22
14.86
11.54
8.54
6.02
3.98
2.40
1.22
0.41
-0.10
-0.42
-0.71
-1.11
-1.69
-2.41
-3.08
-3.46
-3.36
-2.74
-1.73
-0.58
0.45
1.23
1.76
2.17
2.65
3.25
3.94
4.59
5.06
5.34
5.47
5.59
5.76
5.92
5.93
5.62
4.97
4.10
3.23
2.59
2.24
2.11
2.05
1.91
1.67
1.39
1.16
1.02
0.88
0.61
0.08
-0.76
-1.88
-3.11
-4.30
-5.31
-6.08
-6.61
-6.94
-7.12
-7.22
-7.29
-7.40
-7.64
-8.03
-8.56
-9.18
-9.80
-10.27
-10.50
-10.37
-9.79
-8.72
-7.16
-5.19
-2.94
-0.59
1.68
3.76
5.57
7.03
8.10
8.72
8.90
8.71
8.26
7.67
7.05
6.43
5.87
5.39
5.08
4.99
5.17
5.58
6.16
6.79
7.39
7.92
8.33
8.60
8.61
8.27
7.48
6.27
4.71
2.95
1.15
-0.54
-2.02
-3.26
-4.29
-5.21
-6.19
-7.43
-9.07
-11.12
-13.44
-15.72
-17.62
-18.84
-19.20
-18.72
-17.55
-15.97
-14.28
-12.75
-11.54
-10.69
-10.11
-9.69
-9.29
-8.90
-8.53
-8.22
-7.99
-7.77
-7.43
-6.82
-5.85
-4.51
-2.92
-1.26
0.30
1.63
2.66
3.40
3.83
3.92
3.60
2.78
1.49
-0.16
-1.93
-3.54
-4.74
-5.39
-5.49
-5.16
-4.61
-4.04
-3.63
-3.48
-3.62
-4.03
-4.59
-5.12
-5.33
-4.97
-3.91
-2.21
-0.17
1.79
3.32
4.27
4.74
4.99
5.24
5.62
6.01
6.28
6.30
6.07
5.75
5.48
5.32
5.27
5.23
5.12
4.94
4.77
4.72
4.86
5.17
5.52
5.74
5.70
5.35
4.76
4.09
3.46
2.96
2.59
2.26
1.89
1.40
0.73
-0.13
-1.22
-2.53
-4.05
-5.68
-7.26
-8.58
-9.40
-9.54
-8.96
-7.74
-6.08
-4.25
-2.45
-0.80
0.72
2.14
3.51
4.79
5.91
6.78
7.36
7.70
7.86
7.92
7.99
8.11
8.34
8.70
9.16
9.62
9.99
10.18
10.16
9.95
9.55
8.93
8.00
6.69
4.99
3.00
0.91
-1.06
-2.76
-4.14
-5.25
-6.17
-6.99
-7.77
-8.56
-9.41
-10.36
-11.44
-12.65
-13.90
-15.08
-16.00
-16.46
-16.28
-15.36
-13.72
-11.50
-8.97
-6.43
-4.15
-2.27
-0.82
0.30
1.25
2.20
3.33
4.79
6.68
8.92
11.28
13.34
14.68
15.00
14.29
12.83
11.11
9.59
8.59
8.15
8.07
8.07
7.89
7.39
6.56
5.45
4.13
2.66
1.09
-0.53
-2.11
-3.55
-4.79
-5.84
-6.75
-7.57
-8.34
-9.04
-9.64
-10.17
-10.71
-11.35
-12.10
-12.84
-13.35
-13.37
-12.72
-11.42
-9.63
-7.60
-5.58
-3.66
-1.80
0.07
2.03
4.04
5.94
7.55
8.80
9.71
10.44
11.11
11.78
12.36
12.71
12.73
12.43
11.93
11.39
10.91
10.48
10.05
9.57
9.01
8.35
7.59
6.70
5.65
4.51
3.37
2.41
1.76
1.43
1.30
1.12
0.62
-0.38
-1.89
-3.78
-5.77
-7.57
-8.89
-9.51
-9.35
-8.50
-7.18
-5.70
-4.31
-3.13
-2.13
-1.16
-0.04
1.29
2.77
4.26
5.59
6.66
7.45
8.00
8.41
8.74
9.07
9.43
9.83
10.25
10.69
11.09
11.47
11.84
12.24
12.74
13.35
14.08
14.88
15.69
16.43
17.05
17.49
17.78
17.93
18.02
18.11
18.23
18.46
18.81
19.29
19.85
20.40
20.82
21.00
20.93
20.67
20.34
20.06
19.75
19.11
17.71
15.09
10.98
5.48
-1.01
-7.83
-14.34
-20.06
-24.76
-28.49
-31.46
-33.97
-36.30
-38.69
-41.39
-44.58
-48.29
-52.30
-56.21
-59.43
-61.47
-62.01
-61.10
-59.08
-56.45
-53.62
-50.82
-48.12
-45.59
-43.56
-42.62
-43.50
-46.62
-51.73
-57.79
-63.18
-66.31
-66.31
-63.44
-59.01
-54.79
-52.21
-51.69
-52.64
-53.67
-53.06
-49.21
-40.92
-27.53
-9.13
13.22
37.33
60.26
78.99
91.44
97.04
96.70
92.25
85.64
78.42
71.57
65.79
61.68
59.70
59.93
61.92
64.71
67.28
68.97
69.68
69.85
70.04
70.72
71.97
73.41
74.13
72.96
68.71
60.58
48.42
33.00
16.09
-0.08
-13.68
-23.83
-30.65
-34.86
-37.43
-39.21
-40.65
-41.62
-41.86
-41.49
-41.17
-41.57
-42.80
-44.35
-45.35
-45.03
-42.72
-38.05
-30.97
-21.34
-8.37
8.93
30.87
55.20
75.80
86.15
84.11
73.15
59.22
47.02
38.27
32.06
26.64
20.68
15.00
11.56
11.70
14.99
19.48
22.83
23.24
20.82
16.66
12.83
11.22
12.39
15.12
16.96
15.20
7.80
-5.81
-24.37
-44.83
-63.37
-76.76
-83.60
-84.56
-81.82
-78.08
-75.28
-73.92
-73.12
-71.65
-68.81
-64.71
-59.92
-54.91
-49.75
-44.16
-37.87
-31.16
-25.14
-21.17
-20.00
-21.07
-22.76
-23.16
-20.93
-15.84
-8.85
-1.80
3.67
6.98
8.90
10.58
12.92
16.40
21.64
29.31
39.30
49.97
57.90
58.78
49.02
27.41
-4.00
-39.31
-69.63
-88.13
-94.48
-93.20
-87.68
-77.72
-61.33
-37.89
-9.82
17.89
39.57
52.63
56.61
53.29
45.87
37.74
31.92
30.60
34.48
42.60
53.28
63.93
71.23
72.94
68.56
59.90
49.92
41.13
34.63
30.25
26.90
23.46
19.30
14.42
9.53
5.61
3.38
2.88
3.44
3.94
3.64
2.58
1.31
0.41
0.21
0.30
0.25
-0.17
-0.88
-1.54
-1.69
-1.10
0.13
1.56
2.61
2.94
2.43
1.27
-0.25
-1.78
-3.14
-4.51
-6.37
-9.42
-14.23
-21.05
-29.08
-37.08
-43.60
-47.49
-48.41
-46.89
-44.07
-40.98
-38.05
-34.83
-30.39
-23.83
-14.99
-4.71
5.29
13.14
17.58
18.34
16.20
12.42
8.18
4.14
0.35
-3.44
-7.52
-11.99
-16.88
-22.12
-27.62
-32.91
-36.93
-38.14
-34.98
-26.71
-13.92
1.41
16.67
29.57
39.04
45.37
49.65
52.84
55.18
56.08
54.64
50.36
43.64
35.71
28.15
22.28
18.67
17.04
16.55
16.23
15.33
13.59
11.13
8.22
5.11
1.87
-1.56
-5.21
-9.00
-12.71
-16.07
-18.89
-21.14
-22.91
-24.39
-25.75
-27.05
-28.20
-28.96
-29.02
-28.08
-26.02
-22.98
-19.31
-15.44
-11.59
-7.67
-3.34
1.71
7.45
13.28
18.14
20.91
20.88
18.01
13.01
7.00
1.16
-3.63
-6.98
-8.93
-9.79
-9.92
-9.58
-8.95
-8.09
-7.07
-5.97
-4.79
-3.36
-1.34
1.68
5.93
11.24
16.98
22.22
26.09
28.07
28.16
26.82
24.65
22.16
19.64
17.19
14.83
12.66
10.88
9.66
9.05
8.91
8.91
8.70
8.00
6.73
5.04
3.19
1.44
-0.04
-1.29
-2.44
-3.70
-5.21
-7.01
-8.90
-10.63
-11.98
-12.78
-13.02
-12.83
-12.44
-12.16
-12.18
-12.52
-12.99
-13.31
-13.20
-12.42
-10.90
-8.69
-5.97
-2.91
0.46
4.12
7.91
11.57
14.78
17.25
18.83
19.45
19.19
18.59
18.10
17.89
17.97
18.30
18.70
18.97
18.53
16.80
14.04
10.68
7.10
3.91
1.73
0.94
1.51
2.62
3.20
3.41
3.50
3.27
2.63
1.59
0.25
-1.23
-3.40
-7.31
-13.03
-21.04
-32.27
-46.68
-62.99
-79.06
-89.12
-88.48
-83.26
-77.81
-71.51
-64.03
-54.56
-42.44
-27.85
-12.13
2.14
12.48
18.92
22.56
24.48
25.92
27.62
29.57
31.25
31.60
29.89
27.07
24.32
22.18
20.87
20.19
19.72
19.04
17.68
15.43
12.97
10.89
9.24
7.90
6.62
5.19
3.52
1.47
-0.98
-3.48
-5.77
-7.79
-9.56
-11.12
-12.52
-13.79
-14.94
-15.94
-16.65
-16.99
-17.09
-17.12
-17.27
-17.54
-17.72
-17.30
-15.66
-12.23
-6.82
0.27
8.23
15.96
22.26
26.25
27.51
26.22
23.09
19.10
15.23
12.11
9.92
8.44
7.29
6.22
5.27
4.74
4.92
5.91
7.42
8.95
10.00
10.33
10.06
9.57
9.31
9.64
10.76
12.77
15.65
19.25
23.20
26.99
30.05
32.02
32.80
32.72
32.36
32.24
32.62
33.41
34.32
35.04
35.38
35.26
34.71
33.79
32.47
30.74
28.57
26.04
23.20
19.98
16.01
10.98
4.70
-2.82
-11.48
-21.16
-31.80
-43.34
-55.70
-68.94
-82.55
-95.59
-107.02
-115.92
-121.67
-123.85
-122.16
-116.48
-107.23
-94.53
-78.64
-60.23
-40.42
-20.42
-0.90
18.50
39.07
61.09
83.42
103.68
119.37
128.79
131.00
125.79
113.93
99.63
83.32
66.15
50.00
36.88
28.28
24.74
25.86
30.73
37.94
45.40
51.90
56.96
60.69
63.62
66.53
70.10
74.52
79.11
81.85
80.38
72.21
55.64
30.65
-0.56
-33.95
-64.76
-89.13
-105.44
-114.05
-116.92
-116.44
-114.46
-111.79
-108.44
-104.20
-99.14
-93.83
-88.73
-83.94
-79.08
-73.45
-66.40
-57.72
-47.77
-37.45
-27.94
-20.10
-14.17
-9.72
-5.88
-1.89
2.55
7.06
10.82
12.97
13.08
11.40
8.77
6.22
4.60
4.28
5.10
6.60
8.27
9.72
10.77
11.35
11.47
11.14
10.35
9.11
7.50
5.65
3.79
2.15
0.90
0.02
-0.66
-1.37
-2.28
-3.44
-4.78
-6.16
-7.49
-8.73
-9.83
-10.65
-10.93
-10.38
-8.83
-6.36
-3.28
-0.06
2.81
4.93
6.06
6.08
4.95
2.73
-0.34
-3.79
-6.99
-9.26
-10.12
-9.41
-7.38
-4.52
-1.40
1.48
3.84
5.55
6.62
7.09
7.07
6.66
6.01
5.25
4.44
3.56
2.53
1.22
-0.48
-2.61
-5.01
-7.41
-9.42
-10.72
-11.27
-11.39
-11.66
-12.66
-14.67
-17.45
-20.28
-22.22
-22.45
-20.56
-16.71
-11.50
-5.79
-0.34
4.29
7.87
10.48
12.32
13.62
14.55
15.16
15.44
15.40
15.14
14.77
14.43
14.14
13.87
13.57
13.23
12.93
12.78
12.88
13.23
13.66
13.90
13.63
12.66
10.98
8.77
6.38
4.15
2.25
0.67
-0.74
-2.14
-3.58
-4.95
-6.04
-6.74
-7.09
-7.32
-7.66
-8.23
-8.89
-9.28
-8.95
-7.64
-5.34
-2.36
0.83
3.81
6.28
8.19
9.60
10.62
11.26
11.49
11.24
10.57
9.62
8.66
7.90
7.46
7.28
7.18
6.97
6.56
5.97
5.39
4.99
4.87
4.97
5.12
5.05
4.57
3.61
2.27
0.77
-0.65
-1.88
-2.92
-3.93
-5.07
-6.42
-7.94
-9.47
-10.78
-11.67
-11.97
-11.54
-10.27
-8.15
-5.28
-1.96
1.39
4.35
6.59
8.02
8.75
9.03
9.09
9.09
9.04
8.90
8.64
8.29
7.91
7.56
7.22
6.87
6.46
5.97
5.42
4.83
4.18
3.44
2.52
1.41
0.12
-1.27
-2.66
-4.00
-5.28
-6.49
-7.66
-8.82
-10.00
-11.20
-12.40
-13.45
-14.12
-14.12
-13.20
-11.27
-8.46
-5.10
-1.62
1.56
4.18
6.13
7.44
8.23
8.64
8.78
8.81
8.83
8.95
9.19
9.49
9.71
9.69
9.34
8.70
7.91
7.13
6.48
5.91
5.30
4.49
3.39
2.04
0.58
-0.84
-2.14
-3.34
-4.53
-5.84
-7.32
-8.97
-10.72
-12.49
-14.21
-15.79
-17.14
-18.09
-18.44
-17.99
-16.65
-14.47
-11.65
-8.50
-5.38
-2.65
-0.57
0.70
1.16
0.99
0.45
-0.15
-0.62
-0.91
-1.08
-1.28
-1.67
-2.33
-3.30
-4.50
-5.66
-6.30
-5.81
-3.66
0.29
5.64
11.41
16.37
19.50
20.36
19.23
16.85
14.07
11.46
9.14
6.95
4.63
2.14
-0.33
-2.49
-4.14
-5.37
-6.45
-7.69
-9.14
-10.53
-11.34
-11.10
-9.60
-7.04
-3.97
-1.01
1.35
2.96
3.92
4.49
4.91
5.32
5.72
6.07
6.37
6.64
7.01
7.57
8.36
9.29
10.16
10.71
10.75
10.21
9.19
7.87
6.46
5.11
3.85
2.66
1.53
0.47
-0.44
-1.19
-1.84
-2.53
-3.48
-4.90
-6.86
-9.31
-12.10
-15.04
-17.96
-20.80
-23.52
-26.12
-28.53
-30.59
-32.03
-32.53
-31.85
-29.88
-26.80
-23.02
-19.14
-15.77
-13.39
-12.15
-11.82
-11.77
-11.20
-9.37
-5.84
-0.65
5.76
12.66
19.43
25.62
31.04
35.60
39.14
41.34
41.95
40.95
38.69
35.82
33.07
30.88
29.28
27.93
26.33
24.14
21.26
17.86
14.26
10.75
7.49
4.51
1.74
-0.89
-3.44
-5.95
-8.46
-10.92
-13.22
-15.16
-16.43
-16.76
-16.01
-14.28
-11.88
-9.19
-6.58
-4.22
-2.12
-0.18
1.65
3.33
4.77
5.86
6.54
6.84
6.84
6.62
6.26
5.80
5.30
4.84
4.47
4.23
4.11
4.03
3.95
3.78
3.53
3.15
2.65
2.00
1.18
0.21
-0.85
-1.91
-2.91
-3.82
-4.71
-5.70
-6.91
-8.39
-10.04
-11.61
-12.79
-13.25
-12.81
-11.42
-9.22
-6.42
-3.33
-0.21
2.68
5.16
7.07
8.32
8.93
8.97
8.60
8.03
7.42
6.88
6.45
6.10
5.77
5.42
5.05
4.68
4.34
4.04
3.76
3.45
3.03
2.47
1.77
0.99
0.18
-0.64
-1.49
-2.43
-3.55
-4.87
-6.34
-7.82
-9.06
-9.79
-9.76
-8.86
-7.12
-4.76
-2.12
0.51
2.87
4.88
6.53
7.83
8.76
9.26
9.27
8.82
8.04
7.08
6.09
5.10
4.07
2.94
1.73
0.55
-0.44
-1.11
-1.43
-1.52
-1.58
-1.82
-2.39
-3.33
-4.56
-5.94
-7.28
-8.45
-9.38
-10.12
-10.81
-11.66
-12.81
-14.26
-15.85
-17.22
-17.99
-17.82
-16.60
-14.43
-11.58
-8.38
-5.15
-2.10
0.61
2.86
4.53
5.61
6.16
6.36
6.46
6.63
6.92
7.24
7.43
7.35
6.97
6.36
5.65
5.00
4.46
4.04
3.69
3.33
2.84
2.13
1.14
-0.13
-1.63
-3.28
-4.97
-6.58
-8.04
-9.30
-10.40
-11.43
-12.49
-13.62
-14.70
-15.47
-15.57
-14.69
-12.72
-9.80
-6.27
-2.59
0.84
3.74
5.97
7.48
8.33
8.66
8.67
8.57
8.58
8.78
9.10
9.36
9.37
9.01
8.30
7.37
6.40
5.54
4.86
4.36
3.98
3.60
3.13
2.47
1.61
0.57
-0.54
-1.66
-2.74
-3.82
-5.01
-6.37
-7.90
-9.46
-10.81
-11.68
-11.82
-11.11
-9.53
-7.23
-4.42
-1.40
1.56
4.23
6.47
8.25
9.57
10.42
10.80
10.73
10.29
9.61
8.89
8.29
7.87
7.55
7.17
6.60
5.80
4.85
3.90
3.04
2.27
1.49
0.58
-0.52
-1.74
-2.97
-4.07
-5.02
-5.91
-6.90
-8.12
-9.58
-11.10
-12.38
-13.08
-12.92
-11.80
-9.80
-7.14
-4.14
-1.06
1.86
4.45
6.61
8.27
9.37
9.93
10.01
9.75
9.33
8.89
8.47
8.02
7.42
6.63
5.71
4.83
4.16
3.81
3.69
3.61
3.35
2.80
1.98
1.02
0.07
-0.82
-1.66
-2.51
-3.41
-4.32
-5.19
-6.01
-6.83
-7.77
-8.90
-10.20
-11.45
-12.34
-12.49
-11.66
-9.82
-7.15
-3.99
-0.72
2.35
4.99
7.06
8.50
9.34
9.67
9.63
9.41
9.16
8.95
8.81
8.69
8.56
8.43
8.35
8.34
8.38
8.45
8.47
8.33
7.91
7.16
6.13
5.05
4.12
3.54
3.39
3.53
3.58
3.08
1.82
-0.01
-1.74
-2.91
-3.17
-2.58
-1.56
-0.89
-1.27
-2.88
-5.26
-7.30
-8.32
-7.69
-5.10
-0.77
4.46
9.39
12.90
14.24
13.50
10.42
5.22
-1.59
-9.33
-17.43
-25.39
-33.05
-41.01
-47.68
-53.34
-58.52
-62.43
-62.29
-55.17
-40.36
-20.53
-2.10
12.17
20.53
23.57
23.74
23.62
24.29
25.42
26.22
26.14
25.46
24.23
22.72
21.03
18.95
15.87
11.63
7.05
3.30
1.42
1.53
3.65
7.65
12.82
16.93
17.10
11.32
-0.42
-15.60
-30.43
-41.68
-48.96
-52.61
-56.52
-64.60
-75.18
-80.87
-74.09
-53.02
-22.93
6.79
27.92
37.66
38.84
36.40
34.36
34.06
34.25
32.95
29.22
23.84
18.58
14.16
11.49
10.46
9.78
7.92
4.11
-1.16
-6.36
-9.93
-10.84
-8.74
-4.38
0.74
5.02
7.54
8.28
7.99
7.56
7.61
8.45
9.81
11.07
11.55
10.99
9.62
8.01
6.77
6.21
6.37
6.97
7.59
7.82
7.49
6.63
5.48
4.45
3.96
4.43
5.98
8.33
10.82
12.71
13.43
12.92
11.50
9.65
7.65
5.42
2.70
-0.73
-4.71
-8.76
-12.25
-14.68
-15.81
-15.64
-14.30
-11.98
-8.89
-5.34
-1.74
1.45
3.89
5.42
6.08
6.07
5.57
4.73
3.59
2.21
0.62
-1.05
-2.68
-4.13
-5.37
-6.46
-7.53
-8.74
-10.19
-11.93
-13.91
-16.06
-18.33
-20.65
-22.99
-25.31
-27.61
-29.90
-32.20
-34.48
-36.72
-38.87
-40.96
-43.02
-45.12
-47.27
-49.36
-51.05
-51.84
-51.11
-48.27
-42.89
-34.69
-23.64
-9.96
5.78
22.72
39.78
55.86
70.02
81.50
89.90
95.06
96.96
95.70
91.59
85.18
77.25
68.67
60.28
52.85
47.02
43.02
40.48
38.66
36.71
33.85
29.68
24.31
18.60
13.90
11.17
10.34
10.49
10.32
8.74
5.31
0.44
-4.31
-6.90
-6.00
-1.77
4.52
11.13
16.25
18.16
15.38
7.74
-2.96
-13.39
-19.67
-18.25
-7.21
12.40
36.49
55.58
59.58
45.35
19.59
-7.38
-27.95
-39.05
-41.98
-39.90
-35.69
-31.53
-28.90
-28.71
-31.42
-35.96
-40.45
-42.80
-41.89
-38.31
-33.55
-29.14
-25.90
-23.95
-22.85
-22.27
-22.02
-21.74
-20.77
-17.89
-12.48
-5.20
1.99
6.76
7.62
4.94
0.57
-3.65
-4.97
-3.59
-3.34
-7.79
-16.29
-24.53
-27.95
-24.66
-16.55
-7.31
-0.59
2.21
2.53
3.34
7.46
16.55
30.26
45.28
58.03
66.20
70.27
73.45
78.68
87.41
99.20
111.38
118.51
117.01
107.34
93.64
81.68
73.84
69.96
69.12
70.02
69.06
65.14
60.05
56.09
54.45
52.50
44.90
28.04
0.60
-39.54
-90.26
-145.12
-196.47
-237.38
-268.27
-291.29
-308.23
-293.80
-240.14
-163.55
-90.48
-50.80
-33.53
-27.05
-23.10
-8.40
20.38
54.72
81.50
89.18
72.15
34.54
-15.60
-64.63
-98.15
-108.34
-98.57
-77.39
-52.91
-30.22
-10.45
3.38
9.60
8.54
1.84
-8.26
-16.92
-17.66
-5.78
19.61
52.45
84.20
107.19
116.51
110.75
92.94
69.41
46.81
29.53
16.83
4.77
-11.11
-33.14
-59.71
-85.41
-103.69
-110.41
-105.77
-94.16
-81.02
-70.00
-61.74
-54.67
-47.17
-38.89
-30.95
-24.98
-21.63
-19.92
-17.76
-13.14
-5.32
4.86
15.33
23.70
28.36
29.06
27.00
24.19
22.65
23.53
26.78
31.25
35.38
37.93
38.55
37.80
36.78
36.46
37.27
38.86
40.46
41.20
40.54
38.43
35.21
31.36
27.33
23.37
19.56
15.83
12.07
8.19
4.19
0.12
-3.87
-7.55
-10.68
-12.97
-14.19
-14.33
-13.82
-13.68
-15.31
-20.03
-28.24
-38.85
-49.31
-56.36
-57.20
-50.63
-37.43
-20.00
-1.26
16.40
31.72
44.49
54.90
63.06
68.69
71.41
71.14
68.36
64.08
59.42
55.20
51.66
48.43
44.96
40.92
36.48
32.29
29.18
27.72
27.87
28.94
29.83
29.45
27.20
23.17
18.09
12.93
8.52
5.24
2.95
1.13
-0.83
-3.37
-6.65
-10.55
-14.81
-19.12
-23.29
-27.25
-31.11
-35.07
-39.28
-43.63
-47.63
-50.37
-50.76
-47.84
-41.18
-31.14
-18.87
-6.09
5.42
14.30
19.98
22.83
23.99
24.98
27.17
31.27
36.98
43.06
47.76
49.54
47.78
43.04
36.91
31.39
28.11
27.74
29.91
33.54
37.34
40.33
42.04
42.54
42.34
42.14
42.66
44.58
48.21
53.11
57.86
60.20
57.78
49.24
35.09
17.81
0.90
-12.59
-21.28
-25.71
-27.52
-28.15
-27.88
-25.96
-21.50
-14.51
-6.31
0.96
5.47
6.54
4.87
1.94
-0.76
-2.34
-2.70
-2.18
-1.32
-0.72
-1.24
-3.92
-9.72
-19.00
-31.12
-44.36
-56.37
-64.94
-68.73
-67.59
-62.46
-54.90
-46.66
-39.24
-33.66
-30.22
-28.36
-26.39
-21.87
-12.61
2.17
20.85
39.50
52.85
56.24
47.46
27.59
0.64
-27.88
-52.82
-70.74
-80.33
-82.11
-77.73
-69.42
-59.82
-51.90
-48.59
-52.10
-63.09
-80.17
-100.08
-118.79
-132.86
-140.83
-143.62
-143.86
-144.47
-147.35
-152.42
-157.65
-159.99
-156.50
-145.36
-126.39
-101.07
-72.04
-42.38
-14.67
9.62
30.41
48.82
66.43
84.53
103.41
122.24
139.39
153.19
162.60
167.58
169.02
168.28
166.60
164.61
162.21
158.77
153.56
146.24
137.08
126.93
116.78
107.33
98.81
91.07
83.91
77.30
71.42
66.24
61.19
54.95
45.74
32.02
13.20
-10.02
-35.76
-61.67
-85.66
-106.32
-122.99
-135.36
-143.17
-146.13
-144.19
-137.84
-128.31
-117.34
-106.79
-98.09
-92.02
-88.76
-88.12
-89.65
-92.68
-96.19
-98.75
-98.78
-94.93
-86.63
-74.32
-59.44
-43.91
-29.47
-17.22
-7.35
0.59
7.34
13.52
19.44
25.17
30.62
35.65
40.06
43.51
45.63
46.11
44.99
42.89
40.96
40.67
43.35
49.59
58.98
70.08
80.79
89.00
93.23
93.08
89.19
82.96
76.01
69.75
65.20
63.01
63.50
66.59
71.72
77.70
83.05
86.41
87.07
85.17
81.71
78.12
75.75
75.33
76.80
79.60
82.92
86.00
88.24
89.31
89.16
88.03
86.27
84.02
81.33
77.90
72.97
65.44
54.40
39.73
22.39
4.23
-13.01
-27.61
-38.38
-45.11
-48.62
-50.09
-50.44
-50.02
-48.73
-47.27
-45.66
-43.36
-40.06
-36.42
-33.88
-34.08
-38.45
-47.98
-64.51
-87.82
-115.56
-144.69
-172.85
-198.15
-218.75
-232.68
-238.33
-237.06
-229.91
-217.33
-200.07
-179.53
-157.11
-133.64
-110.04
-75.08
-31.41
8.68
35.23
48.24
53.87
58.52
66.07
77.81
93.35
109.29
122.52
130.07
128.02
112.14
80.64
36.38
-13.16
-58.19
-91.37
-107.38
-103.83
-82.23
-48.00
-8.74
27.83
55.82
72.53
77.65
74.02
66.17
57.85
50.74
45.12
40.88
38.15
37.17
37.26
37.47
36.97
35.31
32.29
28.43
24.64
21.84
20.56
20.58
21.30
22.14
22.61
22.44
21.62
20.41
19.13
18.17
17.81
18.17
19.27
20.91
22.71
24.13
24.79
24.45
23.22
21.66
20.25
19.64
20.61
23.71
29.12
36.21
43.22
47.39
45.78
36.45
19.53
-2.95
-26.79
-47.91
-63.39
-71.99
-74.12
-71.16
-64.83
-56.62
-47.56
-37.80
-27.36
-16.45
-5.94
2.63
7.71
8.75
6.90
4.45
3.66
5.22
7.98
9.81
9.09
5.77
1.33
-2.50
-4.93
-6.56
-8.68
-11.97
-15.79
-18.45
-18.52
-15.72
-11.20
-6.84
-4.08
-3.20
-3.38
-3.47
-2.89
-1.99
-1.65
-2.47
-4.23
-5.79
-5.70
-3.05
2.02
8.21
13.61
16.56
16.34
13.40
9.09
5.01
2.32
1.43
2.06
3.46
4.89
5.77
5.87
5.19
3.89
2.15
0.24
-1.43
-2.36
-1.96
0.09
3.63
7.85
11.47
13.12
11.93
7.91
2.06
-3.95
-8.41
-10.22
-9.28
-6.37
-2.73
0.52
2.75
3.80
3.80
3.05
1.81
0.20
-1.76
-3.98
-6.22
-8.07
-9.17
-9.25
-8.31
-6.59
-4.49
-2.39
-0.50
1.20
2.88
4.73
6.78
8.77
10.21
10.60
9.71
7.76
5.26
2.89
1.13
0.07
-0.57
-1.22
-2.10
-3.08
-3.67
-3.45
-2.23
-0.29
1.72
3.07
3.31
2.66
1.92
1.98
3.10
4.85
6.16
5.94
3.50
-1.09
-6.89
-12.50
-16.59
-18.73
-18.87
-17.32
-14.61
-11.75
-9.99
-10.21
-12.30
-15.19
-18.03
-19.73
-19.66
-17.98
-16.08
-15.77
-17.99
-22.05
-26.15
-29.50
-31.30
-31.07
-28.55
-24.49
-20.26
-16.72
-13.58
-9.39
-3.40
6.52
23.09
48.58
82.43
118.28
145.10
153.64
150.40
140.80
128.90
113.74
96.14
76.62
55.67
34.59
15.63
0.99
-9.75
-17.51
-23.26
-27.24
-29.85
-31.43
-31.98
-31.14
-28.72
-26.20
-24.85
-25.34
-27.45
-30.92
-35.34
-39.83
-43.04
-43.75
-42.29
-39.65
-37.31
-36.71
-39.12
-44.97
-53.27
-61.72
-67.66
-69.54
-67.06
-60.81
-51.51
-39.58
-25.15
-8.60
8.82
24.90
37.30
44.87
48.34
49.78
51.06
52.73
53.79
52.67
48.61
42.40
35.93
30.85
27.55
24.96
21.41
15.60
7.31
-2.63
-12.74
-21.40
-27.32
-29.87
-29.23
-26.48
-23.31
-21.42
-21.84
-24.47
-28.28
-31.83
-33.87
-33.87
-31.94
-28.68
-24.72
-20.56
-16.54
-13.02
-10.45
-9.31
-9.85
-11.88
-14.58
-16.81
-17.53
-16.28
-13.54
-10.57
-8.85
-9.41
-12.23
-16.24
-19.74
-21.16
-19.74
-15.76
-10.40
-5.06
-0.88
1.66
2.63
2.49
1.71
0.69
-0.22
-0.65
-0.29
1.00
3.09
5.49
7.56
8.78
9.11
8.89
8.62
8.49
8.28
7.47
5.79
3.61
1.98
2.24
5.25
10.78
17.41
22.90
25.11
22.81
16.27
7.00
-2.93
-11.86
-19.04
-24.54
-28.73
-31.58
-32.51
-30.73
-25.94
-18.81
-10.77
-3.23
3.06
8.31
13.13
17.94
22.46
25.93
27.71
27.70
26.34
24.15
21.29
17.57
12.77
7.19
1.70
-2.66
-5.23
-6.12
-6.01
-5.62
-5.20
-4.35
-2.37
1.14
5.86
10.68
14.06
14.71
12.10
6.60
-0.64
-8.16
-14.58
-18.86
-20.36
-18.87
-14.66
-8.61
-2.17
2.92
5.22
4.19
0.51
-4.07
-7.41
-7.83
-4.66
1.61
9.77
18.31
26.00
31.96
35.68
36.87
35.52
32.07
27.57
23.65
21.99
23.48
27.66
32.51
35.24
33.58
26.99
17.23
7.59
1.34
0.01
2.67
6.50
8.38
6.60
1.63
-4.39
-9.05
-11.11
-11.03
-10.43
-10.83
-12.70
-15.10
-16.42
-15.40
-11.91
-7.04
-2.50
0.19
0.34
-1.77
-5.14
-8.47
-10.57
-10.71
-8.86
-5.79
-2.77
-1.08
-1.24
-2.56
-3.37
-1.84
2.95
10.31
18.22
24.28
26.98
26.39
24.11
22.30
22.57
25.30
29.72
34.57
38.81
41.88
43.43
42.92
39.50
32.34
21.15
6.66
-9.46
-25.07
-38.19
-47.54
-52.60
-53.48
-50.59
-44.59
-36.47
-27.53
-19.33
-13.32
-10.42
-10.73
-13.58
-17.79
-22.03
-25.18
-26.46
-25.57
-22.65
-18.33
-13.57
-9.40
-6.47
-4.74
-3.48
-1.73
1.13
4.88
8.54
10.92
11.35
10.11
8.23
6.83
6.34
6.29
5.67
3.60
0.01
-4.29
-8.07
-10.36
-11.00
-10.64
-10.33
-10.75
-11.74
-12.33
-11.43
-8.64
-4.76
-1.46
-0.39
-2.18
-6.03
-10.12
-12.62
-12.69
-10.70
-7.84
-5.27
-3.43
-1.99
-0.19
2.51
6.17
10.31
14.24
17.37
19.33
20.06
19.71
18.51
16.66
14.28
11.48
8.49
5.68
3.55
2.52
2.77
4.06
5.85
7.54
8.68
9.09
8.79
7.89
6.44
4.44
1.82
-1.41
-5.11
-8.97
-12.49
-15.13
-16.46
-16.34
-15.08
-13.39
-12.01
-11.35
-11.34
-11.56
-11.64
-11.57
-11.68
-12.31
-13.36
-14.29
-14.29
-12.92
-10.45
-7.81
-6.07
-5.71
-6.40
-7.13
-6.90
-5.21
-2.37
0.76
3.21
4.24
3.49
0.94
-3.05
-7.85
-12.60
-16.37
-18.43
-18.66
-17.64
-16.57
-16.78
-19.19
-23.81
-29.83
-35.87
-40.65
-43.40
-44.11
-43.48
-42.58
-42.58
-44.43
-48.51
-54.26
-59.83
-62.21
-57.84
-43.95
-19.94
11.77
46.12
76.91
98.95
109.81
110.30
103.65
93.79
83.87
75.44
68.67
63.17
58.65
55.20
53.03
52.12
51.97
51.72
50.58
48.14
44.63
40.75
37.28
34.51
32.00
28.70
23.66
16.84
9.54
4.01
2.34
5.21
11.32
17.97
22.34
22.95
20.10
15.39
10.45
5.91
1.17
-4.88
-12.93
-22.68
-32.98
-42.36
-49.62
-54.01
-55.29
-53.64
-49.69
-44.38
-38.80
-33.74
-29.44
-25.52
-21.30
-16.27
-10.45
-4.50
0.56
3.65
4.04
1.71
-2.51
-7.04
-10.03
-10.11
-7.13
-2.46
1.51
2.49
-0.38
-5.97
-11.56
-14.27
-12.54
-6.91
0.26
6.08
8.60
7.73
5.22
3.56
4.67
8.86
14.86
20.44
23.71
24.02
22.01
19.00
16.13
13.77
11.62
9.28
6.78
4.67
3.47
2.90
1.69
-1.83
-8.49
-17.43
-26.16
-31.69
-32.16
-27.92
-21.36
-15.62
-12.89
-13.36
-15.45
-16.97
-16.45
-13.93
-10.67
-8.26
-7.65
-8.73
-10.63
-12.28
-12.91
-12.32
-10.62
-8.07
-4.79
-0.81
3.87
9.14
14.66
19.83
23.86
25.94
25.51
22.53
17.70
12.31
7.76
4.90
3.65
3.00
1.57
-1.73
-7.15
-13.95
-20.71
-25.84
-28.01
-26.41
-21.02
-12.82
-3.91
2.83
4.70
0.41
-9.00
-20.31
-29.27
-32.46
-28.72
-19.40
-7.40
4.46
14.59
22.90
30.06
36.46
41.75
45.10
46.04
44.99
43.17
41.95
41.95
42.68
42.72
40.48
35.11
26.98
17.52
8.60
1.72
-2.49
-4.36
-4.89
-5.19
-6.13
-8.18
-11.49
-16.01
-21.58
-27.89
-34.41
-40.45
-45.20
-47.90
-48.01
-45.41
-40.57
-34.50
-28.56
-24.00
-21.50
-20.98
-21.64
-22.54
-23.07
-23.15
-23.17
-23.38
-23.63
-23.25
-21.48
-17.90
-12.78
-6.97
-1.50
2.89
5.92
7.76
8.71
8.92
8.35
6.90
4.74
2.46
1.02
1.40
4.18
9.28
15.98
23.24
30.08
35.89
40.42
43.61
45.48
46.06
45.53
44.30
42.95
41.98
41.46
40.91
39.50
36.46
31.62
25.51
19.17
13.64
9.43
6.33
3.64
0.57
-3.34
-8.08
-13.30
-18.53
-23.42
-27.74
-31.21
-33.47
-34.06
-32.62
-29.08
-23.81
-17.52
-11.11
-5.35
-0.73
2.65
4.98
6.61
7.86
8.90
9.72
10.21
10.26
9.87
9.18
8.42
7.79
7.39
7.19
7.05
6.78
6.24
5.36
4.20
2.88
1.55
0.31
-0.77
-1.66
-2.35
-2.82
-3.04
-3.03
-2.85
-2.62
-2.51
-2.63
-3.07
-3.82
-4.81
-5.96
-7.23
-8.57
-9.97
-11.37
-12.70
-13.90
-14.93
-15.84
-16.73
-17.68
-18.62
-19.34
-19.48
-18.75
-16.97
-14.23
-10.85
-7.24
-3.79
-0.73
1.86
4.02
5.81
7.28
8.43
9.23
9.61
9.58
9.18
8.54
7.83
7.20
6.70
6.32
5.97
5.56
5.06
4.50
3.88
3.17
2.28
1.08
-0.47
-2.34
-4.37
-6.36
-8.12
-9.59
-10.79
-11.89
-13.04
-14.37
-15.91
-17.54
-19.10
-20.42
-21.44
-22.20
-22.87
-23.62
-24.62
-25.95
-27.58
-29.32
-30.72
-31.18
-29.97
-26.64
-21.15
-14.09
-6.49
0.50
6.00
9.67
11.74
12.79
13.42
14.07
14.91
15.88
16.85
17.72
18.44
19.02
19.48
19.80
19.96
19.89
19.51
18.83
17.89
16.86
15.96
15.33
15.02
14.91
14.74
14.29
13.46
12.36
11.27
10.48
10.10
10.00
9.86
9.33
8.24
6.66
4.79
2.90
1.20
-0.09
-0.53
0.55
3.98
10.38
19.82
31.58
44.30
56.43
66.68
74.40
79.50
82.16
82.46
80.22
75.10
66.95
56.06
43.29
29.78
16.62
4.50
-6.34
-16.03
-24.73
-32.41
-38.74
-43.26
-45.67
-46.08
-45.01
-43.27
-41.59
-40.41
-39.78
-39.46
-39.21
-38.93
-38.73
-38.84
-39.32
-40.00
-40.48
-40.35
-39.38
-37.65
-35.51
-33.44
-31.80
-30.73
-30.13
-29.69
-29.04
-27.85
-25.92
-23.18
-19.69
-15.57
-11.03
-6.28
-1.60
2.68
6.24
8.85
10.46
11.24
11.50
11.61
11.80
12.12
12.50
12.80
12.89
12.78
12.46
11.98
11.35
10.64
9.90
9.21
8.54
7.79
6.83
5.58
4.13
2.66
1.36
0.32
-0.53
-1.37
-2.38
-3.64
-5.11
-6.67
-8.23
-9.75
-11.25
-12.79
-14.40
-16.14
-18.04
-20.07
-22.11
-23.92
-25.22
-25.75
-25.30
-23.85
-21.51
-18.62
-15.64
-13.11
-11.44
-10.77
-10.89
-11.22
-10.98
-9.41
-5.96
-0.46
6.84
15.24
23.77
31.35
37.01
40.15
40.62
38.78
35.35
31.16
26.96
23.24
20.15
17.53
15.03
12.26
9.01
5.39
1.80
-1.17
-3.01
-3.57
-3.09
-2.20
-1.62
-1.80
-2.72
-3.86
-4.40
-3.62
-1.25
2.38
6.45
9.94
12.04
12.34
10.86
7.92
3.92
-0.73
-5.59
-10.15
-13.83
-16.06
-16.50
-15.14
-12.35
-8.74
-4.94
-1.42
1.57
4.00
6.01
7.78
9.40
10.82
11.82
12.14
11.60
10.21
8.23
6.29
5.12
5.31
6.98
9.69
12.62
14.90
15.93
15.70
14.87
14.50
15.53
18.25
22.28
26.69
30.45
32.72
33.05
31.73
29.58
27.45
25.79
24.54
23.26
21.52
19.07
16.03
12.83
9.76
6.59
2.45
-3.68
-12.65
-23.60
-35.17
-47.20
-60.60
-75.51
-89.90
-100.02
-101.80
-92.97
-74.37
-50.09
-25.67
-5.79
7.01
13.41
14.69
12.37
7.92
2.55
-3.18
-8.71
-13.16
-15.36
-14.25
-9.65
-2.35
5.96
13.27
17.22
16.44
11.26
3.74
-3.19
-7.17
-7.16
-3.85
0.86
4.74
6.43
5.86
4.03
2.32
1.62
2.04
3.01
3.75
3.71
3.03
2.40
2.73
4.60
7.98
12.22
16.37
19.52
21.08
20.94
19.43
17.11
14.55
12.04
9.64
7.19
4.50
1.44
-1.88
-5.15
-7.96
-9.99
-11.23
-11.97
-12.69
-13.86
-15.85
-18.74
-22.42
-26.41
-30.14
-33.03
-34.52
-34.16
-31.69
-27.17
-21.03
-14.04
-7.11
-1.34
2.29
3.28
1.94
-0.64
-2.82
-2.77
-0.41
4.63
12.31
22.26
33.79
45.81
56.79
65.04
69.29
69.20
65.70
60.46
55.23
51.24
49.13
49.08
51.09
54.78
58.95
61.44
59.44
50.64
34.48
12.93
-10.01
-29.83
-43.41
-50.09
-51.38
-49.85
-47.66
-45.75
-43.94
-41.77
-39.15
-36.60
-34.79
-33.95
-33.87
-33.54
-32.12
-29.16
-24.90
-20.07
-15.50
-11.81
-9.22
-7.54
-6.32
-5.09
-3.57
-1.75
0.15
1.78
2.87
3.31
3.24
2.97
2.78
2.79
2.94
3.04
2.94
2.60
2.15
1.84
1.90
2.37
3.10
3.79
4.16
4.04
3.41
2.40
1.16
-0.22
-1.59
-2.90
-4.14
-5.30
-6.32
-7.18
-7.82
-8.24
-8.39
-8.18
-7.50
-6.23
-4.29
-1.77
1.11
4.03
6.68
8.89
10.64
12.00
13.08
13.90
14.39
14.39
13.79
12.60
10.99
9.23
7.56
6.12
4.93
3.94
3.08
2.40
1.97
1.89
2.16
2.66
3.21
3.57
3.61
3.30
2.72
2.00
1.29
0.69
0.24
-0.10
-0.40
-0.80
-1.38
-2.17
-3.14
-4.16
-5.11
-5.95
-6.71
-7.52
-8.52
-9.86
-11.56
-13.50
-15.46
-17.07
-17.96
-17.87
-16.73
-14.69
-12.11
-9.38
-6.80
-4.48
-2.38
-0.36
1.65
3.60
5.36
6.69
7.38
7.20
5.99
3.76
0.94
-1.67
-3.01
-2.22
0.91
5.70
10.73
14.44
15.78
14.59
11.64
8.14
5.18
3.39
2.82
3.18
4.09
5.25
6.46
7.59
8.49
8.99
8.90
8.12
6.67
4.74
2.63
0.68
-0.92
-2.11
-3.07
-4.03
-5.18
-6.52
-7.89
-9.08
-9.89
-10.33
-10.56
-10.85
-11.47
-12.52
-13.91
-15.29
-16.21
-16.25
-15.15
-12.97
-9.99
-6.67
-3.42
-0.52
1.89
3.81
5.24
6.18
6.63
6.68
6.51
6.32
6.33
6.57
6.96
7.28
7.31
6.95
6.27
5.51
4.93
4.69
4.76
4.93
4.86
4.26
3.00
1.22
-0.72
-2.38
-3.40
-3.58
-2.99
-1.84
-0.48
0.72
1.38
1.16
-0.16
-2.69
-6.31
-10.73
-15.57
-20.42
-24.95
-28.94
-32.24
-34.79
-36.65
-38.02
-39.27
-40.86
-43.20
-46.43
-50.39
-54.61
-58.54
-61.84
-64.44
-66.64
-68.94
-71.79
-75.46
-79.84
-84.37
-87.98
-89.09
-85.90
-76.85
-61.27
-39.80
-14.49
11.73
35.87
55.75
70.48
80.34
86.34
89.58
90.92
90.85
89.71
87.84
85.71
83.80
82.40
81.55
81.09
80.84
80.74
80.85
81.25
81.84
82.35
82.30
81.27
79.13
76.23
73.34
71.27
70.57
71.25
72.83
74.28
74.34
71.93
66.48
58.18
47.75
36.09
23.86
11.49
-1.45
-15.83
-32.33
-50.79
-69.91
-87.63
-101.78
-110.54
-112.25
-106.52
-94.09
-76.31
-54.91
-31.39
-7.41
15.24
34.84
51.00
63.19
70.82
73.86
72.78
68.88
63.17
55.76
45.86
33.50
17.60
-3.69
-32.18
-67.77
-105.28
-135.84
-150.85
-151.85
-138.23
-110.67
-72.97
-28.58
14.81
49.71
70.84
76.09
65.09
41.96
13.05
-15.42
-39.22
-56.78
-67.65
-72.40
-72.55
-69.96
-65.11
-58.66
-51.57
-44.78
-39.41
-35.90
-34.39
-34.97
-37.70
-41.68
-45.58
-47.37
-44.30
-33.93
-15.31
9.36
34.61
53.55
61.22
56.43
42.33
25.08
10.98
4.11
4.92
11.06
19.19
27.11
34.04
39.96
44.56
46.66
44.79
38.13
27.64
16.29
7.89
5.32
9.06
16.88
25.08
30.16
30.40
26.60
20.82
15.65
12.79
12.20
12.25
10.45
4.73
-5.49
-18.84
-32.51
-43.22
-48.51
-47.68
-41.82
-33.20
-24.21
-16.58
-11.05
-7.73
-6.44
-7.06
-9.62
-13.90
-19.27
-24.67
-28.75
-30.14
-28.19
-23.10
-15.88
-7.91
-0.29
6.52
12.89
18.98
25.56
32.59
39.24
44.35
47.08
47.42
46.04
43.94
41.94
40.41
39.23
38.13
37.04
36.30
36.55
38.36
41.74
45.69
48.25
46.90
39.74
26.48
8.91
-9.56
-25.25
-35.53
-39.66
-38.66
-34.69
-29.60
-24.90
-21.56
-20.21
-21.18
-24.34
-28.95
-33.68
-36.91
-37.39
-34.59
-28.94
-21.72
-14.55
-8.82
-5.23
-3.59
-3.04
-2.53
-1.39
0.32
1.94
2.75
2.48
1.57
0.96
1.58
3.77
7.15
10.77
13.56
14.76
14.05
11.55
7.70
3.21
-1.09
-4.37
-6.14
-6.40
-5.59
-4.51
-3.94
-4.32
-5.72
-7.95
-10.42
-12.64
-14.25
-15.02
-14.87
-13.79
-11.86
-9.37
-6.72
-4.38
-2.75
-1.93
-1.77
-1.92
-2.07
-2.07
-2.01
-2.12
-2.63
-3.60
-4.81
-5.85
-6.19
-5.42
-3.36
-0.19
3.64
7.56
11.02
13.58
14.99
15.20
14.28
12.43
9.91
7.08
4.29
1.85
-0.07
-1.49
-2.51
-3.31
-4.00
-4.58
-4.99
-5.12
-4.95
-4.54
-4.02
-3.53
-3.17
-3.04
-3.20
-3.65
-4.32
-4.98
-5.39
-5.31
-4.68
-3.73
-2.90
-2.63
-3.14
-4.20
-5.32
-6.00
-5.97
-5.26
-4.18
-3.10
-2.16
-1.12
0.60
3.50
7.65
12.58
17.39
21.09
22.85
22.44
20.33
17.54
15.01
13.06
11.33
9.12
5.89
1.48
-3.73
-9.02
-13.57
-16.74
-17.98
-16.28
-9.96
2.80
21.75
43.33
61.08
69.23
65.74
52.43
33.36
13.05
-5.03
-19.28
-29.60
-36.57
-40.92
-42.98
-43.06
-41.73
-39.68
-37.58
-35.89
-34.57
-33.13
-30.70
-26.58
-20.64
-13.48
-6.24
-0.06
4.32
6.73
7.63
7.86
8.18
8.92
9.98
11.04
11.81
12.11
11.94
11.47
11.03
10.94
11.31
12.06
12.90
13.52
13.68
13.31
12.63
11.98
11.74
12.04
12.76
13.53
13.94
13.65
12.48
10.42
7.62
4.38
0.98
-2.32
-5.35
-8.03
-10.29
-12.05
-13.11
-13.33
-12.64
-11.24
-9.50
-7.86
-6.61
-5.77
-5.09
-4.22
-2.94
-1.32
0.32
1.56
2.13
2.04
1.52
0.94
0.60
0.57
0.75
0.90
0.83
0.47
-0.09
-0.62
-0.89
-0.78
-0.32
0.35
1.04
1.60
1.96
2.13
2.10
1.85
1.33
0.51
-0.58
-1.82
-3.07
-4.25
-5.35
-6.44
-7.53
-8.49
-9.05
-8.87
-7.74
-5.67
-2.94
0.01
2.72
4.89
6.41
7.36
7.92
8.26
8.51
8.73
8.87
8.88
8.68
8.28
7.81
7.46
7.48
8.00
8.97
10.17
11.24
11.86
11.91
11.54
11.06
10.82
11.01
11.56
12.28
12.87
13.14
13.11
12.98
12.96
13.09
13.19
12.94
12.02
10.08
6.93
2.57
-2.81
-8.86
-15.07
-20.78
-25.19
-27.53
-27.56
-25.66
-22.69
-19.61
-17.17
-15.68
-15.04
-15.01
-15.42
-16.74
-19.65
-24.60
-31.25
-38.62
-45.46
-50.73
-53.82
-53.08
-47.57
-37.85
-26.12
-14.89
-5.74
1.17
6.84
12.15
17.72
23.60
29.59
34.41
37.51
39.04
39.77
40.67
42.51
45.82
50.43
55.55
59.82
61.93
61.36
58.48
54.28
49.93
46.48
44.23
42.84
41.34
38.92
35.46
31.16
26.00
19.42
11.09
0.99
-8.34
-13.37
-13.94
-12.71
-13.30
-17.98
-27.74
-41.08
-54.44
-64.08
-68.49
-69.10
-68.85
-70.38
-74.78
-81.40
-88.46
-94.13
-97.24
-97.51
-95.06
-89.86
-81.83
-71.26
-58.82
-45.05
-30.12
-14.08
2.53
18.20
30.90
38.92
41.76
40.50
37.45
34.86
33.72
33.75
34.00
33.84
33.54
34.07
36.28
40.19
44.75
48.15
48.61
45.22
38.34
29.35
20.01
11.76
5.29
0.68
-2.29
-3.68
-3.40
-1.38
2.11
6.32
10.19
12.70
13.32
12.27
10.35
8.58
7.71
7.96
9.01
10.29
11.27
11.65
11.43
10.74
9.72
8.40
6.78
4.85
2.65
0.37
-1.77
-3.55
-4.80
-5.49
-5.68
-5.53
-5.19
-4.79
-4.40
-4.05
-3.70
-3.32
-2.88
-2.29
-1.50
-0.44
0.88
2.30
3.57
4.44
4.68
4.28
3.38
2.25
1.15
0.26
-0.42
-0.95
-1.43
-1.92
-2.39
-2.83
-3.24
-3.67
-4.24
-5.04
-6.05
-7.13
-8.05
-8.54
-8.48
-7.94
-7.14
-6.37
-5.87
-5.66
-5.64
-5.65
-5.60
-5.54
-5.63
-6.04
-6.82
-7.88
-8.98
-9.89
-10.40
-10.42
-9.97
-9.12
-7.98
-6.66
-5.30
-4.01
-2.94
-2.17
-1.70
-1.47
-1.37
-1.26
-1.06
-0.76
-0.44
-0.16
0.01
0.14
0.31
0.65
1.23
2.02
2.90
3.69
4.22
4.43
4.32
3.95
3.43
2.87
2.34
1.91
1.61
1.50
1.59
1.90
2.38
2.95
3.51
3.93
4.14
4.08
3.75
3.21
2.54
1.85
1.23
0.76
0.48
0.38
0.44
0.61
0.81
0.95
0.94
0.72
0.29
-0.28
-0.91
-1.51
-2.01
-2.43
-2.81
-3.16
-3.50
-3.82
-4.13
-4.45
-4.88
-5.48
-6.23
-7.04
-7.70
-7.99
-7.73
-6.86
-5.41
-3.50
-1.33
0.88
2.91
4.52
5.58
6.04
6.01
5.68
5.29
5.00
4.87
4.87
4.87
4.80
4.65
4.45
4.27
4.16
4.14
4.21
4.31
4.39
4.44
4.42
4.33
4.16
3.89
3.54
3.14
2.76
2.47
2.31
2.27
2.29
2.27
2.11
1.78
1.27
0.64
-0.06
-0.77
-1.48
-2.15
-2.73
-3.16
-3.38
-3.41
-3.31
-3.23
-3.33
-3.73
-4.46
-5.42
-6.40
-7.18
-7.57
-7.48
-6.96
-6.06
-4.86
-3.42
-1.78
-0.05
1.60
2.98
3.96
4.46
4.56
4.41
4.18
4.00
3.90
3.86
3.81
3.71
3.55
3.36
3.24
3.22
3.34
3.54
3.76
3.95
4.05
4.04
3.92
3.67
3.30
2.82
2.29
1.75
1.27
0.86
0.50
0.14
-0.30
-0.86
-1.57
-2.38
-3.18
-3.85
-4.31
-4.55
-4.68
-4.88
-5.29
-5.92
-6.62
-7.16
-7.25
-6.74
-5.64
-4.14
-2.47
-0.89
0.50
1.69
2.69
3.53
4.17
4.57
4.71
4.64
4.48
4.37
4.36
4.45
4.58
4.69
4.74
4.76
4.76
4.78
4.81
4.80
4.73
4.58
4.34
4.00
3.53
2.89
2.08
1.18
0.31
-0.39
-0.83
-1.05
-1.17
-1.34
-1.70
-2.25
-2.95
-3.74
-4.55
-5.37
-6.22
-7.07
-7.83
-8.39
-8.65
-8.54
-8.05
-7.20
-6.05
-4.65
-3.09
-1.43
0.22
1.71
2.92
3.79
4.28
4.46
4.43
4.28
4.11
3.99
3.94
4.01
4.21
4.52
4.85
5.09
5.14
4.97
4.66
4.31
4.04
3.86
3.72
3.51
3.20
2.78
2.34
1.96
1.65
1.38
1.05
0.59
-0.03
-0.75
-1.49
-2.21
-2.90
-3.58
-4.28
-4.98
-5.65
-6.26
-6.79
-7.27
-7.73
-8.17
-8.55
-8.80
-8.85
-8.60
-7.99
-7.00
-5.66
-4.06
-2.36
-0.67
0.86
2.18
3.27
4.11
4.73
5.14
5.33
5.33
5.18
4.94
4.68
4.44
4.29
4.26
4.38
4.66
5.04
5.41
5.64
5.64
5.38
4.92
4.39
3.95
3.65
3.49
3.35
3.11
2.69
2.08
1.34
0.57
-0.11
-0.67
-1.08
-1.37
-1.61
-1.91
-2.38
-3.09
-4.00
-4.99
-5.86
-6.48
-6.80
-6.92
-7.04
-7.35
-7.94
-8.75
-9.58
-10.17
-10.32
-9.90
-8.90
-7.40
-5.52
-3.41
-1.26
0.71
2.32
3.45
4.08
4.31
4.30
4.22
4.18
4.22
4.34
4.48
4.61
4.71
4.76
4.77
4.75
4.72
4.74
4.85
5.07
5.38
5.67
5.85
5.80
5.46
4.86
4.09
3.27
2.48
1.78
1.16
0.61
0.14
-0.22
-0.46
-0.59
-0.70
-0.89
-1.26
-1.84
-2.62
-3.55
-4.55
-5.55
-6.48
-7.28
-7.90
-8.34
-8.63
-8.84
-9.06
-9.32
-9.58
-9.69
-9.49
-8.82
-7.60
-5.90
-3.89
-1.83
0.00
1.38
2.21
2.49
2.36
2.00
1.60
1.25
1.02
0.87
0.75
0.66
0.62
0.67
0.84
1.10
1.34
1.49
1.47
1.29
1.01
0.70
0.46
0.30
0.20
0.07
-0.19
-0.66
-1.39
-2.33
-3.37
-4.27
-4.78
-4.65
-3.78
-2.20
-0.12
2.14
4.22
5.87
7.02
7.79
8.47
9.39
10.76
12.64
14.90
17.28
19.54
21.52
23.23
24.77
26.25
27.70
29.00
29.90
30.10
29.41
27.78
25.38
22.49
19.41
16.38
13.60
11.20
9.28
7.93
7.18
6.93
7.02
7.20
7.26
7.05
6.47
5.48
4.11
2.41
0.55
-1.29
-2.90
-4.20
-5.24
-6.17
-7.19
-8.38
-9.75
-11.25
-12.95
-15.02
-17.75
-21.32
-25.66
-30.43
-35.04
-38.90
-41.57
-42.87
-42.89
-41.85
-40.03
-37.67
-34.94
-31.89
-28.47
-24.55
-19.93
