1517324287.00
64.000000
-0.00
-0.00
-0.00
-0.00
-0.00
-0.00
-0.00
-0.00
-0.00
-0.00
0.00
0.01
0.01
-0.00
-0.03
-0.05
-0.05
0.00
0.13
0.36
0.66
1.01
1.37
1.72
2.06
2.40
2.79
3.24
3.80
4.42
5.06
5.66
6.20
6.68
7.15
7.68
8.31
9.14
10.09
11.04
11.88
12.56
13.14
13.76
14.65
15.96
17.91
20.32
22.90
25.38
27.58
29.57
31.68
34.32
37.81
42.54
48.15
54.10
59.83
64.97
69.58
74.14
79.34
85.71
93.76
103.00
112.62
121.73
129.77
136.75
143.30
150.75
157.77
166.64
177.95
191.79
206.97
220.57
228.25
225.36
208.53
176.87
132.76
80.05
23.07
-34.94
-92.44
-149.16
-205.23
-260.37
-313.74
-363.87
-409.83
-450.91
-486.50
-515.74
-537.23
-549.22
-549.96
-538.37
-514.21
-478.67
-433.88
-382.45
-327.02
-269.84
-212.63
-156.66
-102.95
-52.37
-5.90
35.58
71.43
101.35
125.50
144.38
158.69
169.15
176.37
180.75
182.57
182.07
179.51
175.23
169.65
163.18
156.15
148.81
141.30
133.69
126.02
118.33
110.69
103.16
95.80
88.68
81.83
75.25
68.95
62.95
57.24
51.85
46.78
42.03
37.59
33.47
29.65
26.13
22.90
19.96
17.30
14.91
12.79
10.93
9.32
7.93
6.75
5.76
4.94
4.27
3.74
3.32
3.01
2.79
2.64
2.56
2.53
2.57
2.67
2.84
3.05
3.28
3.49
3.65
3.78
3.89
4.04
4.29
4.67
5.19
5.78
6.40
6.99
7.56
8.14
8.81
9.65
10.71
11.95
13.29
14.60
15.78
16.83
17.85
18.98
20.40
22.23
24.38
26.63
28.65
30.18
31.19
31.89
32.62
33.72
35.23
36.78
37.55
36.56
33.04
26.73
17.96
7.59
-3.42
-14.41
-25.36
-36.84
-49.65
-64.27
-80.44
-96.37
-110.63
-122.02
-129.90
-134.67
-137.57
-140.10
-143.61
-149.13
-157.72
-168.99
-181.42
-191.74
-195.18
-187.00
-164.65
-129.49
-86.72
-43.80
-6.67
21.64
41.80
56.91
70.16
83.09
95.25
105.31
111.68
115.10
117.03
118.71
120.30
120.87
119.08
113.95
105.75
96.35
87.55
80.90
77.01
75.25
74.10
71.87
67.54
61.30
54.43
48.72
45.49
44.99
46.21
47.39
46.85
43.83
38.98
34.08
31.16
31.52
34.94
39.78
43.65
44.79
42.66
38.50
34.58
33.10
35.22
40.85
48.89
57.72
65.26
68.89
65.87
54.08
33.07
5.08
-25.42
-53.18
-74.26
-87.43
-94.58
-99.07
-103.82
-109.10
-112.50
-110.10
-98.56
-77.41
-49.41
-19.77
6.27
25.60
38.52
48.25
58.50
70.65
81.66
86.48
79.19
57.66
25.31
-9.97
-39.35
-56.83
-61.53
-57.23
-49.71
-43.39
-39.39
-35.96
-29.94
-20.40
-8.39
3.41
12.30
17.02
18.38
18.42
19.44
22.56
27.30
32.05
34.86
34.26
29.67
22.17
13.42
4.99
-2.25
-8.37
-13.98
-19.77
-25.54
-31.62
-37.44
-42.24
-45.44
-46.89
-46.94
-46.17
-45.06
-44.05
-43.29
-42.43
-41.09
-38.96
-35.89
-31.92
-27.86
-23.29
-18.33
-13.29
-8.24
-3.39
0.95
4.67
7.63
9.85
11.57
12.90
14.03
15.26
16.92
19.03
21.77
25.15
29.05
33.37
37.60
41.16
43.56
44.35
42.93
39.18
33.05
24.65
14.45
2.71
-10.13
-23.56
-35.52
-46.17
-55.38
-63.14
-69.44
-74.17
-77.64
-80.05
-81.40
-81.58
-80.58
-78.12
-74.11
-69.86
-64.36
-57.51
-49.34
-39.94
-29.40
-18.03
-6.05
5.93
17.28
27.61
36.37
43.57
49.71
55.75
62.64
71.47
81.60
91.91
101.07
107.47
110.27
109.42
105.79
100.55
94.59
87.54
78.09
64.60
45.67
21.43
-6.55
-35.31
-61.68
-81.93
-96.06
-105.65
-113.20
-121.14
-131.02
-143.53
-157.86
-171.48
-179.97
-177.85
-159.53
-122.33
-70.64
-11.71
42.54
80.54
96.05
90.75
73.05
54.31
43.61
44.62
54.98
68.79
81.06
89.87
96.12
101.38
106.36
110.12
110.49
105.94
96.06
82.07
65.96
49.94
34.69
20.03
4.92
-11.74
-30.56
-51.42
-73.21
-94.49
-114.32
-132.91
-151.02
-168.83
-184.72
-194.92
-194.83
-181.29
-154.81
-120.19
-85.06
-56.86
-39.79
-34.08
-36.82
-44.16
-53.24
-62.87
-72.93
-83.36
-93.43
-101.63
-106.98
-109.70
-111.08
-112.62
-115.27
-118.70
-121.45
-121.71
-117.68
-109.02
-96.93
-83.45
-70.37
-58.16
-45.42
-28.94
-9.00
14.95
42.42
72.04
102.04
131.26
159.75
188.87
220.89
258.43
304.66
361.69
429.46
504.59
579.87
645.41
691.29
710.88
703.16
673.24
629.56
580.36
530.88
482.51
434.01
383.80
331.79
279.59
229.87
184.49
143.56
105.74
69.11
32.39
-4.49
-40.19
-72.81
-100.82
-123.95
-143.59
-162.44
-183.66
-210.07
-243.83
-286.62
-339.56
-402.55
-473.15
-545.78
-611.94
-662.49
-690.82
-695.28
-679.67
-651.43
-618.51
-586.63
-558.24
-533.08
-510.00
-488.46
-468.74
-451.22
-435.49
-420.11
-403.26
-383.66
-360.76
-335.18
-308.45
-282.08
-256.78
-232.11
-206.76
-179.29
-148.83
-114.32
-76.01
-35.47
4.88
42.72
76.60
106.22
131.89
154.16
175.82
198.80
223.32
247.90
270.44
289.49
304.87
317.25
327.67
340.91
360.45
386.97
418.08
449.94
479.36
504.95
526.92
546.40
569.81
601.96
643.97
692.37
741.02
783.86
816.59
836.87
811.54
722.07
569.91
378.21
178.67
-3.94
-157.71
-280.66
-375.68
-447.01
-493.42
-514.32
-511.96
-492.35
-462.65
-428.80
-394.01
-358.83
-321.98
-277.61
-223.60
-161.90
-98.42
-40.67
5.31
36.62
53.65
59.10
59.00
58.65
61.50
68.59
78.99
90.26
98.52
98.65
85.64
58.08
18.65
-25.76
-66.54
-96.56
-112.72
-116.58
-112.76
-106.16
-99.36
-92.61
-84.93
-75.91
-66.52
-58.60
-53.56
-51.49
-51.06
-50.38
-47.81
-42.79
-36.08
-29.17
-23.63
-20.26
-18.85
-18.33
-17.26
-14.69
-10.36
-4.89
0.66
5.27
8.47
10.54
12.22
14.44
17.70
21.98
26.76
31.38
35.21
38.17
40.53
42.68
44.80
46.44
46.71
44.46
38.80
29.49
17.10
2.85
-11.87
-25.56
-37.96
-49.29
-60.09
-70.73
-81.03
-90.18
-97.03
-101.17
-102.16
-100.82
-98.54
-96.78
-96.64
-98.87
-103.88
-111.48
-120.33
-127.35
-128.48
-119.89
-100.06
-71.15
-38.73
-9.77
10.23
19.30
19.28
14.10
7.55
1.62
-3.62
-8.83
-14.18
-18.71
-20.90
-19.64
-14.92
-7.81
0.24
7.90
14.83
21.47
28.72
37.25
47.02
57.15
66.23
72.84
76.01
75.65
72.39
67.34
61.58
55.88
50.46
45.16
39.67
33.75
27.47
21.08
14.91
9.26
4.22
-0.35
-4.55
-8.54
-12.40
-16.01
-19.16
-21.61
-23.20
-23.93
-23.96
-23.38
-22.49
-21.69
-21.33
-21.72
-23.11
-25.58
-29.10
-33.57
-38.50
-43.59
-48.67
-53.68
-58.60
-63.30
-67.61
-71.33
-74.38
-76.19
-76.77
-76.56
-76.33
-76.80
-78.18
-79.95
-80.71
-81.79
-82.69
-82.99
-82.59
-81.79
-80.95
-80.06
-78.61
-75.65
-70.19
-60.79
-47.12
-29.95
-11.10
7.17
23.19
36.16
46.59
56.17
68.87
87.95
114.36
145.39
174.83
194.17
194.62
169.50
116.53
41.65
-44.08
-126.79
-193.28
-234.01
-244.68
-226.47
-184.78
-127.32
-58.68
16.66
93.92
167.85
234.04
290.24
336.77
375.61
408.50
439.83
471.56
502.94
531.66
555.85
575.65
593.10
610.89
603.78
557.02
469.42
355.19
235.04
125.32
33.67
-39.04
-94.87
-136.55
-162.83
-175.04
-178.76
-183.38
-197.82
-226.57
-267.37
-312.90
-354.66
-382.62
-391.48
-380.84
-354.19
-316.26
-271.92
-225.60
-181.13
-140.54
-102.89
-67.45
-34.42
-5.85
15.24
25.94
25.18
14.47
-5.59
-28.09
-48.03
-62.20
-72.40
-79.95
-85.20
-87.05
-83.50
-73.12
-55.07
-31.10
-4.77
19.51
38.58
50.58
55.97
57.15
57.16
59.05
64.61
74.74
89.64
109.53
130.29
143.34
140.05
114.89
69.53
12.89
-42.51
-86.28
-113.32
-125.10
-126.33
-121.71
-113.42
-101.00
-83.44
-61.37
-37.76
-16.62
-1.87
5.90
8.39
8.54
8.83
9.85
9.72
5.20
-6.49
-25.68
-50.65
-78.63
-106.40
-130.47
-147.10
-152.42
-143.30
-118.79
-81.82
-38.84
1.75
32.85
51.15
57.78
56.74
52.37
47.40
42.10
35.94
28.53
21.33
16.92
17.32
22.49
29.94
35.99
37.51
33.96
27.51
21.94
20.36
23.32
28.60
32.72
32.96
28.94
22.60
16.67
12.97
11.61
11.08
9.73
6.79
2.74
-1.25
-3.88
-4.28
-1.56
4.66
14.04
25.59
37.48
47.36
52.88
52.66
46.89
37.21
26.13
16.17
9.41
6.90
8.52
13.15
19.11
24.66
28.75
31.28
32.72
33.49
33.31
30.91
24.70
13.79
-1.34
-18.96
-36.78
-53.19
-67.78
-81.01
-93.34
-104.34
-112.62
-116.28
-114.04
-105.61
-91.85
-74.33
-54.81
-34.92
-16.18
-0.11
11.95
19.15
21.57
20.30
17.21
14.28
12.94
13.82
16.67
20.74
25.08
28.98
32.00
34.04
35.04
34.65
32.25
27.05
18.48
6.59
-7.57
-22.27
-35.66
-46.45
-54.41
-60.04
-63.93
-66.29
-66.71
-64.46
-59.04
-50.63
-40.11
-28.77
-17.81
-7.95
0.51
7.52
13.15
17.43
20.51
22.72
24.60
26.77
29.66
33.28
37.03
39.85
40.53
38.19
32.90
25.70
18.45
13.18
11.35
13.31
18.28
24.78
31.38
37.22
42.06
45.90
48.56
49.40
47.63
42.88
35.67
27.63
20.89
17.42
18.29
23.45
32.05
42.84
54.62
66.43
77.69
88.06
97.45
105.92
113.70
120.84
127.16
131.88
134.00
132.71
127.92
120.58
112.47
105.59
100.97
97.78
93.09
82.78
63.24
33.20
-5.21
-47.18
-87.03
-120.34
-145.40
-162.96
-175.09
-183.94
-191.47
-199.54
-210.11
-224.54
-242.21
-259.61
-270.88
-269.99
-253.83
-224.26
-187.89
-153.87
-130.24
-121.23
-126.11
-140.14
-156.62
-169.38
-174.45
-170.83
-160.04
-144.73
-127.32
-108.92
-89.46
-68.88
-48.10
-29.26
-14.90
-6.54
-3.57
-3.18
-1.65
3.92
14.37
28.67
45.05
62.28
80.19
99.15
118.86
137.74
153.12
162.11
163.01
155.91
142.46
125.00
105.85
86.77
69.22
54.58
44.26
39.41
40.17
45.34
52.60
59.24
63.16
63.68
61.56
58.46
56.08
55.25
55.61
56.07
55.38
52.99
49.38
45.87
43.95
44.58
47.67
51.92
55.52
56.59
54.08
47.99
39.13
28.34
16.07
2.20
-13.48
-30.48
-47.38
-62.14
-73.12
-80.05
-84.31
-88.06
-92.78
-98.20
-102.29
-102.33
-96.41
-84.54
-68.67
-51.60
-35.79
-22.33
-11.00
-0.98
8.10
15.65
20.24
20.17
14.62
4.18
-9.04
-21.97
-31.48
-35.43
-33.11
-25.20
-13.27
0.93
15.76
29.62
40.77
47.53
48.70
44.14
35.24
24.69
15.55
10.04
8.79
10.60
13.29
14.88
14.43
12.32
9.82
8.14
7.71
7.99
7.84
6.23
2.78
-2.04
-7.11
-11.18
-13.25
-12.78
-9.60
-3.86
4.01
13.25
22.80
31.64
38.94
44.42
48.22
50.76
52.07
51.86
49.51
44.58
37.35
28.73
19.87
11.63
4.27
-2.51
-9.14
-15.75
-22.11
-27.53
-31.28
-32.77
-31.70
-28.19
-22.79
-16.56
-10.81
-6.56
-3.99
-2.10
0.98
6.85
15.71
25.74
33.59
35.95
31.12
19.76
4.39
-11.91
-26.82
-39.28
-49.02
-55.64
-58.05
-54.83
-45.10
-29.32
-9.49
11.71
31.80
49.28
63.79
75.68
85.49
93.40
99.26
102.55
102.70
99.36
92.52
82.59
70.47
57.36
44.47
32.91
23.37
16.10
11.06
7.85
6.04
5.20
5.04
5.32
5.90
6.47
6.59
5.76
3.60
0.10
-4.32
-8.91
-12.93
-15.94
-17.95
-19.34
-20.53
-21.75
-22.83
-23.42
-23.21
-22.20
-20.65
-19.09
-18.00
-17.66
-18.04
-18.88
-19.89
-20.91
-21.95
-23.12
-24.52
-26.08
-27.61
-28.83
-29.53
-29.60
-29.00
-27.74
-25.77
-23.04
-19.62
-15.77
-11.81
-8.25
-5.35
-3.10
-1.17
0.92
3.56
6.78
10.23
13.40
15.70
16.87
16.98
16.35
15.36
14.19
12.77
10.94
8.65
6.04
3.42
1.18
-0.56
-1.72
-2.49
-3.09
-3.73
-4.52
-5.45
-6.45
-7.23
-7.69
-7.63
-7.14
-6.54
-6.17
-6.40
-7.28
-8.75
-10.48
-12.27
-13.99
-15.71
-17.60
-19.77
-22.22
-24.82
-27.32
-29.36
-30.63
-31.13
-31.23
-31.64
-33.08
-36.01
-40.28
-45.04
-49.04
-51.06
-50.39
-46.98
-41.46
-34.71
-27.65
-20.87
-14.67
-9.01
-3.67
1.51
6.66
11.69
16.51
20.96
25.01
28.60
31.54
33.60
34.49
34.17
32.84
30.94
29.01
27.48
26.50
26.03
25.87
25.76
25.53
25.08
24.30
23.20
21.76
19.86
17.46
14.45
10.81
6.64
2.20
-2.24
-6.43
-10.31
-13.97
-17.48
-20.73
-23.46
-25.22
-25.53
-24.15
-21.15
-16.93
-12.24
-7.90
-4.55
-2.49
-1.59
-1.39
-1.24
-0.57
0.90
3.15
5.95
8.95
11.84
14.42
16.56
18.21
19.37
20.05
20.27
20.08
19.50
18.54
17.26
15.78
14.22
12.69
11.31
10.14
9.29
8.91
9.08
9.80
10.81
11.67
11.76
10.73
8.55
5.63
2.72
0.40
-1.09
-1.92
-2.48
-3.06
-3.52
-3.59
-2.95
-1.55
0.28
2.10
3.54
4.55
5.34
6.28
7.42
8.48
8.97
8.21
5.67
1.18
-4.91
-11.71
-17.86
-22.10
-23.62
-22.27
-18.69
-13.79
-8.37
-2.90
2.50
7.86
12.98
17.43
20.66
22.31
22.46
21.65
20.54
19.48
18.43
16.82
13.90
9.26
3.19
-3.11
-8.09
-10.25
-9.20
-5.46
-0.56
3.43
4.77
2.68
-2.22
-8.33
-13.23
-15.09
-12.56
-5.60
4.41
15.05
23.79
29.00
30.07
27.91
22.95
15.72
5.76
-8.09
-27.22
-52.25
-82.77
-118.14
-157.53
-201.92
-246.97
-284.18
-303.84
-300.91
-277.72
-241.97
-207.72
-178.71
-156.28
-139.60
-126.98
-116.81
-108.03
-100.36
-92.67
-82.47
-65.55
-39.54
-4.32
36.82
77.94
112.82
137.83
153.42
162.89
170.82
178.98
186.78
191.91
192.10
186.68
177.13
166.31
156.85
150.01
144.43
137.80
128.34
116.05
102.80
91.32
83.80
80.74
81.17
83.18
85.47
87.94
91.40
96.73
104.04
112.54
120.87
128.04
133.90
139.27
145.13
151.86
158.68
163.92
165.86
163.74
158.51
152.45
148.18
146.55
145.97
143.05
134.36
118.19
95.34
68.72
41.64
16.17
-8.18
-32.96
-58.38
-82.05
-99.62
-107.31
-104.21
-93.35
-80.45
-72.56
-74.04
-84.32
-98.30
-109.41
-113.28
-109.51
-101.05
-91.99
-87.25
-89.98
-100.63
-117.85
-139.83
-166.05
-197.14
-233.81
-264.06
-274.95
-259.04
-219.24
-165.67
-108.07
-52.86
-3.32
39.55
76.75
108.79
136.39
160.66
182.18
201.62
218.70
232.94
243.32
249.04
248.72
241.87
229.40
212.18
191.84
169.68
146.43
122.53
98.27
73.00
45.23
20.74
2.10
-9.58
-14.67
-14.82
-12.23
-9.88
-10.38
-14.62
-21.15
-27.66
-30.28
-25.19
-10.45
12.67
37.10
54.72
60.42
54.17
38.80
19.10
-0.33
-16.62
-29.12
-43.95
-65.89
-94.33
-123.96
-149.97
-170.36
-185.81
-198.31
-209.65
-228.92
-261.13
-303.02
-345.18
-379.59
-403.48
-418.46
-428.06
-435.49
-453.73
-490.84
-544.83
-606.02
-665.60
-719.80
-768.39
-811.78
-781.27
-643.58
-422.11
-179.78
32.14
195.50
314.18
399.48
462.26
510.42
538.04
540.76
522.96
495.09
466.64
441.80
420.50
400.79
380.33
349.60
304.91
250.38
195.57
149.10
114.97
93.30
82.28
79.52
77.53
70.93
59.06
45.37
33.78
26.09
22.29
21.59
23.11
23.66
21.15
15.50
8.57
2.39
-2.04
-4.71
-5.92
-6.10
-6.45
-7.64
-9.86
-12.57
-15.10
-17.10
-18.66
-19.95
-21.16
-22.36
-23.45
-24.76
-26.69
-29.54
-33.39
-38.31
-44.04
-49.95
-56.30
-60.85
-62.12
-59.09
-51.06
-37.85
-20.04
1.26
24.59
48.24
70.77
90.52
106.16
116.52
121.04
119.34
111.87
99.86
85.29
70.74
58.41
50.04
46.02
46.25
49.21
53.38
57.69
61.80
66.16
71.17
76.99
82.54
86.88
87.79
84.04
75.90
65.20
54.66
46.42
41.36
37.84
33.56
24.11
6.09
-21.80
-58.65
-103.04
-155.05
-209.49
-265.41
-310.15
-335.20
-337.95
-323.30
-300.07
-275.32
-250.95
-223.69
-188.73
-142.19
-86.43
-28.57
22.21
58.48
77.59
82.19
78.33
71.60
65.75
60.14
52.64
41.97
28.94
16.03
5.73
-0.90
-4.90
-7.97
-12.92
-21.14
-32.09
-43.60
-52.87
-57.88
-58.17
-55.54
-51.43
-48.24
-47.92
-51.36
-58.47
-68.53
-80.75
-94.69
-109.71
-125.18
-140.56
-155.06
-167.63
-177.31
-183.63
-186.82
-188.04
-188.15
-188.10
-188.85
-191.11
-195.16
-200.87
-207.78
-215.21
-222.59
-228.43
-231.32
-230.31
-224.85
-214.67
-199.49
-178.66
-150.44
-119.28
-86.97
-54.13
-21.30
10.80
41.27
69.15
93.75
114.96
133.04
149.72
168.11
190.33
216.83
246.27
276.27
304.46
329.22
349.80
367.00
384.95
406.52
431.97
458.98
483.84
503.75
517.57
525.77
530.13
537.45
552.51
576.67
608.44
644.70
682.34
717.93
746.96
764.48
772.82
775.09
773.61
769.17
760.54
746.08
724.60
696.17
623.98
493.76
315.79
121.38
-54.78
-192.74
-289.31
-350.92
-386.39
-403.53
-402.40
-381.80
-347.43
-307.72
-272.38
-248.26
-238.20
-241.73
-256.34
-274.25
-289.77
-302.11
-309.83
-313.87
-314.45
-310.31
-299.56
-280.71
-250.68
-209.10
-159.43
-107.64
-61.26
-26.29
-6.07
-1.22
-10.30
-29.20
-54.02
-82.29
-112.73
-145.24
-179.17
-212.78
-243.44
-268.28
-284.62
-291.53
-290.48
-284.72
-278.39
-274.65
-274.49
-277.15
-280.12
-280.61
-277.03
-270.04
-262.70
-259.98
-267.16
-288.39
-325.70
-376.35
-432.70
-483.71
-517.99
-527.21
-508.81
-467.20
-412.77
-360.02
-320.77
-300.20
-295.27
-296.79
-293.68
-277.29
-244.56
-198.08
-145.53
-93.51
-45.27
-0.75
40.97
79.24
111.86
135.94
160.62
188.78
218.51
244.25
261.46
267.82
262.82
247.71
224.66
197.31
167.02
137.92
114.71
101.94
101.71
113.50
134.58
160.18
185.13
204.53
214.73
215.15
208.65
198.18
181.28
155.18
117.55
68.66
11.74
-43.56
-92.68
-132.78
-163.33
-182.99
-189.92
-182.56
-160.21
-123.50
-74.01
-14.63
51.12
118.64
186.68
255.20
324.38
393.90
463.06
531.03
597.18
662.29
706.52
715.72
683.89
614.93
518.55
405.69
285.87
168.17
62.25
-24.19
-84.31
-117.02
-127.00
-122.79
-111.86
-99.37
-87.97
-78.11
-72.38
-71.32
-75.00
-83.12
-96.25
-113.30
-133.42
-156.36
-180.55
-205.49
-229.63
-251.31
-268.85
-286.43
-301.86
-312.61
-316.82
-313.74
-304.00
-287.96
-266.07
-230.96
-185.32
-133.06
-78.91
-27.05
19.21
57.53
87.08
108.41
122.72
130.45
134.35
136.59
138.36
139.84
140.21
138.42
134.01
127.54
118.08
107.09
95.71
84.46
73.11
60.74
46.65
30.94
13.94
-3.80
-20.71
-36.05
-50.37
-65.26
-82.65
-104.18
-125.76
-147.22
-169.40
-191.42
-210.48
-221.98
-220.79
-203.84
-172.19
-131.46
-90.44
-57.55
-37.03
-28.81
-29.82
-35.94
-43.98
-51.90
-59.09
-63.30
-61.70
-51.34
-31.17
-2.72
30.52
64.71
96.74
124.24
147.65
169.03
191.61
216.54
241.36
260.08
265.13
250.00
212.80
160.88
101.70
46.47
5.69
-14.30
-12.61
6.54
34.87
62.89
82.26
86.57
73.52
44.80
5.88
-35.44
-67.81
-83.53
-80.63
-62.13
-34.93
-6.70
16.90
31.28
33.46
21.64
-4.56
-42.92
-87.72
-129.18
-156.66
-163.53
-149.92
-122.45
-91.67
-67.56
-55.47
-54.67
-60.35
-67.07
-71.70
-74.35
-76.86
-81.16
-87.76
-95.47
-102.32
-106.76
-108.44
-107.87
-106.51
-103.85
-98.75
-89.62
-74.96
-54.03
-27.31
3.34
34.42
62.77
86.41
104.40
116.88
124.62
128.57
129.49
127.77
123.55
117.21
109.41
100.84
92.31
84.46
77.63
71.79
66.60
61.58
56.52
51.40
46.32
41.46
36.98
32.97
29.36
26.06
22.97
20.08
17.44
15.04
12.91
11.05
9.46
8.02
6.69
5.52
4.52
3.77
3.23
2.91
2.79
3.13
3.63
4.23
5.06
6.29
8.11
10.63
13.82
17.55
21.46
25.39
28.54
30.37
30.46
28.55
24.57
18.63
11.03
2.23
-7.25
-16.72
-25.38
-32.46
-37.32
-39.64
-39.52
-37.48
-34.29
-30.84
-27.75
-25.25
-23.08
-20.77
-17.86
-14.28
-10.40
-6.92
-4.51
-3.48
-3.61
-3.97
-3.40
-0.88
3.80
10.09
16.87
23.15
28.34
32.52
36.49
41.29
47.66
55.70
65.12
75.20
84.63
91.23
91.90
83.97
66.38
40.62
10.53
-18.90
-43.39
-60.93
-70.55
-74.20
-74.23
-71.65
-65.77
-55.76
-42.15
-27.29
-14.19
-4.79
0.62
4.46
9.25
17.00
27.18
37.25
43.75
43.91
36.40
20.73
-1.40
-25.94
-47.65
-60.71
-60.50
-45.93
-20.92
6.37
24.38
27.72
15.03
-9.57
-38.23
-62.64
-77.17
-79.94
-67.47
-44.40
-15.29
16.15
48.27
80.15
110.57
137.69
159.78
176.17
187.01
192.78
193.11
188.93
181.48
171.49
158.91
143.79
126.99
109.31
89.75
66.95
42.69
20.44
3.14
-8.15
-14.19
-17.15
-21.87
-28.71
-41.31
-59.49
-80.25
-101.41
-123.46
-148.59
-178.17
-213.02
-257.82
-314.78
-379.97
-446.45
-508.97
-565.27
-614.10
-652.27
-633.79
-537.17
-379.55
-202.81
-42.67
85.26
180.70
245.18
291.76
326.15
343.23
338.29
312.71
272.41
224.31
175.68
133.20
102.40
83.67
69.68
54.02
35.68
18.26
6.03
1.25
3.66
11.87
22.68
30.43
31.63
26.77
19.18
12.45
8.79
8.63
11.46
15.52
17.98
17.16
13.45
8.55
4.22
1.47
0.38
0.59
1.09
0.65
-1.48
-4.96
-8.96
-12.59
-15.25
-16.57
-16.40
-16.36
-15.64
-14.04
-11.40
-8.17
-4.98
-2.59
-1.73
-3.12
-5.49
-9.91
-16.87
-25.69
-35.83
-46.63
-57.50
-67.74
-76.79
-84.14
-89.31
-93.64
-95.18
-92.79
-85.79
-73.84
-56.93
-35.47
-10.34
18.49
48.27
77.39
104.28
127.79
146.90
160.91
169.76
173.32
171.63
165.22
154.43
139.48
120.53
97.66
70.88
40.92
8.41
-25.11
-58.33
-89.32
-116.47
-138.54
-155.00
-167.38
-174.64
-176.44
-172.52
-162.67
-146.54
-124.22
-96.44
-63.69
-29.50
3.61
33.22
57.58
75.47
86.72
92.47
95.18
97.88
103.44
113.87
128.64
145.02
159.34
168.50
171.06
168.30
161.02
150.52
138.11
124.04
107.90
89.11
67.27
42.35
15.62
-11.61
-37.65
-60.66
-79.45
-93.55
-103.26
-109.51
-113.49
-116.24
-118.84
-121.76
-124.84
-127.31
-127.88
-125.20
-118.54
-108.41
-96.60
-85.79
-78.21
-75.03
-75.36
-77.28
-79.00
-79.62
-79.25
-78.26
-76.80
-73.43
-65.96
-52.30
-31.41
-3.62
29.55
65.66
100.95
131.03
151.24
157.80
149.59
129.14
102.10
75.19
53.78
39.42
30.99
26.01
22.60
20.34
20.03
22.12
25.81
28.98
28.98
24.25
14.64
1.51
-12.36
-23.01
-26.53
-20.17
-4.19
17.83
40.02
56.26
62.59
58.90
48.30
35.30
23.42
13.82
5.70
-2.15
-10.02
-16.83
-20.86
-21.06
-17.76
-12.60
-7.78
-5.05
-4.84
-6.34
-7.98
-8.35
-6.71
-3.36
0.92
4.88
7.62
9.08
9.89
10.97
13.13
16.68
21.32
26.65
31.78
36.12
39.54
42.34
45.04
48.08
51.61
55.53
59.76
63.60
66.29
67.14
65.74
61.79
55.04
45.43
30.78
12.72
-7.11
-27.40
-47.04
-65.18
-81.20
-94.73
-105.68
-114.17
-120.16
-124.28
-127.18
-129.50
-131.68
-134.11
-136.89
-139.92
-142.90
-145.17
-146.22
-145.40
-142.78
-137.48
-129.04
-117.34
-102.54
-85.14
-65.77
-45.26
-24.68
-5.13
12.50
27.29
38.51
45.77
48.83
47.76
42.91
34.72
23.53
9.78
-6.25
-24.38
-44.38
-66.01
-89.10
-113.11
-137.59
-162.14
-186.16
-208.99
-229.97
-248.26
-262.64
-275.14
-285.96
-295.14
-302.70
-308.61
-312.88
-315.51
-316.41
-315.54
-312.79
-307.52
-299.41
-288.19
-273.84
-255.88
-234.34
-209.89
-183.76
-157.37
-131.60
-107.20
-84.64
-64.10
-44.87
-26.25
-7.85
10.30
28.18
46.08
64.13
82.47
101.10
121.07
142.83
165.61
187.54
206.70
221.82
232.39
238.48
240.47
242.72
248.35
257.50
267.52
275.30
279.20
279.40
277.05
273.71
278.83
298.74
333.26
376.24
420.12
459.94
494.22
523.46
548.94
584.32
638.38
709.76
787.97
860.84
921.05
967.31
1002.13
1029.56
1069.96
1136.82
1229.61
1334.79
1435.25
1518.76
1579.78
1617.35
1529.19
1269.29
864.38
400.90
-33.29
-390.13
-660.31
-854.79
-990.04
-1081.22
-1123.94
-1117.02
-1069.96
-1002.60
-935.56
-881.77
-844.87
-822.27
-808.77
-786.75
-745.00
-684.12
-615.69
-553.56
-506.51
-476.19
-459.46
-451.32
-439.07
-414.08
-374.76
-326.74
-278.64
-238.79
-214.01
-209.07
-224.74
-251.69
-275.61
-281.58
-260.39
-211.56
-143.27
-69.24
-3.45
45.28
76.92
94.73
105.70
114.57
122.42
128.38
132.25
135.46
139.74
144.89
147.21
140.98
120.98
85.97
40.63
-6.14
-44.93
-69.75
-79.81
-78.75
-71.64
-62.91
-54.79
-47.80
-41.88
-37.39
-34.95
-34.83
-36.26
-37.45
-36.70
-33.00
-26.92
-20.45
-16.11
-15.92
-20.51
-28.29
-36.20
-41.10
-40.85
-35.29
-26.32
-17.06
-10.77
-9.88
-15.14
-25.53
-38.14
-48.71
-52.48
-46.07
-28.48
-1.79
29.04
57.28
76.56
83.21
77.59
63.88
47.74
33.52
22.45
12.79
1.88
-11.52
-25.14
-35.07
-37.41
-31.13
-19.08
-6.79
1.07
3.28
2.46
3.24
8.64
18.97
31.03
39.60
40.05
30.17
10.81
-15.35
-44.57
-72.58
-94.49
-105.32
-101.60
-83.22
-54.71
-24.40
-1.63
7.35
2.59
-10.60
-23.21
-28.22
-24.00
-13.96
-3.37
4.26
8.93
13.00
18.70
26.35
33.87
38.39
38.01
33.12
26.12
20.19
17.92
20.04
25.50
31.75
36.01
36.65
33.72
28.96
24.78
23.39
25.79
31.35
37.97
42.85
43.79
39.77
31.27
19.88
7.56
-4.40
-15.53
-26.00
-36.86
-48.77
-61.77
-75.49
-89.49
-103.18
-115.31
-123.35
-123.74
-113.30
-90.92
-59.08
-23.57
8.50
31.54
43.53
46.27
43.83
40.02
36.93
34.68
32.55
30.14
27.89
26.69
27.04
28.64
30.44
31.56
31.39
30.20
28.72
27.67
27.41
27.78
28.36
28.74
28.89
29.09
29.69
30.87
32.33
33.55
34.05
33.74
32.95
32.34
32.40
33.37
35.31
38.41
42.86
48.23
52.69
52.71
44.42
25.32
-3.73
-38.19
-71.49
-97.95
-115.37
-125.26
-130.73
-133.36
-131.38
-120.54
-97.30
-62.05
-20.17
19.77
49.97
66.84
71.77
69.50
65.25
62.00
60.18
59.20
59.09
61.10
66.17
72.85
76.39
70.25
49.34
13.25
-32.15
-76.91
-110.62
-126.95
-125.58
-111.46
-91.50
-71.54
-54.34
-40.33
-29.46
-22.15
-18.69
-17.70
-15.48
-7.65
7.82
28.47
47.30
55.84
48.61
26.43
-3.70
-31.82
-49.72
-54.09
-46.70
-31.90
-14.02
4.05
20.43
32.83
38.04
32.30
13.42
-16.97
-52.49
-83.07
-97.91
-89.35
-56.18
-4.86
51.56
97.50
120.52
115.71
87.45
46.49
5.79
-24.47
-39.47
-39.11
-28.39
-13.79
-0.12
11.07
19.35
25.26
27.89
25.98
17.88
2.96
-17.94
-43.38
-71.64
-103.38
-140.70
-185.61
-233.94
-278.59
-310.21
-320.42
-309.85
-280.61
-239.51
-195.69
-157.40
-128.12
-107.33
-91.72
-77.47
-62.02
-43.58
-22.74
-0.51
22.39
47.22
75.39
108.53
147.93
194.17
247.87
308.38
374.36
435.41
481.71
505.24
503.01
477.80
436.35
386.97
336.81
291.22
253.23
224.30
202.27
181.75
155.70
118.47
69.25
12.56
-43.19
-89.50
-120.50
-135.54
-138.05
-133.13
-125.00
-115.39
-104.86
-93.78
-83.30
-74.54
-68.23
-63.73
-59.42
-53.60
-44.57
-32.31
-18.27
-4.90
5.80
11.94
12.87
8.91
0.73
-10.43
-24.08
-40.23
-58.77
-79.33
-101.16
-122.86
-142.69
-160.64
-174.30
-182.13
-183.25
-177.58
-165.28
-146.92
-123.19
-93.31
-60.40
-26.68
5.79
35.22
59.57
78.17
89.82
93.49
88.13
72.94
49.01
18.60
-14.92
-48.05
-76.97
-99.14
-113.00
-118.64
-117.49
-110.64
-98.82
-79.93
-56.33
-30.47
-6.26
14.85
30.91
39.45
38.81
28.10
7.37
-22.26
-57.12
-91.70
-119.30
-131.76
-126.67
-108.01
-84.69
-65.98
-57.87
-60.72
-70.25
-80.85
-88.23
-90.65
-87.38
-78.15
-61.64
-36.16
-0.09
43.64
89.82
132.40
166.04
188.05
198.19
198.82
193.06
183.72
172.26
159.96
147.33
134.31
120.93
107.33
94.54
83.45
74.40
66.63
60.13
54.52
49.18
46.30
43.98
41.59
38.97
35.88
31.25
25.70
19.69
13.49
7.03
0.29
-6.43
-12.81
-18.77
-25.25
-30.52
-32.71
-30.00
-21.75
-6.89
14.58
42.08
75.04
103.94
126.33
143.89
160.44
177.08
193.50
203.76
200.52
185.78
155.78
113.44
65.41
19.41
-20.20
-46.21
-55.90
-48.78
-26.42
4.01
32.87
47.58
37.11
-6.68
-77.43
-165.31
-257.94
-345.26
-423.73
-493.26
-555.51
-591.54
-621.80
-635.26
-625.28
-589.47
-531.52
-460.81
-387.31
-318.60
-257.58
-205.64
-155.78
-105.67
-55.71
-8.41
33.47
69.77
103.20
138.23
176.62
222.76
274.52
326.58
373.06
409.31
433.91
448.47
456.65
461.23
467.85
478.65
494.23
514.01
535.62
554.38
563.16
554.30
521.46
464.64
387.12
295.46
197.63
100.76
9.66
-73.24
-146.50
-211.37
-261.23
-289.13
-293.62
-280.10
-257.22
-232.38
-209.86
-190.72
-173.75
-156.63
-138.46
-119.93
-102.33
-87.02
-74.93
-66.63
-61.89
-59.63
-58.29
-56.97
-55.76
-55.02
-55.13
-56.31
-58.52
-61.07
-62.51
-60.92
-54.78
-44.21
-30.57
-16.53
-5.51
-0.91
-5.68
-20.98
-47.87
-84.14
-125.42
-164.43
-192.59
-202.36
-189.83
-156.58
-109.78
-60.13
-17.56
11.67
26.85
31.44
30.18
26.58
21.93
16.11
9.00
1.74
-4.08
-7.25
-7.91
-7.64
-8.56
-12.41
-19.70
-29.56
-40.04
-49.00
-55.00
-57.14
-55.43
-50.32
-42.30
-31.57
-18.09
-1.78
16.56
35.90
55.08
72.83
88.03
99.93
108.11
112.48
113.29
110.98
106.43
100.80
95.38
91.20
88.85
88.15
88.23
87.95
86.34
83.17
79.04
74.97
72.01
70.92
72.13
75.84
81.65
88.06
92.08
89.71
77.52
54.61
23.91
-8.52
-35.83
-53.07
-59.14
-56.58
-49.77
-42.50
-36.57
-31.71
-26.95
-22.01
-17.64
-15.24
-15.54
-18.32
-22.65
-27.47
-32.03
-36.67
-42.42
-50.34
-61.03
-73.72
-86.59
-97.25
-103.44
-103.54
-97.18
-85.06
-67.60
-47.45
-26.27
-5.07
15.55
35.02
52.84
68.27
80.39
88.65
92.35
91.47
86.34
77.61
66.04
52.49
38.05
23.51
9.68
-3.02
-13.92
-22.56
-28.72
-32.51
-34.21
-34.26
-33.21
-31.50
-29.59
-27.65
-25.76
-23.91
-22.18
-20.54
-18.91
-17.31
-15.76
-14.30
-12.90
-11.85
-10.86
-9.89
-8.98
-8.14
-7.40
-6.79
-6.30
-5.85
-5.41
-4.89
-4.35
-3.84
-3.44
-3.19
-3.10
-3.11
-3.16
-3.17
-3.07
-2.93
-2.87
-3.00
-3.37
-3.98
-4.69
-5.34
-5.78
-5.95
-6.03
-6.33
-7.13
-8.60
-10.73
-13.19
-15.53
-17.33
-18.44
-19.13
-20.11
-21.94
-25.07
-29.48
-34.51
-39.31
-43.06
-45.54
-47.27
-49.48
-53.18
-59.06
-66.91
-75.47
-83.09
-88.57
-91.40
-91.99
-91.99
-91.82
-91.93
-92.70
-94.61
-98.31
-103.79
-109.84
-112.52
-108.99
-96.77
-76.28
-51.03
-26.33
-7.30
4.79
11.32
15.92
22.30
33.15
49.05
69.16
92.46
117.98
145.80
175.31
203.92
226.69
237.77
231.84
207.45
168.48
123.28
81.94
52.22
36.25
31.28
31.94
33.15
32.39
30.28
28.65
29.00
31.09
33.27
33.79
31.87
28.07
23.89
21.21
21.11
23.68
27.88
31.99
34.54
34.72
32.56
28.77
24.48
20.48
17.16
13.78
9.20
2.30
-7.61
-20.38
-34.87
-49.29
-61.75
-71.12
-77.17
-80.81
-83.49
-86.73
-91.72
-99.19
-109.40
-122.09
-135.79
-147.27
-151.91
-145.14
-124.65
-92.15
-53.10
-14.93
15.69
35.44
44.99
47.62
46.99
45.23
42.67
38.73
33.51
27.91
23.41
21.15
21.18
22.50
23.64
23.27
21.15
18.46
16.56
16.61
19.07
23.51
28.77
33.42
36.22
36.55
35.00
31.92
27.46
21.43
13.39
2.87
-10.60
-27.10
-49.45
-75.97
-104.24
-132.20
-158.61
-182.87
-204.93
-225.04
-243.44
-260.69
-276.24
-289.90
-301.68
-311.78
-320.17
-326.86
-331.80
-334.80
-335.61
-333.29
-327.13
-316.16
-301.20
-282.80
-261.58
-238.15
-213.23
-187.56
-161.63
-136.25
-112.39
-91.02
-72.72
-57.91
-46.79
-39.42
-34.96
-32.60
-32.20
-34.14
-38.83
-46.04
-55.21
-65.51
-76.13
-85.58
-92.68
-97.10
-99.23
-99.66
-98.62
-96.14
-92.11
-86.48
-77.44
-64.03
-46.91
-28.07
-9.62
7.22
22.10
35.21
47.04
63.23
87.53
119.61
155.66
191.75
226.00
258.60
290.46
322.32
364.60
422.72
492.88
563.93
624.49
668.20
694.06
704.49
703.29
711.20
741.92
795.06
858.43
919.17
971.40
1016.76
1061.10
1111.05
1193.61
1324.53
1498.54
1692.15
1877.80
2034.89
2151.43
2221.75
2107.17
1750.86
1201.48
584.43
16.54
-443.64
-788.01
-1033.07
-1201.65
-1314.62
-1366.79
-1357.40
-1299.86
-1219.75
-1141.92
-1080.62
-1039.87
-1017.65
-1009.64
-994.14
-956.83
-897.31
-827.07
-759.13
-700.44
-651.81
-610.80
-574.27
-529.02
-467.00
-390.27
-308.55
-232.53
-168.94
-120.39
-86.82
-66.64
-52.28
-37.51
-20.00
-1.23
16.26
31.23
43.98
55.36
65.27
73.33
76.83
71.49
54.10
25.36
-9.30
-41.89
-65.50
-77.17
-78.43
-73.61
-66.98
-60.83
-55.18
-49.05
-41.95
-34.57
-28.29
-24.10
-22.01
-20.46
-17.61
-11.89
-3.21
7.53
18.71
28.71
36.51
41.94
45.46
47.72
49.04
49.13
47.17
42.20
33.65
21.83
7.77
-6.96
-20.78
-32.45
-41.28
-47.35
-51.06
-53.05
-53.77
-53.52
-52.46
-50.71
-48.52
-45.87
-43.29
-41.17
-39.74
-39.12
-38.88
-38.72
-38.50
-38.30
-38.25
-38.73
-39.92
-41.86
-44.22
-46.55
-48.45
-49.78
-50.88
-52.23
-54.67
-58.85
-65.04
-72.73
-81.22
-89.72
-97.68
-105.52
-112.94
-120.01
-126.27
-130.61
-131.31
-126.60
-115.49
-97.21
-74.23
-49.18
-24.95
-3.94
12.05
21.90
25.49
24.33
21.87
22.78
31.86
51.12
78.88
109.75
136.87
154.87
161.98
160.27
153.61
146.31
139.66
133.29
125.96
116.87
106.42
95.71
85.65
76.19
66.80
56.63
45.37
33.74
23.25
15.68
12.22
13.06
17.12
22.77
27.83
30.80
31.10
29.03
25.53
21.47
17.45
12.72
7.59
1.71
-5.04
-12.62
-20.47
-27.85
-34.03
-38.44
-40.80
-40.96
-39.21
-35.88
-31.30
-25.92
-20.25
-14.87
-10.30
-7.00
-5.18
-4.97
-6.23
-8.64
-11.81
-15.15
-18.39
-21.26
-23.64
-25.37
-26.37
-26.59
-25.95
-24.56
-22.61
-20.40
-18.24
-16.41
-15.13
-14.58
-14.80
-15.70
-17.18
-19.24
-22.03
-25.82
-30.75
-37.03
-44.62
-53.14
-61.92
-70.12
-76.85
-81.22
-82.53
-80.21
-73.97
-63.39
-48.30
-28.91
-6.17
18.17
41.99
63.07
79.61
90.71
96.74
99.04
99.42
99.85
100.83
102.10
102.69
101.79
98.95
94.68
90.11
86.26
84.02
83.95
86.41
91.21
96.98
100.73
98.22
85.49
60.96
26.97
-10.52
-43.99
-67.54
-79.02
-80.41
-76.00
-69.90
-64.23
-58.99
-53.30
-46.76
-40.17
-34.93
-32.08
-31.46
-31.76
-31.27
-28.46
-22.90
-15.08
-6.28
2.38
10.36
17.78
25.31
33.54
42.63
51.83
59.67
64.29
64.07
58.04
46.27
29.90
11.06
-8.09
-25.71
-40.56
-52.29
-61.28
-68.39
-74.71
-80.37
-85.85
-90.38
-93.39
-94.63
-94.50
-93.68
-93.00
-92.97
-93.01
-91.87
-87.62
-78.94
-65.32
-47.65
-27.94
-9.09
5.93
14.85
16.30
10.56
-0.13
-11.33
-17.54
-13.75
2.37
27.71
55.48
77.75
89.19
89.06
81.09
71.33
64.24
60.70
58.28
53.72
44.86
32.37
19.38
9.62
5.35
7.15
13.94
23.09
31.23
34.09
27.74
9.48
-20.54
-58.08
-95.06
-122.23
-132.40
-123.57
-99.83
-69.19
-39.74
-16.26
0.89
14.34
27.14
40.63
53.68
63.92
68.90
67.20
58.98
45.95
30.69
15.70
2.97
-6.55
-13.62
-19.70
-25.82
-31.62
-35.23
-34.71
-29.38
-20.73
-12.13
-7.05
-7.05
-11.74
-19.20
-26.94
-32.64
-34.06
-28.89
-15.67
5.54
32.42
60.84
85.66
102.74
109.98
107.68
97.95
83.82
68.62
55.52
46.83
42.64
40.59
36.14
25.13
5.98
-18.09
-41.14
-58.12
-66.05
-65.21
-57.22
-43.15
-22.87
2.83
29.61
49.28
53.13
37.50
7.01
-26.21
-48.29
-50.56
-33.69
-6.93
17.60
31.38
33.49
29.28
26.30
29.50
38.32
48.02
51.84
44.76
25.43
-1.51
-28.11
-46.55
-52.35
-46.21
-32.86
-18.18
-6.04
2.66
9.82
17.34
25.34
31.50
32.46
25.92
12.32
-5.21
-22.68
-35.88
-42.69
-43.31
-39.66
-33.14
-26.04
-19.26
-12.16
-4.70
4.76
16.41
28.97
40.17
47.73
49.69
45.16
34.32
17.28
-4.47
-29.28
-55.44
-81.07
-104.19
-122.85
-135.17
-135.16
-124.11
-104.43
-79.21
-51.50
-24.02
1.10
22.36
39.16
51.61
59.48
63.95
66.71
69.19
72.58
77.59
84.22
91.92
99.91
106.17
109.58
109.51
105.73
98.33
87.44
73.16
55.64
35.64
13.56
-9.29
-31.11
-49.90
-63.96
-72.46
-75.79
-75.40
-73.44
-72.26
-72.99
-75.45
-78.54
-80.43
-79.74
-76.02
-69.81
-63.04
-58.54
-58.73
-64.73
-74.99
-84.98
-88.29
-79.16
-54.71
-16.90
27.67
69.64
99.54
110.26
98.97
67.91
24.29
-20.99
-56.05
-71.60
-63.94
-36.50
1.65
39.41
68.20
84.35
89.25
87.00
81.53
75.53
70.41
67.14
66.41
67.87
69.71
68.54
60.80
44.67
21.07
-6.63
-34.05
-57.55
-75.25
-87.29
-95.26
-101.40
-107.55
-114.08
-119.12
-118.85
-108.84
-86.51
-53.16
-14.40
21.64
47.71
60.69
62.36
57.50
51.64
47.97
46.78
46.36
44.95
41.88
37.88
34.26
31.84
30.78
30.79
31.53
33.00
34.80
35.24
31.21
19.11
-3.28
-34.67
-69.62
-100.27
-119.16
-122.45
-111.30
-90.57
-66.36
-43.62
-24.56
-9.24
2.78
11.18
14.93
12.79
4.74
-7.77
-22.26
-35.95
-46.86
-53.90
-56.30
-53.51
-45.31
-32.41
-16.86
-1.68
10.58
19.22
25.40
32.45
43.69
59.85
78.37
94.05
101.24
95.98
77.75
49.50
17.31
-11.56
-30.46
-35.11
-24.90
-3.75
21.05
40.69
47.98
40.35
20.71
-2.48
-19.30
-21.99
-8.04
19.21
52.22
82.36
102.97
109.88
102.12
81.25
51.59
19.65
-7.05
-22.20
-23.15
-12.28
3.84
15.95
16.12
1.17
-25.76
-56.25
-80.58
-91.54
-86.74
-68.48
-42.81
-16.96
3.99
19.17
30.99
42.41
53.47
60.72
59.48
45.58
17.99
-19.58
-58.29
-86.17
-93.27
-77.11
-48.04
-16.13
11.63
32.83
46.00
50.78
46.61
32.45
7.11
-29.11
-72.84
-118.85
-161.14
-194.47
-214.74
-221.29
-217.70
-210.48
-205.71
-205.01
-205.44
-201.17
-186.84
-159.42
-119.64
-71.63
-20.50
29.64
76.80
119.35
154.51
172.84
165.29
130.03
76.89
24.37
-9.06
-12.05
15.92
66.10
124.29
177.35
216.73
239.50
247.50
244.80
235.66
223.13
208.50
196.75
187.47
181.23
178.89
179.85
181.35
179.22
169.53
149.93
114.38
67.80
17.63
-29.64
-70.02
-102.40
-127.72
-148.01
-165.12
-180.29
-192.93
-202.25
-207.42
-208.31
-205.20
-198.90
-191.48
-183.42
-174.69
-164.03
-150.14
-131.68
-107.64
-77.77
-42.93
-5.04
32.10
65.24
92.59
113.42
128.24
138.37
145.66
151.97
158.98
167.53
176.63
182.93
181.03
165.77
135.18
92.22
44.68
2.26
-26.90
-40.10
-39.92
-32.21
-22.99
-16.21
-13.00
-13.49
-17.03
-22.31
-27.07
-28.44
-24.09
-14.12
-1.43
9.06
12.59
7.01
-6.47
-24.30
-42.50
-58.38
-70.98
-80.38
-86.77
-90.08
-90.15
-87.50
-83.60
-80.52
-80.15
-83.34
-89.49
-97.11
-104.32
-109.49
-112.02
-111.69
-108.73
-103.42
-95.59
-84.50
-69.28
-49.35
-25.04
2.01
29.30
54.23
74.62
89.38
98.66
103.57
105.63
106.14
105.77
104.44
101.78
97.45
91.63
85.17
79.36
75.38
73.58
73.91
74.92
75.25
73.83
70.42
65.62
60.53
56.53
55.00
57.03
62.74
70.53
76.59
75.74
63.42
38.07
2.82
-35.18
-67.64
-88.21
-95.04
-90.75
-80.60
-69.40
-60.09
-53.43
-48.84
-45.04
-40.18
-31.78
-17.41
3.88
30.24
56.68
76.63
85.35
81.57
68.12
50.25
33.01
19.38
9.90
3.34
-1.28
-4.23
-5.13
-3.60
-0.03
4.40
8.49
11.87
14.57
16.34
15.85
10.06
-4.16
-28.18
-59.94
-93.68
-121.56
-136.80
-136.13
-119.89
-93.35
-62.08
-30.14
0.07
27.08
49.76
67.03
77.67
81.32
78.67
71.63
62.24
52.13
41.84
31.24
19.74
7.13
-6.72
-21.60
-36.81
-51.48
-64.77
-76.85
-86.46
-92.60
-94.50
-91.56
-84.09
-73.17
-60.35
-47.10
-34.76
-23.98
-15.19
-8.58
-4.13
-2.36
-3.94
-9.33
-18.74
-31.41
-47.41
-66.33
-86.49
-104.53
-115.83
-115.89
-102.49
-77.39
-46.53
-17.60
2.86
11.95
10.96
3.62
-6.17
-16.17
-26.28
-37.02
-48.02
-57.96
-64.32
-65.17
-59.76
-48.87
-34.11
-17.33
0.19
17.90
35.68
52.89
68.97
82.90
93.48
99.83
101.80
100.01
95.84
90.82
86.19
82.62
80.03
77.92
75.80
73.79
71.50
68.94
66.26
63.51
60.66
57.73
54.81
52.35
51.06
51.23
52.89
55.66
58.79
61.58
64.02
65.86
67.54
69.46
71.60
73.21
73.01
69.55
62.04
50.60
36.38
21.46
8.02
-2.01
-7.24
-6.80
-0.91
8.77
18.68
24.17
21.51
9.14
-9.76
-29.38
-43.32
-47.48
-41.80
-29.42
-14.90
-1.89
8.00
14.95
19.36
20.99
18.69
11.28
-1.50
-18.49
-37.31
-55.13
-69.27
-78.94
-84.53
-88.36
-91.21
-93.76
-95.79
-96.25
-93.86
-87.68
-78.28
-67.18
-56.69
-48.85
-45.03
-45.26
-48.13
-51.48
-53.44
-53.44
-51.89
-50.04
-49.39
-51.23
-56.32
-65.04
-77.27
-89.97
-101.24
-106.95
-102.35
-84.73
-55.29
-19.56
14.39
39.09
50.80
49.81
40.17
27.10
14.58
4.35
-2.87
-6.61
-6.24
-0.93
9.22
23.22
39.45
56.17
71.79
85.89
98.41
109.70
120.42
130.67
140.46
149.89
159.09
167.75
176.15
184.76
194.47
206.41
219.68
231.09
234.88
224.12
194.10
146.20
88.00
30.33
-16.55
-48.37
-66.77
-77.68
-82.60
-82.02
-73.44
-53.76
-27.38
3.46
34.91
63.37
87.68
104.34
110.30
104.70
88.43
63.18
31.24
-6.21
-47.24
-91.06
-140.01
-196.23
-260.06
-329.34
-400.34
-468.43
-529.62
-579.20
-593.43
-557.19
-470.39
-349.75
-219.10
-97.89
3.63
76.80
129.24
167.30
191.35
200.36
194.17
174.50
146.13
114.86
86.50
67.18
59.72
61.66
68.28
74.47
76.45
72.28
61.04
41.93
14.72
-18.30
-54.44
-87.74
-110.52
-116.46
-103.50
-74.95
-37.83
0.39
33.12
56.01
67.55
68.30
59.77
43.83
23.22
1.79
-15.24
-24.53
-23.68
-12.78
5.65
27.12
45.35
54.61
51.95
39.52
24.39
16.39
23.89
50.19
91.57
138.47
177.44
196.49
191.40
166.72
131.88
95.24
60.46
27.48
-7.23
-43.22
-75.45
-96.65
-102.18
-93.45
-78.30
-67.72
-68.03
-81.47
-102.02
-118.26
-119.34
-101.50
-69.86
-34.50
-4.62
15.47
26.14
31.23
33.53
33.85
31.83
27.73
22.77
18.46
15.22
11.34
4.61
-8.48
-27.01
-46.19
-60.60
-68.15
-71.07
-74.04
-80.86
-91.58
-103.29
-112.42
-118.09
-122.04
-126.78
-132.72
-137.45
-136.27
-124.92
-101.80
-68.50
-29.61
9.84
43.93
69.70
87.42
100.39
113.04
128.96
149.15
170.62
186.84
189.29
170.72
127.95
65.48
-5.48
-69.91
-113.49
-127.55
-111.73
-73.48
-24.60
23.04
62.62
92.20
113.51
129.32
141.63
151.74
161.44
174.33
186.30
195.54
200.99
202.74
200.91
194.13
179.79
155.99
123.58
86.63
52.16
26.16
12.05
9.45
14.78
22.37
25.65
17.86
-6.29
-47.32
-100.24
-154.17
-195.52
-212.92
-202.05
-167.56
-121.09
-76.23
-42.24
-21.91
-11.85
-6.58
-2.05
2.44
5.51
5.93
4.09
3.83
7.22
15.60
27.80
40.68
50.29
53.23
48.44
37.03
21.76
5.58
-8.71
-19.76
-27.37
-32.22
-35.24
-37.08
-37.80
-36.91
-33.76
-27.46
-17.56
-3.55
14.57
36.58
61.73
88.01
112.06
129.20
134.98
126.54
105.19
75.61
44.65
18.68
0.86
-9.89
-18.42
-29.79
-48.27
-73.87
-102.47
-126.56
-138.77
-135.61
-118.62
-93.06
-65.61
-45.25
-33.25
-28.21
-26.31
-21.96
-9.24
16.49
56.81
110.56
170.35
225.69
265.35
281.79
273.80
246.50
208.90
170.38
137.76
113.59
97.66
87.61
81.15
77.30
76.44
79.82
88.32
101.68
117.92
134.56
148.55
157.25
158.66
151.58
135.87
112.80
85.11
56.31
30.26
9.58
-5.31
-16.15
-26.26
-39.07
-56.72
-79.19
-104.23
-127.65
-144.72
-151.63
-146.76
-131.99
-112.51
-95.54
-88.06
-93.75
-110.43
-129.47
-137.96
-123.38
-79.48
-9.82
72.44
149.19
204.19
228.96
224.86
200.57
167.20
133.11
102.01
73.79
47.15
21.67
-1.76
-21.88
-38.41
-52.49
-66.33
-81.82
-99.59
-118.88
-137.86
-154.76
-168.66
-179.84
-189.68
-200.00
-212.54
-228.44
-248.18
-271.79
-299.53
-332.39
-372.19
-419.54
-472.08
-523.47
-564.26
-584.71
-578.11
-543.49
-485.81
-414.33
-338.22
-263.49
-192.07
-123.00
-54.59
13.97
82.02
147.40
206.05
254.24
290.17
314.53
330.03
339.95
346.42
349.29
346.21
331.78
303.41
263.75
218.89
174.29
131.93
90.25
45.94
-3.86
-64.96
-137.84
-215.97
-288.63
-345.54
-379.22
-385.16
-362.57
-315.57
-260.98
-214.29
-183.22
-168.19
-167.79
-181.00
-206.42
-241.63
-283.16
-336.96
-403.25
-472.89
-532.79
-574.88
-597.99
-604.01
-594.34
-504.37
-316.32
-73.50
153.37
320.06
420.43
468.97
485.63
487.32
484.08
469.14
436.94
390.90
341.51
298.13
264.33
239.47
220.61
204.23
179.35
140.51
91.59
42.37
1.67
-26.65
-42.51
-48.11
-46.67
-46.14
-51.69
-63.14
-76.72
-88.25
-95.58
-98.04
-95.70
-88.86
-79.07
-67.21
-51.79
-35.97
-19.72
-2.53
16.43
37.53
60.51
86.24
113.60
139.60
161.43
179.72
197.48
219.16
249.28
291.36
351.39
429.48
518.00
603.91
674.42
719.28
733.00
715.95
674.37
623.95
576.70
536.46
500.30
463.96
423.90
377.89
325.60
232.70
98.92
-44.75
-160.04
-229.21
-257.59
-261.80
-257.93
-255.95
-258.55
-257.61
-247.91
-231.34
-213.95
-200.17
-190.42
-182.85
-176.49
-173.26
-173.04
-178.27
-191.87
-214.03
-240.08
-263.41
-279.42
-287.05
-287.20
-277.28
-254.76
-219.32
-174.56
-127.16
-85.02
-54.63
-37.11
-29.81
-26.82
-24.75
-24.36
-29.35
-41.40
-57.01
-67.89
-65.25
-44.67
-8.40
34.63
73.54
99.67
109.93
107.25
97.79
87.03
76.83
65.44
49.59
28.19
3.56
-18.82
-32.58
-34.34
-26.49
-16.73
-13.70
-23.57
-43.88
-64.84
-75.38
-71.28
-54.61
-31.03
-5.29
22.81
58.57
109.16
177.81
255.40
325.54
371.20
382.68
361.57
318.62
268.20
222.18
185.85
159.44
141.22
128.34
117.89
105.95
89.08
65.70
35.74
0.75
-34.75
-64.93
-86.84
-100.56
-108.44
-113.90
-119.37
-122.44
-124.36
-126.02
-127.97
-132.53
-140.82
-151.37
-160.39
-161.57
-153.85
-140.21
-124.57
-111.60
-108.67
-120.93
-149.21
-189.62
-232.90
-274.23
-311.54
-342.97
-344.12
-299.51
-210.15
-94.29
6.58
89.21
157.50
213.91
264.07
306.36
334.02
340.94
324.30
285.85
232.83
168.44
94.48
13.63
-71.20
-157.61
-241.21
-315.31
-372.50
-406.03
-417.91
-414.73
-403.64
-389.83
-375.31
-358.00
-333.65
-298.32
-249.64
-191.26
-128.24
-65.47
-8.16
37.33
65.02
71.42
58.96
36.79
16.30
8.93
20.86
49.22
83.64
112.04
125.92
124.60
114.08
102.43
98.36
107.56
129.93
158.58
182.49
191.46
182.06
163.64
140.80
116.46
91.77
66.88
37.67
3.44
-35.76
-79.47
-127.58
-179.88
-232.10
-277.72
-310.03
-325.46
-322.88
-305.05
-277.13
-245.59
-216.08
-188.94
-162.68
-136.34
-113.09
-94.19
-79.64
-67.48
-55.02
-39.89
-15.95
20.40
68.10
117.01
161.02
196.64
223.66
243.41
258.61
279.36
313.41
362.42
413.70
458.95
492.53
512.85
520.30
518.05
519.41
535.40
570.67
612.82
656.69
699.71
741.10
777.48
753.02
634.86
432.37
245.69
104.59
18.23
-28.23
-42.90
-38.64
-32.00
-30.04
-49.10
-94.30
-162.83
-227.56
-267.91
-280.29
-273.35
-259.69
-237.62
-201.28
-150.73
-99.55
-50.62
-9.12
16.24
20.42
2.94
-28.89
-67.64
-114.06
-177.29
-253.34
-340.09
-437.97
-542.91
-646.99
-737.84
-769.15
-712.87
-630.35
-550.16
-463.32
-373.16
-284.68
-203.22
-133.02
-77.66
-44.64
-29.35
-17.79
0.63
29.52
69.74
117.38
164.57
201.98
218.79
210.63
186.64
156.81
127.97
106.08
93.98
90.58
91.04
85.70
67.56
37.31
-2.25
-46.71
-89.35
-123.26
-143.09
-145.31
-129.36
-96.38
-44.16
17.24
73.88
113.51
129.27
120.58
92.69
53.73
11.79
-26.81
-59.49
-85.51
-105.33
-119.58
-129.16
-134.84
-136.34
-132.66
-122.53
-105.36
-81.32
-52.52
-22.33
4.35
23.09
31.55
29.99
21.36
9.97
1.48
-3.60
-3.46
1.64
8.17
9.94
0.77
-21.71
-53.33
-82.56
-94.59
-77.05
-26.40
50.63
139.64
225.02
295.88
348.36
384.69
410.25
430.95
451.01
472.90
497.30
522.63
545.00
558.77
558.23
540.23
505.55
458.38
404.67
350.13
298.93
253.36
214.65
183.24
159.03
141.21
128.09
117.32
106.94
96.12
85.02
74.07
63.40
52.38
39.88
24.93
7.53
-11.04
-28.42
-42.12
-50.60
-53.85
-52.83
-49.36
-45.77
-44.03
-45.91
-53.20
-67.76
-91.95
-128.23
-178.09
-241.88
-319.04
-406.53
-498.81
-587.48
-662.23
-713.07
-732.69
-717.67
-671.45
-604.34
-530.64
-465.05
-418.79
-397.11
-399.86
-421.16
-448.89
-470.58
-476.39
-459.27
-416.40
-349.53
-264.52
-172.50
-85.23
-7.45
57.76
108.47
147.69
182.40
221.35
272.09
332.73
394.27
449.82
488.14
497.05
474.12
427.50
371.78
320.22
273.47
223.49
169.01
107.61
36.72
-38.87
-110.21
-169.37
-180.05
-121.22
-49.20
7.38
59.78
113.42
173.03
240.17
312.28
383.29
440.58
473.16
484.60
479.49
458.38
423.21
376.01
318.69
253.81
181.39
103.70
33.21
-19.61
-51.66
-62.76
-56.32
-37.76
-12.98
10.50
26.83
37.67
45.00
48.80
49.78
48.73
45.97
41.09
31.43
13.91
-11.47
-43.94
-82.63
-125.17
-168.63
-210.61
-249.42
-284.88
-317.15
-345.09
-366.62
-379.32
-380.40
-368.09
-342.74
-307.28
-267.06
-228.74
-199.19
-183.95
-185.50
-201.58
-224.85
-243.80
-245.83
-221.63
-169.11
-94.93
-13.00
60.77
114.22
142.95
150.60
146.07
138.76
134.76
135.79
139.82
143.90
146.03
145.83
143.19
137.20
124.96
102.38
65.69
12.82
-55.92
-138.78
-233.24
-336.40
-444.26
-550.64
-646.94
-723.46
-772.14
-789.20
-776.44
-740.28
-689.21
-631.32
-572.40
-515.94
-463.84
-417.34
-377.10
-342.62
-312.08
-282.46
-250.78
-215.14
-175.26
-132.18
-87.87
-43.83
-0.44
42.95
87.49
133.93
182.01
230.17
275.83
316.13
348.49
370.96
382.42
382.35
371.03
349.70
320.81
287.77
253.98
221.94
192.83
166.95
144.83
128.11
119.69
122.48
137.60
163.20
194.90
227.60
257.40
282.46
302.09
315.24
319.74
313.35
295.43
269.08
241.18
220.22
212.70
220.39
239.68
263.26
283.48
294.42
293.77
282.76
264.95
244.18
223.18
203.68
186.55
172.77
161.99
152.51
141.95
128.28
109.91
86.11
57.95
27.42
-1.23
-24.91
-41.20
-47.97
-43.29
-26.66
-0.55
30.80
60.33
81.55
86.55
68.78
25.52
-40.32
-121.73
-210.24
-296.51
-374.55
-421.43
-416.50
-354.82
-252.83
-135.81
-23.26
68.12
142.84
204.24
253.98
290.06
310.55
315.04
306.44
289.61
268.44
245.76
220.98
193.52
161.66
124.35
82.57
39.67
-0.68
-36.76
-68.78
-100.62
-136.90
-182.62
-240.35
-307.47
-374.92
-429.55
-458.59
-453.68
-414.91
-349.14
-267.95
-182.82
-101.17
-24.88
47.97
120.35
194.32
269.72
344.74
415.67
477.06
522.23
544.87
541.19
512.14
463.87
406.37
350.55
305.49
276.67
265.92
272.41
293.83
326.70
366.28
406.63
441.31
464.30
471.45
461.23
434.41
393.96
343.96
288.93
233.31
181.25
136.20
100.96
77.16
64.97
62.65
66.48
71.16
70.72
59.88
35.08
-4.73
-57.88
-120.28
-186.35
-250.14
-306.25
-350.62
-381.01
-396.89
-399.23
-390.03
-372.26
-349.28
-324.40
-300.55
-279.77
-263.41
-251.65
-243.57
-237.53
-231.52
-223.61
-212.19
-196.20
-175.32
-150.14
-121.64
-91.23
-60.37
-30.25
-1.78
24.61
48.86
71.16
91.61
110.26
126.56
139.39
147.43
149.26
143.74
130.32
109.38
82.34
51.59
20.06
-9.26
-33.37
-50.12
-58.52
-58.93
-52.82
-42.60
-31.02
-20.71
-13.74
-11.15
-13.00
-18.37
-25.72
-33.37
-39.88
-44.36
-46.47
-46.53
-45.09
-42.99
-40.70
-38.12
-34.74
-29.71
-21.98
-10.55
5.12
24.90
47.72
71.69
94.35
112.67
123.28
122.99
109.26
80.57
36.83
-20.75
-89.74
-166.84
-248.25
-330.27
-409.48
-483.12
-549.36
-607.71
-659.29
-706.65
-752.77
-799.67
-847.14
-892.42
-931.25
-959.53
-974.61
-975.96
-964.44
-941.38
-907.49
-862.98
-808.23
-744.44
-673.72
-598.25
-520.37
-442.62
-368.11
-300.78
-245.33
-206.23
-186.02
-184.17
-196.14
-214.31
-229.80
-235.07
-226.13
-203.59
-171.89
-136.83
-103.44
-73.87
-47.74
-23.35
0.68
24.32
46.47
65.82
82.12
95.96
108.54
120.74
132.55
143.47
152.93
161.01
167.38
172.92
179.29
188.36
200.87
215.80
230.93
243.66
251.89
251.92
242.28
224.07
200.27
173.86
146.58
119.40
92.68
67.10
39.41
8.56
-23.38
-52.12
-73.86
-86.81
-91.18
-88.60
-80.43
-73.14
-70.25
-71.01
-71.47
-67.73
-58.35
-44.43
-29.06
17.13
102.11
212.90
322.32
406.94
457.34
476.04
471.05
447.59
414.55
372.83
323.78
271.34
222.15
182.06
154.08
140.02
137.54
144.54
154.45
162.78
168.69
175.24
185.53
200.72
219.61
237.62
252.53
260.57
259.89
251.78
241.15
232.50
228.12
227.39
224.76
217.52
203.12
180.18
150.54
119.81
93.44
75.35
67.13
64.93
68.72
79.50
98.40
108.87
97.88
59.79
0.43
-43.81
-65.12
-63.54
-39.63
-7.20
27.17
61.36
94.15
125.18
153.74
175.20
189.15
197.12
199.75
199.31
198.75
199.97
205.19
215.08
226.20
237.04
246.87
254.07
260.33
268.78
281.79
302.00
328.12
352.97
368.63
368.81
349.80
315.67
273.80
230.46
191.34
157.88
127.71
99.74
76.17
59.75
56.04
67.03
69.17
43.98
-16.75
-106.48
-207.36
-289.25
-348.99
-390.17
-418.76
-440.27
-455.97
-463.08
-458.43
-439.55
-406.29
-363.42
-315.68
-268.36
-225.87
-187.96
-152.11
-115.66
-75.60
-29.76
20.12
72.01
123.04
170.85
216.16
261.15
292.90
301.14
284.25
249.60
209.98
173.68
140.99
107.39
67.64
27.21
-12.85
-48.59
-76.13
-93.15
-99.55
-95.96
-82.75
-60.02
-32.10
-3.99
18.85
29.96
24.22
0.01
-39.19
-85.82
-130.54
-164.20
-178.77
-168.41
-131.21
-73.10
-7.73
47.83
78.62
76.29
41.80
-15.03
-77.78
-129.30
-156.59
-153.73
-122.60
-72.03
-15.32
33.40
63.01
69.17
55.15
30.14
5.58
-8.73
-8.46
4.69
25.20
46.91
65.82
81.08
93.90
105.37
114.72
118.24
111.31
91.48
60.68
25.38
-5.93
-26.64
-35.23
-35.29
-33.01
-32.97
-35.73
-38.40
-37.72
-32.90
-26.26
-20.94
-17.86
-14.61
-7.35
6.43
24.63
40.00
44.04
32.46
7.99
-20.12
-40.59
-45.30
-31.56
-2.01
35.05
69.20
92.15
99.73
91.96
71.82
43.96
13.41
-14.84
-39.66
-63.78
-90.13
-120.14
-153.38
-189.37
-228.40
-273.13
-315.25
-336.95
-327.40
-285.88
-221.30
-145.71
-69.09
2.83
63.44
118.17
167.66
209.03
239.50
258.39
267.68
265.81
252.54
223.02
179.87
128.95
76.84
28.46
-13.28
-46.92
-71.79
-87.38
-93.98
-91.28
-82.01
-70.73
-61.57
-56.83
-56.64
-59.65
-63.29
-65.24
-63.16
-57.44
-50.49
-45.17
-43.47
-45.74
-50.86
-56.54
-60.66
-61.30
-58.55
-54.11
-50.19
-48.59
-50.22
-55.24
-62.90
-71.56
-78.04
-78.41
-69.07
-48.33
-17.90
17.22
50.26
75.47
90.18
95.53
95.00
92.03
88.43
83.98
77.83
69.97
61.97
56.33
54.98
57.97
63.25
67.69
68.56
64.86
57.84
50.18
44.59
42.47
43.63
46.52
48.99
48.34
41.68
26.46
1.38
-32.49
-71.11
-107.71
-134.86
-146.99
-142.32
-123.01
-93.78
-60.05
-26.22
4.40
29.11
45.13
49.66
40.71
17.89
-16.28
-56.23
-94.03
-121.06
-130.84
-121.59
-97.41
-67.02
-40.52
-25.36
-23.76
-32.29
-44.64
-54.71
-59.30
-58.51
-54.03
-47.13
-37.58
-23.81
-4.21
21.42
51.58
83.49
114.51
142.96
167.38
185.61
194.28
189.73
170.25
137.94
98.99
62.20
34.82
20.29
17.99
23.90
32.90
41.60
49.02
55.50
61.69
66.94
69.52
67.63
60.10
46.82
28.46
5.90
-20.49
-50.31
-81.94
-112.03
-135.44
-146.95
-143.64
-126.69
-101.71
-76.57
-58.45
-50.83
-53.24
-62.25
-73.72
-84.56
-92.96
-98.40
-100.28
-97.21
-88.06
-72.57
-51.69
-27.54
-2.69
20.45
40.34
56.44
68.70
77.10
81.51
81.51
76.77
67.23
53.46
36.90
19.53
3.59
-9.15
-17.64
-21.71
-21.96
-19.25
-14.73
-9.33
-3.62
2.04
7.15
11.46
14.64
16.34
16.38
14.68
11.23
6.42
0.65
-5.61
-11.81
-17.39
-21.72
-24.24
-24.83
-23.71
-21.16
-17.71
-13.93
-10.24
-6.54
-2.48
2.29
7.90
14.20
21.53
29.67
38.89
49.53
62.42
78.94
100.65
129.51
164.77
205.74
250.45
294.98
333.30
358.32
363.25
343.01
295.90
224.48
134.99
35.66
-65.06
-159.88
-241.77
-302.26
-334.93
-338.04
-315.16
-273.92
-222.89
-169.55
-118.98
-73.16
-31.72
5.75
39.50
70.08
96.40
116.75
128.94
131.63
125.03
110.00
87.13
54.54
13.66
-33.05
-82.43
-132.22
-181.07
-228.01
-271.43
-308.46
-334.42
-343.78
-337.81
-316.62
-283.90
-246.14
-209.69
-178.09
-150.80
-123.78
-92.05
-51.69
-3.77
46.89
94.71
135.73
168.59
193.91
212.99
226.78
235.09
237.33
232.97
222.58
207.91
191.61
176.32
163.82
154.74
148.54
144.78
143.02
142.24
139.93
131.94
113.72
82.77
40.68
-6.57
-50.39
-83.26
-101.55
-106.82
-104.06
-98.83
-94.64
-92.22
-90.34
-87.34
-82.62
-76.44
-69.90
-63.49
-56.92
-49.50
-41.20
-33.07
-26.84
-23.76
-23.00
-21.63
-15.50
-1.56
20.09
45.30
67.42
80.27
79.50
66.79
46.17
22.16
-2.20
-25.49
-47.41
-67.79
-84.82
-95.62
-97.19
-87.87
-67.90
-39.23
-4.85
31.71
67.07
98.75
125.16
145.65
159.81
167.02
164.67
153.84
135.15
109.92
80.22
48.99
19.38
-6.11
-25.49
-38.03
-42.94
-40.47
-31.96
-20.54
-11.09
-8.87
-17.60
-36.86
-61.70
-83.32
-94.35
-91.09
-74.43
-48.64
-19.60
9.16
35.97
59.62
78.54
89.96
90.72
78.73
54.02
19.04
-22.88
-66.77
-108.21
-143.69
-171.14
-189.62
-198.52
-197.78
-183.28
-157.90
-125.30
-89.34
-53.66
-21.38
5.38
26.04
41.08
52.37
61.44
70.23
80.17
91.87
105.05
118.79
132.44
144.74
154.28
159.41
159.22
153.10
140.80
122.58
98.78
71.66
43.45
16.28
-8.27
-28.97
-45.24
-57.15
-65.23
-70.11
-72.31
-72.42
-70.93
-68.23
-64.91
-61.66
-59.22
-58.15
-58.33
-59.23
-60.15
-60.56
-60.01
-59.01
-58.54
-59.63
-62.98
-68.46
-74.72
-79.82
-83.26
-82.86
-78.34
-70.61
-61.27
-52.14
-45.07
-41.75
-42.26
-47.01
-53.30
-56.62
-52.01
-36.55
-11.34
18.40
45.30
63.06
68.95
65.09
56.03
46.50
39.07
33.65
28.51
21.83
12.99
2.52
-7.80
-16.84
-24.14
-30.07
-35.59
-41.47
-47.62
-52.95
-55.68
-53.51
-44.80
-29.08
-7.25
18.95
47.70
77.41
105.90
130.17
146.31
150.29
140.01
116.93
86.38
55.83
31.96
18.32
14.81
19.08
27.76
38.35
49.40
59.57
67.01
69.10
63.37
48.48
25.10
-3.48
-31.83
-53.50
-63.33
-59.59
-45.28
-27.15
-12.85
-7.70
-12.68
-24.83
-39.44
-53.09
-65.26
-77.69
-92.23
-108.83
-124.90
-135.86
-137.47
-127.94
-108.63
-82.78
-54.13
-25.31
2.78
30.25
57.82
85.67
113.09
138.76
161.02
177.75
186.67
184.48
168.84
139.95
101.48
59.95
22.94
-3.81
-18.47
-23.35
-22.79
-20.48
-17.71
-13.58
-6.87
2.92
14.51
25.26
32.37
34.52
31.66
24.64
14.62
1.91
-13.79
-33.19
-56.63
-83.42
-111.25
-136.34
-154.47
-161.25
-155.46
-138.37
-113.25
-84.29
-55.93
-31.64
-13.58
-3.22
-0.41
-3.18
-8.00
-10.04
-4.15
12.38
38.52
69.53
98.50
119.75
130.43
131.55
126.41
118.34
108.81
96.58
81.21
62.16
40.29
17.26
-4.95
-25.29
-43.91
-61.66
-79.01
-95.76
-111.18
-123.16
-129.36
-127.72
-116.97
-97.39
-70.93
-40.28
-8.26
21.82
48.35
70.65
88.88
103.53
115.02
123.82
130.70
136.45
141.13
143.62
141.24
131.04
111.52
84.51
54.69
28.54
11.82
6.72
11.39
20.82
29.71
34.18
32.53
24.80
11.65
-6.27
-28.53
-53.53
-78.46
-98.88
-110.88
-111.75
-101.33
-82.38
-59.59
-38.42
-23.63
-17.71
-20.23
-28.51
-38.99
-48.14
-53.79
-55.41
-53.42
-49.00
-42.92
-35.10
-25.14
-12.95
0.68
13.21
21.13
21.31
10.58
-12.53
-46.72
-87.15
-126.65
-156.26
-168.76
-161.76
-135.88
-98.04
-59.13
-29.93
-17.68
-23.93
-43.77
-68.27
-87.45
-92.63
-79.92
-50.49
-8.91
37.62
81.48
117.26
141.75
154.42
156.93
151.19
139.66
125.65
112.27
98.85
86.64
74.42
58.54
35.64
4.16
-35.95
-79.62
-118.70
-145.14
-152.38
-138.21
-104.54
-55.36
-1.17
45.13
73.33
81.76
74.19
60.57
52.05
56.84
77.33
107.15
135.24
152.27
154.61
144.49
129.07
116.44
105.66
99.50
98.08
97.23
91.64
78.01
56.50
31.64
10.11
-2.62
-3.57
5.58
19.37
33.77
48.86
65.74
84.73
103.78
118.41
124.30
118.09
97.12
61.89
19.22
-23.94
-63.03
-96.71
-126.00
-155.54
-186.06
-218.65
-250.77
-278.05
-297.31
-307.54
-309.95
-307.07
-301.07
-279.03
-241.08
-190.13
-130.28
-66.40
-3.47
53.67
101.08
136.75
162.86
178.81
185.32
183.82
175.27
160.27
139.00
111.25
75.56
33.39
-15.71
-69.46
-121.69
-162.81
-182.78
-175.60
-142.68
-92.90
-39.15
5.15
32.82
43.97
43.41
36.79
27.55
16.59
3.60
-11.36
-27.42
-42.55
-54.86
-64.00
-70.87
-77.26
-85.40
-94.79
-103.43
-108.44
-106.98
-97.37
-79.55
-55.20
-27.08
1.66
28.27
51.38
70.82
86.98
100.14
110.50
117.83
121.69
121.85
118.68
113.00
105.99
98.71
91.83
86.11
81.68
78.37
75.96
74.66
74.16
74.16
75.68
77.12
77.77
77.15
74.83
70.51
63.90
54.74
43.18
29.73
15.05
0.75
-11.29
-19.80
-24.26
-25.23
-23.99
-21.89
-19.79
-17.96
-15.16
-9.90
-1.15
11.04
25.16
38.52
48.40
52.80
50.90
43.90
33.81
22.96
13.68
8.12
7.94
13.71
24.14
33.11
34.85
24.55
1.55
-29.52
-60.38
-83.21
-93.64
-92.30
-83.27
-70.93
-58.13
-45.24
-31.47
-16.28
-0.51
14.24
26.59
36.64
45.82
55.17
64.76
72.92
76.63
72.67
59.02
35.87
5.37
-27.43
-57.89
-83.00
-101.83
-115.10
-124.64
-132.50
-140.41
-149.10
-157.51
-162.68
-160.12
-145.65
-117.63
-78.75
-35.66
3.56
32.36
48.29
53.13
51.35
47.39
43.64
40.25
36.30
31.37
26.23
22.45
21.12
22.11
24.10
25.32
24.31
20.85
15.91
11.03
7.73
6.61
7.24
8.29
8.20
5.80
0.91
-5.81
-13.22
-20.10
-25.71
-29.87
-32.82
-35.02
-36.44
-36.56
-34.39
-29.09
-20.35
-8.80
4.06
16.28
26.06
32.52
35.81
37.10
37.85
39.18
41.34
43.74
45.22
44.86
42.60
39.32
36.57
35.76
37.42
41.00
45.32
48.95
50.58
49.30
44.45
35.65
23.15
8.05
-7.70
-21.72
-32.25
-39.14
-43.95
-48.68
-53.86
-57.27
-54.11
-39.09
-9.55
32.19
78.25
117.63
141.10
144.99
131.79
108.33
82.18
58.54
38.83
21.51
4.04
-16.05
-39.57
-66.20
-94.89
-123.78
-150.12
-170.64
-182.04
-182.17
-171.06
-150.95
-125.72
-99.50
-75.40
-55.01
-38.49
-25.31
-14.68
-5.80
2.54
11.64
22.59
35.64
49.75
62.97
73.05
78.57
78.54
73.97
66.93
59.55
53.24
48.09
43.08
36.64
27.27
14.27
-1.83
-19.37
-35.98
-49.24
-57.31
-59.51
-56.32
-49.18
-39.85
-29.73
-19.71
-10.11
-0.92
7.96
16.58
24.82
32.40
38.94
43.97
46.99
47.54
45.51
41.20
35.34
28.93
22.81
17.48
13.06
9.28
5.85
2.67
-0.12
-2.27
-3.66
-4.46
-5.22
-6.65
-9.42
-13.97
-20.36
-28.18
-36.49
-43.79
-48.24
-48.25
-43.16
-33.97
-23.41
-15.27
-13.06
-18.51
-30.79
-46.73
-62.11
-73.34
-78.76
-79.05
-76.35
-73.05
-70.45
-68.17
-64.45
-57.14
-45.03
-28.72
-10.61
5.88
17.67
23.13
22.75
18.88
14.79
13.59
17.29
26.51
40.49
57.28
74.07
87.61
95.07
94.75
86.95
73.97
59.35
46.75
38.66
35.73
36.92
40.35
44.40
48.15
51.46
54.40
56.76
57.95
57.14
53.67
47.50
39.36
30.54
22.36
15.82
11.42
9.17
8.82
9.98
12.41
16.17
21.01
26.17
30.40
32.62
32.49
30.70
28.85
28.90
32.75
40.90
52.18
64.25
74.94
83.29
89.81
95.97
103.41
113.38
125.16
135.78
140.38
133.72
111.85
73.10
18.59
-50.20
-125.62
-195.73
-248.34
-276.46
-280.17
-264.65
-236.64
-201.90
-164.38
-126.37
-90.99
-60.60
-38.80
-29.04
-32.72
-48.02
-69.92
-91.35
-105.12
-107.03
-97.23
-80.30
-63.33
-53.03
-53.28
-63.88
-80.89
-97.79
-107.75
-105.55
-89.01
-59.35
-21.22
18.10
49.90
66.70
64.98
46.46
18.00
-10.99
-31.34
-37.11
-27.96
-9.37
9.04
17.01
7.74
-18.90
-56.00
-91.86
-114.57
-116.42
-95.94
-57.13
-6.37
50.67
110.46
171.05
230.10
283.34
324.70
347.75
347.98
324.37
279.85
220.74
154.96
89.93
30.50
-22.33
-70.48
-116.33
-159.90
-197.16
-221.08
-224.47
-203.21
-158.58
-97.23
-28.86
36.78
92.50
134.92
164.07
182.16
192.41
197.10
196.79
190.79
178.36
159.97
137.51
113.71
90.90
70.99
54.59
41.83
33.30
30.44
34.80
46.76
64.96
86.90
110.56
133.54
152.58
163.32
161.06
142.16
105.61
54.00
-11.36
-82.45
-147.83
-197.34
-226.57
-237.24
-233.74
-219.70
-196.86
-166.31
-128.89
-87.72
-48.15
-16.20
3.69
10.23
5.66
-4.07
-10.50
-5.23
15.21
46.10
75.60
89.62
78.00
38.96
-20.27
-87.23
-147.97
-191.96
-215.63
-221.82
-216.62
-206.30
-195.65
-187.97
-185.03
-186.10
-187.71
-184.25
-168.83
-136.36
-86.17
-23.97
38.69
88.01
113.53
112.07
89.31
57.92
33.14
26.64
42.03
73.56
108.75
133.60
137.95
118.68
79.68
29.53
-22.13
-67.98
-104.06
-129.55
-145.93
-156.20
-164.06
-173.24
-186.19
-202.08
-217.17
-226.01
-223.60
-207.98
-181.00
-147.77
-115.42
-90.56
-75.99
-71.48
-74.16
-79.79
-84.05
-83.36
-75.62
-61.13
-40.61
-12.64
23.73
68.19
117.98
168.44
214.84
253.97
284.21
307.80
331.70
361.73
400.20
445.33
492.61
537.60
577.17
608.87
612.98
577.74
502.09
397.85
283.37
174.26
78.87
6.61
-49.06
-93.46
-126.01
-144.86
-149.48
-141.76
-127.18
-110.73
-97.13
-91.69
-97.11
-112.30
-135.09
-162.65
-192.78
-220.53
-239.15
-243.62
-234.36
-215.12
-190.24
-163.78
-138.39
-115.34
-94.81
-76.74
-61.47
-50.31
-43.50
-39.69
-36.77
-32.63
-25.88
-16.37
-5.48
4.46
11.11
13.89
14.41
15.53
19.85
28.55
40.94
54.67
66.86
75.77
80.38
81.20
79.43
76.04
71.26
64.87
56.69
47.05
36.96
27.69
20.59
16.38
15.25
16.72
20.44
26.18
33.63
42.12
50.43
57.31
61.85
64.05
64.57
64.87
66.45
70.25
76.23
83.41
90.10
94.05
94.87
91.24
82.19
67.41
47.74
25.39
3.65
-13.82
-24.29
-26.69
-22.19
-13.95
-6.01
-1.38
-0.94
-3.40
-6.41
-8.18
-8.19
-7.10
-6.07
-6.05
-7.14
-8.98
-11.07
-13.28
-16.46
-21.33
-27.40
-33.41
-37.28
-36.58
-29.99
-18.40
-5.72
1.22
-2.82
-16.95
-36.63
-55.34
-66.80
-69.01
-63.88
-56.81
-55.14
-61.32
-69.21
-74.20
-77.02
-81.95
-96.72
-125.29
-167.22
-219.71
-274.04
-313.78
-330.79
-327.84
-312.29
-295.33
-283.41
-281.53
-296.17
-327.97
-364.64
-396.06
-416.72
-420.85
-408.14
-378.07
-302.38
-178.62
-68.64
8.42
65.87
109.09
153.45
180.86
191.05
180.08
141.40
75.78
-1.68
-77.48
-145.75
-187.20
-191.39
-156.54
-96.46
-31.83
24.73
68.41
107.01
141.24
169.44
186.97
195.75
200.62
207.40
222.81
253.91
300.26
352.22
398.17
424.89
424.35
392.25
328.75
239.36
135.10
28.79
-68.47
-145.87
-195.82
-213.42
-199.01
-157.97
-99.41
-33.54
30.20
83.80
122.50
143.79
147.40
134.32
107.70
72.79
36.34
4.55
-18.96
-33.71
-41.03
-42.10
-37.72
-28.44
-15.54
-0.63
15.37
34.07
58.22
90.51
130.54
172.13
203.84
213.71
195.58
151.40
91.45
27.89
-27.67
-66.83
-84.63
-79.16
-50.47
-0.03
67.48
146.10
216.11
254.94
249.86
207.42
145.41
79.84
25.33
-21.87
-63.96
-99.95
-125.11
-134.75
-126.95
-103.98
-72.48
-41.75
-22.06
-19.36
-36.71
-72.18
-122.57
-176.83
-219.44
-238.60
-232.96
-211.82
-185.28
-162.03
-138.35
-107.20
-61.89
-0.18
74.58
156.30
228.31
274.47
284.64
260.35
212.10
154.09
97.10
46.02
1.40
-36.04
-66.61
-87.69
-96.32
-92.94
-80.53
-63.68
-46.74
-31.89
-19.05
-4.69
16.73
49.66
90.91
131.29
157.76
159.07
131.24
79.50
16.95
-40.37
-80.13
-98.20
-98.18
-88.12
-75.96
-65.88
-58.50
-52.03
-44.23
-33.47
-19.14
-1.39
18.48
37.04
49.16
49.75
36.71
13.16
-13.53
-34.83
-45.06
-44.04
-36.60
-29.64
-28.33
-33.81
-43.52
-53.55
-59.48
-58.19
-48.12
-29.45
-4.30
24.20
51.99
74.54
88.61
94.74
97.16
101.84
112.97
130.32
148.97
160.96
157.51
133.44
90.97
38.79
-12.57
-55.14
-85.88
-105.75
-117.21
-123.38
-125.88
-122.84
-110.48
-87.25
-55.64
-20.73
12.62
40.86
59.20
60.94
40.37
-5.56
-77.49
-172.75
-284.15
-400.29
-489.34
-519.77
-484.30
-403.35
-306.32
-214.22
-137.13
-78.13
-35.66
-6.46
17.04
40.02
68.44
107.15
156.04
211.03
267.61
323.84
369.26
395.10
393.81
366.11
320.49
268.96
223.33
190.76
170.81
155.39
134.33
92.40
33.33
-23.64
-61.95
-79.02
-83.60
-85.47
-88.15
-88.73
-84.33
-73.85
-61.88
-59.03
-74.19
-108.77
-155.96
-204.14
-241.12
-259.26
-254.71
-220.92
-165.41
-105.76
-60.59
-40.20
-43.77
-59.42
-77.85
-92.81
-102.05
-107.99
-112.40
-114.81
-112.19
-101.14
-80.22
-50.79
-14.83
24.85
64.12
100.57
133.54
163.38
189.70
210.61
222.86
224.18
214.20
194.31
168.20
141.00
117.40
99.97
88.94
82.78
80.72
83.65
92.80
107.90
125.22
137.53
136.80
118.47
84.55
43.88
8.85
-10.33
-9.93
6.04
28.55
48.26
59.67
62.23
59.26
55.55
54.49
56.65
59.92
60.85
55.84
43.65
23.90
-3.23
-36.56
-73.39
-109.78
-141.23
-163.67
-175.29
-175.22
-165.45
-149.98
-131.99
-112.49
-91.07
-66.92
-39.13
-7.81
28.51
69.86
106.53
127.30
126.07
106.02
76.56
54.31
40.57
33.67
30.43
28.47
25.99
26.05
32.74
48.30
72.71
102.90
136.76
169.43
193.26
200.58
186.03
147.07
84.64
3.90
-89.62
-177.80
-241.04
-270.01
-268.48
-246.77
-214.82
-179.15
-143.52
-110.82
-82.49
-60.88
-48.06
-43.68
-44.31
-45.51
-43.61
-37.09
-26.79
-14.08
-1.47
8.55
14.59
17.23
17.36
15.33
10.33
0.68
-14.48
-35.17
-60.47
-88.21
-115.43
-139.36
-158.51
-172.97
-184.65
-194.85
-203.82
-210.30
-211.57
-204.09
-185.00
-152.97
-105.53
-46.76
16.36
75.94
125.71
162.77
188.36
206.85
223.06
239.67
255.09
266.22
270.53
267.57
258.83
247.04
234.51
222.61
210.61
195.89
177.11
155.28
133.50
115.17
103.14
98.47
100.19
103.74
100.62
83.00
45.96
-10.76
-83.85
-166.57
-251.08
-323.75
-367.20
-373.16
-347.74
-305.75
-259.28
-214.35
-171.45
-130.30
-91.23
-56.38
-29.18
-7.29
14.09
40.85
75.32
116.95
162.27
207.52
249.85
286.70
321.19
350.34
375.08
383.79
370.90
339.77
301.34
276.60
261.81
248.19
227.26
190.49
135.82
67.55
-7.11
-81.10
-149.83
-213.68
-272.37
-325.95
-373.45
-414.00
-444.60
-461.86
-463.39
-449.59
-425.55
-397.21
-370.92
-352.29
-345.98
-352.63
-368.21
-385.19
-394.62
-389.21
-363.58
-314.29
-243.37
-159.71
-74.79
1.40
62.67
107.70
138.68
157.64
168.50
179.07
190.37
196.29
194.03
186.55
182.02
189.07
213.01
257.98
321.01
391.50
457.49
512.18
554.36
585.68
606.14
587.97
521.12
420.19
314.67
229.73
175.85
149.29
137.56
126.78
100.66
55.11
-6.92
-79.51
-155.99
-229.43
-296.12
-345.55
-373.18
-380.69
-367.93
-336.63
-291.69
-240.77
-191.30
-150.20
-121.57
-97.74
-76.82
-57.50
-40.09
-25.40
-13.83
-4.71
1.95
7.39
11.48
13.15
14.02
16.13
20.39
22.32
22.56
20.33
16.59
12.31
8.92
9.78
18.19
35.04
58.81
86.03
109.25
122.27
118.98
100.64
75.96
52.97
36.76
29.62
31.34
27.13
12.31
-15.38
-56.06
-109.29
-165.31
-217.94
-260.60
-286.22
-292.85
-281.62
-260.45
-240.56
-233.60
-247.86
-285.79
-341.36
-383.27
-384.67
-332.98
-239.41
-127.50
-17.66
80.17
163.64
234.03
291.67
332.06
353.23
354.32
339.19
315.22
289.83
266.84
246.38
225.09
194.89
148.76
82.75
-1.13
-95.27
-188.31
-267.94
-323.30
-347.97
-343.15
-315.71
-275.59
-231.38
-188.51
-149.08
-112.94
-79.01
-46.72
-16.83
9.76
32.96
54.44
76.24
99.93
126.16
154.31
182.06
205.78
222.03
229.34
229.11
223.74
214.75
201.67
181.79
151.43
108.30
53.66
-6.88
-60.27
-92.88
-99.02
-83.33
-56.05
-26.20
1.42
25.84
48.03
69.02
88.03
103.37
114.11
120.39
123.82
126.31
129.51
134.32
140.70
147.84
153.67
157.11
157.80
156.66
154.98
153.84
153.66
154.14
154.11
152.03
147.00
137.95
124.88
108.38
89.39
68.86
47.43
24.71
-1.38
-26.40
-49.27
-69.66
-87.89
-104.45
-119.71
-133.62
-145.92
-156.52
-165.53
-174.57
-185.11
-198.23
-214.07
-231.60
-248.61
-262.49
-271.06
-273.34
-271.10
-267.97
-268.70
-277.48
-295.97
-321.67
-347.75
-364.75
-363.57
-339.39
-292.89
-230.01
-159.56
-90.17
-27.61
26.08
71.94
113.10
153.10
195.53
243.40
297.81
356.15
411.61
455.03
479.01
482.13
470.15
453.74
442.49
439.84
441.23
437.05
418.24
381.32
329.93
272.33
216.81
168.21
127.15
91.62
59.50
29.44
0.68
-27.58
-56.77
-88.51
-123.96
-163.07
-204.01
-243.18
-276.32
-300.36
-315.40
-325.58
-338.00
-359.55
-392.78
-433.16
-469.73
-489.22
-482.13
-447.71
-394.77
-337.66
-290.02
-258.77
-242.10
-231.53
-217.27
-193.52
-161.00
-126.02
-96.31
-76.58
-66.04
-59.03
-48.44
-30.03
-5.10
20.29
38.54
44.72
39.12
26.80
14.12
5.04
-1.09
-8.59
-22.25
-43.94
-71.21
-98.78
-121.61
-137.82
-149.30
-159.74
-171.65
-184.16
-193.56
-195.54
-188.27
-173.64
-156.23
-140.53
-128.27
-117.43
-103.86
-84.05
-57.33
-26.36
4.32
30.55
49.93
62.07
67.50
66.66
59.22
44.60
22.77
-5.30
-37.48
-71.23
-104.16
-134.77
-162.51
-187.40
-209.46
-227.99
-241.42
-247.46
-243.63
-227.92
-199.52
-159.03
-108.56
-51.14
9.49
69.55
125.47
174.21
213.28
240.94
256.34
259.71
252.43
236.90
216.14
193.34
171.39
152.43
137.72
127.53
121.35
118.29
117.28
117.31
117.46
116.88
114.68
110.05
102.49
91.84
78.36
62.86
46.44
30.39
15.76
3.24
-7.01
-15.25
-21.89
-27.08
-30.56
-31.64
-29.63
-24.22
-15.95
-6.25
3.02
10.07
14.06
15.44
15.97
18.00
23.53
33.28
46.42
60.94
74.67
86.53
97.24
109.33
126.22
150.79
183.74
222.58
261.84
294.17
312.35
311.45
290.57
253.43
207.93
164.37
132.60
119.05
124.11
141.60
160.31
167.79
155.06
120.62
71.55
21.31
-14.97
-25.90
-7.11
38.38
102.80
176.94
252.74
323.67
383.91
427.45
448.44
442.98
411.27
358.41
293.23
225.34
161.93
105.89
56.43
11.13
-31.41
-69.97
-100.99
-120.19
-124.71
-114.62
-93.11
-65.41
-37.27
-13.21
4.27
14.83
19.80
21.30
21.38
21.29
21.12
19.82
15.86
7.97
-4.13
-19.51
-36.38
-52.73
-67.06
-78.71
-87.67
-94.17
-98.05
-98.73
-95.40
-87.47
-75.14
-59.50
-42.41
-26.03
-12.35
-2.73
2.10
2.15
-1.96
-9.10
-17.76
-26.32
-33.31
-37.74
-39.29
-38.07
-34.18
-27.39
-16.84
-1.43
19.48
45.33
74.17
103.07
129.16
150.35
165.65
174.87
178.14
175.75
168.32
157.28
144.88
133.71
125.84
122.02
121.67
123.32
125.54
127.27
127.74
125.98
120.46
109.21
90.60
64.16
31.13
-5.41
-41.10
-71.36
-92.45
-102.33
-101.04
-90.44
-73.42
-53.20
-32.60
-13.59
2.72
16.13
26.90
35.48
42.10
46.80
49.44
50.09
49.30
47.95
47.08
46.99
47.16
46.57
44.47
40.87
36.65
33.11
31.11
30.94
31.67
31.75
29.66
24.53
16.05
4.26
-10.58
-28.22
-47.63
-67.73
-87.08
-103.78
-115.86
-121.86
-121.86
-117.41
-111.90
-109.02
-113.09
-127.46
-152.80
-186.20
-221.76
-252.72
-273.54
-287.87
-298.96
-309.98
-322.51
-335.57
-346.25
-350.17
-345.65
-331.23
-305.53
-266.46
-212.86
-147.12
-75.24
-5.86
52.42
94.04
118.76
130.15
132.85
128.53
114.67
86.78
41.85
-19.16
-91.05
-166.00
-236.23
-294.98
-337.47
-360.22
-360.76
-338.50
-296.26
-240.85
-181.57
-127.61
-85.16
-56.27
-39.49
-31.68
-29.65
-31.23
-35.27
-40.95
-47.51
-54.05
-59.52
-63.03
-63.90
-61.68
-55.90
-46.25
-32.58
-15.04
6.11
30.29
56.49
83.22
108.58
131.41
150.80
166.25
177.94
186.91
194.96
204.19
216.53
233.36
256.46
285.52
317.56
347.40
369.33
379.29
376.32
362.86
343.89
327.09
317.82
317.46
323.66
332.54
340.76
346.45
348.91
347.80
345.11
340.90
333.00
317.86
292.65
256.98
212.90
164.04
97.41
11.07
-86.70
-180.45
-256.31
-308.10
-336.37
-345.31
-339.97
-325.29
-303.05
-275.89
-247.27
-221.12
-200.30
-185.50
-176.17
-170.97
-168.43
-165.24
-159.34
-150.32
-139.11
-126.87
-114.09
-100.65
-86.18
-70.53
-52.90
-33.84
-14.97
-0.20
5.85
-0.80
-21.53
-54.34
-93.68
-132.31
-164.60
-187.68
-201.57
-208.11
-209.36
-207.42
-204.18
-201.48
-200.54
-201.28
-201.42
-196.59
-181.79
-153.79
-113.41
-66.22
-20.68
15.18
36.86
44.67
42.44
34.71
24.61
13.11
-0.10
-14.96
-30.26
-43.85
-54.11
-59.73
-60.72
-57.75
-51.71
-42.79
-30.40
-13.90
6.50
29.37
52.21
71.78
85.27
91.18
89.80
83.53
75.34
67.84
62.52
59.63
58.30
57.56
56.98
56.97
59.22
65.14
75.23
88.85
104.78
121.62
138.88
157.53
175.75
194.10
213.74
236.17
262.80
294.20
328.77
361.97
386.73
395.15
382.19
347.28
295.15
234.30
174.02
121.45
79.97
49.48
27.69
12.18
0.49
-9.88
-21.42
-36.32
-56.03
-80.60
-108.56
-137.72
-165.64
-191.18
-215.27
-240.90
-271.99
-311.21
-357.49
-404.88
-443.47
-462.53
-454.79
-419.67
-363.36
-296.21
-228.32
-165.90
-110.00
-57.69
-4.59
53.01
116.83
186.19
257.84
325.83
382.22
418.72
429.44
413.28
374.60
321.84
264.37
209.52
161.11
120.06
85.93
58.84
39.79
30.36
31.18
41.34
58.38
78.91
99.57
117.71
131.71
140.61
143.43
138.72
124.00
96.29
52.70
-8.16
-85.56
-176.74
-277.25
-381.08
-480.81
-568.16
-634.74
-674.06
-683.55
-665.61
-627.07
-576.61
-521.92
-467.35
-413.90
-360.28
-305.55
-250.46
-198.06
-152.43
-116.27
-88.73
-64.56
-35.34
6.90
64.93
133.44
199.36
246.14
260.87
240.05
191.93
133.56
84.28
58.72
62.68
93.43
142.22
198.12
250.27
289.48
309.25
306.40
282.36
242.90
196.37
150.79
110.97
77.11
45.38
10.79
-29.79
-75.85
-123.79
-169.38
-210.68
-248.92
-287.87
-330.48
-375.38
-415.30
-438.89
-435.14
-398.26
-330.67
-241.70
-143.33
-45.39
47.31
133.85
214.31
286.69
346.09
386.82
405.16
401.90
382.25
353.81
323.50
295.40
270.34
246.79
222.87
197.98
173.67
153.29
140.84
139.20
148.81
167.20
189.32
209.06
221.05
222.26
212.70
195.12
173.85
153.13
135.87
123.04
114.33
108.78
105.59
104.11
103.44
102.34
99.57
95.03
90.44
89.28
95.35
111.00
136.05
167.92
202.91
237.59
269.37
296.19
315.85
325.80
323.97
310.09
286.25
256.28
223.99
191.30
157.58
120.19
76.31
24.99
-31.90
-90.25
-145.37
-194.31
-237.08
-276.70
-317.65
-364.22
-419.04
-481.79
-548.81
-612.96
-664.74
-694.95
-698.01
-675.13
-635.40
-593.78
-566.33
-564.12
-588.69
-631.38
-676.92
-709.43
-718.28
-700.78
-661.38
-608.15
-548.93
-488.98
-430.98
-376.37
-326.88
-284.71
-251.46
-226.75
-207.55
-189.25
-167.47
-140.18
-108.34
-75.10
-44.16
-17.75
4.33
24.23
44.92
68.40
94.80
122.60
149.58
174.06
195.78
215.90
236.15
257.98
282.12
308.57
336.90
366.02
394.09
418.49
436.44
446.00
446.72
439.59
426.17
407.67
384.52
356.99
326.59
296.63
271.63
255.43
249.01
249.37
250.19
243.87
224.54
190.62
146.07
99.62
62.05
42.06
42.69
60.15
85.41
108.23
121.51
123.55
117.54
108.71
101.12
95.88
91.60
86.16
78.40
68.85
58.77
48.98
39.04
27.31
12.35
-5.71
-24.38
-39.04
-44.64
-37.93
-18.83
9.34
41.22
71.58
97.17
117.54
134.47
150.63
168.21
187.98
208.94
228.38
242.53
247.32
239.81
219.65
189.84
156.35
126.29
105.54
96.67
98.34
106.22
114.86
119.57
117.32
106.67
87.06
58.28
20.61
-24.53
-74.33
-124.94
-172.37
-213.89
-248.96
-279.33
-308.34
-340.04
-378.21
-425.16
-480.54
-540.47
-597.76
-643.26
-668.67
-669.52
-646.73
-606.11
-555.73
-502.52
-449.93
-397.96
-345.03
-290.47
-235.83
-184.48
-139.46
-101.76
-69.30
-37.69
-1.97
41.49
93.38
150.19
204.62
247.04
268.65
265.09
239.11
200.73
163.79
140.62
137.28
152.01
177.26
203.97
225.20
237.09
237.90
226.57
202.79
168.40
128.15
88.76
55.70
30.69
11.53
-5.02
-19.19
-26.74
-21.52
-0.33
32.65
65.76
84.36
77.03
40.73
-18.05
-86.16
-148.75
-193.84
-214.69
-210.27
-183.86
-141.00
-87.65
-28.90
31.40
90.69
147.22
199.80
247.47
289.31
323.89
348.90
361.63
360.00
343.85
315.65
279.56
239.68
198.61
156.99
114.52
71.22
27.85
-14.87
-57.26
-100.77
-146.51
-192.69
-233.34
-259.27
-261.47
-235.14
-182.46
-112.21
-36.97
30.74
81.83
112.02
121.39
113.03
91.62
62.33
30.27
0.22
-23.59
-37.98
-41.33
-34.05
-18.96
-0.61
15.96
26.81
30.48
28.14
22.94
18.43
17.12
19.66
24.92
30.58
34.12
33.72
28.84
20.51
11.05
3.24
-1.00
-1.89
-2.10
-6.08
-18.17
-40.66
-72.57
-109.96
-147.65
-181.48
-209.61
-232.77
-253.15
-272.68
-291.95
-309.62
-322.72
-327.63
-321.26
-302.31
-272.14
-234.67
-195.46
-159.60
-129.96
-106.18
-85.32
-63.29
-36.90
-5.11
30.34
64.71
90.87
100.73
88.08
51.85
-1.78
-60.10
-107.87
-132.92
-130.58
-104.65
-64.38
-19.47
23.92
64.14
102.22
139.03
173.69
204.15
228.88
248.14
263.74
277.68
290.40
300.41
305.07
302.05
290.68
272.20
249.01
223.36
196.60
169.13
141.39
114.77
91.85
75.73
68.50
70.01
77.44
86.34
92.45
93.56
90.50
86.71
86.76
94.54
111.80
137.71
169.09
201.23
228.79
246.79
251.42
240.80
215.50
178.69
135.73
93.15
57.27
32.81
21.82
23.37
34.27
50.22
67.32
83.02
96.32
107.42
116.91
125.24
132.42
138.16
142.10
144.02
143.74
140.84
134.47
123.41
106.37
82.74
53.17
19.81
-14.20
-45.53
-71.91
-92.87
-109.67
-124.69
-140.41
-158.51
-179.39
-201.92
-223.56
-240.84
-250.00
-248.16
-234.40
-210.34
-179.91
-148.18
-119.86
-97.94
-83.47
-76.07
-74.98
-79.86
-90.84
-108.14
-131.29
-158.79
-188.41
-217.73
-244.97
-269.54
-291.91
-313.32
-334.91
-356.91
-377.99
-395.36
-405.40
-404.89
-392.19
-367.72
-333.63
-292.97
-248.68
-203.05
-157.67
-113.70
-72.20
-34.18
-0.53
28.20
51.82
70.54
85.08
96.88
107.75
119.30
132.69
148.47
167.02
188.69
213.96
242.72
273.59
303.17
326.39
338.12
335.49
319.83
296.30
272.26
254.68
247.70
251.16
260.80
269.92
271.80
262.32
240.42
207.82
168.05
124.84
80.88
37.41
-5.31
-48.19
-87.67
-117.36
-131.21
-126.82
-106.70
-76.65
-43.02
-10.59
18.14
42.92
64.55
83.97
101.36
116.14
127.36
133.68
133.68
126.20
111.11
89.01
60.72
28.52
-5.04
-38.06
-69.93
-101.50
-134.50
-170.56
-210.50
-253.40
-295.93
-332.34
-355.68
-359.03
-338.06
-293.16
-230.50
-161.38
-99.07
-54.12
-30.29
-23.49
-24.13
-22.45
-13.24
2.27
18.20
28.04
27.89
17.65
-0.66
-25.29
-56.29
-94.91
-141.95
-196.33
-255.02
-313.71
-367.52
-411.19
-439.49
-448.08
-434.99
-401.99
-354.73
-300.89
-247.62
-199.36
-157.27
-120.40
-87.27
-57.23
-30.65
-8.16
10.45
26.27
40.82
55.26
69.96
84.96
99.83
114.28
128.50
143.03
158.61
175.83
194.98
215.95
238.68
262.71
287.48
313.03
340.37
370.75
403.97
436.59
461.50
470.81
458.52
424.11
373.91
318.89
269.85
232.63
205.95
183.25
158.44
127.75
91.08
51.55
13.85
-16.97
-36.21
-39.61
-24.20
11.88
65.12
125.77
180.46
216.04
224.11
203.27
158.86
91.22
11.08
-64.78
-120.76
-148.88
-151.09
-134.45
-106.66
-74.06
-42.70
-15.46
6.54
22.42
33.21
39.19
41.14
39.89
35.59
26.02
10.33
-11.96
-41.07
-73.05
-105.91
-138.18
-168.90
-197.93
-227.70
-259.23
-292.19
-324.98
-352.32
-372.84
-386.70
-394.56
-381.85
-340.70
-272.21
-187.01
-112.00
-48.04
7.41
55.70
98.82
133.97
155.35
158.83
143.26
109.46
64.53
13.32
-38.89
-87.44
-130.25
-169.16
-206.64
-243.63
-287.08
-329.78
-364.34
-384.15
-384.86
-366.58
-334.86
-298.24
-259.53
-225.04
-196.69
-176.34
-164.46
-160.52
-163.96
-174.15
-189.30
-205.91
-220.23
-226.41
-221.54
-205.51
-180.38
-149.70
-117.12
-85.36
-55.72
-29.23
-5.17
16.38
34.71
48.82
57.69
61.23
60.40
57.13
53.21
50.92
51.51
55.12
60.94
67.75
74.59
81.29
88.40
96.66
106.89
119.21
132.76
145.96
157.15
165.36
170.91
175.36
180.87
189.41
201.90
217.65
234.77
251.10
265.09
276.72
287.28
298.91
313.69
332.98
356.99
384.66
413.35
438.83
455.80
459.22
446.02
416.67
375.36
328.75
283.40
243.35
209.09
178.09
147.01
114.33
81.94
54.89
39.26
39.08
53.93
78.41
103.98
122.19
127.86
120.36
102.68
79.22
53.40
27.02
0.96
-23.50
-43.94
-57.45
-62.27
-59.10
-51.20
-42.94
-37.99
-37.53
-40.02
-42.07
-40.10
-32.17
-18.70
-2.34
13.25
24.85
31.05
32.37
30.74
28.52
27.50
28.59
31.73
36.29
41.26
45.56
48.09
47.98
44.78
38.59
29.95
19.62
8.36
-3.17
-14.12
-23.47
-30.09
-33.08
-32.45
-29.33
-25.87
-24.59
-27.44
-34.99
-46.24
-59.03
-70.89
-80.11
-86.22
-89.88
-92.35
-94.43
-95.95
-95.73
-92.36
-85.06
-74.31
-61.80
-49.54
-38.99
-30.43
-23.05
-15.67
-7.43
1.65
10.71
18.52
23.98
26.59
26.46
24.12
20.21
15.18
9.12
1.90
-6.66
-16.57
-27.49
-38.77
-49.51
-58.75
-65.52
-68.94
-68.27
-63.13
-53.69
-40.96
-26.75
-13.36
-3.10
2.39
2.57
-1.85
-9.18
-17.41
-24.78
-30.34
-34.04
-36.39
-38.01
-39.28
-40.25
-40.87
-41.15
-41.18
-40.93
-40.17
-38.47
-35.49
-31.31
-26.58
-22.31
-19.43
-18.42
-18.93
-19.89
-19.69
-16.75
-10.11
0.23
13.20
26.99
39.70
50.03
57.71
63.30
67.60
70.96
72.86
72.12
67.33
57.71
43.53
26.17
7.81
-9.20
-23.08
-32.91
-38.79
-41.41
-41.56
-39.69
-36.00
-30.67
-24.42
-18.65
-15.11
-15.21
-19.19
-25.80
-32.63
-37.05
-37.16
-32.39
-23.44
-11.80
0.81
12.78
22.63
29.00
30.72
27.25
18.91
7.14
-5.88
-17.87
-27.24
-33.51
-37.24
-39.65
-42.03
-45.33
-49.87
-55.43
-61.27
-66.35
-69.48
-69.65
-66.33
-59.92
-51.72
-43.72
-38.06
-36.25
-38.63
-44.26
-51.27
-57.37
-60.71
-60.44
-57.05
-52.11
-47.83
-46.19
-48.14
-53.26
-59.91
-66.06
-70.37
-73.07
-76.00
-81.76
-92.42
-108.40
-128.08
-148.42
-166.21
-179.36
-187.58
-192.24
-195.77
-200.89
-209.89
-223.95
-242.64
-263.43
-281.84
-292.44
-290.45
-273.43
-241.95
-199.21
-149.58
-96.85
-43.39
9.64
61.39
110.66
155.88
195.92
231.02
263.11
295.32
331.09
373.28
423.29
480.27
540.43
597.14
641.96
667.06
667.95
645.16
604.21
553.24
499.91
449.04
402.06
358.30
317.02
278.61
244.24
214.71
189.19
165.26
139.88
110.88
77.71
41.22
3.10
-35.05
-71.61
-104.74
-132.26
-152.07
-163.04
-165.61
-161.66
-153.62
-143.44
-132.13
-120.43
-109.67
-102.06
-99.92
-103.96
-112.09
-119.74
-121.75
-114.96
-99.99
-81.02
-63.76
-52.92
-50.15
-53.71
-59.84
-64.87
-67.21
-68.21
-71.69
-82.24
-103.19
-135.03
-175.08
-218.65
-260.41
-295.99
-322.76
-340.08
-349.29
-353.92
-359.33
-371.62
-395.31
-430.76
-472.64
-510.92
-534.28
-534.51
-509.78
-464.94
-409.07
-351.59
-299.26
-255.23
-219.97
-192.84
-173.16
-160.24
-152.83
-148.70
-145.00
-139.20
-130.06
-117.72
-103.08
-87.00
-69.36
-48.94
-23.95
7.09
44.81
88.50
136.52
186.96
238.36
290.32
343.70
400.60
463.52
533.73
609.57
685.32
751.82
798.95
819.22
810.62
777.40
728.23
672.57
617.39
565.68
517.02
469.80
423.14
377.64
334.71
295.38
259.46
225.60
192.19
158.25
123.91
90.52
59.85
33.21
10.85
-8.50
-27.22
-48.08
-73.37
-104.10
-139.73
-178.50
-218.34
-257.58
-295.64
-333.06
-370.95
-410.63
-453.26
-499.88
-551.33
-607.45
-665.93
-721.46
-766.07
-791.22
-790.86
-763.92
-714.96
-652.47
-585.75
-521.86
-464.44
-414.23
-370.77
-333.81
-303.70
-280.73
-264.43
-253.18
-244.79
-237.40
-230.08
-222.74
-215.87
-209.77
-204.23
-198.53
-191.77
-183.36
-173.33
-162.24
-150.85
-139.63
-128.56
-117.19
-104.98
-91.59
-77.14
-62.04
-46.67
-31.19
-15.31
1.44
19.57
39.82
62.77
88.44
115.55
141.22
161.36
171.88
170.67
159.14
142.35
126.89
118.08
117.75
123.83
132.13
138.64
141.30
140.35
137.85
135.20
132.18
127.37
119.62
109.43
99.12
91.75
90.23
97.77
114.96
139.64
167.83
195.73
221.58
246.04
270.92
298.61
334.08
379.31
432.37
488.05
540.68
586.94
626.67
661.13
693.79
734.18
788.75
857.80
934.10
1005.35
1058.57
1083.94
1075.98
1037.85
986.35
938.35
904.28
884.92
874.18
864.87
852.58
835.09
762.41
608.51
377.43
105.87
-158.15
-380.19
-547.26
-652.18
-713.74
-746.42
-752.23
-734.00
-699.25
-660.18
-629.96
-616.07
-619.37
-637.45
-663.09
-678.25
-668.02
-626.15
-557.05
-472.21
-383.21
-297.96
-221.58
-154.74
-93.81
-35.13
20.35
68.24
103.79
124.80
131.72
126.34
112.10
94.59
78.34
65.60
56.85
52.21
51.88
55.65
62.35
71.05
80.55
86.94
86.20
76.01
56.53
29.67
-1.97
-35.56
-67.50
-95.55
-121.32
-146.39
-170.16
-190.09
-203.25
-208.66
-207.14
-199.68
-189.57
-185.50
-193.69
-215.52
-247.18
-282.91
-318.89
-352.36
-379.98
-401.68
-424.81
-454.52
-491.07
-529.68
-564.22
-592.69
-615.92
-634.46
-606.79
-513.87
-365.96
-198.12
-45.34
74.68
159.64
202.38
219.46
220.78
204.14
166.91
110.08
39.03
-27.09
-77.20
-104.96
-106.01
-84.47
-52.25
-20.30
4.65
21.17
29.46
26.83
10.52
-7.31
-18.47
-18.49
-5.40
19.20
51.47
85.12
111.80
126.06
128.33
119.83
102.62
79.44
51.13
21.98
-2.84
-19.26
-23.89
-14.04
8.82
41.18
80.01
119.75
156.78
189.25
216.03
236.65
250.78
257.08
254.80
244.39
227.70
208.44
190.22
175.18
163.53
153.79
143.78
131.70
117.13
101.19
86.19
74.31
66.78
63.86
64.73
67.45
68.27
61.91
43.75
12.97
-25.36
-61.17
-82.20
-82.34
-61.93
-29.02
4.11
26.42
32.61
24.10
6.39
-14.67
-35.86
-56.11
-75.58
-93.65
-108.08
-116.04
-115.64
-107.49
-94.77
-82.24
-73.82
-71.83
-76.34
-85.34
-95.91
-105.34
-112.15
-116.47
-119.64
-122.71
-126.25
-129.87
-131.99
-130.42
-122.96
-108.08
-85.01
-57.89
-29.88
-3.52
19.93
40.93
61.25
83.12
108.05
136.17
166.21
197.21
228.61
260.48
292.75
323.94
350.99
370.17
378.88
377.06
367.50
353.34
335.86
313.82
284.95
248.69
208.01
168.94
137.55
117.05
105.98
99.65
93.34
84.82
74.67
64.17
52.65
36.40
10.01
-30.94
-87.32
-155.17
-226.46
-291.10
-339.72
-366.33
-370.25
-356.83
-336.28
-321.12
-322.17
-344.73
-386.44
-437.99
-486.52
-519.92
-530.60
-516.75
-481.69
-431.41
-372.00
-308.17
-243.01
-178.70
-117.08
-61.59
-15.32
19.26
40.22
47.24
42.23
29.45
14.61
3.47
0.19
6.61
22.32
45.89
76.22
112.82
154.84
199.15
239.64
268.30
278.39
267.29
237.96
197.99
156.36
120.02
91.55
69.21
48.94
27.16
2.79
-22.16
-42.83
-53.97
-52.17
-37.84
-15.66
6.38
19.62
17.83
-0.58
-31.86
-69.52
-107.45
-142.14
-172.61
-198.82
-219.55
-231.63
-230.85
-213.14
-177.77
-128.20
-71.38
-16.05
29.14
56.78
62.38
45.88
15.15
-18.31
-43.22
-52.12
-42.95
-18.65
14.74
51.10
86.47
124.42
167.82
215.12
260.53
298.00
325.21
344.26
359.93
377.16
406.36
451.59
508.12
565.24
613.33
648.78
673.75
693.75
714.94
751.84
811.30
887.44
963.51
1020.24
1044.01
1029.93
981.61
847.11
615.71
323.24
34.39
-199.81
-363.16
-463.91
-518.02
-539.91
-540.37
-518.05
-474.50
-418.26
-362.17
-316.76
-285.42
-265.84
-253.81
-245.87
-232.91
-210.95
-184.00
-158.92
-142.05
-134.94
-135.37
-139.82
-145.29
-145.33
-136.73
-121.71
-105.49
-92.87
-85.50
-82.81
-83.63
-87.07
-90.52
-92.62
-95.92
-103.44
-116.38
-133.25
-151.50
-169.02
-184.59
-196.86
-205.25
-214.18
-226.97
-243.66
-261.18
-276.27
-287.24
-293.91
-296.84
-296.77
-300.90
-313.66
-334.02
-356.67
-376.28
-390.36
-398.55
-401.32
-399.32
-401.55
-413.56
-434.20
-457.32
-477.38
-493.07
-506.29
-520.11
-484.04
-377.88
-220.37
-55.05
83.79
185.37
253.88
298.67
328.65
350.35
359.50
353.58
335.78
313.84
295.14
282.49
275.57
273.04
272.99
267.74
252.93
230.12
202.39
177.44
159.20
148.80
146.14
150.17
155.83
159.88
162.45
166.18
173.76
185.26
199.24
213.84
226.78
234.63
235.73
230.66
221.61
210.72
197.90
181.16
162.27
141.00
116.68
89.59
61.01
33.00
7.46
-15.24
-35.91
-55.92
-77.29
-101.16
-127.25
-154.36
-180.54
-203.84
-223.37
-239.21
-252.18
-264.38
-278.43
-296.96
-321.46
-350.56
-379.14
-399.73
-404.42
-387.95
-350.28
-297.04
-237.63
-181.83
-136.30
-102.79
-79.15
-60.24
-39.44
-10.96
27.57
73.18
117.42
149.27
158.80
139.84
93.59
29.34
-37.67
-91.25
-118.79
-114.30
-78.70
-19.49
48.63
107.67
141.45
140.55
104.55
41.98
-32.51
-102.07
-142.59
-138.69
-94.24
-31.60
23.72
56.76
65.84
56.55
36.27
10.54
-19.49
-53.84
-90.93
-126.07
-155.51
-175.50
-185.62
-188.09
-186.28
-184.23
-184.08
-185.36
-185.16
-180.51
-169.52
-152.85
-132.58
-110.56
-91.40
-77.72
-69.88
-66.04
-63.86
-61.20
-57.37
-52.75
-48.22
-44.61
-42.31
-41.54
-42.17
-44.31
-47.10
-49.65
-51.11
-50.38
-44.64
-31.48
-9.99
19.28
53.83
93.09
136.64
183.42
231.72
282.35
334.13
382.81
422.40
445.35
451.57
445.11
431.66
417.55
413.46
425.63
453.52
491.37
527.80
559.99
588.68
615.21
641.48
676.06
723.50
781.08
839.79
882.14
900.34
891.86
857.76
753.90
566.58
318.16
58.85
-130.34
-249.24
-316.93
-351.70
-374.90
-394.53
-404.27
-397.09
-379.63
-359.24
-349.21
-353.24
-371.37
-401.78
-439.01
-470.73
-487.99
-489.47
-480.58
-474.27
-475.09
-481.87
-490.76
-497.34
-494.49
-479.19
-453.38
-422.18
-394.09
-371.60
-353.35
-336.71
-318.56
-295.23
-265.55
-231.16
-194.89
-160.58
-131.14
-106.22
-83.83
-61.12
-35.08
-4.40
30.20
66.58
101.54
132.95
160.29
184.36
207.31
232.22
262.26
299.57
343.93
391.42
434.52
464.23
472.52
455.02
412.99
353.30
286.94
226.39
182.62
162.61
168.15
195.55
236.91
282.35
322.53
350.38
361.81
355.29
331.20
291.18
238.25
177.16
114.48
57.65
13.09
-15.73
-29.01
-29.95
-23.35
-13.90
-5.25
0.06
0.31
-5.47
-17.36
-34.23
-53.87
-73.52
-90.76
-104.30
-114.07
-120.37
-123.01
-121.36
-115.17
-105.77
-96.05
-89.24
-87.25
-90.00
-95.75
-102.46
-109.28
-116.92
-126.91
-140.37
-156.86
-174.61
-191.21
-204.37
-212.17
-212.74
-204.20
-184.97
-154.79
-114.99
-68.54
-19.11
29.51
73.81
110.66
137.39
152.37
155.53
149.03
136.52
122.02
108.63
97.83
89.58
83.06
77.29
70.87
62.44
50.53
34.33
14.37
-7.62
-29.34
-49.37
-67.76
-85.62
-103.15
-118.02
-125.30
-119.51
-98.13
-64.21
-26.42
4.08
18.12
12.49
-8.99
-37.68
-64.33
-83.03
-92.94
-97.22
-100.39
-105.95
-115.30
-128.44
-144.82
-163.32
-181.61
-195.32
-199.21
-189.39
-165.90
-133.29
-98.11
-64.94
-33.04
3.41
52.23
118.46
201.12
292.93
383.21
462.20
524.08
567.72
595.00
609.00
611.79
604.23
586.47
558.47
520.47
473.56
419.08
357.68
289.09
212.07
125.85
31.72
-66.27
-161.52
-246.85
-316.25
-366.59
-398.09
-413.68
-417.67
-413.74
-404.16
-390.11
-372.61
-354.06
-338.53
-331.95
-341.02
-371.91
-428.91
-513.63
-623.54
-751.09
-884.22
-1007.49
-1105.10
-1164.89
-1181.24
-1155.83
-1096.08
-1011.77
-911.97
-803.71
-692.13
-581.77
-477.16
-382.74
-301.55
-234.35
-179.24
-132.47
-90.24
-49.97
-10.84
26.36
60.17
89.22
112.88
131.42
145.73
156.59
164.43
169.32
171.21
170.51
168.41
167.05
168.98
176.61
191.49
214.11
243.72
278.93
318.14
359.94
402.93
445.70
486.81
524.65
558.45
588.94
618.64
650.28
684.21
716.55
739.12
742.29
718.79
666.96
591.55
502.12
409.09
320.75
242.38
177.75
130.26
101.89
90.58
89.49
89.77
84.44
71.93
56.85
47.07
48.83
61.95
78.79
87.23
77.25
45.16
-6.26
-70.28
-139.98
-206.57
-255.89
-275.38
-263.33
-227.21
-176.77
-119.33
-59.97
-3.96
43.70
79.19
102.19
113.56
116.80
116.75
118.34
124.40
133.49
140.99
141.03
128.94
102.67
64.76
21.43
-17.24
-35.76
-22.88
21.02
74.75
122.45
152.78
159.34
136.00
82.78
5.99
-85.02
-180.18
-270.37
-347.17
-404.87
-442.02
-462.07
-467.96
-461.97
-447.63
-430.24
-416.42
-411.08
-417.04
-417.89
-406.80
-384.95
-358.71
-332.43
-304.61
-270.98
-238.73
-204.38
-168.77
-138.21
-116.98
-105.26
-100.15
-95.72
-89.39
-80.30
-67.35
-51.84
-37.26
-25.24
-15.57
-7.40
-0.44
4.50
6.61
7.17
6.91
5.64
4.24
4.19
6.94
13.05
21.96
32.85
45.87
60.58
75.92
91.31
106.66
122.04
137.33
152.04
165.56
177.60
187.44
193.89
195.99
193.06
185.00
172.31
155.77
136.13
114.01
89.36
61.77
31.13
-2.16
-36.98
-71.51
-103.46
-130.42
-149.76
-158.85
-156.08
-141.78
-119.23
-94.51
-74.56
-64.52
-65.58
-74.49
-85.21
-91.73
-90.31
-80.00
-61.58
-35.77
-2.73
37.43
83.19
130.72
174.46
209.06
231.39
241.91
244.46
244.47
247.05
254.94
267.75
282.20
293.84
298.85
295.52
285.18
271.28
257.96
248.41
243.97
244.07
246.79
249.14
247.57
238.95
222.09
199.34
176.69
161.69
159.82
170.92
188.00
199.17
192.72
162.21
109.74
45.42
-16.69
-63.30
-86.34
-84.54
-63.10
-31.34
0.31
23.64
35.45
38.05
37.47
39.56
45.96
52.67
51.79
35.92
2.69
-44.18
-96.90
-147.67
-191.94
-228.43
-256.60
-273.75
-274.94
-255.94
-217.20
-165.92
-114.04
-73.45
-51.38
-48.50
-60.59
-81.91
-107.89
-135.49
-161.70
-182.13
-191.47
-185.44
-162.93
-126.76
-82.54
-36.21
8.00
48.51
85.67
120.66
154.39
187.30
219.61
251.50
282.89
312.99
339.98
361.35
374.64
378.49
373.18
360.50
342.90
322.42
299.52
272.88
239.95
198.42
147.83
90.08
28.67
-32.52
-90.55
-143.73
-190.72
-229.93
-259.11
-276.47
-281.85
-277.23
-265.86
-250.50
-232.25
-210.67
-185.21
-157.07
-129.65
-107.95
-96.46
-97.32
-109.51
-129.40
-151.67
-170.90
-182.20
-182.14
-169.72
-146.48
-116.13
-83.39
-52.43
-25.36
-2.28
18.93
41.34
67.84
99.94
137.08
176.88
216.04
252.36
284.52
313.37
340.74
368.38
396.62
423.81
446.45
459.91
460.50
444.19
410.51
362.31
305.50
247.39
194.52
150.67
116.25
90.93
70.11
51.92
35.86
21.90
9.58
-2.59
-16.79
-35.16
-56.05
-82.28
-112.97
-146.93
-182.64
-217.71
-247.92
-267.21
-269.09
-245.52
-200.06
-137.32
-65.18
8.38
78.25
143.54
206.07
244.07
283.48
313.73
326.59
315.79
280.51
225.96
161.22
95.50
34.86
-15.64
-61.83
-106.57
-151.60
-196.54
-239.86
-280.22
-317.69
-353.71
-387.50
-423.53
-462.10
-502.27
-542.83
-583.44
-624.97
-668.56
-713.82
-755.12
-786.97
-800.48
-788.83
-750.53
-690.36
-617.62
-542.34
-471.96
-408.64
-352.66
-301.84
-254.46
-210.39
-170.12
-133.89
-100.60
-68.18
-34.15
2.26
40.42
77.83
110.79
135.91
151.25
157.06
155.60
150.20
143.89
138.14
132.82
125.59
114.37
98.75
80.70
64.31
54.59
55.43
68.28
93.08
126.33
165.33
207.32
248.85
285.25
311.49
324.57
326.08
324.70
327.04
339.58
362.10
387.48
405.72
410.26
402.29
390.36
388.88
401.53
428.06
460.96
489.65
505.27
503.53
484.21
449.09
403.76
343.21
267.25
177.92
81.33
-12.82
-93.56
-152.42
-213.86
-246.08
-262.72
-273.23
-285.07
-301.61
-321.93
-341.63
-354.48
-354.33
-332.36
-292.22
-236.71
-171.83
-104.77
-41.30
16.06
68.03
116.67
166.18
210.98
246.90
269.43
276.03
267.37
246.53
217.48
183.41
148.43
111.61
74.72
39.91
8.97
-17.21
-38.68
-55.26
-65.82
-67.38
-59.89
-45.05
-28.16
-16.96
-18.19
-34.25
-61.59
-92.86
-120.08
-139.25
-150.29
-155.69
-157.59
-155.67
-147.65
-131.08
-106.18
-76.82
-49.09
-28.51
-16.91
-11.36
-5.59
6.84
29.50
61.53
98.26
133.32
160.78
176.71
179.43
169.05
146.99
115.70
78.54
39.88
4.22
-25.17
-47.45
-65.01
-82.82
-106.85
-141.54
-188.18
-243.98
-302.40
-354.53
-391.04
-404.62
-392.59
-358.46
-311.41
-263.36
-224.29
-198.16
-181.40
-165.14
-139.71
-99.42
-44.59
19.84
87.52
153.47
214.79
269.25
313.76
344.20
357.37
353.07
335.15
310.40
285.73
265.61
250.56
237.72
222.59
200.85
169.86
129.27
81.19
29.91
-18.62
-58.13
-83.77
-93.65
-89.45
-75.90
-58.83
-43.18
-31.35
-22.82
-15.17
-5.67
7.48
24.54
44.87
68.01
94.16
123.79
156.68
190.94
222.75
247.82
262.14
263.27
250.41
223.85
184.23
132.38
69.73
-1.28
-75.59
-147.22
-210.01
-259.08
-291.98
-309.19
-313.75
-310.40
-304.96
-301.62
-304.09
-314.35
-332.11
-354.40
-375.76
-389.42
-389.18
-372.23
-338.37
-291.99
-239.60
-187.41
-139.25
-96.01
-56.74
-17.03
15.89
38.92
48.22
43.16
28.74
14.96
13.22
31.20
68.60
115.92
160.18
188.69
194.94
180.48
152.83
121.20
92.47
69.32
50.53
34.89
21.67
11.74
6.57
6.34
8.71
9.25
3.46
-10.81
-31.18
-52.19
-67.43
-72.58
-67.10
-54.11
-38.28
-23.58
-11.75
-2.06
6.92
16.15
25.35
33.22
38.28
39.69
37.62
33.12
27.59
21.98
16.51
10.76
4.21
-3.16
-10.64
-16.87
-20.36
-20.25
-16.59
-10.63
-4.43
-0.02
1.36
-0.15
-2.77
-3.78
-0.65
7.67
20.22
34.62
48.22
59.35
67.29
72.25
74.87
75.86
75.99
76.25
78.04
83.06
92.69
106.53
122.54
137.99
150.40
158.07
160.10
156.05
145.90
130.22
108.81
81.29
47.32
6.70
-40.98
-96.31
-159.23
-226.76
-289.05
-333.93
-352.11
-341.90
-308.82
-261.77
-209.41
-158.14
-113.34
-74.46
-41.68
-15.70
3.77
19.09
34.49
54.52
82.52
116.43
152.65
185.53
210.32
224.82
229.28
224.62
210.57
185.37
147.25
97.34
39.87
-17.76
-67.09
-101.33
-117.47
-116.75
-103.24
-81.90
-56.64
-30.65
-6.55
12.88
24.29
24.20
10.26
-17.32
-54.81
-95.29
-131.16
-156.88
-171.17
-177.97
-184.81
-199.37
-225.59
-261.44
-298.99
-327.59
-337.91
-325.35
-291.23
-241.30
-182.96
-122.45
-63.66
-8.30
42.71
88.32
126.91
157.02
178.47
193.06
204.35
216.60
233.27
255.86
283.39
312.65
339.14
358.56
368.20
367.67
358.87
344.96
329.02
312.82
296.18
277.13
252.87
220.80
179.41
128.90
71.63
12.66
-40.37
-78.58
-94.70
-86.57
-59.27
-24.00
5.99
20.96
18.64
4.42
-12.31
-23.32
-25.19
-19.88
-12.19
-6.25
-3.55
-3.23
-3.93
-5.56
-9.79
-18.89
-34.21
-54.92
-78.00
-99.19
-114.62
-122.14
-122.09
-117.06
-110.70
-106.29
-105.37
-107.32
-109.96
-110.78
-108.30
-102.70
-95.60
-89.13
-84.78
-82.82
-82.33
-81.98
-80.87
-78.95
-77.03
-76.17
-77.09
-79.71
-83.07
-85.60
-85.75
-82.52
-75.89
-66.96
-57.75
-50.51
-47.11
-48.36
-53.61
-60.89
-67.35
-70.01
-66.50
-55.68
-37.91
-14.86
11.07
37.49
62.53
85.06
104.61
121.32
135.87
149.34
162.85
176.70
189.64
198.60
199.33
187.88
162.30
123.81
76.72
27.31
-18.01
-54.38
-79.48
-93.72
-99.53
-100.12
-98.09
-94.45
-88.35
-78.07
-62.47
-42.20
-19.91
0.66
16.36
25.90
30.17
31.52
32.71
36.00
42.70
53.12
66.41
80.50
92.19
97.79
94.40
81.18
60.16
35.83
13.72
-1.51
-7.44
-4.34
5.56
19.25
34.04
48.02
59.98
68.90
73.92
74.41
70.48
62.98
53.23
41.95
28.50
10.71
-14.17
-47.86
-89.48
-135.09
-178.94
-215.68
-242.69
-261.19
-275.64
-291.66
-313.18
-340.45
-369.25
-392.09
-400.51
-387.80
-351.02
-291.74
-215.27
-128.92
-40.03
45.53
123.96
193.13
251.73
298.55
332.35
352.28
358.61
352.96
338.05
316.89
291.75
263.66
232.57
198.07
160.42
121.14
82.90
48.75
21.06
0.73
-12.89
-21.42
-26.61
-29.60
-30.74
-29.85
-26.81
-22.05
-16.68
-12.26
-10.14
-11.13
-15.11
-21.19
-28.09
-34.56
-39.74
-43.33
-45.43
-46.32
-46.33
-45.63
-44.32
-42.49
-40.32
-38.06
-36.01
-34.36
-33.04
-31.87
-30.60
-29.07
-27.34
-25.71
-24.51
-23.97
-23.98
-24.15
-23.93
-22.83
-20.61
-17.41
-13.59
-9.63
-5.90
-2.63
0.13
2.43
4.34
5.97
7.32
8.39
9.18
9.65
9.78
9.57
9.05
8.24
7.21
6.00
4.75
3.65
2.93
2.76
3.17
3.99
4.91
5.62
5.93
5.83
5.49
5.03
4.54
3.98
3.15
1.93
0.28
-1.71
-3.88
-6.08
-8.25
-10.38
-12.49
-14.56
-16.59
-18.52
-20.45
-22.52
-24.84
-27.35
-29.73
-31.43
-31.85
-30.66
-27.83
-23.76
-19.06
-14.31
-9.93
-6.03
-2.53
0.72
3.79
6.70
9.32
11.56
13.34
14.65
15.56
16.30
17.05
17.97
19.11
20.34
21.47
22.35
22.90
23.23
23.49
23.76
24.03
24.09
23.75
22.85
21.47
19.82
18.16
16.71
15.49
14.34
13.10
11.58
9.68
7.41
4.79
1.96
-0.92
-3.64
-6.01
-7.92
-9.49
-10.98
-12.77
-15.15
-18.17
-21.52
-24.57
-26.56
-26.80
-24.98
-21.20
-15.98
-10.06
-4.15
1.20
5.73
9.34
12.10
14.14
15.54
16.42
16.83
16.86
16.47
15.64
14.31
12.53
10.42
8.19
6.13
4.54
3.65
3.54
4.13
5.10
6.05
6.61
6.58
5.94
4.85
3.49
1.91
0.03
-2.30
-5.28
-8.97
-13.26
-17.86
-22.40
-26.57
-30.14
-33.05
-35.43
-37.57
-39.77
-42.25
-44.87
-47.13
-48.24
-47.38
-44.05
-38.26
-30.63
-22.11
-13.72
-6.14
0.35
5.86
10.62
14.81
18.39
21.22
23.14
24.12
24.30
23.97
23.43
22.90
22.51
22.32
22.34
22.56
22.94
23.37
23.67
23.66
23.10
21.94
20.21
18.10
15.94
13.95
12.28
10.86
9.51
8.01
6.17
3.96
1.40
-1.38
-4.28
-7.29
-10.44
-13.86
-17.69
-21.93
-26.45
-30.87
-34.52
-36.56
-36.27
-33.24
-27.61
-20.06
-11.61
-3.29
4.07
10.07
14.69
18.19
20.86
22.90
24.45
25.56
26.31
26.81
27.21
27.67
28.29
29.07
29.93
30.75
31.42
31.92
32.32
32.68
32.96
32.99
32.48
31.14
28.91
25.96
22.73
19.72
17.26
15.35
13.73
12.02
9.96
7.46
4.61
1.56
-1.63
-5.08
-9.03
-13.69
-19.19
-25.45
-32.27
-39.38
-46.44
-52.95
-58.33
-61.83
-62.83
-61.02
-56.58
-50.13
-42.51
-34.37
-26.01
-17.50
-8.86
-0.43
7.21
13.32
17.45
19.62
20.35
20.39
20.43
20.80
21.45
22.11
22.50
22.45
21.92
21.00
19.76
18.25
16.48
14.46
12.30
10.23
8.54
7.53
7.34
7.91
8.97
10.14
10.98
11.15
10.58
9.38
7.90
6.53
5.60
5.18
5.15
5.16
4.85
3.92
2.25
-0.04
-2.73
-5.57
-8.38
-11.10
-13.79
-16.56
-19.54
-22.81
-26.30
-29.81
-32.86
-34.84
-35.11
-33.23
-29.04
-22.81
-15.14
-6.74
1.75
9.91
17.47
24.24
30.00
34.51
37.55
39.09
39.26
38.37
36.84
35.01
33.11
31.19
29.18
26.95
24.48
21.85
19.28
16.99
15.09
13.43
11.67
9.36
6.21
2.27
-2.03
-6.03
-9.12
-11.05
-12.08
-12.95
-14.68
-18.08
-23.37
-29.79
-35.74
-39.26
-38.79
-33.90
-25.73
-16.82
-10.55
-10.28
-18.31
-34.96
-57.88
-81.99
-100.04
-104.35
-88.93
-51.68
4.61
72.58
142.04
202.32
244.67
263.75
258.17
230.30
185.56
131.67
77.55
31.86
1.02
-12.66
-11.96
-4.20
0.98
-4.97
-26.23
-61.00
-102.78
-143.68
-178.25
-205.10
-225.72
-241.68
-251.78
-251.18
-233.44
-194.26
-134.44
-60.22
19.29
95.02
159.52
206.44
230.42
227.72
198.35
148.28
90.18
40.63
14.25
17.12
43.21
77.87
104.80
113.09
100.19
70.76
33.01
-5.42
-40.46
-71.99
-100.30
-123.60
-137.34
-137.15
-120.74
-88.22
-42.13
17.51
83.76
143.83
184.51
200.91
198.87
189.02
179.08
171.16
161.68
142.13
106.00
54.81
-2.09
-54.06
-93.56
-117.76
-129.09
-134.80
-143.07
-158.59
-180.46
-201.70
-217.63
-228.51
-237.20
-235.49
-216.60
-176.89
-118.38
-59.03
0.55
61.74
121.63
178.69
228.22
265.16
286.74
292.26
282.49
261.00
226.58
173.44
96.90
-3.85
-124.98
-258.04
-392.24
-516.76
-619.92
-675.08
-663.46
-581.35
-444.81
-282.33
-120.55
23.05
134.08
219.66
283.01
322.25
335.52
324.11
292.37
246.53
193.87
140.65
92.98
51.46
13.59
-22.34
-55.64
-84.80
-108.23
-126.25
-141.85
-150.20
-152.04
-151.94
-156.00
-167.99
-187.97
-210.63
-227.27
-229.45
-211.91
-177.64
-135.36
-100.04
-76.71
-65.75
-63.31
-63.03
-58.81
-46.34
-25.85
0.68
31.60
67.52
109.85
159.19
214.80
274.95
336.99
396.03
446.13
480.72
494.58
484.37
450.94
399.58
338.43
275.55
215.94
160.98
109.43
59.75
10.91
-36.11
-78.47
-112.53
-135.29
-145.17
-142.39
-129.07
-109.08
-88.04
-73.01
-71.70
-91.10
-135.42
-204.19
-291.08
-384.77
-471.70
-540.13
-583.11
-599.29
-591.46
-563.85
-520.25
-463.48
-396.51
-323.31
-249.14
-179.68
-119.31
-69.95
-30.50
1.54
28.69
52.64
74.19
92.46
104.60
105.42
89.16
52.78
-1.05
-62.88
-119.08
-156.00
-165.74
-148.81
-113.32
-70.44
-28.03
10.62
45.95
78.04
106.85
131.09
149.71
162.63
171.72
182.90
202.00
232.03
269.81
311.83
355.11
399.54
445.89
495.27
550.91
611.50
669.23
708.13
715.86
685.46
618.31
520.71
403.37
284.85
183.77
114.03
78.70
78.23
108.24
162.43
231.30
274.77
265.84
198.99
136.29
108.72
129.64
182.04
254.59
335.68
415.29
491.19
563.49
598.57
569.18
471.98
325.79
161.52
4.01
-133.30
-242.47
-320.96
-372.22
-403.06
-417.19
-417.41
-406.53
-389.07
-370.42
-353.66
-340.59
-334.53
-336.23
-336.98
-326.62
-295.63
-241.30
-168.32
-88.32
-7.23
67.54
131.30
182.53
220.51
245.06
254.56
247.01
220.98
179.92
123.95
55.45
-21.15
-100.81
-178.34
-250.80
-317.45
-378.91
-434.90
-491.87
-554.76
-625.32
-701.65
-779.10
-853.01
-919.59
-975.88
-988.01
-934.86
-812.03
-636.13
-436.50
-240.55
-66.69
76.34
180.95
255.49
302.11
322.92
322.18
306.95
285.91
265.40
247.74
232.60
218.80
199.18
167.30
119.34
56.57
-13.96
-81.49
-134.31
-164.29
-169.57
-159.04
-145.29
-139.37
-148.72
-169.95
-196.06
-220.15
-237.60
-246.29
-247.58
-242.67
-231.08
-210.06
-178.17
-136.97
-90.64
-44.69
-4.21
27.25
49.43
65.03
78.41
93.79
113.14
135.86
159.39
180.49
196.73
207.40
213.26
215.73
215.86
213.40
207.06
195.57
178.57
157.83
136.94
120.44
112.39
115.40
130.32
156.37
191.38
231.47
270.92
302.46
319.00
315.91
292.82
253.70
205.24
153.79
102.58
51.22
-2.34
-58.62
-114.20
-162.16
-195.04
-208.83
-205.42
-192.42
-179.89
-176.19
-185.02
-204.79
-230.80
-258.06
-283.35
-305.49
-324.14
-338.28
-345.57
-343.10
-328.76
-302.58
-267.08
-226.69
-186.10
-148.80
-115.97
-86.56
-58.23
-28.70
2.96
35.74
67.18
94.49
115.75
130.87
141.64
150.95
161.64
175.15
191.11
207.73
222.79
234.83
244.07
252.24
261.95
275.84
295.68
321.96
353.57
387.75
420.20
445.23
456.59
449.25
421.73
377.58
325.18
275.27
236.88
213.95
204.32
201.58
198.75
191.62
179.62
164.48
147.68
128.81
106.11
78.38
46.94
15.82
-10.07
-27.84
-38.27
-45.52
-55.06
-70.80
-93.14
-118.82
-142.57
-159.42
-166.65
-164.39
-155.04
-141.92
-127.84
-114.31
-101.56
-89.23
-77.14
-65.81
-56.34
-49.88
-47.10
-47.67
-50.47
-53.95
-56.69
-57.75
-56.74
-53.62
-48.41
-41.14
-31.84
-20.77
-8.48
4.20
16.34
27.10
35.92
42.56
47.21
50.27
52.25
53.52
54.18
53.94
52.24
48.46
42.29
34.04
24.62
15.31
7.42
1.87
-0.91
-1.01
1.17
5.07
10.10
15.62
20.98
25.58
28.90
30.67
30.81
29.39
26.59
22.61
17.73
12.26
6.61
1.15
-3.76
-7.96
-11.48
-14.48
-17.32
-20.38
-23.91
-28.01
-32.52
-37.09
-41.26
-44.66
-47.05
-48.31
-48.48
-47.69
-46.04
-43.69
-40.69
-37.01
-32.55
-27.18
-20.90
-13.86
-6.47
0.73
7.15
12.30
15.91
17.97
18.61
18.23
17.29
16.28
15.60
15.43
15.70
15.97
15.64
14.07
10.85
5.87
-0.51
-7.60
-14.59
-20.65
-25.21
-28.07
-29.37
-29.44
-28.77
-27.73
-26.53
-25.25
-23.84
-22.31
-20.70
-19.16
-17.81
-16.71
-15.81
-14.88
-13.64
-11.81
-9.23
-5.94
-2.11
1.92
5.71
8.88
11.13
12.22
12.10
10.79
8.35
4.90
0.65
-3.98
-8.34
-11.60
-12.94
-11.75
-8.01
-2.33
4.11
9.77
13.20
13.40
10.04
3.46
-5.33
-15.09
-24.68
-33.42
-41.32
-48.94
-57.06
-66.13
-75.90
-85.23
-92.39
-95.55
-93.24
-84.81
-70.38
-50.81
-27.47
-2.12
23.30
46.77
66.46
81.00
89.72
92.76
91.01
85.85
78.83
71.40
64.61
58.99
54.50
50.54
46.19
40.48
32.74
22.93
11.74
0.46
-9.38
-16.38
-19.77
-19.55
-16.41
-11.55
-6.31
-2.04
0.23
-0.06
-2.82
-7.27
-12.26
-16.56
-19.47
-20.92
-21.42
-21.68
-22.17
-22.82
-23.20
-22.85
-21.57
-19.64
-17.63
-16.10
-15.38
-15.37
-15.64
-15.58
-14.59
-12.33
-8.81
-4.34
0.52
5.17
9.19
12.29
14.34
15.31
15.16
13.91
11.63
8.57
5.05
1.46
-1.92
-4.99
-7.80
-10.47
-13.10
-15.71
-18.18
-20.37
-22.11
-23.30
-23.95
-24.10
-23.84
-23.12
-21.80
-19.59
-16.26
-11.82
-6.52
-0.78
5.03
10.63
15.88
20.67
24.90
28.35
30.75
31.86
31.62
30.17
27.79
24.84
21.61
18.53
15.95
14.06
12.97
12.67
13.23
14.68
17.09
20.43
25.12
31.32
38.74
46.68
54.33
61.06
66.60
71.03
74.58
78.64
84.14
91.27
99.46
107.79
115.70
123.05
130.10
137.10
145.93
157.66
172.12
188.04
203.81
218.28
230.93
241.67
250.25
258.51
267.21
275.51
280.86
279.86
269.67
249.10
219.19
167.78
92.20
-1.22
-98.58
-184.92
-251.06
-295.36
-321.10
-333.01
-335.40
-329.32
-316.03
-297.82
-277.89
-259.22
-243.55
-231.04
-220.88
-212.13
-202.38
-190.20
-175.73
-160.30
-145.71
-133.27
-123.31
-115.31
-108.38
-100.56
-90.69
-78.68
-65.32
-51.72
-38.60
-26.01
-13.79
-1.81
10.43
22.09
31.83
38.29
40.58
38.52
32.84
24.80
15.94
7.75
1.24
-3.15
-5.42
-5.85
-4.86
-2.73
0.47
4.79
9.64
13.90
16.44
16.70
14.98
12.41
10.79
11.76
16.36
23.26
29.58
32.45
30.31
23.76
15.11
7.59
4.01
5.76
10.00
13.10
10.70
0.20
-18.30
-42.22
-67.43
-89.54
-105.11
-115.33
-124.83
-139.08
-162.32
-196.63
-241.92
-295.93
-353.97
-394.92
-398.05
-350.93
-256.30
-131.73
-2.10
108.36
182.12
213.10
208.04
183.86
153.39
125.60
104.67
90.37
79.83
70.71
63.96
63.72
73.28
93.32
122.72
158.34
195.96
230.63
257.62
273.36
275.23
260.14
225.62
172.55
105.77
33.45
-36.10
-95.62
-139.35
-163.77
-169.37
-160.76
-144.61
-127.21
-111.95
-100.04
-89.33
-75.44
-54.03
-24.02
11.94
49.17
83.24
110.40
123.97
116.13
80.95
17.77
-67.70
-164.93
-261.67
-347.03
-399.70
-405.09
-365.24
-299.42
-230.34
-171.62
-126.30
-91.84
-64.04
-39.16
-17.34
0.67
14.93
27.22
38.59
49.50
58.20
63.34
66.12
68.20
73.68
86.69
109.68
141.26
176.31
208.36
233.80
254.03
264.94
266.97
262.70
256.04
250.43
247.21
244.41
237.45
220.54
187.03
134.78
67.37
-6.98
-79.71
-145.88
-205.55
-261.40
-306.64
-332.66
-332.93
-307.62
-263.68
-211.51
-160.80
-117.76
-83.31
-54.77
-30.02
-8.56
9.76
24.71
34.63
37.35
31.43
17.54
-1.16
-20.75
-36.59
-41.07
-27.35
7.67
64.32
137.44
219.20
301.71
377.78
429.84
446.67
428.98
387.35
334.35
279.31
229.07
189.44
165.79
154.54
151.82
151.80
146.67
129.57
97.29
51.38
0.55
-44.53
-74.86
-83.42
-69.22
-38.05
-0.26
33.16
54.33
60.48
53.08
36.43
17.61
2.52
-6.18
-9.38
-10.56
-14.47
-25.42
-46.92
-80.85
-125.88
-178.53
-234.36
-289.21
-340.16
-385.94
-426.91
-465.10
-502.80
-540.42
-575.60
-602.79
-614.84
-605.69
-573.26
-520.87
-456.36
-389.08
-326.18
-270.43
-219.98
-170.68
-119.31
-65.99
-14.75
27.47
53.39
58.29
42.08
10.26
-26.99
-57.49
-71.05
-63.16
-37.15
-3.16
26.08
40.55
37.41
21.77
3.87
-6.09
-2.54
13.81
37.86
64.29
90.67
118.24
149.64
185.64
223.12
255.88
277.34
283.76
275.73
256.93
231.91
203.93
173.99
141.68
106.69
69.93
33.93
2.11
-22.22
-36.72
-40.31
-33.37
-17.74
3.41
25.95
45.81
60.15
68.24
71.62
73.22
75.96
82.00
92.34
107.14
125.90
147.26
168.65
186.33
196.42
196.54
187.39
172.95
158.77
149.52
147.18
151.07
159.33
170.72
184.87
201.52
219.28
235.28
246.58
251.95
252.66
251.85
252.34
254.96
257.85
257.76
251.91
239.19
220.01
195.55
167.23
136.96
107.36
81.26
60.79
46.04
35.09
24.66
11.51
-6.38
-29.61
-58.19
-92.41
-132.82
-179.14
-229.07
-278.79
-324.25
-363.17
-395.97
-425.33
-454.70
-485.55
-514.71
-534.52
-535.82
-512.33
-463.71
-395.73
-318.05
-242.21
-177.62
-128.76
-94.71
-70.81
-51.19
-30.46
-4.39
28.78
65.18
96.11
111.41
103.98
72.37
21.34
-40.12
-101.97
-149.61
-171.71
-167.17
-145.95
-120.26
-95.92
-72.50
-48.19
-23.40
4.32
34.61
65.55
94.64
119.68
138.72
151.24
154.91
152.74
152.10
159.21
176.42
200.95
227.05
248.93
263.91
273.55
283.62
300.58
327.31
362.83
403.71
445.73
484.71
515.96
533.62
531.78
505.43
452.00
374.17
280.35
182.85
94.25
23.47
-26.30
-56.88
-73.32
-82.08
-89.17
-99.11
-114.56
-135.72
-160.59
-185.65
-207.13
-222.87
-233.46
-242.08
-253.09
-270.20
-295.12
-327.25
-364.38
-403.55
-441.84
-476.25
-503.61
-520.53
-523.96
-512.01
-484.67
-443.66
-391.81
-332.24
-267.91
-201.41
-135.51
-73.21
-17.69
28.24
62.72
85.25
96.73
99.22
95.62
89.22
83.25
80.35
81.98
88.15
97.43
107.80
117.29
124.83
130.34
134.31
137.25
139.27
140.01
138.99
135.78
130.33
122.87
113.80
103.62
92.79
81.61
70.05
57.49
42.80
24.78
2.82
-22.48
-49.12
-74.04
-94.20
-107.42
-113.32
-113.31
-110.03
-106.33
-104.26
-104.53
-106.25
-107.42
-105.60
-98.60
-85.28
-65.77
-41.56
-15.17
10.58
33.26
51.51
65.35
76.01
85.39
95.33
106.94
120.12
133.60
145.11
152.20
153.10
147.39
136.35
122.55
108.83
97.16
88.06
80.47
72.70
63.65
53.56
44.26
38.44
38.36
44.88
56.98
71.94
85.94
94.80
94.73
82.74
57.11
17.74
-33.72
-94.01
-158.98
-224.66
-288.29
-348.89
-406.50
-460.64
-508.65
-545.33
-564.19
-560.29
-532.66
-485.37
-426.34
-364.27
-305.75
-253.58
-207.28
-164.99
-125.36
-88.27
-54.26
-23.25
6.19
36.67
70.99
110.99
156.97
207.35
259.00
307.82
349.36
379.77
396.67
399.87
391.31
374.45
352.96
329.72
306.26
282.97
259.92
237.28
215.59
195.44
176.93
159.57
142.51
125.13
107.38
90.05
74.29
61.16
51.15
43.97
38.55
33.66
28.26
21.79
14.33
6.28
-1.90
-9.90
-17.69
-25.53
-33.79
-42.65
-52.01
-61.29
-69.53
-75.54
-78.18
-76.74
-71.20
-62.31
-51.39
-40.02
-29.42
-20.20
-12.32
-5.10
2.27
10.43
19.51
29.15
38.51
46.70
52.95
56.67
57.57
55.63
51.07
44.43
36.49
28.24
20.82
15.22
12.07
11.46
13.00
15.77
18.73
20.95
21.81
21.33
19.95
18.51
17.83
18.41
20.28
23.01
25.84
27.80
28.10
26.25
22.19
16.37
9.50
2.34
-4.64
-11.42
-18.39
-25.86
-33.77
-41.42
-47.64
-51.21
-51.17
-47.18
-39.42
-28.55
-15.28
-0.49
14.81
29.63
43.21
55.38
66.44
77.06
87.83
99.00
110.11
120.00
127.31
130.82
130.06
125.44
118.14
109.65
101.58
95.06
90.22
86.19
81.55
75.03
65.68
53.24
37.76
20.29
2.48
-14.21
-28.92
-41.33
-51.48
-59.94
-67.19
-74.01
-80.23
-85.36
-89.66
-94.59
-102.30
-114.76
-133.50
-158.28
-187.40
-216.16
-237.63
-244.85
-232.77
-199.29
-145.70
-77.06
1.12
73.89
124.85
146.57
142.73
122.01
92.06
61.00
29.87
0.50
-24.30
-40.46
-45.09
-38.86
-25.65
-12.82
-8.82
-19.42
-44.76
-78.10
-107.15
-120.76
-114.94
-93.70
-65.35
-37.93
-15.80
1.53
16.64
32.49
50.35
69.34
87.46
103.55
116.65
126.38
132.95
136.14
135.22
128.85
115.59
93.25
63.70
29.88
-4.88
-37.19
-64.35
-84.62
-97.62
-104.17
-105.92
-104.85
-103.19
-102.53
-103.26
-104.67
-105.38
-104.35
-101.22
-96.39
-91.08
-87.10
-85.86
-88.07
-93.61
-101.39
-109.16
-113.37
-109.82
-95.19
-69.10
-34.93
1.05
32.02
53.46
64.73
68.48
68.32
66.34
61.85
52.73
37.68
18.06
-1.93
-16.94
-23.10
-19.03
-6.19
12.09
31.49
47.66
56.88
57.35
50.42
40.89
35.64
40.17
55.63
77.70
98.67
111.12
111.58
101.60
86.21
70.88
58.93
50.88
45.23
39.79
32.49
22.39
9.82
-2.42
-9.77
-8.05
4.00
22.88
41.51
52.38
51.66
40.78
25.93
14.61
11.31
15.99
23.99
29.11
26.67
15.21
-3.83
-26.77
-49.06
-67.16
-78.85
-84.95
-87.91
-90.62
-92.44
-93.08
-91.63
-87.08
-79.24
-68.18
-56.25
-46.12
-39.94
-39.07
-44.68
-57.83
-80.24
-114.67
-159.80
-212.99
-268.00
-315.22
-344.61
-349.71
-330.09
-292.13
-252.30
-218.65
-196.06
-185.37
-183.72
-186.59
-189.96
-191.31
-188.29
-179.90
-164.42
-141.80
-113.10
-80.52
-47.15
-16.35
9.43
29.48
44.71
57.88
70.66
83.53
95.72
105.77
112.26
114.93
114.95
114.35
115.78
120.58
129.03
140.74
154.95
170.61
186.09
199.15
207.29
209.34
205.83
199.46
194.20
193.54
199.02
209.99
224.60
241.17
259.22
278.53
297.91
313.75
320.09
310.36
280.32
230.53
167.00
99.78
39.74
-5.04
-31.65
-42.64
-44.18
-43.14
-44.38
-49.53
-57.56
-66.40
-74.49
-81.32
-86.97
-91.15
-92.54
-89.00
-78.59
-60.62
-36.58
-9.92
14.71
32.77
41.19
39.25
28.80
13.59
-1.94
-14.32
-21.99
-25.45
-26.40
-26.42
-25.98
-24.40
-20.74
-14.85
-7.90
-2.05
0.79
0.01
-3.12
-6.08
-6.34
-2.57
4.85
14.25
23.60
31.55
37.61
42.17
45.75
48.63
50.85
52.43
53.63
54.81
56.20
57.59
58.41
58.15
56.67
54.27
51.28
47.58
42.38
34.71
24.26
11.96
0.04
-8.81
-12.61
-10.92
-4.95
3.06
10.93
17.18
21.35
23.71
24.73
24.80
23.98
22.23
19.48
15.84
11.62
7.23
3.08
-0.73
-4.31
-7.97
-11.94
-16.26
-20.61
-24.58
-27.83
-30.26
-32.07
-33.58
-35.07
-36.55
-37.83
-38.64
-38.86
-38.63
-38.40
-38.75
-40.06
-42.39
-45.15
-47.37
-47.91
-45.89
-41.07
-33.74
-24.70
-14.92
-5.29
3.45
10.79
16.44
20.19
22.06
22.19
20.88
18.59
15.73
12.71
9.79
7.12
4.77
2.76
1.13
-0.12
-0.98
-1.52
-1.84
-2.05
-2.23
-2.31
-2.20
-1.77
-1.05
-0.21
0.47
0.69
0.28
-0.77
-2.25
-3.89
-5.48
-6.99
-8.56
-10.48
-13.00
-16.17
-19.88
-23.81
-27.55
-30.78
-33.24
-34.86
-35.62
-35.75
-35.66
-35.99
-37.43
-40.39
-44.76
-49.67
-53.70
-55.25
-53.20
-47.26
-38.12
-27.20
-16.15
-6.29
1.66
7.55
11.68
14.47
16.35
17.60
18.46
19.09
19.66
20.30
21.08
21.94
22.78
23.45
23.89
24.13
24.35
24.75
25.43
26.30
27.03
27.19
26.38
24.45
21.57
18.16
14.69
11.46
8.52
5.75
3.01
0.26
-2.43
-4.94
-7.21
-9.38
-11.62
-14.04
-16.61
-19.17
-21.60
-23.92
-26.35
-29.19
-32.69
-36.89
-41.67
-46.85
-52.22
-57.73
-63.22
-68.30
-72.15
-73.67
-71.75
-65.73
-55.74
-42.74
-28.23
-13.76
-0.60
10.58
19.62
26.71
32.15
36.26
39.33
41.70
43.72
45.67
47.73
49.93
52.19
54.39
56.36
57.98
59.15
59.79
59.81
59.16
57.84
55.85
53.26
50.19
46.71
42.91
38.97
35.05
31.30
27.88
24.82
22.11
19.66
17.26
14.61
11.40
7.28
2.03
-4.29
-11.36
-18.53
-25.04
-30.31
-34.13
-36.70
-38.64
-40.71
-43.53
-47.45
-52.42
-58.01
-63.51
-68.08
-70.92
-71.46
-69.41
-64.85
-58.35
-50.74
-43.06
-36.31
-31.14
-27.85
-26.30
-26.03
-26.48
-27.05
-27.23
-26.67
-25.22
-22.89
-19.87
-16.46
-12.94
-9.53
-6.33
-3.36
-0.58
1.94
4.15
5.98
7.44
8.63
9.66
10.67
11.66
12.55
13.11
13.12
12.36
10.74
8.33
5.27
1.73
-2.08
-5.99
-9.83
-13.54
-17.18
-20.97
-25.33
-30.68
-37.21
-44.67
-52.23
-58.52
-62.06
-61.70
-57.02
-48.50
-37.36
-25.07
-12.95
-1.84
7.95
16.44
23.75
29.94
35.01
38.91
41.67
43.41
44.25
44.36
43.84
42.78
41.30
39.54
37.68
35.92
34.45
33.34
32.54
31.78
30.71
29.01
26.56
23.56
20.43
17.67
15.59
14.20
13.22
12.22
10.85
9.05
6.90
4.66
2.50
0.38
-1.94
-4.83
-8.80
-14.25
-21.45
-30.26
-40.02
-49.46
-56.96
-60.85
-59.92
-53.81
-43.13
-29.37
-14.47
-0.27
12.00
21.88
29.68
36.11
41.82
47.14
51.89
55.69
58.28
59.87
61.14
63.05
66.36
71.33
77.68
84.69
91.58
97.78
103.04
107.25
110.50
112.86
114.39
115.24
115.67
116.03
116.66
117.80
119.37
120.84
121.17
118.85
112.05
98.96
78.19
49.12
12.17
-31.06
-78.02
-125.60
-170.51
-209.79
-241.21
-263.44
-276.22
-280.20
-276.59
-266.75
-251.75
-232.22
-208.36
-180.26
-148.32
-113.62
-77.90
-43.20
-11.51
15.81
38.06
55.25
67.84
76.51
81.88
84.47
84.80
83.33
80.61
77.16
73.41
69.63
65.93
62.25
58.58
55.07
51.89
49.37
47.70
46.84
46.46
45.99
44.75
42.16
37.85
31.70
23.91
14.91
5.30
-4.31
-13.40
-21.63
-28.89
-35.28
-41.04
-46.52
-51.94
-57.41
-62.81
-67.80
-72.03
-75.27
-77.60
-79.44
-81.45
-84.21
-87.93
-92.05
-95.39
-96.41
-93.59
-86.05
-73.77
-57.65
-39.21
-20.19
-2.02
14.29
28.26
39.78
48.90
55.68
60.22
62.75
63.57
63.11
61.82
60.03
57.97
55.72
53.35
50.98
48.73
46.67
44.71
42.67
40.33
37.52
34.25
30.67
27.03
23.51
20.11
16.68
12.92
8.58
3.51
-2.23
-8.40
-14.73
-20.89
-26.67
-32.05
-37.11
-42.10
-47.26
-52.67
-58.04
-62.69
-65.55
-65.46
-61.66
-53.95
-42.99
-30.02
-16.58
-4.05
6.72
15.49
22.46
28.01
32.54
36.33
39.53
42.20
44.43
46.27
47.68
48.65
49.07
48.91
48.17
47.01
45.62
44.11
42.45
40.45
37.83
34.33
29.92
24.82
19.43
14.31
9.87
6.33
3.58
1.35
-0.74
-3.09
-5.89
-9.19
-12.82
-16.51
-19.99
-23.12
-25.95
-28.77
-32.06
-36.23
-41.51
-47.59
-53.66
-58.36
-60.22
-58.00
-51.18
-40.19
-26.30
-11.31
2.99
15.27
24.92
32.01
37.05
40.65
43.41
45.65
47.51
49.07
50.37
51.50
52.52
53.49
54.31
54.87
55.01
54.63
53.74
52.50
51.04
49.46
47.75
45.76
43.29
40.20
36.49
32.30
27.85
23.31
18.79
14.28
9.71
4.95
-0.06
-5.26
-10.50
-15.57
-20.15
-23.94
-26.77
-28.70
-30.01
-31.19
-32.77
-35.00
-37.88
-41.07
-44.10
-46.61
-48.44
-49.74
-50.86
-52.30
-54.46
-57.56
-61.46
-65.56
-68.76
-69.70
-67.17
-60.48
-49.87
-36.38
-21.57
-7.09
5.81
16.41
24.61
30.59
34.75
37.50
39.25
40.39
41.23
42.02
42.88
43.88
44.92
45.88
46.56
46.80
46.52
45.73
44.54
43.04
41.26
39.21
36.89
34.35
31.70
29.16
26.93
25.17
23.90
23.12
22.76
22.73
22.90
23.03
22.88
22.27
21.14
19.62
18.04
16.67
15.66
14.92
14.04
12.56
10.11
6.43
1.53
-4.33
-10.84
-17.65
-24.41
-30.88
-36.90
-42.44
-47.66
-52.81
-58.00
-63.21
-67.83
-70.88
-71.17
-67.76
-60.30
-49.33
-36.07
-22.20
-9.38
1.22
9.03
14.11
16.93
18.15
18.33
17.99
17.42
16.85
16.45
16.27
16.34
16.56
16.68
16.42
15.57
14.11
12.17
9.95
7.62
5.22
2.84
0.59
-1.28
-2.47
-2.78
-2.29
-1.39
-0.72
-0.83
-2.03
-4.29
-7.28
-10.60
-13.91
-16.94
-19.47
-21.38
-22.57
-23.08
-23.03
-22.63
-22.20
-21.98
-22.19
-22.94
-24.35
-26.51
-29.51
-33.41
-38.27
-44.08
-50.70
-57.60
-63.85
-68.23
-69.50
-66.88
-60.41
-51.03
-40.30
-30.05
-21.66
-15.76
-12.15
-9.99
-8.21
-5.93
-2.67
1.68
6.81
12.29
17.69
22.64
26.93
30.46
33.13
34.99
36.17
37.02
37.99
39.58
42.06
45.40
49.23
52.92
55.83
57.47
57.63
56.22
53.29
48.75
42.44
34.16
23.80
11.52
-2.23
-16.67
-30.84
-43.71
-54.45
-62.55
-67.87
-70.54
-70.83
-69.11
-65.72
-61.16
-56.07
-51.32
-47.86
-46.47
-47.67
-51.55
-57.75
-65.56
-73.79
-80.86
-85.04
-84.71
-78.94
-67.78
-52.33
-34.51
-16.51
-0.27
12.96
22.69
29.08
32.72
34.34
34.56
33.84
32.30
29.75
25.90
20.47
13.47
5.27
-3.35
-11.35
-17.65
-21.37
-22.07
-19.81
-15.17
-9.19
-3.09
2.13
5.98
8.82
11.78
16.42
24.10
35.45
49.95
65.97
81.19
93.29
100.65
102.71
100.01
93.62
84.70
73.98
61.68
47.66
31.71
13.86
-5.69
-26.72
-49.30
-73.75
-100.47
-129.48
-160.09
-191.07
-220.82
-247.76
-270.27
-286.30
-293.10
-287.73
-268.29
-235.42
-192.97
-146.92
-102.98
-63.99
-28.71
7.23
48.61
97.76
153.04
209.27
259.78
298.78
323.02
332.00
327.40
311.98
288.69
260.27
229.00
196.84
165.60
136.84
111.85
91.09
73.95
58.77
43.44
26.30
6.93
-13.54
-33.00
-49.19
-60.78
-67.81
-71.65
-74.38
-77.84
-83.10
-90.04
-97.51
-103.70
-106.65
-104.74
-97.07
-83.71
-65.72
-44.82
-23.02
-2.20
16.18
31.10
41.83
48.02
49.58
46.84
40.68
32.37
23.50
15.52
9.52
5.93
4.68
5.39
7.70
11.38
16.11
21.29
25.86
28.61
28.58
25.67
20.71
15.24
10.85
8.56
8.55
10.39
13.44
17.24
21.43
25.45
28.35
28.91
26.09
19.78
11.02
1.65
-6.40
-12.07
-15.53
-17.83
-20.21
-23.23
-26.49
-29.06
-30.19
-30.02
-29.61
-30.39
-33.31
-38.29
-44.28
-49.87
-54.08
-56.93
-59.19
-61.86
-65.45
-69.46
-72.60
-73.34
-70.46
-63.55
-53.00
-39.69
-24.72
-9.19
5.97
20.01
32.47
43.21
52.23
59.58
65.15
68.70
69.91
68.56
64.66
58.56
50.98
42.76
34.79
27.90
22.53
18.70
15.97
13.63
10.97
7.64
3.72
-0.54
-4.86
-9.23
-13.90
-19.25
-25.47
-32.42
-39.61
-46.43
-52.38
-57.34
-61.49
-65.23
-68.84
-72.50
-76.17
-79.77
-83.01
-85.41
-86.19
-84.38
-79.10
-69.88
-57.11
-41.91
-25.86
-10.41
3.62
16.10
27.39
37.92
47.80
56.70
64.08
69.44
72.64
73.96
73.92
73.03
71.67
69.94
67.81
65.35
62.79
60.46
58.66
57.39
56.37
55.13
53.34
50.91
48.11
45.31
42.77
40.40
37.74
34.24
29.52
23.59
16.85
9.97
3.57
-2.01
-6.80
-11.19
-15.71
-20.80
-26.66
-32.99
-39.09
-43.81
-45.89
-44.19
-38.07
-27.63
-13.74
2.05
18.07
32.79
45.26
55.16
62.74
68.47
72.93
76.49
79.38
81.68
83.39
84.46
84.87
84.77
84.49
84.49
85.24
86.85
88.96
90.80
91.51
90.57
87.96
84.10
79.56
74.77
69.94
65.23
60.83
56.82
52.76
47.31
38.70
25.59
8.14
-11.47
-29.62
-42.79
-49.13
-49.21
-45.58
-41.23
-38.22
-36.73
-35.44
-32.41
-26.06
-15.62
-1.00
17.26
38.20
60.21
81.16
98.98
112.60
122.87
132.42
144.55
161.11
180.84
199.08
209.22
205.19
183.58
144.81
93.00
35.11
-20.08
-63.05
-84.93
-79.65
-46.20
9.80
76.73
139.89
185.79
206.04
199.15
169.37
123.94
70.03
12.90
-44.26
-99.43
-151.05
-197.65
-238.34
-273.51
-305.06
-336.01
-369.80
-409.36
-456.26
-509.81
-566.27
-618.82
-658.74
-677.81
-671.18
-639.30
-587.85
-525.43
-460.23
-397.45
-338.59
-282.79
-228.95
-177.25
-129.07
-85.77
-47.27
-11.69
23.61
60.50
98.87
136.67
170.76
198.36
217.89
229.02
232.11
227.66
216.17
198.62
176.99
154.40
134.53
120.44
113.52
113.12
116.98
122.22
126.31
127.65
125.72
120.79
113.58
105.13
96.69
89.59
85.04
83.71
85.51
89.53
94.33
98.48
100.99
101.53
100.29
97.73
94.38
90.64
86.78
82.96
79.22
75.41
71.38
67.04
62.49
58.09
54.31
51.46
49.65
48.63
47.86
46.69
44.48
40.86
35.85
29.79
23.26
16.80
10.77
5.22
0.14
-4.51
-8.58
-11.95
-14.62
-16.88
-19.21
-21.94
-25.03
-28.03
-30.36
-31.68
-32.20
-32.59
-33.63
-35.79
-38.88
-42.07
-44.12
-43.87
-40.51
-33.90
-24.57
-13.50
-1.84
9.38
19.40
27.76
34.24
38.75
41.30
42.07
41.40
39.75
37.63
35.45
33.56
32.21
31.68
32.17
33.70
35.99
38.42
40.24
40.90
40.29
38.79
37.05
35.65
34.73
34.04
32.98
31.10
28.28
24.74
20.88
17.04
13.28
9.50
5.53
1.31
-3.03
-7.31
-11.37
-15.14
-18.58
-21.69
-24.51
-27.12
-29.72
-32.58
-35.93
-39.89
-44.35
-48.91
-53.09
-56.37
-58.32
-58.71
-57.51
-54.99
-51.63
-47.95
-44.31
-40.82
-37.25
-33.27
-28.64
-23.35
-17.68
-12.09
-7.07
-2.99
0.01
2.07
3.60
5.16
7.39
10.68
15.04
19.92
24.43
27.57
28.74
27.80
25.16
21.47
17.35
13.11
8.86
4.57
0.40
-3.20
-5.76
-6.99
-7.01
-6.40
-5.92
-6.21
-7.49
-9.63
-12.28
-15.15
-18.08
-21.00
-23.67
-25.58
-26.12
-24.89
-22.10
-18.64
-15.81
-14.70
-15.57
-17.65
-19.30
-18.82
-15.23
-8.73
-0.52
7.66
14.45
19.35
22.69
25.29
27.75
30.08
31.68
31.91
30.47
27.74
24.65
22.18
20.98
21.03
21.89
22.92
23.76
24.38
24.93
25.55
26.09
26.22
25.60
24.16
22.08
19.81
17.74
16.11
14.96
14.03
13.06
11.88
10.38
8.67
6.84
4.98
3.05
1.02
-1.23
-3.63
-6.03
-8.30
-10.30
-12.18
-14.25
-16.95
-20.56
-25.00
-29.75
-33.96
-36.65
-37.07
-34.92
-30.47
-24.44
-17.69
-11.07
-5.19
-0.42
3.04
5.14
5.95
5.65
4.61
3.36
2.50
2.51
3.59
5.55
7.96
10.25
11.97
13.01
13.48
13.61
13.58
13.37
12.73
11.37
9.11
6.00
2.25
-1.83
-6.01
-10.12
-14.22
-18.46
-23.00
-27.92
-33.07
-38.16
-42.78
-46.59
-49.44
-51.52
-53.25
-55.10
-57.34
-59.76
-61.66
-62.11
-60.29
-55.81
-48.93
-40.31
-30.79
-21.18
-12.00
-3.61
3.71
9.69
14.08
16.89
18.38
19.10
19.68
20.60
22.14
24.25
26.78
29.44
31.97
34.11
35.63
36.44
36.53
36.00
35.01
33.70
32.05
29.96
27.30
24.05
20.33
16.44
12.58
8.78
4.89
0.58
-4.30
-9.65
-15.04
-19.88
-23.70
-26.39
-28.21
-29.79
-31.74
-34.61
-38.60
-43.63
-49.28
-54.77
-59.04
-60.87
-59.23
-53.57
-44.06
-31.59
-17.61
-3.71
8.76
18.99
26.73
32.23
35.97
38.41
39.89
40.55
40.42
39.60
38.27
36.76
35.38
34.29
33.50
32.85
32.23
31.66
31.29
31.24
31.45
31.63
31.33
30.17
28.03
25.10
21.82
18.65
15.79
13.24
10.75
8.05
4.88
1.20
-2.90
-7.21
-11.51
-15.72
-19.85
-23.98
-28.17
-32.39
-36.48
-40.24
-43.54
-46.50
-49.40
-52.67
-56.69
-61.57
-66.90
-71.70
-74.59
-74.07
-69.09
-59.41
-45.84
-30.09
-14.20
0.03
11.50
20.01
25.98
30.10
32.92
34.70
35.48
35.27
34.11
32.18
29.70
26.82
23.74
20.75
18.38
17.31
18.25
21.52
26.82
33.21
39.29
43.74
45.74
45.25
42.90
39.70
36.54
33.93
31.97
30.48
29.19
27.89
26.47
24.87
23.05
20.95
18.51
15.67
12.36
8.51
4.01
-1.21
-7.10
-13.43
-19.88
-26.05
-31.61
-36.43
-40.61
-44.32
-47.88
-51.44
-54.77
-57.34
-58.25
-56.54
-51.55
-43.17
-31.95
-18.98
-5.65
6.79
17.39
25.71
31.66
35.48
37.56
38.33
38.30
37.81
37.24
36.88
36.98
37.58
38.55
39.50
39.87
39.18
37.18
33.99
29.98
25.68
21.43
17.36
13.40
9.46
5.59
1.92
-1.28
-4.03
-6.56
-9.36
-12.97
-17.74
-23.68
-30.30
-36.97
-42.91
-47.66
-51.14
-53.67
-55.78
-58.13
-61.23
-65.26
-70.03
-74.80
-78.41
-79.37
-76.34
-68.51
-55.96
-39.72
-21.38
-2.69
14.98
30.70
43.89
54.09
60.86
63.83
63.04
59.13
53.24
46.75
40.86
36.35
33.52
32.28
32.34
33.25
34.60
35.88
36.70
36.83
36.27
35.19
33.77
32.13
30.23
27.99
25.29
22.11
18.60
14.95
11.38
8.07
5.10
2.54
0.38
-1.46
-3.09
-4.70
-6.57
-9.02
-12.35
-16.77
-22.27
-28.43
-34.36
-38.90
-40.74
-39.06
-33.70
-25.35
-15.25
-4.89
4.50
12.08
17.52
20.81
22.17
22.03
20.96
19.51
18.18
17.20
16.53
15.98
15.35
14.51
13.43
12.00
10.09
7.56
4.50
1.19
-1.93
-4.44
-6.31
-7.82
-9.44
-11.53
-14.01
-16.45
-18.33
-19.31
-19.42
-19.08
-18.75
-18.73
-19.04
-19.49
-19.89
-20.16
-20.39
-20.83
-21.67
-23.02
-24.88
-27.06
-29.28
-31.02
-31.72
-30.78
-27.81
-22.76
-15.92
-7.83
0.84
9.50
17.69
25.13
31.66
37.28
42.14
46.48
50.45
54.08
57.18
59.43
60.54
60.41
59.22
57.31
55.02
52.49
49.69
46.45
42.69
38.45
33.96
29.48
25.22
21.26
17.55
13.97
10.42
6.86
3.33
-0.09
-3.33
-6.39
-9.26
-12.05
-14.87
-17.86
-21.13
-24.78
-28.84
-33.21
-37.69
-42.02
-46.00
-49.51
-52.65
-55.66
-58.92
-62.69
-67.03
-71.63
-75.81
-78.62
-79.06
-76.35
-70.29
-61.23
-50.09
-38.04
-26.23
-15.55
-6.46
0.93
6.77
11.25
14.62
17.10
18.87
20.11
21.03
21.79
22.48
23.07
23.43
23.45
23.05
22.30
21.40
20.61
20.17
20.16
20.43
20.68
20.63
20.06
18.95
17.48
15.89
14.35
12.92
11.56
10.07
8.28
6.09
3.54
0.80
-1.89
-4.42
-6.78
-9.18
-11.94
-15.26
-19.17
-23.45
-27.65
-31.39
-34.43
-36.81
-38.77
-40.67
-42.80
-45.36
-48.25
-51.07
-53.15
-53.59
-51.52
-46.44
-38.43
-28.21
-16.95
-5.98
3.70
11.58
17.71
22.46
26.24
29.28
31.61
33.13
33.88
34.09
34.11
34.31
34.83
35.61
36.41
37.05
37.51
37.92
38.41
38.98
39.46
39.54
38.90
37.46
35.35
32.81
30.16
27.54
24.97
22.26
19.24
15.73
11.74
7.37
2.85
-1.63
-5.91
-9.98
-13.95
-18.05
-22.44
-27.08
-31.72
-35.95
-39.43
-42.03
-43.86
-45.27
-46.68
-48.45
-50.76
-53.57
-56.52
-58.93
-59.88
-58.39
-53.79
-46.06
-35.87
-24.46
-13.23
-3.35
4.52
10.32
14.27
16.82
18.35
19.13
19.39
19.34
19.15
19.05
19.15
19.47
19.93
20.30
20.39
20.08
19.48
18.85
18.44
18.29
18.17
17.65
16.29
13.95
10.84
7.47
4.38
1.85
-0.22
-2.20
-4.45
-7.15
-10.25
-13.46
-16.54
-19.30
-21.71
-23.84
-25.81
-27.75
-29.91
-32.52
-35.84
-39.85
-44.08
-47.50
-48.86
-47.03
-41.54
-32.87
-22.26
-11.32
-1.50
6.34
12.06
15.99
18.67
20.60
22.02
23.01
23.65
24.03
24.30
24.66
25.23
26.02
26.90
27.61
27.97
27.85
27.33
26.61
25.97
25.66
25.78
26.24
26.71
26.83
26.26
24.90
22.91
20.68
18.58
16.84
15.38
13.74
11.36
7.74
2.80
-3.04
-8.96
-14.16
-18.08
-20.68
-22.45
-24.12
-26.44
-29.91
-34.62
-40.24
-46.12
-51.13
-54.06
-53.78
-49.59
-41.62
-30.79
-18.66
-6.85
3.38
11.43
17.36
21.61
24.73
27.12
28.92
30.10
30.60
30.49
30.02
29.54
29.36
29.69
30.49
31.51
32.48
33.20
33.64
33.83
33.80
33.47
32.73
31.33
29.17
26.30
22.94
19.29
15.58
11.93
8.45
5.21
2.34
-0.08
-2.00
-3.57
-5.13
-7.07
-9.72
-13.22
-17.45
-22.09
-26.68
-30.91
-34.61
-37.86
-40.83
-43.79
-47.06
-50.79
-54.83
-58.59
-61.00
-60.88
-57.22
-49.70
-38.88
-26.15
-13.17
-1.47
8.06
15.22
20.30
23.81
26.21
27.75
28.59
28.94
29.01
29.02
29.19
29.63
30.28
30.99
31.62
32.07
32.37
32.66
33.01
33.48
33.93
34.04
33.51
32.11
29.86
27.00
23.99
21.23
19.04
17.38
15.98
14.40
12.28
9.47
6.12
2.60
-0.72
-3.57
-5.96
-8.16
-10.52
-13.32
-16.64
-20.32
-24.06
-27.55
-30.55
-33.03
-35.13
-37.10
-39.20
-41.70
-44.69
-48.14
-51.69
-54.58
-55.80
-54.25
-49.21
-40.65
-29.46
-17.08
-5.21
4.82
12.41
17.71
21.36
24.07
26.35
28.27
29.78
30.75
31.16
31.19
31.16
31.27
31.60
32.01
32.29
32.35
32.23
32.03
31.84
31.55
30.91
29.64
27.59
24.81
21.58
18.18
14.79
11.47
8.14
4.73
1.33
-1.92
-4.87
-7.48
-9.82
-12.07
-14.31
-16.64
-19.08
-21.51
-23.80
-25.77
-27.21
-27.97
-28.06
-27.79
-27.79
-28.84
-31.64
-36.46
-42.85
-49.51
-54.64
-56.33
-53.21
-44.94
-32.37
-17.25
-1.73
12.37
24.03
33.10
40.11
45.91
51.19
56.32
61.27
65.73
69.35
72.06
74.04
75.88
78.29
81.77
86.37
91.58
96.46
100.06
101.71
101.36
99.45
96.81
94.21
92.31
91.34
90.90
89.70
85.41
74.87
54.96
23.93
-17.31
-64.83
-112.46
-153.78
-184.15
-202.14
-209.38
-209.15
-204.68
-197.91
-189.27
-178.41
-165.14
-149.89
-133.67
-117.55
-102.27
-88.33
-76.18
-66.55
-60.09
-57.06
-56.63
-56.89
-55.26
-49.39
-38.18
-22.46
-4.75
11.38
22.49
26.23
21.98
10.81
-4.76
-21.41
-35.76
-45.17
-48.37
-45.82
-39.43
-31.82
-25.34
-21.27
-19.50
-18.95
-18.29
-16.67
-14.15
-11.38
-9.03
-7.27
-5.65
-3.38
0.18
4.94
10.15
14.57
17.10
17.30
15.62
13.19
11.35
11.06
12.55
15.46
19.08
22.86
26.69
30.80
35.65
41.58
48.74
56.99
66.00
75.20
83.95
91.44
96.84
99.46
98.99
95.70
90.42
84.48
79.27
75.92
74.95
76.21
79.05
82.46
85.52
87.46
87.89
86.62
83.67
79.20
73.45
66.78
59.53
51.98
44.38
36.96
30.01
23.87
18.86
15.11
12.64
11.21
10.52
10.31
10.44
10.90
11.76
12.99
14.44
15.93
17.27
18.46
19.62
20.91
22.46
24.22
25.96
27.33
28.09
