1552401973.00
64.000000
-0.00
-0.00
-0.00
-0.00
-0.00
-0.00
-0.00
-0.00
-0.00
-0.01
-0.00
0.00
0.01
0.01
-0.00
-0.03
-0.05
-0.05
-0.00
0.13
0.36
0.66
1.01
1.37
1.72
2.06
2.40
2.77
3.24
3.80
4.42
5.06
5.66
6.20
6.68
7.15
7.64
8.31
9.14
10.09
11.04
11.88
12.56
13.14
13.76
14.58
15.96
17.91
20.32
22.90
25.38
27.58
29.57
31.68
34.20
37.81
42.54
48.15
54.10
59.83
64.97
69.58
74.14
79.19
85.71
93.76
103.00
112.62
121.73
129.77
136.75
144.29
150.58
157.77
166.64
177.95
191.79
206.97
220.57
228.25
225.36
208.37
176.87
132.76
80.05
23.07
-34.94
-92.44
-149.16
-205.23
-260.49
-313.74
-363.87
-409.83
-450.91
-486.50
-515.74
-537.23
-549.22
-550.04
-538.37
-514.20
-478.67
-433.88
-382.45
-327.02
-269.84
-212.63
-156.70
-102.95
-52.37
-5.90
35.58
71.42
101.35
125.50
144.38
158.68
169.16
176.39
180.78
182.62
182.14
179.60
175.36
169.81
163.37
156.38
149.07
141.60
134.03
126.39
118.74
111.13
103.65
96.35
89.29
82.51
76.02
69.84
63.95
58.37
53.12
48.18
43.57
39.28
35.30
31.62
28.24
25.14
22.34
19.82
17.58
15.63
13.95
12.54
11.39
10.49
9.82
9.35
9.08
8.98
9.05
9.26
9.61
10.08
10.66
11.33
12.07
12.89
13.77
14.71
15.74
16.84
18.01
19.23
20.45
21.60
22.57
23.23
23.43
23.01
21.82
19.76
16.82
13.07
8.68
3.88
-1.04
-5.67
-9.68
-12.83
-15.05
-16.45
-17.31
-18.04
-19.17
-21.26
-24.70
-29.72
-36.37
-44.46
-53.57
-63.09
-72.21
-80.10
-86.00
-89.14
-88.95
-85.19
-77.94
-67.61
-54.81
-40.36
-24.54
-8.74
6.04
19.08
29.94
38.36
44.32
47.98
49.61
49.59
48.23
46.00
43.25
40.25
37.10
33.95
30.92
28.27
26.27
25.14
25.11
26.19
28.20
30.65
33.13
35.34
37.23
39.05
41.09
43.64
46.68
49.90
52.53
53.92
53.74
52.03
49.25
45.97
42.59
38.91
34.22
27.26
17.12
3.55
-12.79
-30.36
-47.45
-62.70
-75.53
-85.52
-93.94
-101.82
-110.05
-119.29
-129.84
-141.16
-151.35
-157.41
-155.07
-141.55
-116.95
-85.08
-52.33
-25.26
-8.07
-1.26
-2.19
-6.96
-12.75
-18.44
-24.42
-31.22
-38.53
-45.18
-49.75
-51.48
-50.53
-47.95
-44.74
-41.28
-37.06
-30.78
-21.19
-7.72
9.19
28.14
47.13
64.26
78.31
88.16
94.52
98.43
100.76
101.92
101.82
100.06
96.30
90.63
84.10
77.42
71.45
66.77
63.41
60.92
58.53
55.58
51.84
47.59
43.50
40.32
38.42
37.66
37.54
37.27
36.37
34.83
33.19
31.91
31.39
31.56
32.08
32.99
34.68
37.69
41.56
44.19
42.41
33.77
18.63
0.77
-13.34
-18.57
-12.79
1.94
20.89
39.52
55.45
68.24
76.82
79.79
73.73
56.07
27.67
-6.15
-37.24
-58.44
-66.83
-64.41
-55.98
-46.94
-40.15
-35.79
-32.42
-28.52
-23.79
-19.08
-15.59
-13.96
-14.29
-15.86
-17.75
-19.66
-21.59
-24.19
-28.29
-34.45
-42.57
-52.00
-61.37
-68.91
-74.04
-76.51
-76.78
-75.69
-74.10
-72.36
-70.84
-68.16
-63.19
-55.24
-44.17
-30.79
-16.64
-3.54
7.40
15.11
19.88
22.64
24.34
25.81
27.07
27.45
25.66
20.63
11.26
-3.02
-21.88
-43.16
-62.54
-74.39
-73.18
-57.50
-30.18
1.97
31.12
51.54
61.86
65.13
66.43
70.33
78.85
91.87
107.85
124.45
138.89
147.61
146.96
134.62
111.15
80.34
48.09
20.04
-0.68
-13.91
-21.97
-27.62
-32.69
-37.73
-42.71
-47.78
-52.59
-58.21
-64.54
-70.66
-75.05
-76.40
-74.14
-68.86
-61.88
-54.50
-48.39
-42.73
-36.63
-29.10
-19.64
-8.48
3.22
13.69
21.59
26.14
27.72
27.18
25.65
23.95
22.40
20.72
18.11
14.44
10.03
5.85
2.72
1.08
0.61
0.17
-1.81
-7.02
-15.76
-27.23
-39.77
-51.87
-62.48
-71.56
-79.93
-86.25
-92.72
-100.82
-111.46
-124.79
-139.67
-152.92
-159.63
-154.91
-136.32
-105.95
-69.67
-35.50
-10.45
2.19
3.76
-1.32
-8.32
-14.44
-19.43
-23.90
-28.14
-31.35
-32.05
-28.55
-20.16
-7.13
9.16
26.71
44.14
60.65
75.97
89.96
101.78
111.79
120.17
126.35
129.45
128.61
123.19
114.36
101.90
87.26
72.96
61.81
55.45
54.07
56.29
59.60
61.70
61.19
58.77
55.23
53.96
57.02
64.86
76.43
89.48
100.82
106.37
101.79
83.52
51.09
8.26
-36.47
-72.30
-90.20
-86.81
-66.20
-37.18
-9.88
8.95
17.56
19.11
18.94
21.31
25.77
28.46
23.39
5.37
-25.05
-60.65
-90.15
-103.39
-95.41
-68.83
-31.99
5.29
35.54
55.44
64.01
60.17
41.53
6.91
-40.94
-93.55
-138.29
-162.81
-160.39
-133.03
-89.31
-44.85
-12.46
2.56
2.46
-5.94
-15.17
-20.32
-20.24
-16.58
-11.81
-6.75
-0.37
8.83
21.77
38.46
58.29
80.45
104.30
128.53
149.14
162.11
162.78
148.16
119.28
81.68
43.72
13.20
-5.82
-13.66
-13.86
-10.81
-7.47
-4.57
-1.73
1.32
3.85
4.18
0.90
-6.49
-17.09
-29.32
-41.40
-52.52
-62.54
-71.99
-81.65
-90.97
-100.39
-110.21
-120.83
-132.38
-144.20
-153.52
-155.78
-146.20
-122.10
-84.54
-38.10
9.83
53.12
86.22
105.58
109.80
99.74
78.70
51.89
25.85
7.12
-0.81
1.52
10.61
21.89
31.80
38.85
42.91
44.71
44.81
43.50
41.07
38.30
36.17
35.28
35.70
36.58
36.73
35.02
30.70
23.78
14.82
4.77
-5.48
-15.32
-24.56
-33.16
-41.08
-48.03
-53.38
-56.22
-55.73
-51.41
-43.32
-32.12
-18.81
-4.17
10.19
23.39
35.00
44.98
53.47
60.56
66.37
70.89
74.02
75.60
75.69
74.29
71.49
67.32
61.69
54.56
45.92
35.84
24.51
12.36
-0.06
-12.08
-22.56
-31.40
-38.50
-43.99
-48.19
-51.38
-53.75
-55.29
-55.82
-55.20
-53.55
-51.25
-48.95
-47.73
-47.82
-49.14
-51.16
-52.97
-53.66
-52.86
-50.76
-48.27
-46.54
-46.32
-47.66
-49.85
-51.65
-52.07
-50.66
-47.84
-44.67
-42.25
-41.78
-43.44
-47.42
-53.35
-59.76
-63.72
-61.17
-48.51
-24.47
8.48
44.37
75.67
96.38
104.16
100.65
90.32
77.64
65.27
53.77
42.63
31.66
21.67
14.00
9.49
7.85
7.66
7.04
4.70
0.37
-5.17
-10.67
-14.87
-17.25
-18.06
-18.30
-19.12
-21.26
-24.86
-29.36
-33.84
-37.40
-39.43
-39.83
-38.74
-36.35
-32.59
-27.10
-19.31
-8.79
4.81
21.16
39.35
57.95
75.36
90.03
100.61
106.17
106.28
100.92
90.48
75.65
57.41
36.62
14.91
-6.41
-26.31
-44.07
-59.32
-72.01
-82.35
-90.71
-97.46
-103.03
-107.82
-112.19
-116.20
-120.01
-123.25
-125.51
-126.29
-125.00
-121.06
-114.12
-104.09
-90.80
-74.44
-55.50
-34.71
-12.98
8.82
29.69
48.69
65.09
78.46
88.60
95.48
99.37
100.71
100.17
98.21
95.20
91.47
87.29
82.86
78.23
73.56
68.97
64.85
61.23
58.02
55.23
52.83
50.81
49.09
47.67
44.65
40.77
36.46
31.88
27.09
22.05
18.30
15.19
12.21
9.12
6.09
3.06
0.01
-2.99
-5.80
-8.23
-9.98
-10.84
-10.68
-9.19
-6.37
-2.33
2.82
8.94
13.41
16.60
18.90
20.58
21.86
22.71
23.02
22.77
21.94
20.60
19.07
17.31
15.40
13.47
11.55
9.68
7.87
6.12
4.40
2.94
1.52
0.13
-1.30
-2.87
-4.70
-6.93
-9.64
-12.90
-15.69
-18.72
-22.13
-25.86
-29.72
-33.50
-36.96
-39.93
-42.25
-43.73
-44.49
-44.52
-43.93
-42.82
-41.42
-40.02
-38.96
-38.50
-38.77
-39.96
-41.93
-44.59
-47.57
-50.66
-53.77
-56.90
-60.07
-63.29
-66.55
-69.77
-72.99
-75.90
-78.55
-81.24
-84.33
-88.12
-92.63
-97.67
-102.81
-107.69
-111.57
-114.24
-115.86
-116.72
-116.87
-115.77
-112.08
-103.57
-91.90
-77.10
-59.51
-39.84
-18.97
2.39
23.99
46.08
69.12
93.56
120.30
149.80
182.20
216.96
252.58
286.23
314.05
332.12
337.71
330.86
313.73
289.79
262.24
233.00
202.58
171.03
139.03
108.39
81.90
61.83
48.97
42.32
39.54
37.97
35.56
31.37
25.55
19.03
12.69
6.73
0.52
-7.15
-17.35
-30.25
-44.76
-58.94
-70.82
-79.42
-85.17
-89.32
-92.88
-95.75
-96.65
-93.88
-86.45
-74.84
-61.13
-48.19
-38.47
-33.11
-31.65
-32.57
-34.30
-35.98
-37.79
-40.36
-43.81
-47.12
-48.17
-44.75
-35.94
-22.91
-8.64
3.38
10.76
13.33
12.88
11.91
12.28
14.32
17.05
18.96
18.99
16.90
13.17
8.64
4.08
0.07
-3.08
-5.30
-6.72
-7.52
-7.71
-6.90
-4.50
-0.15
5.74
11.76
15.78
16.10
12.59
7.27
3.74
5.55
14.55
29.84
48.07
64.66
75.66
79.14
75.78
68.19
59.75
53.38
50.87
52.71
58.16
65.21
70.60
70.37
61.22
42.43
17.78
-4.47
-14.31
-4.90
23.13
60.84
94.07
109.24
97.96
60.30
4.36
-57.28
-112.18
-151.38
-170.54
-169.33
-150.44
-119.76
-84.30
-50.03
-20.63
2.00
17.09
24.35
24.32
18.51
7.44
-8.87
-30.67
-58.01
-90.56
-127.00
-164.40
-198.87
-217.69
-212.57
-185.96
-150.28
-117.98
-93.71
-74.97
-57.32
-38.55
-19.59
-4.31
4.49
7.30
7.68
9.49
14.35
21.38
28.47
33.88
35.79
33.94
29.63
25.35
23.33
24.24
27.24
30.78
33.61
34.50
33.11
30.12
27.02
25.18
25.07
26.29
27.96
29.48
30.26
30.27
29.88
29.82
30.71
32.73
35.57
38.53
41.11
42.51
42.65
41.38
38.76
34.99
30.28
24.88
18.90
12.76
6.86
1.56
-2.96
-6.64
-9.53
-11.83
-12.84
-13.54
-14.30
-15.30
-16.53
-17.90
-19.22
-20.22
-20.75
-20.72
-20.34
-19.63
-18.79
-17.96
-17.26
-16.64
-15.94
-15.08
-14.00
-12.91
-11.94
-11.38
-11.40
-11.98
-12.85
-13.56
-13.72
-13.20
-12.29
-11.51
-11.48
-12.65
-14.98
-18.20
-21.22
-23.22
-23.90
-23.67
-23.49
-24.45
-27.32
-32.07
-37.85
-43.27
-47.30
-49.44
-50.14
-50.46
-51.56
-54.38
-59.55
-67.37
-77.51
-88.52
-97.37
-99.93
-92.46
-73.52
-45.41
-13.79
14.41
33.77
42.37
41.96
36.37
29.18
22.26
15.58
8.38
0.61
-6.69
-11.89
-13.80
-12.36
-8.51
-3.41
1.95
7.57
14.38
23.47
35.39
49.60
64.44
77.10
85.89
90.64
91.41
89.53
86.79
84.58
83.35
82.56
81.22
78.56
74.41
69.56
65.45
63.33
63.69
65.88
68.31
69.21
67.30
62.22
54.88
46.87
40.16
36.75
38.37
45.76
57.85
71.07
78.55
74.88
57.12
27.11
-8.63
-41.22
-63.48
-72.90
-71.97
-66.07
-60.13
-56.50
-54.73
-53.82
-53.12
-53.57
-55.77
-58.36
-58.15
-51.99
-39.70
-24.56
-12.08
-6.56
-8.81
-16.02
-23.83
-29.28
-32.20
-34.58
-37.59
-41.21
-43.00
-40.16
-31.98
-20.51
-9.32
-1.18
3.26
5.32
6.94
9.67
13.65
18.05
21.76
23.86
24.37
23.81
23.13
23.17
24.40
26.74
29.61
32.40
34.71
36.49
37.93
39.41
41.13
43.00
44.64
45.31
44.47
41.82
37.24
30.88
22.93
13.60
3.05
-8.01
-19.35
-30.31
-40.01
-47.78
-53.13
-56.21
-57.59
-58.14
-58.40
-58.59
-58.95
-58.13
-55.28
-50.03
-42.81
-34.77
-27.48
-22.10
-19.21
-18.56
-19.25
-20.60
-22.24
-24.40
-27.10
-31.48
-38.01
-46.88
-58.11
-71.18
-84.64
-95.35
-98.93
-91.33
-71.08
-40.66
-6.14
24.85
46.30
56.02
56.08
51.06
45.49
41.60
39.31
37.20
33.98
29.50
24.65
20.66
18.33
17.71
18.10
18.40
17.70
15.57
12.30
8.69
5.95
5.26
7.40
12.76
21.62
34.44
51.45
71.76
92.46
108.85
115.37
109.20
91.51
67.54
44.57
28.61
21.97
22.87
27.11
30.81
32.17
31.57
30.29
28.91
26.65
21.90
13.43
1.41
-12.57
-26.00
-36.25
-41.95
-43.23
-41.71
-39.55
-38.67
-39.93
-42.80
-45.94
-47.69
-47.33
-45.30
-43.24
-43.22
-46.89
-54.92
-66.27
-80.75
-97.44
-114.52
-128.82
-136.12
-132.40
-115.83
-88.36
-55.60
-24.98
-2.56
9.03
11.14
7.47
1.78
-3.86
-9.41
-15.66
-23.03
-30.65
-37.15
-41.40
-43.37
-44.12
-44.76
-46.15
-47.99
-49.03
-47.34
-41.40
-30.60
-15.52
2.29
20.90
38.57
53.69
66.03
75.92
83.73
89.68
93.70
95.51
94.91
92.34
87.93
82.39
76.56
71.05
66.24
62.14
58.51
55.08
51.59
47.89
44.19
40.69
37.50
34.71
32.33
30.28
28.43
26.74
25.11
23.63
22.35
21.25
20.38
19.76
19.35
19.06
18.81
18.46
17.88
17.33
16.37
14.87
12.84
10.24
7.12
3.65
0.01
-3.56
-6.74
-9.44
-11.52
-12.88
-13.69
-14.16
-14.59
-15.30
-16.71
-19.03
-22.57
-27.96
-34.46
-41.57
-48.66
-55.05
-59.78
-62.67
-63.29
-61.69
-57.84
-51.75
-43.73
-34.07
-23.16
-11.51
-0.47
9.68
18.22
24.84
29.57
32.68
34.73
36.39
38.02
39.54
41.45
42.22
41.06
37.85
33.21
28.31
24.44
22.42
22.15
22.91
23.02
21.34
17.67
13.02
9.31
8.45
11.38
17.47
24.95
30.94
33.51
32.23
28.52
24.82
23.43
25.54
29.75
36.05
43.19
48.88
49.34
40.04
17.77
-16.73
-57.16
-92.77
-112.32
-109.75
-86.96
-53.22
-20.72
1.13
9.29
6.24
-2.56
-11.96
-19.71
-26.00
-31.77
-37.12
-40.85
-41.40
-37.87
-30.93
-22.52
-15.31
-11.41
-11.31
-13.91
-17.02
-18.71
-18.10
-15.66
-12.85
-11.34
-12.08
-14.89
-18.72
-22.23
-24.73
-26.27
-27.41
-28.79
-30.68
-32.73
-34.16
-34.28
-32.78
-30.56
-29.58
-32.16
-40.32
-54.67
-73.92
-94.85
-113.39
-125.66
-129.88
-126.31
-117.12
-105.33
-93.85
-84.46
-77.41
-72.16
-64.41
-50.48
-27.34
5.76
46.64
90.78
133.25
170.57
201.57
226.89
246.57
259.23
262.30
253.67
233.62
205.54
174.68
145.86
122.02
103.08
86.90
70.58
51.54
28.22
1.00
-27.94
-55.12
-76.23
-88.50
-91.95
-89.42
-84.98
-82.02
-80.87
-79.39
-74.66
-64.08
-47.58
-27.59
-7.69
9.36
22.29
32.25
40.86
48.86
56.82
64.51
71.25
76.84
82.11
88.12
96.83
109.24
117.95
117.04
104.72
83.87
59.22
38.48
19.88
0.95
-19.93
-43.11
-67.58
-90.32
-108.50
-120.56
-126.54
-128.46
-128.07
-127.22
-127.36
-128.23
-128.48
-126.77
-122.39
-115.44
-107.27
-98.82
-91.29
-85.92
-83.28
-83.16
-84.57
-85.45
-82.99
-74.84
-59.54
-37.83
-12.60
12.22
32.78
46.09
50.69
46.88
36.67
23.88
13.14
8.70
12.93
25.32
42.40
58.89
69.63
71.18
62.78
45.94
23.73
-0.11
-22.00
-39.01
-49.37
-52.52
-49.01
-40.15
-27.90
-14.59
-2.78
5.33
8.41
6.53
1.13
-5.33
-10.23
-11.59
-8.43
-0.84
10.29
23.63
37.71
51.39
64.07
75.59
85.97
94.86
101.22
103.55
100.66
92.47
80.66
68.18
58.10
52.32
50.86
51.93
52.94
51.62
46.96
39.40
30.31
21.32
13.80
8.70
6.57
7.57
11.18
16.01
20.04
21.37
19.30
15.04
11.23
10.71
14.89
22.92
32.20
39.82
44.21
45.78
46.32
47.68
50.54
54.23
57.32
58.74
58.33
56.72
54.66
52.30
49.07
43.83
35.30
22.41
4.45
-18.52
-45.31
-73.31
-98.78
-117.79
-127.54
-127.46
-119.37
-106.69
-92.97
-80.86
-71.84
-66.64
-65.74
-69.32
-76.59
-85.28
-91.85
-92.56
-85.11
-69.76
-49.30
-28.25
-11.26
-1.59
-0.17
-5.36
-13.47
-20.01
-21.18
-15.22
-3.24
11.33
24.42
33.22
37.38
38.67
39.52
41.49
44.67
47.90
50.30
52.15
55.20
61.68
72.91
88.47
106.37
123.72
136.73
141.56
135.02
115.83
85.62
48.65
10.40
-24.07
-51.12
-69.45
-79.45
-82.46
-80.43
-76.22
-74.33
-80.52
-99.84
-129.22
-160.19
-181.34
-185.11
-172.14
-149.28
-124.66
-103.81
-88.32
-76.10
-64.67
-52.87
-41.53
-32.32
-26.45
-24.09
-24.89
-28.50
-34.91
