1511275819.00
64.000000
-0.00
-0.00
-0.00
-0.00
-0.00
-0.00
-0.00
-0.00
-0.00
-0.00
0.00
0.01
0.01
-0.00
-0.03
-0.05
-0.05
0.00
0.13
0.36
0.66
1.01
1.37
1.72
2.06
2.40
2.79
3.24
3.80
4.42
5.06
5.66
6.20
6.68
7.15
7.68
8.31
9.14
10.09
11.04
11.88
12.56
13.14
13.76
14.65
15.96
17.91
20.32
22.90
25.38
27.58
29.57
31.68
34.32
37.81
42.54
48.15
54.10
59.83
64.97
69.58
74.14
79.34
85.71
93.76
103.00
112.62
121.73
129.77
136.75
143.30
150.75
157.77
166.64
177.95
191.79
206.97
220.57
228.25
225.36
208.53
176.87
132.76
80.05
23.07
-34.94
-92.44
-149.16
-205.23
-260.37
-313.74
-363.87
-409.83
-450.91
-486.50
-515.74
-537.23
-549.22
-549.96
-538.37
-514.21
-478.67
-433.88
-382.45
-327.02
-269.84
-212.63
-156.66
-102.95
-52.37
-5.90
35.58
71.43
101.35
125.50
144.38
158.69
169.15
176.37
180.75
182.57
182.07
179.51
175.23
169.65
163.18
156.15
148.81
141.30
133.69
126.02
118.33
110.69
103.16
95.80
88.68
81.83
75.25
68.95
62.95
57.25
51.86
46.78
42.03
37.59
33.45
29.61
26.07
22.81
19.83
17.11
14.67
12.48
10.54
8.83
7.35
6.07
4.97
4.05
3.27
2.62
2.09
1.65
1.30
1.01
0.79
0.61
0.48
0.37
0.30
0.24
0.21
0.19
0.18
0.19
0.20
0.22
0.25
0.29
0.33
0.37
0.41
0.46
0.50
0.55
0.60
0.65
0.71
0.77
0.84
0.90
0.98
1.07
1.16
1.27
1.39
1.52
1.67
1.84
2.03
2.23
2.46
2.72
3.00
3.31
3.65
4.03
4.44
4.88
5.36
5.88
6.43
7.03
7.67
8.35
9.08
9.85
10.67
11.53
12.44
13.39
14.40
15.47
16.61
17.80
19.05
20.34
21.62
22.82
23.87
24.65
25.02
24.88
24.12
22.63
20.41
17.45
13.85
9.70
5.22
0.59
-3.94
-8.17
-11.89
-14.97
-17.32
-18.90
-19.71
-19.81
-19.31
-18.31
-16.92
-15.30
-13.55
-11.77
-10.01
-8.30
-6.60
-4.92
-3.24
-1.56
0.14
1.83
3.50
5.15
6.84
8.67
10.58
12.61
14.75
16.98
19.26
21.56
23.86
26.26
28.95
31.85
34.96
38.29
41.77
45.27
48.64
51.83
54.93
58.32
61.91
65.81
70.00
74.33
78.47
82.01
84.74
86.73
88.42
89.77
90.89
91.70
91.74
90.09
85.55
76.74
61.96
44.27
24.88
4.81
-15.29
-35.15
-54.88
-74.94
-96.14
-119.44
-145.49
-174.62
-205.34
-234.24
-256.78
-268.71
-267.78
-254.63
-232.57
-206.20
-180.16
-157.23
-138.02
-121.79
-107.55
-94.82
-83.76
-74.86
-68.26
-63.99
-61.67
-60.96
-61.62
-63.24
-64.81
-64.41
-59.61
-48.37
-30.36
-7.21
17.73
40.61
58.45
70.09
76.15
78.31
78.25
76.99
74.96
72.36
69.55
66.99
64.95
63.21
60.97
57.21
51.35
43.58
34.96
26.88
20.41
15.74
12.10
7.97
1.74
-7.77
-20.80
-36.23
-51.61
-63.46
-68.24
-63.60
-49.41
-28.14
-4.14
17.91
34.70
45.29
50.95
54.03
56.52
59.13
61.30
61.91
60.35
57.04
53.22
50.26
48.82
48.50
47.95
45.62
40.56
32.87
23.70
14.65
7.08
1.48
-2.63
-6.39
-11.16
-17.96
-27.27
-38.99
-52.36
-65.82
-76.95
-82.78
-80.65
-69.26
-49.55
-24.76
0.62
22.40
38.21
47.94
53.22
56.11
57.89
58.74
58.15
55.76
52.05
48.27
45.77
45.19
46.01
46.74
45.59
41.43
34.35
25.64
17.20
10.60
6.35
3.71
1.05
-3.33
-10.59
-20.92
-33.60
-47.18
-59.59
-68.34
-70.93
-65.55
-51.92
-31.82
-8.81
12.83
29.53
39.59
43.38
42.67
39.56
35.51
31.20
26.80
22.42
18.40
15.11
12.63
10.66
8.59
5.94
2.47
-1.64
-6.02
-10.42
-14.86
-19.76
-25.87
-34.05
-44.96
-58.38
-72.79
-85.14
-91.55
-88.60
-74.88
-51.97
-24.17
2.95
24.57
38.30
44.54
45.68
44.59
43.26
42.29
41.19
39.18
35.83
31.34
26.34
21.53
17.34
13.81
10.57
7.11
2.95
-2.23
-8.59
-16.32
-25.76
-37.32
-50.94
-65.42
-78.08
-85.15
-83.11
-70.30
-48.01
-20.33
7.20
29.70
44.53
51.88
53.90
53.31
52.15
51.23
50.43
49.28
47.45
44.78
41.19
36.55
30.69
23.63
15.74
7.71
0.30
-6.04
-11.45
-16.65
-22.82
-31.28
-43.01
-57.99
-74.68
-89.85
-99.24
-98.91
-86.99
-64.71
-36.28
-7.40
16.95
34.21
44.68
50.58
54.44
57.67
60.29
61.45
60.54
57.77
54.09
50.53
47.49
44.47
40.36
34.17
25.72
15.90
6.31
-1.48
-6.82
-10.34
-13.79
-19.35
-28.75
-42.70
-60.35
-79.25
-95.63
-105.28
-104.69
-92.45
-69.94
-41.19
-11.57
14.17
33.41
46.23
54.64
61.01
66.72
71.56
74.37
74.08
70.67
65.38
60.05
56.10
53.73
51.77
48.30
41.76
31.80
19.60
7.29
-3.10
-10.56
-15.59
-19.87
-25.41
-33.76
-45.58
-60.47
-77.09
-93.11
-105.38
-110.46
-105.62
-90.06
-65.66
-36.66
-8.24
15.36
32.34
43.55
51.35
57.92
63.95
68.55
70.19
68.06
62.91
56.80
52.04
49.93
50.02
50.38
48.58
43.02
33.77
22.51
11.68
3.25
-2.30
-6.03
-10.04
-16.31
-25.95
-38.87
-54.08
-70.06
-84.94
-96.46
-102.11
-99.59
-87.74
-67.41
-41.63
-14.73
9.13
27.49
40.09
48.32
53.85
57.60
59.38
58.56
55.08
49.92
44.76
41.07
39.14
37.86
35.36
30.04
21.58
11.16
0.87
-7.38
-12.82
-16.20
-19.37
-24.53
-33.32
-46.32
-62.70
-80.20
-95.36
-104.20
-103.33
-91.25
-69.25
-41.18
-12.28
12.78
31.49
44.03
52.43
58.99
64.81
69.36
71.27
69.57
64.62
58.17
52.35
48.54
46.52
44.67
40.92
33.93
23.90
12.49
1.91
-6.25
-11.75
-15.76
-20.25
-27.04
-37.23
-50.92
-67.21
-84.24
-99.16
-108.46
-108.76
-98.03
-76.66
-47.83
-16.64
11.60
33.25
47.45
55.93
61.59
66.93
72.81
78.36
81.85
81.88
78.18
71.83
64.64
58.27
53.49
49.91
46.27
41.17
33.81
24.39
13.91
3.75
-5.13
-12.52
-19.03
-25.66
-33.29
-42.31
-52.58
-63.82
-75.78
-88.05
-99.50
-107.86
-109.83
-102.31
-83.94
-56.22
-23.52
8.42
34.65
52.78
63.36
68.95
72.40
75.45
78.26
80.08
80.11
78.24
75.03
71.27
67.47
63.60
59.32
54.32
48.69
42.88
37.40
32.41
27.50
21.87
14.77
6.03
-3.75
-13.32
-21.37
-27.06
-30.45
-32.49
-34.71
-38.75
-45.71
-55.61
-66.96
-76.81
-81.32
-77.07
-62.49
-38.85
-10.18
18.10
41.09
56.22
63.79
66.14
66.13
65.60
64.82
63.04
59.51
54.30
48.39
42.96
38.57
34.77
30.34
24.03
15.41
5.24
-4.96
-13.58
-19.83
-24.04
-27.55
-32.02
-38.75
-48.18
-59.64
-71.50
-81.38
-86.70
-85.35
-76.48
-60.92
-41.17
-20.65
-2.60
10.98
19.75
24.62
26.94
27.63
26.99
24.90
21.51
17.45
13.69
10.92
9.06
7.19
4.10
-0.97
-7.84
-15.28
-21.72
-25.99
-27.98
-28.69
-29.83
-33.03
-39.33
-48.68
-59.82
-70.30
-76.94
-76.60
-67.28
-49.17
-24.91
0.99
23.75
40.06
49.14
52.52
52.87
52.41
51.92
50.92
48.52
44.40
39.18
33.97
29.54
25.72
21.48
15.64
7.76
-1.44
-10.29
-16.96
-20.45
-21.14
-20.69
-21.28
-24.84
-32.29
-43.24
-55.95
-67.53
-74.54
-73.87
-63.88
-45.29
-21.33
3.18
23.54
36.90
43.22
44.74
44.51
44.67
45.56
46.00
44.48
40.44
34.74
29.11
25.09
23.02
21.88
19.82
15.30
7.96
-1.10
-9.84
-16.37
-19.79
-20.61
-20.47
-21.29
-24.50
-30.60
-39.20
-49.25
-59.10
-66.59
-69.17
-64.52
-51.50
-31.11
-6.60
17.41
36.55
48.42
53.26
53.39
51.71
50.17
49.07
47.40
44.01
38.55
31.81
25.25
20.19
17.03
15.16
13.26
10.05
4.89
-1.87
-9.12
-15.51
-20.06
-22.59
-23.75
-24.71
-26.67
-30.40
-36.11
-43.53
-52.03
-60.60
-67.65
-71.03
-68.48
-58.51
-41.43
-19.70
2.65
21.43
33.90
39.68
40.53
39.07
37.40
36.18
34.78
32.21
28.04
22.84
17.84
14.22
12.35
11.59
10.63
8.17
3.62
-2.60
-9.31
-15.09
-18.96
-20.78
-21.27
-21.60
-22.96
-26.04
-31.04
-37.80
-45.85
-54.37
-61.83
-65.96
-64.22
-54.80
-37.75
-15.41
8.04
28.13
41.83
48.58
50.11
49.20
48.16
47.72
47.21
45.42
41.64
36.29
30.66
26.10
23.29
21.84
20.56
18.05
13.48
7.00
-0.35
-7.15
-12.23
-15.15
-16.38
-17.00
-18.21
-20.86
-25.24
-31.20
-38.26
-45.61
-51.90
-55.24
-53.44
-44.87
-29.42
-9.06
12.54
31.26
44.06
50.08
50.57
47.90
44.17
40.38
36.39
31.65
26.08
20.36
15.66
12.87
12.03
12.21
11.93
9.91
5.76
0.11
-5.62
-10.05
-12.40
-12.92
-12.67
-13.05
-15.14
-19.40
-25.61
-33.10
-40.83
-47.47
-51.37
-50.84
-44.74
-33.15
-17.70
-1.27
12.98
22.86
27.75
28.63
27.24
25.09
22.86
20.46
17.54
14.07
10.57
7.88
6.63
6.88
7.99
8.92
8.64
6.63
3.06
-1.22
-5.13
-7.81
-9.06
-9.44
-10.00
-11.84
-15.66
-21.53
-28.89
-36.55
-42.80
-45.68
-43.48
-35.34
-21.88
-5.30
11.23
24.61
32.99
36.25
35.74
33.41
30.72
28.21
25.66
22.71
19.40
16.28
14.08
13.20
13.40
13.89
13.77
12.46
9.97
6.82
3.73
1.23
-0.54
-1.83
-3.13
-4.90
-7.38
-10.59
-14.38
-18.48
-22.58
-26.34
-29.28
-30.88
-30.64
-28.30
-23.93
-18.03
-11.36
-4.81
0.91
5.33
8.24
9.68
9.85
9.05
7.71
6.28
5.13
4.48
4.31
4.32
4.08
3.13
1.26
-1.43
-4.54
-7.52
-9.90
-11.48
-12.51
-13.54
-15.22
-18.08
-22.24
-27.26
-32.15
-35.58
-36.15
-32.94
-25.83
-15.70
-4.19
6.78
15.67
21.69
24.91
25.96
25.63
24.51
23.01
21.33
19.72
18.44
17.63
17.20
16.73
15.63
13.41
10.02
5.89
1.78
-1.58
-3.89
-5.33
-6.51
-8.13
-10.65
-14.20
-18.56
-23.24
-27.51
-30.44
-31.15
-28.99
-23.99
-16.93
-9.17
-2.22
2.86
5.72
6.63
6.17
4.81
2.78
0.17
-2.86
-5.93
-8.66
-10.78
-12.40
-13.98
-16.02
-18.83
-22.22
-25.66
-28.40
-29.94
-30.25
-29.82
-29.52
-30.28
-32.88
-37.60
-44.07
-51.01
-56.33
-57.53
-52.47
-40.36
-22.27
-1.02
19.70
36.63
48.01
53.87
55.57
54.80
52.74
49.77
45.82
40.88
35.39
30.13
25.67
22.02
18.52
14.19
8.42
1.35
-6.02
-12.32
-16.55
-18.51
-19.04
-19.58
-21.60
-26.10
-33.28
-42.25
-51.11
-57.20
-57.75
-50.83
-36.25
-15.94
6.59
27.37
43.40
53.49
58.35
59.65
59.05
57.39
54.73
50.83
45.76
40.15
34.93
30.71
27.44
24.33
20.36
14.78
7.73
0.17
-6.50
-11.15
-13.48
-14.12
-14.41
-15.74
-19.10
-24.78
-32.24
-40.24
-46.88
-50.02
-47.72
-38.97
-24.30
-5.85
13.13
29.37
40.67
46.44
47.61
45.80
42.50
38.50
34.04
29.16
24.17
19.63
16.16
13.93
12.50
11.03
8.67
5.11
0.70
-3.78
-7.50
-10.12
-11.90
-13.65
-16.34
-20.74
-27.06
-34.68
-42.12
-47.20
-47.70
-42.12
-30.49
-14.58
2.50
17.37
27.57
32.24
32.09
28.72
23.70
18.10
12.40
6.86
1.83
-2.29
-5.22
-7.14
-8.73
-10.81
-13.92
-17.99
-22.32
-25.96
-28.24
-29.20
-29.56
-30.50
-33.17
-38.25
-45.52
-53.81
-60.98
-64.48
-62.05
-52.66
-37.07
-17.75
1.88
18.61
30.56
37.56
40.76
41.81
42.00
41.89
41.41
40.39
38.89
37.26
35.80
34.47
32.72
29.71
24.77
17.83
9.61
1.36
-5.63
-10.67
-13.97
-16.54
-19.76
-24.82
-32.33
-42.00
-52.52
-61.75
-67.04
-65.97
-57.26
-41.44
-20.92
0.66
19.72
33.98
43.03
48.09
50.95
52.96
54.42
54.76
53.26
49.71
44.71
39.31
34.36
30.03
25.70
20.35
13.23
4.39
-5.19
-14.03
-20.77
-24.79
-26.53
-27.21
-28.39
-31.37
-36.87
-44.75
-54.07
-63.04
-69.34
-70.58
-65.07
-52.55
-34.53
-13.94
5.78
21.82
32.92
39.42
42.73
44.29
44.94
44.73
43.31
40.52
36.74
32.87
29.84
28.13
27.50
27.05
25.68
22.62
17.80
11.91
6.04
1.13
-2.44
-5.09
-7.82
-11.73
-17.64
-25.72
-35.53
-45.92
-55.24
-61.51
-62.77
-57.65
-45.90
-28.75
-8.68
11.24
28.34
41.08
49.35
54.02
56.28
57.05
56.76
55.57
53.68
51.53
49.66
48.40
47.59
46.57
44.49
40.71
35.19
28.57
21.86
16.04
11.62
8.38
5.57
2.21
-2.52
-8.93
-16.58
-24.36
-30.59
-33.56
-32.01
-25.69
-15.65
-3.96
6.85
14.69
18.47
18.32
15.25
10.62
5.59
0.95
-2.94
-6.01
-8.38
-10.30
-12.08
-14.03
-16.28
-18.72
-21.14
-23.28
-25.10
-26.71
-28.40
-30.50
-33.38
-37.35
-42.59
-48.80
-55.00
-59.39
-59.86
-54.71
-43.49
-27.41
-9.08
8.41
22.54
32.08
37.23
39.08
38.94
37.84
36.29
34.51
32.56
30.47
28.21
25.60
22.38
18.29
13.32
7.77
2.16
-2.90
-7.05
-10.29
-13.03
-16.01
-20.06
-25.87
-33.66
-42.75
-51.45
-57.31
-57.87
-51.57
-38.65
-21.17
-2.38
14.43
27.16
35.34
39.94
42.45
43.97
44.80
44.57
42.92
39.87
36.08
32.40
29.41
27.00
24.51
21.02
15.98
9.55
2.56
-3.83
-8.72
-11.86
-13.76
-15.45
-18.07
-22.49
-29.07
-37.50
-46.73
-55.04
-60.30
-60.51
-54.45
-42.34
-25.90
-7.96
8.55
21.54
30.36
35.67
38.73
40.63
41.75
41.84
40.51
37.71
33.98
30.22
27.20
25.12
23.50
21.38
17.91
12.81
6.52
0.07
-5.43
-9.31
-11.60
-12.99
-14.52
-17.14
-21.44
-27.51
-34.90
-42.55
-48.85
-51.85
-49.81
-41.79
-28.23
-11.02
7.03
23.08
35.17
42.70
46.25
47.02
46.16
44.41
42.14
39.62
37.19
35.29
34.19
33.77
33.50
32.61
30.50
27.03
22.67
18.27
14.66
12.19
10.60
9.12
6.79
2.87
-2.79
-9.66
-16.50
-21.71
-23.82
-21.97
-16.34
-8.08
0.94
8.94
14.66
17.71
18.44
17.51
15.48
12.69
9.31
5.55
1.72
-1.82
-4.93
-7.73
-10.61
-13.96
-17.90
-22.18
-26.23
-29.47
-31.61
-32.85
-33.79
-35.27
-38.04
-42.49
-48.46
-54.99
-60.36
-62.37
-58.93
-48.88
-32.66
-12.37
8.73
27.32
41.17
49.62
53.46
54.21
53.23
51.33
48.84
45.97
43.06
40.62
38.94
37.81
36.51
34.08
29.81
23.65
16.23
8.55
1.55
-4.31
-9.20
-13.70
-18.58
-24.52
-31.77
-40.07
-48.39
-55.06
-58.06
-55.72
-47.42
-34.10
-18.11
-2.43
10.46
19.32
24.39
26.86
28.05
28.77
29.18
29.08
28.34
27.15
25.99
25.24
24.95
24.77
24.18
22.72
20.39
17.54
14.77
12.62
11.29
10.53
9.73
8.23
5.56
1.69
-2.93
-7.51
-11.15
-13.26
-13.63
-12.57
-10.71
-8.78
-7.30
-6.48
-6.27
-6.43
-6.78
-7.24
-7.82
-8.57
-9.47
-10.40
-11.32
-12.22
-13.26
-14.66
-16.50
-18.64
-20.71
-22.26
-23.00
-22.98
-22.66
-22.69
-23.73
-26.18
-30.09
-35.07
-40.32
-44.74
-47.04
-46.12
-41.38
-33.04
-22.21
-10.63
-0.15
7.90
13.01
15.46
16.01
15.50
14.50
13.31
11.97
10.47
8.79
6.91
4.81
2.43
-0.18
-2.94
-5.63
-8.08
-10.20
-12.11
-14.13
-16.77
-20.59
-25.94
-32.68
-39.84
-45.64
-47.90
-44.82
-35.78
-21.84
-5.55
10.00
22.20
29.79
33.06
33.34
32.24
30.94
29.91
29.06
28.02
26.42
24.08
20.92
16.99
12.46
7.59
2.64
-2.12
-6.57
-10.70
-14.70
-18.91
-23.81
-29.91
-37.40
-45.74
-53.40
-58.03
-57.16
-49.21
-34.43
-15.06
5.27
22.82
35.03
41.26
42.57
40.93
38.26
35.74
33.70
31.87
29.83
27.19
23.74
19.38
14.21
8.55
2.81
-2.48
-7.01
-10.75
-14.00
-17.38
-21.66
-27.60
-35.64
-45.54
-55.93
-64.33
-67.64
-63.29
-50.46
-30.76
-7.88
13.66
30.21
40.12
43.92
43.48
40.85
37.45
33.91
30.38
26.96
23.79
20.94
18.09
14.59
9.76
3.34
-4.28
-12.08
-18.87
-23.84
-26.93
-28.93
-31.24
-35.45
-42.77
-53.61
-67.03
-80.53
-90.34
-92.38
-83.76
-64.09
-36.14
-5.05
23.37
44.73
57.38
62.47
62.66
60.57
57.68
54.20
49.88
44.82
39.79
35.80
33.29
31.61
29.19
24.36
16.34
5.81
-5.36
-15.09
-22.15
-26.79
-30.59
-35.71
-43.99
-56.20
-71.71
-88.34
-102.58
-110.20
-107.34
-92.02
-65.29
-31.39
3.44
33.11
53.86
65.24
69.46
69.75
68.46
66.34
63.01
58.21
52.62
47.87
45.52
45.90
47.67
48.33
45.55
38.45
28.06
16.78
7.17
0.67
-2.97
-5.46
-9.23
-16.52
-28.55
-45.04
-63.86
-81.17
-92.16
-92.44
-79.72
-55.00
-22.47
11.87
42.39
65.74
81.48
91.28
97.30
100.81
101.81
99.69
94.25
86.40
77.94
70.61
65.10
60.63
55.41
47.57
36.37
22.66
8.49
-3.77
-12.63
-18.14
-21.84
-26.00
-32.69
-43.10
-57.09
-73.12
-88.31
-98.83
-100.81
-91.55
-70.79
-41.35
-8.54
21.59
44.29
57.67
62.74
62.25
58.99
54.61
49.50
43.58
37.18
31.35
27.28
25.47
25.13
24.48
21.59
15.45
6.54
-3.46
-12.55
-19.44
-24.17
-27.97
-32.74
-40.26
-51.54
-66.31
-82.73
-97.41
-106.01
-104.54
-90.91
-66.18
-34.68
-2.66
23.86
41.32
49.48
50.90
49.13
46.94
45.33
43.78
41.27
37.20
31.90
26.18
20.88
16.30
12.15
7.80
2.69
-3.40
-10.35
-17.99
-26.41
-36.21
-48.22
-62.76
-78.71
-93.10
-101.49
-99.57
-85.04
-59.03
-26.09
7.34
35.25
54.19
63.98
67.02
66.63
65.47
64.79
64.54
64.08
62.83
60.62
57.53
53.82
49.72
45.40
40.99
36.50
31.81
26.58
20.25
12.12
1.42
-12.29
-28.60
-45.67
-60.11
-67.59
-64.25
-48.39
-21.45
12.14
46.55
76.63
99.64
115.70
126.85
135.44
142.64
147.88
149.38
145.26
134.52
117.50
95.66
70.89
44.95
19.06
-5.99
-29.64
-51.24
-70.16
-85.97
-98.85
-109.63
-119.69
-130.48
-142.93
-156.86
-170.75
-181.85
-186.90
-183.22
-169.80
-147.94
-120.92
-93.00
-67.89
-47.65
-32.36
-20.73
-11.22
-2.92
4.08
9.12
11.70
11.96
10.82
9.51
9.05
9.88
11.80
14.25
16.64
18.53
19.56
19.32
17.14
12.07
3.15
-10.14
-27.33
-46.57
-64.64
-77.75
-82.69
-78.13
-65.27
-47.56
-29.45
-14.82
-5.62
-1.64
-1.04
-1.61
-1.70
-0.73
1.08
3.21
5.27
7.14
8.80
10.12
10.82
10.52
9.00
6.33
2.88
-0.84
-4.47
-8.06
-12.19
-17.75
-25.51
-35.45
-46.34
-55.76
-60.72
-58.80
-49.28
-33.62
-15.02
2.77
16.93
26.43
32.07
35.66
38.85
42.36
45.79
48.22
48.94
47.96
46.06
44.29
43.47
43.71
44.44
44.74
43.79
41.18
36.95
31.32
24.51
16.73
8.59
1.39
-2.73
-1.37
7.27
23.48
45.62
70.63
95.11
116.48
133.75
147.42
158.80
169.09
178.86
187.90
195.60
201.43
205.16
206.96
207.06
205.61
202.44
197.11
189.08
177.93
163.49
145.94
125.75
103.63
80.47
57.24
34.99
14.81
-2.35
-15.83
-25.51
-31.87
-36.01
-39.31
-43.05
-47.99
-54.10
-60.68
-66.62
-70.91
-72.86
-72.28
-69.31
-64.23
-57.29
-48.77
-39.08
-28.93
-19.27
-11.18
-5.62
-3.14
-3.77
-7.09
-12.35
-18.78
-25.73
-32.87
-40.12
-47.53
-55.13
-62.84
-70.48
-77.88
-85.00
-91.85
-98.37
-104.28
-109.00
-111.85
-112.28
-110.10
-105.49
-98.94
-91.05
-82.45
-73.71
-65.34
-57.77
-51.18
-45.51
-40.43
-35.58
-30.78
-26.19
-22.29
-19.76
-19.30
-21.45
-26.37
-33.61
-41.92
-49.28
-53.43
-52.59
-46.24
-35.47
-22.58
-10.14
0.04
7.43
12.70
17.05
21.36
25.90
30.34
34.28
37.57
40.46
43.29
46.25
49.15
51.52
52.86
52.96
51.94
50.24
48.32
46.43
44.42
41.79
37.80
31.76
23.42
13.34
3.02
-5.43
-9.87
-8.99
-2.92
6.77
17.60
27.12
33.84
37.55
39.07
39.54
39.69
39.60
38.78
36.70
33.16
28.35
22.75
16.69
10.25
3.25
-4.52
-12.90
-21.38
-29.18
-35.66
-40.62
-44.44
-47.95
-52.02
-57.02
-62.52
-67.23
-69.44
-67.67
-61.38
-51.39
-39.72
-28.95
-21.33
-17.98
-18.63
-21.88
-25.95
-29.40
-31.62
-32.63
-32.65
-31.65
-29.15
-24.53
-17.54
-8.48
1.84
12.71
23.87
35.32
46.68
56.53
62.31
61.11
51.17
33.03
9.83
-13.66
-32.74
-44.39
-48.06
-45.16
-38.04
-28.72
-18.33
-7.14
4.93
17.84
31.29
44.88
58.21
70.82
81.97
90.43
94.58
93.15
85.92
74.15
60.28
46.86
35.58
26.64
19.10
11.81
4.18
-3.46
-10.37
-16.12
-21.01
-25.84
-31.32
-37.38
-43.04
-46.94
-48.29
-47.53
-46.33
-46.85
-50.68
-57.95
-67.35
-76.72
-84.02
-88.11
-88.87
-86.83
-82.63
-76.72
-69.40
-61.15
-52.80
-45.46
-40.13
-37.29
-36.80
-38.15
-40.82
-44.61
-49.51
-55.41
-61.69
-67.02
-69.62
-68.00
-61.56
-51.09
-38.70
-27.05
-18.44
-13.94
-13.06
-13.96
-14.30
-12.08
-6.38
2.47
13.19
24.13
33.90
41.74
47.54
51.63
54.46
56.36
57.43
57.74
57.41
56.69
55.92
55.31
54.83
54.19
52.88
50.48
46.92
42.62
38.55
35.93
35.94
39.21
45.68
54.53
64.46
74.09
82.30
88.43
92.19
93.42
91.96
87.64
80.40
70.58
59.06
47.08
35.95
26.52
18.85
12.27
5.80
-1.30
-9.04
-16.72
-23.23
-27.76
-30.25
-31.59
-33.29
-36.95
-43.66
-53.45
-65.20
-76.80
-85.69
-89.66
-87.45
-79.19
-66.23
-50.68
-34.70
-19.95
-7.41
2.65
10.33
16.00
20.11
23.10
25.26
26.63
27.01
26.02
23.45
19.40
14.35
8.97
3.88
-0.68
-4.82
-8.87
-13.12
-17.57
-21.94
-25.59
-27.58
-26.80
-22.15
-12.98
0.55
17.19
34.73
50.47
62.12
68.40
69.36
66.15
60.23
52.71
43.95
33.63
21.20
6.34
-10.73
-29.26
-48.08
-65.89
-81.40
-93.49
-101.37
-104.69
-103.56
-98.60
-90.76
-81.06
-70.44
-59.50
-48.59
-37.75
-26.90
-15.83
-4.39
7.52
19.73
31.81
43.10
52.87
60.50
65.69
68.48
69.22
68.49
66.92
65.06
63.36
62.11
61.61
62.12
63.91
67.07
71.47
76.58
81.59
85.60
87.93
88.30
86.96
84.58
81.97
79.85
78.65
78.40
78.86
79.59
80.18
80.27
79.70
78.45
76.63
74.40
71.93
69.40
67.02
64.92
63.16
61.64
60.09
58.15
55.45
51.75
46.90
40.90
33.87
25.98
17.55
8.93
0.48
-7.64
-15.50
-23.58
-32.62
-43.42
-56.56
-72.15
-89.70
-108.15
-126.06
-141.89
-154.37
-162.82
-167.30
-168.54
-167.69
-165.86
-163.78
-161.60
-158.98
-155.32
-150.13
-143.17
-134.54
-124.59
-113.73
-102.31
-90.52
-78.44
-66.09
-53.52
-40.83
-28.15
-15.62
-3.37
8.40
19.38
29.13
37.10
42.82
46.06
46.85
45.52
42.55
38.50
33.89
29.19
24.77
20.90
17.71
15.21
13.39
12.09
11.11
10.10
8.62
6.25
2.77
-1.70
-6.75
-11.76
-16.16
-19.60
-21.96
-23.35
-24.05
-24.30
-24.34
-24.26
-23.90
-22.92
-20.94
-17.70
-13.26
-7.99
-2.40
3.06
8.15
12.81
17.01
20.69
23.66
25.75
26.90
27.23
27.04
26.69
26.47
26.64
27.43
29.06
31.69
35.18
39.08
42.63
44.97
45.48
44.02
40.91
36.83
32.52
28.70
25.91
24.60
25.06
27.32
30.90
34.78
37.62
38.30
36.44
32.67
28.28
24.60
22.32
21.21
20.40
18.96
16.44
13.11
9.68
6.94
5.41
5.29
6.67
9.57
14.00
19.63
25.69
30.97
34.13
34.08
30.40
23.48
14.33
4.37
-5.00
-12.73
-18.25
-21.49
-22.78
-22.64
-21.73
-20.77
-20.42
-21.29
-23.61
-27.24
-31.43
-34.93
-35.97
-32.55
-22.95
-6.49
15.75
40.70
63.87
80.67
88.17
86.15
77.12
65.10
53.90
45.69
40.59
37.24
33.76
28.48
20.05
7.35
-10.39
-32.99
-58.72
-84.13
-104.78
-116.69
-117.89
-109.24
-94.04
-76.71
-61.09
-49.49
-42.64
-40.41
-42.73
-49.66
-61.07
-75.93
-92.11
-106.88
-117.90
-124.06
-125.87
-124.99
-123.47
-122.96
-124.46
-128.31
-134.25
-141.15
-146.75
-147.77
-140.71
-123.17
-95.12
-59.37
-20.90
14.53
42.15
59.41
66.30
64.97
58.78
51.32
45.58
43.42
45.25
50.03
55.72
59.96
61.13
58.94
54.43
49.36
45.20
42.60
41.37
41.05
41.50
42.99
45.78
49.56
53.18
55.17
54.46
51.15
46.62
42.88
41.65
43.61
48.21
53.98
59.06
61.71
60.66
55.20
45.24
31.05
12.99
-8.50
-32.74
-58.39
-83.28
-104.68
-120.31
-129.14
-131.89
-130.59
-127.53
-124.22
-120.77
-116.39
-110.08
-101.41
-90.74
-78.87
-66.50
-53.99
-41.36
-28.66
-16.27
-4.86
4.79
12.23
17.51
21.16
23.91
26.30
28.49
30.18
30.92
30.37
28.50
25.57
22.03
18.33
14.84
11.70
8.92
6.38
3.91
1.32
-1.49
-4.40
-7.08
-9.11
-10.15
-10.18
-9.47
-8.46
-7.42
-6.34
-4.93
-2.84
0.04
3.43
6.83
9.66
11.59
12.47
12.24
10.81
8.13
4.50
0.69
-2.12
-2.87
-1.16
2.53
6.91
10.41
11.84
10.62
6.81
0.91
-6.41
-14.41
-22.39
-29.83
-36.41
-42.05
-46.71
-50.20
-52.02
-51.54
-48.23
-42.05
-33.65
-24.34
-15.91
-10.19
-8.59
-11.60
-18.43
-27.06
-34.64
-38.36
-36.33
-28.35
-15.88
-1.52
11.86
22.00
27.66
28.84
26.35
21.56
15.71
9.70
3.87
-1.91
-7.92
-14.44
-21.49
-28.75
-35.50
-40.70
-43.13
-41.75
-36.06
-26.34
-13.58
0.84
15.77
30.55
44.98
58.99
72.10
83.06
89.90
90.41
82.86
66.91
43.94
16.93
-10.31
-34.23
-52.56
-64.64
-71.09
-72.97
-70.94
-65.02
-54.89
-40.43
-22.22
-1.38
20.84
43.52
66.13
88.33
109.58
128.95
145.27
157.53
165.15
168.28
167.62
164.31
159.60
154.75
150.78
148.29
147.25
147.03
146.71
145.36
142.46
137.80
131.35
123.00
112.45
99.39
83.82
66.24
47.50
28.50
9.60
-9.48
-29.51
-51.20
-74.59
-98.71
-121.60
-140.75
-153.89
-159.80
-158.74
-152.17
-141.96
-129.51
-115.47
-100.11
-84.00
-68.53
-55.62
-46.71
-41.76
-38.94
-35.49
-29.12
-19.29
-7.30
4.68
15.08
23.81
32.07
41.32
52.17
63.82
74.41
81.80
84.47
82.08
75.38
65.67
53.99
40.69
25.36
7.28
-13.81
-37.16
-60.86
-82.32
-99.04
-109.44
-113.15
-110.92
-104.09
-94.13
-82.40
-70.15
-58.46
-48.12
-39.33
-31.54
-23.58
-14.12
-2.33
11.66
26.60
40.37
50.77
56.35
56.83
53.17
47.07
40.37
34.51
30.29
28.04
27.78
29.35
32.44
36.54
40.90
44.67
47.11
47.95
47.47
46.37
45.51
45.49
46.27
47.23
47.40
46.08
43.22
39.58
36.46
35.05
35.84
38.40
41.61
44.24
45.46
44.98
42.83
39.04
33.47
25.84
15.90
3.57
-10.94
-27.12
-44.15
-60.95
-76.35
-89.32
-99.25
-105.99
-109.79
-111.05
-110.07
-106.96
-101.84
-95.05
-87.21
-79.01
-70.95
-63.13
-55.55
-48.50
-42.94
-40.45
-42.66
-50.44
-63.38
-79.75
-96.93
-112.42
-124.45
-132.21
-135.46
-134.03
-127.48
-115.40
-98.05
-76.86
-54.44
-33.75
-16.97
-4.62
4.40
11.87
19.18
26.54
33.23
38.49
42.33
45.78
50.15
56.02
62.61
67.99
70.07
67.70
61.21
52.21
42.65
34.08
27.31
22.57
19.84
18.92
19.27
19.72
18.53
13.87
4.62
-8.85
-24.50
-39.18
-49.67
-53.66
-50.44
-40.81
-26.82
-11.04
3.88
15.62
22.64
24.51
22.17
17.70
13.77
12.60
15.06
20.29
26.08
29.85
29.67
25.01
16.83
7.12
-2.06
-9.19
-13.85
-16.62
-18.74
-21.61
-26.30
-33.30
-42.57
-53.59
-65.41
-76.79
-86.21
-92.31
-94.40
-92.95
-89.45
-85.65
-82.54
-79.55
-74.74
-65.73
-50.89
-30.14
-4.95
22.43
49.87
75.97
99.98
121.40
139.48
153.26
161.67
163.96
159.88
149.83
134.84
116.42
96.44
76.87
59.47
45.64
36.29
31.88
32.52
37.95
47.73
61.28
77.87
96.46
115.50
133.00
146.64
154.49
155.59
150.33
140.31
127.63
114.25
101.41
89.68
79.27
70.37
63.20
57.81
53.74
49.98
45.29
38.80
30.45
20.95
11.45
2.93
-4.10
-9.57
-13.41
-15.27
-14.43
-10.06
-2.00
8.93
20.69
30.65
36.50
37.15
33.16
26.27
18.57
11.34
4.44
-3.50
-14.26
-28.78
-46.50
-65.35
-82.56
-95.69
-103.47
-105.95
-104.23
-99.89
-94.44
-89.14
-84.94
-82.35
-81.33
-81.31
-81.22
-79.90
-76.65
-71.87
-67.37
-65.93
-70.21
-81.44
-98.26
-116.66
-130.85
-135.04
-125.27
-100.63
-63.39
-18.31
28.80
72.34
108.04
133.36
147.42
150.56
143.97
129.37
108.97
85.51
62.15
42.01
27.29
18.52
14.50
12.75
10.60
6.32
-0.40
-8.56
-16.52
-22.63
-25.70
-25.18
-21.13
-14.03
-4.68
5.89
16.51
25.92
32.81
36.08
35.05
29.67
20.56
8.98
-3.52
-15.30
-25.19
-32.56
-37.49
-40.48
-42.23
-43.37
-44.50
-46.24
-49.14
-53.46
-58.84
-64.12
-67.43
-66.80
-61.09
-50.54
-36.94
-23.05
-11.62
-4.41
-1.53
-1.62
-2.25
-0.74
5.13
16.53
33.25
53.72
75.33
95.08
110.35
119.67
123.00
121.65
117.54
112.27
106.35
99.04
88.88
74.70
56.51
35.57
13.75
-7.55
-28.00
-48.25
-68.99
-90.09
-110.31
-127.77
-140.91
-149.17
-153.07
-153.53
-151.26
-146.41
-139.04
-129.71
-119.89
-111.71
-107.09
-106.71
-109.57
-113.19
-114.50
-110.99
-101.52
-86.49
-67.51
-46.69
-25.91
-6.49
10.83
25.77
38.27
48.50
56.75
63.34
68.38
71.74
73.08
72.20
69.33
65.19
60.67
56.57
53.23
50.62
48.75
47.80
48.00
49.24
50.58
50.38
46.99
39.85
30.14
20.72
15.12
16.25
25.33
41.56
62.44
84.48
104.04
117.99
124.43
123.13
115.75
105.42
95.62
88.80
85.32
83.42
80.30
73.66
62.87
49.15
34.65
21.04
8.66
-3.58
-17.47
-34.52
-55.36
-79.68
-106.40
-133.91
-160.13
-182.53
-198.55
-206.10
-204.35
-193.85
-176.21
-153.39
-126.99
-98.26
-68.35
-38.83
-11.64
11.33
28.97
41.36
49.56
55.08
59.18
62.74
66.37
70.68
76.08
82.48
88.81
93.26
94.08
90.68
84.17
77.04
71.93
70.37
72.13
75.45
78.10
78.42
75.88
70.97
64.69
57.89
51.11
44.55
38.31
32.51
27.21
22.29
17.39
11.99
5.72
-1.41
-9.10
-16.90
-24.66
-32.60
-41.20
-50.70
-60.73
-70.14
-77.56
-82.07
-83.86
-84.52
-86.58
-92.66
-104.69
-123.21
-147.00
-173.21
-197.54
-215.20
-222.08
-216.21
-198.55
-172.94
-144.64
-118.16
-95.49
-75.73
-56.18
-34.49
-10.43
13.75
34.30
47.83
52.73
49.62
40.81
29.36
18.53
11.34
10.20
16.40
29.28
46.10
62.65
74.80
80.12
78.72
72.70
64.79
56.91
49.72
43.04
36.93
32.28
30.55
32.63
37.83
43.71
46.94
45.06
37.78
27.21
16.91
10.15
8.50
11.36
16.65
22.05
26.09
28.44
29.62
30.26
30.66
30.68
30.01
28.46
26.07
23.11
19.84
16.48
13.21
10.24
7.81
6.03
4.84
3.92
2.80
1.10
-1.39
-4.49
-7.80
-10.74
-12.68
-12.97
-10.95
-6.12
1.60
11.59
22.41
32.01
38.38
40.15
37.22
30.68
22.50
14.78
9.02
5.87
5.05
5.72
6.76
7.20
6.35
3.92
0.07
-4.76
-10.00
-15.12
-19.82
-24.07
-28.07
-32.25
-37.14
-43.18
-50.51
-58.52
-65.62
-69.56
-68.04
-59.72
-44.92
-25.74
-5.32
13.27
28.03
38.42
45.05
48.95
50.95
51.44
50.57
48.56
45.88
43.04
40.34
37.59
34.28
29.80
23.90
16.89
9.58
2.89
-2.55
-6.67
-10.12
-13.95
-19.31
-26.88
-36.46
-46.63
-55.06
-59.12
-56.78
-47.35
-31.76
-12.26
8.43
27.71
43.76
55.55
62.74
65.50
64.45
60.49
54.66
47.88
40.77
33.70
26.92
20.87
16.10
13.02
11.63
11.31
11.02
9.80
7.13
3.08
-1.90
-7.38
-13.18
-19.24
-25.29
-30.55
-33.77
-33.67
-29.58
-21.97
-12.33
-2.72
4.98
9.74
11.51
10.91
8.86
6.10
3.06
-0.14
-3.52
-7.10
-10.80
-14.40
-17.58
-19.97
-21.29
-21.55
-21.10
-20.66
-21.06
-23.12
-27.37
-33.94
-42.41
-51.66
-59.87
-64.69
-63.83
-55.93
-41.25
-21.83
-0.97
17.88
32.35
41.71
46.76
49.03
49.89
50.06
49.63
48.50
46.69
44.53
42.32
40.17
37.83
34.89
31.02
26.27
21.00
15.80
11.11
6.98
2.99
-1.66
-7.90
-16.42
-27.14
-38.92
-49.52
-55.97
-55.59
-47.03
-31.04
-10.35
11.08
29.50
42.44
49.33
51.10
49.42
45.78
41.15
35.89
30.15
24.15
18.23
12.73
7.83
3.48
-0.56
-4.53
-8.57
-12.63
-16.63
-20.49
-24.38
-28.75
-34.40
-42.12
-52.20
-63.81
-74.78
-81.93
-82.18
-73.84
-57.50
-36.02
-13.51
6.18
20.81
30.13
35.38
38.27
40.02
41.13
41.44
40.74
39.04
36.55
33.62
30.52
27.37
24.18
20.93
17.63
14.22
10.56
6.35
1.10
-5.86
-15.07
-26.48
-38.97
-50.20
-56.97
-56.32
-46.77
-29.15
-6.49
16.97
37.26
51.97
60.62
64.20
64.34
62.32
58.77
53.73
47.00
38.47
28.33
16.98
5.09
-6.56
-17.22
-26.34
-33.66
-39.31
-43.73
-47.49
-51.35
-56.15
-62.64
-71.16
-81.00
-90.16
-95.63
-94.40
-84.76
-67.31
-44.93
-21.73
-1.47
13.75
23.80
29.95
33.79
36.37
38.07
38.85
38.73
37.91
36.70
35.15
32.99
29.80
25.32
19.74
13.66
7.86
2.85
-1.36
-5.38
-10.28
-17.20
-26.91
-39.28
-52.96
-65.41
-73.45
-74.18
-66.05
-49.58
-27.25
-2.79
20.10
38.86
52.58
61.72
67.45
70.92
72.83
73.56
73.33
72.43
71.22
69.88
68.30
66.09
62.76
58.09
52.29
45.92
39.64
33.79
28.22
22.24
14.96
5.56
-6.26
-19.95
-33.87
-45.40
-51.53
-49.76
-39.15
-21.00
1.43
23.87
42.50
55.16
61.71
63.56
62.62
60.30
57.25
53.45
48.81
43.44
37.74
32.12
26.69
21.32
15.64
9.43
2.77
-3.94
-10.18
-15.62
-20.33
-24.87
-30.19
-37.23
-46.47
-57.33
-67.94
-75.45
-76.87
-70.35
-56.08
-36.47
-15.38
3.29
16.94
24.94
28.35
28.96
28.28
27.08
25.40
22.98
19.74
15.92
11.91
8.07
4.50
1.09
-2.45
-6.42
-10.99
-16.23
-22.09
-28.63
-36.19
-45.28
-56.30
-68.82
-81.15
-90.36
-93.11
-86.99
-71.79
-49.87
-25.48
-3.19
13.73
24.23
29.35
31.16
31.60
31.71
31.54
30.66
28.68
25.57
21.58
17.06
12.24
7.18
1.83
-3.88
-9.93
-16.36
-23.27
-31.01
-40.16
-51.40
-65.05
-80.46
-95.67
-107.58
-112.71
-108.49
-94.35
-72.22
-45.97
-20.10
1.73
17.85
28.62
35.79
41.32
46.24
50.37
52.47
51.08
45.55
36.44
25.35
14.21
4.38
-3.90
-11.23
-18.27
-24.95
-30.15
-32.21
-29.72
-22.16
-9.92
6.36
26.41
50.50
78.84
110.56
143.00
171.87
192.49
201.34
197.42
182.58
160.69
136.22
112.94
93.06
77.45
66.24
59.35
56.87
58.90
64.95
73.68
82.87
90.06
93.37
92.26
87.72
81.82
76.72
73.70
72.66
72.28
70.73
66.67
59.86
51.16
41.94
33.32
25.57
18.21
10.38
1.44
-8.68
-19.51
-30.38
-40.75
-50.43
-59.67
-68.97
-79.00
-90.30
-102.96
-116.38
-129.07
-138.93
-143.83
-142.47
-134.85
-122.49
-107.77
-93.18
-80.58
-70.78
-63.72
-58.69
-54.83
-51.35
-47.74
-43.80
-39.61
-35.41
-31.38
-27.59
-23.91
-20.19
-16.33
-12.46
-8.87
-5.83
-3.37
-1.19
1.26
4.47
8.50
12.76
15.98
16.55
13.06
4.89
-7.41
-22.13
-36.81
-49.00
-56.95
-60.23
-59.85
-57.92
-56.96
-59.09
-65.31
-75.18
-86.98
-97.98
-105.33
-106.74
-101.33
-89.92
-74.78
-58.84
-44.38
-32.02
-20.44
-7.23
9.70
30.69
53.72
75.26
91.72
101.02
103.33
100.72
95.93
91.14
87.15
83.53
79.21
73.23
65.29
55.74
45.24
34.13
22.03
7.71
-10.55
-34.15
-63.42
-97.11
-132.49
-165.76
-192.70
-209.35
-212.69
-201.30
-175.84
-139.22
-96.09
-51.76
-10.89
23.59
50.75
71.15
85.92
96.07
102.21
104.88
104.80
102.95
100.29
97.36
94.17
90.32
85.53
79.84
73.75
67.99
63.16
59.45
56.40
53.00
48.00
40.46
30.35
18.88
8.21
0.78
-1.77
0.69
6.72
13.99
20.32
24.44
26.15
25.86
24.09
21.12
17.07
12.28
7.34
3.02
-0.05
-1.59
-1.63
-0.31
2.23
5.89
10.47
15.64
21.05
26.55
32.23
38.22
44.46
50.33
54.83
57.05
56.62
53.95
50.02
45.77
41.66
37.49
32.66
26.64
19.35
11.27
3.20
-4.05
-9.96
-14.37
-17.32
-18.95
-19.48
-19.23
-18.84
-19.16
-21.02
-24.75
-29.94
-35.36
-39.36
-40.52
-38.19
-32.71
-25.16
-16.92
-9.21
-2.94
1.24
2.85
1.45
-3.33
-11.67
-23.42
-38.07
-54.64
-71.74
-87.79
-101.20
-110.82
-116.11
-117.29
-115.09
-110.45
-104.19
-96.82
-88.52
-79.25
-68.94
-57.59
-45.25
-32.08
-18.30
-4.30
9.37
21.96
32.65
40.59
45.17
46.13
43.59
38.02
30.18
20.95
11.36
2.50
-4.53
-8.85
-10.04
-8.26
-4.15
1.35
7.40
13.38
18.91
23.70
27.48
30.05
31.51
32.55
34.43
38.56
45.91
56.35
68.58
80.51
90.11
95.86
96.87
92.50
82.05
64.78
40.50
10.06
-24.62
-61.17
-97.59
-132.65
-165.59
-195.32
-219.83
-236.44
-242.64
-237.21
-220.83
-195.80
-165.22
-132.12
-98.91
-67.29
-38.50
-13.32
7.87
25.09
38.73
49.23
56.93
61.98
64.46
64.33
61.49
55.61
46.19
32.68
14.81
-7.21
-32.57
-59.94
-87.49
-112.79
-132.78
-143.92
-142.78
-127.12
-96.99
-55.27
-7.38
40.12
81.39
112.78
133.46
144.84
149.46
149.77
147.46
143.52
138.48
132.82
127.01
121.34
115.83
110.23
104.23
97.78
91.20
85.00
79.59
75.01
70.91
66.72
61.94
56.38
50.19
43.77
37.64
32.22
27.90
24.93
23.64
24.54
28.25
35.41
46.03
59.06
72.11
81.83
84.54
77.27
58.69
29.71
-6.44
-44.84
-79.93
-106.73
-121.92
-124.55
-115.95
-99.00
-77.20
-53.79
-31.30
-11.57
4.15
15.33
22.22
26.02
28.42
30.97
34.37
38.32
41.81
43.85
43.94
42.39
40.13
38.26
37.79
39.31
42.92
48.13
53.88
58.78
61.51
61.27
57.86
51.69
43.39
33.59
22.79
11.48
0.18
-10.67
-20.82
-30.35
-39.53
-48.52
-57.11
-64.80
-71.03
-75.43
-77.93
-78.64
-77.66
-75.10
-71.07
-65.86
-59.91
-53.61
-47.14
-40.31
-32.70
-24.03
-14.40
-4.34
5.34
13.98
21.27
27.29
32.32
36.62
40.23
43.07
45.07
46.29
46.82
46.48
44.61
40.04
31.64
18.91
2.57
-15.50
-32.94
-47.73
-58.85
-66.30
-70.57
-72.18
-71.29
-67.81
-61.74
-53.38
-43.26
-31.89
-19.64
-6.85
6.00
18.08
28.39
36.07
40.73
42.57
42.22
40.41
37.79
34.76
31.57
28.37
25.32
22.57
20.22
18.29
16.67
15.08
13.11
10.36
6.61
1.90
-3.39
-8.70
-13.47
-17.29
-20.01
-21.66
-22.50
-22.91
-23.27
-23.87
-24.72
-25.52
-25.74
-24.96
-23.02
-20.28
-17.36
-14.99
-13.59
-13.19
-13.44
-13.92
-14.31
-14.51
-14.61
-14.76
-15.05
-15.48
-16.00
-16.64
-17.58
-19.15
-21.72
-25.56
-30.68
-36.87
-43.69
-50.64
-57.24
-63.21
-68.53
-73.41
-78.12
-82.63
-86.53
-88.93
-88.80
-85.38
-78.60
-69.21
-58.58
-48.28
-39.57
-33.18
-29.28
-27.55
-27.39
-28.05
-28.73
-28.82
-27.98
-26.43
-24.89
-24.37
-25.77
-29.57
-35.63
-43.36
-51.99
-60.96
-70.04
-79.28
-88.84
-98.80
-109.12
-119.73
-130.48
-140.92
-150.04
-156.03
-156.62
-149.74
-134.43
-111.42
-83.19
-53.22
-24.96
-1.01
17.40
30.22
38.18
42.36
44.10
44.90
46.28
49.48
54.78
61.31
67.27
70.78
70.79
67.57
62.56
57.51
53.63
51.02
48.86
45.79
40.63
32.83
22.78
11.83
2.26
-3.29
-2.47
5.80
20.80
40.05
60.31
78.64
93.30
103.83
110.46
113.45
112.83
108.75
101.85
93.56
85.59
79.18
74.40
70.02
64.00
54.58
41.17
24.83
8.02
-6.38
-16.22
-20.97
-21.93
-21.52
-22.08
-24.69
-28.63
-31.80
-31.75
-26.88
-17.08
-3.71
11.23
25.86
39.01
50.25
59.61
67.13
72.71
76.09
76.99
75.33
71.30
65.38
58.27
50.80
43.69
37.40
32.01
27.30
22.91
18.58
14.37
10.64
7.94
6.62
6.80
8.34
10.99
14.68
19.49
25.46
32.32
39.39
45.78
50.70
53.90
55.74
56.94
58.20
59.83
61.60
62.92
63.13
61.83
59.07
55.29
51.29
47.97
46.04
45.78
46.81
48.13
48.33
46.04
40.30
30.78
18.01
3.33
-11.08
-22.65
-28.92
-28.38
-21.02
-8.43
6.67
21.17
32.27
37.79
36.27
27.16
11.23
-8.99
-29.16
-44.07
-49.25
-42.82
-26.37
-4.48
17.14
33.90
43.76
47.31
46.61
43.68
39.57
34.37
27.98
20.77
13.79
8.24
4.86
3.37
2.76
1.84
-0.02
-2.40
-4.00
-3.26
0.94
8.68
18.68
28.69
36.13
39.08
37.03
31.15
23.95
18.35
16.60
19.52
26.17
34.05
39.67
39.46
30.79
12.81
-13.23
-44.31
-76.80
-107.54
-134.76
-158.02
-177.68
-194.16
-207.62
-217.91
-224.84
-228.01
-226.70
-219.84
-206.43
-186.24
-160.62
-132.46
-105.49
-82.98
-66.53
-55.59
-47.91
-40.36
-30.24
-16.09
2.06
22.74
43.73
62.98
79.23
92.11
101.40
106.12
104.11
92.93
71.46
41.52
8.23
-21.38
-40.85
-46.66
-39.21
-22.07
0.04
23.12
44.85
64.25
80.72
93.33
100.74
101.98
97.28
88.33
77.90
68.74
62.50
59.07
56.87
53.78
48.26
40.06
30.14
20.08
11.16
3.81
-2.32
-7.94
-13.53
-19.14
-24.53
-29.53
-34.26
-38.90
-43.39
-46.96
-48.27
-45.72
-38.11
-25.14
-7.56
12.94
34.03
53.17
67.97
76.70
78.60
74.07
64.60
52.27
39.15
26.85
16.28
7.71
0.99
-4.25
-8.42
-11.96
-15.24
-18.73
-23.05
-28.96
-37.00
-47.01
-57.74
-66.88
-71.61
-69.53
-59.50
-42.22
-20.06
3.34
23.99
38.39
44.42
41.83
32.29
18.65
3.60
-11.44
-26.52
-42.26
-58.70
-74.56
-87.72
-96.49
-100.70
-101.78
-101.62
-101.32
-100.34
-97.13
-90.50
-80.86
-70.69
-63.72
-63.44
-71.53
-86.79
-105.04
-119.99
-125.13
-115.94
-91.81
-56.58
-17.27
18.60
45.65
62.18
69.89
72.20
72.21
71.46
69.94
66.88
61.76
54.87
47.24
40.15
34.54
30.64
27.81
24.99
21.12
15.62
8.50
0.00
-9.94
-21.91
-36.66
-54.19
-72.80
-88.98
-98.47
-98.01
-86.97
-67.94
-45.62
-24.89
-8.81
2.35
10.70
19.33
30.77
46.01
64.31
83.87
102.58
118.63
130.84
138.48
141.12
138.47
130.48
117.60
101.11
83.02
65.73
51.32
40.82
33.98
29.42
25.21
19.77
12.35
3.32
-6.00
-13.86
-18.62
-19.29
-15.75
-8.67
0.78
11.31
21.56
30.29
36.43
39.50
40.21
40.61
43.42
50.66
62.19
75.19
85.20
88.21
82.79
70.81
56.43
43.85
35.32
30.44
27.10
23.22
18.06
12.42
7.96
6.44
9.42
18.23
33.90
56.48
84.34
113.79
139.92
158.28
166.61
165.55
157.95
147.17
135.65
124.51
114.21
105.29
98.48
93.88
89.99
83.59
70.97
49.98
21.48
-10.65
-41.14
-65.68
-82.63
-93.30
-100.79
-108.23
-117.43
-128.45
-140.09
-150.55
-158.06
-161.09
-158.43
-149.17
-133.03
-110.63
-83.70
-55.02
-28.00
-5.90
8.99
15.81
15.31
9.42
0.58
-8.86
-17.11
-22.99
-26.00
-26.26
-24.65
-22.74
-22.55
-25.92
-33.80
-45.78
-60.13
-74.52
-86.82
-95.80
-101.33
-104.07
-105.06
-105.17
-104.81
-103.74
-101.03
-95.24
-84.95
-69.45
-49.33
-26.63
-4.32
14.74
28.81
37.86
43.33
47.36
51.82
57.72
65.08
73.15
80.79
86.78
89.98
89.43
84.44
74.73
60.58
42.78
22.56
1.42
-19.22
-38.17
-54.67
-68.37
-79.23
-87.45
-93.31
-96.98
-98.52
-97.72
-94.16
-87.41
-77.25
-63.85
-47.84
-30.16
-11.85
6.20
23.35
39.11
52.97
64.20
71.77
74.55
71.65
62.82
48.75
31.11
12.13
-6.00
-21.83
-34.96
-45.92
-55.55
-64.28
-71.71
-76.78
-78.27
-75.47
-68.46
-58.06
-45.36
-31.32
-16.63
-1.66
13.31
28.02
42.30
56.06
69.34
82.18
94.43
105.56
114.64
120.26
120.82
114.94
102.08
82.98
59.78
35.50
13.03
-6.02
-21.75
-35.71
-49.76
-64.72
-79.80
-92.91
-101.78
-105.17
-103.33
-97.73
-90.00
-81.22
-71.69
-61.41
-50.62
-40.02
-30.35
-21.77
-13.67
-5.15
4.01
12.76
18.98
20.60
16.96
9.40
0.76
-5.91
-8.72
-7.65
-4.26
-0.82
0.70
-0.83
-5.57
-12.75
-20.88
-27.97
-31.88
-30.98
-24.88
-14.83
-3.72
4.70
6.83
0.45
-14.61
-36.22
-60.48
-82.63
-98.48
-105.39
-102.92
-92.73
-77.59
-59.94
-40.81
-19.60
4.72
31.95
59.64
83.31
98.11
101.00
92.17
74.65
52.55
29.04
5.46
-17.80
-39.40
-55.72
-61.07
-50.08
-20.59
24.38
76.89
126.46
163.55
182.33
182.00
165.95
139.58
107.94
74.38
40.49
7.08
-24.48
-51.76
-71.35
-80.12
-76.52
-61.11
-35.99
-3.57
34.31
76.40
120.78
163.63
199.02
220.27
222.64
205.55
173.14
132.70
91.60
54.67
23.07
-4.76
-30.91
-56.15
-79.29
-98.16
-110.99
-117.48
-118.94
-117.46
-115.02
-112.72
-110.84
-109.19
-107.49
-105.37
-101.94
-95.48
-83.70
-64.61
-37.83
-5.47
28.11
57.50
77.71
85.21
78.19
56.49
21.58
-23.01
-71.42
-115.98
-148.92
-164.92
-163.06
-147.25
-124.54
-102.13
-84.70
-73.18
-65.53
-58.75
-50.75
-41.10
-30.58
-20.11
-9.86
0.82
12.72
25.93
39.35
51.03
59.08
62.52
61.90
59.04
56.25
55.35
57.10
61.04
65.94
70.33
73.14
73.97
73.07
71.09
68.70
66.18
63.42
59.94
55.35
49.56
42.97
36.30
30.28
25.28
21.27
17.87
14.66
11.38
8.09
5.04
2.50
0.52
-1.10
-2.74
-4.73
-7.16
-9.85
-12.52
-15.04
-17.51
-20.07
-22.50
-23.82
-22.38
-16.51
-5.42
10.09
27.65
44.26
57.41
66.07
70.80
72.98
73.96
74.44
74.64
74.78
75.46
77.45
81.00
85.28
88.40
88.15
83.07
73.17
59.89
45.39
31.61
19.57
9.32
0.36
-7.90
-15.71
-22.98
-29.31
-34.07
-36.52
-36.01
-32.37
-26.24
-19.07
-12.77
-8.85
-7.70
-8.19
-7.99
-4.52
4.00
17.80
35.41
54.15
70.84
82.57
87.22
83.84
72.79
55.69
35.05
13.56
-6.87
-25.81
-44.37
-64.49
-87.57
-113.33
-139.40
-162.07
-177.70
-184.24
-181.95
-173.04
-160.50
-146.68
-132.40
-116.85
-98.23
-74.73
-45.45
-11.08
26.08
62.45
94.03
117.31
130.09
131.87
123.79
108.18
87.98
66.31
46.20
30.32
20.64
17.94
21.43
28.83
36.89
42.45
43.44
39.47
31.66
22.00
12.47
4.26
-2.28
-7.48
-11.78
-15.53
-18.77
-21.40
-23.40
-24.84
-25.90
-26.78
-27.62
-28.53
-29.53
-30.50
-31.24
-31.38
-30.56
-28.57
-25.43
-21.52
-17.47
-13.99
-11.64
-10.58
-10.55
-10.98
-11.17
-10.63
-9.15
-6.92
-4.25
-1.48
1.23
3.97
6.89
10.08
13.44
16.76
19.78
22.36
24.44
26.02
26.96
27.09
26.19
24.23
21.49
18.41
15.53
13.11
11.05
9.01
6.65
3.84
0.78
-2.29
-5.18
-7.98
-10.99
-14.46
-18.46
-22.78
-27.02
-30.63
-33.17
-34.23
-33.59
-31.28
-27.66
-23.48
-19.63
-16.96
-15.82
-16.08
-17.15
-18.29
-19.02
-19.22
-19.14
-19.15
-19.50
-20.27
-21.48
-23.28
-25.92
-29.71
-34.52
-39.90
-44.95
-48.84
-51.13
-51.99
-52.03
-51.98
-52.36
-53.38
-55.09
-57.59
-61.00
-65.32
-70.20
-74.92
-78.54
-80.25
-79.48
-76.02
-69.91
-61.29
-50.45
-37.93
-24.60
-11.69
-0.54
7.80
12.80
14.51
13.38
9.97
4.74
-1.79
-8.95
-15.64
-20.54
-22.48
-21.13
-17.18
-12.25
-8.14
-5.96
-5.62
-5.92
-5.31
-2.76
1.67
6.93
11.56
14.50
15.53
15.38
15.37
16.93
21.20
28.67
39.02
51.17
63.46
74.15
82.01
86.72
89.06
90.66
93.51
99.39
109.32
123.06
138.83
153.31
162.19
161.39
148.51
123.89
90.78
54.28
19.60
-9.61
-32.00
-48.12
-59.45
-67.34
-72.64
-75.77
-77.13
-77.26
-76.69
-75.48
-73.12
-68.66
-61.29
-50.89
-38.24
-24.70
-11.79
-0.48
8.85
16.27
21.88
25.48
26.58
24.74
19.98
12.93
4.74
-3.24
-9.97
-14.96
-18.25
-20.21
-21.33
-22.01
-22.53
-23.09
-23.90
-25.11
-26.75
-28.63
-30.36
-31.42
-31.35
-30.01
-27.63
-24.75
-22.03
-19.91
-18.40
-17.14
-15.55
-13.26
-10.32
-7.38
-5.47
-5.64
-8.52
-13.99
-21.23
-29.01
-36.06
-41.49
-44.93
-46.54
-46.90
-46.77
-46.80
-47.27
-47.94
-48.07
-46.72
-43.11
-37.00
-28.71
-18.99
-8.65
1.62
11.28
19.82
26.75
31.79
35.02
37.08
38.89
41.16
43.95
46.64
48.27
48.14
46.28
43.48
40.92
39.74
40.62
43.82
49.16
56.09
63.44
69.23
70.86
65.83
52.82
32.49
7.47
-18.79
-43.35
-65.02
-84.34
-102.67
-120.86
-138.30
-152.96
-162.12
-163.43
-155.69
-139.26
-116.03
-89.22
-62.69
-40.12
-24.00
-14.82
-11.21
-10.66
-10.46
-8.11
-1.17
12.78
35.55
67.21
105.22
144.86
181.02
210.31
232.08
247.51
257.55
261.24
255.94
239.25
211.36
175.93
138.87
105.80
79.85
61.10
47.71
37.37
28.14
18.30
6.06
-10.15
-30.88
-54.81
-78.71
-98.47
-110.58
-113.33
-107.19
-94.25
-77.20
-58.31
-38.85
-19.11
1.03
21.29
40.38
55.95
65.20
65.94
57.38
40.50
17.66
-8.10
-33.72
-56.34
-73.45
-83.21
-85.28
-81.37
-75.13
-70.84
-71.53
-77.40
-85.68
-91.94
-92.03
-83.88
-68.07
-47.26
-24.84
-3.27
16.99
37.36
60.05
86.12
113.96
139.05
155.32
157.57
143.90
116.59
81.11
43.84
9.84
-18.33
-40.09
-55.68
-65.13
-68.22
-65.13
-57.38
-47.80
-39.71
-35.59
-35.73
-37.82
-37.73
-31.45
-16.98
4.68
30.25
55.84
78.62
97.30
111.42
119.92
120.61
110.85
89.35
57.65
20.47
-15.60
-44.13
-60.74
-63.95
-55.10
-37.54
-16.06
3.86
16.87
18.83
7.91
-14.72
-44.91
-76.34
-102.13
-116.75
-117.61
-105.64
-85.04
-61.77
-41.78
-29.16
-25.13
-27.90
-33.56
-37.54
-36.33
-28.61
-15.70
-0.86
11.95
19.54
20.39
14.98
5.40
-5.24
-13.59
-16.55
-12.09
-0.20
16.72
34.13
46.71
50.46
44.42
31.34
16.76
6.94
6.64
17.66
38.65
66.03
95.44
123.04
146.20
163.80
175.93
183.24
186.44
185.70
180.58
170.31
154.41
133.33
108.63
82.37
56.12
30.18
3.57
-25.11
-56.39
-89.03
-120.24
-146.71
-166.07
-177.70
-182.48
-182.01
-177.70
-170.55
-161.40
-151.45
-142.35
-135.75
-132.59
-132.37
-132.94
-130.86
-122.36
-104.72
-77.31
-42.06
-2.80
35.90
70.23
97.99
118.65
132.67
140.59
142.57
138.54
128.82
114.55
97.62
79.83
61.79
42.44
19.66
-8.29
-41.21
-76.26
-108.60
-133.13
-146.49
-148.28
-140.78
-127.77
-112.97
-99.06
-87.58
-79.36
-74.83
-74.10
-76.79
-81.81
-87.33
-91.07
-90.54
-83.58
-69.13
-47.95
-22.80
2.18
23.02
37.42
45.68
50.25
54.12
59.16
65.14
70.20
71.95
68.71
59.94
45.96
27.23
4.19
-22.31
-50.14
-75.37
-92.75
-97.24
-86.12
-60.58
-25.87
10.17
39.79
57.77
62.81
57.24
45.30
31.28
17.96
6.35
-3.88
-13.34
-22.47
-31.18
-39.14
-46.12
-51.98
-56.52
-58.79
-56.77
-47.44
-27.72
3.98
46.77
97.23
150.60
202.29
249.16
288.93
319.30
337.18
339.25
323.53
291.03
246.28
195.91
146.53
102.13
63.30
27.87
-7.65
-46.38
-89.81
-137.00
-184.60
-226.25
-255.07
-265.66
-256.32
-230.03
-193.46
-154.48
-119.31
-91.66
-70.52
-54.09
-40.28
-27.20
-13.00
4.41
26.92
55.03
85.32
115.25
138.93
150.78
147.44
128.75
97.25
57.14
12.65
-35.61
-83.13
-130.16
-177.57
-225.45
-271.70
-311.65
-338.88
-347.46
-337.54
-306.08
-257.77
-199.13
-136.10
-72.24
-8.77
53.64
133.64
197.79
245.17
272.82
282.93
282.86
281.84
286.04
294.87
301.02
291.24
262.90
216.62
160.25
104.90
59.25
25.84
0.98
-22.52
-53.97
-93.89
-141.82
-193.43
-241.49
-277.43
-293.35
-284.39
-250.64
-199.24
-137.70
-76.20
-22.48
20.49
54.61
85.15
117.89
156.25
198.46
240.03
272.73
288.69
283.57
258.23
218.27
171.26
123.57
78.00
34.72
-7.71
-49.77
-89.92
-125.25
-152.82
-170.82
-178.52
-175.53
-161.49
-136.47
-102.20
-62.86
-24.60
6.83
28.93
44.21
59.18
80.62
111.25
147.21
179.23
196.74
193.07
168.25
128.43
82.33
37.10
-4.08
-41.66
-77.81
-114.19
-151.19
-188.03
-223.23
-254.67
-279.26
-292.89
-291.62
-273.52
-239.95
-195.84
-148.11
-102.98
-63.62
-29.38
2.66
34.97
66.91
93.92
108.99
105.51
79.88
32.39
-33.56
-112.93
-200.01
-288.33
-370.29
-437.52
-482.70
-502.06
-497.22
-474.82
-444.04
-413.13
-386.78
-365.73
-348.05
-331.05
-312.68
-292.10
-269.29
-244.72
-219.11
-193.45
-168.87
-146.30
-126.39
-109.20
-94.25
-80.74
-67.88
-55.16
-42.59
-30.63
-19.95
-11.24
-4.84
-0.70
1.66
2.87
3.56
4.11
4.61
4.94
4.90
4.42
3.67
3.05
3.06
4.16
6.60
10.36
15.23
20.84
26.88
33.11
39.44
45.82
52.21
58.49
64.48
70.00
74.90
79.21
83.03
86.55
89.94
93.24
96.34
99.04
101.14
102.57
103.43
104.02
104.70
105.80
107.40
109.41
111.51
113.41
115.02
116.59
118.64
121.83
126.66
133.25
141.31
150.19
159.18
167.82
176.05
184.32
193.50
204.66
218.82
236.49
257.17
279.17
299.69
315.66
324.60
325.54
319.19
307.62
293.30
278.15
263.07
247.91
231.85
214.04
194.05
172.34
150.36
130.30
114.46
104.50
100.84
102.56
107.97
115.36
123.64
132.53
142.07
152.10
161.86
170.10
175.57
177.48
175.77
170.87
163.40
153.73
141.91
127.70
110.84
91.38
69.93
47.68
26.18
6.95
-9.07
-21.70
-31.58
-39.88
-47.87
-56.43
-66.04
-76.73
-88.10
-99.30
-108.84
-114.71
-114.86
-108.05
-94.51
-76.14
-55.85
-36.52
-19.93
-6.52
4.00
11.81
16.29
16.29
10.98
0.85
-11.95
-24.32
-33.48
-38.18
-39.05
-38.04
-37.29
-38.12
-40.65
-44.17
-47.89
-51.63
-55.95
-61.90
-70.51
-82.39
-97.51
-115.01
-132.99
-148.59
-158.40
-159.36
-150.04
-131.43
-106.90
-81.12
-58.26
-40.49
-27.51
-17.21
-7.25
3.51
14.46
23.76
29.56
31.12
29.29
25.98
23.22
22.07
22.25
22.37
20.85
16.82
10.55
3.34
-3.25
-8.19
-11.50
-14.30
-18.16
-24.49
-34.11
-47.00
-62.44
-79.13
-95.20
-108.34
-116.04
-116.28
-108.20
-92.66
-72.03
-49.45
-27.71
-8.43
8.19
22.90
36.57
49.57
61.58
71.89
79.90
85.61
89.55
92.57
95.39
98.18
100.52
101.54
100.33
96.33
89.65
81.01
71.47
62.01
53.13
44.69
36.00
26.18
14.49
0.55
-15.55
-33.27
-51.44
-68.31
-81.59
-88.93
-88.64
-80.36
-65.45
-46.61
-26.99
-9.13
5.69
17.37
26.51
33.64
38.90
42.19
43.59
43.69
43.46
43.81
45.00
46.45
46.95
45.34
41.11
34.76
27.54
20.83
15.44
11.28
7.35
2.24
-5.40
-16.35
-30.52
-46.82
-63.08
-76.41
-83.88
-83.34
-74.27
-58.01
-37.33
-15.45
5.03
22.77
37.63
50.03
60.29
68.29
73.72
76.51
77.27
77.16
77.40
78.64
80.56
82.00
81.58
78.46
72.77
65.61
58.49
52.61
48.26
44.71
40.43
33.65
22.96
7.78
-11.19
-31.89
-51.15
-65.48
-72.09
-69.91
-60.03
-45.19
-28.80
-13.55
-0.66
10.08
19.62
28.68
37.26
44.66
50.10
53.28
54.71
55.39
56.30
57.78
59.30
59.72
57.79
52.87
45.24
36.07
26.89
18.89
12.40
6.73
0.52
-7.76
-19.21
-34.12
-51.85
-70.75
-88.38
-101.84
-108.43
-106.39
-95.59
-77.70
-55.79
-33.36
-13.25
3.17
16.07
26.61
36.00
44.82
52.78
59.09
63.11
64.86
65.10
64.89
64.96
65.30
65.15
63.40
59.30
52.83
44.77
36.26
28.26
21.16
14.57
7.65
-0.60
-10.92
-23.64
-38.56
-54.88
-71.17
-85.43
-95.38
-98.95
-95.03
-83.88
-67.21
-47.69
-28.09
-10.50
4.10
15.73
24.86
31.96
37.24
40.71
42.49
42.94
42.62
41.99
41.16
39.76
37.17
32.88
26.89
19.76
12.46
5.86
0.31
-4.58
-9.87
-16.84
-26.58
-39.52
-55.01
-71.29
-85.68
-95.22
-97.50
-91.52
-78.09
-59.62
-39.23
-19.74
-2.86
10.97
22.17
31.36
38.86
44.65
48.66
51.10
52.53
53.57
54.57
55.30
55.06
53.04
48.79
42.50
34.88
26.81
18.87
11.06
2.75
-7.11
-19.57
-35.23
-53.72
-73.48
-91.71
-105.06
-110.54
-106.67
-94.07
-75.38
-54.24
-34.04
-16.86
-3.10
8.01
17.56
26.23
33.95
40.23
44.69
47.38
48.85
49.73
50.36
50.54
49.62
46.93
42.25
36.00
29.17
22.81
17.51
13.08
8.53
2.43
-6.63
-19.50
-35.97
-54.54
-72.51
-86.40
-92.98
-90.37
-78.78
-60.61
-39.61
-19.53
-2.80
10.00
19.83
28.20
36.14
43.60
49.76
53.59
54.69
53.52
51.28
49.22
48.11
47.75
47.23
45.30
41.13
34.68
26.77
18.66
11.45
5.49
0.27
-5.38
-12.72
-22.66
-35.49
-50.80
-67.61
-84.29
-98.66
-108.21
-110.67
-104.79
-90.96
-71.29
-49.04
-27.47
-8.86
6.05
17.75
27.24
35.20
41.66
46.22
48.59
49.04
48.36
47.50
46.96
46.51
45.22
42.08
36.62
29.22
21.05
13.49
7.41
2.72
-1.63
-7.21
-15.47
-27.24
-42.34
-59.53
-76.68
-91.09
-100.05
-101.55
-94.96
-81.27
-62.87
-42.83
-23.89
-7.70
5.30
15.52
23.60
29.83
34.20
36.57
37.13
36.51
35.49
34.58
33.74
32.39
29.74
25.34
19.40
12.71
6.25
0.66
-4.19
-9.14
-15.57
-24.73
-37.29
-52.87
-69.83
-85.43
-96.36
-99.67
-93.79
-79.15
-58.23
-34.70
-12.14
7.13
22.52
34.87
45.50
55.28
64.27
71.88
77.56
81.27
83.63
85.56
87.78
90.32
92.60
93.73
93.12
90.86
87.71
84.80
83.04
82.69
83.26
83.70
82.71
79.22
72.80
64.00
54.48
46.90
44.24
48.53
59.90
76.21
93.87
109.15
119.43
123.69
122.06
115.07
103.25
87.11
67.65
46.43
25.29
5.53
-12.45
-28.87
-43.75
-56.15
-64.21
-66.16
-61.59
-52.23
-41.53
-33.42
-30.83
-34.89
-44.77
-58.43
-73.52
-87.99
-100.44
-110.13
-116.87
-120.73
-121.98
-120.89
-117.83
-113.33
-108.14
-103.06
-98.67
-94.85
-90.64
-84.51
-74.98
-61.50
-44.84
-26.96
-10.28
3.25
12.72
18.35
21.07
21.97
21.82
20.93
19.26
16.70
13.30
9.39
5.42
1.79
-1.35
-4.12
-6.91
-10.19
-14.35
-19.65
-26.17
-33.83
-42.34
-51.07
-59.08
-65.19
-68.27
-67.61
-63.11
-55.31
-45.20
-33.92
-22.58
-12.19
-3.71
2.00
4.28
2.94
-1.55
-8.10
-15.22
-21.53
-26.24
-29.30
-31.36
-33.44
-36.57
-41.48
-48.58
-57.96
-69.24
-81.39
-92.52
-100.02
-101.28
-94.59
-80.06
-59.82
-37.40
-16.47
0.30
11.99
19.16
23.08
24.90
25.21
24.22
22.21
19.91
18.32
18.30
20.06
22.96
25.78
27.26
26.62
23.81
19.31
13.66
7.11
-0.57
-9.94
-21.51
-35.17
-49.85
-63.39
-72.93
-75.74
-70.21
-56.66
-37.39
-15.95
4.13
20.55
32.81
41.86
49.15
55.67
61.52
66.16
69.07
70.25
70.31
70.00
69.64
68.87
66.71
62.18
54.89
45.32
34.68
24.37
15.36
7.80
1.07
-5.93
-14.28
-24.65
-36.99
-50.25
-62.41
-70.77
-72.70
-66.64
-52.84
-33.50
-12.05
8.07
24.60
36.98
45.95
52.62
57.60
60.75
61.51
59.60
55.40
49.87
43.93
37.99
31.75
24.57
16.06
6.54
-2.93
-11.11
-17.35
-22.13
-26.98
-33.95
-44.62
-59.34
-76.72
-93.74
-106.27
-109.94
-101.33
-78.96
-44.05
-0.55
45.69
88.35
122.34
144.99
156.54
159.59
157.96
155.46
154.89
157.67
163.97
173.03
183.63
194.38
204.02
211.52
216.37
218.75
219.50
220.04
221.79
225.49
230.62
235.07
235.60
228.84
212.66
187.19
155.00
120.10
86.40
56.06
28.79
2.31
-26.46
-60.00
-99.25
-143.23
-189.02
-232.07
-266.97
-288.88
-295.19
-286.80
-268.21
-245.92
-225.97
-211.71
-203.09
-197.64
-192.48
-186.01
-178.30
-170.27
-162.49
-154.59
-145.59
-134.89
-123.01
-111.57
-102.49
-96.97
-94.86
-94.59
-93.96
-91.14
-85.49
-77.75
-69.69
-63.25
-59.70
-59.08
-60.31
-61.71
-61.79
-59.98
-56.80
-53.62
-51.92
-52.57
-55.47
-59.60
-63.65
-66.66
-68.39
-69.42
-70.73
-73.27
-77.63
-84.07
-92.59
-102.84
-113.78
-123.30
-128.39
-125.88
-113.75
-92.20
-63.92
-33.25
-4.58
19.11
37.01
50.04
59.83
67.65
73.89
78.37
80.84
81.43
80.71
79.32
77.66
75.73
73.25
69.86
65.39
59.93
53.66
46.72
38.91
29.62
18.06
3.80
-12.47
-28.44
-40.41
-44.20
-36.88
-18.06
9.61
41.20
71.25
95.60
112.51
122.52
127.47
129.23
128.97
127.07
123.60
118.70
112.75
106.15
99.05
91.32
82.77
73.49
64.08
55.53
48.79
44.35
41.87
40.23
37.90
33.36
25.58
14.42
0.84
-12.95
-23.92
-28.92
-25.86
-14.65
2.53
21.82
39.00
50.94
56.46
56.19
51.78
44.90
36.73
27.92
19.12
11.16
4.93
0.86
-1.49
-3.44
-6.60
-12.03
-19.75
-28.68
-37.26
-44.22
-49.23
-53.00
-56.86
-62.39
-70.89
-83.07
-98.63
-115.89
-131.56
-141.38
-141.26
-128.96
-105.26
-73.95
-40.51
-10.07
14.26
31.82
43.67
51.20
55.01
54.79
50.05
40.97
28.89
16.03
4.62
-3.87
-9.16
-12.03
-13.84
-15.82
-18.73
-22.70
-27.29
-31.82
-35.62
-38.21
-39.35
-38.96
-37.05
-33.68
-29.04
-23.47
-17.59
-12.24
-8.34
-6.62
-7.32
-10.03
-13.82
-17.56
-20.29
-21.48
-21.10
-19.48
-17.16
-14.73
-12.66
-11.25
-10.52
-10.18
-9.76
-8.81
-7.00
-4.31
-0.83
3.37
8.35
14.21
20.93
28.17
35.32
41.72
47.01
51.38
55.44
59.93
65.32
71.52
77.91
83.60
87.73
89.80
89.76
87.97
84.90
80.91
76.09
70.33
63.52
55.70
47.17
38.43
29.94
21.96
14.44
7.08
-0.45
-8.35
-16.53
-24.52
-31.63
-37.22
-40.87
-42.62
-42.90
-42.31
-41.38
-40.46
-39.72
-39.09
-38.28
-36.62
-33.29
-27.57
-19.45
-9.88
-0.66
6.32
9.93
10.24
8.29
5.31
2.02
-1.60
-5.80
-10.50
-15.04
-18.53
-20.50
-21.27
-21.81
-23.09
-25.74
-29.64
-34.04
-38.08
-41.06
-42.64
-42.71
-41.32
-38.69
-35.53
-32.61
-30.52
-29.42
-29.12
-29.25
-29.43
-29.32
-28.65
-27.71
-26.79
-26.11
-25.70
-25.53
-25.52
-25.45
-25.01
-23.92
-23.72
-25.90
-31.05
-38.38
-46.30
-53.14
-57.72
-59.56
-58.85
-59.44
-64.55
-75.09
-89.14
-103.53
-115.62
-124.01
-128.55
-129.66
-133.27
-143.95
-162.63
-186.09
-209.51
-229.32
-244.04
-254.02
-259.85
-268.59
-284.90
-308.60
-335.11
-359.27
-378.66
-393.77
-406.39
-380.11
-295.31
-157.02
4.97
156.53
277.04
361.60
414.98
442.34
455.72
456.25
442.67
415.00
376.33
330.87
281.66
233.74
191.22
158.90
135.56
120.04
112.17
112.30
119.11
128.37
134.55
133.20
123.64
105.22
80.05
51.92
24.63
-0.18
-23.65
-48.61
-77.93
-112.29
-151.35
-191.34
-225.52
-246.18
-247.85
-229.79
-196.19
-154.45
-111.69
-73.20
-40.68
-13.03
12.07
36.56
61.47
87.08
113.02
138.37
161.27
179.38
190.65
194.25
190.65
181.43
168.39
152.96
136.28
119.45
103.88
91.09
82.09
76.82
74.02
71.74
68.09
61.97
53.31
42.85
31.82
21.31
12.00
4.03
-2.82
-8.75
-13.57
-16.66
-17.32
-15.20
-10.76
-5.20
-0.05
3.47
4.82
4.30
2.67
0.79
-0.65
-1.26
-0.86
0.49
2.60
5.05
7.34
8.98
9.74
9.68
9.09
8.30
7.51
6.76
5.96
5.14
4.51
4.48
5.41
7.38
10.10
13.02
15.58
17.46
18.69
19.46
20.04
20.46
20.59
20.18
19.09
17.37
15.29
13.23
11.56
10.45
9.84
9.49
9.06
8.37
7.42
6.44
5.69
5.41
5.63
6.24
7.02
7.76
8.32
8.56
8.30
7.39
5.74
3.47
0.88
-1.59
-3.57
-4.89
-5.69
-6.32
-7.20
-8.63
-10.70
-13.30
-16.23
-19.29
-22.38
-25.48
-28.56
-31.48
-34.06
-36.03
-37.21
-37.58
-37.35
-36.84
-36.42
-36.33
-36.63
-37.24
-38.07
-39.08
-40.39
-42.10
-44.22
-46.49
-48.43
-49.52
-49.39
-48.08
-46.09
-44.20
-43.18
-43.41
-44.68
-46.21
-46.91
-45.86
-42.69
-37.67
-31.38
-24.02
-14.97
-2.87
13.67
35.10
60.43
87.38
113.19
135.27
151.54
160.24
159.95
149.93
130.98
105.97
79.49
56.48
40.31
31.42
27.35
24.21
18.76
9.83
-1.52
-12.89
-21.90
-27.19
-28.54
-26.67
-22.62
-17.42
-11.92
-6.93
-3.30
-1.84
-3.27
-7.83
-15.16
-24.22
-33.54
-41.64
-47.43
-50.52
-51.30
-50.74
-49.89
-49.44
-49.38
-49.11
-47.84
-45.09
-41.02
-36.33
-31.93
-28.46
-26.02
-24.26
-22.73
-21.16
-19.51
-17.88
-16.21
-14.17
-11.30
-7.28
-2.23
3.25
8.30
12.11
14.47
15.85
17.32
19.95
24.16
29.34
33.87
35.95
34.38
29.21
21.76
13.91
7.30
2.61
-0.47
-2.76
-5.01
-7.48
-9.87
-11.66
-12.38
-11.72
-9.46
-5.46
0.34
7.69
15.80
23.27
28.41
29.78
26.78
20.00
11.13
2.46
-3.94
-6.89
-6.51
-4.13
-1.69
-1.02
-3.03
-7.39
-12.79
-17.61
-20.82
-22.65
-24.56
-28.61
-36.60
-49.31
-66.30
-85.84
-105.16
-120.69
-128.50
-125.11
-108.78
-80.50
-44.21
-5.93
28.19
53.74
69.20
75.65
75.57
71.47
65.00
57.08
48.44
40.04
33.12
28.58
26.53
26.07
25.64
23.64
19.05
11.65
1.96
-9.19
-20.83
-31.82
-40.79
-46.08
-46.08
-39.86
-27.78
-11.68
5.58
21.11
32.98
40.66
44.76
46.23
45.59
42.60
36.65
27.32
15.01
0.98
-13.12
-25.80
-36.21
-44.30
-50.53
-55.62
-60.29
-65.38
-71.83
-80.52
-91.68
-104.02
-114.49
-118.73
-112.57
-93.90
-63.95
-27.20
10.07
42.08
65.43
79.64
86.50
88.50
87.58
84.63
79.88
73.59
66.50
59.73
54.17
50.13
47.14
44.24
40.51
35.41
28.78
20.52
10.37
-2.00
-16.38
-31.29
-43.75
-49.86
-46.17
-31.27
-6.63
23.63
54.15
80.12
98.57
108.76
111.71
109.10
102.55
93.25
82.07
69.89
57.58
46.00
35.74
27.01
19.55
12.87
6.48
0.03
-6.62
-13.57
-21.20
-30.11
-40.75
-52.68
-63.91
-70.93
-69.81
-57.80
-34.90
-4.31
28.45
57.49
78.45
89.64
91.92
87.56
79.02
68.23
56.48
44.77
34.10
25.48
19.59
16.49
15.49
15.38
14.78
12.68
8.76
3.41
-2.53
-8.20
-13.14
-17.40
-21.22
-24.59
-26.90
-27.04
-23.87
-16.94
-6.98
4.23
14.43
21.77
25.43
25.84
24.20
21.90
19.89
18.55
17.76
17.22
16.59
15.66
14.29
12.36
9.81
6.72
3.27
-0.24
-3.54
-6.52
-9.26
-11.97
-14.75
-17.45
-19.54
-20.31
-19.12
-15.65
-10.13
-3.31
3.79
10.11
14.89
17.73
18.59
17.71
15.49
12.38
8.85
5.35
2.24
-0.26
-2.09
-3.33
-4.17
-4.79
-5.36
-5.98
-6.74
-7.78
-9.22
-11.15
-13.41
-15.55
-16.91
-16.91
-15.31
-12.44
-9.11
-6.17
-4.14
-2.82
-1.50
0.59
3.74
7.33
10.12
10.79
8.75
4.53
-0.42
-4.43
-6.44
-6.53
-5.75
-5.47
-6.63
-9.38
-13.40
-18.40
-24.43
-31.57
-39.28
-45.89
-48.93
-46.24
-37.27
-23.83
-9.35
2.68
10.46
14.55
17.04
20.00
23.86
27.29
28.20
25.35
19.32
12.25
6.55
3.55
2.84
2.73
1.49
-1.53
-5.60
-9.08
-10.47
-9.31
-6.44
-3.57
-2.40
-3.85
-7.66
-12.57
-16.92
-19.32
-19.26
-17.11
-13.91
-10.75
-8.33
-6.73
-5.55
-4.25
-2.56
-0.62
1.12
2.17
2.24
1.44
0.15
-1.12
-1.93
-1.98
-1.19
0.26
1.94
3.14
3.04
0.94
-3.43
-9.67
-16.67
-22.87
-26.69
-27.03
-23.58
-16.87
-8.13
1.05
9.07
14.73
17.40
17.19
14.76
11.18
7.46
4.32
2.05
0.46
-0.93
-2.60
-4.82
-7.46
-10.03
-11.83
-12.29
-11.29
-9.37
-7.75
-7.99
-11.52
-19.02
-30.02
-42.72
-54.30
-61.65
-62.30
-55.28
-41.41
-23.11
-3.60
14.07
27.76
36.56
40.64
40.82
38.26
34.12
29.54
25.45
22.47
20.72
19.83
19.05
17.58
14.92
10.99
6.11
0.80
-4.49
-9.50
-14.15
-18.34
-21.81
-24.11
-24.74
-23.41
-20.29
-16.07
-11.73
-8.17
-5.76
-4.19
-2.57
0.21
4.99
11.99
20.74
30.17
39.03
46.13
50.68
52.43
51.65
49.09
45.71
42.43
39.84
37.91
36.06
33.29
28.59
21.51
12.41
2.46
-6.71
-13.67
-17.62
-18.62
-17.41
-14.93
-11.95
-8.80
-5.52
-2.07
1.36
4.35
6.26
6.49
4.61
0.49
-5.61
-12.99
-20.49
-26.69
-30.26
-30.46
-27.53
-22.70
-17.92
-15.15
-15.63
-19.52
-25.89
-33.13
-39.52
-43.70
-44.99
-43.39
-39.42
-33.94
-27.90
-22.12
-17.13
-13.19
-10.35
-8.68
-8.43
-9.93
-13.45
-18.84
-25.43
-32.05
-37.50
-40.95
-42.29
-42.15
-41.54
-41.54
-42.92
-46.17
-51.64
-59.48
-69.47
-80.53
-90.47
-96.28
-95.02
-85.05
-66.94
-43.56
-19.04
2.63
18.94
29.39
35.01
37.40
37.75
36.43
33.09
27.23
18.68
7.88
-4.22
-16.43
-27.67
-37.31
-45.31
-52.16
-58.73
-65.97
-74.70
-85.49
-98.52
-113.31
-128.31
-140.66
-146.52
-142.17
-125.50
-97.22
-60.99
-22.24
13.85
44.08
67.85
86.25
100.56
110.98
116.50
115.89
108.99
97.39
84.00
71.76
62.36
55.63
49.93
43.37
34.92
24.99
15.15
7.18
2.02
-0.80
-3.01
-6.76
-13.79
-24.65
-38.66
-54.01
-68.14
-77.99
-80.50
-73.07
-54.42
-25.13
12.15
53.13
92.93
127.08
152.27
166.65
169.75
162.35
146.45
125.16
102.33
81.66
65.64
54.73
47.28
40.26
30.58
16.30
-2.64
-24.58
-46.99
-67.44
-84.57
-98.17
-109.03
-118.31
-127.09
-136.15
-145.74
-155.30
-163.18
-166.59
-162.15
-147.13
-120.76
-85.01
-44.15
-3.47
32.51
61.12
81.61
94.35
99.90
98.65
91.23
79.10
64.70
50.93
40.04
32.80
28.43
25.34
22.15
18.42
14.68
11.74
9.92
8.64
6.46
1.73
-6.93
-20.03
-36.84
-55.22
-71.74
-82.23
-82.90
-71.57
-48.57
-16.74
19.65
56.43
90.86
122.03
150.19
175.52
197.20
213.35
221.81
221.41
212.74
198.12
180.70
163.30
147.54
133.65
121.01
108.97
97.37
86.62
77.25
69.26
61.88
53.73
43.55
30.86
16.33
1.55
-11.69
-22.19
-29.82
-35.53
-40.85
-47.27
-55.75
-66.50
-78.95
-91.82
-103.20
-110.78
-112.47
-107.13
-95.13
-78.33
-59.41
-40.74
-23.61
-8.12
6.09
18.96
29.52
36.24
37.98
34.85
28.41
20.89
14.08
8.46
3.17
-3.09
-11.08
-20.37
-29.49
-36.83
-41.59
-44.30
-46.68
-50.87
-58.56
-70.44
-85.98
-103.31
-119.43
-130.54
-132.84
-123.78
-103.22
-73.91
-40.68
-8.68
18.54
40.10
57.34
72.27
85.78
96.88
103.34
103.25
96.51
85.21
72.67
61.76
53.58
47.03
39.67
29.23
14.90
-2.25
-19.79
-35.24
-47.18
-55.91
-63.18
-71.38
-82.64
-98.15
-117.91
-140.55
-163.35
-182.37
-193.09
-191.51
-175.65
-146.54
-108.20
-66.44
-26.84
6.99
34.17
55.95
74.24
90.23
103.83
114.07
120.16
122.26
121.57
119.72
117.85
116.05
113.46
108.90
101.87
93.00
83.94
76.57
71.93
69.56
67.53
63.30
54.85
41.70
25.16
7.68
-8.17
-20.88
-30.53
-38.69
-47.70
-59.79
-76.34
-97.49
-121.81
-146.32
-166.73
-178.31
-177.19
-161.94
-134.34
-99.14
-62.50
-29.93
-4.60
13.12
24.85
32.69
37.93
40.68
40.40
36.84
30.58
22.94
15.28
8.21
1.32
-6.50
-16.27
-28.16
-41.18
-53.59
-63.71
-70.80
-75.56
-79.79
-85.82
-95.52
-109.56
-127.04
-145.42
-161.07
-170.00
-169.01
-156.75
-134.29
-104.91
-73.04
-42.76
-16.46
5.58
24.61
42.16
58.86
73.97
85.97
93.54
96.52
96.15
94.45
93.26
93.28
93.87
93.41
90.26
83.60
73.78
62.08
50.09
38.85
28.46
18.06
6.30
-8.20
-26.25
-47.93
-72.33
-97.50
-120.57
-138.07
-146.77
-144.65
-131.78
-110.44
-84.48
-57.96
-33.82
-13.10
4.83
21.43
37.79
54.01
69.10
81.68
90.73
96.16
98.80
99.92
100.58
101.13
101.06
99.41
95.28
88.35
79.10
68.56
57.90
47.93
38.82
30.15
21.21
11.24
-0.29
-13.63
-28.68
-44.84
-60.86
-74.74
-83.96
-86.10
-79.72
-64.97
-43.80
-19.28
5.37
27.79
46.98
63.02
76.46
87.54
96.07
101.52
103.61
102.65
99.54
95.28
90.55
85.38
79.25
71.67
62.60
52.78
43.43
35.70
30.03
25.88
21.81
16.06
7.09
-5.88
-22.69
-42.16
-62.14
-79.82
-92.15
-96.57
-91.79
-78.31
-58.32
-35.10
-11.87
9.06
26.72
41.20
52.96
62.28
69.04
72.99
74.23
73.43
71.64
69.80
68.27
66.67
64.15
60.00
54.06
46.97
39.76
33.35
27.99
22.98
16.97
8.40
-3.74
-19.34
-36.86
-53.48
-65.70
-70.41
-65.81
-52.11
-31.45
-7.08
17.76
40.81
61.26
79.42
96.06
111.49
125.21
136.00
142.45
143.73
139.99
132.35
122.45
111.70
100.75
89.43
77.14
63.47
48.80
34.28
21.48
11.61
4.93
0.63
-2.97
-7.83
-15.65
-27.27
-42.32
-58.96
-74.07
-83.92
-85.29
-76.60
-58.64
-34.40
-8.01
16.66
37.27
53.30
65.55
75.12
82.53
87.51
89.38
87.77
83.09
76.51
69.43
62.80
56.75
50.61
43.39
34.40
23.71
12.14
0.87
-9.15
-17.62
-25.09
-32.63
-41.33
-51.85
-64.13
-77.39
-90.22
-100.78
-106.97
-106.80
-98.83
-82.74
-59.67
-32.04
-3.06
24.27
47.91
67.14
82.33
94.30
103.83
111.36
117.08
121.11
123.61
124.61
123.88
120.81
114.68
104.99
91.87
76.19
59.29
42.53
26.83
12.35
-1.36
-15.14
-29.87
-46.17
-64.12
-83.03
-101.21
-116.18
-125.23
-126.24
-118.63
-103.76
-84.58
-64.71
-47.23
-33.90
-25.03
-19.98
-17.74
-17.42
-18.27
-19.58
-20.56
-20.47
-19.02
-16.54
-13.93
-12.29
-12.47
-14.64
-18.35
-22.72
-27.01
-31.00
-35.18
-40.61
-48.51
-59.70
-74.00
-89.89
-104.62
-114.90
-117.80
-111.89
-97.72
-77.69
-55.23
-33.64
-15.14
-0.47
10.86
19.89
27.48
33.84
38.62
41.28
41.57
39.77
36.67
33.09
29.54
25.94
21.83
16.78
10.78
4.32
-1.89
-7.44
-12.52
-18.06
-25.30
-35.28
-48.21
-63.13
-77.84
-89.25
-94.29
-90.98
-79.24
-61.05
-39.70
-18.48
0.59
17.10
31.78
45.45
58.02
68.47
75.43
78.20
77.22
73.87
69.68
65.54
61.43
56.83
51.39
45.48
40.10
36.41
35.03
35.61
36.85
36.96
34.19
27.34
15.98
0.68
-16.95
-34.29
-48.00
-54.84
-52.59
-40.99
-21.98
0.83
23.42
42.68
57.22
67.35
74.30
79.27
82.77
84.64
84.49
82.18
78.04
72.59
66.15
58.56
49.20
37.44
23.16
6.99
-9.85
-25.98
-40.50
-53.34
-65.34
-77.88
-92.58
-110.72
-132.59
-156.85
-180.07
-197.22
-202.91
-193.31
-167.70
-128.89
-82.33
-34.15
10.76
49.77
82.25
108.50
128.69
142.41
149.05
148.41
141.09
128.33
111.54
91.77
69.74
45.98
21.31
-3.05
-25.50
-44.49
-58.96
-68.68
-74.32
-77.26
-79.22
-81.79
-85.78
-90.85
-95.29
-96.52
-91.98
-80.26
-61.89
-39.36
-16.22
4.13
19.65
29.91
35.74
38.39
38.75
37.07
33.20
27.02
18.83
9.43
-0.00
-8.24
-14.34
-17.82
-18.76
-17.65
-15.12
-11.72
-7.87
-3.98
-0.67
1.12
0.46
-3.04
-8.66
-14.51
-18.01
-17.07
-11.06
-1.24
9.71
18.90
24.48
26.24
25.41
23.70
22.44
22.00
22.08
22.25
22.46
23.11
24.70
27.32
30.40
32.88
33.65
32.08
28.21
22.65
16.19
9.48
2.81
-3.87
-10.78
-18.10
-25.75
-33.32
-40.01
-44.74
-46.35
-43.93
-37.17
-26.52
-13.16
1.30
15.16
26.99
35.76
40.95
42.49
40.83
36.92
31.98
27.17
23.09
19.57
15.80
10.89
4.47
-2.96
-10.28
-16.29
-20.28
-22.30
-23.02
-23.30
-23.92
-25.43
-28.04
-31.53
-34.96
-36.49
-33.65
-24.15
-7.01
16.63
43.42
68.76
88.37
99.78
103.04
100.37
95.02
89.98
87.02
86.48
87.69
89.47
90.59
89.81
85.93
77.92
65.26
48.41
28.99
9.46
-7.74
-21.22
-31.23
-39.62
-48.84
-60.77
-75.75
-92.40
-108.28
-120.96
-128.99
-132.14
-131.17
-127.16
-121.04
-113.47
-105.01
-96.37
-88.41
-81.81
-76.70
-72.63
-68.72
-64.36
-59.59
-55.25
-52.64
-52.81
-56.02
-61.66
-68.56
-75.65
-82.55
-89.68
-98.04
-108.74
-122.55
-139.65
-159.49
-180.56
-200.18
-214.53
-219.25
-210.85
-188.20
-153.50
-111.81
-69.55
-32.21
-2.89
18.09
32.22
41.45
47.21
50.30
51.42
51.63
52.39
54.97
59.72
65.91
72.03
76.72
79.52
81.19
83.35
87.56
94.29
102.45
109.59
112.79
109.90
100.64
86.95
72.60
62.03
59.00
65.44
80.61
100.96
120.59
132.70
131.52
114.40
83.00
42.89
1.52
-34.66
-62.47
-82.45
-97.49
-110.43
-122.18
-131.43
-135.92
-134.35
-127.45
-117.76
-108.17
-100.45
-94.59
-89.36
-83.51
-76.84
-70.47
-66.19
-65.41
-68.26
-73.32
-78.01
-79.52
-75.62
-65.27
-48.65
-26.81
-1.24
26.65
55.68
84.79
112.84
138.35
159.67
175.41
185.04
189.33
190.35
190.70
192.57
196.84
202.59
207.55
209.20
205.72
196.86
184.33
171.72
163.82
165.14
177.98
200.68
227.20
248.70
256.72
246.59
219.23
180.43
137.85
97.41
61.16
27.29
-7.93
-47.83
-93.74
-144.42
-196.05
-242.62
-276.88
-292.15
-285.11
-257.98
-218.60
-178.08
-146.63
-129.68
-126.65
-132.66
-142.11
-151.76
-161.51
-172.89
-186.66
-201.63
-215.25
-225.58
-232.57
-237.74
-242.48
-246.05
-245.14
-235.29
-213.50
-180.23
-139.82
-98.69
-62.64
-34.71
-14.49
0.88
14.70
29.05
44.09
58.31
69.53
75.86
76.43
71.60
62.74
51.78
40.57
30.35
21.56
13.85
6.37
-1.77
-11.15
-21.72
-32.72
-42.74
-50.02
-52.90
-50.29
-42.08
-29.18
-13.12
4.53
22.70
41.09
59.90
79.51
99.96
120.82
141.21
160.15
176.99
191.86
205.95
221.39
240.59
265.24
295.09
327.31
356.87
377.96
386.33
381.30
366.68
349.72
338.46
338.48
350.61
370.61
391.05
404.48
406.29
395.92
376.12
350.83
323.23
294.77
265.70
236.20
207.20
180.32
156.98
137.42
120.31
103.30
84.07
61.44
35.81
8.81
-17.54
-41.83
-63.80
-84.29
-104.75
-126.41
-149.67
-174.04
-198.33
-221.30
-242.28
-261.56
-280.30
-299.97
-321.58
-344.97
-368.54
-389.69
-405.67
-414.58
-416.07
-411.34
-402.64
-392.36
-382.33
-373.41
-365.60
-358.33
-350.87
-342.62
-333.16
-322.30
-310.06
-296.62
-282.31
-267.51
-252.61
-237.94
-223.62
-209.57
-195.57
-181.31
-166.59
-151.44
-136.10
-120.97
-106.37
-92.41
-78.91
-65.51
-51.88
-37.76
-23.11
-8.07
7.08
21.90
35.82
48.21
58.51
66.47
72.29
76.60
80.42
84.65
89.91
96.33
103.68
111.69
120.43
130.43
142.44
157.05
174.18
193.06
212.29
229.95
243.72
250.82
248.51
235.03
210.82
179.24
146.17
118.26
100.58
94.84
99.03
108.73
119.13
126.62
129.25
126.12
116.64
100.37
77.60
49.99
20.81
-5.97
-26.81
-39.98
-45.85
-46.53
-44.76
-42.89
-42.28
-43.22
-45.24
-47.59
-49.61
-50.84
-51.16
-50.72
-49.88
-49.08
-48.62
-48.65
-49.11
-49.84
-50.75
-51.85
-53.29
-55.23
-57.79
-60.93
-64.48
-68.11
-71.49
-74.32
-76.48
-78.06
-79.33
-80.65
-82.23
-83.99
-85.50
-86.12
-85.31
-82.83
-78.95
-74.38
-70.05
-66.89
-65.67
-66.81
-70.17
-74.72
-78.44
-78.55
-72.31
-58.08
-36.30
-9.66
17.56
40.92
57.32
65.73
67.15
63.67
57.41
49.73
41.13
31.55
20.87
9.23
-2.95
-15.05
-26.50
-36.93
-46.23
-54.50
-62.05
-69.25
-76.57
-84.59
-94.01
-105.45
-118.80
-132.61
-143.79
-148.14
-141.71
-122.61
-92.11
-54.62
-16.21
17.51
43.26
60.61
71.28
77.62
81.28
82.75
81.73
77.90
71.63
63.89
55.91
48.59
42.20
36.34
30.36
23.75
16.33
8.22
-0.58
-10.39
-21.80
-35.21
-50.07
-64.42
-75.06
-78.49
-72.29
-56.26
-32.77
-6.03
19.26
39.50
53.07
60.27
62.68
62.11
59.89
56.64
52.50
47.46
41.71
35.58
29.47
23.61
17.98
12.36
6.50
0.21
-6.65
-14.34
-23.39
-34.49
-48.05
-63.49
-78.84
-90.83
-95.79
-90.98
-75.83
-52.32
-24.33
3.68
28.29
47.96
63.03
74.88
84.74
93.03
99.19
102.16
101.06
95.70
86.68
75.23
62.76
50.46
39.09
28.93
19.90
11.68
3.75
-4.66
-14.46
-26.46
-40.79
-56.28
-70.33
-79.41
-80.24
-71.23
-53.28
-29.68
-4.86
17.15
34.11
45.88
53.79
59.55
64.21
67.77
69.43
68.29
63.93
56.70
47.63
38.01
28.94
20.97
14.04
7.68
1.27
-5.82
-14.25
-24.73
-37.82
-53.48
-70.42
-85.81
-95.73
-96.42
-85.79
-64.54
-36.17
-5.84
21.48
42.64
56.95
65.79
71.31
75.23
78.09
79.44
78.40
74.50
68.04
60.07
51.88
44.46
38.05
32.19
26.00
18.59
9.35
-2.13
-16.13
-32.77
-51.62
-71.15
-88.47
-99.79
-101.59
-92.18
-72.63
-46.68
-19.39
4.73
23.25
36.25
45.62
53.65
61.85
70.38
78.30
84.28
87.20
86.63
82.92
77.04
70.35
64.20
59.53
56.55
54.73
52.93
49.77
44.01
34.75
21.65
5.10
-13.51
-31.74
-46.41
-54.43
-53.82
-44.55
-28.66
-9.53
9.30
25.25
37.27
45.61
51.13
54.65
56.48
56.46
54.25
49.70
43.09
35.23
27.28
20.38
15.32
12.22
10.54
9.31
7.53
4.49
-0.16
-6.48
-14.25
-22.92
-31.45
-38.28
-41.62
-40.11
-33.44
-22.70
-10.10
1.84
11.25
17.57
21.58
24.79
28.52
33.22
38.28
42.35
44.04
42.52
37.84
30.82
22.67
14.45
6.79
-0.21
-6.93
-13.93
-21.93
-31.66
-43.82
-58.76
-76.03
-93.98
-109.74
-119.79
-121.15
-112.54
-95.07
-71.97
-47.40
-24.99
-6.67
7.55
18.96
28.99
38.31
46.51
52.40
54.79
53.10
47.72
39.80
30.92
22.43
15.16
9.24
4.27
-0.44
-5.59
-11.87
-19.99
-30.59
-43.93
-59.33
-74.77
-87.01
-92.43
-88.41
-74.42
-52.52
-26.60
-0.95
21.34
39.09
52.89
64.06
73.59
81.53
87.15
89.59
88.42
84.01
77.36
69.72
62.17
55.39
49.66
44.88
40.69
36.46
31.29
23.97
13.31
-1.47
-20.10
-40.73
-60.05
-73.94
-78.81
-72.96
-57.23
-34.81
-10.07
12.99
31.89
46.08
56.42
64.28
70.66
75.83
79.41
80.78
79.45
75.31
68.64
60.12
50.60
40.97
32.03
24.27
17.78
12.19
6.72
0.23
-8.51
-20.53
-36.17
-54.53
-73.22
-88.67
-97.03
-95.52
-83.54
-63.05
-37.99
-12.83
8.94
25.71
37.75
46.42
53.06
58.27
61.76
62.83
60.96
56.30
49.66
42.22
35.10
28.91
23.66
18.88
13.93
8.24
1.40
-6.96
-17.27
-29.95
-44.95
-61.24
-76.46
-87.27
-90.40
-83.88
-68.05
-45.62
-20.68
2.77
22.17
36.96
48.14
57.30
65.55
73.09
79.32
83.36
84.61
82.96
78.79
72.78
65.67
58.15
50.74
43.72
37.12
30.61
23.57
15.05
4.05
-10.25
-27.92
-47.82
-67.26
-82.44
-89.51
-85.97
-71.89
-50.12
-25.31
-2.14
16.30
29.37
38.40
45.49
52.11
58.45
63.59
66.26
65.69
62.00
56.08
49.18
42.42
36.46
31.50
27.31
23.47
19.46
14.73
8.67
0.53
-10.41
-24.48
-41.07
-58.23
-72.77
-81.07
-80.36
-69.91
-51.50
-28.85
-6.25
12.92
27.19
36.94
43.59
48.54
52.53
55.49
56.94
56.39
53.64
48.79
42.15
34.18
25.42
16.56
8.25
0.97
-5.21
-10.68
-16.25
-22.97
-31.92
-43.84
-58.79
-75.62
-91.87
-104.11
-108.91
-104.15
-89.97
-68.90
-44.88
-21.83
-2.20
13.48
26.15
37.11
47.01
55.51
61.56
64.20
63.11
58.76
52.12
44.26
36.04
28.01
20.47
13.62
7.59
2.33
-2.43
-7.24
-12.87
-20.25
-30.22
-43.19
-58.69
-75.03
-89.32
-98.07
-98.33
-88.93
-71.06
-48.10
-24.28
-3.22
13.29
25.42
34.57
42.19
48.93
54.45
57.86
58.47
56.21
51.60
45.47
38.54
31.31
24.03
16.90
10.10
3.72
-2.38
-8.60
-15.64
-24.31
-35.34
-49.01
-64.75
-80.80
-94.20
-101.51
-99.84
-88.11
-67.69
-42.13
-15.93
7.12
25.08
38.14
47.86
55.93
63.28
69.75
74.54
76.91
76.67
74.18
70.07
64.87
58.77
51.74
43.81
35.22
26.54
18.31
10.78
3.66
-3.94
-13.25
-25.43
-40.97
-59.09
-77.57
-92.95
-101.56
-100.71
-89.85
-70.87
-47.51
-23.92
-3.26
13.12
25.50
35.00
42.51
48.27
51.92
53.05
51.73
48.55
44.31
39.58
34.49
28.78
22.14
14.63
6.75
-0.72
-7.06
-12.06
-16.15
-20.34
-25.94
-34.14
-45.55
-59.77
-75.10
-88.62
-96.83
-96.74
-86.98
-68.49
-44.30
-18.42
5.52
25.39
40.82
52.58
61.66
68.53
73.01
74.70
73.51
69.95
64.94
59.40
53.80
48.14
42.11
35.57
28.71
22.09
16.26
11.38
6.91
1.73
-5.59
-16.21
-30.54
-47.68
-65.34
-80.00
-87.79
-85.69
-72.67
-50.32
-22.45
6.16
31.37
50.89
64.53
73.54
79.46
83.20
84.83
83.99
80.45
74.55
67.05
58.76
50.13
41.15
31.54
21.16
10.29
-0.42
-10.21
-18.61
-25.78
-32.47
-39.93
-49.46
-62.03
-77.79
-95.61
-112.96
-126.23
-131.69
-126.77
-111.13
-87.02
-58.62
-30.56
-6.40
12.28
25.84
35.66
43.04
48.47
51.70
52.25
50.02
45.53
39.72
33.42
27.02
20.44
13.37
5.74
-2.10
-9.47
-15.83
-21.14
-26.18
-32.37
-41.40
-54.47
-71.56
-90.89
-108.91
-121.07
-123.24
-113.24
-91.81
-62.57
-30.67
-1.04
23.20
41.25
54.08
63.21
69.71
73.81
75.35
74.31
71.21
66.88
62.01
56.74
50.65
43.19
34.15
24.02
13.83
4.65
-2.97
-9.41
-15.87
-24.05
-35.49
-51.05
-70.24
-91.02
-109.85
-122.44
-125.02
-115.72
-95.44
-67.74
-37.58
-9.61
13.34
30.76
43.87
54.31
63.01
69.90
74.26
75.62
74.30
71.33
67.87
64.45
60.75
55.78
48.63
39.15
28.18
17.23
7.72
0.26
-5.67
-11.56
-19.20
-30.09
-44.90
-63.13
-82.99
-101.48
-114.94
-119.87
-114.16
-97.92
-73.67
-45.61
-18.14
5.54
24.17
38.21
48.88
57.18
63.32
66.95
67.78
66.05
62.56
58.25
53.66
48.67
42.69
35.17
26.14
16.30
6.77
-1.49
-8.24
-14.19
-20.82
-29.93
-42.92
-60.04
-79.90
-99.30
-113.89
-119.35
-113.01
-94.96
-68.28
-37.94
-9.07
14.84
32.72
45.59
55.34
63.45
70.33
75.49
78.25
78.42
76.46
73.11
68.83
63.51
56.54
47.31
35.82
22.91
10.06
-1.22
-10.15
-17.08
-23.48
-31.48
-43.08
-59.37
-79.92
-102.44
-123.02
-136.95
-140.22
-130.85
-109.85
-81.00
-49.49
-20.06
4.59
24.22
40.27
54.43
67.36
78.38
86.14
89.69
89.25
86.20
82.26
78.54
74.97
70.45
63.63
53.78
41.45
28.22
16.05
6.28
-1.02
-7.07
-13.89
-23.47
-37.12
-54.98
-75.93
-97.51
-116.21
-128.06
-129.63
-119.19
-97.52
-67.96
-35.34
-4.45
21.55
41.69
56.83
68.44
77.53
84.15
87.76
87.97
85.22
80.81
76.32
72.78
70.08
67.08
62.19
54.34
43.71
31.70
20.37
11.38
5.18
0.79
-3.80
-10.78
-21.77
-37.30
-56.68
-77.89
-97.80
-112.55
-118.48
-113.18
-96.59
-71.19
-41.34
-11.82
13.70
33.54
47.83
57.69
64.19
67.93
69.05
67.73
64.51
60.26
55.72
51.16
46.30
40.48
33.20
24.47
14.93
5.59
-2.70
-9.59
-15.56
-21.78
-29.77
-40.88
-55.73
-73.58
-92.10
-107.64
-116.06
-114.09
-100.58
-77.21
-48.03
-18.08
8.25
28.48
42.30
50.88
55.73
57.91
57.78
55.48
51.37
46.22
40.94
36.03
31.39
26.32
20.09
12.41
3.75
-4.95
-12.75
-19.29
-25.05
-31.27
-39.52
-51.16
-66.75
-85.46
-104.78
-120.74
-128.82
-125.43
-109.33
-82.37
-49.02
-14.94
15.04
38.23
54.48
65.28
72.53
77.46
80.39
81.14
79.70
76.58
72.57
68.35
63.99
58.91
52.29
43.65
33.31
22.33
12.07
3.44
-3.58
-10.07
-17.84
-28.76
-43.92
-62.95
-83.61
-102.01
-113.51
-114.19
-102.28
-79.06
-48.53
-16.14
13.14
36.22
52.45
63.02
69.76
74.10
76.63
77.28
75.92
72.72
68.14
62.64
56.44
49.44
41.40
32.28
22.47
12.69
3.67
-4.19
-11.13
-18.04
-26.26
-37.17
-51.67
-69.47
-88.70
-105.87
-116.60
-116.98
-105.07
-81.86
-51.13
-18.23
11.74
35.42
51.86
61.94
67.38
69.69
69.71
67.80
64.26
59.61
54.46
49.21
43.81
37.78
30.58
22.03
12.50
2.80
-6.27
-14.41
-22.08
-30.41
-40.87
-54.65
-72.10
-92.14
-112.07
-127.82
-134.95
-130.11
-112.40
-83.97
-49.50
-14.72
15.52
38.52
54.03
63.45
68.67
71.12
71.49
70.02
66.89
62.49
57.25
51.36
44.67
36.79
27.47
16.93
5.93
-4.46
-13.38
-20.57
-26.69
-33.15
-41.75
-54.04
-70.65
-90.58
-110.94
-127.30
-134.84
-129.92
-111.56
-82.09
-46.43
-10.48
20.93
45.22
62.31
73.67
81.02
85.43
87.19
86.29
83.01
78.16
72.78
67.56
62.47
56.80
49.62
40.41
29.52
18.01
7.26
-1.81
-9.22
-16.00
-23.90
-34.74
-49.75
-68.92
-90.56
-111.28
-126.52
-131.81
-124.31
-103.97
-73.88
-39.28
-5.78
22.41
43.46
57.72
66.72
71.95
74.28
74.06
71.64
67.76
63.42
59.38
55.71
51.72
46.35
38.90
29.48
19.14
9.34
1.23
-4.99
-10.27
-16.43
-25.57
-39.20
-57.56
-79.01
-100.03
-115.81
-121.54
-114.12
-93.43
-62.65
-27.29
6.73
34.97
55.64
69.40
78.22
84.00
87.68
89.28
88.52
85.49
80.89
75.70
70.59
65.47
59.58
51.93
41.99
30.10
17.43
5.46
-4.77
-13.16
-20.75
-29.29
-40.69
-56.22
-75.91
-98.13
-119.52
-135.51
-141.48
-134.33
-113.70
-82.47
-45.92
-9.99
20.54
43.38
58.68
68.14
73.71
76.73
77.69
76.65
73.77
69.44
64.20
58.38
51.93
44.57
35.99
26.23
15.77
5.41
-4.09
-12.38
-19.73
-27.15
-36.12
-48.23
-64.38
-84.04
-104.74
-122.19
-131.37
-128.21
-111.37
-83.00
-48.24
-13.47
15.91
37.08
50.14
57.14
60.59
62.21
62.55
61.31
58.18
53.25
47.15
40.64
34.25
28.10
22.01
15.75
9.29
2.84
-3.39
-9.45
-15.93
-23.97
-34.79
-49.00
-65.65
-81.85
-93.09
-94.61
-83.21
-58.74
-24.47
13.95
50.37
80.23
101.59
115.07
122.61
126.21
126.96
125.01
120.05
111.90
100.86
87.64
73.07
57.85
42.44
27.13
12.20
-2.02
-15.17
-27.15
-38.29
-49.54
-62.31
-78.01
-97.14
-118.51
-138.82
-153.23
-156.88
-146.75
-123.19
-90.10
-53.73
-20.42
5.47
22.66
32.56
37.90
41.06
43.20
44.18
43.34
40.23
35.06
28.61
21.84
15.42
9.51
3.86
-1.91
-8.11
-14.81
-22.03
-29.99
-39.28
-50.70
-64.59
-80.10
-94.63
-104.20
-104.69
-93.51
-70.92
-40.28
-6.98
23.45
47.16
62.90
71.76
76.06
77.99
78.85
78.92
77.84
75.20
70.82
64.83
57.58
49.47
40.84
32.02
23.29
14.91
6.99
-0.62
-8.50
-17.68
-29.44
-44.72
-63.29
-83.03
-100.03
-109.46
-107.33
-92.22
-66.18
-34.18
-2.40
24.03
42.56
53.49
59.09
61.95
63.80
65.02
64.99
62.87
58.21
51.22
42.58
33.18
23.79
14.93
6.89
-0.25
-6.52
-12.19
-17.79
-24.26
-32.86
-44.67
-59.91
-77.10
-92.93
-102.90
-102.80
-90.52
-67.18
-36.97
-5.70
21.33
41.09
53.39
60.12
63.78
66.09
67.42
67.15
64.42
58.92
51.18
42.33
33.58
25.81
19.32
13.93
9.20
4.63
-0.32
-6.27
-14.11
-24.82
-38.97
-55.89
-73.18
-86.82
-92.32
-86.45
-68.76
-42.09
-11.67
16.82
39.28
54.38
63.31
68.55
72.26
75.29
77.08
76.42
72.36
64.88
54.97
44.17
33.94
25.16
17.96
11.82
5.97
-0.39
-8.00
-17.63
-30.03
-45.55
-63.46
-81.42
-95.54
-101.43
-95.84
-78.19
-51.14
-19.77
10.27
34.69
51.82
62.48
68.89
73.20
76.48
78.52
78.35
75.09
68.48
59.06
47.94
36.37
25.39
15.55
6.99
-0.55
-7.53
-14.65
-22.90
-33.46
-47.34
-64.61
-83.57
-100.50
-110.30
-108.23
-91.80
-62.23
-24.27
15.33
50.20
76.42
93.35
102.84
107.74
110.27
111.35
110.75
107.81
102.17
93.97
83.77
72.28
60.16
48.01
36.43
26.03
17.26
10.19
4.36
-1.27
-8.19
-17.98
-31.80
-49.61
-69.59
-87.98
-99.80
-100.45
-87.45
-61.79
-27.85
8.02
39.78
63.55
78.47
86.04
88.75
88.68
86.92
83.77
79.39
74.23
68.98
64.21
59.98
55.84
51.10
45.42
39.06
32.78
27.44
23.34
19.94
15.78
8.93
-2.37
-18.89
-39.65
-61.63
-80.12
-89.97
-87.33
-71.29
-44.49
-12.51
18.01
41.60
55.52
60.03
57.39
50.33
40.82
29.64
16.78
2.21
-13.63
-29.74
-44.91
-58.17
-69.12
-77.96
-85.28
-91.76
-97.88
-103.91
-110.02
-116.57
-124.22
-133.53
-144.24
-154.46
-160.56
-158.02
-143.22
-115.25
-76.88
-33.88
6.90
39.98
62.93
76.52
83.58
87.12
89.04
89.67
88.30
84.04
76.52
66.08
53.56
39.95
25.99
12.12
-1.53
-15.01
-28.44
-42.00
-56.13
-71.56
-89.13
-109.18
-130.56
-150.08
-162.74
-163.22
-148.11
-117.70
-76.49
-31.85
8.56
39.45
59.31
70.00
75.09
77.89
80.20
82.22
83.19
82.17
78.62
72.40
63.70
53.00
41.00
28.60
16.82
6.53
-1.85
-8.63
-14.83
-22.19
-32.67
-47.70
-67.17
-88.55
-107.00
-116.56
-112.35
-92.77
-60.61
-22.39
14.02
42.20
59.26
66.18
66.49
64.16
61.90
60.44
59.01
56.32
51.49
44.49
36.03
27.12
18.57
10.74
3.49
-3.58
-10.84
-18.56
-27.08
-37.02
-49.29
-64.51
-82.08
-99.42
-112.11
-115.17
-105.17
-81.96
-49.19
-13.13
19.64
44.53
60.19
68.11
71.17
71.92
71.58
70.03
66.51
60.46
52.07
42.18
31.95
22.34
13.73
5.96
-1.48
-9.13
-17.38
-26.50
-36.89
-49.22
-64.22
-81.92
-100.79
-117.38
-126.95
-125.09
-109.61
-81.87
-46.58
-10.21
21.31
44.47
58.86
66.41
69.84
71.25
71.46
70.17
66.71
60.65
52.20
42.04
31.15
20.41
10.44
1.56
-6.15
-12.83
-18.71
-24.32
-30.50
-38.49
-49.56
-64.29
-81.67
-98.63
-110.48
-112.31
-100.99
-76.72
-43.33
-7.06
25.70
50.54
66.11
73.79
76.26
75.95
74.17
71.05
66.20
59.36
50.74
40.97
30.83
20.94
11.68
3.15
-4.67
-11.95
-18.95
-26.13
-34.27
-44.43
-57.69
-74.48
-93.67
-112.15
-125.12
-127.55
-116.08
-90.72
-55.18
-15.74
20.99
50.22
70.19
81.92
87.90
90.63
91.62
91.31
89.47
85.81
80.22
72.86
64.05
54.21
43.83
33.48
23.73
14.98
7.32
0.38
-6.62
-14.89
-25.81
-40.45
-58.83
-79.20
-97.81
-109.59
-109.78
-95.84
-68.76
-33.06
4.77
38.53
64.31
81.23
90.79
95.46
97.24
97.12
95.24
91.54
86.20
79.72
72.56
64.83
56.26
46.50
35.50
23.78
12.34
2.17
-6.24
-13.25
-20.13
-28.71
-40.82
-57.44
-77.98
-99.79
-118.37
-128.48
-125.82
-108.74
-79.18
-42.13
-4.06
29.30
54.48
70.82
79.65
83.08
82.93
80.32
75.84
69.96
63.18
56.00
48.67
41.12
33.14
24.64
15.84
7.30
-0.41
-7.00
-12.81
-18.80
-26.47
-37.46
-52.89
-72.59
-94.45
-114.38
-127.14
-127.95
-114.33
-87.34
-51.46
-13.07
21.66
48.72
66.99
77.71
83.06
84.93
84.33
81.58
76.85
70.68
63.86
57.02
50.29
43.22
35.15
25.82
15.64
5.73
-2.70
-9.01
-13.60
-17.94
-24.16
-34.30
-49.50
-69.23
-90.91
-110.12
-121.57
-120.78
-105.74
-77.91
-41.94
-4.07
29.99
56.83
75.80
88.32
96.37
101.21
103.02
101.39
96.24
88.41
79.54
71.36
64.78
59.48
54.13
47.18
37.82
26.47
14.62
4.02
-4.25
-10.45
-16.08
-23.33
-34.21
-49.80
-69.70
-91.88
-112.88
-128.37
-134.27
-127.93
-109.16
-80.51
-46.56
-12.48
17.50
41.10
57.94
68.85
74.87
76.69
74.69
69.45
62.06
54.06
46.88
41.19
36.61
31.98
26.08
18.40
9.44
0.46
-7.23
-13.06
-17.56
-22.22
-28.96
-39.44
-54.50
-73.62
-94.68
-114.00
-126.97
-129.29
-118.51
-95.11
-62.75
-27.03
6.29
33.16
52.14
64.06
70.82
74.13
74.85
73.13
69.04
63.09
56.23
49.44
43.23
37.39
31.23
24.07
15.76
6.84
-1.68
-8.93
-14.71
-19.73
-25.49
-33.85
-46.23
-62.89
-82.27
-100.93
-114.13
-117.28
-107.59
-85.31
-53.92
-18.99
13.85
40.73
60.48
74.17
83.84
91.01
96.04
98.30
97.11
92.55
85.69
78.16
71.33
65.67
60.56
54.74
47.12
37.46
26.61
16.12
7.42
1.11
-3.45
-7.88
-14.19
-24.04
-38.27
-56.45
-76.86
-96.49
-111.48
-117.98
-113.35
-97.13
-71.48
-40.59
-9.23
18.70
41.15
57.86
69.56
76.98
80.40
79.75
75.29
68.05
59.78
52.29
46.67
42.76
39.33
34.70
27.66
18.13
7.15
-3.61
-12.73
-19.78
-25.49
-31.59
-40.10
-52.70
-70.00
-91.06
-113.16
-131.98
-142.58
-140.84
-125.09
-96.97
-61.19
-23.90
9.36
35.40
53.83
66.22
74.62
80.30
83.39
83.50
80.60
75.51
69.77
64.81
61.18
58.24
54.43
48.23
39.00
27.42
15.22
4.36
-3.91
-9.69
-14.40
-20.22
-29.33
-43.12
-61.67
-83.37
-104.87
-121.58
-128.79
-123.14
-104.09
-74.39
-39.29
-4.75
24.64
46.82
62.25
72.65
79.58
83.58
84.38
81.67
75.98
68.76
61.83
56.41
52.53
49.02
44.17
36.71
26.57
14.93
3.71
-5.38
-11.68
-15.91
-19.86
-25.76
-35.42
-49.73
-68.31
-89.31
-109.45
-124.46
-130.02
-123.14
-103.40
-73.42
-38.20
-3.47
26.13
48.20
62.70
71.04
74.86
75.28
72.92
68.30
62.27
55.96
50.37
45.78
41.61
36.69
29.92
20.95
10.41
-0.28
-9.62
-16.82
-22.20
-27.23
-34.08
-44.88
-60.88
-81.68
-104.72
-125.39
-138.12
-138.06
-122.96
-94.30
-56.98
-17.67
17.54
45.03
64.22
76.65
84.47
89.08
90.74
89.18
84.52
77.80
70.75
64.96
61.06
58.37
55.26
50.03
41.88
31.39
20.28
10.60
3.66
-0.68
-4.08
-9.13
-18.43
-33.68
-54.95
-80.23
-105.49
-125.30
-134.24
-128.62
-108.09
-76.04
-38.63
-2.66
26.76
47.60
60.82
68.88
74.06
77.23
77.97
75.43
69.48
61.11
52.14
44.32
38.39
33.80
28.97
22.16
12.35
-0.13
-13.78
-26.59
-37.01
-44.70
-50.70
-56.96
-65.58
-78.11
-95.15
-116.12
-139.17
-161.08
-177.51
-183.92
-176.94
-155.78
-122.99
-83.82
-44.49
-10.09
16.83
36.34
50.03
59.56
65.70
68.39
67.50
63.65
58.38
53.59
50.63
49.57
49.19
47.52
42.97
35.12
25.03
14.71
6.16
0.41
-3.01
-5.88
-10.59
-19.22
-32.87
-51.18
-72.05
-91.82
-105.88
-109.79
-100.71
-78.63
-46.65
-10.12
25.15
54.79
77.03
92.53
103.17
110.61
115.39
117.02
114.91
109.21
101.22
92.90
85.94
80.87
76.83
71.96
64.49
53.67
40.24
26.08
13.28
3.16
-4.36
-10.67
-17.87
-27.92
-42.06
-60.41
-81.79
-103.68
-122.37
-133.65
-133.88
-121.42
-97.47
-66.01
-32.55
-2.31
21.43
37.84
47.99
53.61
56.06
55.93
53.44
49.03
43.63
38.41
34.12
30.64
27.06
22.12
15.03
6.01
-3.78
-12.76
-19.74
-24.53
-28.14
-32.45
-39.57
-51.13
-67.58
-87.63
-108.14
-124.46
-131.65
-126.01
-106.62
-75.88
-38.97
-2.05
29.68
53.38
68.82
77.58
81.74
82.91
81.93
79.22
75.18
70.41
65.49
60.65
55.56
49.54
41.98
32.80
22.68
12.79
4.25
-2.54
-8.15
-14.12
-22.47
-35.02
-52.58
-74.22
-96.94
-115.94
-125.86
-122.51
-104.59
-74.47
-37.52
-0.28
31.81
55.88
71.85
81.44
86.69
89.02
89.00
86.83
82.99
78.33
73.81
69.91
66.28
61.91
55.63
46.86
36.02
24.41
13.70
5.13
-1.16
-6.26
-12.21
-21.35
-35.53
-55.22
-78.88
-102.71
-121.27
-128.87
-121.59
-98.97
-64.53
-24.70
13.48
44.78
67.18
81.71
90.93
97.15
101.35
103.27
102.27
98.39
92.66
86.67
81.68
77.91
74.36
69.35
61.46
50.35
37.08
23.61
11.95
3.11
-3.29
-8.97
-16.17
-26.87
-42.09
-61.53
-83.38
-104.42
-120.40
-126.94
-120.87
-101.45
-71.03
-34.47
2.32
34.34
58.76
75.27
85.24
90.57
92.76
92.66
90.78
87.61
83.75
79.59
74.99
69.29
61.60
51.36
38.84
25.08
11.60
-0.35
-10.29
-18.80
-27.29
-37.62
-51.53
-70.08
-92.97
-118.06
-141.24
-157.14
-160.68
-148.95
-122.67
-86.22
-46.34
-9.78
18.87
38.21
49.61
55.83
59.50
62.19
64.46
66.29
67.65
68.63
69.23
69.19
67.86
64.49
58.54
50.01
39.48
27.81
15.69
3.14
-10.69
-27.39
-48.48
-74.29
-102.75
-129.15
-147.03
-150.46
-136.58
-107.25
-68.80
-29.73
2.32
23.23
33.13
35.25
33.81
31.97
31.06
30.91
30.86
30.42
29.43
27.74
24.95
20.47
13.85
5.27
-4.35
-13.57
-20.98
-25.92
-28.80
-31.17
-35.32
-43.55
-57.23
-75.87
-96.53
-114.15
-122.84
-117.94
-98.01
-65.70
-27.07
10.63
41.49
62.69
74.72
80.20
82.09
82.36
81.67
79.87
76.74
72.36
66.97
60.61
52.94
43.49
32.09
19.28
6.32
-5.26
-14.39
-21.03
-26.32
-32.30
-41.32
-55.24
-74.61
-97.94
-121.45
-139.61
-146.65
-138.63
-115.17
-80.00
-39.81
-1.85
28.56
49.44
61.94
68.79
72.61
74.75
75.46
74.60
72.43
69.71
67.22
65.16
62.83
59.00
52.67
43.76
33.36
23.28
15.24
10.04
7.09
4.57
-0.04
-9.24
-24.56
-45.90
-70.92
-95.12
-112.65
-118.11
-108.54
-84.74
-51.30
-15.01
17.60
42.34
58.27
67.07
71.40
73.47
74.30
73.96
72.27
69.32
65.51
61.15
56.17
50.06
42.32
32.87
22.34
11.92
2.80
-4.41
-10.03
-15.34
-22.21
-32.54
-47.46
-66.55
-87.33
-105.38
-115.38
-112.86
-96.06
-66.99
-30.99
5.06
35.22
56.25
68.21
73.36
74.52
73.69
71.56
68.04
63.00
56.79
50.13
43.58
37.16
30.28
22.17
12.47
1.59
-9.36
-19.08
-26.78
-32.66
-37.93
-44.55
-54.60
-69.52
-89.34
-112.06
-133.56
-148.33
-151.13
-138.89
-112.24
-75.67
-36.10
-0.50
26.39
43.20
51.52
54.36
54.47
53.34
51.23
47.87
43.17
37.46
31.39
25.49
20.00
14.85
9.85
4.91
0.15
-4.24
-8.26
-12.32
-17.44
-25.14
-36.81
-52.87
-71.70
-89.35
-100.21
-98.83
-82.15
-51.07
-10.45
32.54
70.94
100.22
119.11
128.95
132.09
130.55
125.42
117.22
106.56
94.51
82.37
71.06
60.73
50.82
40.55
29.62
18.58
8.60
0.85
-4.24
-7.41
-10.50
-15.94
-26.05
-42.21
-64.17
-89.48
-113.49
-130.19
-133.90
-121.39
-93.39
-54.72
-12.76
25.15
54.07
72.54
82.08
85.56
85.51
83.38
79.68
74.71
69.05
63.47
58.40
53.51
47.77
40.03
29.75
17.47
4.69
-6.79
-15.81
-22.41
-27.95
-34.60
-44.68
-59.76
-80.00
-103.53
-126.38
-143.10
-148.22
-138.17
-112.85
-76.10
-34.51
4.80
36.54
58.61
71.96
79.15
82.71
84.15
83.85
81.77
78.02
73.07
67.47
61.35
54.35
45.83
35.38
23.30
10.63
-1.27
-11.38
-19.59
-26.91
-35.18
-46.62
-63.01
-84.96
-111.17
-138.07
-160.22
-171.62
-167.76
-147.49
-113.84
-73.16
-32.93
0.85
25.38
41.14
50.63
56.52
60.41
62.60
62.86
61.23
58.35
55.22
52.45
49.98
47.01
42.65
36.49
28.97
21.16
14.20
8.57
3.71
-1.91
-10.36
-23.54
-42.26
-65.53
-90.12
-111.03
-122.72
-121.07
-105.03
-77.37
-43.81
-10.96
15.97
34.70
45.90
52.00
55.60
58.27
60.43
61.77
62.01
61.11
59.15
56.06
51.47
44.95
36.40
26.37
15.98
6.51
-1.19
-7.12
-12.34
-18.74
-28.48
-43.32
-63.56
-87.36
-110.45
-126.90
-130.94
-119.15
-92.07
-54.38
-13.30
23.96
52.66
71.51
82.16
87.45
89.76
90.25
89.09
86.34
82.53
78.62
75.44
73.04
70.62
66.90
60.90
52.65
43.27
34.49
27.85
23.91
21.92
20.04
15.92
7.54
-5.93
-23.37
-41.30
-54.41
-56.93
-44.85
-17.76
20.35
62.23
99.82
127.09
141.78
145.37
141.59
134.34
126.34
118.76
111.77
105.41
99.99
96.10
94.30
94.87
97.70
102.25
107.59
112.52
115.64
115.61
111.50
103.13
91.25
77.31
63.14
50.31
39.82
31.95
26.35
22.45
19.56
17.09
14.43
10.96
6.13
-0.33
-8.17
-16.64
-24.73
-31.46
-36.32
-39.28
-40.79
-41.43
-41.73
-41.92
-41.96
-41.61
-40.59
-38.86
-36.70
-34.63
-33.22
-32.84
-33.52
-34.95
-36.69
-38.45
-40.22
-42.20
-44.72
-47.92
-51.62
-55.34
-58.49
-60.56
-61.34
-60.92
-59.57
-57.54
-54.90
-51.47
-46.96
-41.22
-34.33
-26.71
-19.04
-12.09
-6.58
-3.10
-2.00
-3.42
-7.19
-12.89
-19.82
-27.09
-33.82
-39.27
-43.06
-45.21
-46.08
-46.21
-46.04
-45.70
-45.01
-43.64
-41.34
-38.22
-34.76
-31.68
-29.56
-28.61
-28.56
-28.89
-29.10
-29.05
-29.03
-29.57
-31.22
-34.17
-38.15
-42.51
-46.47
-49.39
-50.99
-51.38
-51.00
-50.41
-50.12
-50.42
-51.32
-52.67
-54.23
-55.85
-57.59
-59.73
-62.81
-67.53
-74.65
-84.51
-96.54
-108.89
-118.48
-121.75
-115.87
-99.89
-75.27
-45.44
-14.65
13.35
36.19
53.00
63.93
69.53
70.40
67.14
60.47
51.32
40.68
29.41
18.17
7.42
-2.43
-11.04
-18.11
-23.60
-27.79
-31.33
-35.08
-39.79
-45.66
-51.93
-56.81
-57.77
-52.47
-39.74
-20.37
2.99
26.56
46.77
61.32
69.64
72.51
71.22
66.77
59.63
49.97
38.24
25.48
13.26
3.16
-3.74
-7.31
-8.28
-8.00
-7.77
-8.43
-10.16
-12.56
-15.08
-17.34
-19.47
-22.00
-25.53
-30.23
-35.49
-39.91
-41.82
-39.95
-34.06
-25.12
-14.95
-5.45
2.05
7.10
9.91
10.84
10.03
7.40
3.10
-2.11
-6.75
-9.08
-7.86
-2.96
4.47
12.49
19.06
22.85
23.51
21.61
18.11
13.94
9.63
5.25
0.58
-4.63
-10.43
-16.39
-21.71
-25.46
-26.89
-25.78
-22.46
-17.71
-12.39
-7.14
-2.36
1.69
4.67
6.22
6.10
4.48
1.99
-0.46
-2.12
-2.79
-2.81
-2.91
-3.69
-5.45
-8.18
-11.81
-16.43
-22.38
-30.04
-39.61
-51.11
-64.34
-78.74
-93.08
-105.01
-111.18
-107.94
-92.80
-65.78
-30.05
8.85
44.73
72.74
90.59
98.65
99.00
94.11
86.03
76.09
65.20
54.07
43.27
33.08
23.35
13.62
3.34
-7.84
-19.94
-32.71
-45.86
-59.22
-72.88
-87.28
-103.12
-121.11
-141.30
-162.29
-180.84
-192.27
-191.87
-176.78
-147.44
-107.92
-64.59
-23.87
9.82
35.04
52.81
65.16
73.70
78.90
80.37
77.64
70.83
60.79
48.72
35.66
22.17
8.30
-6.00
-20.61
-35.11
-49.02
-62.30
-75.76
-90.96
-109.49
-131.71
-155.75
-177.32
-190.71
-190.62
-173.99
-141.08
-95.30
-42.08
12.75
64.21
108.81
144.59
170.80
187.65
196.11
197.86
195.06
190.00
184.58
179.96
176.33
172.96
168.66
162.35
153.60
142.86
131.20
119.79
109.28
99.53
89.56
77.90
62.98
43.79
20.61
-4.27
-26.44
-40.12
-39.95
-23.19
8.74
50.21
93.11
129.61
154.63
166.84
168.04
161.42
149.79
134.85
117.47
98.67
80.20
64.49
53.71
48.80
48.87
51.39
53.22
51.81
46.16
37.00
26.13
15.44
6.02
-2.27
-10.38
-19.35
-29.54
-40.31
-50.23
-57.61
-61.27
-60.96
-57.50
-52.48
-47.84
-45.27
-45.81
-49.71
-56.48
-65.16
-74.54
-83.46
-91.05
-97.09
-102.08
-107.21
-113.84
-122.79
-133.79
-145.28
-154.99
-160.85
-161.89
-158.66
-152.88
-146.78
-142.37
-141.25
-144.63
-153.26
-166.90
-183.62
-199.38
-208.49
-205.11
-185.17
-147.98
-96.76
-37.75
21.66
74.89
117.58
148.05
166.74
175.24
175.38
168.63
156.06
138.68
117.77
95.01
72.39
51.61
33.67
18.73
6.23
-4.73
-15.04
-25.61
-37.47
-51.80
-69.48
-90.23
-111.89
-130.27
-140.03
-136.26
-116.11
-79.83
-30.69
25.98
84.19
138.58
185.22
221.87
247.77
263.42
270.13
269.73
264.21
255.42
244.78
233.22
221.10
208.23
194.04
177.91
159.52
139.07
117.26
95.00
73.01
51.60
30.73
10.18
-10.13
-29.89
-48.25
-63.70
-74.27
-78.11
-74.24
-63.35
-47.98
-31.96
-19.25
-12.54
-12.42
-17.51
-25.40
-33.84
-41.62
-48.51
-54.81
-60.59
-65.46
-68.83
-70.48
-70.97
-71.58
-73.70
-78.26
-85.20
-93.54
-101.88
-109.11
-114.99
-120.35
-126.94
-136.90
-151.70
-171.19
-192.73
-211.21
-220.11
-213.46
-188.03
-144.86
-89.39
-29.82
25.41
70.06
101.39
119.98
128.33
129.35
125.25
117.39
106.70
94.28
81.61
70.35
61.81
56.46
53.75
52.38
50.77
47.46
41.41
31.90
18.24
-0.32
-24.31
-53.06
-83.76
-111.14
-128.42
-129.51
-111.63
-76.87
-31.97
13.96
52.61
79.19
93.28
97.85
97.12
94.44
91.31
87.56
82.28
74.72
64.69
52.48
38.57
23.43
7.44
-8.87
-24.81
-39.63
-52.86
-64.69
-76.24
-89.40
-106.19
-127.62
-152.55
-177.17
-195.48
-200.91
-188.62
-157.61
-111.48
-57.59
-4.69
39.87
72.13
92.01
102.21
106.35
107.38
106.83
104.99
101.61
96.49
89.65
81.34
71.77
61.10
49.58
37.70
26.14
15.44
5.67
-3.85
-14.61
-28.64
-47.73
-72.42
-101.04
-129.24
-150.63
-158.46
-147.99
-118.59
-74.42
-23.32
25.75
65.65
92.99
108.39
115.24
117.63
118.69
119.74
120.54
119.94
116.74
110.20
100.33
87.93
74.31
61.02
49.44
40.33
33.56
28.18
22.62
15.06
3.83
-12.14
-32.66
-55.68
-77.06
-91.15
-92.33
-77.03
-45.45
-1.76
47.04
93.59
132.41
160.99
179.62
189.98
193.82
192.40
186.65
177.78
167.66
158.62
152.70
150.73
151.66
152.32
148.12
134.49
108.56
70.75
25.01
-22.42
-65.41
-100.52
-128.35
-152.90
-178.99
-209.05
-240.99
-268.35
-282.64
-276.78
-248.15
-199.63
-138.60
-74.32
-14.98
34.29
71.81
98.43
116.03
126.28
130.27
128.96
123.73
116.72
110.42
106.79
106.41
108.13
109.44
107.62
100.82
88.78
72.73
54.65
36.23
17.98
-0.88
-21.78
-45.41
-70.63
-94.29
-112.27
-121.38
-120.99
-113.49
-103.12
-93.83
-87.37
-82.72
-77.09
-67.88
-54.36
-38.10
-22.15
-9.51
-1.88
0.70
-0.65
-4.39
-9.22
-14.26
-19.00
-23.06
-26.15
-28.28
-29.85
-31.96
-36.28
-44.84
-59.38
-80.44
-106.26
-132.37
-152.04
-158.16
-145.94
-115.05
-70.37
-20.46
25.42
60.55
82.61
93.41
97.00
97.31
96.52
94.87
91.57
85.87
77.78
67.97
57.36
46.68
36.17
25.79
15.49
5.43
-4.03
-12.59
-20.41
-28.55
-38.92
-53.67
-73.79
-97.84
-121.28
-137.36
-139.42
-123.74
-91.45
-48.55
-3.78
34.55
61.37
75.86
80.65
79.79
76.82
73.65
70.66
67.34
63.08
57.47
50.49
42.35
33.42
24.13
14.89
5.96
-2.57
-10.95
-19.75
-29.99
-43.05
-60.14
-81.36
-104.61
-125.27
-137.01
-133.91
-113.02
-76.05
-29.17
19.03
60.58
90.73
108.80
117.28
119.91
119.81
118.63
116.77
114.05
110.33
105.60
99.76
92.52
83.38
71.94
58.29
43.11
27.58
12.84
-0.46
-12.68
-25.31
-40.63
-60.78
-86.26
-114.62
-140.13
-154.99
-152.10
-128.16
-85.61
-32.36
20.88
64.58
93.44
107.49
110.86
108.99
106.16
104.47
104.26
105.17
106.70
108.15
108.34
105.77
99.34
89.26
77.43
66.83
60.16
58.53
60.83
64.30
65.57
61.95
52.60
39.01
24.95
15.37
14.58
24.36
42.73
64.31
82.28
91.28
89.22
77.47
59.45
38.56
16.95
-4.49
-25.13
-43.86
-59.19
-70.26
-77.77
-84.07
-92.20
-104.40
-121.09
-140.79
-161.01
-179.59
-195.68
-209.88
-223.64
-238.49
-255.49
-275.07
-297.03
-320.41
-342.98
-361.20
-370.59
-366.90
-347.68
-313.22
-266.31
-210.96
-150.92
-88.85
-26.66
33.37
87.85
132.63
164.25
181.54
186.46
183.24
176.60
169.75
163.50
156.74
147.71
135.48
120.39
103.74
86.80
70.06
53.05
34.64
13.63
-10.78
-38.35
-67.45
-94.76
-115.66
-125.24
-120.10
-99.81
-67.65
-29.76
6.85
36.70
57.33
69.44
75.66
78.82
80.58
81.06
79.35
74.46
66.10
54.98
42.65
30.95
21.36
14.59
10.49
8.21
6.67
4.85
1.91
-2.95
-10.68
-22.09
-37.13
-53.94
-68.55
-75.67
-70.54
-51.19
-19.67
18.22
55.08
84.47
103.02
110.83
110.47
105.17
97.46
88.72
79.63
70.74
62.77
56.31
51.40
47.30
42.84
37.03
29.67
21.51
13.89
8.04
4.40
2.31
0.11
-4.40
-13.38
-28.12
-48.25
-71.14
-92.01
-105.02
-105.21
-90.53
-63.04
-28.35
6.41
35.21
55.07
66.37
71.67
73.88
74.90
75.29
74.95
73.87
72.58
71.79
71.81
72.18
71.75
69.29
64.10
56.38
47.07
37.42
28.32
19.91
11.34
0.87
-13.65
-33.96
-60.25
-90.25
-119.06
-140.23
-147.88
-139.00
-114.84
-80.49
-43.00
-8.78
18.33
37.53
50.20
58.34
63.38
65.87
65.87
63.58
59.69
55.16
50.82
47.04
43.68
40.32
36.58
32.39
28.01
23.78
19.78
15.54
9.91
1.29
-11.73
-29.35
-49.81
-69.23
-82.45
-84.79
-73.98
-51.19
-20.88
10.90
38.68
59.32
72.46
79.76
83.52
85.39
85.93
84.91
81.91
76.84
69.99
61.86
52.90
43.41
33.63
23.87
14.60
6.30
-0.75
-6.75
-12.58
-19.78
-30.17
-45.05
-64.22
-85.25
-103.51
-113.43
-110.41
-92.93
-63.47
-27.87
6.70
34.34
52.25
60.93
63.08
61.75
58.85
54.78
48.88
40.46
29.52
16.94
4.22
-7.14
-16.17
-22.66
-27.07
-30.29
-33.30
-37.02
-42.33
-50.23
-61.68
-76.94
-94.72
-111.58
-122.35
-121.75
-106.57
-77.40
-38.86
1.95
38.05
64.94
81.75
90.60
94.88
97.42
99.44
100.59
99.73
95.91
88.93
79.49
68.84
58.31
48.75
40.38
32.80
25.33
17.26
7.97
-3.26
-17.38
-35.18
-56.48
-79.08
-98.53
-109.12
-105.97
-87.41
-56.20
-18.85
16.76
44.37
61.42
69.26
71.67
72.61
74.42
77.28
79.79
80.10
76.88
69.74
59.16
46.20
32.06
17.91
4.68
-6.94
-16.63
-24.53
-31.51
-39.16
-49.53
-64.22
-83.20
-103.89
-121.22
-129.13
-122.95
-101.59
-68.45
-30.34
5.09
32.15
48.84
56.73
59.37
60.16
60.85
61.26
59.99
55.61
47.51
36.17
22.95
9.48
-2.91
-13.41
-21.80
-28.28
-33.36
-37.87
-43.15
-51.03
-63.25
-80.35
-100.48
-119.14
-130.17
-128.04
-110.40
-79.44
-41.42
-4.27
25.48
44.88
54.82
58.61
59.63
59.61
58.30
54.31
46.58
35.38
22.32
9.71
-0.53
-7.57
-11.88
-14.86
-18.14
-23.11
-30.72
-41.62
-56.18
-74.15
-94.08
-112.78
-125.59
-127.77
-116.38
-91.96
-58.79
-23.60
6.97
28.69
40.95
46.20
48.15
49.72
51.84
53.61
53.32
49.79
43.14
34.69
26.25
19.19
13.81
9.39
4.73
-1.21
-9.03
-19.05
-31.62
-47.05
-64.92
-83.21
-98.01
-104.40
-98.30
-78.68
-48.49
-13.94
17.91
41.84
56.28
63.21
66.52
69.80
74.66
80.45
85.09
86.44
83.48
76.70
67.75
58.68
50.97
45.02
40.20
35.26
28.97
20.36
8.76
-6.29
-24.68
-45.03
-64.12
-77.08
-78.76
-65.88
-38.80
-2.02
37.24
71.61
96.17
109.68
114.16
113.21
110.09
106.63
103.03
98.52
92.18
83.40
72.16
58.96
44.67
30.20
16.33
3.57
-8.00
-18.65
-29.03
-40.17
-53.45
-70.19
-90.83
-113.87
-135.35
-149.39
-150.08
-133.96
-101.95
-59.52
-14.98
23.52
50.73
65.50
70.12
68.45
63.91
58.47
52.70
46.50
39.85
32.90
25.87
18.69
11.08
2.71
-6.45
-16.01
-25.30
-33.77
-41.35
-48.71
-57.23
-68.71
-84.56
-104.86
-127.41
-147.57
-159.25
-156.90
-137.92
-104.12
-61.49
-18.20
18.32
43.79
57.92
63.53
64.50
63.94
63.18
62.01
59.45
54.71
47.64
38.69
28.64
18.29
8.23
-1.18
-9.75
-17.43
-24.28
-30.64
-37.33
-45.69
-57.26
-72.84
-91.40
-109.41
-121.35
-121.46
-106.22
-76.18
-36.33
5.53
41.68
67.15
81.06
85.93
85.87
84.36
83.04
81.73
79.29
74.65
67.45
58.18
47.82
37.48
27.99
19.74
12.69
6.41
0.20
-6.88
-16.10
-28.93
-46.61
-69.28
-94.93
-118.98
-135.07
-137.08
-121.60
-89.76
-47.20
-2.18
37.37
66.38
83.75
91.55
93.31
92.27
90.39
88.43
86.31
83.66
79.91
74.44
66.68
56.45
44.23
31.13
18.69
8.32
0.67
-4.67
-9.24
-15.47
-26.09
-43.21
-67.12
-95.28
-122.15
-140.36
-143.02
-126.57
-92.42
-46.82
1.42
44.06
76.13
96.79
108.25
113.74
115.58
114.53
110.19
101.99
89.88
74.43
56.48
36.80
16.02
-5.05
-25.27
-43.12
-57.09
-66.25
-70.71
-71.83
-71.94
-73.93
-80.57
-93.70
-113.30
-136.75
-158.76
-172.42
-171.34
-152.17
-116.23
-69.50
-20.59
22.27
53.92
73.29
82.68
85.74
85.54
83.61
80.14
74.86
67.73
59.26
50.18
40.99
31.83
22.49
12.79
2.80
-7.04
-16.14
-24.12
-31.16
-38.24
-47.12
-59.71
-77.02
-98.00
-118.89
-133.80
-136.53
-123.07
-93.60
-52.79
-8.35
31.85
62.43
81.79
91.63
95.20
95.33
93.44
89.61
83.42
74.73
64.02
52.12
39.84
27.64
15.67
4.00
-7.20
-17.56
-26.75
-34.71
-41.96
-49.69
-59.71
-73.75
-92.48
-114.31
-135.02
-148.38
-148.28
-131.23
-98.30
-55.17
-10.26
28.39
55.91
71.67
78.49
80.43
80.60
80.12
78.32
73.94
66.29
55.77
43.68
31.54
20.49
10.85
2.33
-5.68
-13.71
-22.05
-30.93
-40.90
-53.00
-68.39
-87.34
-108.12
-126.53
-136.79
-133.62
-114.64
-81.83
-41.22
-0.68
33.00
56.36
69.79
76.39
79.79
82.39
84.70
85.71
84.04
78.81
70.11
58.89
46.53
34.39
23.37
13.86
5.70
-1.63
-8.88
-16.98
-27.11
-40.53
-58.06
-79.06
-100.73
-118.12
-125.36
-117.87
-94.48
-58.35
-16.15
24.40
57.16
79.46
92.16
98.36
101.44
103.64
105.57
106.63
105.76
102.12
95.46
86.10
74.88
62.83
50.94
39.94
30.15
21.49
13.50
5.38
-4.03
-16.21
-32.41
-52.77
-75.34
-95.75
-108.18
-107.29
-90.66
-60.15
-21.62
17.18
49.44
71.54
83.63
88.53
89.78
89.86
89.51
88.13
84.67
78.50
69.77
59.26
48.03
37.01
26.80
17.61
9.40
1.89
-5.28
-12.73
-21.38
-32.53
-47.44
-66.48
-88.12
-108.42
-121.68
-122.27
-107.04
-76.99
-37.46
3.68
38.89
63.52
76.93
81.72
81.83
80.49
79.17
77.59
74.68
69.53
61.97
52.54
42.17
31.77
21.89
12.73
4.23
-3.78
-11.53
-19.40
-28.11
-38.83
-52.85
-70.72
-91.15
-110.48
-123.22
-123.81
-108.98
-79.50
-40.35
0.96
37.09
63.45
79.18
86.57
89.20
90.08
90.65
90.85
89.85
86.89
81.68
74.38
65.43
55.36
44.68
33.97
23.83
14.75
6.92
-0.03
-7.22
-16.39
-29.58
-48.17
-71.84
-97.67
-120.32
-133.35
-131.51
-113.04
-80.67
-40.94
-1.72
30.51
52.68
65.25
71.01
73.10
73.62
73.26
71.77
68.77
64.19
58.25
51.18
43.09
33.99
24.04
13.69
3.66
-5.31
-12.81
-19.04
-24.97
-32.22
-42.69
-57.82
-77.59
-99.63
-119.22
-130.36
-127.89
-109.67
-77.93
-38.71
0.19
32.12
53.63
65.06
69.32
69.94
69.30
68.08
65.71
61.43
55.00
46.97
38.27
29.77
21.94
14.71
7.73
0.55
-7.21
-15.74
-25.23
-36.07
-48.98
-64.69
-83.16
-102.70
-119.58
-128.69
-125.31
-107.25
-76.36
-38.22
-0.28
30.93
52.05
63.46
68.12
69.50
69.77
69.11
66.37
60.32
50.71
38.62
25.97
14.64
5.75
-0.72
-5.64
-10.24
-15.54
-22.18
-30.51
-40.96
-54.00
-69.66
-86.67
-101.88
-110.69
-108.50
-92.78
-64.49
-28.29
9.00
40.85
63.23
75.61
80.28
80.67
79.60
78.26
76.27
72.50
65.93
56.28
44.12
30.63
17.13
4.71
-6.03
-14.99
-22.48
-29.05
-35.48
-42.81
-52.40
-65.54
-82.72
-102.60
-121.57
-134.25
-135.28
-121.45
-93.43
-55.78
-15.39
21.09
49.56
69.27
82.07
90.74
97.35
102.60
106.23
107.79
107.30
105.32
102.51
99.18
95.17
90.08
83.67
76.21
68.41
60.98
54.16
47.47
39.66
29.09
14.36
-5.02
-27.91
-51.16
-70.01
-79.24
-74.97
-56.37
-26.41
8.86
42.26
67.94
83.08
88.21
86.09
80.02
72.39
64.19
55.40
45.81
35.49
25.00
15.04
6.10
-1.75
-8.77
-15.40
-21.95
-28.53
-35.13
-41.87
-49.36
-58.78
-71.52
-88.26
-107.84
-126.60
-138.94
-139.09
-123.61
-93.28
-53.33
-11.68
23.96
48.78
61.96
65.93
64.28
59.90
54.05
46.76
37.79
27.47
16.77
6.87
-1.51
-8.44
-14.68
-21.23
-28.84
-37.81
-48.00
-59.23
-71.70
-86.08
-102.94
-121.70
-139.73
-152.23
-153.62
-139.73
-110.14
-68.95
-23.69
17.41
48.38
67.22
75.60
77.11
75.00
70.94
64.95
56.40
45.13
31.93
18.35
6.07
-3.84
-11.16
-16.47
-20.79
-25.11
-30.24
-36.90
-45.95
-58.34
-74.61
-93.84
-112.89
-126.51
-128.90
-116.02
-87.70
-48.35
-5.49
32.95
61.50
78.65
86.44
88.62
88.56
87.90
86.55
83.55
78.10
70.23
60.76
50.95
41.92
34.27
27.92
22.37
16.86
10.73
3.27
-6.33
-19.06
-35.58
-55.38
-75.85
-92.29
-99.06
-91.78
-69.50
-35.71
2.62
37.52
62.90
76.47
79.74
76.48
70.58
64.41
58.41
51.76
43.45
33.17
21.50
9.53
-1.60
-11.28
-19.53
-26.82
-33.72
-40.76
-48.39
-57.29
-68.45
-82.78
-100.19
-118.54
-133.46
-139.35
-131.52
-108.51
-73.32
-32.71
5.25
34.14
51.30
58.08
58.27
55.77
52.79
49.40
44.40
36.73
26.58
15.49
5.64
-1.27
-4.87
-6.26
-7.44
-10.39
-16.33
-25.73
-38.57
-54.58
-72.90
-91.39
-106.05
-111.63
-103.22
-78.63
-39.94
6.51
52.13
89.01
112.51
122.22
121.15
113.80
104.18
94.72
86.22
78.45
70.88
63.17
55.25
47.29
39.41
31.55
23.48
14.91
5.70
-4.10
-14.36
-25.30
-37.68
-52.39
-69.51
-87.25
-101.62
-107.39
-100.13
-78.38
-44.84
-5.75
31.39
60.48
78.78
87.12
88.63
86.77
83.84
80.49
76.26
70.46
62.84
53.85
44.34
35.30
27.36
20.69
15.02
9.73
4.07
-2.84
-11.95
-24.37
-41.10
-62.44
-87.08
-111.41
-129.85
-136.32
-126.60
-100.47
-62.33
-19.98
18.20
46.25
62.39
68.83
69.88
69.58
70.02
71.11
71.39
69.27
64.02
56.00
46.33
36.34
27.08
19.14
12.72
7.78
3.90
0.04
-5.83
-16.62
-35.30
-63.23
-98.50
-135.23
-164.75
-178.38
-170.75
-142.06
-98.14
-48.23
-1.54
35.53
60.59
74.61
80.22
80.12
76.31
70.21
62.96
55.62
49.04
43.45
38.46
33.30
27.24
20.05
12.05
3.90
-3.86
-11.24
-18.90
-28.19
-40.67
-57.31
-77.52
-98.48
-115.31
-122.37
-115.26
-92.88
-58.22
-17.55
21.81
54.10
76.70
90.27
97.37
100.72
101.97
101.55
99.26
95.06
89.30
82.53
75.06
66.87
57.74
47.64
37.03
26.78
17.70
10.12
3.48
-3.49
-12.52
-25.28
-42.73
-64.46
-88.18
-109.67
-123.56
-124.96
-111.42
-84.18
-48.22
-10.63
21.83
44.96
58.01
63.06
63.27
61.28
58.29
54.27
48.75
41.58
33.15
24.16
15.21
6.51
-2.06
-10.67
-19.25
-27.42
-34.69
-40.85
-46.31
-52.21
-60.25
-71.99
-87.95
-106.66
-124.31
-135.51
-134.97
-119.65
-90.28
-51.51
-10.24
26.73
55.05
73.72
84.42
89.96
92.60
93.41
92.48
89.79
85.73
81.14
76.73
72.60
68.02
61.91
53.50
42.90
31.28
20.29
11.32
4.70
-0.59
-6.73
-16.35
-31.55
-52.89
-78.50
-103.99
-123.14
-129.77
-120.05
-94.15
-56.58
-14.65
24.24
55.16
76.90
91.27
101.29
109.15
115.32
118.97
119.25
116.28
111.39
106.33
102.15
98.60
94.22
87.24
76.67
63.02
48.10
34.28
23.29
15.38
9.24
2.55
-7.09
-21.32
-40.46
-63.12
-86.27
-105.50
-116.00
-113.92
-97.89
-69.77
-34.38
2.10
34.22
58.85
75.54
85.74
91.32
93.49
92.69
89.07
83.33
76.88
71.39
67.95
66.41
65.44
63.21
58.33
50.66
41.28
31.95
24.13
18.17
13.08
6.90
-2.65
-17.40
-37.99
-63.35
-90.38
-114.21
-129.28
-130.99
-117.55
-90.98
-56.75
-21.93
7.19
26.98
37.01
39.17
36.14
30.07
22.22
13.30
4.07
-4.50
-11.46
-16.39
-19.72
-22.49
-25.89
-30.59
-36.48
-42.81
-48.68
-53.59
-57.88
-62.82
-70.30
-82.10
-98.73
-118.45
-136.93
-148.16
-146.44
-128.80
-96.65
-55.66
-13.84
21.41
45.83
59.20
64.42
65.41
65.13
64.63
63.43
60.63
55.93
50.00
44.15
39.56
36.74
35.29
34.23
32.58
29.81
26.05
21.76
17.13
11.69
4.58
-4.48
-14.04
-20.38
-18.41
-3.62
25.57
66.44
112.47
155.51
188.62
208.20
214.47
210.37
199.76
185.89
171.07
157.03
145.47
138.06
135.62
137.12
139.41
137.95
128.50
109.12
81.19
49.05
18.29
-6.40
-22.78
-31.39
-34.66
-35.33
-35.37
-35.46
-35.40
-34.78
-33.55
-32.14
-31.29
-31.70
-33.78
-37.59
-43.01
-49.89
-58.09
-67.42
-77.62
-88.28
-99.08
-109.96
-121.23
-133.46
-147.05
-161.89
-177.24
-192.12
-206.03
-219.59
-234.45
-252.57
-274.95
-300.73
-327.21
-350.87
-368.80
-379.54
-383.01
-379.54
-368.86
-349.80
-320.93
-281.68
-233.02
-177.26
-117.16
-55.06
7.26
67.90
124.13
172.32
208.85
231.44
240.21
237.62
227.37
212.93
196.62
179.53
162.22
145.44
130.31
117.90
108.52
101.23
94.16
85.14
72.38
54.89
32.81
7.61
-17.71
-38.70
-50.41
-48.93
-33.15
-5.79
27.14
58.30
81.62
94.17
96.56
91.76
83.22
73.30
62.90
51.93
40.17
27.92
15.86
4.81
-4.73
-12.68
-19.37
-25.25
-30.75
-36.26
-42.17
-49.06
-57.84
-69.72
-85.79
-106.04
-128.31
-147.87
-158.27
-153.40
-130.08
-89.94
-39.35
12.63
57.40
89.64
108.33
115.99
116.60
113.60
108.93
103.20
96.45
88.73
80.34
71.54
62.33
52.50
41.87
30.59
19.22
8.46
-1.22
-9.95
-18.65
-28.92
-42.69
-61.40
-85.04
-111.14
-134.55
-148.46
-146.54
-125.62
-87.38
-38.31
12.45
56.36
88.26
107.37
116.40
119.37
119.56
118.55
116.52
113.14
108.38
102.64
96.43
89.99
83.18
75.69
67.48
58.88
50.52
42.92
36.09
29.28
21.07
9.61
-6.60
-27.75
-51.80
-74.11
-88.29
-88.25
-70.66
-36.88
7.03
52.19
90.07
115.35
127.11
128.03
122.26
113.35
103.29
92.73
81.97
71.66
62.78
56.07
51.47
47.94
43.99
38.29
30.35
20.64
10.28
0.36
-8.58
-16.84
-25.49
-35.89
-49.08
-65.16
-82.86
-99.60
-112.10
-117.45
-114.18
-102.95
-86.52
-68.79
-53.49
-43.06
-38.05
-37.42
-39.29
-41.91
-44.22
-46.05
-47.89
-50.54
-54.69
-60.72
-68.49
-77.33
-86.25
-94.20
-100.50
-105.10
-108.62
-112.16
-117.13
-124.93
-136.54
-151.97
-169.53
-185.45
-194.23
-190.04
-168.92
-130.73
-79.96
-24.59
26.51
66.49
92.44
105.38
108.81
106.55
101.37
94.61
86.80
78.34
69.82
61.76
54.10
46.21
37.13
26.30
14.03
1.43
-10.13
-19.77
-27.66
-35.14
-44.46
-57.94
-77.02
-101.21
-127.38
-149.82
-161.63
-156.93
-133.37
-93.48
-44.29
5.05
46.42
75.30
91.46
97.87
98.37
95.88
91.63
85.78
78.41
70.14
61.97
54.62
47.98
41.19
33.30
23.97
13.86
4.26
-3.64
-9.59
-14.53
-20.47
-29.79
-44.34
-64.50
-88.34
-111.51
-127.76
-130.64
-115.76
-82.77
-36.04
16.45
65.80
105.15
131.46
145.53
150.30
148.73
142.47
131.97
117.47
100.13
82.14
65.90
52.75
42.21
32.29
20.75
6.52
-9.66
-25.58
-38.78
-47.92
-53.54
-57.88
-64.05
-74.91
-92.04
-115.02
-141.12
-165.49
-181.94
-184.57
-169.64
-137.24
-91.69
-40.48
8.13
47.68
75.16
91.14
98.40
100.17
98.77
95.33
90.27
83.99
77.18
70.62
64.68
59.12
53.20
46.21
38.01
29.08
20.17
11.73
3.40
-6.22
-19.20
-37.40
-61.32
-89.08
-116.03
-135.53
-140.79
-127.33
-94.86
-47.81
5.97
57.89
101.30
133.15
153.92
166.20
172.78
175.46
174.87
171.13
164.60
156.13
146.69
136.73
125.72
112.43
95.64
75.09
51.81
27.87
5.56
-13.77
-30.28
-45.63
-62.43
-83.13
-108.84
-138.32
-167.58
-190.43
-199.98
-190.96
-161.74
-115.46
-59.30
-2.28
47.48
85.09
109.55
122.92
128.50
129.16
126.56
121.28
113.61
104.14
93.85
83.57
73.43
62.62
49.77
33.81
14.71
-6.18
-26.66
-44.57
-58.91
-70.29
-80.89
-93.57
-110.60
-132.29
-156.07
-176.55
-186.78
-180.53
-154.78
-111.29
-56.38
1.06
52.59
92.78
120.16
136.52
144.95
148.12
147.41
143.27
136.09
126.82
116.93
107.80
100.08
93.51
87.22
80.37
72.72
64.58
56.54
48.86
41.13
32.20
20.46
4.41
-16.55
-41.19
-66.05
-85.67
-94.05
-86.81
-63.17
-26.86
14.91
53.98
84.06
102.56
110.52
111.04
107.25
100.95
92.50
81.66
68.59
54.17
39.71
26.30
14.42
3.98
-5.30
-13.55
-20.60
-26.30
-30.85
-35.13
-40.67
-49.47
-63.40
-83.30
-107.93
-133.42
-153.68
-162.19
-154.48
-130.33
-94.36
-54.59
-19.48
5.09
17.53
20.13
17.10
12.31
7.88
4.12
0.37
-4.02
-9.28
-15.27
-21.84
-28.99
-36.75
-45.06
-53.53
-61.62
-68.89
-75.34
-81.68
-89.32
-100.09
-115.38
-134.97
-156.13
-173.45
-180.13
-170.40
-142.18
-98.53
-47.06
2.59
42.18
67.50
78.95
80.27
76.10
70.09
64.06
58.45
53.22
48.39
43.99
39.68
34.62
27.72
18.33
6.78
-5.51
-16.68
-25.29
-31.14
-35.50
-40.90
-50.26
-65.69
-87.33
-112.50
-135.77
-150.08
-148.80
-128.17
-89.04
-37.01
19.19
70.50
110.29
135.89
148.39
151.12
147.72
140.79
131.67
120.88
108.90
96.37
84.04
72.33
61.10
49.77
37.84
25.37
12.99
1.68
-7.89
-15.78
-22.93
-30.95
-41.69
-56.72
-76.61
-100.24
-124.18
-142.84
-149.67
-139.40
-110.35
-65.79
-13.31
37.60
78.77
105.84
118.91
121.28
117.28
110.44
102.68
94.75
86.95
79.72
73.55
68.64
64.69
60.98
56.72
51.45
45.15
38.08
30.46
22.17
12.51
0.24
-16.01
-36.92
-61.28
-85.35
-103.18
-108.35
-96.53
-67.75
-26.92
17.56
56.92
84.99
99.87
103.45
99.57
91.79
82.24
71.65
60.16
48.18
36.50
25.92
16.64
8.16
-0.38
-9.62
-19.44
-28.94
-36.97
-42.85
-47.01
-51.20
-58.20
-70.94
-91.19
-118.27
-148.28
-174.33
-188.22
-183.07
-156.07
-110.05
-52.94
4.82
53.78
88.44
108.20
116.26
117.24
114.88
110.86
105.13
96.99
86.19
73.43
60.10
47.71
37.18
28.68
21.70
15.35
8.58
0.45
-9.95
-23.54
-41.11
-62.77
-87.08
-110.41
-126.98
-130.22
-115.03
-80.25
-29.86
27.76
82.60
126.51
155.78
171.52
177.70
178.24
174.48
164.67
145.20
113.11
68.10
13.42
-44.88
-99.62
-144.59
-175.96
-192.79
-196.71
-191.01
-179.62
-166.31
-154.53
-147.32
-146.98
-154.36
-167.85
-182.80
-192.00
-187.64
-164.15
-120.72
-62.27
1.90
61.15
107.00
135.58
148.06
149.10
144.30
137.95
131.84
125.57
117.70
107.10
93.72
78.69
63.68
50.02
38.33
28.34
19.20
9.91
-0.54
-13.17
-29.09
-49.26
-73.66
-100.27
-124.45
-139.64
-139.18
-119.11
-80.25
-28.67
26.09
74.26
109.04
128.33
134.36
131.69
124.85
116.69
108.11
98.73
87.90
75.42
61.62
47.23
32.94
19.25
6.45
-5.30
-15.98
-25.75
-35.10
-45.12
-57.43
-73.67
-94.49
-118.32
-140.73
-155.06
-154.47
-134.80
-96.75
-46.32
7.02
53.77
87.58
106.90
114.41
114.72
111.88
107.79
102.21
93.97
82.37
68.04
52.89
39.31
29.03
22.38
18.09
13.86
7.19
-3.65
-19.29
-39.50
-63.53
-90.34
-118.15
-143.66
-161.78
-166.46
-152.81
-119.60
-70.71
-14.66
38.03
78.47
102.22
110.13
106.78
97.81
87.38
77.08
66.53
54.77
41.62
28.11
16.04
6.90
0.97
-2.82
-6.40
-11.63
-19.61
-30.51
-44.13
-60.34
-79.12
-99.79
-120.02
-135.38
-140.11
-129.19
-100.71
-57.24
-5.24
47.06
92.43
126.38
147.44
156.09
153.52
141.13
120.95
96.28
71.60
51.56
39.31
35.31
37.35
41.62
44.41
43.40
38.02
29.02
17.71
5.28
-7.65
-21.26
-36.35
-53.60
-72.48
-90.30
-102.09
-101.95
-85.48
-52.39
-7.74
38.95
76.93
98.14
100.23
87.06
66.57
47.14
34.23
29.03
29.33
31.87
34.37
36.26
37.92
39.13
38.25
32.70
20.57
2.14
-19.84
-41.49
-59.89
-74.54
-87.05
-99.15
-110.34
-117.10
-114.18
-97.69
-67.96
-30.48
5.83
32.14
43.33
39.70
26.08
9.04
-6.11
-17.10
-24.42
-29.64
-33.64
-35.87
-35.16
-31.17
-25.66
-22.49
-26.14
-39.53
-62.23
-90.43
-118.66
-142.35
-159.67
-171.46
-179.45
-183.93
-182.33
-169.94
-142.33
-98.23
-41.11
21.43
80.14
127.52
160.17
179.38
189.59
195.93
201.84
208.05
213.13
214.82
211.52
202.73
188.71
169.60
144.94
114.18
77.53
36.69
-5.29
-45.10
-80.86
-113.02
-144.04
-176.55
-210.93
-243.88
-268.77
-278.18
-267.11
-235.73
-189.59
-137.63
-88.74
-48.64
-18.52
3.94
22.25
38.69
53.31
64.51
70.51
70.74
66.29
59.29
51.85
45.08
38.80
31.95
23.45
12.74
0.02
-14.21
-29.72
-46.80
-65.70
-85.61
-103.85
-115.82
-116.47
-102.41
-73.80
-34.77
7.85
47.08
78.34
100.56
115.56
126.20
134.52
140.94
144.74
145.29
143.09
139.79
137.30
136.65
137.37
137.61
135.28
129.20
119.61
107.85
95.39
82.92
70.02
55.52
38.18
17.21
-7.37
-34.45
-61.61
-85.11
-100.49
-103.87
-93.64
-71.55
-42.59
-13.20
11.11
27.77
37.43
42.69
46.03
48.36
48.99
46.91
42.17
36.45
32.47
32.39
36.57
43.19
48.97
50.67
46.52
36.86
23.92
10.78
0.10
-6.86
-10.51
-12.65
-15.64
-21.57
-31.78
-46.66
-65.72
-87.49
-109.29
-127.24
-136.83
-134.24
-117.94
-89.72
-54.46
-18.47
12.81
36.59
53.08
64.40
72.82
79.40
83.78
85.03
82.74
77.76
71.88
66.95
63.83
62.03
59.99
55.97
49.07
39.68
29.30
19.81
12.50
7.52
3.77
-0.67
-7.91
-19.62
-36.47
-57.56
-80.05
-99.41
-110.29
-108.30
-91.79
-62.84
-26.74
9.72
40.76
63.35
77.59
85.79
90.85
95.08
99.75
105.16
110.82
115.43
117.05
113.36
102.81
85.55
63.95
41.99
23.78
11.93
6.55
5.42
5.05
2.03
-5.94
-19.33
-36.43
-53.25
-63.97
-62.21
-43.04
-5.34
46.96
105.16
158.18
195.92
212.33
206.88
184.18
152.19
119.65
93.91
79.44
77.23
84.97
98.02
110.86
118.75
118.96
111.03
96.29
76.78
54.29
30.07
5.03
-19.81
-43.35
-64.92
-84.94
-105.18
-127.90
-154.33
-183.03
-209.54
-227.81
-232.89
-223.49
-202.96
-177.93
-155.33
-139.54
-130.93
-126.69
-123.02
-117.26
-108.68
-97.91
-85.82
-73.16
-61.19
-52.60
-51.58
-62.26
-86.26
-120.92
-159.27
-192.52
-213.61
-219.98
-214.02
-201.16
-186.97
-175.05
-166.51
-160.88
-157.04
-153.68
-148.82
-139.36
-121.55
-92.16
-49.81
4.38
67.33
135.21
204.52
272.55
336.87
394.48
441.52
473.78
487.91
482.88
460.53
425.33
383.05
339.14
297.48
260.01
227.18
198.84
174.83
154.94
138.42
123.49
107.48
87.64
62.29
31.52
-2.91
-38.23
-71.58
-100.68
-124.09
-141.17
-152.05
-157.56
-159.22
-159.03
-158.99
-160.61
-164.46
-170.22
-177.08
-184.23
-191.22
-198.00
-204.60
-210.88
-216.46
-220.87
-223.92
-225.81
-226.97
-227.74
-227.97
-226.93
-223.63
-217.43
-208.46
-197.84
-187.48
-179.56
-175.70
-176.19
-179.34
-181.50
-177.72
-163.15
-134.29
-89.98
-31.59
37.29
111.43
184.74
250.90
304.13
340.04
356.41
353.67
334.82
304.66
268.64
231.69
197.44
167.94
143.81
124.54
109.13
96.63
86.49
78.69
73.37
70.29
68.44
66.24
61.82
53.74
41.62
26.72
12.15
2.59
3.18
17.71
46.63
86.07
128.47
164.94
188.44
196.20
190.24
175.73
158.39
142.08
127.96
115.39
103.28
91.21
79.40
67.91
55.90
41.65
23.31
-0.09
-27.90
-58.07
-88.01
-115.63
-140.13
-161.99
-182.55
-203.21
-224.91
-247.85
-271.52
-294.95
-317.07
-337.04
-354.61
-370.18
-384.50
-398.16
-411.07
-422.41
-431.36
-438.11
-444.64
-454.18
-469.38
-490.02
-511.68
-526.48
-525.99
-504.88
-463.46
-407.70
-346.58
-288.58
-238.58
-196.94
-160.69
-125.56
-87.73
-44.80
3.85
56.67
109.26
154.41
183.42
189.28
170.13
131.37
84.86
45.02
23.57
25.31
46.89
79.07
111.05
134.70
146.71
148.29
143.02
134.35
124.13
112.49
98.68
82.28
64.07
45.63
28.67
14.02
0.98
-12.46
-28.59
-48.87
-72.79
-97.54
-118.51
-130.48
-128.67
-109.74
-72.48
-18.49
47.04
115.05
173.34
209.43
214.60
187.89
137.60
79.11
29.68
2.58
3.40
29.63
73.14
123.46
170.35
205.12
221.38
215.90
189.55
147.70
99.06
53.17
17.77
-3.39
-10.87
-8.39
-1.02
6.47
11.05
11.91
10.00
6.86
2.99
-3.15
-14.68
-34.14
-61.27
-91.79
-118.46
-133.86
-133.38
-116.69
-86.99
-48.91
-6.52
37.42
80.70
120.67
153.87
176.99
188.25
188.49
180.98
170.00
159.13
150.04
142.34
134.53
125.15
113.76
101.06
88.49
77.35
68.09
60.02
51.44
40.16
24.26
2.94
-22.71
-49.33
-71.71
-84.05
-81.75
-63.24
-30.82
9.84
51.45
87.39
113.57
129.18
136.11
137.59
136.64
135.11
133.33
130.59
125.80
118.21
107.80
95.30
81.92
68.85
56.96
46.58
37.46
28.93
20.06
9.69
-3.52
-20.80
-42.82
-68.72
-95.60
-118.44
-131.24
-128.97
-109.57
-75.20
-31.73
13.11
52.29
81.57
100.07
109.62
113.17
113.38
111.94
109.63
106.67
103.13
98.93
93.80
87.31
79.11
69.20
58.13
46.86
36.41
27.32
19.37
11.50
2.03
-10.87
-28.51
-50.87
-75.90
-99.31
-115.36
-118.55
-105.74
-77.61
-38.77
3.70
42.79
73.76
95.16
108.30
115.69
119.48
120.77
119.79
116.61
111.73
106.03
100.30
94.73
88.73
81.24
71.45
59.40
46.13
33.34
22.62
14.64
8.76
3.19
-4.56
-16.74
-34.56
-57.37
-82.21
-104.06
-116.98
-115.97
-98.86
-67.45
-27.16
14.80
51.82
79.91
98.27
108.53
113.10
113.85
111.66
106.77
99.62
91.23
82.94
75.80
69.91
64.35
57.62
48.55
37.02
24.08
11.51
0.97
-6.88
-12.75
-18.49
-26.45
-38.66
-56.06
-78.00
-101.83
-123.17
-136.74
-137.85
-124.15
-96.79
-60.32
-21.29
13.90
40.95
58.50
67.57
70.32
68.73
64.03
56.93
48.13
38.67
29.71
22.06
15.80
10.26
4.42
-2.48
-10.55
-19.25
-27.77
-35.53
-42.63
-49.95
-58.97
-71.24
-87.62
-107.38
-127.67
-143.76
-150.24
-142.89
-120.58
-86.13
-45.58
-6.19
26.08
48.20
60.37
64.98
64.95
62.50
58.76
54.14
48.85
43.20
37.52
31.92
26.19
19.95
12.87
4.93
-3.53
-12.01
-20.10
-27.82
-35.77
-45.16
-57.48
-73.81
-93.81
-115.01
-132.74
-141.31
-135.98
-115.08
-81.03
-39.76
1.37
36.08
61.09
76.31
83.86
86.36
85.73
82.92
78.39
72.80
67.18
62.53
59.28
56.88
54.04
49.34
41.92
31.92
20.40
8.89
-1.30
-9.61
-16.47
-23.21
-31.72
-43.84
-60.53
-81.13
-102.95
-121.49
-131.71
-129.67
-114.17
-87.35
-54.08
-20.29
9.00
31.01
45.41
53.49
57.01
57.34
55.18
50.88
44.89
37.81
30.35
22.98
15.85
8.88
1.96
-4.88
-11.39
-17.34
-22.64
-27.57
-32.77
-39.21
-47.99
-59.96
-75.18
-92.34
-108.53
-119.73
-122.00
-113.02
-93.17
-65.59
-35.12
-6.60
16.57
33.00
42.89
47.07
46.29
41.11
32.35
21.64
11.42
4.36
2.36
5.91
13.92
24.29
34.67
43.19
48.65
50.47
48.57
43.45
35.99
27.02
16.70
4.11
-12.25
-33.05
-56.59
-78.33
-92.21
-93.33
-80.59
-57.63
-31.37
-8.87
5.77
12.61
14.90
16.51
19.66
23.95
27.33
27.65
23.99
17.10
8.66
0.36
-6.78
-12.58
-17.30
-21.20
-24.37
-26.75
-28.47
-30.05
-32.48
-36.99
-44.57
-55.34
-68.09
-80.14
-87.76
-87.36
-76.79
-56.36
-28.99
0.74
28.27
50.46
66.42
77.11
84.34
89.66
93.78
96.59
97.66
96.63
93.38
87.80
79.76
69.15
56.22
41.97
28.17
16.90
9.62
6.20
4.87
2.70
-3.18
-14.46
-31.16
-51.57
-72.68
-90.57
-101.00
-100.25
-86.37
-60.27
-26.07
9.78
40.62
61.84
72.42
74.74
72.89
70.52
69.29
68.71
67.17
63.20
56.36
47.36
37.52
28.26
20.48
14.40
9.55
5.08
0.27
-5.15
-10.90
-16.66
-22.62
-29.90
-40.07
-53.96
-70.36
-85.52
-94.08
-91.22
-74.99
-47.48
-14.19
18.11
43.81
60.20
67.53
68.01
64.41
58.89
52.74
46.53
40.58
35.29
31.07
28.27
26.94
26.64
26.47
25.30
22.09
16.30
7.92
-2.62
-14.83
-28.66
-44.57
-63.14
-84.13
-105.51
-123.19
-131.97
-127.47
-108.28
-77.05
-39.92
-4.22
24.21
42.93
53.03
57.76
60.44
63.07
65.98
68.51
69.92
70.03
69.09
67.39
64.91
61.32
56.26
49.78
42.56
35.72
30.27
26.64
24.28
21.86
17.74
10.57
-0.24
-14.46
-31.01
-48.04
-63.04
-73.13
-75.62
-68.94
-53.42
-31.50
-7.07
15.78
34.11
46.78
54.40
58.35
59.89
59.69
57.86
54.42
49.62
43.97
38.00
31.92
25.65
18.93
11.66
4.09
-3.23
-9.77
-15.30
-20.14
-25.11
-31.43
-40.33
-52.65
-68.18
-85.14
-100.05
-108.46
-106.36
-91.82
-66.16
-33.76
-0.66
27.49
47.22
57.78
60.57
57.84
51.58
43.00
32.82
21.83
11.13
2.05
-4.39
-7.87
-8.99
-8.95
-9.08
-10.35
-13.19
-17.60
-23.56
-31.33
-41.47
-54.53
-70.43
-87.86
-104.04
-115.17
-117.43
-108.35
-87.90
-58.76
-25.65
6.09
32.17
50.40
60.87
65.23
65.59
63.57
60.04
55.22
49.18
42.09
34.27
26.07
17.66
9.22
0.96
-6.67
-13.09
-17.79
-20.83
-23.07
-26.19
-32.32
-43.19
-59.21
-78.64
-97.62
-110.91
-113.57
-102.62
-78.29
-44.10
-5.96
29.46
56.62
72.40
76.74
72.21
63.09
54.04
48.83
49.62
56.74
68.85
83.52
97.79
108.85
114.55
113.91
107.49
97.28
86.08
76.47
69.72
65.24
60.77
53.19
39.72
19.03
-8.01
-38.11
-66.09
-86.14
-93.49
-86.15
-65.64
-36.54
-4.92
23.71
45.90
60.69
68.98
72.35
72.16
69.30
64.44
58.44
52.28
46.76
42.00
37.27
31.34
23.09
12.21
-0.58
-13.78
-25.66
-35.10
-42.02
-47.56
-53.71
-62.77
-76.43
-94.85
-116.00
-135.63
-148.27
-149.02
-135.56
-109.34
-75.36
-40.36
-10.47
10.81
23.13
28.43
29.38
27.97
25.11
21.05
16.11
11.11
6.98
4.25
2.54
0.73
-2.45
-7.66
-14.49
-21.70
-27.93
-32.48
-35.83
-39.48
-45.46
-55.54
-70.37
-88.89
-107.85
-122.24
-126.43
-116.08
-90.11
-51.66
-7.51
34.17
66.63
86.70
95.17
95.53
91.75
86.56
80.85
74.22
66.12
56.56
46.12
35.56
25.26
15.13
4.90
-5.47
-15.57
-24.60
-31.85
-37.08
-40.83
-44.33
-49.17
-56.82
-68.03
-82.34
-97.64
-110.34
-116.22
-111.76
-95.62
-69.50
-37.79
-6.14
20.45
39.19
49.98
54.64
55.61
54.68
52.56
49.15
44.21
37.83
30.59
23.24
16.41
10.39
5.13
0.46
-3.74
-7.53
-11.01
-14.50
-18.69
-24.71
-33.80
-46.77
-63.22
-80.90
-95.87
-103.39
-99.69
-83.53
-57.02
-25.02
6.66
33.31
52.68
65.10
72.46
76.80
79.31
80.20
79.16
76.00
70.97
64.61
57.41
49.58
41.04
31.70
21.69
11.50
1.82
-6.78
-14.20
-20.98
-28.35
-37.95
-51.17
-68.35
-87.95
-106.33
-118.55
-119.93
-107.95
-83.57
-51.19
-17.06
12.86
34.96
48.62
55.64
58.72
60.00
60.42
59.84
57.76
53.90
48.39
41.69
34.26
26.42
18.34
10.14
2.02
-5.73
-12.84
-19.28
-25.44
-32.24
-41.04
-53.04
-68.45
-85.61
-100.79
-109.02
-105.80
-89.07
-60.46
-25.02
10.52
40.15
60.56
71.72
76.03
76.63
75.94
74.92
73.34
70.50
65.88
59.39
51.27
41.90
31.63
20.84
9.99
-0.36
-9.66
-17.67
-24.61
-31.36
-39.31
-50.00
-64.32
-81.56
-98.93
-111.80
-115.11
-105.27
-81.84
-48.15
-10.31
24.90
52.37
69.98
78.72
81.36
80.94
79.48
77.67
75.16
71.34
65.76
58.46
49.83
40.44
30.82
21.34
12.23
3.62
-4.53
-12.44
-20.74
-30.55
-43.29
-60.04
-80.47
-102.00
-119.81
-128.09
-122.11
-100.45
-66.02
-25.30
13.89
45.15
65.47
75.60
78.74
78.65
77.98
77.60
76.96
74.94
70.64
63.84
55.01
45.02
34.78
24.98
15.99
7.85
0.31
-7.04
-14.93
-24.38
-36.62
-52.48
-71.50
-91.08
-106.60
-112.57
-104.68
-81.88
-47.29
-7.34
30.40
60.00
78.88
88.05
90.77
90.61
89.95
89.43
88.42
85.94
81.34
74.68
66.52
57.72
49.02
40.87
33.38
26.41
19.68
12.86
5.53
-3.06
-14.01
-28.44
-46.74
-67.55
-87.35
-101.08
-103.74
-92.52
-68.19
-35.15
0.13
31.49
55.08
70.13
78.32
82.35
84.48
85.82
86.42
85.82
83.58
79.59
74.07
67.45
60.28
53.12
46.46
40.60
35.41
30.16
23.58
14.00
-0.25
-20.35
-46.37
-76.60
-107.25
-132.77
-147.19
-145.99
-128.06
-96.50
-57.87
-20.07
10.31
29.97
39.31
41.34
39.71
36.99
33.94
29.85
23.65
14.94
4.58
-5.47
-12.97
-16.34
-15.47
-11.74
-7.51
-5.09
-5.96
-10.55
-18.75
-30.46
-45.83
-64.60
-85.11
-103.73
-115.33
-114.99
-100.23
-72.53
-37.18
-1.48
28.00
47.63
57.49
60.47
60.30
59.79
59.92
60.08
59.00
55.68
49.89
42.18
33.41
24.28
15.10
5.71
-4.27
-15.12
-26.96
-39.79
-53.71
-68.87
-85.16
-101.60
-115.82
-124.31
-123.36
-110.60
-86.34
-53.83
-18.39
14.48
40.80
59.11
70.17
75.92
78.29
78.49
76.99
73.96
69.54
63.97
57.45
50.04
41.62
32.17
21.96
11.67
2.20
-5.69
-11.76
-16.55
-21.34
-27.87
-37.76
-51.77
-69.03
-86.67
-100.21
-104.83
-97.14
-76.70
-46.54
-12.28
19.82
44.95
61.09
68.97
71.05
70.06
67.91
65.47
62.83
59.84
56.30
52.06
46.86
40.47
32.82
24.18
15.19
6.63
-0.91
-7.31
-13.05
-19.18
-27.14
-38.31
-53.40
-71.61
-90.22
-104.80
-110.50
-103.79
-84.07
-54.25
-19.85
12.94
39.44
57.73
68.70
74.82
78.66
81.70
84.03
84.82
83.05
78.18
70.40
60.54
49.75
39.12
29.43
21.08
14.06
7.96
1.96
-5.29
-15.44
-29.99
-49.49
-72.71
-96.30
-115.35
-124.92
-122.05
-107.31
-84.96
-61.55
-43.41
-34.17
-33.55
-37.97
-42.52
-43.29
-38.88
-30.43
-20.58
-11.90
-6.00
-3.25
-3.31
-5.61
-9.82
-15.64
-22.62
-30.00
-36.86
-42.54
-47.07
-51.47
-57.44
-66.59
-79.37
-94.15
-107.19
-113.56
-109.00
-91.69
-63.28
-28.36
7.13
38.07
61.65
77.64
87.65
93.77
97.56
99.68
100.19
99.03
96.30
92.29
87.26
81.30
74.36
66.43
57.72
48.73
40.12
32.34
25.40
18.67
10.93
0.66
-13.45
-31.77
-53.06
-74.19
-90.64
-97.73
-92.37
-74.37
-46.78
-14.91
15.54
40.39
57.97
68.97
75.28
78.74
80.41
80.55
79.17
76.49
73.03
69.34
65.58
61.44
56.30
49.69
41.64
32.78
24.09
16.30
9.53
3.08
-4.37
-14.36
-28.10
-45.80
-66.17
-86.18
-101.53
-107.79
-102.02
-84.08
-56.96
-25.87
3.65
27.50
44.09
54.04
59.05
60.65
59.55
55.89
49.91
42.48
34.99
28.79
24.44
21.45
18.51
14.20
7.82
-0.29
-8.90
-16.54
-22.30
-26.26
-29.54
-33.90
-41.06
-52.07
-66.69
-83.09
-97.95
-107.13
-106.85
-95.12
-72.59
-42.56
-9.96
20.35
44.94
62.50
73.48
79.08
80.46
78.38
73.45
66.52
58.83
51.62
45.71
41.02
36.78
31.99
25.99
18.84
11.28
4.24
-1.59
-6.19
-10.20
-14.86
-21.65
-31.83
-45.79
-62.38
-78.63
-90.21
-92.79
-83.72
-63.28
-34.86
-3.75
24.79
47.20
62.40
71.21
75.21
75.67
73.14
67.89
60.44
51.87
43.57
36.61
31.23
26.75
22.05
16.14
8.77
0.51
-7.65
-14.83
-20.77
-26.05
-31.86
-39.71
-50.87
-65.77
-83.49
-101.38
-115.37
-120.99
-114.83
-96.08
-67.07
-32.74
1.05
29.45
49.92
62.42
68.51
70.15
68.74
65.06
59.53
52.75
45.55
38.73
32.70
27.22
21.67
15.40
8.19
0.45
-7.03
-13.53
-18.81
-23.40
-28.56
-35.95
-47.05
-62.32
-80.54
-98.45
-111.35
-114.46
-104.71
-82.18
-50.32
-14.80
18.47
45.32
64.17
75.76
81.86
84.12
83.43
80.18
74.76
67.98
60.93
54.48
48.83
43.43
37.38
29.94
21.11
11.61
2.55
-5.13
-11.20
-16.38
-22.17
-30.46
-42.86
-59.91
-80.32
-100.69
-116.01
-121.03
-112.14
-89.01
-54.95
-15.99
21.21
51.59
72.88
85.54
91.63
93.34
92.18
88.91
83.99
78.07
71.99
66.43
61.44
56.34
50.02
41.59
30.95
19.01
7.32
-2.67
-10.31
-16.07
-21.46
-28.43
-38.77
-53.43
-71.94
-92.09
-110.04
-121.05
-120.91
-107.48
-81.78
-47.93
-11.85
20.67
45.71
62.00
70.43
72.97
71.49
67.29
61.17
53.77
45.80
38.00
30.80
24.21
17.93
11.55
4.89
-1.94
-8.63
-14.91
-20.77
-26.62
-33.27
-41.85
-53.52
-68.78
-86.73
-104.53
-117.69
-121.28
-111.80
-88.78
-55.38
-17.49
18.28
46.84
65.91
76.02
79.37
78.52
75.34
70.86
65.50
59.51
53.09
46.31
39.09
31.27
22.82
13.93
5.08
-3.17
-10.49
-16.93
-23.07
-29.92
-38.82
-51.02
-67.08
-86.04
-104.98
-119.23
-123.73
-114.94
-92.55
