1484667824.00
64.000000
-0.00
-0.00
-0.00
-0.00
-0.00
-0.00
-0.00
-0.00
-0.00
-0.00
0.00
0.01
0.01
-0.00
-0.03
-0.05
-0.05
0.00
0.13
0.36
0.66
1.01
1.37
1.72
2.06
2.40
2.79
3.24
3.80
4.42
5.06
5.66
6.20
6.68
7.15
7.68
8.31
9.14
10.09
11.04
11.88
12.56
13.14
13.76
14.65
15.96
17.91
20.32
22.90
25.38
27.58
29.57
31.68
34.32
37.81
42.54
48.15
54.10
59.83
64.97
69.58
74.14
79.34
85.71
93.76
103.00
112.62
121.73
129.77
136.75
143.30
150.75
157.77
166.64
177.95
191.79
206.97
220.57
228.25
225.36
208.53
176.87
132.76
80.05
23.07
-34.94
-92.44
-149.16
-205.23
-260.37
-313.74
-363.87
-409.83
-450.91
-486.50
-515.74
-537.23
-549.22
-549.96
-538.37
-514.21
-478.67
-433.88
-382.45
-327.02
-269.84
-212.63
-156.66
-102.95
-52.37
-5.90
35.58
71.43
101.35
125.50
144.38
158.69
169.15
176.37
180.75
182.57
182.07
179.51
175.23
169.65
163.18
156.15
148.81
141.30
133.69
126.02
118.33
110.69
103.16
95.80
88.68
81.83
75.25
68.95
62.95
57.25
51.86
46.78
42.03
37.59
33.45
29.61
26.07
22.81
19.83
17.11
14.67
12.48
10.54
8.83
7.35
6.07
4.97
4.05
3.27
2.62
2.09
1.65
1.30
1.01
0.79
0.61
0.48
0.37
0.28
0.22
0.17
0.14
0.11
0.10
0.09
0.09
0.09
0.10
0.11
0.14
0.16
0.19
0.23
0.27
0.31
0.35
0.40
0.45
0.49
0.54
0.59
0.64
0.70
0.76
0.82
0.89
0.97
1.05
1.14
1.25
1.36
1.49
1.64
1.81
1.99
2.19
2.42
2.67
2.95
3.26
3.59
3.96
4.37
4.81
5.28
5.79
6.34
6.93
7.56
8.23
8.95
9.71
10.51
11.35
12.23
13.16
14.14
15.18
16.28
17.44
18.65
19.89
21.11
22.25
23.23
23.94
24.25
24.05
23.22
21.69
19.43
16.45
12.82
8.64
4.11
-0.57
-5.19
-9.52
-13.39
-16.63
-19.13
-20.86
-21.80
-22.03
-21.65
-20.81
-19.64
-18.27
-16.74
-15.14
-13.46
-11.72
-9.95
-8.22
-6.59
-5.12
-3.81
-2.61
-1.47
-0.32
0.91
2.26
3.60
4.82
5.85
6.71
7.47
8.30
9.36
10.79
12.65
14.65
16.56
18.23
19.71
21.21
23.12
25.82
29.52
34.24
39.36
44.24
48.43
51.77
54.52
57.17
60.25
64.01
68.34
72.19
74.51
74.51
71.89
66.86
59.76
50.70
38.77
25.88
11.89
-3.78
-21.81
-42.83
-67.29
-94.91
-124.22
-152.23
-174.69
-187.84
-189.27
-179.11
-160.19
-136.93
-113.60
-92.88
-75.44
-60.54
-47.57
-36.44
-27.59
-21.48
-17.92
-15.87
-13.86
-10.70
-5.97
-0.42
4.59
7.71
8.06
5.46
0.34
-6.45
-14.07
-21.92
-29.94
-38.33
-47.34
-57.04
-67.22
-77.40
-87.11
-96.10
-104.40
-112.21
-119.46
-125.50
-128.99
-128.16
-121.39
-107.87
-88.04
-63.52
-36.65
-9.69
15.72
38.80
59.26
76.93
91.36
101.97
108.51
111.46
112.03
111.87
112.35
114.14
117.01
120.11
122.45
123.24
122.03
118.73
113.46
106.63
98.87
91.07
84.13
78.59
74.48
71.21
67.81
63.22
56.57
47.50
36.30
23.92
11.74
1.15
-7.07
-13.03
-17.68
-22.43
-28.39
-35.80
-43.98
-51.58
-57.23
-60.03
-59.66
-56.27
-50.18
-41.85
-32.00
-21.74
-12.42
-5.40
-1.55
-1.00
-3.05
-6.54
-10.33
-13.70
-16.54
-19.16
-21.96
-24.92
-27.47
-28.55
-27.08
-22.47
-14.96
-5.64
3.97
12.39
18.66
22.50
24.26
24.53
23.95
23.01
22.04
21.27
20.86
20.94
21.55
22.62
23.97
25.29
26.20
26.32
25.45
23.63
21.22
18.83
17.14
16.59
17.17
18.28
18.87
17.80
14.31
8.43
1.19
-5.61
-9.91
-10.00
-5.17
3.99
15.75
27.64
36.94
41.21
39.01
30.53
17.89
4.74
-4.98
-8.59
-5.98
0.34
6.35
8.37
4.75
-3.61
-13.99
-23.40
-29.99
-33.60
-35.30
-36.56
-38.40
-41.04
-44.17
-47.32
-50.24
-53.06
-56.25
-60.17
-64.63
-68.76
-71.10
-70.28
-65.64
-57.67
-47.87
-38.17
-30.02
-23.91
-19.30
-15.09
-10.35
-4.76
1.32
7.20
12.36
16.63
20.20
23.25
25.73
27.35
27.75
26.80
24.71
22.00
19.19
16.62
14.34
12.14
9.73
6.87
3.34
-1.04
-6.34
-12.33
-18.34
-23.37
-26.30
-26.40
-23.61
-18.63
-12.57
-6.52
-1.15
3.42
7.33
10.73
13.51
15.38
16.10
15.75
14.84
14.11
14.19
15.26
16.94
18.44
18.88
17.72
14.89
10.88
6.49
2.57
-0.34
-2.16
-3.33
-4.69
-7.27
-11.83
-18.47
-26.39
-33.92
-39.03
-40.02
-36.35
-28.96
-20.06
-12.37
-8.06
-7.95
-11.41
-16.79
-22.20
-26.42
-29.24
-31.40
-34.13
-38.36
-44.20
-50.62
-55.71
-57.45
-54.52
-47.14
-37.07
-27.02
-19.48
-15.64
-14.90
-15.16
-13.73
-8.16
2.94
19.40
39.21
58.67
73.09
78.18
71.67
54.38
30.26
4.93
-16.63
-32.08
-42.56
-51.75
-63.85
-81.30
-103.55
-127.13
-146.96
-158.14
-157.56
-144.75
-121.75
-92.25
-60.14
-28.65
0.33
25.90
47.54
64.61
76.28
82.07
82.97
82.25
85.20
97.40
121.98
157.39
196.99
231.01
250.36
250.32
232.50
204.11
174.79
152.82
142.34
142.80
150.56
161.43
172.75
183.86
195.01
205.70
213.60
215.05
206.99
189.17
165.30
142.03
126.10
121.15
125.90
134.59
139.56
134.45
116.66
87.97
53.38
19.01
-10.07
-31.13
-44.02
-50.50
-52.99
-53.57
-53.33
-52.43
-50.63
-47.86
-44.57
-41.61
-39.82
-39.58
-40.72
-42.83
-45.68
-49.50
-54.95
-62.63
-72.50
-83.46
-93.69
-101.40
-105.83
-107.67
-108.73
-110.90
-115.02
-120.33
-124.79
-126.19
-123.22
-116.00
-106.08
-95.64
-86.76
-80.83
-78.40
-79.23
-82.39
-86.45
-89.74
-90.86
-89.24
-85.50
-81.33
-78.82
-79.52
-83.62
-89.83
-95.83
-99.29
-98.70
-93.83
-85.47
-74.78
-62.72
-49.77
-36.26
-22.86
-11.01
-2.73
-0.03
-4.16
-15.04
-31.32
-50.61
-69.53
-83.56
-87.37
-76.00
-47.41
-4.90
42.15
80.66
98.94
92.19
65.19
30.44
2.30
-9.68
-4.83
9.38
21.98
24.10
12.51
-10.36
-39.00
-67.99
-93.77
-114.70
-129.92
-138.52
-139.48
-132.45
-118.53
-100.41
-81.57
-65.08
-52.55
-43.75
-37.13
-30.62
-22.54
-12.21
-0.11
12.29
22.93
29.71
31.09
26.56
16.99
4.59
-7.57
-16.33
-19.44
-16.04
-6.84
6.44
21.68
37.06
51.31
63.53
73.01
79.14
81.68
81.07
78.67
76.47
76.41
79.50
85.53
93.14
100.56
106.43
110.30
112.54
113.92
115.01
115.88
116.17
115.46
113.58
110.69
107.20
103.52
100.10
97.37
95.79
95.59
96.47
97.41
96.89
93.42
86.32
76.12
64.43
53.29
44.43
38.66
35.99
35.84
37.54
40.60
44.75
49.73
54.85
58.93
60.34
57.59
50.03
38.39
24.72
11.56
0.69
-7.70
-15.20
-24.36
-37.14
-54.22
-74.54
-96.04
-116.71
-135.12
-150.47
-161.89
-168.00
-167.10
-158.30
-142.65
-123.65
-106.17
-94.37
-89.47
-89.04
-88.09
-81.57
-66.97
-45.49
-21.41
0.08
14.82
21.28
20.21
13.78
4.60
-5.15
-13.85
-20.67
-25.48
-28.48
-30.57
-33.63
-41.02
-57.37
-86.88
-130.71
-184.61
-238.42
-278.51
-292.20
-272.37
-219.89
-142.85
-53.12
37.77
121.09
191.31
244.94
279.26
292.37
284.10
257.25
217.48
172.94
132.48
103.78
91.37
94.85
108.43
121.90
123.50
103.97
60.25
-2.98
-74.51
-140.28
-188.05
-210.72
-207.55
-182.91
-143.84
-97.70
-50.66
-7.20
29.85
59.08
80.38
94.83
104.19
110.52
115.59
120.79
127.07
135.06
144.64
154.67
162.62
164.83
157.45
137.73
105.46
63.52
17.45
-26.04
-60.89
-83.32
-92.72
-91.55
-84.18
-74.98
-66.58
-58.98
-50.24
-38.27
-22.95
-6.91
5.45
10.24
6.32
-4.00
-16.15
-25.77
-30.77
-31.93
-31.68
-32.20
-34.07
-36.23
-37.09
-35.83
-33.00
-30.27
-29.59
-32.18
-38.26
-47.09
-57.47
-68.17
-78.11
-86.45
-92.51
-95.70
-95.52
-91.59
-83.72
-71.96
-56.75
-38.99
-20.14
-2.06
13.25
24.17
29.93
30.90
28.45
24.53
21.04
19.14
19.00
19.96
21.04
21.56
21.49
21.27
21.42
21.98
22.29
21.27
17.99
12.30
5.01
-2.27
-7.78
-10.22
-9.14
-4.94
1.43
8.81
16.08
22.23
26.44
28.23
27.59
25.04
21.45
17.78
14.78
12.82
11.94
11.93
12.45
13.07
13.16
12.02
9.01
3.92
-2.83
-10.29
-17.45
-23.87
-29.91
-36.64
-45.19
-55.86
-67.80
-79.06
-87.34
-90.94
-89.45
-83.65
-75.02
-64.95
-54.05
-42.09
-28.42
-12.58
5.09
23.18
39.58
52.29
60.16
63.52
64.09
64.02
65.14
68.26
73.18
79.34
86.12
92.63
97.05
96.50
88.09
70.68
46.24
19.64
-3.66
-20.47
-31.55
-40.86
-52.64
-68.35
-85.32
-98.13
-101.62
-93.73
-76.49
-54.69
-33.48
-16.29
-4.11
4.10
10.27
16.36
23.89
33.65
45.89
60.35
76.28
92.42
106.91
117.37
121.37
117.16
104.55
85.37
63.11
41.88
25.11
14.47
9.55
8.23
7.64
5.18
-0.63
-9.86
-21.33
-33.05
-42.98
-49.70
-52.88
-53.19
-51.84
-49.82
-47.33
-43.86
-38.70
-31.65
-23.49
-15.77
-10.21
-7.90
-8.87
-12.29
-16.98
-22.00
-26.89
-31.54
-35.73
-38.90
-40.25
-39.05
-35.09
-28.90
-21.55
-14.25
-7.94
-2.99
0.72
3.65
6.28
8.90
11.55
14.04
16.12
17.61
18.49
18.88
19.00
19.01
18.95
18.70
18.09
17.02
15.49
13.60
11.47
9.15
6.64
3.99
1.43
-0.64
-1.71
-1.43
0.16
2.68
5.49
7.96
9.66
10.46
10.45
9.77
8.58
7.00
5.17
3.29
1.60
0.34
-0.38
-0.59
-0.54
-0.57
-0.96
-1.86
-3.20
-4.76
-6.32
-7.77
-9.13
-10.55
-12.16
-13.92
-15.68
-17.11
-17.89
-17.80
-16.86
-15.41
-14.02
-13.37
-13.93
-15.82
-18.55
-21.28
-23.11
-23.50
-22.62
-21.21
-20.28
-20.48
-21.71
-22.97
-22.70
-19.31
-11.92
-0.81
12.46
25.11
33.63
34.34
24.29
2.13
-30.89
-70.44
-109.60
-140.53
-156.66
-154.69
-135.27
-102.23
-60.68
-15.29
30.37
73.42
110.87
139.35
155.93
159.46
151.57
136.35
118.74
102.46
88.74
76.50
63.62
48.65
31.87
15.16
1.18
-7.73
-10.42
-7.09
0.90
11.35
21.78
29.86
33.85
32.98
27.69
19.44
10.32
2.42
-2.76
-4.69
-3.81
-1.33
1.14
2.12
0.65
-3.41
-9.32
-15.71
-21.04
-24.12
-24.52
-22.64
-19.51
-16.32
-13.97
-12.87
-12.91
-13.69
-14.71
-15.54
-15.86
-15.35
-13.81
-11.15
-7.48
-3.18
1.15
4.92
7.80
9.78
11.12
12.20
13.23
14.15
14.67
14.48
13.46
11.80
9.96
8.45
7.55
7.26
7.26
7.16
6.66
5.65
4.21
2.52
0.78
-0.84
-2.11
-2.79
-2.70
-1.84
-0.46
0.92
1.83
2.00
1.54
0.81
0.18
-0.19
-0.46
-0.94
-1.89
-3.30
-4.86
-6.11
-6.67
-6.46
-5.73
-4.88
-4.35
-4.35
-4.89
-5.82
-6.95
-8.08
-9.11
-9.95
-10.45
-10.47
-9.88
-8.69
-7.08
-5.29
-3.55
-1.94
-0.36
1.39
3.47
5.84
8.26
10.32
11.63
12.01
11.51
10.39
8.93
7.29
5.50
3.50
1.31
-0.86
-2.70
-3.97
-4.66
-5.05
-5.62
-6.74
-8.48
-10.53
-12.30
-13.25
-13.10
-12.00
-10.42
-8.93
-7.97
-7.64
-7.81
-8.11
-8.24
-8.04
-7.50
-6.72
-5.80
-4.83
-3.86
-3.00
-2.37
-2.13
-2.35
-2.98
-3.87
-4.78
-5.52
-5.95
-6.06
-5.92
-5.69
-5.49
-5.34
-5.19
-4.88
-4.26
-3.23
-1.88
-0.40
0.93
1.89
2.34
2.28
1.88
1.37
0.99
0.91
1.16
1.65
2.22
2.71
3.03
3.19
3.17
2.94
2.45
1.64
0.52
-0.87
-2.43
-4.10
-5.87
-7.76
-9.74
-11.61
-13.05
-13.73
-13.43
-12.19
-10.30
-8.22
-6.38
-5.01
-4.13
-3.56
-3.06
-2.49
-1.83
-1.15
-0.50
0.13
0.86
1.73
2.68
3.50
3.92
3.71
2.82
1.42
-0.15
-1.55
-2.54
-3.09
-3.25
-3.12
-2.81
-2.37
-1.82
-1.25
-0.76
-0.41
-0.21
-0.13
-0.12
-0.22
-0.48
-0.98
-1.69
-2.49
-3.20
-3.70
-4.04
-4.32
-4.64
-4.99
-5.26
-5.34
-5.27
-5.25
-5.52
-6.24
-7.28
-8.25
-8.65
-8.12
-6.69
-4.67
-2.66
-1.09
-0.17
0.26
0.50
0.87
1.47
2.19
2.80
3.09
3.03
2.67
2.16
1.57
0.90
0.10
-0.87
-1.91
-2.92
-3.80
-4.55
-5.22
-5.89
-6.53
-6.95
-6.94
-6.31
-5.09
-3.51
-1.92
-0.69
-0.07
-0.14
-0.72
-1.50
-2.03
-2.01
-1.35
-0.26
0.84
1.52
1.59
1.13
0.42
-0.26
-0.82
-1.38
-2.12
-3.15
-4.36
-5.50
-6.33
-6.75
-6.79
-6.59
-6.24
-5.70
-4.85
-3.51
-1.64
0.62
2.91
4.76
5.80
5.93
5.36
4.49
3.74
3.31
3.16
3.08
2.85
2.37
1.67
0.85
-0.06
-1.14
-2.51
-4.21
-6.11
-7.93
-9.33
-9.98
-9.69
-8.50
-6.57
-4.25
-1.91
0.19
1.95
3.38
4.59
5.62
6.34
6.57
6.16
5.12
3.68
2.22
1.04
0.24
-0.32
-0.95
-1.87
-3.23
-4.97
-6.92
-8.94
-10.90
-12.72
-14.25
-15.27
-15.48
-14.60
-12.49
-9.31
-5.47
-1.52
1.95
4.56
6.22
7.09
7.51
7.79
8.12
8.51
8.87
9.05
8.92
8.42
7.56
6.41
5.07
3.63
2.16
0.69
-0.80
-2.43
-4.32
-6.58
-9.18
-11.85
-14.09
-15.30
-15.00
-13.05
-9.74
-5.71
-1.70
1.69
4.19
5.79
6.64
6.89
6.62
5.90
4.83
3.61
2.48
1.62
1.05
0.64
0.10
-0.87
-2.48
-4.80
-7.77
-11.25
-15.09
-19.26
-23.74
-28.52
-33.40
-38.05
-41.97
-44.74
-46.08
-46.03
-44.83
-42.89
-40.69
-38.71
-37.41
-37.16
-38.16
-40.25
-42.94
-45.46
-47.03
-47.19
-46.12
-44.69
-44.21
-45.98
-50.60
-57.51
-64.96
-70.49
-71.81
-67.80
-59.06
-47.75
-36.93
-29.44
-26.93
-29.21
-34.26
-38.82
-39.48
-33.84
-21.47
-4.20
14.53
30.95
42.43
48.40
50.40
51.07
52.74
56.21
60.35
62.66
60.43
52.05
37.75
19.64
0.95
-14.99
-25.68
-29.87
-27.53
-19.61
-7.65
6.57
21.48
35.97
49.57
62.38
74.70
86.42
96.68
103.89
106.43
103.53
96.09
86.71
78.82
75.29
77.06
82.30
86.56
84.41
71.88
48.86
19.77
-8.02
-27.33
-34.50
-30.81
-21.44
-12.54
-8.10
-8.38
-10.77
-11.97
-10.35
-6.65
-3.07
-1.47
-2.06
-3.31
-3.08
-0.15
5.10
10.75
14.26
13.65
8.41
-0.35
-10.58
-20.11
-27.62
-32.89
-36.74
-40.46
-45.19
-51.43
-59.00
-67.10
-74.70
-80.70
-84.29
-85.07
-83.13
-78.97
-73.38
-67.15
-60.87
-54.82
-48.87
-42.72
-36.01
-28.56
-20.49
-12.23
-4.31
2.83
9.11
14.86
20.56
26.52
32.51
37.70
40.97
41.52
39.40
35.68
32.27
31.17
33.80
40.42
50.09
61.10
71.63
80.37
86.87
91.51
94.94
97.50
98.76
97.50
92.38
82.87
69.99
56.36
45.51
40.48
42.60
50.87
62.16
72.57
78.77
79.20
74.34
66.63
59.90
58.54
66.34
85.01
112.97
144.99
173.56
191.45
194.62
183.79
163.76
140.76
119.44
101.00
83.65
64.91
44.17
23.71
7.67
-0.24
1.02
9.10
19.43
27.06
28.67
23.24
11.80
-3.15
-17.87
-27.43
-26.50
-10.95
19.73
60.85
102.93
134.56
146.39
134.33
100.43
51.18
-5.33
-61.84
-112.94
-154.86
-185.07
-202.34
-207.30
-202.68
-192.81
-182.18
-174.11
-169.80
-168.62
-168.82
-168.39
-165.72
-159.83
-150.44
-137.95
-123.34
-107.90
-92.90
-79.17
-66.88
-55.62
-44.72
-33.79
-23.06
-13.32
-5.62
-0.69
1.46
1.54
0.65
-0.16
-0.35
0.04
0.59
0.77
0.19
-1.24
-3.37
-5.88
-8.32
-10.17
-10.86
-9.98
-7.39
-3.33
1.63
6.76
11.42
15.24
18.12
20.10
21.22
21.41
20.66
19.14
17.31
15.87
15.54
16.66
19.00
21.75
23.82
24.27
22.62
18.98
13.91
8.24
2.84
-1.35
-3.46
-2.87
0.60
6.45
13.55
20.50
26.13
29.95
32.25
33.82
35.35
37.01
38.36
38.67
37.41
34.57
30.72
26.64
22.95
19.77
16.80
13.50
9.49
4.73
-0.55
-5.84
-10.58
-14.08
-15.61
-14.49
-10.40
-3.71
4.47
12.44
18.61
22.02
22.68
21.34
19.01
16.37
13.58
10.43
6.74
2.71
-1.05
-3.85
-5.28
-5.48
-5.06
-4.78
-5.23
-6.62
-8.86
-11.81
-15.40
-19.65
-24.37
-29.01
-32.62
-34.10
-32.73
-28.53
-22.36
-15.56
-9.43
-4.79
-1.82
-0.25
0.27
-0.03
-0.99
-2.46
-4.05
-5.27
-5.64
-5.03
-3.71
-2.30
-1.52
-1.96
-3.93
-7.37
-11.88
-16.70
-20.81
-23.17
-22.96
-19.82
-13.76
-4.83
7.13
22.44
41.16
62.26
83.24
100.36
109.73
108.47
95.63
72.27
41.05
5.70
-29.44
-59.79
-81.09
-90.55
-87.90
-75.88
-59.54
-44.51
-34.97
-32.51
-36.14
-43.34
-51.42
-58.35
-62.89
-64.39
-62.47
-57.09
-48.65
-38.02
-26.29
-14.51
-3.58
5.85
13.37
18.88
22.76
25.80
28.97
33.00
37.99
43.35
48.09
51.32
52.55
51.79
49.35
45.53
40.61
35.01
29.40
24.67
21.69
20.89
22.03
24.25
26.44
27.70
27.51
25.76
22.54
18.00
12.29
5.78
-0.74
-6.27
-9.94
-11.44
-11.28
-10.69
-10.82
-11.70
-12.00
-9.82
-4.22
3.59
10.28
11.98
6.49
-5.22
-19.23
-30.58
-35.69
-33.92
-27.38
-19.45
-12.76
-8.23
-5.27
-2.89
-0.57
1.41
2.48
2.39
1.41
0.15
-0.61
-0.45
0.52
1.73
2.45
2.10
0.51
-2.14
-5.25
-8.16
-10.42
-11.99
-13.22
-14.76
-17.13
-20.45
-24.19
-27.20
-28.15
-26.07
-20.86
-13.42
-5.30
1.88
7.05
10.01
11.25
11.56
11.56
11.43
11.08
10.32
9.14
7.77
6.58
5.82
5.54
5.52
5.41
4.82
3.50
1.37
-1.45
-4.78
-8.36
-11.94
-15.23
-17.76
-19.03
-18.54
-16.07
-11.94
-6.90
-2.00
1.90
4.40
5.65
6.15
6.34
6.33
5.89
4.73
2.72
0.19
-2.33
-4.32
-5.58
-6.45
-7.49
-9.31
-12.18
-16.05
-20.57
-25.36
-30.05
-34.23
-37.31
-38.51
-37.06
-32.57
-25.39
-16.65
-7.93
-0.70
4.22
6.88
7.96
8.33
8.60
8.92
9.15
9.03
8.50
7.71
6.88
6.17
5.50
4.67
3.45
1.65
-0.70
-3.57
-6.93
-10.95
-15.85
-21.66
-27.93
-33.56
-37.10
-37.19
-33.19
-25.60
-15.88
-5.97
2.51
8.74
12.76
15.18
16.64
17.46
17.59
16.91
15.41
13.35
11.16
9.23
7.68
6.43
5.13
3.41
0.96
-2.43
-6.81
-12.12
-18.10
-24.25
-29.75
-33.64
-35.03
-33.53
-29.48
-23.83
-17.82
-12.41
-7.92
-4.09
-0.46
3.20
6.56
8.93
9.72
8.85
6.87
4.65
3.00
2.18
1.95
1.71
0.91
-0.73
-3.22
-6.46
-10.41
-15.16
-20.66
-26.49
-31.70
-34.92
-34.88
-30.92
-23.35
-13.44
-2.95
6.50
13.93
19.15
22.53
24.62
25.80
26.24
26.02
25.23
24.12
22.95
21.88
20.88
19.74
18.25
16.27
13.82
11.00
7.89
4.43
0.41
-4.42
-10.15
-16.36
-22.13
-26.13
-27.11
-24.36
-18.08
-9.40
0.08
8.88
16.19
21.88
26.33
29.91
32.72
34.53
35.08
34.44
32.99
31.40
30.20
29.60
29.34
28.89
27.68
25.42
22.21
18.43
14.66
11.32
8.57
6.21
3.79
0.79
-3.18
-8.24
-14.18
-20.47
-26.27
-30.61
-32.52
-31.42
-27.27
-20.73
-12.90
-4.94
2.29
8.50
13.82
18.47
22.43
25.34
26.72
26.35
24.56
22.17
20.18
19.25
19.38
19.90
19.87
18.59
15.97
12.56
9.19
6.56
4.88
3.82
2.82
1.30
-1.03
-4.25
-8.19
-12.56
-16.81
-20.20
-21.83
-20.96
-17.37
-11.54
-4.56
2.33
8.21
12.77
16.24
19.01
21.24
22.75
23.18
22.33
20.46
18.25
16.50
15.68
15.75
16.14
16.12
15.15
13.07
10.21
7.08
4.14
1.61
-0.64
-2.90
-5.53
-8.79
-12.83
-17.59
-22.77
-27.77
-31.67
-33.45
-32.36
-28.26
-21.77
-14.18
-6.87
-0.95
3.17
5.66
7.01
7.61
7.64
7.13
6.18
5.11
4.36
4.30
4.92
5.85
6.42
6.02
4.33
1.46
-2.15
-5.90
-9.30
-12.17
-14.73
-17.50
-21.09
-25.79
-31.32
-36.69
-40.48
-41.29
-38.38
-31.99
-23.30
-13.94
-5.37
1.65
7.09
11.43
15.17
18.50
21.23
22.97
23.45
22.75
21.30
19.68
18.47
17.96
18.04
18.30
18.09
16.90
14.48
11.07
7.22
3.55
0.46
-2.07
-4.42
-7.03
-10.26
-14.16
-18.70
-23.76
-29.21
-34.73
-39.60
-42.73
-43.00
-39.68
-32.91
-23.70
-13.63
-4.22
3.54
9.44
13.88
17.48
20.66
23.50
25.74
27.02
27.21
26.50
25.37
24.41
23.96
23.98
24.08
23.72
22.51
20.37
17.45
14.01
10.29
6.38
2.35
-1.68
-5.48
-8.75
-11.36
-13.44
-15.54
-18.41
-22.71
-28.57
-35.24
-41.18
-44.47
-43.56
-37.94
-28.46
-17.02
-5.86
3.25
9.61
13.47
15.68
17.09
18.16
18.95
19.31
19.21
18.80
18.42
18.29
18.47
18.75
18.77
18.13
16.61
14.18
11.03
7.52
4.02
0.80
-2.06
-4.78
-7.67
-11.08
-15.24
-20.19
-25.83
-31.93
-38.06
-43.49
-47.20
-48.08
-45.34
-38.92
-29.70
-19.29
-9.44
-1.44
4.28
8.02
10.49
12.26
13.62
14.59
15.19
15.59
16.08
16.86
17.83
18.59
18.61
17.50
15.22
12.12
8.73
5.48
2.55
-0.16
-2.96
-6.25
-10.48
-15.95
-22.58
-29.73
-36.12
-40.15
-40.39
-36.27
-28.44
-18.51
-8.56
-0.27
5.52
8.92
10.58
11.27
11.47
11.35
10.94
10.33
9.72
9.36
9.33
9.50
9.46
8.75
7.01
4.16
0.48
-3.50
-7.31
-10.77
-14.13
-17.97
-22.72
-28.23
-33.56
-37.09
-37.26
-33.21
-25.29
-14.98
-4.33
4.86
11.57
15.72
17.89
18.81
19.02
18.83
18.42
18.00
17.81
17.98
18.35
18.52
17.95
16.22
13.24
9.25
4.79
0.43
-3.42
-6.71
-9.80
-13.33
-18.00
-24.23
-31.81
-39.72
-46.35
-49.91
-49.12
-43.72
-34.64
-23.59
-12.45
-2.59
5.43
11.74
16.75
20.76
23.76
25.61
26.28
26.07
25.53
25.24
25.43
25.89
26.01
25.16
22.97
19.53
15.35
11.07
7.15
3.71
0.46
-3.14
-7.67
-13.42
-20.19
-27.16
-33.01
-36.31
-35.96
-31.69
-24.10
-14.53
-4.53
4.67
12.46
18.80
23.98
28.20
31.49
33.71
34.85
35.16
35.17
35.41
36.12
37.12
37.88
37.84
36.69
34.56
31.89
29.14
26.59
24.18
21.64
18.69
15.16
11.05
6.52
1.78
-2.96
-7.49
-11.70
-15.61
-19.50
-23.86
-29.19
-35.66
-42.74
-49.13
-53.06
-52.91
-47.96
-38.72
-26.86
-14.58
-3.80
4.49
10.32
14.48
17.81
20.76
23.31
25.15
26.07
26.24
26.12
26.26
26.97
28.17
29.39
30.00
29.44
27.44
24.08
19.80
15.21
10.91
7.30
4.44
2.12
-0.10
-2.63
-5.78
-9.68
-14.47
-20.24
-26.92
-34.07
-40.60
-44.97
-45.60
-41.56
-33.11
-21.67
-9.42
1.57
10.03
15.74
19.30
21.52
22.98
23.85
24.12
23.85
23.35
23.09
23.45
24.38
25.44
25.86
24.97
22.45
18.52
13.85
9.20
5.20
2.09
-0.31
-2.47
-4.98
-8.35
-12.97
-18.91
-25.86
-33.02
-39.17
-42.93
-43.23
-39.71
-32.92
-24.20
-15.19
-7.29
-1.32
2.55
4.67
5.51
5.57
5.22
4.78
4.54
4.66
5.14
5.73
6.07
5.82
4.81
3.05
0.69
-2.09
-5.21
-8.67
-12.64
-17.32
-22.87
-29.21
-35.78
-41.52
-44.97
-44.81
-40.40
-32.12
-21.34
-9.92
0.44
8.69
14.55
18.27
20.30
21.05
20.87
20.15
19.40
19.10
19.53
20.52
21.54
21.87
20.89
18.40
14.63
10.12
5.48
1.15
-2.77
-6.47
-10.39
-15.06
-20.84
-27.70
-35.02
-41.46
-45.33
-45.07
-39.89
-30.21
-17.55
-4.01
8.44
18.55
25.91
30.76
33.55
34.66
34.32
32.79
30.54
28.28
26.77
26.55
27.67
29.56
31.18
31.32
29.11
24.42
17.95
10.98
4.79
0.10
-3.25
-6.08
-9.53
-14.42
-21.02
-28.99
-37.40
-44.99
-50.33
-52.05
-49.31
-42.10
-31.51
-19.37
-7.75
1.88
9.00
13.99
17.64
20.49
22.55
23.51
23.18
21.92
20.56
20.11
21.10
23.25
25.49
26.46
25.13
21.33
15.82
9.92
4.91
1.41
-0.73
-2.37
-4.51
-7.88
-12.78
-19.06
-26.30
-33.93
-41.11
-46.66
-49.20
-47.54
-41.27
-31.10
-18.74
-6.29
4.51
12.84
18.85
23.12
26.17
28.11
28.76
28.11
26.55
24.89
24.00
24.31
25.51
26.66
26.64
24.68
20.78
15.66
10.46
6.19
3.26
1.36
-0.33
-2.79
-6.78
-12.55
-19.94
-28.33
-36.73
-43.84
-48.23
-48.60
-44.34
-35.82
-24.42
-12.11
-0.78
8.38
15.07
19.71
22.87
24.94
26.00
26.08
25.42
24.58
24.25
24.90
26.36
27.89
28.45
27.18
23.86
18.99
13.57
8.60
4.68
1.75
-0.76
-3.70
-7.78
-13.45
-20.69
-29.05
-37.62
-45.03
-49.70
-50.20
-45.83
-36.96
-25.08
-12.36
-0.87
8.11
14.40
18.62
21.66
24.04
25.72
26.36
25.82
24.48
23.21
22.91
23.94
25.86
27.52
27.70
25.65
21.51
16.13
10.69
6.03
2.38
-0.66
-3.82
-7.75
-12.86
-19.26
-26.80
-35.01
-42.99
-49.31
-52.31
-50.65
-43.96
-33.16
-20.25
-7.54
3.21
11.38
17.33
21.93
25.83
29.13
31.53
32.67
32.54
31.59
30.48
29.80
29.76
30.07
30.17
29.41
27.37
23.98
19.57
14.72
10.04
5.92
2.41
-0.83
-4.28
-8.42
-13.52
-19.64
-26.71
-34.53
-42.64
-50.21
-55.93
-58.29
-56.04
-48.80
-37.40
-23.64
-9.76
2.44
12.03
19.08
24.18
27.97
30.76
32.58
33.42
33.53
33.45
33.83
35.05
37.01
39.08
40.40
40.31
38.60
35.66
32.17
28.83
25.93
23.29
20.34
16.55
11.68
5.95
-0.09
-5.77
-10.64
-14.62
-18.00
-21.32
-25.11
-29.86
-35.91
-43.31
-51.72
-60.14
-67.00
-70.45
-68.97
-62.06
-50.55
-36.47
-22.27
-10.01
-0.59
6.16
11.14
15.19
18.67
21.39
22.94
23.18
22.39
21.30
20.66
20.94
22.07
23.44
24.12
23.23
20.33
15.59
9.76
3.91
-1.05
-4.73
-7.41
-9.90
-13.12
-17.72
-23.88
-31.26
-39.15
-46.54
-52.18
-54.75
-53.15
-46.93
-36.69
-24.01
-11.04
0.23
8.65
14.18
17.63
20.09
22.31
24.50
26.38
27.67
28.31
28.61
29.03
29.80
30.72
31.18
30.46
28.02
23.85
18.46
12.68
7.31
2.78
-0.94
-4.31
-7.95
-12.45
-18.17
-25.25
-33.53
-42.47
-51.07
-57.84
-61.14
-59.69
-53.08
-42.10
-28.53
-14.52
-1.91
8.26
15.87
21.41
25.54
28.70
31.09
32.70
33.52
33.64
33.27
32.74
32.32
32.13
32.00
31.54
30.26
27.80
24.10
19.42
14.31
9.27
4.65
0.53
-3.25
-7.03
-11.16
-15.99
-21.82
-28.82
-37.01
-46.01
-54.84
-61.98
-65.63
-64.34
-57.59
-46.19
-32.09
-17.73
-5.17
4.51
11.36
16.08
19.50
22.04
23.69
24.31
24.00
23.27
22.86
23.34
24.74
26.46
27.51
26.99
24.46
20.19
15.01
9.82
5.29
1.50
-1.99
-5.81
-10.58
-16.66
-24.12
-32.74
-41.90
-50.52
-57.06
-59.84
-57.59
-50.07
-38.32
-24.44
-10.76
0.95
10.00
16.71
21.70
25.42
27.79
28.46
27.42
25.29
23.20
22.26
22.96
24.78
26.51
26.76
24.66
20.25
14.34
8.15
2.66
-1.69
-5.16
-8.53
-12.79
-18.75
-26.72
-36.35
-46.48
-55.36
-61.01
-61.80
-57.01
-47.13
-33.77
-19.13
-5.34
6.23
15.16
21.81
26.84
30.69
33.36
34.63
34.40
33.06
31.40
30.35
30.46
31.54
32.73
32.87
31.06
27.18
21.90
16.30
11.32
7.34
3.96
0.32
-4.49
-11.04
-19.38
-29.09
-39.40
-49.26
-57.41
-62.49
-63.33
-59.35
-50.90
-39.23
-26.13
-13.29
-1.84
7.78
15.61
21.66
25.80
27.82
27.80
26.35
24.59
23.73
24.45
26.59
29.17
30.84
30.51
27.84
23.23
17.67
12.16
7.32
3.21
-0.65
-5.11
-11.04
-19.03
-29.00
-39.90
-49.78
-56.22
-57.19
-51.89
-41.16
-27.30
-13.11
-0.87
8.47
15.45
21.52
28.19
36.33
45.79
55.44
63.42
67.68
66.67
59.93
48.39
34.24
20.27
8.89
1.42
-2.26
-3.41
-3.78
-5.01
-8.25
-14.09
-22.51
-32.88
-43.84
-53.31
-59.05
-59.35
-53.85
-43.82
-31.70
-20.30
-11.64
-6.40
-3.90
-2.72
-1.55
0.28
2.70
5.22
7.32
8.73
9.51
9.81
9.76
9.37
8.47
6.87
4.38
0.86
-3.80
-9.74
-17.08
-25.77
-35.33
-44.55
-51.50
-54.00
-50.41
-40.51
-25.81
-9.25
5.91
17.26
24.11
27.31
28.64
29.65
31.05
32.57
33.58
33.56
32.56
31.00
29.36
27.80
26.01
23.47
19.77
14.89
9.18
3.16
-2.85
-9.03
-15.89
-23.96
-33.18
-42.50
-49.94
-53.24
-50.74
-42.21
-29.01
-13.65
1.16
13.51
22.73
29.26
34.04
37.83
40.81
42.70
43.12
41.96
39.53
36.48
33.42
30.71
28.34
25.99
23.28
19.99
16.09
11.69
6.76
1.03
-5.87
-14.10
-23.09
-31.36
-36.79
-37.25
-31.54
-19.93
-4.21
12.87
28.42
40.26
47.26
49.35
47.31
42.43
36.24
30.30
26.05
24.42
25.64
29.01
33.05
35.85
35.67
31.59
23.80
13.53
2.60
-7.22
-14.87
-20.23
-23.98
-27.26
-31.12
-36.21
-42.59
-49.61
-56.06
-60.43
-61.27
-57.76
-50.08
-39.49
-27.94
-17.39
-9.10
-3.33
0.40
2.75
4.08
4.24
3.03
0.71
-1.62
-2.31
0.20
6.59
16.25
27.55
38.37
46.95
52.19
53.81
52.06
47.48
40.79
32.77
24.13
15.41
6.88
-1.37
-9.15
-15.88
-20.53
-21.97
-19.53
-13.52
-5.36
2.96
9.60
13.60
15.13
15.05
14.42
13.77
13.01
11.65
9.24
5.81
1.93
-1.58
-4.07
-5.37
-5.94
-6.61
-8.20
-11.26
-15.86
-21.82
-28.83
-36.62
-44.80
-52.59
-58.75
-61.76
-60.47
-54.60
-45.10
-33.67
-22.08
-11.44
-1.85
7.22
16.28
25.29
33.57
40.15
44.36
46.19
46.22
45.25
43.82
42.05
39.63
36.21
31.60
26.04
20.14
14.55
9.79
5.98
2.73
-0.70
-5.09
-10.88
-17.83
-24.93
-30.63
-33.32
-31.92
-26.25
-17.08
-5.93
5.48
15.67
23.76
29.53
33.28
35.45
36.22
35.39
32.70
28.22
22.77
17.93
15.51
16.71
21.45
28.28
34.97
39.49
40.84
39.35
36.29
33.03
30.36
28.21
25.92
22.76
18.47
13.42
8.38
4.12
1.00
-1.29
-3.48
-6.36
-10.50
-16.05
-22.74
-29.98
-36.83
-42.12
-44.60
-43.29
-37.95
-29.32
-19.03
-9.02
-0.82
4.92
8.50
10.72
12.35
13.73
14.77
15.30
15.32
15.18
15.33
16.05
17.18
18.21
18.59
17.99
16.48
14.44
12.28
10.25
8.26
6.04
3.38
0.17
-3.43
-7.14
-10.66
-13.75
-16.40
-18.84
-21.55
-25.08
-29.68
-34.99
-39.88
-42.70
-41.88
-36.67
-27.62
-16.39
-5.17
4.19
10.85
14.98
17.33
18.66
19.34
19.31
18.48
17.00
15.41
14.34
14.25
15.09
16.28
17.01
16.57
14.70
11.67
8.09
4.61
1.62
-0.85
-3.11
-5.53
-8.36
-11.63
-15.28
-19.28
-23.65
-28.37
-33.03
-36.76
-38.37
-36.81
-31.71
-23.68
-14.11
-4.67
3.25
8.88
12.08
13.09
12.33
10.29
7.56
4.86
2.87
2.00
2.18
2.96
3.62
3.56
2.48
0.42
-2.31
-5.34
-8.34
-11.16
-13.83
-16.60
-19.83
-23.89
-28.85
-34.32
-39.32
-42.49
-42.60
-39.01
-32.04
-22.96
-13.54
-5.44
0.28
3.44
4.53
4.36
3.61
2.66
1.65
0.58
-0.48
-1.39
-2.05
-2.45
-2.79
-3.38
-4.56
-6.57
-9.44
-13.00
-17.00
-21.31
-25.97
-31.14
-36.79
-42.43
-46.97
-48.96
-47.14
-41.05
-31.38
-19.84
-8.57
0.63
6.87
10.22
11.45
11.48
11.01
10.39
9.72
9.04
8.44
8.02
7.79
7.55
6.98
5.77
3.80
1.20
-1.74
-4.72
-7.65
-10.79
-14.61
-19.54
-25.62
-32.23
-38.09
-41.53
-41.12
-36.22
-27.28
-15.78
-3.74
6.94
14.96
19.91
22.13
22.41
21.65
20.60
19.78
19.43
19.60
20.16
20.85
21.40
21.51
21.02
19.86
18.11
15.88
13.27
10.23
6.61
2.19
-3.24
-9.63
-16.57
-23.17
-28.13
-30.07
-27.96
-21.62
-11.93
-0.65
10.19
18.95
24.92
28.30
29.83
30.29
30.09
29.34
28.09
26.64
25.53
25.30
26.06
27.37
28.33
28.00
25.88
22.15
17.53
12.92
9.01
5.99
3.49
0.81
-2.83
-7.94
-14.58
-22.17
-29.47
-34.90
-36.91
-34.54
-27.85
-18.01
-6.98
3.13
10.73
15.14
16.64
16.07
14.37
12.23
10.01
7.84
5.81
4.04
2.65
1.73
1.15
0.63
-0.12
-1.31
-2.99
-5.04
-7.32
-9.84
-12.76
-16.35
-20.76
-25.68
-30.25
-33.11
-32.89
-28.77
-20.88
-10.40
0.83
10.94
18.61
23.36
25.36
25.21
23.54
20.96
18.02
15.28
13.22
11.98
11.36
10.79
9.62
7.43
4.21
0.30
-3.76
-7.56
-10.95
-14.09
-17.37
-21.24
-25.99
-31.42
-36.75
-40.61
-41.46
-38.19
-30.73
-20.25
-8.80
1.41
8.87
13.14
14.79
14.85
14.22
13.37
12.40
11.29
10.13
9.16
8.63
8.58
8.77
8.75
8.04
6.28
3.42
-0.40
-4.89
-9.87
-15.36
-21.45
-28.05
-34.58
-39.89
-42.49
-41.13
-35.48
-26.45
-15.93
-6.12
1.28
5.67
7.52
7.91
7.89
8.00
8.24
8.28
7.83
6.92
5.83
4.94
4.40
4.04
3.40
1.94
-0.75
-4.82
-10.16
-16.60
-23.89
-31.63
-39.06
-44.99
-47.87
-46.37
-39.95
-29.33
-16.32
-3.32
7.62
15.38
19.99
22.27
23.24
23.60
23.65
23.42
22.89
22.12
21.24
20.28
19.13
17.60
15.49
12.69
9.24
5.24
0.83
-4.00
-9.38
-15.59
-22.79
-30.67
-38.28
-44.02
-46.07
-43.13
-35.04
-22.99
-9.17
4.02
14.80
22.43
27.16
29.74
30.88
31.06
30.51
29.56
28.65
28.32
28.80
29.85
30.70
30.37
28.16
24.00
18.51
12.71
7.56
3.53
0.45
-2.39
-5.97
-11.10
-18.20
-26.98
-36.33
-44.43
-49.19
-48.83
-42.61
-31.22
-16.63
-1.42
12.05
22.38
29.33
33.45
35.57
36.36
36.16
35.19
33.74
32.37
31.73
32.26
33.88
35.93
37.34
37.06
34.47
29.75
23.73
17.61
12.40
8.57
5.84
3.39
0.26
-4.32
-10.67
-18.71
-27.95
-37.50
-46.03
-51.84
-53.28
-49.30
-40.00
-26.83
-12.17
1.38
11.95
18.74
22.02
22.65
21.53
19.40
16.77
14.13
12.02
10.85
10.72
11.28
11.76
11.31
9.35
5.81
1.16
-3.83
-8.37
-12.11
-15.20
-18.33
-22.32
-27.69
-34.09
-40.24
-44.19
-44.04
-38.71
-28.49
-14.98
-0.58
12.37
22.27
28.53
31.39
31.57
29.87
27.11
24.05
21.51
20.09
20.04
20.96
21.96
21.98
20.26
16.70
11.80
6.37
1.08
-3.77
-8.32
-12.96
-18.20
-24.50
-32.10
-40.76
-49.55
-56.72
-60.12
-57.86
-49.26
-35.27
-18.35
-1.56
12.51
22.58
28.79
32.12
33.73
34.37
34.34
33.77
32.91
32.21
32.06
32.55
33.25
33.41
32.34
29.75
25.93
21.53
17.22
13.31
9.61
5.47
0.10
-7.05
-15.90
-25.52
-34.14
-39.59
-39.91
-34.20
-23.05
-8.50
6.66
19.87
29.70
36.07
39.86
42.13
43.51
44.01
43.41
41.72
39.42
37.32
36.10
35.87
36.04
35.63
33.75
30.05
24.82
18.77
12.71
7.14
2.09
-2.85
-8.23
-14.56
-22.12
-30.86
-40.29
-49.45
-56.95
-61.26
-61.15
-56.21
-47.15
-35.70
-24.10
-14.33
-7.44
-3.42
-1.49
-0.63
-0.11
0.33
0.63
0.72
0.65
0.59
0.64
0.76
0.75
0.29
-0.82
-2.69
-5.29
-8.70
-13.08
-18.75
-25.87
-34.17
-42.62
-49.40
-52.35
-49.75
-41.10
-27.52
-11.53
3.79
15.91
23.58
26.96
27.15
25.51
23.15
20.73
18.65
17.19
16.56
16.79
17.60
18.42
18.50
17.17
14.08
9.28
3.18
-3.63
-10.66
-17.68
-24.74
-31.80
-38.38
-43.27
-44.83
-41.54
-32.95
-20.10
-5.32
8.63
19.51
26.41
29.74
30.68
30.47
29.88
29.21
28.50
27.73
27.00
26.39
25.86
25.19
24.08
22.28
19.73
16.57
13.04
9.35
5.47
1.05
-4.48
-11.50
-19.69
-27.70
-33.40
-34.51
-29.65
-19.03
-4.54
10.94
24.55
34.38
39.84
41.41
40.11
37.06
33.28
29.66
26.96
25.68
25.85
26.88
27.81
27.63
25.71
22.07
17.34
12.34
7.85
4.21
1.23
-1.69
-5.42
-10.67
-17.63
-25.57
-32.83
-37.20
-36.74
-30.60
-19.56
-5.90
7.49
18.05
24.43
26.67
25.79
23.10
19.66
16.16
12.97
10.39
8.73
8.15
8.51
9.31
9.88
9.54
7.88
4.84
0.65
-4.42
-10.16
-16.53
-23.47
-30.58
-36.93
-41.10
-41.58
-37.48
-28.99
-17.58
-5.50
4.96
12.28
16.00
16.65
15.19
12.53
9.30
5.85
2.51
-0.32
-2.30
-3.25
-3.35
-3.11
-3.20
-4.21
-6.50
-10.14
-15.04
-21.05
-27.95
-35.30
-42.24
-47.48
-49.51
-47.10
-40.00
-29.15
-16.59
-4.74
4.49
10.23
12.75
13.00
11.95
10.20
7.94
5.27
2.42
-0.09
-1.74
-2.32
-2.13
-1.92
-2.54
-4.61
-8.41
-13.89
-20.85
-28.90
-37.43
-45.30
-51.00
-52.92
-49.97
-42.12
-30.56
-17.38
-4.80
5.57
13.15
18.30
21.80
24.29
26.04
26.93
26.84
25.92
24.64
23.60
23.23
23.56
24.20
24.56
24.10
22.52
19.76
15.81
10.66
4.31
-2.88
-10.01
-15.69
-18.41
-17.23
-12.20
-4.51
3.93
11.23
16.17
18.54
18.93
18.20
17.03
15.59
13.68
11.05
7.70
4.02
0.63
-1.88
-3.35
-4.07
-4.68
-5.93
-8.34
-12.06
-16.96
-22.71
-28.76
-34.30
-38.24
-39.36
-36.75
-30.22
-20.59
-9.54
0.96
9.38
15.09
18.34
19.92
20.54
20.51
19.79
18.28
16.18
14.01
12.33
11.50
11.41
11.52
11.16
9.83
7.29
3.59
-1.23
-7.12
-13.83
-20.71
-26.54
-29.83
-29.37
-24.85
-17.13
-7.95
0.77
7.70
12.45
15.43
17.31
18.56
19.13
18.79
17.37
15.12
12.57
10.29
8.59
7.40
6.36
5.08
3.32
0.94
-2.17
-6.23
-11.56
-18.23
-25.84
-33.29
-38.87
-40.84
-38.02
-30.43
-19.32
-6.84
4.75
13.79
19.72
22.98
24.58
25.52
26.43
27.44
28.37
28.96
29.01
28.47
27.40
25.90
24.09
22.07
19.91
17.59
15.04
12.04
8.28
3.39
-2.91
-10.56
-18.99
-26.98
-32.94
-35.31
-33.19
-26.76
-17.34
-6.93
2.42
9.31
13.24
14.51
13.84
11.92
9.30
6.26
3.00
-0.32
-3.63
-6.96
-10.53
-14.64
-19.60
-25.48
-32.07
-39.00
-45.85
-52.36
-58.62
-64.97
-71.93
-79.85
-88.58
-97.31
-104.62
-109.01
-109.38
-105.47
-97.90
-87.77
-76.09
-63.30
-49.16
-33.02
-14.29
7.15
30.69
55.08
78.70
99.94
117.56
131.00
140.36
146.11
148.89
149.09
146.79
141.94
134.63
125.19
114.39
103.22
92.58
82.94
74.35
66.63
59.66
53.53
48.60
45.41
44.50
46.10
49.99
55.41
61.20
65.96
68.49
68.06
64.43
57.78
48.41
36.58
22.51
6.77
-9.49
-24.48
-36.08
-42.70
-43.88
-40.42
-34.02
-26.77
-20.41
-16.13
-14.65
-16.29
-21.16
-28.99
-39.02
-50.05
-60.69
-69.77
-76.69
-81.43
-84.37
-85.96
-86.36
-85.46
-83.00
-78.86
-73.32
-67.07
-61.11
-56.41
-53.65
-52.96
-53.91
-55.70
-57.53
-58.92
-59.92
-61.03
-62.96
-66.16
-70.54
-75.46
-80.00
-83.36
-85.35
-86.44
-87.52
-89.15
-90.93
-91.13
-86.91
-75.24
-53.84
-21.66
21.14
73.39
132.78
195.31
254.89
303.93
335.05
343.58
329.48
297.43
254.87
208.88
163.70
120.24
77.57
35.36
-4.66
-38.94
-63.88
-77.84
-82.03
-79.79
-74.85
-69.68
-64.86
-59.46
-52.37
-43.40
-33.54
-24.46
-17.53
-13.21
-10.92
-9.57
-8.30
-6.96
-6.24
-7.14
-10.49
-16.47
-24.48
-33.32
-41.63
-48.20
-52.24
-53.45
-51.96
-48.24
-42.98
-36.97
-31.00
-25.72
-21.54
-18.63
-16.90
-16.17
-16.18
-16.69
-17.50
-18.37
-19.10
-19.57
-19.84
-20.16
-20.97
-22.68
-25.50
-29.30
-33.59
-37.67
-40.91
-42.91
-43.68
-43.57
-43.11
-42.82
-43.06
-43.93
-45.23
-46.37
-46.48
-44.52
-39.61
-31.44
-20.50
-8.03
4.36
15.28
24.03
30.71
35.86
39.98
43.24
45.37
46.14
45.55
44.09
42.40
40.97
39.80
38.44
36.36
33.27
29.41
25.43
21.96
19.37
17.50
15.90
14.01
11.55
8.50
5.03
1.34
-2.44
-6.15
-9.40
-11.50
-11.63
-9.29
-4.63
1.51
7.86
13.25
17.06
19.28
20.30
20.52
20.08
18.88
16.84
14.11
11.09
8.38
6.41
5.26
4.67
4.14
3.22
1.70
-0.31
-2.47
-4.35
-5.66
-6.40
-6.77
-7.12
-7.78
-8.98
-10.93
-13.74
-17.45
-21.74
-25.86
-28.74
-29.22
-26.69
-21.30
-14.06
-6.48
0.09
4.89
7.81
9.27
9.83
9.86
9.65
9.38
9.26
9.52
10.25
11.30
12.37
12.99
12.82
11.74
9.83
7.39
4.76
2.23
-0.11
-2.39
-4.97
-8.20
-12.25
-16.74
-20.74
-22.97
-22.28
-18.16
-11.05
-2.21
6.75
14.45
20.13
23.65
25.21
24.99
22.93
18.92
13.02
5.79
-1.74
-8.34
-12.98
-15.18
-15.10
-13.44
-11.14
-9.16
-8.24
-8.88
-11.29
-15.33
-20.42
-25.54
-29.29
-30.30
-27.69
-21.56
-13.09
-4.21
3.01
7.07
7.48
4.72
-0.08
-5.66
-11.04
-15.60
-19.08
-21.30
-22.17
-21.65
-19.82
-17.03
-13.83
-10.96
-9.08
-8.65
-9.75
-12.21
-15.66
-19.66
-23.65
-26.90
-28.48
-27.49
-23.45
-16.71
-8.54
-0.79
4.78
7.17
6.45
3.61
-0.06
-3.46
-6.05
-7.70
-8.45
-8.15
-6.57
-3.57
0.57
5.08
8.87
10.89
10.56
7.98
3.76
-1.31
-6.56
-11.58
-15.99
-19.25
-20.55
-19.14
-14.72
-7.85
0.14
7.56
12.99
15.87
16.52
15.88
14.88
14.14
13.77
13.57
13.28
12.80
12.13
11.37
10.57
9.73
8.81
7.78
6.63
5.35
3.89
2.10
-0.27
-3.41
-7.22
-11.13
-14.05
-14.73
-12.30
-6.72
0.99
9.12
15.93
20.25
21.91
21.51
19.95
18.01
16.03
14.05
12.04
10.03
8.12
6.42
4.91
3.43
1.83
0.04
-1.92
-3.89
-5.80
-7.73
-9.95
-12.72
-16.03
-19.37
-21.78
-22.14
-19.67
-14.37
-7.09
0.77
7.76
12.94
16.06
17.37
17.31
16.24
14.34
11.82
8.99
6.29
4.14
2.75
2.06
1.78
1.57
1.15
0.40
-0.75
-2.42
-4.80
-8.04
-12.06
-16.34
-19.95
-21.82
-21.09
-17.56
-11.84
-5.16
1.08
5.79
8.51
9.40
8.91
7.58
5.77
3.77
1.90
0.54
0.06
0.62
2.10
4.08
6.03
7.54
8.37
8.44
7.70
6.07
3.54
0.41
-2.58
-4.36
-3.89
-0.61
5.18
12.40
19.54
25.30
28.91
30.31
29.90
28.20
25.65
22.51
19.03
15.62
12.83
11.14
10.77
11.46
12.49
13.00
12.25
9.90
6.10
1.31
-3.88
-8.88
-13.21
-16.38
-17.93
-17.53
-15.11
-11.08
-6.22
-1.52
2.14
4.27
4.68
3.49
0.89
-2.90
-7.52
-12.45
-17.00
-20.50
-22.52
-23.01
-22.34
-21.07
-19.83
-19.08
-19.08
-19.78
-20.74
-21.23
-20.39
-17.47
-12.22
-5.04
3.12
11.11
17.92
22.96
26.10
27.47
27.19
25.31
21.92
17.31
12.09
7.09
3.12
0.62
-0.50
-0.83
-1.17
-2.28
-4.55
-8.03
-12.44
-17.27
-21.82
-25.28
-26.75
-25.51
-21.27
-14.36
-5.74
3.24
11.31
17.56
21.71
23.97
24.82
24.76
24.17
23.37
22.64
22.28
22.54
23.41
24.57
25.38
25.15
23.45
20.32
16.36
12.48
9.52
7.91
7.49
7.68
7.73
7.11
5.65
3.58
1.35
-0.61
-2.04
-2.99
-3.81
-5.01
-7.17
-10.70
-15.70
-21.78
-28.00
-32.94
-35.08
-33.27
-27.26
-17.92
-7.03
3.29
11.37
16.52
19.12
20.20
20.79
21.45
22.17
22.63
22.65
22.30
21.92
21.67
21.34
20.27
17.65
12.97
6.37
-1.33
-8.91
-15.28
-19.75
-22.25
-23.16
-23.05
-22.54
-22.12
-22.11
-22.59
-23.27
-23.48
-22.34
-19.11
-13.59
-6.34
1.45
8.38
13.36
15.94
16.27
14.90
12.51
9.77
7.32
5.80
5.76
7.45
10.59
14.35
17.60
19.34
19.05
16.88
13.51
9.79
6.37
3.53
1.13
-1.22
-3.99
-7.54
-12.01
-17.24
-22.59
-27.06
-29.36
-28.50
-24.12
-16.78
-7.89
0.82
7.89
12.63
15.13
16.07
16.20
16.01
15.65
15.07
14.30
13.54
13.18
13.49
14.45
15.69
16.57
16.49
15.14
12.69
9.65
6.68
4.24
2.44
0.99
-0.61
-2.82
-5.93
-9.90
-14.29
-18.36
-21.17
-21.80
-19.67
-14.82
-7.96
-0.23
7.18
13.44
18.21
21.54
23.50
23.99
22.73
19.62
14.93
9.46
4.35
0.64
-1.11
-1.01
0.26
1.74
2.66
2.62
1.70
0.27
-1.28
-2.73
-4.11
-5.65
-7.62
-10.19
-13.39
-17.11
-21.04
-24.68
-27.33
-28.22
-26.71
-22.65
-16.49
-9.21
-1.95
4.34
9.21
12.66
14.92
16.18
16.53
15.99
14.74
13.17
11.80
11.05
10.99
11.34
11.58
11.19
9.96
7.98
5.66
3.42
1.55
0.09
-1.17
-2.63
-4.71
-7.70
-11.71
-16.54
-21.65
-26.15
-28.95
-29.10
-26.12
-20.26
-12.51
-4.32
2.87
8.06
10.89
11.60
10.76
9.01
6.84
4.62
2.61
1.05
0.13
-0.07
0.39
1.27
2.27
3.09
3.59
3.75
3.70
3.48
3.05
2.17
0.51
-2.27
-6.36
-11.63
-17.54
-23.16
-27.29
-28.73
-26.66
-20.97
-12.37
-2.29
7.50
15.35
20.20
21.73
20.36
17.01
12.74
8.55
5.15
2.94
1.99
2.10
2.92
4.01
4.94
5.30
4.81
3.37
1.01
-2.05
-5.53
-9.23
-13.04
-16.96
-20.92
-24.61
-27.41
-28.48
-27.11
-23.04
-16.71
-9.21
-1.91
3.96
7.72
9.37
9.38
8.42
7.01
5.39
3.65
1.86
0.23
-0.93
-1.33
-0.95
-0.06
0.77
0.97
0.13
-1.78
-4.51
-7.69
-11.06
-14.51
-17.97
-21.18
-23.63
-24.48
-22.95
-18.63
-11.86
-3.68
4.41
11.03
15.34
17.29
17.42
16.47
15.02
13.27
11.26
9.08
7.07
5.72
5.44
6.22
7.53
8.52
8.37
6.66
3.49
-0.64
-5.18
-9.66
-13.76
-17.12
-19.19
-19.38
-17.29
-13.05
-7.49
-1.89
2.45
4.79
5.16
4.30
3.14
2.34
2.02
1.80
1.18
-0.10
-1.90
-3.78
-5.27
-6.23
-6.85
-7.53
-8.63
-10.31
-12.53
-15.24
-18.45
-22.15
-26.10
-29.60
-31.58
-30.99
-27.26
-20.69
-12.41
-4.03
3.04
7.92
10.49
11.18
10.69
9.69
8.64
7.77
7.06
6.39
5.59
4.56
3.27
1.76
0.02
-2.07
-4.65
-7.80
-11.44
-15.39
-19.46
-23.51
-27.38
-30.72
-32.91
-33.13
-30.70
-25.47
-18.03
-9.55
-1.38
5.46
10.52
13.91
15.96
16.99
17.11
16.32
14.60
12.11
9.16
6.16
3.54
1.59
0.41
-0.14
-0.43
-0.96
-2.18
-4.36
-7.58
-11.78
-16.76
-22.23
-27.67
-32.29
-35.11
-35.25
-32.24
-26.30
-18.32
-9.54
-1.14
6.14
12.03
16.57
19.85
21.86
22.56
22.07
20.78
19.27
18.10
17.51
17.33
17.14
16.47
15.09
13.09
10.78
8.46
6.24
3.94
1.23
-2.30
-6.88
-12.60
-19.21
-26.13
-32.42
-36.87
-38.30
-35.94
-29.73
-20.49
-9.74
0.86
10.08
17.40
23.10
27.74
31.72
34.90
36.70
36.47
34.08
30.17
25.97
22.90
21.85
22.82
24.92
26.81
27.35
26.05
23.12
19.25
15.13
11.05
6.94
2.48
-2.59
-8.28
-14.37
-20.57
-26.66
-32.41
-37.43
-41.01
-42.23
-40.33
-35.06
-26.97
-17.29
-7.51
1.15
8.00
12.95
16.27
18.26
19.12
19.01
18.15
16.95
15.90
15.39
15.53
16.09
16.61
16.62
15.86
14.38
12.50
10.52
8.58
6.44
3.64
-0.34
-5.75
-12.28
-18.96
-24.39
-27.13
-26.25
-21.73
-14.43
-5.81
2.64
9.97
15.93
20.84
25.19
29.20
32.68
35.18
36.25
35.81
34.24
32.20
30.40
29.32
29.01
29.12
29.05
28.26
26.42
23.51
19.83
15.83
11.91
8.33
5.08
2.03
-1.11
-4.61
-8.75
-13.80
-19.87
-26.79
-33.93
-40.12
-43.86
-43.76
-39.13
-30.35
-18.85
-6.59
4.58
13.56
20.12
24.70
27.87
30.01
31.19
31.40
30.85
30.06
29.64
29.98
30.97
31.95
32.07
30.56
27.14
22.12
16.19
10.17
4.69
-0.03
-4.08
-7.77
-11.47
-15.39
-19.69
-24.43
-29.55
-34.77
-39.48
-42.81
-43.74
-41.56
-36.18
-28.26
-18.99
-9.70
-1.33
5.74
11.64
16.62
20.72
23.70
25.19
25.01
23.44
21.21
19.19
17.99
17.72
17.94
17.93
17.06
15.10
12.30
9.21
6.36
4.07
2.22
0.41
-1.86
-4.93
-8.89
-13.64
-19.00
-24.75
-30.58
-35.87
-39.61
-40.54
-37.58
-30.34
-19.44
-6.46
6.66
18.20
27.19
33.46
37.31
39.09
39.01
37.11
33.63
29.08
24.20
19.65
15.62
11.79
7.45
2.04
-4.51
-11.59
-18.16
-23.13
-25.90
-26.55
-25.89
-25.06
-25.21
-26.97
-30.19
-33.89
-36.54
-36.58
-33.06
-26.02
-16.54
-6.36
2.81
9.92
14.80
17.89
19.86
21.12
21.65
21.29
19.99
18.09
16.21
14.99
14.67
15.02
15.47
15.43
14.55
12.82
10.45
7.58
4.17
-0.02
-5.25
-11.59
-18.69
-25.63
-31.13
-33.78
-32.57
-27.26
-18.64
-8.30
1.78
9.96
15.41
18.24
19.23
19.38
19.38
19.45
19.42
18.91
17.66
15.66
13.09
10.26
7.43
4.72
2.12
-0.47
-3.17
-6.02
-9.03
-12.26
-15.90
-20.25
-25.48
-31.33
-36.88
-40.69
-41.22
-37.55
-29.84
-19.40
-8.25
1.65
9.10
13.85
16.45
17.71
18.22
18.18
17.51
16.12
14.18
12.06
10.28
9.17
8.74
8.63
8.29
7.22
5.17
2.14
-1.75
-6.41
-11.84
-17.96
-24.38
-30.15
-33.96
-34.49
-31.04
-23.91
-14.40
-4.30
4.71
11.63
16.31
19.24
21.02
22.06
22.39
21.83
20.21
17.58
14.27
10.70
7.29
4.29
1.77
-0.28
-1.94
-3.25
-4.30
-5.30
-6.66
-8.93
-12.67
-18.14
-24.97
-32.10
-37.89
-40.66
-39.34
-33.90
-25.46
-15.84
-6.84
0.39
5.68
9.58
12.91
16.24
19.69
23.03
26.04
28.70
31.20
33.71
36.11
37.85
38.22
36.61
32.87
27.46
21.26
15.21
9.99
5.81
2.46
-0.50
-3.48
-6.72
-10.35
-14.43
-18.92
-23.59
-27.81
-30.64
-31.07
-28.42
-22.81
-15.18
-7.03
0.18
5.55
9.02
11.15
12.68
14.15
15.55
16.60
16.95
16.56
15.78
15.24
15.47
16.66
18.46
20.09
20.66
19.55
16.68
12.48
7.71
3.14
-0.71
-3.63
-5.77
-7.37
-8.80
-10.40
-12.51
-15.40
-19.17
-23.59
-27.96
-31.20
-32.12
-29.85
-24.27
-16.06
-6.65
2.42
9.90
15.24
18.56
20.38
21.24
21.46
21.12
20.25
19.02
17.69
16.61
15.95
15.66
15.47
15.05
14.21
12.89
11.22
9.37
7.45
5.41
3.02
-0.11
-4.35
-9.77
-15.92
-21.76
-25.83
-26.79
-24.01
-17.84
-9.56
-0.82
7.00
13.25
17.99
21.64
24.51
26.51
27.36
26.85
25.19
23.01
21.13
20.02
19.61
19.25
18.06
15.45
11.43
6.61
1.94
-1.85
-4.57
-6.63
-8.74
-11.54
-15.36
-20.11
-25.46
-30.89
-35.70
-39.07
-40.08
-38.03
-32.82
-25.10
-16.11
-7.25
0.54
6.99
12.40
17.26
21.81
25.84
28.96
30.84
31.46
31.11
30.18
28.88
27.24
25.12
22.43
19.31
16.08
13.15
10.75
8.83
7.05
5.00
2.29
-1.14
-5.12
-9.27
-13.22
-16.76
-19.94
-23.03
-26.32
-29.90
-33.48
-36.38
-37.72
-36.79
-33.36
-27.86
-21.20
-14.38
-8.18
-2.86
1.69
5.80
9.59
12.96
15.59
17.15
17.58
17.09
16.15
15.25
14.72
14.59
14.60
14.35
13.45
11.76
9.36
6.58
3.81
1.36
-0.63
-2.24
-3.68
-5.17
-6.98
-9.33
-12.42
-16.32
-20.85
-25.43
-29.13
-30.90
-29.94
-25.99
-19.50
-11.55
-3.38
3.91
9.67
13.66
15.97
16.80
16.39
14.98
12.89
10.53
8.33
6.59
5.43
4.75
4.37
4.02
3.50
2.66
1.41
-0.31
-2.58
-5.49
-9.18
-13.69
-18.97
-24.60
-29.76
-33.34
-34.18
-31.57
-25.57
-17.03
-7.40
1.81
9.53
15.25
19.04
21.28
22.29
22.28
21.34
19.61
17.34
14.91
12.67
10.81
9.31
7.96
6.52
4.86
2.97
0.96
-1.08
-3.21
-5.62
-8.62
-12.56
-17.53
-23.27
-29.04
-33.77
-36.32
-35.89
-32.35
-26.25
-18.66
-10.73
-3.34
3.06
8.41
12.77
16.10
18.18
18.86
18.10
16.23
13.77
11.31
9.26
7.74
6.59
5.47
4.08
2.18
-0.30
-3.40
-7.09
-11.38
-16.22
-21.54
-27.21
-32.99
-38.50
-43.18
-46.24
-46.86
-44.47
-39.06
-31.21
-22.03
-12.71
-4.17
3.15
9.26
14.27
18.20
20.85
22.04
21.77
20.40
18.45
16.43
14.54
12.72
10.71
8.35
5.75
3.19
1.05
-0.55
-1.71
-2.82
-4.33
-6.67
-10.06
-14.51
-19.73
-25.05
-29.54
-32.11
-31.90
-28.54
-22.41
-14.55
-6.30
1.13
7.06
11.41
14.46
16.58
17.94
18.46
17.97
16.48
14.28
11.87
9.84
8.48
7.79
7.41
6.85
5.73
3.94
1.61
-1.04
-3.86
-6.96
-10.56
-14.81
-19.49
-23.83
-26.67
-26.86
-23.78
-17.67
-9.65
-1.33
5.91
11.25
14.73
16.85
18.22
19.20
19.77
19.72
18.89
17.34
15.37
13.30
11.37
9.65
8.07
6.55
5.02
3.48
1.89
0.13
-1.98
-4.63
-7.96
-11.85
-15.82
-19.02
-20.41
-19.16
-14.99
-8.39
-0.47
7.43
14.26
19.50
23.21
25.69
27.17
27.67
27.15
25.75
23.84
22.04
20.77
20.12
19.66
18.75
16.85
13.85
10.13
6.34
3.15
0.85
-0.69
-2.01
-3.82
-6.73
-10.99
-16.34
-21.96
-26.64
-29.15
-28.63
-24.93
-18.71
-11.19
-3.71
2.76
7.88
11.85
15.06
17.75
19.82
20.91
20.76
19.48
17.57
15.74
14.59
14.37
14.89
15.64
16.00
15.51
13.97
11.46
8.34
5.03
1.94
-0.74
-3.06
-5.32
-7.93
-11.18
-15.18
-19.75
-24.53
-29.05
-32.83
-35.29
-35.92
-34.28
-30.25
-24.12
-16.63
-8.76
-1.43
4.85
10.05
14.45
18.36
21.85
24.65
26.31
26.45
25.07
22.54
19.53
16.77
14.82
13.87
13.76
14.03
14.13
13.63
12.36
10.47
8.29
6.11
4.02
1.86
-0.67
-3.85
-7.72
-12.11
-16.79
-21.55
-26.30
-30.78
-34.49
-36.58
-36.12
-32.52
-25.94
-17.38
-8.34
-0.34
5.67
9.48
11.48
12.25
12.25
11.68
10.64
9.36
8.23
7.71
8.01
8.88
9.71
9.73
8.44
5.87
2.58
-0.65
-3.19
-4.85
-5.92
-7.01
-8.71
-11.43
-15.21
-19.74
-24.40
-28.22
-30.16
-29.36
-25.49
-18.97
-10.92
-2.77
4.27
9.55
13.09
15.24
16.40
16.74
16.27
15.06
13.35
11.63
10.38
9.87
9.99
10.34
10.41
9.80
8.40
6.35
4.00
1.68
-0.38
-2.18
-3.89
-5.86
-8.48
-12.01
-16.40
-21.19
-25.53
-28.33
-28.61
-25.89
-20.37
-12.99
-5.01
2.36
8.41
13.00
16.47
19.22
21.44
22.95
23.38
22.49
20.41
17.74
15.29
13.71
13.22
13.53
13.99
13.96
13.03
11.19
8.68
5.90
3.14
0.59
-1.70
-3.78
-5.81
-8.01
-10.74
-14.33
-18.94
-24.34
-29.85
-34.42
-36.94
-36.56
-33.02
-26.75
-18.72
-10.07
-1.80
5.45
11.37
15.85
18.77
20.00
19.48
17.34
14.09
10.52
7.47
5.57
5.00
5.42
6.10
6.30
5.46
3.45
0.54
-2.79
-6.06
-8.95
-11.43
-13.62
-15.75
-18.06
-20.78
-24.10
-28.07
-32.50
-36.81
-40.05
-41.12
-39.13
-33.82
-25.72
-16.02
-6.15
2.63
9.62
14.62
17.84
19.58
20.08
19.59
18.32
16.71
15.24
14.37
14.30
14.92
15.79
16.33
16.08
14.85
12.80
10.28
7.64
5.08
2.56
-0.16
-3.37
-7.31
-12.15
-17.80
-23.88
-29.58
-33.79
-35.31
-33.32
-27.75
-19.39
-9.60
0.12
8.68
15.60
20.83
24.42
26.30
26.29
24.36
20.93
16.90
13.32
10.97
10.03
9.98
9.95
9.16
7.27
4.48
1.32
-1.69
-4.33
-6.70
-9.18
-12.21
-16.10
-20.92
-26.33
-31.61
-35.66
-37.24
-35.42
-29.94
-21.48
-11.45
-1.52
6.94
13.31
17.61
20.25
21.58
21.74
20.83
19.09
17.02
15.21
14.10
13.68
13.56
13.12
11.94
9.92
7.32
4.55
1.94
-0.46
-2.81
-5.47
-8.85
-13.30
-18.91
-25.32
-31.69
-36.68
-38.86
-37.14
-31.24
-21.86
-10.50
1.03
11.20
19.14
24.67
28.08
29.78
30.05
29.11
27.27
25.03
23.04
21.85
21.61
21.95
22.12
21.33
19.14
15.65
11.43
7.19
3.41
0.18
-2.85
-6.24
-10.56
-16.14
-22.95
-30.44
-37.57
-42.89
-44.99
-42.90
-36.53
-26.83
-15.47
-4.30
5.19
12.25
16.92
19.65
21.00
21.34
20.85
19.64
17.99
16.33
15.12
14.61
14.66
14.74
14.18
12.51
9.64
5.97
2.10
-1.42
-4.45
-7.18
-10.15
-13.99
-19.19
-25.83
-33.42
-40.79
-46.27
-48.16
-45.33
-37.73
-26.55
-13.89
-1.97
7.52
13.95
17.60
19.28
19.80
19.66
19.02
17.87
16.25
14.30
12.27
10.36
8.62
6.98
5.23
3.22
0.97
-1.36
-3.52
-5.41
-7.24
-9.55
-13.03
-18.14
-24.62
-31.28
-36.21
-37.44
-33.72
-25.17
-13.31
-0.47
11.00
19.54
24.71
26.95
27.19
26.25
24.65
22.60
20.15
17.44
14.65
12.09
9.97
8.41
7.28
6.29
5.06
3.30
0.88
-2.13
-5.62
-9.60
-14.21
-19.44
-24.85
-29.34
-31.41
-29.69
-23.66
-13.94
-2.29
9.18
18.67
25.28
29.01
30.45
30.32
29.15
27.24
24.84
22.22
19.73
17.65
16.07
14.89
13.81
12.48
10.68
8.31
5.42
2.12
-1.55
-5.75
-10.78
-16.91
-24.01
-31.30
-37.31
-40.24
-38.66
-32.15
-21.61
-9.02
3.23
13.20
19.92
23.49
24.68
24.49
23.66
22.56
21.26
19.73
17.97
16.03
14.00
11.91
9.79
7.59
5.26
2.78
0.10
-2.83
-6.15
-10.09
-14.93
-20.90
-27.85
-35.05
-41.14
-44.41
-43.36
-37.35
-27.03
-14.20
-1.27
9.62
17.28
21.67
23.55
23.97
23.72
23.12
22.28
21.28
20.30
19.54
18.99
18.32
17.07
14.84
11.60
7.73
3.81
0.30
-2.73
-5.62
-9.02
-13.59
-19.61
-26.75
-33.86
-39.24
-41.08
-38.16
-30.45
-19.21
-6.64
4.91
13.77
19.38
22.18
23.06
22.88
22.07
20.74
18.87
16.56
14.10
11.87
10.09
8.73
7.53
6.08
4.07
1.37
-1.99
-5.89
-10.30
-15.32
-21.03
-27.18
-32.98
-37.13
-38.23
-35.31
-28.38
-18.48
-7.45
2.79
10.82
16.09
18.90
19.94
19.93
19.28
18.10
16.36
14.14
11.73
9.54
7.84
6.62
5.51
3.95
1.52
-1.87
-6.02
-10.62
-15.50
-20.63
-25.91
-30.79
-34.16
-34.62
-31.12
-23.58
-13.10
-1.61
8.85
16.90
22.14
25.04
26.36
26.66
26.11
24.58
22.01
18.63
15.00
11.74
9.26
7.58
6.34
5.02
3.14
0.49
-2.94
-7.11
-12.07
-17.94
-24.61
-31.53
-37.50
-40.90
-40.31
-35.12
-25.98
-14.60
-3.18
6.46
13.44
17.94
20.72
22.59
23.88
24.43
23.87
21.99
19.05
15.67
12.57
10.23
8.66
7.47
6.08
4.06
1.16
-2.59
-7.16
-12.53
-18.63
-25.11
-31.11
-35.30
-36.26
-33.06
-25.72
-15.33
-3.71
7.23
16.12
22.45
26.45
28.70
29.73
29.87
29.24
27.98
26.31
24.54
22.99
21.78
20.82
19.82
18.45
16.54
14.10
11.30
8.29
5.00
1.04
-4.06
-10.53
-17.90
-24.92
-29.74
-30.67
-26.93
-19.01
-8.59
2.23
11.73
19.10
24.40
28.07
30.43
31.43
30.75
28.28
24.37
19.84
15.60
12.31
10.15
8.89
8.05
7.17
5.93
4.14
1.74
-1.34
-5.15
-9.77
-15.21
-21.20
-27.05
-31.62
-33.52
-31.59
-25.36
-15.43
-3.29
9.14
20.11
28.47
33.77
36.09
35.83
33.54
30.04
26.37
23.59
22.42
22.83
24.02
24.64
23.44
19.78
13.93
6.93
0.20
-5.05
-8.20
-9.39
-9.59
-10.21
-12.65
-17.65
-24.89
-32.81
-39.13
-41.61
-38.91
-31.03
-19.26
-5.62
7.86
19.63
28.68
34.51
36.98
36.23
32.77
27.42
21.15
14.84
9.06
3.98
-0.47
-4.45
-8.16
-11.81
-15.68
-19.98
-24.74
-29.52
-33.44
-35.29
-34.04
-29.32
-21.67
-12.42
-3.21
4.61
10.40
14.32
17.00
19.13
21.05
22.65
23.63
23.69
22.79
21.18
19.20
17.10
14.93
12.52
9.67
6.30
2.55
-1.30
-4.97
-8.43
-11.94
-15.83
-20.28
-24.93
-28.94
-31.20
-30.85
-27.69
-22.26
-15.65
-8.95
-2.82
2.63
7.69
12.61
17.32
21.27
23.65
23.78
21.48
17.15
11.79
6.51
2.20
-0.78
-2.60
-3.73
-4.63
-5.51
-6.43
-7.52
-9.13
-11.73
-15.53
-20.05
-24.02
-25.80
-24.04
-18.34
-9.44
1.11
11.58
20.66
27.62
32.30
34.74
35.08
33.50
30.42
26.47
22.39
18.84
16.16
14.32
13.05
11.93
10.61
8.85
6.62
3.96
0.98
-2.28
-5.96
-10.39
-15.82
-22.12
-28.50
-33.56
-35.71
-33.85
-27.87
-18.86
-8.69
0.67
7.83
12.28
14.24
14.24
12.78
10.17
6.66
2.60
-1.52
-5.14
-7.88
-9.67
-10.80
-11.71
-12.85
-14.47
-16.56
-18.91
-21.32
-23.74
-26.42
-29.76
-34.02
-38.97
-43.63
-46.49
-46.06
-41.55
-33.31
-22.81
-12.19
-3.47
2.03
4.04
3.14
0.37
-3.16
-6.61
-9.47
-11.57
-12.93
-13.70
-14.10
-14.37
-14.72
-15.26
-15.94
-16.53
-16.71
-16.24
-15.21
-14.08
-13.71
-14.97
-18.23
-23.10
-28.30
-32.04
-32.65
-29.20
-21.83
-11.62
-0.17
11.00
20.89
29.06
35.58
40.69
44.66
47.71
50.02
51.79
53.19
54.33
55.10
55.19
53.99
50.81
45.03
36.37
25.20
12.56
0.01
-10.87
-18.95
-23.88
-25.97
-25.83
-23.90
-20.32
-15.09
-8.50
-1.35
5.16
9.99
12.73
13.88
14.53
15.75
17.99
20.90
23.54
24.96
24.61
22.57
19.36
15.60
11.86
8.45
5.52
3.13
1.24
-0.30
-1.73
-3.40
-5.68
-8.94
-13.42
-19.19
-25.93
-32.80
-38.48
-41.46
-40.50
-35.19
-26.22
-15.17
-3.95
5.94
13.80
19.77
24.36
27.99
30.60
31.86
31.47
29.57
26.78
23.96
21.75
20.31
19.33
18.26
16.70
14.56
12.04
9.36
6.59
3.56
-0.04
-4.55
-10.22
-17.07
-24.82
-32.72
-39.57
-43.91
-44.53
-40.96
-33.80
-24.57
-15.20
-7.30
-1.68
1.69
3.40
4.09
4.15
3.68
2.62
1.02
-0.95
-2.97
-4.78
-6.26
-7.57
-9.00
-10.85
-13.29
-16.25
-19.48
-22.72
-25.89
-29.15
-32.80
-36.91
-40.97
-43.83
-44.00
-40.32
-32.54
-21.69
-9.77
0.99
8.94
13.62
15.64
16.24
16.51
16.96
17.47
17.59
16.98
15.64
13.88
12.12
10.55
9.05
7.27
4.84
1.61
-2.37
-6.90
-11.84
-17.25
-23.28
-29.92
-36.68
-42.44
-45.63
-44.83
-39.36
-29.75
-17.70
-5.43
5.07
12.79
17.80
20.95
23.21
25.17
26.88
28.07
28.50
28.12
27.02
25.36
23.16
20.37
16.96
13.09
9.06
5.28
2.01
-0.73
-3.24
-6.05
-9.78
-14.74
-20.59
-26.20
-29.83
-29.70
-24.81
-15.48
-3.36
9.18
19.93
27.57
31.92
33.68
33.86
33.31
32.49
31.56
30.45
29.12
27.49
25.56
23.37
21.00
18.49
15.82
12.84
9.40
5.42
0.97
-3.82
-8.94
-14.61
-21.04
-28.08
-34.89
-39.95
-41.51
-38.35
-30.36
-18.72
-5.44
7.34
18.11
26.22
31.76
35.14
36.73
36.76
35.41
33.03
30.12
27.24
24.75
22.70
20.81
18.71
16.07
12.80
8.98
4.76
0.24
-4.65
-10.12
-16.44
-23.74
-31.78
-39.75
-46.28
-49.73
-48.71
-42.65
-32.25
-19.29
-6.06
5.38
13.83
19.12
21.82
22.72
22.44
21.35
19.63
17.50
15.20
12.98
10.96
9.10
7.19
5.00
2.36
-0.78
-4.35
-8.17
-12.11
-16.18
-20.63
-25.74
-31.59
-37.58
-42.41
-44.33
-41.85
-34.54
-23.34
-10.45
1.65
11.00
16.86
19.59
20.20
19.62
18.38
16.65
14.44
11.95
9.57
7.67
6.39
5.54
4.59
3.01
0.49
-2.90
-6.77
-10.66
-14.32
-17.96
-22.09
-27.13
-32.91
-38.43
-41.99
-41.89
-37.12
-27.91
-15.70
-2.56
9.54
19.41
26.72
31.76
35.01
36.75
37.08
36.07
33.99
31.38
28.85
26.85
25.52
24.59
23.58
22.04
19.70
16.51
12.56
7.97
2.76
-3.22
-10.16
-18.09
-26.62
-34.74
-40.86
-43.26
-40.70
-33.04
-21.49
-8.26
4.23
14.26
21.21
25.55
28.15
29.74
30.52
30.34
29.06
26.87
24.29
21.90
20.03
18.55
17.07
15.10
12.46
9.25
5.87
2.73
0.01
-2.44
-5.11
-8.68
-13.65
-20.06
-27.21
-33.69
-37.72
-37.74
-33.00
-23.95
-12.10
0.47
11.82
20.76
26.99
30.88
33.00
33.78
33.31
31.59
28.71
25.05
21.17
17.63
14.78
12.70
11.20
10.04
8.95
7.69
6.04
3.75
0.53
-3.87
-9.68
-16.87
-25.03
-33.19
-39.86
-43.35
-42.33
-36.42
-26.48
-14.39
-2.48
7.32
13.99
17.55
18.72
18.35
17.00
14.84
11.84
8.04
3.79
-0.33
-3.76
-6.23
-7.92
-9.33
-11.04
-13.42
-16.46
-19.95
-23.67
-27.65
-32.20
-37.56
-43.50
-49.01
-52.41
-51.99
-46.72
-36.96
-24.35
-11.25
0.15
8.64
14.12
17.24
18.81
19.25
18.56
16.64
13.65
10.21
7.14
5.17
4.56
5.00
5.79
6.06
5.10
2.51
-1.80
-7.66
-14.73
-22.47
-30.05
-36.31
-39.86
-39.41
-34.36
-25.10
-13.13
-0.61
10.42
18.66
23.89
26.68
27.85
28.03
27.42
26.01
23.83
21.16
18.50
16.26
14.56
13.21
11.77
9.85
7.25
4.00
0.27
-3.81
-8.31
-13.37
-19.07
-25.07
-30.49
-34.01
-34.27
-30.46
-22.73
-12.19
-0.56
10.55
20.03
27.52
33.13
37.09
39.43
40.04
38.87
36.24
32.83
29.53
27.05
25.59
24.83
24.10
22.80
20.68
17.85
14.68
11.48
8.29
4.84
0.70
-4.50
-10.93
-18.36
-26.16
-33.34
-38.66
-40.90
-39.28
-33.80
-25.28
-15.20
-5.12
3.78
11.06
16.83
21.41
24.93
27.20
27.87
26.86
24.62
22.05
20.15
19.50
19.95
20.70
20.66
19.12
16.04
12.17
8.54
5.98
4.62
3.85
2.61
-0.07
-4.70
-11.10
-18.54
-25.95
-32.14
-36.00
-36.70
-33.94
-28.03
-19.88
-10.69
-1.48
7.31
15.84
24.47
33.23
41.39
47.44
49.78
47.68
41.99
35.34
31.42
33.68
43.80
60.72
80.59
98.05
107.90
106.74
93.65
70.10
39.16
4.75
-28.84
-57.27
-76.87
-85.39
-82.77
-71.20
-54.44
-36.68
-21.50
-11.36
-7.82
-11.56
-22.17
-37.49
-53.20
-63.36
-62.12
-46.09
-16.07
22.67
62.04
93.75
112.06
115.17
105.14
86.37
63.65
40.68
19.31
0.11
-16.77
-30.76
-40.63
-44.90
-42.61
-34.03
-20.69
-4.99
10.65
24.48
35.73
44.52
51.24
56.22
59.52
61.13
61.25
60.46
59.49
58.81
58.23
56.77
53.04
45.86
34.94
21.06
5.74
-9.39
-23.34
-35.95
-47.66
-59.01
-70.16
-80.74
-90.04
-97.31
-101.90
-103.39
-101.44
-95.87
-86.88
-75.20
-62.24
-49.73
-39.42
-32.63
-30.10
-31.90
-37.41
-45.51
-54.61
-63.11
-69.92
-74.91
-79.05
-84.03
-91.56
-102.56
-116.62
-131.74
-144.72
-151.96
-150.54
-139.27
-119.22
-93.65
-66.99
-43.46
-25.59
-13.54
-5.20
2.74
13.41
28.71
48.76
72.13
96.57
119.82
140.29
157.36
171.28
182.84
192.90
202.15
210.91
219.14
226.39
231.84
234.41
233.02
226.96
216.09
200.96
182.57
162.00
139.98
116.65
91.46
63.37
31.46
-4.44
-43.04
-81.42
-115.55
-141.44
-156.40
-159.87
-153.40
-139.81
-121.94
-101.64
-79.60
-55.95
-31.15
-6.60
15.56
33.26
45.41
52.42
55.84
57.58
58.96
60.22
60.73
59.53
56.01
50.20
42.45
33.09
22.00
8.72
-7.16
-25.49
-45.32
-65.09
-83.06
-97.97
-109.62
-118.88
-127.22
-135.84
-144.81
-152.76
-157.33
-156.21
-148.29
-134.34
-116.74
-98.58
-82.51
-69.99
-61.11
-55.09
-50.89
-47.71
-45.10
-42.74
-40.24
-37.09
-32.87
-27.69
-22.50
-19.15
-19.85
-26.51
-39.96
-59.56
-83.43
-109.08
-134.19
-156.92
-175.83
-189.34
-195.48
-192.14
-177.77
-152.06
-116.20
-72.46
-23.69
27.10
76.68
121.40
157.36
181.18
191.12
187.90
174.56
155.36
134.14
113.27
93.48
74.72
57.09
41.39
28.84
20.41
16.16
15.25
16.38
18.38
20.48
22.29
23.36
23.08
20.82
16.40
10.54
4.87
1.40
1.66
5.91
12.97
20.72
26.97
30.37
30.84
29.25
26.77
24.25
21.89
19.58
17.28
15.31
14.28
14.70
16.61
19.48
22.49
24.96
26.64
27.67
28.29
28.63
28.59
28.08
27.29
26.81
27.39
29.56
33.24
37.65
41.52
43.52
42.75
39.04
32.90
25.31
17.32
9.71
2.82
-3.33
-8.72
-13.18
-16.31
-17.76
-17.51
-16.07
-14.41
-13.57
-14.22
-16.49
-20.02
-24.22
-28.60
-32.89
-36.84
-39.99
-41.57
-40.71
-36.81
-29.99
-21.18
-11.85
-3.58
2.54
6.18
7.68
7.72
6.95
5.72
4.13
2.21
0.11
-1.85
-3.30
-4.03
-4.13
-3.87
-3.65
-3.75
-4.30
-5.27
-6.59
-8.13
-9.68
-10.92
-11.52
-11.22
-10.03
-8.27
-6.42
-4.91
-3.87
-3.12
-2.31
-1.17
0.32
1.95
3.37
4.28
4.52
4.17
3.45
2.72
2.32
2.48
3.04
3.49
3.00
0.74
-3.77
-10.52
-19.09
-28.82
-39.11
-49.49
-59.65
-69.41
-78.64
-87.18
-94.68
-100.48
-103.60
-102.95
-97.86
-88.36
-75.34
-60.27
-44.63
-29.42
-15.02
-1.41
11.46
23.34
33.50
40.93
44.56
43.54
37.52
27.00
13.58
-0.11
-10.79
-15.43
-12.18
-1.12
15.72
35.08
53.51
68.52
79.01
85.20
88.02
88.54
87.61
85.89
83.97
82.49
82.03
82.84
84.81
87.57
90.69
93.89
96.84
98.89
98.91
95.60
88.19
77.16
64.56
53.51
47.15
47.59
55.29
69.06
86.56
104.84
120.65
130.72
132.29
123.74
105.50
80.27
52.40
26.42
5.49
-9.68
-20.70
-30.51
-41.94
-56.75
-75.41
-97.43
-122.05
-148.58
-176.27
-204.10
-230.66
-254.34
-273.76
-288.08
-297.10
-301.06
-300.11
-293.98
-281.87
-262.75
-236.05
-202.31
-163.71
-123.88
-87.09
-57.02
-35.65
-22.62
-15.63
-11.58
-7.87
-3.38
1.63
6.18
9.55
11.72
13.26
14.89
17.09
20.18
24.67
31.42
41.44
55.35
72.73
91.98
110.71
126.59
138.04
144.56
146.55
144.82
140.17
133.27
124.69
115.02
104.88
94.89
85.51
76.98
69.17
61.59
53.49
44.21
33.46
21.65
9.94
-0.07
-6.76
-9.06
-6.67
-0.13
9.35
20.21
30.79
39.69
46.04
49.72
51.21
51.30
50.55
48.98
46.13
41.51
35.08
27.52
19.89
13.13
7.57
2.81
-1.84
-6.76
-11.67
-15.67
-17.85
-17.83
-16.19
-14.18
-13.29
-14.57
-18.28
-23.95
-30.63
-37.27
-43.00
-47.15
-49.15
-48.48
-44.70
-37.68
-27.79
-15.95
-3.53
7.98
17.27
23.52
26.46
26.33
23.81
19.82
15.33
11.18
7.83
5.27
3.12
0.76
-2.33
-6.39
-11.30
-16.71
-22.21
-27.52
-32.44
-36.85
-40.59
-43.45
-45.25
-45.87
-45.42
-44.18
-42.66
-41.44
-41.05
-41.72
-43.18
-44.64
-44.94
-43.00
-38.30
-31.18
-22.77
-14.58
-7.82
-2.92
0.53
3.47
6.78
10.79
15.14
19.02
21.62
22.58
22.06
20.66
18.98
17.29
15.48
13.07
9.58
4.81
-1.08
-7.62
-14.20
-20.26
-25.27
-28.74
-30.27
-29.67
-27.08
-23.03
-18.22
-13.11
-7.69
-1.45
6.22
15.51
25.91
36.25
45.20
51.84
56.03
58.28
59.34
59.71
59.40
58.10
55.52
51.70
47.20
42.85
39.42
37.20
35.76
34.02
30.48
23.71
12.72
-2.58
-21.19
-41.00
-59.11
-72.38
-78.35
-75.81
-65.23
-48.49
-28.33
-7.54
11.63
27.68
39.82
47.70
51.33
51.15
48.00
43.06
37.47
31.96
26.60
20.94
14.35
6.56
-2.06
-10.50
-17.43
-21.72
-22.87
-21.23
-17.97
-14.68
-12.89
-13.52
-16.58
-21.04
-25.18
-27.25
-26.06
-21.49
-14.49
-6.68
0.26
5.20
7.77
8.30
7.48
6.06
4.60
3.56
3.25
3.87
5.42
7.62
9.89
11.48
11.76
10.46
8.09
6.03
6.33
10.99
21.09
36.13
54.10
72.44
89.12
103.45
115.63
125.59
131.92
131.90
122.77
103.61
76.60
46.32
17.86
-5.40
-22.87
-36.05
-46.74
-55.46
-61.27
-62.84
-59.89
-53.73
-46.86
-41.76
-40.11
-42.90
-51.20
-66.59
-90.63
-123.20
-160.94
-196.92
-222.41
-229.91
-216.26
-183.86
-139.53
-91.75
-47.40
-10.01
19.99
43.87
62.86
77.17
86.26
89.81
88.43
83.72
77.49
70.85
63.66
54.93
43.59
29.50
13.81
-1.42
-14.03
-22.73
-27.45
-29.13
-29.10
-28.53
-28.12
-28.20
-28.88
-30.01
-30.92
-30.30
-26.45
-18.25
-6.03
8.11
20.90
29.37
32.35
31.09
28.60
28.11
31.44
38.43
47.45
56.79
65.68
74.52
83.94
93.69
101.96
105.87
102.76
91.62
73.80
52.61
31.98
14.88
2.27
-6.90
-14.82
-23.56
-34.05
-45.75
-57.01
-65.76
-70.13
-68.86
-61.71
-49.79
-35.92
-24.59
-21.14
-30.09
-53.07
-87.51
-126.76
-162.21
-186.33
-195.48
-190.93
-177.78
-162.20
-148.70
-138.59
-130.30
-120.98
-108.24
-91.13
-70.13
-46.50
-21.77
2.39
24.04
40.92
51.18
54.19
51.28
45.60
40.98
40.29
44.20
50.87
56.91
58.84
54.56
44.02
28.97
12.07
-3.95
-17.01
-25.84
-29.96
-29.49
-24.92
-16.87
-5.78
8.17
24.82
43.61
63.09
80.85
94.00
100.07
98.08
89.04
75.75
61.93
51.05
45.15
44.42
47.27
51.11
53.32
52.22
47.74
41.33
35.33
32.13
33.18
38.66
47.53
58.09
68.59
77.63
84.26
87.85
88.07
84.70
77.82
67.89
55.81
42.71
29.71
17.65
6.91
-2.34
-9.96
-15.62
-18.86
-19.35
-17.23
-13.21
-8.41
-3.92
-0.32
2.41
4.82
7.41
10.35
13.35
15.91
17.62
18.47
18.77
19.00
19.51
20.48
21.99
24.03
26.56
29.37
31.96
33.58
33.41
30.92
26.07
19.48
12.12
5.14
-0.48
-4.08
-5.44
-4.68
-2.21
1.39
5.50
9.57
13.22
16.24
18.63
20.51
22.11
23.68
25.34
27.07
28.60
29.62
29.82
29.13
27.71
25.80
23.55
20.88
17.57
13.40
8.42
2.95
-2.49
-7.40
-11.49
-14.74
-17.34
-19.52
-21.47
-23.29
-24.97
-26.44
-27.57
-28.18
-28.07
-27.08
-25.16
-22.48
-19.39
-16.26
-13.35
-10.71
-8.18
-5.54
-2.72
0.05
2.29
3.36
2.81
0.55
-3.06
-7.32
-11.45
-14.82
-17.14
-18.52
-19.22
-19.58
-19.75
-19.67
-19.14
-17.93
-16.05
-13.67
-11.13
-8.68
-6.47
-4.43
-2.52
-0.75
0.68
1.49
1.49
0.65
-0.77
-2.41
-3.92
-5.15
-6.13
-6.94
-7.62
-8.06
-8.14
-7.83
-7.34
-7.06
-7.43
-8.75
-10.98
-13.80
-16.66
-19.01
-20.42
-20.71
-19.98
-18.51
-16.66
-14.69
-12.74
-10.79
-8.76
-6.59
-4.33
-2.14
-0.21
1.27
2.21
2.66
2.80
2.88
3.10
3.64
4.48
5.48
6.42
7.09
7.38
7.35
7.11
6.82
6.55
6.27
5.91
5.32
4.46
3.31
1.91
0.38
-1.18
-2.63
-3.78
-4.43
-4.36
-3.44
-1.67
0.76
3.50
6.15
8.33
9.74
10.27
9.88
8.73
7.06
5.30
3.85
3.06
2.99
3.40
3.78
3.49
2.07
-0.59
-4.19
-8.09
-11.53
-13.94
-15.17
-15.55
-15.67
-16.10
-17.08
-18.39
-19.53
-19.99
-19.57
-18.46
-17.13
-16.07
-15.46
-15.16
-14.87
-14.40
-13.79
-13.28
-13.10
-13.26
-13.44
-13.21
-12.24
-10.54
-8.43
-6.47
-5.11
-4.60
-4.91
-5.87
-7.33
-9.19
-11.46
-14.16
-17.26
-20.57
-23.78
-26.42
-27.99
-28.03
-26.37
-23.19
-19.00
-14.52
-10.38
-6.93
-4.20
-2.02
-0.23
1.20
2.18
2.61
2.51
2.02
1.37
0.69
0.05
-0.55
-1.09
-1.50
-1.67
-1.57
-1.25
-0.87
-0.58
-0.53
-0.73
-1.13
-1.58
-1.94
-2.14
-2.17
-2.12
-2.09
-2.15
-2.30
-2.48
-2.63
-2.70
-2.58
-2.07
-0.90
1.23
4.37
8.24
12.16
15.26
16.75
16.17
13.44
8.90
3.14
-3.01
-8.58
-12.56
-14.15
-13.05
-9.62
-4.86
-0.08
3.49
5.09
4.57
2.31
-0.96
-4.41
-7.31
-9.20
-9.96
-9.84
-9.33
-8.96
-9.06
-9.63
-10.34
-10.72
-10.43
-9.33
-7.55
-5.33
-2.93
-0.54
1.67
3.51
4.82
5.45
5.33
4.52
3.12
1.22
-1.12
-3.79
-6.62
-9.32
-11.52
-12.94
-13.46
-13.23
-12.55
-11.74
-11.03
-10.56
-10.42
-10.71
-11.54
-12.92
-14.73
-16.65
-18.29
-19.34
-19.65
-19.27
-18.31
-16.90
-15.05
-12.78
-10.07
-7.04
-3.84
-0.69
2.21
4.69
6.60
7.85
8.42
8.33
7.71
6.72
5.53
4.27
3.10
2.20
1.85
2.35
3.90
6.42
9.38
11.94
13.15
12.39
9.60
5.36
0.62
-3.60
-6.61
-8.12
-8.10
-6.68
-3.99
-0.25
4.11
8.41
11.86
13.84
14.13
13.02
11.13
9.16
7.66
6.96
7.15
8.16
9.76
11.56
13.04
13.70
13.25
11.77
9.71
7.71
6.37
6.02
6.59
7.70
8.74
9.11
8.36
6.36
3.36
0.00
-2.81
-4.29
-3.92
-1.67
2.08
6.71
11.54
16.03
19.72
22.22
23.14
22.23
19.42
15.03
9.75
4.54
0.39
-1.97
-2.33
-1.05
1.08
3.08
4.14
3.82
2.18
-0.36
-3.28
-6.11
-8.61
-10.71
-12.44
-13.85
-14.99
-15.87
-16.55
-17.06
-17.35
-17.35
-16.88
-15.77
-13.91
-11.23
-7.85
-4.02
-0.20
3.05
5.12
5.59
4.36
1.75
-1.52
-4.58
-6.70
-7.48
-7.01
-5.78
-4.45
-3.66
-3.85
-5.09
-7.15
-9.62
-12.06
-14.15
-15.79
-17.09
-18.16
-19.12
-19.92
-20.38
-20.24
-19.22
-17.15
-13.96
-9.74
-4.76
0.52
5.55
9.66
12.33
13.26
12.53
10.63
8.38
6.72
6.47
7.95
10.93
14.63
18.05
20.27
20.85
19.86
17.78
15.15
12.35
9.54
6.73
4.07
1.91
0.74
0.93
2.51
5.09
7.89
10.14
11.24
11.05
9.75
7.75
5.47
3.23
1.23
-0.44
-1.67
-2.34
-2.39
-1.87
-0.92
0.22
1.28
2.05
2.34
2.04
1.11
-0.47
-2.63
-5.20
-7.89
-10.32
-12.01
-12.58
-11.85
-10.00
-7.48
-4.86
-2.58
-0.74
0.82
2.43
4.23
6.09
7.63
8.47
8.46
7.76
6.78
5.93
5.52
5.58
5.99
6.46
6.70
6.46
5.61
4.17
2.27
0.08
-2.26
-4.64
-6.99
-9.25
-11.29
-12.93
-14.01
-14.35
-13.85
-12.49
-10.31
-7.43
-4.02
-0.26
3.72
7.79
11.80
15.53
18.56
20.43
20.70
19.19
16.10
12.00
7.66
3.90
1.26
-0.11
-0.39
-0.03
0.48
0.86
1.02
1.11
1.39
1.97
2.83
3.73
4.35
4.39
3.68
2.17
0.06
-2.35
-4.62
-6.29
-6.96
-6.41
-4.68
-1.99
1.19
4.29
6.79
8.24
8.37
7.17
4.84
1.83
-1.27
-3.91
-5.63
-6.28
-5.95
-5.02
-3.95
-3.20
-3.08
-3.68
-4.88
-6.43
-8.07
-9.56
-10.78
-11.67
-12.16
-12.24
-11.86
-11.06
-9.92
-8.56
-7.13
-5.68
-4.21
-2.65
-1.01
0.67
2.26
3.66
4.85
5.93
7.03
8.25
9.52
10.58
11.11
10.86
9.79
8.13
6.31
4.71
3.59
2.97
2.62
2.24
1.56
0.42
-1.15
-3.03
-5.01
-6.85
-8.28
-9.01
-8.72
-7.17
-4.26
-0.11
4.82
9.86
14.19
17.10
18.17
17.48
15.55
13.16
11.08
9.78
9.33
9.48
9.87
10.21
10.39
10.41
10.30
10.03
9.50
8.59
7.21
5.43
3.38
1.24
-0.87
-2.89
-4.82
-6.67
-8.34
-9.58
-10.01
-9.22
-7.04
-3.65
0.37
4.23
7.14
8.67
8.75
7.70
5.99
4.10
2.43
1.25
0.75
1.01
2.03
3.69
5.78
8.01
10.02
11.48
12.01
11.36
9.48
6.57
3.17
-0.08
-2.70
-4.56
-5.95
-7.42
-9.52
-12.43
-15.88
-19.14
-21.34
-21.74
-19.95
-16.06
-10.61
-4.42
1.68
6.95
11.02
13.78
15.39
16.13
16.27
16.05
15.63
15.12
14.56
13.94
13.17
12.15
10.80
9.09
7.06
4.77
2.40
0.09
-2.00
-3.78
-5.30
-6.74
-8.41
-10.54
-13.21
-16.26
-19.21
-21.37
-21.98
-20.45
-16.52
-10.50
-3.23
4.00
9.83
13.22
13.71
11.59
7.71
3.21
-0.87
-3.83
-5.34
-5.41
-4.20
-1.98
0.89
3.92
6.50
7.94
7.74
5.79
2.45
-1.51
-5.25
-8.12
-9.86
-10.60
-10.60
-10.06
-9.01
-7.36
-5.02
-2.05
1.27
4.58
7.53
9.83
11.37
12.17
12.36
12.12
11.64
10.98
10.09
8.87
7.32
5.63
4.11
3.10
2.77
3.00
3.42
3.62
3.32
2.45
1.13
-0.53
-2.48
-4.74
-7.23
-9.75
-11.84
-13.00
-12.81
-11.16
-8.30
-4.77
-1.27
1.65
3.61
4.54
4.61
4.06
3.13
2.03
0.86
-0.36
-1.56
-2.69
-3.65
-4.36
-4.80
-4.99
-5.04
-5.10
-5.35
-5.87
-6.63
-7.47
-8.15
-8.53
-8.65
-8.68
-8.79
-8.94
-8.89
-8.22
-6.60
-3.90
-0.37
3.58
7.45
10.87
13.58
15.39
16.11
15.61
13.82
10.93
7.35
3.65
0.46
-1.74
-2.71
-2.48
-1.34
0.30
2.05
3.54
4.51
4.72
4.00
2.21
-0.63
-4.36
-8.55
-12.66
-16.11
-18.38
-19.12
-18.11
-15.31
-10.90
-5.35
0.62
6.11
10.27
12.49
12.56
10.71
7.51
3.69
0.02
-2.86
-4.51
-4.73
-3.70
-1.96
-0.31
0.41
-0.39
-2.84
-6.62
-11.14
-15.74
-19.92
-23.41
-26.08
-27.81
-28.40
-27.65
-25.45
-21.90
-17.25
-11.89
-6.13
-0.24
5.60
11.18
16.11
19.87
21.89
21.84
19.78
16.23
12.05
8.21
5.46
4.15
4.23
5.30
6.77
8.04
8.65
8.36
7.09
4.94
2.04
-1.41
-5.19
-8.96
-12.25
-14.50
-15.24
-14.25
-11.58
-7.54
-2.47
3.27
9.42
15.62
21.30
25.76
28.32
28.61
26.82
23.56
19.72
16.06
13.05
10.83
9.32
8.39
7.97
7.99
8.35
8.77
8.83
8.09
6.25
3.29
-0.57
-4.92
-9.41
-13.73
-17.70
-21.09
-23.53
-24.55
-23.71
-20.89
-16.38
-10.85
-5.05
0.43
5.34
9.62
13.20
15.86
17.28
17.32
16.14
14.29
12.44
11.11
10.45
10.23
10.09
9.77
9.26
8.69
8.19
7.72
7.06
5.96
4.37
2.42
0.41
-1.34
-2.77
-4.06
-5.58
-7.66
-10.41
-13.64
-16.83
-19.34
-20.57
-20.07
-17.67
-13.46
-7.81
-1.34
5.21
11.11
15.78
18.88
20.29
20.09
18.49
15.80
12.47
9.04
6.08
4.05
3.12
3.12
3.66
4.20
4.33
3.82
2.66
0.95
-1.21
-3.74
-6.56
-9.60
-12.81
-16.15
-19.52
-22.74
-25.41
-27.02
-27.02
-25.07
-21.19
-15.76
-9.46
-3.06
2.79
7.61
11.11
13.13
13.56
12.53
10.46
8.08
6.20
5.47
6.09
7.73
9.70
11.27
11.95
11.57
10.22
8.03
5.08
1.44
-2.69
-7.00
-11.02
-14.31
-16.59
-17.69
-17.56
-16.13
-13.40
-9.49
-4.74
0.33
5.15
9.22
12.29
14.29
15.30
15.47
15.01
14.18
13.28
12.53
12.06
11.79
11.54
11.09
10.31
9.10
7.46
5.32
2.71
-0.30
-3.40
-6.23
-8.46
-9.97
-11.03
-12.10
-13.63
-15.73
-18.00
-19.65
-19.79
-17.79
-13.55
-7.55
-0.64
6.18
12.10
16.57
19.37
20.61
20.58
19.67
18.28
16.77
15.39
14.26
13.38
12.69
12.09
11.41
10.51
9.25
7.59
5.63
3.57
1.70
0.20
-0.90
-1.71
-2.49
-3.52
-5.06
-7.30
-10.24
-13.71
-17.27
-20.31
-22.11
-22.13
-20.21
-16.54
-11.71
-6.38
-1.14
3.62
7.64
10.82
13.11
14.48
14.97
14.68
13.72
12.29
10.62
8.97
7.64
6.78
6.40
6.28
6.08
5.52
4.49
3.09
1.58
0.19
-1.01
-2.13
-3.39
-4.96
-6.95
-9.31
-11.91
-14.57
-17.04
-18.93
-19.75
-19.02
-16.43
-12.09
-6.52
-0.64
4.57
8.26
10.00
9.80
8.00
5.09
1.60
-1.96
-5.13
-7.53
-8.88
-9.18
-8.68
-7.89
-7.28
-7.19
-7.67
-8.54
-9.53
-10.47
-11.37
-12.43
-13.88
-15.80
-18.04
-20.13
-21.44
-21.33
-19.34
-15.36
-9.64
-2.74
4.58
11.57
17.58
22.06
24.65
25.20
23.77
20.76
16.79
12.63
8.96
6.26
4.77
4.43
4.94
5.83
6.47
6.31
4.97
2.36
-1.23
-5.32
-9.39
-13.12
-16.43
-19.32
-21.71
-23.25
-23.45
-21.82
-18.15
-12.69
-6.07
0.90
7.46
13.08
17.48
20.50
22.02
21.96
20.41
17.73
14.54
11.61
9.57
8.67
8.73
9.25
9.63
9.44
8.57
7.15
5.39
3.38
1.06
-1.78
-5.37
-9.76
-14.81
-20.06
-24.77
-28.09
-29.23
-27.71
-23.56
-17.32
-9.88
-2.27
4.67
10.35
14.48
16.90
17.64
16.84
14.84
12.18
9.50
7.31
5.85
5.07
4.68
4.36
3.91
3.29
2.58
1.87
1.17
0.35
-0.82
-2.64
-5.28
-8.78
-12.87
-17.05
-20.60
-22.83
-23.19
-21.41
-17.55
-11.95
-5.21
1.92
8.59
13.97
17.40
18.62
17.83
15.64
12.86
10.25
8.32
7.26
6.94
7.11
7.43
7.60
7.40
6.65
5.25
3.22
0.66
-2.33
-5.68
-9.37
-13.40
-17.66
-21.85
-25.36
-27.39
-27.14
-24.13
-18.44
-10.84
-2.48
5.41
11.94
16.70
19.77
21.42
21.92
21.35
19.75
17.18
13.91
10.39
7.15
4.62
3.02
2.30
2.23
2.40
2.36
1.61
-0.28
-3.62
-8.38
-14.10
-19.76
-23.97
-25.32
-22.99
-17.07
-8.70
0.37
8.47
14.50
18.16
19.77
19.84
18.74
16.61
13.47
9.49
5.04
0.62
-3.20
-5.95
-7.26
-6.98
-5.22
-2.45
0.52
2.71
3.33
1.91
-1.53
-6.50
-12.21
-17.69
-21.92
-24.05
-23.47
-20.09
-14.31
-6.98
0.80
8.03
13.92
18.07
20.44
21.25
20.91
19.88
18.53
17.06
15.50
13.76
11.80
9.67
7.62
5.93
4.79
4.20
3.86
3.30
2.00
-0.39
-4.01
-8.69
-13.99
-19.29
-23.77
-26.65
-27.25
-25.23
-20.69
-14.12
-6.25
2.10
10.19
17.35
23.04
26.78
28.33
27.81
25.75
22.97
20.30
18.25
16.85
15.72
14.36
12.45
10.00
7.29
4.72
2.62
1.04
-0.22
-1.59
-3.69
-6.97
-11.62
-17.28
-23.07
-27.76
-30.21
-29.65
-26.03
-19.88
-12.10
-3.73
4.31
11.30
16.69
20.11
21.44
20.89
18.98
16.46
14.08
12.39
11.55
11.32
11.24
10.77
9.54
7.47
4.74
1.74
-1.13
-3.69
-6.03
-8.44
-11.28
-14.75
-18.67
-22.44
-25.20
-26.08
-24.53
-20.53
-14.58
-7.59
-0.60
5.54
10.20
13.11
14.27
13.88
12.26
9.84
7.14
4.68
2.88
2.04
2.13
2.90
3.84
4.37
3.98
2.41
-0.28
-3.77
-7.64
-11.59
-15.45
-19.16
-22.48
-24.86
-25.52
-23.76
-19.27
-12.42
-4.20
4.11
11.35
16.81
20.25
21.78
21.68
20.29
17.99
15.22
12.46
10.12
8.44
7.45
7.02
6.92
6.91
6.74
6.18
5.09
3.42
1.20
-1.50
-4.67
-8.41
-12.78
-17.61
-22.37
-26.13
-27.77
-26.44
-21.87
-14.51
-5.46
3.92
12.35
18.91
23.13
24.92
24.53
22.43
19.27
15.76
12.54
10.06
8.44
7.53
7.02
6.61
6.06
5.32
4.42
3.40
2.17
0.60
-1.48
-4.24
-7.75
-11.99
-16.70
-21.36
-25.16
-27.16
-26.63
-23.26
-17.43
-10.02
-2.17
5.18
11.43
16.36
19.97
22.24
23.14
22.68
21.10
18.88
16.63
14.88
13.89
13.57
13.58
13.42
12.68
11.15
8.89
6.19
3.43
0.92
-1.19
-3.04
-4.96
-7.39
-10.69
-14.95
-19.89
-24.79
-28.69
-30.61
-29.87
-26.29
-20.27
-12.65
-4.44
3.37
9.96
14.71
17.22
17.35
15.32
11.71
7.36
3.20
-0.07
-2.12
-3.00
-3.05
-2.73
-2.46
-2.53
-3.11
-4.22
-5.78
-7.71
-9.98
-12.66
-15.90
-19.68
-23.69
-27.22
-29.34
-29.23
-26.48
-21.33
-14.53
-7.13
-0.12
5.82
10.31
13.36
15.12
15.83
15.73
15.02
13.83
12.33
10.64
8.96
7.39
6.03
4.82
3.64
2.37
0.95
-0.67
-2.53
-4.84
-7.83
-11.69
-16.24
-20.78
-24.23
-25.51
-23.90
-19.29
-12.22
-3.59
5.63
14.52
22.33
28.43
32.33
33.78
32.87
30.06
26.10
21.79
17.86
14.80
12.89
12.21
12.61
13.72
14.96
15.71
15.48
14.12
11.86
9.18
6.73
5.08
4.49
4.75
5.10
4.41
1.61
-3.72
-10.99
-18.68
-25.02
-28.82
-30.18
-30.56
-32.09
-36.61
-45.02
-57.04
-71.26
-85.38
-96.46
-101.30
-97.34
-83.66
-61.75
-35.44
-9.76
10.88
24.03
29.74
29.78
26.40
21.50
16.37
12.26
10.62
13.09
20.73
33.35
49.25
65.78
80.33
91.18
97.86
101.03
101.74
100.87
98.76
95.30
90.19
83.36
75.12
66.14
57.24
49.04
41.77
35.25
29.09
22.93
16.70
10.68
5.47
1.75
0.10
0.85
3.98
9.11
15.42
21.67
26.35
27.94
25.34
18.30
7.53
-5.44
-18.73
-30.68
-40.22
-47.00
-51.22
-53.36
-53.96
-53.50
-52.30
-50.45
-47.91
-44.52
-40.26
-35.42
-30.55
-26.35
-23.33
-21.54
-20.54
-19.71
-18.45
-16.50
-13.92
-10.89
-7.49
-3.70
0.45
4.72
8.56
11.27
12.28
11.45
9.18
6.36
3.98
2.93
3.71
6.41
10.74
16.23
22.29
28.42
34.39
40.34
46.72
53.95
61.93
69.79
75.83
78.03
74.72
65.28
50.50
32.37
13.40
-4.23
-19.39
-32.21
-43.69
-54.98
-66.69
-78.72
-90.48
-101.46
-111.66
-121.55
-131.66
-142.11
-152.48
-162.22
-171.33
-180.52
-190.86
-202.75
-215.08
-225.10
-229.31
-224.87
-210.93
-189.05
-162.68
-135.84
-111.76
-92.20
-77.28
-65.93
-56.54
-47.31
-36.27
-21.18
0.21
29.32
65.64
105.88
144.26
173.99
189.58
188.79
173.40
148.22
119.10
90.88
66.33
46.49
31.76
22.80
20.50
25.26
36.00
49.89
63.11
72.28
75.67
73.70
68.47
62.44
57.25
53.24
49.77
45.95
41.44
36.67
32.48
29.52
27.72
26.26
23.89
19.41
12.09
1.74
-11.31
-26.27
-41.93
-56.68
-68.61
-75.89
-77.38
-73.01
-64.01
-52.41
-40.43
-29.72
-21.00
-14.28
-9.31
-5.88
-4.03
-3.71
-4.53
-5.73
-6.38
-5.89
-4.32
-2.34
-0.89
-0.78
-2.31
-5.39
-9.80
-15.32
-21.72
-28.49
-34.55
-38.28
-37.99
-32.49
-21.76
-7.07
9.36
25.02
37.93
46.98
51.90
52.98
50.67
45.49
38.15
29.82
22.08
16.64
14.64
16.12
19.97
24.26
27.03
27.01
23.92
18.34
11.26
3.82
-2.95
-8.03
-10.40
-9.33
-4.64
2.91
11.84
20.43
27.50
32.85
37.21
41.63
46.80
52.55
57.76
60.72
59.74
53.97
43.97
31.86
20.74
13.58
11.98
15.39
21.41
26.82
29.15
27.64
23.38
18.53
15.19
14.57
16.82
21.30
27.01
32.86
37.79
40.99
42.18
41.99
41.85
43.53
48.35
56.54
67.06
77.91
87.00
93.00
95.76
96.26
95.94
95.96
96.68
97.69
98.18
97.62
96.07
94.27
93.17
93.37
94.67
96.07
96.17
93.81
88.61
81.09
72.36
63.48
54.96
46.42
36.91
25.47
11.81
-3.37
-18.56
-32.04
-42.78
-50.92
-57.75
-65.09
-74.37
-85.82
-98.31
-109.75
-117.91
-121.31
-119.75
-114.24
-106.51
-98.35
-91.00
-84.79
-79.29
-73.67
-67.22
-59.74
-51.72
-44.12
-37.95
-33.90
-32.05
-31.86
-32.53
-33.24
-33.49
-33.31
-33.09
-33.48
-35.02
-37.86
-41.47
-44.70
-46.04
-44.14
-38.49
-29.71
-19.44
-9.65
-1.64
4.64
10.64
18.37
29.24
43.03
57.86
70.92
79.80
83.46
82.42
78.24
72.70
67.28
63.11
61.00
61.35
63.75
66.74
68.04
65.65
58.99
49.51
40.26
34.37
33.53
37.22
43.23
48.83
52.13
52.50
50.14
45.34
37.90
27.27
13.17
-3.79
-21.99
-39.23
-53.54
-63.94
-70.81
-75.65
-80.49
-87.06
-96.06
-106.91
-117.84
-126.63
-131.27
-130.56
-124.33
-113.24
-98.56
-81.87
-64.77
-48.61
-33.93
-20.03
-4.82
14.58
40.56
73.49
110.90
147.81
178.34
197.80
204.17
198.31
182.83
160.45
132.83
100.51
63.81
23.95
-16.42
-53.71
-84.71
-107.93
-124.07
-135.52
-144.92
-153.83
-162.11
-168.26
-170.59
-168.34
-162.32
-154.47
-146.92
-140.91
-136.28
-131.62
-125.10
-115.19
-101.35
-84.04
-64.54
-44.52
-25.72
-9.62
2.76
11.00
15.38
16.77
16.47
15.86
16.03
17.53
20.33
23.98
27.79
31.13
33.57
34.87
34.93
33.70
31.26
27.77
23.67
19.60
16.31
14.35
13.84
14.41
15.30
15.67
14.83
12.45
8.55
3.42
-2.50
-8.58
-14.13
-18.38
-20.70
-20.79
-18.84
-15.48
-11.62
-8.06
-5.32
-3.54
-2.60
-2.36
-2.67
-3.45
-4.51
-5.55
-6.18
-6.12
-5.30
-4.00
-2.66
-1.77
-1.66
-2.47
-4.21
-6.85
-10.36
-14.58
-18.98
-22.66
-24.46
-23.41
-19.14
-12.17
-3.75
4.61
11.67
16.87
20.29
22.41
23.72
24.51
24.84
24.66
23.95
22.83
21.53
20.29
19.30
18.64
18.23
17.86
17.20
15.88
13.51
9.84
4.88
-0.90
-6.53
-10.61
-11.62
-8.39
-0.58
11.06
24.79
38.33
49.44
56.53
58.92
56.89
51.44
43.98
35.97
28.69
23.03
19.43
17.79
17.67
18.39
19.22
19.50
18.70
16.44
12.51
6.91
-0.19
-8.40
-17.10
-25.42
-32.30
-36.67
-37.71
-35.13
-29.40
-21.63
-13.30
-5.83
-0.17
3.30
4.78
4.72
3.70
2.18
0.51
-1.09
-2.50
-3.77
-5.05
-6.53
-8.34
-10.48
-12.81
-15.22
-17.74
-20.72
-24.61
-29.76
-35.96
-42.22
-46.92
-48.38
-45.71
-39.33
-30.97
-22.91
-16.97
-13.62
-11.81
-9.67
-5.37
1.90
11.71
22.76
33.47
42.42
48.40
50.46
48.01
41.33
31.91
22.35
15.53
13.29
15.44
19.63
22.46
21.16
15.09
6.04
-2.62
-7.59
-7.16
-1.67
6.90
16.00
23.61
28.70
31.15
31.26
29.32
25.36
19.43
11.92
3.80
-3.50
-8.60
-10.80
-10.40
-8.71
-7.50
-8.35
-12.10
-18.69
-27.27
-36.57
-45.17
-51.76
-55.29
-55.24
-51.69
-45.45
-37.85
-30.31
-23.96
-19.27
-16.12
-13.99
-12.35
-10.85
-9.40
-8.09
-7.03
-6.32
-6.01
-6.12
-6.57
-7.25
-8.00
-8.77
-9.70
-11.28
-14.31
-19.67
-27.87
-38.72
-50.88
-61.88
-68.66
-68.40
-59.69
-43.29
-22.05
-0.11
18.64
31.87
39.35
42.61
43.91
45.13
47.13
49.65
51.67
51.78
48.64
41.50
30.74
18.37
7.76
2.65
5.45
15.87
30.63
44.70
53.25
53.51
45.47
31.31
14.01
-3.92
-20.87
-35.97
-48.50
-57.68
-62.91
-64.23
-62.81
-60.71
-60.35
-63.54
-70.82
-81.07
-91.92
-100.80
-106.07
-107.83
-107.80
-108.25
-110.80
-115.69
-121.88
-128.01
-133.18
-137.06
-139.30
-138.70
-133.14
-120.41
-99.54
-71.53
-39.01
-4.72
29.89
65.08
101.81
140.35
179.36
216.38
249.18
276.92
300.28
320.33
337.16
349.14
353.57
348.21
332.55
308.44
279.26
248.72
219.63
193.51
170.76
151.16
134.36
120.06
108.19
98.76
91.77
86.92
83.37
79.66
73.92
64.40
50.24
31.93
11.30
-9.00
-26.52
-39.80
-48.67
-54.08
-57.49
-60.33
-63.71
-68.52
-75.45
-84.94
-96.95
-110.65
-124.50
-136.73
-146.13
-152.55
-157.03
-161.28
-166.95
-175.02
-185.60
-198.01
-211.05
-223.31
-233.35
-239.88
-241.91
-238.91
-230.99
-218.99
-204.48
-189.46
-175.79
-164.44
-154.79
-144.35
-129.30
-105.43
-69.54
-20.60
39.75
107.34
175.99
238.62
288.52
320.49
331.99
323.54
298.29
261.22
217.79
172.69
128.80
86.97
46.77
8.01
-27.71
-56.33
-72.49
-72.09
-54.95
-26.03
5.93
31.71
45.33
46.00
37.47
25.28
13.67
4.11
-4.26
-12.89
-22.23
-31.32
-38.48
-42.46
-43.08
-41.37
-38.74
-36.15
-33.63
-30.28
-24.80
-16.24
-4.64
8.81
22.18
33.52
41.58
46.19
48.20
48.94
49.65
51.05
53.15
55.48
57.41
58.50
58.65
58.16
57.42
56.78
56.35
55.92
54.99
52.90
49.03
43.01
34.88
25.15
14.73
4.65
-4.23
-11.46
-17.14
-21.77
-26.04
-30.48
-35.34
-40.49
-45.53
-49.99
-53.37
-55.24
-55.32
-53.49
-49.94
-45.19
-39.99
-35.17
-31.40
-28.96
-27.77
-27.47
-27.64
-27.93
-28.20
-28.38
-28.41
-28.13
-27.33
-25.84
-23.63
-20.83
-17.77
-14.76
-12.07
-9.84
-8.06
-6.70
-5.73
-5.19
-5.13
-5.54
-6.32
-7.29
-8.22
-8.94
-9.42
-9.76
-10.16
-10.82
-11.86
-13.31
-15.13
-17.21
-19.40
-21.53
-23.40
-24.80
-25.63
-25.95
-25.99
-26.08
-26.53
-27.47
-28.80
-30.23
-31.49
-32.51
-33.49
-34.88
-37.08
-40.34
-44.49
-49.14
-53.71
-57.70
-60.82
-62.97
-64.18
-64.50
-64.05
-62.92
-61.21
-58.83
-55.44
-50.42
-42.98
-32.63
-19.54
-4.69
10.27
23.60
34.04
41.15
45.24
47.01
47.21
46.43
45.23
44.26
44.25
45.73
48.64
52.14
54.86
55.41
53.12
48.39
42.60
37.52
34.48
33.95
35.42
37.84
40.11
41.50
41.76
40.92
39.08
36.29
32.53
27.88
22.54
16.81
10.95
5.12
-0.68
-6.52
-12.38
-18.17
-23.62
-28.35
-31.97
-34.15
-34.79
-34.02
-32.28
-30.21
-28.53
-27.87
-28.63
-30.88
-34.32
-38.29
-41.86
-44.04
-44.06
-41.68
-37.31
-31.87
-26.40
-21.58
-17.43
-13.39
-8.65
-2.70
4.39
11.91
18.84
24.28
27.80
29.42
29.51
28.49
26.70
24.42
21.96
19.65
17.81
16.56
15.72
14.80
13.11
10.11
5.62
0.09
-5.49
-9.82
-11.75
-10.66
-6.74
-0.91
5.43
10.93
14.68
16.40
16.42
15.44
14.18
13.10
12.29
11.60
10.72
9.41
7.59
5.23
2.29
-1.31
-5.63
-10.49
-15.49
-20.05
-23.75
-26.50
-28.57
-30.29
-31.63
-32.04
-30.60
-26.58
-19.91
-11.47
-2.77
4.65
9.78
12.41
13.00
12.26
10.79
8.97
7.01
5.06
3.34
1.99
1.01
0.20
-0.75
-2.10
-3.85
-5.79
-7.50
-8.70
-9.32
-9.66
-10.17
-11.33
-13.46
-16.53
-20.24
-23.89
-26.65
-27.57
-25.99
-21.67
-15.00
-6.93
1.35
8.87
15.18
20.43
25.10
29.60
33.94
37.75
40.47
41.75
41.64
40.55
39.04
37.54
36.25
35.12
34.05
33.02
32.04
31.20
30.47
29.70
28.62
26.92
24.36
20.89
16.53
11.38
5.59
-0.60
-6.81
-12.45
-16.82
-19.36
-19.93
-18.85
-16.81
-14.57
-12.55
-10.77
-8.97
-6.93
-4.64
-2.37
-0.46
0.87
1.60
1.85
1.69
1.08
-0.07
-1.71
-3.56
-5.23
-6.30
-6.59
-6.20
-5.42
-4.61
-4.00
-3.71
-3.81
-4.39
-5.59
-7.45
-9.88
-12.53
-14.88
-16.39
-16.71
-15.70
-13.53
-10.49
-6.85
-2.87
1.24
5.17
8.52
10.78
11.49
10.45
7.79
3.99
-0.29
-4.37
-7.79
-10.31
-11.96
-12.96
-13.61
-14.24
-15.14
-16.49
-18.26
-20.18
-21.75
-22.37
-21.53
-19.01
-15.02
-10.13
-5.11
-0.65
2.87
5.55
7.92
10.85
15.19
21.43
29.40
37.99
45.37
49.46
48.59
42.25
31.37
18.07
4.91
-5.94
-13.39
-17.42
-18.68
-17.91
-15.72
-12.59
-9.19
-6.39
-5.02
-5.47
-7.36
-9.66
-11.16
-10.99
-8.97
-5.51
-1.26
3.22
7.51
11.31
14.31
16.17
16.72
16.03
14.46
12.43
10.27
8.09
5.84
3.49
1.08
-1.22
-3.22
-4.74
-5.68
-6.03
-5.91
-5.56
-5.29
-5.42
-6.05
-7.04
-8.01
-8.51
-8.22
-7.07
-5.24
-3.04
-0.79
1.27
2.96
4.20
4.92
5.15
4.95
4.40
3.58
2.49
1.14
-0.45
-2.21
-4.02
-5.74
-7.34
-8.83
-10.32
-11.88
-13.47
-14.94
-16.08
-16.62
-16.46
-15.61
-14.27
-12.67
-10.93
-8.95
-6.42
-2.98
1.43
6.48
11.39
15.28
17.48
17.77
16.48
14.25
11.74
9.38
7.43
5.91
4.86
4.29
4.17
4.28
4.26
3.63
2.02
-0.63
-4.06
-7.77
-11.28
-14.29
-16.73
-18.66
-20.07
-20.79
-20.47
-18.81
-15.67
-11.33
-6.30
-1.25
3.23
6.75
9.09
10.22
10.17
9.12
7.31
5.02
2.60
0.32
-1.60
-3.01
-3.85
-4.19
-4.17
-4.10
-4.33
-5.17
-6.75
-9.03
-11.70
-14.33
-16.37
-17.29
-16.70
-14.39
-10.47
-5.27
0.67
6.79
12.52
17.36
20.92
23.01
23.69
23.31
22.31
21.07
19.70
17.99
15.62
12.42
8.53
4.44
0.72
-2.23
-4.39
-5.99
-7.43
-9.04
-11.07
-13.62
-16.65
-19.90
-22.83
-24.73
-24.84
-22.63
-18.08
-11.68
-4.38
2.68
8.51
12.48
14.42
14.62
13.63
12.14
10.74
9.77
9.28
9.08
8.86
8.34
7.34
5.84
3.95
1.86
-0.22
-2.20
-4.09
-6.05
-8.30
-11.05
-14.47
-18.53
-22.92
-27.04
-30.04
-30.96
-29.10
-24.25
-16.89
-8.03
1.09
9.39
16.23
21.40
24.93
26.91
27.40
26.57
24.77
22.56
20.50
19.00
18.08
17.45
16.73
15.68
14.29
12.76
11.25
9.81
8.29
6.49
4.23
1.43
-1.86
-5.58
-9.57
-13.58
-17.26
-20.11
-21.62
-21.43
-19.40
-15.72
-10.82
-5.30
0.19
5.05
8.83
11.31
12.52
12.76
12.45
12.00
11.62
11.30
10.85
10.05
8.87
7.43
5.98
4.72
3.70
2.78
1.75
0.35
-1.60
-4.27
-7.73
-11.81
-15.96
-19.35
-20.93
-19.96
-16.23
-10.33
-3.41
3.18
8.38
11.69
13.18
13.33
12.76
12.02
11.51
11.34
11.43
11.55
11.38
10.63
9.23
7.15
4.49
1.40
-2.01
-5.60
-9.36
-13.36
-17.80
-22.84
-28.39
-33.89
-38.27
-40.26
-38.85
-33.81
-25.77
-16.07
-6.17
2.77
10.18
15.96
20.17
22.82
23.86
23.38
21.71
19.49
17.51
16.44
16.64
18.02
20.06
21.94
22.73
21.67
18.42
13.23
6.82
0.18
-5.92
-11.22
-15.94
-20.51
-25.04
-29.16
-32.03
-32.69
-30.55
-25.63
-18.53
-10.18
-1.52
6.73
14.02
19.96
24.23
26.65
27.32
26.66
25.32
24.02
23.22
22.93
22.77
22.09
20.33
17.33
13.37
9.10
5.21
2.15
-0.03
-1.64
-3.21
-5.24
-8.06
-11.64
-15.56
-19.11
-21.47
-21.89
-20.01
-15.95
-10.28
-3.91
2.23
7.34
10.92
12.86
13.37
12.93
12.11
11.36
10.92
10.71
10.45
9.84
8.68
7.02
4.99
2.76
0.39
-2.10
-4.65
-7.21
-9.68
-12.05
-14.47
-17.09
-19.90
-22.55
-24.36
-24.58
-22.70
-18.73
-13.22
-7.02
-0.94
4.44
8.89
12.36
14.80
16.18
16.42
15.61
14.04
12.15
10.40
9.05
8.04
7.03
5.63
3.52
0.71
-2.54
-5.80
-8.70
-11.10
-13.11
-15.02
-17.13
-19.50
-21.92
-23.82
-24.45
-23.09
-19.32
-13.24
-5.48
3.05
11.41
18.85
25.03
29.87
33.46
35.96
37.51
38.20
38.15
37.36
35.69
32.87
28.60
22.76
15.67
8.13
1.26
-3.85
-6.51
-6.70
-5.11
-2.94
-1.57
-2.19
-5.48
-11.42
-19.21
-27.43
-34.31
-38.24
-38.25
-34.23
-26.91
-17.54
-7.46
2.27
10.90
17.98
23.15
26.18
27.11
26.36
24.80
23.43
23.04
23.80
25.22
26.29
26.02
23.89
20.09
15.57
11.55
9.11
8.61
9.63
11.04
11.54
10.08
6.28
0.46
-6.26
-12.13
-14.82
-11.71
-0.52
19.77
48.22
81.69
115.68
145.67
168.52
183.04
189.56
188.78
180.86
165.38
142.03
111.80
77.33
42.44
10.58
-16.60
-39.98
-62.42
-87.56
-118.14
-154.88
-195.94
-237.24
-273.37
-298.93
-310.09
-305.54
-286.91
-258.06
-223.66
-187.67
-152.41
-118.56
-86.10
-55.40
-27.73
-4.94
11.58
21.67
26.58
28.38
28.92
29.11
28.95
28.04
26.21
23.85
21.68
20.09
18.69
16.44
12.25
5.81
-1.88
-8.64
-11.99
-10.10
-2.70
8.76
21.53
32.63
39.56
41.09
37.58
30.59
22.69
16.51
13.79
14.33
16.04
15.94
12.04
4.67
-3.40
-8.42
-7.77
-1.45
7.89
16.47
21.36
21.88
19.56
16.89
15.73
16.38
17.72
18.08
16.52
13.52
10.93
11.22
16.39
27.10
42.11
58.93
74.85
87.58
95.57
97.95
94.55
86.06
74.18
61.39
50.29
42.59
38.60
37.27
37.11
37.00
36.52
35.68
34.27
31.65
27.03
20.02
11.15
1.69
-6.73
-12.80
-15.82
-15.69
-12.82
-8.05
-2.44
2.94
7.31
10.41
12.55
14.39
16.50
18.85
20.81
21.29
19.33
14.65
8.00
0.89
-4.94
-8.28
-8.95
-7.72
-5.94
-4.81
-4.96
-6.36
-8.55
-10.98
-13.11
-14.37
-13.95
-10.84
-4.23
5.89
18.36
31.15
42.01
49.43
53.17
54.16
53.87
53.54
53.68
54.09
54.17
53.26
50.82
46.48
40.15
32.11
23.19
14.82
8.57
5.58
5.94
8.57
11.67
13.64
13.83
12.80
11.93
12.48
14.96
18.81
22.70
25.09
24.79
21.34
14.95
6.45
-3.03
-12.30
-20.43
-27.01
-32.17
-36.34
-39.87
-42.82
-45.01
-46.42
-47.52
-49.39
-53.34
-60.18
-69.70
-80.51
-90.61
-98.02
-101.52
-100.79
-96.35
-89.16
-80.28
-70.74
-61.37
-52.83
-45.53
-39.62
-35.01
-31.45
-28.69
-26.68
-25.60
-25.82
-27.67
-31.14
-35.83
-40.91
-45.41
-48.53
-49.85
-49.39
-47.41
-44.09
-39.30
-32.65
-23.71
-12.39
0.92
15.31
29.61
42.71
53.67
61.90
67.01
68.91
67.79
64.14
58.77
52.68
46.80
41.79
37.96
35.22
33.21
31.40
29.22
26.16
21.95
16.67
10.76
4.90
-0.19
-3.93
-6.04
-6.54
-5.79
-4.38
-3.12
-2.80
-3.99
-6.86
-10.99
-15.43
-18.98
-20.51
-19.32
-15.40
-9.42
-2.55
3.83
8.52
10.81
10.60
8.35
4.87
1.00
-2.53
-5.20
-6.64
-6.72
-5.54
-3.51
-1.31
0.41
1.16
0.91
-0.01
-1.08
-1.78
-1.80
-1.00
0.60
3.02
6.24
10.19
14.72
19.50
24.06
27.88
30.42
31.27
30.29
27.75
24.47
21.73
20.97
23.26
28.88
37.13
46.58
55.55
62.73
67.49
69.77
69.81
67.79
63.73
57.64
49.80
40.85
31.60
22.69
14.33
6.25
-2.06
-10.99
-20.63
-30.73
-40.88
-50.59
-59.28
-66.23
-70.49
-71.23
-67.99
-61.04
-51.36
-40.40
-29.59
-19.98
-12.07
-5.99
-1.70
0.83
1.60
0.70
-1.59
-4.81
-8.42
-11.91
-14.97
-17.54
-19.77
-22.02
-24.70
-28.11
-32.18
-36.35
-39.65
-40.95
-39.42
-34.92
-28.08
-20.17
-12.57
-6.34
-1.92
0.79
2.23
2.77
2.63
1.80
0.28
-1.86
-4.37
-7.06
-9.91
-13.16
-17.22
-22.36
-28.58
-35.50
-42.49
-48.87
-54.03
-57.42
-58.56
-57.06
-52.82
-46.27
-38.37
-30.43
-23.64
-18.65
-15.40
-13.35
-11.81
-10.24
-8.27
-5.67
-2.22
2.20
7.34
12.46
16.35
17.76
15.83
10.50
2.63
-6.21
-14.07
-19.11
-20.13
-16.80
-9.86
-0.88
8.21
15.76
20.81
23.37
24.12
24.07
24.04
24.46
25.29
26.26
27.09
27.56
27.41
26.30
23.79
19.47
13.22
5.43
-3.14
-11.48
-18.67
-24.04
-27.11
-27.63
-25.45
-20.67
-13.72
-5.42
3.22
11.23
17.89
22.81
25.80
26.77
25.65
22.55
17.85
12.37
7.20
3.44
1.82
2.43
4.62
7.18
8.61
7.68
3.84
-2.54
-10.17
-17.21
-21.78
-22.60
-19.35
-12.70
-4.05
4.95
12.92
19.06
23.09
25.10
25.31
23.92
21.17
17.37
13.00
8.57
4.42
0.58
-3.25
-7.54
-12.59
-18.29
-24.16
-29.54
-33.78
-36.49
-37.44
-36.49
-33.57
-28.70
-22.12
-14.48
-6.62
0.61
6.65
11.27
14.59
16.70
17.62
17.20
15.35
12.24
8.41
4.65
1.73
0.11
-0.30
-0.09
-0.12
-1.27
-4.05
-8.52
-14.14
-19.97
-24.81
-27.49
-27.18
-23.54
-16.91
-8.15
1.48
10.60
18.06
23.07
25.22
24.53
21.35
16.40
10.68
5.31
1.20
-1.28
-2.49
-3.36
-5.01
-8.19
-12.90
-18.43
-23.66
-27.59
-29.70
-30.04
-29.01
-27.05
-24.45
-21.39
-18.03
-14.68
-11.69
-9.34
-7.67
-6.47
-5.42
-4.36
-3.39
-2.79
-2.80
-3.36
-4.06
-4.32
-3.74
-2.40
-0.91
-0.17
-0.94
-3.44
-7.16
-11.01
-13.68
-14.12
-11.90
-7.30
-1.13
5.61
12.09
17.76
22.34
25.66
27.54
27.77
26.28
23.27
19.29
15.09
11.36
8.51
6.58
5.28
4.28
3.29
2.10
0.59
-1.39
-3.88
-6.70
-9.29
-10.84
-10.49
-7.73
-2.69
3.87
10.78
16.82
21.03
22.96
22.59
20.24
16.47
11.94
7.36
3.30
0.20
-1.81
-2.91
-3.51
-4.17
-5.42
-7.65
-10.94
-14.95
-18.99
-22.11
-23.38
-22.18
-18.36
-12.30
-4.74
3.33
10.91
17.05
20.93
22.04
20.32
16.35
11.34
6.80
4.06
3.72
5.38
7.79
9.41
9.00
5.99
0.46
-7.16
-16.44
-27.04
-38.48
-50.02
-60.57
-68.98
-74.38
-76.38
-74.63
-68.49
-56.98
-39.42
-16.76
7.45
27.33
36.46
30.74
10.82
-17.57
-45.53
-64.56
-69.87
-62.00
-45.96
-28.62
-15.72
-9.85
-10.25
-14.00
-17.78
-19.25
-17.42
-12.39
-4.69
5.12
16.40
28.12
38.66
46.00
48.26
44.46
35.08
22.09
8.37
-3.17
-10.46
-12.79
-10.83
-6.49
-2.15
0.06
-0.89
-4.47
-8.83
-11.47
-10.32
-4.63
4.70
15.58
25.65
33.22
37.82
39.94
40.49
40.15
39.04
36.87
33.44
28.97
24.21
20.06
17.15
15.46
14.36
12.82
9.90
5.05
-1.64
-9.53
-17.49
-24.10
-28.03
-28.38
-25.03
-18.77
-11.09
-3.71
1.95
5.14
5.78
4.26
1.23
-2.60
-6.42
-9.40
-10.82
-10.37
-8.29
-5.39
-2.80
-1.67
-2.76
-6.25
-11.61
-17.60
-22.50
-24.55
-22.54
-16.28
-6.73
4.30
14.84
23.39
29.21
32.28
32.95
31.69
28.97
25.30
21.28
17.56
14.63
12.57
11.08
9.48
6.98
2.94
-2.87
-10.04
-17.47
-23.60
-26.83
-26.08
-21.26
-13.32
-3.90
5.34
13.23
19.34
23.81
26.86
28.57
28.78
27.43
24.84
21.79
19.22
17.88
17.83
18.43
18.53
17.01
13.12
6.84
-1.09
-9.29
-16.01
-19.63
-19.04
-14.20
-6.08
3.54
12.81
20.37
25.67
28.92
30.54
30.81
29.69
27.03
23.02
18.36
14.13
11.33
10.38
10.89
11.83
11.95
10.31
6.53
0.82
-6.11
-13.24
-19.37
-23.29
-24.00
-21.04
-14.67
-5.89
3.87
13.12
20.76
26.24
29.50
30.70
30.12
28.06
24.96
21.43
18.17
15.78
14.55
14.27
14.34
13.93
12.30
9.03
4.08
-2.14
-8.85
-14.95
-19.20
-20.48
-18.14
-12.26
-3.76
5.84
14.92
22.23
27.21
29.86
30.48
29.34
26.59
22.35
17.04
11.43
6.46
2.81
0.61
-0.66
-1.95
-4.21
-7.97
-13.25
-19.53
-25.99
-31.55
-35.14
-35.87
-33.26
-27.52
-19.49
-10.47
-1.82
5.47
10.93
14.59
16.66
17.33
16.71
14.93
12.29
9.39
6.87
5.29
4.76
4.95
5.16
4.55
2.40
-1.62
-7.34
-13.97
-20.31
-24.92
-26.53
-24.50
-19.01
-11.06
-2.12
6.39
13.43
18.54
21.67
22.93
22.39
20.08
16.29
11.62
7.02
3.44
1.44
0.92
1.10
0.86
-0.88
-4.68
-10.43
-17.31
-23.94
-28.73
-30.33
-28.06
-22.18
-13.86
-4.83
3.36
9.82
14.48
17.83
20.36
22.18
22.99
22.42
20.47
17.66
14.86
12.83
11.82
11.52
11.27
10.44
8.66
5.88
2.30
-1.63
-5.15
-7.20
-6.54
-2.21
6.03
17.45
30.48
43.30
54.44
63.24
69.80
74.55
77.76
79.27
78.60
75.36
69.57
61.84
53.05
43.98
34.99
25.89
16.17
5.40
-6.51
-19.27
-32.39
-45.47
-58.20
-70.21
-80.80
-88.75
-92.70
-91.61
-85.41
-75.15
-62.79
-50.47
-39.86
-31.73
-26.05
-22.26
-19.70
-17.84
-16.27
-14.66
-12.77
-10.45
-7.82
-5.24
-3.24
-2.27
-2.54
-3.96
-6.16
-8.64
-10.96
-12.92
-14.66
-16.66
-19.54
-23.68
-28.78
-33.71
-36.65
-35.70
-29.72
-18.90
-4.84
10.03
23.46
33.99
41.23
45.52
47.46
47.51
46.03
43.44
40.33
37.44
35.27
33.93
33.13
32.37
31.23
29.54
27.37
24.82
21.95
18.63
14.72
10.01
4.29
-2.50
-10.03
-17.40
-23.21
-25.90
-24.42
-18.74
-10.04
-0.32
8.44
14.92
18.82
20.60
21.01
20.61
19.61
18.04
16.00
13.82
11.89
10.55
9.84
9.50
9.06
8.10
6.35
3.86
0.92
-2.05
-4.73
-7.16
-9.73
-13.00
-17.11
-21.46
-24.65
-24.93
-21.06
-13.01
-2.16
9.17
18.69
24.97
27.82
28.07
26.91
25.29
23.73
22.32
21.01
19.75
18.50
17.17
15.56
13.47
10.75
7.44
3.71
-0.11
-3.73
-6.97
-9.90
-12.82
-16.26
-20.70
-26.15
-31.89
-36.38
-37.79
-34.69
-26.84
-15.45
-2.86
8.31
16.11
19.84
20.06
18.03
15.10
12.17
9.59
7.36
5.35
3.49
1.80
0.29
-1.08
-2.38
-3.66
-4.94
-6.17
-7.35
-8.61
-10.32
-12.97
-17.02
-22.58
-29.04
-35.06
-38.84
-38.77
-34.15
-25.63
-15.07
-4.86
2.93
7.33
8.51
7.44
5.26
2.72
0.11
-2.58
-5.34
-7.91
-9.85
-10.81
-10.73
-9.96
-9.17
-9.05
-10.10
-12.48
-16.05
-20.48
-25.23
-29.57
-32.52
-32.97
-29.98
-23.27
-13.55
-2.44
7.96
15.82
20.26
21.50
20.51
18.49
16.27
14.20
12.33
10.66
9.33
8.51
8.13
7.75
6.70
4.38
0.53
-4.63
-10.61
-17.00
-23.60
-30.35
-36.90
-42.39
-45.53
-44.97
-40.04
-31.15
-19.85
-8.22
1.85
9.36
14.31
17.37
19.31
20.52
20.84
19.94
17.65
14.32
10.74
7.76
5.90
5.02
4.40
3.06
0.23
-4.40
-10.68
-18.19
-26.37
-34.56
-41.81
-46.92
-48.60
-46.03
-39.30
-29.62
-19.00
-9.52
-2.53
1.66
3.71
4.66
5.32
5.94
6.29
6.02
5.03
3.58
2.13
1.07
0.42
-0.19
-1.32
-3.48
-6.95
-11.78
-17.84
-24.73
-31.74
-37.66
-40.95
-40.22
-34.90
-25.66
-14.32
-3.17
5.97
12.34
16.31
18.82
20.60
21.78
22.02
20.94
18.61
15.64
12.89
10.92
9.73
8.83
7.54
5.37
2.20
-1.88
-6.80
-12.61
-19.40
-26.88
-34.04
-39.21
-40.50
-36.62
-27.57
-14.83
-0.89
11.71
21.21
27.06
29.72
30.15
29.24
27.55
25.34
22.81
20.17
17.72
15.64
13.94
12.46
10.92
9.03
6.64
3.71
0.28
-3.68
-8.33
-13.92
-20.47
-27.45
-33.57
-36.95
-35.82
-29.35
-18.14
-4.20
9.76
21.36
29.32
33.62
35.17
35.15
34.44
33.48
32.34
30.91
29.10
26.91
24.42
21.79
19.15
16.60
14.07
11.31
7.99
3.75
-1.71
-8.47
-16.28
-24.41
-31.55
-36.04
-36.26
-31.27
-21.35
-8.12
5.91
18.14
26.72
31.05
31.63
29.65
26.37
22.70
19.12
15.81
12.84
10.30
8.23
6.60
5.16
3.58
1.51
-1.24
-4.67
-8.66
-13.12
-18.07
-23.47
-28.96
-33.63
-36.09
-34.88
-29.16
-19.23
-6.67
6.14
16.82
23.73
26.45
25.56
22.23
17.63
12.63
7.72
3.19
-0.68
-3.62
-5.40
-6.08
-6.02
-5.85
-6.25
-7.71
-10.40
-14.22
-18.90
-24.05
-29.06
-32.98
-34.53
-32.45
-26.02
-15.56
-2.59
10.64
21.91
29.72
33.67
34.26
32.36
28.81
24.18
18.94
13.60
8.84
5.25
3.15
2.32
2.09
1.53
-0.21
-3.70
-9.09
-16.12
-24.13
-32.12
-38.82
-42.93
-43.40
-39.84
-32.64
-23.02
-12.62
-3.07
4.49
9.66
12.69
14.13
14.56
14.38
13.76
12.92
12.19
11.99
12.71
14.40
16.74
19.09
20.76
21.28
20.51
18.48
15.39
11.48
7.17
3.19
0.53
0.26
3.12
9.22
17.80
27.57
37.01
44.86
50.31
53.04
53.09
50.76
46.62
41.56
36.89
34.00
34.00
37.12
42.36
47.59
50.21
48.11
40.39
27.75
12.15
-3.89
-17.94
-28.24
-33.81
-34.46
-30.72
-23.67
-14.81
-5.77
2.02
7.59
10.45
10.60
8.38
4.42
-0.36
-4.91
-8.26
-9.82
-9.70
-8.70
-8.04
-8.97
-12.37
-18.57
-27.32
-37.86
-48.96
-58.94
-65.95
-68.31
-65.08
-56.53
-44.13
-30.17
-17.05
-6.49
0.80
5.07
7.03
7.38
6.52
4.63
1.97
-0.94
-3.41
-4.81
-5.02
-4.54
-4.30
-5.37
-8.49
-13.86
-21.07
-29.12
-36.63
-42.00
-43.81
-41.22
-34.33
-24.21
-12.57
-1.14
8.87
16.94
23.05
27.26
29.46
29.47
27.30
23.50
19.09
15.17
12.50
11.10
10.36
9.27
6.87
2.50
-4.04
-12.50
-22.09
-31.51
-39.12
-43.28
-42.87
-37.73
-28.76
-17.67
-6.41
3.48
11.22
16.72
20.27
22.12
22.25
20.58
17.26
12.90
8.47
5.02
3.12
2.65
2.81
2.53
0.91
-2.47
-7.56
-13.99
-21.12
-28.11
-33.76
-36.72
-35.83
-30.65
-21.70
-10.42
1.35
12.04
20.76
27.35
32.04
35.11
36.71
36.92
35.98
34.36
32.54
30.84
29.24
27.46
25.13
22.09
18.45
14.48
10.45
6.44
2.35
-2.13
-7.33
-13.54
-20.72
-28.27
-35.07
-39.54
-40.22
-36.28
-27.99
-16.67
-4.23
7.53
17.53
25.49
31.68
36.36
39.51
40.86
40.25
37.99
34.83
31.80
29.63
28.52
28.01
27.32
25.70
22.81
18.78
14.09
9.28
4.75
0.67
-3.07
-6.71
-10.58
-15.08
-20.62
-27.40
-35.23
-43.25
-49.99
-53.64
-52.74
-46.79
-36.58
-23.85
-10.71
1.25
11.32
19.62
26.55
32.25
36.44
38.71
38.91
37.51
35.50
33.88
33.26
33.44
33.67
32.99
30.75
26.91
22.03
16.94
12.36
8.62
5.51
2.52
-0.90
-5.09
-10.09
-15.68
-21.53
-27.18
-31.99
-35.09
-35.53
-32.61
-26.24
-17.13
-6.62
3.79
12.88
20.07
25.28
28.73
30.60
31.01
30.13
28.31
26.14
24.20
22.81
21.87
20.92
19.42
17.06
13.95
10.47
7.10
4.09
1.35
-1.48
-4.88
-9.18
-14.55
-20.84
-27.57
-33.85
-38.48
-40.22
-38.22
-32.44
-23.79
-13.82
-4.16
4.05
10.46
15.31
19.03
21.86
23.68
24.31
23.72
22.26
20.47
18.79
17.30
15.66
13.36
9.96
5.48
0.38
-4.59
-8.76
-11.83
-13.97
-15.75
-17.88
-20.98
-25.34
-30.83
-36.86
-42.41
-46.17
-46.88
-43.83
-37.13
-27.85
-17.61
-8.01
0.02
6.42
11.74
16.55
21.00
24.62
26.74
26.96
25.55
23.41
21.62
20.85
21.05
21.46
21.05
19.09
15.45
10.69
5.77
1.46
-1.93
-4.67
-7.43
-10.85
-15.30
-20.75
-26.91
-33.31
-39.37
-44.33
-47.25
-47.17
-43.53
-36.54
-27.17
-16.95
-7.25
1.13
8.17
14.29
19.80
24.54
27.97
29.53
29.16
27.47
25.48
24.10
23.65
23.75
23.51
22.09
19.14
14.96
10.32
6.08
2.70
0.11
-2.25
-5.11
-9.06
-14.37
-20.93
-28.35
-36.02
-43.13
-48.61
-51.26
-50.09
-44.75
-35.82
-24.78
-13.54
-3.78
3.62
8.65
11.92
14.10
15.51
16.15
15.93
14.97
13.73
12.75
12.33
12.27
11.98
10.82
8.50
5.24
1.70
-1.48
-4.03
-6.17
-8.49
-11.67
-16.15
-22.02
-29.02
-36.47
-43.34
-48.29
-49.97
-47.41
-40.51
-30.23
-18.36
-6.94
2.46
9.12
13.23
15.44
16.38
16.41
15.61
14.06
12.05
10.06
8.56
7.73
7.34
6.87
5.81
3.91
1.28
-1.75
-4.87
-8.02
-11.39
-15.33
-20.17
-26.04
-32.73
-39.55
-45.39
-48.84
-48.60
-43.89
-34.85
-22.65
-9.15
3.62
14.08
21.43
25.74
27.68
28.23
28.33
28.66
29.47
30.48
31.11
30.71
28.98
26.15
22.91
20.18
18.71
18.86
20.48
22.93
25.11
25.61
22.98
16.37
6.38
-4.36
-11.38
-9.66
4.43
31.18
66.87
104.61
136.71
157.43
164.69
160.28
148.36
133.26
117.78
102.80
88.04
73.28
59.22
47.36
39.08
34.71
33.12
32.15
29.69
24.66
17.37
9.05
1.06
-5.91
-12.12
-18.46
-25.88
-34.82
-45.09
-55.95
-66.46
-75.70
-83.01
-87.97
-90.55
-91.09
-90.31
-89.12
-88.30
-88.32
-89.16
-90.48
-91.87
-93.16
-94.43
-95.96
-97.92
-100.26
-102.73
-105.11
-107.20
-108.78
-109.40
-108.32
-104.75
-98.25
-89.17
-78.74
-68.73
-60.84
-56.02
-54.07
-53.69
-52.96
-50.02
-43.67
-33.71
-20.96
-6.92
6.87
19.28
29.91
38.98
46.88
53.69
59.06
62.45
63.55
62.62
60.52
58.32
56.83
56.18
55.78
54.57
51.53
46.07
38.18
28.43
17.64
6.69
-3.64
-12.59
-19.40
-23.27
-23.63
-20.41
-14.31
-6.68
0.80
6.74
10.46
12.16
12.43
11.78
10.14
7.04
2.23
-3.64
-8.78
-10.87
-8.21
-0.68
9.89
20.51
28.35
31.94
31.47
28.27
23.65
18.23
11.83
4.24
-3.95
-11.02
-14.62
-12.78
-5.00
7.37
21.56
34.39
43.40
47.68
47.84
45.47
42.32
39.54
37.50
35.90
34.28
32.30
29.94
27.34
24.56
21.50
17.89
13.52
8.49
3.19
-1.76
-5.87
-9.03
-11.63
-14.41
-18.06
-22.78
-27.92
-32.12
-33.66
-31.22
-24.42
-14.13
-2.13
9.55
19.31
26.40
30.90
33.30
34.11
33.59
31.88
29.14
25.81
22.50
19.76
17.74
16.11
14.18
11.26
6.97
1.46
-4.72
-10.83
-16.30
-20.97
-25.11
-29.31
-34.17
-39.98
-46.35
-52.23
-56.00
-56.09
-51.54
-42.57
-30.58
-17.74
-6.22
2.50
8.03
10.86
11.92
11.98
11.48
10.49
9.06
7.37
5.70
4.30
3.17
2.03
0.47
-1.79
-4.79
-8.22
-11.69
-14.94
-18.07
-21.51
-25.74
-30.89
-36.34
-40.77
-42.52
-40.34
-34.05
-24.77
-14.56
-5.61
0.66
4.04
5.25
5.33
4.83
3.55
0.81
-3.92
-10.42
-17.59
-23.94
-28.32
-30.62
-31.87
-33.84
-38.18
-45.72
-56.03
-67.83
-79.45
-89.42
-96.69
-100.67
-101.14
-98.52
-94.42
-91.81
-94.39
-104.97
-123.64
-146.77
-167.78
-179.49
-177.04
-159.66
-130.57
-94.92
-57.19
-19.38
18.99
59.35
102.03
145.14
184.83
216.79
237.85
247.10
245.57
235.31
218.33
195.94
169.09
139.21
108.79
81.29
60.17
47.52
43.14
44.57
48.12
50.32
49.12
44.16
36.39
27.20
17.74
8.70
0.47
-6.61
-12.01
-15.18
-15.81
-14.02
-10.41
-5.87
-1.32
2.44
4.76
5.11
3.10
-1.26
-7.33
-13.72
-18.57
-20.10
-17.38
-10.75
-1.79
7.35
14.73
19.31
21.09
20.72
19.05
16.67
13.83
10.64
7.27
3.96
1.00
-1.51
-3.68
-5.84
-8.30
-11.30
-14.85
-18.82
-23.05
-27.46
-32.14
-37.18
-42.49
-47.59
-51.58
-53.37
-52.12
-47.68
-40.71
-32.55
-24.68
-18.23
-13.66
-10.92
-9.58
-9.18
-9.24
-9.14
-8.12
-5.30
-0.04
7.82
17.80
28.94
40.18
50.64
59.82
67.51
73.56
77.73
79.69
79.11
75.90
70.26
62.76
54.19
45.34
36.79
28.84
21.57
14.93
8.92
3.71
-0.42
-3.20
-4.39
-3.88
-1.67
2.09
7.16
13.04
19.10
24.65
29.18
32.50
34.75
36.23
37.15
37.43
36.91
35.54
33.79
32.69
33.61
37.62
45.03
55.03
65.91
75.71
82.88
86.75
87.62
86.33
83.74
80.33
76.17
71.06
64.86
57.65
49.76
41.56
33.28
24.96
16.48
7.69
-1.42
-10.82
-20.50
-30.61
-41.30
-52.45
-63.37
-72.75
-78.99
-80.82
-77.86
-70.90
-61.64
-52.13
-44.16
-38.78
-36.34
-36.58
-38.99
-42.91
-47.64
-52.48
-56.79
-60.05
-61.98
-62.51
-61.73
-59.83
-57.01
-53.47
-49.35
-44.83
-40.21
-35.95
-32.70
-30.99
-30.93
-31.92
-32.71
-31.75
-27.87
-20.82
-11.41
-1.24
7.99
15.05
19.52
21.68
22.14
21.52
20.28
18.78
17.37
16.41
16.10
16.38
16.95
17.32
17.04
15.82
13.62
10.62
7.10
3.34
-0.51
-4.41
-8.33
-12.04
-15.03
-16.49
-15.65
-12.15
-6.41
0.46
6.98
11.93
14.71
15.51
14.93
13.63
12.01
10.23
8.31
6.33
4.33
2.29
-0.03
-2.99
-6.82
-11.40
-16.29
-20.87
-24.72
-27.88
-30.87
-34.36
-38.78
-43.86
-48.60
-51.57
-51.54
-48.13
-42.05
-34.96
-28.78
-24.92
-23.76
-24.57
-26.09
-27.19
-27.51
-27.64
-28.82
-32.51
-39.77
-50.87
-64.93
-79.92
-92.95
-100.98
-101.68
-94.35
-80.16
-61.95
-43.26
-27.19
-15.43
-7.87
-2.97
1.43
7.17
15.06
24.68
34.80
44.06
51.62
57.37
61.75
65.26
68.06
69.87
70.31
69.28
67.17
64.68
62.46
60.68
58.98
56.71
53.36
48.94
43.95
39.13
35.05
31.87
29.35
27.15
25.11
23.41
22.38
22.32
23.21
24.77
26.54
28.16
29.39
30.08
30.02
28.92
26.52
22.77
18.05
13.04
8.57
5.24
3.22
2.23
1.67
0.83
-0.88
-3.84
-8.10
-13.35
-18.95
-23.90
-27.12
-27.73
-25.35
-20.38
-13.80
-6.93
-0.88
3.72
6.79
8.60
9.42
9.45
8.71
7.28
5.37
3.39
1.78
0.81
0.48
0.46
0.26
-0.61
-2.49
-5.48
-9.50
-14.26
-19.33
-24.08
-27.78
-29.65
-29.09
-25.94
-20.59
-13.97
-7.18
-1.20
3.46
6.80
9.12
10.70
11.66
11.88
11.23
9.76
7.81
5.89
4.45
3.64
3.23
2.75
1.65
-0.42
-3.58
-7.69
-12.58
-17.98
-23.46
-28.36
-31.76
-32.72
-30.63
-25.59
-18.43
-10.47
-3.00
3.12
7.70
10.97
13.31
14.98
16.05
16.53
16.52
16.19
15.75
15.21
14.47
13.33
11.70
9.66
7.42
5.16
2.91
0.52
-2.29
-5.83
-10.28
-15.61
-21.49
-27.17
-31.65
-33.79
-32.71
-28.14
-20.67
-11.52
-2.23
5.90
12.16
16.52
19.35
21.17
22.27
22.77
22.75
22.33
21.75
21.21
20.70
19.99
18.68
16.52
13.52
10.01
6.47
3.24
0.39
-2.32
-5.29
-8.88
-13.28
-18.47
-24.15
-29.73
-34.36
-37.03
-36.90
-33.61
-27.49
-19.61
-11.37
-4.05
1.62
5.58
8.26
10.20
11.79
13.13
14.21
14.99
15.60
16.16
16.72
17.18
17.25
16.65
15.22
13.00
10.18
7.02
3.73
0.34
-3.25
-7.30
-11.99
-17.25
-22.55
-26.91
-29.08
-28.03
-23.45
-15.92
-6.82
2.16
9.66
14.98
18.17
19.71
20.20
20.03
19.47
18.67
17.90
17.42
17.41
17.83
18.40
18.75
18.60
17.87
16.63
15.00
12.99
10.48
7.13
2.51
-3.70
-11.53
-20.46
-29.39
-36.84
-41.37
-42.08
-39.00
-33.07
-25.76
-18.50
-12.28
-7.47
-4.04
-1.80
-0.61
-0.44
-1.18
-2.57
-4.14
-5.40
-5.98
-5.81
-5.11
-4.26
-3.74
-3.89
-4.92
-6.92
-9.89
-13.65
-17.83
-21.71
-24.33
-24.72
-22.21
-16.79
-9.20
-0.71
7.29
13.75
18.22
20.82
22.00
22.18
21.64
20.50
18.82
16.78
14.72
12.95
11.65
10.70
9.73
8.25
5.93
2.63
-1.52
-6.32
-11.60
-17.16
-22.64
-27.35
-30.31
-30.55
-27.60
-21.72
-13.97
-5.81
1.49
7.14
11.07
13.59
15.08
15.73
15.51
14.39
12.49
10.20
8.01
6.34
5.30
4.72
4.16
3.17
1.35
-1.55
-5.63
-10.81
-16.76
-22.83
-28.08
-31.43
-31.99
-29.40
-24.08
-17.08
-9.77
-3.34
1.55
4.89
7.00
8.31
8.97
8.94
8.11
6.58
4.69
2.98
1.87
1.43
1.30
0.91
-0.25
-2.44
-5.64
-9.64
-14.25
-19.18
-24.01
-28.03
-30.34
-30.14
-27.15
-21.74
-14.87
-7.73
-1.29
3.97
8.02
11.11
13.43
14.99
15.68
15.42
14.34
12.73
11.03
9.56
8.49
7.68
6.82
5.54
3.55
0.75
-2.88
-7.28
-12.31
-17.66
-22.73
-26.61
-28.34
-27.23
-23.19
-16.87
-9.45
-2.23
3.79
8.21
11.15
13.03
14.28
15.16
15.73
15.93
15.71
15.01
13.88
12.40
10.69
8.84
6.95
5.03
3.05
0.98
-1.26
-3.80
-6.84
-10.65
-15.30
-20.44
-25.24
-28.45
-28.85
-25.79
-19.56
-11.33
-2.73
4.83
10.61
14.72
17.72
20.23
22.52
24.52
26.01
26.95
27.57
28.18
29.03
30.06
31.05
31.70
31.94
31.98
32.08
32.35
32.40
31.33
28.01
21.43
11.25
-1.86
-16.22
-29.48
-39.22
-43.78
-42.67
-36.81
-28.10
-18.81
-10.74
-4.93
-1.51
-0.03
0.11
-0.58
-1.74
-3.13
-4.54
-5.78
-6.74
-7.42
-7.97
-8.55
-9.24
-9.94
-10.41
-10.38
-9.62
-8.19
-6.47
-5.18
-5.16
-7.08
-10.99
-16.16
-21.18
-24.42
-24.65
-21.48
-15.56
-8.22
-0.94
5.19
9.73
12.83
14.90
16.33
17.30
17.80
17.81
17.43
16.85
16.27
15.70
14.93
13.53
11.10
7.49
2.90
-2.13
-7.01
-11.33
-15.12
-18.74
-22.64
-26.92
-31.17
-34.43
-35.61
-34.01
-29.67
-23.39
-16.40
-9.82
-4.25
0.30
4.15
7.52
10.33
12.27
13.01
12.50
11.08
9.30
7.64
6.30
5.21
4.06
2.56
0.52
-2.08
-5.19
-8.78
-12.86
-17.45
-22.35
-27.05
-30.61
-32.02
-30.41
-25.56
-18.00
-8.89
0.38
8.69
15.48
20.76
24.82
27.96
30.33
31.90
32.67
32.76
32.40
31.85
31.30
30.81
30.28
29.61
28.67
27.34
25.48
22.95
19.58
15.16
9.69
3.38
-3.15
-8.90
-12.72
-13.55
-10.91
-5.00
3.19
12.24
20.71
27.57
32.41
35.33
36.73
36.99
36.31
34.74
32.33
29.22
25.66
21.97
18.36
14.89
11.52
8.14
4.75
1.38
-1.96
-5.36
-9.07
-13.50
-19.03
-25.83
-33.62
-41.54
-48.26
-52.23
-52.27
-47.97
-40.00
-29.86
-19.39
-10.05
-2.55
3.14
7.46
10.90
13.65
15.69
16.98
17.61
17.86
18.04
18.31
18.53
18.42
17.65
16.03
13.62
10.69
7.53
4.36
1.15
-2.39
-6.68
-12.04
-18.37
-24.99
-30.67
-33.99
-33.84
-29.87
-22.68
-13.56
-4.09
4.43
11.21
16.08
19.21
20.90
21.39
20.92
19.79
18.40
17.20
16.45
16.12
15.87
15.17
13.58
10.96
7.46
3.53
-0.35
-3.91
-7.18
-10.55
-14.58
-19.67
-25.76
-32.12
-37.49
-40.41
-39.79
-35.32
-27.64
-18.09
-8.25
0.57
7.65
12.79
16.23
18.29
19.31
19.53
19.15
18.37
17.33
16.19
15.00
13.75
12.35
10.67
8.58
5.96
2.81
-0.80
-4.83
-9.29
-14.32
-20.07
-26.39
-32.72
-37.92
-40.66
-39.80
-34.96
-26.77
-16.66
-6.33
2.74
9.82
14.89
18.39
20.83
22.54
23.66
24.25
24.44
24.45
24.51
24.69
24.82
24.43
22.91
19.72
14.59
7.62
-0.81
-10.25
-20.33
-30.81
-41.39
-51.54
-60.32
-66.60
-69.43
-68.44
-64.06
-57.36
-49.62
-41.88
-34.71
-28.27
-22.57
-17.63
-13.63
-10.74
-9.03
-8.38
-8.53
-9.13
-9.88
-10.54
-11.01
-11.26
-11.40
-11.57
-12.02
-13.03
-14.90
-17.81
-21.74
-26.32
-30.69
-33.67
-33.94
-30.55
-23.23
-12.65
-0.24
12.17
22.97
31.15
36.53
39.54
40.94
41.48
41.63
41.64
41.59
41.53
41.52
41.59
41.71
41.66
41.12
39.71
37.12
33.26
28.27
22.40
15.90
8.91
1.58
-5.75
-12.38
-17.27
-19.26
-17.56
-12.17
-4.01
5.31
14.05
20.98
25.62
28.29
29.72
30.59
31.28
31.89
32.33
32.54
32.60
32.59
32.52
32.24
31.52
30.13
28.04
25.42
22.57
19.78
17.17
14.61
11.73
8.05
3.27
-2.49
-8.56
-13.75
-16.76
-16.57
-12.94
-6.52
1.31
9.04
15.44
20.01
22.88
24.48
25.22
25.21
24.35
22.51
19.83
16.76
13.85
11.54
9.86
8.45
6.73
4.16
0.52
-4.14
-9.64
-15.84
-22.72
-30.25
-38.06
-45.34
-50.85
-53.26
-51.72
-46.25
-37.86
-28.22
-19.05
-11.49
-5.83
-1.69
1.59
4.36
6.58
7.95
8.24
7.57
6.47
5.56
5.20
5.35
5.57
5.37
4.42
2.69
0.29
-2.70
-6.39
-10.94
-16.33
-22.07
-27.11
-30.19
-30.24
-26.89
-20.67
-12.80
-4.72
2.43
8.08
12.25
15.28
17.45
18.92
19.59
19.39
18.38
16.83
15.14
13.66
12.52
11.55
10.41
8.73
6.26
2.98
-0.98
-5.51
-10.57
-16.21
-22.35
-28.54
-33.88
-37.15
-37.25
-33.70
-26.82
-17.78
-8.11
0.82
8.23
13.96
18.33
21.70
24.25
25.92
26.55
26.12
24.83
23.07
21.26
19.63
18.17
16.67
14.84
12.48
9.49
5.88
1.64
-3.30
-9.00
-15.44
-22.26
-28.72
-33.67
-35.96
-34.78
-29.99
-22.32
-13.04
-3.57
5.03
12.22
17.98
22.54
26.08
28.58
29.93
30.11
29.25
27.69
25.87
24.07
22.38
20.60
18.43
15.57
11.86
7.38
2.37
-2.97
-8.57
-14.52
-20.92
-27.51
-33.50
-37.70
-38.90
-36.46
-30.68
-22.72
-14.12
-6.20
0.40
5.73
10.13
13.86
16.83
18.66
19.03
17.96
15.85
13.36
11.09
9.36
8.11
6.97
5.53
3.48
0.73
-2.77
-7.03
-12.14
-18.04
-24.36
-30.27
-34.55
-36.03
-34.03
-28.71
-21.11
-12.69
-4.83
1.71
6.76
10.64
13.69
15.95
17.21
17.20
15.85
13.47
10.64
7.93
5.61
3.57
1.40
-1.33
-4.88
-9.30
-14.52
-20.43
-26.91
-33.63
-39.92
-44.74
-47.00
-45.94
-41.53
-34.54
-26.19
-17.74
-9.99
-3.16
2.88
8.28
12.91
16.46
18.55
19.12
18.53
17.46
16.62
16.40
16.81
17.45
17.81
17.48
16.26
14.16
11.25
7.51
2.97
-2.18
-7.45
-11.97
-14.69
-14.77
-11.90
-6.45
0.61
8.12
15.10
20.98
25.67
29.28
31.95
33.67
34.35
33.95
32.58
30.53
28.20
25.89
23.75
21.67
19.41
16.73
13.56
9.96
6.12
2.15
-1.97
-6.48
-11.60
-17.32
-23.18
-28.28
-31.49
-31.90
-29.18
-23.73
-16.52
-8.75
-1.41
4.93
10.12
14.23
17.38
19.52
20.52
20.26
18.86
16.65
14.16
11.92
10.30
9.34
8.79
8.24
7.31
5.76
3.55
0.74
-2.65
-6.72
-11.64
-17.54
-24.20
-30.95
-36.66
-40.09
-40.23
-36.71
-29.99
-21.14
-11.51
-2.29
5.80
12.54
17.99
22.27
25.34
27.11
27.54
26.76
25.20
23.31
21.46
19.68
17.78
15.39
12.29
8.43
4.03
-0.69
-5.63
-10.90
-16.71
-23.04
-29.41
-34.75
-37.72
-37.16
-32.65
-24.77
-14.94
-4.88
3.99
11.03
16.34
20.45
23.82
26.57
28.42
29.00
28.20
26.27
23.74
21.19
18.99
17.12
15.31
13.18
10.45
7.02
2.88
-1.94
-7.49
-13.82
-20.81
-27.92
-34.17
-38.28
-39.14
-36.22
-29.82
-21.04
-11.29
-1.88
6.39
13.26
18.77
22.97
25.77
26.96
26.51
24.72
22.17
19.56
17.37
15.63
13.99
11.96
9.19
5.74
2.00
-1.54
-4.57
-7.17
-9.77
-12.99
-17.33
-23.02
-29.84
-37.15
-43.94
-49.00
-51.25
-50.10
-45.71
-38.97
-31.23
-23.79
-17.41
-12.24
-8.00
-4.41
-1.47
0.51
1.21
0.55
-1.05
-2.92
-4.39
-5.12
-5.21
-5.09
-5.27
-6.03
-7.38
-9.12
-10.99
-12.88
-14.92
-17.44
-20.69
-24.68
-28.85
-32.20
-33.50
-31.74
-26.59
-18.54
-8.78
1.17
10.02
17.04
22.15
25.79
28.54
30.89
33.14
35.42
37.77
40.21
42.65
44.86
46.46
47.00
46.19
44.01
40.76
36.91
32.91
29.01
25.19
21.22
16.82
11.75
5.97
-0.34
-6.65
-12.20
-16.12
-17.70
-16.66
-13.25
-8.18
-2.29
3.71
9.46
14.87
19.93
24.50
28.30
30.99
32.39
32.59
31.95
30.94
29.88
28.84
27.68
26.11
23.97
21.23
18.07
14.75
11.49
8.29
5.02
1.41
-2.82
-7.85
-13.68
-20.03
-26.34
-31.81
-35.49
-36.60
-34.75
-30.17
-23.60
-16.07
-8.51
-1.54
4.58
9.78
13.96
16.96
18.61
18.98
18.40
17.51
16.92
16.96
17.53
18.21
18.42
17.75
16.16
13.91
11.49
9.29
7.48
5.95
4.34
2.21
-0.91
-5.31
-11.09
-17.99
-25.28
-31.86
-36.41
-37.89
-35.89
-30.90
-24.15
-17.15
-11.16
-6.85
-4.23
-2.99
-2.77
-3.34
-4.59
-6.36
-8.39
-10.35
-12.05
-13.53
-15.08
-17.08
-19.77
-23.13
-26.84
-30.46
-33.61
-36.16
-38.30
-40.43
-42.87
-45.53
-47.75
-48.42
-46.36
-40.93
-32.34
-21.77
-10.82
-1.03
6.69
12.16
15.81
18.19
19.73
20.65
21.03
20.98
20.67
20.30
19.93
19.45
18.62
17.17
14.99
12.14
8.86
5.46
2.12
-1.20
-4.80
-9.07
-14.24
-20.04
-25.61
-29.65
-30.81
-28.31
-22.28
-13.79
-4.48
4.00
10.52
14.72
16.86
17.59
17.54
17.13
16.53
15.79
14.91
13.89
12.73
11.39
9.72
7.59
4.92
1.82
-1.48
-4.72
-7.79
-10.92
-14.58
-19.19
-24.79
-30.64
-35.34
-37.26
-35.24
-29.19
-20.22
-10.26
-1.34
5.22
9.03
10.60
10.78
10.31
9.50
8.32
6.67
4.56
2.22
-0.02
-1.84
-3.14
-4.02
-4.76
-5.78
-7.46
-10.15
-14.09
-19.32
-25.54
-32.05
-37.73
-41.27
-41.56
-38.12
-31.42
-22.74
-13.78
-6.00
-0.21
3.58
5.89
7.34
8.23
8.51
7.99
6.56
4.45
2.11
0.04
-1.46
-2.46
-3.29
-4.42
-6.29
-9.15
-13.11
-18.11
-23.87
-29.80
-34.94
-38.11
-38.16
-34.52
-27.41
-17.96
-7.83
1.36
8.57
13.57
16.74
18.70
19.84
20.22
19.70
18.21
16.05
13.80
12.12
11.32
11.24
11.19
10.35
8.09
4.18
-1.18
-7.58
-14.54
-21.46
-27.51
-31.62
-32.64
-29.76
-22.95
-13.24
-2.39
7.70
15.69
21.21
24.71
27.06
28.96
30.59
31.63
31.64
30.34
27.90
24.80
21.66
18.85
16.42
14.03
11.26
7.72
3.27
-2.05
-8.15
-14.90
-21.97
-28.70
-34.00
-36.51
-35.16
-29.62
-20.68
-9.97
0.58
9.52
16.29
21.19
24.88
27.85
30.14
31.41
31.38
30.06
27.91
25.57
23.56
22.00
20.64
19.03
16.76
13.65
9.70
4.94
-0.62
-7.01
-14.06
-21.12
-27.04
-30.36
-29.86
-25.12
-16.79
-6.48
3.86
12.60
18.94
22.98
25.37
26.77
27.53
27.61
26.82
25.10
22.69
19.98
17.32
14.87
12.51
9.96
6.95
3.31
-1.01
-6.05
-11.89
-18.52
-25.67
-32.60
-38.08
-40.68
-39.33
-33.80
-24.93
-14.35
-3.95
4.84
11.45
16.09
19.34
21.69
23.22
23.72
22.97
21.09
18.63
16.33
14.77
13.97
13.50
12.56
10.46
6.91
2.03
-3.83
-10.33
-17.11
-23.70
-29.29
-32.75
-32.92
-29.13
-21.61
-11.59
-0.91
8.68
16.06
21.03
24.03
25.72
26.53
26.58
25.76
24.08
21.73
19.07
16.46
14.07
11.78
9.33
6.42
2.88
-1.27
-5.99
-11.31
-17.37
-24.28
-31.90
-39.53
-45.96
-49.74
-49.70
-45.50
-37.85
-28.23
-18.44
-9.94
-3.40
1.28
4.68
7.39
9.74
11.71
13.12
13.82
13.90
13.64
13.42
13.49
13.93
14.63
15.33
15.81
15.91
15.56
14.68
13.15
10.82
7.76
4.37
1.62
0.81
3.19
9.38
18.98
30.54
42.06
51.73
58.50
62.41
64.30
65.18
65.74
66.10
65.92
64.79
62.52
59.30
55.49
51.42
47.27
42.98
38.39
33.39
27.98
22.28
16.41
10.40
4.11
-2.72
-10.24
-18.24
-25.96
-32.19
-35.64
-35.50
-31.85
-25.71
-18.66
-12.17
-7.09
-3.52
-0.99
0.96
2.49
3.40
3.38
2.34
0.52
-1.54
-3.26
-4.37
-4.94
-5.42
-6.35
-8.19
-11.10
-14.99
-19.63
-24.81
-30.31
-35.80
-40.74
-44.27
-45.47
-43.73
-39.05
-32.18
-24.30
-16.56
-9.67
-3.79
1.22
5.45
8.69
10.57
10.82
9.57
7.37
5.01
3.14
2.00
1.39
0.85
-0.10
-1.81
-4.44
-8.05
-12.62
-17.98
-23.71
-29.05
-33.02
-34.65
-33.33
-29.08
-22.54
-14.79
-6.94
0.15
6.02
10.60
14.03
16.42
17.81
18.27
17.86
16.78
15.33
13.75
12.17
10.56
8.78
6.65
4.12
1.21
-2.01
-5.54
-9.53
-14.17
-19.52
-25.25
-30.55
-34.24
-35.21
-32.82
-27.21
-19.31
-10.44
-1.86
5.62
11.68
16.38
19.86
22.17
23.33
23.40
22.58
21.21
19.62
18.03
16.44
14.74
12.74
10.35
7.56
4.48
1.23
-2.12
-5.64
-9.50
-13.90
-18.95
-24.36
-29.46
-33.26
-34.75
-33.26
-28.80
-22.01
-13.99
-5.92
1.34
7.36
12.10
15.70
18.31
19.99
20.77
20.73
20.08
19.07
17.88
16.62
15.26
13.71
11.95
10.01
7.99
5.96
3.84
1.40
-1.67
-5.71
-10.89
-17.12
-23.90
-30.30
-35.18
-37.46
-36.50
-32.40
-25.95
-18.38
-10.90
-4.33
1.07
5.42
8.97
11.81
13.83
14.89
14.97
14.32
13.33
12.37
11.58
10.78
9.67
7.92
5.39
2.21
-1.39
-5.16
-8.99
-13.01
-17.43
-22.37
-27.61
-32.48
-35.98
-37.08
-35.14
-30.32
-23.47
-15.89
-8.79
-2.89
1.67
5.12
7.71
9.45
10.17
9.65
7.93
5.38
2.55
-0.09
-2.28
-4.15
-5.96
-8.01
-10.48
-13.35
-16.56
-20.09
-24.00
-28.30
-32.82
-37.10
-40.43
-42.04
-41.42
-38.43
-33.38
-26.88
-19.62
-12.17
-4.94
1.79
7.83
12.94
16.94
19.66
21.14
21.60
21.52
21.40
21.67
22.45
23.47
24.18
23.98
22.45
19.55
15.54
10.80
5.60
0.02
-5.83
-11.57
-16.38
-19.13
-18.83
-15.11
-8.55
-0.48
7.48
14.04
18.68
21.57
23.26
24.19
24.56
24.27
23.23
21.50
19.39
17.25
15.30
13.44
11.36
8.68
5.16
0.91
-3.75
-8.39
-12.79
-17.07
-21.63
-26.81
-32.52
-37.99
-41.87
-42.65
-39.31
-31.79
-21.09
-8.96
2.72
12.61
20.14
25.55
29.44
32.38
34.64
36.17
36.85
36.61
35.61
34.13
32.41
30.54
28.42
25.88
22.81
19.28
15.47
11.57
7.58
3.24
-1.89
-8.19
-15.65
-23.55
-30.50
-34.84
-35.19
-31.15
-23.52
-14.11
-5.09
1.82
5.92
7.51
7.57
7.08
6.62
6.24
5.70
4.73
3.32
1.69
0.13
-1.22
-2.49
-3.99
-6.04
-8.79
-12.23
-16.22
-20.74
-25.92
-31.94
-38.70
-45.49
-51.00
-53.54
-51.74
-45.14
-34.56
-21.86
-9.32
1.19
8.79
13.58
16.33
17.93
18.88
19.32
19.13
18.32
17.12
15.90
14.98
14.43
13.96
13.17
11.67
9.28
5.99
1.88
-3.08
-8.91
-15.41
-21.96
-27.36
-30.11
-28.92
-23.33
-13.99
-2.56
8.91
18.64
25.69
30.04
32.31
33.29
33.53
33.25
32.46
31.18
29.59
27.93
26.42
25.11
23.82
22.23
20.01
16.99
13.15
8.58
3.30
-2.75
-9.63
-17.17
-24.60
-30.61
-33.58
-32.20
-26.09
-16.05
-3.93
8.07
18.11
25.21
29.35
31.13
31.33
30.53
29.05
27.07
24.70
22.16
19.66
17.34
15.19
13.00
10.55
7.65
4.28
0.56
-3.39
-7.58
-12.18
-17.41
-23.21
-28.97
-33.51
-35.36
-33.31
-27.02
-17.26
-5.78
5.33
14.34
20.38
23.55
24.58
24.34
23.52
22.44
21.19
19.82
18.43
17.12
15.92
14.66
13.07
10.86
7.93
4.34
0.34
-3.91
-8.44
-13.52
-19.44
-26.16
-32.98
-38.52
-41.14
-39.54
-33.47
-23.93
-12.85
-2.47
5.58
10.67
13.13
13.86
13.69
13.07
12.01
10.39
8.19
5.66
3.25
1.33
0.06
-0.79
-1.69
-3.12
-5.43
-8.77
-13.07
-18.20
-23.84
-29.39
-33.89
-36.09
-34.87
-29.72
-21.12
-10.53
0.09
9.02
15.32
19.02
20.77
21.39
21.30
20.56
19.04
16.70
13.85
11.02
8.69
7.04
5.91
4.82
3.29
0.96
-2.37
-6.78
-12.28
-18.73
-25.59
-31.83
-36.04
-36.82
-33.40
-26.04
-16.08
-5.48
3.86
10.78
15.04
17.18
17.93
17.82
16.96
15.25
12.68
9.58
6.58
4.29
2.98
2.42
1.97
0.86
-1.54
-5.50
-10.99
-17.67
-24.95
-31.95
-37.48
-40.27
-39.40
-34.59
-26.53
-16.58
-6.41
2.62
9.77
14.95
18.46
20.64
21.64
21.39
19.83
17.10
13.67
10.16
7.15
4.90
3.26
1.78
-0.07
-2.69
-6.24
-10.69
-15.94
-21.77
-27.68
-32.67
-35.40
-34.50
-29.26
-20.03
-8.34
3.64
13.87
21.20
25.53
27.58
28.28
28.26
27.68
26.38
24.30
21.64
18.88
16.56
14.97
13.96
13.04
11.54
8.87
4.73
-0.86
-7.67
-15.23
-22.85
-29.53
-34.08
-35.36
-32.73
-26.37
-17.41
-7.52
1.63
8.91
14.02
17.30
19.34
20.50
20.82
20.10
18.24
15.51
12.51
9.89
8.06
6.97
6.14
4.96
2.91
-0.21
-4.33
-9.27
-14.76
-20.43
-25.64
-29.43
-30.81
-29.11
-24.37
-17.41
-9.51
-1.94
4.50
9.60
13.57
16.67
18.99
20.42
20.86
20.30
19.07
17.63
16.37
15.50
14.89
14.15
12.75
10.23
6.32
1.01
-5.49
-12.68
-19.79
-25.77
-29.43
-29.77
-26.26
-19.23
-9.78
0.47
9.95
17.64
23.20
26.90
29.20
30.48
30.83
30.18
28.50
25.95
22.95
19.97
17.37
15.22
13.25
11.03
8.15
4.45
0.00
-5.05
-10.62
-16.65
-22.96
-28.90
-33.33
-34.84
-32.37
-25.78
-16.04
-4.99
5.42
13.78
19.65
23.41
25.78
27.35
28.30
28.51
27.81
26.23
24.04
21.62
19.29
17.10
14.93
12.57
9.89
6.87
3.57
0.05
-3.82
-8.27
-13.55
-19.64
-25.99
-31.52
-34.83
-34.67
-30.43
-22.46
-12.07
-1.06
8.94
16.90
22.68
26.71
29.61
31.75
33.09
33.45
32.70
31.04
28.93
26.92
25.32
24.10
22.96
21.54
19.65
17.34
14.81
12.16
9.27
5.83
1.52
-3.65
-9.07
-13.63
-15.97
-15.05
-10.60
-3.25
5.64
14.57
22.37
28.54
33.19
36.72
39.43
41.29
42.03
41.43
39.61
37.09
34.65
32.97
32.33
32.50
32.87
32.70
31.46
28.88
25.02
20.00
13.97
7.08
-0.37
-7.74
-14.04
-18.19
-19.37
-17.44
-13.00
-7.24
-1.45
3.37
6.77
8.81
9.75
9.85
9.18
7.70
5.42
2.57
-0.44
-3.15
-5.26
-6.77
-7.99
-9.34
-11.20
-13.77
-16.96
-20.58
-24.44
-28.44
-32.56
-36.68
-40.43
-43.13
-44.05
-42.62
-38.75
-32.89
-25.91
-18.78
-12.23
-6.62
-2.00
1.76
4.70
6.73
7.73
7.69
6.78
5.33
3.70
2.14
0.75
-0.57
-1.97
-3.55
-5.36
-7.38
-9.66
-12.33
-15.65
-19.81
-24.79
-30.15
-35.02
-38.29
-38.99
-36.64
-31.48
-24.36
-16.44
-8.80
-2.10
3.41
7.82
11.27
13.82
15.44
16.06
15.76
14.75
13.31
11.73
10.11
8.40
6.42
3.99
1.06
-2.28
-5.86
-9.50
-13.17
-17.02
-21.27
-26.08
-31.27
-36.26
-40.12
-41.84
-40.72
-36.69
-30.42
-23.08
-15.91
-9.78
-5.03
-1.48
1.19
3.20
4.50
4.93
4.39
3.06
1.37
-0.14
-1.14
-1.59
-1.77
-2.13
-3.01
-4.58
-6.83
-9.68
-13.08
-16.99
-21.28
-25.62
-29.31
-31.56
-31.64
-29.24
-24.61
-18.50
-11.88
-5.60
-0.19
4.18
7.59
10.13
11.81
12.60
12.48
11.58
10.17
8.54
6.99
5.65
4.53
3.50
2.38
0.95
-0.96
-3.51
-6.76
-10.75
-15.31
-20.13
-24.63
-27.99
-29.35
-28.10
-24.11
-17.85
-10.27
-2.47
4.64
10.53
15.09
18.36
20.39
21.19
20.76
19.30
17.21
15.03
13.23
12.05
11.38
10.83
9.93
8.25
5.61
2.10
-2.03
-6.45
-10.97
-15.44
-19.75
-23.66
-26.69
-28.21
-27.58
-24.55
-19.34
-12.68
-5.55
1.13
6.88
11.58
15.42
18.64
21.26
23.14
24.08
23.96
22.86
21.05
18.88
16.62
14.44
12.36
10.29
8.13
5.73
2.96
-0.38
-4.49
-9.54
-15.44
-21.78
-27.70
-32.07
-33.84
-32.43
-27.97
-21.29
-13.65
-6.21
0.25
5.50
9.70
13.06
15.64
17.34
18.02
17.65
16.45
14.78
13.01
11.36
9.82
8.22
6.34
4.04
1.32
-1.75
-5.14
-8.93
-13.26
-18.13
-23.22
-27.75
-30.78
-31.46
-29.42
-24.90
-18.69
-11.73
-4.85
1.46
7.01
11.76
15.59
18.29
19.64
19.50
18.05
15.68
12.96
10.44
8.44
7.03
5.99
5.01
3.78
2.17
0.12
-2.40
-5.48
-9.25
-13.71
-18.45
-22.70
-25.42
-25.71
-23.14
-18.00
-11.13
-3.71
3.28
9.25
14.07
17.89
20.93
23.24
24.71
25.16
24.49
22.83
20.48
17.85
15.28
12.93
10.75
8.57
6.20
3.48
0.31
-3.43
-7.81
-12.92
-18.62
-24.47
-29.71
-33.38
-34.53
-32.58
-27.55
-20.06
-11.21
-2.20
5.97
12.76
18.04
21.96
24.68
26.30
26.83
26.37
25.13
23.49
21.80
20.31
19.01
17.68
15.99
13.72
10.82
7.40
3.64
-0.36
-4.61
-9.22
-14.20
-19.27
-23.79
-26.89
-27.74
-25.92
-21.64
-15.65
-8.97
-2.57
3.00
7.58
11.29
14.28
16.55
17.97
18.36
17.67
16.08
13.96
11.79
9.94
8.57
7.57
6.64
5.48
3.91
1.93
-0.33
-2.78
-5.52
-8.83
-12.94
-17.72
-22.54
-26.31
-27.89
-26.65
-22.69
-16.91
-10.60
-4.87
-0.26
3.30
6.17
8.69
10.84
12.30
12.74
12.04
10.41
8.34
6.34
4.74
3.57
2.60
1.48
-0.12
-2.44
-5.57
-9.55
-14.30
-19.63
-25.09
-30.01
-33.54
-34.83
-33.36
-29.13
-22.74
-15.22
-7.65
-0.86
4.81
9.39
13.09
16.03
18.20
19.48
19.82
19.37
18.43
17.35
16.32
15.34
14.23
12.75
10.73
8.14
5.01
1.41
-2.70
-7.36
-12.60
-18.20
-23.63
-28.00
-30.27
-29.60
-25.65
-18.85
-10.26
-1.27
6.84
13.34
18.07
21.34
23.61
25.13
25.94
25.91
24.98
23.31
21.24
19.18
17.32
15.55
13.48
10.65
6.86
2.22
-2.91
-8.13
-13.27
-18.41
-23.73
-29.12
-34.02
-37.38
-38.07
-35.33
-29.20
-20.55
-10.79
-1.29
7.00
13.77
19.18
23.54
27.09
29.84
31.72
32.74
33.03
32.84
32.43
31.88
31.12
29.95
28.17
25.70
22.61
19.09
15.33
11.45
7.37
2.83
-2.39
-8.31
-14.49
-19.98
-23.57
-24.17
-21.32
-15.44
-7.66
0.52
7.82
13.55
17.62
20.31
21.95
22.68
22.43
21.16
19.01
16.36
13.68
11.38
9.55
8.01
6.43
4.56
2.30
-0.30
-3.17
-6.39
-10.15
-14.62
-19.70
-24.83
-29.02
-31.13
-30.33
-26.41
-19.95
-12.15
-4.31
2.51
7.84
11.67
14.27
15.88
16.55
16.24
14.93
12.84
10.35
7.91
5.85
4.24
2.89
1.50
-0.22
-2.49
-5.39
-8.94
-13.15
-17.98
-23.23
-28.40
-32.63
-34.92
-34.44
-30.89
-24.74
-17.06
-9.14
-2.03
3.75
8.14
11.28
13.27
14.06
13.61
12.11
10.04
8.08
6.73
6.09
5.84
5.39
4.24
2.13
-0.93
-4.80
-9.39
-14.62
-20.26
-25.73
-30.09
-32.22
-31.36
-27.40
-21.03
-13.47
-6.00
0.51
5.71
9.64
12.46
14.17
14.62
13.68
11.49
8.48
5.34
2.72
0.92
-0.18
-1.06
-2.36
-4.55
-7.85
-12.22
-17.38
-22.93
-28.32
-32.82
-35.57
-35.83
-33.19
-27.89
-20.71
-12.81
-5.24
1.29
6.58
10.68
13.70
15.60
16.26
15.70
14.16
12.14
10.14
8.49
7.14
5.78
3.94
1.27
-2.43
-7.18
-12.92
-19.47
-26.46
-33.16
-38.62
-41.79
-41.96
-39.04
-33.65
-26.91
-20.05
-13.98
-9.04
-5.12
-1.96
0.56
2.25
2.88
2.36
0.98
-0.64
-1.85
-2.35
-2.35
-2.42
-3.19
-4.98
-7.76
-11.28
-15.39
-20.03
-25.12
-30.20
-34.31
-36.15
-34.61
-29.36
-21.06
-11.12
-1.13
7.79
15.30
21.71
27.51
32.98
37.92
41.85
44.29
45.10
44.55
43.16
41.44
39.60
37.55
34.94
31.50
27.17
22.13
16.68
11.02
5.12
-1.10
-7.51
-13.53
-18.08
-19.91
-18.11
-12.53
-3.91
6.40
16.97
26.71
35.02
41.69
46.68
49.90
51.31
51.03
49.42
47.03
44.43
42.00
39.81
37.72
35.45
32.82
29.74
26.27
22.47
18.37
13.91
8.97
3.38
-2.97
-9.93
-16.97
-23.19
-27.47
-28.83
-26.81
-21.78
-14.76
-7.07
0.19
6.48
11.76
16.24
20.01
22.89
24.58
24.87
23.88
22.04
19.91
17.87
16.04
14.26
12.31
10.00
7.27
4.12
0.63
-3.17
-7.29
-11.77
-16.68
-21.95
-27.24
-31.90
-35.04
-35.80
-33.72
-28.97
-22.31
-14.82
-7.49
-0.95
4.61
9.19
12.84
15.50
17.10
17.68
17.48
16.90
16.27
15.71
15.08
14.11
12.61
10.56
8.19
5.75
3.41
1.10
-1.44
-4.55
-8.48
-13.30
-18.82
-24.55
-29.78
-33.64
-35.29
-34.19
-30.26
-24.01
-16.33
-8.26
-0.64
6.14
12.04
17.19
21.65
25.25
27.73
28.99
29.25
29.04
28.98
29.40
30.17
30.72
30.34
28.62
25.64
21.94
18.23
15.03
12.43
10.03
7.21
3.43
-1.61
-7.87
-14.98
-22.39
-29.44
-35.45
-39.75
-41.82
-41.47
-38.88
-34.57
-29.29
-23.68
-18.18
-12.98
-8.17
-3.93
-0.56
1.63
2.50
2.24
1.31
0.24
-0.62
-1.21
-1.77
-2.65
-4.13
-6.27
-8.90
-11.76
-14.63
-17.43
-20.23
-23.15
-26.27
-29.51
-32.71
-35.74
-38.59
-41.41
-44.35
-47.25
-49.53
-50.27
-48.43
-43.45
-35.51
-25.58
-15.12
-5.46
2.72
9.51
15.35
20.67
25.55
29.83
33.53
37.09
41.15
45.79
50.02
51.87
49.41
42.08
31.38
20.44
12.44
9.03
9.52
11.54
12.49
10.84
6.65
0.89
-5.35
-11.42
-17.00
-21.62
-24.40
-24.27
-20.63
-13.82
-5.10
3.85
11.49
16.85
19.75
20.46
19.60
17.87
15.96
14.47
13.71
13.64
13.82
13.70
12.88
11.27
9.14
6.87
4.77
2.83
0.79
-1.71
-5.03
-9.31
-14.48
-20.17
-25.71
-30.19
-32.66
-32.43
-29.35
-23.86
-16.85
-9.31
-2.00
4.70
10.65
15.75
19.83
22.67
24.18
24.53
24.10
23.40
22.82
22.46
22.19
21.73
20.81
19.26
17.11
14.52
11.68
8.77
5.83
2.77
-0.65
-4.66
-9.53
-15.29
-21.73
-28.20
-33.76
-37.29
-37.92
-35.30
-29.82
-22.50
-14.59
-7.18
-0.79
4.59
9.25
13.41
17.01
19.72
21.23
21.49
20.80
19.79
18.97
18.63
18.56
18.28
17.27
15.21
12.22
8.69
5.12
1.91
-0.83
-3.33
-5.97
-9.17
-13.21
-18.07
-23.46
-28.77
-33.18
-35.86
-36.17
-33.87
-29.25
-22.99
-15.92
-8.81
-2.16
3.75
8.77
12.68
15.29
16.52
16.55
15.84
14.96
14.34
14.04
13.85
13.34
12.22
10.47
8.26
5.85
3.39
0.88
-1.79
-4.70
-7.96
-11.62
-15.78
-20.46
-25.44
-30.12
-33.56
-34.77
-33.06
-28.44
-21.67
-13.92
-6.37
0.21
5.59
9.88
13.26
15.83
17.51
18.27
18.20
17.56
16.65
15.67
14.66
13.50
12.02
10.08
7.65
4.79
1.62
-1.72
-5.14
-8.65
-12.45
-16.81
-21.85
-27.32
-32.42
-36.00
-36.87
-34.37
-28.71
-20.89
-12.33
-4.33
2.35
7.59
11.64
14.82
17.29
19.01
19.87
19.90
19.31
18.40
17.35
16.19
14.79
13.01
10.75
8.11
5.24
2.29
-0.70
-3.81
-7.28
-11.33
-16.12
-21.55
-27.16
-32.12
-35.37
-35.94
-33.34
-27.77
-20.15
-11.78
-3.88
2.77
8.01
12.04
15.17
17.58
19.27
20.14
20.27
19.90
19.35
18.86
18.39
17.68
16.39
14.32
11.51
8.21
4.78
1.44
-1.79
-5.14
-8.96
-13.51
-18.78
-24.36
-29.43
-33.01
-34.21
-32.58
-28.22
-21.78
-14.19
-6.33
1.12
7.76
13.40
17.91
21.18
23.20
24.07
24.01
23.34
22.31
21.07
19.62
17.86
15.74
13.21
10.32
7.15
3.86
0.57
-2.66
-5.92
-9.47
-13.67
-18.83
-24.85
-31.14
-36.59
-39.91
-40.07
-36.74
-30.42
-22.29
-13.73
-5.89
0.62
5.72
9.61
12.54
14.57
15.62
15.64
14.72
13.21
11.52
10.06
9.03
8.32
7.63
6.58
4.90
2.43
-0.77
-4.64
-9.15
-14.29
-20.00
-25.94
-31.35
-35.14
-36.22
-33.90
-28.33
-20.52
-11.97
-4.10
2.30
7.15
10.89
13.98
16.58
18.44
19.20
18.72
17.26
15.38
13.59
12.15
10.92
9.56
7.75
5.37
2.50
-0.76
-4.46
-8.81
-14.06
-20.19
-26.68
-32.50
-36.36
-37.19
-34.64
-29.14
-21.77
-13.77
-6.15
0.63
6.51
11.58
15.84
19.12
21.24
22.11
21.90
20.97
19.70
18.41
17.22
16.06
14.74
12.99
10.65
7.63
3.96
-0.28
-5.07
-10.40
-16.18
-21.98
-26.96
-29.98
-29.94
-26.27
-19.29
-10.09
-0.20
9.03
16.80
22.96
27.77
31.48
34.19
35.81
36.21
35.45
33.77
31.55
29.08
26.46
23.63
20.51
17.05
13.31
9.40
5.34
1.03
-3.79
-9.33
-15.60
-22.18
-28.20
-32.52
-34.06
-32.20
-27.06
-19.47
-10.66
-1.88
5.96
12.43
17.51
21.33
24.02
25.59
26.03
25.41
23.92
21.85
19.50
17.14
14.83
12.54
10.14
7.50
4.56
1.37
-2.01
-5.61
-9.60
-14.20
-19.46
-24.97
-29.80
-32.70
-32.54
-28.89
-22.18
-13.61
-4.70
3.31
9.75
14.57
18.06
20.53
22.12
22.79
22.53
21.46
19.83
17.99
16.19
14.57
13.04
11.43
9.55
7.22
4.32
0.74
-3.62
-8.81
-14.67
-20.76
-26.24
-30.09
-31.30
-29.28
-24.16
-16.74
-8.33
-0.25
6.58
11.83
15.63
18.31
20.10
21.00
20.91
19.87
18.10
16.02
14.05
12.37
10.89
9.36
7.49
5.13
2.26
-1.05
-4.80
-9.02
-13.82
-19.17
-24.70
-29.70
-33.12
-33.93
-31.49
-25.85
-17.84
-8.82
-0.21
6.98
12.41
16.33
19.25
21.57
23.35
24.37
24.35
23.25
21.30
18.96
16.67
14.62
12.74
10.69
8.16
4.99
1.23
-2.90
-7.25
-11.83
-16.74
-21.98
-27.18
-31.49
-33.83
-33.23
-29.32
-22.54
-14.07
-5.34
2.44
8.67
13.40
16.95
19.66
21.62
22.70
22.80
21.98
20.54
18.88
17.29
15.85
14.40
12.68
10.47
7.72
4.54
1.02
-2.79
-7.00
-11.80
-17.27
-23.23
-29.02
-33.65
-35.98
-35.21
-31.19
-24.60
-16.69
-8.86
-2.13
3.15
7.17
10.40
13.15
15.41
16.90
17.29
16.49
14.74
12.50
10.19
8.04
6.05
4.05
1.88
-0.53
-3.18
-6.11
-9.48
-13.57
-18.54
-24.19
-29.80
-34.15
-35.93
-34.25
-29.05
-21.13
-11.96
-3.06
4.43
10.08
14.05
16.81
18.75
19.97
20.33
19.65
18.01
15.78
13.49
11.62
10.30
9.28
8.00
5.95
2.86
-1.23
-6.08
-11.44
-17.09
-22.78
-28.03
-32.04
-33.82
-32.56
-28.05
-20.84
-12.10
-3.19
4.74
11.08
15.79
19.13
21.36
22.61
22.87
22.15
20.60
18.54
16.33
14.27
12.45
10.75
8.90
6.66
3.80
0.25
-4.01
-9.02
-14.69
-20.77
-26.67
-31.48
-34.16
-33.85
-30.24
-23.77
-15.48
-6.73
1.32
7.98
13.07
16.81
19.48
21.30
22.31
22.54
22.04
21.00
19.66
18.22
16.73
15.09
13.11
10.64
7.65
4.21
0.37
-3.87
-8.65
-14.08
-20.07
-26.08
-31.17
-34.20
-34.22
-30.82
-24.41
-16.01
-6.94
1.61
