1557323445.00
64.000000
-0.00
-0.00
-0.00
-0.00
-0.00
-0.00
-0.00
-0.00
-0.00
-0.00
0.00
0.01
0.01
-0.00
-0.03
-0.05
-0.05
0.00
0.13
0.36
0.66
1.01
1.37
1.72
2.06
2.40
2.79
3.24
3.80
4.42
5.06
5.66
6.20
6.68
7.15
7.68
8.31
9.14
10.09
11.04
11.88
12.56
13.14
13.76
14.65
15.96
17.91
20.32
22.90
25.38
27.58
29.57
31.68
34.32
37.82
42.54
48.14
54.10
59.83
64.98
69.61
74.19
79.40
85.73
93.70
102.81
112.27
121.24
129.16
136.09
142.63
150.08
157.08
165.89
177.08
190.78
205.82
219.35
227.02
224.18
207.38
175.68
131.40
78.40
21.05
-37.28
-94.97
-151.71
-207.69
-262.77
-316.29
-366.91
-413.69
-455.76
-492.28
-522.11
-543.78
-555.64
-556.26
-544.95
-521.73
-487.82
-445.03
-395.47
-341.31
-284.59
-227.22
-171.00
-117.62
-68.41
-24.39
14.04
46.96
74.77
97.96
116.87
131.63
142.25
148.68
150.78
148.55
142.44
133.79
125.01
119.24
119.34
126.67
140.23
156.82
172.23
182.85
186.98
185.00
178.64
169.83
159.81
148.95
137.24
124.88
112.53
101.02
90.99
82.47
75.00
67.80
60.43
52.67
44.83
37.59
31.54
26.99
23.70
21.08
18.43
15.29
11.63
7.84
4.49
2.02
0.55
-0.16
-0.56
-1.12
-2.09
-3.45
-4.93
-6.14
-6.82
-6.84
-6.33
-5.54
-4.73
-4.12
-3.86
-3.99
-4.38
-4.79
-4.87
-4.30
-3.00
-1.26
0.35
1.18
0.87
-0.46
-2.27
-3.86
-4.77
-4.90
-4.51
-3.99
-3.60
-3.40
-3.25
-3.06
-2.77
-2.47
-2.29
-2.31
-2.55
-2.89
-3.16
-3.20
-2.96
-2.52
-2.07
-1.83
-1.96
-2.42
-3.00
-3.44
-3.47
-2.99
-2.07
-0.93
0.18
1.08
1.71
2.16
2.54
3.00
3.59
4.25
4.91
5.47
5.92
6.33
6.79
7.33
7.93
8.44
8.72
8.63
8.10
7.15
5.87
4.45
2.95
1.43
-0.12
-1.76
-3.54
-5.46
-7.40
-9.16
-10.52
-11.35
-11.65
-11.53
-11.21
-10.82
-10.41
-9.94
-9.33
-8.56
-7.65
-6.63
-5.53
-4.32
-3.02
-1.71
-0.52
0.37
0.80
0.74
0.33
-0.20
-0.63
-0.82
-0.82
-0.74
-0.75
-0.97
-1.41
-1.96
-2.46
-2.75
-2.73
-2.44
-2.02
-1.66
-1.50
-1.58
-1.85
-2.19
-2.48
-2.67
-2.78
-2.88
-3.03
-3.25
-3.51
-3.79
-4.03
-4.20
-4.25
-4.11
-3.74
-3.12
-2.27
-1.24
-0.16
0.87
1.76
2.47
3.00
3.39
3.66
3.82
3.89
3.89
3.83
3.73
3.61
3.49
3.39
3.33
3.29
3.23
3.08
2.82
2.43
1.95
1.44
0.93
0.44
-0.03
-0.47
-0.90
-1.31
-1.69
-2.03
-2.36
-2.69
-3.08
-3.58
-4.23
-4.99
-5.71
-6.19
-6.19
-5.59
-4.44
-2.97
-1.53
-0.42
0.22
0.50
0.64
0.91
1.46
2.27
3.15
3.87
4.25
4.30
4.12
3.89
3.69
3.55
3.38
3.11
2.77
2.47
2.36
2.50
2.81
3.07
3.07
2.66
1.90
0.94
0.00
-0.76
-1.32
-1.74
-2.12
-2.56
-3.08
-3.69
-4.33
-4.91
-5.34
-5.49
-5.29
-4.75
-3.94
-2.97
-1.95
-0.96
-0.08
0.64
1.21
1.62
1.95
2.29
2.66
3.06
3.42
3.66
3.74
3.72
3.68
3.66
3.67
3.66
3.52
3.25
2.87
2.48
2.18
2.00
1.89
1.72
1.36
0.70
-0.20
-1.22
-2.16
-2.84
-3.22
-3.41
-3.59
-3.98
-4.63
-5.46
-6.24
-6.70
-6.65
-6.03
-4.92
-3.51
-2.06
-0.79
0.16
0.77
1.12
1.36
1.63
1.98
2.40
2.80
3.09
3.25
3.31
3.31
3.29
3.23
3.08
2.78
2.37
1.93
1.58
1.36
1.24
1.12
0.88
0.47
-0.06
-0.59
-1.00
-1.24
-1.34
-1.43
-1.64
-2.04
-2.67
-3.46
-4.29
-5.00
-5.39
-5.31
-4.68
-3.58
-2.22
-0.86
0.28
1.10
1.62
1.95
2.18
2.37
2.55
2.75
2.99
3.30
3.61
3.80
3.73
3.33
2.68
1.97
1.42
1.19
1.28
1.54
1.73
1.68
1.28
0.56
-0.37
-1.33
-2.16
-2.69
-2.87
-2.75
-2.50
-2.42
-2.73
-3.52
-4.64
-5.72
-6.38
-6.36
-5.66
-4.53
-3.32
-2.29
-1.52
-0.94
-0.39
0.18
0.78
1.30
1.66
1.85
1.92
1.94
1.95
1.94
1.85
1.61
1.19
0.62
0.01
-0.50
-0.77
-0.72
-0.35
0.23
0.84
1.28
1.46
1.40
1.25
1.21
1.43
1.95
2.67
3.44
4.06
4.43
4.49
4.24
3.67
2.82
1.78
0.71
-0.15
-0.63
-0.67
-0.41
-0.10
0.01
-0.19
-0.63
-1.13
-1.46
-1.46
-1.07
-0.29
0.84
2.25
3.80
5.22
6.15
6.29
5.50
4.00
2.29
0.97
0.45
0.71
1.32
1.68
1.28
-0.02
-2.01
-4.27
-6.44
-8.36
-10.07
-11.67
-13.20
-14.61
-15.84
-16.86
-17.71
-18.45
-19.08
-19.57
-19.93
-20.21
-20.57
-21.11
-21.87
-22.72
-23.50
-24.14
-24.71
-25.38
-26.40
-27.87
-29.77
-31.95
-34.20
-36.25
-37.83
-38.57
-38.10
-36.10
-32.40
-27.13
-20.64
-13.47
-6.13
0.97
7.61
13.79
19.70
25.65
32.00
38.95
46.39
53.80
60.38
65.30
68.08
68.71
67.65
65.56
63.02
60.28
57.29
53.94
50.24
46.39
42.70
39.41
36.61
34.33
32.57
31.45
31.12
31.68
33.00
34.73
36.37
37.50
37.89
37.59
36.77
35.59
34.05
32.03
29.32
25.77
21.35
16.17
10.49
4.56
-1.47
-7.53
-13.73
-20.17
-26.96
-34.04
-41.23
-48.19
-54.57
-59.99
-64.20
-67.00
-68.35
-68.30
-67.08
-65.04
-62.64
-60.28
-58.23
-56.50
-54.86
-52.84
-49.93
-45.72
-40.06
-33.19
-25.71
-18.39
-11.98
-6.88
-3.10
-0.15
2.66
5.99
10.21
15.23
20.64
25.87
30.48
34.30
37.41
39.99
42.12
43.63
44.15
43.27
40.73
36.46
30.58
23.26
14.73
5.31
-4.51
-14.17
-23.15
-31.16
-38.24
-44.64
-50.55
-55.85
-60.10
-62.68
-63.06
-61.09
-57.10
-51.75
-45.76
-39.64
-33.58
-27.50
-21.21
-14.59
-7.69
-0.73
6.07
12.57
18.75
24.70
30.47
35.97
40.95
45.15
48.38
50.59
51.86
52.30
51.97
50.84
48.86
46.00
42.31
38.00
33.36
28.78
24.62
21.12
18.35
16.16
14.26
12.34
10.16
7.68
4.96
2.17
-0.57
-3.19
-5.62
-7.75
-9.45
-10.56
-11.01
-10.85
-10.26
-9.48
-8.68
-7.94
-7.22
-6.44
-5.53
-4.51
-3.47
-2.52
-1.74
-1.14
-0.67
-0.28
0.07
0.37
0.59
0.73
0.82
0.94
1.10
1.30
1.45
1.48
1.36
1.14
0.92
0.78
0.72
0.68
0.52
0.15
-0.46
-1.24
-2.10
-2.90
-3.62
-4.27
-4.92
-5.65
-6.45
-7.25
-7.86
-8.11
-7.87
-7.13
-6.02
-4.71
-3.46
-2.42
-1.68
-1.21
-0.91
-0.63
-0.27
0.23
0.84
1.49
2.07
2.48
2.65
2.60
2.40
2.16
1.95
1.80
1.65
1.36
0.80
-0.11
-1.33
-2.75
-4.23
-5.68
-7.11
-8.53
-9.92
-11.16
-12.08
-12.57
-12.61
-12.40
-12.19
-12.22
-12.58
-13.14
-13.61
-13.67
-13.09
-11.82
-10.02
-7.91
-5.73
-3.55
-1.33
1.09
3.79
6.79
9.97
13.20
16.38
19.52
22.71
26.06
29.61
33.37
37.29
41.29
45.26
49.05
52.41
55.07
56.78
57.45
57.22
56.44
55.55
54.86
54.29
53.31
51.07
46.72
39.80
30.54
19.78
8.68
-1.74
-10.90
-18.68
-25.31
-31.04
-35.95
-39.97
-42.99
-44.93
-45.82
-45.74
-44.78
-43.06
-40.76
-38.12
-35.37
-32.69
-30.09
-27.50
-24.82
-22.07
-19.34
-16.81
-14.64
-12.94
-11.81
-11.30
-11.47
-12.33
-13.82
-15.77
-17.92
-20.04
-21.96
-23.61
-25.01
-26.28
-27.53
-28.93
-30.57
-32.47
-34.56
-36.68
-38.71
-40.66
-42.67
-44.94
-47.63
-50.70
-53.91
-56.84
-59.05
-60.23
-60.31
-59.46
-58.03
-56.45
-55.03
-53.96
-53.16
-52.40
-51.32
-49.51
-46.57
-42.14
-35.97
-27.96
-18.23
-7.23
4.33
15.61
25.80
34.36
41.16
46.38
50.36
53.40
55.62
57.09
57.98
58.76
60.11
62.66
66.61
71.54
76.43
79.99
81.18
79.54
75.41
69.74
63.82
58.79
55.28
53.20
51.84
50.11
47.08
42.34
36.19
29.48
23.26
18.33
14.98
13.02
12.08
11.80
12.00
12.68
13.81
15.27
16.81
18.17
19.17
19.78
20.06
20.04
19.66
18.74
17.09
14.62
11.50
8.10
4.98
2.63
1.36
1.20
1.88
2.93
3.80
3.96
2.89
0.20
-4.31
-10.65
-18.51
-27.31
-36.27
-44.55
-51.40
-56.41
-59.65
-61.54
-62.77
-63.97
-65.40
-66.75
-67.24
-65.79
-61.50
-53.99
-43.63
-31.50
-19.07
-7.85
1.05
7.11
10.41
11.47
11.03
9.83
8.58
7.89
8.29
10.14
13.46
17.80
22.35
26.05
27.94
27.43
24.51
19.80
14.32
9.23
5.51
3.61
3.39
4.24
5.29
5.79
5.33
3.96
2.08
0.29
-0.91
-1.22
-0.66
0.51
1.83
2.82
3.17
2.81
2.03
1.39
1.49
2.73
5.15
8.33
11.63
14.39
16.22
17.11
17.35
17.33
17.32
17.37
17.34
17.05
16.39
15.39
14.18
12.91
11.75
10.77
9.96
9.18
8.26
7.01
5.33
3.28
1.05
-1.10
-2.99
-4.62
-6.15
-7.80
-9.67
-11.70
-13.64
-15.23
-16.44
-17.50
-18.76
-20.56
-23.09
-26.47
-30.75
-35.84
-41.34
-46.41
-49.90
-50.67
-48.01
-41.95
-33.22
-23.10
-13.05
-4.33
2.14
5.81
6.47
4.00
-1.54
-9.87
-20.40
-32.01
-42.97
-51.03
-53.79
-49.46
-37.69
-19.92
0.78
20.67
36.46
46.26
49.90
48.61
44.26
38.58
32.80
27.59
23.37
20.61
19.79
21.12
24.29
28.40
32.21
34.66
35.21
34.00
31.81
29.61
28.15
27.65
27.76
27.75
26.81
24.48
20.81
16.42
12.30
9.47
8.64
9.98
12.95
16.57
19.61
21.05
20.38
17.68
13.52
8.63
3.65
-1.18
-5.95
-10.81
-15.84
-20.89
-25.58
-29.61
-32.92
-35.42
-36.51
-34.86
-29.03
-18.63
-5.30
7.32
15.01
15.00
7.61
-3.90
-15.02
-22.20
-24.39
-22.88
-19.96
-17.32
-15.30
-13.26
-10.60
-7.44
-4.56
-2.66
-1.71
-0.88
0.89
4.50
9.99
16.50
22.59
26.72
27.84
25.68
20.83
14.51
8.14
2.74
-1.29
-4.17
-6.52
-8.94
-11.70
-14.60
-17.15
-18.85
-19.50
-19.25
-18.49
-17.53
-16.43
-15.01
-13.01
-10.36
-7.27
-4.25
-1.80
-0.21
0.56
0.82
0.95
1.17
1.45
1.59
1.37
0.75
-0.06
-0.75
-1.04
-0.89
-0.52
-0.24
-0.30
-0.76
-1.44
-2.10
-2.57
-2.81
-2.91
-3.00
-3.21
-3.57
-4.12
-4.81
-5.56
-6.18
-6.36
-5.81
-4.33
-1.95
1.02
4.10
6.79
8.72
9.80
10.13
9.97
9.62
9.29
9.10
9.04
9.04
8.98
8.77
8.37
7.81
7.16
6.44
5.68
4.87
4.01
3.12
2.22
1.30
0.33
-0.75
-1.91
-3.09
-4.13
-4.95
-5.54
-6.05
-6.70
-7.71
-9.15
-10.94
-12.90
-14.78
-16.34
-17.40
-17.90
-17.91
-17.64
-17.34
-17.16
-17.07
-16.86
-16.22
-14.89
-12.76
-9.86
-6.32
-2.37
1.71
5.52
8.61
10.53
11.02
10.17
8.36
6.20
4.18
2.60
1.46
0.64
0.02
-0.45
-0.73
-0.84
-0.90
-1.14
-1.72
-2.72
-4.04
-5.47
-6.84
-7.99
-8.85
-9.33
-9.35
-8.82
-7.66
-5.91
-3.66
-1.14
1.38
3.59
5.22
6.19
6.61
6.77
6.95
7.34
7.87
8.37
8.70
8.88
9.11
9.61
10.40
11.32
12.09
12.50
12.55
12.38
12.13
11.79
11.20
10.23
8.87
7.38
6.09
5.28
5.01
5.08
5.22
5.24
5.10
4.89
4.71
4.60
4.54
4.51
4.56
4.78
5.26
5.94
6.67
7.18
7.27
6.93
6.30
5.65
5.21
5.10
5.28
5.58
5.85
6.00
6.03
6.00
5.95
5.91
5.87
5.87
5.95
6.18
6.57
7.10
7.66
8.19
8.66
9.11
9.56
9.94
10.12
9.90
9.19
8.02
6.59
5.15
3.92
3.02
2.51
2.41
2.75
3.52
4.70
6.22
8.00
9.98
12.14
14.43
16.73
18.83
20.46
21.40
21.60
21.25
20.71
20.39
20.60
21.42
22.71
24.10
25.06
25.08
23.72
20.85
16.69
11.90
7.33
3.74
1.49
0.37
-0.19
-0.77
-1.72
-3.05
-4.56
-5.97
-7.00
-7.46
-7.23
-6.36
-5.26
-4.73
-5.81
-9.36
-15.64
-23.99
-32.96
-40.88
-46.39
-48.84
-48.30
-45.29
-40.47
-34.52
-28.15
-22.17
-17.48
-14.74
-14.03
-14.71
-15.47
-14.99
-12.50
-8.16
-2.92
2.02
5.72
7.88
8.67
8.41
7.20
4.89
1.23
-3.87
-10.14
-16.92
-23.36
-28.64
-32.16
-33.76
-33.73
-32.76
-31.73
-31.40
-32.14
-33.85
-36.08
-38.33
-40.30
-42.06
-43.94
-46.27
-49.01
-51.67
-53.38
-53.14
-50.18
-44.19
-35.46
-24.69
-12.76
-0.46
11.73
23.61
35.15
46.30
56.78
66.13
73.88
79.77
83.82
86.11
86.46
84.10
77.84
66.62
50.23
29.82
7.76
-13.08
-30.25
-42.45
-49.85
-53.72
-55.80
-57.76
-60.81
-65.51
-71.71
-78.41
-83.84
-85.75
-82.12
-71.88
-55.55
-35.16
-13.67
6.05
22.13
34.04
42.49
48.70
53.90
58.80
63.62
68.27
72.53
76.15
78.87
80.45
80.65
79.26
76.18
71.42
65.12
57.49
48.83
39.45
29.64
19.74
10.06
0.91
-7.45
-14.94
-21.64
-27.85
-33.96
-40.31
-47.00
-53.83
-60.39
-66.12
-70.57
-73.48
-74.82
-74.72
-73.39
-70.96
-67.47
-62.90
-57.16
-50.21
-41.99
-32.47
-21.66
-9.72
2.75
14.75
24.84
31.59
33.93
31.58
25.02
15.41
4.14
-7.46
-18.41
-28.05
-36.04
-42.23
-46.66
-49.40
-50.49
-49.73
-46.65
-40.62
-31.20
-18.56
-3.71
11.63
25.47
36.14
42.85
45.85
46.27
45.68
45.53
46.76
49.55
53.45
57.53
60.72
62.13
61.22
57.93
52.56
45.71
38.07
30.43
23.48
17.83
13.82
11.46
10.40
10.03
9.66
8.79
7.26
5.28
3.25
1.61
0.63
0.34
0.57
1.03
1.42
1.46
0.99
-0.06
-1.55
-3.19
-4.66
-5.72
-6.41
-7.05
-8.11
-9.97
-12.75
-16.16
-19.66
-22.72
-25.02
-26.55
-27.55
-28.25
-28.68
-28.62
-27.71
-25.69
-22.56
-18.68
-14.58
-10.77
-7.47
-4.60
-1.91
0.82
3.57
6.14
8.25
9.71
10.57
11.02
11.30
11.58
11.88
12.15
12.34
12.42
12.41
12.34
12.19
11.93
11.56
11.10
10.54
9.82
8.85
7.50
5.78
3.82
1.97
0.56
-0.13
-0.08
0.54
1.41
2.23
2.81
3.12
3.26
3.33
3.45
3.61
3.79
3.88
3.74
3.26
2.34
1.01
-0.57
-2.17
-3.59
-4.75
-5.77
-6.88
-8.26
-9.99
-11.88
-13.60
-14.77
-15.05
-14.23
-12.26
-9.23
-5.41
-1.25
2.71
5.97
8.26
9.69
10.68
11.71
13.09
14.80
16.50
17.82
18.54
18.74
18.68
18.65
18.73
18.78
18.58
17.97
16.99
15.81
14.66
13.66
12.81
11.99
11.06
9.93
8.54
6.93
5.17
3.33
1.47
-0.34
-2.13
-3.90
-5.70
-7.54
-9.40
-11.29
-13.22
-15.25
-17.47
-19.87
-22.35
-24.61
-26.32
-27.11
-26.81
-25.45
-23.32
-20.82
-18.34
-16.12
-14.21
-12.48
-10.80
-9.04
-7.19
-5.29
-3.47
-1.84
-0.44
0.72
1.65
2.44
3.18
4.02
4.98
6.00
6.94
7.60
7.83
7.56
6.84
5.87
5.01
4.69
5.31
7.10
9.98
13.42
16.59
18.65
19.10
18.11
16.24
14.29
13.07
13.08
14.28
16.18
18.12
19.52
20.42
20.92
21.29
21.93
23.14
24.83
26.53
27.58
27.51
26.59
25.10
23.32
21.43
19.24
15.85
10.03
0.90
-11.33
-24.96
-38.52
-51.24
-63.28
-73.07
-78.18
-75.87
-64.78
-48.90
-30.23
-11.62
3.52
12.80
15.27
12.33
7.04
2.18
-1.21
-3.65
-7.02
-12.23
-17.78
-20.28
-16.72
-6.55
7.53
21.03
30.44
34.38
34.06
32.05
30.46
29.46
27.45
22.51
14.08
3.76
-6.02
-13.37
-17.99
-21.10
-24.59
-29.74
-36.66
-44.25
-50.76
-54.88
-56.16
-55.00
-52.31
-49.10
-46.16
-43.91
-42.31
-41.00
-39.44
-37.10
-33.48
-28.25
-21.32
-12.83
-3.19
7.08
17.33
26.89
35.09
41.40
45.58
47.65
47.87
46.54
43.91
40.15
35.44
30.14
24.90
20.59
17.94
17.26
18.24
20.13
22.08
23.49
24.29
24.77
25.30
25.98
26.52
26.40
25.16
22.78
19.69
16.59
14.07
12.34
11.25
10.50
9.88
9.45
9.39
9.75
10.30
10.56
10.07
8.63
6.52
4.35
2.80
2.29
2.78
3.83
4.81
5.25
4.95
3.95
2.33
0.07
-3.04
-7.22
-12.43
-18.25
-23.98
-28.93
-32.77
-35.58
-37.65
-39.19
-40.14
-40.23
-39.29
-37.44
-35.24
-33.46
-32.62
-32.80
-33.68
-34.70
-35.40
-35.67
-35.40
-34.50
-32.86
-30.10
-25.96
-20.40
-13.50
-5.35
3.82
13.99
24.70
34.80
43.13
48.76
51.33
51.18
49.13
45.58
41.16
36.27
31.18
26.93
24.83
25.82
30.13
37.37
46.48
57.45
70.69
83.04
91.04
91.85
84.42
69.47
52.20
33.28
13.61
-5.16
-21.37
-33.34
-39.33
-39.18
-34.65
-28.58
-24.02
-21.86
-21.28
-20.90
-19.50
-17.11
-15.15
-15.35
-18.36
-23.68
-29.16
-32.80
-34.00
-33.47
-32.65
-32.78
-34.01
-35.27
-35.23
-32.75
-27.82
-21.77
-16.37
-12.97
-11.87
-12.10
-12.05
-10.49
-7.05
-2.49
1.71
4.26
4.69
3.47
1.72
0.54
0.54
1.72
3.70
5.87
7.69
8.70
8.62
7.38
5.26
2.90
1.06
0.28
0.60
1.39
1.65
0.48
-2.41
-6.54
-10.82
-14.11
-15.66
-15.37
-13.76
-11.76
-10.42
-10.66
-12.96
-16.98
-21.43
-24.42
-24.18
-19.87
-12.05
-2.21
8.07
17.91
27.31
36.51
45.12
51.86
54.98
53.40
47.41
38.71
29.43
21.07
13.92
7.27
0.16
-8.00
-17.31
-27.53
-38.24
-48.66
-57.47
-63.01
-63.84
-59.50
-50.99
-40.48
-30.43
-22.61
-17.52
-14.63
-12.98
-11.74
-10.41
-8.53
-5.55
-0.85
5.79
13.86
22.04
28.73
32.72
33.78
32.59
30.34
28.05
25.99
23.56
19.80
14.15
6.98
-0.35
-5.87
-7.85
-5.53
0.61
8.91
17.21
23.57
26.86
27.03
24.96
22.06
19.77
19.10
20.30
22.83
25.52
27.10
26.62
23.91
19.55
14.50
9.68
5.66
2.51
0.04
-1.91
-3.31
-3.99
-3.88
-3.23
-2.61
-2.72
-3.98
-6.26
-8.91
-11.00
-11.72
-10.74
-8.24
-4.83
-1.27
1.74
3.74
4.51
4.01
2.37
-0.17
-3.29
-6.61
-9.78
-12.52
-14.64
-16.04
-16.67
-16.62
-16.04
-15.22
-14.40
-13.71
-13.07
-12.22
-10.89
-8.92
-6.39
-3.54
-0.56
2.55
6.01
10.01
14.47
18.85
22.23
23.69
22.65
19.17
13.94
7.99
2.44
-1.84
-4.35
-5.02
-4.26
-2.92
-2.13
-3.05
-6.39
-12.11
-19.28
-26.51
-32.56
-36.80
-39.39
-40.98
-42.23
-43.44
-44.57
-45.46
-45.92
-45.84
-45.15
-43.79
-42.00
-40.41
-39.83
-40.75
-42.74
-44.20
-42.87
-36.94
-25.99
-11.47
3.90
17.28
26.95
32.81
35.99
37.83
39.05
39.40
38.06
34.36
28.33
20.91
13.68
8.25
5.68
6.14
9.00
13.18
17.59
21.54
24.85
27.70
30.36
32.91
35.17
36.77
37.44
37.24
36.64
36.26
36.54
37.50
38.66
39.28
38.69
36.64
33.41
29.75
26.54
24.45
23.56
23.41
23.19
22.20
20.21
17.54
14.80
12.46
10.57
8.75
6.51
3.58
0.07
-3.70
-7.54
-11.53
-16.06
-21.39
-27.41
-33.49
-38.72
-42.32
-43.94
-43.85
-42.70
-41.24
-40.01
-39.25
-38.91
-38.69
-38.05
-36.22
-32.30
-25.68
-16.39
-5.37
5.70
15.00
21.32
24.49
25.32
24.94
24.12
22.81
20.35
16.11
10.10
3.25
-2.98
-7.16
-8.51
-7.10
-3.76
0.26
3.69
5.64
5.78
4.50
2.72
1.61
2.06
4.37
8.06
12.04
15.07
16.11
14.67
10.89
5.41
-0.78
-6.66
-11.37
-14.45
-15.89
-16.13
-15.80
-15.52
-15.69
-16.48
-17.89
-19.87
-22.36
-25.26
-28.34
-31.13
-33.04
-33.41
-31.78
-28.10
-22.76
-16.51
-10.23
-4.66
-0.20
3.10
5.42
6.97
7.83
7.94
7.21
5.66
3.52
1.22
-0.79
-2.16
-2.79
-2.81
-2.45
-1.97
-1.48
-0.97
-0.29
0.77
2.41
4.85
8.29
12.79
18.04
23.31
27.42
29.12
27.50
22.48
14.88
6.25
-1.62
-7.31
-10.14
-10.19
-8.16
-4.93
-1.33
2.09
5.05
7.46
9.28
10.46
10.90
10.63
9.96
9.43
9.66
10.97
13.21
15.73
17.77
18.97
19.45
19.69
19.95
19.88
18.54
15.02
9.21
2.07
-4.68
-9.56
-12.12
-13.12
-13.93
-15.51
-17.78
-19.71
-20.09
-18.33
-14.84
-10.64
-6.65
-3.18
0.13
3.70
7.62
11.42
14.39
16.09
16.42
15.48
13.29
9.72
4.64
-1.59
-7.84
-12.34
-13.48
-10.60
-4.33
3.76
12.02
19.52
26.16
32.46
39.02
45.91
52.48
57.66
60.53
60.83
59.01
55.76
51.83
47.95
44.67
42.20
40.38
38.73
36.45
32.43
25.09
13.12
-3.58
-23.51
-43.96
-61.88
-74.97
-82.61
-83.85
-79.65
-72.91
-66.54
-61.47
-56.92
-51.94
-46.43
-41.13
-37.54
-35.67
-34.73
-33.36
-30.35
-25.37
-19.19
-13.10
-8.27
-5.09
-3.52
-3.06
-2.87
-2.38
-1.65
-1.16
-1.20
-1.40
-0.80
1.40
5.00
8.71
10.53
8.72
2.91
-5.41
-13.42
-18.33
-18.76
-15.44
-10.60
-6.79
-5.60
-7.09
-9.99
-12.59
-13.63
-12.73
-10.18
-6.45
-1.73
4.11
11.32
19.92
29.49
39.17
47.93
54.75
58.95
60.35
59.39
57.10
54.84
53.90
55.07
58.49
63.67
69.62
74.96
78.16
77.86
73.22
64.34
52.25
38.58
25.04
12.80
2.34
-6.37
-13.43
-18.66
-21.59
-21.74
-19.12
-14.45
-9.02
-4.36
-1.68
-1.59
-4.01
-8.26
-13.40
-18.60
-23.33
-27.48
-31.18
-34.58
-37.70
-40.33
-42.20
-43.09
-43.03
-42.23
-41.05
-39.84
-38.87
-38.25
-37.92
-37.66
-37.28
-36.77
-36.31
-36.17
-36.58
-37.52
-38.71
-39.64
-39.84
-39.05
-37.53
-35.83
-34.63
-34.37
-35.14
-36.72
-38.65
-40.53
-42.16
-43.78
-45.79
-48.44
-51.61
-54.85
-57.56
-59.17
-59.17
-57.04
-52.51
-45.28
-35.40
-23.42
-10.57
1.43
11.14
18.06
23.99
30.28
37.55
45.19
51.97
57.36
61.24
64.04
65.71
66.57
66.73
66.22
65.05
63.23
60.87
57.99
54.75
51.31
47.98
44.80
41.75
38.75
35.75
32.74
29.64
26.34
22.68
18.63
14.11
9.27
4.56
0.76
-1.15
-0.51
2.77
7.89
13.34
17.35
18.68
17.14
13.67
9.82
6.91
5.47
5.10
4.82
3.71
1.36
-1.98
-5.56
-8.55
-10.48
-11.30
-11.47
-11.65
-12.34
-13.56
-14.91
-15.78
-15.63
-14.28
-11.84
-8.63
-5.09
-1.91
-0.10
-0.78
-4.68
-11.52
-19.78
-27.10
-31.25
-31.16
-27.36
-21.66
-16.25
-12.75
-11.70
-12.56
-14.26
-15.73
-16.30
-15.84
-14.54
-12.67
-10.37
-7.67
-4.66
-1.64
0.74
1.80
1.16
-0.87
-3.33
-4.98
-4.93
-3.06
-0.05
3.04
5.27
6.20
5.95
4.97
3.73
2.55
1.58
0.91
0.66
0.96
1.92
3.47
5.27
6.80
7.44
6.72
4.55
1.41
-1.74
-3.66
-3.27
0.03
6.10
14.10
22.71
30.51
36.29
39.30
39.36
36.72
31.98
25.94
19.54
13.71
9.09
5.81
3.40
1.04
-1.95
-5.75
-9.86
-13.45
-15.77
-16.56
-16.06
-14.86
-13.46
-12.13
-10.96
-10.04
-9.54
-9.62
-10.26
-11.10
-11.61
-11.23
-9.61
-6.70
-2.64
2.21
7.37
12.22
16.10
18.43
18.96
17.83
15.53
12.64
9.63
6.68
3.75
0.79
-2.02
-4.19
-5.08
-4.22
-1.61
2.20
6.32
9.75
11.65
11.34
8.34
2.41
-6.23
-16.68
-27.33
-36.30
-42.11
-44.35
-43.81
-42.05
-40.57
-40.13
-40.48
-40.75
-39.98
-37.63
-33.63
-28.13
-21.27
-13.13
-3.98
5.53
14.34
21.40
25.99
28.03
27.99
26.57
24.37
21.70
18.67
15.37
12.10
9.35
7.79
7.99
10.19
14.14
19.04
23.79
27.24
28.68
28.02
25.90
23.31
21.19
19.99
19.62
19.61
19.50
19.13
18.69
18.60
19.28
20.91
23.37
26.24
28.95
30.94
31.81
31.41
29.79
27.19
23.86
20.04
15.85
11.30
6.37
1.10
-4.30
-9.53
-14.27
-18.41
-22.16
-25.93
-30.15
-35.02
-40.28
-45.37
-49.65
-52.67
-54.31
-54.67
-53.97
-52.26
-49.52
-45.62
-40.57
-34.56
-27.94
-21.14
-14.51
-8.21
-2.24
3.46
8.88
13.76
17.59
19.66
19.32
16.26
10.68
3.33
-4.72
-12.43
-19.03
-24.21
-27.99
-30.45
-31.59
-31.26
-29.39
-26.21
-22.38
-18.77
-16.11
-14.58
-13.76
-12.99
-11.74
-9.98
-7.92
-5.55
-2.32
2.72
10.18
19.55
28.98
35.92
38.49
36.56
31.92
27.26
24.55
23.97
23.96
22.36
17.92
11.04
3.48
-2.83
-6.87
-8.94
-10.14
-11.47
-13.12
-14.45
-14.44
-12.45
-8.52
-3.36
2.07
7.01
11.15
14.66
17.95
21.35
24.88
28.17
30.57
31.46
30.52
27.93
24.27
20.33
16.78
14.02
12.13
10.96
10.26
9.70
8.96
7.74
5.85
3.24
0.05
-3.47
-7.04
-10.38
-13.21
-15.20
-16.03
-15.46
-13.51
-10.52
-6.95
-3.30
0.12
3.14
5.59
7.22
7.74
6.95
4.99
2.34
-0.34
-2.48
-3.83
-4.49
-4.77
-4.96
-5.25
-5.70
-6.29
-6.92
-7.42
-7.45
-6.73
-5.13
-2.82
-0.39
1.47
2.15
1.47
-0.28
-2.51
-4.56
-5.96
-6.56
-6.40
-5.69
-4.78
-4.07
-4.07
-5.14
-7.24
-9.82
-11.90
-12.59
-11.62
-9.61
-7.95
-8.06
-10.64
-15.24
-20.24
-23.60
-23.70
-20.07
-13.60
-6.18
0.05
3.61
4.20
2.63
0.15
-2.21
-4.22
-6.29
-9.01
-12.58
-16.59
-20.26
-22.87
-24.01
-23.48
-21.13
-16.75
-10.23
-1.93
7.17
15.73
22.52
26.97
29.29
30.16
30.24
29.91
29.24
28.20
26.83
25.35
23.99
22.82
21.74
20.54
19.09
17.36
15.47
13.64
12.06
10.84
9.98
9.32
8.57
7.44
5.77
3.66
1.43
-0.42
-1.39
-1.23
0.03
2.02
4.21
6.12
7.44
8.18
8.52
8.77
9.18
9.83
10.63
11.42
12.04
12.41
12.54
12.53
12.48
12.47
12.56
12.79
13.17
13.66
14.17
14.58
14.74
14.57
14.07
13.28
12.30
11.16
9.90
8.53
7.11
5.78
4.73
4.17
4.22
4.89
6.02
7.37
8.68
9.77
10.62
11.24
11.72
12.09
12.34
12.43
12.34
12.08
11.69
11.24
10.77
10.31
9.80
9.15
8.29
7.18
5.84
4.36
2.84
1.33
-0.19
-1.85
-3.75
-5.88
-8.04
-9.91
-11.17
-11.63
-11.39
-10.75
-10.11
-9.80
-9.92
-10.37
-10.97
-11.58
-12.19
-12.91
-13.88
-15.07
-16.28
-17.23
-17.69
-17.67
-17.38
-17.11
-17.08
-17.29
-17.58
-17.71
-17.58
-17.24
-16.86
-16.58
-16.44
-16.32
-16.06
-15.58
-14.88
-14.07
-13.27
-12.57
-12.02
-11.62
-11.38
-11.25
-11.15
-10.94
-10.43
-9.49
-8.10
-6.42
-4.69
-3.20
-2.17
-1.67
-1.66
-1.94
-2.34
-2.67
-2.84
-2.84
-2.66
-2.34
-1.89
-1.34
-0.77
-0.29
0.01
0.08
-0.03
-0.21
-0.33
-0.33
-0.21
-0.07
0.01
-0.04
-0.21
-0.43
-0.61
-0.65
-0.46
0.02
0.83
1.97
3.35
4.83
6.27
7.50
8.41
8.93
9.04
8.75
8.04
6.89
5.26
3.16
0.66
-2.06
-4.69
-6.91
-8.46
-9.28
-9.54
-9.57
-9.74
-10.28
-11.24
-12.43
-13.60
-14.55
-15.23
-15.72
-16.17
-16.66
-17.13
-17.42
-17.32
-16.65
-15.37
-13.53
-11.32
-8.93
-6.60
-4.46
-2.63
-1.12
0.10
1.07
1.78
2.24
2.47
2.55
2.63
2.85
3.28
3.88
4.48
4.86
4.89
4.57
4.04
3.50
3.10
2.90
2.82
2.72
2.41
1.77
0.77
-0.54
-1.97
-3.27
-4.21
-4.60
-4.36
-3.53
-2.26
-0.76
0.72
1.96
2.85
3.42
3.77
4.11
4.52
5.03
5.50
5.77
5.75
5.46
5.04
4.68
4.49
4.47
4.52
4.49
4.29
3.92
3.41
2.88
2.38
1.90
1.41
0.84
0.13
-0.81
-1.98
-3.36
-4.80
-6.08
-6.92
-7.11
-6.57
-5.41
-3.85
-2.17
-0.58
0.80
1.91
2.72
3.26
3.52
3.59
3.61
3.70
3.94
4.28
4.59
4.71
4.56
4.17
3.69
3.27
3.06
3.08
3.24
3.40
3.38
3.05
2.35
1.37
0.25
-0.85
-1.81
-2.60
-3.28
-3.93
-4.62
-5.31
-5.87
-6.12
-5.87
-5.02
-3.58
-1.70
0.36
2.34
4.03
5.33
6.21
6.76
7.08
7.25
7.35
7.39
7.37
7.25
7.02
6.64
6.11
5.48
4.80
4.18
3.66
3.26
2.95
2.69
2.39
2.00
1.48
0.86
0.18
-0.52
-1.21
-1.95
-2.77
-3.70
-4.67
-5.56
-6.17
-6.30
-5.83
-4.75
-3.17
-1.27
0.67
2.42
3.77
4.62
4.97
4.90
4.51
3.92
3.20
2.48
1.84
1.39
1.19
1.20
1.31
1.36
1.22
0.85
0.30
-0.33
-0.90
-1.34
-1.65
-1.87
-2.12
-2.52
-3.16
-4.04
-5.07
-6.05
-6.75
-6.99
-6.64
-5.74
-4.39
-2.73
-0.92
0.88
2.49
3.78
4.67
5.15
5.30
5.23
5.03
4.73
4.36
3.94
3.53
3.19
2.97
2.81
2.65
2.39
1.98
1.46
0.94
0.51
0.23
0.09
0.01
-0.17
-0.55
-1.24
-2.21
-3.35
-4.42
-5.15
-5.29
-4.73
-3.53
-1.92
-0.18
1.43
2.80
3.92
4.86
5.66
6.30
6.70
6.84
6.79
6.69
6.71
6.93
7.26
7.52
7.53
7.18
6.54
5.79
5.13
4.67
4.41
4.29
4.16
3.98
3.73
3.43
3.15
2.91
2.71
2.55
2.45
2.44
2.60
2.96
3.46
3.96
4.21
4.03
3.32
2.16
0.74
-0.74
-2.10
-3.30
-4.33
-5.22
-5.90
-6.27
-6.23
-5.81
-5.13
-4.44
-3.94
-3.75
-3.82
-4.00
-4.09
-4.01
-3.80
-3.61
-3.57
-3.77
-4.12
-4.52
-4.85
-5.11
-5.37
-5.72
-6.13
-6.49
-6.53
-6.06
-5.02
-3.53
-1.89
-0.40
0.74
1.49
2.00
2.46
3.05
3.83
4.67
5.41
5.86
5.94
5.70
5.28
4.78
4.22
3.53
2.58
1.33
-0.15
-1.69
-3.09
-4.30
-5.41
-6.67
-8.29
-10.38
-12.79
-15.25
-17.48
-19.34
-20.78
-21.76
-22.06
-21.23
-18.81
-14.59
-8.85
-2.36
3.88
8.98
12.47
14.38
15.11
15.11
14.63
13.70
12.21
10.12
7.58
5.04
3.02
1.96
1.97
2.79
3.84
4.51
4.40
3.43
1.85
0.02
-1.80
-3.51
-5.14
-6.74
-8.28
-9.67
-10.91
-12.12
-13.55
-15.42
-17.71
-20.14
-22.13
-23.11
-22.70
-20.92
-18.14
-14.95
-11.93
-9.44
-7.59
-6.22
-4.97
-3.42
-1.14
2.03
5.79
9.38
11.79
12.21
10.54
7.62
4.83
3.48
3.93
5.37
6.19
4.82
0.54
-6.25
-14.32
-22.25
-28.73
-32.75
-33.59
-30.98
-25.54
-18.93
-13.46
-11.19
-12.92
-17.69
-23.19
-26.87
-27.15
-23.93
-18.30
-11.73
-5.32
0.45
5.62
10.40
15.03
19.71
24.52
29.42
34.06
37.90
40.41
41.39
41.01
39.80
38.24
36.61
34.85
32.79
30.48
28.37
27.24
27.73
29.91
32.97
35.48
35.90
33.31
27.82
20.53
12.99
6.48
1.61
-1.81
-4.36
-6.58
-8.61
-10.18
-10.86
-10.40
-8.85
-6.60
-4.20
-2.14
-0.79
-0.24
-0.35
-0.79
-1.06
-0.69
0.63
2.89
5.78
8.81
11.50
13.56
14.86
15.35
14.99
13.76
11.84
9.85
8.75
9.59
12.90
18.24
24.22
29.02
31.11
29.98
26.32
21.57
17.28
14.40
13.14
13.08
13.55
13.86
13.30
11.09
6.49
-0.90
-10.58
-21.07
-30.21
-35.99
-37.43
-34.87
-29.68
-23.53
-17.57
-12.22
-7.51
-3.62
-1.26
-1.44
-4.79
-11.01
-18.53
-24.92
-27.82
-25.79
-18.88
-8.71
2.05
10.41
13.90
11.31
3.15
-8.51
-20.55
-29.83
-34.27
-33.49
-28.86
-22.87
-18.08
-16.17
-17.47
-21.14
-25.83
-30.31
-33.80
-35.89
-36.21
-34.26
-29.49
-21.75
-11.70
-0.82
9.03
16.36
20.74
22.90
24.27
26.11
28.84
31.83
33.82
33.59
30.63
25.33
18.77
12.23
6.74
2.81
0.42
-0.79
-1.35
-1.76
-2.39
-3.46
-5.08
-7.17
-9.56
-11.95
-13.99
-15.36
-15.90
-15.63
-14.82
-13.82
-13.01
-12.60
-12.61
-12.85
-13.03
-12.88
-12.21
-10.99
-9.33
-7.49
-5.78
-4.46
-3.65
-3.23
-2.93
-2.40
-1.36
0.28
2.30
4.30
5.84
6.60
6.54
5.89
5.05
4.40
4.23
4.56
5.26
6.03
6.56
6.59
5.99
4.79
3.13
1.27
-0.51
-1.94
-2.85
-3.19
-3.00
-2.40
-1.50
-0.35
1.05
2.75
4.77
6.98
9.15
10.92
11.95
11.97
10.94
9.00
6.47
3.70
1.07
-1.17
-2.88
-4.11
-5.01
-5.81
-6.74
-7.92
-9.32
-10.76
-11.94
-12.55
-12.38
-11.43
-9.96
-8.37
-7.07
-6.30
-5.98
-5.80
-5.35
-4.33
-2.67
-0.57
1.69
3.85
5.81
7.60
9.31
10.97
12.49
13.74
14.63
15.11
15.26
15.20
15.03
14.76
14.36
13.73
12.80
11.58
10.19
8.81
7.63
6.79
6.32
6.11
5.98
5.68
4.98
3.70
1.81
-0.61
-3.31
-5.98
-8.26
-9.89
-10.76
-10.93
-10.61
-10.07
-9.54
-9.16
-8.95
-8.88
-8.93
-9.18
-9.75
-10.78
-12.34
-14.41
-16.85
-19.38
-21.67
-23.25
-23.66
-22.52
-19.75
-15.64
-10.82
-6.11
-2.17
0.61
2.19
2.74
2.43
1.30
-0.67
-3.46
-6.87
-10.56
-14.14
-17.27
-19.69
-21.19
-21.50
-20.30
-17.34
-12.51
-5.98
1.80
10.23
18.64
26.43
33.10
38.30
41.82
43.54
43.54
41.95
39.07
35.25
30.90
26.35
21.86
17.52
13.31
9.18
5.10
1.18
-2.43
-5.59
-8.29
-10.62
-12.76
-14.84
-16.90
-18.89
-20.75
-22.44
-23.98
-25.46
-26.89
-28.22
-29.29
-29.91
-29.85
-28.95
-27.10
-24.30
-20.63
-16.27
-11.50
-6.65
-2.03
2.12
5.76
8.99
12.06
15.17
18.38
21.58
24.50
26.91
28.72
30.06
31.20
32.46
34.02
35.88
37.88
39.77
41.30
42.30
42.67
42.45
41.78
40.81
39.67
38.35
36.67
34.32
31.07
26.87
22.02
17.03
12.50
8.81
6.01
3.88
2.06
0.25
-1.59
-3.34
-4.71
-5.32
-4.78
-2.79
0.65
5.06
9.46
12.58
13.39
11.55
7.60
2.74
-1.73
-4.97
-6.88
-7.91
-8.65
-9.42
-10.15
-10.54
-10.41
-9.88
-9.37
-9.36
-10.12
-11.59
-13.39
-15.03
-16.12
-16.49
-16.26
-15.64
-14.86
-14.05
-13.20
-12.23
-11.10
-9.80
-8.41
-7.02
-5.75
-4.68
-3.88
-3.34
-2.97
-2.67
-2.34
-1.92
-1.46
-1.06
-0.83
-0.83
-1.01
-1.31
-1.60
-1.84
-2.02
-2.19
-2.43
-2.78
-3.26
-3.86
-4.56
-5.37
-6.26
-7.18
-8.03
-8.62
-8.79
-8.38
-7.34
-5.74
-3.82
-1.84
-0.10
1.22
2.08
2.54
2.79
3.00
3.32
3.77
4.28
4.71
4.92
4.81
4.39
3.74
2.98
2.23
1.56
1.03
0.62
0.32
0.07
-0.22
-0.60
-1.11
-1.75
-2.43
-3.06
-3.60
-4.06
-4.54
-5.14
-5.89
-6.72
-7.41
-7.71
-7.44
-6.56
-5.22
-3.64
-2.10
-0.71
0.49
1.55
2.51
3.35
3.95
4.24
4.20
3.92
3.59
3.34
3.23
3.20
3.14
2.94
2.59
2.14
1.67
1.23
0.82
0.41
-0.05
-0.57
-1.16
-1.83
-2.53
-3.27
-4.04
-4.86
-5.76
-6.75
-7.76
-8.62
-9.08
-8.93
-8.07
-6.64
-4.92
-3.22
-1.75
-0.57
0.38
1.19
1.87
2.40
2.71
2.82
2.82
2.85
2.98
3.22
3.44
3.52
3.37
3.01
2.52
2.00
1.53
1.15
0.85
0.60
0.39
0.20
0.01
-0.23
-0.59
-1.11
-1.84
-2.75
-3.77
-4.80
-5.71
-6.40
-6.80
-6.85
-6.48
-5.60
-4.16
-2.22
-0.02
2.10
3.78
4.77
5.02
4.68
3.97
3.13
2.32
1.66
1.24
1.15
1.36
1.79
2.27
2.61
2.69
2.51
2.17
1.78
1.45
1.22
1.11
1.10
1.15
1.20
1.15
0.90
0.38
-0.45
-1.55
-2.77
-3.91
-4.68
-4.86
-4.35
-3.26
-1.86
-0.48
0.61
1.32
1.70
1.92
2.09
2.25
2.40
2.48
2.50
2.44
2.30
2.07
1.75
1.32
0.84
0.40
0.06
-0.18
-0.35
-0.50
-0.68
-0.91
-1.18
-1.49
-1.85
-2.29
-2.86
-3.57
-4.43
-5.38
-6.33
-7.14
-7.66
-7.73
-7.24
-6.20
-4.74
-3.08
-1.43
0.06
1.35
2.44
3.35
4.03
4.43
4.47
4.20
3.76
3.36
3.16
3.24
3.51
3.81
3.95
3.79
3.32
2.61
1.75
0.89
0.11
-0.57
-1.17
-1.75
-2.40
-3.18
-4.12
-5.19
-6.25
-7.09
-7.46
-7.15
-6.09
-4.39
-2.27
-0.07
1.94
3.63
4.98
6.09
7.06
7.98
8.82
9.53
10.05
10.35
10.45
10.39
10.19
9.84
9.30
8.55
7.61
6.53
5.29
3.87
2.19
0.27
-1.73
-3.56
-4.97
-5.92
-6.69
-7.78
-9.72
-12.78
-16.78
-21.10
-24.98
-27.68
-28.75
-28.00
-25.52
-21.63
-16.91
-12.16
-8.30
-6.18
-6.21
-8.22
-11.57
-15.43
-18.99
-21.50
-22.09
-19.97
-14.74
-6.70
3.02
12.51
19.72
23.10
22.02
16.87
8.75
-0.68
-9.28
-14.70
-15.00
-9.43
1.00
13.88
26.38
36.04
41.62
43.14
41.41
37.34
31.46
24.13
15.06
5.74
-1.33
-3.94
-1.39
4.99
13.34
22.02
29.42
34.63
37.74
39.26
39.82
40.01
40.26
40.82
41.59
42.17
42.16
41.35
39.61
36.91
33.35
29.12
24.53
19.88
15.48
11.73
9.14
8.02
8.31
9.50
10.62
10.42
7.62
1.23
-9.05
-22.72
-38.48
-54.48
-68.64
-79.07
-84.46
-84.43
-79.40
-70.35
-58.36
-44.44
-29.51
-14.52
-0.62
10.87
18.73
22.24
21.44
17.18
10.76
3.42
-3.92
-10.75
-16.75
-21.55
-24.67
-25.59
-24.09
-20.31
-14.81
-8.36
-1.72
4.46
9.68
13.60
16.11
17.39
17.88
18.18
18.75
19.73
20.92
21.88
22.14
21.26
18.80
14.37
7.85
-0.45
-9.67
-18.69
-26.59
-33.01
-38.21
-42.55
-46.06
-48.15
-47.97
-44.97
-39.41
-32.32
-25.04
-18.61
-13.44
-9.46
-6.53
-4.71
-4.29
-5.44
-7.88
-10.88
-13.47
-14.90
-14.83
-13.47
-11.30
-8.89
-6.65
-4.82
-3.49
-2.68
-2.43
-2.77
-3.79
-5.57
-8.14
-11.38
-15.01
-18.52
-21.38
-23.14
-23.57
-22.79
-21.13
-19.03
-16.83
-14.63
-12.34
-9.81
-7.01
-4.07
-1.28
1.24
3.52
5.82
8.38
11.29
14.39
17.43
20.19
22.66
24.99
27.33
29.69
31.93
33.79
35.10
35.80
35.99
35.85
35.52
35.10
34.56
33.79
32.65
31.05
29.03
26.79
24.65
22.96
22.03
22.00
22.82
24.14
25.42
26.10
25.85
24.83
23.64
23.09
23.71
25.28
26.72
26.34
22.54
14.45
2.25
-12.87
-29.08
-44.42
-57.10
-65.76
-69.59
-68.54
-63.26
-54.99
-45.22
-35.39
-26.63
-19.62
-14.70
-11.89
-11.05
-11.94
-14.32
-18.00
-22.89
-28.95
-36.02
-43.52
-50.43
-55.31
-56.83
-54.23
-47.75
-38.63
-28.70
-19.73
-12.76
-7.78
-3.90
0.15
5.31
11.88
19.39
26.80
32.73
35.73
34.80
29.83
21.74
12.31
3.74
-2.11
-4.38
-3.59
-1.43
0.40
1.25
1.63
2.62
5.22
9.69
15.29
20.58
23.82
24.13
22.16
19.33
16.82
15.14
14.01
12.64
9.87
4.26
-4.98
-16.86
-29.03
-38.25
-40.91
-33.76
-15.09
15.74
54.04
91.24
120.32
138.79
147.19
146.24
135.79
115.80
88.04
57.96
29.37
6.63
-7.52
-13.28
-13.26
-10.63
-7.81
-5.96
-5.65
-6.64
-8.69
-12.19
-18.03
-26.84
-38.16
-50.31
-60.89
-67.81
-70.02
-67.27
-60.51
-51.58
-42.51
-34.74
-28.91
-24.95
-22.52
-21.25
-20.52
-19.71
-18.34
-16.00
-12.46
-7.75
-2.32
2.95
6.99
9.02
8.77
6.53
3.06
-0.68
-3.87
-6.03
-7.13
-7.49
-7.50
-7.47
-7.54
-7.68
-7.78
-7.76
-7.60
-7.33
-7.03
-6.76
-6.51
-6.23
-5.93
-5.69
-5.68
-6.10
-7.07
-8.53
-10.20
-11.65
-12.37
-11.97
-10.23
-7.24
-3.32
1.01
5.17
8.72
11.41
13.28
14.55
15.48
16.20
16.69
16.82
16.46
15.61
14.38
13.00
11.66
10.47
9.41
8.39
7.32
6.14
4.87
3.56
2.28
1.07
-0.08
-1.23
-2.46
-3.87
-5.49
-7.26
-9.00
-10.46
-11.35
-11.43
-10.59
-8.87
-6.47
-3.69
-0.87
1.66
3.73
5.29
6.42
7.28
7.98
8.55
8.89
8.91
8.56
7.90
7.15
6.49
6.05
5.82
5.67
5.44
5.04
4.49
3.87
3.29
2.79
2.34
1.85
1.22
0.37
-0.74
-2.05
-3.50
-4.99
-6.48
-7.89
-9.12
-9.96
-10.16
-9.46
-7.76
-5.20
-2.19
0.71
3.00
4.47
5.22
5.60
6.00
6.67
7.60
8.61
9.46
9.99
10.17
10.05
9.73
9.29
8.78
8.24
7.72
7.26
6.82
6.37
5.81
5.06
4.12
2.99
1.74
0.46
-0.78
-1.95
-2.99
-3.93
-4.84
-5.82
-6.97
-8.35
-9.86
-11.24
-12.14
-12.23
-11.31
-9.40
-6.81
-3.97
-1.36
0.73
2.22
3.22
3.94
4.55
5.13
5.72
6.29
6.81
7.27
7.61
7.75
7.58
7.07
6.25
5.29
4.36
3.61
3.05
2.61
2.15
1.54
0.70
-0.36
-1.60
-2.90
-4.16
-5.26
-6.15
-6.84
-7.46
-8.17
-9.12
-10.37
-11.78
-13.06
-13.83
-13.73
-12.61
-10.53
-7.73
-4.57
-1.46
1.30
3.49
5.07
6.15
6.89
7.51
8.10
8.63
8.98
9.02
8.68
8.08
7.42
6.87
6.53
6.35
6.18
5.88
5.36
4.63
3.76
2.85
2.00
1.24
0.61
0.06
-0.46
-1.01
-1.69
-2.53
-3.55
-4.73
-5.92
-6.94
-7.52
-7.43
-6.58
-5.04
-3.09
-1.12
0.56
1.80
2.62
3.17
3.61
4.02
4.33
4.45
4.33
3.97
3.49
2.98
2.52
2.11
1.71
1.30
0.93
0.67
0.56
0.57
0.61
0.56
0.38
0.10
-0.16
-0.33
-0.46
-0.66
-1.14
-2.01
-3.29
-4.88
-6.66
-8.46
-10.14
-11.52
-12.34
-12.36
-11.41
-9.51
-6.93
-4.12
-1.55
0.46
1.83
2.69
3.28
3.77
4.16
4.33
4.08
3.36
2.27
1.06
-0.01
-0.75
-1.14
-1.28
-1.33
-1.45
-1.69
-2.00
-2.25
-2.34
-2.22
-1.94
-1.70
-1.69
-2.06
-2.79
-3.75
-4.71
-5.44
-5.81
-5.64
-4.71
-2.77
0.36
4.59
9.52
14.54
19.09
22.85
25.80
28.05
29.62
30.24
29.44
26.74
21.99
15.56
8.29
1.26
-4.57
-8.62
-10.81
-11.48
-11.14
-10.27
-9.20
-8.07
-6.96
-5.98
-5.33
-5.23
-5.82
-6.97
-8.33
-9.48
-10.04
-9.92
-9.31
-8.65
-8.40
-8.83
-9.92
-11.29
-12.37
-12.65
-11.81
-9.91
-7.32
-4.56
-2.11
-0.28
0.92
1.67
2.24
2.80
3.44
4.07
4.58
4.91
5.03
5.02
4.93
4.82
4.68
4.50
4.26
3.98
3.69
3.41
3.18
2.95
2.65
2.14
1.31
0.11
-1.38
-2.98
-4.51
-5.87
-7.06
-8.18
-9.27
-10.22
-10.76
-10.54
-9.35
-7.25
-4.59
-1.88
0.43
2.13
3.26
4.07
4.79
5.52
6.21
6.72
6.92
6.80
6.40
5.82
5.12
4.33
3.47
2.60
1.80
1.15
0.66
0.27
-0.15
-0.71
-1.49
-2.50
-3.70
-5.01
-6.38
-7.74
-9.08
-10.41
-11.73
-12.99
-14.00
-14.51
-14.17
-12.77
-10.37
-7.35
-4.33
-1.98
-0.71
-0.52
-1.03
-1.66
-1.93
-1.71
-1.26
-1.06
-1.58
-2.98
-5.02
-7.12
-8.66
-9.26
-8.97
-8.37
-8.29
-9.46
-12.12
-15.85
-19.80
-23.04
-25.08
-26.04
-26.61
-27.77
-30.48
-35.47
-43.03
-52.84
-63.65
-73.14
-77.88
-74.33
-60.31
-36.34
-6.05
24.63
49.60
64.71
69.01
64.88
56.23
46.40
37.10
28.45
19.87
11.37
3.66
-2.43
-6.02
-7.32
-7.65
-8.40
-9.72
-10.36
-7.66
0.51
14.34
32.63
52.44
69.97
82.13
87.82
87.68
84.44
80.88
78.79
79.99
85.15
93.51
103.24
112.43
119.16
123.23
125.10
117.83
98.35
69.02
36.33
6.42
-14.34
-28.39
-37.98
-44.14
-47.14
-47.16
-44.35
-40.22
-37.22
-37.43
-42.07
-49.94
-59.02
-67.43
-72.95
-74.23
-71.34
-65.40
-57.84
-50.32
-43.53
-38.00
-34.17
-31.64
-29.61
-27.49
-24.98
-22.05
-19.14
-16.45
-14.35
-13.24
-12.95
-13.00
-12.83
-12.04
-10.47
-8.33
-5.86
-3.42
-1.38
0.17
1.33
2.27
3.13
3.99
4.88
5.93
7.23
8.82
10.66
12.55
14.26
15.51
16.19
16.37
16.30
16.23
16.29
16.43
16.42
15.97
14.91
13.20
10.95
8.35
5.54
2.63
-0.25
-2.95
-5.25
-6.95
-7.95
-8.32
-8.31
-8.18
-8.17
-8.35
-8.65
-8.91
-8.95
-8.65
-7.95
-6.83
-5.31
-3.41
-1.26
0.95
2.99
4.68
5.94
6.86
7.62
8.37
9.11
9.62
9.59
8.81
7.26
5.19
2.98
0.95
-0.74
-2.10
-3.20
-4.05
-4.53
-4.52
-4.01
-3.16
-2.31
-1.85
-2.04
-2.90
-4.18
-5.46
-6.31
-6.39
-5.62
-4.12
-2.13
0.07
2.29
4.44
6.56
8.71
10.91
13.10
15.17
16.94
18.29
19.17
19.60
19.72
19.70
19.73
19.92
20.26
20.64
20.78
20.36
19.09
16.84
13.64
9.75
5.59
1.61
-1.82
-4.47
-6.33
-7.64
-8.82
-10.37
-12.65
-15.72
-19.29
-22.76
-25.49
-26.96
-27.05
-25.93
-23.99
-21.66
-19.28
-17.13
-15.44
-14.45
-14.32
-15.04
-16.37
-17.84
-18.91
-19.19
-18.59
-17.29
-15.66
-14.03
-12.54
-11.13
-9.65
-7.97
-6.12
-4.26
-2.58
-1.20
-0.06
1.03
2.32
3.98
6.07
8.53
11.19
13.79
16.06
17.71
18.55
18.55
17.92
17.08
16.58
16.96
18.54
21.31
24.88
28.47
31.15
32.01
30.47
26.48
20.57
13.68
6.93
1.24
-2.83
-5.23
-6.27
-6.43
-6.20
-5.95
-5.88
-6.08
-6.54
-7.25
-8.14
-9.18
-10.31
-11.51
-12.79
-14.22
-15.89
-17.84
-19.98
-22.10
-23.88
-25.02
-25.30
-24.71
-23.43
-21.70
-19.80
-17.92
-16.13
-14.41
-12.74
-11.11
-9.55
-8.11
-6.80
-5.61
-4.48
-3.34
-2.17
-0.98
0.17
1.26
2.29
3.25
4.10
4.76
5.09
4.97
4.37
3.36
2.13
0.89
-0.16
-0.90
-1.30
-1.41
-1.30
-1.09
-0.87
-0.74
-0.81
-1.13
-1.70
-2.38
-2.96
-3.18
-2.86
-1.99
-0.78
0.47
1.43
1.92
1.97
1.77
1.57
1.57
1.81
2.24
2.75
3.28
3.76
4.12
4.31
4.26
3.99
3.62
3.31
3.21
3.33
3.58
3.79
3.83
3.67
3.39
3.11
2.92
2.82
2.74
2.57
2.19
1.49
0.38
-1.16
-3.02
-4.94
-6.59
-7.62
-7.85
-7.27
-6.08
-4.52
-2.84
-1.18
0.40
1.85
3.15
4.27
5.19
5.92
6.48
6.85
6.94
6.62
5.78
4.35
2.41
0.14
-2.20
-4.36
-6.14
-7.44
-8.28
-8.77
-9.05
-9.27
-9.49
-9.75
-10.04
-10.36
-10.71
-11.13
-11.58
-12.06
-12.51
-12.89
-13.22
-13.49
-13.68
-13.73
-13.50
-12.84
-11.65
-9.96
-7.91
-5.75
-3.73
-2.02
-0.68
0.33
1.16
1.94
2.75
3.59
4.41
5.14
5.73
6.17
6.46
6.59
6.54
6.32
5.98
5.62
5.32
5.14
5.04
4.95
4.78
4.46
3.99
3.36
2.59
1.68
0.63
-0.51
-1.69
-2.84
-3.93
-4.91
-5.73
-6.26
-6.38
-5.92
-4.86
-3.27
-1.38
0.55
2.25
3.57
4.49
5.12
5.64
6.23
6.96
7.76
8.46
8.91
9.05
8.95
8.74
8.58
8.51
8.46
8.29
7.88
7.25
6.52
5.87
5.39
5.11
4.96
4.81
4.53
4.07
3.43
2.67
1.78
0.75
-0.31
-1.22
-1.71
-1.63
-0.85
0.69
2.98
5.68
8.51
11.34
14.24
17.32
20.42
23.31
25.74
27.57
28.56
28.81
28.85
29.30
30.41
31.58
31.75
29.79
24.91
16.48
4.63
-9.45
-23.83
-36.34
-45.44
-50.15
-50.09
-43.18
-29.48
-11.90
5.08
17.39
24.64
27.13
25.43
20.19
12.64
3.86
-5.02
-13.02
-19.43
-23.87
-26.60
-27.90
-27.92
-26.78
-25.03
-23.23
-21.55
-19.84
-17.74
-15.21
-12.38
-9.47
-6.78
-4.73
-3.54
-3.06
-2.81
-2.29
-1.37
-0.13
1.21
2.43
3.24
3.53
3.37
2.95
2.50
2.07
1.66
1.25
0.83
0.34
-0.21
-0.80
-1.39
-1.97
-2.62
-3.43
-4.42
-5.49
-6.41
-6.86
-6.60
-5.54
-3.81
-1.70
0.45
2.36
3.93
5.18
6.20
7.08
7.86
8.51
8.99
9.26
9.35
9.29
9.16
8.97
8.71
8.34
7.86
7.31
6.81
6.49
6.39
6.44
6.42
6.07
5.24
3.96
2.42
0.92
-0.30
-1.17
-1.76
-2.25
-2.83
-3.66
-4.79
-6.20
-7.76
-9.23
-10.31
-10.70
-10.21
-8.85
-6.84
-4.53
-2.30
-0.41
1.01
2.03
2.77
3.39
4.04
4.77
5.53
6.22
6.68
6.79
6.53
5.99
5.36
4.82
4.46
4.30
4.28
4.31
4.33
4.31
4.22
3.99
3.55
2.84
1.86
0.73
-0.41
-1.41
-2.21
-2.81
-3.36
-4.03
-5.01
-6.38
-8.06
-9.82
-11.30
-12.14
-12.12
-11.20
-9.55
-7.46
-5.24
-3.14
-1.33
0.12
1.24
2.11
2.85
3.56
4.29
4.98
5.52
5.78
5.71
5.34
4.83
4.36
4.07
3.96
3.92
3.81
3.52
3.05
2.50
1.97
1.53
1.14
0.69
0.06
-0.76
-1.73
-2.74
-3.72
-4.68
-5.67
-6.74
-7.82
-8.75
-9.30
-9.28
-8.59
-7.30
-5.60
-3.74
-1.92
-0.29
1.12
2.28
3.23
3.97
4.52
4.94
5.33
5.74
6.16
6.55
6.77
6.76
6.51
6.13
5.72
5.37
5.06
4.68
4.12
3.29
2.21
0.99
-0.26
-1.40
-2.39
-3.24
-4.04
-4.90
-5.90
-7.05
-8.23
-9.23
-9.79
-9.71
-8.92
-7.49
-5.65
-3.70
-1.90
-0.45
0.64
1.45
2.17
2.92
3.77
4.66
5.48
6.07
6.35
6.33
6.09
5.74
5.34
4.95
4.61
4.31
4.01
3.69
3.30
2.81
2.19
1.46
0.65
-0.18
-0.97
-1.68
-2.33
-2.95
-3.64
-4.48
-5.51
-6.68
-7.87
-8.92
-9.64
-9.86
-9.48
-8.43
-6.74
-4.56
-2.12
0.28
2.31
3.80
4.67
5.06
5.17
5.27
5.51
5.95
6.50
6.99
7.25
7.19
6.82
6.26
5.71
5.32
5.17
5.20
5.27
5.19
4.76
3.91
2.71
1.31
-0.04
-1.15
-1.94
-2.44
-2.83
-3.32
-4.07
-5.15
-6.54
-8.10
-9.62
-10.85
-11.51
-11.39
-10.40
-8.61
-6.25
-3.68
-1.23
0.86
2.52
3.83
4.94
6.00
7.12
8.30
9.49
10.58
11.47
12.06
12.35
12.45
12.53
12.81
13.42
14.37
15.56
16.82
17.98
18.91
19.50
19.65
19.23
18.17
16.45
14.19
11.57
8.85
6.25
3.93
1.98
0.47
-0.52
-0.89
-0.49
0.73
2.69
5.08
7.51
9.53
10.85
11.40
11.30
10.75
9.86
8.58
6.74
4.21
1.05
-2.45
-5.83
-8.64
-10.62
-11.73
-12.11
-12.02
-11.66
-11.19
-10.73
-10.37
-10.21
-10.29
-10.58
-10.96
-11.29
-11.48
-11.55
-11.60
-11.81
-12.31
-13.12
-14.15
-15.24
-16.17
-16.73
-16.71
-15.96
-14.37
-12.04
-9.23
-6.38
-3.95
-2.26
-1.35
-0.98
-0.76
-0.33
0.45
1.48
2.54
3.42
4.05
4.43
4.64
4.67
4.51
4.15
3.64
3.14
2.73
2.46
2.19
1.73
0.89
-0.42
-2.08
-3.90
-5.60
-6.97
-7.86
-8.29
-8.41
-8.47
-8.76
-9.52
-10.75
-12.28
-13.69
-14.55
-14.53
-13.51
-11.67
-9.35
-6.94
-4.76
-2.96
-1.56
-0.49
0.32
0.92
1.26
1.32
1.07
0.59
-0.02
-0.65
-1.23
-1.76
-2.27
-2.82
-3.40
-3.98
-4.46
-4.75
-4.85
-4.88
-5.06
-5.65
-6.72
-8.10
-9.42
-10.26
-10.33
-9.62
-8.28
-6.57
-4.62
-2.53
-0.39
1.60
3.11
3.81
3.56
2.47
0.87
-0.81
-2.29
-3.41
-4.15
-4.54
-4.67
-4.65
-4.62
-4.73
-5.10
-5.77
-6.73
-7.86
-8.86
-9.25
-8.49
-6.28
-2.83
1.10
4.46
6.40
6.75
6.07
5.41
5.72
7.44
10.36
13.86
17.26
20.19
22.62
24.76
26.88
29.14
31.54
33.93
36.09
37.80
39.01
39.78
40.27
40.61
40.77
40.55
39.72
38.10
35.76
32.89
29.78
26.61
23.44
20.20
16.83
13.34
9.80
6.33
3.05
-0.03
-2.94
-5.74
-8.48
-11.15
-13.73
-16.19
-18.52
-20.72
-22.76
-24.61
-26.17
-27.37
-28.16
-28.55
-28.68
-28.70
-28.77
-29.00
-29.37
-29.76
-30.02
-30.04
-29.84
-29.54
-29.25
-28.97
-28.47
-27.31
-25.06
-21.42
-16.40
-10.35
-3.79
2.69
8.62
13.68
17.76
20.96
23.53
25.89
28.44
31.42
34.77
38.09
40.75
42.05
41.45
38.71
33.93
27.55
20.26
12.84
5.98
0.08
-4.88
-9.23
-13.47
-17.92
-22.47
-26.65
-29.85
-31.64
-32.07
-31.59
-30.78
-30.04
-29.27
-27.94
-25.43
-21.42
-16.22
-10.66
-5.72
-2.05
0.40
2.32
4.69
8.19
12.89
18.24
23.36
27.57
30.69
33.01
34.95
36.67
37.83
37.69
35.38
30.27
22.34
12.21
1.04
-9.70
-18.65
-24.74
-27.50
-27.06
-24.10
-19.71
-15.11
-11.39
-9.36
-9.36
-11.21
-14.23
-17.35
-19.45
-19.90
-18.93
-17.70
-17.79
-20.41
-25.72
-32.57
-39.04
-43.36
-44.68
-43.31
-40.16
-35.96
-30.71
-23.76
-14.46
-2.88
9.93
22.30
32.60
39.89
44.07
45.57
44.96
42.66
38.96
34.25
29.18
24.65
21.49
20.09
20.13
20.61
20.23
17.84
13.07
6.45
-0.75
-7.03
-11.27
-13.05
-12.72
-11.05
-8.88
-6.81
-5.22
-4.30
-4.22
-5.11
-6.90
-9.28
-11.63
-13.26
-13.56
-12.31
-9.76
-6.52
-3.36
-0.86
0.78
1.86
2.99
4.83
7.76
11.81
16.55
21.27
25.17
27.55
28.03
26.68
24.06
21.04
18.53
17.14
16.97
17.65
18.61
19.41
19.80
19.76
19.15
17.61
14.57
9.53
2.41
-6.30
-15.65
-24.60
-32.36
-38.55
-43.15
-46.25
-47.92
-48.19
-47.21
-45.23
-42.69
-40.01
-37.39
-34.77
-31.92
-28.65
-24.94
-21.03
-17.26
-13.92
-11.11
-8.67
-6.30
-3.62
-0.40
3.45
7.77
12.34
16.97
21.61
26.39
31.39
36.59
41.74
46.46
50.40
53.29
54.94
55.08
53.23
48.86
41.71
32.07
20.83
9.24
-1.63
-11.25
-19.68
-27.37
-34.79
-42.13
-49.23
-55.70
-61.02
-64.58
-65.81
-64.25
-59.74
-52.64
-43.75
-34.19
-25.00
-16.86
-10.01
-4.38
0.19
3.71
6.06
7.03
6.54
4.75
2.11
-0.80
-3.33
-5.07
-5.85
-5.85
-5.48
-5.28
-5.72
-7.01
-9.00
-11.23
-13.00
-13.59
-12.37
-9.08
-3.91
2.41
8.70
13.64
16.25
16.14
13.75
10.12
6.52
3.94
2.77
2.83
3.58
4.44
4.91
4.64
3.46
1.48
-0.89
-3.13
-4.79
-5.71
-5.93
-5.50
-4.17
-1.42
3.14
9.26
15.73
20.77
22.90
21.73
18.11
13.79
10.60
9.73
11.48
15.23
20.16
25.79
32.05
38.69
45.25
51.09
55.61
58.57
59.64
58.79
56.43
53.28
49.68
45.67
41.15
36.02
30.47
24.15
16.84
8.76
0.47
-7.97
-17.07
-27.61
-40.21
-54.61
-70.60
-87.31
-103.09
-112.70
-111.70
-99.21
-78.68
-57.97
-38.91
-22.11
-8.17
2.32
8.40
9.59
6.80
2.41
-0.65
-0.11
3.43
7.35
8.68
5.83
-0.90
-9.19
-15.85
-18.10
-14.52
-6.14
4.69
15.59
24.85
31.47
35.09
35.82
34.16
30.95
26.63
21.60
16.30
11.06
6.09
1.53
-2.41
-5.44
-7.31
-8.53
-10.69
-16.47
-29.19
-51.54
-83.80
-122.54
-160.74
-189.39
-200.41
-189.21
-156.25
-106.98
-50.26
4.02
47.38
74.55
84.35
79.57
65.82
49.70
36.94
30.97
32.43
39.68
49.84
59.93
67.66
71.66
71.51
67.63
61.16
53.82
47.49
43.80
43.55
46.41
50.94
55.02
56.61
54.51
48.76
40.62
32.11
25.11
20.67
18.64
17.83
16.60
13.63
8.45
1.69
-5.31
-11.04
-14.49
-15.44
-14.45
-12.50
-10.68
-9.97
-11.10
-14.46
-19.89
-26.48
-32.57
-36.29
-36.18
-32.02
-25.00
-17.33
-11.27
-8.10
-7.65
-8.50
-8.88
-7.53
-4.26
0.16
4.64
8.38
11.24
13.63
16.11
18.89
21.73
24.17
25.91
27.13
28.42
30.46
33.60
37.52
41.41
44.31
45.61
45.32
44.07
42.74
42.06
42.27
43.07
43.79
43.69
42.28
39.43
35.37
30.51
25.25
19.90
14.66
9.72
5.32
1.78
-0.58
-1.58
-1.31
-0.21
0.95
1.27
-0.12
-3.70
-9.43
-16.70
-24.57
-31.94
-37.76
-41.18
-41.69
-39.26
-34.58
-29.07
-24.58
-22.68
-23.88
-27.41
-31.51
-34.48
-35.47
-34.87
-33.82
-33.34
-33.74
-34.52
-35.03
-35.06
-35.08
-35.88
-37.93
-40.96
-44.06
-46.17
-46.67
-45.61
-43.58
-41.24
-39.03
-36.94
-34.67
-31.78
-27.90
-22.84
-16.65
-9.68
-2.48
4.40
10.61
16.24
21.73
27.59
34.09
40.98
47.63
53.33
57.59
60.39
62.03
62.97
63.55
63.93
64.20
64.42
64.67
64.90
64.95
64.58
63.66
62.27
60.62
58.83
56.72
53.76
49.35
43.17
35.44
26.83
18.21
10.14
2.76
-4.06
-10.25
-15.34
-18.65
-19.84
-19.26
-17.85
-16.72
-16.49
-17.13
-18.36
-20.22
-23.50
-29.45
-38.83
-50.94
-63.33
-72.47
-75.20
-70.16
-58.36
-42.69
-26.68
-13.18
-3.57
2.27
5.32
6.50
6.20
4.33
0.71
-4.49
-10.68
-16.98
-22.51
-26.84
-30.08
-32.68
-35.10
-37.53
-39.82
-41.83
-43.49
-44.77
-45.71
-46.34
-46.34
-45.12
-41.93
-36.39
-28.87
-20.59
-12.95
-7.49
-5.45
-7.47
-13.37
-21.94
-30.76
-37.28
-41.21
-42.47
-41.07
-37.23
-30.74
-22.20
-12.43
-2.12
8.21
18.18
27.60
36.02
42.59
46.47
47.27
45.58
42.82
40.40
39.10
38.90
39.00
38.55
37.32
35.83
35.01
35.45
36.61
36.99
34.98
29.84
22.33
14.49
8.67
6.47
8.07
12.30
17.41
22.05
25.75
28.75
31.39
33.57
34.58
33.59
30.23
24.92
18.87
13.56
10.16
9.21
10.58
13.64
17.40
20.74
22.62
22.32
19.61
14.85
8.88
2.71
-2.81
-7.26
-10.62
-13.11
-14.93
-16.08
-16.38
-15.62
-13.80
-11.32
-8.84
-7.05
-6.47
-7.17
-8.99
-11.60
-14.72
-18.10
-21.37
-24.09
-25.90
-26.89
-27.63
-28.91
-31.11
-33.90
-36.43
-38.04
-38.94
-40.16
-42.86
-47.25
-52.17
-55.59
-55.66
-51.76
-44.60
-35.58
-25.77
-15.45
-4.45
7.11
18.26
27.40
33.10
35.03
34.12
32.10
30.46
29.85
29.92
29.85
29.01
27.28
24.98
22.61
20.51
18.81
17.49
16.56
16.09
16.07
16.30
16.35
15.73
14.13
11.62
8.51
5.18
1.83
-1.52
-4.93
-8.35
-11.57
-14.22
-15.94
-16.46
-15.64
-13.43
-9.94
-5.49
-0.69
3.59
6.55
7.81
7.63
6.79
6.10
5.97
6.16
6.09
5.28
3.73
2.01
0.91
0.97
2.14
3.89
5.48
6.37
6.37
5.59
4.24
2.52
0.56
-1.46
-3.33
-4.86
-6.06
-7.22
-8.79
-11.08
-14.04
-17.17
-19.68
-20.81
-20.23
-18.15
-15.30
-12.62
-10.85
-10.21
-10.39
-10.77
-10.75
-10.08
-8.87
-7.49
-6.32
-5.56
-5.27
-5.47
-6.30
-7.86
-10.11
-12.59
-14.47
-14.93
-13.48
-10.26
-5.81
-0.75
4.41
9.37
13.80
17.29
19.52
20.59
21.13
22.18
24.57
28.37
32.77
36.40
38.09
37.45
34.95
31.57
28.21
25.25
22.63
20.08
17.46
14.91
12.72
11.17
10.40
10.31
10.74
11.51
12.48
13.63
14.93
16.30
17.51
18.18
17.91
16.45
13.79
10.19
6.05
1.79
-2.35
-6.24
-9.92
-13.38
-16.61
-19.53
-22.05
-24.10
-25.68
-26.83
-27.57
-27.98
-28.21
-28.57
-29.43
-31.13
-33.82
-37.28
-40.99
-44.20
-46.13
-46.17
-44.12
-40.20
-35.08
-29.64
-24.75
-21.06
-18.75
-17.61
-17.12
-16.79
-16.36
-15.88
-15.62
-15.81
-16.44
-17.27
-17.94
-18.22
-18.17
-18.14
-18.53
-19.47
-20.61
-21.25
-20.74
-18.82
-15.77
-12.07
-8.04
-3.66
1.28
6.75
12.27
16.88
19.69
20.35
19.29
17.46
15.83
14.95
14.89
15.47
16.58
18.27
20.57
23.30
25.98
28.03
28.99
28.79
27.73
26.28
24.83
23.51
22.22
20.74
18.92
16.75
14.41
12.12
10.04
8.17
6.38
4.45
2.19
-0.43
-3.31
-6.16
-8.63
-10.37
-11.13
-10.83
-9.58
-7.65
-5.37
-3.08
-1.01
0.66
1.83
2.47
2.66
2.63
2.74
3.40
4.84
7.04
9.69
12.37
14.71
16.55
18.03
19.38
20.86
22.57
24.43
26.23
27.70
28.63
28.93
28.66
27.98
27.07
26.03
24.82
23.38
21.66
19.75
17.82
16.03
14.41
12.85
11.18
9.30
7.26
5.24
3.45
2.00
0.90
0.02
-0.79
-1.68
-2.76
-4.12
-5.78
-7.69
-9.72
-11.58
-12.97
-13.53
-13.03
-11.46
-9.09
-6.39
-3.96
-2.28
-1.50
-1.48
-1.87
-2.30
-2.62
-2.87
-3.20
-3.64
-4.12
-4.42
-4.37
-4.01
-3.58
-3.36
-3.57
-4.17
-4.93
-5.53
-5.77
-5.69
-5.51
-5.55
-6.06
-7.08
-8.44
-9.84
-10.97
-11.61
-11.66
-11.10
-10.07
-8.86
-7.89
-7.64
-8.48
-10.45
-13.18
-15.99
-18.16
-19.13
-18.71
-17.06
-14.52
-11.49
-8.31
-5.27
-2.60
-0.54
0.82
1.52
1.74
1.76
1.81
2.03
2.43
2.91
3.37
3.69
3.81
3.75
3.58
3.43
3.46
3.80
4.46
5.37
6.34
7.15
7.71
8.06
8.37
8.83
9.57
10.50
11.47
12.30
12.98
13.61
14.34
15.21
16.16
17.08
17.96
18.94
20.23
21.83
23.41
24.34
23.98
22.03
18.74
14.83
11.15
8.21
5.94
3.87
1.38
-1.81
-5.51
-9.20
-12.30
-14.57
-16.17
-17.61
-19.36
-21.64
-24.29
-26.93
-29.20
-30.97
-32.37
-33.55
-34.52
-35.03
-34.80
-33.72
-32.06
-30.35
-29.12
-28.59
-28.56
-28.62
-28.34
-27.49
-26.04
-24.00
-21.31
-17.88
-13.68
-8.96
-4.19
0.15
3.79
6.77
9.38
11.92
14.58
17.36
20.07
22.46
24.27
25.27
25.31
24.38
22.62
20.23
17.42
14.25
10.73
6.95
3.21
0.09
-1.79
-2.05
-0.79
1.46
4.05
6.51
8.70
10.65
12.26
13.13
12.73
10.80
7.60
3.96
0.73
-1.77
-4.02
-7.05
-11.71
-18.06
-25.16
-31.48
-35.71
-37.39
-37.06
-35.84
-34.76
-34.19
-33.85
-33.10
-31.48
-29.01
-26.13
-23.47
-21.41
-19.98
-18.82
-17.43
-15.44
-12.67
-9.23
-5.37
-1.41
2.44
6.00
9.22
12.05
14.48
16.50
18.09
19.30
20.24
20.98
21.47
21.50
20.80
19.24
17.05
14.82
13.31
13.00
13.85
15.16
15.93
15.33
13.06
9.49
5.47
1.95
-0.32
-0.92
0.25
3.04
7.07
11.79
16.46
20.36
22.98
24.14
24.11
23.39
22.51
21.76
21.20
20.69
20.05
19.15
17.97
16.55
14.92
13.10
11.11
8.99
6.89
5.00
3.49
2.44
1.75
1.18
0.42
-0.74
-2.34
-4.19
-6.00
-7.50
-8.59
-9.38
-10.10
-11.01
-12.22
-13.66
-15.15
-16.41
-17.24
-17.51
-17.19
-16.28
-14.83
-12.90
-10.63
-8.23
-5.94
-3.97
-2.39
-1.15
-0.11
0.88
1.86
2.75
3.49
4.01
4.39
4.70
5.01
5.33
5.61
5.81
5.96
6.14
6.39
6.68
6.91
6.96
6.76
6.33
5.74
5.03
4.24
3.35
2.38
1.43
0.59
-0.06
-0.56
-1.10
-1.86
-2.97
-4.31
-5.61
-6.50
-6.65
-5.96
-4.51
-2.56
-0.42
1.63
3.36
4.72
5.69
6.40
6.95
7.48
8.03
8.62
9.17
9.63
9.93
10.06
10.07
10.03
10.01
10.03
10.09
10.14
10.15
10.13
10.10
10.14
10.29
10.59
11.00
11.45
11.87
12.24
12.60
13.05
13.73
14.67
15.81
16.93
17.78
18.20
18.14
17.77
17.32
16.97
16.80
16.75
16.78
16.85
16.99
17.09
16.85
15.74
13.25
9.18
3.85
-1.94
-7.22
-11.28
-14.01
-15.88
-17.66
-19.96
-22.89
-26.08
-28.86
-30.78
-31.82
-32.51
-33.66
-35.97
-39.73
-44.61
-49.86
-54.53
-57.85
-59.50
-59.62
-58.63
-57.08
-55.43
-54.00
-53.10
-53.03
-53.82
-54.94
-55.05
-52.19
-44.67
-32.10
-16.11
-0.01
12.53
19.17
19.97
17.25
14.25
13.43
15.41
19.13
22.86
25.43
26.85
27.94
29.55
31.87
34.35
36.16
36.81
36.51
36.01
36.18
37.48
39.74
42.23
43.99
44.29
42.90
40.17
36.81
33.56
30.84
28.66
26.65
24.32
21.32
17.63
13.58
9.68
6.36
3.86
2.10
0.77
-0.51
-2.05
-4.01
-6.28
-8.62
-10.70
-12.23
-13.01
-13.01
-12.35
-11.29
-10.14
-9.26
-8.89
-9.12
-9.78
-10.50
-10.89
-10.66
-9.84
-8.70
-7.64
-6.94
-6.63
-6.49
-6.21
-5.54
-4.46
-3.18
-2.00
-1.19
-0.88
-1.03
-1.48
-2.07
-2.65
-3.14
-3.52
-3.77
-3.92
-4.05
-4.31
-4.89
-5.94
-7.47
-9.29
-11.01
-12.11
-12.18
-11.04
-8.86
-6.04
-3.09
-0.42
1.75
3.39
4.65
5.71
6.74
7.84
9.05
10.31
11.45
12.27
12.55
12.13
11.03
9.41
7.55
5.73
4.14
2.86
1.85
1.09
0.51
0.07
-0.33
-0.84
-1.65
-2.89
-4.52
-6.35
-8.09
-9.55
-10.67
-11.60
-12.54
-13.60
-14.68
-15.50
-15.75
-15.25
-14.08
-12.54
-10.96
-9.58
-8.41
-7.26
-5.89
-4.13
-2.04
0.17
2.18
3.78
4.89
5.61
6.14
6.62
7.12
7.54
7.78
7.74
7.46
7.10
6.79
6.64
6.57
6.45
6.12
5.49
4.55
3.39
2.11
0.82
-0.40
-1.46
-2.28
-2.82
-3.15
-3.43
-3.88
-4.67
-5.85
-7.26
-8.62
-9.54
-9.75
-9.10
-7.66
-5.70
-3.55
-1.53
0.15
1.46
2.50
3.41
4.30
5.20
6.03
6.69
7.15
7.42
7.59
7.74
7.91
8.06
8.14
8.08
7.90
7.62
7.33
7.09
6.94
6.86
6.81
6.69
6.40
5.93
5.31
4.65
4.11
3.78
3.67
3.70
3.71
3.54
3.10
2.37
1.42
0.41
-0.53
-1.27
-1.78
-2.11
-2.36
-2.69
-3.18
-3.87
-4.70
-5.52
-6.19
-6.65
-6.92
-7.14
-7.50
-8.16
-9.19
-10.55
-12.06
-13.42
-14.29
-14.34
-13.38
-11.40
-8.69
-5.68
-2.87
-0.64
0.84
1.66
2.11
2.47
2.94
3.61
4.38
5.14
5.78
6.25
6.58
6.80
6.93
6.93
6.79
6.52
6.19
5.93
5.84
5.94
6.13
6.28
6.20
5.83
5.19
4.39
3.59
2.92
2.39
1.94
1.46
0.86
0.09
-0.79
-1.67
-2.43
-3.03
-3.50
-3.93
-4.40
-4.96
-5.62
-6.35
-7.15
-8.06
-9.11
-10.27
-11.39
-12.22
-12.43
-11.81
-10.33
-8.16
-5.66
-3.24
-1.24
0.18
1.05
1.55
1.91
2.34
2.95
3.67
4.35
4.77
4.80
4.39
3.69
2.94
2.38
2.16
2.28
2.67
3.18
3.67
4.03
4.21
4.18
3.91
3.47
2.94
2.43
2.04
1.78
1.59
1.37
1.02
0.48
-0.22
-1.01
-1.83
-2.64
-3.47
-4.35
-5.33
-6.44
-7.64
-8.82
-9.80
-10.31
-10.14
-9.17
-7.47
-5.31
-3.03
-0.97
0.68
1.91
2.83
3.58
4.18
4.61
4.80
4.76
4.66
4.68
4.98
5.55
6.26
6.87
7.21
7.22
6.93
6.44
5.80
5.02
4.10
3.04
1.91
0.81
-0.19
-1.03
-1.69
-2.22
-2.65
-3.05
-3.48
-3.98
-4.58
-5.31
-6.21
-7.31
-8.64
-10.09
-11.46
-12.42
-12.58
-11.66
-9.55
-6.41
-2.58
1.50
5.44
8.99
12.12
14.99
17.81
20.73
23.72
26.49
28.58
29.56
29.16
27.41
24.57
21.02
17.16
13.34
9.89
7.12
5.29
4.52
4.69
5.43
6.20
6.47
5.86
4.27
1.79
-1.32
-4.73
-8.10
-11.05
-13.23
-14.36
-14.29
-13.12
-11.16
-8.85
-6.70
-5.11
-4.37
-4.57
-5.61
-7.17
-8.79
-9.96
-10.25
-9.49
-7.79
-5.47
-2.99
-0.75
1.02
2.35
3.42
4.51
5.80
7.29
8.82
10.08
10.76
10.70
9.88
8.40
6.34
3.77
0.67
-2.93
-6.89
-10.98
-14.92
-18.53
-21.73
-24.43
-26.40
-27.19
-26.32
-23.57
-19.31
-14.45
-10.21
-7.59
-7.00
-8.21
-10.51
-13.13
-15.53
-17.48
-18.97
-20.02
-20.60
-20.59
-19.92
-18.62
-16.78
-14.55
-12.05
-9.41
-6.74
-4.18
-1.86
0.09
1.59
2.63
3.28
3.69
4.04
4.51
5.24
6.27
7.62
9.25
11.04
12.83
14.45
15.78
16.87
17.88
19.03
20.45
22.01
23.38
24.09
23.75
22.22
19.63
16.35
12.88
9.69
7.14
5.47
4.75
4.90
5.73
6.92
8.16
9.20
9.94
10.42
10.74
10.96
11.07
10.99
10.60
9.84
8.71
7.26
5.55
3.65
1.64
-0.38
-2.32
-4.10
-5.73
-7.28
-8.84
-10.44
-12.00
-13.38
-14.44
-15.18
-15.65
-15.98
-16.26
-16.54
-16.84
-17.22
-17.78
-18.54
-19.41
-20.10
-20.21
-19.42
-17.64
-15.09
-12.17
-9.33
-6.87
-4.88
-3.26
-1.82
-0.47
0.85
2.11
3.26
4.26
5.09
5.75
6.22
6.52
6.66
6.70
6.70
6.70
6.70
6.63
6.42
5.98
5.28
4.33
3.21
1.97
0.72
-0.42
-1.35
-2.02
-2.47
-2.83
-3.32
-4.15
-5.45
-7.18
-9.20
-11.24
-12.99
-14.21
-14.70
-14.40
-13.36
-11.74
-9.80
-7.79
-5.95
-4.37
-3.09
-2.00
-0.98
0.11
1.32
2.61
3.84
4.84
5.49
5.75
5.71
5.48
5.18
4.85
4.48
4.07
3.62
3.22
2.93
2.75
2.62
2.47
2.26
2.04
1.91
1.93
2.14
2.46
2.78
2.99
3.02
2.89
2.62
2.26
1.84
1.35
0.74
-0.07
-1.15
-2.52
-4.05
-5.48
-6.53
-6.94
-6.63
-5.68
-4.31
-2.77
-1.27
0.09
1.26
2.27
3.17
4.02
4.88
5.81
6.80
7.85
8.90
9.89
10.76
11.49
12.07
12.49
12.79
13.00
13.18
13.34
13.49
13.57
13.49
13.21
12.72
12.06
11.29
10.49
9.72
8.98
8.31
7.66
6.99
6.18
5.13
3.78
2.10
0.13
-2.03
-4.21
-6.25
-7.92
-9.03
-9.41
-9.00
-7.92
-6.43
-4.86
-3.46
-2.37
-1.52
-0.77
0.03
0.90
1.77
2.49
2.93
3.06
2.97
2.82
2.74
2.76
2.84
2.89
2.85
2.72
2.55
2.43
2.37
2.30
2.10
1.64
0.83
-0.25
-1.49
-2.72
-3.85
-4.80
-5.64
-6.41
-7.19
-8.05
-8.99
-10.02
-11.10
-12.14
-12.98
-13.43
-13.29
-12.48
-11.04
-9.14
-7.02
-4.91
-2.96
-1.22
0.31
1.64
2.76
3.64
4.32
4.81
5.22
5.59
5.96
6.31
6.58
6.74
6.74
6.57
6.21
5.69
5.06
4.45
3.99
3.78
3.79
3.86
3.80
3.41
2.67
1.65
0.53
-0.50
-1.38
-2.12
-2.87
-3.76
-4.88
-6.22
-7.66
-9.01
-10.02
-10.47
-10.21
-9.23
-7.66
-5.73
-3.68
-1.73
-0.01
1.43
2.62
3.60
4.41
5.09
5.63
6.05
6.30
6.41
6.40
6.34
6.29
6.30
6.35
6.38
6.32
6.13
5.82
5.42
4.99
4.54
4.10
3.66
3.18
2.62
1.91
1.00
-0.09
-1.29
-2.45
-3.45
-4.22
-4.81
-5.34
-5.92
-6.65
-7.53
-8.52
-9.56
-10.57
-11.40
-11.87
-11.76
-10.93
-9.37
-7.25
-4.88
-2.58
-0.58
1.03
2.28
3.27
4.07
4.75
5.32
5.82
6.23
6.57
6.81
6.93
6.93
6.79
6.56
6.25
5.90
5.53
5.15
4.79
4.49
4.26
4.13
4.02
3.86
3.55
3.02
2.22
1.20
0.04
-1.15
-2.25
-3.22
-4.09
-4.90
-5.71
-6.53
-7.35
-8.13
-8.90
-9.67
-10.46
-11.16
-11.60
-11.52
-10.71
-9.14
-7.00
-4.64
-2.45
-0.68
0.65
1.68
2.62
3.60
4.61
5.52
6.20
6.58
6.73
6.78
6.88
7.05
7.23
7.28
7.11
6.69
6.10
5.45
4.80
4.19
3.55
2.87
2.12
1.35
0.60
-0.10
-0.80
-1.57
-2.53
-3.70
-5.01
-6.29
-7.35
-8.11
-8.63
-9.10
-9.74
-10.66
-11.77
-12.82
-13.48
-13.53
-12.94
-11.80
-10.30
-8.61
-6.81
-4.96
-3.09
-1.30
0.32
1.67
2.71
3.44
3.91
4.17
4.31
4.42
4.63
5.02
5.60
6.28
6.86
7.13
7.00
6.55
5.95
5.44
5.11
4.93
4.71
4.27
3.49
2.42
1.20
0.04
-0.93
-1.67
-2.26
-2.83
-3.50
-4.36
-5.46
-6.76
-8.18
-9.55
-10.63
-11.18
-10.97
-9.92
-8.13
-5.85
-3.44
-1.24
0.53
1.81
2.71
3.41
4.05
4.72
5.41
6.03
6.49
6.74
6.78
6.69
6.53
6.33
6.06
5.67
5.16
4.58
4.08
3.77
3.66
3.65
3.50
3.02
2.13
0.91
-0.46
-1.81
-3.05
-4.20
-5.32
-6.48
-7.75
-9.14
-10.63
-12.11
-13.41
-14.25
-14.33
-13.46
-11.65
-9.12
-6.21
-3.24
-0.46
2.07
4.40
6.60
8.78
10.99
13.26
15.54
17.73
19.72
21.41
22.76
23.84
24.75
25.56
26.22
26.58
26.39
25.50
23.90
21.73
19.22
16.55
13.83
11.03
8.12
5.11
2.11
-0.77
-3.39
-5.74
-7.88
-9.97
-12.18
-14.63
-17.35
-20.25
-23.12
-25.66
-27.55
-28.49
-28.34
-27.16
-25.19
-22.76
-20.25
-17.89
-15.76
-13.81
-11.93
-9.99
-7.96
-5.91
-3.97
-2.24
-0.80
0.38
1.36
2.22
2.97
3.65
4.23
4.72
5.12
5.43
5.62
5.65
5.52
5.21
4.79
4.38
4.06
3.87
3.70
3.39
2.77
1.75
0.43
-1.00
-2.36
-3.57
-4.74
-6.04
-7.63
-9.48
-11.33
-12.79
-13.49
-13.22
-12.05
-10.21
-8.02
-5.76
-3.59
-1.57
0.29
1.97
3.44
4.68
5.72
6.61
7.40
8.11
8.73
9.20
9.49
9.57
9.45
9.16
8.75
8.28
7.84
7.50
7.32
7.28
7.31
7.27
6.95
6.19
4.85
2.98
0.78
-1.40
-3.12
-4.03
-3.98
-3.13
-1.89
-0.81
-0.32
-0.64
-1.68
-3.15
-4.70
-5.98
-6.74
-6.82
-6.18
-4.88
-3.08
-1.03
0.98
2.69
3.94
4.70
5.04
5.11
5.06
5.03
5.06
5.16
5.24
5.22
5.06
4.81
4.55
4.34
4.21
4.13
4.03
3.91
3.75
3.52
3.17
2.59
1.72
0.60
-0.60
-1.67
-2.49
-3.06
-3.52
-4.06
-4.79
-5.74
-6.89
-8.15
-9.44
-10.60
-11.37
-11.51
-10.83
-9.37
-7.35
-5.15
-3.05
-1.23
0.33
1.71
2.97
4.10
5.07
5.81
6.30
6.54
6.53
6.29
5.89
5.45
5.12
4.98
5.03
5.12
5.11
4.89
4.46
3.90
3.29
2.68
1.99
1.20
0.27
-0.73
-1.72
-2.69
-3.66
-4.74
-6.00
-7.41
-8.83
-10.01
-10.72
-10.79
-10.18
-8.92
-7.15
-5.09
-2.98
-1.07
0.47
1.61
2.43
3.08
3.70
4.34
4.97
5.54
5.98
6.23
6.29
6.15
5.86
5.47
5.10
4.80
4.58
4.38
4.08
3.57
2.84
1.93
0.92
-0.09
-1.07
-2.03
-2.96
-3.89
-4.88
-5.99
-7.25
-8.61
-9.89
-10.80
-11.07
-10.55
-9.26
-7.40
-5.22
-2.96
-0.80
1.15
2.80
4.11
5.08
5.74
6.17
6.46
6.69
6.89
7.10
7.33
7.53
7.65
7.61
7.32
6.82
6.20
5.63
5.23
5.00
4.82
4.50
3.90
2.97
1.81
0.59
-0.56
-1.55
-2.39
-3.15
-3.94
-4.86
-5.99
-7.40
-9.08
-10.92
-12.65
-13.93
-14.40
-13.81
-12.18
-9.77
-7.00
-4.32
-2.05
-0.32
0.94
1.90
2.76
3.65
4.65
5.67
6.61
7.32
7.72
7.82
7.70
7.49
7.29
7.17
7.13
7.14
7.19
7.21
7.19
7.06
6.77
6.30
5.68
4.96
4.19
3.39
2.55
1.65
0.75
-0.10
-0.79
-1.28
-1.59
-1.84
-2.18
-2.77
-3.67
-4.87
-6.29
-7.77
-9.11
-10.04
-10.33
-9.78
-8.38
-6.30
-3.90
-1.62
0.21
1.44
2.18
2.64
3.05
3.53
4.05
4.53
4.89
5.09
5.18
5.17
5.10
4.92
4.64
4.28
3.90
3.60
3.39
3.25
3.09
2.86
2.52
2.11
1.70
1.35
1.07
0.85
0.65
0.46
0.30
0.21
0.25
0.44
0.72
0.98
1.01
0.62
-0.37
-1.99
-4.07
-6.32
-8.27
-9.54
-9.85
-9.20
-7.80
-6.02
-4.25
-2.77
-1.71
-1.03
-0.60
-0.24
0.14
0.61
1.16
1.80
2.52
3.33
4.23
5.20
6.18
7.14
8.05
8.89
9.63
10.23
10.60
10.67
10.32
9.53
8.27
6.61
4.66
2.55
0.43
-1.56
-3.35
-4.90
-6.27
-7.58
-8.99
-10.61
-12.43
-14.29
-15.85
-16.73
-16.59
-15.30
-12.97
-9.94
-6.68
-3.65
-1.17
0.67
1.99
3.05
4.11
5.30
6.56
7.68
8.45
8.76
8.68
8.41
8.14
8.00
7.96
7.96
7.90
7.79
7.65
7.45
7.14
6.56
5.62
4.29
2.66
0.94
-0.64
-1.93
-2.87
-3.55
-4.12
-4.79
-5.74
-7.09
-8.82
-10.81
-12.74
-14.23
-14.88
-14.43
-12.86
-10.41
-7.50
-4.56
-1.94
0.23
1.92
3.23
4.24
5.02
5.64
6.17
6.65
7.12
7.55
7.86
8.01
7.96
7.75
7.43
7.03
6.58
6.06
5.51
4.97
4.50
4.10
3.76
3.37
2.80
1.96
0.81
-0.62
-2.18
-3.69
-4.96
-5.87
-6.42
-6.80
-7.26
-8.12
-9.52
-11.37
-13.31
-14.83
-15.47
-15.00
-13.47
-11.16
-8.45
-5.68
-3.10
-0.82
1.10
2.66
3.89
4.91
5.82
6.75
7.71
8.61
9.29
9.63
9.56
9.15
8.54
7.83
7.11
6.40
5.74
5.20
4.87
4.83
5.04
5.30
5.35
4.90
3.88
2.38
0.70
-0.86
-2.07
-2.89
-3.43
-3.86
-4.32
-4.93
-5.78
-6.94
-8.43
-10.17
-11.90
-13.23
-13.77
-13.26
-11.72
-9.43
-6.78
-4.15
-1.80
0.20
1.86
3.23
4.38
5.32
6.07
6.67
7.18
7.64
8.06
8.44
8.69
8.72
8.45
7.85
7.00
6.07
5.21
4.55
4.08
3.70
3.27
2.64
1.70
0.45
-1.03
-2.58
-3.97
-5.01
-5.62
-5.83
-5.87
-6.02
-6.52
-7.48
-8.82
-10.31
-11.62
-12.42
-12.48
-11.72
-10.25
-8.36
-6.39
-4.64
-3.26
-2.24
-1.46
-0.75
0.02
0.89
1.80
2.69
3.48
4.11
4.57
4.86
5.00
5.03
4.94
4.70
4.28
3.67
2.89
1.99
1.05
0.13
-0.79
-1.74
-2.78
-3.93
-5.18
-6.46
-7.71
-8.88
-9.99
-11.10
-12.29
-13.60
-14.93
-16.11
-16.86
-16.91
-16.06
-14.22
-11.44
-7.91
-3.94
0.11
3.86
7.07
9.63
11.55
13.03
14.28
15.52
16.90
18.50
20.29
22.13
23.79
24.98
25.46
25.09
23.89
22.03
19.79
17.43
15.20
13.23
11.59
10.27
9.13
7.95
6.45
4.41
1.78
-1.32
-4.56
-7.50
-9.76
-11.14
-11.65
-11.50
-11.06
-10.71
-10.78
-11.47
-12.80
-14.63
-16.63
-18.39
-19.52
-19.77
-19.07
-17.55
-15.49
-13.22
-11.08
-9.31
-8.03
-7.22
-6.67
-6.09
-5.20
-3.83
-2.02
0.02
2.04
3.87
5.51
7.07
8.71
10.44
12.18
13.69
14.77
15.29
15.35
15.11
14.77
14.39
13.90
13.11
11.92
10.32
8.50
6.68
5.03
3.56
2.13
0.54
-1.34
-3.55
-6.01
-8.60
-11.12
-13.37
-15.07
-16.01
-16.04
-15.19
-13.66
-11.72
-9.61
-7.43
-5.17
-2.72
0.04
3.22
6.83
10.81
14.97
18.98
22.39
24.79
25.93
25.83
24.80
23.34
21.94
20.96
20.53
20.62
21.07
21.65
22.13
22.21
21.59
20.03
17.40
13.75
9.39
4.75
0.37
-3.32
-6.13
-8.14
-9.68
-11.16
-12.93
-15.18
-17.91
-21.00
-24.23
-27.36
-30.12
-32.22
-33.36
-33.36
-32.22
-30.17
-27.59
-24.88
-22.31
-19.93
-17.66
-15.36
-13.01
-10.72
-8.69
-7.09
-5.94
-5.16
-4.53
-3.90
-3.27
-2.70
-2.32
-2.11
-1.96
-1.68
-1.20
-0.59
-0.12
-0.05
-0.49
-1.36
-2.39
-3.33
-4.04
-4.56
-5.07
-5.73
-6.63
-7.70
-8.78
-9.65
-10.08
-9.88
-8.95
-7.30
-5.13
-2.71
-0.37
1.63
3.22
4.47
5.55
6.63
7.77
8.92
9.97
10.76
11.21
11.28
11.02
10.50
9.84
9.15
8.57
8.23
8.15
8.30
8.51
8.60
8.39
7.81
6.89
5.73
4.49
3.27
2.10
0.91
-0.46
-2.11
-4.05
-6.10
-7.94
-9.22
-9.64
-9.08
-7.66
-5.63
-3.35
-1.14
0.76
2.27
3.41
4.35
5.20
6.03
6.81
7.41
7.73
7.74
7.52
7.19
6.86
6.58
6.32
6.02
5.64
5.16
4.58
3.94
3.29
2.66
2.08
1.53
0.94
0.21
-0.69
-1.75
-2.93
-4.17
-5.47
-6.92
-8.54
-10.23
-11.73
-12.64
-12.61
-11.48
-9.40
-6.74
-3.98
-1.50
0.50
2.04
3.28
4.38
5.43
6.42
7.29
7.97
8.42
8.62
8.61
8.47
8.25
8.02
7.81
7.63
7.45
7.20
6.86
6.41
5.91
5.41
4.95
4.46
3.79
2.82
1.51
-0.02
-1.54
-2.83
-3.78
-4.42
-4.94
-5.51
-6.30
-7.39
-8.76
-10.33
-11.89
-13.12
-13.65
-13.17
-11.57
-9.05
-6.02
-3.01
-0.44
1.51
2.87
3.79
4.51
5.19
5.91
6.67
7.42
8.07
8.57
8.86
8.92
8.79
8.49
8.08
7.60
7.08
6.59
6.16
5.82
5.53
5.22
4.78
4.10
3.11
1.85
0.42
-1.00
-2.23
-3.16
-3.80
-4.27
-4.74
-5.41
-6.40
-7.73
-9.31
-10.93
-12.28
-13.05
-12.99
-11.99
-10.13
-7.69
-5.03
-2.56
-0.53
1.00
2.11
2.99
3.81
4.65
5.51
6.28
6.87
7.23
7.39
7.42
7.38
7.28
7.08
6.77
6.36
5.96
5.67
5.57
5.59
5.57
5.29
4.59
3.42
1.87
0.19
-1.37
-2.57
-3.31
-3.67
-3.86
-4.16
-4.81
-5.91
-7.32
-8.77
-9.88
-10.30
-9.83
-8.47
-6.38
-3.86
-1.27
1.07
2.92
4.23
5.10
5.70
6.21
6.69
7.10
7.33
7.29
7.00
6.56
6.10
5.72
5.44
5.19
4.89
4.48
4.00
3.53
3.16
2.90
2.64
2.20
1.39
0.14
-1.43
-3.04
-4.38
-5.30
-5.88
-6.43
-7.29
-8.67
-10.48
-12.32
-13.69
-14.15
-13.50
-11.85
-9.54
-7.02
-4.66
-2.67
-1.13
0.06
1.04
1.96
2.90
3.84
4.72
5.45
5.97
6.30
6.52
6.69
6.85
6.94
6.84
6.47
5.84
5.10
4.48
4.15
4.12
4.24
4.18
3.69
2.63
1.14
-0.51
-2.02
-3.17
-3.98
-4.60
-5.26
-6.15
-7.36
-8.83
-10.42
-11.94
-13.15
-13.79
-13.66
-12.62
-10.73
-8.24
-5.53
-3.00
-0.93
0.60
1.75
2.74
3.78
4.92
6.09
7.12
7.84
8.19
8.22
8.05
7.80
7.54
7.29
7.02
6.73
6.44
6.18
5.96
5.74
5.44
4.99
4.35
3.51
2.50
1.36
0.12
-1.18
-2.45
-3.61
-4.56
-5.24
-5.69
-6.03
-6.48
-7.23
-8.41
-10.03
-11.91
-13.73
-15.08
-15.59
-15.03
-13.37
-10.87
-7.93
-4.99
-2.41
-0.34
1.26
2.57
3.76
4.95
6.11
7.17
8.04
8.67
9.05
9.18
9.10
8.82
8.42
7.98
7.62
7.40
7.31
7.27
7.15
6.85
6.37
5.78
5.15
4.54
3.93
3.26
2.43
1.41
0.23
-1.01
-2.19
-3.22
-4.04
-4.68
-5.24
-5.82
-6.55
-7.52
-8.72
-10.05
-11.30
-12.21
-12.51
-12.00
-10.62
-8.50
-5.88
-3.12
-0.57
1.52
3.01
3.98
4.62
5.16
5.77
6.48
7.18
7.74
8.07
8.18
8.16
8.12
8.10
8.08
7.94
7.61
7.09
6.44
5.76
5.10
4.44
3.68
2.74
1.56
0.16
-1.33
-2.76
-3.96
-4.82
-5.29
-5.44
-5.36
-5.24
-5.25
-5.55
-6.17
-7.03
-7.89
-8.42
-8.26
-7.13
-4.92
-1.81
1.79
5.33
8.29
10.34
11.47
11.89
11.94
11.89
11.84
11.75
11.56
11.26
10.98
10.87
11.00
11.31
11.57
11.54
11.08
10.20
9.04
7.71
6.27
4.68
2.87
0.77
-1.54
-3.94
-6.25
-8.31
-10.05
-11.51
-12.79
-14.04
-15.42
-17.05
-18.93
-20.94
-22.81
-24.18
-24.74
-24.24
-22.65
-20.09
-16.86
-13.35
-9.92
-6.85
-4.25
-2.06
-0.08
1.89
4.01
6.27
8.51
10.43
11.77
12.36
12.24
11.61
10.73
9.79
8.90
8.04
7.19
6.29
5.34
4.32
3.21
1.91
0.43
-1.20
-2.82
-4.28
-5.49
-6.52
-7.54
-8.69
-9.94
-11.07
-11.71
-11.52
-10.39
-8.43
-5.99
-3.44
-1.12
0.79
2.27
3.37
4.22
4.89
5.46
5.97
6.43
6.82
7.12
7.24
7.13
6.76
6.16
5.46
4.80
4.29
3.97
3.75
3.49
3.03
2.32
1.39
0.38
-0.62
-1.53
-2.39
-3.28
-4.27
-5.43
-6.77
-8.28
-9.89
-11.49
-12.94
-14.01
-14.52
-14.26
-13.14
-11.17
-8.56
-5.66
-2.89
-0.59
1.05
2.13
2.87
3.55
4.34
5.25
6.17
6.96
7.55
7.95
8.24
8.44
8.52
8.37
7.92
7.20
6.32
5.47
4.81
4.38
4.16
3.97
3.65
3.03
2.06
0.78
-0.68
-2.10
-3.30
-4.19
-4.83
-5.37
-6.05
-7.03
-8.36
-9.95
-11.62
-13.11
-14.20
-14.66
-14.34
-13.18
-11.21
-8.66
-5.83
-3.06
-0.64
1.31
2.82
4.01
5.03
5.96
6.84
7.68
8.44
9.10
9.61
9.92
9.98
9.78
9.36
8.81
8.28
7.89
7.68
7.65
7.68
7.68
7.52
7.11
6.43
5.50
4.40
3.22
2.07
1.03
0.11
-0.72
-1.55
-2.44
-3.42
-4.45
-5.46
-6.36
-7.17
-7.95
-8.85
-10.00
-11.46
-13.11
-14.65
-15.69
-15.86
-14.98
-13.13
-10.65
-7.98
-5.53
-3.54
-2.05
-0.94
-0.05
0.78
1.61
2.47
3.29
4.02
4.60
5.00
5.22
5.33
5.42
5.61
5.92
6.29
6.63
6.79
6.71
6.42
6.02
5.64
5.33
5.03
4.58
3.84
2.73
1.34
-0.13
-1.44
-2.44
-3.15
-3.73
-4.40
-5.40
-6.81
-8.55
-10.44
-12.19
-13.49
-14.09
-13.79
-12.54
-10.46
-7.82
-4.99
-2.31
-0.01
1.83
3.30
4.52
5.62
6.68
7.68
8.60
9.37
9.97
10.35
10.47
10.31
9.88
9.23
8.45
7.64
6.93
6.44
6.17
6.03
5.83
5.34
4.42
3.06
1.40
-0.30
-1.81
-3.01
-3.92
-4.66
-5.44
-6.46
-7.83
-9.57
-11.50
-13.28
-14.48
-14.72
-13.79
-11.78
-9.03
-6.05
-3.28
-1.00
0.75
2.13
3.35
4.54
5.71
6.74
7.52
7.93
8.00
7.81
7.48
7.15
6.87
6.67
6.50
6.30
6.04
5.71
5.36
5.05
4.80
4.50
3.99
3.06
1.62
-0.26
-2.31
-4.23
-5.78
-6.93
-7.85
-8.81
-10.05
-11.63
-13.48
-15.41
-17.19
-18.62
-19.49
-19.56
-18.62
-16.58
-13.53
-9.82
-5.97
-2.51
0.21
2.14
3.49
4.64
5.86
7.27
8.74
10.06
11.06
11.68
11.99
12.09
12.10
12.07
12.02
11.92
11.78
11.57
11.26
10.83
10.26
9.57
8.83
8.05
7.23
6.30
5.18
3.88
2.46
1.03
-0.29
-1.44
-2.46
-3.43
-4.41
-5.46
-6.64
-7.96
-9.45
-11.11
-12.82
-14.34
-15.34
-15.46
-14.47
-12.36
-9.39
-5.99
-2.65
0.23
2.46
4.06
5.21
6.18
7.17
8.27
9.42
10.47
11.23
11.55
11.45
11.06
10.59
10.21
9.98
9.85
9.71
9.51
9.21
8.87
8.51
8.09
7.52
6.70
5.62
4.34
3.01
1.74
0.58
-0.50
-1.56
-2.64
-3.70
-4.70
-5.62
-6.53
-7.56
-8.86
-10.49
-12.40
-14.30
-15.79
-16.40
-15.81
-13.96
-11.11
-7.75
-4.47
-1.70
0.39
1.90
3.06
4.09
5.10
6.05
6.87
7.51
7.97
8.32
8.60
8.83
8.97
8.99
8.83
8.48
7.93
7.23
6.48
5.80
5.29
4.96
4.70
4.37
3.80
2.91
1.75
0.42
-0.95
-2.25
-3.47
-4.60
-5.70
-6.84
-8.09
-9.51
-11.11
-12.77
-14.22
-15.11
-15.10
-14.05
-12.01
-9.31
-6.38
-3.62
-1.29
0.60
2.16
3.52
4.75
5.81
6.62
7.17
7.50
7.77
8.10
8.50
8.89
9.11
9.09
8.85
8.54
8.34
8.30
8.35
8.29
7.93
7.15
5.97
4.52
3.00
1.57
0.32
-0.75
-1.73
-2.73
-3.86
-5.22
-6.87
-8.78
-10.78
-12.58
-13.79
-14.05
-13.16
-11.15
-8.29
-5.00
-1.70
1.29
3.79
5.75
7.17
8.13
8.72
9.10
9.35
9.52
9.54
9.29
8.69
7.80
6.82
6.00
5.49
5.29
5.27
5.21
4.99
4.57
4.03
3.42
2.79
2.06
1.15
-0.01
-1.40
-2.88
-4.27
-5.37
-6.09
-6.49
-6.78
-7.27
-8.19
-9.68
-11.66
-13.86
-15.94
-17.46
-18.07
-17.50
-15.72
-12.95
-9.60
-6.20
-3.22
-0.93
0.66
1.72
2.56
3.38
4.30
5.30
6.25
7.02
7.50
7.64
7.51
7.25
6.98
6.81
6.76
6.75
6.72
6.62
6.49
6.36
6.18
5.88
5.29
4.33
3.02
1.49
-0.04
-1.37
-2.36
-3.01
-3.38
-3.64
-3.97
-4.55
-5.47
-6.75
-8.28
-9.88
-11.36
-12.48
-13.07
-12.95
-12.00
-10.19
-7.66
-4.67
-1.66
0.98
2.95
4.23
4.98
5.50
6.04
6.76
7.60
8.44
9.10
9.50
9.60
9.48
9.22
8.91
8.58
8.24
7.87
7.44
6.97
6.46
5.95
5.47
4.97
4.38
3.59
2.55
1.31
-0.00
-1.22
-2.22
-2.97
-3.56
-4.16
-4.91
-5.96
-7.34
-9.00
-10.81
-12.58
-14.04
-14.94
-15.07
-14.31
-12.68
-10.33
-7.55
-4.67
-2.05
0.06
1.58
2.60
3.33
3.98
4.64
5.24
5.66
5.80
5.71
5.56
5.54
5.74
6.06
6.32
6.31
5.98
5.41
4.76
4.17
3.65
3.08
2.30
1.22
-0.14
-1.65
-3.09
-4.27
-5.09
-5.57
-5.82
-6.07
-6.53
-7.33
-8.46
-9.74
-10.87
-11.46
-11.22
-10.06
-8.07
-5.52
-2.78
-0.18
2.03
3.75
4.96
5.77
6.30
6.67
7.02
7.37
7.74
8.04
8.19
8.11
7.76
7.24
6.65
6.10
5.67
5.32
4.95
4.46
3.79
2.93
1.92
0.83
-0.33
-1.53
-2.72
-3.88
-4.97
-5.99
-7.00
-8.12
-9.45
-10.97
-12.49
-13.68
-14.16
-13.65
-12.09
-9.66
-6.76
-3.85
-1.35
0.53
1.79
2.65
3.38
4.19
5.11
6.04
6.76
7.15
7.22
7.13
7.08
7.18
7.35
7.43
7.23
6.75
6.12
5.52
5.08
4.74
4.29
3.50
2.27
0.69
-0.97
-2.44
-3.51
-4.17
-4.57
-4.95
-5.54
-6.50
-7.89
-9.61
-11.43
-13.02
-14.00
-14.07
-13.07
-11.05
-8.31
-5.31
-2.49
-0.17
1.56
2.83
3.86
4.87
5.96
7.07
8.07
8.81
9.21
9.30
9.15
8.84
8.46
8.06
7.71
7.46
7.33
7.30
7.28
7.18
6.92
6.45
5.80
5.00
4.08
3.08
2.03
0.96
-0.10
-1.13
-2.14
-3.16
-4.21
-5.28
-6.33
-7.37
-8.45
-9.63
-10.99
-12.47
-13.88
-14.90
-15.16
-14.43
-12.68
-10.11
-7.11
-4.13
-1.51
0.54
2.03
3.08
3.90
4.67
5.51
6.41
7.29
8.03
8.53
8.75
8.73
8.54
8.27
8.00
7.73
7.47
7.20
6.93
6.66
6.41
6.16
5.86
5.47
4.94
4.23
3.31
2.20
0.93
-0.41
-1.71
-2.87
-3.87
-4.71
-5.49
-6.30
-7.26
-8.41
-9.72
-11.08
-12.31
-13.17
-13.41
-12.83
-11.37
-9.15
-6.45
-3.68
-1.21
0.69
1.99
2.82
3.45
4.10
4.90
5.77
6.55
7.09
7.35
7.43
7.46
7.51
7.55
7.46
7.12
6.56
5.91
5.38
5.07
4.93
4.74
4.26
3.35
2.07
0.62
-0.72
-1.75
-2.42
-2.83
-3.21
-3.78
-4.76
-6.23
-8.15
-10.29
-12.31
-13.81
-14.40
-13.83
-12.11
-9.51
-6.50
-3.60
-1.24
0.40
1.43
2.11
2.78
3.65
4.77
5.99
7.12
7.98
8.50
8.68
8.62
8.38
8.05
7.66
7.26
6.85
6.47
6.13
5.81
5.48
5.06
4.51
3.80
2.94
1.96
0.93
-0.12
-1.13
-2.10
-3.02
-3.88
-4.70
-5.48
-6.24
-7.04
-7.99
-9.19
-10.69
-12.40
-14.07
-15.30
-15.68
-14.93
-13.00
-10.15
-6.80
-3.44
-0.46
1.92
3.67
4.88
5.72
6.37
6.93
7.47
7.97
8.37
8.62
8.69
8.62
8.46
8.24
7.99
7.74
7.50
7.32
7.23
7.20
7.14
6.91
6.40
5.56
4.46
3.23
2.08
1.13
0.40
-0.22
-0.89
-1.74
-2.80
-3.98
-5.11
-6.09
-6.88
-7.62
-8.50
-9.74
-11.38
-13.25
-14.98
-16.11
-16.23
-15.16
-12.96
-9.95
-6.61
-3.42
-0.77
1.17
2.45
3.32
4.04
4.82
5.73
6.68
7.49
8.03
8.26
8.24
8.08
7.88
7.66
7.38
7.00
6.53
6.05
5.65
5.38
5.20
5.04
4.77
4.30
3.59
2.64
1.49
0.22
-1.09
-2.35
-3.46
-4.36
-5.02
-5.50
-5.94
-6.49
-7.32
-8.49
-9.96
-11.55
-12.95
-13.80
-13.79
-12.78
-10.84
-8.27
-5.45
-2.76
-0.46
1.35
2.69
3.66
4.38
4.93
5.38
5.78
6.18
6.63
7.10
7.53
7.80
7.81
7.52
7.03
6.50
6.11
5.93
5.89
5.82
5.55
4.99
4.18
3.17
2.05
0.87
-0.36
-1.59
-2.75
-3.76
-4.61
-5.44
-6.42
-7.71
-9.28
-10.89
-12.10
-12.48
-11.76
-9.96
-7.38
-4.52
-1.88
0.20
1.61
2.48
3.06
3.58
4.15
4.73
5.24
5.55
5.64
5.55
5.37
5.18
5.03
4.88
4.74
4.56
4.36
4.13
3.87
3.52
3.04
2.35
1.40
0.18
-1.22
-2.64
-3.93
-4.95
-5.68
-6.20
-6.73
-7.52
-8.71
-10.32
-12.12
-13.74
-14.71
-14.63
-13.37
-11.05
-8.05
-4.84
-1.87
0.60
2.52
3.97
5.09
5.99
6.73
7.29
7.69
7.97
8.17
8.32
8.41
8.38
8.17
7.78
7.29
6.85
6.55
6.46
6.52
6.59
6.53
6.18
5.42
4.20
2.56
0.66
-1.26
-2.89
-4.06
-4.74
-5.17
-5.69
-6.66
-8.24
-10.32
-12.52
-14.35
-15.35
-15.27
-14.11
-12.11
-9.59
-6.91
-4.32
-1.96
0.11
1.84
3.25
4.34
5.16
5.81
6.38
6.92
7.41
7.81
8.04
8.09
7.97
7.74
7.43
7.06
6.64
6.18
5.78
5.48
5.32
5.23
5.05
4.58
3.71
2.45
0.93
-0.64
-2.05
-3.17
-3.94
-4.44
-4.86
-5.42
-6.34
-7.75
-9.57
-11.54
-13.29
-14.41
-14.61
-13.75
-11.93
-9.40
-6.50
-3.63
-1.10
0.94
2.53
3.78
4.86
5.86
6.78
7.58
8.19
8.63
8.95
9.19
9.35
9.38
9.21
8.80
8.22
7.61
7.11
6.82
6.70
6.63
6.45
6.02
5.28
4.29
3.12
1.88
0.66
-0.48
-1.48
-2.30
-2.93
-3.43
-3.92
-4.58
-5.57
-6.98
-8.77
-10.72
-12.53
-13.82
-14.28
-13.70
-12.12
-9.75
-6.98
-4.23
-1.81
0.11
1.57
2.71
3.73
4.73
5.74
6.68
7.42
7.88
8.01
7.87
7.58
7.26
6.99
6.78
6.61
6.42
6.19
5.92
5.61
5.25
4.79
4.14
3.21
2.02
0.63
-0.79
-2.08
-3.11
-3.88
-4.51
-5.21
-6.18
-7.54
-9.20
-10.89
-12.20
-12.73
-12.26
-10.83
-8.68
-6.21
-3.76
-1.57
0.23
1.62
2.66
3.46
4.15
4.84
5.58
6.32
6.97
7.40
7.56
7.46
7.17
6.74
6.26
5.76
5.30
4.92
4.61
4.34
3.99
3.44
2.63
1.55
0.30
-1.00
-2.25
-3.39
-4.41
-5.38
-6.41
-7.61
-9.03
-10.57
-11.98
-12.88
-12.95
-12.05
-10.31
-8.04
-5.61
-3.29
-1.21
0.64
2.28
3.73
4.94
5.91
6.67
7.30
7.83
8.23
8.44
8.39
8.11
7.74
7.45
7.35
7.43
7.53
7.44
7.00
6.18
5.07
3.83
2.61
1.46
0.40
-0.62
-1.60
-2.54
-3.40
-4.18
-4.94
-5.82
-6.96
-8.43
-10.13
-11.78
-12.95
-13.23
-12.39
-10.49
-7.88
-5.02
-2.35
-0.14
1.56
2.86
3.92
4.91
5.90
6.91
7.90
8.78
9.46
9.85
9.92
9.71
9.32
8.89
8.53
8.25
8.01
7.76
7.40
6.92
6.32
5.63
4.86
4.02
3.13
2.22
1.34
0.52
-0.26
-1.09
-2.07
-3.24
-4.54
-5.82
-6.93
-7.80
-8.52
-9.33
-10.48
-12.07
-13.95
-15.68
-16.74
-16.69
-15.34
-12.89
-9.80
-6.64
-3.89
-1.78
-0.33
0.65
1.41
2.16
3.06
4.12
5.26
6.33
7.16
7.60
7.64
7.35
6.90
6.48
6.23
6.19
6.29
6.42
6.46
6.33
5.99
5.47
4.78
3.97
3.04
1.97
0.79
-0.41
-1.46
-2.19
-2.52
-2.48
-2.25
-2.10
-2.25
-2.82
-3.78
-5.04
-6.48
-8.01
-9.53
-10.86
-11.75
-11.86
-10.94
-8.99
-6.29
-3.35
-0.69
1.35
2.71
3.62
4.39
5.24
6.20
7.14
7.85
8.23
8.27
8.13
7.95
7.78
7.57
7.22
6.65
5.91
5.17
4.61
4.30
4.14
3.92
3.40
2.47
1.19
-0.21
-1.50
-2.53
-3.30
-3.92
-4.54
-5.28
-6.23
-7.41
-8.81
-10.35
-11.84
-12.99
-13.48
-13.02
-11.54
-9.23
-6.47
-3.73
-1.36
0.49
1.87
2.97
3.94
4.84
5.63
6.24
6.64
6.84
6.90
6.90
6.88
6.83
6.74
6.57
6.30
5.93
5.50
5.06
4.67
4.35
4.02
3.56
2.87
1.92
0.76
-0.45
-1.61
-2.65
-3.62
-4.61
-5.71
-6.99
-8.45
-10.04
-11.59
-12.88
-13.60
-13.49
-12.40
-10.42
-7.86
-5.16
-2.70
-0.65
1.00
2.45
3.85
5.28
6.65
7.80
8.58
8.95
8.97
8.74
8.40
7.99
7.53
7.03
6.52
6.05
5.66
5.34
5.05
4.70
4.23
3.64
2.95
2.15
1.24
0.16
-1.10
-2.48
-3.81
-4.94
-5.79
-6.40
-7.01
-7.85
-9.09
-10.66
-12.30
-13.60
-14.17
-13.77
-12.37
-10.16
-7.49
-4.74
-2.25
-0.21
1.33
2.46
3.31
4.02
4.70
5.36
6.01
6.63
7.21
7.73
8.16
8.44
8.52
8.41
8.14
7.78
7.38
6.96
6.52
6.04
5.52
4.96
4.35
3.64
2.76
1.69
0.44
-0.87
-2.07
-3.02
-3.70
-4.17
-4.60
-5.17
-6.03
-7.25
-8.82
-10.66
-12.59
-14.35
-15.59
-15.97
-15.25
-13.38
-10.58
-7.28
-3.98
-1.08
1.18
2.80
3.94
4.83
5.65
6.53
7.45
8.36
9.14
9.66
9.85
9.72
9.36
8.90
8.48
8.18
7.99
7.84
7.65
7.37
6.98
6.52
6.03
5.51
4.92
4.20
3.27
2.12
0.77
-0.69
-2.11
-3.35
-4.37
-5.20
-6.00
-6.98
-8.28
-9.94
-11.81
-13.60
-14.97
-15.61
-15.35
-14.22
-12.39
-10.14
-7.74
-5.40
-3.20
-1.15
0.76
2.54
4.16
5.53
6.59
7.28
7.61
7.61
7.38
7.00
6.57
6.15
5.80
5.51
5.28
5.04
4.76
4.38
3.86
3.19
2.37
1.44
0.44
-0.56
-1.50
-2.34
-3.09
-3.83
-4.65
-5.69
-7.01
-8.55
-10.12
-11.40
-12.09
-11.93
-10.88
-9.05
-6.70
-4.18
-1.81
0.23
1.83
3.07
4.07
4.99
5.91
6.80
7.58
8.13
8.38
8.32
8.01
7.52
6.91
6.20
5.42
4.61
3.85
3.18
2.65
2.18
1.69
1.09
0.30
-0.66
-1.71
-2.78
-3.83
-4.84
-5.85
-6.95
-8.19
-9.58
-11.00
-12.19
-12.85
-12.70
-11.60
-9.64
-7.11
-4.39
-1.81
0.42
2.25
3.74
4.94
5.88
6.55
6.93
7.04
6.94
6.77
6.66
6.69
6.86
7.05
7.11
6.93
6.47
5.84
5.15
4.53
3.98
3.43
2.79
2.00
1.11
0.18
-0.71
-1.57
-2.46
-3.48
-4.73
-6.25
-8.03
-10.02
-12.01
-13.73
-14.78
-14.80
-13.58
-11.19
-8.03
-4.65
-1.62
0.70
2.24
3.18
3.85
4.50
5.27
6.16
7.05
7.81
8.33
8.55
8.48
8.18
7.78
7.38
7.09
6.90
6.78
6.65
6.48
6.31
6.16
6.01
5.73
5.15
4.16
2.75
1.09
-0.57
-2.00
-3.10
-3.88
-4.46
-5.00
-5.68
-6.68
-8.10
-9.99
-12.19
-14.37
-16.02
-16.61
-15.82
-13.67
-10.56
-7.08
-3.83
-1.18
0.81
2.30
3.53
4.67
5.80
6.85
7.78
8.53
9.09
9.48
9.68
9.69
9.50
9.18
8.81
8.49
8.24
8.05
7.87
7.60
7.19
6.62
5.92
5.12
4.25
3.31
2.25
1.05
-0.29
-1.70
-3.06
-4.25
-5.19
-5.87
-6.39
-6.91
-7.62
-8.67
-10.12
-11.92
-13.85
-15.58
-16.70
-16.83
-15.76
-13.50
-10.38
-6.86
-3.50
-0.71
1.32
2.66
3.55
4.29
5.09
5.99
6.92
7.74
8.32
8.65
8.76
8.77
8.77
8.75
8.66
8.38
7.86
7.14
6.34
5.61
5.06
4.68
4.38
4.01
3.43
2.61
1.57
0.40
-0.81
-1.98
-3.05
-4.01
-4.92
-5.88
-7.04
-8.50
-10.22
-11.97
-13.39
-14.08
-13.77
-12.43
-10.27
-7.63
-4.91
-2.40
-0.26
1.42
2.69
3.65
4.42
5.14
5.89
6.67
7.40
7.98
8.29
8.32
8.12
7.80
7.47
7.18
6.94
6.71
6.43
6.05
5.54
4.92
4.19
3.36
2.41
1.33
0.13
-1.15
-2.42
-3.60
-4.66
-5.65
-6.72
-8.01
-9.59
-11.36
-12.99
-14.03
-14.07
-12.90
-10.64
-7.70
-4.65
-2.00
-0.03
1.30
2.21
3.01
3.88
4.85
5.80
6.61
7.19
7.56
7.79
7.95
8.04
8.02
7.80
7.31
6.60
5.78
5.00
4.42
4.07
3.87
3.63
3.15
2.28
1.03
-0.43
-1.88
-3.13
-4.13
-4.96
-5.83
-6.94
-8.41
-10.27
-12.34
-14.35
-15.89
-16.54
-16.01
-14.22
-11.38
-7.94
-4.46
-1.44
0.89
2.55
3.75
4.75
5.73
6.72
7.67
8.47
9.05
9.42
9.61
9.68
9.66
9.51
9.15
8.54
7.72
6.82
6.06
5.59
5.44
5.46
5.38
4.92
3.94
2.52
0.90
-0.65
-1.91
-2.86
-3.59
-4.27
-5.04
-5.97
-7.08
-8.38
-9.86
-11.51
-13.18
-14.61
-15.42
-15.24
-13.88
-11.44
-8.28
-4.93
-1.93
0.37
1.91
2.85
3.47
4.04
4.72
5.47
6.18
6.71
7.02
7.13
7.14
7.15
7.19
7.27
7.31
7.25
7.01
6.59
6.00
5.32
4.63
4.01
3.45
2.89
2.21
1.31
0.21
-1.02
-2.18
-3.13
-3.82
-4.32
-4.82
-5.52
-6.57
-8.04
-9.84
-11.75
-13.44
-14.53
-14.68
-13.70
-11.65
-8.81
-5.60
-2.51
0.13
2.18
3.71
4.92
6.02
7.12
8.21
9.12
9.72
9.95
9.85
9.59
9.33
9.17
9.06
8.91
8.60
8.13
7.57
7.09
6.77
6.60
6.45
6.12
5.41
4.27
2.78
1.13
-0.45
-1.80
-2.88
-3.75
-4.52
-5.33
-6.24
-7.34
-8.67
-10.26
-12.08
-13.95
-15.50
-16.25
-15.78
-13.90
-10.82
-7.13
-3.55
-0.69
1.20
2.27
2.94
3.65
4.65
5.90
7.15
8.13
8.68
8.83
8.73
8.57
8.49
8.51
8.59
8.64
8.59
8.43
8.19
7.88
7.51
7.01
6.28
5.28
4.00
2.57
1.14
-0.17
-1.31
-2.29
-3.19
-4.04
-4.86
-5.69
-6.59
-7.70
-9.13
-10.92
-12.90
-14.76
-16.12
-16.60
-16.00
-14.28
-11.65
-8.48
-5.21
-2.28
0.02
1.64
2.75
3.66
4.65
5.86
7.28
8.78
10.19
11.40
12.32
12.91
13.15
13.07
12.75
12.31
11.91
11.69
11.73
12.07
12.69
13.54
14.52
15.53
16.44
17.21
17.87
18.55
19.39
20.44
21.61
22.70
23.42
23.54
22.85
21.26
18.77
15.51
11.78
8.01
4.69
2.28
1.05
0.98
1.80
3.03
4.19
4.91
5.09
4.76
4.12
3.34
2.51
1.63
0.63
-0.51
-1.72
-2.86
-3.75
-4.25
-4.34
-4.15
-3.91
-3.85
-4.13
-4.76
-5.67
-6.69
-7.63
-8.36
-8.87
-9.37
-10.26
-12.10
-15.36
-20.30
-26.73
-34.03
-41.32
-47.69
-52.46
-55.30
-56.25
-55.57
-53.62
-50.81
-47.50
-44.01
-40.57
-37.23
-33.94
-30.55
-26.98
-23.21
-19.30
-15.31
-11.21
-6.88
-2.22
2.78
8.06
13.53
19.19
25.04
30.98
36.63
41.32
44.27
44.95
43.27
39.59
34.50
28.58
22.21
15.75
9.60
4.32
0.50
-1.53
-1.95
-1.48
-1.03
-1.40
-2.86
-5.13
-7.54
-9.42
-10.36
-10.41
-10.05
-9.98
-10.85
-12.95
-16.10
-19.61
-22.54
-24.04
-23.72
-21.72
-18.57
-14.93
-11.27
-7.79
-4.40
-0.92
2.72
6.40
9.91
13.12
16.07
19.00
22.04
25.23
28.43
31.34
33.58
34.88
35.13
34.49
33.33
31.89
30.45
29.38
28.91
29.02
29.38
29.52
29.11
28.05
26.03
23.10
19.76
16.61
13.95
11.65
9.24
6.17
1.91
-4.96
-15.31
-29.03
-44.89
-61.05
-75.60
-87.04
-94.61
-98.52
-101.00
-103.98
-108.08
-112.33
-115.14
-115.33
-112.76
-108.47
-97.36
-78.54
-54.96
-31.39
-10.77
6.70
21.95
35.45
46.22
54.34
58.56
58.38
54.43
48.22
41.28
34.68
28.96
24.59
21.93
19.99
17.95
15.60
13.45
12.17
12.17
13.45
15.61
18.18
20.04
20.65
20.18
19.30
18.61
18.25
17.96
17.35
16.25
14.46
12.25
10.34
9.59
10.49
12.99
16.40
19.57
21.26
20.28
16.08
8.93
-0.03
-9.18
-16.87
-21.92
-24.06
-24.01
-23.17
-23.04
-24.47
-27.26
-30.25
-31.90
-31.10
-27.76
-22.88
-18.05
-14.60
-13.02
-12.73
-12.62
-11.70
-9.67
-7.01
-4.61
-3.18
-2.84
-3.04
-2.86
-1.58
1.13
5.07
9.78
14.75
19.53
23.69
26.84
28.62
28.96
28.24
27.35
27.34
29.00
32.45
37.05
41.64
45.06
46.63
46.42
45.06
43.49
42.58
42.94
44.87
48.39
53.30
59.15
65.20
70.48
74.00
75.02
73.23
68.86
62.51
54.92
46.71
38.23
29.58
20.77
11.80
2.70
-6.46
-15.55
-24.30
-32.23
-38.67
-42.98
-44.86
-44.58
-43.08
-41.69
-41.73
-44.07
-48.82
-55.40
-62.75
-69.61
-74.84
-77.59
-77.41
-74.37
-69.09
-62.63
-56.19
-50.71
-46.51
-43.24
-40.01
-35.85
-30.19
-23.07
-15.07
-6.97
0.57
7.26
13.06
18.05
22.15
25.14
26.77
27.05
26.29
25.06
23.92
23.24
23.04
23.15
23.39
23.74
24.45
25.79
27.88
30.56
33.50
36.26
38.47
39.87
40.42
40.37
39.88
38.95
37.51
35.55
33.25
30.97
29.09
27.87
27.41
27.24
26.45
24.25
20.62
16.27
12.38
9.88
9.08
9.83
11.26
12.17
11.54
8.90
4.25
-2.10
-9.57
-19.24
-30.01
-39.37
-45.22
-47.57
-48.37
-50.00
-53.55
-58.89
-64.80
-69.45
-71.62
-71.18
-68.88
-65.29
-61.17
-57.10
-53.36
-49.84
-45.91
-41.05
-35.13
-28.36
-21.22
-14.33
-8.22
-3.26
0.51
3.50
6.20
8.89
11.71
14.73
17.99
21.57
25.54
29.87
34.42
38.84
42.60
45.29
46.79
47.30
47.23
47.00
46.78
46.56
46.09
45.05
43.19
40.36
36.62
32.16
27.30
22.44
17.95
14.10
11.03
8.76
7.23
6.37
6.07
6.10
6.06
5.52
4.10
1.68
-1.52
-5.05
-8.42
-11.30
-13.55
-15.15
-16.16
-16.58
-16.40
-15.67
-14.56
-13.33
-12.24
-11.39
-10.71
-9.99
-8.99
-7.61
-5.97
-4.35
-3.05
-2.24
-1.86
-1.67
-1.39
-0.82
0.05
1.11
2.11
2.79
2.93
2.43
1.39
0.12
-0.92
-1.31
-0.83
0.35
1.80
3.01
3.60
3.42
2.56
1.23
-0.37
-2.03
-3.49
-4.46
-4.63
-3.88
-2.33
-0.32
1.72
3.47
4.78
5.68
6.31
6.78
7.15
7.39
7.42
7.15
6.54
5.62
4.50
3.29
2.12
1.05
0.10
-0.76
-1.53
-2.23
-2.86
-3.44
-4.01
-4.68
-5.52
-6.59
-7.86
-9.26
-10.67
-11.98
-13.13
-14.08
-14.91
-15.68
-16.51
-17.45
-18.45
-19.34
-19.87
-19.78
-18.94
-17.36
-15.22
-12.79
-10.35
-8.10
-6.15
-4.51
-3.12
-1.88
-0.69
0.49
1.64
2.69
3.53
4.14
4.53
4.80
5.03
5.25
5.38
5.38
5.20
4.89
4.55
4.29
4.16
4.12
4.06
3.83
3.33
2.52
1.43
0.20
-1.00
-2.05
-2.86
-3.51
-4.09
-4.74
-5.56
-6.55
-7.64
-8.67
-9.44
-9.80
-9.58
-8.68
-7.11
-4.91
-2.25
0.64
3.49
6.08
8.26
9.99
11.38
12.59
13.87
15.40
17.34
19.72
22.45
25.22
27.48
28.58
27.92
25.24
20.71
14.97
8.87
3.20
-1.53
-5.20
-7.95
-10.10
-11.93
-13.65
-15.36
-17.10
-18.80
-20.41
-21.82
-23.04
-24.10
-25.13
-26.19
-27.28
-28.25
-28.81
-28.67
-27.62
-25.61
-22.81
-19.52
-16.10
-12.85
-9.92
-7.35
-5.11
-3.15
-1.43
0.11
1.53
2.91
4.26
5.56
6.70
7.60
8.16
8.38
8.31
8.02
7.61
7.16
6.75
6.48
6.38
6.43
6.52
6.50
6.24
5.71
4.96
4.15
3.39
2.72
2.08
1.34
0.37
-0.89
-2.42
-4.13
-5.85
-7.35
-8.38
-8.66
-8.04
-6.54
-4.38
-1.97
0.25
1.96
3.09
3.78
4.31
4.89
5.60
6.34
6.96
7.34
7.48
7.46
7.41
7.38
7.35
7.23
6.97
6.56
6.08
5.65
5.37
5.22
5.09
4.79
4.17
3.20
1.99
0.75
-0.38
-1.34
-2.21
-3.14
-4.27
-5.63
-7.13
-8.62
-9.94
-10.92
-11.36
-11.10
-10.06
-8.25
-5.91
-3.36
-0.99
0.95
2.37
3.34
4.05
4.69
5.39
6.23
7.17
8.11
8.94
9.55
9.89
9.91
9.61
9.00
8.16
7.25
6.47
6.04
6.06
6.42
6.82
6.86
6.26
4.99
3.30
1.62
0.36
-0.27
-0.35
-0.20
-0.22
-0.72
-1.82
-3.46
-5.39
-7.27
-8.57
-8.65
-6.96
-3.31
1.85
7.38
11.80
13.97
13.56
11.31
8.65
7.00
7.11
8.85
11.39
13.80
15.49
16.35
16.54
16.16
15.07
13.03
9.92
5.94
1.64
-2.31
-5.39
-7.45
-8.70
-9.50
-10.16
-10.81
-11.43
-11.86
-11.95
-11.57
-10.67
-9.21
-7.30
-5.18
-3.16
-1.53
-0.40
0.36
1.00
1.77
2.74
3.71
4.30
4.19
3.26
1.66
-0.24
-2.03
-3.41
-4.29
-4.77
-4.98
-5.03
-4.91
-4.54
-3.82
-2.78
-1.55
-0.35
0.55
0.98
0.89
0.35
-0.43
-1.17
-1.63
-1.70
-1.44
-1.07
-0.91
-1.17
-1.89
-2.89
-3.88
-4.59
-4.88
-4.85
-4.70
-4.73
-5.14
-6.00
-7.19
-8.50
-9.69
-10.59
-11.19
-11.64
-12.18
-13.02
-14.18
-15.47
-16.54
-16.93
-16.22
-14.13
-10.50
-5.39
0.81
7.22
12.55
15.47
15.27
12.34
8.14
4.57
3.07
3.93
6.27
8.64
9.92
9.85
8.97
8.11
7.69
7.55
7.13
5.98
4.07
1.69
-0.77
-3.16
-5.56
-8.16
-11.01
-14.00
-16.90
-19.52
-21.88
-24.18
-26.68
-29.59
-32.92
-36.53
-40.22
-43.78
-47.00
-49.61
-51.27
-51.57
-50.20
-47.12
-42.63
-37.28
-31.69
-26.26
-21.13
-16.22
-11.40
-6.69
-2.21
1.92
5.80
9.76
14.25
19.56
25.64
32.05
38.23
43.70
48.36
52.38
55.97
59.09
61.26
61.69
59.68
54.99
48.08
39.91
31.61
23.94
17.15
11.01
5.11
-0.77
-6.54
-11.82
-16.15
-19.11
-20.45
-20.13
-18.39
-15.66
-12.64
-10.09
-8.62
-8.56
-9.82
-11.95
-14.25
-15.99
-16.53
-15.43
-12.62
-8.36
-3.28
1.84
6.25
9.45
11.31
11.98
11.84
11.31
10.82
10.71
11.26
12.58
14.57
16.93
19.22
20.99
21.90
21.80
20.74
18.93
16.65
14.18
11.75
9.47
7.39
5.50
3.78
2.27
1.08
0.32
0.07
0.34
0.95
1.66
2.19
2.36
2.15
1.65
1.02
0.42
0.05
0.19
1.13
3.10
6.11
9.76
13.32
15.98
17.17
16.76
15.10
12.75
10.23
7.83
5.64
3.77
2.43
1.93
2.48
3.95
5.83
7.38
7.97
7.27
5.44
2.99
0.46
-1.70
-3.38
-4.67
-5.78
-6.86
-8.01
-9.24
-10.56
-12.01
-13.58
-15.22
-16.74
-17.84
-18.23
-17.67
-16.16
-13.88
-11.19
-8.49
-6.10
-4.18
-2.69
-1.47
-0.34
0.84
2.05
3.20
4.11
4.62
4.71
4.45
4.09
3.95
4.35
5.49
7.36
9.69
12.04
13.89
14.88
14.86
13.92
12.28
10.19
7.82
5.31
2.79
0.45
-1.46
-2.80
-3.58
-4.01
-4.48
-5.36
-6.85
-8.89
-11.17
-13.19
-14.49
-14.78
-13.98
-12.26
-9.97
-7.45
-5.01
-2.84
-0.98
0.59
1.94
3.15
4.27
5.30
6.21
6.94
7.45
7.71
7.72
7.57
7.35
7.15
6.98
6.77
6.44
5.94
5.29
4.64
4.12
3.79
3.58
3.30
2.77
1.90
0.77
-0.41
-1.47
-2.31
-2.98
-3.64
-4.47
-5.58
-7.01
-8.62
-10.22
-11.50
-12.21
-12.17
-11.37
-9.93
-8.10
-6.15
-4.27
-2.58
-1.06
0.31
1.59
2.78
3.84
4.71
5.38
5.84
6.13
6.32
6.45
6.54
6.53
6.41
6.16
5.80
5.43
5.16
5.09
5.27
5.64
6.04
6.26
6.11
5.49
4.47
3.23
2.02
1.03
0.34
-0.13
-0.53
-1.03
-1.69
-2.54
-3.50
-4.50
-5.47
-6.35
-7.10
-7.72
-8.25
-8.79
-9.50
-10.50
-11.83
-13.37
-14.85
-15.93
-16.28
-15.73
-14.33
-12.29
-9.95
-7.68
-5.77
-4.40
-3.57
-3.17
-2.94
-2.67
-2.16
-1.39
-0.44
0.53
1.43
2.21
2.90
3.50
3.92
4.10
4.04
3.89
3.98
4.63
5.96
7.78
9.61
10.92
11.31
10.74
9.43
7.78
6.15
4.80
3.84
3.28
3.13
3.33
3.79
4.42
5.15
5.93
6.78
7.60
8.27
8.65
8.68
8.49
8.34
8.53
9.21
10.31
11.61
12.88
14.01
15.03
16.08
17.25
18.58
20.01
21.44
22.71
23.58
23.72
22.76
20.51
17.07
12.79
8.21
3.76
-0.42
-4.50
-8.78
-13.45
-18.37
-23.09
-27.08
-29.97
-31.72
-32.64
-33.18
-33.75
-34.49
-35.32
-36.01
-36.35
-36.26
-35.76
-34.92
-33.73
-32.20
-30.38
-28.47
-26.77
-25.60
-25.11
-25.17
-25.35
-25.09
-23.92
-21.62
-18.34
-14.45
-10.37
-6.39
-2.58
1.15
4.91
8.66
12.17
15.12
17.19
18.25
18.32
17.56
16.19
14.42
12.48
10.64
9.14
8.19
7.85
8.02
8.44
8.81
8.86
8.47
7.64
6.44
5.00
3.41
1.71
-0.07
-1.89
-3.63
-5.11
-6.16
-6.69
-6.77
-6.60
-6.43
-6.50
-6.89
-7.56
-8.35
-9.09
-9.54
-9.52
-8.89
-7.60
-5.74
-3.54
-1.33
0.52
1.78
2.37
2.44
2.25
2.11
2.27
2.84
3.78
4.97
6.25
7.51
8.64
9.59
10.27
10.60
10.54
10.12
9.41
8.56
7.66
6.71
5.70
4.59
3.42
2.29
1.32
0.55
-0.05
-0.65
-1.40
-2.40
-3.64
-5.01
-6.33
-7.34
-7.85
-7.68
-6.80
-5.33
-3.49
-1.56
0.21
1.69
2.87
3.84
4.73
5.64
6.58
7.48
8.23
8.71
8.87
8.76
8.50
8.26
8.14
8.13
8.14
8.04
7.75
7.32
6.92
6.67
6.63
6.69
6.62
6.20
5.35
4.11
2.67
1.21
-0.22
-1.67
-3.24
-4.95
-6.68
-8.19
-9.22
-9.61
-9.38
-8.66
-7.68
-6.63
-5.61
-4.64
-3.70
-2.72
-1.66
-0.50
0.79
2.15
3.52
4.76
5.77
6.47
6.86
7.01
7.01
6.97
6.91
6.80
6.63
6.39
6.09
5.74
5.33
4.79
4.01
2.97
1.70
0.38
-0.80
-1.67
-2.21
-2.53
-2.85
-3.41
-4.37
-5.78
-7.50
-9.20
-10.44
-10.80
-10.08
-8.35
-6.01
-3.57
-1.52
-0.08
0.78
1.30
1.77
2.37
3.18
4.17
5.27
6.38
7.35
8.03
8.28
8.07
7.52
6.84
6.28
5.98
5.94
6.08
6.25
6.35
6.35
6.21
5.93
5.46
4.76
3.86
2.81
1.72
0.66
-0.31
-1.19
-1.95
-2.64
-3.27
-3.90
-4.61
-5.46
-6.51
-7.78
-9.28
-10.97
-12.75
-14.42
-15.70
-16.28
-15.94
-14.65
-12.65
-10.33
-8.13
-6.32
-4.99
-3.98
-3.08
-2.09
-0.97
0.17
1.15
1.83
2.21
2.48
2.92
3.81
5.26
7.13
9.13
10.86
12.08
12.71
12.86
12.71
12.39
11.90
11.18
10.17
8.88
7.46
6.05
4.76
3.60
2.50
1.41
0.36
-0.58
-1.33
-1.91
-2.45
-3.13
-4.06
-5.21
-6.33
-7.12
-7.29
-6.73
-5.50
-3.83
-2.01
-0.29
1.19
2.38
3.30
4.03
4.63
5.21
5.83
6.50
7.18
7.76
8.12
8.19
7.96
7.51
6.97
6.46
6.07
5.81
5.68
5.63
5.61
5.54
5.31
4.82
4.00
2.81
1.32
-0.34
-1.97
-3.43
-4.64
-5.62
-6.52
-7.52
-8.76
-10.25
-11.82
-13.18
-13.98
-13.97
-13.08
-11.44
-9.32
-6.99
-4.69
-2.58
-0.75
0.76
1.89
2.63
2.99
3.03
2.85
2.54
2.26
2.12
2.28
2.81
3.75
5.00
6.34
7.54
8.40
8.87
9.05
9.08
9.13
9.29
9.55
9.84
10.07
10.10
9.79
8.97
7.54
5.49
2.94
0.16
-2.55
-4.91
-6.80
-8.20
-9.17
-9.78
-10.12
-10.27
-10.36
-10.51
-10.76
-11.12
-11.44
-11.58
-11.40
-10.83
-9.88
-8.57
-6.96
-5.15
-3.29
-1.57
-0.13
0.96
1.81
2.61
3.54
4.61
5.70
6.57
7.05
7.12
6.95
6.84
7.02
7.53
8.21
8.74
8.84
8.35
7.38
6.19
5.08
4.27
3.81
3.57
3.35
2.97
2.38
1.60
0.74
-0.15
-1.05
-2.02
-3.12
-4.39
-5.76
-7.13
-8.38
-9.43
-10.34
-11.21
-12.09
-12.92
-13.48
-13.47
-12.69
-11.13
-9.02
-6.77
-4.75
-3.18
-2.05
-1.22
-0.49
0.27
1.08
1.90
2.67
3.37
3.99
4.49
4.83
4.96
4.89
4.66
4.41
4.28
4.38
4.71
5.18
5.61
5.83
5.73
5.32
4.69
3.99
3.31
2.69
2.08
1.43
0.73
0.01
-0.68
-1.31
-1.87
-2.42
-3.06
-3.87
-4.90
-6.11
-7.41
-8.61
-9.49
-9.84
-9.50
-8.46
-6.85
-4.91
-2.95
-1.22
0.13
1.05
1.59
1.87
2.02
2.16
2.39
2.74
3.18
3.67
4.10
4.37
4.40
4.18
3.75
3.21
2.66
2.22
1.92
1.77
1.73
1.72
1.65
1.42
0.98
0.29
-0.58
-1.52
-2.35
-2.95
-3.28
-3.44
-3.61
-3.99
-4.70
-5.71
-6.86
-7.96
-8.85
-9.40
-9.54
-9.25
-8.51
-7.38
-5.97
-4.44
-2.96
-1.65
-0.57
0.31
1.05
1.71
2.33
2.92
3.45
3.85
4.07
4.05
3.79
3.33
2.75
2.14
1.57
1.05
0.61
0.24
-0.04
-0.23
-0.37
-0.53
-0.82
-1.29
-1.91
-2.61
-3.24
-3.70
-3.99
-4.16
-4.36
-4.69
-5.24
-5.98
-6.84
-7.65
-8.22
-8.39
-8.04
-7.09
-5.60
-3.70
-1.63
0.37
2.10
3.48
4.56
5.47
6.32
7.15
7.91
8.49
8.81
8.84
8.62
8.24
7.76
7.20
6.60
5.99
5.45
5.06
4.83
4.66
4.38
3.82
2.88
1.64
0.26
-1.03
-2.09
-2.88
-3.47
-3.99
-4.56
-5.27
-6.17
-7.32
-8.72
-10.31
-11.90
-13.19
-13.85
-13.63
-12.46
-10.51
-8.13
-5.78
-3.81
-2.39
-1.43
-0.67
0.21
1.40
2.86
4.34
5.50
6.10
6.13
5.83
5.56
5.54
5.82
6.21
6.45
6.41
6.11
5.78
5.61
5.68
5.87
5.95
5.65
4.85
3.58
2.03
0.44
-0.95
-2.02
-2.76
-3.27
-3.75
-4.37
-5.27
-6.52
-8.07
-9.78
-11.39
-12.62
-13.16
-12.80
-11.51
-9.46
-6.98
-4.46
-2.22
-0.45
0.85
1.81
2.58
3.30
4.06
4.89
5.78
6.68
7.53
8.24
8.73
8.94
8.89
8.64
8.30
7.98
7.73
7.61
7.59
7.63
7.64
7.49
7.08
6.35
5.37
4.27
3.25
2.43
1.81
1.28
0.66
-0.17
-1.23
-2.39
-3.47
-4.34
-4.98
-5.48
-6.03
-6.82
-8.00
-9.56
-11.34
-13.07
-14.39
-14.98
-14.63
-13.34
-11.24
-8.63
-5.83
-3.15
-0.80
1.14
2.67
3.89
4.93
5.90
6.85
7.77
8.57
9.17
9.49
9.49
9.22
8.80
8.40
8.14
8.08
8.13
8.13
7.91
7.42
6.73
6.03
5.46
5.04
4.69
4.25
3.59
2.72
1.71
0.69
-0.24
-1.10
-1.93
-2.80
-3.75
-4.80
-5.98
-7.29
-8.71
-10.11
-11.30
-12.01
-11.99
-11.14
-9.55
-7.44
-5.13
-2.88
-0.87
0.84
2.25
3.39
4.26
4.87
5.26
5.51
5.72
5.93
6.16
6.35
6.43
6.36
6.16
5.88
5.59
5.35
5.18
5.09
5.08
5.11
5.08
4.84
4.27
3.36
2.30
1.47
1.32
2.15
3.94
6.28
8.48
9.87
9.99
8.76
6.47
3.66
0.95
-1.12
-2.17
-2.04
-0.83
1.12
3.34
5.34
6.78
7.56
7.82
7.81
7.74
7.65
7.43
6.91
5.97
4.64
3.07
1.50
0.12
-0.99
-1.84
-2.51
-3.09
-3.57
-3.87
-3.91
-3.68
-3.31
-3.07
-3.25
-4.03
-5.40
-7.13
-8.90
-10.41
-11.47
-12.08
-12.37
-12.54
-12.83
-13.37
-14.23
-15.28
-16.23
-16.68
-16.25
-14.69
-12.02
-8.52
-4.64
-0.82
2.61
5.58
8.16
10.49
12.66
14.63
16.22
17.23
17.49
16.98
15.82
14.26
12.57
10.98
9.62
8.53
7.67
6.97
6.37
5.84
5.39
5.01
4.69
4.41
4.09
3.67
3.08
2.27
1.26
0.10
-1.11
-2.24
-3.23
-4.10
-5.01
-6.11
-7.57
-9.38
-11.38
-13.24
-14.67
-15.42
-15.42
-14.76
-13.57
-12.02
-10.26
-8.44
-6.70
-5.14
-3.83
-2.73
-1.75
-0.81
0.07
0.80
1.25
1.37
1.23
1.01
0.89
0.98
1.28
1.68
2.08
2.43
2.70
2.89
2.93
2.69
2.07
1.07
-0.17
-1.41
-2.39
-2.95
-3.11
-3.00
-2.88
-2.97
-3.45
-4.39
-5.78
-7.46
-9.22
-10.75
-11.73
-11.87
-11.09
-9.45
-7.24
-4.79
-2.41
-0.28
1.56
3.16
4.54
5.73
6.68
7.33
7.69
7.80
7.74
7.62
7.51
7.43
7.37
7.30
7.20
7.06
6.93
6.81
6.67
6.43
6.02
5.40
4.60
3.68
2.72
1.77
0.82
-0.14
-1.16
-2.28
-3.53
-4.93
-6.45
-7.99
-9.35
-10.27
-10.54
-10.02
-8.76
-6.91
-4.73
-2.49
-0.43
1.28
2.54
3.40
3.98
4.47
5.02
5.68
6.36
6.90
7.16
7.09
6.76
6.27
5.73
5.24
4.83
4.53
4.34
4.21
4.05
3.70
3.06
2.12
0.99
-0.14
-1.14
-1.97
-2.67
-3.42
-4.34
-5.53
-6.96
-8.52
-9.99
-11.10
-11.61
-11.34
-10.28
-8.55
-6.38
-4.08
-1.89
0.06
1.71
3.11
4.30
5.28
6.05
6.61
6.98
7.24
7.47
7.71
7.92
8.01
7.85
7.39
6.68
5.88
5.19
4.75
4.60
4.60
4.56
4.24
3.52
2.41
1.03
-0.43
-1.80
-3.00
-3.97
-4.74
-5.34
-5.85
-6.40
-7.14
-8.17
-9.46
-10.77
-11.72
-11.91
-11.11
-9.37
-7.02
-4.54
-2.34
-0.64
0.57
1.51
2.38
3.37
4.49
5.65
6.67
7.40
7.75
7.76
7.54
7.25
7.02
6.92
6.94
7.01
7.02
6.90
6.62
6.19
5.68
5.12
4.55
3.96
3.31
2.58
1.73
0.75
-0.34
-1.48
-2.56
-3.49
-4.19
-4.68
-5.10
-5.65
-6.52
-7.82
-9.48
-11.31
-12.98
-14.14
-14.52
-13.98
-12.52
-10.31
-7.64
-4.88
-2.38
-0.38
1.10
2.16
3.03
3.92
4.89
5.92
6.87
7.67
8.29
8.80
9.30
9.87
10.53
11.26
12.03
12.85
13.73
14.63
15.39
15.76
15.46
14.34
12.43
10.02
7.57
5.58
4.45
4.40
5.45
7.49
10.23
13.26
16.00
17.81
18.26
17.21
14.97
12.15
9.47
7.48
6.41
6.18
6.51
7.03
7.40
7.34
6.64
5.22
3.11
0.49
-2.43
-5.50
-8.67
-12.04
-15.72
-19.73
-23.82
-27.45
-29.82
-30.15
-27.88
-22.98
-15.97
-7.78
0.58
8.36
15.21
21.16
26.40
30.98
34.76
37.46
38.82
38.77
37.39
34.87
31.33
26.85
21.50
15.49
9.21
3.24
-1.80
-5.47
-7.64
-8.56
-8.87
-9.35
-10.76
-13.56
-17.75
-22.92
-28.33
-33.24
-37.19
-40.13
-42.37
-44.37
-46.48
-48.71
-50.80
-52.32
-52.93
-52.50
-51.10
-48.92
-46.17
-42.97
-39.40
-35.55
-31.60
-27.79
-24.42
-21.63
-19.43
-17.63
-15.97
-14.20
-12.22
-10.12
-8.10
-6.48
-5.50
-5.26
-5.62
-6.23
-6.58
-6.21
-4.80
-2.38
0.75
4.11
7.15
9.51
11.04
11.85
12.24
12.57
13.12
14.01
15.17
16.35
17.27
17.72
17.67
17.19
16.47
15.64
14.79
13.92
13.03
12.15
11.32
10.58
9.88
9.12
8.16
6.90
5.38
3.69
2.00
0.50
-0.74
-1.70
-2.49
-3.27
-4.19
-5.35
-6.78
-8.39
-10.03
-11.52
-12.67
-13.28
-13.19
-12.32
-10.67
-8.42
-5.86
-3.33
-1.09
0.73
2.20
3.49
4.79
6.20
7.72
9.26
10.71
11.96
12.91
13.52
13.70
13.46
12.90
12.20
11.55
11.12
10.95
10.92
10.85
10.52
9.84
8.82
7.62
6.40
5.30
4.36
3.55
2.73
1.79
0.62
-0.83
-2.51
-4.33
-6.12
-7.65
-8.70
-9.05
-8.57
-7.27
-5.34
-3.04
-0.71
1.36
3.02
4.28
5.27
6.14
6.96
7.73
8.34
8.71
8.78
8.61
8.30
7.97
7.66
7.39
7.12
6.84
6.56
6.30
6.06
5.78
5.39
4.79
3.93
2.84
1.64
0.44
-0.63
-1.54
-2.39
-3.32
-4.49
-5.98
-7.70
-9.38
-10.69
-11.29
-11.01
-9.88
-8.08
-5.93
-3.75
-1.76
-0.07
1.36
2.65
3.89
5.14
6.35
7.43
8.30
8.90
9.24
9.39
9.41
9.32
9.10
8.71
8.12
7.38
6.60
5.91
5.41
5.10
4.87
4.53
3.91
2.91
1.63
0.24
-1.01
-1.96
-2.61
-3.13
-3.77
-4.73
-6.10
-7.74
-9.35
-10.57
-11.11
-10.77
-9.58
-7.66
-5.28
-2.74
-0.32
1.79
3.54
5.00
6.31
7.60
8.91
10.17
11.24
12.00
12.40
12.53
12.50
12.39
12.18
11.77
11.06
10.04
8.88
7.81
7.09
6.78
6.76
6.71
6.30
5.30
3.71
1.71
-0.36
-2.21
-3.68
-4.73
-5.49
-6.14
-6.88
-7.86
-9.17
-10.82
-12.69
-14.52
-15.93
-16.55
-16.10
-14.56
-12.22
-9.53
-7.02
-5.02
-3.63
-2.70
-1.94
-1.13
-0.18
0.82
1.72
2.39
2.81
3.08
3.34
3.74
4.28
4.90
5.44
5.81
5.98
6.00
5.96
5.90
5.77
5.45
4.84
3.91
2.73
1.39
0.02
-1.34
-2.63
-3.78
-4.74
-5.46
-5.96
-6.39
-6.93
-7.75
-8.92
-10.30
-11.58
-12.41
-12.46
-11.60
-9.90
-7.66
-5.24
-2.99
-1.09
0.43
1.67
2.76
3.77
4.68
5.46
6.11
6.67
7.21
7.74
8.18
8.39
8.26
7.76
7.04
6.33
5.90
5.88
6.23
6.75
7.13
7.13
6.58
5.54
4.19
2.80
1.61
0.75
0.19
-0.18
-0.56
-1.11
-1.91
-2.95
-4.09
-5.06
-5.57
-5.31
-4.15
-2.19
0.26
2.70
4.64
5.80
6.16
5.96
5.55
5.25
5.22
5.49
5.99
6.66
7.50
8.57
9.93
11.58
13.36
14.89
15.64
15.09
12.94
9.30
4.67
-0.24
-4.78
-8.61
-11.73
-14.35
-16.68
-18.69
-20.18
-20.93
-20.93
-20.46
-20.02
-20.07
-20.83
-22.15
-23.58
-24.55
-24.60
-23.55
-21.53
-18.94
-16.25
-13.78
-11.65
-9.67
-7.51
-4.82
-1.46
2.45
6.58
10.48
13.77
16.20
17.75
18.53
18.73
18.52
18.02
17.34
16.58
15.89
15.46
15.49
16.07
17.24
18.86
20.71
22.48
23.85
24.46
24.02
22.35
19.45
15.61
11.34
7.14
3.37
0.05
-3.12
-6.65
-10.95
-16.15
-22.01
-27.95
-33.30
-37.53
-40.40
-41.99
-42.63
-42.67
-42.35
-41.74
-40.78
-39.40
-37.63
-35.57
-33.30
-30.80
-27.86
-24.22
-19.72
-14.45
-8.80
-3.28
1.59
5.50
8.43
10.56
12.18
13.59
14.92
16.15
17.16
17.76
17.83
17.34
16.41
15.21
13.96
12.80
11.83
11.08
10.52
10.02
9.42
8.48
7.05
5.12
2.87
0.64
-1.16
-2.20
-2.29
-1.45
0.14
2.16
4.23
5.97
7.12
7.53
7.30
6.73
6.25
6.25
6.99
8.41
10.26
12.10
13.54
14.29
14.22
13.36
11.84
9.83
7.58
5.33
3.35
1.83
0.85
0.30
-0.03
-0.42
-1.09
-2.11
-3.34
-4.50
-5.29
-5.58
-5.42
-5.07
-4.87
-5.06
-5.69
-6.59
-7.49
-8.15
-8.46
-8.43
-8.16
-7.72
-7.15
-6.46
-5.72
-5.00
-4.34
-3.70
-2.90
-1.75
-0.11
1.92
4.05
5.87
7.02
7.34
6.91
6.06
5.17
4.57
4.36
4.48
4.70
4.76
4.53
3.96
3.16
2.27
1.44
0.71
0.10
-0.37
-0.71
-0.90
-0.97
-1.03
-1.26
-1.78
-2.62
-3.55
-4.23
-4.27
-3.53
-2.17
-0.67
0.34
0.42
-0.57
-2.32
-4.25
-5.71
-6.22
-5.65
-4.13
-2.01
0.28
2.42
4.19
5.53
6.46
7.05
7.41
7.61
7.70
7.67
7.51
7.17
6.60
5.81
4.81
3.64
2.36
1.02
-0.29
-1.54
-2.69
-3.81
-5.06
-6.65
-8.67
-10.99
-13.23
-14.88
-15.46
-14.79
-13.06
-10.76
-8.49
-6.71
-5.66
-5.29
-5.40
-5.70
-5.92
-5.89
-5.50
-4.72
-3.58
-2.18
-0.61
1.07
2.85
4.76
6.84
9.07
11.36
13.53
15.39
16.77
17.63
17.99
17.93
17.54
16.91
16.12
15.26
14.44
13.71
13.02
12.22
11.11
9.57
7.61
5.34
2.88
0.33
-2.31
-5.02
-7.72
-10.23
-12.31
-13.70
-14.19
-13.69
-12.20
-9.80
-6.67
-3.11
0.50
3.79
6.41
8.21
9.17
9.44
9.26
8.85
8.42
8.10
7.96
7.97
8.05
8.05
7.82
7.25
6.27
4.91
3.22
1.33
-0.65
-2.61
-4.41
-5.92
-7.04
-7.69
-7.88
-7.75
-7.50
-7.39
-7.59
-8.23
-9.23
-10.43
-11.53
-12.18
-12.06
-11.03
-9.13
-6.62
-3.86
-1.21
1.10
2.99
4.53
5.83
6.97
7.99
8.89
9.63
10.15
10.42
10.43
10.24
9.94
9.61
9.30
8.99
8.65
8.25
7.81
7.37
7.00
6.64
6.18
5.46
4.36
2.86
1.10
-0.64
-2.08
-2.97
-3.22
-2.93
-2.44
-2.22
-2.73
-4.31
-6.99
-10.48
-14.25
-17.62
-19.97
-20.93
-20.39
-18.54
-15.78
-12.53
-9.20
-6.06
-3.24
-0.74
1.49
3.53
5.41
7.13
8.61
9.74
10.36
10.36
9.66
8.33
6.60
4.78
3.23
2.19
1.71
1.61
1.59
1.37
0.77
-0.20
-1.39
-2.63
-3.81
-4.89
-5.92
-6.94
-7.94
-8.90
-9.77
-10.55
-11.24
-11.83
-12.27
-12.45
-12.26
-11.62
-10.53
-9.12
-7.52
-5.86
-4.24
-2.66
-1.16
0.26
1.53
2.64
3.57
4.36
5.02
5.59
6.05
6.38
6.64
6.87
7.13
7.44
7.79
8.08
8.18
7.94
7.26
6.10
4.51
2.62
0.64
-1.18
-2.66
-3.72
-4.42
-4.97
-5.54
-6.28
-7.16
-8.02
-8.60
-8.64
-7.99
-6.69
-4.91
-2.93
-1.01
0.70
2.17
3.45
4.61
5.67
6.64
7.44
7.99
8.26
8.26
8.08
7.83
7.63
7.56
7.58
7.61
7.54
7.29
6.84
6.25
5.55
4.81
4.06
3.28
2.42
1.46
0.40
-0.70
-1.78
-2.78
-3.75
-4.83
-6.16
-7.73
-9.31
-10.46
-10.71
-9.73
-7.53
-4.38
-0.77
2.82
5.99
8.41
9.81
10.07
9.20
7.49
5.38
3.40
1.96
1.23
1.09
1.31
1.62
1.85
1.94
1.93
1.85
1.76
1.66
1.50
1.22
0.78
0.15
-0.65
-1.55
-2.44
-3.25
-3.93
-4.49
-5.00
-5.58
-6.35
-7.40
-8.69
-10.07
-11.26
-11.95
-11.87
-10.91
-9.17
-6.89
-4.43
-2.14
-0.25
1.18
2.21
3.01
3.77
4.58
5.48
6.39
7.21
7.86
8.33
8.63
8.80
8.83
8.68
8.32
7.78
7.16
6.62
6.27
6.11
6.03
5.82
5.31
4.43
3.27
1.97
0.69
-0.51
-1.61
-2.64
-3.65
-4.68
-5.76
-6.95
-8.28
-9.70
-11.07
-12.15
-12.67
-12.46
-11.48
-9.88
-7.94
-5.96
-4.14
-2.53
-1.05
0.45
2.09
3.90
5.82
7.75
9.59
11.34
13.02
14.68
16.25
17.56
18.33
18.26
17.14
14.99
12.07
8.87
5.98
3.96
3.19
3.76
5.42
7.71
10.04
11.95
13.19
13.85
14.21
14.60
15.22
16.08
17.03
17.83
18.25
18.11
17.36
16.07
14.50
13.08
12.28
12.31
12.86
13.07
11.76
7.95
1.34
-7.44
-17.06
-25.92
-32.73
-36.78
-37.97
-36.59
-33.15
-28.27
-22.70
-17.36
-13.23
-11.10
-11.31
-13.54
-16.97
-20.54
-23.32
-24.81
-24.98
-24.13
-22.70
-21.06
-19.42
-17.90
-16.59
-15.59
-15.03
-14.96
-15.35
-16.04
-16.87
-17.69
-18.47
-19.15
-19.67
-19.92
-19.73
-19.01
-17.75
-16.09
-14.20
-12.13
-9.79
-6.97
-3.54
0.44
4.60
8.40
11.31
13.08
13.81
13.89
13.83
13.98
14.47
15.16
15.85
16.33
16.52
16.45
16.18
15.79
15.28
14.71
14.08
13.45
12.86
12.32
11.85
11.45
11.11
10.78
10.35
9.68
8.59
7.03
5.11
3.11
1.39
0.23
-0.26
-0.23
-0.03
-0.08
-0.72
-2.06
-3.98
-6.13
-8.06
-9.37
-9.78
-9.19
-7.71
-5.57
-3.10
-0.62
1.58
3.32
4.58
5.41
5.92
6.22
6.37
6.35
6.18
5.92
5.69
5.63
5.78
6.08
6.36
6.47
6.37
6.12
5.87
5.67
5.44
4.98
4.08
2.68
0.88
-1.06
-2.88
-4.42
-5.65
-6.63
-7.39
-7.96
-8.31
-8.49
-8.65
-8.99
-9.68
-10.73
-11.95
-12.99
-13.50
-13.19
-11.99
-10.02
-7.54
-4.87
-2.27
0.05
2.03
3.70
5.09
6.27
7.27
8.10
8.76
9.27
9.63
9.84
9.87
9.73
9.43
9.07
8.74
8.55
8.46
8.38
8.13
7.56
6.59
5.26
3.70
2.12
0.68
-0.49
-1.39
-2.10
-2.80
-3.64
-4.75
-6.16
-7.75
-9.25
-10.35
-10.79
-10.39
-9.18
-7.33
-5.09
-2.78
-0.65
1.12
2.45
3.37
4.00
4.47
4.92
5.42
5.94
6.38
6.59
6.47
6.04
5.45
4.89
4.52
4.38
4.40
4.39
4.21
3.78
3.09
2.21
1.21
0.17
-0.91
-1.99
-3.07
-4.15
-5.24
-6.38
-7.63
-8.99
-10.36
-11.55
-12.29
-12.32
-11.51
-9.90
-7.72
-5.26
-2.87
-0.77
0.92
2.23
3.25
4.10
4.85
5.56
6.22
6.81
7.27
7.56
7.63
7.41
6.91
6.17
5.29
4.44
3.80
3.49
3.49
3.64
3.67
3.31
2.41
1.04
-0.56
-2.06
-3.25
-4.06
-4.65
-5.20
-5.85
-6.61
-7.33
-7.75
-7.55
-6.45
-4.24
-0.91
3.30
7.84
11.97
14.98
16.40
16.19
14.77
12.85
11.15
10.19
10.21
11.12
12.71
14.71
16.93
19.22
21.48
23.62
25.54
27.22
28.70
30.10
31.54
33.05
34.56
35.94
37.07
37.93
38.68
39.59
40.91
42.81
45.11
47.20
48.01
46.23
40.72
31.00
17.48
1.50
-15.02
-30.15
-42.37
-50.85
-55.50
-56.83
-55.70
-53.13
-50.02
-47.06
-44.52
-42.25
-39.73
-36.16
-30.79
-23.15
-13.33
-2.05
9.42
19.60
27.31
31.97
33.74
33.27
31.40
28.81
25.91
22.93
20.02
17.37
15.10
13.20
11.48
9.66
7.54
5.16
2.80
0.89
-0.21
-0.47
-0.30
-0.43
-1.68
-4.56
-9.01
-14.42
-19.78
-24.09
-26.72
-27.52
-26.82
-25.12
-22.86
-20.25
-17.31
-14.06
-10.69
-7.61
-5.32
-4.20
-4.36
-5.55
-7.33
-9.28
-11.15
-12.96
-14.93
-17.32
-20.33
-24.00
-28.19
-32.58
-36.60
-39.61
-40.96
-40.33
-37.79
-33.82
-29.11
-24.28
-19.70
-15.45
-11.52
-7.94
-4.99
-3.07
-2.63
-3.91
-6.86
-11.19
-16.39
-21.90
-27.11
-31.46
-34.42
-35.63
-34.97
-32.58
-28.86
-24.36
-19.67
-15.31
-11.67
-8.93
-7.07
-5.86
-4.96
-3.98
-2.65
-0.85
1.35
3.81
6.44
9.22
12.18
15.27
18.26
20.80
22.50
23.15
22.76
21.62
20.15
18.77
17.80
17.39
17.52
18.07
18.80
19.41
19.64
19.21
17.93
15.68
12.43
8.24
3.33
-1.92
-6.95
-11.18
-14.21
-15.94
-16.63
-16.72
-16.59
-16.36
-15.79
-14.48
-12.15
-8.85
-5.00
-1.13
2.28
5.09
7.38
9.34
11.04
12.45
13.45
13.94
13.93
13.46
12.45
10.72
8.04
4.37
-0.02
-4.51
-8.40
-11.23
-13.00
-14.16
-15.38
-17.22
-19.98
-23.63
-28.05
-33.12
-38.82
-45.08
-51.60
-57.69
-62.38
-64.66
-63.84
-59.96
-53.72
-46.25
-38.50
-30.73
-22.41
-12.62
-0.85
12.29
25.10
35.40
41.61
43.48
42.16
39.50
37.05
35.50
34.69
34.06
33.23
32.13
30.85
29.32
27.29
24.45
20.79
16.66
12.73
9.62
7.60
6.52
5.90
5.19
3.94
2.03
-0.42
-3.06
-5.46
-7.22
-8.09
-7.99
-6.97
-5.21
-2.90
-0.22
2.67
5.60
8.41
10.93
13.01
14.57
15.61
16.22
16.54
16.72
16.83
16.88
16.83
16.64
16.29
15.84
15.31
14.71
14.01
13.12
11.99
10.62
9.04
7.31
5.46
3.49
1.38
-0.93
-3.47
-6.18
-8.90
-11.40
-13.41
-14.75
-15.38
-15.39
-14.99
-14.32
-13.39
-12.01
-9.96
-7.14
-3.68
0.03
3.51
6.39
8.54
10.00
10.84
11.09
10.70
9.63
7.98
6.01
4.09
2.50
1.40
0.76
0.48
0.46
0.64
0.96
1.37
1.72
1.87
1.71
1.22
0.49
-0.36
-1.17
-1.78
-2.12
-2.20
-2.10
-2.02
-2.15
-2.61
-3.38
-4.29
-5.03
-5.34
-5.00
-3.94
-2.26
-0.11
2.24
4.55
6.61
8.32
9.69
10.81
11.77
12.60
13.22
13.53
13.45
13.03
12.39
11.69
11.01
10.32
9.53
8.56
7.43
6.22
5.04
3.88
2.64
1.21
-0.45
-2.25
-4.03
-5.64
-7.06
-8.35
-9.64
-10.94
-12.14
-13.02
-13.44
-13.40
-13.08
-12.79
-12.81
-13.27
-14.06
-14.88
-15.27
-14.76
-12.96
-9.70
-5.03
0.77
7.28
14.04
20.62
26.74
32.23
37.08
41.33
45.06
48.22
50.62
51.88
51.60
49.49
45.61
40.35
34.40
28.40
22.81
17.79
13.26
9.17
5.60
2.83
1.12
0.57
0.96
1.84
2.74
3.37
3.68
3.74
3.58
3.06
1.92
-0.01
-2.63
-5.52
-8.05
-9.69
-10.19
-9.64
-8.37
-6.76
-5.14
-3.75
-2.74
-2.20
-2.10
-2.23
-2.25
-1.78
-0.57
1.39
3.82
6.26
8.17
9.11
8.84
7.41
5.09
2.36
-0.29
-2.48
-4.08
-5.13
-5.78
-6.19
-6.47
-6.73
-7.09
-7.68
-8.66
-10.09
-11.87
-13.78
-15.50
-16.78
-17.57
-17.97
-18.23
-18.61
-19.35
-20.48
-21.82
-23.03
-23.77
-23.85
-23.21
-21.97
-20.32
-18.63
-17.14
-15.84
-14.56
-13.16
-11.69
-10.33
-9.37
-9.09
-9.89
-11.79
-14.19
-16.20
-17.14
-16.89
-15.90
-14.89
-14.55
-15.75
-18.60
-22.29
-25.56
-27.49
-27.99
-27.61
-27.25
-27.72
-30.22
-35.14
-41.78
-48.60
-53.96
-56.47
-55.22
-49.86
-36.56
-15.66
7.96
27.87
40.40
45.92
47.02
46.44
45.49
44.42
42.32
38.75
34.36
30.41
27.88
26.95
27.03
27.22
26.80
24.93
21.57
17.52
13.96
11.72
11.16
12.28
14.97
18.94
23.22
26.64
28.23
27.57
24.86
20.81
16.27
11.81
7.44
2.54
-3.36
-10.11
-16.82
-22.46
-26.42
-28.88
-30.61
-32.44
-34.66
-36.77
-37.67
-36.30
-32.25
-26.00
-18.68
-11.53
-5.35
-0.25
4.20
8.68
13.74
19.69
26.50
33.91
41.36
48.00
52.62
53.99
51.21
44.25
34.12
22.61
11.64
2.59
-4.12
-8.85
-12.30
-14.96
-16.82
-17.59
-17.07
-15.49
-13.49
-11.89
-11.28
-11.70
-12.67
-13.41
-13.17
-11.54
-8.66
-5.14
-2.00
-0.24
-0.52
-2.88
-6.73
-11.02
-14.64
-16.79
-17.17
-15.94
-13.53
-10.38
-6.79
-2.94
1.02
4.94
8.63
11.90
14.67
17.00
19.09
21.15
23.34
25.60
27.72
29.39
30.39
30.76
30.83
31.12
32.04
33.63
35.46
36.76
36.65
34.47
29.95
23.18
14.58
4.78
-5.46
-15.35
-24.12
-31.21
-36.40
-39.80
-41.78
-42.81
-43.20
-43.06
-42.28
-40.68
-38.12
-34.59
-30.24
-25.37
-20.37
-15.59
-11.35
-7.80
-4.97
-2.77
-1.02
0.44
1.77
3.06
4.32
5.46
6.36
6.88
6.97
6.68
6.16
5.63
5.38
5.67
6.65
8.34
10.50
12.62
14.07
14.20
12.62
9.35
4.77
-0.49
-5.80
-10.67
-14.83
-18.23
-20.92
-23.00
-24.54
-25.54
-25.92
-25.54
-24.33
-22.38
-19.98
-17.58
-15.58
-14.19
-13.30
-12.59
-11.73
-10.53
-9.05
-7.54
-6.23
-5.25
-4.54
-3.97
-3.36
-2.66
-1.83
-0.85
0.36
1.89
3.85
6.23
8.92
11.72
14.35
16.54
18.11
18.96
19.14
18.76
18.05
17.23
16.46
15.77
14.99
13.86
12.06
9.43
6.09
2.47
-0.81
-3.11
-4.11
-3.83
-2.67
-1.21
0.08
0.94
1.37
1.52
1.55
1.54
1.55
1.60
1.70
1.85
2.01
2.07
1.92
1.53
0.91
0.15
-0.64
-1.34
-1.80
-1.85
-1.29
-0.04
1.83
4.05
6.24
8.08
9.36
10.16
10.68
11.18
11.74
12.25
12.43
12.00
10.79
8.87
6.48
3.91
1.33
-1.19
-3.73
-6.28
-8.78
-11.03
-12.89
-14.31
-15.37
-16.17
-16.70
-16.78
-16.12
-14.49
-11.89
-8.57
-4.96
-1.46
1.65
4.24
6.31
7.89
9.02
9.78
10.26
10.60
10.87
11.07
11.08
10.76
9.99
8.77
7.18
5.38
3.50
1.62
-0.21
-1.99
-3.73
-5.44
-7.15
-8.86
-10.48
-11.86
-12.76
-12.96
-12.38
-11.09
-9.35
-7.47
-5.67
-4.05
-2.56
-1.16
0.16
1.36
2.41
3.39
4.48
5.89
7.75
10.06
12.66
15.36
17.97
20.42
22.64
24.55
25.95
26.53
26.00
24.20
21.26
17.54
13.60
9.99
7.10
5.14
4.14
4.01
4.58
5.58
6.62
7.28
7.21
6.34
5.02
3.99
4.03
5.68
8.86
12.82
16.41
18.52
18.50
16.39
12.88
8.88
5.17
2.14
-0.26
-2.26
-4.03
-5.50
-6.41
-6.49
-5.70
-4.35
-2.98
-2.16
-2.22
-3.13
-4.46
-5.72
-6.55
-6.92
-7.13
-7.50
-8.21
-9.11
-9.84
-10.07
-9.73
-9.10
-8.72
-9.10
-10.54
-13.03
-16.37
-20.25
-24.47
-28.81
-32.99
-36.51
-38.59
-38.38
-35.19
-28.90
-20.07
-9.91
0.16
8.86
15.47
19.87
22.43
23.72
24.29
24.51
24.62
24.82
25.29
26.09
27.15
28.18
28.76
28.52
27.29
25.16
22.42
19.35
16.04
12.35
8.07
3.09
-2.38
-7.84
-12.67
-16.45
-19.15
-21.10
-22.82
-24.76
-27.06
-29.58
-31.95
-33.79
-34.85
-35.02
-34.33
-32.85
-30.68
-27.89
-24.58
-20.88
-16.96
-13.06
-9.49
-6.57
-4.54
-3.43
-3.09
-3.13
-3.17
-2.92
-2.36
-1.67
-1.14
-1.02
-1.38
-2.23
-3.52
-5.21
-7.18
-9.02
-10.03
-9.31
-6.20
-0.78
5.98
12.36
16.60
17.58
15.27
10.66
5.27
0.40
-3.26
-5.72
-7.32
-8.36
-8.85
-8.59
-7.35
-5.15
-2.25
0.93
4.03
6.85
9.42
11.85
14.25
16.63
18.88
20.75
22.01
22.46
22.02
20.83
19.12
17.21
15.38
13.77
12.36
11.04
9.66
8.15
6.49
4.77
3.05
1.42
-0.08
-1.37
-2.38
-3.07
-3.42
-3.47
-3.35
-3.18
-3.14
-3.33
-3.82
-4.65
-5.74
-6.95
-8.07
-8.82
-8.98
-8.39
-7.03
-5.02
-2.63
-0.15
2.10
3.88
5.06
5.67
5.86
5.86
5.92
6.22
6.80
7.60
8.48
9.30
9.99
10.52
10.88
11.07
11.06
10.88
10.59
10.28
10.01
9.75
9.37
8.72
7.69
6.28
4.67
3.08
1.73
0.74
0.08
-0.37
-0.75
-1.15
-1.67
-2.33
-3.14
-4.05
-4.97
-5.67
-5.91
-5.48
-4.33
-2.62
-0.67
1.15
2.63
3.76
4.69
5.62
6.68
7.87
9.11
10.37
11.68
13.06
14.46
15.67
16.36
16.23
15.18
13.40
11.33
9.42
7.99
7.07
6.41
5.65
4.49
2.79
0.60
-1.89
-4.44
-6.82
-8.90
-10.59
-11.92
-13.03
-14.10
-15.30
-16.73
-18.30
-19.76
-20.76
-20.97
-20.24
-18.75
-16.92
-15.37
-14.63
-14.95
-16.14
-17.56
-18.36
-17.70
-15.10
-10.61
-4.84
1.29
6.84
11.16
14.10
16.01
17.55
19.41
22.10
25.70
29.93
34.12
37.37
38.73
37.36
32.85
25.36
15.74
5.29
-4.60
-12.85
-18.99
-23.17
-25.93
-27.83
-29.19
-30.05
-30.30
-29.84
-28.68
-26.91
-24.68
-22.13
-19.34
-16.39
-13.42
-10.67
-8.43
-6.84
-5.85
-5.31
-5.17
-5.46
-6.35
-8.00
-10.29
-12.69
-14.17
-13.59
-10.38
-4.90
1.74
8.15
13.15
16.20
17.29
16.70
14.77
11.80
8.34
5.45
4.41
6.06
10.33
15.36
18.10
16.73
11.52
3.97
-4.09
-10.98
-15.91
-19.04
-21.01
-22.43
-23.50
-24.10
-24.00
-22.99
-21.04
-18.27
-14.79
-10.54
-5.37
0.73
7.28
13.37
17.80
19.57
18.29
13.98
7.91
2.19
-1.62
-3.65
-4.65
-5.18
-5.50
-5.60
-5.35
-4.66
-3.69
-2.81
-2.36
-2.32
-2.39
-2.14
-1.19
0.66
3.27
6.18
8.68
10.20
10.63
10.26
9.59
9.09
8.97
9.20
9.50
9.57
9.31
8.93
8.76
9.05
9.85
10.95
11.95
12.37
11.80
10.10
7.51
4.49
1.52
-1.06
-3.21
-5.05
-6.76
-8.44
-9.96
-11.11
-11.76
-11.89
-11.67
-11.27
-10.81
-10.26
-9.52
-8.46
-7.08
-5.45
-3.70
-2.02
-0.56
0.58
1.35
1.78
1.95
2.03
2.14
2.33
2.60
2.82
2.92
2.84
2.63
2.36
2.11
1.90
1.66
1.32
0.79
0.09
-0.73
-1.62
-2.55
-3.54
-4.62
-5.77
-6.82
-7.55
-7.69
-7.13
-5.94
-4.34
-2.65
-1.07
0.41
1.93
3.72
5.91
8.43
11.06
13.50
15.51
16.96
17.89
18.38
18.50
18.25
17.58
16.49
15.06
13.48
11.96
10.62
9.46
8.37
7.17
5.78
4.25
2.70
1.28
0.06
-1.07
-2.26
-3.70
-5.44
-7.43
-9.48
-11.40
-13.01
-14.19
-14.86
-14.96
-14.45
-13.35
-11.77
-9.88
-7.88
-5.93
-4.09
-2.43
-0.97
0.18
0.96
1.34
1.41
1.37
1.51
2.03
3.04
4.48
6.19
7.98
9.75
11.51
13.42
15.69
18.51
21.88
25.51
28.86
31.22
31.93
30.58
27.11
21.87
15.48
8.75
2.50
-2.54
-5.87
-7.32
-7.09
-5.71
-3.85
-2.17
-1.08
-0.68
-0.82
-1.26
-1.75
-2.15
-2.44
-2.66
-2.84
-3.06
-3.33
-3.66
-4.02
-4.32
-4.47
-4.40
-4.11
-3.67
-3.17
-2.68
-2.24
-1.84
-1.49
-1.21
-1.04
-1.02
-1.19
-1.56
-2.09
-2.76
-3.50
-4.24
-4.93
-5.54
-6.09
-6.60
-7.10
-7.59
-8.08
-8.56
-9.03
-9.51
-10.04
-10.64
-11.33
-12.17
-13.17
-14.32
-15.47
-16.39
-16.76
-16.32
-14.98
-12.85
-10.21
-7.39
-4.67
-2.20
-0.10
1.58
2.76
3.35
3.39
2.99
2.36
1.73
1.24
0.88
0.51
-0.08
-1.05
-2.38
-3.88
-5.26
-6.24
-6.69
-6.65
-6.31
-5.91
-5.65
-5.60
-5.75
-5.96
-6.09
-6.01
-5.63
-4.97
-4.11
-3.24
-2.60
-2.36
-2.60
-3.21
-3.96
-4.55
-4.79
-4.59
-3.99
-3.07
-1.89
-0.42
1.39
3.54
5.94
8.34
10.46
11.99
12.76
12.73
12.03
10.90
9.60
8.31
7.12
5.90
4.34
1.96
-1.85
-7.54
-15.06
-23.45
-30.75
-34.49
-32.58
-24.41
-11.43
3.20
15.75
23.41
25.31
22.59
17.58
12.61
9.18
7.74
8.10
9.84
12.49
15.31
17.16
16.65
12.72
5.21
-4.73
-14.99
-23.19
-27.58
-27.64
-24.03
-18.22
-11.76
-5.86
-1.17
2.10
3.97
4.52
3.88
2.27
0.06
-2.29
-4.37
-5.97
-7.20
-8.35
-9.69
-11.19
-12.47
-12.94
-12.10
-9.83
-6.52
-2.94
0.14
2.21
3.24
3.53
3.54
3.53
3.55
3.43
2.97
2.10
0.85
-0.62
-2.17
-3.63
-4.82
-5.51
-5.50
-4.64
-2.99
-0.76
1.72
4.16
6.40
8.46
10.43
12.41
14.43
16.47
18.46
20.36
22.12
23.71
25.11
26.28
27.22
27.96
28.53
28.87
28.85
28.26
26.90
24.71
21.79
18.42
14.92
11.53
8.34
5.26
2.11
-1.27
-4.91
-8.68
-12.32
-15.57
-18.21
-20.13
-21.40
-22.23
-22.89
-23.70
-24.85
-26.38
-28.17
-29.98
-31.53
-32.60
-33.03
-32.77
-31.81
-30.20
-28.03
-25.48
-22.73
-19.99
-17.41
-15.05
-12.88
-10.87
-9.01
-7.37
-6.00
-4.90
-3.97
-2.99
-1.78
-0.27
1.43
3.08
4.41
5.24
5.54
5.48
5.26
5.08
5.03
5.12
5.30
5.51
5.74
5.92
5.99
5.83
5.35
4.53
3.45
2.28
1.20
0.34
-0.23
-0.56
-0.72
-0.77
-0.77
-0.75
-0.67
-0.46
0.02
0.87
2.18
3.92
5.96
8.13
10.24
12.11
13.67
14.95
16.08
17.33
18.95
21.09
23.69
26.45
28.95
30.80
31.78
31.90
31.34
30.35
29.14
27.88
26.68
25.60
24.63
23.69
22.60
21.11
19.10
16.61
13.90
11.35
9.24
7.60
6.09
4.14
1.20
-3.00
-8.35
-14.35
-20.31
-25.59
-29.70
-32.36
-33.48
-33.09
-31.38
-28.72
-25.61
-22.55
-19.90
-17.81
-16.14
-14.69
-13.24
-11.74
-10.24
-8.86
-7.62
-6.46
-5.23
-3.83
-2.26
-0.67
0.73
1.79
2.51
3.04
3.59
4.30
5.15
5.92
6.37
6.31
5.76
4.92
4.02
3.23
2.59
2.00
1.34
0.55
-0.34
-1.19
-1.87
-2.23
-2.20
-1.73
-0.89
0.18
1.27
2.14
2.61
2.64
2.34
1.99
1.87
2.22
3.16
4.66
6.64
8.92
11.32
13.59
15.49
16.79
17.32
17.06
16.08
14.58
12.77
10.91
9.22
7.92
7.09
6.70
6.52
6.20
5.40
3.97
2.02
-0.10
-1.99
-3.36
-4.23
-4.86
-5.65
-6.92
-8.75
-10.95
-13.09
-14.76
-15.64
-15.66
-14.92
-13.67
-12.13
-10.51
-8.91
-7.40
-6.02
-4.75
-3.57
-2.39
-1.14
0.23
1.69
3.15
4.46
5.56
6.45
7.19
7.87
8.52
9.07
9.39
9.32
8.78
7.80
6.55
5.25
4.10
3.18
2.45
1.78
1.02
0.06
-1.15
-2.58
-4.20
-5.91
-7.64
-9.32
-10.88
-12.34
-13.71
-15.07
-16.53
-18.14
-19.87
-21.54
-22.83
-23.32
-22.65
-20.67
-17.51
-13.63
-9.65
-6.08
-3.24
-1.14
0.39
1.57
2.49
3.14
3.46
3.46
3.29
3.16
3.25
3.56
4.01
4.43
4.71
4.86
5.01
5.28
5.74
6.35
6.95
7.37
7.39
6.86
5.71
3.95
1.67
-0.94
-3.60
-6.03
-7.96
-9.18
-9.60
-9.22
-8.25
-7.00
-5.87
-5.23
-5.30
-6.03
-7.13
-8.11
-8.46
-7.82
-6.08
-3.43
-0.27
2.94
5.84
8.21
10.02
11.30
12.15
12.64
12.90
13.06
13.30
13.70
14.27
14.84
15.21
15.19
14.77
14.10
13.39
12.80
12.35
11.90
11.32
10.57
9.76
9.07
8.62
8.27
7.74
6.64
4.76
2.17
-0.77
-3.60
-6.01
-7.98
-9.79
-11.82
-14.35
-17.38
-20.66
-23.82
-26.52
-28.57
-29.83
-30.28
-29.87
-28.63
-26.69
-24.31
-21.80
-19.42
-17.24
-15.09
-12.70
-9.86
-6.61
-3.24
-0.22
2.00
3.19
3.37
2.78
1.78
0.72
-0.16
-0.72
-0.89
-0.64
0.11
1.37
3.12
5.19
7.28
9.01
10.06
10.31
9.88
9.09
8.28
7.69
7.37
7.17
6.82
6.09
4.80
2.91
0.52
-2.17
-4.87
-7.23
-8.92
-9.73
-9.63
-8.80
-7.57
-6.26
-5.10
-4.12
-3.20
-2.16
-0.94
0.35
1.39
1.81
1.36
0.06
-1.79
-3.66
-4.99
-5.33
-4.48
-2.50
0.35
3.71
7.18
10.39
13.04
14.87
15.69
15.40
14.03
11.79
9.05
6.30
3.99
2.39
1.52
1.14
0.90
0.53
-0.06
-0.68
-1.03
-0.78
0.21
1.92
4.14
6.64
9.23
11.79
14.29
16.72
19.04
21.18
23.02
24.41
25.18
25.22
24.46
22.93
20.79
18.23
15.49
12.76
10.17
7.78
5.56
3.45
1.40
-0.67
-2.74
-4.79
-6.70
-8.36
-9.64
-10.53
-11.06
-11.33
-11.45
-11.51
-11.59
-11.79
-12.20
-12.94
-14.01
-15.27
-16.40
-17.01
-16.84
-15.83
-14.17
-12.21
-10.28
-8.57
-7.10
-5.78
-4.53
-3.36
-2.32
-1.44
-0.74
-0.18
0.33
0.84
1.46
2.28
3.40
4.93
6.85
9.03
11.25
13.27
14.95
16.28
17.34
18.22
18.93
19.36
19.32
18.66
17.31
15.41
13.26
11.23
9.69
8.86
8.67
8.80
8.74
8.06
6.51
4.25
1.73
-0.45
-1.82
-2.23
-1.84
-1.04
-0.20
0.43
0.78
0.89
0.82
0.59
0.17
-0.41
-1.09
-1.78
-2.43
-3.06
-3.75
-4.57
-5.48
-6.37
-7.08
-7.53
-7.73
-7.82
-7.94
-8.17
-8.52
-8.91
-9.28
-9.60
-9.89
-10.20
-10.51
-10.75
-10.84
-10.75
-10.55
-10.47
-10.74
-11.57
-13.00
-14.88
-16.94
-18.89
-20.53
-21.75
-22.53
-22.87
-22.74
-22.08
-20.89
-19.22
-17.21
-15.02
-12.77
-10.50
-8.19
-5.82
-3.42
-1.10
1.05
2.99
4.75
6.42
8.01
9.48
10.67
11.43
11.70
11.56
11.26
11.03
11.03
11.21
11.38
11.34
10.98
10.39
9.78
9.39
9.30
9.40
9.47
9.32
8.88
8.21
7.44
6.66
5.92
5.21
4.59
4.14
3.98
4.19
4.75
5.57
6.60
7.93
9.75
12.26
15.40
18.66
21.11
21.63
19.44
14.54
7.96
1.47
-3.05
-4.35
-2.22
2.51
8.47
14.34
19.29
23.10
25.88
27.84
29.08
29.61
29.44
28.63
27.25
25.28
22.58
18.99
14.43
9.03
3.10
-2.89
-8.47
-13.26
-17.04
-19.87
-21.98
-23.72
-25.43
-27.30
-29.31
-31.21
-32.63
-33.16
-32.51
-30.59
-27.47
-23.44
-18.93
-14.49
-10.57
-7.49
-5.30
-3.87
-2.99
-2.52
-2.49
-3.01
-4.21
-6.04
-8.31
-10.63
-12.54
-13.66
-13.78
-12.93
-11.41
-9.71
-8.38
-7.85
-8.31
-9.68
-11.61
-13.65
-15.39
-16.62
-17.37
-17.88
-18.56
-19.76
-21.73
-24.46
-27.71
-31.03
-33.92
-35.88
-36.52
-35.64
-33.31
-29.90
-26.11
-22.72
-20.27
-18.75
-17.47
-15.29
-11.10
-4.43
4.24
13.55
21.82
27.62
30.33
30.17
27.98
24.85
21.85
19.88
19.69
21.81
26.45
33.25
41.25
48.96
54.85
57.79
57.55
54.82
50.97
47.45
45.21
44.23
43.57
41.72
37.23
29.35
18.32
5.23
-8.31
-20.71
-30.68
-37.37
-40.37
-39.74
-36.08
-30.48
-24.39
-19.28
-16.13
-15.25
-16.17
-18.04
-19.97
-21.42
-22.26
-22.65
-22.83
-22.95
-23.00
-22.90
-22.50
-21.70
-20.44
-18.74
-16.67
-14.36
-11.95
-9.50
-7.05
-4.50
-1.80
1.05
3.90
6.50
8.60
10.05
10.95
11.62
12.55
14.24
17.14
21.48
27.24
33.98
40.73
46.19
48.87
47.67
42.28
33.45
22.80
12.33
3.72
-2.11
-5.16
-6.04
-5.59
-4.51
-3.26
-2.10
-1.23
-0.84
-1.07
-1.87
-3.04
-4.15
-4.83
-4.82
-4.19
-3.25
-2.49
-2.31
-2.93
-4.27
-6.02
-7.82
-9.42
-10.78
-12.06
-13.50
-15.30
-17.49
-19.91
-22.24
-24.11
-25.15
-25.09
-23.89
-21.78
-19.22
-16.75
-14.80
-13.48
-12.59
-11.66
-10.18
-7.77
-4.28
0.15
5.16
10.24
14.85
18.49
20.83
21.77
21.46
20.25
18.56
16.73
15.00
13.48
12.25
11.31
10.68
10.27
9.96
9.58
9.00
8.19
7.22
6.19
5.19
4.22
3.22
2.13
0.91
-0.40
-1.73
-3.01
-4.22
-5.33
-6.39
-7.41
-8.41
-9.33
-10.09
-10.54
-10.52
-9.88
-8.56
-6.62
-4.29
-1.90
0.23
1.85
2.90
3.52
3.94
4.44
5.20
6.22
7.36
8.40
9.13
9.49
9.58
9.57
9.59
9.67
9.69
9.53
9.12
8.53
7.90
7.37
6.95
6.52
5.88
4.91
3.67
2.40
1.37
0.75
0.52
0.44
0.20
-0.42
-1.48
-2.89
-4.49
-6.14
-7.74
-9.22
-10.48
-11.30
-11.47
-10.85
-9.48
-7.55
-5.39
-3.31
-1.49
0.02
1.29
2.41
3.48
4.49
5.42
6.24
6.95
7.57
8.16
8.75
9.36
10.00
10.64
11.26
11.87
12.51
13.20
13.91
14.58
15.14
15.56
15.90
16.33
17.01
18.06
19.47
21.11
22.72
24.03
24.66
24.20
22.33
18.87
14.01
8.27
2.35
-3.08
-7.60
-11.13
-13.78
-15.74
-17.14
-18.04
-18.49
-18.55
-18.25
-17.48
-16.00
-13.52
-9.86
-5.15
0.15
5.35
9.66
12.43
13.17
11.70
8.15
3.03
-2.87
-8.55
-13.11
-16.01
-17.28
-17.51
-17.60
-18.42
-20.45
-23.62
-27.32
-30.65
-32.70
-32.81
-30.64
-26.19
-19.79
-12.03
-3.74
4.14
10.68
15.17
17.31
17.24
15.41
12.49
9.06
5.64
2.60
0.28
-0.98
-0.78
1.17
4.90
10.05
15.83
21.27
25.46
27.90
28.69
28.38
27.77
27.51
27.86
28.63
29.37
29.55
28.83
27.12
24.51
21.23
17.63
14.18
11.40
9.74
9.35
9.94
10.83
11.11
9.99
7.10
2.56
-3.14
-9.32
-15.27
-20.44
-24.43
-27.06
-28.41
-28.83
-28.85
-28.98
-29.46
-30.12
-30.43
-29.75
-27.74
-24.51
-20.68
-17.14
-14.71
-13.74
-14.10
-15.23
-16.44
-17.22
-17.32
-16.79
-15.76
-14.39
-12.77
-11.02
-9.26
-7.59
-6.12
-4.87
-3.76
-2.68
-1.52
-0.24
1.17
2.61
3.99
5.19
6.16
6.86
7.30
7.51
7.55
7.48
7.39
7.27
7.06
6.57
5.57
3.86
1.38
-1.71
-5.15
-8.60
-11.84
-14.68
-17.01
-18.70
-19.55
-19.46
-18.46
-16.79
-14.88
-13.13
-11.82
-10.97
-10.38
-9.76
-8.89
-7.66
-6.08
-4.29
-2.38
-0.50
1.25
2.76
3.95
4.75
5.18
5.34
5.33
5.25
5.13
4.95
4.64
4.18
3.59
2.92
2.23
1.53
0.80
-0.01
-0.96
-2.09
-3.42
-4.90
-6.41
-7.73
-8.57
-8.66
-7.86
-6.19
-3.87
-1.27
1.25
3.43
5.14
6.39
7.30
7.96
8.45
8.85
9.20
9.53
9.84
10.08
10.16
9.99
9.53
8.79
7.90
7.00
6.19
5.52
4.96
4.47
4.01
3.54
3.03
2.39
1.53
0.38
-1.04
-2.63
-4.22
-5.70
-7.04
-8.34
-9.70
-11.12
-12.47
-13.49
-13.94
-13.71
-12.84
-11.53
-9.95
-8.21
-6.36
-4.40
-2.43
-0.56
1.09
2.50
3.73
4.89
6.06
7.19
8.17
8.92
9.47
9.94
10.49
11.20
12.03
12.92
13.83
14.87
16.24
18.17
20.83
24.12
27.74
31.12
33.57
34.44
33.26
29.87
24.50
17.65
10.03
2.31
-4.98
-11.49
-17.12
-21.88
-25.88
-29.24
-32.08
-34.40
-36.09
-36.86
-36.40
-34.47
-31.12
-26.71
-21.92
-17.54
-14.19
-12.11
-11.10
-10.59
-9.98
-8.80
-6.91
-4.42
-1.57
1.32
3.95
6.07
7.42
7.92
7.71
7.12
6.53
6.21
6.17
6.18
5.86
4.89
3.21
1.06
-1.23
-3.49
-5.79
-8.38
-11.44
-14.93
-18.58
-21.78
-23.85
-24.31
-23.19
-21.06
-18.67
-16.61
-15.16
-14.35
-13.90
-13.44
-12.70
-11.67
-10.44
-8.85
-6.50
-3.20
0.58
3.85
5.65
5.50
3.82
1.74
0.85
2.24
6.66
12.42
16.29
15.84
11.15
4.17
-3.23
-10.49
-18.00
-26.26
-35.17
-43.55
-49.54
-51.57
-48.17
-39.79
-28.11
-15.02
-1.99
10.11
21.12
31.07
39.77
46.65
50.94
52.51
52.09
51.07
50.89
52.61
56.62
62.41
68.57
73.17
74.46
71.59
64.84
55.36
44.78
34.56
25.60
18.16
12.05
7.21
3.84
2.32
2.84
5.22
8.77
12.43
15.06
15.74
14.05
10.23
4.95
-0.98
-6.86
-12.38
-17.55
-22.59
-27.66
-32.74
-37.61
-41.94
-45.43
-47.82
-48.92
-48.70
-47.30
-45.12
-42.74
-40.60
-38.80
-36.97
-34.49
-30.92
-26.29
-21.25
-16.73
-13.46
-11.49
-10.15
-8.43
-5.50
-1.20
3.81
8.35
11.32
12.23
11.44
9.97
9.04
9.50
11.46
14.36
17.23
19.22
19.88
19.30
17.88
16.08
14.18
12.27
10.31
8.27
6.24
4.37
2.82
1.64
0.73
-0.09
-1.07
-2.40
-4.12
-6.03
-7.74
-8.69
-8.36
-6.51
-3.28
0.77
4.93
8.56
11.34
13.39
15.04
16.63
18.20
19.48
19.97
19.22
17.13
13.99
10.43
7.15
4.65
3.12
2.37
2.07
1.89
1.67
1.41
1.20
1.15
1.26
1.47
1.66
1.73
1.57
1.16
0.46
-0.55
-1.90
-3.64
-5.81
-8.41
-11.38
-14.50
-17.46
-19.88
-21.38
-21.64
-20.48
-17.82
-13.72
-8.44
-2.54
3.22
7.95
10.96
12.02
11.39
9.75
7.88
6.34
5.30
4.66
4.21
3.95
4.06
4.85
6.56
9.17
12.42
15.87
19.09
21.74
23.60
24.55
24.49
23.35
21.09
17.76
13.54
8.76
3.85
-0.75
-4.75
-8.14
-11.20
-14.37
-18.13
-22.61
-27.45
-31.78
-34.47
-34.60
-31.89
-26.85
-20.68
-14.79
-10.27
-7.63
-6.70
-6.89
-7.45
-7.67
-6.94
-4.82
-1.17
3.79
9.43
14.84
19.20
22.07
23.57
24.23
24.62
25.00
25.25
24.92
23.60
21.13
17.67
13.64
9.45
5.34
1.27
-2.99
-7.74
-13.11
-18.90
-24.67
-29.73
-33.35
-34.97
-34.39
-31.82
-27.87
-23.43
-19.37
-16.38
-14.76
-14.44
-15.01
-15.89
-16.55
-16.66
-16.15
-15.18
-13.99
-12.76
-11.51
-10.08
-8.25
-5.87
-3.01
0.03
2.85
5.10
6.70
7.92
9.23
11.10
13.79
17.21
21.07
25.02
28.78
32.04
34.40
35.28
34.10
30.57
25.00
18.35
11.93
6.86
3.65
2.02
1.22
0.50
-0.54
-1.79
-2.84
-3.34
-3.16
-2.54
-1.86
-1.52
-1.65
-2.06
-2.26
-1.59
0.49
4.16
9.10
14.60
19.74
23.67
25.77
25.76
23.69
19.87
14.94
9.79
5.46
2.90
2.69
4.79
8.66
13.42
18.16
22.12
24.77
25.76
24.93
22.21
17.47
10.82
2.68
-6.13
-14.51
-21.28
-25.56
-26.93
-25.75
-23.23
-20.83
-19.72
-20.62
-23.78
-29.01
-35.78
-43.10
-49.64
-54.25
-55.75
-53.07
-45.89
-34.78
-21.12
-6.79
6.44
17.22
24.46
28.20
29.75
30.84
32.88
36.41
39.42
39.41
37.26
33.58
27.95
20.77
12.60
3.92
-4.73
-12.45
-17.58
-18.16
-13.15
-2.62
12.09
28.14
42.08
50.91
53.15
49.46
42.06
33.23
24.52
16.41
8.35
-0.25
-9.21
-17.47
-23.67
-27.12
-28.56
-29.52
-31.26
-34.09
-37.21
-39.29
-39.37
-37.38
-34.15
-31.01
-28.91
-28.00
-27.76
-27.35
-26.01
-23.28
-18.99
-13.28
-6.62
0.34
7.05
13.10
18.24
22.31
25.29
27.24
28.29
28.44
27.65
25.93
23.32
19.90
15.64
10.69
5.48
0.67
-3.32
-6.29
-8.15
-9.03
-9.29
-9.74
-10.84
-12.31
-13.20
-12.97
-11.49
-8.98
-6.10
-3.88
-3.87
-6.87
-12.27
-18.40
-24.25
-29.37
-33.64
-37.29
-40.78
-45.33
-51.61
-59.20
-66.66
-73.19
-77.67
-78.06
-72.10
-53.99
-23.73
11.34
39.13
56.45
64.06
63.66
57.95
49.92
41.73
33.55
24.95
16.10
8.27
2.01
-2.36
-4.55
-4.60
-3.00
-1.07
0.32
1.29
2.93
5.63
9.34
13.83
18.55
22.70
25.18
25.48
24.14
22.54
21.72
22.27
24.38
27.68
31.30
34.01
34.78
33.28
30.01
25.74
21.40
17.80
15.26
13.49
11.80
9.63
6.89
4.10
1.88
0.65
0.36
0.44
0.13
-1.16
-3.57
-6.76
-10.15
-13.22
-15.72
-17.70
-19.37
-20.91
-22.39
-23.73
-24.85
-25.67
-26.26
-26.68
-26.96
-27.04
-26.73
-25.79
-24.00
-21.25
-17.70
-13.89
-10.61
-8.59
-8.11
-8.82
-9.82
-10.11
-9.09
-6.85
-4.13
-1.81
-0.43
0.11
0.34
0.88
1.98
3.42
4.68
5.34
5.31
4.83
4.27
3.90
3.71
3.41
2.63
1.10
-1.15
-3.81
-6.38
-8.39
-9.58
-9.93
-9.67
-9.12
-8.58
-8.24
-8.10
-8.05
-7.86
-7.25
-5.98
-3.80
-0.55
3.86
9.34
15.57
22.00
27.88
32.42
34.98
35.27
33.46
30.11
25.97
21.78
18.02
14.93
12.54
10.77
9.50
8.56
7.74
6.79
5.47
3.65
1.38
-1.15
-3.68
-5.92
-7.71
-8.97
-9.73
-10.03
-9.89
-9.27
-8.03
-6.00
-3.09
0.67
4.99
9.46
13.55
16.79
18.84
19.50
18.69
16.50
13.23
9.41
5.72
2.78
0.98
0.25
0.18
0.25
0.10
-0.32
-0.77
-1.02
-1.01
-0.96
-1.22
-2.01
-3.29
-4.75
-5.99
-6.76
-7.07
-7.18
-7.45
-8.14
-9.31
-10.79
-12.26
-13.36
-13.82
-13.52
-12.50
-10.93
-9.02
-6.95
-4.85
-2.78
-0.81
0.93
2.32
3.27
3.82
4.08
4.20
4.27
4.32
4.33
4.31
4.34
4.53
4.94
5.54
6.22
6.86
7.34
7.68
7.89
8.03
8.08
8.01
7.74
7.18
6.28
5.00
3.39
1.57
-0.26
-1.89
-3.19
-4.16
-4.93
-5.68
-6.57
-7.63
-8.79
-9.90
-10.76
-11.23
-11.16
-10.47
-9.18
-7.43
-5.48
-3.62
-2.11
-1.06
-0.43
-0.00
0.46
1.14
2.09
3.22
4.40
5.50
6.50
7.41
8.24
8.91
9.35
9.45
9.22
8.69
7.98
7.16
6.21
5.14
3.98
2.84
1.86
1.14
0.67
0.28
-0.20
-0.85
-1.60
-2.33
-2.96
-3.53
-4.25
-5.28
-6.70
-8.32
-9.82
-10.81
-11.03
-10.38
-8.92
-6.78
-4.10
-0.93
2.69
6.67
10.82
14.83
18.31
20.89
22.35
22.60
21.76
20.04
17.70
15.02
12.26
9.73
7.66
6.19
5.29
4.74
4.23
3.43
2.09
0.10
-2.55
-5.69
-8.94
-11.73
-13.46
-13.74
-12.56
-10.32
-7.69
-5.29
-3.43
-2.17
-1.42
-1.18
-1.65
-3.02
-5.23
-7.72
-9.53
-9.62
-7.32
-2.65
3.68
10.52
16.70
21.33
24.00
24.73
23.79
21.55
18.28
14.20
9.49
4.39
-0.70
-5.31
-9.03
-11.59
-12.87
-12.91
-11.81
-9.75
-7.07
-4.39
-2.49
-2.09
-3.54
-6.52
-10.19
-13.56
-15.93
-17.18
-17.73
-18.18
-18.98
-20.17
-21.41
-22.24
-22.34
-21.66
-20.38
-18.74
-16.87
-14.74
-12.28
-9.46
-6.48
-3.72
-1.61
-0.43
-0.19
-0.66
-1.45
-2.26
-2.90
-3.33
-3.57
-3.64
-3.55
-3.34
-3.06
-2.79
-2.51
-2.07
-1.19
0.39
2.85
6.16
10.03
14.02
17.65
20.52
22.42
23.36
23.54
23.22
22.58
21.60
20.18
18.20
15.80
13.37
11.50
10.70
11.18
12.69
14.57
15.96
16.06
14.30
10.53
4.99
-1.71
-8.67
-14.91
-19.63
-22.41
-23.30
-22.65
-20.96
-18.65
-16.01
-13.27
-10.67
-8.51
-7.11
-6.70
-7.28
-8.63
-10.36
-12.00
-13.13
-13.44
-12.80
-11.32
-9.28
-7.05
-4.97
-3.16
-1.56
0.03
1.72
3.39
4.74
5.40
5.06
3.64
1.31
-1.67
-4.94
-8.21
-11.16
-13.53
-15.05
-15.55
-15.05
-13.81
-12.27
-10.90
-10.03
-9.78
-9.94
-10.20
-10.17
-9.61
-8.46
-6.85
-5.04
-3.32
-2.00
-1.29
-1.29
-1.89
-2.83
-3.80
-4.59
-5.25
-6.05
-7.30
-9.13
-11.35
-13.48
-15.01
-15.60
-15.26
-14.21
-12.79
-11.28
-9.89
-8.79
-8.11
-7.94
-8.16
-8.41
-8.22
-7.12
-4.89
-1.65
2.16
5.98
9.38
12.13
14.30
16.15
17.96
19.97
22.21
24.53
26.65
28.27
29.14
29.11
28.22
26.63
24.66
22.70
21.11
20.17
19.92
20.15
20.46
20.36
19.40
17.33
14.19
10.34
6.39
2.99
0.69
-0.29
-0.11
0.64
1.24
1.04
-0.31
-2.72
-5.71
-8.59
