1557928726.00
64.000000
-0.00
-0.00
-0.00
-0.00
-0.00
-0.00
-0.00
-0.00
-0.00
-0.00
0.00
0.01
0.01
-0.00
-0.03
-0.05
-0.05
0.00
0.13
0.36
0.66
1.01
1.37
1.72
2.06
2.40
2.79
3.24
3.80
4.42
5.06
5.66
6.20
6.68
7.15
7.68
8.31
9.14
10.09
11.04
11.88
12.56
13.14
13.76
14.65
15.96
17.91
20.32
22.90
25.38
27.58
29.57
31.68
34.32
37.81
42.54
48.15
54.10
59.83
64.97
69.58
74.14
79.34
85.71
93.76
103.00
112.62
121.73
129.77
136.75
143.30
150.75
157.77
166.64
177.95
191.79
206.97
220.57
228.25
225.36
208.53
176.87
132.76
80.05
23.07
-34.94
-92.44
-149.16
-205.23
-260.37
-313.74
-363.87
-409.83
-450.91
-486.50
-515.74
-537.23
-549.22
-549.96
-538.37
-514.20
-478.67
-433.88
-382.45
-327.02
-269.85
-212.64
-156.66
-102.95
-52.35
-5.87
35.61
71.42
101.29
125.37
144.16
158.39
168.78
175.96
180.32
182.13
181.60
179.00
174.68
169.04
162.51
155.44
148.09
140.57
132.94
125.21
117.39
109.58
101.86
94.34
87.13
80.24
73.66
67.31
61.13
55.09
49.24
43.65
38.43
33.68
29.39
25.47
21.78
18.16
14.53
10.93
7.48
4.38
1.77
-0.32
-2.03
-3.58
-5.21
-7.09
-9.18
-11.31
-13.27
-14.87
-16.03
-16.83
-17.40
-17.93
-18.74
-20.17
-22.56
-25.91
-29.51
-31.96
-31.55
-27.00
-18.09
-5.82
7.99
21.33
32.68
41.13
46.30
48.08
46.56
42.18
35.90
29.11
23.21
19.15
17.13
16.66
16.96
17.32
17.30
16.74
15.69
14.33
12.92
11.75
10.91
10.34
9.78
8.90
7.57
5.99
4.61
3.95
4.30
5.55
7.18
8.50
8.95
8.35
6.99
5.47
4.39
4.02
4.19
4.46
4.34
3.77
3.14
3.05
4.03
6.25
9.50
13.54
18.33
23.71
28.89
32.08
31.11
24.57
13.02
-0.78
-12.99
-20.50
-22.43
-20.32
-16.90
-14.43
-13.61
-13.70
-13.50
-12.52
-11.30
-10.91
-12.03
-14.42
-17.04
-18.72
-18.85
-17.49
-15.36
-13.35
-12.20
-12.17
-13.03
-14.16
-14.79
-14.26
-12.28
-9.06
-5.27
-1.76
0.67
1.61
1.06
-0.53
-2.57
-4.48
-5.97
-6.98
-7.68
-8.29
-8.89
-9.41
-9.68
-9.54
-8.87
-7.73
-6.34
-5.05
-4.12
-3.66
-3.59
-3.67
-3.62
-3.20
-2.34
-1.01
0.78
3.02
5.74
8.78
11.84
14.60
16.95
19.07
21.33
24.15
27.12
29.82
31.71
32.40
31.89
30.61
29.17
27.97
27.04
26.03
24.69
23.07
21.60
20.95
21.53
23.19
25.10
26.04
24.92
21.37
15.82
9.37
3.34
-1.35
-4.44
-6.42
-8.19
-10.65
-14.30
-19.21
-25.11
-31.53
-38.01
-44.16
-49.70
-54.43
-58.24
-61.04
-62.76
-63.34
-62.67
-60.66
-57.28
-52.71
-47.34
-41.76
-36.58
-32.30
-29.10
-26.81
-25.01
-23.20
-21.00
-18.27
-15.06
-11.51
-7.71
-3.66
0.71
5.45
10.48
15.65
20.76
25.62
30.09
34.05
37.41
40.16
42.37
44.31
46.34
48.81
51.87
55.31
58.64
61.19
62.43
62.18
60.63
58.25
55.53
52.71
49.72
46.32
42.40
38.20
34.36
31.66
30.63
31.29
33.07
35.14
36.80
37.72
37.99
38.02
38.37
39.59
42.28
46.95
53.55
60.90
66.46
66.95
59.77
44.44
23.41
1.35
-16.62
-26.90
-28.73
-24.36
-18.19
-15.23
-19.52
-32.89
-54.36
-80.42
-106.13
-126.69
-139.02
-142.59
-139.10
-131.35
-121.78
-111.93
-102.59
-94.48
-88.63
-86.04
-86.92
-90.09
-93.25
-93.97
-90.88
-84.17
-75.29
-65.98
-57.21
-48.65
-39.01
-26.80
-11.09
8.12
30.04
53.59
77.70
101.46
123.92
143.94
160.25
171.80
178.23
180.05
178.48
174.87
170.35
165.50
160.71
156.59
154.33
155.46
160.95
170.08
179.96
185.94
183.15
168.08
139.71
99.46
50.52
-2.94
-56.25
-104.56
-143.49
-170.07
-183.69
-186.44
-182.14
-174.75
-166.57
-157.72
-146.81
-132.51
-114.80
-95.18
-75.81
-58.44
-43.75
-31.58
-21.58
-13.73
-8.39
-6.03
-6.89
-10.69
-16.72
-23.97
-31.31
-37.67
-42.26
-44.74
-45.27
-44.31
-42.38
-39.69
-35.96
-30.58
-23.05
-13.39
-2.58
7.58
14.87
17.37
14.07
5.37
-7.01
-20.49
-32.47
-41.21
-46.25
-48.39
-49.08
-49.69
-50.80
-52.11
-52.79
-52.10
-49.80
-46.32
-42.41
-38.85
-36.30
-35.17
-35.71
-37.95
-41.79
-46.60
-51.09
-53.71
-53.31
-50.14
-45.62
-41.80
-40.41
-42.17
-46.47
-51.66
-55.70
-56.98
-55.49
-52.06
-47.99
-44.69
-43.74
-46.56
-53.74
-64.06
-74.04
-79.65
-76.77
-63.23
-40.37
-13.47
10.27
24.61
26.93
18.99
4.18
-13.14
-29.24
-41.72
-49.77
-53.21
-51.86
-45.34
-26.12
7.45
50.02
91.09
121.32
136.59
138.36
131.57
122.30
115.84
113.52
114.03
114.43
112.07
106.06
98.40
92.88
92.82
98.87
106.81
110.70
105.23
89.43
64.76
36.36
10.76
-7.15
-15.18
-15.52
-11.75
-8.05
-7.35
-11.22
-18.84
-27.69
-34.81
-37.09
-32.47
-18.56
5.41
38.42
76.51
114.44
147.22
166.58
167.31
141.39
92.26
33.61
-17.42
-51.12
-67.26
-71.83
-72.29
-73.45
-76.78
-79.47
-79.50
-72.86
-57.54
-33.39
-2.20
32.61
67.78
100.67
130.72
151.10
157.30
146.85
119.77
78.88
30.33
-17.01
-54.39
-75.94
-84.06
-83.65
-81.22
-81.97
-87.86
-97.43
-107.06
-113.22
-113.93
-102.49
-80.57
-54.78
-32.01
-16.53
-8.70
-6.30
-6.76
-8.73
-12.15
-17.11
-23.59
-28.84
-30.51
-28.47
-25.24
-24.46
-28.17
-34.96
-38.51
-33.53
-18.27
3.49
24.61
38.78
43.85
42.27
38.65
36.19
35.15
34.04
31.13
26.22
20.56
16.11
14.29
15.15
17.28
18.58
17.68
14.20
8.94
3.43
-0.73
-2.63
-2.35
-0.99
-0.13
-0.85
-3.51
-7.53
-11.73
-14.83
-16.11
-15.63
-14.19
-13.02
-12.87
-13.97
-15.64
-16.66
-15.75
-12.23
-6.43
0.75
7.53
12.73
15.83
17.45
19.05
22.19
27.68
35.17
43.23
49.94
54.20
55.69
55.48
55.46
57.47
62.49
70.62
81.23
91.87
101.20
106.26
103.32
89.14
63.09
28.03
-10.00
-43.92
-68.68
-83.27
-91.18
-97.45
-105.72
-114.66
-119.35
-113.84
-94.61
-62.79
-23.84
14.44
45.11
64.04
70.43
65.84
52.94
34.74
14.26
-5.25
-20.64
-29.12
-29.29
-21.65
-8.99
5.06
17.60
27.30
34.54
40.55
46.59
52.79
58.23
60.78
58.75
52.11
42.20
31.12
20.80
13.23
9.67
11.03
16.17
22.57
27.18
27.16
21.33
10.50
-2.00
-12.87
-19.93
-25.21
-33.29
-48.54
-73.10
-105.35
-141.16
-175.32
-205.24
-221.44
-218.88
-200.06
-173.47
-148.09
-128.58
-120.71
-120.69
-125.16
-130.67
-134.86
-135.62
-125.72
-102.02
-65.05
-18.83
31.44
79.40
120.14
149.80
167.14
174.48
176.57
179.81
189.62
208.93
235.65
264.05
285.70
292.48
279.25
245.02
194.10
135.11
79.50
37.91
17.15
17.09
30.00
43.56
45.65
30.09
-0.88
-38.00
-70.16
-89.28
-93.71
-88.31
-80.10
-73.97
-70.13
-65.65
-57.81
-47.32
-38.04
-34.23
-38.56
-49.77
-63.23
-73.49
-77.86
-78.02
-79.03
-85.22
-90.63
-85.86
-63.79
-25.85
18.57
57.65
82.53
89.90
82.65
67.96
53.22
44.07
44.33
56.46
79.51
112.52
150.99
188.06
217.18
234.02
237.73
230.67
216.21
196.84
173.47
145.48
112.59
75.10
36.51
-0.35
-34.13
-65.21
-94.80
-123.74
-152.20
-179.45
-204.81
-228.47
-251.83
-275.69
-298.60
-316.36
-323.10
-314.01
-287.61
-246.59
-196.81
-145.25
-97.45
-56.44
-23.37
1.40
17.42
24.56
23.95
18.50
11.98
7.73
7.38
10.42
15.07
19.31
22.14
23.78
25.18
27.07
29.55
32.23
34.44
35.62
35.52
34.16
31.92
29.18
26.13
22.65
18.33
12.69
5.43
-3.20
-12.32
-20.46
-26.24
-28.89
-28.60
-26.25
-22.96
-19.78
-17.70
-17.84
-21.29
-29.12
-41.86
-58.74
-77.30
-94.17
-106.49
-113.25
-115.50
-114.86
-112.92
-110.61
-107.84
-103.71
-97.37
-88.65
-77.94
-65.59
-50.33
-30.90
-7.55
17.25
39.62
55.58
62.59
60.99
54.49
50.37
55.51
72.85
100.30
132.42
162.99
187.52
204.85
208.39
196.43
174.54
150.87
129.39
109.89
91.51
75.04
62.24
53.98
50.55
50.32
50.21
47.56
41.91
34.84
29.11
27.41
30.96
39.84
51.41
60.16
59.64
45.65
18.94
-16.14
-52.18
-81.72
-99.44
-104.35
-99.68
-90.55
-79.49
-69.46
-60.77
-52.37
-43.86
-35.76
-29.38
-25.89
-25.44
-27.00
-28.98
-29.68
-28.25
-25.19
-21.61
-18.80
-17.66
-18.08
-19.49
-21.53
-24.00
-26.92
-30.14
-32.81
-33.39
-30.19
-22.35
-9.84
5.91
22.74
38.35
50.78
58.71
61.61
59.20
53.03
44.98
37.14
31.39
28.96
30.19
34.55
40.81
47.16
51.88
52.56
47.88
38.04
24.81
11.07
-0.34
-7.79
-11.34
-12.35
-12.73
-13.64
-15.17
-16.51
-16.74
-15.54
-13.42
-11.39
-10.29
-10.30
-10.73
-10.41
-8.30
-4.09
1.65
7.69
12.70
15.69
16.35
15.06
12.59
9.79
7.34
5.65
4.90
5.08
5.95
7.14
8.35
9.30
9.82
9.77
9.05
7.49
5.51
3.50
1.90
1.18
1.65
3.29
5.68
8.10
9.72
9.94
8.47
5.49
1.51
-2.77
-6.67
-9.69
-11.65
-12.75
-13.59
-14.99
-17.55
-21.39
-25.78
-29.30
-30.23
-27.23
-19.91
-9.20
2.83
13.52
20.61
23.09
21.68
18.48
16.06
16.27
19.60
25.16
31.41
37.05
41.60
45.15
47.73
48.86
47.71
44.08
38.99
34.15
30.33
26.09
18.03
2.71
-20.53
-48.03
-72.36
-85.42
-82.66
-65.86
-42.64
-23.03
-15.66
-24.79
-49.75
-85.87
-126.21
-163.70
-192.56
-208.50
-208.23
-190.38
-155.94
-108.93
-55.54
-2.78
42.70
75.62
93.44
97.01
88.73
74.39
59.42
44.83
28.49
8.72
-12.56
-31.40
-39.20
-29.84
-3.81
30.89
61.04
73.44
59.80
18.84
-41.91
-103.50
-140.34
-135.72
-93.76
-35.82
15.22
46.99
60.07
63.38
66.96
75.47
87.21
98.22
106.89
113.84
121.49
130.40
137.78
138.80
128.51
100.51
60.10
17.43
-17.62
-39.32
-47.43
-45.50
-37.96
-28.68
-20.51
-14.53
-11.63
-11.96
-14.66
-18.25
-20.98
-21.46
-19.19
-14.99
-9.88
-5.52
-3.14
-3.00
-4.54
-6.61
-7.92
-7.55
-5.36
-1.56
2.68
6.10
7.83
7.60
5.96
3.95
2.73
3.10
5.36
8.76
11.96
13.60
12.75
9.50
4.87
0.40
-2.50
-3.03
-1.66
-0.05
0.05
-2.89
-9.02
-17.14
-25.11
-30.78
-32.82
-31.51
-28.64
-26.77
-28.71
-36.04
-48.75
-64.89
-80.58
-90.71
-90.58
-77.49
-51.02
-16.33
19.15
46.94
60.12
55.84
36.77
10.39
-13.57
-27.05
-26.91
-15.32
1.55
16.99
26.85
30.81
31.23
30.90
30.83
29.91
26.67
20.72
13.55
7.82
5.73
7.70
12.21
16.60
18.26
16.25
11.27
5.30
0.58
-1.38
-0.45
2.27
4.98
6.07
4.90
1.87
-1.84
-4.92
-6.50
-6.48
-5.45
-4.39
-4.12
-5.00
-6.81
-9.00
-10.97
-12.31
-12.99
-13.25
-13.49
-14.00
-14.85
-15.89
-16.82
-17.38
-17.36
-16.75
-15.60
-13.98
-11.93
-9.37
-6.23
-2.41
1.91
6.41
10.68
14.30
17.02
18.84
20.02
20.97
22.05
23.38
24.83
26.04
26.60
26.33
25.42
24.35
23.80
24.26
25.83
28.11
30.39
31.98
32.49
32.06
31.22
30.69
31.11
32.91
36.32
41.25
46.95
51.77
53.42
49.60
39.20
23.09
4.16
-13.67
-26.96
-34.13
-35.75
-33.87
-30.79
-27.97
-25.76
-23.81
-21.78
-19.77
-18.26
-17.72
-18.18
-19.21
-20.13
-20.30
-19.48
-17.85
-15.94
-14.30
-13.32
-12.98
-13.01
-12.92
-12.35
-11.27
-9.91
-8.68
-7.91
-7.70
-7.90
-8.19
-8.29
-8.12
-7.91
-8.06
-9.00
-10.92
-13.66
-16.65
-19.09
-20.21
-19.55
-17.08
-13.18
-8.53
-3.82
0.44
3.95
6.70
8.82
10.49
11.89
13.13
14.23
15.17
15.90
16.34
16.47
16.29
15.85
15.22
14.44
13.53
12.53
11.44
10.29
9.09
7.89
6.68
5.45
4.16
2.74
1.18
-0.48
-2.14
-3.71
-5.18
-6.68
-8.39
-10.51
-13.09
-15.94
-18.65
-20.70
-21.63
-21.17
-19.36
-16.46
-12.86
-9.00
-5.22
-1.71
1.44
4.26
6.76
8.93
10.71
12.01
12.82
13.24
13.44
13.60
13.77
13.86
13.70
13.19
12.35
11.38
10.53
9.93
9.54
9.15
8.49
7.38
5.82
3.98
2.12
0.47
-0.89
-2.03
-3.12
-4.39
-6.00
-8.02
-10.37
-12.90
-15.34
-17.43
-18.89
-19.48
-19.06
-17.63
-15.30
-12.36
-9.14
-5.98
-3.17
-0.83
0.99
2.38
3.44
4.28
4.98
5.60
6.19
6.78
7.36
7.87
8.24
8.39
8.26
7.89
7.34
6.70
6.05
5.42
4.80
4.16
3.43
2.59
1.66
0.70
-0.19
-0.94
-1.60
-2.35
-3.38
-4.83
-6.63
-8.47
-9.88
-10.42
-9.84
-8.20
-5.78
-2.95
0.01
2.94
5.87
8.81
11.74
14.49
16.86
18.61
19.66
20.09
20.17
20.27
20.79
22.03
24.12
26.90
29.89
32.37
33.60
32.98
30.26
25.60
19.43
12.31
4.77
-2.76
-9.96
-16.62
-22.50
-27.46
-31.38
-34.30
-36.44
-38.17
-39.88
-41.82
-43.92
-45.81
-46.84
-46.43
-44.38
-40.95
-36.84
-32.89
-29.74
-27.61
-26.21
-24.90
-22.91
-19.70
-15.06
-9.07
-2.00
5.79
13.92
22.00
29.69
36.62
42.21
45.91
47.37
46.54
43.78
39.87
35.80
32.78
31.78
32.99
35.78
38.77
40.21
38.49
32.81
23.44
11.97
0.65
-8.73
-15.04
-18.22
-19.16
-19.40
-20.85
-25.32
-33.93
-43.95
-52.13
-55.47
-52.95
-45.77
-36.37
-27.25
-20.11
-15.13
-11.40
-7.93
-4.03
0.04
3.11
3.72
0.53
-8.27
-22.05
-39.46
-58.42
-75.66
-87.06
-88.79
-78.93
-59.07
-34.14
-10.29
7.42
17.22
21.02
22.68
25.54
31.26
38.99
46.23
50.33
49.51
43.50
33.62
22.24
12.22
6.28
5.97
11.25
20.69
32.19
44.36
57.34
72.60
91.72
114.84
139.93
163.28
181.04
190.42
190.52
182.06
166.37
144.57
116.87
82.50
40.19
-11.08
-70.92
-136.36
-201.41
-257.92
-297.63
-314.32
-305.37
-271.92
-219.05
-154.59
-87.97
-29.03
13.31
32.81
27.94
2.84
-33.41
-70.17
-98.15
-111.53
-108.07
-88.55
-55.87
-13.88
32.97
79.94
121.39
152.13
168.63
170.37
159.09
137.22
108.08
74.33
42.24
18.37
6.17
4.13
8.41
14.71
17.96
14.98
5.74
-6.77
-19.84
-28.71
-28.87
-16.23
10.43
46.02
82.88
114.01
134.75
142.57
137.30
117.76
86.74
48.42
3.24
-48.87
-106.33
-166.08
-224.28
-275.99
-315.49
-336.34
-317.92
-255.50
-165.08
-72.62
3.16
58.24
98.52
130.95
158.96
181.88
191.31
180.59
150.53
107.68
60.98
17.96
-18.04
-41.88
-50.35
-46.81
-41.47
-36.84
-33.38
-32.41
-34.34
-42.56
-58.39
-79.23
-99.71
-111.25
-103.87
-72.89
-21.48
38.24
88.03
112.13
103.59
65.89
11.44
-42.69
-83.02
-102.50
-95.49
-65.80
-26.53
9.32
37.76
62.68
91.02
119.72
144.28
156.39
148.74
119.86
75.30
24.50
-25.67
-67.85
-98.46
-117.19
-127.20
-133.15
-137.91
-140.87
-139.16
-130.50
-114.76
-95.40
-76.97
-63.49
-56.39
-53.12
-48.18
-36.33
-15.69
11.42
39.09
61.28
74.12
77.45
74.70
71.18
71.46
77.45
88.12
100.19
110.32
116.54
119.00
119.49
120.08
121.59
122.97
121.94
116.29
105.31
90.20
73.38
57.28
43.32
31.84
22.62
15.56
11.01
9.44
10.88
14.56
18.97
22.37
23.39
21.27
16.00
8.07
-1.57
-11.68
-20.77
-27.45
-30.73
-30.40
-27.18
-22.49
-18.13
-15.65
-15.93
-18.92
-23.71
-28.87
-32.96
-35.02
-34.81
-32.74
-29.54
-25.95
-22.44
-19.26
-16.54
-14.43
-13.16
-12.81
-13.30
-14.27
-15.29
-15.96
-16.05
-15.51
-14.44
-12.90
-10.95
-8.57
-5.72
-2.38
1.46
5.74
10.25
14.46
17.47
18.17
15.53
9.18
-0.32
-11.43
-22.17
-30.72
-36.09
-38.32
-38.16
-36.59
-34.32
-31.57
-28.34
-24.60
-20.54
-16.38
-12.20
-7.67
-2.23
4.58
12.60
20.89
27.85
31.86
31.85
27.78
20.61
11.89
3.25
-4.09
-9.47
-12.80
-14.40
-14.87
-14.92
-15.24
-16.22
-17.84
-19.63
-20.95
-21.35
-20.84
-19.91
-19.31
-19.58
-20.76
-22.19
-22.67
-20.80
-15.50
-6.41
5.81
19.54
32.53
42.47
47.57
47.09
41.47
32.17
21.20
10.57
1.84
-4.21
-7.69
-9.31
-10.05
-10.62
-11.10
-10.92
-9.18
-5.19
1.14
9.15
17.68
25.44
31.28
34.31
33.84
29.46
21.26
9.97
-2.89
-15.40
-25.80
-33.20
-37.80
-40.60
-42.64
-44.25
-44.82
-43.17
-38.38
-30.53
-20.98
-11.80
-4.95
-1.42
-1.06
-2.88
-5.84
-9.34
-13.42
-18.30
-23.95
-29.75
-34.61
-37.55
-38.04
-36.23
-32.75
-28.37
-23.75
-19.53
-16.59
-16.06
-18.87
-25.01
-33.03
-40.20
-43.68
-41.71
-34.61
-24.49
-14.13
-5.50
1.10
6.74
12.87
20.11
27.75
34.20
38.03
38.90
37.70
36.12
35.70
37.16
40.24
43.99
47.34
49.67
50.99
51.81
52.79
54.44
56.90
59.95
63.07
65.61
67.05
67.19
66.29
64.97
63.96
63.65
63.75
63.30
60.98
55.72
47.16
35.93
23.44
11.41
1.39
-5.66
-9.43
-10.10
-8.09
-3.82
2.27
9.71
17.89
25.92
32.81
37.59
39.65
38.93
35.99
31.94
28.28
26.47
27.54
31.36
36.48
40.29
39.86
33.32
20.98
5.52
-9.11
-19.03
-22.12
-18.78
-11.72
-5.49
-5.74
-18.39
-48.22
-97.11
-162.20
-234.99
-302.97
-352.90
-375.46
-368.47
-336.76
-288.71
-231.63
-168.89
-100.27
-25.28
53.48
128.24
187.40
219.65
218.80
185.71
127.97
57.28
-13.64
-72.35
-109.29
-118.84
-99.75
-55.44
5.69
70.76
124.59
153.61
151.53
120.75
71.62
19.41
-20.83
-39.30
-34.32
-12.93
10.28
23.93
25.84
20.57
13.79
8.61
5.27
2.90
3.08
6.97
17.74
36.59
60.84
84.51
100.94
106.17
100.99
90.76
78.30
69.06
65.24
64.43
61.61
52.71
37.25
18.49
1.39
-10.07
-13.26
-8.48
2.01
15.62
30.26
44.42
56.80
66.07
70.93
71.39
68.04
61.97
54.78
48.25
43.80
42.04
42.38
43.31
43.55
42.21
39.32
35.81
33.05
32.10
33.27
35.89
38.43
38.91
34.92
24.13
5.08
-21.88
-54.01
-86.57
-114.19
-132.64
-140.23
-138.07
-129.16
-116.89
-103.65
-90.36
-76.96
-63.32
-49.90
-37.64
-27.38
-19.27
-12.80
-7.03
-1.03
5.60
12.34
17.84
20.54
19.27
13.71
4.01
-8.82
-22.74
-35.13
-43.62
-46.93
-45.09
-39.21
-30.92
-22.89
-17.19
-14.12
-12.33
-9.99
-6.03
-0.44
6.28
13.58
19.57
22.43
21.95
19.05
14.81
9.77
4.45
-0.06
-2.42
-4.55
-10.64
-24.26
-47.04
-78.25
-115.36
-154.51
-191.49
-208.08
-191.78
-144.76
-82.26
-21.32
29.06
67.73
96.87
118.77
134.69
142.86
138.89
123.67
101.19
76.40
52.84
31.68
12.04
-8.18
-24.97
-39.53
-52.47
-62.93
-69.08
-69.78
-65.31
-57.30
-47.98
-40.47
-38.08
-40.95
-46.76
-52.29
-55.16
-54.73
-51.80
-47.92
-45.12
-46.03
-51.63
-61.53
-73.87
-85.37
-91.50
-87.59
-70.64
-41.33
-5.03
30.85
59.36
76.66
82.95
81.56
76.69
71.35
66.47
61.24
54.97
47.99
41.53
36.93
34.62
33.85
33.13
30.94
26.45
20.03
12.93
6.62
2.14
-0.34
-1.50
-2.49
-4.31
-7.38
-11.31
-15.05
-17.39
-17.36
-14.60
-9.45
-2.69
4.78
12.25
19.37
26.20
32.92
39.62
46.05
51.55
55.20
56.11
53.73
48.14
40.15
31.07
22.43
15.51
11.05
9.11
9.26
10.87
13.44
16.81
21.05
26.37
32.93
40.70
49.55
58.97
67.82
74.19
75.62
70.07
57.07
38.50
18.22
0.81
-10.39
-14.52
-13.27
-9.68
-6.56
-5.37
-6.12
-8.11
-10.65
-13.39
-16.19
-18.75
-20.69
-21.79
-22.27
-22.75
-23.89
-25.88
-28.25
-30.13
-30.51
-28.83
-25.03
-19.59
-13.21
-6.76
-1.16
2.69
4.02
2.62
-1.05
-5.96
-10.89
-14.79
-17.11
-17.85
-17.42
-16.45
-15.53
-15.12
-15.41
-16.35
-17.57
-18.51
-18.66
-17.74
-15.86
-13.46
-11.15
-9.37
-8.25
-7.46
-6.53
-5.16
-3.43
-1.69
-0.33
0.50
0.93
1.24
1.82
2.79
3.93
4.76
4.87
4.14
2.83
1.43
0.46
0.47
1.65
3.69
5.82
7.19
7.29
6.29
4.99
4.77
7.55
14.98
27.62
44.39
62.60
78.59
88.76
90.57
81.83
63.23
38.66
13.83
-6.37
-19.84
-27.22
-30.34
-30.82
-29.41
-26.05
-20.83
-14.43
-8.17
-3.29
-0.38
0.87
1.32
2.16
4.42
8.46
13.83
19.46
24.19
27.27
28.71
28.99
29.19
30.32
32.87
36.42
39.69
41.16
39.41
33.87
24.57
13.03
1.12
-9.73
-19.05
-27.54
-36.53
-47.50
-59.64
-72.71
-84.99
-94.25
-98.97
-99.06
-96.08
-92.18
-89.78
-90.16
-93.49
-98.75
-104.41
-108.28
-107.02
-97.88
-76.78
-43.38
-2.08
38.52
69.31
84.44
84.15
74.45
63.70
58.82
61.25
67.76
73.40
75.52
74.82
74.00
75.18
77.85
79.17
75.34
64.13
45.88
23.75
2.01
-16.22
-29.96
-40.63
-50.92
-63.53
-78.76
-96.79
-116.32
-135.24
-151.01
-160.67
-161.21
-150.48
-128.61
-98.61
-65.89
-36.39
-14.47
-1.59
3.71
4.42
3.39
2.42
2.41
4.13
8.64
17.23
30.27
46.61
63.93
79.47
91.36
99.20
104.28
108.69
114.72
124.18
137.55
153.30
167.56
174.85
168.74
147.61
114.17
75.29
39.61
14.05
1.17
-1.16
2.16
6.47
9.61
11.75
14.25
17.84
21.77
24.21
23.51
19.20
12.20
4.33
-2.84
-8.66
-13.53
-18.57
-24.90
-33.00
-42.39
-51.82
-59.67
-64.69
-66.46
-65.39
-62.63
-59.47
-56.87
-55.10
-53.78
-52.13
-49.22
-44.41
-37.69
-29.67
-21.39
-13.87
-7.71
-2.86
1.08
5.13
10.21
16.55
23.48
29.59
33.19
32.98
28.57
20.27
9.56
-2.10
-13.75
-25.42
-37.86
-52.10
-68.94
-86.38
-105.22
-125.57
-146.08
-163.54
-173.17
-170.10
-151.87
-120.21
-81.19
-43.57
-14.67
1.99
7.49
5.93
1.93
-1.65
-4.15
-6.13
-8.19
-9.61
-8.89
-4.94
1.90
10.48
18.90
25.33
29.06
30.35
30.40
30.64
31.86
33.99
36.23
37.48
36.91
34.34
30.23
25.47
21.06
17.49
14.62
12.00
8.97
5.04
0.06
-5.78
-12.08
-18.22
-23.84
-28.92
-33.33
-37.05
-40.19
-42.96
-45.68
-48.75
-52.26
-56.36
-61.16
-65.89
-69.65
-71.62
-71.25
-68.28
-64.59
-61.21
-58.93
-58.31
-58.51
-58.46
-57.34
-54.86
-51.25
-46.94
-41.77
-35.14
-26.03
-11.51
11.42
44.92
89.66
144.60
207.44
275.57
346.40
407.39
447.99
461.39
447.00
410.02
358.60
300.59
241.88
185.95
134.39
89.26
52.06
23.47
3.02
-10.83
-20.34
-27.73
-34.87
-42.92
-51.08
-57.90
-62.00
-62.80
-60.66
-56.83
-52.89
-50.27
-49.81
-50.78
-51.70
-50.97
-47.69
-41.80
-34.34
-26.91
-21.03
-17.57
-16.10
-15.30
-13.63
-10.14
-4.35
3.36
12.20
20.89
27.66
30.50
27.55
18.72
3.68
-15.54
-35.56
-52.81
-64.84
-70.97
-72.20
-70.36
-67.24
-64.16
-61.42
-59.07
-57.05
-55.52
-54.92
-56.02
-59.58
-66.13
-75.79
-87.70
-100.72
-113.65
-126.03
-138.07
-149.79
-159.76
-164.44
-159.10
-139.85
-106.06
-61.36
-12.80
31.70
66.32
89.28
102.92
111.80
120.23
129.85
139.51
146.10
146.24
138.26
123.10
103.97
84.83
68.83
54.78
41.95
30.15
20.12
13.94
14.07
21.69
35.09
49.15
56.74
49.52
24.48
-13.77
-54.72
-87.91
-107.63
-113.63
-109.34
-99.35
-87.48
-75.74
-66.27
-61.51
-63.49
-71.62
-81.06
-83.60
-71.23
-41.01
4.72
55.74
97.30
115.81
104.53
65.96
10.23
-48.80
-97.64
-125.80
-128.67
-108.06
-71.82
-31.97
-1.45
9.91
-1.27
-32.74
-73.94
-110.27
-129.46
-126.73
-106.40
-78.72
-54.84
-41.89
-40.95
-47.50
-54.96
-57.40
-51.15
-34.86
-9.07
24.06
60.72
95.63
123.28
138.96
140.16
127.55
104.98
78.16
52.69
32.29
17.85
7.90
-0.56
-10.61
-24.00
-40.07
-55.71
-66.23
-67.10
-55.75
-32.60
-1.14
33.08
64.37
88.72
104.61
112.77
114.90
112.58
106.84
98.39
88.16
77.65
68.89
63.77
63.18
66.17
70.31
72.96
72.65
69.56
65.12
61.22
59.19
59.09
59.31
57.72
53.50
48.04
44.07
43.96
48.59
57.23
68.36
79.81
89.95
98.66
106.88
114.54
119.55
118.61
109.20
91.00
64.68
31.23
-8.22
-52.55
-101.19
-153.26
-205.63
-252.10
-278.56
-271.61
-231.72
-175.83
-124.39
-89.14
-70.70
-62.51
-56.93
-49.45
-42.37
-40.91
-48.13
-62.10
-77.17
-87.07
-87.40
-76.80
-55.81
-28.82
-2.01
19.31
32.51
37.54
36.05
30.59
23.89
18.09
13.63
10.13
7.56
6.80
8.84
13.64
19.77
24.94
27.14
25.25
19.92
13.40
8.66
7.82
11.24
17.66
25.15
32.21
38.11
43.02
47.59
52.33
57.22
61.74
65.38
68.18
70.91
74.65
80.25
87.79
96.38
104.51
110.62
113.91
114.72
114.61
115.77
120.12
128.30
139.14
149.75
156.23
154.91
143.24
120.40
87.32
46.55
1.91
-42.09
-81.44
-113.85
-139.51
-160.71
-180.23
-199.26
-216.29
-227.47
-228.53
-216.99
-193.56
-162.16
-128.91
-100.35
-81.76
-75.70
-81.07
-93.11
-104.64
-108.50
-100.37
-80.65
-54.12
-27.58
-6.91
4.89
7.60
2.38
-9.64
-27.61
-50.00
-73.46
-92.83
-102.43
-98.10
-78.97
-47.94
-10.93
24.82
52.53
67.40
67.50
54.00
30.70
2.91
-24.01
-46.01
-61.10
-69.33
-72.11
-71.25
-68.30
-64.19
-59.27
-53.49
-46.60
-38.27
-28.31
-16.65
-3.48
10.84
25.81
40.77
55.03
67.87
78.77
87.53
94.36
99.79
104.47
108.94
113.58
118.55
123.87
129.38
134.84
139.82
143.81
146.32
147.02
145.82
142.75
137.89
131.26
122.76
112.32
100.01
86.23
71.69
57.33
44.12
32.84
23.84
16.99
11.81
7.76
4.47
1.91
0.21
-0.57
-0.73
-1.06
-2.54
-6.10
-12.23
-20.84
-31.44
-43.32
-55.75
-68.05
-79.50
-89.21
-96.26
-99.88
-99.71
-96.02
-89.62
-81.67
-73.36
-65.64
-59.14
-54.13
-50.63
-48.46
-47.28
-46.69
-46.25
-45.61
-44.66
-43.48
-42.32
-41.44
-40.92
-40.65
-40.34
-39.59
-38.04
-35.47
-31.95
-27.91
-24.21
-21.93
-21.97
-24.65
-29.39
-34.74
-38.76
-39.69
-36.57
-29.65
-20.34
-10.74
-2.89
1.86
3.21
1.79
-1.24
-4.68
-7.63
-9.58
-10.16
-9.06
-5.93
-0.69
6.24
13.86
20.83
26.02
28.88
29.67
29.17
28.26
27.42
26.51
24.94
21.96
17.11
10.46
2.62
-5.41
-12.54
-17.76
-20.36
-20.00
-16.79
-11.26
-4.34
2.83
9.19
13.93
16.62
17.28
16.16
13.63
9.97
5.37
-0.08
-6.21
-12.65
-18.72
-23.48
-25.93
-25.34
-21.48
-14.87
-6.64
1.71
8.70
13.26
15.02
14.30
11.95
9.09
6.70
5.32
4.95
5.13
5.28
4.99
4.16
3.02
1.82
0.63
-0.83
-2.95
-6.05
-10.09
-14.57
-18.66
-21.54
-22.67
-21.95
-19.67
-16.30
-12.22
-7.60
-2.38
3.56
10.21
17.34
24.45
30.93
36.23
39.99
42.14
42.79
42.12
40.26
37.26
33.11
27.95
22.14
16.22
10.78
6.28
2.90
0.64
-0.61
-0.90
-0.31
1.00
2.58
3.75
3.76
2.11
-1.19
-5.65
-10.53
-15.21
-19.40
-23.27
-27.16
-31.38
-35.98
-40.70
-45.08
-48.73
-51.40
-53.14
-54.20
-54.85
-55.31
-55.56
-55.40
-54.50
-52.61
-49.66
-45.89
-41.70
-37.51
-33.59
-30.00
-26.64
-23.38
-20.28
-17.53
-15.38
-13.96
-13.16
-12.64
-12.02
-11.08
-9.79
-8.35
-7.03
-5.97
-5.17
-4.41
-3.40
-1.87
0.31
3.09
6.27
9.59
12.83
15.98
19.29
23.25
28.38
35.07
43.31
52.67
62.36
71.45
79.10
84.73
88.12
89.35
88.77
86.88
84.32
81.76
79.77
78.65
78.32
78.31
77.98
76.73
74.25
70.65
66.38
62.01
57.98
54.40
51.04
47.46
43.25
38.22
32.48
26.31
19.97
13.52
6.81
-0.40
-8.28
-16.72
-25.34
-33.60
-40.97
-47.06
-51.62
-54.56
-55.86
-55.60
-53.97
-51.32
-48.11
-44.87
-41.99
-39.70
-37.98
-36.64
-35.46
-34.25
-32.93
-31.48
-29.88
-28.04
-25.79
-22.97
-19.54
-15.62
-11.51
-7.59
-4.18
-1.54
0.23
1.07
0.92
-0.25
-2.43
-5.46
-9.01
-12.62
-15.79
-18.22
-19.82
-20.80
-21.50
-22.32
-23.51
-25.08
-26.74
-28.03
-28.41
-27.43
-24.93
-21.06
-16.29
-11.24
-6.49
-2.40
0.99
3.88
6.57
9.26
11.95
14.49
16.73
18.63
20.36
22.18
24.30
26.78
29.46
32.10
34.47
36.47
38.14
39.51
40.56
41.14
41.04
40.09
38.19
35.40
31.85
27.70
23.05
17.94
12.37
6.34
-0.06
-6.66
-13.16
-19.16
-24.22
-27.90
-29.92
-30.22
-29.05
-26.97
-24.69
-22.86
-21.85
-21.64
-21.82
-21.90
-21.55
-20.76
-19.84
-19.16
-18.95
-19.06
-19.12
-18.76
-17.92
-16.93
-16.40
-16.85
-18.44
-20.91
-23.54
-25.52
-26.00
-24.43
-20.68
-15.28
-9.52
-5.20
-4.02
-6.80
-12.78
-19.67
-24.35
-24.20
-18.21
-7.38
5.81
18.41
28.19
34.05
36.06
34.93
31.67
27.31
22.89
19.49
18.02
19.05
22.63
28.22
34.92
41.66
47.44
51.55
53.72
54.12
53.41
52.44
51.99
52.43
53.59
54.88
55.66
55.49
54.29
52.32
49.97
47.68
45.82
44.56
43.94
43.66
43.08
41.28
37.32
30.69
21.72
11.61
2.09
-5.29
-9.80
-11.95
-13.28
-15.61
-20.22
-27.13
-35.03
-41.85
-45.62
-45.44
-41.91
-37.09
-33.93
-35.56
-44.26
-60.69
-83.16
-107.42
-127.22
-135.66
-127.41
-100.99
-60.16
-13.41
28.55
56.43
65.60
57.41
38.05
15.55
-3.38
-15.32
-20.18
-19.84
-16.36
-11.17
-5.03
1.25
6.35
8.72
7.29
2.23
-5.00
-12.19
-17.42
-19.90
-20.26
-20.06
-20.85
-23.28
-26.66
-29.29
-29.19
-25.12
-17.15
-6.72
3.93
12.60
17.88
19.55
18.40
15.75
12.88
10.62
9.18
8.33
7.62
6.60
4.96
2.57
-0.52
-4.14
-7.98
-11.68
-14.87
-17.31
-18.92
-19.88
-20.53
-21.34
-22.68
-24.77
-27.58
-30.86
-34.16
-37.06
-39.11
-39.91
-39.17
-36.76
-32.86
-28.02
-23.19
-19.47
-17.81
-18.71
-21.98
-26.84
-32.20
-36.95
-40.27
-41.71
-41.24
-39.15
-35.90
-31.99
-27.80
-23.41
-18.63
-13.00
-6.14
2.11
11.40
21.06
30.23
38.26
44.81
49.87
53.56
55.95
56.96
56.50
54.62
51.64
48.02
44.28
40.75
37.48
34.37
31.22
27.94
24.49
20.91
17.24
13.51
9.79
6.19
2.88
0.13
-1.82
-2.78
-2.69
-1.65
0.07
2.10
4.05
5.56
6.44
6.62
6.16
5.23
4.00
2.68
1.44
0.40
-0.36
-0.89
-1.29
-1.71
-2.26
-3.00
-3.92
-4.97
-6.13
-7.37
-8.68
-10.03
-11.31
-12.38
-13.06
-13.26
-13.00
-12.39
-11.63
-10.88
-10.26
-9.75
-9.25
-8.55
-7.45
-5.78
-3.49
-0.64
2.59
5.93
9.10
11.86
14.15
15.98
17.54
19.00
20.51
22.14
23.84
25.55
27.20
28.72
30.09
31.27
32.19
32.71
32.73
32.12
30.88
29.05
26.76
24.10
21.18
18.02
14.68
11.22
7.82
4.70
2.03
-0.18
-2.18
-4.28
-6.72
-9.46
-12.10
-14.06
-14.79
-14.06
-12.00
-9.06
-5.79
-2.70
-0.18
1.57
2.48
2.60
2.07
1.17
0.24
-0.38
-0.45
0.09
1.08
2.18
2.97
3.11
2.49
1.25
-0.28
-1.73
-2.90
-3.79
-4.60
-5.56
-6.82
-8.38
-10.19
-12.15
-14.19
-16.33
-18.58
-20.90
-23.22
-25.40
-27.30
-28.75
-29.62
-29.80
-29.22
-27.92
-26.00
-23.70
-21.26
-18.90
-16.78
-15.02
-13.64
-12.68
-12.17
-12.11
-12.41
-12.91
-13.41
-13.72
-13.77
-13.56
-13.23
-12.88
-12.63
-12.55
-12.64
-12.83
-12.99
-12.96
-12.59
-11.83
-10.76
-9.54
-8.40
-7.53
-7.01
-6.79
-6.70
-6.49
-5.91
-4.76
-2.94
-0.51
2.35
5.40
8.39
11.16
13.62
15.75
17.56
19.03
20.16
20.99
21.56
21.99
22.38
22.83
23.41
24.20
25.21
26.42
27.74
28.94
29.73
29.89
29.27
27.91
26.02
23.84
21.59
19.39
17.25
15.12
12.89
10.44
7.69
4.60
1.24
-2.17
-5.26
-7.56
-8.66
-8.35
-6.69
-4.04
-0.89
2.26
5.10
7.52
9.57
11.31
12.75
13.77
14.24
14.13
13.55
12.77
12.08
11.63
11.41
11.22
10.86
10.15
9.06
7.65
6.05
4.41
2.80
1.29
-0.13
-1.51
-2.93
-4.48
-6.25
-8.32
-10.66
-13.12
-15.43
-17.22
-18.13
-17.95
-16.68
-14.54
-11.86
-8.98
-6.15
-3.49
-1.04
1.16
3.08
4.64
5.77
6.48
6.82
6.94
7.04
7.29
7.84
8.73
9.86
11.03
11.99
12.55
12.62
12.25
11.55
10.65
9.64
8.54
7.34
6.01
4.55
2.93
1.11
-1.01
-3.50
-6.27
-9.08
-11.48
-12.94
-13.06
-11.73
-9.20
-6.04
-2.83
-0.00
2.31
4.25
6.03
7.79
9.48
10.90
11.85
12.22
12.09
11.65
11.08
10.53
10.06
9.65
9.26
8.85
8.42
7.92
7.30
6.48
5.40
4.08
2.59
1.05
-0.44
-1.82
-3.15
-4.52
-6.05
-7.78
-9.61
-11.39
-12.90
-13.93
-14.36
-14.12
-13.17
-11.58
-9.45
-6.99
-4.44
-2.05
0.00
1.67
3.03
4.27
5.55
6.92
8.32
9.54
10.35
10.60
10.26
9.47
8.44
7.41
6.54
5.86
5.27
4.66
3.97
3.19
2.37
1.54
0.67
-0.28
-1.41
-2.78
-4.40
-6.21
-8.11
-9.98
-11.75
-13.39
-14.97
-16.63
-18.54
-20.84
-23.60
-26.77
-30.23
-33.78
-37.15
-40.05
-42.18
-43.33
-43.51
-42.95
-42.13
-41.54
-41.54
-42.22
-43.32
-44.43
-45.14
-45.16
-44.45
-43.05
-40.99
-38.17
-34.34
-29.23
-22.66
-14.75
-5.90
3.24
12.03
19.94
26.75
32.46
37.23
41.21
44.45
46.89
48.47
49.17
49.09
48.45
47.50
46.48
45.58
44.86
44.29
43.73
43.01
41.89
40.23
37.98
35.27
32.42
29.88
28.08
27.30
27.56
28.58
29.92
31.17
32.17
32.98
33.85
35.00
36.40
37.77
38.67
38.73
37.85
36.29
34.47
32.86
31.70
31.03
30.61
30.06
29.00
27.10
24.22
20.49
16.23
11.96
8.21
5.29
3.16
1.41
-0.54
-3.21
-6.77
-10.96
-15.21
-18.94
-21.80
-23.85
-25.48
-27.15
-29.19
-31.58
-34.07
-36.23
-37.74
-38.43
-38.30
-37.46
-36.10
-34.36
-32.35
-30.16
-27.79
-25.30
-22.68
-19.99
-17.29
-14.61
-11.94
-9.17
-6.17
-2.82
0.87
4.79
8.67
12.19
15.06
17.07
18.18
18.48
18.23
17.72
17.30
17.21
17.59
18.40
19.45
20.39
20.83
20.44
19.10
16.90
14.15
11.17
8.18
5.17
1.97
-1.59
-5.51
-9.55
-13.24
-16.02
-17.43
-17.19
-15.25
-11.76
-6.98
-1.22
5.18
11.86
18.42
24.45
29.54
33.40
35.91
37.21
37.66
37.70
37.75
38.04
38.60
39.39
40.23
40.71
40.00
36.78
29.54
17.10
-0.81
-23.17
-47.80
-71.88
-92.72
-108.36
-117.77
-120.67
-117.27
-108.00
-93.61
-75.41
-55.37
-35.97
-19.60
-7.95
-1.47
0.63
-0.01
-1.70
-3.31
-4.60
-6.03
-8.18
-11.29
-14.99
-18.50
-20.94
-21.82
-21.22
-19.68
-17.96
-16.63
-15.92
-15.63
-15.35
-14.66
-13.43
-11.79
-10.12
-8.78
-7.97
-7.64
-7.54
-7.30
-6.62
-5.37
-3.62
-1.57
0.50
2.35
3.83
4.95
5.78
6.44
6.99
7.42
7.68
7.72
7.55
7.21
6.70
5.94
4.80
3.13
0.82
-2.11
-5.60
-9.52
-13.71
-18.00
-22.21
-26.12
-29.60
-32.61
-35.23
-37.57
-39.73
-41.75
-43.53
-44.91
-45.69
-45.70
-44.82
-43.02
-40.43
-37.33
-34.05
-30.89
-27.98
-25.16
-22.09
-18.37
-13.73
-8.25
-2.38
3.16
7.63
10.49
11.62
11.40
10.60
10.14
10.81
13.00
16.67
21.42
26.65
31.73
36.18
39.59
41.72
42.47
41.91
40.29
37.97
35.38
32.86
30.57
28.50
26.55
24.62
22.74
21.09
19.97
19.69
20.43
22.23
24.96
28.48
32.59
37.14
41.92
46.63
50.86
54.14
56.09
56.49
55.33
52.78
49.14
44.75
39.94
35.03
30.29
25.91
21.94
18.35
15.03
11.79
8.43
4.80
0.85
-3.24
-7.05
-9.98
-11.38
-10.76
-7.85
-2.68
4.53
13.37
23.27
33.46
42.98
50.77
55.91
57.81
56.36
51.89
45.02
36.41
26.61
16.05
5.20
-5.38
-14.94
-22.77
-28.33
-31.61
-33.06
-33.51
-33.82
-34.54
-35.78
-37.22
-38.46
-39.31
-39.96
-40.91
-42.73
-45.63
-49.31
-52.89
-55.15
-54.93
-51.59
-45.25
-36.91
-28.20
-20.81
-15.87
-13.54
-12.84
-12.04
-9.31
-3.46
5.63
16.84
27.93
35.82
37.26
29.90
13.46
-9.57
-34.23
-54.55
-65.78
-66.33
-58.58
-47.77
-39.74
-38.32
-43.87
-53.42
-62.50
-67.24
-65.95
-59.42
-49.93
-39.83
-30.40
-21.60
-12.55
-2.53
8.29
18.89
27.93
34.52
38.76
41.48
43.71
46.03
48.15
49.12
47.92
44.09
38.08
31.19
25.01
20.78
18.88
18.75
19.21
19.06
17.52
14.47
10.40
6.03
2.02
-1.29
-3.95
-6.26
-8.62
-11.30
-14.37
-17.60
-20.55
-22.63
-23.37
-22.53
-20.24
-17.00
-13.38
-9.95
-6.93
-4.35
-2.02
0.13
2.01
3.39
4.05
3.93
3.21
2.20
1.18
0.34
-0.31
-0.88
-1.50
-2.24
-3.07
-3.86
-4.48
-4.89
-5.13
-5.36
-5.78
-6.57
-7.88
-9.77
-12.26
-15.21
-18.35
-21.23
-23.40
-24.51
-24.48
-23.54
-22.09
-20.56
-19.16
-17.90
-16.63
-15.19
-13.54
-11.78
-10.06
-8.49
-7.09
-5.76
-4.36
-2.69
-0.54
2.22
5.66
9.70
14.12
18.54
22.48
25.46
27.06
27.08
25.53
22.66
18.92
14.87
11.06
7.98
5.92
4.98
4.98
5.57
6.26
6.55
6.14
4.95
3.17
1.19
-0.52
-1.59
-1.78
-1.05
0.44
2.32
4.12
5.34
5.65
5.03
3.81
2.59
2.01
2.50
4.13
6.59
9.41
12.07
14.25
15.84
16.87
17.45
17.67
17.57
17.19
16.56
15.70
14.63
13.33
11.87
10.32
8.86
7.65
6.76
6.14
5.61
4.97
4.05
2.82
1.32
-0.37
-2.12
-3.80
-5.17
-5.94
-5.79
-4.59
-2.41
0.38
3.30
5.91
7.94
9.36
10.32
10.95
11.33
11.42
11.14
10.48
9.57
8.69
8.13
8.10
8.62
9.47
10.36
10.99
11.21
10.99
10.44
9.71
8.88
8.00
7.01
5.83
4.39
2.70
0.85
-1.02
-2.79
-4.41
-5.96
-7.56
-9.36
-11.41
-13.61
-15.72
-17.41
-18.36
-18.35
-17.29
-15.30
-12.67
-9.75
-6.85
-4.15
-1.65
0.73
3.02
5.15
6.92
8.15
8.82
9.12
9.35
9.81
10.59
11.54
12.37
12.80
12.76
12.34
11.75
11.14
10.55
9.88
9.03
7.91
6.57
5.13
3.74
2.50
1.46
0.59
-0.19
-0.96
-1.86
-3.05
-4.65
-6.75
-9.28
-12.05
-14.69
-16.75
-17.85
-17.73
-16.42
-14.23
-11.61
-9.04
-6.84
-5.12
-3.76
-2.56
-1.39
-0.23
0.83
1.69
2.35
2.86
3.32
3.78
4.24
4.67
5.07
5.51
6.06
6.73
7.45
8.08
8.54
8.81
8.99
9.22
9.52
9.79
9.84
9.54
8.88
7.98
7.02
6.07
5.07
3.80
2.06
-0.20
-2.79
-5.31
-7.32
-8.46
-8.64
-7.94
-6.63
-5.00
-3.31
-1.72
-0.36
0.74
1.58
2.19
2.64
2.99
3.26
3.38
3.26
2.78
1.90
0.70
-0.68
-2.03
-3.16
-3.97
-4.47
-4.81
-5.25
-6.13
-7.69
-10.01
-12.86
-15.71
-17.91
-18.83
-18.11
-15.77
-12.09
-7.54
-2.58
2.34
6.81
10.43
12.81
13.77
13.38
11.89
9.67
6.97
3.96
0.91
-1.62
-2.69
-1.30
3.16
10.48
19.57
28.82
36.69
42.28
45.46
46.70
46.54
45.26
42.75
38.71
32.96
25.60
17.05
7.86
-1.49
-10.70
-19.75
-28.71
-37.59
-46.30
-54.55
-61.98
-68.31
-73.47
-77.71
-81.45
-85.17
-89.13
-93.27
-97.16
-100.12
-101.51
-100.87
-98.06
-93.21
-86.58
-78.48
-69.20
-59.11
-48.58
-38.04
-27.82
-18.06
-8.70
0.37
9.17
17.50
24.89
30.74
34.46
35.60
33.93
29.53
22.71
14.07
4.34
-5.71
-15.50
-24.73
-33.27
-41.10
-48.15
-54.25
-59.14
-62.55
-64.25
-64.00
-61.54
-56.60
-48.95
-38.53
-25.54
-10.40
6.18
23.23
39.54
53.72
64.52
71.17
73.70
73.13
71.30
70.34
72.05
77.33
86.00
96.93
108.42
118.68
126.22
130.08
129.89
125.84
118.56
108.98
98.18
87.11
76.54
66.89
58.33
50.78
44.03
37.86
32.13
27.02
23.10
21.25
22.34
26.65
33.47
41.10
47.39
50.63
50.36
47.58
44.42
43.14
45.33
51.31
60.16
70.11
78.96
84.55
85.01
79.23
67.11
49.83
29.92
10.81
-4.00
-11.91
-12.12
-5.87
3.95
13.80
20.53
22.30
18.74
10.64
-0.69
-13.91
-27.84
-41.33
-53.11
-61.85
-66.54
-66.90
-63.62
-58.08
-51.71
-45.36
-39.00
-31.83
-22.88
-11.61
1.56
15.29
27.73
37.16
42.56
43.87
41.83
37.58
32.15
26.24
20.25
14.47
9.29
5.22
2.61
1.32
0.48
-1.44
-6.07
-14.50
-26.61
-41.00
-55.43
-67.54
-75.69
-79.26
-78.54
-74.30
-67.34
-58.32
-47.92
-36.96
-26.40
-17.07
-9.33
-2.92
2.90
8.84
15.18
21.47
26.73
29.78
29.69
26.10
19.29
10.10
-0.35
-10.91
-20.68
-29.17
-36.25
-42.10
-47.03
-51.31
-55.10
-58.34
-60.81
-62.17
-62.01
-60.03
-56.08
-50.17
-42.46
-33.17
-22.67
-11.50
-0.38
9.80
18.20
24.25
27.85
29.27
29.07
27.83
26.03
24.13
22.56
21.82
22.36
24.42
27.80
31.94
36.00
39.24
41.22
41.99
41.97
41.79
42.08
43.25
45.41
48.22
50.89
52.27
51.04
46.04
36.67
23.12
6.44
-11.69
-29.47
-45.40
-58.70
-69.25
-77.43
-83.75
-88.60
-92.07
-94.12
-94.75
-94.12
-92.61
-90.66
-88.61
-86.57
-84.46
-82.09
-79.34
-76.27
-73.08
-69.98
-67.15
-64.58
-62.12
-59.66
-57.11
-54.53
-51.99
-49.48
-46.83
-43.76
-40.01
-35.52
-30.52
-25.45
-20.81
-16.98
-14.05
-11.91
-10.32
-9.07
-8.14
-7.69
-7.89
-8.86
-10.51
-12.53
-14.47
-15.90
-16.53
-16.31
-15.36
-13.84
-11.86
-9.47
-6.64
-3.47
-0.15
3.06
5.90
8.24
10.06
11.44
12.40
12.89
12.78
11.97
10.45
8.41
6.16
4.17
2.88
2.69
3.81
6.18
9.56
13.52
17.63
21.55
25.13
28.40
31.41
34.20
36.71
38.80
40.36
41.38
41.97
42.30
42.55
42.77
42.92
42.90
42.63
42.14
41.48
40.70
39.79
38.66
37.24
35.49
33.53
31.55
29.73
28.14
26.73
25.33
23.80
22.08
20.22
18.34
16.58
14.98
13.53
12.21
11.10
10.44
10.62
12.09
15.14
19.78
25.63
32.00
38.08
43.11
46.62
48.43
48.77
48.10
47.03
45.93
44.67
42.43
37.71
28.84
14.52
-5.43
-29.64
-55.20
-78.17
-94.58
-101.45
-97.59
-83.86
-62.80
-37.88
-12.53
10.54
29.65
44.13
53.96
59.55
61.54
60.73
58.03
54.26
50.03
45.63
41.11
36.48
31.82
27.37
23.47
20.45
18.40
17.17
16.42
15.65
14.45
12.56
10.01
7.03
3.95
1.12
-1.17
-2.76
-3.59
-3.75
-3.47
-3.07
-2.93
-3.33
-4.37
-5.87
-7.53
-9.01
-10.16
-11.05
-11.99
-13.35
-15.36
-18.00
-21.04
-24.14
-27.06
-29.77
-32.39
-34.96
-37.27
-38.92
-39.50
-39.01
-38.07
-37.73
-39.01
-42.30
-47.04
-51.88
-55.20
-55.79
-53.14
-47.31
-38.59
-27.30
-14.01
0.01
12.64
21.38
24.27
20.88
12.71
2.67
-6.15
-11.62
-13.33
-12.26
-9.89
-7.40
-5.16
-2.98
-0.61
1.84
3.82
4.76
4.43
3.25
2.12
2.12
3.93
7.49
12.03
16.33
19.20
19.90
18.32
14.94
10.58
6.17
2.47
-0.21
-1.98
-3.39
-5.09
-7.51
-10.54
-13.49
-15.31
-15.12
-12.79
-9.17
-5.96
-5.05
-7.57
-13.24
-20.17
-25.51
-26.42
-21.16
-9.67
6.64
25.49
44.29
60.34
70.90
73.69
67.99
55.62
41.04
29.66
25.17
27.21
31.28
31.11
22.48
5.93
-13.30
-28.33
-34.61
-32.51
-26.75
-23.37
-26.11
-34.67
-45.44
-53.94
-57.39
-55.73
-51.23
-46.74
-44.19
-43.78
-44.27
-43.97
-41.79
-37.88
-33.52
-30.53
-30.34
-33.22
-38.20
-43.42
-46.94
-47.49
-44.98
-40.28
-34.73
-29.34
-24.44
-19.63
-14.20
-7.68
-0.27
7.18
13.51
17.81
19.84
20.13
19.69
19.50
20.07
21.33
22.72
23.63
23.63
22.64
20.89
18.71
16.41
14.16
12.09
10.38
9.36
9.44
11.05
14.37
19.31
25.38
31.89
38.04
43.19
46.93
49.14
49.90
49.38
47.79
45.35
42.31
39.04
35.90
33.16
30.89
28.96
27.13
25.17
22.97
20.53
17.96
15.44
13.10
11.02
9.14
7.25
5.07
2.31
-1.19
-5.43
-10.27
-15.53
-21.02
-26.52
-31.75
-36.38
-40.14
-43.02
-45.27
-47.30
-49.43
-51.59
-53.27
-53.75
-52.41
-49.09
-44.15
-38.37
-32.63
-27.57
-23.49
-20.34
-17.89
-15.87
-14.03
-12.17
-10.17
-7.95
-5.55
-3.11
-0.81
1.24
3.02
4.69
6.40
8.25
10.07
11.51
12.16
11.69
10.09
7.71
5.16
3.06
1.83
1.54
1.88
2.30
2.31
1.69
0.48
-0.96
-2.24
-3.02
-3.02
-1.99
0.27
3.66
7.48
10.51
11.50
10.03
7.06
4.71
5.27
9.92
17.96
27.14
34.88
39.67
41.77
42.72
44.15
46.67
49.61
51.65
51.85
50.30
47.98
45.98
44.76
43.87
42.11
38.31
32.01
23.76
15.05
7.53
2.42
-0.04
-0.58
-0.41
-0.59
-1.51
-2.71
-3.18
-1.91
1.72
7.64
15.16
23.26
30.78
36.71
40.21
40.85
38.56
33.80
27.36
20.35
14.01
9.48
7.42
7.45
8.02
6.70
1.28
-9.08
-23.05
-37.31
-47.76
-51.21
-46.62
-35.21
-19.48
-1.96
15.35
30.77
42.22
47.17
43.47
30.82
11.79
-8.49
-24.08
-30.64
-27.12
-15.97
-1.76
10.99
19.67
24.21
26.39
28.54
32.24
37.70
43.74
48.31
49.29
45.25
35.94
22.24
5.84
-11.44
-28.10
-43.21
-56.26
-66.85
-74.44
-78.43
-78.50
-74.93
-68.80
-61.69
-55.13
-50.14
-46.86
-44.71
-42.77
-40.23
-36.66
-32.06
-26.77
-21.15
-15.39
-9.31
-2.51
5.40
14.40
23.90
32.75
39.62
43.51
44.21
42.42
39.40
36.48
34.50
33.53
32.99
31.98
29.67
25.61
19.75
12.36
3.96
-4.77
-13.02
-19.90
-24.66
-26.95
-27.00
-25.69
-24.18
-23.52
-24.19
-25.91
-27.82
-28.84
-28.22
-25.85
-22.29
-18.53
-15.55
-13.88
-13.41
-13.43
-12.84
-10.65
-6.31
0.03
7.54
15.02
21.27
25.40
27.04
26.21
23.24
18.57
12.70
6.24
-0.08
-5.47
-9.31
-11.36
-12.02
-12.19
-12.89
-14.83
-18.06
-21.99
-25.73
-28.56
-30.27
-31.12
-31.60
-32.02
-32.30
-32.07
-30.96
-28.82
-25.89
-22.55
-19.20
-16.04
-13.07
-10.26
-7.61
-5.21
-3.16
-1.49
-0.14
1.06
2.27
3.59
4.97
6.24
7.17
7.51
7.14
6.16
4.82
3.52
2.56
2.04
1.80
1.56
1.08
0.29
-0.73
-1.80
-2.87
-3.95
-5.22
-6.80
-8.73
-10.88
-12.98
-14.73
-15.80
-15.97
-15.15
-13.41
-10.94
-8.04
-5.01
-2.11
0.47
2.63
4.30
5.49
6.26
6.82
7.47
8.59
10.44
13.10
16.38
19.84
22.96
25.26
26.43
26.47
25.60
24.24
22.80
21.56
20.54
19.51
18.17
16.31
13.95
11.34
8.81
6.56
4.56
2.53
0.14
-2.78
-6.12
-9.51
-12.46
-14.59
-15.72
-15.93
-15.43
-14.50
-13.37
-12.16
-10.92
-9.60
-8.12
-6.38
-4.36
-2.17
-0.03
1.72
2.78
3.05
2.64
1.88
1.14
0.69
0.57
0.69
0.95
1.35
1.99
2.92
4.04
5.05
5.59
5.45
4.69
3.66
2.76
2.22
1.98
1.65
0.77
-0.93
-3.43
-6.41
-9.46
-12.25
-14.62
-16.54
-18.00
-18.90
-19.10
-18.49
-17.11
-15.14
-12.83
-10.38
-7.90
-5.46
-3.22
-1.49
-0.69
-1.12
-2.59
-4.30
-4.92
-3.08
1.90
9.50
18.00
25.01
28.44
27.40
22.51
15.55
8.69
3.55
0.74
-0.14
-0.10
-0.32
-1.66
-4.42
-8.21
-11.90
-13.86
-12.33
-5.99
5.52
21.14
38.34
53.52
62.76
62.94
52.86
34.05
10.74
-11.24
-26.43
-31.81
-28.00
-18.81
-9.49
-4.38
-5.35
-11.52
-20.50
-29.90
-38.42
-45.92
-52.65
-58.42
-62.44
-63.72
-61.89
-57.58
-52.24
-47.33
-43.61
-40.81
-37.78
-33.21
-26.31
-17.16
-6.72
3.61
12.50
19.15
23.48
25.99
27.47
28.52
29.28
29.44
28.47
25.99
22.23
18.06
14.74
13.42
14.56
17.69
21.59
24.86
26.53
26.37
24.81
22.56
20.26
18.32
16.98
16.42
16.71
17.70
18.91
19.56
18.92
16.59
12.75
8.08
3.40
-0.55
-3.37
-4.97
-5.49
-5.20
-4.47
-3.75
-3.47
-3.95
-5.23
-7.12
-9.19
-11.06
-12.49
-13.53
-14.46
-15.55
-16.86
-18.11
-18.69
-18.00
-15.73
-12.09
-7.76
-3.62
-0.41
1.55
2.42
2.61
2.61
2.78
3.27
4.10
5.22
6.53
7.89
9.12
10.03
10.47
10.46
10.09
9.58
9.10
8.76
8.51
8.22
7.73
6.94
5.85
4.54
3.11
1.68
0.34
-0.86
-1.91
-2.89
-3.96
-5.33
-7.20
-9.60
-12.36
-15.03
-17.09
-18.05
-17.69
-16.07
-13.52
-10.49
-7.42
-4.59
-2.11
0.12
2.26
4.46
6.74
8.96
10.90
12.39
13.41
14.11
14.68
15.26
15.79
16.12
16.09
15.72
15.20
14.80
14.73
15.00
15.40
15.64
15.48
14.85
13.80
12.51
11.15
9.86
8.69
7.62
6.48
4.98
2.86
0.01
-3.37
-6.73
-9.33
-10.54
-10.06
-8.09
-5.14
-1.85
1.36
4.33
7.10
9.71
12.11
14.10
15.48
16.20
16.37
16.24
16.04
15.95
15.97
16.00
15.87
15.45
14.64
13.48
12.10
10.68
9.39
8.29
7.33
6.43
5.46
4.37
3.16
1.82
0.36
-1.26
-3.01
-4.78
-6.42
-7.83
-9.02
-10.18
-11.53
-13.28
-15.42
-17.72
-19.78
-21.18
-21.60
-20.93
-19.31
-17.04
-14.48
-11.94
-9.57
-7.35
-5.18
-3.00
-0.85
1.13
2.76
3.97
4.79
5.37
5.86
6.37
6.90
7.44
7.91
8.29
8.59
8.86
9.16
9.55
10.07
10.68
11.31
11.82
12.07
11.98
11.57
11.01
10.50
10.16
10.00
9.82
9.31
8.16
6.28
3.86
1.37
-0.59
-1.49
-1.05
0.71
3.49
6.81
10.09
12.88
14.88
16.06
16.67
17.03
17.46
18.05
18.66
19.02
18.94
18.42
17.68
17.07
16.87
17.12
17.66
18.18
18.45
18.37
18.03
17.64
17.40
17.46
17.82
18.33
18.72
18.69
17.96
16.37
13.92
10.74
6.99
2.83
-1.66
-6.40
-11.25
-15.96
-20.24
-23.78
-26.42
-28.17
-29.22
-29.77
-29.98
-29.92
-29.62
-29.11
-28.49
-27.92
-27.51
-27.28
-27.07
-26.59
-25.50
-23.61
-20.94
-17.74
-14.44
-11.42
-8.90
-6.90
-5.31
-3.99
-2.93
-2.18
-1.79
-1.71
-1.73
-1.60
-1.12
-0.25
0.92
2.22
3.50
4.67
5.63
6.27
6.45
6.08
5.20
4.03
2.97
2.45
2.76
3.98
5.89
8.15
10.39
12.30
13.79
14.82
15.47
15.79
15.82
15.65
15.46
15.52
16.02
17.02
18.32
19.55
20.28
20.23
19.34
17.82
15.91
13.84
11.72
9.58
7.38
5.12
2.84
0.59
-1.53
-3.45
-5.12
-6.63
-8.05
-9.35
-10.24
-10.24
-8.98
-6.48
-3.35
-0.60
0.79
0.39
-1.45
-3.80
-5.66
-6.44
-6.18
-5.35
-4.38
-3.47
-2.50
-1.30
0.10
1.41
2.25
2.41
1.92
1.11
0.37
-0.02
-0.03
0.19
0.42
0.44
0.16
-0.46
-1.32
-2.31
-3.23
-3.89
-4.15
-3.96
-3.42
-2.71
-2.05
-1.53
-1.19
-0.95
-0.75
-0.56
-0.44
-0.46
-0.74
-1.35
-2.33
-3.62
-5.09
-6.51
-7.66
-8.35
-8.51
-8.20
-7.58
-6.81
-6.04
-5.36
-4.82
-4.46
-4.30
-4.38
-4.73
-5.37
-6.28
-7.36
-8.38
-9.03
-9.03
-8.26
-6.89
-5.36
-4.23
-3.99
-4.85
-6.72
-9.29
-12.19
-15.13
-17.92
-20.45
-22.56
-24.05
-24.74
-24.58
-23.71
-22.46
-21.20
-20.24
-19.65
-19.32
-19.07
-18.80
-18.47
-18.07
-17.43
-16.25
-14.21
-11.18
-7.42
-3.47
0.03
2.69
4.50
5.75
6.83
7.93
8.98
9.77
10.17
10.26
10.29
10.54
11.16
12.00
12.77
13.12
12.88
12.14
11.15
10.26
9.66
9.34
9.12
8.72
7.97
6.82
5.40
3.93
2.58
1.40
0.34
-0.72
-1.89
-3.24
-4.82
-6.62
-8.56
-10.44
-12.02
-13.02
-13.27
-12.75
-11.66
-10.27
-8.85
-7.57
-6.43
-5.29
-3.98
-2.35
-0.42
1.68
3.70
5.40
6.57
7.18
7.33
7.24
7.15
7.24
7.62
8.23
8.91
9.52
9.93
10.14
10.25
10.36
10.53
10.71
10.76
10.51
9.93
9.10
8.16
7.16
6.07
4.78
3.21
1.48
-0.15
-1.37
-1.94
-1.84
-1.25
-0.44
0.37
1.11
1.81
2.58
3.50
4.58
5.78
7.00
8.17
9.21
10.08
10.80
11.34
11.74
12.00
12.11
12.04
11.73
11.18
10.44
9.64
8.87
8.20
7.55
6.79
5.83
4.63
3.26
1.85
0.45
-0.96
-2.44
-4.10
-5.96
-8.02
-10.25
-12.61
-15.04
-17.40
-19.46
-20.97
-21.73
-21.73
-21.14
-20.22
-19.21
-18.23
-17.28
-16.23
-14.98
-13.51
-11.87
-10.15
-8.43
-6.80
-5.25
-3.76
-2.32
-0.91
0.43
1.68
2.77
3.68
4.36
4.82
5.07
5.17
5.21
5.26
5.38
5.54
5.59
5.36
4.72
3.70
2.47
1.27
0.26
-0.57
-1.38
-2.40
-3.75
-5.38
-7.09
-8.64
-9.81
-10.49
-10.59
-10.10
-9.01
-7.38
-5.34
-3.06
-0.71
1.64
3.97
6.31
8.61
10.75
12.56
13.91
14.75
15.14
15.23
15.16
15.00
14.80
14.58
14.40
14.32
14.37
14.48
14.53
14.35
13.81
12.89
11.69
10.38
9.08
7.84
6.65
5.44
4.16
2.79
1.30
-0.29
-1.92
-3.52
-4.96
-6.18
-7.23
-8.28
-9.54
-11.13
-12.97
-14.74
-16.03
-16.47
-15.91
-14.46
-12.46
-10.30
-8.27
-6.43
-4.69
-2.84
-0.74
1.63
4.11
6.45
8.33
9.51
9.90
9.59
8.79
7.83
6.91
6.11
5.35
4.40
3.06
1.23
-0.99
-3.38
-5.66
-7.60
-9.13
-10.30
-11.25
-12.16
-13.21
-14.50
-16.03
-17.65
-18.98
-19.52
-18.75
-16.41
-12.65
-8.05
-3.44
0.40
3.02
4.43
4.95
4.99
4.76
4.21
3.11
1.34
-0.86
-2.93
-4.11
-3.78
-1.75
1.64
5.64
9.33
12.02
13.43
13.72
13.35
12.76
12.19
11.57
10.62
9.08
6.82
4.01
1.01
-1.78
-4.12
-6.00
-7.62
-9.31
-11.34
-13.84
-16.75
-19.87
-22.96
-25.80
-28.23
-30.17
-31.57
-32.37
-32.43
-31.66
-29.95
-27.34
-23.97
-20.14
-16.17
-12.35
-8.86
-5.74
-2.95
-0.39
2.04
4.40
6.69
8.87
10.81
12.43
13.63
14.37
14.68
14.62
14.31
13.92
13.69
13.92
14.79
16.30
18.24
20.13
21.50
22.02
21.65
20.66
19.45
18.43
17.77
17.48
17.41
17.35
17.12
16.50
15.22
13.05
9.81
5.56
0.64
-4.41
-8.95
-12.50
-14.86
-16.16
-16.74
-16.92
-16.87
-16.55
-15.79
-14.49
-12.73
-10.76
-8.87
-7.30
-6.07
-5.04
-4.01
-2.87
-1.65
-0.49
0.44
1.12
1.61
2.09
2.67
3.36
4.07
4.62
4.83
4.58
3.91
2.96
1.98
1.17
0.63
0.32
0.04
-0.42
-1.21
-2.35
-3.73
-5.18
-6.52
-7.60
-8.31
-8.56
-8.27
-7.44
-6.15
-4.56
-2.86
-1.18
0.42
1.93
3.36
4.63
5.61
6.16
6.23
5.92
5.48
5.18
5.20
5.50
5.88
6.08
5.93
5.45
4.83
4.25
3.82
3.46
3.01
2.37
1.53
0.61
-0.24
-0.96
-1.61
-2.25
-2.95
-3.71
-4.49
-5.31
-6.21
-7.28
-8.51
-9.77
-10.84
-11.48
-11.54
-11.02
-10.01
-8.64
-7.01
-5.17
-3.17
-1.11
0.80
2.36
3.38
3.82
3.79
3.51
3.19
3.00
3.01
3.20
3.52
3.92
4.32
4.65
4.83
4.79
4.54
4.13
3.67
3.24
2.84
2.42
1.86
1.09
0.12
-0.99
-2.12
-3.19
-4.20
-5.17
-6.15
-7.18
-8.18
-8.99
-9.40
-9.16
-8.16
-6.46
-4.33
-2.13
-0.18
1.38
2.61
3.74
5.02
6.53
8.20
9.77
11.01
11.79
12.13
12.23
12.27
12.35
12.45
12.46
12.24
11.72
10.96
10.10
9.28
8.59
8.02
7.43
6.68
5.62
4.24
2.60
0.81
-1.07
-3.04
-5.21
-7.65
-10.37
-13.21
-15.90
-18.17
-19.81
-20.75
-21.04
-20.75
-19.90
-18.47
-16.45
-13.92
-11.09
-8.24
-5.59
-3.22
-1.07
0.98
2.99
4.89
6.53
7.73
8.45
8.80
9.00
9.25
9.63
10.08
10.44
10.58
10.46
10.11
9.62
9.07
8.50
7.86
7.10
6.14
4.95
3.58
2.15
0.83
-0.28
-1.19
-2.04
-3.02
-4.30
-5.88
-7.63
-9.34
-10.75
-11.64
-11.88
-11.42
-10.24
-8.45
-6.20
-3.74
-1.34
0.78
2.57
4.11
5.55
7.00
8.44
9.76
10.80
11.51
11.96
12.31
12.71
13.20
13.70
14.05
14.10
13.82
13.29
12.64
11.97
11.33
10.65
9.84
8.79
7.45
5.84
4.01
2.00
-0.12
-2.26
-4.33
-6.23
-7.93
-9.45
-10.91
-12.44
-14.12
-15.95
-17.81
-19.54
-20.97
-21.97
-22.42
-22.19
-21.19
-19.40
-16.94
-14.06
-11.11
-8.39
-6.07
-4.15
-2.51
-1.00
0.49
1.96
3.36
4.60
5.67
6.56
7.30
7.91
8.36
8.62
8.67
8.53
8.28
8.07
7.94
7.91
7.88
7.70
7.30
6.63
5.77
4.83
3.95
3.15
2.38
1.47
0.27
-1.29
-3.11
-4.88
-6.19
-6.63
-5.96
-4.24
-1.76
0.98
3.55
5.67
7.26
8.44
9.37
10.13
10.72
11.06
11.11
10.91
10.58
10.30
10.22
10.44
10.91
11.54
12.18
12.70
13.07
13.28
13.37
13.37
13.26
12.99
12.44
11.51
10.12
8.25
5.93
3.24
0.27
-2.90
-6.22
-9.68
-13.24
-16.87
-20.43
-23.68
-26.36
-28.18
-29.01
-28.84
-27.78
-26.02
-23.73
-21.02
-17.96
-14.60
-11.02
-7.31
-3.63
-0.16
2.90
5.41
7.28
8.54
9.29
9.73
9.99
10.23
10.48
10.72
10.90
10.98
10.93
10.78
10.58
10.42
10.31
10.27
10.21
10.06
9.75
9.25
8.55
7.66
6.64
5.54
4.45
3.40
2.36
1.18
-0.33
-2.31
-4.74
-7.38
-9.87
-11.86
-13.13
-13.68
-13.66
-13.23
-12.52
-11.58
-10.40
-9.01
-7.52
-6.05
-4.73
-3.62
-2.68
-1.75
-0.70
0.57
1.99
3.38
4.48
5.09
5.16
4.80
4.26
3.80
3.58
3.58
3.67
3.60
3.20
2.42
1.35
0.18
-0.88
-1.66
-2.15
-2.42
-2.68
-3.11
-3.87
-5.02
-6.53
-8.29
-10.15
-11.90
-13.37
-14.36
-14.78
-14.63
-14.05
-13.19
-12.22
-11.20
-10.14
-8.97
-7.69
-6.36
-5.14
-4.12
-3.34
-2.64
-1.81
-0.66
0.83
2.52
4.08
5.24
5.88
6.10
6.15
6.31
6.68
7.23
7.77
8.07
7.96
7.29
5.98
4.00
1.48
-1.28
-3.84
-5.76
-6.85
-7.23
-7.28
-7.50
-8.17
-9.30
-10.63
-11.83
-12.70
-13.22
-13.44
-13.40
-13.02
-12.14
-10.63
-8.53
-6.08
-3.58
-1.32
0.55
2.07
3.36
4.55
5.70
6.78
7.71
8.43
8.90
9.16
9.29
9.37
9.46
9.53
9.55
9.45
9.18
8.73
8.20
7.68
7.30
7.11
7.08
7.12
7.09
6.87
6.37
5.54
4.37
2.90
1.21
-0.52
-2.05
-3.06
-3.34
-2.82
-1.61
-0.05
1.49
2.71
3.51
4.02
4.46
5.03
5.78
6.59
7.29
7.71
7.82
7.67
7.35
6.93
6.42
5.85
5.29
4.86
4.68
4.79
5.12
5.48
5.64
5.46
4.89
4.02
2.96
1.83
0.71
-0.35
-1.33
-2.20
-2.98
-3.72
-4.52
-5.52
-6.80
-8.35
-10.03
-11.56
-12.67
-13.09
-12.68
-11.47
-9.61
-7.41
-5.23
-3.37
-1.95
-0.86
0.11
1.18
2.39
3.56
4.44
4.83
4.79
4.57
4.51
4.83
5.50
6.28
6.89
7.15
7.07
6.80
6.50
6.23
5.93
5.48
4.75
3.68
2.33
0.83
-0.65
-1.95
-2.98
-3.76
-4.38
-5.02
-5.84
-6.92
-8.23
-9.64
-10.99
-12.16
-13.08
-13.72
-14.07
-14.04
-13.57
-12.62
-11.26
-9.62
-7.85
-6.08
-4.32
-2.63
-1.05
0.26
1.17
1.60
1.63
1.47
1.40
1.63
2.23
3.13
4.08
4.77
4.86
4.11
2.58
0.64
-1.10
-2.04
-1.89
-0.84
0.44
1.21
0.98
-0.23
-1.93
-3.56
-4.74
-5.50
-6.16
-7.05
-8.31
-9.75
-11.02
-11.70
-11.56
-10.54
-8.76
-6.38
-3.62
-0.71
2.08
4.48
6.22
7.13
7.13
6.30
4.85
3.09
1.42
0.27
-0.02
0.73
2.38
4.57
6.76
8.43
9.28
9.21
8.33
6.78
4.75
2.41
0.03
-2.07
-3.59
-4.34
-4.37
-3.85
-3.05
-2.20
-1.43
-0.88
-0.72
-1.21
-2.59
-4.93
-8.07
-11.59
-14.94
-17.57
-19.09
-19.32
-18.28
-16.13
-13.11
-9.53
-5.73
-2.06
1.17
3.72
5.50
6.53
6.96
7.05
7.05
7.13
7.37
7.69
7.93
7.91
7.49
6.67
5.58
4.46
3.57
3.13
3.17
3.56
4.06
4.39
4.30
3.72
2.78
1.78
1.06
0.81
0.96
1.19
1.07
0.29
-1.24
-3.28
-5.42
-7.21
-8.32
-8.53
-7.79
-6.19
-3.97
-1.57
0.51
1.89
2.52
2.73
3.09
4.09
5.89
8.20
10.48
12.24
13.19
13.45
13.31
13.16
13.29
13.80
14.67
15.75
16.83
17.67
18.04
17.74
16.70
14.93
12.56
9.87
7.20
4.92
3.29
2.36
1.87
1.39
0.46
-1.13
-3.31
-5.75
-8.14
-10.31
-12.32
-14.27
-16.13
-17.62
-18.36
-18.09
-16.83
-14.92
-12.80
-10.78
-8.88
-6.88
-4.50
-1.64
1.55
4.69
7.41
9.52
11.13
12.59
14.32
16.59
19.32
22.18
24.67
26.34
27.02
26.81
25.95
24.67
23.07
21.09
18.66
15.78
12.61
9.37
6.34
3.64
1.32
-0.70
-2.50
-4.14
-5.63
-7.02
-8.34
-9.66
-11.00
-12.34
-13.58
-14.60
-15.37
-15.95
-16.47
-17.07
-17.74
-18.33
-18.58
-18.24
-17.22
-15.59
-13.58
-11.48
-9.54
-7.84
-6.33
-4.83
-3.17
-1.26
0.83
2.94
4.81
6.29
7.28
7.79
7.87
7.59
6.98
6.09
4.97
3.69
2.32
0.89
-0.56
-2.02
-3.40
-4.63
-5.62
-6.37
-6.90
-7.31
-7.65
-7.96
-8.27
-8.60
-8.98
-9.37
-9.69
-9.77
-9.42
-8.58
-7.28
-5.68
-3.93
-2.18
-0.47
1.11
2.42
3.30
3.60
3.33
2.72
2.16
2.03
2.53
3.59
4.89
6.06
6.83
7.14
7.10
6.90
6.67
6.42
6.09
5.57
4.79
3.82
2.78
1.80
0.96
0.24
-0.49
-1.41
-2.67
-4.30
-6.18
-8.06
-9.60
-10.51
-10.66
-10.12
-9.09
-7.83
-6.53
-5.31
-4.21
-3.23
-2.32
-1.37
-0.25
1.18
2.93
4.84
6.63
7.96
8.66
8.75
8.44
7.97
7.54
7.18
6.88
6.60
6.33
6.09
5.86
5.54
5.02
4.25
3.28
2.25
1.34
0.66
0.20
-0.17
-0.56
-1.06
-1.66
-2.36
-3.19
-4.23
-5.51
-6.97
-8.44
-9.65
-10.37
-10.50
-10.11
-9.39
-8.53
-7.65
-6.73
-5.65
-4.31
-2.63
-0.70
1.30
3.12
4.56
5.50
5.95
6.02
5.88
5.73
5.70
5.87
6.25
6.74
7.19
7.44
7.39
7.08
6.69
6.41
6.36
6.49
6.65
6.66
6.44
6.01
5.45
4.78
3.88
2.55
0.67
-1.73
-4.41
-7.03
-9.34
-11.28
-13.00
-14.70
-16.49
-18.26
-19.69
-20.42
-20.20
-19.03
-17.10
-14.71
-12.14
-9.54
-7.04
-4.69
-2.60
-0.86
0.47
1.40
2.00
2.32
2.41
2.29
1.99
1.56
1.09
0.64
0.22
-0.23
-0.80
-1.55
-2.53
-3.72
-5.07
-6.51
-7.95
-9.25
-10.25
-10.76
-10.60
-9.68
-8.01
-5.83
-3.56
-1.69
-0.67
-0.67
-1.57
-2.95
-4.30
-5.19
-5.45
-5.11
-4.34
-3.26
-1.88
-0.18
1.87
4.16
6.47
8.58
10.29
11.56
12.44
13.04
13.45
13.72
13.87
13.93
13.92
13.86
13.79
13.70
13.55
13.33
13.03
12.68
12.31
11.95
11.54
11.01
10.24
9.12
7.61
5.79
3.86
2.06
0.60
-0.43
-1.09
-1.56
-2.10
-2.93
-4.18
-5.86
-7.82
-9.75
-11.29
-12.10
-11.99
-10.98
-9.30
-7.28
-5.27
-3.47
-1.94
-0.62
0.58
1.73
2.85
3.91
4.90
5.80
6.63
7.37
7.94
8.26
8.27
7.99
7.51
6.99
6.59
6.37
6.34
6.43
6.56
6.64
6.62
6.49
6.26
5.93
5.54
5.08
4.59
4.05
3.38
2.50
1.26
-0.43
-2.58
-5.10
-7.77
-10.33
-12.54
-14.22
-15.30
-15.80
-15.76
-15.23
-14.30
-13.08
-11.68
-10.12
-8.35
-6.25
-3.72
-0.81
2.23
5.02
7.22
8.64
9.42
9.89
10.44
11.32
12.52
13.79
14.84
15.46
15.65
15.53
15.24
14.79
14.11
13.02
11.48
9.61
7.69
5.98
4.58
3.38
2.12
0.53
-1.53
-4.00
-6.71
-9.46
-12.07
-14.42
-16.40
-17.94
-18.97
-19.45
-19.40
-18.82
-17.74
-16.20
-14.24
-11.94
-9.44
-6.87
-4.33
-1.92
0.24
2.03
3.39
4.31
4.91
5.40
5.99
6.79
7.80
8.89
9.88
10.66
11.12
11.22
10.95
10.35
9.49
8.49
7.46
6.46
5.47
4.39
3.15
1.73
0.25
-1.10
-2.15
-2.84
-3.30
-3.77
-4.50
-5.66
-7.17
-8.74
-9.96
-10.47
-10.09
-8.90
-7.15
-5.22
-3.43
-1.99
-0.92
-0.12
0.60
1.41
2.40
3.57
4.81
5.97
6.87
7.38
7.44
7.11
6.65
6.52
7.28
9.36
12.84
17.23
21.60
24.80
25.91
24.56
21.06
16.15
10.70
5.41
0.66
-3.45
-6.97
-9.96
-12.48
-14.62
-16.55
-18.45
-20.40
-22.38
-24.16
-25.40
-25.74
-24.94
-23.03
-20.23
-16.95
-13.59
-10.43
-7.60
-5.06
-2.73
-0.54
1.48
3.23
4.61
5.56
6.09
6.33
6.47
6.69
7.09
7.70
8.41
9.10
9.66
10.03
10.18
10.14
9.84
9.22
8.18
6.75
5.07
3.37
1.90
0.81
0.09
-0.41
-0.93
-1.71
-2.91
-4.55
-6.52
-8.57
-10.43
-11.84
-12.61
-12.73
-12.25
-11.32
-10.06
-8.56
-6.89
-5.08
-3.23
-1.42
0.26
1.73
2.94
3.89
4.63
5.26
5.90
6.68
7.64
8.74
9.86
10.82
11.49
11.88
12.07
12.21
12.46
12.85
13.37
13.92
14.42
14.81
15.12
15.41
15.76
16.25
16.88
17.57
18.14
18.28
17.66
15.95
13.02
8.98
4.15
-0.91
-5.61
-9.42
-12.00
-13.32
-13.63
-13.40
-13.10
-13.07
-13.31
-13.61
-13.64
-13.20
-12.30
-11.17
-10.05
-9.01
-7.95
-6.67
-5.12
-3.44
-1.98
-1.08
-0.88
-1.27
-1.94
-2.52
-2.74
-2.47
-1.70
-0.52
0.86
2.20
3.16
3.46
2.97
1.82
0.31
-1.19
-2.39
-3.26
-3.99
-4.88
-6.17
-7.92
-9.95
-11.89
-13.38
-14.17
-14.24
-13.79
-13.16
-12.59
-12.17
-11.75
-11.14
-10.11
-8.63
-6.83
-4.92
-3.11
-1.44
0.15
1.84
3.78
6.02
8.48
10.99
13.34
15.35
16.90
17.98
18.59
18.81
18.68
18.25
17.56
16.65
15.61
14.54
13.56
12.76
12.18
11.80
11.57
11.43
11.30
11.14
10.90
10.58
10.17
9.68
9.19
8.72
8.27
7.81
7.32
6.79
6.27
5.83
5.49
5.23
4.92
4.38
3.43
1.96
-0.08
-2.64
-5.59
-8.78
-12.03
-15.17
-18.07
-20.62
-22.77
-24.48
-25.71
-26.43
-26.65
-26.52
-26.26
-26.17
-26.52
-27.42
-28.81
-30.45
-32.03
-33.23
-33.83
-33.68
-32.73
-31.08
-28.93
-26.59
-24.41
-22.61
-21.27
-20.23
-19.20
-17.88
-16.04
-13.58
-10.62
-7.37
-4.11
-1.11
1.42
3.38
4.81
5.83
6.63
7.38
8.22
9.23
10.41
11.75
13.14
14.46
15.54
16.26
16.49
16.22
15.50
14.46
13.25
11.98
10.70
9.39
8.00
6.48
4.85
3.11
1.26
-0.71
-2.83
-5.08
-7.30
-9.24
-10.60
-11.12
-10.68
-9.37
-7.40
-5.09
-2.71
-0.46
1.61
3.52
5.33
7.06
8.61
9.87
10.74
11.25
11.51
11.68
11.89
12.11
12.26
12.22
11.91
11.39
10.73
10.04
9.35
8.64
7.88
7.03
6.09
5.08
4.03
2.96
1.87
0.77
-0.36
-1.59
-3.03
-4.73
-6.70
-8.74
-10.54
-11.73
-12.03
-11.37
-9.91
-7.98
-5.92
-3.97
-2.22
-0.64
0.82
2.20
3.47
4.58
5.50
6.20
6.72
7.07
7.30
7.48
7.64
7.80
7.96
8.11
8.19
8.18
8.05
7.73
7.19
6.43
5.48
4.40
3.29
2.22
1.19
0.18
-0.89
-2.07
-3.38
-4.83
-6.40
-8.09
-9.83
-11.48
-12.80
-13.53
-13.50
-12.70
-11.25
-9.41
-7.39
-5.39
-3.46
-1.65
0.02
1.46
2.59
3.37
3.84
4.11
4.32
4.61
5.03
5.59
6.22
6.78
7.12
7.09
6.66
5.88
4.94
4.09
3.50
3.20
3.04
2.79
2.21
1.27
0.10
-1.05
-1.96
-2.59
-3.07
-3.67
-4.58
-5.85
-7.32
-8.69
-9.66
-10.00
-9.66
-8.71
-7.33
-5.68
-3.85
-1.81
0.56
3.43
6.83
10.62
14.42
17.75
20.24
21.77
22.65
23.47
24.85
27.21
30.55
34.41
38.08
40.92
42.66
43.60
44.46
46.13
49.22
53.92
59.84
66.03
71.27
74.29
74.06
69.98
62.15
51.72
41.02
33.18
31.11
36.26
47.79
62.58
76.30
84.79
85.36
77.39
62.34
43.20
23.92
8.53
0.24
0.53
8.62
21.45
34.56
43.32
43.99
34.51
14.97
-11.90
-40.73
-64.64
-77.52
-76.79
-64.84
-48.23
-34.76
-29.73
-33.77
-43.20
-52.87
-59.24
-62.14
-64.07
-68.03
-75.52
-85.82
-96.93
-106.95
-115.08
-121.50
-126.68
-130.71
-132.98
-132.54
-128.70
-121.70
-112.84
-104.08
-97.25
-93.27
-91.75
-91.10
-89.10
-83.72
-73.91
-59.92
-43.23
-26.11
-10.86
0.89
8.62
12.88
14.95
16.20
17.59
19.48
21.73
23.95
25.87
27.39
28.55
29.41
29.88
29.87
29.26
28.10
26.60
25.02
23.58
22.35
21.26
20.12
18.75
17.06
15.04
12.78
10.42
8.04
5.64
3.19
0.64
-1.99
-4.52
-6.64
-8.03
-8.45
-7.90
-6.59
-4.84
-2.96
-1.15
0.57
2.25
3.95
5.65
7.29
8.75
9.93
10.77
11.24
11.38
11.32
11.20
11.18
11.35
11.69
12.08
12.36
12.45
12.35
12.20
12.09
12.03
11.94
11.60
10.85
9.65
8.12
6.49
5.01
3.82
2.93
2.24
1.58
0.81
-0.16
-1.38
-2.87
-4.61
-6.54
-8.47
-10.15
-11.23
-11.43
-10.62
-8.87
-6.47
-3.78
-1.13
1.27
3.39
5.34
7.22
9.10
10.88
12.40
13.47
14.02
14.14
14.11
14.22
14.69
15.53
16.53
17.35
17.70
17.45
16.67
15.56
14.35
13.16
12.04
10.97
9.91
8.84
7.79
6.74
5.67
4.54
3.34
2.11
0.89
-0.27
-1.40
-2.58
-3.96
-5.59
-7.47
-9.45
-11.34
-12.91
-13.96
-14.35
-14.02
-12.97
-11.30
-9.18
-6.85
-4.53
-2.41
-0.53
1.12
2.59
3.91
5.06
6.01
6.78
7.40
7.93
8.39
8.72
8.84
8.71
8.39
8.05
7.84
7.85
8.00
8.10
7.98
7.52
6.73
5.72
4.63
3.56
2.53
1.49
0.39
-0.83
-2.17
-3.57
-5.00
-6.40
-7.73
-8.95
-9.96
-10.64
-10.82
-10.34
-9.17
-7.40
-5.26
-3.01
-0.87
1.04
2.71
4.16
5.39
6.32
6.91
7.15
7.13
7.01
6.90
6.87
6.87
6.81
6.61
6.30
5.95
5.66
5.45
5.22
4.79
3.97
2.66
0.90
-1.14
-3.28
-5.37
-7.36
-9.33
-11.34
-13.46
-15.63
-17.78
-19.87
-21.93
-24.03
-26.16
-28.17
-29.71
-30.45
-30.22
-29.16
-27.71
-26.33
-25.22
-24.13
-22.47
-19.69
-15.59
-10.47
-4.94
0.45
5.50
10.40
15.44
20.76
26.16
31.18
35.33
38.36
40.28
41.28
41.50
40.98
39.68
37.56
34.75
31.48
28.06
24.76
21.76
19.13
16.87
14.89
13.10
11.33
9.40
7.12
4.37
1.17
-2.28
-5.62
-8.44
-10.35
-11.16
-10.85
-9.60
-7.72
-5.51
-3.26
-1.16
0.71
2.38
3.88
5.23
6.36
7.22
7.78
8.05
8.14
8.19
8.28
8.40
8.42
8.20
7.62
6.71
5.66
4.75
4.21
4.10
4.25
4.33
4.01
3.12
1.75
0.14
-1.43
-2.77
-3.87
-4.83
-5.75
-6.69
-7.67
-8.73
-9.91
-11.19
-12.49
-13.56
-14.14
-13.97
-12.98
-11.25
-8.99
-6.42
-3.77
-1.16
1.33
3.71
5.97
8.14
10.15
11.92
13.30
14.17
14.55
14.54
14.39
14.31
14.45
14.78
15.12
15.22
14.88
14.05
12.82
11.36
9.81
8.26
6.62
4.81
2.75
0.53
-1.66
-3.60
-5.18
-6.48
-7.72
-9.15
-10.94
-13.09
-15.48
-17.93
-20.23
-22.21
-23.66
-24.38
-24.18
-22.99
-20.93
-18.28
-15.42
-12.61
-9.96
-7.40
-4.82
-2.19
0.32
2.45
4.00
4.91
5.38
5.73
6.23
7.01
7.98
8.95
9.74
10.27
10.51
10.52
10.37
10.13
9.83
9.45
8.91
8.15
7.11
5.84
4.48
3.23
2.20
1.41
0.73
-0.07
-1.17
-2.57
-4.12
-5.57
-6.60
-6.99
-6.60
-5.38
-3.40
-0.81
2.16
5.18
7.98
10.34
12.18
13.55
14.51
15.10
15.34
15.20
14.77
14.19
13.64
13.25
13.01
12.79
12.44
11.88
11.11
10.23
9.30
8.31
7.16
5.77
4.14
2.38
0.66
-0.89
-2.26
-3.53
-4.89
-6.49
-8.40
-10.60
-12.97
-15.27
-17.26
-18.66
-19.27
-19.03
-18.00
-16.39
-14.43
-12.28
-10.03
-7.69
-5.28
-2.89
-0.66
1.23
2.69
3.70
4.36
4.85
5.28
5.75
6.26
6.72
7.05
7.16
7.04
6.73
6.36
6.05
5.88
5.80
5.67
5.33
4.62
3.54
2.19
0.74
-0.62
-1.81
-2.87
-3.98
-5.32
-7.06
-9.23
-11.67
-14.09
-16.08
-17.31
-17.58
-16.90
-15.45
-13.51
-11.34
-9.11
-6.91
-4.72
-2.52
-0.32
1.86
3.92
5.73
7.16
8.13
8.63
8.80
8.80
8.80
8.91
9.09
9.25
9.30
9.18
8.87
8.38
7.71
6.83
5.69
4.26
2.56
0.69
-1.19
-2.92
-4.38
-5.56
-6.57
-7.63
-8.95
-10.67
-12.76
-15.08
-17.40
-19.56
-21.43
-22.99
-24.19
-24.92
-25.07
-24.51
-23.21
-21.28
-18.90
-16.28
-13.61
-11.00
-8.49
-6.12
-3.93
-1.96
-0.25
1.25
2.70
4.39
6.51
8.99
11.37
12.99
13.29
12.15
10.12
8.16
7.16
7.55
9.05
10.93
12.39
12.91
12.43
11.21
9.64
8.00
6.52
5.37
4.63
4.32
4.27
4.20
3.84
3.11
2.12
1.15
0.49
0.34
0.71
1.51
2.62
3.95
5.44
7.01
8.62
10.16
11.50
12.53
13.18
13.50
13.66
13.87
14.33
15.06
15.91
16.58
16.78
16.31
15.23
13.76
12.20
10.80
9.63
8.63
7.65
6.56
5.32
3.97
2.62
1.34
0.15
-0.99
-2.16
-3.47
-4.98
-6.77
-8.88
-11.28
-13.87
-16.47
-18.79
-20.52
-21.44
-21.42
-20.54
-19.02
-17.15
-15.16
-13.23
-11.40
-9.64
-7.88
-6.13
-4.43
-2.88
-1.53
-0.38
0.64
1.65
2.74
3.92
5.15
6.29
7.20
7.76
7.89
7.62
6.98
6.06
4.98
3.83
2.70
1.62
0.61
-0.37
-1.35
-2.37
-3.45
-4.59
-5.83
-7.23
-8.84
-10.73
-12.86
-15.09
-17.16
-18.78
-19.69
-19.81
-19.18
-17.97
-16.42
-14.67
-12.79
-10.81
-8.79
-6.82
-5.09
-3.76
-2.88
-2.39
-2.07
-1.62
-0.87
0.22
1.49
2.72
3.67
4.27
4.58
4.77
4.96
5.20
5.41
5.50
5.36
4.96
4.37
3.67
2.98
2.35
1.81
1.30
0.75
0.02
-1.03
-2.43
-4.09
-5.76
-7.03
-7.53
-7.02
-5.49
-3.16
-0.39
2.46
5.08
7.33
9.17
10.60
11.64
12.27
12.51
12.44
12.19
11.92
11.77
11.79
11.97
12.22
12.44
12.53
12.43
12.07
11.42
10.42
9.08
7.47
5.74
4.11
2.75
1.73
0.97
0.25
-0.68
-2.01
-3.74
-5.70
-7.59
-9.11
-10.05
-10.31
-9.94
-8.99
-7.56
-5.73
-3.66
-1.48
0.63
2.54
4.24
5.76
7.15
8.42
9.48
10.18
10.40
10.17
9.65
9.10
8.74
8.68
8.85
9.07
9.14
8.89
8.28
7.33
6.15
4.85
3.54
2.28
1.09
-0.04
-1.18
-2.39
-3.78
-5.45
-7.46
-9.78
-12.27
-14.64
-16.52
-17.50
-17.37
-16.10
-13.97
-11.37
-8.74
-6.40
-4.46
-2.89
-1.52
-0.21
1.13
2.49
3.83
5.06
6.13
7.02
7.70
8.16
8.36
8.29
7.95
7.41
6.79
6.22
5.76
5.44
5.16
4.78
4.19
3.33
2.19
0.84
-0.61
-2.07
-3.51
-4.92
-6.34
-7.85
-9.51
-11.30
-13.14
-14.81
-16.06
-16.63
-16.30
-15.05
-13.01
-10.46
-7.74
-5.14
-2.81
-0.82
0.83
2.15
3.07
3.52
3.47
2.97
2.20
1.37
0.72
0.36
0.29
0.44
0.69
0.94
1.07
1.04
0.79
0.36
-0.20
-0.81
-1.38
-1.86
-2.26
-2.65
-3.10
-3.71
-4.50
-5.50
-6.67
-7.98
-9.35
-10.68
-11.86
-12.75
-13.25
-13.26
-12.77
-11.80
-10.36
-8.50
-6.29
-3.85
-1.34
1.10
3.31
5.24
6.86
8.21
9.35
10.30
11.05
11.64
12.11
12.54
12.94
13.30
13.52
13.50
13.14
12.47
11.56
10.51
9.42
8.31
7.16
5.93
4.63
3.33
2.13
1.14
0.33
-0.42
-1.36
-2.70
-4.55
-6.77
-9.00
-10.79
-11.78
-11.83
-11.00
-9.54
-7.73
-5.79
-3.82
-1.89
-0.04
1.67
3.16
4.37
5.23
5.76
6.02
6.10
6.14
6.24
6.45
6.70
6.88
6.85
6.57
6.09
5.51
4.93
4.36
3.77
3.08
2.23
1.21
0.06
-1.18
-2.46
-3.81
-5.22
-6.74
-8.44
-10.36
-12.55
-14.95
-17.37
-19.53
-21.10
-21.85
-21.69
-20.70
-19.04
-16.90
-14.43
-11.74
-8.92
-6.04
-3.20
-0.49
2.00
4.15
5.89
7.13
7.91
8.33
8.59
8.95
9.55
10.42
11.42
12.30
12.83
12.85
12.36
11.48
10.40
9.30
8.26
7.24
6.14
4.89
3.50
2.11
0.84
-0.23
-1.19
-2.26
-3.65
-5.49
-7.66
-9.86
-11.64
-12.61
-12.50
-11.34
-9.36
-6.98
-4.60
-2.47
-0.65
0.99
2.66
4.51
6.51
8.52
10.29
11.67
12.65
13.36
14.03
14.80
15.70
16.58
17.23
17.42
17.04
16.15
14.94
13.70
12.67
12.01
11.68
11.53
11.28
10.69
9.56
7.87
5.72
3.31
0.92
-1.18
-2.83
-4.08
-5.18
-6.55
-8.49
-11.01
-13.67
-15.66
-16.14
-14.63
-11.35
-7.20
-3.35
-0.76
0.43
0.96
2.17
5.29
10.69
17.55
24.07
28.36
29.50
28.22
26.77
27.93
33.59
43.64
55.88
66.88
73.47
74.07
69.24
61.31
53.69
50.25
54.73
69.81
95.88
129.68
163.91
188.64
194.49
176.45
136.32
82.31
25.85
-22.91
-58.62
-81.70
-96.44
-107.81
-118.76
-129.42
-138.00
-142.70
-142.97
-139.71
-134.53
-128.69
-122.37
-114.96
-105.96
-95.81
-86.28
-79.90
-78.90
-84.01
-93.84
-105.31
-114.73
-119.24
-117.79
-111.33
-102.14
-92.65
-84.32
-77.19
-70.04
-61.25
-49.63
-35.08
-18.62
-2.01
12.85
24.58
32.67
37.50
40.05
41.42
42.39
43.18
43.54
42.98
41.15
38.03
34.00
29.66
25.61
22.26
19.86
18.48
18.12
18.72
20.11
21.99
23.99
25.74
27.04
27.86
28.38
28.84
29.45
30.29
31.32
32.43
33.52
34.57
35.59
36.63
37.69
38.72
39.64
40.39
40.98
41.52
42.14
42.89
43.67
44.20
43.98
42.49
39.33
34.40
27.97
20.66
13.16
6.13
-0.04
-5.26
-9.67
-13.49
-16.89
-19.85
-22.19
-23.61
-23.82
-22.67
-20.19
-16.57
-12.09
-7.04
-1.71
3.66
8.79
13.43
17.30
20.24
22.14
23.00
22.85
21.70
19.54
16.34
12.19
7.22
1.64
-4.26
-10.27
-16.13
-21.66
-26.66
-30.96
-34.46
-37.11
-38.95
-40.09
-40.66
-40.81
-40.66
-40.31
-39.84
-39.26
-38.58
-37.79
-36.96
-36.16
-35.53
-35.21
-35.26
-35.62
-36.07
-36.23
-35.68
-34.10
-31.36
-27.65
-23.38
-19.06
-15.08
-11.62
-8.63
-5.90
-3.21
-0.47
2.26
4.85
7.15
9.06
10.58
11.74
12.62
13.27
13.72
14.00
14.18
14.27
14.33
14.34
14.22
13.92
13.38
12.61
11.70
10.75
9.86
9.05
8.30
7.56
6.81
6.05
5.32
4.64
3.95
3.19
2.25
1.08
-0.34
-1.94
-3.61
-5.20
-6.53
-7.37
-7.52
-6.83
-5.29
-3.09
-0.57
1.83
3.79
5.17
6.10
6.84
7.62
8.54
9.52
10.38
11.01
11.41
11.73
12.12
12.65
13.21
13.58
13.54
13.00
12.08
11.00
10.02
9.28
8.76
8.33
7.79
7.02
5.97
4.73
3.45
2.26
1.25
0.38
-0.46
-1.41
-2.60
-4.07
-5.76
-7.49
-9.02
-10.08
-10.42
-9.90
-8.55
-6.51
-4.06
-1.51
0.91
3.04
4.84
6.28
7.36
8.10
8.54
8.83
9.14
9.64
10.40
11.32
12.21
12.85
13.05
12.82
12.24
11.52
10.82
10.25
9.80
9.40
8.92
8.24
7.32
6.22
5.03
3.87
2.80
1.80
0.82
-0.19
-1.25
-2.36
-3.52
-4.74
-6.06
-7.44
-8.71
-9.61
-9.88
-9.31
-7.88
-5.72
-3.04
-0.07
3.00
6.03
8.83
11.16
12.79
13.50
13.20
11.95
9.97
7.59
5.20
3.18
1.77
1.07
1.02
1.39
1.96
2.53
2.97
3.24
3.38
3.37
3.25
3.00
2.69
2.33
1.99
1.64
1.26
0.80
0.24
-0.40
-1.05
-1.65
-2.22
-2.84
-3.68
-4.89
-6.50
-8.36
-10.11
-11.35
-11.77
-11.27
-10.05
-8.47
-6.96
-5.79
-5.05
-4.63
-4.40
-4.27
-4.24
-4.42
-4.85
-5.49
-6.13
-6.52
-6.42
-5.73
-4.54
-3.07
-1.62
-0.40
0.50
1.12
1.61
2.06
2.44
2.58
2.23
1.20
-0.60
-3.07
-5.97
-8.98
-11.81
-14.28
-16.36
-18.15
-19.84
-21.58
-23.49
-25.58
-27.69
-29.55
-30.77
-31.01
-30.03
-27.84
-24.63
-20.81
-16.76
-12.78
-8.98
-5.31
-1.75
1.64
4.71
7.25
9.16
10.47
11.37
12.12
12.92
13.88
14.96
16.09
17.14
17.96
18.43
18.53
18.27
17.78
17.22
16.71
16.21
15.56
14.53
12.99
10.96
8.65
6.39
4.43
2.86
1.55
0.26
-1.27
-3.21
-5.55
-8.19
-10.90
-13.42
-15.49
-16.92
-17.55
-17.35
-16.41
-14.93
-13.14
-11.28
-9.54
-8.03
-6.72
-5.52
-4.33
-3.04
-1.63
-0.13
1.38
2.82
4.19
5.51
6.82
8.11
9.26
10.18
10.77
11.08
11.23
11.35
11.50
11.66
11.69
11.50
11.06
10.41
9.66
8.92
8.24
7.64
7.14
6.75
6.46
6.22
5.90
5.34
4.43
3.19
1.80
0.56
-0.23
-0.35
0.26
1.51
3.23
5.20
7.24
9.19
10.99
12.61
14.06
15.32
16.34
17.03
17.30
17.14
16.64
15.97
15.29
14.71
14.21
13.69
13.06
12.33
11.58
10.99
10.69
10.69
10.90
11.16
11.30
11.22
10.81
10.02
8.82
7.25
5.45
3.61
1.96
0.62
-0.48
-1.52
-2.80
-4.55
-6.86
-9.65
-12.68
-15.64
-18.19
-20.00
-20.86
-20.65
-19.39
-17.20
-14.27
-10.86
-7.23
-3.61
-0.16
3.02
5.97
8.72
11.28
13.47
14.95
15.27
13.99
10.95
6.31
0.60
-5.42
-11.00
-15.53
-18.75
-20.71
-21.68
-22.01
-21.97
-21.69
-21.15
-20.32
-19.22
-17.99
-16.89
-16.25
-16.36
-17.43
-19.54
-22.59
-26.29
-30.15
-33.58
-36.00
-36.98
-36.35
-34.27
-31.11
-27.33
-23.36
-19.42
-15.56
-11.67
-7.60
-3.27
1.26
5.75
9.79
12.92
14.84
15.46
15.02
13.92
12.62
11.42
10.38
9.39
8.27
6.91
5.37
3.85
2.54
1.56
0.88
0.33
-0.28
-1.06
-2.05
-3.19
-4.45
-5.80
-7.27
-8.82
-10.28
-11.32
-11.54
-10.66
-8.65
-5.75
-2.43
0.81
3.59
5.76
7.41
8.72
9.91
11.11
12.31
13.43
14.33
14.92
15.21
15.28
15.31
15.43
15.64
15.83
15.82
15.43
14.63
13.48
12.14
10.76
9.40
8.04
6.61
5.06
3.40
1.66
-0.10
-1.94
-3.89
-5.99
-8.12
-10.04
-11.41
-11.93
-11.42
-9.97
-7.85
-5.44
-3.11
-1.07
0.66
2.19
3.70
5.26
6.86
8.37
9.62
10.50
11.03
11.34
11.57
11.83
12.15
12.44
12.54
12.34
11.78
10.93
9.94
8.98
8.20
7.59
7.05
6.38
5.44
4.21
2.84
1.47
0.20
-1.02
-2.29
-3.62
-4.83
-5.52
-5.28
-3.88
-1.42
1.70
4.95
7.91
10.42
12.58
14.61
16.69
18.88
21.09
23.20
25.15
26.92
28.51
29.94
31.12
32.03
32.66
33.11
33.58
34.25
35.25
36.54
37.92
39.09
39.73
39.62
38.75
37.33
35.75
34.47
33.86
34.03
34.82
35.78
36.33
35.86
33.95
30.50
25.79
20.44
15.23
10.82
7.55
5.29
3.57
1.90
-0.05
-2.16
-4.02
-5.16
-5.29
-4.53
-3.24
-1.89
-0.75
0.12
0.81
1.29
1.34
0.61
-1.13
-3.82
-7.06
-10.29
-13.09
-15.37
-17.38
-19.46
-21.84
-24.47
-27.10
-29.41
-31.25
-32.70
-33.99
-35.38
-37.00
-38.83
-40.72
-42.44
-43.78
-44.47
-44.23
-42.74
-39.77
-35.31
-29.61
-23.19
-16.62
-10.37
-4.63
0.59
5.37
9.74
13.67
17.18
20.46
23.80
27.47
31.50
35.66
39.59
42.98
45.71
47.77
48.99
48.93
46.94
42.51
35.70
27.39
18.96
11.83
6.78
3.73
1.87
0.08
-2.67
-7.09
-13.66
-22.68
-34.26
-48.05
-63.02
-77.38
-88.92
-95.69
-96.66
-92.12
-83.55
-73.06
-62.61
-53.58
-46.47
-41.16
-37.23
-34.29
-32.12
-30.65
-29.86
-29.66
-29.87
-30.35
-31.03
-31.93
-33.18
-34.85
-36.93
-39.27
-41.63
-43.75
-45.46
-46.79
-47.94
-49.29
-51.25
-54.14
-57.96
-62.34
-66.43
-69.06
-69.02
-65.32
-57.53
-45.82
-30.99
-14.33
2.39
17.08
27.66
32.60
31.45
25.22
16.14
6.99
0.19
-3.01
-2.68
0.15
4.12
8.17
11.75
14.81
17.51
20.10
22.77
25.66
28.73
31.75
34.20
35.39
34.72
32.06
28.15
24.54
23.17
25.51
31.80
40.74
49.91
56.73
59.49
57.87
52.77
45.58
37.53
29.23
20.89
12.70
5.11
-1.23
-5.74
-8.32
-9.39
-9.76
-10.22
-11.27
-12.93
-14.76
-16.14
-16.54
-15.74
-13.86
-11.31
-8.55
-5.91
-3.53
-1.38
0.56
2.26
3.55
4.25
4.31
3.80
2.95
1.96
0.86
-0.47
-2.15
-4.16
-6.15
-7.51
-7.57
-5.95
-2.67
1.78
6.67
11.28
15.02
17.48
18.32
17.28
14.21
9.29
3.10
-3.37
-8.99
-12.85
-14.54
-14.33
-12.98
-11.44
-10.49
-10.39
-10.87
-11.22
-10.73
-8.99
-6.11
-2.71
0.40
2.59
3.77
4.45
5.52
7.83
11.72
16.79
22.03
26.26
28.69
29.28
28.70
27.96
27.95
29.17
31.83
36.03
41.83
48.91
56.19
61.78
63.64
60.66
53.58
44.86
37.61
33.71
32.63
31.53
26.99
17.30
3.84
-9.38
-17.87
-19.20
-14.36
-7.16
-2.14
-2.23
-7.51
-15.58
-23.05
-27.12
-26.48
-21.18
-11.93
0.42
14.96
30.37
44.61
55.06
59.21
55.53
44.27
27.67
9.44
-6.21
-15.81
-17.71
-12.40
-2.31
8.99
17.81
21.06
16.72
4.29
-14.96
-37.97
-60.43
-78.01
-87.88
-89.78
-86.00
-80.15
-75.40
-73.05
-72.32
-71.27
-68.25
-62.86
-55.96
-48.80
-42.13
-35.82
-29.30
-22.30
-15.32
-9.41
-5.48
-3.63
-2.95
-1.97
0.62
5.22
11.23
17.38
22.38
25.53
26.96
27.36
27.57
28.07
28.75
29.08
28.43
26.46
23.41
19.97
17.02
15.25
14.90
15.77
17.37
19.07
20.24
20.31
18.97
16.38
13.23
10.61
9.60
10.73
13.79
18.04
22.65
27.23
31.82
36.55
41.18
44.84
46.37
44.98
40.80
34.93
29.03
24.56
22.19
21.64
21.87
21.62
19.85
16.08
10.40
3.41
-4.10
-11.35
-17.74
-22.84
-26.22
-27.45
-26.21
-22.63
-17.56
-12.53
-9.27
-8.91
-11.41
-15.53
-19.41
-21.55
-21.47
-19.88
-18.08
-17.28
-17.95
-19.81
-22.16
-24.31
-25.85
-26.69
-26.84
-26.30
-25.06
-23.15
-20.78
-18.26
-15.98
-14.27
-13.32
-13.13
-13.52
-14.13
-14.50
-14.23
-13.06
-11.02
-8.52
-6.16
-4.61
-4.27
-5.09
-6.65
-8.29
-9.45
-9.87
-9.63
-9.03
-8.32
-7.61
-6.82
-5.84
-4.66
-3.43
-2.32
-1.36
-0.34
1.19
3.67
7.35
12.09
17.34
22.33
26.28
28.68
29.39
28.63
26.82
24.36
21.57
18.53
15.24
11.63
7.72
3.64
-0.33
-3.89
-6.77
-8.82
-10.00
-10.36
-9.91
-8.66
-6.58
-3.76
-0.45
2.97
6.11
8.82
11.20
13.49
15.90
18.28
20.18
21.03
20.49
18.76
16.48
14.56
13.68
14.08
15.54
17.59
19.77
21.82
23.63
25.08
25.98
26.04
25.02
22.95
20.12
16.97
13.90
11.10
8.55
6.16
3.86
1.74
-0.03
-1.40
-2.48
-3.57
-4.99
-6.93
-9.29
-11.79
-14.03
-15.80
-17.13
-18.31
-19.70
-21.60
-24.07
-26.92
-29.78
-32.27
-34.05
-34.94
-34.78
-33.46
-30.95
-27.36
-23.02
-18.50
-14.44
-11.34
-9.34
-8.14
-7.24
-6.11
-4.47
-2.36
-0.08
1.99
3.54
4.42
4.57
4.03
2.91
1.43
-0.10
-1.33
-1.96
-1.96
-1.53
-1.10
-1.16
-2.01
-3.69
-5.93
-8.26
-10.21
-11.47
-11.99
-12.00
-11.89
-12.07
-12.83
-14.21
-16.03
-17.94
-19.54
-20.42
-20.29
-18.97
-16.52
-13.15
-9.25
-5.32
-1.83
0.85
2.46
2.90
2.22
0.60
-1.65
-4.15
-6.61
-8.91
-11.24
-14.09
-18.06
-23.65
-30.92
-39.42
-48.29
-56.54
-63.37
-68.44
-71.93
-74.42
-76.64
-79.28
-82.72
-86.85
-90.90
-93.34
-92.12
-85.16
-71.19
-50.46
-24.98
1.87
26.41
45.70
58.36
64.62
65.73
63.26
58.57
52.71
46.64
41.42
38.14
37.70
40.47
46.08
53.61
61.86
69.75
76.54
81.91
85.84
88.47
90.00
90.63
90.47
89.54
87.62
84.31
79.17
71.89
62.63
52.11
41.56
32.32
25.46
21.42
19.94
20.19
21.18
22.16
22.77
23.10
23.45
24.08
24.95
25.57
25.08
22.47
17.01
8.54
-2.37
-14.52
-26.51
-37.13
-45.63
-51.84
-55.94
-58.27
-59.14
-58.82
-57.62
-55.95
-54.21
-52.71
-51.49
-50.31
-48.76
-46.47
-43.22
-39.03
-34.15
-28.89
-23.61
-18.52
-13.60
-8.63
-3.18
3.19
10.69
19.14
28.00
36.42
43.60
49.07
52.91
55.74
58.51
62.14
67.10
73.12
79.24
84.16
86.84
87.04
85.55
83.94
83.96
86.87
92.92
101.37
110.78
119.58
126.68
131.90
136.25
141.77
151.13
166.69
189.42
217.77
247.41
272.00
285.06
282.12
262.12
227.55
183.12
133.85
83.47
34.02
-13.63
-58.85
-100.69
-138.14
-170.96
-200.30
-228.69
-259.53
-296.17
-341.02
-394.61
-454.79
-516.29
-571.39
-611.72
-630.78
-626.26
-600.80
-560.83
-513.89
-465.98
-420.10
-376.62
-334.66
-293.59
-253.49
-214.73
-177.17
-139.87
-101.41
-60.79
-18.19
25.04
66.79
105.23
139.71
171.37
202.81
237.05
275.80
318.01
359.41
393.56
414.19
417.68
404.48
378.82
346.92
314.79
286.56
264.05
247.22
235.01
225.97
218.29
209.85
198.43
182.30
160.81
134.69
105.78
76.40
48.73
24.26
3.64
-13.24
-26.98
-38.36
-48.03
-56.28
-63.03
-68.00
-70.91
-71.67
-70.49
-67.78
-64.04
-59.69
-55.02
-50.17
-45.15
-39.94
-34.50
-28.85
-23.18
-17.83
-13.27
-9.91
-7.94
-7.21
-7.24
-7.42
-7.28
-6.60
-5.52
-4.35
-3.39
-2.77
-2.43
-2.19
-1.89
-1.51
-1.14
-0.93
-1.04
-1.57
-2.60
-4.19
-6.38
-9.09
-12.03
-14.65
-16.31
-16.43
-14.81
-11.70
-7.82
-4.04
-1.11
0.57
1.09
0.81
0.18
-0.63
-1.73
-3.45
-6.04
-9.49
-13.44
-17.37
-20.92
-24.02
-26.90
-29.80
-32.69
-35.15
-36.51
-36.28
-34.42
-31.52
-28.48
-26.23
-25.32
-25.80
-27.27
-29.16
-30.93
-32.25
-32.98
-33.11
-32.71
-31.87
-30.71
-29.36
-27.94
-26.54
-25.16
-23.65
-21.80
-19.36
-16.25
-12.60
-8.81
-5.41
-2.85
-1.37
-0.92
-1.32
-2.33
-3.83
-5.76
-8.06
-10.62
-13.27
-15.97
-18.85
-22.28
-26.68
-32.36
-39.24
-46.85
-54.46
-61.32
-66.85
-70.72
-72.88
-73.46
-72.67
-70.78
-68.00
-64.46
-60.10
-54.72
-48.03
-39.79
-29.86
-18.32
-5.40
8.57
23.14
37.86
52.26
65.94
78.59
89.93
99.67
107.48
113.04
116.13
116.82
115.48
112.68
109.08
105.15
101.15
97.11
92.99
88.79
84.55
80.34
76.22
72.21
68.28
64.44
60.66
56.90
53.05
48.99
44.71
40.43
36.62
33.75
32.04
31.19
30.37
28.53
24.83
19.13
12.01
4.61
-1.81
-6.29
-8.45
-8.38
-6.51
-3.37
0.51
4.54
8.14
10.73
11.84
11.25
9.04
5.55
1.32
-3.08
-7.17
-10.65
-13.47
-15.79
-17.90
-20.07
-22.44
-24.98
-27.56
-30.10
-32.70
-35.55
-38.86
-42.59
-46.43
-49.95
-52.93
-55.54
-58.39
-62.13
-66.99
-72.46
-77.37
-80.34
-80.45
-77.66
-72.90
-67.65
-63.35
-60.81
-59.99
-60.12
-60.18
-59.50
-57.96
-56.03
-54.23
-53.01
-52.49
-52.77
-54.16
-57.17
-61.58
-65.49
-65.16
-56.36
-36.67
-7.39
26.50
58.37
83.07
99.05
108.36
114.55
120.15
125.16
127.73
125.97
119.72
110.83
102.00
95.10
90.26
86.33
82.09
77.43
73.60
72.63
76.41
85.62
99.27
114.98
129.95
141.90
149.90
154.30
156.18
156.67
156.50
156.04
155.78
156.62
159.87
166.94
178.82
195.80
217.24
241.57
266.26
287.95
302.83
307.35
299.03
277.38
244.40
204.65
164.42
130.36
107.74
99.15
103.84
118.18
136.92
154.74
167.57
173.20
171.22
162.49
148.55
131.30
112.78
94.94
79.40
67.07
58.02
51.58
46.72
42.44
37.98
33.06
26.93
19.44
11.34
3.80
-2.40
-7.24
-11.31
-15.30
-19.75
-25.77
-33.80
-43.32
-53.15
-62.28
-70.34
-77.45
-83.94
-90.11
-98.35
-109.98
-124.18
-138.46
-150.55
-159.36
-164.91
-167.77
-168.79
-174.83
-190.10
-212.98
-237.39
-257.67
-271.37
-278.91
-282.20
-283.79
-298.55
-335.67
-392.11
-455.25
-512.93
-559.14
-593.23
-617.34
-634.63
-667.92
-731.08
-818.86
-911.22
-989.60
-1045.81
-1080.57
-1099.03
-1107.64
-1138.18
-1210.80
-1321.37
-1447.29
-1567.31
-1671.30
-1756.52
-1821.39
-1701.56
-1327.39
-767.49
-179.88
311.34
664.51
893.00
1029.84
1107.95
1152.08
1151.58
1099.12
1006.30
901.05
808.92
741.96
700.69
679.82
672.28
651.52
601.47
525.97
444.28
374.83
326.11
298.36
288.07
291.47
288.72
268.24
231.60
190.36
155.73
132.71
121.04
117.93
119.97
117.97
106.71
87.17
65.13
46.14
32.68
24.66
20.82
19.55
17.21
11.89
3.92
-4.66
-11.85
-16.75
-19.26
-19.67
-18.36
-15.78
-12.09
-7.66
-2.90
1.81
6.29
10.68
15.35
20.81
27.35
35.12
43.82
52.86
61.72
70.17
78.51
87.48
97.97
110.58
125.43
141.96
159.30
176.55
193.27
209.57
226.08
243.66
263.29
285.90
312.11
341.67
372.87
402.31
425.46
438.01
437.48
424.35
401.89
374.88
347.74
323.19
301.89
283.18
266.21
250.65
236.64
224.32
213.20
202.17
189.88
175.45
158.86
141.01
123.36
107.30
93.66
82.56
73.56
65.98
59.34
53.46
48.38
44.15
40.53
36.96
32.66
26.91
19.36
10.12
-0.23
-10.82
-20.78
-29.46
-36.68
-42.69
-48.01
-53.09
-58.08
-62.62
-65.93
-67.08
-65.38
-60.65
-53.37
-44.63
-35.93
-28.76
-24.16
-22.23
-21.86
-20.93
-16.96
-8.11
5.80
22.92
39.57
51.36
54.49
46.96
29.28
4.51
-22.16
-44.15
-54.65
-47.96
-21.13
24.72
83.82
146.57
201.68
239.14
252.89
242.27
211.44
167.34
116.95
65.27
14.60
-34.70
-82.94
-129.84
-174.51
-215.78
-253.27
-287.89
-321.62
-356.82
-395.60
-439.48
-489.18
-544.15
-601.76
-656.83
-701.95
-729.32
-733.27
-712.47
-670.44
-614.05
-550.83
-486.48
-423.88
-363.79
-306.28
-251.90
-201.66
-156.23
-114.99
-75.96
-36.34
6.24
52.87
102.80
153.31
200.41
239.67
267.42
281.71
282.90
273.47
257.09
237.54
217.75
199.57
183.95
171.43
162.41
157.09
155.11
155.30
155.83
154.66
150.23
141.97
130.40
116.91
103.22
90.70
80.13
71.62
64.87
59.49
55.27
52.20
50.53
50.68
53.17
58.51
67.01
78.42
91.82
105.68
118.20
127.83
133.78
136.02
135.08
131.66
126.38
119.73
112.18
104.22
96.12
87.66
77.93
65.63
49.71
30.18
8.59
-12.16
-28.79
-38.78
-41.32
-37.48
-29.65
-20.50
-12.11
-5.47
-0.60
2.93
5.60
7.65
9.19
10.37
11.49
12.83
14.50
16.26
17.59
18.00
17.48
16.65
16.71
18.94
24.11
32.09
41.76
51.40
59.36
64.61
67.11
67.69
67.68
68.42
70.80
75.08
80.94
87.69
94.57
100.94
106.37
110.61
113.55
115.15
115.41
114.32
111.61
106.54
97.80
83.66
62.62
34.26
-0.11
-37.43
-73.43
-103.82
-125.48
-137.14
-139.58
-135.06
-126.59
-117.22
-109.52
-105.26
-105.31
-109.53
-117.00
-126.34
-136.37
-146.65
-157.85
-171.52
-189.52
-213.00
-241.45
-272.07
-299.96
-319.24
-324.69
-313.52
-286.15
-246.03
-198.20
-147.67
-98.08
-51.47
-8.88
28.63
59.29
80.88
91.63
91.15
80.86
63.49
42.14
19.27
-3.62
-25.63
-45.91
-63.18
-75.89
-82.86
-83.89
-79.97
-72.99
-64.99
-57.45
-50.93
-44.98
-38.51
-30.25
-19.41
-6.15
8.24
21.81
32.82
40.66
46.15
50.98
56.49
62.70
68.23
71.36
71.53
70.14
70.05
73.88
82.25
93.17
102.88
107.82
106.38
99.59
90.43
82.50
78.84
81.52
91.56
109.03
132.58
158.99
183.39
200.31
205.76
198.87
182.40
161.56
141.68
126.18
115.78
109.21
104.62
100.69
96.87
92.86
87.99
81.15
71.10
57.17
39.58
19.40
-1.70
-22.01
-40.14
-55.34
-67.53
-77.11
-84.47
-89.36
-90.56
-86.27
-75.42
-59.11
-41.31
-27.88
-24.24
-32.81
-51.63
-74.97
-95.80
-108.76
-112.06
-107.64
-99.75
-93.04
-91.14
-95.98
-107.80
-125.19
-145.20
-163.54
-175.43
-176.97
-166.56
-145.49
-117.43
-87.08
-58.64
-34.81
-16.76
-4.57
2.24
4.45
3.18
0.05
-3.07
-4.44
-3.04
1.13
7.03
13.17
18.21
21.53
23.42
24.72
26.36
28.77
31.69
34.30
35.66
35.28
33.35
30.69
28.37
27.30
27.77
29.43
31.40
32.68
32.50
30.62
27.37
23.48
19.74
16.72
14.54
12.96
11.48
9.64
7.16
4.04
0.49
-3.20
-6.73
-9.88
-12.45
-14.18
-14.71
-13.72
-11.09
-7.14
-2.60
1.54
4.40
5.52
4.94
3.04
0.33
-2.80
-6.08
-9.23
-11.88
-13.51
-13.61
-11.99
-8.93
-5.18
-1.71
0.70
1.70
1.50
0.71
-0.03
-0.35
-0.18
0.34
1.14
2.38
4.34
7.24
10.99
15.10
18.89
21.75
23.48
24.29
24.71
25.27
26.18
27.29
28.13
28.20
27.10
24.63
20.55
14.56
6.39
-3.89
-15.43
-26.51
-34.91
-38.66
-36.84
-30.00
-19.80
-8.28
2.95
13.09
21.92
29.39
35.21
38.86
40.00
38.83
36.17
33.27
31.24
30.64
31.33
32.60
33.63
33.90
33.37
32.40
31.45
30.79
30.35
29.80
28.87
27.58
26.26
25.41
25.38
26.18
27.50
28.83
29.76
30.07
29.78
28.94
27.57
25.62
23.04
19.81
16.05
11.92
7.60
3.21
-1.16
-5.44
-9.51
-13.09
-15.83
-17.33
-17.35
-15.99
-13.65
-10.97
-8.58
-6.97
-6.37
-6.89
-8.56
-11.38
-15.27
-19.84
-24.43
-28.14
-30.07
-29.67
-26.87
-22.12
-16.20
-10.08
-4.71
-0.86
0.93
0.53
-1.75
-5.22
-8.99
-12.24
-14.50
-15.72
-16.20
-16.35
-16.54
-16.96
-17.69
-18.76
-20.20
-22.04
-24.20
-26.55
-28.87
-30.97
-32.68
-33.87
-34.42
-34.16
-32.93
-30.63
-27.29
-23.09
-18.32
-13.30
-8.36
-3.77
0.32
3.84
6.81
9.28
11.31
12.96
14.22
15.10
15.63
15.85
15.87
15.80
15.74
15.76
15.85
15.91
15.80
15.42
14.73
13.84
12.96
12.25
11.81
11.56
11.32
10.91
10.20
9.13
7.70
5.92
3.87
1.76
-0.03
-1.05
-0.88
0.59
3.13
6.17
9.07
11.35
12.82
13.62
14.00
14.23
14.48
14.84
15.34
16.00
16.81
17.72
18.63
19.45
20.16
20.88
21.76
22.93
24.44
26.15
27.81
29.12
29.80
29.70
28.83
27.31
25.41
23.43
21.56
19.87
18.21
16.37
14.15
11.59
8.95
6.69
5.27
5.00
5.95
7.93
10.61
13.61
16.56
19.12
21.05
22.14
22.30
21.55
19.96
17.63
14.70
11.33
7.74
4.19
0.91
-1.96
-4.42
-6.61
-8.76
-11.03
-13.57
-16.46
-19.79
-23.62
-28.00
-32.84
-37.87
-42.67
-46.77
-49.83
-51.77
-52.80
-53.37
-54.05
-55.35
-57.56
-60.67
-64.34
-68.01
-71.04
-72.84
-73.10
-71.79
-69.15
-65.56
-61.41
-57.01
-52.52
-48.00
-43.45
-38.87
-34.26
-29.73
-25.38
-21.40
-17.92
-15.01
-12.65
-10.69
-9.00
-7.43
-5.95
-4.61
-3.54
-2.83
-2.55
-2.65
-3.02
-3.49
-3.92
-4.22
-4.43
-4.59
-4.71
-4.67
-4.32
-3.53
-2.38
-1.15
-0.17
0.49
1.12
2.33
4.83
9.08
15.16
22.78
31.55
41.14
51.36
62.07
72.97
83.60
93.33
101.62
108.11
112.73
115.56
116.66
116.02
113.59
109.45
103.86
97.38
90.60
83.98
77.57
70.96
63.33
53.74
41.35
25.61
6.43
-15.76
-39.99
-64.83
-88.55
-109.53
-126.62
-139.54
-148.86
-155.89
-162.18
-169.04
-177.11
-186.16
-195.29
-203.21
-208.64
-210.65
-208.87
-203.57
-195.67
-186.49
-177.33
-169.06
-161.56
-153.61
-143.24
-128.63
-108.97
-85.12
-59.42
-34.86
-14.05
1.71
12.57
19.61
24.22
27.42
29.83
31.82
33.94
37.05
42.20
50.18
61.12
74.26
88.10
100.85
111.02
117.85
121.35
122.17
121.16
119.11
116.45
113.32
109.56
104.90
99.10
92.09
84.18
76.00
68.49
62.57
58.77
57.03
56.75
57.08
57.30
57.15
56.80
56.65
57.02
57.98
59.36
60.81
61.93
62.32
61.58
59.22
54.76
47.79
38.06
25.58
10.64
-6.17
-24.07
-42.08
-59.17
-74.32
-86.60
-95.34
-100.21
-101.30
-99.14
-94.62
-88.74
-82.52
-76.72
-71.87
-68.20
-65.71
-64.08
-62.51
-59.80
-54.48
-45.37
-32.06
-15.26
3.41
21.99
38.87
53.22
64.98
74.52
82.23
88.24
92.50
94.90
95.55
94.72
92.82
90.19
86.96
83.05
78.17
72.00
64.29
55.02
44.52
33.38
22.33
12.06
3.03
-4.65
-11.08
-16.51
-21.17
-25.21
-28.66
-31.52
-33.86
-35.82
-37.53
-39.03
-40.08
-40.22
-38.85
-35.58
-30.34
-23.50
-15.76
-7.87
-0.39
6.40
12.51
18.03
23.02
27.43
31.16
34.08
36.18
37.51
38.22
38.42
38.19
37.50
36.26
34.40
31.91
28.96
25.78
22.67
19.90
17.66
16.06
15.14
14.84
15.03
15.48
15.83
15.71
14.78
12.91
10.18
6.94
3.62
0.66
-1.67
-3.35
-4.54
-5.56
-6.70
-8.17
-10.02
-12.09
-14.13
-15.82
-16.91
-17.22
-16.72
-15.49
-13.82
-12.11
-10.88
-10.62
-11.60
-13.76
-16.56
-19.17
-20.69
-20.48
-18.34
-14.58
-9.84
-4.94
-0.64
2.45
3.96
3.88
2.53
0.52
-1.48
-2.98
-3.81
-4.16
-4.38
-4.74
-5.30
-5.95
-6.51
-6.93
-7.23
-7.49
-7.68
-7.62
-7.13
-6.11
-4.69
-3.19
-2.00
-1.38
-1.30
-1.48
-1.44
-0.81
0.58
2.63
5.07
7.59
10.02
12.37
14.75
17.23
19.74
22.03
23.77
24.71
24.80
24.20
23.25
22.29
21.50
20.91
20.38
19.73
18.83
17.66
16.29
14.80
13.24
11.55
9.66
7.51
5.12
2.65
0.34
-1.63
-3.15
-4.30
-5.33
-6.60
-8.44
-11.07
-14.45
-18.27
-21.97
-24.93
-26.65
-26.90
-25.83
-23.85
-21.44
-18.98
-16.61
-14.27
-11.86
-9.33
-6.76
-4.38
-2.40
-1.01
-0.35
-0.42
-1.12
-2.13
-2.90
-2.77
-1.10
2.43
7.69
14.14
20.94
27.27
32.46
36.15
38.18
38.56
37.37
34.77
30.98
26.32
21.21
16.19
11.78
8.39
6.07
4.42
2.51
-0.92
-6.97
-16.10
-27.73
-40.29
-51.77
-60.40
-65.37
-67.03
-66.50
-65.07
-63.51
-61.87
-59.69
-56.46
-52.03
-46.62
-40.71
-34.66
-28.62
-22.65
-16.87
-11.62
-7.39
-4.59
-3.32
-3.20
-3.44
-3.08
-1.27
2.41
7.85
14.42
21.14
27.06
31.46
34.04
34.84
34.11
32.17
29.35
26.01
22.58
19.45
16.86
14.77
12.95
11.17
9.48
8.30
8.22
9.67
12.56
16.20
19.67
22.25
23.85
24.97
26.31
28.34
31.00
33.81
36.17
37.74
38.45
38.43
37.72
36.26
34.04
31.22
28.24
25.51
23.19
21.05
18.58
15.33
11.24
6.74
2.49
-0.94
-3.29
-4.81
-5.99
-7.45
-9.68
-12.88
-17.02
-21.88
-27.16
-32.59
-38.02
-43.38
-48.66
-53.79
-58.63
-62.90
-66.23
-68.22
-68.56
-67.13
-64.10
-59.83
-54.74
-49.13
-43.10
-36.61
-29.66
-22.43
-15.40
-9.20
-4.38
-1.18
0.52
1.18
1.42
1.79
2.64
4.09
6.06
8.30
10.48
12.28
13.41
13.71
13.19
12.00
10.47
8.93
7.69
6.88
6.49
6.36
6.31
6.12
5.66
4.75
3.30
1.21
-1.48
-4.59
-7.79
-10.67
-12.83
-14.04
-14.25
-13.58
-12.20
-10.23
-7.73
-4.72
-1.26
2.42
5.94
8.90
10.93
11.85
11.73
10.85
9.54
8.15
6.87
5.83
5.02
4.39
3.84
3.27
2.59
1.78
0.84
-0.14
-1.10
-2.01
-2.88
-3.76
-4.66
-5.56
-6.39
-7.08
-7.66
-8.20
-8.81
-9.49
-10.17
-10.69
-10.92
-10.77
-10.31
-9.66
-8.91
-8.11
-7.25
-6.29
-5.17
-3.87
-2.40
-0.76
0.97
2.71
4.29
5.56
6.41
6.83
6.99
7.07
7.21
7.37
7.43
7.23
6.75
6.14
5.68
5.59
5.92
6.46
6.86
6.84
6.28
5.28
4.08
2.94
1.94
1.05
0.11
-1.09
-2.63
-4.51
-6.55
-8.45
-9.88
-10.58
-10.54
-9.92
-9.07
-8.27
-7.63
-7.05
-6.29
-5.12
-3.55
-1.73
0.06
1.63
2.96
4.13
5.28
6.48
7.65
8.71
9.57
10.20
10.61
10.84
10.87
10.68
10.29
9.75
9.15
8.55
7.95
7.28
6.47
5.51
4.45
3.37
2.38
1.52
0.71
-0.15
-1.22
-2.59
-4.28
-6.22
-8.30
-10.34
-12.16
-13.56
-14.42
-14.64
-14.20
-13.17
-11.67
-9.90
-8.05
-6.26
-4.68
-3.34
-2.28
-1.45
-0.81
-0.27
0.30
1.04
2.04
3.31
4.78
6.30
7.80
9.33
11.12
13.41
16.32
19.72
23.14
25.98
27.66
27.91
26.89
25.10
23.11
21.38
19.97
18.66
17.09
14.93
12.06
8.61
4.87
1.15
-2.22
-5.02
-6.99
-7.98
-7.90
-6.87
-5.20
-3.37
-1.84
-0.94
-0.78
-1.28
-2.21
-3.32
-4.41
-5.29
-5.76
-5.55
-4.40
-2.13
1.32
5.72
10.63
15.49
19.71
22.79
24.42
24.49
23.10
20.52
17.10
13.22
9.21
5.34
1.78
-1.32
-3.87
-5.76
-6.91
-7.34
-7.20
-6.78
-6.41
-6.41
-6.93
-7.90
-9.08
-10.11
-10.66
-10.58
-9.85
-8.56
-6.83
-4.70
-2.17
0.69
3.79
6.99
10.19
13.34
16.48
19.60
22.67
25.64
28.51
31.34
34.24
37.14
39.79
41.67
42.23
41.07
38.14
33.70
28.19
22.08
15.71
9.31
3.07
-2.84
-8.29
-13.21
-17.58
-21.45
-24.85
-27.78
-30.26
-32.33
-34.11
-35.71
-37.20
-38.48
-39.33
-39.46
-38.64
-36.84
-34.25
-31.25
-28.25
-25.58
-23.39
-21.66
-20.25
-18.99
-17.83
-16.76
-15.84
-15.09
-14.40
-13.58
-12.43
-10.82
-8.84
-6.81
-5.12
-4.16
-4.11
-4.92
-6.33
-8.02
-9.73
-11.35
-12.90
-14.44
-16.04
-17.70
-19.36
-20.95
-22.40
-23.59
-24.41
-24.74
-24.48
-23.63
-22.29
-20.66
-18.97
-17.40
-15.97
-14.56
-12.96
-10.99
-8.62
-6.03
-3.54
-1.47
0.00
0.98
1.74
2.56
3.53
4.53
5.31
5.67
5.66
5.53
5.64
6.24
7.33
8.67
9.91
10.79
11.28
11.54
11.88
12.54
13.64
15.12
16.76
18.25
19.18
19.22
18.18
16.08
13.17
9.84
6.52
3.49
0.81
-1.63
-4.02
-6.50
-9.02
-11.38
-13.23
-14.24
-14.21
-13.10
-11.10
-8.58
-5.94
-3.53
-1.51
0.11
1.44
2.61
3.70
4.68
5.49
6.13
6.66
7.18
7.77
8.43
9.05
9.52
9.79
9.93
10.08
10.35
10.73
11.05
11.11
10.75
9.95
8.83
7.58
6.34
5.13
3.91
2.64
1.29
-0.12
-1.52
-2.84
-4.00
-4.90
-5.38
-5.28
-4.48
-2.98
-1.00
1.11
2.94
4.17
4.70
4.70
4.48
4.42
4.75
5.51
6.55
7.66
8.66
9.49
10.22
10.90
11.56
12.11
12.42
12.40
12.05
11.49
10.88
10.30
9.76
9.13
8.29
7.19
5.92
4.67
3.65
2.94
2.51
2.12
1.52
0.52
-0.90
-2.59
-4.27
-5.67
-6.59
-6.96
-6.80
-6.20
-5.31
-4.28
-3.23
-2.23
-1.24
-0.19
1.02
2.42
3.97
5.54
7.01
8.31
9.42
10.37
11.10
11.54
11.56
11.17
10.47
9.65
8.89
8.28
7.76
7.22
6.57
5.84
5.12
4.50
3.99
3.50
2.86
1.88
0.46
-1.44
-3.77
-6.46
-9.36
-12.30
-15.03
-17.28
-18.75
-19.26
-18.73
-17.30
-15.27
-12.99
-10.80
-8.90
-7.33
-6.03
-4.94
-4.03
-3.39
-3.13
-3.32
-3.89
-4.64
-5.32
-5.73
-5.78
-5.60
-5.35
-5.24
-5.36
-5.67
-6.05
-6.34
-6.41
-6.21
-5.74
-5.03
-4.11
-3.02
-1.80
-0.58
0.42
0.87
0.40
-1.25
-4.10
-7.84
-11.84
-15.31
-17.59
-18.29
-17.47
-15.45
-12.73
-9.83
-7.12
-4.87
-3.24
-2.27
-1.91
-1.93
-1.99
-1.76
-1.03
0.19
1.67
3.06
4.08
4.62
4.76
4.70
4.64
4.67
4.76
4.79
4.70
4.50
4.27
4.06
3.89
3.66
3.25
2.57
1.63
0.51
-0.64
-1.72
-2.70
-3.64
-4.63
-5.76
-7.03
-8.40
-9.73
-10.84
-11.58
-11.83
-11.50
-10.59
-9.13
-7.23
-5.01
-2.66
-0.34
1.82
3.73
5.37
6.74
7.82
8.64
9.27
9.87
10.61
11.64
12.93
14.32
15.49
16.21
16.38
16.11
15.67
15.27
14.98
14.71
14.25
13.43
12.21
10.68
9.01
7.36
5.82
4.40
3.05
1.70
0.31
-1.09
-2.47
-3.75
-4.82
-5.62
-6.09
-6.20
-5.99
-5.50
-4.82
-4.03
-3.24
-2.54
-2.00
-1.65
-1.40
-1.14
-0.69
0.08
1.19
2.56
4.02
5.36
6.38
7.00
7.21
7.04
6.55
5.75
4.61
3.15
1.45
-0.25
-1.61
-2.33
-2.27
-1.54
-0.43
0.67
1.47
1.85
1.87
1.65
1.30
0.84
0.28
-0.40
-1.18
-2.03
-2.99
-4.12
-5.44
-6.88
-8.22
-9.23
-9.75
-9.87
-9.89
-10.17
-10.97
-12.22
-13.49
-14.16
-13.62
-11.55
-7.97
-3.26
2.03
7.31
12.08
16.07
19.30
22.10
25.13
29.19
34.90
42.39
51.07
59.69
66.66
70.62
70.81
67.27
60.68
52.03
42.29
32.24
22.45
13.37
5.38
-1.25
-6.44
-10.33
-13.30
-15.79
-18.19
-20.64
-23.08
-25.31
-27.08
-28.28
-28.96
-29.30
-29.54
-29.83
-30.23
-30.66
-30.95
-30.94
-30.56
-29.81
-28.76
-27.50
-26.11
-24.57
-22.82
-20.73
-18.16
-15.08
-11.53
-7.74
-4.04
-0.75
1.91
3.89
5.29
6.24
6.80
6.95
6.56
5.51
3.85
1.77
-0.42
-2.42
-4.01
-5.09
-5.71
-6.01
-6.16
-6.35
-6.78
-7.61
-8.91
-10.67
-12.69
-14.71
-16.43
-17.62
-18.17
-18.09
-17.51
-16.58
-15.47
-14.31
-13.20
-12.20
-11.37
-10.65
-9.99
-9.25
-8.36
-7.26
-6.02
-4.76
-3.62
-2.71
-2.08
-1.69
-1.48
-1.37
-1.33
-1.41
-1.66
-2.19
-3.02
-4.07
-5.10
-5.75
-5.69
-4.77
-3.08
-0.90
1.41
3.61
5.66
7.61
9.59
11.56
13.37
14.79
15.69
16.11
16.24
16.30
16.43
16.60
16.70
16.65
16.46
16.24
16.18
16.38
16.82
17.40
17.96
18.39
18.64
18.75
18.72
18.59
18.31
17.84
17.11
16.05
14.56
12.55
9.97
6.80
3.18
-0.60
-4.19
-7.23
-9.48
-10.86
-11.49
-11.57
-11.36
-11.06
-10.73
-10.38
-9.94
-9.35
-8.60
-7.71
-6.69
-5.54
-4.27
-2.88
-1.43
-0.03
1.13
1.89
2.10
1.73
0.83
-0.45
-1.90
-3.27
-4.34
-4.98
-5.19
-5.12
-4.97
-4.96
-5.20
-5.71
-6.45
-7.37
-8.46
-9.74
-11.21
-12.82
-14.40
-15.78
-16.77
-17.27
-17.27
-16.79
-15.86
-14.44
-12.45
-9.83
-6.58
-2.94
0.71
3.83
5.94
6.77
6.30
4.85
2.88
0.93
-0.62
-1.60
-2.10
-2.39
-2.76
-3.40
-4.27
-5.10
-5.49
-5.09
-3.78
-1.71
0.75
3.18
5.27
6.90
8.11
9.10
10.16
11.59
13.63
16.37
19.69
23.21
26.51
29.17
30.96
31.89
32.05
31.58
30.55
28.97
26.93
24.65
22.54
21.08
20.70
21.62
23.78
26.69
29.46
30.84
29.62
25.07
17.48
8.15
-0.89
-7.74
-11.38
-12.01
-10.89
-9.58
-9.26
-10.28
-12.28
-14.63
-16.88
-18.92
-20.85
-22.71
-24.28
-25.16
-25.00
-23.72
-21.64
-19.44
-17.94
-17.89
-19.68
-23.24
-28.03
-33.12
-37.43
-39.97
-40.06
-37.54
-32.70
-26.22
-18.92
-11.57
-4.71
1.38
6.65
11.19
15.23
19.05
22.92
26.93
30.95
34.62
37.49
39.22
39.70
38.99
37.20
34.31
30.12
24.43
17.22
8.86
0.04
-8.46
-15.99
-22.32
-27.55
-32.03
-36.15
-40.17
-44.14
-47.80
-50.70
-52.22
-51.81
-49.25
-44.69
-38.75
-32.29
-26.10
-20.77
-16.53
-13.35
-10.99
-9.05
-6.91
-3.83
0.84
7.40
15.54
24.46
33.09
40.51
46.27
50.45
53.48
55.91
58.24
60.86
63.97
67.50
71.02
73.79
74.96
73.92
70.56
65.28
58.71
51.42
43.63
35.23
26.04
16.08
5.71
-4.42
-13.55
-21.06
-26.67
-30.51
-33.05
-34.97
-36.97
-39.52
-42.79
-46.61
-50.57
-54.19
-57.01
-58.65
-58.83
-57.40
-54.35
-49.92
-44.53
-38.74
-33.05
-27.83
-23.20
-19.12
-15.45
-12.11
-9.09
-6.44
-4.19
-2.30
-0.64
0.94
2.54
4.14
5.59
6.69
7.31
7.38
6.93
6.02
4.66
2.83
0.51
-2.22
-5.21
-8.22
-11.01
-13.51
-15.75
-17.85
-19.88
-21.82
-23.44
-24.45
-24.56
-23.62
-21.68
-18.98
-15.82
-12.53
-9.31
-6.28
-3.41
-0.69
1.89
4.28
6.38
8.10
9.34
10.14
10.56
10.70
10.67
10.55
10.44
10.52
11.01
12.15
13.99
16.30
18.52
19.92
19.90
18.26
15.30
11.64
7.99
4.80
2.16
-0.11
-2.28
-4.50
-6.73
-8.81
-10.61
-12.05
-13.14
-13.90
-14.27
-14.17
-13.55
-12.45
-11.09
-9.72
-8.54
-7.55
-6.58
-5.35
-3.62
-1.29
1.45
4.29
6.85
8.85
10.18
10.89
11.16
11.14
10.96
10.69
10.32
9.84
9.24
8.53
7.77
7.03
6.38
5.84
5.34
4.82
4.20
3.49
2.71
1.91
1.04
-0.03
-1.52
-3.59
-6.26
-9.33
-12.43
-15.12
-17.03
-17.99
-18.01
-17.24
-15.90
-14.24
-12.43
-10.59
-8.73
-6.85
-4.92
-2.94
-1.03
0.68
2.05
3.00
3.56
3.83
3.87
3.71
3.30
2.59
1.62
0.53
-0.50
-1.30
-1.85
-2.20
-2.45
-2.66
-2.81
-2.80
-2.54
-1.99
-1.21
-0.36
0.42
0.97
1.14
0.87
0.12
-1.05
-2.49
-3.94
-5.11
-5.76
-5.74
-5.04
-3.81
-2.24
-0.58
1.01
2.43
3.65
4.74
5.72
6.61
7.38
7.96
8.31
8.44
8.44
8.44
8.56
8.85
9.25
9.62
9.83
9.75
9.38
8.77
8.03
7.27
6.56
5.89
5.21
4.45
3.54
2.53
1.47
0.41
-0.65
-1.76
-2.98
-4.29
-5.55
-6.56
-7.07
-6.95
-6.13
-4.72
-2.90
-0.86
1.21
3.19
5.04
6.81
8.52
10.15
11.61
12.74
13.45
13.74
13.75
13.70
13.81
14.10
14.51
14.86
14.98
14.82
14.42
13.81
13.05
12.09
10.89
9.44
7.77
6.00
4.28
2.72
1.33
0.05
-1.23
-2.59
-4.11
-5.79
-7.61
-9.49
-11.32
-12.91
-14.05
-14.53
-14.19
-13.02
-11.16
-8.85
-6.34
-3.85
-1.48
0.74
2.79
4.60
6.11
7.24
8.01
8.54
8.95
9.37
9.81
10.22
10.54
10.72
10.80
10.80
10.76
10.68
10.52
10.27
9.91
9.44
8.81
8.02
7.06
5.98
4.87
3.83
2.88
1.99
1.01
-0.16
-1.55
-3.11
-4.70
-6.12
-7.20
-7.75
-7.63
-6.79
-5.31
-3.39
-1.30
0.70
2.48
4.01
5.35
6.56
7.62
8.49
9.10
9.44
9.52
9.38
9.04
8.51
7.78
6.93
6.11
5.42
4.97
4.73
4.58
4.38
4.00
3.35
2.40
1.18
-0.25
-1.74
-3.15
-4.29
-5.10
-5.65
-6.14
-6.81
-7.84
-9.28
-10.96
-12.67
-14.12
-15.12
-15.55
-15.37
-14.60
-13.27
-11.47
-9.35
-7.08
-4.81
-2.65
-0.62
1.26
2.97
4.42
5.53
6.27
6.72
7.01
7.24
7.43
7.50
7.33
6.95
6.48
6.12
6.01
6.15
6.38
6.51
6.42
6.13
5.75
5.34
4.91
4.40
3.81
3.17
2.59
2.19
1.92
1.64
1.09
0.08
-1.44
-3.31
-5.27
-6.98
-8.22
-8.84
-8.81
-8.12
-6.83
-5.01
-2.84
-0.54
1.62
3.36
4.51
5.07
5.22
5.27
5.54
6.22
7.28
8.48
9.44
9.87
9.65
8.89
7.85
6.78
5.80
4.89
4.01
3.12
2.29
1.59
1.08
0.66
0.17
-0.58
-1.67
-3.04
-4.53
-5.93
-7.11
-7.98
-8.51
-8.64
-8.32
-7.48
-6.13
-4.45
-2.68
-1.10
0.15
1.12
2.02
3.10
4.47
6.08
7.72
9.14
10.20
10.91
11.41
11.89
12.46
13.11
13.78
14.30
14.58
14.55
14.17
13.43
12.35
10.97
9.37
7.66
5.90
4.17
2.45
0.69
-1.20
-3.32
-5.73
-8.39
-11.18
-13.84
-16.09
-17.68
-18.43
-18.30
-17.39
-15.91
-14.11
-12.23
-10.46
-8.91
-7.58
-6.41
-5.24
-3.97
-2.59
-1.18
0.12
1.17
1.93
2.43
2.77
3.06
3.39
3.75
4.10
4.37
4.49
4.43
4.23
3.93
3.60
3.28
2.98
2.69
2.37
1.98
1.51
0.90
0.12
-0.94
-2.36
-4.21
-6.44
-8.91
-11.39
-13.61
-15.39
-16.62
-17.37
-17.74
-17.86
-17.81
-17.62
-17.28
-16.78
-16.09
-15.14
-13.85
-12.20
-10.28
-8.33
-6.70
-5.65
-5.27
-5.38
-5.64
-5.66
-5.20
-4.17
-2.64
-0.78
1.19
3.04
4.52
5.45
5.70
5.30
4.36
3.08
1.68
0.33
-0.83
-1.68
-2.21
-2.45
-2.60
-2.87
-3.45
-4.36
-5.38
-6.19
-6.45
-5.98
-4.84
-3.28
-1.68
-0.31
0.70
1.42
2.04
2.78
3.74
4.90
6.07
7.08
7.83
8.33
8.73
9.16
9.65
10.11
10.38
10.36
10.04
9.56
9.07
8.64
8.19
7.54
6.50
5.01
3.13
1.08
-0.86
-2.51
-3.81
-4.81
-5.68
-6.62
-7.74
-9.07
-10.51
-11.84
-12.87
-13.44
-13.50
-13.11
-12.37
-11.37
-10.15
-8.74
-7.15
-5.42
-3.58
-1.71
0.18
2.06
3.92
5.69
7.27
8.53
9.39
9.86
10.06
10.16
10.31
10.57
10.90
11.19
11.35
11.30
11.03
10.56
9.91
9.11
8.14
7.04
5.83
4.53
3.14
1.67
0.09
-1.61
-3.43
-5.33
-7.25
-9.13
-10.81
-12.14
-12.92
-13.03
-12.43
-11.18
-9.41
-7.27
-4.92
-2.50
-0.19
1.83
3.34
4.22
4.42
4.06
3.34
2.48
1.67
1.03
0.61
0.38
0.27
0.17
0.03
-0.21
-0.47
-0.66
-0.75
-0.74
-0.79
-1.07
-1.68
-2.57
-3.56
-4.39
-4.93
-5.24
-5.56
-6.18
-7.30
-8.91
-10.79
-12.62
-14.12
-15.14
-15.65
-15.65
-15.13
-14.02
-12.27
-9.88
-7.01
-3.90
-0.79
2.17
4.90
7.41
9.66
11.55
12.93
13.70
13.87
13.61
13.17
12.77
12.46
12.19
11.75
10.97
9.82
8.44
7.08
5.95
5.15
4.54
3.91
3.01
1.77
0.26
-1.32
-2.79
-4.07
-5.21
-6.34
-7.60
-9.08
-10.74
-12.53
-14.33
-16.00
-17.37
-18.19
-18.29
-17.53
-15.94
-13.71
-11.14
-8.53
-6.12
-4.03
-2.27
-0.84
0.27
1.06
1.52
1.70
1.75
1.86
2.20
2.87
3.80
4.82
5.73
6.42
6.88
7.19
7.43
7.67
7.87
7.98
7.93
7.70
7.32
6.83
6.27
5.65
5.00
4.30
3.53
2.63
1.53
0.16
-1.46
-3.18
-4.72
-5.74
-5.99
-5.38
-4.04
-2.27
-0.38
1.41
3.04
4.55
5.99
7.36
8.57
9.45
9.92
9.96
9.69
9.32
8.98
8.77
8.66
8.58
8.41
8.11
7.66
7.08
6.40
5.65
4.83
3.96
3.08
2.25
1.57
1.09
0.87
0.85
0.95
1.04
0.93
0.49
-0.39
-1.73
-3.42
-5.25
-6.98
-8.37
-9.28
-9.68
-9.55
-8.86
-7.46
-5.21
-2.08
1.71
5.66
9.15
11.69
13.13
13.69
13.85
14.03
14.42
14.91
15.29
15.41
15.29
15.08
14.87
14.61
14.21
13.63
13.07
12.84
13.17
13.88
14.36
13.74
11.36
7.15
1.75
-3.74
-8.27
-11.27
-12.71
-12.94
-12.33
-11.05
-9.13
-6.68
-4.11
-2.12
-1.37
-2.16
-4.18
-6.65
-8.63
-9.42
-8.87
-7.26
-5.17
-3.23
-1.85
-1.24
-1.38
-2.07
-2.99
-3.76
-4.09
-3.86
-3.15
-2.23
-1.38
-0.82
-0.57
-0.54
-0.55
-0.50
-0.37
-0.21
-0.11
-0.08
-0.08
-0.02
0.12
0.26
0.23
-0.11
-0.87
-1.96
-3.22
-4.41
-5.32
-5.83
-5.88
-5.49
-4.67
-3.47
-1.94
-0.16
1.76
3.73
5.71
7.73
9.79
11.84
13.70
15.11
15.89
16.01
15.66
15.17
14.84
14.73
14.65
14.24
13.24
11.62
9.61
7.58
5.75
4.13
2.44
0.39
-2.22
-5.29
-8.51
-11.46
-13.85
-15.61
-16.89
-17.98
-19.17
-20.71
-22.79
-25.59
-29.21
-33.58
-38.30
-42.71
-46.09
-47.92
-48.19
-47.35
-46.08
-44.93
-43.98
-42.92
-41.14
-38.18
-33.87
-28.39
-22.12
-15.46
-8.76
-2.30
3.68
8.94
13.24
16.49
18.69
19.98
20.55
20.58
20.21
19.47
18.32
16.66
14.34
11.31
7.61
3.45
-0.82
-4.85
-8.30
-10.96
-12.79
-13.83
-14.18
-13.85
-12.72
-10.60
-7.27
-2.64
3.19
9.94
17.16
24.37
31.15
37.20
42.30
46.33
49.23
50.95
51.47
50.82
49.13
46.67
43.90
41.34
39.49
38.52
38.17
37.79
36.51
33.64
28.89
22.52
15.21
7.74
0.80
-5.22
-10.25
-14.35
-17.68
-20.37
-22.54
-24.32
-25.93
-27.60
-29.59
-32.11
-35.28
-39.08
-43.34
-47.82
-52.20
-56.19
-59.58
-62.26
-64.29
-65.78
-66.89
-67.67
-68.07
-67.93
-67.06
-65.27
-62.29
-57.76
-51.14
-41.84
-29.52
-14.40
2.61
19.89
35.52
47.83
55.79
59.23
58.69
55.06
49.22
41.96
34.11
26.79
21.36
19.01
20.20
24.24
29.44
33.71
35.39
33.91
29.76
23.95
17.34
10.29
2.77
-5.17
-13.04
-19.90
-24.85
-27.50
-28.27
-28.17
-28.30
-29.26
-30.90
-32.33
-32.48
-30.63
-26.91
-22.31
-18.38
-16.67
-18.10
-22.75
-29.86
-37.91
-44.76
-47.69
-43.79
-30.78
-8.07
22.45
56.38
87.99
111.99
125.30
127.75
121.58
110.02
96.05
81.67
67.94
55.35
44.16
34.31
25.26
16.00
5.55
-6.51
-19.57
-32.05
-41.80
-46.85
-46.07
-39.63
-29.01
-16.73
-5.68
1.72
4.23
2.20
-2.74
-8.35
-12.74
-15.06
-15.71
-15.95
-17.20
-20.35
-25.39
-31.55
-37.69
-42.64
-45.50
-45.65
-42.83
-37.26
-29.80
-22.19
-16.73
-15.65
-20.09
-29.45
-41.23
-51.79
-57.76
-57.29
-50.80
-40.61
-29.96
-21.56
-16.65
-14.73
-14.06
-12.66
-9.16
-3.27
4.44
13.01
21.75
30.49
39.57
49.41
60.17
71.67
83.56
95.52
107.34
118.88
129.86
139.92
148.66
155.61
160.24
161.78
159.31
152.10
140.18
124.76
108.10
92.78
80.86
73.36
70.29
71.02
74.48
78.93
81.81
79.99
70.93
54.02
31.38
6.91
-15.88
-35.95
-55.09
-76.26
-100.80
-126.62
-148.74
-162.06
-164.38
-157.79
-147.45
-138.56
-133.67
-131.98
-130.84
-128.24
-124.18
-120.15
-117.09
-113.59
-105.62
-88.21
-58.02
-15.32
35.53
87.34
132.40
164.77
181.65
183.52
173.32
155.05
132.53
108.48
84.48
61.33
39.75
20.80
5.80
-4.16
-8.93
-9.46
-7.63
-5.38
-4.03
-3.99
-4.93
-6.34
-8.04
-10.31
-13.61
-18.19
-23.73
-29.41
-34.22
-37.45
-38.99
-39.29
-39.07
-38.73
-38.17
-36.84
-34.05
-29.35
-22.78
-14.85
-6.43
1.41
7.73
12.00
14.38
15.63
16.77
18.45
20.43
21.54
20.18
15.30
7.07
-2.99
-12.72
-20.41
-25.52
-28.84
-31.90
-36.17
-42.47
-50.91
-61.12
-72.48
-84.36
-95.91
-106.00
-113.06
-115.26
-110.89
-98.96
-79.68
-54.52
-26.12
2.53
28.87
51.44
70.12
85.73
99.31
111.40
121.74
129.41
133.44
133.44
129.85
123.65
115.87
107.19
97.97
88.60
79.68
71.79
64.80
57.32
46.95
31.54
10.79
-12.78
-34.32
-48.58
-52.13
-44.72
-28.97
-8.77
12.51
32.75
50.51
63.90
70.02
65.63
48.77
20.43
-15.05
-50.99
-80.59
-99.01
-104.66
-99.12
-86.03
-69.58
-53.30
-39.50
-29.22
-22.75
-20.08
-21.13
-25.77
-33.46
-43.03
-52.62
-60.16
-64.12
-64.18
-61.44
-57.96
-55.77
-55.87
-57.78
-59.92
-60.46
-58.21
-53.12
-46.05
-38.22
-30.64
-23.83
-17.92
-12.94
-9.08
-6.73
-6.22
-7.61
-10.53
-14.22
-17.77
-20.50
-22.07
-22.62
-22.63
-22.67
-23.14
-24.20
-25.76
-27.62
-29.64
-31.79
-34.10
-36.50
-38.82
-40.80
-42.28
-43.39
-44.59
-46.53
-49.75
-54.31
-59.64
-64.69
-68.41
-70.16
-69.90
-68.03
-64.94
-60.59
-54.44
-45.89
-34.93
-22.62
-10.74
-0.90
6.38
11.80
16.67
21.82
27.08
31.43
34.00
34.85
35.10
36.22
39.03
43.09
47.11
49.88
51.19
51.98
53.58
56.67
60.60
63.62
63.77
59.86
52.15
42.25
32.48
24.88
20.43
18.81
18.78
18.89
18.23
16.75
15.09
14.20
14.79
17.06
20.67
24.88
28.77
31.40
32.07
30.34
26.23
20.14
12.89
5.47
-1.05
-5.82
-8.35
-8.62
-7.10
-4.61
-2.06
-0.21
0.42
-0.32
-2.38
-5.51
-9.38
-13.58
-17.58
-20.84
-22.92
-23.65
-23.21
-21.96
-20.36
-18.66
-16.96
-15.30
-13.79
-12.66
-12.12
-12.13
-12.35
-12.30
-11.63
-10.44
-9.23
-8.66
-9.01
-10.02
-10.91
-10.86
-9.45
-6.84
-3.71
-0.74
1.66
3.48
4.93
6.14
7.03
7.31
6.75
5.35
3.49
1.70
0.52
0.21
0.73
1.71
2.72
3.43
3.77
3.92
4.34
5.62
8.41
13.25
20.28
28.99
38.13
46.00
50.91
51.90
49.16
44.02
38.46
34.38
32.89
34.08
36.99
40.05
41.54
39.98
34.57
25.40
13.58
1.08
-9.80
-17.12
-19.99
-19.06
-16.42
-14.84
-16.72
-22.96
-32.50
-42.74
-50.73
-54.41
-53.45
-48.99
-42.83
-36.42
-30.34
-24.48
-18.61
-12.92
-8.02
-4.51
-2.49
-1.31
0.15
2.87
7.22
12.73
18.40
23.09
26.04
27.21
27.15
26.76
26.76
27.28
27.90
27.91
26.79
24.58
21.84
19.34
17.65
16.86
16.61
16.49
16.24
15.85
15.30
14.31
12.26
8.41
2.39
-5.41
-13.82
-21.28
-26.56
-29.22
-29.72
-29.03
-28.04
-27.16
-26.24
-24.88
-22.82
-20.19
-17.40
-15.00
-13.31
-12.45
-12.26
-12.55
-13.12
-13.80
-14.41
-14.74
-14.62
-13.98
-12.85
-11.35
-9.61
-7.73
-5.72
-3.51
-1.04
1.75
4.82
7.98
10.88
13.10
14.20
13.92
12.22
9.30
5.59
1.64
-2.02
-4.95
-6.81
-7.46
-6.83
-4.96
-1.97
1.95
6.53
11.36
15.94
19.78
22.60
24.41
25.58
26.62
27.95
29.62
31.18
31.87
30.90
27.85
22.81
16.33
9.21
2.32
-3.45
-7.26
-8.48
-7.05
-3.76
-0.29
1.34
-0.46
-6.01
-14.21
-22.97
-30.15
-34.48
-35.89
-35.20
-33.48
-31.41
-29.08
-26.29
-22.90
-19.08
-15.30
-12.07
-9.62
-7.79
-6.10
-4.05
-1.34
1.93
5.32
8.25
10.21
10.97
10.62
9.53
8.12
6.73
5.55
4.62
3.88
3.28
2.79
2.41
2.14
1.94
1.77
1.53
1.17
0.63
-0.13
-1.13
-2.37
-3.76
-5.23
-6.78
-8.53
-10.69
-13.40
-16.60
-19.91
-22.77
-24.63
-25.21
-24.63
-23.31
-21.77
-20.40
-19.30
-18.30
-17.15
-15.63
-13.70
-11.50
-9.28
-7.34
-5.94
-5.22
-5.14
-5.50
-6.00
-6.37
-6.51
-6.61
-7.06
-8.34
-10.76
-14.37
-18.88
-23.79
-28.51
-32.33
-34.41
-33.79
-29.60
-21.55
-10.25
2.67
15.10
25.19
32.06
36.05
38.17
39.40
40.00
39.55
37.49
33.75
29.07
24.69
21.63
20.12
19.53
18.78
16.94
13.65
9.26
4.58
0.66
-1.58
-1.59
0.69
4.73
9.57
14.06
17.25
18.67
18.42
17.02
15.15
13.53
12.79
13.46
15.90
20.07
25.38
30.65
34.44
35.50
33.29
28.13
21.08
13.50
6.47
0.54
-4.26
-8.20
-11.44
-13.82
-14.99
-14.55
-12.45
-9.05
-5.08
-1.34
1.57
3.38
4.11
3.87
2.72
0.65
-2.26
-5.73
-9.23
-12.16
-14.08
-14.87
-14.74
-14.10
-13.32
-12.68
-12.33
-12.39
-12.98
-14.16
-15.81
-17.59
-18.93
-19.27
-18.20
-15.68
-12.07
-8.01
-4.22
-1.28
0.47
1.05
0.71
-0.10
-0.90
-1.22
-0.70
0.90
3.60
7.23
11.44
15.82
19.99
23.76
27.03
29.78
31.93
33.37
34.02
33.96
33.48
33.02
32.95
33.46
34.39
35.38
35.96
35.74
34.52
32.22
28.87
24.61
19.64
14.27
8.87
3.81
-0.65
-4.34
-7.14
-8.90
-9.52
-9.06
-7.81
-6.34
-5.32
-5.27
-6.32
-8.13
-10.03
-11.34
-11.63
-10.88
-9.38
-7.55
-5.72
-4.04
-2.56
-1.33
-0.48
-0.14
-0.34
-0.87
-1.26
-1.04
0.06
1.86
3.85
5.37
6.00
5.77
5.08
4.49
4.39
4.85
5.59
6.21
6.33
5.74
4.40
2.37
-0.13
-2.70
-4.81
-5.90
-5.70
-4.46
-3.04
-2.55
-3.94
-7.48
-12.56
-17.94
-22.26
-24.61
-24.78
-23.19
-20.58
-17.66
-14.91
-12.62
-10.91
-9.83
-9.31
-9.13
-8.93
-8.40
-7.37
-5.90
-4.20
-2.50
-0.96
0.33
1.32
1.92
2.10
1.88
1.43
0.93
0.54
0.19
-0.30
-1.20
-2.62
-4.46
-6.46
-8.29
-9.79
-11.00
-12.16
-13.58
-15.43
-17.69
-20.07
-22.12
-23.32
-23.28
-21.82
-19.04
-15.29
-11.06
-6.81
-2.86
0.61
3.58
6.06
8.10
9.71
10.90
11.68
12.10
12.24
12.19
12.05
11.91
11.85
11.89
11.98
12.02
11.87
11.39
10.50
9.19
7.57
5.77
3.98
2.27
0.63
-1.05
-2.91
-5.07
-7.56
-10.34
-13.33
-16.37
-19.24
-21.62
-23.11
-23.32
-22.05
-19.39
-15.71
-11.57
-7.51
-3.85
-0.64
2.29
5.12
7.90
10.51
12.70
14.29
15.26
15.80
16.22
16.77
17.50
18.30
18.93
19.21
19.10
18.69
18.08
17.28
16.20
14.71
12.77
10.52
8.19
6.02
4.19
2.71
1.49
0.35
-0.89
-2.42
-4.43
-7.00
-10.08
-13.40
-16.48
-18.70
-19.56
-18.84
-16.66
-13.44
-9.73
-6.02
-2.58
0.54
3.46
6.30
9.07
11.66
13.84
15.40
16.20
16.27
15.78
14.98
14.14
13.48
13.12
13.04
13.13
13.21
13.06
12.51
11.45
9.90
8.00
5.91
3.82
1.86
0.06
-1.58
-3.09
-4.54
-6.01
-7.65
-9.60
-11.95
-14.62
-17.35
-19.69
-21.16
-21.36
-20.10
-17.52
-13.94
-9.87
-5.78
-2.00
1.29
4.08
6.40
8.25
9.61
10.44
10.76
10.71
10.50
10.35
10.37
10.56
10.78
10.87
10.72
10.34
9.79
9.15
8.39
7.47
6.28
4.78
3.07
1.34
-0.27
-1.72
-3.14
-4.81
-6.95
-9.66
-12.79
-15.97
-18.77
-20.76
-21.61
-21.18
-19.47
-16.69
-13.19
-9.37
-5.61
-2.18
0.82
3.35
5.40
6.94
7.97
8.51
8.70
8.72
8.77
8.97
9.37
9.96
10.69
11.55
12.50
13.47
14.29
14.74
14.58
13.67
12.02
9.85
7.47
5.21
3.27
1.67
0.27
-1.20
-2.93
-5.07
-7.58
-10.33
-13.12
-15.67
-17.64
-18.66
-18.43
-16.85
-14.12
-10.79
-7.51
-4.78
-2.69
-0.93
1.03
3.62
6.86
10.33
13.38
15.42
16.25
16.05
15.24
14.34
13.75
13.66
14.13
15.07
16.30
17.52
18.38
18.52
17.67
15.73
12.82
9.23
5.39
1.72
-1.43
-3.86
-5.57
-6.76
-7.76
-8.94
-10.59
-12.85
-15.65
-18.80
-22.00
-24.87
-27.04
-28.19
-28.08
-26.61
-23.87
-20.11
-15.69
-11.02
-6.43
-2.12
1.83
5.45
8.71
11.50
13.67
15.10
15.82
16.09
16.24
16.57
17.19
17.97
18.66
19.02
18.93
18.44
17.67
16.73
15.66
14.42
12.94
11.20
9.22
7.11
5.02
3.11
1.48
0.14
-1.01
-2.18
-3.58
-5.38
-7.68
-10.48
-13.67
-17.05
-20.26
-22.86
-24.37
-24.43
-22.93
-20.10
-16.42
-12.42
-8.56
-5.05
-1.88
1.01
3.67
6.01
7.87
9.09
9.69
9.80
9.67
9.51
9.47
9.56
9.72
9.84
9.87
9.81
9.69
9.55
9.38
9.05
8.43
7.37
5.85
3.96
1.96
0.09
-1.45
-2.65
-3.66
-4.74
-6.18
-8.20
-10.88
-14.07
-17.40
-20.29
-22.12
-22.39
-20.91
-17.92
-13.99
-9.81
-5.93
-2.59
0.31
3.04
5.86
8.83
11.75
14.23
15.87
16.36
15.61
13.73
11.13
8.37
6.17
5.19
5.83
8.02
11.15
14.28
16.48
17.16
16.26
14.16
11.41
8.40
5.29
2.02
-1.41
-4.76
-7.59
-9.42
-10.07
-9.81
-9.37
-9.57
-11.06
-13.91
-17.65
-21.40
-24.24
-25.58
-25.29
-23.67
-21.21
-18.33
-15.31
-12.21
-9.07
-5.89
-2.74
0.34
3.33
6.17
8.79
11.03
12.70
13.72
14.15
14.22
14.20
14.24
14.26
14.04
13.35
12.13
10.56
8.94
7.60
6.62
5.86
5.02
3.85
2.22
0.26
-1.75
-3.50
-4.77
-5.52
-5.91
-6.24
-6.87
-8.08
-10.06
-12.77
-16.00
-19.38
-22.45
-24.77
-25.91
-25.59
-23.72
-20.43
-16.13
-11.35
-6.65
-2.42
1.17
4.19
6.78
9.06
11.07
12.72
13.95
14.71
15.00
14.87
14.37
13.60
12.71
11.87
11.35
11.29
11.65
12.26
12.75
12.81
12.21
10.95
9.27
7.62
6.51
6.27
7.01
8.53
10.42
12.14
13.08
12.67
10.33
5.65
-1.44
-10.44
-20.22
-29.11
-35.43
-37.94
-36.31
-31.09
-23.42
-14.55
-5.64
2.22
8.03
10.80
9.90
5.52
-1.06
-7.73
-12.21
-13.01
-9.97
-4.23
2.39
8.24
12.41
14.71
15.33
14.37
11.78
7.51
1.96
-3.92
-8.75
-11.27
-10.94
-8.19
-4.31
-0.96
0.48
-0.58
-3.84
-8.31
-12.85
-16.65
-19.45
-21.49
-23.17
-24.72
-25.98
-26.47
-25.68
-23.34
-19.58
-14.90
-9.97
-5.36
-1.41
1.83
4.48
6.77
8.86
10.80
12.50
13.83
14.70
15.13
15.29
15.38
15.58
15.90
16.20
16.27
15.97
15.27
14.32
13.31
12.35
11.42
10.41
9.16
7.56
5.64
3.52
1.42
-0.50
-2.16
-3.66
-5.19
-6.98
-9.15
-11.60
-14.01
-15.97
-17.12
-17.27
-16.43
-14.76
-12.46
-9.68
-6.54
-3.15
0.38
3.92
7.34
10.52
13.36
15.76
17.63
18.97
19.84
20.45
21.03
21.76
22.72
23.82
24.87
25.63
25.94
25.73
24.96
23.63
21.68
18.97
15.35
10.80
5.50
-0.09
-5.34
-9.64
-12.64
-14.40
-15.35
-16.11
-17.20
-18.83
-20.86
-22.97
-24.79
-26.04
-26.46
-25.79
-23.83
-20.55
-16.33
-11.93
-8.29
-6.04
-5.23
-5.18
-4.86
-3.38
-0.39
3.77
8.38
12.67
16.14
18.60
20.04
20.42
19.53
17.17
13.21
7.88
1.87
-3.68
-7.58
-8.94
-7.66
-4.53
-0.98
1.51
2.00
0.39
-2.67
-6.25
-9.61
-12.43
-14.77
-16.77
-18.52
-19.91
-20.84
-21.24
-21.16
-20.64
-19.59
-17.87
-15.30
-11.85
-7.73
-3.25
1.18
5.31
9.02
12.33
15.27
17.83
19.85
21.18
21.75
21.65
21.16
20.58
20.16
19.91
19.72
19.34
18.62
17.56
16.32
15.10
14.05
13.21
12.43
11.51
10.26
8.59
6.58
4.44
2.37
0.54
-1.02
-2.43
-3.86
-5.47
-7.38
-9.58
-12.03
-14.66
-17.35
-19.90
-22.05
-23.49
-23.94
-23.30
-21.59
-19.03
-15.92
-12.54
-9.11
-5.76
-2.51
0.67
3.80
6.81
9.51
11.67
13.10
13.77
13.84
13.58
13.27
13.09
13.04
13.00
12.82
12.43
11.82
11.12
10.42
9.73
8.99
8.06
6.84
5.28
3.45
1.52
-0.31
-1.88
-3.18
-4.28
-5.36
-6.59
-8.10
-9.93
-12.13
-14.64
-17.37
-20.11
-22.53
-24.20
-24.74
-23.88
-21.62
-18.19
-14.04
-9.70
-5.63
-2.07
0.92
3.44
5.62
7.51
9.05
10.15
10.72
10.83
10.66
10.46
10.42
10.59
10.87
11.10
11.13
10.95
10.60
10.15
9.65
9.05
8.35
7.58
6.84
6.26
5.90
5.72
5.58
5.28
4.65
3.62
2.24
0.59
-1.13
-2.71
-3.85
-4.29
-3.98
-3.17
-2.44
-2.49
-3.84
-6.51
-9.99
-13.46
-16.09
-17.35
-17.07
-15.33
-12.37
-8.47
-4.06
0.28
3.86
6.07
6.67
5.87
4.22
2.34
0.61
-0.95
-2.51
-4.23
-5.98
-7.36
-7.82
-6.98
-4.82
-1.71
1.70
4.74
6.96
8.13
8.27
7.41
5.57
2.71
-1.08
-5.58
-10.38
-14.94
-18.71
-21.26
-22.32
-21.80
-19.81
-16.62
-12.69
-8.55
-4.69
-1.42
1.20
3.29
5.08
6.74
8.26
9.60
10.68
11.55
12.35
13.21
14.13
14.94
15.33
15.01
13.90
12.17
10.21
8.42
7.08
6.23
5.65
5.02
4.02
2.48
0.48
-1.72
-3.79
-5.45
-6.63
-7.54
-8.59
-10.20
-12.60
-15.69
-19.01
-21.87
-23.62
-23.86
-22.59
-20.16
-17.14
-14.06
-11.25
-8.75
-6.42
-4.01
-1.36
1.48
4.27
6.63
8.19
8.72
8.26
7.13
5.82
4.83
4.49
4.77
5.34
5.69
5.33
4.08
2.09
-0.07
-1.64
-1.84
-0.06
4.00
10.10
17.47
24.87
30.81
34.07
34.17
31.68
28.00
24.85
23.44
23.93
25.42
26.44
25.64
22.32
16.45
8.45
-1.17
-11.83
-22.73
-32.69
-40.18
-43.84
-43.03
-38.28
-31.17
-23.79
-17.95
-14.61
-13.77
-14.68
-16.40
-18.14
-19.40
-19.87
-19.30
-17.44
-14.14
-9.56
-4.33
0.59
4.12
5.56
4.82
2.54
-0.11
-1.74
-1.26
1.85
7.36
14.36
21.54
27.54
31.29
32.25
30.40
26.19
20.36
13.83
7.55
2.39
-1.00
-2.35
-1.86
-0.20
1.78
3.33
4.03
3.98
3.57
3.32
3.52
4.20
5.07
5.76
5.97
5.63
4.91
4.11
3.53
3.36
3.59
4.05
4.50
4.75
4.72
4.48
4.20
4.03
3.97
3.85
3.38
2.27
0.41
-2.05
-4.73
-7.18
-9.02
-10.14
-10.68
-11.01
-11.62
-12.95
-15.28
-18.56
-22.39
-25.96
-28.30
-28.54
-26.20
-21.50
-15.22
-8.49
-2.35
2.59
6.27
8.92
10.90
12.31
13.09
13.06
12.24
10.86
9.35
8.07
7.16
6.43
5.56
4.31
2.68
0.93
-0.57
-1.58
-2.07
-2.28
-2.52
-3.05
-3.94
-5.10
-6.32
-7.41
-8.28
-8.94
-9.52
-10.22
-11.26
-12.77
-14.73
-16.93
-18.97
-20.38
-20.71
-19.76
-17.56
-14.36
-10.53
-6.46
-2.46
1.24
4.47
7.12
9.15
10.59
11.59
12.29
12.88
13.47
14.08
14.66
15.07
15.21
15.01
14.46
13.63
12.65
11.62
10.62
9.62
8.55
7.31
5.87
4.29
2.67
1.10
-0.44
-2.02
-3.76
-5.73
-7.92
-10.26
-12.64
-14.98
-17.14
-18.98
-20.28
-20.81
-20.41
-19.07
-16.91
-14.18
-11.14
-7.98
-4.80
-1.66
1.41
4.33
6.99
9.25
10.99
12.15
12.77
13.02
13.09
13.18
13.36
13.62
13.81
13.77
13.39
12.68
11.72
10.65
9.56
8.48
7.34
6.05
4.55
2.86
1.09
-0.60
-2.11
-3.41
-4.61
-5.88
-7.35
-9.13
-11.24
-13.64
-16.26
-18.91
-21.28
-22.98
-23.59
-22.86
-20.81
-17.69
-13.99
-10.17
-6.57
-3.34
-0.42
2.30
4.93
7.46
9.79
11.72
13.10
13.89
14.18
14.22
14.25
14.43
14.80
15.20
15.46
15.41
15.03
14.38
13.60
12.76
11.89
10.91
9.76
8.44
7.00
5.58
4.24
2.95
1.61
0.06
-1.75
-3.73
-5.71
-7.53
-9.13
-10.63
-12.25
-14.21
-16.60
-19.30
-22.02
-24.36
-25.85
-26.16
-25.08
-22.67
-19.18
-15.04
-10.74
-6.66
-3.01
0.15
2.92
5.41
7.64
9.61
11.25
12.58
13.66
14.61
15.52
16.37
17.04
17.34
17.18
16.63
15.91
15.26
14.86
14.66
14.47
14.01
13.13
11.87
10.40
8.95
7.63
6.36
4.98
3.34
1.42
-0.63
-2.58
-4.28
-5.69
-6.95
-8.25
-9.77
-11.62
-13.81
-16.28
-18.89
-21.38
-23.31
-24.25
-23.84
-21.97
-18.87
-14.98
-10.84
-6.82
-3.10
0.30
3.43
6.27
8.70
10.55
11.75
12.31
12.44
12.36
12.30
12.36
12.49
12.59
12.54
12.35
12.09
11.87
11.66
11.34
10.68
9.49
7.69
5.36
2.69
-0.08
-2.72
-5.07
-7.01
-8.48
-9.49
-10.18
-10.79
-11.60
-12.83
-14.61
-16.83
-19.20
-21.31
-22.70
-22.99
-21.99
-19.76
-16.57
-12.84
-9.00
-5.37
-2.14
0.65
3.08
5.24
7.19
8.95
10.45
11.58
12.29
12.60
12.62
12.51
12.39
12.30
12.17
11.90
11.42
10.77
10.01
9.18
8.24
7.07
5.57
3.69
1.54
-0.70
-2.86
-4.86
-6.73
-8.60
-10.64
-12.90
-15.37
-17.92
-20.35
-22.42
-23.86
-24.45
-24.01
-22.50
-20.02
-16.77
-13.04
-9.13
-5.30
-1.71
1.55
4.43
6.93
9.02
10.69
11.96
12.87
13.49
13.94
14.31
14.69
15.11
15.51
15.77
15.75
15.38
14.69
13.75
12.68
11.54
10.35
9.07
7.67
6.16
4.60
3.05
1.54
0.06
-1.39
-2.81
-4.18
-5.50
-6.83
-8.31
-10.09
-12.26
-14.76
-17.34
-19.59
-21.05
-21.33
-20.21
-17.74
-14.18
-9.98
-5.57
-1.29
2.69
6.35
9.73
12.87
15.74
18.20
20.14
21.45
22.14
22.36
22.27
22.03
21.67
21.12
20.22
18.86
17.03
14.83
12.48
10.17
8.01
5.99
3.99
1.87
-0.47
-3.01
-5.67
-8.28
-10.69
-12.73
-14.34
-15.51
-16.31
-16.85
-17.30
-17.85
-18.70
-19.98
-21.64
-23.37
-24.73
-25.20
-24.47
-22.52
-19.61
-16.21
-12.74
-9.50
-6.56
-3.88
-1.38
0.95
3.07
4.90
6.41
7.63
8.63
9.50
10.26
10.86
11.25
11.36
11.19
10.84
10.45
10.15
10.03
10.03
9.96
9.60
8.73
7.29
5.37
3.23
1.19
-0.48
-1.71
-2.57
-3.36
-4.37
-5.83
-7.84
-10.32
-13.07
-15.78
-18.08
-19.57
-19.92
-18.95
-16.73
-13.57
-9.91
-6.18
-2.65
0.57
3.50
6.14
8.43
10.27
11.56
12.28
12.52
12.49
12.41
12.47
12.75
13.20
13.66
13.94
13.90
13.53
12.95
12.33
11.78
11.25
10.58
9.53
7.96
5.90
3.57
1.30
-0.62
-2.02
-2.98
-3.77
-4.72
-6.13
-8.15
-10.75
-13.76
-16.91
-19.86
-22.30
-23.89
-24.39
-23.66
-21.74
-18.85
-15.39
-11.76
-8.29
-5.15
-2.32
0.31
2.83
5.25
7.42
9.17
10.34
10.89
10.99
10.88
10.78
10.80
10.91
10.99
10.97
10.84
10.65
10.42
10.05
9.37
8.21
6.53
4.48
2.33
0.35
-1.35
-2.83
-4.31
-5.94
-7.81
-9.88
-12.07
-14.35
-16.69
-19.04
-21.17
-22.73
-23.29
-22.58
-20.64
-17.80
-14.58
-11.43
-8.52
-5.79
-2.98
0.14
3.58
7.13
10.41
13.09
14.98
16.14
16.80
17.28
17.83
18.48
19.15
19.63
19.76
19.45
18.75
17.78
16.64
15.38
13.95
12.26
10.27
8.01
5.62
3.26
1.08
-0.90
-2.76
-4.65
-6.73
-9.06
-11.59
-14.27
-17.02
-19.77
-22.38
-24.53
-25.79
-25.74
-24.22
-21.37
-17.70
-13.82
-10.20
-7.01
-4.12
-1.26
1.73
4.80
7.69
10.07
11.71
12.53
12.70
12.47
12.14
11.90
11.84
11.88
11.87
11.71
11.32
10.76
10.10
9.36
8.50
7.40
5.95
4.16
2.14
0.09
-1.84
-3.61
-5.29
-6.98
-8.72
-10.47
-12.15
-13.76
-15.46
-17.45
-19.89
-22.66
-25.37
-27.36
-28.02
-26.97
-24.32
-20.62
-16.66
-13.15
-10.48
-8.63
-7.25
-5.91
-4.28
-2.32
-0.26
1.56
2.83
3.43
3.46
3.23
3.04
3.08
3.39
3.80
4.04
3.83
2.92
1.16
-1.50
-4.83
-8.18
-10.56
-10.74
-7.71
-1.09
8.58
19.91
31.11
40.54
47.15
50.69
51.44
49.95
46.72
42.18
36.76
31.07
25.91
22.11
20.23
20.45
22.49
25.75
29.56
33.39
36.93
39.98
42.29
43.47
43.08
40.72
36.24
29.84
22.02
13.50
4.97
-2.99
-10.05
-16.13
-21.40
-26.15
-30.73
-35.30
-39.70
-43.34
-45.38
-45.06
-42.01
-36.57
-29.65
-22.46
-16.07
-11.11
-7.68
-5.51
-4.25
-3.68
-3.72
-4.34
-5.47
-6.99
-8.73
-10.65
-12.74
-15.05
-17.43
-19.57
-20.91
-20.96
-19.42
-16.39
-12.29
-7.76
-3.44
0.25
3.13
5.24
6.73
7.77
8.51
9.07
9.56
10.06
10.59
11.08
11.36
11.24
10.54
9.25
7.45
5.37
3.24
1.23
-0.63
-2.38
-4.11
-5.86
-7.65
-9.48
-11.36
-13.37
-15.52
-17.83
-20.21
-22.58
-24.88
-27.11
-29.26
-31.26
-32.86
-33.69
-33.34
-31.58
-28.42
-24.19
-19.39
-14.54
-10.03
-6.05
-2.60
0.38
2.96
5.16
6.96
8.39
9.54
10.53
11.52
12.58
13.66
14.64
15.36
15.68
15.54
14.91
13.86
12.45
10.79
8.98
7.13
5.35
3.73
2.32
1.13
0.05
-1.06
-2.40
-4.12
-6.27
-8.73
-11.21
-13.27
-14.46
-14.44
-13.07
-10.47
-7.01
-3.19
0.52
3.76
6.46
8.72
10.78
12.80
14.80
16.63
18.07
18.94
19.22
19.06
18.73
18.43
18.26
18.14
17.98
17.69
17.28
16.87
16.54
16.25
15.83
15.03
13.62
11.54
8.94
6.14
3.53
1.42
-0.14
-1.38
-2.81
-4.94
-8.09
-12.06
-16.17
-19.39
-20.64
-19.18
-14.72
-7.43
2.09
12.95
24.05
34.13
41.97
46.64
47.86
46.09
42.37
37.90
33.58
29.74
26.19
22.61
18.99
15.83
14.01
14.43
17.54
23.01
29.74
36.04
40.17
40.88
37.86
31.83
24.34
17.01
10.90
6.31
3.02
0.98
0.49
1.86
4.59
6.69
5.05
-2.97
-17.69
-36.28
-53.78
-65.49
-69.43
-66.90
-61.23
-55.32
-49.82
-43.17
-33.21
-19.23
-2.86
12.74
24.65
31.68
34.80
36.29
38.37
42.21
47.77
54.11
59.94
63.93
64.80
61.56
53.73
41.50
25.88
8.56
-8.48
-23.34
-34.64
-41.78
-45.01
-45.31
-44.07
-42.80
-42.67
-44.36
-47.97
-53.09
-58.96
-64.65
-69.20
-71.71
-71.54
-68.56
-63.35
-57.06
-51.05
-46.29
-42.83
-39.76
-35.81
-30.15
-22.97
-15.54
-9.41
-5.58
-3.91
-3.23
-2.15
0.13
3.38
6.58
8.62
8.90
7.62
5.46
3.13
0.92
-1.43
-4.52
-8.87
-14.62
-21.38
-28.17
-33.63
-36.35
-35.18
-29.57
-19.77
-6.76
8.07
23.25
37.75
51.08
63.32
74.80
85.75
95.96
104.71
110.95
113.54
111.57
104.62
92.89
77.23
59.06
40.16
22.30
6.91
-5.22
-14.00
-19.93
-23.76
-26.18
-27.67
-28.47
-28.75
-28.73
-28.70
-28.87
-29.24
-29.52
-29.30
-28.26
-26.42
-24.19
-22.18
-20.94
-20.62
-20.97
-21.43
-21.52
-21.09
-20.40
-19.97
-20.24
-21.24
-22.52
-23.31
-22.90
-20.94
-17.69
-13.84
-10.29
-7.76
-6.49
-6.29
-6.63
-6.93
-6.74
-5.94
-4.69
-3.38
-2.46
-2.43
-3.72
-6.56
-10.75
-15.52
-19.52
-21.23
-19.60
-14.70
-7.85
-1.20
3.15
4.06
1.77
-2.36
-6.64
-9.82
-11.53
-12.29
-13.04
-14.77
-18.23
-23.92
-32.15
-42.96
-55.79
-69.06
-80.15
-85.92
-83.73
-72.31
-52.25
-25.91
3.13
30.86
53.68
69.27
77.16
78.88
77.46
76.34
77.89
82.50
88.46
93.03
93.98
90.74
84.50
77.23
70.44
64.34
58.09
50.46
40.79
29.33
17.21
6.03
-2.65
-7.79
-9.06
-6.92
-2.50
2.75
7.41
10.59
12.03
12.09
11.36
10.40
9.51
8.71
7.99
7.38
6.99
6.90
6.94
6.70
5.66
3.52
0.41
-3.07
-6.09
-7.93
-8.30
-7.43
-5.90
-4.38
-3.38
-3.10
-3.49
-4.35
-5.48
-6.71
-8.00
-9.36
-10.96
-13.01
-15.73
-19.18
-23.10
-26.92
-29.79
-30.91
-29.77
-26.40
-21.34
-15.47
-9.75
-4.98
-1.68
-0.11
-0.25
-1.89
-4.64
-7.91
-11.10
-13.70
-15.46
-16.46
-17.08
-17.76
-18.86
-20.55
-22.79
-25.40
-28.19
-30.98
-33.63
-36.06
-38.33
-40.70
-43.47
-46.87
-50.70
-54.16
-56.03
-54.97
-50.14
-41.58
-30.28
-17.84
-5.92
4.26
12.14
17.69
21.24
23.18
23.99
24.31
24.94
26.76
30.26
35.26
40.86
45.72
48.65
49.00
46.81
42.52
36.64
29.51
21.39
12.72
4.43
-2.12
-5.51
-4.73
0.23
8.32
17.72
26.44
32.99
36.81
38.26
38.13
37.09
35.17
31.83
26.44
18.84
9.70
0.24
-8.45
-15.94
-22.74
-29.88
-38.31
-48.31
-59.38
-70.50
-80.64
-89.14
-95.81
-100.70
-103.83
-105.05
-104.00
-100.40
-94.22
-85.89
-76.28
-66.57
-57.90
-51.11
-46.45
-43.66
-42.15
-41.33
-40.81
-40.45
-40.25
-40.14
-39.87
-38.96
-36.81
-32.74
-26.13
-16.55
-3.96
11.17
27.76
44.35
59.50
72.10
81.74
88.58
93.09
95.68
96.54
95.68
93.11
89.02
83.83
78.04
72.14
66.42
61.02
55.95
51.22
46.78
42.53
38.25
33.65
28.50
22.78
16.75
10.90
5.83
1.97
-0.52
-1.75
-2.04
-1.61
-0.49
1.53
4.67
9.01
14.22
19.66
24.51
28.10
30.06
30.33
29.08
26.51
22.72
17.81
11.96
5.54
-1.00
-7.27
-13.11
-18.60
-23.90
-29.05
-33.97
-38.38
-42.06
-44.88
-46.86
-48.08
-48.56
-48.31
-47.38
-46.00
-44.52
-43.20
-41.99
-40.36
-37.46
-32.46
-24.97
-15.25
-4.14
7.32
18.27
28.30
37.35
45.52
52.72
58.68
62.99
65.41
66.00
65.16
63.54
61.76
60.29
59.37
59.02
59.09
59.31
59.33
58.80
57.39
54.95
51.53
47.36
42.71
37.77
32.61
27.17
21.35
15.06
8.29
1.09
-6.44
-14.23
-22.19
-30.19
-38.04
-45.46
-52.16
-57.82
-62.19
-65.05
-66.26
-65.78
-63.73
-60.40
-56.16
-51.44
-46.58
-41.80
-37.20
-32.85
-28.82
-25.21
-22.21
-19.92
-18.36
-17.34
-16.55
-15.62
-14.27
-12.45
-10.36
-8.33
-6.68
-5.57
-4.95
-4.58
-4.22
-3.74
-3.14
-2.58
-2.24
-2.24
-2.56
-3.10
-3.70
-4.20
-4.54
-4.76
-5.00
-5.37
-5.97
-6.79
-7.71
-8.57
-9.21
-9.51
-9.42
-8.97
-8.20
-7.19
-6.05
-4.89
-3.78
-2.78
-1.88
-1.03
-0.20
0.60
1.33
1.92
2.28
2.38
2.25
1.96
1.65
1.39
1.23
1.11
0.91
0.51
-0.14
-1.03
-2.02
-2.96
-3.74
-4.32
-4.73
-5.13
-5.62
-6.30
-7.13
-8.01
-8.79
-9.36
-9.72
-9.93
-10.15
-10.45
-10.88
-11.36
-11.73
-11.84
-11.58
-10.93
-9.94
-8.72
-7.44
-6.20
-5.07
-4.04
-3.10
-2.21
-1.39
-0.69
-0.15
0.24
0.54
0.85
1.28
1.92
2.78
3.82
4.94
6.02
6.94
7.59
7.97
8.07
7.87
7.34
6.42
5.03
3.21
1.06
-1.19
-3.27
-4.96
-6.17
-6.95
-7.49
-8.04
-8.76
-9.76
-10.95
-12.20
-13.35
-14.24
-14.79
-14.92
-14.60
-13.77
-12.46
-10.75
-8.76
-6.68
-4.63
-2.66
-0.78
1.03
2.80
4.51
6.06
7.43
8.55
9.46
10.25
11.01
11.82
12.71
13.62
14.45
15.16
15.70
16.11
16.41
16.56
16.53
16.28
15.81
15.17
14.45
13.70
12.94
12.13
11.23
10.20
9.04
7.76
6.38
4.89
3.25
1.45
-0.54
-2.69
-4.95
-7.18
-9.22
-10.86
-11.89
-12.16
-11.60
-10.22
-8.21
-5.80
-3.27
-0.83
1.41
3.48
5.47
7.43
9.35
11.09
12.50
13.46
13.99
14.18
14.20
14.18
14.16
14.10
13.95
13.67
13.26
12.74
12.15
11.56
10.99
10.44
9.89
9.29
8.59
7.74
6.74
5.59
4.32
2.93
1.45
-0.07
-1.57
-2.98
-4.31
-5.67
-7.19
-9.00
-11.10
-13.28
-15.23
-16.57
-17.06
-16.58
-15.22
-13.15
-10.59
-7.77
-4.95
-2.34
-0.06
1.91
3.71
5.44
7.12
8.63
9.76
10.39
10.58
10.58
10.68
11.04
11.61
12.17
12.46
12.39
12.03
11.56
11.14
10.82
10.51
10.06
9.33
8.25
6.88
5.32
3.76
2.36
1.26
0.47
-0.16
-0.86
-1.95
-3.65
-6.04
-8.96
-12.06
-14.87
-16.92
-17.86
-17.56
-16.11
-13.79
-10.96
-7.97
-5.11
-2.53
-0.28
1.68
3.41
4.97
6.35
7.51
8.43
9.11
9.61
10.03
10.42
10.83
11.15
11.29
11.14
10.71
10.09
9.41
8.73
8.01
7.14
6.00
4.55
2.88
1.12
-0.54
-2.02
-3.34
-4.62
-6.01
-7.66
-9.60
-11.78
-14.08
-16.29
-18.21
-19.58
-20.15
-19.71
-18.19
-15.69
-12.53
-9.14
-5.91
-3.08
-0.63
1.59
3.77
5.93
7.91
9.44
10.34
10.64
10.59
10.59
10.96
11.78
12.89
13.91
14.51
14.51
13.98
13.17
12.34
11.64
11.09
10.55
9.89
9.00
7.87
6.55
5.12
3.61
2.05
0.45
-1.17
-2.81
-4.49
-6.29
-8.36
-10.76
-13.47
-16.26
-18.74
-20.40
-20.85
-19.87
-17.58
-14.33
-10.60
-6.84
-3.38
-0.33
2.35
4.75
6.97
9.04
10.89
12.44
13.59
14.35
14.81
15.13
15.45
15.87
16.37
16.87
17.30
17.60
17.79
17.83
17.73
17.43
16.90
16.13
15.17
14.09
12.95
11.72
10.37
8.82
7.03
5.00
2.79
0.51
-1.74
-3.91
-6.01
-8.13
-10.40
-12.95
-15.79
-18.79
-21.64
-23.94
-25.33
-25.55
-24.58
-22.61
-19.95
-16.98
-13.99
-11.16
-8.52
-6.01
-3.52
-1.05
1.33
3.49
5.28
6.61
7.51
8.06
8.40
8.61
8.70
8.64
8.41
8.02
7.51
6.96
6.35
5.65
4.80
3.76
2.52
1.19
-0.09
-1.21
-2.13
-2.93
-3.78
-4.92
-6.55
-8.70
-11.26
-13.86
-16.05
-17.32
-17.31
-15.93
-13.37
-10.08
-6.58
-3.30
-0.46
1.92
3.98
5.84
7.58
9.18
10.58
11.75
12.74
13.61
14.45
15.26
15.96
16.47
16.69
16.62
16.29
15.78
15.13
14.33
13.33
12.02
10.30
8.14
5.58
2.78
-0.01
-2.53
-4.62
-6.25
-7.63
-9.06
-10.89
-13.29
-16.23
-19.43
-22.47
-24.90
-26.35
-26.60
-25.54
-23.28
-20.01
-16.08
-11.90
-7.83
-4.17
-1.04
1.56
3.71
5.47
6.86
7.86
8.47
8.79
8.98
9.21
9.61
10.12
10.61
10.85
10.71
10.14
9.25
8.18
7.06
5.89
4.58
3.00
1.08
-1.15
-3.57
-6.01
-8.38
-10.65
-12.87
-15.06
-17.23
-19.25
-21.03
-22.46
-23.48
-24.07
-24.15
-23.57
-22.09
-19.53
-15.82
-11.17
-6.00
-0.88
3.68
7.39
10.26
12.54
14.51
16.35
18.05
19.54
20.72
21.66
22.54
23.48
24.46
25.23
25.45
24.80
23.28
21.12
18.76
16.58
14.72
13.04
11.23
9.00
6.27
3.22
0.22
-2.37
-4.41
-5.98
-7.39
-8.98
-10.97
-13.41
-16.09
-18.73
-20.95
-22.43
-22.90
-22.17
-20.23
-17.25
-13.57
-9.65
-5.91
-2.62
0.18
2.60
4.79
6.78
8.50
9.78
10.51
10.75
10.71
10.68
10.89
11.38
11.97
12.43
12.52
12.16
11.42
10.47
9.49
8.57
7.72
6.82
5.76
4.42
2.79
0.96
-0.92
-2.75
-4.50
-6.26
-8.25
-10.65
-13.53
-16.74
-19.97
-22.73
-24.60
-25.27
-24.64
-22.79
-19.95
-16.47
-12.71
-8.99
-5.57
-2.54
0.14
2.60
4.97
7.32
9.58
11.55
13.04
13.92
14.24
14.19
14.05
14.04
14.21
14.44
14.49
14.14
13.33
12.18
10.94
9.81
8.90
8.12
7.29
6.25
4.97
3.51
1.97
0.40
-1.25
-3.07
-5.12
-7.40
-9.86
-12.43
-15.07
-17.71
-20.17
-22.19
-23.41
-23.55
-22.46
-20.23
-17.15
-13.57
-9.79
-6.02
-2.35
1.18
4.47
7.38
9.73
11.43
12.50
13.11
13.57
14.11
14.86
15.72
16.48
16.90
16.89
16.51
15.92
15.31
14.72
14.12
13.39
12.47
11.34
10.05
8.64
7.14
5.58
3.97
2.37
0.78
-0.78
-2.38
-4.10
-6.04
-8.28
-10.85
-13.72
-16.79
-19.81
-22.41
-24.13
-24.58
-23.50
-20.96
-17.31
-13.09
-8.83
-4.96
-1.64
1.15
3.61
5.90
8.08
10.08
11.75
12.98
13.72
14.05
14.12
14.10
14.10
14.18
14.27
14.30
14.16
13.78
13.15
12.28
11.26
10.15
9.01
7.84
6.57
5.18
3.64
1.98
0.25
-1.51
-3.29
-5.08
-6.89
-8.73
-10.65
-12.71
-15.01
-17.57
-20.27
-22.77
-24.61
-25.33
-24.64
-22.51
-19.21
-15.17
-10.88
-6.73
-2.96
0.34
3.17
5.59
7.65
9.42
10.92
12.17
13.18
13.97
14.60
15.10
15.45
15.63
15.54
15.10
14.29
13.18
11.89
10.61
9.45
8.47
7.61
6.78
5.87
4.83
3.66
2.36
0.92
-0.71
-2.57
-4.65
-6.91
-9.26
-11.69
-14.23
-16.92
-19.69
-22.26
-24.18
-24.95
-24.24
-22.07
-18.79
-14.96
-11.13
-7.63
-4.55
-1.74
0.95
3.58
6.08
8.29
10.06
11.36
12.27
12.90
13.38
13.76
14.02
14.17
14.22
14.24
14.29
14.37
14.40
14.26
13.81
12.99
11.88
10.58
9.25
7.98
6.79
5.63
4.44
3.16
1.82
0.44
-0.97
-2.43
-3.99
-5.75
-7.75
-10.02
-12.45
-14.88
-17.03
-18.58
-19.17
-18.52
-16.46
-13.04
-8.54
-3.42
1.86
6.89
11.50
15.75
19.82
23.90
28.04
32.15
36.00
39.40
42.18
44.28
45.60
46.02
45.36
43.55
40.67
37.00
32.96
28.97
25.26
21.87
18.65
15.42
12.04
8.49
4.84
1.21
-2.30
-5.62
-8.69
-11.48
-13.92
-15.99
-17.69
-19.11
-20.44
-21.90
-23.64
-25.74
-28.13
-30.61
-32.89
-34.63
-35.44
-35.00
-33.11
-29.86
-25.57
-20.75
-15.92
-11.40
-7.23
-3.23
0.77
4.81
8.65
11.92
14.24
15.45
15.70
15.34
14.87
14.65
14.88
15.57
16.64
18.03
19.71
21.61
23.53
25.05
25.61
24.66
21.84
17.09
10.64
2.90
-5.67
-14.62
-23.51
-31.88
-39.30
-45.43
-50.12
-53.48
-55.83
-57.55
-58.97
-60.29
-61.60
-62.88
-64.02
-64.78
-64.82
-63.75
-61.26
-57.33
-52.24
-46.51
-40.73
-35.35
-30.55
-26.28
-22.40
-18.80
-15.47
-12.50
-10.00
-7.99
-6.40
-5.08
-3.85
-2.60
-1.30
-0.05
0.98
1.62
1.80
1.56
1.06
0.46
-0.15
-0.84
-1.75
-3.05
-4.77
-6.74
-8.67
-10.26
-11.37
-12.09
-12.71
-13.60
-15.03
-17.06
-19.43
-21.64
-23.10
-23.30
-21.97
-19.15
-15.15
-10.42
-5.43
-0.51
4.24
8.90
13.71
18.88
24.49
30.40
36.22
41.42
45.52
48.24
49.61
49.99
49.81
49.45
49.08
48.64
47.95
46.85
45.32
43.44
41.29
38.90
36.20
33.12
29.65
25.96
22.29
18.92
15.97
13.43
11.17
8.98
6.78
4.50
