1508861275.00
64.000000
-0.00
-0.00
-0.00
-0.00
-0.00
-0.00
-0.00
-0.00
-0.00
-0.00
0.00
0.01
0.01
-0.00
-0.03
-0.05
-0.05
0.00
0.13
0.36
0.66
1.01
1.37
1.72
2.06
2.40
2.79
3.24
3.80
4.42
5.06
5.67
6.21
6.68
7.15
7.67
8.30
9.14
10.10
11.08
11.94
12.61
13.12
13.61
14.31
15.40
17.14
19.38
21.86
24.27
26.42
28.33
30.30
32.76
36.05
40.61
46.12
52.06
57.81
62.94
67.43
71.70
76.47
82.35
89.98
98.97
108.52
117.66
125.61
132.19
137.91
144.13
149.77
157.40
167.88
181.36
196.44
209.80
216.64
212.08
192.81
158.37
111.75
57.29
-0.53
-58.80
-116.65
-174.56
-233.11
-291.90
-349.47
-403.49
-452.31
-494.93
-531.03
-560.36
-582.36
-596.08
-600.45
-594.70
-578.14
-550.23
-510.06
-456.58
-389.42
-309.95
-221.84
-130.69
-42.74
36.91
105.13
161.04
205.23
238.75
262.53
277.38
284.37
285.02
281.28
274.89
266.98
257.91
247.45
235.21
221.13
205.67
189.76
174.44
160.53
148.31
137.49
127.36
117.16
106.40
95.01
83.36
72.05
61.62
52.43
44.53
37.77
31.86
26.48
21.44
16.66
12.27
8.29
4.79
1.75
-0.89
-3.19
-5.15
-6.72
-7.82
-8.44
-8.67
-8.70
-8.77
-9.10
-9.74
-10.60
-11.45
-12.00
-12.00
-11.36
-10.12
-8.47
-6.69
-5.03
-3.69
-2.77
-2.22
-1.98
-1.96
-2.09
-2.29
-2.49
-2.57
-2.46
-2.16
-1.71
-1.27
-0.96
-0.85
-0.92
-1.12
-1.37
-1.62
-1.85
-2.02
-2.10
-2.05
-1.87
-1.60
-1.31
-1.09
-0.97
-0.93
-0.93
-0.94
-0.95
-0.96
-0.99
-1.01
-0.96
-0.82
-0.60
-0.41
-0.39
-0.64
-1.16
-1.83
-2.44
-2.78
-2.81
-2.60
-2.34
-2.21
-2.20
-2.18
-1.93
-1.30
-0.31
0.82
1.79
2.35
2.48
2.30
2.09
2.09
2.46
3.18
4.10
5.05
5.83
6.26
6.24
5.79
4.92
3.74
2.41
1.09
-0.06
-0.93
-1.47
-1.69
-1.70
-1.63
-1.66
-1.86
-2.27
-2.77
-3.28
-3.70
-4.07
-4.50
-5.11
-5.94
-6.84
-7.52
-7.68
-7.09
-5.76
-3.92
-1.98
-0.36
0.63
0.93
0.68
0.16
-0.36
-0.74
-0.97
-1.15
-1.45
-1.95
-2.69
-3.60
-4.57
-5.50
-6.26
-6.82
-7.14
-7.21
-7.05
-6.70
-6.26
-5.88
-5.75
-6.00
-6.74
-7.89
-9.24
-10.49
-11.32
-11.50
-10.93
-9.69
-7.93
-5.85
-3.62
-1.40
0.66
2.48
4.09
5.59
7.07
8.58
10.13
11.70
13.25
14.80
16.35
17.85
19.14
20.00
20.23
19.72
18.54
16.89
15.02
13.15
11.33
9.53
7.64
5.59
3.35
1.04
-1.21
-3.19
-4.70
-5.58
-5.66
-4.91
-3.41
-1.42
0.62
2.27
3.22
3.38
2.95
2.24
1.53
0.86
0.03
-1.28
-3.37
-6.26
-9.71
-13.22
-16.22
-18.30
-19.28
-19.26
-18.48
-17.26
-15.83
-14.32
-12.83
-11.46
-10.41
-9.83
-9.78
-10.07
-10.31
-10.01
-8.78
-6.48
-3.31
0.35
4.05
7.45
10.41
12.93
15.09
16.90
18.30
19.20
19.52
19.27
18.58
17.63
16.64
15.77
15.07
14.56
14.17
13.76
13.16
12.21
10.77
8.85
6.59
4.28
2.20
0.58
-0.59
-1.48
-2.36
-3.46
-4.85
-6.45
-8.10
-9.62
-10.95
-12.08
-13.02
-13.79
-14.36
-14.71
-14.87
-14.89
-14.81
-14.61
-14.24
-13.63
-12.76
-11.71
-10.61
-9.60
-8.71
-7.87
-6.92
-5.66
-3.95
-1.77
0.76
3.40
5.87
7.89
9.24
9.92
10.11
10.17
10.54
11.56
13.36
15.79
18.54
21.23
23.52
25.19
26.15
26.30
25.62
24.09
21.71
18.55
14.72
10.38
5.75
1.15
-3.06
-6.49
-8.88
-10.13
-10.31
-9.69
-8.57
-7.28
-6.08
-5.17
-4.65
-4.55
-4.84
-5.47
-6.39
-7.57
-8.98
-10.51
-12.01
-13.24
-13.95
-14.03
-13.51
-12.60
-11.56
-10.58
-9.77
-9.10
-8.54
-8.02
-7.56
-7.19
-6.94
-6.80
-6.73
-6.64
-6.41
-5.99
-5.34
-4.54
-3.73
-3.09
-2.75
-2.74
-2.96
-3.31
-3.71
-4.19
-4.83
-5.67
-6.61
-7.40
-7.73
-7.36
-6.20
-4.32
-1.94
0.67
3.26
5.62
7.65
9.35
10.82
12.23
13.75
15.41
17.11
18.57
19.47
19.55
18.67
16.90
14.50
11.89
9.53
7.78
6.76
6.35
6.21
5.94
5.30
4.23
2.93
1.66
0.62
-0.17
-0.83
-1.54
-2.44
-3.65
-5.25
-7.38
-10.12
-13.36
-16.63
-19.14
-20.08
-18.90
-15.71
-11.23
-6.55
-2.71
-0.26
0.80
0.87
0.44
-0.17
-0.85
-1.63
-2.49
-3.32
-3.95
-4.25
-4.20
-3.83
-3.24
-2.49
-1.59
-0.56
0.61
1.87
3.14
4.28
5.13
5.56
5.51
5.05
4.43
4.00
4.09
4.86
6.24
7.92
9.49
10.63
11.17
11.18
10.88
10.48
10.17
9.96
9.79
9.55
9.14
8.57
7.88
7.19
6.57
6.08
5.70
5.36
4.95
4.40
3.61
2.58
1.30
-0.19
-1.82
-3.51
-5.17
-6.76
-8.26
-9.69
-11.09
-12.47
-13.75
-14.82
-15.55
-15.83
-15.68
-15.16
-14.40
-13.53
-12.69
-11.95
-11.28
-10.54
-9.41
-7.57
-4.81
-1.28
2.47
5.64
7.50
7.73
6.51
4.45
2.24
0.36
-1.04
-2.07
-2.85
-3.38
-3.60
-3.47
-3.13
-2.87
-2.93
-3.33
-3.71
-3.43
-1.89
1.18
5.44
10.01
13.78
15.76
15.55
13.40
10.15
6.89
4.58
3.81
4.67
6.78
9.47
11.97
13.58
13.83
12.58
9.99
6.49
2.62
-1.05
-4.08
-6.24
-7.56
-8.29
-8.84
-9.59
-10.80
-12.44
-14.28
-16.01
-17.40
-18.45
-19.33
-20.23
-21.20
-22.12
-22.72
-22.75
-22.04
-20.55
-18.35
-15.57
-12.37
-9.06
-6.10
-4.02
-3.34
-4.26
-6.49
-9.24
-11.41
-11.91
-10.05
-5.79
0.30
7.20
13.80
19.19
22.92
24.88
25.28
24.44
22.65
20.18
17.26
14.17
11.18
8.61
6.73
5.70
5.55
6.16
7.27
8.62
9.94
11.06
11.87
12.34
12.48
12.30
11.85
11.23
10.64
10.31
10.49
11.30
12.63
14.13
15.20
15.19
13.65
10.51
6.11
1.08
-3.87
-8.21
-11.71
-14.42
-16.51
-18.12
-19.30
-20.00
-20.12
-19.63
-18.58
-17.04
-15.15
-13.03
-10.79
-8.52
-6.26
-4.06
-1.98
-0.09
1.49
2.67
3.43
3.85
4.10
4.42
4.97
5.76
6.64
7.37
7.69
7.47
6.76
5.69
4.44
3.16
1.86
0.54
-0.81
-2.13
-3.30
-4.17
-4.70
-4.89
-4.83
-4.57
-4.16
-3.57
-2.77
-1.78
-0.65
0.55
1.71
2.74
3.57
4.12
4.33
4.22
3.82
3.25
2.67
2.24
2.06
2.12
2.34
2.55
2.58
2.33
1.80
1.12
0.44
-0.11
-0.48
-0.74
-1.00
-1.37
-1.92
-2.64
-3.49
-4.39
-5.20
-5.79
-6.00
-5.74
-4.99
-3.85
-2.50
-1.17
-0.02
0.89
1.63
2.35
3.16
4.06
4.96
5.66
6.03
6.04
5.81
5.50
5.24
5.04
4.83
4.48
3.95
3.29
2.64
2.16
1.92
1.92
2.04
2.14
2.08
1.76
1.17
0.39
-0.47
-1.29
-2.05
-2.77
-3.56
-4.52
-5.63
-6.82
-7.91
-8.70
-9.08
-8.97
-8.42
-7.52
-6.35
-5.03
-3.64
-2.27
-1.00
0.12
1.06
1.78
2.27
2.58
2.74
2.81
2.81
2.78
2.70
2.56
2.37
2.15
1.91
1.69
1.46
1.22
0.96
0.70
0.47
0.32
0.23
0.15
-0.01
-0.34
-0.88
-1.54
-2.17
-2.57
-2.54
-1.99
-0.89
0.65
2.47
4.34
6.02
7.28
7.99
8.10
7.72
7.03
6.27
5.57
4.94
4.27
3.39
2.25
0.89
-0.49
-1.64
-2.40
-2.77
-2.89
-3.01
-3.35
-4.01
-5.00
-6.22
-7.55
-8.87
-10.13
-11.31
-12.53
-13.93
-15.74
-18.09
-20.98
-24.16
-27.18
-29.43
-30.32
-29.47
-26.76
-22.41
-16.89
-10.79
-4.68
0.89
5.53
9.02
11.31
12.54
13.01
13.09
13.09
13.16
13.26
13.25
12.96
12.34
11.44
10.41
9.40
8.55
7.91
7.49
7.23
6.99
6.59
5.82
4.52
2.66
0.41
-1.88
-3.78
-4.91
-5.10
-4.38
-3.04
-1.45
0.06
1.27
2.16
2.79
3.27
3.62
3.81
3.82
3.68
3.48
3.39
3.55
3.98
4.61
5.27
5.81
6.10
6.05
5.67
4.96
3.99
2.86
1.74
0.76
-0.00
-0.60
-1.18
-1.91
-2.89
-4.03
-5.10
-5.77
-5.76
-4.97
-3.54
-1.82
-0.21
0.96
1.58
1.72
1.65
1.66
1.96
2.58
3.39
4.20
4.80
5.08
4.99
4.57
3.88
2.97
1.90
0.68
-0.64
-2.04
-3.44
-4.74
-5.83
-6.65
-7.23
-7.69
-8.14
-8.68
-9.30
-9.93
-10.47
-10.92
-11.31
-11.75
-12.24
-12.66
-12.71
-12.07
-10.51
-8.06
-5.00
-1.75
1.25
3.75
5.71
7.24
8.55
9.79
11.01
12.19
13.26
14.11
14.67
14.83
14.52
13.69
12.38
10.73
8.96
7.32
6.01
5.10
4.51
4.04
3.45
2.54
1.27
-0.27
-1.87
-3.31
-4.42
-5.21
-5.81
-6.41
-7.17
-8.08
-8.96
-9.51
-9.42
-8.53
-6.89
-4.76
-2.48
-0.38
1.37
2.79
3.99
5.12
6.19
7.15
7.87
8.32
8.51
8.56
8.62
8.74
8.86
8.88
8.66
8.14
7.33
6.34
5.25
4.16
3.13
2.18
1.29
0.37
-0.69
-2.00
-3.63
-5.49
-7.36
-8.93
-9.84
-9.89
-9.06
-7.60
-5.86
-4.22
-2.93
-2.03
-1.45
-1.01
-0.56
-0.05
0.52
1.11
1.64
2.03
2.22
2.16
1.88
1.47
1.03
0.69
0.50
0.42
0.35
0.13
-0.42
-1.40
-2.83
-4.62
-6.57
-8.41
-9.85
-10.67
-10.79
-10.31
-9.45
-8.55
-7.91
-7.74
-8.06
-8.70
-9.36
-9.69
-9.41
-8.35
-6.48
-3.86
-0.64
2.94
6.57
9.91
12.68
14.78
16.34
17.63
18.98
20.59
22.46
24.44
26.23
27.48
27.80
26.87
24.52
20.82
16.20
11.33
6.93
3.54
1.30
0.01
-0.73
-1.28
-1.76
-2.10
-2.21
-2.14
-2.14
-2.55
-3.64
-5.38
-7.50
-9.52
-10.99
-11.64
-11.43
-10.50
-9.09
-7.43
-5.69
-3.98
-2.38
-0.92
0.41
1.62
2.72
3.70
4.51
5.13
5.54
5.73
5.75
5.65
5.46
5.20
4.88
4.51
4.10
3.67
3.26
2.90
2.64
2.53
2.58
2.76
3.00
3.16
3.10
2.74
2.10
1.29
0.48
-0.16
-0.47
-0.38
0.12
0.89
1.73
2.40
2.73
2.68
2.35
1.89
1.44
1.02
0.57
0.02
-0.65
-1.40
-2.09
-2.64
-3.06
-3.49
-4.11
-5.09
-6.45
-8.10
-9.88
-11.63
-13.26
-14.76
-16.14
-17.37
-18.41
-19.17
-19.60
-19.74
-19.72
-19.72
-19.92
-20.40
-21.19
-22.18
-23.23
-24.15
-24.67
-24.43
-23.09
-20.42
-16.48
-11.75
-6.96
-2.86
0.08
1.85
2.89
3.77
4.88
6.30
7.82
9.16
10.20
11.02
11.79
12.57
13.26
13.65
13.57
13.03
12.20
11.33
10.62
10.08
9.61
9.00
8.12
6.88
5.34
3.63
1.95
0.54
-0.35
-0.55
0.01
1.25
2.96
4.89
6.82
8.64
10.35
11.98
13.48
14.67
15.32
15.25
14.42
13.02
11.34
9.66
8.15
6.82
5.58
4.38
3.27
2.37
1.82
1.64
1.70
1.80
1.69
1.24
0.48
-0.48
-1.42
-2.10
-2.27
-1.72
-0.24
2.24
5.57
9.33
12.85
15.41
16.45
15.81
13.78
10.99
8.14
5.74
3.94
2.54
1.18
-0.46
-2.51
-4.87
-7.32
-9.60
-11.54
-13.08
-14.22
-15.00
-15.44
-15.56
-15.43
-15.20
-15.10
-15.39
-16.30
-17.88
-19.88
-21.80
-22.98
-22.82
-21.02
-17.73
-13.50
-9.09
-5.17
-2.08
0.19
1.89
3.37
4.83
6.37
7.98
9.68
11.51
13.51
15.59
17.52
18.95
19.57
19.20
17.90
15.98
13.89
12.01
10.56
9.51
8.71
7.93
7.06
6.08
5.09
4.20
3.44
2.79
2.14
1.39
0.50
-0.50
-1.53
-2.52
-3.43
-4.32
-5.29
-6.46
-7.88
-9.48
-11.16
-12.81
-14.42
-15.97
-17.47
-18.76
-19.57
-19.60
-18.64
-16.64
-13.80
-10.40
-6.74
-3.08
0.41
3.54
6.17
8.20
9.59
10.40
10.73
10.72
10.48
10.13
9.71
9.24
8.68
7.93
6.90
5.53
3.87
2.10
0.43
-0.92
-1.79
-2.12
-1.91
-1.32
-0.59
-0.07
-0.09
-0.83
-2.14
-3.56
-4.47
-4.34
-3.01
-0.72
1.91
4.26
5.87
6.60
6.60
6.14
5.48
4.75
3.98
3.16
2.29
1.38
0.48
-0.35
-1.07
-1.65
-2.09
-2.41
-2.63
-2.81
-2.93
-2.99
-2.95
-2.79
-2.60
-2.51
-2.69
-3.24
-4.14
-5.19
-6.10
-6.60
-6.58
-6.10
-5.35
-4.52
-3.72
-2.94
-2.08
-1.06
0.05
1.11
1.91
2.30
2.24
1.84
1.28
0.73
0.28
-0.09
-0.43
-0.82
-1.26
-1.66
-1.93
-2.02
-1.95
-1.83
-1.80
-1.96
-2.35
-2.91
-3.55
-4.17
-4.73
-5.22
-5.70
-6.23
-6.82
-7.47
-8.15
-8.80
-9.36
-9.78
-10.02
-10.01
-9.70
-9.10
-8.30
-7.44
-6.73
-6.33
-6.26
-6.42
-6.60
-6.63
-6.45
-6.11
-5.77
-5.59
-5.64
-5.90
-6.25
-6.58
-6.81
-6.91
-6.92
-6.88
-6.80
-6.69
-6.51
-6.24
-5.84
-5.33
-4.78
-4.36
-4.25
-4.63
-5.50
-6.68
-7.79
-8.33
-7.95
-6.55
-4.32
-1.68
0.90
3.14
4.98
6.56
8.11
9.94
12.31
15.45
19.43
24.03
28.64
32.34
34.25
33.93
31.60
28.12
24.55
21.68
19.75
18.51
17.46
16.27
14.90
13.54
12.37
11.39
10.39
9.10
7.41
5.41
3.37
1.55
0.05
-1.23
-2.61
-4.43
-6.92
-10.02
-13.36
-16.35
-18.39
-19.10
-18.50
-16.95
-14.93
-12.85
-10.81
-8.66
-6.17
-3.22
0.01
3.07
5.48
6.88
7.28
7.00
6.57
6.42
6.78
7.58
8.50
9.17
9.32
8.85
7.89
6.69
5.52
4.58
3.96
3.64
3.54
3.54
3.48
3.26
2.76
1.96
0.92
-0.22
-1.25
-1.94
-2.13
-1.75
-0.82
0.48
1.88
3.10
3.90
4.16
3.90
3.24
2.36
1.40
0.49
-0.35
-1.12
-1.82
-2.44
-2.97
-3.39
-3.73
-4.03
-4.33
-4.64
-4.90
-5.09
-5.23
-5.42
-5.80
-6.51
-7.60
-9.02
-10.63
-12.24
-13.71
-14.97
-16.01
-16.87
-17.68
-18.58
-19.73
-21.21
-22.99
-24.81
-26.29
-26.98
-26.51
-24.76
-21.85
-18.19
-14.25
-10.45
-7.05
-4.11
-1.57
0.65
2.51
3.90
4.69
4.86
4.54
4.00
3.56
3.48
3.93
4.95
6.56
8.64
10.95
13.14
14.73
15.35
14.89
13.57
11.94
10.67
10.33
11.20
13.24
16.15
19.52
22.99
26.22
28.91
30.68
31.16
30.09
27.54
23.94
19.99
16.39
13.54
11.38
9.47
7.33
4.70
1.73
-1.13
-3.43
-4.99
-5.98
-6.81
-7.84
-9.20
-10.76
-12.24
-13.33
-13.86
-13.80
-13.17
-12.08
-10.69
-9.20
-7.89
-7.02
-6.74
-7.04
-7.71
-8.40
-8.70
-8.26
-6.91
-4.73
-2.15
0.21
1.69
1.89
0.92
-0.65
-1.97
-2.30
-1.31
0.80
3.47
6.04
8.08
9.43
10.20
10.62
10.91
11.27
11.83
12.62
13.52
14.25
14.44
13.81
12.23
9.88
7.14
4.49
2.40
1.20
0.98
1.66
2.95
4.45
5.71
6.33
6.11
5.09
3.55
1.93
0.68
0.11
0.30
1.05
2.01
2.77
3.04
2.73
1.96
0.97
-0.01
-0.86
-1.58
-2.28
-3.10
-4.11
-5.30
-6.58
-7.78
-8.75
-9.35
-9.55
-9.39
-9.03
-8.68
-8.56
-8.78
-9.31
-9.95
-10.39
-10.36
-9.71
-8.50
-6.92
-5.25
-3.72
-2.43
-1.40
-0.55
0.18
0.88
1.55
2.19
2.71
2.98
2.83
2.13
0.85
-0.89
-2.86
-4.73
-6.23
-7.18
-7.55
-7.44
-7.00
-6.39
-5.72
-5.09
-4.53
-4.08
-3.70
-3.32
-2.84
-2.16
-1.23
-0.09
1.18
2.43
3.57
4.50
5.19
5.63
5.79
5.63
5.10
4.25
3.22
2.33
1.93
2.35
3.68
5.81
8.38
10.97
13.23
14.94
15.98
16.27
15.71
14.20
11.78
8.68
5.35
2.28
-0.15
-1.86
-3.03
-4.04
-5.17
-6.49
-7.84
-8.95
-9.59
-9.75
-9.59
-9.40
-9.38
-9.59
-9.92
-10.19
-10.23
-9.99
-9.52
-8.93
-8.33
-7.73
-7.12
-6.44
-5.64
-4.73
-3.79
-2.92
-2.22
-1.71
-1.37
-1.10
-0.81
-0.48
-0.12
0.18
0.36
0.38
0.28
0.13
0.03
-0.02
-0.04
-0.14
-0.44
-0.97
-1.71
-2.60
-3.49
-4.28
-4.83
-5.05
-4.86
-4.23
-3.22
-1.97
-0.67
0.49
1.38
1.99
2.39
2.68
2.94
3.18
3.37
3.48
3.49
3.44
3.37
3.31
3.26
3.20
3.08
2.88
2.62
2.39
2.25
2.25
2.36
2.50
2.52
2.27
1.67
0.70
-0.59
-2.09
-3.65
-5.10
-6.19
-6.71
-6.53
-5.70
-4.38
-2.81
-1.23
0.29
1.74
3.13
4.43
5.53
6.28
6.60
6.52
6.18
5.73
5.20
4.51
3.49
2.08
0.35
-1.36
-2.61
-3.01
-2.38
-0.84
1.24
3.31
4.89
5.58
5.17
3.54
0.71
-3.18
-7.80
-12.60
-16.91
-20.06
-21.66
-21.69
-20.58
-18.99
-17.63
-16.99
-17.20
-18.11
-19.35
-20.63
-21.79
-22.80
-23.77
-24.78
-25.91
-27.28
-29.07
-31.53
-34.74
-38.50
-42.13
-44.66
-45.16
-43.25
-39.31
-34.39
-29.84
-26.63
-25.03
-24.55
-24.26
-23.33
-21.40
-18.62
-15.35
-11.84
-7.97
-3.37
2.32
9.09
16.50
23.81
30.33
35.66
39.78
42.92
45.30
46.98
47.83
47.70
46.61
44.83
42.84
41.10
39.87
39.15
38.71
38.27
37.64
36.80
35.84
34.88
33.96
33.00
31.91
30.60
29.06
27.35
25.57
23.82
22.23
20.98
20.29
20.30
20.91
21.75
22.23
21.79
20.11
17.33
13.95
10.66
8.00
6.24
5.27
4.77
4.38
3.81
2.94
1.76
0.36
-1.11
-2.48
-3.60
-4.39
-4.83
-4.98
-4.91
-4.70
-4.41
-4.07
-3.74
-3.43
-3.08
-2.52
-1.63
-0.41
0.86
1.66
1.41
-0.26
-3.29
-7.11
-10.84
-13.64
-15.03
-15.09
-14.31
-13.36
-12.69
-12.45
-12.46
-12.45
-12.29
-12.05
-11.95
-12.18
-12.80
-13.61
-14.32
-14.67
-14.57
-14.11
-13.45
-12.73
-11.98
-11.14
-10.13
-8.97
-7.81
-6.92
-6.52
-6.70
-7.30
-8.08
-8.76
-9.21
-9.49
-9.76
-10.16
-10.69
-11.20
-11.46
-11.30
-10.61
-9.34
-7.50
-5.07
-2.11
1.17
4.46
7.35
9.46
10.55
10.64
10.01
9.17
8.65
8.85
9.85
11.40
13.03
14.27
14.82
14.69
14.12
13.40
12.67
11.83
10.63
8.85
6.48
3.74
1.10
-0.97
-2.13
-2.22
-1.33
0.33
2.49
4.88
7.32
9.62
11.59
12.96
13.47
12.88
11.10
8.25
4.77
1.26
-1.67
-3.58
-4.40
-4.41
-4.13
-4.12
-4.68
-5.83
-7.23
-8.38
-8.91
-8.70
-8.01
-7.34
-7.22
-7.94
-9.44
-11.35
-13.15
-14.39
-14.92
-14.87
-14.52
-14.17
-13.94
-13.70
-13.20
-12.12
-10.34
-7.93
-5.21
-2.56
-0.32
1.39
2.65
3.66
4.63
5.59
6.41
6.90
6.89
6.39
5.63
4.95
4.68
4.98
5.81
6.96
8.18
9.31
10.30
11.19
12.00
12.56
12.63
11.97
10.59
8.80
7.12
5.98
5.41
5.01
4.09
2.05
-1.30
-5.57
-9.90
-13.24
-14.75
-14.07
-11.49
-7.85
-4.27
-1.81
-1.06
-2.07
-4.30
-6.97
-9.29
-10.67
-10.70
-9.11
-5.79
-0.92
4.85
10.38
14.40
16.00
15.06
12.38
9.29
7.05
6.25
6.67
7.46
7.68
6.83
4.98
2.69
0.62
-0.77
-1.44
-1.60
-1.59
-1.60
-1.63
-1.53
-1.15
-0.42
0.56
1.59
2.42
2.88
2.92
2.63
2.23
1.97
2.01
2.33
2.75
2.99
2.83
2.24
1.36
0.41
-0.41
-1.09
-1.74
-2.51
-3.47
-4.53
-5.52
-6.34
-7.00
-7.68
-8.58
-9.80
-11.21
-12.48
-13.22
-13.09
-12.01
-10.10
-7.66
-5.07
-2.60
-0.41
1.47
3.13
4.71
6.31
7.91
9.43
10.66
11.41
11.54
11.04
10.05
8.80
7.55
6.53
5.89
5.64
5.68
5.84
5.92
5.79
5.37
4.64
3.62
2.35
0.87
-0.70
-2.25
-3.62
-4.73
-5.62
-6.37
-7.07
-7.74
-8.25
-8.41
-8.05
-7.12
-5.65
-3.73
-1.47
0.93
3.17
4.87
5.64
5.29
3.93
2.10
0.62
0.26
1.26
3.20
5.08
5.83
4.82
2.17
-1.15
-3.75
-4.54
-3.37
-1.14
0.67
0.78
-1.08
-4.03
-6.17
-5.32
-0.27
8.34
18.08
25.81
29.10
27.37
22.14
16.66
14.86
19.12
28.81
40.59
49.99
53.69
50.96
43.47
34.80
29.24
30.28
39.30
55.80
78.08
103.04
125.49
137.90
132.74
106.22
60.84
5.55
-46.35
-82.16
-95.17
-84.90
-60.85
-38.90
-28.59
-24.95
-14.44
12.39
52.89
92.84
114.36
105.48
67.34
13.15
-39.40
-77.22
-96.42
-101.11
-98.61
-94.20
-88.95
-80.14
-64.00
-39.92
-12.76
9.16
18.34
11.92
-6.81
-30.40
-50.24
-60.22
-59.11
-50.40
-39.90
-32.48
-30.12
-31.86
-35.24
-37.94
-38.45
-36.57
-33.27
-30.05
-27.98
-27.54
-28.53
-30.31
-32.15
-33.46
-34.22
-34.62
-34.95
-35.28
-35.37
-35.02
-34.65
-35.57
-39.31
-46.37
-54.77
-59.70
-55.27
-36.80
-3.43
40.81
88.46
130.21
157.59
165.63
154.05
127.14
91.86
55.09
21.98
-4.55
-22.92
-31.51
-28.97
-15.90
3.70
22.88
34.23
33.89
23.52
8.94
-3.44
-10.88
-15.60
-22.48
-34.67
-51.10
-66.62
-75.77
-76.88
-72.70
-68.94
-70.91
-80.76
-96.28
-111.89
-120.56
-115.67
-95.28
-62.06
-22.73
14.55
43.27
60.89
69.16
72.26
73.94
75.40
75.54
72.56
65.93
57.41
50.38
47.99
51.40
59.03
67.30
72.26
71.57
65.53
56.86
49.59
47.15
50.85
59.22
68.57
74.77
75.08
69.50
60.62
52.68
49.48
52.78
61.61
72.74
82.04
85.86
81.73
68.16
44.45
10.87
-30.54
-75.38
-117.29
-149.79
-169.10
-176.29
-177.08
-179.11
-187.81
-203.14
-219.44
-228.43
-223.93
-205.64
-179.26
-153.28
-133.83
-121.17
-109.89
-92.54
-65.02
-29.58
5.68
31.17
41.49
38.71
31.40
29.86
40.37
61.40
84.48
98.99
98.37
84.00
64.51
50.80
49.64
59.74
72.47
77.40
68.71
48.91
27.73
16.31
20.71
38.18
58.69
70.53
67.00
50.05
28.98
14.95
14.30
25.10
38.37
43.60
35.22
16.09
-4.23
-15.28
-11.97
2.15
17.02
22.18
13.22
-5.61
-23.83
-31.09
-23.27
-4.70
14.33
23.62
18.80
3.40
-13.40
-21.97
-17.67
-3.06
13.71
23.63
21.85
10.29
-3.72
-11.70
-8.89
2.89
16.41
23.26
18.85
5.25
-9.79
-17.52
-13.27
0.55
15.52
22.13
15.54
-1.43
-19.52
-28.16
-21.52
-2.06
20.61
34.94
33.89
18.75
-1.59
-15.74
-16.34
-4.10
12.64
23.10
20.35
5.52
-12.95
-24.47
-22.64
-9.11
7.40
16.45
12.34
-2.57
-19.19
-27.39
-22.12
-6.44
10.19
17.63
11.19
-5.44
-22.26
-28.89
-20.83
-2.33
15.82
22.62
13.48
-6.94
-27.14
-35.48
-26.85
-5.73
16.48
28.09
23.94
7.99
-9.26
-17.40
-12.34
1.67
14.84
18.05
8.61
-8.20
-22.27
-24.89
-14.04
4.25
19.45
22.68
11.96
-6.56
-22.22
-26.04
-15.86
2.66
19.21
24.82
17.01
1.03
-13.25
-17.33
-8.88
6.91
20.43
23.45
14.15
-1.92
-14.97
-16.97
-6.60
9.97
22.62
23.43
11.43
-6.68
-20.37
-21.62
-9.48
9.18
23.88
26.29
15.05
-3.53
-18.98
-22.65
-12.53
5.77
22.27
28.44
22.02
8.28
-3.30
-4.82
5.33
21.20
32.85
32.34
18.65
-1.55
-17.54
-20.75
-9.88
8.14
22.03
22.69
8.45
-13.96
-33.64
-42.03
-37.76
-26.95
-18.59
-18.46
-25.55
-33.13
-33.74
-24.71
-10.24
0.90
0.79
-12.53
-33.52
-51.33
-55.31
-39.95
-7.69
31.83
65.72
83.26
80.46
61.70
37.24
17.89
9.54
10.41
13.14
10.12
-1.18
-16.09
-25.92
-23.68
-9.39
9.26
21.31
19.15
3.34
-17.15
-30.16
-27.37
-9.25
14.73
31.42
31.38
14.27
-10.55
-29.44
-31.94
-16.96
6.73
25.64
29.60
17.58
-1.86
-16.07
-16.12
-1.98
17.54
30.61
29.74
16.10
-1.40
-12.07
-9.94
2.82
17.36
23.81
17.09
-0.27
-19.42
-30.25
-27.14
-11.91
6.93
18.97
17.78
4.29
-13.66
-26.02
-26.36
-15.56
-1.31
6.60
2.24
-12.82
-30.32
-40.12
-36.32
-20.55
-1.23
11.63
12.19
1.92
-11.29
-18.10
-13.22
1.47
18.02
27.10
23.59
9.53
-7.03
-16.54
-13.61
0.02
16.42
26.24
24.15
11.99
-2.50
-10.22
-6.31
6.80
20.86
26.63
19.57
2.63
-15.28
-24.51
-20.17
-5.10
11.78
20.68
16.65
2.43
-13.21
-20.71
-15.24
0.34
17.41
26.42
22.56
8.30
-8.13
-17.78
-16.09
-5.44
6.45
11.24
5.05
-9.21
-23.52
-29.59
-23.64
-8.81
6.70
14.39
10.46
-2.01
-14.94
-20.25
-14.57
-1.46
10.93
14.71
7.17
-7.54
-20.89
-25.23
-18.41
-5.20
5.64
6.64
-3.87
-20.43
-33.89
-36.65
-27.66
-13.44
-4.64
-10.33
-32.57
-65.27
-97.32
-118.66
-125.28
-120.80
-113.75
-112.57
-121.16
-137.44
-155.23
-168.28
-173.81
-173.71
-172.48
-173.53
-176.21
-175.39
-164.16
-137.97
-97.80
-50.53
-5.71
29.22
52.68
69.71
88.91
117.87
159.39
210.55
264.83
315.26
357.48
390.56
415.63
434.13
445.82
448.90
440.85
419.57
384.10
334.73
272.81
201.09
125.56
52.79
-10.05
-56.99
-85.44
-97.52
-99.51
-99.92
-105.84
-120.84
-144.66
-174.13
-205.31
-235.08
-261.41
-282.84
-297.79
-304.36
-301.04
-287.66
-264.87
-233.87
-196.03
-152.21
-102.90
-48.58
9.33
67.89
122.77
169.72
206.31
233.23
254.03
273.10
293.05
312.56
326.42
327.63
310.90
275.01
223.22
161.93
98.97
42.24
-0.33
-21.82
-18.24
9.20
52.82
100.31
138.85
159.99
162.70
151.91
134.34
113.57
88.09
53.82
9.16
-41.04
-85.87
-112.83
-114.32
-91.65
-54.49
-16.59
9.70
16.95
3.35
-28.87
-74.83
-127.38
-176.72
-211.48
-221.49
-202.56
-159.63
-106.51
-60.87
-37.28
-42.00
-71.97
-118.12
-170.25
-220.34
-263.52
-296.98
-318.58
-326.76
-321.90
-307.45
-289.49
-274.65
-266.85
-264.57
-262.44
-253.54
-232.22
-196.26
-147.30
-89.67
-28.75
30.54
84.33
130.05
166.21
191.92
207.68
214.55
213.69
206.13
192.94
175.40
154.98
133.23
111.80
92.25
75.77
63.68
56.84
55.76
60.59
71.73
88.89
111.26
137.56
166.03
194.62
221.18
243.89
261.09
272.12
276.77
275.18
267.82
255.33
238.39
217.60
193.94
168.41
142.03
115.69
90.26
66.63
45.61
27.82
13.72
3.58
-2.50
-4.65
-3.28
1.07
7.77
16.14
25.16
33.88
41.45
47.14
50.42
50.91
48.35
42.57
33.42
20.14
2.08
-21.17
-49.67
-83.03
-120.45
-160.87
-203.04
-245.78
-289.12
-333.11
-377.63
-422.21
-465.94
-507.39
-544.82
-576.53
-601.09
-618.88
-630.67
-637.33
-639.45
-637.27
-630.40
-618.05
-599.30
-564.94
-508.70
-426.87
-319.55
-191.07
-49.75
94.26
230.97
352.50
453.83
531.42
584.26
612.93
620.88
612.22
591.28
562.16
528.58
493.67
458.68
424.11
390.03
356.35
322.83
290.82
261.64
236.61
216.65
201.68
191.19
184.47
180.88
179.79
180.89
183.91
188.66
194.77
201.42
207.76
213.08
216.86
218.85
219.05
217.53
214.47
209.92
203.74
195.83
186.18
174.90
162.27
148.77
134.84
120.98
107.35
94.13
81.66
70.45
61.20
54.61
51.31
51.61
55.47
61.47
67.93
73.16
75.69
74.44
68.64
57.63
40.67
17.12
-15.51
-59.10
-114.33
-180.29
-254.54
-333.58
-413.75
-491.87
-565.65
-636.94
-707.94
-780.14
-853.62
-926.87
-997.20
-1061.70
-1118.10
-1164.90
-1205.36
-1242.64
-1278.27
-1311.66
-1339.97
-1359.10
-1365.10
-1355.22
-1302.02
-1187.43
-1002.94
-753.37
-457.64
-143.75
159.79
431.03
657.43
835.32
963.36
1044.15
1083.47
1088.98
1069.20
1032.39
985.46
933.17
877.90
819.36
753.63
679.01
598.04
517.90
448.55
399.06
373.91
371.20
381.91
394.93
402.12
400.25
390.82
377.93
365.65
355.86
348.20
340.26
328.28
310.51
286.36
255.57
216.86
170.42
117.83
62.18
7.23
-43.45
-86.57
-120.09
-143.60
-158.01
-165.01
-166.70
-165.07
-161.53
-156.98
-151.52
-144.97
-137.47
-129.42
-121.32
-113.78
-107.35
-102.29
-98.62
-95.99
-93.86
-92.05
-90.59
-89.49
-88.90
-88.98
-89.83
-91.30
-93.07
-94.36
-94.46
-92.65
-88.19
-80.31
-68.28
-51.50
-29.65
-4.14
25.13
57.78
92.86
128.85
163.75
195.17
220.58
237.64
244.45
239.96
223.59
195.44
156.82
109.63
56.07
-1.54
-60.98
-120.32
-177.73
-231.90
-281.99
-327.31
-367.19
-401.25
-429.08
-450.06
-463.32
-467.69
-462.20
-445.97
-420.05
-384.44
-339.42
-285.95
-225.68
-160.77
-93.80
-27.39
36.02
94.37
146.37
191.11
228.16
257.56
279.75
295.49
305.59
310.79
311.77
309.21
303.44
294.59
282.67
267.63
249.28
227.60
202.64
174.55
143.71
110.57
75.74
39.89
3.92
-31.23
-64.63
-95.36
-122.70
-145.94
-164.64
-178.61
-187.82
-192.52
-193.13
-190.16
-184.20
-175.91
-165.91
-154.95
-143.68
-132.63
-122.26
-112.82
-104.48
-97.24
-90.97
-85.51
-80.63
-76.13
-71.81
-67.52
-63.19
-58.77
-54.27
-49.84
-45.61
-41.74
-38.38
-35.67
-33.77
-32.75
-32.64
-33.51
-35.26
-37.69
-40.62
-43.85
-47.11
-50.12
-52.66
-54.60
-55.77
-56.11
-55.60
-54.28
-52.21
-49.61
-46.64
-43.55
-40.47
-37.53
-34.76
-32.11
-29.47
-26.73
-23.67
-20.29
-16.56
-12.54
-8.30
-3.82
0.89
5.87
11.11
16.40
21.41
25.76
29.10
31.27
32.42
33.00
33.65
34.91
37.19
40.55
44.82
49.62
54.75
60.22
66.33
73.46
81.89
91.65
102.33
113.39
124.26
134.45
143.94
152.95
162.09
172.43
185.36
202.31
223.89
249.09
274.91
296.79
310.12
311.98
302.06
282.82
258.26
232.42
208.16
186.87
168.89
154.08
142.26
132.95
125.31
117.89
109.17
98.19
85.05
71.11
58.12
47.80
40.77
36.59
33.98
31.59
28.56
24.82
20.76
16.65
12.56
8.14
3.15
-2.05
-6.49
-8.81
-8.20
-4.92
-0.38
3.29
4.24
1.78
-3.09
-8.38
-11.81
-12.31
-10.20
-7.14
-4.94
-4.77
-6.66
-9.66
-12.78
-15.48
-18.01
-21.07
-25.05
-29.48
-33.18
-34.57
-32.70
-27.96
-21.78
-16.11
-12.42
-10.87
-10.55
-10.03
-8.36
-5.75
-3.23
-1.89
-2.12
-3.31
-4.26
-4.05
-2.64
-0.88
-0.12
-1.43
-4.84
-9.49
-13.96
-17.04
-18.29
-18.16
-17.28
-16.21
-14.92
-12.94
-9.83
-5.61
-0.94
2.80
4.12
1.96
-3.67
-11.47
-19.20
-24.44
-25.52
-22.29
-16.29
-9.98
-5.43
-3.40
-3.04
-2.83
-1.76
0.03
1.32
0.67
-2.41
-7.13
-11.88
-14.93
-15.36
-13.69
-11.45
-10.33
-11.35
-14.21
-17.33
-18.65
-16.60
-11.01
-3.39
3.65
7.65
7.44
3.64
-1.73
-6.61
-9.72
-10.95
-10.94
-10.26
-8.98
-6.68
-2.85
2.34
7.74
11.74
12.88
10.80
6.48
1.82
-1.35
-1.97
-0.33
2.19
3.98
3.88
1.75
-1.61
-5.04
-7.80
-9.61
-10.82
-11.95
-13.10
-14.01
-14.01
-12.46
-9.16
-4.64
-0.28
2.39
2.40
-0.04
-3.50
-5.94
-5.74
-2.79
1.50
4.78
5.16
2.31
-2.12
-5.46
-5.62
-2.28
2.86
7.08
8.19
5.60
0.65
-4.44
-7.85
-9.00
-8.76
-8.58
-9.26
-10.55
-11.09
-9.60
-5.86
-0.98
2.99
4.34
2.80
-0.34
-2.73
-2.61
0.40
4.88
8.60
9.78
8.00
4.41
0.88
-1.06
-0.96
0.48
1.87
1.90
0.22
-2.69
-5.68
-7.52
-7.67
-6.43
-4.75
-3.69
-3.75
-4.67
-5.50
-5.24
-3.58
-0.99
1.38
2.42
1.73
-0.37
-2.78
-4.43
-4.70
-3.73
-2.40
-1.89
-2.96
-5.57
-8.63
-10.71
-10.77
-8.67
-5.40
-2.48
-1.10
-1.49
-3.06
-4.59
-5.07
-4.26
-2.77
-1.71
-1.97
-3.83
-6.73
-9.56
-11.18
-10.76
-8.28
-4.40
-0.24
3.14
5.23
6.16
6.26
5.86
4.92
3.14
0.55
-2.52
-5.11
-6.23
-5.41
-3.05
-0.35
1.33
1.07
-0.93
-3.56
-5.37
-5.36
-3.56
-0.96
0.96
1.11
-0.63
-3.26
-5.27
-5.51
-3.82
-1.13
1.20
2.14
1.56
0.19
-0.95
-1.25
-0.68
0.25
1.08
1.67
2.18
2.83
3.51
4.16
4.71
5.27
6.11
7.18
8.01
7.94
6.49
3.73
0.34
-2.82
-5.10
-6.37
-6.98
-7.38
-7.89
-8.60
-9.30
-9.61
-9.10
-7.27
-3.83
1.18
7.04
12.32
15.55
15.63
12.63
7.71
2.62
-1.07
-2.75
-2.83
-2.20
-1.76
-1.87
-2.37
-2.89
-3.08
-2.96
-2.77
-2.77
-3.04
-3.42
-3.67
-3.64
-3.31
-2.79
-2.27
-1.84
-1.53
-1.17
-0.57
0.54
2.17
4.20
6.30
8.12
9.40
9.95
9.93
9.50
8.78
8.07
7.21
5.98
4.14
1.53
-1.53
-4.39
-6.31
-6.87
-6.20
-5.06
-4.24
-4.21
-4.91
-5.89
-6.67
-7.12
-7.37
-7.53
-7.66
-7.44
-6.70
-5.42
-3.92
-2.45
-1.13
0.26
1.90
3.60
4.87
5.06
3.95
1.97
-0.10
-1.57
-2.32
-2.96
-4.38
-7.05
-10.72
-14.44
-17.08
-17.99
-17.15
-15.05
-12.40
-9.43
-6.19
-2.48
1.63
5.51
8.29
9.18
8.12
5.90
3.83
3.17
4.22
6.45
8.51
9.29
8.52
6.89
5.59
5.41
6.09
6.60
5.81
3.34
-0.22
-3.55
-5.40
-5.19
-3.30
-0.83
1.01
1.60
1.14
0.59
0.85
2.33
4.69
6.98
8.50
9.06
9.16
9.49
10.30
11.06
10.81
8.82
5.10
0.60
-3.45
-6.19
-7.52
-7.83
-7.75
-7.66
-7.64
-7.76
-8.08
-8.54
-8.90
-8.58
-7.08
-4.32
-1.09
1.37
2.06
0.87
-1.23
-2.70
-2.42
-0.46
1.94
3.17
2.53
0.61
-0.99
-0.89
0.99
3.27
4.06
2.35
-1.18
-4.71
-6.35
-5.54
-3.31
-1.58
-1.75
-3.89
-6.82
-8.83
-8.77
-6.43
-2.54
1.67
4.96
6.44
5.81
3.48
0.36
-2.47
-4.18
-4.58
-3.95
-2.88
-1.66
-0.19
1.75
4.11
6.19
6.94
5.53
2.14
-1.89
-4.84
-5.39
-3.42
-0.04
3.02
4.40
3.93
2.38
1.10
0.94
1.76
2.63
2.30
0.11
-3.39
-6.75
-8.25
-6.84
-2.82
2.28
6.46
8.33
7.78
6.00
4.58
4.58
5.76
6.78
6.20
3.38
-0.84
-4.48
-5.77
-4.11
-0.53
2.98
4.55
3.47
0.56
-2.50
-4.17
-3.94
-2.48
-1.06
-0.77
-1.81
-3.50
-4.80
-4.87
-3.61
-1.51
0.54
1.66
1.36
-0.28
-2.62
-4.71
-5.80
-5.51
-4.15
-2.55
-1.70
-2.11
-3.49
-4.96
-5.36
-4.27
-2.24
-0.66
-0.93
-3.60
-7.85
-11.86
-13.67
-12.19
-7.86
-2.36
2.20
4.34
3.76
1.58
-0.52
-1.07
0.64
4.13
8.12
11.07
11.96
10.93
9.04
7.77
8.19
10.29
12.82
14.28
13.66
11.25
8.34
6.49
6.52
7.98
9.45
9.55
7.70
4.44
0.97
-1.68
-3.47
-5.15
-7.70
-11.51
-16.10
-20.38
-23.21
-23.90
-22.35
-19.06
-14.77
-10.23
-6.09
-2.84
-0.64
0.54
0.82
0.33
-0.94
-3.04
-5.84
-8.84
-11.10
-11.64
-9.88
-6.25
-2.19
0.60
0.96
-1.07
-4.30
-7.06
-8.35
-8.25
-8.13
-9.66
-13.86
-20.20
-27.01
-32.39
-35.37
-36.56
-37.35
-38.86
-40.92
-41.85
-39.20
-31.28
-18.16
-1.82
15.08
31.23
47.82
68.27
96.60
135.31
184.07
240.28
300.95
363.33
427.15
493.67
563.60
635.09
702.98
759.84
798.04
811.95
798.84
759.27
695.93
612.76
514.41
405.84
292.17
178.68
70.34
-28.73
-115.54
-188.80
-248.83
-297.11
-335.56
-365.94
-389.43
-406.58
-417.64
-422.76
-422.46
-417.63
-409.42
-398.92
-386.89
-373.76
-359.61
-344.37
-328.03
-310.82
-293.16
-275.55
-258.39
-241.84
-225.81
-210.07
-194.39
-178.79
-163.51
-148.93
-135.41
-123.08
-111.75
-100.96
-90.16
-79.06
-67.75
-56.71
-46.64
-38.09
-31.21
-25.55
-20.24
-14.32
-7.22
1.04
9.62
17.36
23.14
26.55
27.94
28.22
28.18
28.10
27.24
24.21
17.55
6.01
-11.19
-34.40
-63.22
-95.36
-126.69
-151.23
-162.75
-157.25
-135.28
-102.32
-67.01
-38.03
-20.14
-13.64
-15.13
-19.86
-24.14
-26.68
-28.07
-29.70
-32.51
-36.41
-40.84
-45.02
-48.27
-50.15
-50.90
-51.17
-52.05
-54.73
-59.72
-66.63
-73.91
-79.30
-80.40
-75.79
-64.67
-46.79
-22.22
8.25
41.89
74.08
99.22
113.37
116.82
114.85
115.37
124.60
143.13
164.79
179.76
179.85
162.94
133.84
101.41
73.62
53.61
40.01
28.49
15.35
-0.21
-16.28
-30.11
-40.09
-47.09
-53.80
-62.93
-75.54
-90.31
-104.25
-113.97
-117.69
-115.84
-110.80
-105.19
-100.35
-95.40
-87.15
-72.04
-48.60
-18.60
13.77
43.83
68.42
86.10
96.06
97.02
87.46
67.23
39.58
11.69
-8.36
-14.94
-8.61
4.79
17.54
24.65
25.95
24.81
24.45
24.51
21.53
12.27
-2.64
-17.68
-25.57
-21.84
-8.16
8.42
19.24
19.14
8.91
-5.99
-18.93
-25.66
-25.20
-19.02
-9.01
3.28
16.87
30.50
42.30
50.39
53.54
52.20
47.42
40.38
31.32
19.76
4.78
-14.10
-36.06
-58.67
-78.04
-89.76
-90.33
-78.38
-55.22
-24.65
8.70
40.23
66.39
84.75
93.42
90.94
76.58
51.37
18.50
-16.94
-49.30
-73.94
-88.41
-92.65
-88.14
-77.32
-62.68
-46.85
-32.65
-22.79
-19.06
-21.52
-27.72
-33.06
-32.31
-21.60
-0.52
26.97
53.23
69.58
69.61
52.07
21.99
-11.27
-37.38
-49.06
-44.43
-27.27
-4.21
18.32
36.47
49.40
57.64
62.06
63.67
64.24
66.56
73.58
85.70
98.64
104.21
93.50
62.82
17.23
-29.81
-61.89
-67.57
-46.61
-9.95
25.49
44.62
40.63
16.67
-17.07
-48.40
-67.93
-71.60
-60.93
-41.45
-21.34
-8.94
-10.47
-27.67
-56.16
-86.78
-109.20
-116.50
-107.88
-88.38
-64.68
-41.27
-18.68
5.22
31.12
55.47
70.18
66.45
40.19
-3.80
-52.51
-89.54
-101.99
-85.93
-47.23
1.84
48.45
83.66
103.93
109.48
102.00
82.85
53.52
16.72
-22.52
-57.56
-82.17
-92.67
-89.06
-74.43
-53.04
-28.86
-4.59
18.08
38.19
54.62
65.76
69.55
64.33
49.93
29.10
7.30
-8.62
-13.39
-5.53
11.60
31.52
47.78
56.20
56.38
50.17
39.99
27.45
13.10
-2.05
-15.97
-25.21
-26.52
-18.88
-4.44
11.81
24.10
28.03
22.72
10.67
-3.16
-13.81
-18.48
-17.47
-13.85
-11.23
-12.14
-16.28
-21.23
-23.76
-21.96
-15.97
-7.80
0.34
7.53
13.79
19.61
23.92
23.83
16.07
-0.62
-22.95
-44.10
-56.33
-55.17
-41.91
-22.94
-6.20
3.17
4.81
2.53
1.05
2.91
7.29
11.26
12.11
9.09
3.97
-0.57
-2.20
-0.41
3.69
7.66
9.21
6.87
0.80
-7.02
-13.57
-15.84
-12.76
-5.34
3.18
9.54
11.86
10.91
9.61
10.76
15.50
21.79
26.02
24.72
17.44
6.93
-2.17
-6.26
-4.97
-1.11
1.12
-0.90
-6.65
-12.74
-15.27
-12.18
-4.48
4.38
10.66
11.84
8.07
1.13
-6.43
-12.52
-16.43
-18.17
-18.44
-17.78
-16.43
-14.15
-10.46
-5.17
1.66
9.29
17.03
24.13
30.27
35.48
39.74
42.74
43.73
42.08
37.26
29.67
20.31
11.00
3.67
0.39
2.24
8.90
18.42
27.69
34.20
36.91
37.09
37.34
39.74
44.02
47.60
46.75
38.82
23.81
4.24
-16.68
-36.95
-56.50
-76.38
-96.80
-116.09
-130.72
-136.88
-132.31
-117.21
-93.89
-66.19
-38.17
-13.44
5.37
16.76
20.92
19.24
13.60
5.20
-5.82
-19.68
-35.61
-50.59
-59.49
-57.06
-40.56
-11.84
22.74
54.41
75.46
82.16
75.68
60.78
43.45
27.87
15.61
5.61
-3.61
-12.35
-18.88
-20.45
-15.43
-5.10
6.37
13.85
14.03
7.62
-1.00
-5.89
-2.79
8.86
25.91
43.61
57.93
67.21
71.97
73.73
73.82
72.87
70.88
67.59
62.57
55.16
44.26
28.62
7.43
-19.07
-48.88
-78.85
-105.24
-125.08
-136.89
-140.55
-137.48
-129.72
-119.25
-106.84
-92.57
-76.12
-58.18
-41.00
-27.74
-20.63
-20.17
-24.55
-30.44
-34.55
-34.59
-29.28
-18.22
-1.82
18.26
38.26
52.65
55.79
44.75
21.43
-7.21
-31.51
-43.49
-40.11
-24.51
-3.96
13.84
24.10
25.91
22.22
17.16
14.78
17.34
25.16
36.32
48.10
56.85
59.71
55.08
43.72
28.40
13.53
3.39
0.54
5.20
15.19
27.38
38.47
46.41
49.88
48.66
43.03
33.89
23.62
15.98
15.97
27.57
52.08
86.49
124.42
158.24
182.19
194.35
196.82
193.92
188.79
183.25
177.80
171.56
163.26
152.19
135.50
109.25
71.04
22.52
-29.82
-74.96
-101.94
-104.95
-86.98
-58.67
-33.17
-19.59
-19.24
-26.48
-33.27
-35.09
-33.50
-34.82
-46.22
-71.56
-109.52
-154.48
-199.04
-235.32
-256.05
-255.14
-228.92
-178.12
-109.46
-34.93
31.51
78.28
99.42
95.02
69.22
27.95
-22.51
-75.64
-124.30
-160.90
-179.28
-177.17
-157.02
-127.02
-98.19
-79.92
-76.61
-86.63
-104.01
-121.61
-133.99
-138.80
-136.60
-130.33
-122.34
-113.97
-105.58
-96.65
-86.35
-73.90
-59.07
-42.48
-25.39
-8.99
5.68
18.05
28.31
37.18
45.90
56.06
69.52
88.34
113.97
145.65
179.38
208.35
224.84
223.39
203.29
169.25
129.28
92.36
64.89
49.17
43.78
45.56
51.41
59.33
68.08
76.41
82.74
85.32
83.10
76.33
66.56
56.22
47.56
41.73
38.60
36.97
35.21
32.00
26.90
20.38
13.55
7.57
3.09
0.08
-2.03
-4.07
-6.65
-9.88
-13.48
-16.85
-19.43
-20.94
-21.46
-21.35
-21.07
-20.96
-21.14
-21.53
-21.89
-21.99
-21.70
-21.06
-20.17
-19.19
-18.26
-17.42
-16.69
-16.02
-15.38
-14.74
-14.11
-13.49
-12.88
-12.29
-11.71
-11.12
-10.53
-9.93
-9.33
-8.74
-8.08
-7.41
-6.75
-6.09
-5.43
-4.78
-4.12
-3.45
-2.78
-2.09
-1.40
-0.71
-0.02
0.69
1.42
2.17
2.94
3.72
4.52
5.33
6.13
6.93
7.77
8.62
9.50
10.40
11.27
12.13
12.98
13.77
14.59
15.50
16.55
17.83
19.38
21.08
22.80
24.31
25.14
24.91
23.11
19.14
12.51
2.97
-9.50
-24.55
-41.48
-59.30
-76.58
-91.78
-103.41
-110.21
-111.39
-106.76
-96.76
-81.76
-63.86
-44.84
-26.28
-9.42
4.96
16.50
25.15
31.13
34.77
36.34
36.45
35.63
34.41
33.27
32.64
32.63
33.13
33.84
34.18
33.89
33.03
31.89
31.10
31.27
32.66
35.03
37.62
39.46
39.90
38.96
37.36
36.38
37.29
40.69
45.99
51.68
55.76
56.71
54.09
48.63
41.87
35.33
29.58
23.87
16.47
5.61
-9.55
-28.29
-49.41
-71.16
-91.35
-107.16
-114.96
-111.35
-95.22
-69.88
-42.45
-22.59
-18.06
-30.89
-56.53
-86.00
-110.32
-124.78
-128.99
-125.86
-118.73
-108.81
-95.12
-76.33
-52.72
-26.40
-1.83
17.74
31.42
40.60
47.96
56.01
65.52
75.33
82.99
86.16
84.10
78.07
70.80
65.22
63.30
65.09
68.92
72.13
71.95
66.56
55.11
38.07
17.56
-2.66
-17.99
-24.49
-20.66
-8.31
7.26
19.94
25.42
22.86
14.86
5.46
-2.07
-6.74
-9.50
-11.92
-14.71
-17.30
-18.42
-17.19
-13.91
-9.91
-6.90
-6.14
-7.80
-10.90
-13.85
-15.19
-14.22
-11.32
-7.73
-5.00
-4.31
-5.92
-9.05
-12.30
-14.24
-14.05
-11.95
-9.00
-6.74
-6.47
-8.66
-12.63
-16.98
-20.10
-20.95
-19.56
-17.01
-15.03
-15.06
-17.80
-22.77
-28.71
-34.10
-37.60
-38.24
-35.30
-28.52
-18.79
-8.67
-1.78
-1.91
-10.89
-26.99
-45.06
-58.38
-61.25
-52.28
-34.30
-12.62
7.72
23.91
35.82
44.71
51.56
56.29
58.08
56.53
52.27
46.90
42.25
39.80
39.81
41.43
43.24
43.82
42.59
39.90
36.79
34.44
33.69
34.60
36.56
38.62
39.92
40.15
39.55
38.77
38.48
39.12
40.67
42.78
44.96
46.74
47.91
48.43
48.23
46.96
44.14
38.90
30.56
18.77
3.73
-13.83
-32.93
-52.47
-71.67
-89.90
-106.64
-121.08
-132.12
-138.30
-138.13
-130.72
-116.30
-96.38
-73.60
-51.12
-31.63
-17.05
-7.80
-3.18
-1.78
-2.28
-3.95
-6.72
-11.14
-18.16
-28.78
-43.16
-59.76
-74.84
-83.48
-81.13
-65.54
-38.05
-3.41
31.26
58.93
74.42
75.55
63.12
40.57
13.06
-14.04
-34.10
-43.43
-41.56
-30.87
-15.30
1.10
15.20
25.24
30.17
29.59
23.17
11.65
-2.31
-13.81
-16.98
-7.09
17.06
51.63
89.21
121.27
141.85
149.65
147.97
142.13
136.35
133.25
130.41
125.36
116.58
104.42
90.53
76.65
63.52
50.68
36.29
20.15
2.71
-14.86
-30.83
-43.54
-52.05
-56.45
-57.78
-57.46
-56.75
-56.27
-55.95
-55.27
-53.67
-50.91
-47.23
-43.24
-39.53
-36.53
-34.42
-32.85
-31.38
-29.62
-27.39
-24.80
-22.13
-19.63
-17.52
-15.92
-14.63
-13.47
-12.29
-11.02
-9.69
-8.36
-7.11
-5.97
-4.97
-4.07
-3.27
-2.54
-1.87
-1.28
-0.74
-0.26
0.17
0.55
0.89
1.19
1.45
1.67
1.84
1.99
2.12
2.22
2.30
2.38
2.46
2.53
2.60
2.67
2.75
2.82
2.90
2.99
3.08
3.18
3.29
3.39
3.51
3.62
3.74
3.87
4.01
4.15
4.30
4.45
4.61
4.78
4.96
5.14
5.34
5.55
5.76
5.99
6.23
6.47
6.72
6.98
7.24
7.49
7.72
7.95
8.15
8.33
8.48
8.61
8.72
8.80
8.88
8.94
8.99
9.05
9.11
9.16
9.22
9.27
9.31
9.35
9.36
9.35
9.31
9.23
9.10
8.91
8.64
8.28
7.80
7.18
6.40
5.44
4.29
2.90
1.26
-0.65
-2.85
-5.35
-8.17
-11.33
-14.87
-18.80
-23.20
-28.06
-33.39
-39.15
-45.34
-51.96
-59.09
-66.81
-75.23
-84.50
-94.66
-105.71
-117.59
-130.21
-143.55
-157.62
-172.36
-187.61
-202.99
-217.81
-231.02
-241.36
-247.45
-248.08
-242.76
-231.12
-213.25
-189.67
-161.19
-128.83
-93.74
-57.12
-20.46
14.53
46.14
72.90
93.98
109.46
120.30
127.97
134.01
139.22
143.42
145.69
144.90
140.62
133.68
126.16
120.89
120.59
126.60
138.45
154.29
171.88
189.64
207.42
226.35
247.00
270.23
296.05
323.46
350.40
373.59
388.54
389.95
373.03
335.68
280.30
213.68
145.22
83.73
34.14
-3.84
-34.04
-62.14
-91.15
-119.63
-142.63
-154.67
-153.00
-139.58
-120.59
-103.91
-95.90
-98.76
-110.27
-125.96
-141.80
-156.03
-169.32
-183.18
-198.16
-212.78
-223.88
-228.19
-223.87
-211.72
-193.83
-172.81
-150.47
-127.02
-100.94
-69.63
-31.03
14.82
64.85
113.48
154.04
180.77
190.43
182.78
159.97
125.27
82.45
35.88
-8.86
-45.33
-67.48
-71.96
-59.90
-37.05
-11.62
9.22
22.13
28.17
30.66
32.45
34.09
33.84
29.96
22.72
15.08
11.00
12.94
20.08
28.98
35.98
39.64
41.99
47.17
58.98
78.39
102.93
127.64
147.24
157.83
157.57
146.39
125.06
94.75
56.84
13.65
-31.58
-75.16
-113.76
-145.55
-170.94
-192.64
-214.33
-238.27
-263.21
-283.41
-290.34
-276.22
-237.79
-178.43
-107.60
-37.81
19.44
57.08
73.95
74.15
65.02
54.25
47.47
46.66
49.98
53.22
52.14
44.48
30.88
14.14
-2.63
-17.34
-28.98
-37.06
-40.41
-37.09
-25.64
-6.54
16.97
39.65
56.32
64.39
64.57
60.28
56.04
54.99
57.61
61.72
63.37
58.54
44.36
19.63
-14.56
-54.48
-94.48
-128.25
-150.33
-158.30
-153.56
-140.22
-124.46
-112.65
-107.04
-105.56
-103.58
-95.66
-78.46
-52.92
-23.14
5.20
27.04
40.34
46.37
48.25
48.35
46.16
40.26
30.39
20.53
18.92
34.67
71.52
123.61
176.63
213.28
220.97
197.37
150.99
95.77
46.75
13.71
-1.27
-2.24
4.59
14.54
25.74
38.01
51.00
63.51
73.12
77.60
76.05
69.39
60.02
50.52
42.76
37.45
34.43
32.95
32.18
31.52
30.74
29.82
28.67
27.25
25.71
24.91
25.79
29.05
34.71
42.00
49.37
54.63
55.94
50.91
38.20
18.31
-5.90
-29.24
-45.24
-48.19
-35.49
-10.45
17.84
37.81
39.69
19.50
-19.88
-69.70
-118.99
-159.23
-186.98
-204.00
-214.33
-220.66
-222.36
-216.51
-201.15
-178.32
-154.26
-135.80
-126.21
-123.02
-119.69
-110.06
-92.14
-69.47
-47.05
-29.99
-18.76
-8.98
5.12
26.63
53.92
82.13
106.02
122.49
131.33
134.60
134.77
133.74
132.49
130.97
128.69
125.18
119.93
113.24
106.20
99.85
94.80
90.80
86.76
81.11
73.01
61.41
46.93
31.38
16.98
5.55
-2.34
-7.51
-11.81
-17.52
-27.25
-42.46
-63.32
-88.16
-113.03
-132.36
-140.42
-133.69
-110.95
-78.41
-45.47
-21.12
-10.27
-12.28
-22.32
-33.96
-41.60
-42.23
-36.84
-27.42
-17.21
-9.81
-8.15
-13.14
-22.63
-31.43
-33.91
-26.55
-8.93
15.92
43.51
69.73
91.94
108.88
119.81
124.00
120.81
111.51
97.40
80.55
62.94
45.46
27.42
6.97
-17.66
-46.62
-77.23
-104.71
-123.24
-128.50
-119.55
-99.16
-72.81
-46.17
-22.99
-4.30
10.62
23.11
33.80
42.23
47.37
48.21
44.54
36.76
25.36
10.54
-7.18
-26.31
-44.35
-57.71
-64.08
-64.23
-62.01
-62.10
-66.57
-72.57
-73.62
-63.89
-42.94
-17.95
-0.47
-0.26
-19.47
-50.26
-78.61
-91.59
-83.72
-58.53
-25.04
8.65
38.81
65.85
90.99
112.75
125.93
124.03
103.69
65.77
19.69
-20.39
-42.45
-42.36
-24.74
0.79
25.16
43.09
53.61
58.80
61.08
61.77
60.98
58.38
53.77
47.66
40.99
34.83
30.22
27.44
25.91
24.55
22.49
19.48
15.92
12.59
10.13
9.06
9.24
10.02
10.51
10.18
9.04
7.58
6.42
6.01
6.55
7.82
9.38
10.68
11.39
11.47
11.04
10.20
8.84
6.68
3.35
-1.18
-7.23
-14.59
-22.71
-30.73
-37.80
-43.21
-46.46
-47.40
-45.88
-42.20
-36.80
-30.18
-22.82
-15.23
-7.87
-1.18
4.53
8.99
12.28
14.63
16.32
17.58
18.54
19.19
19.28
18.54
16.78
14.15
11.19
8.82
7.98
9.26
12.71
17.82
23.49
28.51
31.82
32.72
31.05
26.64
19.47
9.67
-2.37
-15.90
-29.74
-42.69
-54.17
-64.09
-72.46
-78.59
-80.38
-75.17
-60.75
-36.97
-6.16
26.83
55.96
75.12
79.96
68.93
43.91
9.51
-28.00
-62.08
-87.51
-100.94
-100.68
-86.19
-58.47
-21.13
18.96
52.16
69.25
65.24
41.97
8.21
-23.87
-44.40
-49.92
-43.40
-30.92
-16.61
-0.31
20.37
46.25
73.43
93.53
97.46
81.42
49.69
12.89
-14.52
-23.94
-16.85
-2.24
9.34
11.30
3.62
-9.10
-21.22
-29.49
-34.17
-37.30
-40.78
-44.76
-47.47
-46.18
-39.13
-27.39
-15.77
-9.68
-13.25
-25.88
-41.72
-52.50
-51.73
-38.33
-16.96
4.67
20.00
26.55
26.50
24.15
22.68
22.54
22.11
19.70
15.14
9.79
5.04
1.42
-1.83
-6.32
-13.32
-22.69
-33.01
-42.39
-49.23
-53.06
-54.81
-54.89
-53.45
-50.19
-44.28
-34.60
-19.89
0.47
25.33
51.16
72.24
82.53
78.07
58.95
29.49
-3.67
-34.28
-58.52
-75.47
-85.83
-89.36
-85.06
-71.75
-48.72
-16.46
23.18
67.09
111.04
149.93
178.53
192.19
188.67
169.71
140.60
108.41
79.07
55.71
38.48
26.25
17.71
12.25
10.21
11.50
14.81
17.72
17.67
11.52
-0.07
-13.23
-22.59
-23.76
-15.27
0.97
20.96
40.06
54.32
61.22
61.11
53.37
38.65
19.44
-0.07
-14.95
-21.31
-17.40
-5.05
9.23
17.63
15.67
3.87
-13.33
-30.45
-43.87
-52.78
-58.36
-62.15
-64.75
-65.40
-63.08
-57.80
-50.77
-43.89
-39.11
-37.21
-37.87
-39.84
-41.41
-41.34
-39.43
-36.34
-33.38
-31.71
-31.93
-33.87
-36.80
-39.72
-41.83
-42.99
-43.45
-43.95
-45.11
-47.27
-50.39
-54.15
-58.18
-62.07
-65.73
-69.16
-72.65
-76.41
-80.42
-84.51
-88.32
-91.41
-92.84
-92.13
-87.75
-78.53
-63.67
-43.01
-17.11
12.72
44.54
76.73
107.20
134.87
158.97
179.07
194.64
205.03
210.80
210.43
203.61
190.93
174.06
154.90
135.10
115.47
95.78
75.08
51.40
25.25
-2.19
-28.99
-53.11
-72.66
-86.01
-91.93
-89.85
-80.57
-66.48
-52.13
-42.63
-41.57
-49.01
-61.13
-71.35
-73.70
-65.84
-49.52
-29.60
-10.96
3.64
13.95
21.14
26.35
29.68
30.40
28.21
23.51
17.85
12.82
9.42
7.42
5.73
3.10
-1.15
-6.55
-11.73
-15.07
-15.50
-12.97
-8.53
-3.66
0.40
3.31
5.78
8.85
13.51
19.92
27.23
34.04
38.76
40.01
36.81
29.18
18.20
6.67
-1.47
-2.71
4.38
17.63
32.06
41.64
42.31
33.66
18.71
1.91
-13.33
-25.89
-36.65
-46.89
-56.54
-63.97
-67.12
-65.02
-58.89
-51.94
-47.57
-48.33
-54.30
-63.10
-70.90
-73.76
-68.86
-54.99
-33.14
-6.48
19.87
40.12
49.66
46.79
34.44
19.00
7.68
5.15
11.81
24.11
36.73
45.32
47.97
45.45
40.37
36.11
35.59
40.82
52.12
67.55
83.15
94.00
95.97
88.25
72.81
53.25
33.08
14.40
-2.09
-16.27
-27.62
-35.03
-37.53
-35.31
-30.05
-24.22
-20.09
-18.94
-20.46
-23.18
-25.24
-25.14
-22.58
-18.37
-13.92
-10.61
-9.18
-9.47
-10.65
-11.58
-11.39
-9.81
-7.23
-4.39
-2.00
-0.54
0.00
-0.02
-0.09
0.25
1.15
2.51
4.06
5.49
6.60
7.35
7.85
8.27
8.78
9.43
10.19
11.01
11.78
12.45
13.01
13.48
13.89
14.27
14.64
15.00
15.36
15.74
16.13
16.54
16.96
17.40
17.85
18.30
18.75
19.18
19.59
19.96
20.28
20.53
20.70
20.76
20.70
20.49
20.10
19.50
18.65
17.53
16.12
14.39
12.30
9.81
6.90
3.51
-0.41
-4.92
-10.06
-15.86
-22.37
-29.62
-37.66
-46.54
-56.31
-67.09
-78.97
-92.04
-106.37
-122.04
-139.13
-157.69
-177.63
-198.73
-220.66
-242.78
-264.19
-283.68
-299.84
-311.09
-316.24
-314.02
-303.53
-284.45
-257.15
-222.69
-182.76
-139.45
-95.04
-51.68
-11.20
25.02
56.14
81.79
102.10
117.46
128.44
135.65
139.64
141.00
140.26
137.97
134.69
130.85
126.74
122.44
117.87
112.83
107.26
101.28
95.26
89.73
85.16
81.80
79.50
77.80
76.08
73.95
71.40
68.95
67.37
67.39
69.36
73.03
77.70
82.50
86.80
90.52
94.09
98.30
104.09
112.38
123.96
139.07
156.91
175.22
190.42
198.42
196.05
182.39
159.29
130.77
101.44
74.96
52.83
34.88
20.02
7.32
-3.48
-12.11
-18.35
-22.52
-25.54
-28.54
-32.23
-36.66
-41.14
-44.62
-46.29
-45.98
-44.30
-42.38
-41.28
-41.49
-42.77
-44.25
-44.91
-44.18
-42.12
-39.43
-37.04
-35.55
-35.02
-34.91
-34.48
-33.15
-30.92
-28.22
-25.73
-23.99
-23.09
-22.69
-22.23
-21.23
-19.59
-17.62
-15.87
-14.75
-14.38
-14.42
-14.31
-13.66
-12.41
-10.91
-9.70
-9.16
-9.23
-9.53
-9.52
-8.93
-7.87
-6.77
-6.13
-6.17
-6.70
-7.27
-7.39
-6.86
-5.87
-4.90
-4.41
-4.62
-5.31
-5.97
-6.07
-5.40
-4.15
-2.89
-2.19
-2.34
-3.18
-4.15
-4.67
-4.45
-3.63
-2.69
-2.16
-2.28
-2.88
-3.53
-3.81
-3.52
-2.83
-2.16
-1.88
-2.14
-2.77
-3.39
-3.59
-3.22
-2.39
-1.48
-0.85
-0.74
-1.08
-1.61
-1.96
-1.97
-1.67
-1.35
-1.34
-1.79
-2.56
-3.28
-3.56
-3.19
-2.30
-1.27
-0.57
-0.45
-0.86
-1.51
-1.99
-2.07
-1.75
-1.28
-0.93
-0.87
-1.03
-1.19
-1.09
-0.62
0.13
0.88
1.33
1.32
0.92
0.43
0.21
0.42
0.99
1.55
1.69
1.21
0.24
-0.76
-1.32
-1.19
-0.57
0.06
0.18
-0.46
-1.62
-2.73
-3.24
-2.93
-2.04
-1.11
-0.69
-1.02
-1.88
-2.74
-3.07
-2.65
-1.68
-0.66
-0.10
-0.21
-0.84
-1.54
-1.88
-1.69
-1.10
-0.50
-0.24
-0.40
-0.81
-1.12
-1.05
-0.56
0.13
0.65
0.72
0.30
-0.39
-0.98
-1.14
-0.77
-0.04
0.70
1.08
0.92
0.34
-0.31
-0.60
-0.33
0.43
1.30
1.83
1.77
1.20
0.50
0.06
0.09
0.46
0.81
0.78
0.26
-0.48
-1.02
-1.00
-0.37
0.57
1.29
1.37
0.74
-0.35
-1.37
-1.90
-1.82
-1.34
-0.86
-0.74
-1.04
-1.54
-1.88
-1.80
-1.31
-0.67
-0.25
-0.29
-0.76
-1.36
-1.68
-1.46
-0.67
0.38
1.30
1.70
1.46
0.75
-0.08
-0.66
-0.80
-0.55
-0.13
0.18
0.26
0.19
0.18
0.42
0.93
1.51
1.82
1.59
0.78
-0.32
-1.22
-1.49
-1.00
-0.00
0.96
1.32
0.85
-0.29
-1.57
-2.40
-2.44
-1.76
-0.82
-0.12
0.00
-0.40
-0.97
-1.29
-1.16
-0.68
-0.21
-0.10
-0.49
-1.15
-1.66
-1.66
-1.09
-0.25
0.41
0.53
0.11
-0.52
-0.89
-0.65
0.20
1.33
2.24
2.54
2.12
1.20
0.24
-0.35
-0.38
0.03
0.48
0.59
0.17
-0.61
-1.35
-1.63
-1.27
-0.44
0.38
0.72
0.44
-0.24
-0.88
-1.04
-0.63
0.12
0.76
0.93
0.58
-0.04
-0.51
-0.50
0.02
0.82
1.46
1.59
1.13
0.31
-0.48
-0.82
-0.60
0.04
0.69
0.95
0.65
-0.03
-0.66
-0.85
-0.47
0.26
0.85
0.93
0.42
-0.36
-0.91
-0.83
-0.12
0.85
1.56
1.60
0.98
0.04
-0.68
-0.82
-0.31
0.50
1.12
1.10
0.34
-0.92
-2.17
-2.92
-2.91
-2.25
-1.37
-0.73
-0.60
-0.90
-1.26
-1.28
-0.81
-0.02
0.66
0.90
0.59
0.03
-0.33
-0.13
0.60
1.48
1.99
1.74
0.78
-0.50
-1.50
-1.80
-1.37
-0.51
0.26
0.58
0.38
-0.08
-0.42
-0.36
0.06
0.59
0.88
0.74
0.30
-0.16
-0.26
0.16
0.96
1.77
2.18
1.95
1.16
0.17
-0.56
-0.70
-0.23
0.56
1.19
1.25
0.65
-0.40
-1.41
-1.96
-1.90
-1.44
-1.01
-0.95
-1.30
-1.76
-1.86
-1.30
-0.16
1.11
1.90
1.85
1.04
-0.08
-0.89
-0.97
-0.29
0.77
1.63
1.83
1.27
0.24
-0.73
-1.19
-1.01
-0.40
0.15
0.21
-0.35
-1.24
-1.95
-2.02
-1.38
-0.34
0.55
0.86
0.53
-0.09
-0.49
-0.36
0.28
1.02
1.35
1.01
0.07
-1.03
-1.75
-1.78
-1.15
-0.23
0.52
0.79
0.58
0.18
0.00
0.28
0.94
1.61
1.83
1.39
0.42
-0.60
-1.11
-0.83
0.14
1.31
2.05
1.99
1.15
-0.02
-0.95
-1.25
-0.87
-0.18
0.28
0.14
-0.64
-1.67
-2.40
-2.38
-1.57
-0.36
0.63
0.90
0.37
-0.65
-1.59
-2.04
-1.94
-1.60
-1.42
-1.66
-2.21
-2.71
-2.78
-2.27
-1.38
-0.54
-0.15
-0.36
-0.96
-1.52
-1.61
-1.06
-0.02
1.08
1.82
1.94
1.53
0.94
0.59
0.70
1.20
1.75
1.95
1.60
0.82
0.01
-0.41
-0.25
0.36
0.96
1.12
0.64
-0.26
-1.08
-1.35
-0.85
0.18
1.22
1.75
1.54
0.80
0.01
-0.32
0.04
0.90
1.82
2.31
2.14
1.49
0.75
0.39
0.59
1.22
1.83
1.99
1.47
0.42
-0.71
-1.44
-1.45
-0.79
0.18
0.95
1.17
0.79
0.09
-0.49
-0.62
-0.29
0.20
0.42
0.06
-0.82
-1.81
-2.36
-2.09
-1.01
0.47
1.69
2.17
1.81
0.92
0.04
-0.37
-0.20
0.32
0.74
0.75
0.32
-0.23
-0.48
-0.19
0.53
1.27
1.54
1.08
0.07
-1.02
-1.62
-1.46
-0.64
0.35
0.96
0.89
0.24
-0.60
-1.14
-1.14
-0.70
-0.19
-0.00
-0.29
-0.90
-1.44
-1.53
-1.05
-0.18
0.65
1.09
0.96
0.43
-0.11
-0.29
0.03
0.66
1.21
1.29
0.79
-0.08
-0.90
-1.24
-0.99
-0.30
0.41
0.76
0.60
0.09
-0.44
-0.68
-0.54
-0.13
0.29
0.51
0.48
0.31
0.19
0.24
0.44
0.60
0.52
0.05
-0.71
-1.51
-2.00
-1.92
-1.30
-0.39
0.37
0.62
0.26
-0.44
-1.05
-1.18
-0.70
0.13
0.88
1.16
0.91
0.37
0.00
0.14
0.84
1.81
2.56
2.73
2.23
1.30
0.40
-0.07
0.05
0.62
1.26
1.57
1.33
0.61
-0.28
-0.96
-1.20
-1.01
-0.65
-0.44
-0.60
-1.08
-1.61
-1.87
-1.69
-1.17
-0.60
-0.31
-0.50
-1.04
-1.59
-1.80
-1.50
-0.80
-0.12
0.14
-0.19
-0.94
-1.63
-1.79
-1.23
-0.17
0.89
1.43
1.26
0.63
0.05
-0.02
0.53
1.41
2.11
2.24
1.74
0.91
0.23
0.07
0.46
1.11
1.61
1.63
1.13
0.38
-0.26
-0.51
-0.37
-0.07
0.06
-0.21
-0.84
-1.55
-1.95
-1.78
-1.09
-0.21
0.42
0.48
-0.07
-0.93
-1.61
-1.75
-1.26
-0.36
0.51
0.97
0.91
0.48
0.01
-0.18
-0.02
0.32
0.54
0.41
-0.07
-0.66
-1.03
-0.94
-0.44
0.17
0.50
0.31
-0.35
-1.13
-1.60
-1.46
-0.70
0.36
1.23
1.58
1.33
0.73
0.16
-0.05
0.19
0.71
1.14
1.15
0.63
-0.22
-1.02
-1.38
-1.15
-0.47
0.27
0.70
0.69
0.40
0.19
0.37
0.97
1.71
2.10
1.80
0.83
-0.43
-1.39
-1.64
-1.17
-0.39
0.13
-0.02
-0.78
-1.71
-2.23
-1.91
-0.83
0.55
1.59
1.86
1.36
0.50
-0.16
-0.23
0.28
0.99
1.39
1.13
0.24
-0.87
-1.67
-1.76
-1.13
-0.15
0.67
0.92
0.56
-0.07
-0.49
-0.36
0.32
1.16
1.67
1.50
0.67
-0.46
-1.37
-1.66
-1.27
-0.47
0.34
0.80
0.82
0.57
0.32
0.31
0.53
0.79
0.79
0.37
-0.38
-1.13
-1.48
-1.23
-0.49
0.32
0.71
0.43
-0.38
-1.24
-1.58
-1.12
-0.02
1.20
1.92
1.81
0.98
-0.03
-0.65
-0.53
0.23
1.14
1.64
1.43
0.62
-0.33
-0.92
-0.89
-0.37
0.21
0.39
-0.02
-0.80
-1.51
-1.71
-1.24
-0.31
0.56
0.90
0.49
-0.48
-1.53
-2.09
-1.88
-0.96
0.18
0.98
1.03
0.32
-0.75
-1.59
-1.76
-1.21
-0.29
0.46
0.66
0.32
-0.20
-0.40
-0.01
0.87
1.78
2.21
1.89
0.98
0.00
-0.48
-0.17
0.79
1.87
2.44
2.16
1.10
-0.24
-1.24
-1.50
-1.01
-0.19
0.38
0.36
-0.17
-0.80
-1.01
-0.55
0.40
1.29
1.57
1.00
-0.18
-1.37
-1.96
-1.67
-0.71
0.39
1.06
1.04
0.50
-0.10
-0.29
0.11
0.87
1.54
1.66
1.10
0.07
-0.97
-1.56
-1.52
-1.01
-0.42
-0.15
-0.34
-0.84
-1.29
-1.38
-1.01
-0.30
0.42
0.86
0.89
0.59
0.23
0.07
0.22
0.59
0.91
0.90
0.44
-0.36
-1.15
-1.55
-1.37
-0.66
0.21
0.83
0.90
0.47
-0.14
-0.48
-0.25
0.52
1.49
2.15
2.17
1.50
0.51
-0.32
-0.58
-0.24
0.37
0.76
0.60
-0.06
-0.84
-1.26
-1.04
-0.29
0.53
0.89
0.52
-0.47
-1.61
-2.34
-2.34
-1.65
-0.67
0.10
0.33
0.06
-0.38
-0.56
-0.25
0.45
1.16
1.42
1.04
0.17
-0.74
-1.21
-1.03
-0.34
0.43
0.84
0.71
0.20
-0.29
-0.41
-0.07
0.49
0.83
0.61
-0.22
-1.35
-2.23
-2.44
-1.89
-0.84
0.19
0.75
0.71
0.27
-0.15
-0.19
0.23
0.86
1.32
1.29
0.72
-0.13
-0.82
-1.03
-0.71
-0.08
0.46
0.57
0.23
-0.31
-0.65
-0.49
0.16
1.01
1.60
1.62
1.06
0.25
-0.32
-0.30
0.32
1.22
1.89
1.95
1.36
0.46
-0.23
-0.32
0.21
1.01
1.56
1.46
0.68
-0.48
-1.50
-1.99
-1.87
-1.37
-0.89
-0.73
-0.97
-1.35
-1.52
-1.20
-0.41
0.53
1.15
1.12
0.42
-0.55
-1.22
-1.15
-0.30
0.96
2.03
2.41
2.02
1.13
0.25
-0.23
-0.26
-0.10
-0.15
-0.65
-1.50
-2.34
-2.72
-2.38
-1.41
-0.23
0.66
0.87
0.42
-0.37
-0.98
-1.05
-0.54
0.20
0.70
0.66
0.08
-0.63
-1.00
-0.77
-0.07
0.66
0.88
0.38
-0.66
-1.68
-2.10
-1.61
-0.32
1.22
2.40
2.76
2.24
1.19
0.16
-0.43
-0.45
-0.13
0.10
-0.05
-0.58
-1.18
-1.40
-0.95
0.06
1.20
1.94
1.92
1.20
0.23
-0.47
-0.50
0.15
1.12
1.95
2.27
2.00
1.39
0.80
0.52
0.55
0.70
0.65
0.25
-0.41
-1.02
-1.24
-0.91
-0.15
0.68
1.13
0.97
0.26
-0.64
-1.29
-1.37
-0.87
-0.10
0.48
0.54
0.04
-0.74
-1.34
-1.40
-0.86
-0.02
0.67
0.84
0.47
-0.13
-0.53
-0.43
0.11
0.69
0.83
0.26
-0.85
-2.02
-2.69
-2.57
-1.80
-0.88
-0.35
-0.43
-0.96
-1.43
-1.36
-0.54
0.81
2.15
2.93
2.92
2.23
1.31
0.61
0.37
0.52
0.73
0.67
0.20
-0.52
-1.14
-1.33
-0.95
-0.18
0.57
0.88
0.54
-0.27
-1.13
-1.54
-1.28
-0.46
0.46
0.95
0.71
-0.13
-1.11
-1.68
-1.51
-0.69
0.33
0.98
0.94
0.25
-0.68
-1.35
-1.41
-0.87
-0.07
0.57
0.78
0.58
0.27
0.20
0.57
1.23
1.81
1.92
1.38
0.34
-0.74
-1.36
-1.27
-0.57
0.32
0.93
0.98
0.55
0.02
-0.19
0.09
0.66
1.10
0.98
0.20
-0.94
-1.91
-2.21
-1.66
-0.51
0.67
1.36
1.30
0.62
-0.23
-0.79
-0.84
-0.50
-0.14
-0.11
-0.54
-1.21
-1.67
-1.57
-0.86
0.11
0.80
0.81
0.11
-0.88
-1.56
-1.50
-0.66
0.52
1.47
1.71
1.17
0.18
-0.74
-1.20
-1.08
-0.56
0.03
0.40
0.47
0.33
0.19
0.23
0.49
0.88
1.20
1.29
1.13
0.85
0.65
0.71
1.02
1.40
1.55
1.24
0.46
-0.52
-1.27
-1.41
-0.86
0.11
1.03
1.47
1.27
0.63
-0.05
-0.37
-0.23
0.20
0.55
0.50
-0.04
-0.87
-1.63
-2.00
-1.87
-1.36
-0.80
-0.48
-0.56
-0.97
-1.42
-1.61
-1.36
-0.80
-0.23
0.03
-0.17
-0.64
-1.02
-0.96
-0.36
0.52
1.23
1.40
0.99
0.33
-0.08
0.08
0.82
1.76
2.41
2.43
1.83
0.94
0.21
-0.04
0.18
0.60
0.85
0.66
0.05
-0.76
-1.39
-1.60
-1.33
-0.78
-0.31
-0.18
-0.45
-0.91
-1.17
-0.91
-0.07
1.07
2.03
2.38
2.03
1.23
0.45
0.12
0.37
0.95
1.41
1.35
0.64
-0.46
-1.49
-2.02
-1.93
-1.43
-0.93
-0.81
-1.14
-1.67
-1.99
-1.81
-1.15
-0.37
0.06
-0.09
-0.74
-1.45
-1.77
-1.49
-0.78
-0.13
0.04
-0.45
-1.36
-2.18
-2.41
-1.79
-0.47
1.08
2.31
2.82
2.55
1.81
1.09
0.78
0.98
1.47
1.84
1.78
1.24
0.50
-0.02
-0.07
0.34
0.85
1.03
0.64
-0.20
-1.07
-1.51
-1.26
-0.45
0.48
1.02
0.87
0.13
-0.76
-1.28
-1.15
-0.43
0.44
0.98
0.91
0.30
-0.44
-0.87
-0.73
-0.07
0.76
1.37
1.51
1.23
0.76
0.40
0.32
0.42
0.48
0.24
-0.37
-1.17
-1.80
-1.88
-1.32
-0.31
0.64
1.01
0.58
-0.47
-1.60
-2.16
-1.77
-0.54
0.96
2.03
2.20
1.46
0.30
-0.61
-0.81
-0.28
0.57
1.18
1.16
0.54
-0.31
-0.89
-0.92
-0.46
0.13
0.44
0.24
-0.38
-1.08
-1.51
-1.45
-0.97
-0.31
0.21
0.38
0.24
-0.01
-0.10
0.14
0.63
1.14
1.33
1.03
0.29
-0.55
-1.07
-0.98
-0.33
0.54
1.16
1.17
0.59
-0.25
-0.87
-0.96
-0.52
0.12
0.53
0.50
0.11
-0.30
-0.36
-0.01
0.54
0.87
0.64
-0.14
-1.11
-1.73
-1.65
-0.85
0.29
1.24
1.59
1.26
0.54
-0.10
-0.32
-0.03
0.52
0.95
0.96
0.51
-0.17
-0.74
-0.88
-0.52
0.16
0.85
1.20
1.09
0.62
0.08
-0.23
-0.15
0.22
0.61
0.70
0.36
-0.31
-0.97
-1.27
-1.05
-0.44
0.22
0.57
0.47
0.03
-0.40
-0.47
-0.07
0.61
1.17
1.22
0.65
-0.34
-1.27
-1.72
-1.52
-0.90
-0.31
-0.18
-0.59
-1.24
-1.61
-1.33
-0.45
0.61
1.24
1.04
0.13
-0.97
-1.58
-1.29
-0.22
1.05
1.86
1.80
0.96
-0.13
-0.82
-0.72
0.07
1.08
1.73
1.66
0.96
0.08
-0.42
-0.25
0.45
1.20
1.43
0.84
-0.44
-1.89
-2.88
-2.97
-2.17
-0.88
0.29
0.85
0.71
0.15
-0.30
-0.24
0.39
1.26
1.84
1.70
0.81
-0.43
-1.44
-1.73
-1.21
-0.21
0.73
1.12
0.87
0.24
-0.37
-0.60
-0.42
-0.04
0.18
-0.01
-0.58
-1.24
-1.55
-1.21
-0.23
1.02
1.99
2.21
1.56
0.31
-0.95
-1.65
-1.51
-0.71
0.27
0.91
0.95
0.52
0.05
-0.07
0.32
1.01
1.60
1.71
1.28
0.55
-0.05
-0.24
0.01
0.40
0.56
0.28
-0.34
-0.98
-1.25
-1.01
-0.37
0.29
0.63
0.49
0.01
-0.53
-0.79
-0.66
-0.25
0.13
0.20
-0.16
-0.79
-1.35
-1.45
-0.91
0.12
1.26
2.02
2.10
1.54
0.68
-0.03
-0.33
-0.23
0.01
0.07
-0.21
-0.72
-1.15
-1.20
-0.72
0.10
0.84
1.07
0.52
-0.63
-1.91
-2.71
-2.64
-1.73
-0.45
0.56
0.85
0.43
-0.29
-0.77
-0.64
0.03
0.82
1.22
0.99
0.29
-0.46
-0.80
-0.55
0.11
0.75
0.97
0.65
-0.02
-0.64
-0.84
-0.45
0.36
1.21
1.71
1.64
1.11
0.46
0.07
0.15
0.66
1.26
1.58
1.38
0.74
-0.02
-0.47
-0.41
0.04
0.49
0.51
-0.09
-1.11
-2.06
-2.41
-1.92
-0.80
0.40
1.10
1.03
0.35
-0.47
-0.93
-0.79
-0.22
0.38
0.60
0.34
-0.20
-0.63
-0.64
-0.18
0.48
0.97
0.97
0.44
-0.37
-1.05
-1.26
-0.91
-0.21
0.46
0.70
0.40
-0.28
-0.96
-1.26
-1.03
-0.39
0.27
0.59
0.38
-0.24
-0.92
-1.28
-1.12
-0.51
0.24
0.80
0.96
0.81
0.58
0.51
0.67
0.87
0.84
0.41
-0.34
-1.08
-1.40
-1.11
-0.34
0.49
0.94
0.75
0.07
-0.68
-1.01
-0.68
0.23
1.27
1.93
1.87
1.12
0.08
-0.72
-0.88
-0.38
0.42
0.98
0.89
0.13
-0.91
-1.70
-1.82
-1.25
-0.33
0.43
0.68
0.39
-0.11
-0.39
-0.18
0.44
1.08
1.27
0.81
-0.16
-1.16
-1.66
-1.38
-0.44
0.68
1.41
1.44
0.85
0.04
-0.51
-0.51
-0.06
0.47
0.68
0.35
-0.41
-1.24
-1.74
-1.63
-0.96
-0.04
0.69
0.93
0.61
-0.02
-0.57
-0.69
-0.30
0.41
1.05
1.28
1.00
0.39
-0.15
-0.28
0.10
0.73
1.16
1.06
0.38
-0.54
-1.20
-1.19
-0.49
0.53
1.29
1.37
0.72
-0.25
-0.98
-1.02
-0.35
0.64
1.38
1.46
0.86
-0.03
-0.63
-0.57
0.15
1.09
1.65
1.46
0.56
-0.59
-1.38
-1.41
-0.72
0.23
0.81
0.62
-0.28
-1.47
-2.35
-2.51
-1.94
-1.00
-0.16
0.22
0.14
-0.12
-0.20
0.10
0.68
1.19
1.27
0.78
-0.06
-0.80
-1.00
-0.55
0.32
1.06
1.17
0.49
-0.76
-2.00
-2.67
-2.48
-1.58
-0.44
0.43
0.69
0.42
-0.07
-0.36
-0.23
0.24
0.73
0.92
0.64
0.03
-0.58
-0.83
-0.55
0.12
0.83
1.22
1.11
0.63
0.11
-0.10
0.16
0.72
1.21
1.24
0.71
-0.19
-0.98
-1.21
-0.71
0.28
1.22
1.59
1.15
0.14
-0.90
-1.41
-1.13
-0.30
0.54
0.81
0.34
-0.61
-1.42
-1.57
-0.94
0.10
0.90
0.97
0.23
-0.89
-1.74
-1.81
-1.04
0.15
1.11
1.35
0.82
-0.12
-0.88
-1.04
-0.58
0.15
0.62
0.48
-0.24
-1.14
-1.70
-1.54
-0.65
0.56
1.57
1.95
1.60
0.81
0.04
-0.30
-0.11
0.44
0.96
1.15
0.91
0.46
0.17
0.32
0.90
1.62
2.05
1.90
1.21
0.29
-0.39
-0.48
0.04
0.91
1.66
1.89
1.48
0.62
-0.29
-0.89
-1.01
-0.83
-0.68
-0.81
-1.25
-1.73
-1.88
-1.45
-0.54
0.49
1.13
1.10
0.48
-0.33
-0.85
-0.81
-0.29
0.32
0.55
0.17
-0.73
-1.70
-2.26
-2.08
-1.23
-0.12
0.71
0.89
0.41
-0.39
-0.99
-1.01
-0.44
0.39
0.93
0.81
0.03
-1.05
-1.86
-1.94
-1.26
-0.19
0.72
1.04
0.71
0.08
-0.38
-0.28
0.41
1.36
2.08
2.23
1.76
0.95
0.23
-0.09
0.04
0.40
0.61
0.45
-0.06
-0.61
-0.82
-0.48
0.32
1.15
1.57
1.35
0.62
-0.17
-0.55
-0.27
0.46
1.13
1.21
0.43
-0.97
-2.42
-3.25
-3.13
-2.19
-0.95
-0.01
0.30
0.03
-0.42
-0.66
-0.49
-0.04
0.36
0.41
0.04
-0.51
-0.91
-0.88
-0.43
0.24
0.74
0.80
0.37
-0.34
-0.98
-1.19
-0.84
-0.05
0.85
1.46
1.55
1.16
0.52
-0.02
-0.23
-0.10
0.19
0.34
0.21
-0.15
-0.50
-0.54
-0.19
0.39
0.86
0.93
0.56
0.03
-0.26
0.01
0.81
1.76
2.35
2.23
1.40
0.26
-0.62
-0.78
-0.20
0.81
1.67
1.94
1.49
0.60
-0.24
-0.62
-0.48
-0.10
0.02
-0.45
-1.49
-2.68
-3.43
-3.36
-2.48
-1.27
-0.35
-0.16
-0.69
-1.52
-2.02
-1.74
-0.66
0.79
1.96
2.36
1.88
0.86
-0.10
-0.53
-0.30
0.35
0.94
1.06
0.62
-0.15
-0.80
-0.97
-0.63
-0.03
0.38
0.31
-0.27
-1.05
-1.55
-1.44
-0.68
0.40
1.33
1.72
1.50
0.94
0.47
0.43
0.89
1.57
2.06
2.01
1.35
0.35
-0.57
-1.05
-0.97
-0.54
-0.13
-0.01
-0.22
-0.50
-0.51
-0.02
0.90
1.85
2.35
2.07
1.09
-0.19
-1.19
-1.49
-1.09
-0.34
0.20
0.16
-0.48
-1.34
-1.87
-1.70
-0.83
0.34
1.21
1.36
0.76
-0.23
-1.08
-1.40
-1.13
-0.57
-0.20
-0.33
-0.96
-1.69
-2.03
-1.67
-0.68
0.49
1.27
1.30
0.67
-0.14
-0.57
-0.28
0.62
1.63
2.14
1.81
0.77
-0.46
-1.23
-1.15
-0.28
0.92
1.83
2.04
1.55
0.76
0.19
0.14
0.56
1.02
1.08
0.52
-0.46
-1.33
-1.64
-1.20
-0.30
0.48
0.62
0.00
-1.06
-1.99
-2.24
-1.67
-0.57
0.47
0.95
0.68
-0.07
-0.77
-0.95
-0.47
0.37
1.07
1.16
0.56
-0.42
-1.22
-1.40
-0.91
-0.06
0.56
0.57
-0.08
-1.01
-1.63
-1.56
-0.79
0.32
1.24
1.55
1.18
0.41
-0.33
-0.66
-0.50
-0.04
0.37
0.42
0.04
-0.57
-1.04
-1.04
-0.47
0.45
1.34
1.79
1.67
1.11
0.48
0.15
0.23
0.61
0.97
1.05
0.80
0.40
0.16
0.28
0.75
1.29
1.53
1.24
0.44
-0.56
-1.35
-1.64
-1.44
-1.01
-0.74
-0.85
-1.32
-1.83
-1.99
-1.59
-0.71
0.27
0.87
0.81
0.18
-0.63
-1.11
-0.96
-0.24
0.63
1.15
1.05
0.42
-0.27
-0.53
-0.16
0.68
1.45
1.62
0.96
-0.33
-1.69
-2.53
-2.52
-1.77
-0.74
0.02
0.18
-0.20
-0.76
-1.02
-0.66
0.27
1.41
2.24
2.41
1.89
0.97
0.15
-0.20
0.04
0.61
1.09
1.12
0.66
-0.03
-0.50
-0.44
0.15
0.90
1.34
1.15
0.39
-0.51
-1.05
-0.90
-0.12
0.83
1.37
1.14
0.20
-0.95
-1.69
-1.62
-0.80
0.27
0.91
0.72
-0.24
-1.45
-2.28
-2.32
-1.64
-0.69
-0.01
0.11
-0.23
-0.64
-0.72
-0.33
0.36
0.95
1.10
0.68
-0.12
-0.94
-1.44
-1.48
-1.18
-0.80
-0.62
-0.70
-0.90
-0.96
-0.63
0.10
1.07
1.92
2.31
2.06
1.31
0.37
-0.37
-0.62
-0.39
0.10
0.49
0.52
0.20
-0.22
-0.42
-0.19
0.40
1.05
1.36
1.16
0.56
-0.07
-0.32
-0.02
0.66
1.31
1.50
1.09
0.30
-0.42
-0.66
-0.33
0.31
0.81
0.77
0.15
-0.74
-1.43
-1.57
-1.10
-0.34
0.28
0.42
0.02
-0.64
-1.12
-1.09
-0.49
0.40
1.13
1.34
0.95
0.20
-0.47
-0.68
-0.33
0.35
0.94
1.09
0.74
0.13
-0.34
-0.36
0.08
0.72
1.13
1.05
0.50
-0.20
-0.65
-0.59
-0.08
0.55
0.89
0.71
0.10
-0.57
-0.87
-0.57
0.22
1.10
1.63
1.57
1.03
0.38
0.06
0.21
0.69
1.12
1.08
0.48
-0.49
-1.39
-1.83
-1.66
-1.09
-0.53
-0.34
-0.64
-1.27
-1.86
-2.07
-1.78
-1.14
-0.50
-0.21
-0.43
-1.03
-1.61
-1.76
-1.25
-0.19
1.00
1.79
1.88
1.27
0.36
-0.30
-0.34
0.25
1.12
1.76
1.78
1.16
0.23
-0.54
-0.78
-0.49
0.02
0.31
0.05
-0.72
-1.67
-2.32
-2.34
-1.72
-0.77
0.06
0.43
0.30
-0.07
-0.34
-0.24
0.24
0.85
1.21
1.07
0.44
-0.39
-0.98
-1.03
-0.48
0.39
1.12
1.32
0.88
0.01
-0.82
-1.20
-0.94
-0.24
0.52
0.93
0.84
0.43
0.06
0.04
0.42
0.97
1.29
1.11
0.46
-0.30
-0.68
-0.37
0.56
1.65
2.34
2.25
1.45
0.36
-0.44
-0.61
-0.18
0.48
0.86
0.70
0.09
-0.55
-0.81
-0.54
0.06
0.53
0.43
-0.32
-1.43
-2.28
-2.36
-1.50
-0.02
1.44
2.23
2.06
1.14
0.00
-0.79
-0.93
-0.55
-0.03
0.21
0.03
-0.37
-0.63
-0.47
0.08
0.69
0.91
0.48
-0.50
-1.59
-2.24
-2.07
-1.15
0.12
1.14
1.51
1.15
0.38
-0.34
-0.64
-0.45
-0.03
0.27
0.17
-0.30
-0.84
-1.07
-0.76
0.00
0.87
1.42
1.40
0.89
0.19
-0.34
-0.47
-0.25
0.09
0.25
0.04
-0.50
-1.13
-1.55
-1.53
-1.05
-0.29
0.40
0.75
0.63
0.20
-0.25
-0.43
-0.28
0.02
0.13
-0.16
-0.79
-1.41
-1.60
-1.13
-0.14
0.92
1.52
1.39
0.65
-0.26
-0.83
-0.76
-0.14
0.64
1.12
1.02
0.37
-0.49
-1.09
-1.11
-0.51
0.40
1.18
1.45
1.14
0.52
0.05
0.11
0.75
1.65
2.29
2.27
1.56
0.51
-0.29
-0.44
0.09
0.88
1.35
1.12
0.21
-0.88
-1.58
-1.52
-0.81
0.05
0.48
0.19
-0.65
-1.51
-1.86
-1.47
-0.60
0.24
0.51
0.04
-0.93
-1.86
-2.23
-1.81
-0.80
0.30
0.98
0.97
0.39
-0.34
-0.77
-0.64
0.00
0.83
1.43
1.59
1.31
0.87
0.54
0.49
0.63
0.70
0.42
-0.28
-1.25
-2.07
-2.35
-1.88
-0.81
0.43
1.29
1.43
0.89
0.04
-0.63
-0.77
-0.39
0.17
0.48
0.31
-0.24
-0.80
-0.99
-0.65
0.04
0.70
0.94
0.65
0.02
-0.60
-0.87
-0.70
-0.23
0.26
0.52
0.47
0.19
-0.11
-0.21
-0.07
0.21
0.42
0.35
-0.03
-0.56
-0.93
-0.86
-0.30
0.53
1.24
1.49
1.19
0.58
0.09
0.07
0.53
1.16
1.51
1.28
0.50
-0.46
-1.11
-1.13
-0.55
0.31
0.98
1.15
0.80
0.17
-0.33
-0.44
-0.10
0.43
0.80
0.74
0.22
-0.48
-0.95
-0.86
-0.20
0.70
1.34
1.34
0.67
-0.33
-1.15
-1.38
-0.98
-0.30
0.21
0.21
-0.31
-1.00
-1.44
-1.36
-0.77
-0.01
0.52
0.56
0.11
-0.52
-0.95
-0.90
-0.37
0.36
0.91
1.00
0.59
-0.08
-0.64
-0.79
-0.51
-0.03
0.32
0.31
-0.05
-0.50
-0.71
-0.48
0.09
0.68
0.90
0.56
-0.23
-1.10
-1.59
-1.43
-0.70
0.23
0.87
0.91
0.35
-0.47
-1.08
-1.17
-0.69
0.06
0.70
0.94
0.78
0.47
0.32
0.52
1.02
1.51
1.63
1.23
0.42
-0.42
-0.91
-0.84
-0.29
0.40
0.84
0.85
0.52
0.14
0.01
0.23
0.66
1.01
0.95
0.40
-0.50
-1.39
-1.90
-1.80
-1.15
-0.27
0.43
0.60
0.22
-0.44
-0.93
-0.93
-0.40
0.35
0.87
0.83
0.27
-0.45
-0.88
-0.75
-0.17
0.48
0.75
0.42
-0.34
-1.09
-1.40
-1.05
-0.24
0.55
0.85
0.43
-0.56
-1.65
-2.28
-2.15
-1.36
-0.32
0.42
0.52
0.05
-0.59
-0.87
-0.48
0.49
1.60
2.29
2.22
1.46
0.44
-0.31
-0.45
-0.01
0.63
1.05
1.05
0.72
0.43
0.46
0.90
1.49
1.84
1.62
0.80
-0.31
-1.22
-1.53
-1.16
-0.42
0.21
0.32
-0.19
-1.02
-1.63
-1.59
-0.83
0.31
1.28
1.59
1.14
0.24
-0.56
-0.80
-0.34
0.52
1.26
1.43
0.88
-0.14
-1.08
-1.47
-1.15
-0.37
0.37
0.64
0.28
-0.46
-1.11
-1.23
-0.74
0.09
0.80
0.99
0.59
-0.15
-0.81
-1.08
-0.90
-0.47
-0.14
-0.10
-0.36
-0.67
-0.72
-0.35
0.34
1.03
1.37
1.17
0.57
-0.07
-0.35
-0.07
0.62
1.35
1.65
1.33
0.53
-0.38
-0.96
-1.00
-0.60
-0.11
0.13
-0.05
-0.54
-1.04
-1.26
-1.05
-0.55
-0.02
0.24
0.07
-0.46
-1.08
-1.47
-1.41
-0.90
-0.16
0.48
0.76
0.61
0.21
-0.14
-0.23
-0.02
0.31
0.44
0.20
-0.37
-0.94
-1.12
-0.67
0.33
1.50
2.33
2.49
1.98
1.19
0.63
0.66
1.24
1.97
2.30
1.89
0.80
-0.50
-1.40
-1.53
-0.93
-0.03
0.60
0.62
0.09
-0.55
-0.81
-0.42
0.44
1.29
1.58
1.09
-0.04
-1.28
-2.05
-2.09
-1.50
-0.74
-0.30
-0.40
-0.89
-1.34
-1.33
-0.69
0.34
1.28
1.66
1.30
0.40
-0.56
-1.13
-1.07
-0.52
0.11
0.42
0.20
-0.38
-0.95
-1.12
-0.76
-0.01
0.68
0.88
0.44
-0.47
-1.35
-1.74
-1.40
-0.53
0.40
0.86
0.59
-0.25
-1.20
-1.73
-1.62
-0.98
-0.22
0.24
0.20
-0.20
-0.60
-0.68
-0.29
0.42
1.11
1.43
1.27
0.73
0.15
-0.13
0.06
0.64
1.26
1.55
1.27
0.49
-0.42
-1.02
-1.01
-0.43
0.38
0.92
0.88
0.27
-0.54
-1.09
-1.06
-0.46
0.36
0.97
1.10
0.81
0.40
0.20
0.39
0.81
1.14
1.06
0.47
-0.41
-1.18
-1.46
-1.16
-0.46
0.25
0.59
0.45
-0.01
-0.43
-0.48
-0.11
0.47
0.90
0.90
0.48
-0.09
-0.40
-0.21
0.44
1.21
1.66
1.53
0.84
-0.02
-0.61
-0.63
-0.08
0.72
1.33
1.42
0.93
0.12
-0.63
-1.02
-1.00
-0.76
-0.61
-0.77
-1.19
-1.65
-1.82
-1.54
-0.85
-0.06
0.47
0.48
0.00
-0.66
-1.10
-1.02
-0.40
0.44
1.04
1.06
0.43
-0.56
-1.42
-1.73
-1.35
-0.53
0.31
0.75
0.66
0.28
0.01
0.20
0.87
1.71
2.24
2.09
1.27
0.19
-0.62
-0.76
-0.23
0.61
1.25
1.36
0.92
0.28
-0.18
-0.20
0.14
0.54
0.63
0.22
-0.54
-1.30
-1.66
-1.39
-0.62
0.28
0.83
0.79
0.18
-0.61
-1.16
-1.13
-0.59
0.16
0.68
0.70
0.25
-0.33
-0.67
-0.53
-0.02
0.49
0.60
0.13
-0.75
-1.59
-1.91
-1.50
-0.53
0.49
1.05
0.89
0.19
-0.56
-0.85
-0.42
0.54
1.52
1.98
1.66
0.74
-0.31
-0.99
-1.04
-0.56
0.12
0.59
0.68
0.45
0.14
-0.01
0.08
0.29
0.40
0.21
-0.27
-0.88
-1.30
-1.29
-0.79
0.02
0.77
1.10
0.86
0.19
-0.57
-1.00
-0.88
-0.28
0.48
0.98
0.95
0.39
-0.39
-0.98
-1.07
-0.68
-0.10
0.24
0.10
-0.46
-1.05
-1.21
-0.74
0.20
1.11
1.52
1.22
0.47
-0.21
-0.36
0.15
1.03
1.72
1.79
1.13
0.04
-1.00
-1.55
-1.46
-0.94
-0.39
-0.15
-0.34
-0.82
-1.26
-1.36
-1.03
-0.45
0.06
0.22
-0.05
-0.56
-0.94
-0.92
-0.42
0.30
0.88
1.03
0.73
0.23
-0.05
0.16
0.78
1.46
1.72
1.28
0.24
-0.97
-1.77
-1.80
-1.08
0.01
0.93
1.31
1.13
0.71
0.45
0.59
1.08
1.57
1.65
1.13
0.12
-0.99
-1.77
-1.93
-1.51
-0.79
-0.15
0.13
0.04
-0.21
-0.33
-0.11
0.39
0.88
1.01
0.58
-0.30
-1.20
-1.63
-1.27
-0.21
1.05
1.93
2.00
1.32
0.33
-0.35
-0.32
0.38
1.29
1.81
1.57
0.62
-0.58
-1.45
-1.58
-0.99
-0.12
0.47
0.41
-0.27
-1.17
-1.76
-1.70
-1.04
-0.21
0.26
0.05
-0.75
-1.70
-2.26
-2.07
-1.17
0.04
1.03
1.44
1.24
0.74
0.34
0.29
0.56
0.85
0.83
0.36
-0.40
-1.04
-1.20
-0.75
0.12
1.00
1.47
1.40
0.93
0.45
0.30
0.60
1.14
1.55
1.51
0.95
0.11
-0.58
-0.81
-0.54
-0.04
0.27
0.09
-0.59
-1.44
-2.00
-1.90
-1.12
0.03
1.09
1.64
1.53
0.91
0.17
-0.35
-0.45
-0.24
-0.00
-0.02
-0.42
-1.04
-1.53
-1.57
-1.03
-0.13
0.68
0.99
0.60
-0.25
-1.05
-1.30
-0.77
0.31
1.41
1.94
1.63
0.64
-0.49
-1.17
-1.09
-0.38
0.51
1.06
1.00
0.46
-0.19
-0.57
-0.56
-0.28
-0.05
-0.08
-0.35
-0.61
-0.56
-0.01
0.91
1.85
2.36
2.19
1.40
0.34
-0.50
-0.76
-0.43
0.23
0.75
0.82
0.39
-0.23
-0.59
-0.38
0.37
1.30
1.92
1.89
1.21
0.25
-0.53
-0.80
-0.57
-0.15
0.06
-0.20
-0.86
-1.54
-1.83
-1.45
-0.54
0.48
1.09
0.99
0.24
-0.74
-1.46
-1.63
-1.27
-0.74
-0.47
-0.69
-1.29
-1.87
-2.01
-1.52
-0.58
0.34
0.79
0.55
-0.21
-1.03
-1.41
-1.06
-0.10
1.03
1.84
2.02
1.58
0.88
0.32
0.19
0.49
0.96
1.25
1.12
0.58
-0.13
-0.64
-0.73
-0.39
0.09
0.30
-0.00
-0.81
-1.73
-2.27
-2.08
-1.17
0.01
0.91
1.10
0.56
-0.29
-0.90
-0.91
-0.36
0.36
0.75
0.55
-0.09
-0.71
-0.84
-0.28
0.73
1.67
2.04
1.62
0.67
-0.30
-0.79
-0.58
0.10
0.78
1.03
0.69
-0.02
-0.64
-0.79
-0.36
0.40
1.05
1.23
0.84
0.12
-0.47
-0.57
-0.06
0.79
1.50
1.62
1.00
-0.15
-1.33
-2.07
-2.14
-1.69
-1.10
-0.74
-0.75
-1.01
-1.21
-1.08
-0.58
0.11
0.67
0.82
0.53
-0.03
-0.48
-0.50
-0.01
0.80
1.57
1.91
1.69
1.03
0.30
-0.17
-0.23
0.03
0.27
0.24
-0.14
-0.68
-1.03
-0.92
-0.33
0.51
1.18
1.35
0.96
0.24
-0.37
-0.52
-0.13
0.58
1.16
1.28
0.85
0.12
-0.51
-0.72
-0.44
0.07
0.44
0.37
-0.15
-0.81
-1.20
-1.03
-0.30
0.63
1.27
1.26
0.59
-0.34
-0.98
-0.94
-0.22
0.76
1.42
1.38
0.66
-0.33
-1.03
-1.10
-0.61
-0.01
0.19
-0.28
-1.26
-2.23
-2.68
-2.33
-1.37
-0.29
0.39
0.40
-0.12
-0.75
-1.03
-0.69
0.15
1.11
1.74
1.75
1.16
0.32
-0.33
-0.44
0.02
0.83
1.56
1.91
1.79
1.41
1.07
1.00
1.19
1.39
1.30
0.78
-0.02
-0.76
-1.09
-0.87
-0.28
0.26
0.35
-0.18
-1.15
-2.09
-2.54
-2.30
-1.52
-0.65
-0.15
-0.28
-0.90
-1.61
-1.93
-1.60
-0.73
0.27
0.91
0.93
0.42
-0.24
-0.63
-0.52
-0.02
0.52
0.74
0.53
0.06
-0.27
-0.15
0.48
1.35
2.03
2.14
1.62
0.70
-0.18
-0.66
-0.62
-0.24
0.13
0.14
-0.30
-1.01
-1.61
-1.74
-1.30
-0.50
0.22
0.48
0.21
-0.32
-0.65
-0.39
0.48
1.58
2.34
2.31
1.47
0.21
-0.85
-1.24
-0.87
-0.10
0.50
0.51
-0.10
-0.97
-1.57
-1.51
-0.80
0.19
0.92
1.04
0.58
-0.09
-0.49
-0.33
0.29
0.99
1.33
1.10
0.43
-0.29
-0.64
-0.43
0.21
0.95
1.44
1.51
1.25
0.91
0.72
0.81
1.09
1.30
1.20
0.69
-0.12
-0.89
-1.27
-1.07
-0.40
0.39
0.83
0.66
-0.07
-1.03
-1.71
-1.79
-1.28
-0.49
0.12
0.27
-0.03
-0.48
-0.74
-0.60
-0.20
0.14
0.05
-0.61
-1.63
-2.55
-2.91
-2.50
-1.50
-0.38
0.34
0.40
-0.07
-0.64
-0.82
-0.38
0.54
1.48
1.92
1.63
0.79
-0.14
-0.62
-0.41
0.34
1.15
1.52
1.20
0.34
-0.58
-1.07
-0.91
-0.26
0.43
0.71
0.36
-0.41
-1.15
-1.38
-0.91
0.08
1.15
1.80
1.78
1.17
0.36
-0.19
-0.20
0.29
0.95
1.34
1.17
0.50
-0.35
-0.93
-0.97
-0.55
0.00
0.24
-0.07
-0.81
-1.57
-1.90
-1.57
-0.70
0.25
0.79
0.65
-0.06
-0.88
-1.34
-1.15
-0.41
0.47
0.99
0.91
0.29
-0.45
-0.84
-0.60
0.22
1.24
1.99
2.16
1.77
1.10
0.55
0.37
0.54
0.78
0.78
0.37
-0.33
-0.97
-1.21
-0.92
-0.26
0.39
0.65
0.38
-0.24
-0.82
-1.00
-0.62
0.15
0.93
1.36
1.24
0.67
-0.01
-0.49
-0.59
-0.41
-0.21
-0.23
-0.52
-0.88
-0.99
-0.65
0.09
0.91
1.36
1.15
0.31
-0.83
-1.74
-2.01
-1.54
-0.59
0.37
0.90
0.83
0.35
-0.17
-0.34
-0.10
0.38
0.73
0.68
0.27
-0.20
-0.35
0.05
0.87
1.68
1.99
1.53
0.40
-0.94
-1.93
-2.17
-1.65
-0.73
0.08
0.36
0.06
-0.54
-0.99
-0.97
-0.45
0.23
0.62
0.43
-0.25
-1.02
-1.39
-1.02
-0.02
1.18
2.05
2.25
1.83
1.15
0.65
0.61
0.95
1.33
1.37
0.88
-0.01
-0.91
-1.39
-1.26
-0.66
0.04
0.41
0.26
-0.31
-0.90
-1.09
-0.69
0.18
1.12
1.68
1.59
0.94
0.12
-0.45
-0.50
-0.12
0.36
0.52
0.18
-0.55
-1.28
-1.64
-1.41
-0.77
-0.11
0.15
-0.21
-1.01
-1.84
-2.25
-1.96
-1.05
0.11
1.03
1.38
1.11
0.47
-0.13
-0.39
-0.26
0.02
0.12
-0.16
-0.73
-1.29
-1.47
-1.12
-0.36
0.44
0.93
0.93
0.57
0.20
0.17
0.61
1.40
2.16
2.53
2.31
1.62
0.77
0.19
0.12
0.50
1.06
1.36
1.13
0.39
-0.59
-1.37
-1.62
-1.30
-0.64
-0.04
0.20
0.00
-0.43
-0.77
-0.76
-0.43
-0.05
0.03
-0.42
-1.30
-2.19
-2.61
-2.29
-1.34
-0.21
0.53
0.55
-0.07
-0.91
-1.44
-1.38
-0.80
-0.09
0.32
0.21
-0.33
-0.93
-1.20
-0.94
-0.28
0.45
0.86
0.81
0.44
0.09
0.07
0.48
1.13
1.64
1.69
1.19
0.34
-0.45
-0.83
-0.68
-0.15
0.46
0.86
0.96
0.86
0.73
0.75
0.95
1.17
1.23
0.98
0.45
-0.13
-0.49
-0.45
-0.04
0.49
0.83
0.73
0.21
-0.50
-1.02
-1.08
-0.65
0.04
0.63
0.79
0.46
-0.16
-0.70
-0.84
-0.51
0.12
0.69
0.90
0.67
0.17
-0.23
-0.29
0.06
0.57
0.91
0.81
0.29
-0.43
-0.95
-1.00
-0.57
0.16
0.84
1.17
1.06
0.63
0.11
-0.25
-0.38
-0.36
-0.36
-0.53
-0.91
-1.36
-1.62
-1.47
-0.86
0.04
0.86
1.27
1.12
0.52
-0.17
-0.58
-0.50
-0.03
0.51
0.79
0.63
0.14
-0.36
-0.54
-0.29
0.26
0.75
0.87
0.51
-0.13
-0.69
-0.86
-0.55
0.02
0.50
0.59
0.24
-0.36
-0.83
-0.89
-0.50
0.12
0.61
0.65
0.16
-0.64
-1.35
-1.65
-1.44
-0.92
-0.50
-0.48
-0.92
-1.53
-1.86
-1.60
-0.76
0.32
1.14
1.34
0.92
0.21
-0.32
-0.33
0.15
0.80
1.19
1.03
0.37
-0.44
-0.98
-0.96
-0.45
0.22
0.64
0.56
0.04
-0.57
-0.83
-0.48
0.41
1.44
2.13
2.15
1.52
0.60
-0.09
-0.20
0.34
1.19
1.88
2.06
1.64
0.88
0.19
-0.12
0.00
0.36
0.61
0.52
0.09
-0.47
-0.79
-0.65
-0.06
0.70
1.24
1.27
0.78
0.03
-0.57
-0.70
-0.32
0.30
0.73
0.66
0.05
-0.80
-1.44
-1.53
-1.03
-0.27
0.30
0.35
-0.13
-0.81
-1.27
-1.20
-0.66
0.01
0.32
0.02
-0.79
-1.68
-2.17
-2.00
-1.27
-0.41
0.08
-0.03
-0.62
-1.26
-1.50
-1.10
-0.20
0.78
1.38
1.40
0.95
0.42
0.21
0.44
0.97
1.38
1.30
0.62
-0.43
-1.34
-1.65
-1.18
-0.15
0.96
1.62
1.59
0.98
0.18
-0.41
-0.54
-0.30
0.00
0.06
-0.28
-0.89
-1.42
-1.57
-1.18
-0.37
0.53
1.14
1.26
0.92
0.40
0.05
0.05
0.31
0.51
0.30
-0.45
-1.54
-2.52
-2.88
-2.39
-1.23
0.10
1.00
1.13
0.55
-0.25
-0.72
-0.49
0.37
1.43
2.15
2.21
1.66
0.91
0.41
0.42
0.86
1.39
1.62
1.39
0.84
0.26
-0.06
-0.02
0.23
0.45
0.42
0.10
-0.35
-0.66
-0.66
-0.35
0.09
0.39
0.32
-0.10
-0.65
-1.04
-1.04
-0.63
-0.05
0.38
0.42
0.06
-0.49
-0.91
-0.96
-0.60
-0.02
0.48
0.63
0.37
-0.15
-0.61
-0.75
-0.46
0.09
0.55
0.62
0.18
-0.58
-1.26
-1.45
-1.03
-0.20
0.55
0.80
0.42
-0.35
-1.02
-1.18
-0.71
0.11
0.75
0.81
0.25
-0.56
-1.10
-0.96
-0.18
0.85
1.60
1.71
1.22
0.52
0.08
0.19
0.79
1.50
1.86
1.64
0.93
0.12
-0.38
-0.37
0.03
0.42
0.40
-0.18
-1.11
-1.95
-2.25
-1.84
-0.93
-0.04
0.35
0.03
-0.82
-1.71
-2.09
-1.69
-0.65
0.59
1.45
1.59
1.01
0.10
-0.62
-0.80
-0.43
0.18
0.57
0.45
-0.18
-0.96
-1.44
-1.28
-0.50
0.54
1.34
1.51
1.01
0.19
-0.41
-0.40
0.24
1.16
1.79
1.78
1.14
0.28
-0.28
-0.22
0.35
0.97
1.10
0.51
-0.59
-1.63
-2.01
-1.46
-0.17
1.21
1.99
1.76
0.64
-0.73
-1.57
-1.34
-0.10
1.55
2.77
3.02
2.26
1.00
-0.08
-0.51
-0.29
0.16
0.33
-0.05
-0.79
-1.45
-1.59
-1.06
-0.15
0.60
0.74
0.14
-0.90
-1.80
-2.10
-1.63
-0.67
0.24
0.57
0.13
-0.82
-1.76
-2.16
-1.80
-0.88
0.11
0.67
0.58
0.00
-0.66
-0.99
-0.78
-0.18
0.43
0.67
0.38
-0.24
-0.80
-0.92
-0.48
0.30
0.95
1.06
0.49
-0.51
-1.41
-1.67
-1.11
0.04
1.17
1.69
1.32
0.26
-0.92
-1.62
-1.48
-0.62
0.48
1.26
1.39
0.91
0.22
-0.20
-0.11
0.43
1.06
1.40
1.28
0.83
0.38
0.23
0.50
1.00
1.40
1.38
0.91
0.22
-0.33
-0.43
-0.07
0.46
0.71
0.38
-0.51
-1.59
-2.34
-2.38
-1.67
-0.56
0.42
0.87
0.73
0.25
-0.15
-0.16
0.22
0.76
1.09
0.99
0.50
-0.08
-0.34
-0.09
0.58
1.28
1.56
1.16
0.19
-0.91
-1.60
-1.56
-0.85
0.11
0.77
0.76
0.09
-0.88
-1.62
-1.72
-1.13
-0.15
0.72
1.07
0.79
0.17
-0.36
-0.39
0.14
0.92
1.46
1.36
0.55
-0.64
-1.68
-2.10
-1.77
-0.94
-0.10
0.32
0.18
-0.33
-0.76
-0.72
-0.07
0.94
1.84
2.18
1.78
0.90
0.04
-0.30
0.05
0.82
1.48
1.54
0.88
-0.18
-1.07
-1.29
-0.77
0.18
0.97
1.14
0.63
-0.24
-0.99
-1.21
-0.87
-0.26
0.18
0.16
-0.33
-0.95
-1.28
-1.04
-0.26
0.66
1.23
1.12
0.36
-0.61
-1.26
-1.22
-0.53
0.37
0.93
0.78
-0.02
-1.02
-1.63
-1.46
-0.56
0.62
1.49
1.66
1.10
0.22
-0.45
-0.59
-0.20
0.29
0.40
-0.12
-1.13
-2.13
-2.57
-2.18
-1.11
0.13
0.98
1.13
0.66
-0.00
-0.42
-0.31
0.24
0.87
1.22
1.07
0.52
-0.09
-0.39
-0.18
0.44
1.12
1.43
1.13
0.30
-0.68
-1.33
-1.32
-0.68
0.23
0.90
0.99
0.50
-0.25
-0.76
-0.70
-0.12
0.62
1.01
0.75
-0.09
-1.07
-1.67
-1.59
-0.92
-0.09
0.42
0.37
-0.08
-0.52
-0.55
-0.05
0.72
1.32
1.37
0.82
0.01
-0.58
-0.57
0.09
1.07
1.89
2.12
1.66
0.76
-0.12
-0.54
-0.32
0.39
1.19
1.64
1.52
0.92
0.16
-0.39
-0.53
-0.31
-0.01
0.02
-0.37
-1.12
-1.89
-2.29
-2.08
-1.35
-0.44
0.21
0.31
-0.10
-0.65
-0.88
-0.51
0.37
1.37
1.94
1.77
0.96
-0.06
-0.75
-0.78
-0.23
0.51
0.98
0.91
0.41
-0.19
-0.48
-0.30
0.20
0.63
0.62
0.08
-0.76
-1.48
-1.72
-1.43
-0.84
-0.36
-0.31
-0.68
-1.20
-1.48
-1.25
-0.57
0.26
0.79
0.78
0.25
-0.49
-0.99
-0.95
-0.37
0.46
1.08
1.14
0.59
-0.30
-1.10
-1.41
-1.13
-0.47
0.20
0.57
0.54
0.30
0.13
0.26
0.67
1.12
1.29
1.00
0.35
-0.32
-0.59
-0.21
0.68
1.62
2.08
1.73
0.66
-0.66
-1.64
-1.88
-1.35
-0.41
0.42
0.78
0.61
0.16
-0.24
-0.34
-0.13
0.17
0.27
-0.01
-0.58
-1.14
-1.32
-0.87
0.09
1.14
1.75
1.58
0.72
-0.36
-1.06
-1.02
-0.31
0.57
1.08
0.93
0.25
-0.46
-0.74
-0.39
0.40
1.15
1.40
0.99
0.09
-0.88
-1.51
-1.58
-1.21
-0.69
-0.35
-0.37
-0.65
-0.95
-0.96
-0.58
0.08
0.69
0.93
0.64
-0.05
-0.78
-1.14
-0.86
-0.02
0.98
1.63
1.58
0.83
-0.20
-0.93
-0.94
-0.18
0.95
1.87
2.14
1.69
0.85
0.15
-0.06
0.24
0.73
0.96
0.66
-0.09
-0.95
-1.48
-1.44
-0.94
-0.35
-0.11
-0.41
-1.10
-1.74
-1.85
-1.21
-0.02
1.18
1.81
1.58
0.67
-0.38
-0.96
-0.76
0.06
0.98
1.45
1.20
0.39
-0.49
-0.98
-0.87
-0.35
0.18
0.33
-0.00
-0.62
-1.16
-1.34
-1.10
-0.66
-0.35
-0.39
-0.79
-1.32
-1.63
-1.46
-0.78
0.18
1.00
1.33
1.04
0.31
-0.49
-0.96
-0.88
-0.30
0.49
1.11
1.31
1.05
0.55
0.08
-0.12
-0.00
0.29
0.53
0.53
0.33
0.09
0.05
0.35
0.87
1.31
1.34
0.83
-0.06
-0.85
-1.10
-0.58
0.46
1.48
1.89
1.41
0.26
-0.99
-1.69
-1.51
-0.62
0.44
1.12
1.15
0.66
0.12
-0.08
0.14
0.51
0.57
0.01
-1.04
-2.12
-2.60
-2.16
-0.91
0.58
1.57
1.63
0.81
-0.36
-1.19
-1.16
-0.28
0.99
1.97
2.15
1.48
0.35
-0.61
-0.95
-0.60
0.13
0.71
0.77
0.29
-0.41
-0.88
-0.83
-0.33
0.26
0.51
0.13
-0.77
-1.79
-2.42
-2.31
-1.46
-0.22
0.85
1.31
1.00
0.17
-0.72
-1.20
-1.04
-0.38
0.42
1.00
1.20
1.15
1.14
1.39
1.88
2.33
2.39
1.87
0.89
-0.15
-0.80
-0.82
-0.31
0.38
0.80
0.69
0.12
-0.59
-1.02
-0.92
-0.34
0.38
0.82
0.70
0.04
-0.83
-1.46
-1.54
-1.06
-0.35
0.18
0.23
-0.14
-0.57
-0.61
-0.05
0.99
2.03
2.53
2.22
1.22
0.01
-0.86
-1.06
-0.64
0.06
0.54
0.49
-0.11
-0.98
-1.69
-1.92
-1.62
-1.00
-0.43
-0.20
-0.39
-0.78
-1.05
-0.97
-0.54
-0.05
0.15
-0.15
-0.81
-1.46
-1.67
-1.27
-0.40
0.49
0.94
0.74
0.07
-0.64
-0.90
-0.50
0.38
1.33
1.87
1.77
1.15
0.44
0.07
0.23
0.74
1.15
1.02
0.23
-0.98
-2.02
-2.37
-1.83
-0.67
0.52
1.13
0.86
-0.11
-1.22
-1.85
-1.68
-0.81
0.24
0.85
0.67
-0.21
-1.26
-1.85
-1.60
-0.58
0.71
1.69
1.98
1.61
1.00
0.61
0.68
1.09
1.46
1.39
0.80
-0.08
-0.75
-0.79
-0.10
0.97
1.88
2.11
1.50
0.32
-0.83
-1.41
-1.23
-0.49
0.28
0.63
0.37
-0.29
-0.88
-0.99
-0.48
0.37
1.06
1.12
0.44
-0.69
-1.70
-2.04
-1.56
-0.52
0.51
1.02
0.83
0.16
-0.51
-0.77
-0.48
0.12
0.59
0.57
-0.02
-0.92
-1.68
-1.91
-1.49
-0.63
0.21
0.67
0.59
0.19
-0.11
0.04
0.70
1.59
2.20
2.12
1.29
0.05
-1.03
-1.49
-1.19
-0.41
0.34
0.63
0.32
-0.39
-1.06
-1.28
-0.91
-0.11
0.72
1.18
1.10
0.65
0.19
0.10
0.51
1.22
1.78
1.78
1.10
0.04
-0.88
-1.15
-0.65
0.33
1.21
1.50
1.05
0.16
-0.65
-0.95
-0.65
-0.01
0.51
0.59
0.22
-0.31
-0.65
-0.56
-0.12
0.38
0.56
0.21
-0.59
-1.52
-2.18
-2.30
-1.91
-1.27
-0.78
-0.73
-1.12
-1.68
-1.98
-1.75
-0.99
-0.06
0.59
0.66
0.23
-0.29
-0.41
0.15
1.24
2.33
2.87
2.56
1.55
0.41
-0.26
-0.12
0.72
1.72
2.25
1.91
0.76
-0.73
-1.91
-2.28
-1.79
-0.76
0.25
0.77
0.65
0.11
-0.47
-0.75
-0.66
-0.38
-0.23
-0.39
-0.82
-1.22
-1.23
-0.67
0.32
1.39
2.04
2.00
1.31
0.35
-0.39
-0.55
-0.11
0.61
1.16
1.22
0.79
0.18
-0.17
0.02
0.69
1.47
1.88
1.64
0.82
-0.17
-0.85
-0.97
-0.62
-0.20
-0.15
-0.65
-1.49
-2.16
-2.19
-1.44
-0.21
0.91
1.36
0.95
-0.07
-1.10
-1.58
-1.29
-0.48
0.28
0.44
-0.22
-1.41
-2.48
-2.81
-2.15
-0.78
0.62
1.40
1.28
0.48
-0.39
-0.73
-0.33
0.55
1.37
1.64
1.20
0.34
-0.45
-0.75
-0.43
0.25
0.86
1.04
0.72
0.10
-0.41
-0.48
-0.04
0.69
1.31
1.45
1.00
0.18
-0.60
-0.91
-0.62
0.12
0.90
1.34
1.29
0.89
0.49
0.35
0.52
0.73
0.67
0.13
-0.81
-1.77
-2.31
-2.17
-1.44
-0.52
0.13
0.20
-0.26
-0.90
-1.24
-0.97
-0.10
1.04
1.95
2.25
1.86
1.01
0.14
-0.39
-0.40
-0.06
0.33
0.45
0.20
-0.25
-0.62
-0.67
-0.37
0.04
0.25
0.04
-0.52
-1.15
-1.45
-1.17
-0.39
0.55
1.21
1.31
0.87
0.24
-0.14
0.00
0.63
1.35
1.70
1.36
0.40
-0.71
-1.40
-1.25
-0.30
1.04
2.11
2.45
1.96
1.02
0.19
-0.10
0.26
0.92
1.37
1.22
0.43
-0.67
-1.51
-1.69
-1.14
-0.19
0.62
0.86
0.44
-0.33
-0.99
-1.17
-0.85
-0.36
-0.13
-0.43
-1.20
-2.09
-2.62
-2.49
-1.74
-0.74
0.05
0.27
-0.08
-0.71
-1.18
-1.17
-0.67
0.01
0.45
0.35
-0.25
-0.98
-1.38
-1.13
-0.29
0.72
1.39
1.35
0.61
-0.47
-1.34
-1.63
-1.28
-0.60
-0.04
0.07
-0.27
-0.70
-0.78
-0.24
0.78
1.81
2.31
2.03
1.16
0.19
-0.34
-0.21
0.40
1.04
1.29
0.99
0.37
-0.17
-0.26
0.19
0.96
1.63
1.84
1.49
0.80
0.17
-0.08
0.12
0.55
0.85
0.69
0.07
-0.75
-1.33
-1.32
-0.68
0.29
1.12
1.41
1.07
0.37
-0.24
-0.39
0.02
0.71
1.24
1.21
0.57
-0.41
-1.25
-1.55
-1.24
-0.55
0.09
0.33
0.05
-0.55
-1.12
-1.33
-1.08
-0.56
-0.10
-0.03
-0.42
-1.09
-1.60
-1.61
-1.02
-0.11
0.62
0.72
0.11
-0.86
-1.59
-1.60
-0.79
0.43
1.43
1.70
1.18
0.24
-0.51
-0.60
0.02
0.97
1.68
1.71
0.99
-0.12
-1.09
-1.45
-1.08
-0.27
0.52
0.85
0.61
0.05
-0.39
-0.38
0.12
0.79
1.14
0.87
0.03
-0.96
-1.53
-1.33
-0.41
0.76
1.55
1.55
0.77
-0.32
-1.11
-1.18
-0.55
0.33
0.88
0.70
-0.19
-1.40
-2.33
-2.57
-2.06
-1.11
-0.19
0.30
0.31
0.05
-0.08
0.16
0.77
1.46
1.81
1.57
0.81
-0.07
-0.55
-0.32
0.51
1.45
1.91
1.57
0.54
-0.62
-1.30
-1.12
-0.23
0.83
1.41
1.19
0.30
-0.74
-1.34
-1.22
-0.53
0.22
0.53
0.19
-0.59
-1.30
-1.47
-0.94
0.03
0.94
1.28
0.87
-0.07
-1.03
-1.50
-1.27
-0.46
0.48
1.08
1.09
0.60
-0.01
-0.31
-0.07
0.61
1.35
1.72
1.47
0.69
-0.26
-0.90
-0.97
-0.49
0.19
0.63
0.52
-0.10
-0.92
-1.49
-1.51
-0.98
-0.20
0.39
0.51
0.19
-0.23
-0.33
0.15
1.10
2.10
2.65
2.50
1.77
0.88
0.32
0.30
0.71
1.16
1.22
0.73
-0.14
-0.99
-1.39
-1.21
-0.60
0.02
0.29
0.01
-0.66
-1.33
-1.63
-1.40
-0.81
-0.26
-0.17
-0.65
-1.46
-2.11
-2.14
-1.40
-0.22
0.84
1.24
0.83
-0.10
-0.96
-1.27
-0.90
-0.16
0.38
0.31
-0.40
-1.33
-1.90
-1.69
-0.72
0.55
1.52
1.77
1.29
0.49
-0.11
-0.13
0.42
1.19
1.69
1.64
1.04
0.24
-0.36
-0.48
-0.14
0.36
0.64
0.44
-0.17
-0.87
-1.26
-1.12
-0.54
0.12
0.44
0.26
-0.29
-0.79
-0.85
-0.35
0.47
1.13
1.23
0.65
-0.32
-1.23
-1.64
-1.40
-0.71
0.02
0.37
0.16
-0.43
-1.04
-1.24
-0.83
0.06
1.03
1.60
1.54
0.92
0.16
-0.30
-0.19
0.43
1.17
1.61
1.48
0.81
-0.04
-0.70
-0.86
-0.54
0.01
0.40
0.39
-0.07
-0.72
-1.22
-1.29
-0.89
-0.25
0.30
0.50
0.33
0.00
-0.15
0.10
0.75
1.51
1.98
1.88
1.20
0.27
-0.46
-0.66
-0.33
0.24
0.60
0.48
-0.04
-0.58
-0.68
-0.14
0.82
1.68
1.90
1.27
0.06
-1.12
-1.69
-1.42
-0.60
0.18
0.38
-0.20
-1.24
-2.11
-2.29
-1.64
-0.52
0.48
0.85
0.48
-0.29
-0.94
-1.04
-0.53
0.28
0.91
1.02
0.59
-0.05
-0.47
-0.37
0.22
0.96
1.39
1.22
0.49
-0.42
-1.03
-1.01
-0.39
0.46
1.06
1.07
0.47
-0.39
-0.99
-0.96
-0.26
0.74
1.45
1.44
0.64
-0.62
-1.71
-2.14
-1.74
-0.79
0.15
0.61
0.41
-0.19
-0.78
-0.98
-0.71
-0.25
0.06
-0.03
-0.45
-0.85
-0.85
-0.25
0.76
1.70
2.07
1.60
0.46
-0.83
-1.63
-1.56
-0.64
0.63
1.61
1.80
1.14
0.02
-0.96
-1.27
-0.81
0.12
0.95
1.22
0.84
0.12
-0.44
-0.46
0.07
0.77
1.13
0.84
-0.01
-0.96
-1.47
-1.25
-0.40
0.59
1.16
1.02
0.32
-0.49
-0.86
-0.54
0.33
1.23
1.65
1.32
0.37
-0.69
-1.36
-1.33
-0.68
0.23
0.95
1.18
0.92
0.40
-0.06
-0.20
0.02
0.42
0.70
0.66
0.25
-0.29
-0.65
-0.60
-0.13
0.46
0.76
0.50
-0.28
-1.16
-1.64
-1.38
-0.46
0.66
1.43
1.46
0.81
-0.10
-0.74
-0.81
-0.36
0.19
0.37
-0.04
-0.89
-1.75
-2.15
-1.89
-1.14
-0.36
0.02
-0.17
-0.75
-1.29
-1.39
-0.97
-0.25
0.31
0.36
-0.19
-1.05
-1.75
-1.87
-1.33
-0.34
0.66
1.28
1.41
1.18
0.97
1.09
1.63
2.42
3.06
3.23
2.81
1.97
1.11
0.60
0.59
0.88
1.08
0.79
-0.07
-1.22
-2.14
-2.36
-1.77
-0.66
0.37
0.82
0.49
-0.39
-1.31
-1.83
-1.78
-1.37
-0.98
-0.92
-1.22
-1.61
-1.68
-1.19
-0.19
0.95
1.76
1.91
1.43
0.71
0.18
0.16
0.57
1.05
1.16
0.69
-0.19
-1.03
-1.32
-0.82
0.27
1.46
2.16
2.07
1.26
0.18
-0.63
-0.80
-0.34
0.44
1.02
1.07
0.53
-0.28
-0.89
-0.98
-0.53
0.12
0.53
0.39
-0.24
-1.01
-1.45
-1.34
-0.79
-0.20
-0.02
-0.42
-1.19
-1.91
-2.15
-1.79
-1.03
-0.31
0.01
-0.14
-0.53
-0.76
-0.54
0.13
0.97
1.56
1.62
1.12
0.37
-0.20
-0.26
0.26
1.13
1.89
2.18
1.82
0.97
0.01
-0.67
-0.86
-0.59
-0.12
0.19
0.15
-0.22
-0.67
-0.90
-0.72
-0.19
0.43
0.78
0.67
0.18
-0.31
-0.39
0.16
1.19
2.20
2.62
2.15
0.93
-0.51
-1.53
-1.77
-1.26
-0.41
0.30
0.57
0.45
0.26
0.30
0.71
1.31
1.77
1.79
1.29
0.52
-0.16
-0.42
-0.22
0.18
0.40
0.16
-0.53
-1.36
-1.87
-1.76
-1.02
-0.01
0.76
0.89
0.31
-0.70
-1.64
-2.08
-1.86
-1.19
-0.48
-0.12
-0.24
-0.66
-0.98
-0.91
-0.45
0.11
0.32
-0.06
-0.90
-1.75
-2.06
-1.53
-0.35
0.96
1.79
1.82
1.15
0.28
-0.25
-0.16
0.42
1.01
1.14
0.59
-0.44
-1.45
-1.94
-1.63
-0.69
0.41
1.16
1.25
0.73
-0.01
-0.52
-0.51
-0.01
0.64
1.03
0.92
0.37
-0.27
-0.63
-0.47
0.09
0.70
0.98
0.75
0.14
-0.51
-0.81
-0.63
-0.09
0.45
0.65
0.38
-0.20
-0.77
-1.00
-0.75
-0.14
0.49
0.81
0.67
0.17
-0.38
-0.68
-0.54
-0.07
0.45
0.69
0.52
0.01
-0.48
-0.60
-0.19
0.60
1.36
1.66
1.28
0.38
-0.56
-1.01
-0.68
0.33
1.56
2.44
2.61
2.08
1.19
0.38
-0.06
-0.10
0.03
0.06
-0.17
-0.56
-0.88
-0.87
-0.44
0.23
0.78
0.88
0.37
-0.57
-1.54
-2.12
-2.10
-1.57
-0.91
-0.52
-0.58
-0.91
-1.12
-0.83
0.01
1.10
1.91
1.98
1.26
0.08
-0.98
-1.44
-1.21
-0.57
-0.03
0.06
-0.35
-0.93
-1.25
-1.05
-0.38
0.38
0.80
0.66
0.06
-0.57
-0.78
-0.37
0.47
1.26
1.47
0.89
-0.27
-1.43
-2.01
-1.70
-0.69
0.50
1.26
1.27
0.64
-0.16
-0.60
-0.36
0.48
1.49
2.13
2.08
1.36
0.34
-0.47
-0.70
-0.31
0.43
1.04
1.19
0.79
0.11
-0.42
-0.48
-0.07
0.47
0.64
0.15
-0.90
-2.03
-2.66
-2.42
-1.41
-0.11
0.87
1.18
0.87
0.32
-0.00
0.13
0.61
1.07
1.17
0.75
-0.03
-0.81
-1.23
-1.14
-0.69
-0.21
-0.04
-0.30
-0.79
-1.13
-0.95
-0.16
0.98
1.97
2.29
1.75
0.58
-0.67
-1.41
-1.36
-0.68
0.15
0.55
0.29
-0.49
-1.30
-1.64
-1.35
-0.64
0.02
0.20
-0.17
-0.81
-1.26
-1.13
-0.37
0.67
1.50
1.71
1.21
0.27
-0.64
-1.07
-0.88
-0.20
0.56
1.02
0.97
0.52
-0.04
-0.40
-0.40
-0.16
0.04
-0.09
-0.57
-1.19
-1.53
-1.26
-0.35
0.89
1.93
2.33
1.97
1.11
0.25
-0.18
-0.03
0.48
0.90
0.90
0.41
-0.28
-0.75
-0.67
-0.03
0.83
1.41
1.34
0.64
-0.34
-1.03
-1.05
-0.39
0.55
1.21
1.18
0.48
-0.48
-1.12
-1.10
-0.44
0.42
0.97
0.89
0.28
-0.44
-0.80
-0.60
0.03
0.67
0.90
0.54
-0.25
-1.08
-1.52
-1.38
-0.74
0.04
0.56
0.59
0.16
-0.42
-0.74
-0.53
0.18
1.03
1.54
1.35
0.51
-0.59
-1.38
-1.49
-0.89
0.01
0.68
0.73
0.18
-0.58
-1.06
-0.95
-0.34
0.40
0.81
0.67
0.11
-0.50
-0.74
-0.46
0.19
0.84
1.11
0.83
0.14
-0.57
-0.93
-0.77
-0.22
0.36
0.59
0.30
-0.34
-0.95
-1.13
-0.74
0.03
0.74
0.94
0.46
-0.49
-1.47
-1.99
-1.85
-1.19
-0.40
0.08
0.09
-0.25
-0.59
-0.60
-0.18
0.48
0.98
1.01
0.49
-0.31
-0.93
-0.99
-0.40
0.61
1.56
1.99
1.73
0.93
0.06
-0.45
-0.34
0.25
0.90
1.20
0.93
0.26
-0.44
-0.78
-0.66
-0.29
-0.04
-0.22
-0.81
-1.50
-1.81
-1.47
-0.54
0.56
1.32
1.42
0.89
0.10
-0.45
-0.40
0.20
1.01
1.53
1.43
0.78
-0.00
-0.37
-0.01
0.93
1.92
2.32
1.81
0.58
-0.73
-1.42
-1.12
-0.01
1.24
1.91
1.61
0.54
-0.68
-1.37
-1.18
-0.26
0.85
1.51
1.40
0.63
-0.38
-1.10
-1.24
-0.86
-0.27
0.13
0.11
-0.28
-0.76
-1.01
-0.86
-0.45
-0.07
-0.07
-0.57
-1.40
-2.12
-2.27
-1.61
-0.29
1.21
2.30
2.59
2.05
1.04
0.08
-0.42
-0.41
-0.12
0.06
-0.09
-0.54
-1.01
-1.13
-0.75
-0.04
0.64
0.83
0.37
-0.59
-1.63
-2.28
-2.29
-1.72
-0.95
-0.39
-0.31
-0.64
-1.05
-1.17
-0.78
0.05
0.96
1.49
1.37
0.63
-0.40
-1.28
-1.67
-1.51
-0.99
-0.49
-0.25
-0.28
-0.39
-0.28
0.21
1.01
1.79
2.21
2.07
1.54
0.96
0.72
1.01
1.67
2.28
2.40
1.86
0.82
-0.26
-0.90
-0.86
-0.25
0.50
0.94
0.85
0.30
-0.35
-0.68
-0.52
0.02
0.60
0.84
0.55
-0.18
-1.01
-1.55
-1.58
-1.12
-0.44
0.13
0.38
0.29
0.05
-0.07
0.03
0.29
0.53
0.53
0.21
-0.30
-0.70
-0.71
-0.26
0.48
1.11
1.25
0.77
-0.13
-1.00
-1.34
-0.90
0.18
1.40
2.19
2.23
1.59
0.67
-0.06
-0.35
-0.30
-0.23
-0.42
-0.90
-1.43
-1.67
-1.37
-0.59
0.33
0.96
1.01
0.46
-0.38
-1.10
-1.38
-1.13
-0.58
-0.08
0.02
-0.36
-0.99
-1.49
-1.52
-1.01
-0.22
0.39
0.47
0.00
-0.72
-1.21
-1.15
-0.55
0.21
0.67
0.56
-0.02
-0.64
-0.82
-0.30
0.75
1.84
2.39
2.08
1.00
-0.31
-1.20
-1.23
-0.39
0.85
1.85
2.09
1.47
0.37
-0.63
-1.07
-0.86
-0.33
0.00
-0.20
-0.90
-1.68
-2.01
-1.56
-0.42
0.94
1.92
2.12
1.58
0.74
0.17
0.22
0.81
1.48
1.69
1.13
-0.04
-1.24
-1.87
-1.59
-0.56
0.65
1.38
1.24
0.33
-0.82
-1.56
-1.50
-0.68
0.42
1.18
1.17
0.36
-0.80
-1.72
-1.98
-1.53
-0.77
-0.24
-0.27
-0.82
-1.47
-1.73
-1.35
-0.50
0.36
0.76
0.52
-0.15
-0.75
-0.83
-0.25
0.75
1.66
2.02
1.64
0.76
-0.13
-0.50
-0.15
0.76
1.73
2.25
2.03
1.20
0.17
-0.56
-0.73
-0.41
0.06
0.34
0.26
-0.03
-0.24
-0.11
0.38
0.98
1.29
1.07
0.33
-0.60
-1.23
-1.19
-0.47
0.63
1.56
1.91
1.53
0.64
-0.29
-0.90
-1.03
-0.84
-0.65
-0.73
-1.08
-1.49
-1.61
-1.26
-0.51
0.30
0.76
0.60
-0.12
-1.02
-1.62
-1.59
-0.93
0.04
0.85
1.13
0.86
0.31
-0.13
-0.13
0.27
0.80
1.06
0.82
0.15
-0.57
-0.92
-0.61
0.26
1.28
1.96
1.96
1.31
0.37
-0.39
-0.65
-0.47
-0.16
-0.09
-0.41
-0.94
-1.28
-1.06
-0.18
1.06
2.10
2.46
1.97
0.86
-0.34
-1.15
-1.32
-1.00
-0.58
-0.45
-0.79
-1.43
-2.01
-2.14
-1.66
-0.77
0.12
0.56
0.34
-0.37
-1.13
-1.50
-1.23
-0.47
0.37
0.80
0.60
-0.16
-1.09
-1.71
-1.70
-1.05
-0.03
0.90
1.36
1.25
0.77
0.27
0.10
0.36
0.87
1.28
1.31
0.92
0.37
0.02
0.10
0.59
1.18
1.48
1.25
0.58
-0.19
-0.61
-0.43
0.28
1.13
1.64
1.48
0.70
-0.36
-1.18
-1.44
-1.12
-0.56
-0.20
-0.36
-0.98
-1.70
-2.02
-1.65
-0.64
0.57
1.44
1.58
1.00
0.12
-0.50
-0.48
0.19
1.13
1.82
1.88
1.30
0.41
-0.32
-0.56
-0.32
0.11
0.29
-0.04
-0.84
-1.76
-2.34
-2.28
-1.65
-0.76
-0.09
0.06
-0.28
-0.81
-1.13
-1.01
-0.48
0.15
0.53
0.45
-0.02
-0.58
-0.90
-0.77
-0.24
0.44
0.97
1.18
1.10
0.97
1.02
1.36
1.87
2.26
2.23
1.68
0.79
-0.05
-0.45
-0.24
0.41
1.12
1.47
1.26
0.67
0.07
-0.13
0.20
0.85
1.34
1.25
0.42
-0.86
-2.10
-2.78
-2.73
-2.14
-1.43
-1.04
-1.12
-1.48
-1.73
-1.54
-0.87
0.05
0.78
1.00
0.65
-0.02
-0.57
-0.68
-0.30
0.34
0.83
0.90
0.56
0.06
-0.19
0.04
0.70
1.45
1.86
1.67
0.95
0.07
-0.55
-0.66
-0.35
-0.01
-0.04
-0.61
-1.51
-2.27
-2.41
-1.76
-0.59
0.52
1.02
0.67
-0.30
-1.31
-1.81
-1.55
-0.73
0.12
0.51
0.24
-0.45
-1.02
-1.00
-0.21
1.07
2.25
2.74
2.26
1.02
-0.39
-1.33
-1.38
-0.61
0.46
1.22
1.24
0.56
-0.38
-0.99
-0.87
-0.09
0.93
1.61
1.60
0.93
0.04
-0.55
-0.52
0.03
0.69
0.92
0.45
-0.56
-1.59
-2.03
-1.55
-0.32
1.12
2.14
2.37
1.90
1.18
0.73
0.83
1.37
1.98
2.28
2.03
1.34
0.49
-0.18
-0.45
-0.36
-0.14
-0.09
-0.40
-1.05
-1.83
-2.42
-2.56
-2.19
-1.54
-0.93
-0.66
-0.81
-1.21
-1.53
-1.48
-0.98
-0.19
0.57
1.01
1.05
0.85
0.68
0.76
1.11
1.48
1.57
1.17
0.35
-0.55
-1.13
-1.15
-0.65
0.06
0.57
0.63
0.28
-0.20
-0.45
-0.32
0.09
0.45
0.38
-0.21
-1.15
-1.97
-2.25
-1.80
-0.87
0.05
0.47
0.18
-0.58
-1.33
-1.55
-1.02
0.06
1.18
1.78
1.58
0.71
-0.35
-1.03
-0.99
-0.29
0.63
1.21
1.15
0.52
-0.28
-0.74
-0.61
-0.04
0.55
0.73
0.36
-0.34
-0.94
-1.06
-0.59
0.20
0.88
1.06
0.62
-0.19
-0.92
-1.15
-0.72
0.18
1.13
1.67
1.60
1.05
0.42
0.11
0.28
0.75
1.10
0.94
0.17
-0.95
-1.95
-2.37
-2.07
-1.23
-0.30
0.33
0.47
0.25
-0.02
-0.06
0.18
0.50
0.59
0.25
-0.44
-1.13
-1.41
-1.03
-0.06
1.12
1.99
2.22
1.74
0.86
0.04
-0.34
-0.16
0.42
1.03
1.35
1.27
0.93
0.62
0.57
0.83
1.19
1.34
1.05
0.35
-0.50
-1.14
-1.30
-0.97
-0.44
-0.09
-0.24
-0.91
-1.80
-2.45
-2.48
-1.79
-0.63
0.51
1.22
1.29
0.87
0.37
0.14
0.34
0.78
1.07
0.86
0.13
-0.80
-1.41
-1.26
-0.31
1.05
2.19
2.57
2.04
0.93
-0.19
-0.82
-0.79
-0.34
0.08
0.14
-0.23
-0.75
-1.03
-0.84
-0.22
0.45
0.78
0.53
-0.21
-1.04
-1.52
-1.40
-0.80
-0.10
0.27
0.07
-0.56
-1.21
-1.47
-1.15
-0.41
0.27
0.47
-0.01
-0.96
-1.87
-2.22
-1.78
-0.72
0.46
1.19
1.16
0.45
-0.51
-1.16
-1.14
-0.46
0.51
1.26
1.43
0.99
0.27
-0.24
-0.20
0.39
1.18
1.69
1.57
0.83
-0.17
-0.92
-1.03
-0.46
0.45
1.20
1.39
0.95
0.15
-0.55
-0.80
-0.55
-0.06
0.31
0.30
-0.09
-0.60
-0.90
-0.77
-0.27
0.31
0.65
0.55
0.07
-0.49
-0.79
-0.59
0.06
0.87
1.45
1.50
0.99
0.16
-0.59
-0.92
-0.75
-0.23
0.29
0.53
0.40
0.07
-0.19
-0.12
0.28
0.75
0.96
0.70
0.05
-0.65
-0.95
-0.62
0.23
1.16
1.63
1.32
0.29
-1.00
-1.97
-2.22
-1.70
-0.72
0.19
0.64
0.47
-0.10
-0.72
-1.03
-0.91
-0.53
-0.17
-0.09
-0.33
-0.69
-0.83
-0.57
0.05
0.71
1.01
0.72
-0.06
-0.92
-1.38
-1.16
-0.34
0.63
1.25
1.23
0.64
-0.11
-0.55
-0.41
0.21
0.96
1.43
1.40
0.97
0.46
0.18
0.24
0.49
0.63
0.44
-0.12
-0.83
-1.38
-1.53
-1.25
-0.74
-0.32
-0.21
-0.44
-0.79
-0.96
-0.72
-0.10
0.65
1.18
1.26
0.90
0.35
-0.06
-0.09
0.26
0.77
1.14
1.16
0.80
0.25
-0.19
-0.25
0.11
0.76
1.42
1.82
1.81
1.46
1.02
0.77
0.86
1.21
1.52
1.48
0.94
0.06
-0.79
-1.23
-1.10
-0.58
-0.11
-0.12
-0.72
-1.65
-2.38
-2.43
-1.67
-0.42
0.74
1.28
1.04
0.27
-0.51
-0.84
-0.56
0.09
0.66
0.77
0.31
-0.46
-1.07
-1.14
-0.57
0.37
1.16
1.36
0.88
0.03
-0.69
-0.86
-0.43
0.24
0.64
0.42
-0.37
-1.26
-1.72
-1.45
-0.58
0.39
0.87
0.58
-0.32
-1.34
-1.89
-1.65
-0.72
0.43
1.25
1.36
0.80
-0.05
-0.71
-0.82
-0.43
0.13
0.45
0.29
-0.27
-0.87
-1.10
-0.78
-0.04
0.75
1.16
1.02
0.44
-0.18
-0.46
-0.19
0.52
1.31
1.74
1.55
0.79
-0.20
-0.98
-1.24
-0.99
-0.54
-0.31
-0.56
-1.25
-2.01
-2.37
-2.06
-1.13
0.02
0.85
1.06
0.66
0.05
-0.26
0.05
0.92
1.91
2.49
2.31
1.47
0.42
-0.27
-0.24
0.44
1.31
1.79
1.54
0.64
-0.45
-1.18
-1.20
-0.59
0.20
0.60
0.27
-0.68
-1.76
-2.38
-2.21
-1.36
-0.33
0.25
0.06
-0.80
-1.80
-2.33
-2.01
-0.98
0.28
1.14
1.28
0.76
0.04
-0.37
-0.16
0.56
1.37
1.78
1.56
0.80
-0.07
-0.61
-0.60
-0.10
0.51
0.84
0.71
0.17
-0.46
-0.84
-0.78
-0.36
0.15
0.41
0.25
-0.24
-0.77
-0.94
-0.57
0.26
1.18
1.73
1.63
0.95
0.04
-0.66
-0.84
-0.55
-0.08
0.21
0.13
-0.22
-0.54
-0.54
-0.14
0.48
0.99
1.08
0.67
-0.04
-0.65
-0.84
-0.49
0.17
0.76
0.92
0.52
-0.24
-0.98
-1.32
-1.12
-0.56
-0.03
0.14
-0.17
-0.70
-1.01
-0.72
0.23
1.47
2.45
2.68
2.08
1.01
0.06
-0.24
0.20
1.01
1.61
1.48
0.53
-0.87
-2.09
-2.60
-2.24
-1.26
-0.21
0.41
0.42
0.00
-0.40
-0.40
0.12
0.91
1.49
1.47
0.76
-0.32
-1.24
-1.57
-1.24
-0.56
-0.03
-0.02
-0.52
-1.19
-1.53
-1.23
-0.37
0.60
1.15
0.97
0.16
-0.81
-1.40
-1.24
-0.42
0.68
1.50
1.69
1.23
0.42
-0.28
-0.57
-0.39
0.00
0.26
0.16
-0.27
-0.75
-0.90
-0.51
0.36
1.35
2.01
2.05
1.55
0.85
0.36
0.37
0.79
1.26
1.35
0.83
-0.21
-1.36
-2.18
-2.35
-1.92
-1.23
-0.72
-0.69
-1.12
-1.69
-1.95
-1.63
-0.75
0.32
1.08
1.19
0.67
-0.10
-0.55
-0.36
0.42
1.34
1.82
1.54
0.62
-0.46
-1.12
-1.03
-0.30
0.61
1.16
1.07
0.42
-0.41
-0.95
-0.93
-0.42
0.23
0.57
0.36
-0.33
-1.11
-1.48
-1.15
-0.20
0.93
1.69
1.70
1.05
0.14
-0.47
-0.42
0.23
1.07
1.61
1.53
0.93
0.20
-0.19
0.04
0.81
1.72
2.25
2.09
1.29
0.23
-0.60
-0.86
-0.60
-0.14
0.03
-0.37
-1.26
-2.23
-2.76
-2.54
-1.64
-0.50
0.32
0.45
-0.07
-0.83
-1.30
-1.15
-0.44
0.43
0.96
0.85
0.18
-0.66
-1.20
-1.16
-0.61
0.10
0.55
0.46
-0.16
-1.01
-1.71
-1.95
-1.67
-1.03
-0.30
0.25
0.58
0.78
1.02
1.41
1.84
2.09
1.89
1.21
0.26
-0.49
-0.65
-0.05
1.03
2.06
2.46
1.97
0.81
-0.46
-1.24
-1.23
-0.59
0.16
0.47
0.11
-0.72
-1.51
-1.74
-1.24
-0.23
0.75
1.17
0.77
-0.23
-1.30
-1.88
-1.70
-0.87
0.14
0.84
0.95
0.58
0.12
-0.02
0.32
0.93
1.41
1.39
0.76
-0.21
-1.04
-1.31
-0.88
0.03
0.96
1.47
1.35
0.76
0.05
-0.40
-0.46
-0.23
-0.02
-0.11
-0.58
-1.19
-1.59
-1.44
-0.71
0.33
1.23
1.56
1.23
0.48
-0.26
-0.58
-0.35
0.18
0.58
0.50
-0.13
-1.02
-1.66
-1.63
-0.85
0.35
1.42
1.88
1.56
0.74
-0.11
-0.53
-0.39
0.05
0.31
0.03
-0.81
-1.79
-2.37
-2.14
-1.12
0.24
1.33
1.67
1.22
0.34
-0.43
-0.66
-0.27
0.47
1.12
1.30
0.93
0.23
-0.38
-0.55
-0.19
0.52
1.16
1.38
1.05
0.36
-0.28
-0.52
-0.22
0.37
0.84
0.81
0.20
-0.71
-1.43
-1.58
-1.07
-0.19
0.59
0.87
0.56
-0.11
-0.73
-0.90
-0.53
0.17
0.83
1.06
0.75
0.05
-0.69
-1.12
-1.11
-0.82
-0.56
-0.58
-0.95
-1.42
-1.59
-1.16
-0.12
1.16
2.16
2.46
1.97
0.99
0.05
-0.42
-0.28
0.22
0.64
0.61
0.07
-0.71
-1.27
-1.28
-0.73
0.08
0.66
0.67
0.12
-0.66
-1.15
-0.97
-0.08
1.12
2.04
2.21
1.54
0.43
-0.53
-0.82
-0.36
0.49
1.13
1.12
0.45
-0.49
-1.09
-0.97
-0.16
0.88
1.52
1.37
0.45
-0.79
-1.78
-2.10
-1.70
-0.91
-0.18
0.11
-0.11
-0.58
-0.91
-0.81
-0.27
0.40
0.75
0.53
-0.22
-1.07
-1.55
-1.33
-0.52
0.45
1.07
1.03
0.44
-0.30
-0.74
-0.63
-0.06
0.59
0.91
0.73
0.15
-0.49
-0.87
-0.81
-0.41
0.02
0.16
-0.16
-0.84
-1.56
-1.90
-1.62
-0.78
0.28
1.13
1.44
1.21
0.72
0.36
0.42
0.87
1.40
1.66
1.44
0.84
0.23
-0.03
0.19
0.69
1.09
1.00
0.35
-0.60
-1.39
-1.59
-1.11
-0.19
0.66
0.99
0.61
-0.28
-1.22
-1.74
-1.60
-0.91
-0.07
0.46
0.43
-0.07
-0.69
-0.98
-0.71
0.06
0.98
1.62
1.70
1.25
0.56
0.02
-0.10
0.18
0.59
0.75
0.42
-0.34
-1.20
-1.75
-1.71
-1.13
-0.33
0.25
0.34
0.01
-0.41
-0.55
-0.22
0.45
1.05
1.23
0.84
0.09
-0.61
-0.88
-0.59
0.05
0.65
0.85
0.56
-0.06
-0.61
-0.77
-0.44
0.21
0.78
0.95
0.59
-0.12
-0.78
-1.02
-0.69
0.02
0.72
1.01
0.76
0.17
-0.34
-0.40
0.09
0.86
1.46
1.48
0.88
-0.06
-0.80
-0.93
-0.40
0.44
1.08
1.08
0.43
-0.51
-1.20
-1.21
-0.51
0.54
1.38
1.60
1.13
0.33
-0.31
-0.39
0.08
0.75
1.11
0.83
-0.04
-1.11
-1.84
-1.89
-1.28
-0.41
0.20
0.21
-0.37
-1.18
-1.69
-1.58
-0.87
0.08
0.74
0.78
0.22
-0.55
-1.00
-0.78
0.09
1.20
1.98
2.04
1.36
0.28
-0.66
-1.01
-0.66
0.12
0.88
1.22
1.01
0.43
-0.12
-0.28
0.04
0.60
0.99
0.86
0.16
-0.80
-1.55
-1.70
-1.24
-0.50
0.03
0.03
-0.47
-1.07
-1.31
-0.90
0.05
1.07
1.67
1.53
0.71
-0.35
-1.12
-1.24
-0.66
0.30
1.12
1.38
0.91
-0.07
-1.08
-1.68
-1.64
-1.12
-0.57
-0.40
-0.77
-1.48
-2.05
-2.03
-1.28
-0.07
1.02
1.49
1.16
0.28
-0.57
-0.86
-0.35
0.69
1.72
2.23
2.02
1.32
0.64
0.41
0.76
1.41
1.84
1.69
0.95
-0.01
-0.67
-0.72
-0.21
0.39
0.57
0.06
-0.97
-2.01
-2.44
-1.98
-0.77
0.62
1.56
1.65
0.97
-0.04
-0.81
-0.97
-0.51
0.23
0.79
0.89
0.53
0.05
-0.14
0.16
0.85
1.51
1.66
1.05
-0.20
-1.59
-2.57
-2.75
-2.14
-1.14
-0.28
0.05
-0.17
-0.66
-1.01
-0.95
-0.49
0.10
0.43
0.30
-0.24
-0.85
-1.15
-0.89
-0.14
0.79
1.49
1.66
1.31
0.68
0.17
0.05
0.36
0.87
1.21
1.12
0.59
-0.13
-0.68
-0.77
-0.40
0.17
0.56
0.52
0.05
-0.54
-0.88
-0.73
-0.13
0.59
1.03
0.93
0.34
-0.41
-0.87
-0.77
-0.15
0.64
1.12
1.01
0.38
-0.39
-0.80
-0.54
0.28
1.21
1.70
1.47
0.66
-0.26
-0.74
-0.55
0.12
0.81
1.03
0.60
-0.26
-1.06
-1.35
-0.99
-0.22
0.53
0.85
0.59
-0.04
-0.67
-0.90
-0.59
0.08
0.72
0.93
0.51
-0.39
-1.36
-1.94
-1.89
-1.32
-0.60
-0.17
-0.23
-0.62
-0.98
-0.93
-0.36
0.50
1.21
1.38
0.94
0.16
-0.49
-0.65
-0.25
0.41
0.92
0.93
0.41
-0.35
-0.90
-0.89
-0.26
0.71
1.56
1.89
1.60
0.95
0.39
0.32
0.81
1.58
2.11
2.02
1.21
0.01
-1.07
-1.60
-1.50
-1.05
-0.67
-0.70
-1.18
-1.82
-2.24
-2.15
-1.62
-0.98
-0.67
-0.95
-1.71
-2.54
-2.90
-2.46
-1.30
0.15
1.34
1.89
1.75
1.22
0.73
0.60
0.91
1.46
1.90
1.99
1.65
1.08
0.56
0.38
0.57
0.91
1.08
0.81
0.11
-0.70
-1.16
-0.96
-0.14
0.88
1.54
1.47
0.66
-0.49
-1.41
-1.66
-1.20
-0.38
0.27
0.33
-0.23
-1.05
-1.62
-1.53
-0.78
0.27
1.04
1.17
0.64
-0.09
-0.45
-0.03
1.09
2.40
3.19
3.02
1.90
0.38
-0.86
-1.32
-1.01
-0.36
0.01
-0.26
-1.08
-1.99
-2.39
-1.96
-0.85
0.41
1.22
1.21
0.44
-0.64
-1.49
-1.76
-1.43
-0.82
-0.36
-0.33
-0.70
-1.15
-1.28
-0.83
0.12
1.19
1.90
1.92
1.27
0.35
-0.31
-0.33
0.26
1.09
1.58
1.37
0.46
-0.70
-1.55
-1.68
-1.10
-0.17
0.54
0.65
0.14
-0.64
-1.18
-1.12
-0.47
0.44
1.10
1.18
0.66
-0.14
-0.76
-0.89
-0.50
0.11
0.55
0.52
0.06
-0.54
-0.88
-0.68
-0.01
0.82
1.36
1.32
0.74
-0.06
-0.63
-0.64
-0.10
0.63
1.12
1.04
0.39
-0.49
-1.10
-1.08
-0.40
0.62
1.47
1.77
1.39
0.62
-0.07
-0.26
0.16
0.94
1.61
1.75
1.27
0.46
-0.21
-0.35
0.05
0.63
0.86
0.41
-0.63
-1.77
-2.43
-2.25
-1.41
-0.45
-0.02
-0.40
-1.38
-2.34
-2.66
-2.13
-1.04
-0.00
0.40
0.02
-0.82
-1.51
-1.53
-0.77
0.44
1.51
1.96
1.69
0.95
0.22
-0.09
0.11
0.62
1.03
1.05
0.61
-0.06
-0.57
-0.66
-0.29
0.30
0.75
0.78
0.41
-0.08
-0.30
0.01
0.79
1.71
2.29
2.19
1.38
0.23
-0.75
-1.08
-0.65
0.30
1.26
1.76
1.61
0.97
0.24
-0.19
-0.18
0.14
0.41
0.37
-0.08
-0.70
-1.14
-1.12
-0.60
0.17
0.74
0.76
0.15
-0.82
-1.69
-1.97
-1.53
-0.57
0.41
0.93
0.78
0.15
-0.48
-0.67
-0.30
0.40
0.94
0.93
0.30
-0.61
-1.29
-1.32
-0.67
0.32
1.10
1.22
0.56
-0.56
-1.61
-2.10
-1.84
-1.05
-0.20
0.24
0.08
-0.50
-1.06
-1.18
-0.72
0.08
0.79
0.97
0.53
-0.28
-0.96
-1.09
-0.55
0.38
1.14
1.27
0.62
-0.52
-1.62
-2.15
-1.93
-1.18
-0.38
0.08
0.06
-0.20
-0.28
0.09
0.89
1.74
2.18
1.89
0.94
-0.24
-1.12
-1.29
-0.72
0.24
1.04
1.25
0.81
0.05
-0.52
-0.51
0.12
1.00
1.61
1.59
0.93
-0.00
-0.67
-0.67
0.01
1.03
1.84
1.98
1.30
0.07
-1.20
-1.95
-1.91
-1.18
-0.20
0.50
0.63
0.26
-0.23
-0.40
-0.08
0.54
1.00
0.90
0.14
-0.93
-1.75
-1.87
-1.20
-0.14
0.73
0.94
0.45
-0.37
-0.91
-0.76
0.09
1.24
2.09
2.22
1.59
0.59
-0.24
-0.51
-0.18
0.40
0.77
0.60
-0.08
-0.89
-1.37
-1.21
-0.44
0.56
1.28
1.39
0.86
0.02
-0.66
-0.86
-0.54
-0.03
0.27
0.05
-0.66
-1.53
-2.07
-1.97
-1.22
-0.20
0.52
0.55
-0.16
-1.22
-2.07
-2.27
-1.75
-0.87
-0.11
0.14
-0.11
-0.52
-0.62
-0.14
0.80
1.79
2.35
2.25
1.65
0.96
0.61
0.79
1.36
1.94
2.17
1.90
1.28
0.65
0.32
0.36
0.61
0.71
0.39
-0.37
-1.33
-2.05
-2.18
-1.66
-0.74
0.10
0.44
0.12
-0.63
-1.36
-1.60
-1.17
-0.24
0.76
1.32
1.19
0.48
-0.41
-1.02
-1.11
-0.76
-0.34
-0.20
-0.50
-1.03
-1.39
-1.20
-0.36
0.87
2.01
2.58
2.38
1.54
0.49
-0.34
-0.70
-0.63
-0.40
-0.31
-0.51
-0.90
-1.19
-1.13
-0.67
-0.01
0.49
0.51
0.01
-0.78
-1.43
-1.59
-1.14
-0.29
0.56
1.04
1.00
0.54
-0.00
-0.26
-0.08
0.44
0.99
1.21
0.96
0.34
-0.30
-0.58
-0.37
0.16
0.61
0.58
0.00
-0.88
-1.58
-1.67
-1.07
-0.08
0.76
0.99
0.48
-0.49
-1.37
-1.69
-1.27
-0.34
0.63
1.16
1.06
0.50
-0.12
-0.41
-0.24
0.20
0.57
0.57
0.20
-0.31
-0.61
-0.46
0.08
0.71
1.09
1.02
0.59
0.08
-0.16
0.07
0.65
1.29
1.59
1.32
0.54
-0.40
-1.04
-1.04
-0.39
0.60
1.45
1.76
1.42
0.66
-0.08
-0.45
-0.38
-0.06
0.19
0.13
-0.20
-0.53
-0.55
-0.14
0.55
1.12
1.21
0.67
-0.30
-1.27
-1.77
-1.58
-0.83
0.11
0.74
0.75
0.13
-0.81
-1.64
-1.98
-1.69
-0.94
-0.13
0.35
0.36
0.04
-0.24
-0.13
0.46
1.25
1.78
1.70
0.97
-0.06
-0.84
-1.00
-0.51
0.26
0.80
0.76
0.20
-0.51
-0.86
-0.55
0.32
1.32
1.92
1.79
0.99
-0.07
-0.88
-1.09
-0.76
-0.23
0.01
-0.32
-1.13
-2.02
-2.45
-2.12
-1.10
0.18
1.12
1.34
0.80
-0.12
-0.87
-1.06
-0.62
0.13
0.71
0.74
0.22
-0.54
-1.01
-0.85
-0.03
1.08
1.89
1.99
1.29
0.16
-0.82
-1.12
-0.62
0.40
1.35
1.73
1.41
0.65
0.01
-0.04
0.58
1.50
2.11
1.97
1.01
-0.38
-1.57
-2.11
-1.91
-1.32
-0.81
-0.75
-1.14
-1.70
-2.02
-1.85
-1.26
-0.58
-0.20
-0.29
-0.72
-1.10
-1.02
-0.31
0.87
2.02
2.61
2.38
1.44
0.27
-0.56
-0.70
-0.17
0.65
1.26
1.31
0.83
0.15
-0.29
-0.22
0.28
0.84
1.00
0.48
-0.59
-1.78
-2.57
-2.65
-2.06
-1.22
-0.61
-0.47
-0.73
-1.00
-0.88
-0.21
0.83
1.78
2.15
1.76
0.78
-0.30
-0.95
-0.85
-0.07
0.97
1.75
1.90
1.41
0.61
0.00
-0.02
0.60
1.50
2.15
2.10
1.26
-0.02
-1.16
-1.67
-1.39
-0.65
-0.02
0.02
-0.61
-1.55
-2.17
-1.99
-1.00
0.34
1.28
1.28
0.29
-1.19
-2.41
-2.76
-2.10
-0.80
0.49
1.21
1.18
0.64
0.04
-0.27
-0.19
0.03
0.07
-0.23
-0.77
-1.21
-1.17
-0.50
0.61
1.72
2.35
2.23
1.48
0.46
-0.36
-0.70
-0.54
-0.13
0.21
0.24
-0.02
-0.38
-0.61
-0.57
-0.34
-0.15
-0.24
-0.66
-1.21
-1.54
-1.31
-0.48
0.72
1.82
2.36
2.20
1.52
0.79
0.45
0.64
1.19
1.66
1.67
1.13
0.28
-0.39
-0.53
-0.09
0.61
1.07
0.94
0.16
-0.91
-1.73
-1.87
-1.23
-0.11
0.96
1.48
1.24
0.40
-0.59
-1.25
-1.32
-0.84
-0.16
0.31
0.34
-0.05
-0.59
-0.91
-0.81
-0.39
0.05
0.14
-0.26
-1.03
-1.78
-2.11
-1.79
-0.96
0.01
0.65
0.69
0.19
-0.51
-0.94
-0.85
-0.26
0.49
0.99
0.98
0.49
-0.15
-0.53
-0.40
0.21
0.95
1.43
1.39
0.92
0.32
0.01
0.17
0.69
1.18
1.23
0.69
-0.20
-0.96
-1.14
-0.58
0.44
1.36
1.68
1.24
0.34
-0.49
-0.79
-0.42
0.31
0.88
0.88
0.23
-0.75
-1.53
-1.69
-1.19
-0.37
0.25
0.25
-0.38
-1.28
-1.91
-1.86
-1.13
-0.09
0.72
0.95
0.57
-0.07
-0.49
-0.38
0.23
1.01
1.50
1.43
0.86
0.14
-0.24
-0.03
0.73
1.61
2.10
1.88
0.98
-0.18
-1.06
-1.29
-0.86
-0.13
0.40
0.36
-0.23
-1.02
-1.53
-1.38
-0.55
0.58
1.48
1.73
1.23
0.27
-0.68
-1.20
-1.16
-0.79
-0.48
-0.52
-0.94
-1.47
-1.72
-1.44
-0.71
0.11
0.57
0.39
-0.33
-1.16
-1.56
-1.15
-0.01
1.42
2.52
2.83
2.27
1.20
0.20
-0.31
-0.21
0.18
0.38
0.04
-0.84
-1.88
-2.51
-2.37
-1.42
-0.06
1.12
1.69
1.51
0.89
0.29
0.11
0.41
0.92
1.21
0.97
0.24
-0.61
-1.10
-0.93
-0.19
0.65
1.06
0.75
-0.14
-1.06
-1.43
-0.95
0.18
1.38
1.99
1.71
0.72
-0.43
-1.15
-1.14
-0.53
0.18
0.48
0.14
-0.67
-1.47
-1.82
-1.49
-0.67
0.19
0.65
0.49
-0.14
-0.85
-1.19
-0.96
-0.21
0.71
1.34
1.43
0.98
0.27
-0.29
-0.46
-0.22
0.18
0.38
0.19
-0.30
-0.78
-0.91
-0.56
0.14
0.83
1.16
1.03
0.57
0.14
0.00
0.25
0.72
1.09
1.13
0.76
0.15
-0.40
-0.58
-0.31
0.29
0.92
1.25
1.11
0.59
-0.02
-0.38
-0.34
-0.01
0.29
0.22
-0.37
-1.29
-2.14
-2.52
-2.27
-1.57
-0.87
-0.55
-0.75
-1.22
-1.51
-1.25
-0.35
0.87
1.89
2.27
1.86
0.93
-0.03
-0.56
-0.44
0.18
0.91
1.35
1.30
0.89
0.45
0.36
0.72
1.36
1.88
1.91
1.32
0.37
-0.50
-0.86
-0.61
0.04
0.61
0.73
0.29
-0.48
-1.17
-1.42
-1.14
-0.53
0.02
0.22
-0.03
-0.53
-0.93
-0.96
-0.56
0.06
0.56
0.68
0.38
-0.08
-0.34
-0.12
0.53
1.31
1.74
1.51
0.61
-0.55
-1.46
-1.74
-1.37
-0.69
-0.17
-0.13
-0.56
-1.12
-1.36
-1.04
-0.23
0.67
1.19
1.02
0.19
-0.96
-1.93
-2.35
-2.14
-1.52
-0.90
-0.66
-0.91
-1.39
-1.70
-1.43
-0.51
0.76
1.81
2.16
1.67
0.68
-0.22
-0.50
-0.06
0.77
1.43
1.52
1.04
0.43
0.23
0.71
1.68
2.58
2.80
2.08
0.62
-0.97
-2.05
-2.24
-1.60
-0.60
0.20
0.42
0.04
-0.58
-0.97
-0.84
-0.21
0.52
0.88
0.57
-0.30
-1.26
-1.74
-1.41
-0.39
0.80
1.55
1.47
0.62
-0.53
-1.37
-1.48
-0.88
0.07
0.82
1.03
0.70
0.17
-0.08
0.25
1.11
2.11
2.70
2.50
1.54
0.22
-0.84
-1.19
-0.78
0.03
0.65
0.67
0.07
-0.76
-1.31
-1.25
-0.66
0.00
0.28
-0.04
-0.74
-1.34
-1.38
-0.72
0.34
1.26
1.56
1.09
0.10
-0.88
-1.39
-1.20
-0.50
0.31
0.76
0.65
0.07
-0.64
-1.12
-1.16
-0.83
-0.39
-0.13
-0.17
-0.41
-0.55
-0.35
0.25
1.02
1.58
1.60
1.00
0.00
-0.93
-1.35
-1.12
-0.38
0.42
0.86
0.77
0.28
-0.22
-0.38
-0.08
0.51
1.04
1.21
0.93
0.39
-0.05
-0.09
0.33
1.00
1.53
1.63
1.19
0.39
-0.38
-0.83
-0.87
-0.69
-0.67
-1.10
-1.99
-3.01
-3.66
-3.52
-2.52
-1.01
0.43
1.24
1.23
0.60
-0.17
-0.55
-0.28
0.51
1.40
1.95
1.91
1.41
0.78
0.41
0.45
0.76
1.00
0.87
0.29
-0.48
-1.05
-1.12
-0.67
0.01
0.50
0.51
0.06
-0.54
-0.84
-0.55
0.26
1.23
1.88
1.87
1.19
0.17
-0.67
-0.93
-0.52
0.29
1.06
1.40
1.17
0.56
-0.04
-0.32
-0.21
0.11
0.28
0.04
-0.59
-1.35
-1.83
-1.74
-1.05
-0.04
0.86
1.26
1.01
0.28
-0.57
-1.14
-1.24
-0.93
-0.49
-0.21
-0.25
-0.50
-0.69
-0.58
-0.14
0.41
0.67
0.36
-0.46
-1.38
-1.88
-1.61
-0.66
0.47
1.17
1.07
0.31
-0.58
-0.95
-0.44
0.82
2.26
3.20
3.22
2.38
1.16
0.20
-0.09
0.29
0.90
1.21
0.85
-0.12
-1.27
-2.07
-2.17
-1.62
-0.82
-0.27
-0.28
-0.78
-1.37
-1.58
-1.14
-0.17
0.94
1.69
1.75
1.15
0.25
-0.48
-0.68
-0.33
0.24
0.57
0.34
-0.43
-1.37
-1.97
-1.89
-1.13
-0.05
0.84
1.17
0.91
0.36
-0.05
0.00
0.51
1.16
1.52
1.32
0.61
-0.28
-0.88
-0.91
-0.38
0.37
0.92
0.97
0.53
-0.14
-0.68
-0.84
-0.64
-0.29
-0.10
-0.25
-0.68
-1.15
-1.32
-1.05
-0.38
0.37
0.84
0.81
0.35
-0.23
-0.55
-0.38
0.20
0.87
1.22
1.00
0.29
-0.54
-1.05
-0.95
-0.27
0.62
1.26
1.35
0.91
0.32
0.03
0.31
1.03
1.75
1.97
1.40
0.19
-1.19
-2.12
-2.23
-1.55
-0.46
0.47
0.82
0.52
-0.16
-0.78
-0.99
-0.73
-0.22
0.14
0.07
-0.42
-1.02
-1.31
-1.04
-0.25
0.67
1.28
1.31
0.84
0.21
-0.16
-0.06
0.41
0.91
1.09
0.80
0.18
-0.39
-0.58
-0.25
0.40
0.97
1.03
0.40
-0.73
-1.91
-2.61
-2.54
-1.80
-0.79
-0.02
0.19
-0.12
-0.61
-0.88
-0.64
0.05
0.89
1.51
1.67
1.41
0.95
0.59
0.46
0.50
0.49
0.24
-0.26
-0.84
-1.19
-1.03
-0.38
0.52
1.22
1.37
0.88
0.03
-0.72
-0.95
-0.56
0.17
0.75
0.75
0.11
-0.88
-1.69
-1.93
-1.52
-0.77
-0.15
-0.01
-0.37
-0.89
-1.13
-0.77
0.13
1.18
1.86
1.83
1.09
0.03
-0.80
-0.96
-0.39
0.54
1.34
1.59
1.25
0.62
0.14
0.14
0.63
1.28
1.68
1.54
0.93
0.15
-0.34
-0.30
0.21
0.78
0.94
0.44
-0.63
-1.79
-2.47
-2.26
-1.21
0.26
1.50
1.98
1.58
0.61
-0.37
-0.86
-0.67
-0.09
0.39
0.35
-0.30
-1.20
-1.82
-1.77
-1.05
-0.11
0.47
0.37
-0.31
-1.05
-1.30
-0.78
0.31
1.36
1.77
1.25
-0.00
-1.43
-2.40
-2.51
-1.79
-0.63
0.40
0.89
0.76
0.25
-0.21
-0.25
0.18
0.79
1.12
0.81
-0.14
-1.32
-2.14
-2.12
-1.16
0.32
1.64
2.21
1.87
0.94
0.02
-0.38
-0.14
0.43
0.79
0.52
-0.36
-1.42
-2.10
-1.99
-1.15
-0.02
0.81
0.96
0.50
-0.17
-0.54
-0.31
0.44
1.32
1.85
1.77
1.14
0.32
-0.28
-0.38
0.00
0.57
0.93
0.79
0.13
-0.76
-1.43
-1.56
-1.10
-0.32
0.32
0.46
0.07
-0.54
-0.89
-0.63
0.24
1.30
2.01
1.97
1.18
0.09
-0.70
-0.78
-0.14
0.79
1.46
1.50
0.96
0.27
-0.08
0.18
0.88
1.57
1.74
1.19
0.13
-0.94
-1.52
-1.40
-0.78
-0.12
0.12
-0.26
-1.08
-1.89
-2.23
-1.89
-1.06
-0.18
0.29
0.12
-0.52
-1.21
-1.49
-1.17
-0.42
0.34
0.68
0.44
-0.18
-0.75
-0.89
-0.47
0.29
0.94
1.09
0.61
-0.26
-1.05
-1.32
-0.89
0.04
1.01
1.54
1.39
0.73
-0.01
-0.35
-0.09
0.60
1.29
1.51
1.10
0.26
-0.52
-0.78
-0.34
0.57
1.51
1.99
1.80
1.08
0.24
-0.31
-0.37
-0.04
0.34
0.41
0.02
-0.69
-1.36
-1.64
-1.38
-0.78
-0.22
-0.08
-0.43
-1.01
-1.36
-1.11
-0.20
1.02
2.01
2.29
1.76
0.74
-0.20
-0.56
-0.19
0.62
1.33
1.45
0.84
-0.18
-1.04
-1.28
-0.82
-0.00
0.61
0.61
-0.00
-0.83
-1.30
-1.04
-0.10
1.09
1.95
2.08
1.49
0.50
-0.36
-0.71
-0.50
-0.01
0.30
0.10
-0.63
-1.58
-2.25
-2.27
-1.61
-0.59
0.27
0.56
0.20
-0.51
-1.09
-1.13
-0.58
0.25
0.88
0.94
0.39
-0.45
-1.06
-1.08
-0.46
0.45
1.12
1.15
0.52
-0.41
-1.09
-1.14
-0.56
0.31
0.95
1.02
0.53
-0.19
-0.69
-0.67
-0.16
0.51
0.90
0.73
0.01
-0.92
-1.63
-1.80
-1.42
-0.78
-0.28
-0.16
-0.43
-0.79
-0.87
-0.47
0.32
1.18
1.70
1.65
1.08
0.34
-0.14
-0.07
0.56
1.42
2.05
2.10
1.52
0.58
-0.24
-0.56
-0.29
0.28
0.71
0.63
-0.01
-0.93
-1.71
-2.00
-1.77
-1.25
-0.84
-0.76
-0.99
-1.25
-1.20
-0.62
0.37
1.42
2.09
2.14
1.60
0.82
0.25
0.13
0.46
0.92
1.11
0.77
-0.02
-0.89
-1.40
-1.25
-0.53
0.37
0.93
0.86
0.22
-0.59
-1.08
-0.96
-0.30
0.49
0.92
0.71
-0.06
-0.98
-1.56
-1.52
-0.92
-0.14
0.39
0.42
0.03
-0.44
-0.58
-0.18
0.61
1.38
1.61
1.09
-0.02
-1.21
-1.92
-1.83
-1.06
-0.07
0.55
0.47
-0.25
-1.17
-1.76
-1.66
-0.89
0.20
1.14
1.57
1.44
1.00
0.63
0.59
0.89
1.28
1.41
1.08
0.35
-0.39
-0.74
-0.46
0.31
1.17
1.60
1.33
0.48
-0.52
-1.18
-1.21
-0.70
-0.03
0.33
0.17
-0.42
-1.04
-1.27
-0.91
-0.14
0.62
0.92
0.56
-0.27
-1.10
-1.46
-1.10
-0.16
0.89
1.54
1.48
0.77
-0.17
-0.87
-1.02
-0.63
-0.04
0.35
0.29
-0.13
-0.58
-0.69
-0.28
0.45
1.10
1.23
0.72
-0.17
-0.94
-1.14
-0.61
0.43
1.45
1.97
1.77
1.04
0.22
-0.24
-0.13
0.40
0.95
1.06
0.51
-0.55
-1.63
-2.24
-2.09
-1.28
-0.27
0.43
0.52
0.07
-0.56
-0.93
-0.83
-0.36
0.11
0.16
-0.34
-1.22
-2.01
-2.28
-1.81
-0.74
0.51
1.52
1.99
1.98
1.75
1.61
1.72
1.99
2.15
1.95
1.33
0.49
-0.20
-0.44
-0.19
0.31
0.68
0.61
0.10
-0.59
-1.06
-1.02
-0.49
0.20
0.62
0.46
-0.25
-1.18
-1.81
-1.80
-1.08
0.02
1.01
1.41
1.06
0.20
-0.70
-1.19
-1.08
-0.54
0.05
0.31
0.16
-0.25
-0.59
-0.63
-0.35
0.01
0.18
-0.02
-0.53
-1.04
-1.23
-0.92
-0.16
0.73
1.38
1.51
1.10
0.41
-0.17
-0.34
-0.03
0.54
1.03
1.12
0.74
0.06
-0.58
-0.87
-0.70
-0.25
0.15
0.18
-0.29
-1.07
-1.80
-2.08
-1.80
-1.10
-0.41
-0.10
-0.32
-0.88
-1.38
-1.43
-0.91
-0.04
0.71
0.95
0.56
-0.19
-0.84
-0.93
-0.32
0.73
1.72
2.16
1.89
1.11
0.31
-0.03
0.26
1.02
1.78
2.11
1.81
1.04
0.17
-0.40
-0.52
-0.34
-0.18
-0.32
-0.82
-1.43
-1.78
-1.60
-0.94
-0.11
0.44
0.42
-0.13
-0.80
-1.09
-0.63
0.49
1.82
2.74
2.80
2.00
0.76
-0.27
-0.62
-0.19
0.67
1.39
1.55
1.08
0.28
-0.37
-0.47
-0.00
0.73
1.25
1.15
0.39
-0.76
-1.78
-2.22
-1.92
-1.08
-0.21
0.22
-0.01
-0.74
-1.51
-1.87
-1.62
-0.93
-0.23
0.06
-0.17
-0.71
-1.10
-0.98
-0.29
0.64
1.33
1.41
0.83
-0.07
-0.81
-1.01
-0.61
0.14
0.80
1.06
0.82
0.32
-0.08
-0.13
0.25
0.84
1.29
1.34
0.92
0.24
-0.35
-0.54
-0.25
0.30
0.73
0.75
0.30
-0.38
-0.89
-0.87
-0.29
0.54
1.11
0.98
0.09
-1.20
-2.27
-2.57
-1.94
-0.72
0.45
0.98
0.68
-0.14
-0.90
-1.05
-0.45
0.57
1.43
1.65
1.12
0.19
-0.60
-0.78
-0.30
0.55
1.24
1.39
0.98
0.31
-0.15
-0.10
0.43
1.06
1.33
0.93
-0.04
-1.16
-1.94
-2.04
-1.50
-0.65
0.05
0.30
0.12
-0.19
-0.23
0.22
1.06
1.92
2.30
1.92
0.83
-0.54
-1.64
-2.01
-1.60
-0.72
0.01
0.14
-0.45
-1.42
-2.19
-2.22
-1.40
-0.08
1.12
1.62
1.26
0.36
-0.46
-0.68
-0.14
0.83
1.61
1.71
1.05
0.01
-0.81
-0.93
-0.30
0.68
1.42
1.46
0.80
-0.15
-0.80
-0.76
-0.05
0.89
1.49
1.35
0.50
-0.66
-1.57
-1.80
-1.29
-0.37
0.43
0.68
0.26
-0.54
-1.20
-1.31
-0.78
0.09
0.78
0.87
0.35
-0.42
-0.87
-0.65
0.20
1.22
1.82
1.64
0.70
-0.54
-1.52
-1.82
-1.42
-0.63
0.04
0.22
-0.15
-0.79
-1.27
-1.26
-0.71
0.13
0.84
1.08
0.81
0.27
-0.12
-0.07
0.46
1.15
1.58
1.41
0.63
-0.43
-1.27
-1.49
-1.02
-0.16
0.57
0.76
0.32
-0.44
-1.02
-1.01
-0.39
0.51
1.13
1.06
0.32
-0.68
-1.33
-1.23
-0.41
0.66
1.34
1.25
0.43
-0.63
-1.35
-1.34
-0.68
0.23
0.83
0.83
0.31
-0.32
-0.59
-0.23
0.65
1.61
2.13
1.88
0.92
-0.36
-1.40
-1.77
-1.38
-0.50
0.37
0.82
0.70
0.23
-0.19
-0.23
0.16
0.73
1.00
0.68
-0.24
-1.31
-1.97
-1.77
-0.78
0.53
1.45
1.48
0.63
-0.60
-1.53
-1.63
-0.85
0.38
1.43
1.81
1.39
0.50
-0.35
-0.73
-0.52
0.07
0.66
0.90
0.70
0.24
-0.12
-0.11
0.33
0.94
1.29
1.08
0.30
-0.69
-1.35
-1.28
-0.52
0.46
1.02
0.70
-0.39
-1.69
-2.43
-2.14
-0.89
0.72
1.90
2.16
1.50
0.41
-0.53
-0.92
-0.77
-0.40
-0.22
-0.43
-0.91
-1.31
-1.27
-0.66
0.34
1.31
1.82
1.66
0.98
0.16
-0.37
-0.37
0.06
0.54
0.64
0.17
-0.72
-1.57
-1.92
-1.53
-0.60
0.40
0.94
0.78
0.05
-0.79
-1.25
-1.04
-0.30
0.58
1.11
1.00
0.32
-0.54
-1.11
-1.07
-0.46
0.36
0.90
0.85
0.23
-0.62
-1.25
-1.33
-0.85
-0.09
0.58
0.88
0.76
0.42
0.14
0.15
0.49
0.99
1.37
1.36
0.90
0.22
-0.29
-0.27
0.37
1.35
2.14
2.29
1.63
0.41
-0.83
-1.58
-1.64
-1.18
-0.66
-0.49
-0.83
-1.50
-2.11
-2.35
-2.12
-1.66
-1.29
-1.28
-1.64
-2.08
-2.18
-1.63
-0.45
0.99
2.13
2.55
2.15
1.29
0.50
0.24
0.60
1.30
1.84
1.85
1.31
0.57
0.14
0.32
1.04
1.86
2.20
1.75
0.62
-0.65
-1.49
-1.53
-0.90
-0.07
0.38
0.17
-0.56
-1.33
-1.61
-1.14
-0.09
1.07
1.78
1.73
0.98
-0.07
-0.91
-1.18
-0.81
-0.11
0.49
0.61
0.20
-0.47
-0.96
-0.95
-0.45
0.22
0.57
0.35
-0.38
-1.17
-1.50
-1.09
-0.06
1.10
1.80
1.70
0.87
-0.26
-1.10
-1.22
-0.59
0.46
1.35
1.61
1.10
0.07
-0.94
-1.44
-1.23
-0.50
0.28
0.65
0.43
-0.16
-0.64
-0.63
-0.02
0.87
1.51
1.50
0.80
-0.20
-0.92
-0.94
-0.24
0.77
1.49
1.49
0.71
-0.45
-1.44
-1.78
-1.39
-0.55
0.26
0.62
0.42
-0.16
-0.73
-0.97
-0.81
-0.43
-0.18
-0.32
-0.86
-1.53
-1.90
-1.67
-0.85
0.23
1.07
1.30
0.87
0.06
-0.60
-0.72
-0.20
0.68
1.45
1.69
1.28
0.46
-0.29
-0.58
-0.30
0.31
0.79
0.79
0.23
-0.59
-1.22
-1.29
-0.75
0.10
0.81
1.04
0.73
0.14
-0.37
-0.49
-0.21
0.27
0.64
0.69
0.41
0.01
-0.20
-0.04
0.50
1.20
1.74
1.85
1.46
0.76
0.05
-0.38
-0.41
-0.15
0.14
0.21
-0.06
-0.53
-0.90
-0.87
-0.36
0.45
1.16
1.36
0.88
-0.09
-1.09
-1.62
-1.44
-0.71
0.13
0.56
0.34
-0.40
-1.26
-1.82
-1.85
-1.50
-1.10
-1.00
-1.31
-1.83
-2.17
-1.97
-1.09
0.26
1.63
2.52
2.62
1.99
0.98
0.11
-0.23
0.00
0.55
0.97
0.96
0.48
-0.16
-0.57
-0.46
0.11
0.82
1.24
1.11
0.48
-0.28
-0.75
-0.64
-0.06
0.64
0.99
0.73
-0.03
-0.85
-1.27
-1.01
-0.20
0.70
1.20
0.99
0.16
-0.87
-1.59
-1.67
-1.15
-0.38
0.20
0.31
-0.03
-0.47
-0.64
-0.31
0.38
1.05
1.27
0.85
-0.06
-1.04
-1.63
-1.61
-1.11
-0.53
-0.25
-0.45
-0.99
-1.48
-1.54
-1.00
0.01
1.09
1.83
1.95
1.53
0.92
0.53
0.66
1.27
2.04
2.50
2.35
1.59
0.55
-0.29
-0.56
-0.23
0.40
0.88
0.89
0.43
-0.21
-0.61
-0.53
-0.03
0.53
0.73
0.38
-0.38
-1.13
-1.43
-1.08
-0.27
0.50
0.73
0.20
-0.90
-2.01
-2.54
-2.18
-1.12
0.10
0.84
0.75
-0.06
-1.11
-1.80
-1.78
-1.10
-0.13
0.61
0.83
0.55
0.08
-0.19
-0.05
0.43
0.96
1.17
0.89
0.23
-0.43
-0.66
-0.27
0.61
1.53
1.98
1.70
0.79
-0.30
-1.06
-1.16
-0.68
-0.01
0.37
0.20
-0.47
-1.22
-1.58
-1.24
-0.24
1.03
2.04
2.41
2.06
1.28
0.54
0.26
0.55
1.20
1.74
1.77
1.14
0.07
-0.97
-1.55
-1.55
-1.18
-0.86
-0.94
-1.42
-2.00
-2.25
-1.87
-0.93
0.19
1.00
1.20
0.81
0.19
-0.23
-0.16
0.41
1.18
1.75
1.85
1.45
0.81
0.32
0.27
0.66
1.16
1.32
0.81
-0.34
-1.75
-2.83
-3.16
-2.70
-1.77
-0.88
-0.45
-0.56
-0.99
-1.34
-1.32
-0.85
-0.11
0.56
0.86
0.68
0.14
-0.43
-0.72
-0.60
-0.15
0.29
0.42
0.09
-0.52
-1.05
-1.13
-0.62
0.27
1.11
1.44
1.09
0.25
-0.64
-1.13
-1.01
-0.45
0.18
0.52
0.45
0.18
0.10
0.46
1.19
1.89
2.12
1.60
0.51
-0.68
-1.40
-1.35
-0.61
0.37
1.07
1.16
0.67
-0.06
-0.55
-0.47
0.22
1.24
2.12
2.43
2.01
1.03
-0.07
-0.79
-0.85
-0.34
0.36
0.79
0.70
0.16
-0.43
-0.70
-0.48
0.06
0.51
0.50
-0.04
-0.88
-1.58
-1.79
-1.47
-0.87
-0.40
-0.41
-0.94
-1.73
-2.34
-2.39
-1.75
-0.64
0.50
1.22
1.31
0.92
0.44
0.25
0.52
1.06
1.46
1.37
0.70
-0.23
-0.96
-1.06
-0.50
0.43
1.23
1.48
1.11
0.33
-0.44
-0.82
-0.68
-0.16
0.44
0.81
0.80
0.48
0.11
-0.02
0.21
0.74
1.29
1.50
1.19
0.41
-0.47
-1.01
-0.95
-0.35
0.39
0.78
0.50
-0.35
-1.35
-1.95
-1.82
-1.02
0.04
0.79
0.89
0.33
-0.51
-1.14
-1.23
-0.75
-0.01
0.58
0.71
0.40
-0.05
-0.25
0.04
0.70
1.35
1.54
1.06
0.04
-1.04
-1.69
-1.61
-0.93
-0.08
0.43
0.31
-0.35
-1.14
-1.56
-1.35
-0.55
0.41
1.07
1.11
0.61
-0.05
-0.41
-0.19
0.52
1.36
1.85
1.74
1.07
0.21
-0.40
-0.51
-0.12
0.47
0.86
0.80
0.28
-0.43
-0.96
-1.03
-0.62
0.03
0.52
0.55
0.04
-0.79
-1.52
-1.81
-1.54
-0.86
-0.14
0.26
0.22
-0.11
-0.41
-0.40
-0.04
0.45
0.72
0.54
-0.06
-0.69
-0.90
-0.42
0.62
1.70
2.23
1.81
0.59
-0.88
-1.86
-1.87
-0.98
0.27
1.16
1.17
0.32
-0.87
-1.68
-1.64
-0.75
0.46
1.27
1.25
0.43
-0.66
-1.34
-1.16
-0.17
1.09
1.93
1.88
0.97
-0.30
-1.24
-1.36
-0.66
0.42
1.22
1.32
0.72
-0.13
-0.63
-0.41
0.46
1.49
2.09
1.91
1.07
0.06
-0.56
-0.51
0.06
0.67
0.77
0.19
-0.88
-1.90
-2.34
-1.97
-0.99
0.04
0.59
0.39
-0.42
-1.36
-1.93
-1.84
-1.15
-0.28
0.33
0.39
-0.09
-0.83
-1.41
-1.54
-1.15
-0.44
0.25
0.63
0.65
0.44
0.31
0.48
0.95
1.49
1.72
1.38
0.51
-0.51
-1.21
-1.21
-0.54
0.44
1.18
1.30
0.77
-0.05
-0.65
-0.65
-0.05
0.82
1.46
1.53
1.05
0.33
-0.15
-0.07
0.52
1.27
1.70
1.46
0.59
-0.53
-1.35
-1.44
-0.82
0.11
0.77
0.70
-0.10
-1.21
-2.04
-2.14
-1.49
-0.46
0.39
0.67
0.37
-0.19
-0.55
-0.43
0.13
0.81
1.18
1.02
0.40
-0.33
-0.77
-0.66
-0.07
0.64
1.05
0.89
0.21
-0.60
-1.08
-0.91
-0.14
0.84
1.50
1.46
0.73
-0.34
-1.21
-1.50
-1.15
-0.43
0.23
0.50
0.32
-0.12
-0.49
-0.56
-0.33
0.01
0.17
-0.03
-0.55
-1.16
-1.48
-1.27
-0.52
0.46
1.23
1.44
0.99
0.13
-0.68
-1.03
-0.79
-0.12
0.57
0.92
0.76
0.22
-0.36
-0.65
-0.51
-0.04
0.47
0.72
0.55
0.05
-0.50
-0.79
-0.65
-0.17
0.36
0.61
0.42
-0.09
-0.60
-0.77
-0.43
0.27
0.96
1.24
0.95
0.24
-0.47
-0.77
-0.45
0.30
1.08
1.44
1.20
0.50
-0.25
-0.63
-0.46
0.11
0.67
0.84
0.47
-0.25
-0.93
-1.16
-0.83
-0.12
0.53
0.77
0.44
-0.29
-1.03
-1.39
-1.17
-0.43
0.51
1.25
1.51
1.25
0.69
0.18
-0.02
0.15
0.50
0.72
0.58
0.09
-0.52
-0.92
-0.90
-0.48
0.06
0.36
0.18
-0.42
-1.10
-1.47
-1.25
-0.48
0.50
1.20
1.27
0.69
-0.27
-1.10
-1.43
-1.14
-0.47
0.16
0.39
0.14
-0.35
-0.69
-0.57
0.04
0.91
1.63
1.90
1.62
1.00
0.38
0.01
-0.01
0.17
0.25
0.03
-0.51
-1.15
-1.56
-1.50
-0.98
-0.26
0.23
0.20
-0.34
-1.07
-1.53
-1.37
-0.57
0.51
1.39
1.71
1.43
0.86
0.44
0.48
0.96
1.58
1.89
1.61
0.77
-0.28
-1.03
-1.16
-0.62
0.27
1.01
1.21
0.76
-0.07
-0.83
-1.12
-0.80
-0.15
0.42
0.50
-0.03
-0.91
-1.66
-1.87
-1.42
-0.56
0.24
0.56
0.30
-0.30
-0.80
-0.89
-0.54
-0.04
0.18
-0.15
-0.95
-1.84
-2.32
-2.05
-1.08
0.15
1.09
1.33
0.83
-0.04
-0.73
-0.82
-0.21
0.76
1.59
1.88
1.52
0.79
0.15
-0.03
0.30
0.91
1.36
1.35
0.83
0.06
-0.53
-0.64
-0.24
0.42
0.92
0.94
0.47
-0.22
-0.67
-0.54
0.18
1.18
1.92
1.97
1.26
0.10
-0.93
-1.29
-0.84
0.13
1.02
1.30
0.77
-0.29
-1.30
-1.71
-1.32
-0.40
0.52
0.92
0.64
-0.10
-0.81
-1.06
-0.70
0.02
0.64
0.70
0.11
-0.93
-1.92
-2.42
-2.24
-1.56
-0.81
-0.43
-0.60
-1.14
-1.63
-1.63
-1.01
0.01
0.94
1.32
0.98
0.16
-0.64
-0.92
-0.48
0.48
1.50
2.10
2.04
1.45
0.70
0.21
0.19
0.55
0.96
1.03
0.60
-0.23
-1.08
-1.51
-1.28
-0.48
0.51
1.17
1.20
0.60
-0.25
-0.83
-0.81
-0.19
0.66
1.22
1.13
0.43
-0.47
-1.03
-0.89
-0.14
0.79
1.31
1.05
0.08
-1.10
-1.88
-1.85
-1.08
-0.01
0.75
0.80
0.16
-0.77
-1.41
-1.39
-0.70
0.24
0.92
0.94
0.33
-0.53
-1.10
-1.00
-0.24
0.79
1.52
1.57
0.93
0.00
-0.68
-0.73
-0.17
0.65
1.21
1.16
0.49
-0.49
-1.31
-1.61
-1.30
-0.62
0.06
0.43
0.37
0.03
-0.29
-0.34
-0.08
0.31
0.54
0.41
-0.04
-0.53
-0.68
-0.24
0.71
1.83
2.61
2.71
2.10
1.09
0.18
-0.24
-0.09
0.37
0.71
0.61
0.00
-0.83
-1.45
-1.52
-0.98
-0.11
0.63
0.87
0.49
-0.27
-0.97
-1.21
-0.83
-0.01
0.84
1.27
1.09
0.41
-0.38
-0.83
-0.71
-0.15
0.48
0.75
0.48
-0.21
-0.93
-1.29
-1.12
-0.57
-0.03
0.14
-0.18
-0.82
-1.41
-1.59
-1.22
-0.44
0.40
0.93
0.96
0.54
-0.06
-0.51
-0.60
-0.35
0.03
0.24
0.13
-0.26
-0.67
-0.81
-0.50
0.21
1.01
1.54
1.60
1.23
0.73
0.49
0.74
1.40
2.13
2.47
2.14
1.14
-0.16
-1.24
-1.69
-1.42
-0.73
-0.10
0.06
-0.31
-0.92
-1.30
-1.13
-0.40
0.52
1.12
1.06
0.40
-0.45
-0.97
-0.84
-0.14
0.67
1.08
0.76
-0.19
-1.35
-2.20
-2.38
-1.89
-1.05
-0.31
0.03
-0.03
-0.26
-0.32
-0.04
0.52
1.02
1.14
0.71
-0.12
-0.93
-1.26
-0.84
0.19
1.37
2.12
2.04
1.18
-0.05
-1.03
-1.34
-0.93
-0.10
0.60
0.80
0.44
-0.20
-0.69
-0.74
-0.32
0.28
0.68
0.63
0.14
-0.51
-0.94
-0.91
-0.43
0.18
0.50
0.25
-0.53
-1.50
-2.14
-2.10
-1.36
-0.26
0.71
1.17
1.07
0.71
0.51
0.74
1.36
2.03
2.30
1.95
1.02
-0.09
-0.91
-1.13
-0.72
0.01
0.61
0.71
0.25
-0.53
-1.20
-1.39
-1.00
-0.26
0.40
0.60
0.28
-0.30
-0.66
-0.42
0.42
1.49
2.23
2.20
1.36
0.08
-1.05
-1.53
-1.25
-0.49
0.25
0.53
0.22
-0.45
-1.02
-1.11
-0.61
0.20
0.84
0.93
0.36
-0.58
-1.42
-1.75
-1.47
-0.82
-0.22
0.00
-0.23
-0.70
-1.04
-1.01
-0.57
0.04
0.49
0.54
0.16
-0.42
-0.87
-0.90
-0.44
0.29
0.87
0.93
0.37
-0.58
-1.43
-1.71
-1.21
-0.14
1.01
1.71
1.70
1.13
0.42
0.06
0.27
0.92
1.62
1.95
1.71
1.03
0.32
-0.03
0.17
0.76
1.36
1.55
1.12
0.20
-0.78
-1.36
-1.30
-0.68
0.09
0.55
0.44
-0.18
-0.93
-1.35
-1.15
-0.38
0.54
1.10
0.94
0.12
-0.94
-1.64
-1.60
-0.81
0.25
0.98
0.93
0.14
-0.91
-1.58
-1.48
-0.65
0.41
1.08
1.00
0.25
-0.70
-1.24
-1.06
-0.25
0.74
1.36
1.30
0.65
-0.15
-0.60
-0.39
0.36
1.23
1.71
1.51
0.74
-0.16
-0.65
-0.47
0.29
1.18
1.69
1.53
0.81
-0.08
-0.67
-0.72
-0.36
0.04
0.06
-0.44
-1.27
-1.97
-2.08
-1.44
-0.26
0.90
1.49
1.21
0.21
-0.97
-1.74
-1.77
-1.12
-0.22
0.37
0.36
-0.18
-0.84
-1.11
-0.76
0.11
1.04
1.53
1.29
0.44
-0.60
-1.25
-1.19
-0.45
0.56
1.32
1.42
0.88
0.01
-0.70
-0.88
-0.46
0.28
0.88
0.97
0.47
-0.39
-1.15
-1.44
-1.12
-0.41
0.27
0.54
0.29
-0.29
-0.78
-0.83
-0.36
0.41
1.06
1.25
0.91
0.31
-0.15
-0.14
0.35
0.99
1.34
1.09
0.28
-0.67
-1.22
-0.99
-0.03
1.27
2.27
2.52
1.93
0.81
-0.33
-1.04
-1.19
-0.95
-0.68
-0.69
-1.04
-1.54
-1.85
-1.69
-1.04
-0.10
0.77
1.25
1.24
0.89
0.53
0.42
0.67
1.10
1.39
1.26
0.65
-0.23
-0.96
-1.15
-0.68
0.22
1.06
1.38
1.00
0.10
-0.83
-1.32
-1.16
-0.51
0.21
0.54
0.28
-0.43
-1.19
-1.58
-1.39
-0.78
-0.12
0.17
-0.09
-0.76
-1.44
-1.71
-1.38
-0.62
0.14
0.48
0.24
-0.37
-0.94
-1.03
-0.49
0.46
1.35
1.74
1.42
0.54
-0.49
-1.22
-1.39
-1.06
-0.51
-0.09
-0.00
-0.18
-0.36
-0.25
0.26
1.01
1.65
1.84
1.46
0.70
-0.05
-0.38
-0.13
0.55
1.28
1.66
1.49
0.90
0.25
-0.09
0.07
0.63
1.28
1.65
1.53
0.97
0.28
-0.21
-0.28
0.01
0.39
0.50
0.14
-0.62
-1.47
-2.01
-1.99
-1.47
-0.78
-0.36
-0.48
-1.09
-1.83
-2.28
-2.13
-1.45
-0.57
0.07
0.22
-0.05
-0.42
-0.50
-0.08
0.74
1.55
1.92
1.59
0.68
-0.38
-1.06
-1.03
-0.29
0.74
1.52
1.65
1.09
0.19
-0.53
-0.67
-0.18
0.56
1.03
0.88
0.11
-0.87
-1.54
-1.55
-0.89
0.06
0.84
1.12
0.89
0.43
0.06
0.02
0.28
0.61
0.75
0.54
0.04
-0.49
-0.74
-0.56
0.00
0.63
0.96
0.73
0.00
-0.89
-1.51
-1.51
-0.91
-0.02
0.64
0.71
0.16
-0.68
-1.30
-1.29
-0.62
0.37
1.17
1.39
1.00
0.29
-0.27
-0.35
0.06
0.67
1.05
0.94
0.35
-0.38
-0.85
-0.79
-0.24
0.50
1.01
0.99
0.45
-0.33
-0.92
-0.99
-0.52
0.24
0.88
1.05
0.68
-0.04
-0.73
-1.03
-0.85
-0.30
0.30
0.63
0.56
0.15
-0.36
-0.67
-0.64
-0.30
0.10
0.31
0.14
-0.32
-0.82
-1.02
-0.74
-0.04
0.80
1.38
1.46
1.05
0.46
0.07
0.12
0.59
1.17
1.47
1.26
0.61
-0.16
-0.64
-0.61
-0.18
0.27
0.36
-0.09
-0.88
-1.58
-1.76
-1.26
-0.27
0.70
1.19
0.97
0.19
-0.69
-1.20
-1.11
-0.53
0.16
0.54
0.41
-0.11
-0.68
-0.92
-0.64
0.02
0.68
0.92
0.54
-0.30
-1.16
-1.57
-1.24
-0.32
0.76
1.44
1.36
0.58
-0.45
-1.15
-1.14
-0.41
0.66
1.51
1.78
1.40
0.69
0.05
-0.19
-0.03
0.29
0.43
0.18
-0.42
-1.09
-1.48
-1.38
-0.84
-0.16
0.29
0.24
-0.32
-1.11
-1.73
-1.86
-1.45
-0.77
-0.22
-0.15
-0.57
-1.15
-1.41
-1.03
-0.02
1.22
2.12
2.26
1.63
0.62
-0.22
-0.44
0.00
0.77
1.36
1.37
0.79
-0.08
-0.72
-0.78
-0.22
0.61
1.22
1.28
0.79
0.12
-0.25
-0.02
0.71
1.55
1.95
1.63
0.66
-0.52
-1.33
-1.43
-0.85
-0.00
0.60
0.61
0.05
-0.69
-1.15
-1.05
-0.46
0.21
0.51
0.22
-0.54
-1.33
-1.73
-1.50
-0.76
0.13
0.75
0.84
0.40
-0.25
-0.73
-0.73
-0.20
0.59
1.23
1.36
0.90
0.07
-0.69
-1.01
-0.79
-0.30
0.05
-0.02
-0.51
-1.11
-1.40
-1.14
-0.41
0.50
1.19
1.42
1.17
0.67
0.20
-0.02
0.10
0.45
0.85
1.06
0.96
0.57
0.09
-0.23
-0.18
0.23
0.79
1.15
1.05
0.47
-0.34
-1.01
-1.23
-0.96
-0.46
-0.11
-0.13
-0.52
-0.97
-1.13
-0.85
-0.25
0.28
0.36
-0.12
-0.93
-1.65
-1.88
-1.50
-0.71
0.10
0.57
0.56
0.21
-0.18
-0.32
-0.09
0.41
0.90
1.12
0.95
0.47
-0.04
-0.29
-0.10
0.49
1.16
1.57
1.48
0.93
0.22
-0.21
-0.11
0.48
1.22
1.62
1.35
0.45
-0.73
-1.62
-1.82
-1.25
-0.23
0.72
1.17
0.96
0.33
-0.30
-0.54
-0.28
0.25
0.67
0.65
0.16
-0.52
-0.94
-0.83
-0.21
0.55
0.95
0.69
-0.14
-1.13
-1.75
-1.64
-0.86
0.17
0.95
1.11
0.67
-0.02
-0.50
-0.43
0.20
1.04
1.63
1.61
0.99
0.05
-0.72
-1.01
-0.78
-0.30
0.01
-0.13
-0.70
-1.38
-1.72
-1.46
-0.65
0.30
0.90
0.81
0.07
-0.90
-1.54
-1.46
-0.68
0.41
1.22
1.36
0.86
0.12
-0.35
-0.23
0.41
1.11
1.36
0.88
-0.17
-1.28
-1.87
-1.63
-0.66
0.54
1.40
1.53
0.95
0.04
-0.68
-0.79
-0.23
0.68
1.45
1.68
1.29
0.59
0.08
0.10
0.64
1.28
1.43
0.77
-0.57
-2.02
-2.84
-2.64
-1.54
-0.15
0.76
0.72
-0.19
-1.39
-2.15
-2.03
-1.05
0.26
1.25
1.46
0.91
0.01
-0.67
-0.75
-0.28
0.39
0.76
0.58
-0.06
-0.77
-1.09
-0.79
0.05
1.08
1.83
2.02
1.60
0.80
0.00
-0.50
-0.60
-0.47
-0.35
-0.49
-0.93
-1.47
-1.79
-1.63
-1.00
-0.14
0.55
0.76
0.42
-0.24
-0.85
-1.08
-0.86
-0.39
0.00
0.04
-0.28
-0.69
-0.79
-0.35
0.58
1.67
2.43
2.53
1.96
1.01
0.14
-0.30
-0.19
0.26
0.69
0.81
0.50
-0.06
-0.57
-0.75
-0.52
-0.07
0.27
0.21
-0.29
-0.97
-1.41
-1.29
-0.59
0.36
1.09
1.23
0.70
-0.20
-0.97
-1.22
-0.82
0.05
0.96
1.55
1.61
1.27
0.83
0.60
0.70
1.01
1.23
1.09
0.52
-0.29
-0.97
-1.15
-0.73
0.03
0.65
0.67
-0.07
-1.27
-2.35
-2.75
-2.23
-1.07
0.14
0.83
0.76
0.11
-0.60
-0.92
-0.65
-0.02
0.54
0.68
0.28
-0.40
-0.95
-1.00
-0.41
0.61
1.65
2.28
2.27
1.73
1.02
0.58
0.64
1.09
1.50
1.45
0.73
-0.46
-1.63
-2.25
-2.11
-1.36
-0.48
0.02
-0.08
-0.63
-1.24
-1.50
-1.22
-0.58
0.05
0.30
0.04
-0.54
-1.06
-1.17
-0.74
0.06
0.84
1.24
1.10
0.59
0.07
-0.11
0.20
0.86
1.47
1.65
1.21
0.32
-0.61
-1.13
-1.01
-0.33
0.50
1.01
0.94
0.33
-0.45
-0.95
-0.87
-0.27
0.51
1.00
0.93
0.36
-0.36
-0.78
-0.64
-0.05
0.60
0.83
0.40
-0.54
-1.51
-2.03
-1.83
-1.07
-0.19
0.35
0.33
-0.12
-0.60
-0.70
-0.27
0.49
1.17
1.34
0.84
-0.10
-1.02
-1.43
-1.09
-0.18
0.86
1.52
1.46
0.80
-0.08
-0.66
-0.64
-0.07
0.67
1.09
0.88
0.08
-0.95
-1.71
-1.85
-1.32
-0.41
0.39
0.72
0.49
-0.09
-0.61
-0.75
-0.43
0.12
0.54
0.61
0.34
0.04
0.05
0.52
1.31
2.02
2.22
1.74
0.73
-0.39
-1.15
-1.32
-0.94
-0.35
0.04
-0.02
-0.50
-1.09
-1.41
-1.21
-0.52
0.34
0.98
1.13
0.80
0.27
-0.09
-0.02
0.47
1.10
1.49
1.44
0.95
0.32
-0.10
-0.10
0.23
0.57
0.55
-0.03
-1.04
-2.04
-2.53
-2.22
-1.20
0.07
1.01
1.23
0.75
-0.07
-0.72
-0.83
-0.38
0.32
0.82
0.83
0.39
-0.20
-0.52
-0.37
0.14
0.64
0.73
0.22
-0.71
-1.64
-2.08
-1.80
-0.95
0.03
0.66
0.67
0.15
-0.49
-0.82
-0.61
0.06
0.80
1.18
0.96
0.25
-0.53
-0.91
-0.64
0.20
1.17
1.76
1.65
0.88
-0.13
-0.84
-0.89
-0.30
0.58
1.24
1.33
0.84
0.12
-0.34
-0.19
0.56
1.52
2.15
2.08
1.30
0.22
-0.60
-0.75
-0.23
0.56
1.05
0.87
0.07
-0.90
-1.49
-1.36
-0.62
0.27
0.75
0.52
-0.35
-1.41
-2.13
-2.21
-1.69
-0.94
-0.41
-0.36
-0.74
-1.18
-1.27
-0.77
0.22
1.29
1.96
1.94
1.34
0.58
0.16
0.34
0.99
1.62
1.73
1.07
-0.18
-1.52
-2.39
-2.48
-1.85
-0.90
-0.09
0.27
0.17
-0.13
-0.27
-0.04
0.56
1.21
1.55
1.35
0.64
-0.21
-0.78
-0.78
-0.23
0.53
1.02
0.97
0.41
-0.32
-0.81
-0.79
-0.35
0.17
0.36
0.05
-0.67
-1.38
-1.69
-1.38
-0.60
0.22
0.63
0.36
-0.47
-1.43
-2.02
-1.93
-1.21
-0.25
0.46
0.61
0.20
-0.43
-0.85
-0.75
-0.16
0.63
1.17
1.20
0.76
0.17
-0.17
-0.01
0.58
1.24
1.51
1.14
0.24
-0.72
-1.27
-1.09
-0.33
0.58
1.12
1.02
0.40
-0.32
-0.68
-0.43
0.33
1.19
1.73
1.69
1.15
0.44
-0.06
-0.14
0.15
0.54
0.69
0.43
-0.19
-0.89
-1.35
-1.38
-1.01
-0.49
-0.14
-0.13
-0.41
-0.76
-0.89
-0.64
-0.13
0.39
0.62
0.41
-0.12
-0.68
-0.94
-0.72
-0.09
0.66
1.20
1.31
1.02
0.54
0.18
0.16
0.45
0.81
0.88
0.46
-0.38
-1.30
-1.87
-1.78
-1.08
-0.13
0.61
0.77
0.32
-0.44
-1.10
-1.32
-1.04
-0.51
-0.09
-0.07
-0.52
-1.20
-1.70
-1.67
-1.01
0.03
1.00
1.46
1.25
0.58
-0.11
-0.35
-0.01
0.72
1.39
1.60
1.22
0.49
-0.18
-0.40
-0.08
0.54
1.02
0.99
0.39
-0.51
-1.20
-1.27
-0.63
0.39
1.28
1.57
1.20
0.46
-0.14
-0.24
0.17
0.74
1.03
0.74
-0.03
-0.91
-1.39
-1.20
-0.37
0.71
1.55
1.79
1.37
0.55
-0.23
-0.61
-0.46
0.04
0.54
0.73
0.52
0.13
-0.10
0.06
0.58
1.14
1.33
0.90
-0.07
-1.17
-1.88
-1.86
-1.13
-0.09
0.74
0.92
0.36
-0.70
-1.75
-2.35
-2.29
-1.69
-0.90
-0.28
-0.01
-0.02
-0.03
0.23
0.78
1.39
1.70
1.45
0.68
-0.25
-0.83
-0.71
0.05
1.04
1.64
1.45
0.48
-0.85
-1.88
-2.12
-1.51
-0.42
0.52
0.83
0.41
-0.41
-1.10
-1.22
-0.72
0.13
0.84
1.02
0.61
-0.11
-0.67
-0.72
-0.17
0.70
1.44
1.64
1.18
0.30
-0.56
-0.97
-0.77
-0.15
0.47
0.71
0.43
-0.18
-0.74
-0.91
-0.62
-0.07
0.38
0.42
0.01
-0.61
-1.07
-1.06
-0.51
0.33
1.10
1.44
1.25
0.68
0.09
