1561948526.00
64.000000
-0.00
-0.00
-0.00
-0.00
-0.00
-0.00
-0.00
-0.00
-0.00
-0.00
0.00
0.01
0.01
-0.00
-0.03
-0.05
-0.05
0.00
0.13
0.36
0.66
1.01
1.37
1.72
2.06
2.40
2.79
3.24
3.80
4.42
5.06
5.66
6.20
6.68
7.15
7.68
8.31
9.14
10.09
11.04
11.88
12.56
13.14
13.76
14.65
15.96
17.91
20.32
22.90
25.38
27.58
29.57
31.68
34.32
37.81
42.54
48.15
54.10
59.83
64.97
69.58
74.14
79.34
85.71
93.76
103.00
112.62
121.73
129.77
136.75
143.30
150.75
157.77
166.64
177.95
191.79
206.97
220.57
228.25
225.36
208.53
176.87
132.76
80.05
23.07
-34.94
-92.44
-149.16
-205.23
-260.37
-313.74
-363.87
-409.83
-450.91
-486.50
-515.74
-537.23
-549.22
-549.96
-538.37
-514.21
-478.67
-433.88
-382.45
-327.02
-269.84
-212.63
-156.66
-102.95
-52.37
-5.90
35.58
71.43
101.35
125.50
144.38
158.69
169.15
176.37
180.75
182.58
182.09
179.54
175.27
169.67
163.14
156.02
148.59
140.99
133.32
125.63
117.94
110.29
102.73
95.32
88.11
81.17
74.52
68.21
62.24
56.59
51.23
46.12
41.23
36.58
32.20
28.17
24.54
21.30
18.39
15.71
13.12
10.57
8.06
5.72
3.69
2.09
0.94
0.09
-0.69
-1.66
-2.96
-4.51
-6.10
-7.41
-8.20
-8.45
-8.39
-8.44
-8.98
-10.21
-11.99
-13.92
-15.53
-16.50
-16.82
-16.77
-16.73
-17.06
-17.94
-19.50
-21.90
-25.22
-29.03
-32.15
-32.72
-28.98
-20.15
-7.12
7.74
21.46
31.76
37.94
40.79
41.83
42.19
42.02
40.63
37.17
31.45
24.11
16.41
9.56
4.28
0.62
-1.74
-3.15
-3.73
-3.31
-1.78
0.55
2.83
3.94
3.15
0.72
-1.90
-2.51
0.85
8.83
20.25
32.47
42.43
47.89
48.22
44.46
38.60
32.62
27.81
24.46
22.18
20.35
18.48
16.34
13.86
11.01
7.75
4.04
0.05
-4.11
-8.09
-11.53
-14.21
-16.15
-17.49
-18.45
-19.17
-19.59
-19.55
-18.82
-17.31
-15.17
-12.81
-10.77
-9.55
-9.42
-10.30
-11.80
-13.36
-14.50
-14.96
-14.79
-14.22
-13.60
-13.29
-13.62
-14.72
-16.33
-17.66
-17.52
-14.74
-8.79
-0.21
9.40
17.88
23.39
25.09
23.37
19.50
15.01
11.09
8.31
6.70
5.95
5.70
5.63
5.49
5.09
4.31
3.17
1.72
0.12
-1.44
-2.75
-3.68
-4.16
-4.23
-4.07
-3.93
-4.06
-4.66
-5.76
-7.18
-8.58
-9.65
-10.19
-10.20
-9.90
-9.66
-9.81
-10.58
-11.94
-13.67
-15.43
-16.89
-17.93
-18.64
-19.34
-20.50
-22.59
-26.02
-30.86
-36.77
-42.71
-47.14
-48.33
-44.94
-36.60
-24.11
-9.28
5.69
18.84
28.96
35.68
39.35
40.60
40.17
38.67
36.61
34.38
32.24
30.27
28.43
26.53
24.38
21.78
18.62
14.95
10.93
6.88
3.10
-0.15
-2.89
-5.35
-7.99
-11.24
-15.29
-20.03
-25.03
-29.70
-33.60
-36.63
-39.09
-41.65
-45.04
-49.67
-55.32
-60.94
-64.86
-65.31
-61.01
-51.73
-38.44
-22.94
-7.27
6.94
18.84
28.32
35.68
41.37
45.71
48.89
51.08
52.48
53.24
53.42
52.95
51.68
49.50
46.48
42.82
38.92
35.19
31.98
29.47
27.67
26.37
25.20
23.78
21.79
19.10
15.87
12.43
9.21
6.52
4.42
2.69
0.94
-1.20
-3.93
-7.12
-10.43
-13.48
-16.01
-18.02
-19.76
-21.72
-24.40
-28.25
-33.37
-39.40
-45.30
-49.57
-50.63
-47.37
-39.67
-28.48
-15.58
-2.95
7.86
16.10
21.80
25.49
27.79
29.23
30.22
31.06
32.01
33.18
34.50
35.67
36.31
36.11
35.06
33.43
31.68
30.30
29.56
29.43
29.66
29.87
29.72
28.96
27.50
25.37
22.67
19.55
16.22
12.88
9.71
6.82
4.19
1.69
-0.86
-3.57
-6.43
-9.29
-11.89
-14.05
-15.77
-17.25
-18.85
-20.87
-23.40
-26.28
-29.14
-31.57
-33.38
-34.64
-35.81
-37.59
-40.67
-45.43
-51.55
-57.88
-62.61
-63.80
-60.01
-50.80
-36.83
-19.74
-1.76
14.74
27.71
35.86
38.92
37.77
34.16
30.10
27.17
25.97
26.13
26.77
27.06
26.71
25.88
24.82
23.57
21.89
19.49
16.42
13.09
10.16
8.20
7.35
7.23
7.13
6.39
4.64
1.94
-1.29
-4.45
-7.06
-8.85
-9.91
-10.58
-11.33
-12.63
-14.82
-18.05
-22.21
-26.86
-31.18
-34.10
-34.53
-31.69
-25.50
-16.72
-6.73
2.90
10.87
16.49
19.77
21.15
21.26
20.68
19.88
19.13
18.60
18.32
18.21
18.12
17.86
17.27
16.24
14.74
12.85
10.79
8.89
7.47
6.73
6.60
6.71
6.56
5.70
4.00
1.69
-0.76
-2.85
-4.27
-5.08
-5.60
-6.31
-7.61
-9.62
-12.19
-14.91
-17.32
-19.06
-20.06
-20.52
-20.89
-21.77
-23.70
-27.07
-31.84
-37.41
-42.53
-45.52
-44.79
-39.46
-29.83
-17.41
-4.42
7.00
15.45
20.64
23.09
23.71
23.32
22.40
21.23
19.98
18.85
18.04
17.63
17.50
17.43
17.19
16.65
15.82
14.84
13.82
12.82
11.81
10.73
9.52
8.21
6.88
5.59
4.33
2.96
1.29
-0.84
-3.47
-6.48
-9.64
-12.69
-15.47
-17.95
-20.25
-22.61
-25.36
-28.85
-33.36
-38.85
-44.74
-49.84
-52.56
-51.39
-45.55
-35.40
-22.43
-8.83
3.29
12.54
18.50
21.64
22.85
23.03
22.86
22.76
22.98
23.68
24.82
26.18
27.33
27.82
27.36
25.94
23.86
21.60
19.67
18.42
17.95
18.14
18.70
19.26
19.48
19.18
18.31
16.98
15.35
13.56
11.67
9.70
7.68
5.70
3.87
2.32
1.03
-0.10
-1.26
-2.64
-4.37
-6.39
-8.58
-10.73
-12.73
-14.58
-16.40
-18.41
-20.75
-23.48
-26.45
-29.43
-32.11
-34.28
-35.87
-37.03
-38.13
-39.72
-42.47
-46.90
-53.03
-60.04
-66.22
-69.25
-67.00
-58.39
-43.93
-25.69
-6.59
10.57
23.94
32.91
37.91
39.88
39.79
38.49
36.66
34.93
33.80
33.53
33.97
34.65
34.97
34.45
32.92
30.55
27.73
24.94
22.62
21.02
20.21
20.00
19.98
19.64
18.54
16.49
13.58
10.19
6.81
3.88
1.63
0.06
-1.10
-2.21
-3.68
-5.81
-8.72
-12.26
-16.05
-19.60
-22.51
-24.64
-26.17
-27.51
-29.25
-31.89
-35.75
-40.70
-46.06
-50.60
-52.73
-51.00
-44.68
-34.14
-20.84
-6.85
5.83
15.86
22.83
27.02
29.04
29.46
28.64
26.89
24.55
22.05
19.85
18.25
17.28
16.76
16.36
15.76
14.74
13.28
11.52
9.72
8.14
6.92
5.98
5.04
3.70
1.60
-1.35
-4.90
-8.52
-11.57
-13.61
-14.58
-14.88
-15.23
-16.46
-19.21
-23.71
-29.53
-35.59
-40.32
-42.09
-39.70
-32.86
-22.41
-10.01
2.37
13.08
21.21
26.73
30.15
32.22
33.56
34.59
35.45
36.13
36.47
36.19
35.05
32.91
29.89
26.37
22.82
19.70
17.23
15.39
13.98
12.78
11.60
10.34
8.93
7.27
5.23
2.73
-0.21
-3.34
-6.27
-8.57
-9.98
-10.52
-10.57
-10.73
-11.59
-13.46
-16.25
-19.50
-22.57
-24.96
-26.54
-27.60
-28.66
-30.29
-32.80
-36.29
-40.68
-45.72
-50.96
-55.55
-58.23
-57.50
-52.20
-42.00
-27.77
-11.35
5.04
19.46
30.80
38.75
43.62
45.94
46.37
45.66
44.74
44.63
46.14
49.45
53.83
57.79
59.42
57.05
49.86
38.10
23.06
6.42
-10.55
-27.69
-45.85
-66.54
-90.91
-118.92
-149.11
-178.77
-204.55
-222.97
-231.16
-227.64
-213.17
-190.81
-165.35
-141.63
-122.64
-108.25
-95.43
-79.90
-58.19
-29.15
5.92
44.21
82.67
119.01
151.71
179.77
202.29
218.45
227.88
230.88
228.47
222.13
213.71
204.94
197.13
190.96
186.32
182.55
178.91
175.03
171.18
167.85
164.90
161.26
154.99
144.13
127.86
107.04
84.08
61.75
41.98
25.05
9.87
-5.00
-20.23
-35.17
-48.21
-57.72
-63.01
-64.73
-64.44
-63.71
-63.15
-62.07
-58.66
-50.93
-37.72
-19.58
0.92
19.87
32.87
36.30
28.45
10.17
-15.14
-42.43
-66.60
-84.28
-95.24
-102.47
-110.81
-124.76
-146.50
-175.04
-206.58
-236.00
-258.29
-269.44
-266.82
-249.19
-216.77
-171.54
-117.45
-60.15
-6.04
38.96
70.98
89.06
95.35
94.17
90.29
87.60
88.23
92.72
100.79
111.99
125.57
139.85
151.61
156.55
150.73
132.40
103.26
68.20
33.47
4.30
-16.92
-31.04
-41.10
-50.41
-60.88
-72.25
-82.44
-88.78
-89.63
-85.45
-78.72
-72.97
-71.04
-73.94
-80.43
-87.84
-93.29
-94.83
-91.75
-84.34
-73.26
-59.00
-41.88
-22.30
-1.18
19.86
38.65
53.11
61.92
65.13
64.16
61.23
58.49
57.13
57.11
57.55
57.57
56.98
56.41
56.97
59.55
64.36
70.91
78.23
85.27
91.11
95.10
96.81
96.15
93.40
89.15
84.05
78.43
72.08
64.24
53.83
39.88
21.84
-0.24
-25.55
-52.58
-79.17
-102.82
-121.30
-133.36
-139.30
-141.14
-142.27
-146.41
-156.51
-173.65
-196.33
-220.52
-240.52
-250.43
-245.79
-224.91
-189.22
-142.91
-91.69
-41.46
2.98
38.85
65.61
84.78
99.22
111.98
125.15
139.04
152.15
161.80
165.42
161.65
151.00
135.51
118.03
101.24
87.09
76.70
70.58
68.91
71.59
78.15
87.60
98.50
109.16
118.21
125.03
129.80
132.98
134.32
132.12
123.25
104.28
73.25
30.99
-18.53
-69.22
-114.82
-150.82
-175.63
-190.40
-197.89
-200.93
-201.25
-199.08
-193.46
-183.12
-167.38
-146.71
-122.80
-98.15
-75.26
-55.98
-41.20
-30.96
-24.73
-21.69
-20.66
-20.04
-17.85
-12.22
-2.01
12.61
29.86
46.76
59.83
66.04
63.77
53.49
37.88
21.21
7.98
1.13
0.75
3.69
4.56
-2.14
-19.67
-47.32
-80.08
-109.98
-128.66
-130.33
-114.04
-84.14
-48.70
-16.33
7.15
20.56
26.81
30.24
33.85
37.75
39.77
37.48
29.95
18.19
4.16
-10.50
-24.90
-38.33
-49.22
-55.01
-53.19
-42.90
-25.73
-5.26
14.61
31.23
43.91
53.34
60.60
66.29
70.36
72.34
71.67
68.05
61.53
52.52
41.84
30.61
20.00
10.74
2.97
-3.67
-9.72
-15.46
-20.70
-24.95
-27.78
-29.27
-30.05
-30.96
-32.57
-34.79
-36.72
-36.96
-34.17
-27.70
-17.97
-6.20
6.28
18.87
32.13
47.48
66.44
89.67
116.58
145.42
173.89
199.81
221.53
238.00
248.51
252.32
248.38
235.25
211.38
175.60
127.90
70.36
7.77
-52.60
-102.47
-134.84
-146.40
-138.77
-117.92
-91.98
-68.42
-51.95
-43.85
-42.92
-47.03
-54.17
-62.50
-69.75
-72.95
-69.26
-57.52
-39.70
-20.76
-6.86
-2.43
-7.95
-19.71
-31.74
-38.90
-39.33
-34.88
-29.47
-26.61
-27.67
-31.74
-36.90
-41.77
-46.08
-50.11
-53.61
-55.19
-52.63
-44.21
-29.87
-11.69
6.91
22.57
33.29
39.01
41.18
41.78
42.32
43.40
44.70
45.51
45.25
43.87
41.90
40.22
39.59
40.35
42.15
44.16
45.45
45.45
44.12
41.91
39.37
36.74
33.82
30.12
25.28
19.33
12.86
6.68
1.54
-2.30
-5.11
-7.50
-10.13
-13.36
-17.10
-20.88
-24.13
-26.45
-27.80
-28.50
-29.15
-30.44
-33.00
-37.22
-43.08
-49.89
-56.26
-60.27
-59.98
-54.14
-42.84
-27.57
-10.81
4.87
17.66
26.84
32.67
35.86
37.06
36.62
34.82
32.06
28.98
26.33
24.65
24.03
24.13
24.49
24.66
24.38
23.42
21.45
18.04
12.74
5.36
-3.84
-14.11
-24.32
-33.22
-39.74
-43.06
-42.65
-38.42
-30.79
-20.97
-10.93
-3.07
0.22
-2.73
-12.35
-27.52
-45.55
-62.67
-74.89
-79.26
-74.79
-62.92
-46.92
-30.67
-17.24
-8.11
-3.22
-1.75
-2.84
-5.74
-9.31
-11.46
-9.41
-0.72
15.29
36.80
59.94
80.43
95.24
103.57
106.56
106.15
103.91
100.46
95.64
89.10
80.83
71.36
61.53
52.05
43.13
34.43
25.16
14.60
2.48
-10.66
-23.63
-35.04
-43.87
-49.96
-54.10
-57.88
-63.18
-71.57
-83.66
-98.54
-113.71
-125.47
-129.95
-124.43
-108.39
-83.83
-54.59
-25.04
1.24
22.28
37.75
48.46
55.58
60.21
63.17
65.10
66.60
68.28
70.52
73.24
75.69
76.57
74.50
68.70
59.44
48.19
37.18
28.59
23.62
21.95
21.81
20.65
16.18
7.34
-5.32
-19.80
-33.49
-44.09
-50.44
-52.78
-52.45
-51.21
-50.50
-51.06
-52.84
-55.29
-57.73
-59.60
-60.61
-60.68
-59.97
-58.86
-57.83
-57.19
-56.71
-55.41
-51.81
-44.58
-33.39
-19.37
-4.80
7.79
16.77
22.04
24.84
26.92
29.49
32.67
35.60
37.13
36.67
34.50
31.59
28.98
27.18
25.93
24.44
21.89
17.90
12.77
7.25
2.07
-2.26
-5.55
-7.63
-8.26
-7.15
-4.33
-0.36
3.76
7.09
9.26
10.68
12.16
14.20
16.35
17.17
14.74
7.48
-5.07
-21.98
-41.11
-59.55
-74.30
-82.72
-83.11
-75.13
-60.09
-40.93
-21.84
-7.36
-1.15
-4.73
-16.73
-33.04
-47.88
-55.59
-52.56
-38.30
-15.57
10.96
36.43
57.43
72.56
82.03
86.64
86.92
82.96
74.88
63.54
50.99
40.10
33.57
32.79
37.14
44.10
50.29
52.93
50.97
45.50
39.18
34.87
34.25
37.00
40.88
42.79
40.12
31.91
19.06
3.91
-10.90
-23.37
-32.78
-39.63
-45.12
-50.54
-56.67
-63.56
-70.56
-76.67
-80.87
-82.43
-80.97
-76.36
-68.67
-58.22
-45.71
-32.31
-19.56
-8.87
-0.98
4.48
8.78
13.33
18.80
24.46
28.49
28.92
24.75
16.70
7.02
-1.46
-6.54
-7.51
-5.28
-1.74
1.19
2.32
1.40
-1.04
-4.23
-7.45
-10.23
-12.34
-13.67
-14.18
-13.90
-12.92
-11.44
-9.79
-8.37
-7.59
-7.85
-9.38
-12.15
-15.83
-19.77
-23.33
-26.05
-27.97
-29.62
-31.73
-35.02
-39.89
-46.35
-53.97
-61.77
-68.30
-71.70
-70.20
-62.69
-49.34
-31.63
-12.00
6.95
23.18
35.65
44.22
49.33
51.69
52.07
51.39
50.58
50.44
51.35
53.11
55.05
56.33
56.39
55.05
52.65
49.71
46.74
44.08
41.82
39.94
38.31
36.79
35.18
33.26
30.75
27.52
23.57
19.12
14.57
10.27
6.45
3.12
0.05
-3.10
-6.58
-10.45
-14.55
-18.57
-22.17
-25.19
-27.66
-29.84
-32.17
-35.12
-39.14
-44.46
-50.99
-58.06
-64.38
-68.22
-67.82
-62.09
-51.07
-36.12
-19.52
-3.73
9.41
19.06
25.35
28.99
30.81
31.46
31.36
30.86
30.28
29.90
29.83
29.90
29.74
28.91
27.14
24.48
21.26
18.01
15.19
13.06
11.54
10.33
8.94
6.95
4.13
0.49
-3.69
-7.98
-11.94
-15.29
-17.97
-20.22
-22.50
-25.37
-29.30
-34.50
-40.65
-46.86
-51.75
-53.74
-51.62
-44.95
-34.35
-21.36
-7.97
4.02
13.47
20.10
24.30
26.80
28.33
29.42
30.38
31.33
32.22
32.91
33.16
32.80
31.80
30.31
28.66
27.21
26.20
25.65
25.33
24.92
24.08
22.62
20.54
17.96
15.07
12.01
8.77
5.29
1.46
-2.69
-7.09
-11.53
-15.83
-19.85
-23.51
-26.81
-29.88
-33.03
-36.79
-41.81
-48.55
-56.80
-65.39
-72.26
-75.06
-72.04
-62.78
-48.45
-31.38
-14.24
0.87
12.83
21.53
27.44
31.29
33.76
35.51
37.11
39.03
41.50
44.32
46.98
48.80
49.28
48.27
46.08
43.25
40.42
38.04
36.33
35.32
34.83
34.63
34.41
33.84
32.62
30.59
27.71
24.12
20.14
16.12
12.39
9.15
6.35
3.74
0.97
-2.28
-6.13
-10.45
-14.98
-19.44
-23.72
-27.93
-32.32
-37.18
-42.76
-49.24
-56.67
-64.85
-73.03
-79.80
-83.19
-81.34
-73.21
-59.17
-41.11
-21.78
-3.92
10.61
21.13
28.03
32.23
34.69
36.22
37.40
38.64
40.15
41.91
43.62
44.83
45.16
44.43
42.79
40.64
38.42
36.49
35.03
34.04
33.35
32.73
31.92
30.69
28.90
26.55
23.75
20.69
17.55
14.46
11.51
8.73
6.19
3.92
1.88
-0.09
-2.28
-5.01
-8.52
-12.81
-17.60
-22.40
-26.72
-30.17
-32.74
-34.73
-36.74
-39.51
-43.67
-49.57
-56.83
-64.27
-69.97
-71.71
-67.81
-57.79
-42.70
-24.88
-7.12
8.23
19.91
27.84
32.70
35.38
36.54
36.60
35.83
34.58
33.30
32.38
32.03
32.11
32.26
32.01
31.00
29.15
26.63
23.87
21.26
19.11
17.47
16.07
14.48
12.23
8.98
4.69
-0.38
-5.70
-10.70
-14.93
-18.24
-20.78
-22.98
-25.41
-28.64
-33.12
-38.91
-45.52
-51.81
-56.19
-57.02
-53.25
-44.89
-33.08
-19.70
-6.76
4.34
12.99
19.33
23.82
26.89
28.78
29.66
29.80
29.61
29.55
29.93
30.70
31.46
31.59
30.60
28.39
25.40
22.49
20.64
20.44
21.71
23.53
24.47
23.27
19.35
13.15
5.83
-1.18
-6.80
-10.65
-12.99
-14.51
-16.08
-18.60
-22.94
-29.83
-39.61
-51.85
-65.41
-79.01
-92.20
-106.06
-122.92
-145.05
-172.81
-203.63
-232.32
-252.92
-261.08
-255.66
-238.71
-214.16
-185.79
-155.90
-124.97
-92.32
-57.16
-19.34
20.32
60.11
97.74
130.67
156.75
174.80
185.19
189.81
191.52
193.11
196.12
200.30
203.90
204.72
201.46
194.47
185.63
177.24
170.75
166.03
161.52
155.28
145.99
133.62
119.32
104.76
91.40
80.12
71.07
63.75
57.20
50.17
41.38
29.87
15.29
-1.95
-20.66
-39.09
-55.07
-66.40
-71.35
-69.24
-60.88
-48.42
-34.66
-22.02
-11.58
-2.96
5.31
14.76
26.26
39.79
54.71
70.36
86.36
102.51
118.49
133.67
147.08
157.84
165.42
169.70
170.83
168.83
163.62
155.26
144.52
133.02
122.76
115.21
110.25
105.97
99.19
86.89
67.57
41.81
11.81
-19.84
-51.50
-83.10
-115.72
-150.27
-186.26
-221.12
-250.83
-271.31
-280.15
-277.56
-266.29
-250.38
-233.43
-217.51
-202.97
-189.25
-176.04
-163.89
-154.11
-147.96
-145.95
-147.73
-152.57
-159.90
-169.50
-180.79
-192.07
-200.09
-200.66
-190.32
-167.89
-135.32
-97.09
-58.58
-24.34
2.99
22.71
35.34
41.90
43.56
41.82
38.54
35.85
35.42
37.98
42.96
48.91
54.03
56.81
56.43
52.72
46.19
37.75
28.66
20.42
14.50
11.88
12.38
14.44
15.33
11.96
1.96
-15.15
-37.59
-61.69
-83.29
-99.32
-108.41
-110.88
-108.21
-102.50
-95.97
-90.67
-87.97
-88.37
-91.12
-93.56
-91.63
-81.23
-59.99
-28.21
11.35
54.42
95.37
127.51
144.95
144.67
128.32
102.80
78.93
67.98
77.66
107.99
150.23
191.48
220.30
230.69
223.06
202.25
171.28
136.36
105.20
81.48
64.38
51.50
41.67
35.34
33.18
34.84
37.36
38.45
34.45
23.32
5.87
-15.12
-36.74
-57.41
-77.13
-96.82
-112.74
-123.69
-129.30
-130.12
-127.75
-124.62
-122.84
-122.87
-122.86
-120.09
-114.02
-105.56
-95.89
-85.11
-72.07
-54.91
-31.79
-1.92
33.15
67.64
93.47
103.16
93.12
64.90
24.83
-17.40
-51.62
-67.28
-58.84
-31.45
1.16
26.96
41.88
48.34
51.17
53.96
57.77
61.00
62.96
63.46
64.68
69.10
76.73
84.87
89.49
87.41
77.41
60.96
41.88
23.13
8.09
-2.36
-9.54
-15.59
-21.98
-29.18
-36.86
-44.32
-50.67
-55.39
-59.07
-62.84
-67.95
-75.27
-85.14
-96.83
-108.20
-115.77
-115.65
-105.44
-85.12
-57.15
-25.62
5.02
31.26
51.27
64.90
73.06
76.84
77.28
75.52
72.92
70.89
70.39
71.50
73.34
74.53
73.68
70.16
64.31
57.30
50.59
45.32
41.92
40.02
38.77
37.13
34.35
30.18
24.87
19.03
13.31
8.14
3.63
-0.44
-4.44
-8.71
-13.45
-18.66
-24.15
-29.62
-34.74
-39.29
-43.26
-46.97
-51.01
-56.28
-63.60
-73.21
-84.27
-94.61
-101.18
-101.01
-92.41
-75.60
-53.04
-28.57
-6.09
11.63
23.56
30.14
32.70
32.78
32.13
32.13
33.73
37.21
42.03
46.66
49.18
48.16
43.63
37.94
34.20
35.07
41.72
53.65
68.90
85.00
99.79
112.15
122.92
132.88
142.21
150.36
156.88
161.82
165.93
170.03
174.35
179.03
181.75
178.35
164.48
138.03
100.19
55.23
8.83
-40.49
-88.19
-127.94
-155.84
-173.28
-184.44
-194.89
-206.45
-217.43
-224.23
-221.82
-207.20
-177.53
-134.20
-81.41
-26.35
21.56
52.61
60.44
46.44
19.24
-7.89
-21.63
-13.27
17.12
60.59
102.98
131.09
138.50
126.61
102.07
73.62
48.54
29.77
15.71
2.59
-11.90
-26.37
-37.03
-41.36
-39.07
-32.24
-24.73
-20.68
-22.67
-30.80
-43.14
-58.38
-78.47
-105.75
-140.26
-178.54
-214.33
-240.39
-250.68
-242.18
-206.26
-146.31
-76.89
-14.95
30.47
59.89
78.81
92.96
107.54
123.04
135.76
142.18
141.09
133.67
122.24
109.36
95.41
82.37
71.71
63.04
55.97
50.74
47.90
47.37
48.19
48.98
48.87
47.10
42.80
36.22
28.78
22.38
18.32
16.84
17.38
19.15
20.96
21.40
19.61
15.67
10.37
4.86
0.17
-3.04
-4.64
-5.30
-6.29
-8.62
-12.42
-16.81
-20.19
-20.95
-18.10
-11.64
-2.71
6.90
15.31
21.11
23.62
22.89
19.51
14.29
8.05
1.37
-5.42
-12.11
-18.50
-24.33
-29.30
-33.28
-36.38
-38.93
-41.32
-43.73
-46.04
-47.86
-48.77
-48.58
-47.56
-46.26
-45.40
-45.47
-46.70
-48.91
-51.71
-54.64
-57.27
-59.33
-60.69
-61.50
-62.08
-62.91
-64.45
-67.00
-70.58
-74.77
-78.75
-81.30
-81.14
-77.25
-69.21
-57.42
-43.05
-27.67
-12.75
0.73
12.44
22.52
31.27
38.88
45.30
50.35
53.87
55.87
56.50
55.96
54.44
52.05
48.98
45.58
42.37
39.66
37.21
34.08
29.06
21.40
11.57
1.22
-7.35
-12.33
-13.26
-11.26
-8.44
-6.95
-8.19
-12.58
-19.80
-29.12
-39.56
-50.00
-59.13
-65.76
-69.28
-70.02
-69.39
-69.58
-73.03
-81.40
-94.48
-109.41
-120.95
-122.95
-110.63
-82.82
-42.92
2.14
44.43
77.87
100.04
112.03
116.88
117.59
115.85
112.16
106.63
99.92
93.44
88.77
86.77
87.04
87.94
87.32
83.52
76.09
66.00
55.11
45.19
37.21
30.91
25.23
18.90
11.20
2.16
-7.53
-16.89
-25.08
-31.62
-36.36
-39.35
-40.76
-40.85
-40.15
-39.47
-39.83
-42.09
-46.61
-53.08
-60.57
-68.01
-74.58
-80.09
-84.97
-89.87
-95.20
-100.67
-105.22
-107.39
-105.85
-99.86
-89.43
-75.06
-57.37
-36.83
-13.87
10.70
35.27
57.31
73.87
82.57
82.71
75.74
65.01
54.66
48.18
47.47
52.43
61.23
70.93
78.21
80.05
74.47
61.21
42.14
21.13
3.17
-7.27
-7.85
0.63
14.50
28.72
38.80
42.31
39.23
31.18
20.12
7.39
-6.50
-21.24
-35.88
-48.50
-56.62
-58.17
-52.58
-41.07
-26.27
-11.17
1.93
12.06
19.44
24.98
29.48
33.25
36.08
37.59
37.65
36.60
35.08
33.77
33.00
32.59
32.03
30.68
28.18
24.57
20.31
16.09
12.55
10.05
8.49
7.42
6.17
4.12
0.93
-3.36
-8.35
-13.42
-17.94
-21.46
-23.82
-25.19
-26.00
-26.78
-28.00
-29.94
-32.59
-35.69
-38.84
-41.73
-44.30
-46.89
-50.08
-54.46
-60.20
-66.71
-72.53
-75.70
-74.34
-67.44
-55.30
-39.51
-22.40
-6.20
7.58
18.44
26.69
32.99
37.92
41.81
44.80
46.90
48.14
48.49
47.91
46.38
44.10
41.59
39.61
38.90
39.77
41.79
43.75
44.03
41.31
35.13
26.20
16.25
7.31
1.08
-1.64
-1.08
1.76
5.53
8.89
10.72
10.11
6.38
-0.83
-11.46
-24.80
-39.66
-54.49
-67.82
-78.46
-85.64
-88.91
-88.01
-82.83
-73.46
-60.45
-44.94
-28.56
-13.13
-0.13
9.72
16.62
21.46
25.36
29.18
33.23
37.23
40.61
42.75
43.23
41.96
39.24
35.81
32.73
31.18
31.93
35.08
39.82
44.74
48.32
49.52
48.03
44.21
38.75
32.30
25.25
17.61
9.00
-1.16
-13.32
-27.43
-42.75
-57.88
-71.26
-81.70
-88.85
-93.19
-95.65
-97.28
-99.01
-101.71
-106.37
-113.86
-124.60
-137.88
-151.62
-162.61
-167.28
-162.82
-148.06
-123.99
-93.78
-62.22
-34.73
-15.98
-8.55
-11.85
-22.00
-32.81
-37.58
-31.06
-10.70
22.87
66.20
113.88
159.41
196.38
219.82
227.64
221.57
206.67
189.50
175.31
165.82
158.86
150.11
135.89
115.57
91.99
69.93
53.58
44.51
41.22
40.22
37.83
31.67
21.33
7.92
-6.72
-20.58
-31.91
-39.16
-41.12
-37.00
-26.83
-11.69
6.26
24.27
39.65
50.52
56.32
57.85
56.97
55.96
56.81
60.52
66.79
74.16
80.66
84.65
85.51
83.80
80.93
78.25
76.48
75.30
73.64
70.20
64.03
54.84
43.10
30.01
17.50
8.06
4.22
7.64
18.23
33.60
49.55
61.34
65.33
60.20
47.17
29.17
9.50
-9.27
-25.78
-39.70
-51.16
-60.46
-68.00
-74.53
-81.14
-88.89
-98.06
-107.65
-115.18
-117.45
-111.75
-97.07
-74.72
-48.03
-21.31
1.50
17.85
27.05
30.05
28.90
25.97
23.45
22.78
24.23
26.85
28.71
27.69
22.32
12.49
-0.49
-14.49
-27.35
-37.74
-45.30
-50.58
-54.65
-58.83
-64.61
-73.27
-84.99
-97.67
-106.54
-105.50
-89.96
-59.86
-20.83
17.42
45.03
56.08
50.83
34.71
15.18
-1.81
-13.73
-21.23
-26.49
-31.57
-37.82
-46.18
-57.49
-72.24
-89.78
-107.66
-121.83
-127.89
-122.66
-105.70
-79.67
-49.57
-21.04
1.39
15.42
21.14
20.32
15.45
8.81
2.07
-3.75
-8.18
-11.13
-12.76
-13.42
-13.47
-13.10
-12.35
-11.12
-9.34
-7.10
-4.81
-3.05
-2.46
-3.53
-6.35
-10.60
-15.56
-20.34
-24.12
-26.44
-27.39
-27.62
-28.22
-30.36
-34.92
-41.96
-50.44
-58.28
-62.90
-62.09
-54.81
-41.68
-24.74
-6.70
10.05
24.14
35.30
43.96
50.67
55.70
58.97
60.38
60.00
58.22
55.62
52.76
50.02
47.56
45.38
43.39
41.55
39.88
38.46
37.43
36.85
36.61
36.34
35.47
33.35
29.62
24.27
17.83
11.05
4.69
-0.83
-5.53
-9.77
-14.15
-19.20
-25.33
-32.70
-41.13
-49.98
-58.09
-63.95
-66.07
-63.53
-56.42
-45.96
-34.07
-22.74
-13.35
-6.36
-1.35
2.49
5.87
9.13
12.25
15.02
17.24
18.82
19.70
19.79
18.92
17.04
14.29
11.14
8.31
6.55
6.37
7.80
10.45
13.64
16.64
18.92
20.23
20.57
20.14
19.13
17.67
15.79
13.43
10.41
6.46
1.30
-5.31
-13.28
-22.02
-30.39
-36.85
-39.95
-38.79
-33.41
-24.77
-14.39
-3.85
5.72
13.82
20.49
26.08
31.00
35.62
40.11
44.52
48.72
52.43
55.28
56.96
57.36
56.59
54.98
53.00
51.03
49.39
48.20
47.46
47.03
46.71
46.32
45.71
44.76
43.40
41.53
39.07
35.99
32.36
28.42
24.48
20.84
17.68
14.91
12.26
9.36
5.97
2.03
-2.24
-6.47
-10.33
-13.64
-16.48
-19.18
-22.23
-26.05
-30.84
-36.48
-42.52
-48.39
-53.55
-57.79
-61.20
-64.23
-67.52
-71.82
-77.75
-85.45
-94.22
-102.26
-106.96
-105.58
-96.31
-79.17
-56.15
-30.62
-6.13
14.68
30.68
42.03
49.63
54.39
57.01
58.05
58.16
58.08
58.47
59.65
61.42
63.22
64.41
64.54
63.51
61.54
58.97
56.21
53.55
51.22
49.34
47.90
46.81
45.83
44.60
42.64
39.47
34.80
28.78
22.11
15.97
11.60
9.83
10.58
12.82
14.91
15.26
12.91
7.82
0.66
-7.56
-15.88
-23.64
-30.41
-35.93
-40.12
-43.15
-45.43
-47.47
-49.38
-50.48
-49.26
-43.81
-32.65
-15.57
6.04
29.40
51.19
68.51
79.55
83.84
82.13
76.00
67.44
58.62
51.50
47.53
47.35
50.63
56.09
61.86
66.01
66.99
64.13
57.80
49.30
40.52
33.38
29.35
29.05
32.26
37.98
44.89
51.59
56.96
60.27
61.21
59.78
56.09
50.17
41.89
30.92
16.96
0.02
-19.38
-40.15
-60.87
-80.30
-97.77
-113.42
-128.02
-142.56
-157.57
-172.72
-186.61
-197.04
-201.62
-198.52
-187.04
-167.87
-142.79
-114.23
-84.71
-56.53
-31.71
-11.96
1.35
7.51
6.77
0.47
-9.30
-20.16
-30.10
-37.69
-42.05
-42.53
-38.58
-30.01
-17.42
-2.54
12.18
24.22
31.90
34.70
33.08
27.88
19.81
9.39
-2.74
-15.47
-27.29
-36.78
-43.28
-47.25
-49.99
-52.98
-57.16
-62.63
-68.89
-75.37
-81.76
-87.97
-93.85
-98.82
-101.83
-101.46
-96.32
-85.40
-68.30
-45.31
-17.36
13.98
46.63
78.27
106.67
130.15
147.90
160.01
167.31
171.00
172.26
172.04
170.87
168.95
166.12
161.98
156.06
147.98
137.71
125.68
112.77
100.07
88.59
78.87
70.82
63.72
56.46
47.92
37.31
24.36
9.37
-6.93
-23.64
-39.83
-54.72
-67.73
-78.53
-87.12
-93.87
-99.41
-104.35
-109.04
-113.44
-117.15
-119.84
-121.48
-122.58
-123.94
-126.27
-129.87
-134.44
-139.15
-142.83
-144.14
-141.73
-134.47
-121.73
-103.70
-81.58
-57.35
-33.34
-11.59
6.55
20.68
31.06
38.42
43.59
47.38
50.45
53.26
56.05
58.75
61.14
62.92
63.87
63.91
63.14
61.76
60.02
58.17
56.35
54.64
52.96
51.21
49.32
47.29
45.19
43.07
40.94
38.67
36.09
33.07
29.63
25.94
22.26
18.88
15.92
13.32
10.73
7.58
3.14
-3.30
-12.18
-23.35
-35.82
-47.74
-56.71
-60.51
-57.80
-48.66
-34.63
-18.19
-1.97
12.07
22.98
30.73
35.83
38.91
40.37
40.41
39.23
37.12
34.61
32.33
30.93
30.79
31.95
34.01
36.32
38.20
39.20
39.29
38.87
38.56
38.87
39.96
41.46
42.58
42.52
40.81
37.58
33.54
29.72
27.04
25.87
25.96
26.48
26.21
23.69
17.54
6.82
-8.36
-26.24
-43.32
-55.11
-57.61
-48.89
-30.19
-5.49
19.81
40.86
54.85
61.36
61.70
57.78
51.24
43.09
34.01
24.66
15.81
8.19
2.23
-2.09
-5.23
-7.83
-10.47
-13.52
-17.10
-21.10
-25.27
-29.33
-33.05
-36.41
-39.61
-43.11
-47.48
-53.15
-60.21
-68.32
-76.73
-84.55
-91.03
-95.84
-99.19
-101.76
-104.64
-109.05
-116.13
-126.41
-139.35
-152.89
-163.49
-166.92
-159.68
-140.48
-111.06
-75.88
-40.63
-10.32
12.17
26.51
34.19
37.48
38.39
38.28
38.09
38.46
39.93
42.63
46.09
49.33
51.13
50.64
47.78
43.27
38.33
34.15
31.43
30.17
29.79
29.49
28.59
26.81
24.25
21.19
17.87
14.36
10.57
6.38
1.85
-2.81
-7.26
-11.19
-14.53
-17.41
-20.17
-23.28
-27.30
-32.75
-39.82
-48.05
-56.06
-61.73
-62.71
-57.38
-45.57
-28.84
-10.01
7.87
22.46
32.81
39.24
42.83
44.79
46.08
47.31
48.93
51.18
54.11
57.38
60.30
62.07
62.05
60.08
56.58
52.32
48.13
44.64
42.11
40.42
39.19
37.94
36.14
33.42
29.63
24.91
19.64
14.38
9.60
5.57
2.23
-0.76
-3.81
-7.34
-11.54
-16.34
-21.47
-26.56
-31.26
-35.38
-38.94
-42.16
-45.42
-49.23
-54.08
-60.23
-67.45
-74.73
-80.41
-82.50
-79.34
-70.24
-55.84
-37.91
-18.84
-0.84
14.51
26.50
35.09
40.68
43.83
45.23
45.66
45.91
46.66
48.20
50.34
52.48
53.83
53.76
52.06
49.03
45.36
41.85
39.09
37.26
36.05
34.86
33.02
30.11
26.12
21.40
16.53
12.01
8.03
4.40
0.69
-3.53
-8.42
-13.80
-19.22
-24.18
-28.34
-31.68
-34.47
-37.24
-40.68
-45.55
-52.42
-61.38
-71.62
-81.36
-88.04
-89.17
-83.21
-70.28
-52.25
-32.06
-12.77
3.45
15.63
23.87
28.86
31.34
31.95
31.24
29.80
28.20
26.91
26.08
25.53
24.95
24.03
22.75
21.35
20.21
19.64
19.69
20.02
20.00
18.86
16.00
11.21
4.83
-2.40
-9.58
-16.02
-21.61
-26.81
-32.55
-39.80
-49.23
-60.90
-74.21
-87.92
-100.35
-109.63
-114.12
-112.82
-105.87
-94.64
-81.56
-69.45
-60.64
-56.31
-56.35
-59.85
-65.72
-73.13
-81.27
-88.82
-93.42
-91.89
-81.12
-59.40
-27.45
11.52
52.68
91.27
123.84
148.98
167.03
179.21
186.81
190.65
191.23
189.09
185.10
180.59
177.00
175.32
175.49
176.07
174.61
168.48
155.93
136.90
113.14
87.47
62.57
39.86
19.03
-1.51
-23.59
-47.96
-73.49
-97.22
-115.17
-123.77
-121.13
-107.82
-86.67
-61.88
-37.70
-17.29
-2.13
7.76
13.20
15.28
15.11
13.88
13.06
14.25
18.71
26.86
37.99
50.57
62.89
73.74
82.76
90.02
95.41
98.14
96.88
90.50
78.91
63.54
46.91
31.65
19.51
10.89
5.16
1.49
-0.50
-0.60
1.42
4.99
8.33
8.78
3.78
-8.18
-27.04
-51.34
-78.73
-106.50
-131.82
-151.79
-163.62
-165.15
-155.58
-136.06
-109.67
-80.73
-53.71
-32.14
-18.02
-11.78
-12.52
-18.41
-27.13
-36.32
-44.19
-49.92
-53.83
-57.05
-60.85
-66.03
-72.56
-79.75
-86.60
-92.31
-96.57
-99.58
-101.66
-102.83
-102.47
-99.30
-91.83
-79.11
-61.34
-40.17
-18.25
1.67
17.64
29.10
36.69
41.64
45.15
47.98
50.48
52.90
55.49
58.33
61.11
62.84
62.16
57.86
49.71
38.95
28.09
20.19
17.66
21.36
30.30
42.07
53.85
63.30
69.23
71.51
70.72
67.68
63.11
57.60
51.64
45.67
40.10
35.18
30.97
27.38
24.15
21.00
17.64
13.97
10.11
6.46
3.53
1.72
1.04
0.95
0.57
-0.99
-4.18
-8.77
-13.91
-18.56
-21.97
-24.03
-25.37
-27.12
-30.40
-35.82
-43.05
-50.77
-56.96
-59.53
-57.11
-49.50
-37.83
-24.04
-10.26
1.92
11.68
19.01
24.32
28.17
31.06
33.36
35.32
37.05
38.52
39.52
39.82
39.25
37.85
35.80
33.39
30.90
28.47
26.22
24.18
22.34
20.64
18.91
16.91
14.34
10.96
6.71
1.77
-3.53
-8.78
-13.67
-18.05
-21.94
-25.51
-28.98
-32.58
-36.62
-41.50
-47.62
-55.08
-63.40
-71.28
-76.78
-77.90
-73.28
-62.85
-47.93
-30.77
-13.82
0.99
12.70
21.24
27.09
30.97
33.59
35.56
37.44
39.62
42.20
44.93
47.27
48.60
48.52
47.00
44.44
41.43
38.53
36.11
34.28
33.00
32.13
31.53
31.03
30.36
29.19
27.22
24.31
20.57
16.33
12.03
8.01
4.40
1.10
-2.17
-5.72
-9.72
-14.18
-18.92
-23.68
-28.20
-32.32
-36.06
-39.58
-43.20
-47.38
-52.63
-59.31
-67.37
-75.99
-83.53
-87.79
-86.66
-78.98
-65.07
-46.77
-26.79
-7.83
8.25
20.69
29.66
35.76
39.63
41.82
42.85
43.32
43.85
44.86
46.37
47.97
49.02
48.99
47.77
45.66
43.22
40.98
39.19
37.79
36.53
35.12
33.41
31.39
29.12
26.61
23.80
20.60
16.98
13.06
9.02
5.11
1.51
-1.73
-4.71
-7.62
-10.74
-14.32
-18.50
-23.21
-28.18
-32.96
-37.12
-40.41
-42.90
-45.00
-47.36
-50.70
-55.50
-61.70
-68.54
-74.53
-77.79
-76.56
-69.84
-57.85
-42.00
-24.48
-7.54
7.11
18.60
26.85
32.24
35.29
36.53
36.41
35.38
33.88
32.31
30.93
29.85
28.97
28.07
26.89
25.21
23.03
20.52
18.03
15.87
14.22
12.96
11.69
9.91
7.20
3.39
-1.40
-6.74
-12.08
-16.89
-20.82
-23.85
-26.28
-28.73
-31.93
-36.55
-42.84
-50.44
-58.18
-64.26
-66.74
-64.12
-56.05
-43.43
-28.27
-12.93
0.57
11.14
18.66
23.67
26.97
29.22
30.84
32.08
33.03
33.71
34.04
33.87
33.07
31.60
29.57
27.16
24.56
21.89
19.17
16.44
13.81
11.45
9.49
7.86
6.30
4.37
1.68
-1.99
-6.57
-11.69
-16.87
-21.65
-25.74
-29.12
-32.00
-34.79
-38.01
-42.17
-47.66
-54.50
-62.12
-69.31
-74.42
-75.71
-72.01
-63.13
-50.02
-34.57
-18.96
-5.02
6.20
14.50
20.32
24.35
27.29
29.69
31.95
34.28
36.70
38.94
40.56
41.05
40.01
37.40
33.51
28.96
24.44
20.61
17.85
16.25
15.50
15.04
14.18
12.30
9.10
4.71
-0.39
-5.59
-10.31
-14.34
-17.74
-20.87
-24.25
-28.41
-33.75
-40.32
-47.62
-54.48
-59.24
-60.24
-56.41
-47.81
-35.66
-21.96
-8.76
2.52
11.39
18.17
23.56
28.26
32.66
36.96
41.14
45.14
48.70
51.45
52.93
52.77
50.92
47.75
43.92
40.18
37.10
34.85
33.30
32.09
30.82
29.22
27.14
24.52
21.31
17.51
13.06
7.98
2.43
-3.31
-8.80
-13.66
-17.63
-20.73
-23.30
-25.92
-29.28
-33.95
-40.17
-47.64
-55.41
-61.95
-65.47
-64.46
-58.25
-47.37
-33.39
-18.52
-4.78
6.51
15.00
21.15
25.76
29.57
33.04
36.37
39.50
42.34
44.68
46.24
46.65
45.55
42.76
38.38
32.85
26.86
21.22
16.55
13.15
10.93
9.45
8.08
6.16
3.29
-0.65
-5.41
-10.51
-15.41
-19.63
-23.02
-25.71
-28.18
-31.10
-35.07
-40.35
-46.66
-53.05
-58.08
-60.18
-58.18
-51.73
-41.50
-28.95
-15.84
-3.68
6.70
15.27
22.48
28.99
35.22
41.24
46.77
51.40
54.75
56.62
57.02
56.05
53.91
50.75
46.72
42.04
37.04
32.23
28.10
25.06
23.17
22.13
21.32
20.03
17.70
14.15
9.55
4.36
-0.89
-5.77
-10.06
-13.77
-17.13
-20.57
-24.61
-29.74
-36.22
-43.77
-51.41
-57.55
-60.40
-58.60
-51.80
-40.87
-27.59
-14.04
-1.95
7.84
15.32
20.99
25.51
29.36
32.79
35.94
38.87
41.60
44.00
45.82
46.75
46.57
45.34
43.38
41.22
39.40
38.26
37.90
38.15
38.65
38.96
38.70
37.60
35.60
32.83
29.61
26.33
23.32
20.80
18.80
17.22
15.92
14.76
13.60
12.29
10.66
8.54
5.80
2.49
-1.14
-4.75
-8.05
-10.97
-13.71
-16.69
-20.26
-24.58
-29.45
-34.45
-39.08
-43.04
-46.28
-49.06
-51.79
-54.97
-59.13
-64.63
-71.55
-79.35
-86.70
-91.68
-92.23
-86.91
-75.54
-59.39
-40.76
-22.25
-5.97
6.97
16.35
22.63
26.49
28.66
29.85
30.70
31.80
33.44
35.52
37.64
39.22
39.85
39.44
38.26
36.76
35.42
34.47
33.92
33.55
33.05
32.20
30.91
29.29
27.55
25.90
24.40
22.92
21.22
18.99
16.16
12.87
9.55
6.66
4.55
3.23
2.32
1.20
-0.76
-3.97
-8.41
-13.67
-18.97
-23.40
-26.19
-27.04
-26.36
-25.32
-25.58
-28.83
-35.98
-46.59
-58.73
-69.41
-75.58
-75.22
-68.08
-55.67
-40.58
-25.51
-12.44
-2.28
4.91
9.55
12.15
13.20
13.27
13.08
13.36
14.55
16.65
19.12
21.17
22.16
21.83
20.50
18.82
17.53
17.11
17.67
18.96
20.42
21.43
21.44
20.18
17.75
14.58
11.28
8.36
6.08
4.25
2.39
-0.04
-3.32
-7.38
-11.83
-16.12
-19.85
-22.86
-25.31
-27.54
-30.08
-33.47
-38.24
-44.63
-52.29
-60.10
-66.23
-68.65
-65.84
-57.43
-44.43
-28.84
-13.01
1.20
12.72
21.30
27.17
30.74
32.45
32.82
32.49
32.10
32.16
32.80
33.78
34.57
34.72
33.99
32.48
30.58
28.72
27.27
26.32
25.74
25.18
24.24
22.58
20.08
16.84
13.21
9.60
6.31
3.40
0.65
-2.27
-5.67
-9.62
-13.89
-18.06
-21.72
-24.67
-27.05
-29.27
-31.90
-35.52
-40.56
-47.14
-54.83
-62.53
-68.50
-70.79
-67.85
-59.16
-45.58
-29.10
-12.21
2.90
14.92
23.52
29.07
32.26
33.79
34.23
34.08
33.77
33.61
33.74
34.07
34.40
34.48
34.18
33.48
32.47
31.29
30.08
28.97
28.05
27.32
26.64
25.76
24.36
22.19
19.22
15.61
11.76
8.09
4.96
2.48
0.52
-1.26
-3.28
-5.88
-9.21
-13.12
-17.29
-21.28
-24.80
-27.74
-30.28
-32.80
-35.82
-39.90
-45.47
-52.58
-60.59
-68.08
-73.05
-73.49
-68.13
-57.01
-41.54
-24.06
-7.01
7.74
19.22
27.23
32.09
34.29
34.46
33.30
31.62
30.16
29.35
29.22
29.44
29.53
29.11
28.03
26.43
24.63
23.00
21.78
21.07
20.70
20.31
19.44
17.68
14.91
11.33
7.43
3.76
0.73
-1.64
-3.64
-5.75
-8.38
-11.67
-15.48
-19.45
-23.20
-26.50
-29.36
-32.05
-35.01
-38.79
-43.85
-50.27
-57.53
-64.33
-68.85
-69.21
-64.24
-53.95
-39.62
-23.37
-7.41
6.59
17.83
26.24
32.09
35.72
37.41
37.49
36.45
34.93
33.59
32.83
32.76
33.14
33.59
33.72
33.32
32.43
31.26
30.14
29.29
28.74
28.22
27.24
25.35
22.27
18.14
13.40
8.69
4.53
1.14
-1.65
-4.25
-7.12
-10.55
-14.55
-18.94
-23.40
-27.75
-31.96
-36.19
-40.77
-46.09
-52.62
-60.64
-70.08
-80.10
-89.05
-94.67
-94.81
-88.25
-75.28
-57.71
-38.27
-19.69
-3.84
8.52
17.58
24.02
28.51
31.64
33.91
35.85
37.92
40.40
43.17
45.78
47.59
48.18
47.50
45.91
44.01
42.34
41.15
40.38
39.79
39.06
38.02
36.65
35.03
33.25
31.30
29.08
26.46
23.31
19.69
15.76
11.84
8.28
5.26
2.76
0.53
-1.86
-4.80
-8.51
-13.01
-18.06
-23.30
-28.36
-33.02
-37.24
-41.29
-45.69
-51.14
-58.22
-67.03
-76.80
-85.75
-91.47
-91.67
-85.00
-71.67
-53.43
-32.98
-13.07
4.25
18.00
28.08
34.90
39.03
41.09
41.76
41.81
41.96
42.70
44.05
45.67
47.03
47.67
47.43
46.47
45.07
43.53
42.00
40.57
39.26
38.07
36.99
35.88
34.50
32.53
29.72
25.99
21.59
17.00
12.76
9.25
6.51
4.23
1.85
-1.15
-5.07
-9.82
-15.02
-20.16
-24.85
-28.95
-32.65
-36.33
-40.46
-45.55
-52.01
-59.98
-68.97
-77.77
-84.37
-86.56
-82.64
-72.12
-56.08
-36.78
-16.94
1.13
16.03
27.28
35.03
39.70
41.82
42.06
41.26
40.36
40.05
40.54
41.51
42.30
42.28
41.16
39.05
36.41
33.71
31.23
29.01
26.82
24.42
21.64
18.53
15.27
12.06
9.01
6.02
2.89
-0.62
-4.62
-8.98
-13.41
-17.54
-21.10
-24.00
-26.40
-28.65
-31.24
-34.76
-39.70
-46.25
-54.02
-61.84
-67.85
-70.04
-66.83
-57.76
-43.74
-26.77
-9.35
6.35
18.94
28.03
33.90
37.21
38.67
38.94
38.55
37.98
37.56
37.41
37.48
37.51
37.22
36.42
35.17
33.67
32.24
31.08
30.17
29.27
28.00
26.02
23.23
19.74
15.83
11.76
7.68
3.55
-0.76
-5.36
-10.28
-15.37
-20.41
-25.17
-29.51
-33.42
-37.10
-40.87
-45.30
-50.93
-58.13
-66.73
-75.70
-83.24
-87.19
-85.72
-78.09
-64.97
-48.25
-30.38
-13.57
0.78
12.18
20.78
27.01
31.37
34.36
36.57
38.62
41.05
44.02
47.27
50.18
52.03
52.37
51.21
48.94
46.16
43.47
41.24
39.63
38.59
38.00
37.59
37.02
35.91
33.92
30.90
27.03
22.70
18.42
14.56
11.23
8.24
5.22
1.78
-2.31
-7.06
-12.27
-17.55
-22.53
-26.90
-30.60
-33.85
-37.12
-41.13
-46.58
-53.88
-62.80
-72.20
-80.08
-84.09
-82.28
-73.89
-59.71
-41.92
-23.27
-6.21
7.78
18.29
25.71
30.72
34.00
36.08
37.49
38.71
40.12
41.83
43.63
45.09
45.77
45.52
44.47
43.02
41.61
40.52
39.78
39.21
38.55
37.58
36.19
34.41
32.33
30.04
27.54
24.75
21.61
18.09
14.31
10.48
6.87
3.64
0.83
-1.75
-4.40
-7.48
-11.21
-15.65
-20.62
-25.80
-30.79
-35.30
-39.20
-42.63
-45.95
-49.73
-54.56
-60.79
-68.21
-75.73
-81.50
-83.33
-79.47
-69.34
-53.86
-35.20
-16.01
1.36
15.48
25.94
33.02
37.32
39.49
40.17
40.05
39.86
40.17
41.24
42.84
44.41
45.30
45.02
43.49
41.02
38.18
35.58
33.65
32.50
31.88
31.32
30.25
28.29
25.34
21.64
17.68
13.92
10.63
7.78
5.09
2.18
-1.24
-5.24
-9.62
-14.07
-18.19
-21.72
-24.60
-27.10
-29.74
-33.24
-38.28
-45.18
-53.53
-62.04
-68.74
-71.47
-68.66
-59.94
-46.35
-30.00
-13.35
1.52
13.36
21.81
27.15
29.93
30.74
30.19
28.86
27.29
25.90
24.88
24.20
23.66
23.04
22.17
20.96
19.41
17.59
15.63
13.69
11.92
10.36
8.89
7.23
4.99
1.86
-2.31
-7.37
-12.87
-18.18
-22.74
-26.22
-28.70
-30.57
-32.45
-34.93
-38.50
-43.46
-49.77
-56.96
-63.97
-69.20
-70.85
-67.54
-58.88
-45.77
-30.16
-14.38
-0.42
10.63
18.61
24.00
27.52
29.86
31.56
33.00
34.43
35.90
37.27
38.27
38.64
38.29
37.30
35.87
34.19
32.30
30.17
27.73
24.97
21.99
18.91
15.79
12.54
9.00
5.06
0.73
-3.83
-8.31
-12.47
-16.20
-19.54
-22.73
-26.06
-29.86
-34.55
-40.48
-47.83
-56.21
-64.52
-70.99
-73.67
-71.07
-62.84
-50.00
-34.54
-18.78
-4.61
6.91
15.54
21.62
25.72
28.46
30.48
32.41
34.79
37.83
41.37
44.83
47.48
48.74
48.41
46.72
44.23
41.58
39.36
37.92
37.33
37.39
37.69
37.71
36.98
35.15
32.18
28.29
23.89
19.51
15.55
12.18
9.30
6.57
3.54
-0.14
-4.54
-9.47
-14.52
-19.31
-23.57
-27.32
-30.76
-34.25
-38.23
-43.17
-49.49
-57.31
-66.11
-74.59
-80.71
-82.29
-77.87
-67.32
-52.03
-34.47
-17.25
-2.35
9.38
18.01
24.12
28.36
31.25
33.23
34.77
36.33
38.25
40.55
42.89
44.74
45.65
45.47
44.35
42.70
40.97
39.49
38.40
37.69
37.23
36.81
36.16
35.00
33.10
30.34
26.80
22.77
18.70
15.00
11.91
9.35
6.96
4.21
0.71
-3.67
-8.72
-14.00
-19.02
-23.44
-27.12
-30.21
-33.09
-36.29
-40.47
-46.19
-53.63
-62.20
-70.47
-76.32
-77.65
-73.13
-62.77
-48.03
-31.25
-14.87
-0.70
10.44
18.52
23.96
27.25
28.85
29.25
29.03
28.79
28.94
29.52
30.23
30.57
30.16
28.89
26.93
24.61
22.20
19.91
17.77
15.82
14.02
12.29
10.43
8.15
5.16
1.30
-3.29
-8.25
-13.05
-17.26
-20.69
-23.51
-26.22
-29.49
-33.97
-39.94
-47.16
-54.62
-60.75
-63.77
-62.36
-56.08
-45.63
-32.60
-18.93
-6.28
4.35
12.65
18.82
23.30
26.54
28.90
30.63
31.89
32.71
33.06
32.88
32.21
31.20
30.12
29.17
28.46
27.89
27.25
26.37
25.15
23.58
21.73
19.61
17.13
14.17
10.59
6.35
1.56
-3.53
-8.57
-13.25
-17.38
-20.90
-24.01
-27.01
-30.36
-34.58
-40.13
-47.26
-55.67
-64.38
-71.74
-75.80
-74.97
-68.62
-57.34
-42.81
-27.23
-12.62
-0.33
9.13
15.90
20.52
23.68
26.07
28.34
31.00
34.30
38.03
41.63
44.36
45.58
45.02
42.89
39.88
36.85
34.56
33.41
33.35
33.87
34.28
33.90
32.35
29.66
26.17
22.41
18.78
15.47
12.35
9.15
5.58
1.49
-3.02
-7.72
-12.33
-16.59
-20.43
-23.95
-27.46
-31.39
-36.27
-42.56
-50.34
-59.09
-67.49
-73.65
-75.60
-72.04
-62.88
-49.37
-33.69
-18.17
-4.58
6.26
14.43
20.46
24.96
28.38
31.09
33.41
35.66
38.02
40.41
42.51
43.83
44.06
43.17
41.53
39.68
38.12
37.15
36.73
36.64
36.57
36.27
35.59
34.42
32.71
30.42
27.56
24.20
20.55
16.89
13.52
10.67
8.36
6.40
4.39
1.85
-1.58
-5.98
-11.07
-16.35
-21.29
-25.55
-29.15
-32.37
-35.64
-39.45
-44.22
-50.29
-57.70
-65.92
-73.73
-79.26
-80.54
-76.20
-66.09
-51.43
-34.43
-17.51
-2.55
9.44
18.29
24.31
28.01
29.94
30.74
31.16
31.90
33.35
35.46
37.74
39.53
40.26
39.76
38.24
36.21
34.22
32.67
31.69
31.15
30.76
30.12
28.88
26.86
24.10
20.85
17.50
14.36
11.55
8.94
6.19
2.98
-0.87
-5.19
-9.61
-13.70
-17.16
-20.03
-22.63
-25.50
-29.22
-34.28
-40.83
-48.56
-56.50
-63.10
-66.56
-65.39
-59.00
-47.99
-34.05
-19.38
-6.00
4.79
12.56
17.59
20.47
21.81
22.07
21.58
20.66
19.61
18.70
18.11
17.88
17.85
17.76
17.34
16.38
14.89
13.09
11.33
9.94
9.07
8.57
8.04
6.95
4.87
1.63
-2.61
-7.38
-12.12
-16.35
-19.83
-22.63
-25.11
-27.80
-31.30
-36.15
-42.57
-50.31
-58.40
-65.28
-69.09
-68.28
-62.23
-51.46
-37.58
-22.74
-8.91
2.62
11.44
17.78
22.23
25.36
27.70
29.65
31.57
33.67
35.92
38.07
39.72
40.50
40.27
39.15
37.51
35.75
34.23
33.08
32.26
31.53
30.60
29.18
27.07
24.29
21.02
17.54
14.09
10.74
7.37
3.70
-0.50
-5.26
-10.38
-15.49
-20.21
-24.32
-27.85
-31.15
-34.77
-39.36
-45.45
-53.21
-62.13
-70.91
-77.65
-80.34
-77.54
-68.99
-55.77
-39.96
-23.93
-9.59
2.04
10.86
17.36
22.18
25.89
28.89
31.54
34.18
37.08
40.29
43.50
46.17
47.66
47.57
45.92
43.24
40.34
38.04
36.82
36.67
37.08
37.32
36.76
35.05
32.26
28.72
24.84
20.92
17.12
13.45
9.85
6.24
2.51
-1.41
-5.60
-10.05
-14.62
-19.10
-23.24
-26.95
-30.36
-33.91
-38.23
-43.97
-51.45
-60.29
-69.25
-76.38
-79.56
-77.21
-68.96
-55.81
-39.79
-23.28
-8.26
4.15
13.66
20.56
25.38
28.64
30.88
32.61
34.31
36.26
38.43
40.54
42.15
42.93
42.75
41.81
40.42
38.95
37.66
36.66
35.97
35.49
35.06
34.43
33.36
31.63
29.15
26.01
22.39
18.55
14.73
11.11
7.75
4.63
1.62
-1.48
-4.90
-8.78
-13.11
-17.69
-22.22
-26.39
-30.03
-33.24
-36.35
-39.95
-44.72
-51.14
-59.15
-67.86
-75.54
-80.03
-79.42
-72.83
-60.79
-45.08
-28.07
-11.94
1.89
12.89
21.14
26.96
30.75
32.94
34.06
34.75
35.60
36.90
38.56
40.20
41.38
41.85
41.59
40.80
39.73
38.60
37.50
36.49
35.56
34.70
33.82
32.77
31.31
29.24
26.46
23.08
19.38
15.75
12.50
9.72
7.27
4.79
1.90
-1.63
-5.80
-10.35
-14.92
-19.18
-22.95
-26.28
-29.40
-32.71
-36.75
-41.99
-48.70
-56.57
-64.56
-70.97
-73.80
-71.51
-63.57
-50.78
-35.06
-18.80
-4.07
7.83
16.52
22.26
25.61
27.11
27.25
26.46
25.21
23.90
22.82
22.07
21.59
21.23
20.81
20.17
19.20
17.81
16.01
13.90
11.70
9.59
7.66
5.77
3.62
0.90
-2.57
-6.67
-11.10
-15.42
-19.27
-22.48
-25.11
-27.41
-29.74
-32.51
-36.14
-41.04
-47.37
-54.82
-62.32
-68.19
-70.49
-67.77
-59.67
-47.11
-32.02
-16.63
-2.77
8.54
17.12
23.28
27.53
30.39
32.31
33.71
34.91
36.08
37.12
37.80
37.90
37.32
36.20
34.79
33.32
31.90
30.49
29.02
27.40
25.62
23.68
21.55
19.08
16.05
12.22
7.49
1.97
-3.96
-9.80
-15.09
-19.56
-23.31
-26.68
-30.21
-34.44
-39.79
-46.51
-54.49
-63.23
-71.59
-78.00
-80.71
-78.38
-70.64
-58.26
-43.04
-27.12
-12.39
-0.01
9.70
17.01
22.45
26.59
29.96
33.07
36.33
39.93
43.75
47.31
49.96
51.16
50.70
48.84
46.19
43.52
41.49
40.43
40.28
40.65
40.92
40.52
39.04
36.39
32.75
28.51
24.12
19.90
15.98
12.27
8.56
4.62
0.30
-4.43
-9.42
-14.41
-19.11
-23.33
-27.11
-30.76
-34.89
-40.19
-47.17
-55.79
-65.20
-73.72
-79.22
-79.77
-74.38
-63.34
-48.22
-31.29
-14.79
-0.36
11.28
20.11
26.54
31.13
34.44
37.05
39.52
42.24
45.30
48.38
50.91
52.29
52.22
50.84
48.62
46.19
44.09
42.61
41.78
41.38
41.10
40.54
39.31
37.15
34.01
30.13
25.94
21.89
18.25
15.02
11.93
8.59
4.75
0.37
-4.35
-9.06
-13.42
-17.25
-20.51
-23.37
-26.19
-29.50
-33.90
-39.89
-47.50
-56.03
-63.99
-69.38
-70.36
-65.93
-56.37
-43.16
-28.46
-14.36
-2.34
6.91
13.40
17.44
19.47
19.97
19.42
18.33
17.14
16.15
15.47
15.07
14.82
14.60
14.23
13.55
12.45
10.91
9.15
7.44
6.06
5.04
4.14
2.91
0.89
-2.17
-6.14
-10.59
-14.92
-18.60
-21.33
-23.19
-24.57
-26.14
-28.64
-32.71
-38.63
-46.07
-54.00
-60.80
-64.64
-64.05
-58.53
-48.69
-36.08
-22.66
-10.08
0.67
9.34
16.14
21.41
25.46
28.52
30.85
32.77
34.54
36.26
37.80
38.89
39.20
38.61
37.21
35.26
33.10
30.98
29.09
27.45
26.06
24.81
23.52
21.94
19.79
16.81
12.86
8.04
2.60
-3.05
-8.48
-13.40
-17.73
-21.63
-25.48
-29.81
-35.18
-41.95
-50.00
-58.47
-65.80
-70.09
-69.68
-63.85
-53.18
-39.35
-24.56
-10.83
0.62
9.45
16.02
20.94
24.84
28.18
31.33
34.57
38.00
41.49
44.64
46.96
48.04
47.83
46.64
44.99
43.41
42.20
41.42
40.87
40.32
39.57
38.54
37.20
35.54
33.52
31.08
28.21
24.97
21.52
18.07
14.82
11.79
8.89
5.86
2.41
-1.66
-6.35
-11.46
-16.65
-21.59
-26.06
-30.02
-33.58
-37.01
-40.70
-45.16
-50.88
-58.08
-66.39
-74.58
-80.75
-82.88
-79.51
-70.42
-56.73
-40.52
-24.06
-9.17
3.20
12.79
19.87
24.83
28.18
30.47
32.34
34.35
36.82
39.66
42.42
44.52
45.50
45.21
43.88
41.98
40.05
38.51
37.55
37.10
36.88
36.50
35.59
33.88
31.30
28.00
24.24
20.38
16.73
13.50
10.69
8.17
5.60
2.70
-0.78
-4.84
-9.27
-13.75
-17.93
-21.57
-24.70
-27.59
-30.71
-34.69
-40.05
-46.98
-55.00
-62.90
-68.84
-70.94
-67.91
-59.65
-47.27
-32.79
-18.34
-5.61
4.60
12.21
17.55
21.00
22.86
23.39
22.89
21.80
20.54
19.48
18.77
18.35
18.08
17.78
17.29
16.47
15.27
13.74
12.03
10.39
8.95
7.69
6.32
4.42
1.62
-2.13
-6.58
-11.19
-15.38
-18.82
-21.48
-23.69
-26.02
-29.10
-33.47
-39.41
-46.68
-54.36
-60.94
-64.64
-63.96
-58.30
-48.23
-35.27
-21.41
-8.41
2.64
11.38
18.01
22.92
26.54
29.21
31.30
33.09
34.81
36.44
37.79
38.54
38.45
37.50
35.87
33.89
31.92
30.14
28.63
27.27
25.92
24.39
22.55
20.27
17.43
13.91
9.67
4.78
-0.54
-5.96
-11.09
-15.66
-19.58
-22.97
-26.16
-29.58
-33.72
-39.04
-45.80
-53.80
-62.20
-69.52
-73.94
-73.84
-68.44
-58.09
-44.19
-28.72
-13.60
-0.21
10.73
19.13
25.21
29.44
32.42
34.83
37.27
40.09
43.27
46.41
48.95
50.37
50.46
49.39
47.58
45.54
43.73
42.42
41.71
41.46
41.44
41.35
40.86
39.71
37.74
34.92
31.34
27.23
22.86
18.54
14.48
10.78
7.35
4.01
0.52
-3.32
-7.56
-12.14
-16.86
-21.51
-25.88
-29.86
-33.49
-36.99
-40.80
-45.49
-51.55
-59.08
-67.44
-75.20
-80.34
-80.91
-75.73
-64.88
-49.73
-32.51
-15.51
-0.54
11.44
20.23
26.11
29.61
31.37
32.12
32.58
33.31
34.54
36.05
37.29
37.72
37.05
35.36
33.08
30.67
28.46
26.52
24.72
22.88
20.94
18.90
16.78
14.54
11.97
8.83
4.89
0.15
-5.10
-10.43
-15.31
-19.41
-22.71
-25.48
-28.21
-31.46
-35.67
-41.12
-47.78
-55.25
-62.63
-68.56
-71.45
-69.99
-63.61
-52.77
-38.95
-24.10
-10.05
1.98
11.54
18.82
24.30
28.45
31.55
33.75
35.11
35.73
35.75
35.35
34.67
33.83
32.84
31.68
30.25
28.55
26.64
24.64
22.75
21.02
19.40
17.62
15.35
12.25
8.14
3.12
-2.47
-8.16
-13.48
-18.14
-22.10
-25.62
-29.13
-33.16
-38.20
-44.56
-52.16
-60.40
-68.08
-73.55
-75.17
-71.81
-63.31
-50.62
-35.48
-19.94
-5.73
6.08
15.16
21.76
26.45
29.92
32.84
35.72
38.84
42.13
45.24
47.62
48.80
48.51
46.80
44.03
40.74
37.54
34.95
33.30
32.65
32.73
32.97
32.69
31.30
28.53
24.54
19.85
15.08
10.69
6.80
3.23
-0.40
-4.40
-8.87
-13.67
-18.51
-23.08
-27.23
-30.93
-34.37
-37.90
-41.97
-47.09
-53.66
-61.66
-70.39
-78.35
-83.54
-84.01
-78.58
-67.36
-51.76
-34.05
-16.63
-1.37
10.76
19.62
25.65
29.59
32.27
34.47
36.82
39.63
42.80
45.91
48.36
49.68
49.67
48.51
46.63
44.51
42.56
41.00
39.91
39.17
38.64
38.11
37.39
36.35
34.85
32.76
29.96
26.42
22.23
17.71
13.24
9.20
5.72
2.66
-0.31
-3.58
-7.38
-11.70
-16.27
-20.74
-24.84
-28.46
-31.72
-34.94
-38.53
-42.92
-48.53
-55.50
-63.51
-71.60
-78.14
-81.20
-79.12
-71.19
-57.97
-41.19
-23.26
-6.47
7.55
18.12
25.31
29.67
31.95
32.89
33.19
33.39
33.78
34.36
34.87
35.00
34.53
33.48
32.03
30.39
28.66
26.84
24.86
22.69
20.40
18.12
15.91
13.75
11.48
8.88
5.75
2.02
-2.24
-6.85
-11.53
-16.05
-20.23
-23.99
-27.40
-30.69
-34.22
-38.47
-43.92
-50.72
-58.49
-66.09
-71.83
-73.87
-70.94
-62.76
-50.25
-35.22
-19.70
-5.44
6.54
15.94
22.88
27.73
30.86
32.63
33.43
33.67
33.66
33.63
33.61
33.51
33.17
32.44
31.20
29.48
27.42
25.26
23.30
21.68
20.34
18.97
17.06
14.15
10.00
4.71
-1.31
-7.48
-13.24
-18.23
-22.37
-25.85
-29.16
-32.93
-37.86
-44.43
-52.62
-61.69
-70.13
-75.98
-77.43
-73.36
-63.88
-50.22
-34.36
-18.42
-4.09
7.63
16.47
22.68
26.84
29.69
32.02
34.53
37.62
41.25
44.93
47.91
49.47
49.28
47.48
44.67
41.69
39.25
37.68
36.89
36.46
35.80
34.43
32.13
28.99
25.31
21.45
17.70
14.12
10.59
6.83
2.63
-2.10
-7.22
-12.42
-17.34
-21.72
-25.51
-28.99
-32.69
-37.28
-43.28
-50.79
-59.16
-67.03
-72.51
-73.78
-69.68
-60.20
-46.52
-30.63
-14.73
-0.58
10.81
19.25
25.10
29.05
31.80
34.03
36.18
38.50
40.89
43.01
44.37
44.54
43.41
41.20
38.42
35.61
33.17
31.23
29.69
28.31
26.90
25.30
23.38
21.03
18.10
14.49
10.18
5.31
0.10
-5.14
-10.14
-14.69
-18.71
-22.24
-25.46
-28.67
-32.28
-36.69
-42.22
-48.92
-56.43
-63.83
-69.75
-72.62
-71.14
-64.80
-54.11
-40.57
-26.11
-12.56
-1.08
7.93
14.76
19.98
24.12
27.53
30.34
32.58
34.26
35.40
36.00
36.10
35.76
35.06
34.09
32.97
31.75
30.47
29.15
27.81
26.46
25.02
23.30
21.05
17.97
13.90
8.90
3.27
-2.50
-7.93
-12.67
-16.63
-20.04
-23.33
-27.09
-31.92
-38.24
-46.10
-54.96
-63.58
-70.20
-73.02
-70.78
-63.21
-51.27
-36.75
-21.78
-8.15
3.08
11.64
17.91
22.53
26.26
29.74
33.47
37.66
42.19
46.62
50.32
52.72
53.50
52.75
50.93
48.70
46.69
45.33
44.79
44.92
45.35
45.56
45.00
43.26
40.20
35.95
30.88
25.46
20.06
14.87
9.91
5.02
0.04
-5.18
-10.68
-16.43
-22.28
-28.01
-33.38
-38.20
-42.36
-45.88
-48.95
-51.97
-55.49
-60.15
-66.34
-73.94
-81.93
-88.52
-91.53
-89.16
-80.75
-67.02
-49.89
-31.80
-14.86
-0.43
11.01
19.60
25.79
30.11
33.19
35.73
38.39
41.63
45.47
49.54
53.15
55.62
56.53
55.89
54.15
52.04
50.25
49.25
49.09
49.43
49.70
49.35
48.06
45.86
43.02
39.89
36.71
33.51
30.17
26.58
22.72
18.78
15.03
11.68
8.79
6.18
3.48
0.31
-3.59
-8.21
-13.33
-18.51
-23.31
-27.43
-30.85
-33.85
-36.97
-40.92
-46.29
-53.27
-61.35
-69.28
-75.21
-77.22
-73.95
-65.15
-51.77
-35.77
-19.39
-4.59
7.48
16.46
22.57
26.34
28.33
29.07
29.06
28.72
28.31
27.92
27.46
26.77
25.77
24.47
22.97
21.35
19.59
17.65
15.49
13.15
10.78
8.50
6.33
4.07
1.45
-1.79
-5.70
-10.09
-14.54
-18.66
-22.20
-25.15
-27.71
-30.19
-32.86
-35.92
-39.58
-44.04
-49.47
-55.74
-62.15
-67.38
-69.73
-67.70
-60.60
-48.92
-34.27
-18.80
-4.50
7.29
16.18
22.51
26.96
30.27
32.95
35.30
37.41
39.22
40.60
41.37
41.43
40.74
39.44
37.76
35.96
34.24
32.69
31.23
29.72
28.01
26.03
23.77
21.22
18.36
15.06
11.15
6.50
1.16
-4.63
-10.47
-15.95
-20.82
-25.07
-28.93
-32.77
-37.08
-42.35
-48.94
-56.90
-65.70
-74.15
-80.49
-82.82
-79.78
-71.08
-57.69
-41.60
-25.10
-10.16
2.08
11.34
17.95
22.59
25.99
28.86
31.81
35.25
39.24
43.47
47.27
49.90
50.83
49.97
47.76
44.95
42.39
40.67
40.00
40.14
40.56
40.62
39.81
37.85
34.78
30.90
26.63
22.40
18.43
14.77
11.22
7.49
3.29
-1.44
-6.56
-11.75
-16.67
-21.08
-24.98
-28.54
-32.10
-36.15
-41.23
-47.80
-55.94
-65.01
-73.47
-79.19
-80.04
-74.75
-63.48
-47.77
-30.08
-12.85
2.14
14.08
22.97
29.25
33.51
36.35
38.38
40.19
42.25
44.72
47.39
49.78
51.32
51.67
50.77
48.88
46.44
43.95
41.85
40.39
39.65
39.45
39.41
39.01
37.77
35.41
31.96
27.75
23.28
19.06
15.35
12.19
9.31
6.36
2.98
-0.99
-5.48
-10.18
-14.66
-18.53
-21.60
-24.00
-26.19
-28.93
-33.08
-39.29
-47.66
-57.34
-66.62
-73.20
-74.99
-70.86
-61.11
-47.36
-32.00
-17.30
-4.82
4.80
11.68
16.20
18.77
19.74
19.43
18.27
16.78
15.46
14.63
14.33
14.38
14.43
14.09
13.14
11.55
9.50
7.33
5.36
3.77
2.47
1.19
-0.44
-2.74
-5.82
-9.59
-13.72
-17.80
-21.44
-24.40
-26.68
-28.58
-30.70
-33.78
-38.45
-44.91
-52.61
-60.15
-65.58
-66.98
-63.14
-54.08
-41.05
-26.11
-11.37
1.59
12.07
20.06
25.95
30.21
33.22
35.28
36.73
37.83
38.78
39.60
40.15
40.28
39.85
38.83
37.27
35.25
32.88
30.31
27.77
25.46
23.47
21.68
19.75
17.22
13.69
9.03
3.37
-2.87
-9.14
-14.95
-19.94
-24.09
-27.62
-31.07
-35.11
-40.40
-47.39
-55.94
-65.18
-73.47
-78.75
-79.18
-73.77
-62.81
-47.87
-31.26
-15.30
-1.68
8.87
16.45
21.69
25.41
28.34
31.11
34.18
37.75
41.72
45.61
48.75
50.49
50.48
48.84
46.11
43.08
40.50
38.82
38.14
38.17
38.42
38.35
37.51
35.67
32.81
29.14
25.04
20.90
17.00
13.43
10.07
6.70
3.07
-0.90
-5.22
-9.77
-14.46
-19.27
-24.25
-29.51
-35.23
-41.66
-49.14
-57.94
-67.89
-78.12
-86.88
-91.93
-91.23
-83.79
-70.17
-52.35
-33.03
-14.77
0.77
12.99
22.12
28.77
33.58
37.04
39.58
41.63
43.55
45.58
47.68
49.60
50.98
51.50
51.04
49.73
47.86
45.83
44.01
42.62
41.69
41.01
40.25
39.01
37.00
34.13
30.54
26.56
22.59
18.92
15.69
12.76
9.85
6.62
2.82
-1.61
-6.52
-11.60
-16.49
-20.92
-24.78
-28.23
-31.63
-35.55
-40.57
-47.05
-54.81
-62.95
-69.86
-73.58
-72.44
-65.64
-53.69
-38.28
-21.75
-6.36
6.34
15.72
21.97
25.69
27.56
28.11
27.70
26.63
25.16
23.59
22.17
21.09
20.36
19.82
19.17
18.09
16.37
14.07
11.46
8.88
6.55
4.45
2.26
-0.44
-3.98
-8.40
-13.43
-18.54
-23.18
-26.97
-29.82
-31.95
-33.85
-36.17
-39.53
-44.35
-50.64
-57.79
-64.59
-69.39
-70.57
-66.98
-58.47
-45.96
-31.19
-16.15
-2.53
8.72
17.38
23.72
28.23
31.33
33.38
34.69
35.58
36.30
37.02
37.68
38.10
38.01
37.21
35.62
33.33
30.56
27.68
25.03
22.93
21.44
20.32
19.04
16.93
13.45
8.47
2.29
-4.41
-10.88
-16.58
-21.32
-25.31
-29.08
-33.31
-38.65
-45.52
-53.92
-63.17
-71.84
-78.02
-79.80
-75.98
-66.51
-52.65
-36.52
-20.44
-6.21
5.22
13.78
19.95
24.45
28.00
31.18
34.44
38.02
41.94
45.87
49.28
51.59
52.41
51.65
49.64
46.95
44.30
42.27
41.19
41.01
41.35
41.57
41.02
39.21
36.02
31.71
26.82
21.96
17.52
13.57
9.84
5.95
1.60
-3.29
-8.53
-13.76
-18.66
-23.03
-26.87
-30.41
-34.04
-38.36
-43.99
-51.40
-60.48
-70.23
-78.76
-83.67
-82.85
-75.32
-61.69
-43.98
-24.98
-7.26
7.50
18.77
26.88
32.55
36.55
39.50
41.91
44.18
46.58
49.09
51.44
53.18
53.91
53.52
52.14
50.18
48.05
46.09
44.46
43.24
42.38
41.73
41.04
39.92
37.99
35.03
31.14
26.69
22.23
18.20
14.75
11.73
8.75
5.42
1.53
-2.92
-7.73
-12.58
-17.22
-21.47
-25.29
-28.83
-32.38
-36.41
-41.43
-47.88
-55.76
-64.39
-72.35
-77.72
-78.65
-73.94
-63.64
-49.04
-32.27
-15.68
-1.10
10.45
18.79
24.26
27.38
28.65
28.44
27.12
25.11
22.87
20.81
19.23
18.21
17.58
17.02
16.13
14.63
12.52
10.00
7.43
5.15
3.26
1.56
-0.40
-3.11
-6.81
-11.39
-16.35
-21.04
-24.85
-27.56
-29.34
-30.77
-32.67
-35.82
-40.79
-47.67
-55.84
-63.97
-70.18
-72.53
-69.66
-61.30
-48.41
-32.91
-17.00
-2.50
9.51
18.75
25.46
30.11
33.21
35.25
36.69
37.92
39.12
40.23
40.99
41.11
40.45
39.10
37.30
35.34
33.37
31.42
29.46
27.49
25.49
23.42
21.08
18.15
14.30
9.32
3.34
-3.20
-9.68
-15.55
-20.53
-24.70
-28.47
-32.47
-37.34
-43.65
-51.64
-60.97
-70.53
-78.54
-82.91
-81.93
-74.93
-62.55
-46.63
-29.56
-13.53
-0.00
10.48
18.13
23.56
27.53
30.77
33.91
37.40
41.37
45.60
49.52
52.48
53.91
53.61
51.82
49.12
46.28
43.96
42.55
42.02
42.00
41.89
41.08
39.14
35.94
31.68
26.80
21.80
17.08
12.80
8.85
4.95
0.79
-3.77
-8.67
-13.70
-18.56
-23.03
-27.06
-30.81
-34.68
-39.23
-45.05
-52.51
-61.39
-70.63
-78.34
-82.28
-80.56
-72.44
-58.65
-41.22
-22.74
-5.55
8.84
19.93
27.89
33.29
36.78
38.99
40.56
42.11
44.10
46.62
49.37
51.72
52.99
52.78
51.14
48.57
45.77
43.43
41.91
41.20
40.94
40.59
39.62
37.68
34.66
30.73
26.23
21.67
17.47
13.89
10.89
8.15
5.18
1.57
-2.86
-7.96
-13.32
-18.43
-22.92
-26.72
-30.08
-33.56
-37.85
-43.55
-50.89
-59.41
-67.83
-74.24
-76.62
-73.50
-64.56
-50.83
-34.36
-17.54
-2.40
9.85
18.87
24.91
28.47
30.05
30.11
29.11
27.57
25.98
24.71
23.92
23.53
23.28
22.85
21.95
20.43
18.33
15.85
13.28
10.87
8.71
6.63
4.27
1.21
-2.80
-7.70
-13.06
-18.28
-22.75
-26.14
-28.46
-30.08
-31.62
-33.77
-37.22
-42.44
-49.47
-57.72
-65.75
-71.59
-73.25
-69.44
-60.14
-46.67
-31.17
-15.87
-2.36
8.68
17.31
23.92
28.88
32.42
34.72
36.03
36.70
37.06
37.27
37.29
36.94
36.04
34.52
32.51
30.23
28.00
26.04
24.45
23.11
21.74
19.96
17.41
13.90
9.40
4.11
-1.63
-7.45
-12.97
-17.95
-22.38
-26.44
-30.60
-35.45
-41.55
-49.22
-58.19
-67.48
-75.46
-80.20
-80.05
-74.23
-63.20
-48.50
-32.33
-16.79
-3.38
7.28
15.28
21.11
25.43
28.89
32.12
35.61
39.65
44.09
48.38
51.70
53.28
52.79
50.44
47.01
43.47
40.68
39.06
38.55
38.69
38.81
38.29
36.71
33.97
30.25
25.92
21.42
17.08
12.99
9.04
4.97
0.55
-4.29
-9.43
-14.58
-19.42
-23.79
-27.74
-31.56
-35.77
-40.99
-47.76
-56.19
-65.65
-74.62
-80.97
-82.56
-78.06
-67.50
-52.33
-34.94
-17.79
-2.73
9.38
18.50
25.07
29.72
33.06
35.75
38.42
41.56
45.32
49.34
52.98
55.48
56.39
55.72
53.95
51.78
49.85
48.50
47.73
47.28
46.84
46.11
44.93
43.18
40.82
37.78
34.08
29.83
25.29
20.80
16.68
13.12
10.03
7.14
4.09
0.57
-3.52
-8.08
-12.90
-17.71
-22.35
-26.74
-30.88
-34.86
-38.84
-43.16
-48.28
-54.63
-62.27
-70.53
-77.93
-82.44
-82.14
-75.96
-64.14
-48.26
-30.64
-13.64
1.00
12.44
20.58
25.80
28.64
29.67
29.44
28.52
27.37
26.35
25.65
25.29
25.20
25.23
25.17
24.74
23.71
22.00
19.70
17.12
14.59
12.32
10.22
7.95
5.06
1.23
-3.57
-9.04
-14.67
-19.93
-24.44
-28.06
-30.90
-33.27
-35.61
-38.46
-42.34
-47.63
-54.31
-61.71
-68.48
-72.77
-72.83
-67.61
-57.23
-43.01
-27.03
-11.46
2.07
12.74
20.58
26.05
29.79
32.36
34.17
35.48
36.45
37.14
37.58
37.77
37.72
37.41
36.79
35.75
34.22
32.19
29.83
27.40
25.16
23.22
21.43
19.38
16.60
12.74
7.69
1.74
-4.62
-10.81
-16.39
-21.19
-25.31
-29.08
-32.94
-37.33
-42.73
-49.47
-57.55
-66.41
-74.76
-80.79
-82.63
-79.08
-70.06
-56.72
-41.10
-25.35
-11.16
0.57
9.72
16.62
21.78
25.80
29.26
32.73
36.63
41.02
45.49
49.30
51.68
52.14
50.76
48.13
45.08
42.42
40.57
39.53
38.95
38.32
37.21
35.39
32.86
29.83
26.54
23.20
19.83
16.27
12.28
7.65
2.36
-3.35
-9.07
-14.38
-19.01
-22.98
-26.63
-30.52
-35.32
-41.58
-49.45
-58.40
-67.10
-73.63
-75.95
-72.67
-63.58
-49.81
-33.46
-16.88
-1.95
10.30
19.68
26.54
31.41
34.86
37.46
39.78
42.35
45.40
48.85
52.19
54.78
56.04
55.73
54.05
51.50
48.71
46.26
44.49
43.44
42.83
42.21
41.07
39.03
35.91
31.89
27.28
22.53
18.00
13.88
10.14
6.63
3.06
-0.80
-5.10
-9.78
-14.58
-19.16
-23.23
-26.74
-29.97
-33.49
-37.99
-43.98
-51.50
-59.78
-67.34
-72.26
-72.78
-67.93
-57.92
-44.10
-28.52
-13.30
-0.04
10.48
18.15
23.29
26.35
27.71
27.68
26.59
24.84
22.86
21.07
19.77
19.02
18.64
18.19
17.24
15.52
13.08
10.27
7.57
5.30
3.44
1.65
-0.62
-3.81
-8.01
-13.01
-18.27
-23.21
-27.34
-30.41
-32.50
-33.99
-35.58
-38.07
-42.18
-48.14
-55.52
-63.02
-68.84
-71.06
-68.35
-60.47
-48.34
-33.77
-18.79
-5.09
6.35
15.30
22.00
26.88
30.35
32.74
34.33
35.43
36.25
36.93
37.43
37.63
37.38
36.57
35.17
33.23
30.87
28.26
25.65
23.25
21.13
19.08
16.70
13.49
9.10
3.55
-2.79
-9.32
-15.51
-21.07
-26.01
-30.63
-35.35
-40.65
-46.99
-54.66
-63.60
-73.11
-81.79
-87.77
-89.22
-85.07
-75.44
-61.67
-45.84
-30.14
-16.16
-4.71
4.21
11.06
16.55
21.40
26.22
31.40
37.01
42.73
47.92
51.87
54.07
54.42
53.26
51.22
48.92
46.80
45.03
43.52
42.11
40.64
39.02
37.16
34.87
31.89
27.92
22.77
16.57
9.73
2.87
-3.45
-8.90
-13.54
-17.69
-21.87
-26.60
-32.34
-39.32
-47.44
-56.03
-63.75
-68.79
-69.39
-64.49
-54.20
-39.91
-23.76
-7.98
5.78
16.76
25.00
30.95
35.23
38.39
40.90
43.12
45.27
47.35
49.18
50.47
50.96
50.60
49.52
48.00
46.33
44.75
43.39
42.28
41.32
40.37
39.21
37.61
35.37
32.32
28.35
23.46
17.82
11.79
5.84
0.40
-4.26
-8.14
-11.50
-14.74
-18.28
-22.52
-27.74
-34.09
-41.31
-48.61
-54.68
-57.91
-56.99
-51.42
-41.76
-29.47
-16.40
-4.19
6.13
14.17
20.03
23.97
26.29
27.20
26.94
25.76
23.92
21.66
19.17
16.63
14.14
11.77
9.53
7.38
5.32
3.38
1.66
0.24
-0.94
-2.08
-3.54
-5.63
-8.51
-12.04
-15.85
-19.49
-22.64
-25.30
-27.78
-30.66
-34.54
-39.84
-46.51
-53.88
-60.61
-64.97
-65.30
-60.56
-50.80
-37.14
-21.53
-6.09
7.44
18.12
25.81
30.93
34.16
36.12
37.28
37.93
38.19
38.10
37.60
36.66
35.27
33.47
31.36
29.11
26.89
24.86
23.06
21.35
19.43
16.86
13.26
8.46
2.61
-3.80
-10.14
-15.84
-20.62
-24.59
-28.25
-32.33
-37.62
-44.60
-53.16
-62.32
-70.39
-75.30
-75.29
-69.55
-58.56
-43.92
-27.81
-12.33
1.06
11.67
19.52
25.05
28.89
31.72
34.13
36.57
39.19
41.84
44.13
45.59
45.88
44.93
42.94
40.33
37.59
35.17
33.36
32.16
31.27
30.20
28.37
25.38
21.10
15.81
10.02
4.33
-0.77
-5.07
-8.69
-12.03
-15.63
-20.09
-25.82
-32.83
-40.43
-47.29
-51.61
-51.71
-46.64
-36.67
-23.25
-8.58
5.15
16.40
24.61
30.00
33.24
35.07
36.07
36.69
37.23
37.89
38.70
39.48
39.90
39.63
38.49
36.59
34.19
31.64
29.21
27.05
25.18
23.54
21.99
20.26
18.05
15.07
11.19
6.57
1.67
-2.96
-6.85
-9.92
-12.46
-15.15
-18.67
-23.54
-29.85
-37.19
-44.65
-50.94
-54.70
-54.84
-50.86
-43.09
-32.59
-20.91
-9.65
-0.07
7.17
11.96
14.65
15.78
15.89
15.43
14.71
13.96
13.34
12.94
12.78
12.78
12.78
12.61
12.17
11.46
10.58
9.61
8.46
6.92
4.67
1.47
-2.68
-7.45
-12.31
-16.73
-20.36
-23.20
-25.64
-28.35
-32.04
-37.21
-43.75
-50.84
-56.91
-60.09
-58.83
-52.49
-41.66
-28.01
-13.73
-0.80
9.51
16.82
21.47
24.19
25.72
26.69
27.53
28.44
29.41
30.20
30.43
29.76
28.07
25.53
22.58
19.75
17.39
15.55
14.02
12.40
10.30
7.47
3.86
-0.45
-5.22
-10.14
-14.86
-19.07
-22.62
-25.66
-28.73
-32.55
-37.73
-44.29
-51.37
-57.29
-60.06
-58.10
-50.96
-39.52
-25.74
-11.91
0.10
9.31
15.70
19.84
22.52
24.42
26.02
27.63
29.41
31.39
33.40
35.09
36.04
35.91
34.62
32.33
29.46
26.49
23.91
22.04
21.01
20.63
20.46
19.89
18.34
15.50
11.45
6.70
1.90
-2.42
-6.06
-9.26
-12.57
-16.64
-21.95
-28.55
-36.00
-43.27
-48.98
-51.69
-50.31
-44.54
-35.04
-23.26
-11.08
-0.16
8.42
14.35
17.97
19.92
20.86
21.30
21.58
21.86
22.22
22.60
22.79
22.50
21.39
19.27
16.16
12.40
8.55
5.23
2.96
1.85
1.64
1.65
1.14
-0.50
-3.39
-7.20
-11.24
-14.81
-17.47
-19.28
-20.73
-22.53
-25.36
-29.51
-34.71
-40.02
-44.03
-45.28
-42.77
-36.29
-26.60
-15.17
-3.67
6.57
14.81
20.96
25.31
28.30
30.28
31.52
32.27
32.77
33.30
34.02
34.98
35.99
36.76
37.03
36.71
36.07
35.69
36.25
38.22
41.62
45.94
50.27
53.69
55.61
55.90
54.93
53.31
51.72
50.68
50.27
50.01
48.81
45.15
37.65
25.79
10.45
-6.14
-21.09
-31.93
-37.62
-38.81
-37.43
-35.77
-35.49
-37.17
-40.32
-43.92
-46.91
-48.59
-48.68
-47.24
-44.52
-40.87
-36.75
-32.75
-29.49
-27.57
-27.36
-28.87
-31.62
-34.75
-37.24
-38.29
-37.63
-35.67
-33.30
-31.53
-31.05
-31.96
-33.78
-35.73
-37.14
-37.83
-38.23
-39.26
-41.94
-46.96
-54.32
-63.19
-71.95
-78.53
-80.97
-77.91
-69.08
-55.36
-38.63
-21.23
-5.38
7.45
16.76
23.01
27.17
30.23
32.77
34.83
36.13
36.41
35.81
34.90
34.39
34.67
35.42
35.72
34.50
31.15
25.92
19.87
14.34
10.30
7.91
6.46
4.80
1.88
-2.82
-9.06
-16.07
-22.83
-28.55
-32.83
-35.77
-37.80
-39.50
-41.37
-43.84
-47.31
-52.04
-57.98
-64.48
-70.15
-73.11
-71.62
-64.77
-53.08
-38.45
-23.55
-10.93
-2.24
2.11
2.72
0.64
-3.08
-7.78
-13.08
-18.67
-24.19
-29.22
-33.40
-36.68
-39.33
-41.84
-44.61
-47.74
-50.94
-53.63
-55.34
-55.89
-55.56
-54.84
-53.96
-52.53
-49.42
-43.14
-32.58
-17.69
0.21
18.68
34.88
46.45
52.19
52.29
48.16
41.91
35.91
32.21
32.18
36.22
43.77
53.45
63.56
72.54
79.29
83.36
84.84
84.18
82.03
79.12
76.13
73.49
71.32
69.31
66.98
63.87
59.84
55.15
50.33
45.93
42.21
39.11
36.26
33.22
29.65
25.44
20.69
15.65
10.60
5.73
1.11
-3.33
-7.86
-12.84
-18.66
-25.52
-33.15
-40.63
-46.52
-49.15
-47.26
-40.50
-29.66
-16.50
-3.11
8.68
17.89
24.37
28.68
31.55
33.69
35.51
37.26
39.01
40.71
42.18
43.08
43.07
41.86
39.42
36.02
32.22
28.67
25.91
24.17
23.28
22.73
21.85
20.02
16.93
12.58
7.35
1.77
-3.63
-8.47
-12.63
-16.21
-19.55
-23.16
-27.56
-33.09
-39.65
-46.47
-52.14
-54.89
-53.20
-46.39
-35.01
-20.70
-5.68
7.93
18.73
26.25
30.87
33.50
35.20
36.90
39.19
42.25
45.74
48.93
50.96
51.08
49.01
45.00
39.79
34.32
29.43
25.64
23.05
21.40
20.24
19.11
17.68
15.79
13.46
10.82
7.98
5.02
1.94
-1.27
-4.66
-8.15
-11.65
-14.99
-18.02
-20.70
-23.11
-25.46
-28.09
-31.41
-35.74
-41.17
-47.34
-53.26
-57.49
-58.49
-55.12
-47.17
-35.50
-21.81
-8.08
4.03
13.56
20.27
24.41
26.50
27.02
26.47
25.30
23.97
22.82
22.05
21.62
21.31
20.87
20.04
18.71
16.87
14.68
12.35
10.12
8.15
6.42
4.72
2.68
-0.02
-3.53
-7.68
-12.03
-16.02
-19.23
-21.58
-23.36
-25.18
-27.71
-31.50
-36.70
-42.92
-49.25
-54.34
-56.74
-55.34
-49.70
-40.32
-28.48
-15.87
-4.12
5.62
12.85
17.67
20.57
22.18
23.06
23.66
24.24
24.88
25.49
25.90
25.88
25.28
24.01
22.13
19.78
17.20
14.72
12.62
11.09
10.05
9.15
7.81
5.51
1.98
-2.63
-7.76
-12.70
-16.86
-20.04
-22.47
-24.79
-27.80
-32.15
-38.11
-45.34
-52.75
-58.73
-61.50
-59.73
-53.02
-42.15
-28.84
-15.21
-3.16
6.22
12.71
16.86
19.55
21.69
23.93
26.60
29.70
32.98
36.04
38.39
39.67
39.67
38.41
36.19
33.44
30.73
28.53
27.13
26.52
26.43
26.40
25.94
24.66
22.43
19.35
15.72
11.92
8.27
4.90
1.74
-1.48
-5.03
-9.09
-13.59
-18.20
-22.47
-26.04
-28.80
-31.00
-33.21
-36.15
-40.47
-46.50
-53.96
-61.82
-68.37
-71.66
-70.05
-62.87
-50.78
-35.56
-19.61
-5.14
6.43
14.67
20.02
23.34
25.51
27.26
29.05
31.12
33.49
36.01
38.36
40.17
41.12
41.07
40.10
38.48
36.60
34.81
33.40
32.49
32.03
31.83
31.58
30.95
29.64
27.54
24.68
21.30
17.73
14.30
11.26
8.67
6.40
4.13
1.51
-1.72
-5.64
-10.03
-14.54
-18.74
-22.37
-25.39
-28.05
-30.80
-34.22
-38.81
-44.73
-51.62
-58.46
-63.67
-65.54
-62.75
-54.96
-43.00
-28.63
-14.03
-1.08
9.05
16.10
20.44
22.79
23.85
24.18
24.13
23.90
23.61
23.30
23.01
22.78
22.64
22.55
22.43
22.13
21.52
20.52
19.22
17.76
16.28
14.80
13.17
11.12
8.42
5.05
1.21
-2.66
-6.10
-8.78
-10.67
-12.05
-13.45
-15.49
-18.75
-23.63
-30.15
-37.87
-45.76
-52.36
-56.13
-55.87
-51.24
-42.85
-32.10
-20.74
-10.35
-1.93
4.19
8.24
10.77
12.42
13.75
15.12
16.58
17.92
18.71
18.54
17.17
14.66
11.40
7.94
4.82
2.42
0.85
0.00
-0.46
-0.98
-2.02
-3.91
-6.80
-10.57
-14.79
-18.91
-22.40
-25.03
-26.94
-28.71
-31.17
-35.02
-40.53
-47.25
-54.02
-59.22
-61.26
-59.15
-52.78
-42.97
-31.24
-19.26
-8.37
0.67
7.85
13.69
18.96
24.35
30.18
36.29
42.05
46.62
49.30
49.78
48.30
45.53
42.29
39.29
36.92
35.23
34.06
33.15
32.24
31.10
29.51
27.34
24.53
21.17
17.46
13.62
9.78
5.94
1.91
-2.62
-8.00
-14.49
-22.03
-30.10
-37.64
-43.23
-45.40
-43.24
-36.71
-26.79
-15.10
-3.39
7.16
16.12
23.80
30.78
37.61
44.48
51.26
57.62
63.16
67.47
70.17
70.98
69.86
67.16
63.63
60.26
57.93
57.11
57.69
59.08
60.46
61.05
60.35
58.23
54.86
50.63
45.96
41.21
36.64
32.28
27.98
23.48
18.54
12.98
6.77
-0.02
-7.27
-14.94
-23.15
-32.17
-42.37
-54.03
-66.97
-80.27
-92.25
-100.70
-103.62
-99.97
-90.17
-76.09
-60.37
-45.57
-33.31
-23.98
-17.01
-11.42
-6.37
-1.45
3.32
7.73
11.51
14.40
16.19
16.75
16.06
14.28
11.73
8.82
5.97
3.52
1.71
0.67
0.45
0.84
1.37
1.30
-0.24
-3.96
-10.09
-18.22
-27.41
-36.45
-44.24
-50.20
-54.31
-57.14
-59.60
-62.60
-66.74
-72.03
-77.68
-82.28
-84.09
-81.60
-74.15
-62.19
-47.16
-31.06
-15.78
-2.61
7.98
16.16
22.49
27.58
31.93
35.89
39.60
42.98
45.77
47.55
47.97
46.90
44.57
41.51
38.43
35.90
34.22
33.28
32.72
32.05
30.89
29.11
26.75
23.97
20.84
17.31
13.25
8.61
3.53
-1.63
-6.45
-10.62
-14.11
-17.16
-20.19
-23.64
-27.87
-33.14
-39.53
-46.75
-53.97
-59.79
-62.57
-60.97
-54.54
-43.98
-30.98
-17.63
-5.71
3.71
10.45
14.95
17.95
20.19
22.27
24.53
27.04
29.54
31.64
32.91
33.13
32.38
30.98
29.32
27.76
26.47
25.47
24.69
24.04
23.38
22.57
21.48
20.03
18.23
16.15
13.91
11.64
9.46
7.49
5.80
4.45
3.45
2.77
2.27
1.75
0.93
-0.44
-2.48
-5.14
-8.20
-11.35
-14.26
-16.75
-18.86
-20.81
-23.00
-25.91
-29.95
-35.24
-41.37
-47.26
-51.35
-51.98
-48.06
-39.53
-27.46
-13.74
-0.40
11.03
19.76
25.77
29.46
31.36
32.02
31.97
31.70
31.63
31.96
32.66
33.49
34.22
34.71
35.00
35.16
35.15
34.88
34.21
33.11
31.73
30.29
28.93
27.58
25.96
23.77
20.87
17.40
13.76
10.45
7.78
5.82
4.27
2.69
0.73
-1.83
-4.89
-8.18
-11.38
-14.20
-16.51
-18.38
-20.03
-21.81
-24.11
-27.29
-31.52
-36.65
-42.08
-46.75
-49.38
-48.81
-44.47
-36.59
-26.23
-14.97
-4.39
4.31
10.56
14.39
16.21
16.62
16.17
15.35
14.52
13.89
13.52
13.34
13.24
13.14
13.02
12.94
12.92
12.89
12.70
12.21
11.35
10.19
8.86
7.49
6.09
4.58
2.78
0.56
-2.07
-4.97
-7.89
-10.60
-12.97
-14.99
-16.82
-18.69
-20.80
-23.39
-26.66
-30.79
-35.78
-41.34
-46.71
-50.70
-51.97
-49.51
-43.07
-33.34
-21.79
-10.19
-0.07
7.72
13.01
16.21
17.95
18.86
19.45
20.10
21.04
22.32
23.78
25.12
25.99
26.17
25.66
24.67
23.49
22.41
21.57
21.00
20.61
20.29
19.88
19.25
18.25
16.83
14.98
12.83
10.49
8.06
5.57
3.00
0.39
-2.13
-4.41
-6.38
-8.09
-9.79
-11.81
-14.42
-17.64
-21.29
-25.01
-28.46
-31.41
-33.84
-35.95
-38.07
-40.65
-44.16
-48.86
-54.62
-60.69
-65.66
-67.89
-65.95
-59.28
-48.42
-34.92
-20.81
-7.95
2.44
9.93
14.68
17.24
18.30
18.64
19.03
20.08
22.07
24.79
27.61
29.77
30.71
30.32
28.97
27.31
25.94
25.19
25.03
25.20
25.36
25.26
24.76
23.88
22.63
21.04
19.10
16.78
14.11
11.17
8.16
5.31
2.79
0.67
-1.17
-3.00
-5.12
-7.78
-11.06
-14.86
-18.91
-22.93
-26.68
-30.05
-33.08
-35.90
-38.80
-42.17
-46.48
-52.06
-58.79
-65.89
-71.90
-74.95
-73.48
-66.79
-55.41
-40.94
-25.52
-11.08
1.06
10.38
16.96
21.20
23.66
24.99
25.87
26.99
28.81
31.43
34.55
37.55
39.81
40.92
40.87
39.95
38.67
37.47
36.61
36.06
35.63
35.04
34.10
32.72
30.98
28.99
26.85
24.55
22.05
19.29
16.29
13.13
9.95
6.90
4.04
1.35
-1.28
-4.02
-7.05
-10.45
-14.19
-18.14
-22.11
-25.90
-29.38
-32.59
-35.72
-39.13
-43.30
-48.69
-55.38
-62.81
-69.68
-74.09
-74.19
-68.88
-58.31
-43.93
-27.97
-12.70
0.26
10.21
17.22
21.75
24.33
25.45
25.61
25.36
25.29
25.85
27.14
28.90
30.68
31.96
32.43
32.03
30.99
29.67
28.43
27.52
26.95
26.49
25.78
24.40
22.12
18.97
15.29
11.55
8.15
5.24
2.67
0.05
-3.02
-6.72
-11.02
-15.65
-20.24
-24.53
-28.44
-32.11
-35.96
-40.53
-46.38
-53.83
-62.61
-71.65
-79.13
-82.97
-81.40
-73.72
-60.57
-43.78
-25.80
-8.91
5.35
16.33
24.19
29.56
33.22
35.94
38.39
41.06
44.17
47.60
50.92
53.58
55.13
55.40
54.55
53.03
51.35
49.92
48.88
48.18
47.56
46.77
45.55
43.82
41.56
38.88
35.88
32.65
29.20
25.54
21.70
17.76
13.86
10.16
6.69
3.35
-0.11
-3.96
-8.39
-13.40
-18.80
-24.30
-29.64
-34.65
-39.32
-43.72
-48.05
-52.62
-57.93
-64.48
-72.50
-81.51
-90.07
-96.03
-97.06
-91.62
-79.56
-62.32
-42.40
-22.56
-4.93
9.36
20.16
27.91
33.26
36.96
39.74
42.32
45.32
49.03
53.22
57.25
60.29
61.67
61.22
59.28
56.59
53.95
51.97
50.85
50.43
50.28
49.90
48.92
47.13
44.55
41.36
37.79
34.08
30.37
26.70
23.03
19.29
15.46
11.57
7.72
3.97
0.30
-3.38
-7.22
-11.37
-15.89
-20.73
-25.78
-30.86
-35.81
-40.54
-45.06
-49.56
-54.44
-60.26
-67.44
-75.87
-84.59
-91.70
-94.89
-92.16
-82.65
-67.10
-47.62
-26.94
-7.59
8.80
21.59
30.89
37.18
41.07
43.22
44.45
45.60
47.33
49.84
52.83
55.60
57.47
58.07
57.49
56.16
54.57
53.03
51.62
50.19
48.56
46.62
44.39
41.95
39.36
36.60
33.61
30.29
26.58
22.51
18.22
13.93
9.87
6.18
2.89
-0.13
-3.18
-6.55
-10.46
-14.93
-19.76
-24.59
-29.07
-33.02
-36.52
-39.88
-43.58
-48.13
-53.91
-60.98
-68.85
-76.34
-81.73
-83.15
-79.23
-69.63
-55.28
-38.12
-20.49
-4.46
8.63
18.25
24.55
28.03
29.41
29.46
28.99
28.67
28.94
29.85
31.14
32.38
33.21
33.47
33.22
32.66
32.01
31.34
30.61
29.64
28.26
26.28
23.67
20.51
17.00
13.42
10.00
6.83
3.83
0.76
-2.64
-6.58
-11.06
-15.91
-20.85
-25.60
-29.96
-33.94
-37.79
-41.99
-47.15
-53.78
-61.92
-70.78
-78.70
-83.44
-82.96
-76.19
-63.56
-46.85
-28.61
-11.27
3.53
15.14
23.68
29.63
33.57
36.09
37.87
39.57
41.74
44.55
47.68
50.49
52.27
52.62
51.58
49.52
47.03
44.61
42.63
41.25
40.46
40.05
39.67
38.85
37.14
34.27
30.29
25.53
20.54
15.79
11.57
7.86
4.40
0.86
-3.09
-7.61
-12.69
-18.15
-23.68
-28.93
-33.64
-37.71
-41.34
-45.00
-49.37
-55.12
-62.55
-71.29
-80.07
-86.88
-89.51
-86.29
-76.77
-62.01
-44.22
-26.01
-9.59
3.79
13.89
21.15
26.26
29.81
32.32
34.31
36.31
38.77
41.83
45.22
48.33
50.48
51.22
50.53
48.82
46.67
44.62
42.96
41.66
40.51
39.19
37.37
34.82
31.46
27.40
22.94
18.50
14.43
10.86
7.65
4.40
0.72
-3.66
-8.67
-13.98
-19.19
-23.97
-28.22
-32.09
-35.90
-40.11
-45.21
-51.58
-59.21
-67.49
-75.05
-79.97
-80.34
-75.01
-64.07
-48.94
-31.93
-15.39
-1.11
10.10
18.23
23.81
27.49
29.91
31.68
33.33
35.22
37.40
39.60
41.33
42.13
41.81
40.51
38.59
36.41
34.23
32.12
30.08
28.06
26.05
24.03
21.93
19.59
16.80
13.40
9.32
4.68
-0.29
-5.29
-10.02
-14.32
-18.12
-21.53
-24.73
-28.04
-31.88
-36.71
-42.88
-50.33
-58.28
-65.19
-69.07
-68.18
-61.68
-50.09
-35.19
-19.33
-4.65
7.46
16.60
23.05
27.38
30.18
31.94
33.10
34.04
35.02
36.12
37.15
37.88
38.10
37.76
36.97
35.82
34.38
32.60
30.48
28.06
25.48
22.91
20.45
18.08
15.65
12.97
9.81
6.06
1.71
-3.06
-7.97
-12.64
-16.80
-20.39
-23.56
-26.70
-30.26
-34.65
-40.12
-46.60
-53.59
-60.09
-64.69
-65.90
-62.65
-54.74
-43.01
-29.15
-15.16
-2.76
7.04
14.01
18.51
21.13
22.48
23.02
23.05
22.86
22.66
22.64
22.88
23.35
23.84
24.03
23.58
22.26
20.13
17.52
14.95
12.85
11.38
10.27
8.95
6.80
3.46
-1.04
-6.23
-11.46
-16.13
-19.90
-22.79
-25.13
-27.51
-30.59
-35.03
-41.22
-49.03
-57.62
-65.40
-70.38
-70.81
-65.76
-55.56
-41.70
-26.41
-11.80
0.61
10.20
17.18
22.14
25.79
28.73
31.40
34.07
36.84
39.61
42.05
43.76
44.38
43.78
42.13
39.79
37.19
34.67
32.38
30.32
28.42
26.58
24.72
22.71
20.36
17.42
13.67
9.02
3.61
-2.22
-8.05
-13.43
-18.14
-22.15
-25.72
-29.28
-33.31
-38.33
-44.67
-52.35
-60.80
-68.78
-74.53
-76.25
-72.78
-64.01
-51.05
-35.84
-20.51
-6.71
4.67
13.50
20.14
25.13
29.06
32.52
36.00
39.80
43.88
47.80
50.93
52.71
52.93
51.80
49.88
47.80
45.98
44.56
43.44
42.41
41.32
40.09
38.73
37.24
35.54
33.50
30.97
27.84
24.15
20.05
15.85
11.83
8.20
4.95
1.86
-1.40
-5.15
-9.52
-14.39
-19.44
-24.29
-28.66
-32.49
-35.96
-39.41
-43.34
-48.25
-54.58
-62.42
-71.24
-79.70
-85.87
-87.66
-83.62
-73.48
-58.39
-40.51
-22.36
-6.07
7.11
16.82
23.41
27.60
30.21
32.05
33.79
35.87
38.38
41.02
43.27
44.56
44.52
43.16
40.86
38.18
35.68
33.65
32.11
30.79
29.34
27.47
25.05
22.14
18.92
15.57
12.18
8.74
5.17
1.35
-2.75
-7.05
-11.41
-15.66
-19.69
-23.48
-27.16
-30.98
-35.29
-40.48
-46.82
-54.17
-61.77
-68.21
-71.69
-70.64
-64.33
-53.27
-39.06
-23.86
-9.68
2.20
11.39
18.11
22.87
26.13
28.24
29.48
30.09
30.36
30.50
30.68
30.93
31.17
31.22
30.86
29.88
28.18
25.87
23.22
20.62
18.36
16.45
14.59
12.28
9.04
4.67
-0.64
-6.35
-11.86
-16.67
-20.64
-23.99
-27.19
-30.79
-35.33
-41.17
-48.38
-56.57
-64.72
-71.27
-74.39
-72.60
-65.32
-53.24
-38.16
-22.36
-7.94
3.82
12.59
18.78
23.18
26.59
29.67
32.91
36.59
40.75
45.07
48.93
51.59
52.48
51.43
48.77
45.21
41.62
38.69
36.82
35.97
35.76
35.61
34.88
33.14
30.22
26.32
21.87
17.39
13.17
9.22
5.28
1.00
-3.79
-9.00
-14.29
-19.27
-23.67
-27.48
-30.90
-34.33
-38.29
-43.30
-49.81
-57.87
-66.82
-75.18
-80.88
-81.88
-76.93
-66.14
-50.98
-33.81
-17.03
-2.40
9.22
17.83
23.94
28.25
31.43
34.15
36.93
40.09
43.59
47.03
49.82
51.42
51.62
50.54
48.62
46.39
44.25
42.41
40.90
39.64
38.53
37.43
36.13
34.40
31.97
28.71
24.68
20.16
15.60
11.45
7.96
5.13
2.67
0.13
-2.92
-6.75
-11.33
-16.36
-21.42
-26.08
-30.13
-33.63
-36.91
-40.49
-44.94
-50.72
-57.93
-66.07
-73.89
-79.60
-81.25
-77.43
-67.83
-53.47
-36.37
-18.96
-3.26
9.53
19.11
25.80
30.22
33.00
34.75
35.97
37.13
38.54
40.26
42.07
43.53
44.21
43.83
42.40
40.19
37.66
35.31
33.47
32.25
31.45
30.62
29.27
27.02
23.81
19.87
15.64
11.59
7.99
4.85
1.94
-1.09
-4.51
-8.44
-12.77
-17.23
-21.49
-25.30
-28.55
-31.37
-34.14
-37.41
-41.75
-47.52
-54.55
-61.94
-68.09
-71.10
-69.37
-62.26
-50.40
-35.54
-19.97
-5.74
5.86
14.44
20.32
24.10
26.27
27.16
26.98
26.00
24.60
23.20
22.17
21.67
21.60
21.71
21.63
21.05
19.79
17.92
15.64
13.26
11.03
8.97
6.88
4.38
1.13
-2.98
-7.75
-12.70
-17.29
-21.11
-24.06
-26.36
-28.48
-30.93
-34.14
-38.45
-44.06
-50.89
-58.38
-65.40
-70.30
-71.37
-67.40
-58.26
-45.03
-29.69
-14.46
-1.08
9.57
17.49
23.19
27.39
30.69
33.55
36.25
38.94
41.53
43.73
45.13
45.41
44.49
42.63
40.31
38.03
36.13
34.64
33.38
32.06
30.43
28.33
25.72
22.60
18.99
14.88
10.27
5.23
-0.11
-5.56
-10.90
-15.92
-20.53
-24.76
-28.76
-32.79
-37.22
-42.42
-48.75
-56.27
-64.56
-72.59
-78.76
-81.29
-78.84
-71.01
-58.54
-43.15
-26.96
-11.88
0.87
10.85
18.30
23.81
28.12
31.92
35.74
39.85
44.17
48.35
51.85
54.17
55.03
54.49
52.85
50.59
48.17
45.96
44.22
43.03
42.30
41.80
41.16
39.94
37.78
34.54
30.30
25.42
20.38
15.61
11.36
7.65
4.27
0.89
-2.81
-7.05
-11.83
-17.00
-22.29
-27.40
-32.10
-36.30
-40.11
-43.84
-48.05
-53.35
-60.23
-68.65
-77.73
-85.77
-90.55
-90.06
-83.27
-70.59
-53.77
-35.33
-17.67
-2.43
9.74
19.02
25.99
31.27
35.42
38.90
42.10
45.29
48.53
51.61
54.12
55.67
56.04
55.30
53.73
51.71
49.61
47.67
46.01
44.60
43.32
41.96
40.28
38.12
35.36
32.03
28.22
24.12
19.91
15.78
11.87
8.25
4.88
1.56
-1.96
-5.92
-10.42
-15.37
-20.50
-25.43
-29.88
-33.70
-37.01
-40.15
-43.65
-48.17
-54.17
-61.70
-70.03
-77.62
-82.32
-82.15
-75.93
-63.92
-47.76
-29.96
-12.99
1.35
12.28
19.89
24.70
27.35
28.44
28.53
28.26
28.15
28.55
29.43
30.41
31.00
30.75
29.51
27.39
24.69
21.78
18.99
16.54
14.55
12.93
11.44
9.66
7.10
3.37
-1.61
-7.54
-13.79
-19.55
-24.16
-27.34
-29.25
-30.47
-31.83
-34.18
-38.20
-44.17
-51.83
-60.18
-67.55
-71.95
-71.64
-65.77
-54.76
-40.22
-24.39
-9.40
3.33
13.30
20.74
26.22
30.36
33.60
36.27
38.55
40.53
42.15
43.26
43.67
43.29
42.16
40.47
38.46
36.34
34.23
32.15
30.09
27.99
25.77
23.29
20.36
16.77
12.34
7.07
1.13
-5.13
-11.26
-16.90
-21.86
-26.20
-30.23
-34.43
-39.38
-45.60
-53.30
-62.15
-71.09
-78.37
-82.05
-80.57
-73.39
-61.23
-45.83
-29.39
-13.84
-0.45
10.33
18.66
25.02
30.02
34.24
38.20
42.27
46.57
50.86
54.65
57.33
58.42
57.78
55.66
52.61
49.35
46.54
44.59
43.54
43.06
42.59
41.51
39.38
36.08
31.82
27.05
22.25
17.70
13.42
9.21
4.74
-0.24
-5.75
-11.56
-17.28
-22.54
-27.14
-31.14
-34.85
-38.79
-43.55
-49.62
-57.21
-65.99
-74.88
-82.15
-85.77
-84.06
-76.33
-63.24
-46.60
-28.77
-11.93
2.53
14.07
22.84
29.29
33.95
37.36
40.10
42.77
45.77
49.18
52.62
55.43
56.95
56.87
55.35
52.97
50.44
48.33
46.83
45.81
44.93
43.86
42.36
40.37
37.90
35.02
31.77
28.19
24.32
20.26
16.14
12.12
8.36
4.95
1.87
-1.02
-3.92
-7.09
-10.70
-14.80
-19.34
-24.14
-29.00
-33.70
-38.09
-42.19
-46.16
-50.41
-55.45
-61.72
-69.25
-77.34
-84.46
-88.60
-87.86
-81.19
-68.83
-52.39
-34.25
-16.89
-2.16
9.08
16.82
21.63
24.22
25.30
25.45
25.17
24.90
24.87
25.12
25.49
25.76
25.76
25.54
25.34
25.53
26.41
28.10
30.42
32.90
34.89
35.74
34.96
32.31
27.88
21.99
15.15
7.95
0.90
-5.59
-11.32
-16.38
-21.04
-25.81
-31.25
-37.87
-45.95
-55.39
-65.51
-75.05
-82.29
-85.46
-83.34
-75.70
-63.48
-48.51
-32.92
-18.47
-6.13
3.92
12.08
18.88
24.75
29.96
34.65
38.85
42.49
45.37
47.28
48.12
47.99
47.20
46.15
45.09
44.04
42.80
41.11
38.88
36.19
33.26
30.27
27.17
23.71
19.56
14.52
8.65
2.34
-3.87
-9.51
-14.35
-18.49
-22.29
-26.21
-30.74
-36.32
-43.23
-51.52
-60.71
-69.69
-76.73
-79.90
-77.74
-69.85
-57.11
-41.50
-25.38
-10.75
1.23
10.38
17.16
22.27
26.40
30.05
33.61
37.30
41.19
45.05
48.46
50.90
51.97
51.61
50.13
48.05
45.94
44.19
42.95
42.16
41.65
41.17
40.49
39.36
37.54
34.87
31.29
26.95
22.11
17.14
12.41
8.18
4.54
1.39
-1.53
-4.60
-8.15
-12.37
-17.22
-22.47
-27.78
-32.85
-37.53
-41.87
-46.19
-50.94
-56.65
-63.70
-72.04
-80.91
-88.74
-93.46
-93.13
-86.60
-74.13
-57.29
-38.51
-20.17
-3.99
9.30
19.74
27.70
33.54
37.55
40.11
41.77
43.26
45.13
47.55
50.18
52.31
53.25
52.62
50.54
47.61
44.59
42.13
40.56
39.76
39.26
38.43
36.71
33.81
29.86
25.29
20.71
16.61
13.18
10.23
7.33
4.02
0.04
-4.56
-9.50
-14.34
-18.75
-22.61
-26.03
-29.31
-32.84
-37.01
-42.22
-48.68
-56.24
-64.09
-70.77
-74.38
-73.20
-66.45
-54.65
-39.58
-23.62
-8.96
3.11
12.26
18.90
23.61
26.82
28.72
29.44
29.21
28.46
27.61
26.93
26.43
25.93
25.15
23.90
22.14
19.97
17.61
15.28
13.20
11.43
9.91
8.39
6.50
3.92
0.44
-3.84
-8.58
-13.29
-17.48
-20.86
-23.48
-25.65
-27.89
-30.83
-35.00
-40.74
-47.96
-55.96
-63.43
-68.63
-69.84
-65.99
-57.04
-44.12
-29.08
-13.97
-0.37
10.85
19.55
25.99
30.66
34.05
36.66
38.93
41.14
43.33
45.24
46.48
46.69
45.82
44.11
42.04
40.02
38.19
36.46
34.58
32.35
29.74
26.86
23.86
20.77
17.46
13.71
9.39
4.45
-0.93
-6.50
-11.99
-17.22
-22.09
-26.60
-30.82
-34.92
-39.24
-44.24
-50.43
-58.03
-66.63
-74.98
-81.17
-83.17
-79.55
-70.15
-56.15
-39.68
-23.11
-8.26
3.97
13.53
20.88
26.63
31.30
35.35
39.20
43.19
47.43
51.70
55.44
58.00
58.89
58.06
55.91
53.11
50.37
48.14
46.55
45.47
44.62
43.74
42.60
41.03
38.84
35.89
32.12
27.67
22.87
18.16
13.99
10.58
7.86
5.45
2.84
-0.43
-4.60
-9.61
-15.19
-20.92
-26.46
-31.58
-36.30
-40.86
-45.67
-51.28
-58.15
-66.38
-75.44
-83.95
-89.95
-91.37
-86.85
-76.28
-60.94
-43.07
-25.16
-9.14
3.98
14.01
21.32
26.46
29.96
32.33
34.12
35.77
37.54
39.40
41.03
42.01
42.04
41.11
39.43
37.35
35.18
33.06
30.99
28.92
26.81
24.68
22.52
20.27
17.79
14.82
11.17
6.77
1.78
-3.45
-8.48
-12.96
-16.74
-19.98
-23.02
-26.36
-30.50
-35.88
-42.68
-50.70
-59.12
-66.53
-71.14
-71.35
-66.30
-56.30
-42.79
-27.87
-13.57
-1.30
8.41
15.71
21.09
25.04
27.89
29.85
31.09
31.80
32.17
32.34
32.34
32.13
31.61
30.67
29.30
27.54
25.55
23.54
21.64
19.83
17.90
15.49
12.23
7.91
2.63
-3.28
-9.27
-14.86
-19.72
-23.80
-27.36
-30.87
-34.91
-40.05
-46.67
-54.73
-63.50
-71.58
-77.09
-78.22
-73.93
-64.35
-50.82
-35.38
-20.12
-6.50
4.85
14.00
21.32
27.22
31.99
35.91
39.28
42.43
45.52
48.43
50.72
51.92
51.69
50.11
47.67
45.06
42.87
41.35
40.32
39.33
37.85
35.55
32.40
28.64
24.57
20.45
16.29
11.95
7.24
2.06
-3.44
-8.99
-14.27
-19.07
-23.41
-27.46
-31.53
-35.96
-41.14
-47.41
-54.93
-63.39
-71.81
-78.48
-81.45
-79.14
-70.98
-57.79
-41.47
-24.35
-8.46
4.95
15.54
23.57
29.58
34.06
37.51
40.37
43.04
45.79
48.58
51.09
52.80
53.26
52.28
50.07
47.19
44.28
41.86
40.17
39.11
38.32
37.33
35.74
33.29
29.98
25.96
21.55
17.09
12.84
8.90
5.16
1.33
-2.86
-7.57
-12.74
-18.03
-23.06
-27.50
-31.28
-34.65
-38.05
-42.10
-47.35
-54.13
-62.23
-70.76
-78.09
-82.19
-81.23
-74.28
-61.75
-45.31
-27.33
-10.06
4.93
17.01
26.24
33.01
37.72
40.78
42.62
43.77
44.74
45.85
47.07
48.07
48.39
47.77
46.17
43.92
41.44
39.15
37.31
35.92
34.80
33.59
31.91
29.46
26.17
22.24
18.05
14.00
10.34
7.00
3.66
-0.11
-4.56
-9.63
-14.94
-20.00
-24.39
-28.00
-31.02
-33.91
-37.24
-41.55
-47.20
-54.18
-61.84
-68.92
-73.62
-74.15
-69.39
-59.33
-45.21
-29.13
-13.31
0.56
11.64
19.86
25.58
29.24
31.22
31.78
31.26
30.03
28.57
27.26
26.35
25.85
25.58
25.19
24.37
22.90
20.80
18.31
15.79
13.52
11.55
9.61
7.26
4.04
-0.25
-5.45
-11.02
-16.33
-20.83
-24.28
-26.82
-28.87
-31.00
-33.80
-37.81
-43.33
-50.31
-58.11
-65.39
-70.36
-71.20
-66.82
-57.24
-43.71
-28.26
-12.97
0.61
11.76
20.46
27.03
31.88
35.31
37.55
38.84
39.50
39.84
40.08
40.29
40.42
40.29
39.71
38.56
36.85
34.70
32.30
29.84
27.42
25.04
22.55
19.81
16.64
12.90
8.51
3.49
-2.03
-7.73
-13.29
-18.42
-22.99
-27.10
-31.03
-35.17
-39.96
-45.81
-52.94
-61.19
-69.76
-77.23
-81.75
-81.65
-76.07
-65.35
-50.94
-34.85
-19.02
-4.81
7.18
16.86
24.42
30.15
34.42
37.76
40.76
43.94
47.44
50.97
53.90
55.58
55.62
54.08
51.43
48.35
45.51
43.34
42.02
41.36
40.97
40.29
38.83
36.25
32.51
27.91
22.88
17.91
13.31
9.12
5.17
1.19
-3.06
-7.66
-12.57
-17.60
-22.54
-27.18
-31.38
-35.17
-38.80
-42.74
-47.61
-53.96
-61.89
-70.71
-78.89
-84.33
-85.04
-79.85
-68.89
-53.56
-36.07
-18.66
-3.03
9.93
20.06
27.62
33.03
36.79
39.47
41.68
43.95
46.51
49.18
51.51
52.93
53.09
52.02
50.05
47.72
45.52
43.77
42.54
41.65
40.69
39.20
36.78
33.27
28.84
23.97
19.22
15.02
11.46
8.30
5.10
1.47
-2.75
-7.45
-12.34
-17.09
-21.46
-25.37
-28.88
-32.23
-35.81
-40.17
-45.80
-52.90
-60.99
-68.80
-74.41
-75.86
-71.81
-62.16
-48.14
-31.94
-15.94
-1.97
9.06
17.12
22.71
26.42
28.68
29.76
29.90
29.36
28.54
27.77
27.28
27.10
27.01
26.69
25.81
24.20
21.89
19.13
16.34
13.83
11.74
9.84
7.70
4.78
0.78
-4.24
-9.79
-15.15
-19.70
-23.14
-25.62
-27.66
-29.94
-33.11
-37.63
-43.61
-50.73
-58.13
-64.41
-67.93
-67.24
-61.63
-51.50
-38.23
-23.76
-9.92
2.09
11.85
19.51
25.47
30.05
33.47
35.89
37.49
38.50
39.10
39.39
39.41
39.11
38.50
37.58
36.36
34.85
33.03
30.93
28.67
26.34
24.03
21.64
18.97
15.73
11.71
6.84
1.29
-4.62
-10.49
-15.98
-20.92
-25.32
-29.37
-33.36
-37.64
-42.63
-48.68
-55.94
-64.04
-71.90
-77.83
-79.95
-76.85
-68.22
-55.04
-39.27
-23.20
-8.68
3.24
12.46
19.41
24.78
29.21
33.25
37.29
41.51
45.84
49.82
52.81
54.20
53.69
51.48
48.24
44.84
42.05
40.28
39.44
39.06
38.52
37.32
35.19
32.19
28.56
24.57
20.44
16.21
11.82
7.19
2.30
-2.73
-7.71
-12.46
-16.84
-20.86
-24.68
-28.57
-32.91
-38.07
-44.33
-51.61
-59.32
-66.26
-70.84
-71.47
-67.14
-57.87
-44.69
-29.39
-13.86
0.34
12.34
21.84
28.94
33.91
37.18
39.30
40.89
42.57
44.65
47.01
49.15
50.43
50.38
48.94
46.53
43.79
41.36
39.59
38.48
37.70
36.78
35.31
33.03
29.90
26.07
21.87
17.66
13.73
10.21
7.01
3.82
0.28
-3.81
-8.43
-13.28
-17.93
-22.04
-25.50
-28.49
-31.38
-34.69
-38.92
-44.40
-51.14
-58.61
-65.63
-70.58
-71.78
-68.12
-59.49
-46.92
-32.19
-17.29
-3.82
7.28
15.73
21.65
25.33
27.11
27.39
26.63
25.35
24.03
23.01
22.44
22.26
22.27
22.17
21.64
20.45
18.52
16.01
13.23
10.49
7.95
5.51
2.87
-0.33
-4.29
-8.88
-13.71
-18.27
-22.15
-25.16
-27.46
-29.41
-31.57
-34.54
-38.83
-44.63
-51.62
-58.77
-64.49
-67.03
-65.03
-58.09
-46.94
-33.18
-18.74
-5.28
6.21
15.39
22.41
27.61
31.31
33.83
35.48
36.59
37.41
38.08
38.56
38.72
38.37
37.44
35.91
33.89
31.54
29.06
26.63
24.40
22.34
20.28
17.87
14.73
10.60
5.49
-0.33
-6.36
-12.10
-17.20
-21.55
-25.33
-28.97
-33.04
-38.11
-44.60
-52.45
-60.93
-68.63
-73.72
-74.55
-70.26
-61.06
-48.26
-33.70
-19.20
-6.09
4.98
13.86
20.72
25.86
29.70
32.81
35.78
39.05
42.70
46.30
49.17
50.62
50.32
48.47
45.67
42.71
40.20
38.40
37.17
36.15
34.94
33.27
31.10
28.49
25.53
22.24
18.57
14.43
9.81
4.81
-0.35
-5.39
-10.11
-14.41
-18.32
-21.98
-25.66
-29.68
-34.50
-40.51
-47.84
-56.02
-63.83
-69.46
-71.05
-67.39
-58.45
-45.40
-30.26
-15.14
-1.60
9.60
18.40
25.14
30.25
34.11
37.14
39.77
42.37
45.11
47.79
49.95
51.11
50.93
49.46
47.09
44.38
41.88
39.90
38.49
37.46
36.45
35.09
33.05
30.16
26.49
22.28
17.94
13.81
10.11
6.84
3.78
0.60
-2.96
-7.00
-11.42
-15.91
-20.18
-24.00
-27.36
-30.44
-33.65
-37.52
-42.51
-48.80
-56.05
-63.21
-68.70
-70.76
-68.05
-60.18
-47.94
-33.07
-17.71
-3.79
7.50
15.79
21.37
24.85
26.82
27.75
27.90
27.53
26.84
26.11
25.54
25.24
25.12
24.91
24.29
22.97
20.91
18.30
15.51
12.91
10.64
8.59
6.43
3.73
0.21
-4.17
-9.15
-14.27
-19.01
-23.05
-26.33
-29.10
-31.85
-35.16
-39.52
-45.16
-51.90
-58.98
-65.14
-68.85
-68.74
-64.05
-54.95
-42.54
-28.50
-14.60
-2.20
8.00
15.88
21.72
25.93
28.90
30.91
32.23
33.04
33.46
33.52
33.23
32.51
31.36
29.82
28.02
26.12
24.27
22.55
20.98
19.41
17.57
15.11
11.71
7.25
1.86
-4.00
-9.78
-14.97
-19.34
-23.02
-26.48
-30.36
-35.33
-41.77
-49.57
-57.89
-65.27
-69.88
-70.14
-65.28
-55.68
-42.84
-28.77
-15.35
-3.79
5.51
12.81
18.61
23.42
27.61
31.44
35.11
38.69
42.06
44.86
46.66
47.10
46.11
43.94
41.06
38.00
35.16
32.75
30.78
29.16
27.70
26.19
24.36
21.94
18.73
14.61
9.68
4.19
-1.48
-6.92
-11.82
-16.02
-19.61
-22.87
-26.30
-30.44
-35.81
-42.64
-50.62
-58.82
-65.67
-69.40
-68.58
-62.63
-52.08
-38.46
-23.74
-9.76
2.26
11.84
19.09
24.47
28.52
31.84
34.95
38.23
41.79
45.39
48.51
50.56
51.20
50.44
48.67
46.46
44.34
42.64
41.47
40.76
40.32
39.90
39.14
37.72
35.39
32.08
27.98
23.46
18.95
14.82
11.18
7.93
4.78
1.37
-2.56
-7.05
-11.95
-16.91
-21.54
-25.57
-28.95
-31.96
-35.10
-39.01
-44.24
-51.01
-58.92
-66.80
-72.86
-75.20
-72.41
-64.15
-51.33
-35.80
-19.77
-5.11
7.01
16.22
22.68
26.83
29.19
30.29
30.60
30.56
30.47
30.47
30.58
30.69
30.68
30.38
29.64
28.37
26.54
24.26
21.75
19.26
16.94
14.81
12.71
10.36
7.53
4.05
-0.04
-4.48
-8.93
-13.00
-16.47
-19.34
-21.89
-24.60
-27.99
-32.53
-38.43
-45.55
-53.22
-60.27
-65.12
-66.28
-62.81
-54.76
-43.24
-30.03
-16.99
-5.52
3.76
10.86
16.16
20.07
22.86
24.75
25.93
26.61
27.00
27.21
27.20
26.86
26.08
24.83
23.24
21.50
19.88
18.53
17.46
16.47
15.15
13.03
9.78
5.31
-0.11
-5.96
-11.64
-16.68
-20.90
-24.41
-27.62
-31.15
-35.66
-41.62
-48.99
-57.04
-64.29
-68.88
-69.13
-64.23
-54.56
-41.59
-27.34
-13.67
-1.83
7.71
15.07
20.67
24.97
28.48
31.63
34.79
38.11
41.36
44.06
45.64
45.76
44.44
42.12
39.40
36.81
34.65
32.93
31.52
30.20
28.79
27.16
25.15
22.61
19.40
15.46
10.79
5.56
0.01
-5.56
-10.81
-15.54
-19.65
-23.26
-26.71
-30.51
-35.19
-41.14
-48.32
-56.09
-63.20
-68.01
-68.95
-65.09
-56.47
-44.19
-30.00
-15.77
-2.97
7.61
15.90
22.25
27.25
31.46
35.35
39.16
42.93
46.44
49.34
51.28
52.06
51.71
50.48
48.77
46.97
45.36
44.12
43.27
42.74
42.34
41.79
40.79
39.02
36.32
32.70
28.37
23.69
19.09
14.98
11.54
8.73
6.24
3.67
0.62
-3.11
-7.48
-12.29
-17.23
-22.01
-26.42
-30.40
-34.10
-37.81
-42.05
-47.36
-54.00
-61.72
-69.41
-75.30
-77.43
-74.35
-65.71
-52.51
-36.71
-20.59
-6.03
5.85
14.79
21.06
25.21
27.80
29.38
30.42
31.29
32.19
33.09
33.84
34.20
34.05
33.35
32.18
30.63
28.80
26.76
24.59
22.39
20.22
18.10
15.90
13.44
10.49
6.91
2.72
-1.89
-6.55
-10.90
-14.67
-17.78
-20.41
-22.87
-25.59
-29.01
-33.45
-39.07
-45.76
-52.93
-59.51
-64.06
-65.12
-61.79
-54.03
-42.82
-29.81
-16.79
-5.14
4.47
12.03
17.86
22.33
25.65
27.90
29.16
29.59
29.44
29.02
28.57
28.21
27.89
27.45
26.68
25.40
23.58
21.37
18.99
16.66
14.42
12.07
9.26
5.67
1.20
-3.96
-9.35
-14.45
-18.90
-22.58
-25.74
-28.82
-32.39
-36.98
-42.91
-50.13
-58.03
-65.40
-70.64
-72.17
-68.96
-60.96
-49.11
-35.08
-20.72
-7.52
3.63
12.49
19.21
24.21
28.03
31.24
34.43
37.98
41.90
45.81
49.00
50.76
50.72
48.99
46.14
42.94
40.08
37.93
36.51
35.58
34.78
33.73
32.13
29.79
26.67
22.89
18.70
14.41
10.25
6.28
2.37
-1.69
-6.09
-10.84
-15.76
-20.57
-25.00
-28.96
-32.54
-36.10
-40.16
-45.27
-51.78
-59.57
-67.84
-75.03
-79.23
-78.74
-72.67
-61.42
-46.50
-30.08
-14.24
-0.44
10.69
19.16
25.39
29.90
33.27
36.10
38.93
42.08
45.52
48.83
51.38
52.63
52.42
51.01
48.95
46.89
45.30
44.37
44.02
44.01
43.95
43.50
42.38
40.47
37.86
34.81
31.63
28.56
25.67
22.86
19.93
16.78
13.43
10.02
6.71
3.52
0.32
-3.14
-7.07
-11.56
-16.49
-21.55
-26.40
-30.77
-34.54
-37.86
-41.06
-44.65
-49.18
-55.02
-62.09
-69.60
-76.08
-79.66
-78.67
-72.26
-60.78
-45.70
-29.16
-13.25
0.53
11.46
19.50
24.97
28.31
29.99
30.46
30.25
29.86
29.66
29.77
30.13
30.51
30.67
30.45
29.73
28.48
26.70
24.46
21.89
19.18
16.52
14.01
11.62
9.14
6.28
2.80
-1.36
-6.05
-10.88
-15.45
-19.44
-22.78
-25.65
-28.38
-31.41
-35.10
-39.73
-45.36
-51.69
-57.95
-62.91
-65.16
-63.50
-57.47
-47.50
-34.88
-21.28
-8.22
3.27
12.78
20.26
25.90
29.84
32.25
33.32
33.35
32.69
31.69
30.64
29.72
29.00
28.43
27.85
27.02
25.74
23.95
21.74
19.31
16.79
14.16
11.17
7.50
2.94
-2.42
-8.19
-13.86
-18.95
-23.27
-26.93
-30.28
-33.79
-37.97
-43.26
-49.89
-57.67
-65.76
-72.65
-76.51
-75.73
-69.58
-58.58
-44.38
-29.10
-14.72
-2.42
7.43
15.08
21.04
25.77
29.69
33.21
36.74
40.55
44.59
48.39
51.22
52.41
51.68
49.34
46.16
43.09
40.80
39.51
38.95
38.53
37.66
35.95
33.31
29.90
26.04
22.00
17.97
14.01
10.07
6.02
1.75
-2.76
-7.48
-12.25
-16.93
-21.39
-25.61
-29.68
-33.89
-38.65
-44.38
-51.38
-59.45
-67.72
-74.62
-78.24
-76.95
-70.03
-58.02
-42.58
-25.94
-10.15
3.34
13.94
21.74
27.25
31.15
34.16
36.95
39.95
43.29
46.66
49.54
51.39
51.95
51.37
50.11
48.69
47.50
46.66
46.05
45.45
44.66
43.56
42.12
40.35
38.26
35.82
33.03
29.90
26.51
22.98
19.46
16.08
12.91
9.95
7.13
4.33
1.34
-1.98
-5.79
-10.13
-14.92
-19.96
-25.00
-29.78
-34.19
-38.30
-42.38
-46.89
-52.32
-58.94
-66.50
-74.00
-79.81
-81.99
-79.05
-70.45
-56.99
-40.53
-23.44
-7.76
5.19
15.03
21.98
26.57
29.36
30.87
31.61
32.05
32.56
33.31
34.16
34.81
34.95
34.43
33.34
31.93
30.46
29.07
27.72
26.27
24.55
22.45
20.00
17.25
14.27
11.09
7.66
3.97
0.06
-3.94
-7.85
-11.49
-14.80
-17.86
-20.83
-23.95
-27.49
-31.74
-36.99
-43.31
-50.35
-57.20
-62.43
-64.48
-62.19
-55.31
-44.62
-31.69
-18.35
-6.12
4.16
12.23
18.22
22.36
24.83
25.77
25.40
24.12
22.46
20.99
20.11
19.91
20.13
20.28
19.85
18.55
16.42
13.80
11.17
8.89
7.08
5.51
3.77
1.46
-1.60
-5.34
-9.39
-13.30
-16.66
-19.29
-21.33
-23.24
-25.73
-29.53
-35.15
-42.54
-50.88
-58.63
-63.82
-64.73
-60.40
-51.03
-37.88
-22.92
-8.10
5.03
15.64
23.57
29.19
33.21
36.51
39.89
43.77
48.06
52.07
54.85
55.58
53.96
50.33
45.46
40.25
35.39
31.24
27.90
25.28
23.24
21.53
19.79
17.56
14.42
10.14
4.68
-1.71
-8.59
-15.46
-21.82
-27.30
-31.73
-35.16
-37.82
-40.06
-42.34
-45.14
-48.86
-53.62
-59.03
-64.09
-67.26
-66.91
-61.93
-52.19
-38.71
-23.30
-7.98
5.70
16.96
25.76
32.53
37.80
42.04
45.57
48.65
51.47
54.07
56.32
57.94
58.60
58.12
56.56
54.23
51.59
49.07
46.92
45.19
43.68
42.10
40.16
37.60
34.31
30.36
25.99
21.55
17.37
13.64
10.27
6.97
3.35
-0.78
-5.38
-10.09
-14.44
-18.11
-21.05
-23.56
-26.14
-29.36
-33.71
-39.44
-46.43
-54.03
-60.99
-65.64
-66.29
-61.82
-52.18
-38.47
-22.68
-7.00
6.81
17.83
25.95
31.63
35.47
38.03
39.65
40.60
41.09
41.36
41.69
42.39
43.69
45.64
48.02
50.39
52.22
53.16
53.26
52.96
52.92
53.64
55.20
57.21
59.00
59.95
59.80
58.81
57.56
56.72
56.67
57.40
58.47
59.12
58.49
55.70
50.16
41.87
31.72
21.61
14.23
12.30
17.71
30.66
49.39
70.47
89.63
102.88
107.42
102.12
87.53
65.46
38.46
9.22
-19.96
-47.31
-71.64
-92.15
-108.24
-119.48
-125.76
-127.48
-125.59
-121.53
-116.77
-112.45
-109.13
-106.83
-105.30
-104.39
-104.21
-105.07
-107.17
-110.29
-113.74
-116.46
-117.53
-116.51
-113.71
-110.05
-106.85
-105.40
-106.62
-110.81
-117.33
-124.51
-129.73
-130.02
-122.95
-107.51
-84.55
-56.61
-27.04
1.09
25.80
46.42
63.32
77.33
89.25
99.75
109.27
118.14
126.46
134.00
140.22
144.45
146.16
145.26
142.19
137.76
132.78
127.80
122.92
117.88
112.32
105.98
98.81
90.90
82.33
73.12
63.24
52.72
41.77
30.75
20.12
10.31
1.66
-5.63
-11.58
-16.44
-20.75
-25.22
-30.66
-37.70
-46.48
-56.30
-65.56
-71.95
-73.00
-66.92
-53.35
-33.66
-10.73
11.85
30.86
44.28
51.61
53.72
52.14
48.43
43.64
38.23
32.20
25.37
17.68
9.28
0.48
-8.42
-17.23
-25.94
-34.63
-43.37
-52.11
-60.76
-69.28
-77.78
-86.52
-95.70
-105.33
-115.01
-124.02
-131.58
-137.09
-140.44
-142.07
-142.79
-143.54
-145.10
-147.94
-152.34
-158.46
-166.31
-175.53
-185.11
-193.30
-197.91
-196.92
-189.08
-174.25
-153.32
-127.79
-99.36
-69.71
-40.52
-13.45
10.06
29.15
43.80
54.88
63.70
71.37
78.32
84.21
88.31
90.01
89.22
86.42
82.30
77.49
72.27
66.61
60.40
53.65
46.53
39.23
31.77
23.92
15.30
5.58
-5.28
-17.06
-29.41
-42.17
-55.41
-69.35
-84.06
-99.01
-112.88
-123.64
-129.06
-127.42
-118.19
-102.33
-82.16
-60.69
-40.73
-24.22
-11.75
-2.72
4.17
10.29
16.66
23.72
31.37
39.15
46.42
52.59
57.28
60.38
62.11
63.02
63.85
65.38
68.28
72.88
79.11
86.41
93.86
100.36
104.85
106.60
105.38
101.48
95.61
88.66
81.44
74.52
68.13
62.14
56.18
49.70
42.15
33.12
22.68
11.58
1.29
-6.29
-9.38
-6.99
0.64
12.05
24.98
37.16
46.87
53.32
56.63
57.50
56.91
55.76
54.74
54.25
54.34
54.74
54.98
54.52
53.00
50.33
46.75
42.79
39.05
36.03
33.92
32.63
31.79
30.96
29.76
28.01
25.69
22.93
19.90
16.76
13.62
10.52
7.44
4.35
1.19
-2.07
-5.37
-8.60
-11.67
-14.56
-17.46
-20.73
-24.84
-30.14
-36.52
-43.23
-48.87
-51.73
-50.38
-44.19
-33.68
-20.40
-6.40
6.41
16.75
24.21
28.97
31.55
32.42
31.99
30.63
28.76
26.90
25.52
24.84
24.75
24.87
24.70
23.85
22.24
20.09
17.84
15.87
14.33
13.06
11.62
9.51
6.36
2.14
-2.84
-8.01
-12.79
-16.82
-20.13
-23.16
-26.65
-31.31
-37.55
-45.17
-53.18
-59.96
-63.65
-62.72
-56.56
-45.76
-31.92
-17.19
-3.61
7.48
15.56
20.90
24.16
26.15
27.54
28.86
30.36
32.08
33.79
35.14
35.73
35.26
33.67
31.09
27.84
24.31
20.93
18.05
15.91
14.52
13.60
12.62
10.96
8.12
3.91
-1.39
-7.17
-12.67
-17.35
-21.05
-24.06
-27.03
-30.74
-35.82
-42.47
-50.22
-57.87
-63.67
-65.78
-62.86
-54.63
-42.07
-27.19
-12.32
0.58
10.51
17.49
22.26
25.80
28.91
32.04
35.31
38.60
41.66
44.20
45.88
46.45
45.79
44.01
41.43
38.49
35.65
33.29
31.58
30.53
29.92
29.42
28.63
27.22
24.96
21.80
17.90
13.55
9.16
5.08
1.60
-1.23
-3.55
-5.71
-8.05
-10.84
-14.13
-17.76
-21.43
-24.81
-27.73
-30.14
-32.22
-34.34
-36.96
-40.58
-45.48
-51.47
-57.71
-62.71
-64.72
-62.28
-54.82
-42.99
-28.50
-13.56
-0.20
10.26
17.39
21.45
23.08
22.93
21.61
19.59
17.34
15.26
13.72
12.89
12.76
13.06
13.36
13.24
12.38
10.81
8.82
6.90
5.44
4.59
4.11
3.49
2.17
-0.18
-3.55
-7.52
-11.47
-14.82
-17.22
-18.71
-19.71
-20.86
-22.82
-26.11
-30.90
-36.88
-43.23
-48.68
-51.69
-50.89
-45.57
-35.99
-23.44
-9.89
2.66
12.75
19.78
23.96
26.01
26.76
26.86
26.77
26.72
26.80
27.00
27.20
27.21
26.89
26.17
25.11
23.89
22.64
21.49
20.47
19.59
18.79
18.00
17.07
15.80
13.97
11.41
8.12
4.32
0.42
-3.13
-5.99
-8.16
-9.96
-11.89
-14.46
-17.85
-21.92
-26.25
-30.34
-33.83
-36.65
-39.02
-41.34
-44.14
-47.93
-53.11
-59.77
-67.40
-74.74
-79.91
-80.92
-76.32
-65.92
-50.98
-33.87
-17.23
-3.18
7.19
13.91
17.73
19.63
20.52
21.08
21.84
23.14
25.14
27.67
30.28
32.35
33.31
32.83
30.94
28.06
24.75
21.63
19.17
17.58
16.81
16.51
16.19
15.30
13.42
10.35
6.22
1.43
-3.46
-7.94
-11.68
-14.70
-17.29
-19.96
-23.37
-28.03
-34.12
-41.21
-48.21
-53.44
-55.20
-52.26
-44.43
-32.72
-18.99
-5.39
6.34
15.27
21.34
25.07
27.23
28.55
29.58
30.68
31.98
33.48
35.00
36.27
37.04
37.20
36.76
35.91
34.88
33.89
33.08
32.50
32.12
31.85
31.53
31.00
30.10
28.74
26.88
24.59
22.00
19.34
16.82
14.60
12.76
11.26
9.98
8.71
7.22
5.36
3.05
0.42
-2.28
-4.78
-6.83
-8.45
-9.87
-11.50
-13.74
-16.76
-20.45
-24.39
-28.13
-31.30
-33.84
-35.97
-38.11
-40.75
-44.38
-49.28
-55.33
-61.79
-67.29
-69.97
-68.07
-60.60
-47.85
-31.40
-13.73
2.59
15.69
24.73
29.85
31.82
31.52
29.73
27.04
23.91
20.82
18.27
16.66
16.18
16.75
17.97
19.28
20.13
20.12
19.15
17.36
15.04
12.47
9.88
7.36
4.95
2.61
0.28
-2.13
-4.71
-7.58
-10.78
-14.25
-17.83
-21.27
-24.36
-26.99
-29.31
-31.67
-34.57
-38.62
-44.24
-51.48
-59.75
-67.73
-73.53
-75.24
-71.47
-61.96
-47.78
-31.00
-14.03
1.04
12.96
21.39
26.70
29.61
30.97
31.61
32.25
33.35
35.06
37.14
39.08
40.37
40.67
40.00
38.67
37.11
35.71
34.67
33.98
33.45
32.76
31.55
29.50
26.47
22.51
17.92
13.10
8.39
3.90
-0.50
-5.04
-9.92
-15.16
-20.55
-25.80
-30.67
-35.12
-39.33
-43.69
-48.67
-54.79
-62.44
-71.61
-81.61
-90.96
-97.49
-99.02
-94.02
-82.39
-65.47
-45.74
-25.89
-8.10
6.45
17.58
25.76
31.70
36.14
39.77
43.20
46.94
51.19
55.75
60.03
63.30
64.99
64.96
63.61
61.64
59.84
58.70
58.35
58.55
58.88
58.94
58.46
57.32
55.53
53.15
50.30
47.13
43.80
40.46
37.21
34.10
31.13
28.29
25.55
22.82
20.03
17.03
13.71
10.03
6.04
1.93
-2.09
-5.88
-9.45
-13.01
-16.85
-21.26
-26.30
-31.83
-37.48
-42.87
-47.75
-52.07
-56.07
-60.16
-64.91
-70.90
-78.52
-87.61
-97.14
-105.18
-109.18
-106.83
-96.90
-79.87
-57.85
-33.93
-11.20
8.11
22.93
33.21
39.54
42.78
43.92
44.05
44.27
45.45
47.98
51.60
55.54
58.87
60.85
61.24
60.27
58.53
56.63
55.04
53.94
53.25
52.67
51.78
50.21
47.75
44.43
40.54
36.48
32.63
29.12
25.88
22.66
19.24
15.51
11.57
7.64
3.94
0.53
-2.70
-6.01
-9.67
-13.81
-18.36
-23.08
-27.65
-31.84
-35.60
-39.10
-42.65
-46.65
-51.54
-57.64
-64.93
-72.85
-80.04
-84.53
-84.25
-77.77
-64.97
-47.22
-27.01
-7.16
10.07
23.42
32.68
38.30
41.04
41.68
40.92
39.44
37.87
36.67
36.05
35.98
36.25
36.57
36.69
36.40
35.58
34.16
32.19
29.78
27.17
24.53
21.96
19.40
16.64
13.44
9.65
5.25
0.42
-4.55
-9.37
-13.84
-17.89
-21.59
-25.11
-28.68
-32.65
-37.37
-43.19
-50.19
-57.89
-65.10
-70.03
-70.82
-66.17
-55.98
-41.40
-24.55
-7.80
6.97
18.73
27.29
33.02
36.51
38.34
39.03
39.09
38.97
39.02
39.36
39.91
40.42
40.60
40.28
39.42
38.17
36.75
35.39
34.25
33.28
32.26
30.82
28.55
25.18
20.74
15.55
10.15
5.04
0.52
-3.42
-7.10
-10.91
-15.19
-20.03
-25.30
-30.68
-35.87
-40.64
-45.00
-49.19
-53.72
-59.24
-66.29
-74.94
-84.45
-93.10
-98.61
-98.77
-92.31
-79.46
-61.93
-42.34
-23.35
-6.93
6.01
15.47
22.01
26.40
29.42
31.80
34.20
37.14
40.79
44.98
49.14
52.51
54.45
54.62
53.18
50.73
48.14
46.21
45.40
45.64
46.38
46.85
46.35
44.60
41.74
38.28
34.81
31.74
29.11
26.71
24.15
21.14
17.59
13.68
9.66
5.85
2.37
-0.86
-4.10
-7.68
-11.86
-16.68
-21.92
-27.24
-32.25
-36.75
-40.73
-44.46
-48.35
-52.90
-58.58
-65.68
-74.02
-82.74
-90.24
-94.42
-93.31
-85.80
-72.20
-54.22
-34.47
-15.61
0.44
12.80
21.53
27.27
30.76
32.77
34.01
35.17
36.83
39.29
42.37
45.47
47.86
48.98
48.74
47.51
45.94
44.62
43.84
43.53
43.33
42.85
41.78
40.03
37.68
34.90
31.85
28.62
25.24
21.69
17.97
14.17
10.48
7.08
4.09
1.45
-1.07
-3.84
-7.18
-11.18
-15.76
-20.57
-25.26
-29.58
-33.44
-36.98
-40.52
-44.48
-49.39
-55.66
-63.35
-71.82
-79.57
-84.46
-84.32
-77.79
-64.93
-47.39
-27.85
-9.15
6.60
18.45
26.47
31.33
33.84
34.73
34.68
34.37
34.48
35.43
37.28
39.64
41.88
43.37
43.78
43.12
41.65
39.78
37.87
36.20
34.90
33.93
33.11
32.10
30.51
28.09
24.79
20.85
16.72
12.87
9.60
6.93
4.59
2.18
-0.66
-4.11
-8.07
-12.27
-16.37
-20.11
-23.41
-26.37
-29.26
-32.44
-36.36
-41.42
-47.77
-55.05
-62.16
-67.34
-68.63
-64.59
-54.91
-40.70
-24.11
-7.71
6.39
17.02
23.96
27.66
28.88
28.37
26.87
24.98
23.29
22.19
21.84
22.13
22.78
23.45
23.87
23.88
23.43
22.51
21.16
19.47
17.52
15.37
13.02
10.43
7.53
4.28
0.72
-3.09
-7.02
-10.93
-14.69
-18.23
-21.49
-24.49
-27.29
-30.03
-32.92
-36.26
-40.42
-45.70
-52.08
-58.95
-65.01
-68.46
-67.59
-61.39
-50.06
-35.02
-18.50
-2.76
10.47
20.36
26.88
30.53
32.04
32.23
31.89
31.72
32.19
33.34
34.82
36.05
36.49
35.93
34.55
32.83
31.28
30.19
29.51
28.93
28.07
26.59
24.31
21.23
17.47
13.18
8.55
3.76
-1.03
-5.73
-10.30
-14.79
-19.21
-23.59
-27.90
-32.08
-36.13
-40.16
-44.38
-49.20
-55.08
-62.42
-71.22
-80.76
-89.49
-95.24
-95.87
-90.04
-77.88
-60.96
-41.90
-23.40
-7.53
4.79
13.62
19.66
23.82
26.93
29.73
32.82
36.60
41.17
46.19
50.99
54.74
56.79
56.90
55.37
52.91
50.40
48.54
47.68
47.74
48.32
48.90
48.99
48.29
46.67
44.18
40.95
37.26
33.40
29.69
26.34
23.43
20.79
18.13
15.12
11.58
7.58
3.41
-0.55
-4.04
-7.08
-9.97
-13.17
-17.09
-21.88
-27.34
-33.03
-38.42
-43.15
-47.20
-50.90
-54.77
-59.45
-65.49
-73.14
-82.12
-91.35
-98.96
-102.60
-100.20
-90.73
-74.79
-54.49
-32.87
-12.80
3.71
15.97
24.27
29.53
32.74
34.83
36.58
38.67
41.54
45.21
49.30
53.07
55.80
57.04
56.79
55.47
53.71
52.08
50.91
50.19
49.67
48.94
47.68
45.69
43.05
39.99
36.82
33.72
30.73
27.75
24.57
21.09
17.32
13.46
9.77
6.44
3.50
0.75
-2.18
-5.63
-9.79
-14.59
-19.73
-24.79
-29.44
-33.54
-37.17
-40.62
-44.32
-48.78
-54.43
-61.45
-69.41
-77.05
-82.43
-83.41
-78.41
-67.10
-50.66
-31.42
-12.14
4.81
18.04
27.18
32.68
35.36
36.15
35.93
35.46
35.33
35.82
36.93
38.30
39.49
40.07
39.84
38.86
37.40
35.76
34.15
32.60
30.99
29.14
26.88
24.22
21.27
18.21
15.19
12.24
9.28
6.12
2.59
-1.38
-5.72
-10.26
-14.73
-18.89
-22.59
-25.84
-28.87
-32.14
-36.26
-41.77
-48.79
-56.69
-64.05
-68.88
-69.26
-64.05
-53.42
-38.85
-22.69
-7.36
5.32
14.54
20.42
23.67
25.18
25.70
25.76
25.71
25.71
25.87
26.25
26.83
27.60
28.43
29.10
29.36
28.95
27.77
25.96
23.80
21.63
19.63
17.64
15.31
12.20
8.06
2.94
-2.81
-8.68
-14.21
-19.16
-23.53
-27.54
-31.56
-36.04
-41.43
-48.07
-55.97
-64.52
-72.38
-77.73
-78.72
-74.20
-64.24
-50.18
-34.21
-18.64
-5.17
5.41
13.20
18.73
22.67
25.57
27.95
30.30
33.07
36.49
40.36
44.09
46.87
48.04
47.39
45.23
42.27
39.33
37.01
35.57
34.87
34.53
34.02
32.89
30.83
27.76
23.89
19.59
15.29
11.27
7.54
3.87
-0.09
-4.57
-9.57
-14.81
-19.88
-24.38
-28.18
-31.45
-34.59
-38.17
-42.78
-48.93
-56.82
-66.13
-75.72
-83.71
-87.85
-86.23
-78.03
-64.02
-46.33
-27.77
-10.89
2.74
12.73
19.64
24.37
27.83
30.67
33.41
36.45
39.99
43.96
47.95
51.30
53.37
53.86
52.89
51.01
48.94
47.33
46.48
46.32
46.52
46.57
46.04
44.66
42.40
39.48
36.22
32.97
29.99
27.36
24.95
22.55
19.86
16.71
13.10
9.24
5.46
2.06
-0.85
-3.44
-6.10
-9.24
-13.16
-17.81
-22.91
-28.01
-32.70
-36.75
-40.21
-43.32
-46.51
-50.37
-55.47
-62.18
-70.26
-78.60
-85.22
-87.77
-84.30
-74.14
-58.27
-39.10
-19.62
-2.44
10.92
20.19
25.97
29.23
30.89
31.69
32.24
33.09
34.62
36.91
39.64
42.19
43.94
44.51
43.96
42.62
40.99
39.40
38.03
36.84
35.69
34.48
33.10
31.47
29.50
27.11
24.26
21.01
17.57
14.20
11.21
8.75
6.72
4.84
2.67
-0.13
-3.69
-7.86
-12.24
-16.40
-20.06
-23.17
-25.95
-28.75
-31.98
-36.02
-41.17
-47.42
-54.27
-60.57
-64.62
-64.73
-59.79
-49.83
-36.14
-20.82
-6.15
6.20
15.42
21.57
25.18
26.90
27.28
26.76
25.73
24.51
23.43
22.66
22.29
22.27
22.44
22.60
22.50
21.89
20.63
18.74
16.42
13.97
11.68
9.62
7.67
5.47
2.65
-0.98
-5.35
-10.10
-14.72
-18.72
-21.89
-24.27
-26.18
-28.12
-30.61
-34.13
-38.99
-45.18
-52.14
-58.70
-63.19
-63.95
-59.82
-50.74
-37.80
-22.98
-8.48
3.91
13.26
19.52
23.29
25.41
26.72
27.84
29.16
30.81
32.64
34.28
35.32
35.39
34.44
32.74
30.76
28.99
27.72
26.93
26.32
25.53
24.26
22.37
19.88
16.86
13.39
9.54
5.41
1.06
-3.43
-8.04
-12.78
-17.61
-22.44
-27.07
-31.33
-35.16
-38.72
-42.41
-46.81
-52.45
-59.64
-68.13
-76.95
-84.43
-88.48
-87.29
-79.96
-67.00
-50.26
-32.36
-15.83
-2.42
7.28
13.67
17.74
20.62
23.26
26.37
30.37
35.30
40.82
46.23
50.63
53.26
53.78
52.42
49.89
47.13
44.97
43.86
43.81
44.47
45.30
45.80
45.60
44.54
42.58
39.78
36.29
32.38
28.40
24.74
21.66
19.19
17.08
14.92
12.31
9.12
5.51
1.85
-1.46
-4.26
-6.71
-9.26
-12.39
-16.42
-21.37
-26.92
-32.59
-37.92
-42.60
-46.61
-50.13
-53.55
-57.38
-62.20
-68.46
-76.19
-84.60
-91.99
-95.98
-94.28
-85.60
-70.27
-50.35
-28.97
-9.23
6.69
18.00
25.09
29.04
31.01
32.03
32.92
34.37
36.84
40.45
44.78
49.01
52.23
53.77
53.50
51.82
49.45
47.10
45.17
43.74
42.62
41.52
40.20
38.53
36.52
34.26
31.89
29.50
27.11
24.64
21.93
18.88
15.50
11.98
8.60
5.62
3.12
1.00
-1.07
-3.47
-6.46
-10.08
-14.12
-18.27
-22.21
-25.78
-29.05
-32.31
-35.96
-40.41
-45.94
-52.51
-59.48
-65.60
-69.15
-68.41
-62.33
-51.03
-35.91
-19.26
-3.55
9.38
18.65
24.36
27.22
28.10
27.75
26.75
25.51
24.37
23.57
23.22
23.31
23.67
24.07
24.25
23.96
23.05
21.51
19.48
17.23
15.04
13.07
11.27
9.37
6.99
3.84
-0.15
-4.75
-9.55
-14.02
-17.81
-20.80
-23.19
-25.42
-28.04
-31.57
-36.36
-42.43
-49.34
-56.07
-61.16
-63.00
-60.36
-52.84
-41.15
-26.96
-12.36
0.77
11.26
18.85
23.95
27.26
29.45
30.97
32.08
32.98
33.76
34.44
34.90
34.95
34.45
33.42
32.08
30.72
29.56
28.55
27.50
26.12
24.21
21.76
18.90
15.75
12.38
8.71
4.63
0.06
-4.97
-10.28
-15.63
-20.76
-25.46
-29.65
-33.43
-37.06
-40.97
-45.70
-51.74
-59.28
-67.97
-76.67
-83.56
-86.57
-84.06
-75.48
-61.72
-44.84
-27.45
-11.86
0.54
9.44
15.39
19.34
22.28
24.99
28.08
31.89
36.47
41.52
46.36
50.20
52.31
52.43
50.78
48.06
45.16
42.86
41.60
41.42
42.01
42.87
43.44
43.30
42.18
40.07
37.15
33.76
30.23
26.79
23.51
20.27
16.89
13.25
9.39
5.49
1.82
-1.51
-4.58
-7.67
-11.12
-15.15
-19.72
-24.58
-29.38
-33.81
-37.77
-41.37
-44.85
-48.59
-53.06
-58.70
-65.78
-74.00
-82.28
-88.69
-90.98
-87.32
-77.10
-61.29
-42.23
-22.82
-5.57
8.01
17.59
23.70
27.27
29.25
30.51
31.82
33.84
36.91
40.92
45.31
49.16
51.65
52.35
51.40
49.42
47.22
45.43
44.32
43.72
43.28
42.65
41.58
40.03
38.03
35.62
32.83
29.67
26.18
22.49
18.78
15.22
11.95
9.01
6.41
4.07
1.91
-0.25
-2.59
-5.32
-8.51
-12.04
-15.66
-19.08
-22.09
-24.71
-27.19
-29.90
-33.24
-37.57
-43.04
-49.44
-55.99
-61.33
-63.76
-61.71
-54.44
-42.40
-27.31
-11.59
2.38
13.00
19.76
23.12
24.10
23.81
23.14
22.65
22.61
23.05
23.81
24.64
25.30
25.61
25.54
25.16
24.56
23.77
22.77
21.52
19.99
18.26
16.43
14.64
12.89
11.05
8.91
6.24
2.98
-0.72
-4.52
-8.02
-10.96
-13.34
-15.39
-17.49
-19.97
-23.08
-26.94
-31.64
-37.20
-43.33
-49.33
-53.96
-55.71
-53.38
-46.57
-36.02
-23.39
-10.69
0.37
8.89
14.81
18.65
21.11
22.79
24.04
24.98
25.66
26.07
26.25
26.24
26.11
25.92
25.68
25.32
24.71
23.72
22.30
20.58
18.75
17.02
15.39
13.63
11.38
8.27
4.19
-0.71
-5.99
-11.10
-15.62
-19.39
-22.53
-25.40
-28.47
-32.20
-36.98
-42.93
-49.80
-56.80
-62.64
-65.76
-64.84
-59.32
-49.64
-37.25
-24.07
-11.99
-2.20
4.88
9.61
12.73
15.06
17.33
20.02
23.39
27.41
31.74
35.79
38.83
40.29
39.95
38.10
35.44
32.83
30.98
30.21
30.39
31.04
31.62
31.72
31.15
29.91
28.05
25.57
22.48
18.81
14.76
10.72
7.09
4.17
1.96
0.13
-1.85
-4.46
-7.93
-12.16
-16.76
-21.24
-25.20
-28.51
-31.35
-34.11
-37.31
-41.44
-46.85
-53.54
-60.99
-68.07
-73.07
-74.20
-70.17
-60.77
-47.13
-31.41
-16.12
-3.31
5.98
11.80
14.98
16.64
17.79
19.19
21.30
24.32
28.18
32.47
36.51
39.54
40.98
40.69
39.01
36.66
34.46
33.06
32.74
33.37
34.51
35.59
36.11
35.74
34.39
32.15
29.28
26.11
22.98
20.15
17.74
15.69
13.79
11.82
9.64
7.27
4.88
2.71
0.93
-0.48
-1.73
-3.15
-5.09
-7.78
-11.19
-15.05
-18.95
-22.42
-25.20
-27.26
-28.89
-30.64
-33.11
-36.87
-42.15
-48.64
-55.37
-60.76
-63.00
-60.64
-53.16
-41.29
-26.86
-12.21
0.54
10.07
16.02
18.87
19.52
18.91
17.89
17.06
16.80
17.26
18.34
19.74
21.06
21.98
22.31
22.08
21.44
20.59
19.70
18.83
17.95
17.00
15.83
14.38
12.62
10.62
8.49
6.29
4.01
1.59
-1.09
-4.05
-7.21
-10.39
-13.36
-15.97
-18.15
-20.03
-21.87
-24.08
-27.14
-31.38
-36.75
-42.59
-47.60
-50.22
-49.05
-43.51
-34.10
-22.29
-10.00
1.04
9.76
15.89
19.75
21.95
23.08
23.58
23.81
24.00
24.34
24.86
25.43
25.83
25.87
25.45
24.62
23.47
22.11
20.58
18.90
17.12
15.33
13.63
12.06
10.51
8.73
6.38
3.18
-0.90
-5.62
-10.51
-15.02
-18.79
-21.71
-24.07
-26.36
-29.15
-32.96
-38.07
-44.49
-51.71
-58.76
-64.18
-66.41
-64.29
-57.52
-46.91
-34.18
-21.39
-10.28
-1.83
3.87
7.41
9.66
11.44
13.45
16.17
19.86
24.46
29.60
34.53
38.42
40.55
40.66
39.04
36.45
33.83
32.01
31.39
31.94
33.19
34.54
35.45
35.55
34.76
33.19
31.08
28.66
26.14
23.61
21.05
18.39
15.53
12.48
9.31
6.20
3.35
0.87
-1.27
-3.29
-5.52
-8.28
-11.74
-15.91
-20.54
-25.30
-29.83
-33.86
-37.31
-40.38
-43.53
-47.38
-52.52
-59.10
-66.53
-73.40
-77.75
-77.71
-72.16
-61.29
-46.50
-30.07
-14.33
-1.12
8.63
14.87
18.21
19.59
20.07
20.65
22.08
24.78
28.67
33.22
37.60
40.95
42.70
42.73
41.41
39.40
37.45
36.16
35.74
36.12
36.92
37.65
37.87
37.29
35.84
33.65
30.99
28.17
25.46
23.02
20.87
18.93
17.05
15.07
12.88
10.49
7.98
5.52
3.29
1.40
-0.16
-1.59
-3.17
-5.22
-7.94
-11.31
-15.08
-18.86
-22.24
-24.99
-27.13
-28.98
-31.11
-34.11
-38.47
-44.18
-50.59
-56.34
-59.70
-59.07
-53.60
-43.61
-30.51
-16.39
-3.34
7.18
14.52
18.81
20.64
20.73
19.81
18.53
17.46
16.99
17.25
18.07
19.07
19.87
20.19
19.97
19.32
18.37
17.21
15.85
14.30
12.60
10.87
9.20
7.65
6.15
4.53
2.62
0.29
-2.47
-5.55
-8.73
-11.79
-14.54
-16.93
-19.01
-21.00
-23.16
-25.82
-29.32
-33.88
-39.51
-45.79
-51.76
-56.00
-57.00
-53.64
-45.74
-34.24
-20.92
-7.90
3.12
11.28
16.62
19.84
21.87
23.53
25.31
27.40
29.72
31.98
33.85
35.06
35.48
35.17
34.31
33.11
31.73
30.21
28.58
26.91
25.26
23.72
22.25
20.66
18.65
15.96
12.45
8.20
3.50
-1.32
-5.92
-10.11
-13.84
-17.18
-20.31
-23.39
-26.66
-30.35
-34.76
-40.12
-46.39
-53.05
-59.05
-62.95
-63.42
-59.72
-52.07
-41.57
-29.75
-18.04
-7.28
2.32
10.90
18.64
25.58
31.66
36.93
41.63
46.07
50.38
54.29
57.20
58.39
57.42
54.36
49.79
44.62
39.79
35.95
33.48
32.47
32.77
34.05
35.77
37.17
37.48
36.11
32.91
28.22
22.71
16.99
11.33
5.52
-0.86
-8.14
-16.24
-24.59
-32.37
-38.87
-43.76
-47.15
-49.49
-51.33
-53.19
-55.54
-58.66
-62.55
-66.73
-70.15
-71.35
-69.03
-62.55
-52.38
-39.99
-27.35
-16.17
-7.41
-1.15
3.15
6.20
8.57
10.69
12.87
15.43
18.60
22.38
26.38
29.95
32.38
33.21
32.44
30.57
28.31
26.40
25.32
25.20
25.83
26.79
27.60
27.84
27.27
25.84
23.71
21.16
18.50
15.98
13.74
11.72
9.72
7.48
4.81
1.65
-1.87
-5.48
-8.84
-11.69
-13.96
-15.81
-17.64
-20.03
-23.53
-28.49
-34.70
-41.32
-46.90
-49.74
-48.51
-42.74
-33.13
-21.36
-9.48
0.69
8.16
12.83
15.30
16.41
16.89
17.15
17.40
17.68
18.04
18.49
18.98
19.40
19.59
19.39
18.73
17.68
16.37
15.04
13.88
13.04
12.52
12.16
11.68
10.67
8.80
5.87
1.96
-2.56
-7.17
-11.32
-14.65
-17.03
-18.67
-19.95
-21.39
-23.51
-26.73
-31.15
-36.46
-41.84
-46.02
-47.63
-45.61
-39.73
-30.67
-19.87
-9.05
0.31
7.38
12.06
14.81
16.37
17.46
18.62
20.10
21.91
23.84
25.55
26.69
27.05
26.60
25.50
24.07
22.59
21.27
20.16
19.25
18.45
17.73
17.01
16.17
15.04
13.34
10.87
7.57
3.60
-0.66
-4.76
-8.34
-11.29
-13.71
-15.95
-18.38
-21.34
-25.13
-29.91
-35.69
-42.08
-48.24
-52.87
-54.55
-52.26
-45.82
-36.12
-24.83
-13.86
-4.68
2.02
6.42
9.25
11.43
13.74
16.65
20.34
24.69
29.36
33.79
37.35
39.51
40.00
38.96
36.91
34.56
32.61
31.52
31.42
32.12
33.20
34.22
34.75
34.55
33.57
31.89
29.75
27.42
25.21
23.31
21.80
20.65
19.68
18.75
17.69
16.40
14.86
13.14
11.34
9.60
7.99
6.48
4.93
3.14
0.98
-1.56
-4.29
-6.93
-9.25
-11.13
-12.75
-14.41
-16.46
-19.12
-22.36
-25.91
-29.36
-32.36
-34.74
-36.56
-38.12
-39.83
-42.20
-45.62
-50.34
-56.16
-62.34
-67.49
-69.86
-67.92
-60.92
-49.36
-34.90
-19.85
-6.45
3.83
10.53
14.08
15.38
15.47
15.26
15.51
16.70
18.98
22.06
25.28
27.82
29.04
28.74
27.25
25.20
23.27
21.89
21.17
20.97
21.07
21.28
21.47
21.49
21.15
20.26
18.65
16.35
13.54
10.56
7.77
5.43
3.64
2.24
0.96
-0.55
-2.54
-5.10
-8.09
-11.21
-14.17
-16.76
-18.98
-20.98
-23.04
-25.50
-28.63
-32.60
-37.39
-42.62
-47.55
-51.10
-52.07
-49.58
-43.41
-34.22
-23.40
-12.63
-3.34
3.68
8.38
11.27
13.09
14.51
15.97
17.66
19.54
21.41
22.99
23.99
24.26
23.83
22.90
21.76
20.69
19.87
19.37
19.17
19.18
19.23
19.04
18.30
16.74
14.31
11.22
7.85
4.64
1.87
-0.45
-2.52
-4.66
-7.15
-10.08
-13.37
-16.81
-20.16
-23.27
-26.19
-29.18
-32.75
-37.38
-43.31
-50.22
-57.11
-62.43
-64.49
-62.12
-55.13
-44.48
-31.96
-19.62
-9.05
-1.06
4.44
8.10
10.74
13.07
15.61
18.66
22.38
26.70
31.30
35.61
38.90
40.56
40.37
38.63
36.05
33.54
31.85
31.32
31.84
32.97
34.17
35.00
35.18
34.64
33.37
31.47
29.07
26.33
23.49
20.76
18.22
15.85
13.48
10.95
8.22
5.40
2.70
0.28
-1.90
-4.12
-6.75
-10.08
-14.19
-18.80
-23.48
-27.77
-31.38
-34.34
-36.98
-39.80
-43.40
-48.28
-54.54
-61.75
-68.76
-73.90
-75.42
-72.04
-63.53
-50.83
-35.78
-20.57
-7.07
3.61
11.21
16.12
19.13
21.09
22.79
24.83
27.58
31.13
35.24
39.37
42.87
45.10
45.66
44.58
42.28
39.52
37.14
35.69
35.32
35.70
36.25
36.35
35.65
34.10
31.92
29.42
26.86
24.35
21.88
19.39
16.81
14.16
11.50
8.94
6.54
4.31
2.16
-0.09
-2.59
-5.48
-8.76
-12.37
-16.14
-19.89
-23.44
-26.64
-29.45
-32.00
-34.67
-37.97
-42.41
-48.15
-54.69
-60.79
-64.70
-64.67
-59.74
-50.07
-37.02
-22.69
-9.15
2.10
10.43
15.94
19.15
20.68
21.12
21.03
20.90
21.09
21.74
22.67
23.49
23.82
23.44
22.43
21.07
19.73
18.73
18.18
18.02
17.98
17.70
16.84
15.22
12.86
10.04
7.14
4.50
2.26
0.28
-1.74
-4.14
-7.12
-10.64
-14.44
-18.19
-21.58
-24.50
-27.09
-29.73
-32.98
-37.43
-43.36
-50.45
-57.62
-63.17
-65.21
-62.39
-54.41
-42.24
-27.83
-13.41
-0.83
8.91
15.72
20.14
22.96
24.99
26.88
29.17
32.10
35.64
39.37
42.63
44.74
45.30
44.36
42.43
40.23
38.40
37.29
36.87
36.82
36.79
36.49
35.80
34.65
33.00
30.76
27.89
24.38
20.40
16.26
12.30
8.75
5.66
2.87
0.13
-2.85
-6.28
-10.27
-14.81
-19.78
-24.97
-30.10
-34.91
-39.25
-43.21
-47.12
-51.54
-57.06
-64.00
-72.08
-80.26
-86.81
-89.82
-87.81
-80.34
-68.32
-53.67
-38.76
-25.55
-15.13
-7.60
-2.45
1.02
3.36
4.91
5.97
6.99
8.55
11.11
14.77
18.97
22.59
24.35
23.32
19.46
13.79
8.14
4.56
4.69
9.21
17.74
28.97
41.17
52.62
62.01
68.72
72.77
74.77
75.89
77.59
81.23
87.42
95.44
103.14
107.65
106.75
100.11
89.88
79.99
74.50
75.72
83.21
94.14
104.70
111.90
114.62
113.69
110.88
107.68
104.38
100.13
93.66
84.47
73.60
63.60
57.41
57.00
62.43
71.88
82.64
92.16
98.54
100.30
95.87
83.44
61.71
30.92
-6.54
-46.47
-84.30
-116.62
-141.88
-160.21
-172.52
-179.58
-181.86
-179.82
-174.37
-167.00
-159.33
-152.56
-147.07
-142.37
-137.52
-131.57
-123.96
-114.74
-104.53
-94.37
-85.48
-78.99
-75.79
-76.30
-80.39
-87.27
-95.62
-103.84
-110.43
-114.46
-115.75
-114.78
-112.36
-109.19
-105.48
-100.97
-95.14
-87.66
-78.55
-68.32
-57.69
-47.35
-37.78
-29.24
-21.82
-15.62
-10.78
-7.36
-5.27
-4.12
-3.15
-1.40
2.06
7.81
15.79
25.31
35.18
44.15
51.27
56.24
59.28
60.90
61.44
60.83
58.67
54.51
48.34
40.74
32.70
25.24
18.90
13.63
8.89
4.10
-1.17
-7.04
-13.41
-19.98
-26.25
-31.31
-33.95
-32.92
-27.46
-17.77
-5.17
8.29
20.51
30.00
36.30
39.83
41.55
42.50
43.47
44.90
46.93
49.35
51.78
53.65
54.46
53.84
51.78
48.59
44.86
41.24
38.25
36.16
34.95
34.39
34.09
33.66
32.69
30.85
27.86
23.69
18.54
12.87
7.28
2.27
-1.92
-5.46
-8.92
-13.02
-18.43
-25.43
-33.71
-42.22
-49.41
-53.54
-53.28
-48.22
-39.05
-27.39
-15.18
-4.08
4.95
11.77
16.81
20.72
24.11
27.49
31.22
35.47
40.22
45.09
49.45
52.62
54.07
53.72
51.94
49.40
46.82
44.71
43.30
42.49
42.00
41.48
40.63
39.27
37.30
34.73
31.62
28.07
24.20
20.15
16.14
12.38
9.10
6.36
4.01
1.68
-1.13
-4.94
-10.07
-16.54
-23.91
-31.27
-37.41
-40.98
-40.97
-37.06
-29.83
-20.61
-11.13
-2.88
3.31
7.45
10.18
12.34
14.66
17.45
20.69
24.04
27.06
29.30
30.42
30.25
28.89
26.69
24.09
21.56
19.38
17.58
15.97
14.27
12.12
9.20
5.23
-0.02
-6.57
-14.15
-22.06
-29.30
-34.81
-37.85
-38.27
-36.58
-33.78
-30.99
-29.16
-28.78
-29.79
-31.64
-33.43
-34.13
-32.78
-28.76
-21.92
-12.70
-1.97
9.09
19.27
27.53
33.18
35.97
36.18
34.52
31.94
29.42
27.61
26.72
26.54
26.56
26.29
25.45
23.97
22.00
19.72
17.28
14.76
12.17
9.49
6.72
3.89
1.07
-1.63
-4.07
-6.06
-7.42
-8.05
-8.02
-7.57
-7.24
-7.60
-9.16
-11.97
-15.46
-18.42
-19.24
-16.39
-8.97
2.94
18.22
34.96
50.97
64.37
73.94
79.22
80.40
78.15
73.45
67.53
61.64
56.74
53.14
50.48
47.92
44.59
40.03
34.26
27.58
20.21
12.09
3.08
-6.81
-17.12
-27.10
-36.00
-43.52
-49.79
-55.18
-59.93
-64.01
-67.30
-69.91
-72.38
-75.53
-79.94
-85.45
-90.91
-94.46
-94.21
-89.05
-79.17
-66.02
-51.84
-38.82
-28.45
-21.18
-16.44
-13.15
-10.15
-6.67
-2.57
1.68
5.20
7.08
6.73
4.19
0.06
-4.72
-9.20
-12.77
-15.19
-16.59
-17.20
-17.32
-17.23
-17.28
-17.89
-19.49
-22.37
-26.54
-31.69
-37.23
-42.44
-46.66
-49.54
-51.03
-51.41
-51.18
-50.87
-50.89
-51.48
-52.67
-54.36
-56.28
-57.91
-58.55
-57.32
-53.49
-46.79
-37.60
-26.97
-16.32
-6.95
0.36
5.54
9.09
11.75
14.19
16.77
19.49
22.20
24.64
26.68
28.25
29.33
29.88
29.82
29.10
27.78
26.13
24.58
23.65
23.73
24.91
26.85
28.92
30.34
30.45
28.97
26.02
22.15
18.09
14.53
11.88
10.16
9.02
7.84
5.99
2.97
-1.30
-6.46
-11.60
-15.54
-17.17
-15.89
-11.87
-6.05
0.23
5.68
9.50
11.57
12.27
12.26
12.06
11.97
12.00
11.96
11.56
10.59
8.96
6.91
4.91
3.66
3.79
5.62
8.99
13.28
17.65
21.26
23.57
24.38
23.82
22.18
19.79
16.95
13.99
11.19
8.80
6.87
5.15
3.06
-0.12
-4.94
-11.40
-18.66
-25.19
-29.23
-29.51
-25.79
-19.03
-11.02
-3.64
1.82
5.06
6.59
7.33
8.07
9.20
10.74
12.50
14.28
15.90
17.20
17.98
18.05
17.29
15.75
13.68
11.43
9.41
7.91
7.10
6.96
7.24
7.55
7.37
6.28
4.05
0.79
-3.11
-7.07
-10.54
-13.19
-15.03
-16.40
-17.85
-19.99
-23.26
-27.81
-33.29
-38.86
-43.28
-45.19
-43.59
-38.18
-29.64
-19.43
-9.34
-0.89
5.15
8.88
11.01
12.47
14.02
16.05
18.66
21.66
24.77
27.59
29.67
30.64
30.31
28.87
26.82
24.87
23.62
23.42
24.16
25.37
26.44
26.87
26.39
25.05
23.13
21.00
18.93
17.00
15.19
13.39
11.53
9.65
7.81
6.11
4.59
3.19
1.82
0.34
-1.37
-3.40
-5.80
-8.56
-11.60
-14.78
-17.90
-20.79
-23.39
-25.82
-28.44
-31.70
-35.99
-41.33
-47.12
-52.09
-54.66
-53.43
-47.82
-38.30
-26.39
-14.05
-3.09
5.39
11.12
14.49
16.19
16.99
17.54
18.32
19.67
21.67
24.04
26.29
27.81
28.15
27.27
25.48
23.34
21.41
20.06
19.37
19.18
19.17
18.97
18.29
16.96
15.05
12.75
10.34
8.01
5.80
3.58
1.18
-1.47
-4.30
-7.13
-9.73
-12.01
-14.05
-16.08
-18.44
-21.46
-25.42
-30.37
-36.09
-41.90
-46.72
-49.29
-48.51
-43.95
-36.02
-25.96
-15.44
-6.04
1.24
6.13
9.05
10.76
11.96
13.15
14.46
15.78
16.91
17.69
18.09
18.23
18.24
18.20
18.06
17.71
17.00
15.96
14.74
13.58
12.61
11.75
10.69
9.04
6.50
3.08
-0.89
-4.87
-8.34
-11.00
-12.90
-14.43
-16.18
-18.76
-22.64
-28.04
-34.76
-42.17
-49.12
-54.16
-55.93
-53.53
-46.98
-37.21
-25.80
-14.47
-4.52
3.40
9.28
13.57
16.82
19.58
22.29
25.27
28.63
32.26
35.79
38.70
40.53
41.04
40.33
38.83
37.07
35.59
34.71
34.54
34.87
35.35
35.53
35.08
33.85
31.90
29.43
26.66
23.74
20.72
17.60
14.40
11.22
8.24
5.64
3.47
1.62
-0.21
-2.40
-5.25
-8.88
-13.15
-17.68
-22.07
-25.95
-29.19
-31.89
-34.37
-37.17
-40.84
-45.87
-52.37
-59.85
-67.08
-72.32
-73.78
-70.22
-61.55
-48.84
-34.09
-19.47
-6.75
3.18
10.27
15.07
18.38
21.00
23.61
26.69
30.49
34.94
39.56
43.66
46.52
47.69
47.16
45.36
43.03
40.89
39.50
39.02
39.33
40.02
40.61
40.61
39.74
37.94
35.39
32.49
29.66
27.18
25.10
23.20
21.14
18.62
15.57
12.17
8.74
5.62
2.93
0.57
-1.77
-4.40
-7.52
-11.11
-14.94
-18.72
-22.21
-25.31
-28.12
-30.85
-33.81
-37.32
-41.70
-47.12
-53.38
-59.70
-64.76
-66.90
-64.75
-57.78
-46.63
-32.98
-19.01
-6.66
2.91
9.44
13.37
15.49
16.54
17.16
17.76
18.58
19.69
20.97
22.15
22.93
23.08
22.50
21.22
19.37
17.14
14.78
12.56
10.73
9.39
8.48
7.68
6.57
4.76
2.07
-1.39
-5.28
-9.13
-12.54
-15.29
-17.39
-19.08
-20.75
-22.91
-26.06
-30.50
-36.21
-42.60
-48.50
-52.40
-52.87
-49.09
-41.24
-30.45
-18.50
-7.15
2.36
9.59
14.81
18.68
21.88
24.92
28.03
31.24
34.38
37.22
39.43
40.78
41.13
40.59
39.43
38.00
36.68
35.71
35.20
35.12
35.27
35.34
34.99
33.93
32.05
29.46
26.44
23.33
20.35
17.61
15.05
12.51
9.89
7.11
4.20
1.20
-1.85
-4.96
-8.17
-11.54
-15.14
-18.96
-22.93
-26.95
-30.90
-34.69
-38.32
-41.91
-45.71
-50.09
-55.40
-61.69
-68.45
-74.52
-78.23
-77.99
-72.85
-62.95
-49.61
-34.81
-20.62
-8.50
0.90
7.71
12.54
16.11
19.15
22.26
25.93
30.38
35.51
40.80
45.43
48.59
49.77
49.02
46.91
44.33
42.15
40.91
40.69
41.17
41.84
42.23
42.02
41.13
39.61
37.58
35.15
32.41
29.45
26.39
23.41
20.71
18.38
16.45
14.80
13.23
11.54
9.57
7.27
4.66
1.82
-1.16
-4.17
-7.16
-10.07
-12.94
-15.90
-19.08
-22.59
-26.37
-30.25
-33.95
-37.27
-40.16
-42.80
-45.52
-48.70
-52.74
-57.89
-64.07
-70.73
-76.68
-80.30
-79.91
-74.45
-63.93
-49.56
-33.43
-17.78
-4.38
5.90
13.05
17.64
20.51
22.48
24.30
26.55
29.55
33.27
37.32
41.04
43.75
45.00
44.76
43.40
41.52
39.73
38.44
37.77
37.61
37.63
37.47
36.81
35.46
33.39
30.76
27.81
24.87
22.19
19.92
18.04
16.39
14.74
12.84
10.54
7.79
4.69
1.48
-1.59
-4.30
-6.60
-8.67
-10.81
-13.34
-16.44
-20.07
-23.98
-27.78
-31.19
-34.08
-36.57
-39.01
-41.88
-45.69
-50.72
-56.83
-63.23
-68.52
-70.96
-69.10
-62.28
-51.01
-36.90
-22.10
-8.60
2.26
10.07
15.16
18.20
19.92
20.91
21.65
22.47
23.62
25.12
26.76
28.20
29.05
29.11
28.42
27.18
25.67
24.15
22.76
21.57
20.62
19.89
19.30
18.65
17.64
15.96
13.50
10.39
7.07
4.06
1.73
0.11
-1.17
-2.71
-5.08
-8.50
-12.75
-17.30
-21.55
-25.13
-27.99
-30.43
-32.90
-35.86
-39.68
-44.57
-50.47
-56.94
-63.02
-67.33
-68.36
-64.98
-56.90
-44.96
-30.84
-16.61
-4.01
5.92
13.04
17.83
21.09
23.60
26.00
28.73
31.95
35.58
39.26
42.44
44.56
45.28
44.59
42.85
40.63
38.48
36.79
35.67
35.01
34.60
34.14
33.39
32.22
30.56
28.47
26.04
23.35
20.43
17.30
13.97
10.56
7.20
4.07
1.21
-1.49
-4.26
-7.39
-11.07
-15.31
-19.93
-24.64
-29.17
-33.33
-37.07
-40.52
-43.97
-47.82
-52.56
-58.54
-65.68
-73.22
-79.72
-83.29
-82.26
-75.78
-64.23
-49.17
-32.81
-17.29
-4.10
6.14
13.50
18.50
21.77
24.04
26.10
28.72
32.41
37.22
42.55
47.40
50.70
51.82
50.77
48.22
45.17
42.57
40.96
40.44
40.67
41.13
41.28
40.77
39.42
37.27
34.56
31.59
28.64
25.85
23.22
20.62
17.89
14.93
11.73
8.36
4.98
1.71
-1.35
-4.22
-7.02
-9.96
-13.27
-17.10
-21.45
-26.11
-30.74
-34.98
-38.66
-41.86
-44.99
-48.68
-53.54
-59.84
-67.19
-74.34
-79.41
-80.44
-76.06
-66.11
-51.75
-35.10
-18.50
-3.84
7.84
16.34
21.99
25.39
27.26
28.36
29.51
31.41
34.39
38.27
42.35
45.67
47.44
47.37
45.74
43.31
40.87
39.04
37.99
37.56
37.37
37.02
36.28
35.05
33.36
31.26
28.78
25.94
22.73
19.18
15.40
11.59
7.98
4.78
2.05
-0.35
-2.75
-5.50
-8.82
-12.69
-16.83
-20.83
-24.37
-27.35
-29.95
-32.54
-35.57
-39.41
-44.36
-50.44
-57.33
-64.18
-69.60
-71.95
-69.85
-62.73
-51.18
-36.85
-21.89
-8.28
2.73
10.77
16.17
19.56
21.56
22.70
23.39
23.99
24.77
25.84
27.14
28.46
29.56
30.26
30.49
30.29
29.78
29.06
28.26
27.44
26.58
25.53
24.05
21.92
19.02
15.48
11.64
7.94
4.72
2.04
-0.34
-2.84
-5.85
-9.55
-13.77
-18.16
-22.33
-26.09
-29.56
-33.06
-37.09
-42.10
-48.34
-55.59
-63.08
-69.42
-72.92
-72.06
-66.06
-55.28
-41.19
-25.94
-11.61
0.34
9.37
15.72
20.03
23.09
25.56
28.04
30.96
34.60
38.88
43.32
47.16
49.61
50.15
48.81
46.14
43.03
40.38
38.76
38.27
38.57
39.05
39.12
38.38
36.73
34.33
31.47
28.46
25.52
22.78
20.26
17.87
15.45
12.84
9.95
6.79
3.49
0.24
-2.80
-5.64
-8.44
-11.46
-14.94
-18.95
-23.34
-27.83
-32.08
-35.89
-39.26
-42.46
-45.94
-50.23
-55.67
-62.17
-68.95
-74.60
-77.36
-75.73
-68.99
-57.60
-43.09
-27.57
-13.08
-1.00
8.14
14.56
18.88
21.80
23.97
25.93
28.17
31.01
34.45
38.15
41.45
43.63
44.22
43.19
40.97
38.27
35.81
34.04
33.12
32.87
32.95
32.98
32.60
31.61
29.98
27.82
25.34
22.76
20.18
17.58
14.90
12.06
9.13
6.25
3.55
1.10
-1.19
-3.50
-6.06
-9.00
-12.35
-16.01
-19.82
-23.57
-27.07
-30.22
-33.01
-35.64
-38.45
-41.92
-46.51
-52.45
-59.34
-66.11
-71.07
-72.42
-68.82
-60.04
-47.09
-31.95
-16.90
-3.80
6.35
13.48
18.09
20.92
22.64
23.81
24.90
26.32
28.31
30.81
33.47
35.72
37.07
37.31
36.56
35.24
33.76
32.44
31.37
30.50
29.72
28.95
28.13
27.19
26.01
24.45
22.37
19.73
16.62
13.27
9.94
6.92
4.33
2.14
0.16
-1.92
-4.41
-7.46
-11.03
-14.90
-18.72
-22.18
-25.13
-27.65
-30.05
-32.78
-36.33
-41.00
-46.75
-53.01
-58.64
-62.18
-62.22
-57.90
-49.31
-37.50
-24.19
-11.27
-0.25
8.03
13.44
16.37
17.49
17.54
17.21
17.05
17.37
18.25
19.49
20.75
21.67
22.06
21.92
21.42
20.80
20.25
19.84
19.50
19.05
18.25
16.94
15.03
12.60
9.86
7.05
4.35
1.83
-0.59
-3.07
-5.79
-8.83
-12.16
-15.65
-19.16
-22.59
-25.95
-29.39
-33.19
-37.73
-43.29
-49.91
-57.09
-63.68
-68.09
-68.67
-64.37
-55.24
-42.47
-28.10
-14.32
-2.76
5.86
11.73
15.59
18.31
20.58
22.89
25.53
28.70
32.37
36.28
39.85
42.42
43.47
42.89
41.04
38.61
36.32
34.68
33.79
33.47
33.35
33.08
32.40
31.18
29.33
26.85
23.75
20.16
16.31
12.49
9.00
5.99
3.43
1.08
-1.45
-4.49
-8.20
-12.49
-17.08
-21.62
-25.84
-29.62
-33.03
-36.29
-39.76
-43.85
-49.02
-55.48
-62.99
-70.64
-76.80
-79.60
-77.47
-69.83
-57.42
-42.06
-26.09
-11.58
0.21
8.98
15.09
19.25
22.17
24.49
26.78
29.55
33.06
37.23
41.58
45.36
47.84
48.66
47.91
46.12
43.98
42.12
40.84
40.14
39.79
39.46
38.90
37.91
36.42
34.37
31.72
28.44
24.63
20.47
16.29
12.45
9.19
6.55
4.30
2.05
-0.59
-3.86
-7.77
-12.09
-16.48
-20.63
-24.38
-27.78
-31.05
-34.58
-38.81
-44.09
-50.45
-57.41
-63.83
-68.09
-68.55
-64.14
-54.89
-41.99
-27.44
-13.38
-1.45
7.62
13.91
17.97
20.47
22.02
23.09
24.07
25.27
26.79
28.50
30.05
31.00
31.09
30.31
28.91
27.26
25.68
24.31
23.11
21.93
20.56
18.89
16.87
14.52
11.90
9.02
5.82
2.26
-1.64
-5.76
-9.82
-13.56
-16.80
-19.54
-22.01
-24.57
-27.63
-31.54
-36.49
-42.49
-49.12
-55.53
-60.40
-62.25
-59.95
-53.09
-42.35
-29.26
-15.77
-3.62
6.11
13.18
18.01
21.34
23.93
26.30
28.72
31.23
33.69
35.80
37.30
37.98
37.80
36.92
35.61
34.20
32.91
31.87
31.02
30.21
29.19
27.71
25.60
22.82
19.45
15.68
11.74
7.78
3.86
-0.04
-3.99
-8.03
-12.14
-16.22
-20.14
-23.79
-27.19
-30.52
-34.13
-38.54
-44.20
-51.24
-59.16
-66.77
-72.33
-74.11
-70.98
-62.87
-50.88
-36.88
-22.96
-10.71
-0.93
6.41
11.84
16.08
19.76
23.37
27.29
31.72
36.69
41.87
46.67
50.32
52.17
52.00
50.10
47.22
44.27
41.99
40.72
40.33
40.42
40.44
39.97
38.80
36.90
34.39
31.40
28.11
24.65
21.13
17.64
14.23
10.94
7.80
4.86
2.15
-0.41
-2.99
-5.81
-9.12
-13.02
-17.42
-22.05
-26.57
-30.70
-34.30
-37.46
-40.46
-43.74
-47.80
-53.08
-59.62
-66.79
-73.23
-77.04
-76.42
-70.36
-59.18
-44.44
-28.46
-13.47
-0.98
8.51
15.33
20.21
23.93
27.13
30.27
33.66
37.45
41.47
45.27
48.21
49.76
49.68
48.20
45.91
43.48
41.44
40.00
39.07
38.35
37.55
36.46
35.00
33.15
30.91
28.30
25.31
22.04
18.62
15.23
12.05
9.19
6.70
4.46
2.32
-0.01
-2.74
-6.03
-9.82
-13.90
-17.91
-21.55
-24.64
-27.29
-29.79
-32.62
-36.28
-41.15
-47.27
-54.23
-60.98
-66.01
-67.66
-64.71
-56.91
-45.17
-31.32
-17.53
-5.61
3.48
9.66
13.50
15.79
17.30
18.59
20.00
21.69
23.62
25.53
27.07
27.93
27.99
27.37
26.30
25.05
23.76
22.45
21.06
19.52
17.80
15.86
13.68
11.17
8.28
4.99
1.38
