1552590157.00
64.000000
-0.00
-0.00
-0.00
-0.00
-0.00
-0.00
-0.00
-0.00
-0.00
-0.01
-0.00
0.00
0.01
0.01
-0.00
-0.03
-0.05
-0.05
-0.00
0.13
0.36
0.66
1.01
1.37
1.72
2.06
2.40
2.77
3.24
3.80
4.42
5.06
5.66
6.20
6.68
7.15
7.64
8.31
9.14
10.09
11.04
11.88
12.56
13.14
13.76
14.58
15.96
17.91
20.32
22.90
25.38
27.58
29.57
31.68
34.20
37.81
42.54
48.15
54.10
59.83
64.97
69.58
74.14
79.19
85.71
93.76
103.00
112.62
121.73
129.77
136.75
144.29
150.58
157.77
166.64
177.95
191.79
206.97
220.57
228.25
225.36
208.37
176.87
132.76
80.05
23.07
-34.94
-92.44
-149.16
-205.23
-260.49
-313.74
-363.87
-409.83
-450.91
-486.50
-515.74
-537.23
-549.22
-550.04
-538.37
-514.20
-478.67
-433.88
-382.45
-327.02
-269.84
-212.63
-156.70
-102.95
-52.37
-5.90
35.58
71.43
101.35
125.50
144.38
158.68
169.15
176.37
180.75
182.57
182.07
179.51
175.23
169.65
163.18
156.15
148.81
141.30
133.69
126.02
118.33
110.69
103.16
95.80
88.68
81.83
75.25
68.95
62.95
57.25
51.86
46.78
42.03
37.59
33.45
29.61
26.07
22.81
19.82
17.11
14.67
12.48
10.54
8.83
7.35
6.07
4.97
4.05
3.27
2.62
2.09
1.65
1.30
1.01
0.79
0.61
0.48
0.37
0.29
0.24
0.20
0.18
0.17
0.18
0.19
0.21
0.24
0.27
0.31
0.35
0.39
0.44
0.48
0.53
0.58
0.63
0.69
0.75
0.81
0.88
0.96
1.04
1.13
1.24
1.35
1.48
1.63
1.79
1.97
2.17
2.39
2.64
2.92
3.22
3.54
3.91
4.30
4.74
5.20
5.71
6.25
6.83
7.46
8.13
8.84
9.60
10.41
11.26
12.15
13.10
14.09
15.15
16.27
17.45
18.69
19.97
21.25
22.49
23.60
24.48
25.00
25.02
24.42
23.09
21.04
18.27
14.87
10.94
6.62
2.10
-2.46
-6.87
-10.96
-14.55
-17.51
-19.75
-21.25
-22.07
-22.33
-22.19
-21.81
-21.32
-20.77
-20.14
-19.36
-18.40
-17.28
-16.16
-15.19
-14.55
-14.26
-14.22
-14.20
-13.95
-13.33
-12.38
-11.42
-10.81
-10.85
-11.65
-13.02
-14.54
-15.75
-16.33
-16.33
-16.21
-16.59
-18.05
-20.83
-24.69
-28.99
-33.00
-36.20
-38.39
-40.06
-41.99
-45.06
-50.10
-57.72
-68.02
-79.93
-91.31
-99.34
-101.64
-97.15
-87.14
-75.00
-64.94
-60.02
-61.21
-67.29
-74.47
-80.08
-82.77
-82.74
-80.90
-77.90
-73.71
-67.91
-60.11
-49.99
-37.12
-20.33
1.75
29.58
61.57
94.03
122.39
143.50
157.01
164.86
169.75
173.30
175.39
174.98
171.62
166.13
160.20
154.96
150.01
144.22
136.81
128.38
120.58
114.73
110.48
105.53
97.12
83.85
66.85
49.11
33.73
22.22
14.07
7.46
0.82
-6.36
-13.64
-20.54
-27.25
-34.70
-43.77
-54.37
-64.90
-72.74
-75.61
-72.87
-66.23
-59.24
-55.84
-58.48
-66.99
-78.79
-90.13
-97.91
-100.70
-98.50
-91.80
-81.05
-67.02
-51.83
-39.08
-32.58
-33.90
-40.74
-47.30
-47.08
-36.55
-17.21
5.27
24.35
36.11
40.66
40.90
39.93
38.97
37.21
33.45
27.77
21.84
18.09
18.03
21.53
27.11
32.64
36.35
37.37
35.70
31.94
27.18
22.82
20.33
20.64
23.80
28.85
34.07
37.84
39.23
38.44
36.46
34.39
32.69
30.80
27.67
22.52
15.51
7.81
0.96
-4.30
-8.76
-14.29
-22.55
-33.76
-46.34
-57.74
-65.87
-69.93
-70.38
-67.95
-62.89
-55.13
-45.22
-34.87
-26.41
-21.70
-20.53
-20.59
-18.85
-13.41
-4.72
4.95
13.24
19.31
24.03
28.75
33.96
39.00
42.94
45.83
49.13
54.72
63.21
72.91
80.68
83.78
81.46
75.50
68.74
63.15
58.80
54.27
48.04
39.67
29.83
19.56
9.67
0.64
-6.99
-12.41
-15.13
-15.72
-15.92
-17.83
-22.87
-31.08
-41.46
-52.92
-64.71
-76.07
-85.59
-91.16
-90.94
-84.67
-74.48
-63.98
-56.17
-51.64
-48.37
-43.32
-34.61
-22.72
-9.90
1.66
11.18
19.27
26.55
32.58
36.02
36.07
33.69
31.72
33.39
40.09
50.32
60.52
67.08
68.37
65.40
60.53
55.52
50.41
44.02
35.31
24.69
13.96
5.00
-1.65
-7.07
-13.15
-20.98
-30.24
-39.66
-47.97
-55.06
-61.92
-69.76
-78.97
-89.06
-99.22
-109.28
-119.67
-130.33
-139.48
-143.30
-137.51
-120.08
-93.15
-62.77
-36.14
-17.80
-7.38
-0.30
8.92
23.16
41.16
58.74
71.90
79.28
82.40
83.78
84.65
84.36
81.50
75.75
69.09
64.99
66.09
72.39
81.10
88.08
90.00
85.60
75.41
60.63
42.30
21.25
-1.14
-22.55
-40.25
-52.32
-58.75
-61.59
-63.63
-66.92
-72.01
-78.31
-85.09
-92.32
-100.66
-110.60
-121.77
-132.81
-142.08
-148.36
-151.26
-151.07
-148.23
-142.89
-134.71
-122.90
-106.46
-84.49
-56.76
-24.23
10.56
44.00
72.65
94.57
109.82
120.06
127.19
132.27
135.44
136.56
136.12
135.40
135.69
137.16
138.43
137.31
132.42
124.40
115.76
109.41
106.70
106.50
105.74
101.21
91.52
77.73
62.54
48.79
37.95
29.85
23.36
17.64
12.64
8.79
6.24
4.19
0.95
-5.28
-15.18
-27.76
-40.65
-51.17
-57.73
-60.55
-61.57
-63.37
-67.91
-75.66
-85.66
-96.03
-104.86
-110.74
-112.91
-111.03
-105.26
-96.50
-86.36
-77.05
-70.35
-66.60
-64.38
-61.30
-55.33
-46.09
-35.01
-24.28
-15.33
-7.80
0.05
9.84
21.52
33.30
42.82
48.97
52.89
57.29
64.60
75.06
86.34
95.12
99.14
98.51
95.43
92.50
90.85
89.54
86.20
78.63
66.23
50.32
33.47
18.49
7.43
0.88
-2.01
-3.06
-4.33
-7.33
-12.55
-19.66
-28.15
-37.86
-48.89
-60.73
-71.53
-78.23
-77.93
-69.73
-55.72
-40.10
-27.03
-18.53
-13.81
-10.54
-6.59
-1.27
4.71
10.56
16.29
22.75
30.63
39.44
47.52
53.16
55.97
57.30
59.32
63.32
68.55
72.64
73.13
69.17
61.87
53.31
45.00
36.96
28.16
17.84
6.57
-3.74
-11.18
-15.47
-18.61
-23.73
-33.06
-46.44
-61.47
-75.11
-85.79
-94.09
-101.90
-110.65
-120.18
-129.14
-136.33
-141.62
-145.68
-148.64
-148.78
-142.85
-128.07
-104.32
-75.22
-46.39
-22.54
-4.96
8.70
22.30
38.29
56.24
73.48
87.15
96.11
101.20
104.02
105.70
106.36
105.80
104.49
103.95
105.75
110.23
115.74
119.09
117.17
108.53
93.94
75.76
56.54
37.87
20.18
3.24
-13.14
-28.57
-42.40
-54.09
-63.73
-71.95
-79.71
-87.63
-95.80
-103.86
-111.55
-119.04
-126.91
-135.86
-146.21
-157.47
-168.49
-177.67
-183.18
-183.10
-175.52
-159.04
-133.47
-100.43
-63.40
-26.97
5.01
30.86
51.58
69.90
88.34
107.65
126.47
142.45
153.72
159.94
162.13
161.81
160.06
157.42
154.32
151.64
150.59
151.98
155.28
158.46
158.70
153.80
143.32
128.73
112.32
95.87
79.97
64.24
48.45
33.32
20.68
12.46
9.51
10.99
14.63
17.81
18.44
15.41
8.55
-1.63
-14.16
-27.71
-41.17
-54.01
-66.62
-80.11
-95.47
-112.81
-131.04
-148.17
-162.06
-171.23
-174.99
-173.26
-166.46
-155.55
-142.29
-129.12
-118.07
-109.81
-103.12
-95.71
-85.76
-73.14
-59.40
-46.66
-36.10
-27.28
-18.78
-9.57
0.16
9.36
17.25
24.45
32.65
43.41
56.67
70.22
80.70
85.53
84.35
78.99
72.34
66.58
62.11
58.05
53.22
47.11
40.10
32.89
25.90
19.29
13.09
7.46
2.55
-1.83
-6.33
-11.84
-19.14
-28.55
-39.76
-51.94
-63.85
-73.90
-80.31
-81.47
-76.65
-66.72
-54.02
-41.41
-30.87
-22.56
-14.93
-6.19
4.43
16.23
27.63
37.41
45.36
52.01
57.61
61.56
62.81
61.02
57.54
55.06
56.27
61.96
70.15
76.99
78.86
74.28
64.43
52.07
39.54
27.74
16.16
4.08
-8.43
-20.30
-30.40
-38.62
-46.15
-54.54
-64.32
-74.43
-82.68
-87.29
-88.16
-87.17
-86.98
-89.65
-95.74
-104.61
-115.12
-125.93
-135.30
-140.78
-139.57
-129.71
-111.72
-89.15
-67.12
-49.73
-37.92
-29.12
-19.33
-5.75
11.62
30.38
47.66
62.03
73.88
84.32
93.67
100.91
104.59
104.33
101.65
99.36
99.86
103.35
107.74
109.86
107.52
100.66
91.20
81.69
73.73
67.37
61.37
54.58
46.92
39.33
32.99
28.29
24.13
18.40
9.39
-3.05
-17.19
-30.38
-40.67
-48.01
-54.24
-61.85
-72.33
-85.24
-98.64
-110.10
-117.97
-121.51
-120.33
-113.86
-101.62
-84.04
-63.15
-42.25
-24.21
-9.90
2.29
15.23
30.89
48.97
67.24
83.09
95.12
103.80
110.36
115.45
118.46
118.29
114.62
108.78
103.27
100.15
99.64
99.89
98.13
92.33
82.22
69.14
54.96
41.13
28.14
15.72
3.40
-8.76
-20.17
-30.11
-38.12
-44.44
-50.03
-56.27
-64.25
-74.23
-85.48
-96.61
-106.37
-114.41
-121.56
-129.20
-138.31
-148.57
-158.37
-165.43
-167.76
-164.10
-154.01
-137.56
-115.22
-88.14
-58.37
-28.66
-1.62
21.29
40.24
56.39
70.78
83.65
94.38
102.30
107.53
111.06
114.02
116.64
118.10
117.35
114.27
110.25
107.56
107.72
110.33
113.09
113.10
108.62
100.04
89.31
78.62
69.12
60.66
52.33
43.60
34.85
27.05
21.02
16.74
13.18
8.93
2.80
-5.50
-15.18
-24.84
-33.14
-39.47
-44.47
-49.72
-56.81
-66.44
-78.03
-89.94
-100.28
-107.66
-111.30
-110.99
-106.86
-99.43
-89.88
-79.94
-71.30
-64.82
-60.15
-55.79
-50.23
-42.83
-34.17
-25.49
-17.75
-10.88
-4.01
3.56
11.83
20.00
27.38
34.09
41.19
49.81
59.95
70.02
77.49
80.49
79.08
75.21
71.64
70.27
71.13
72.70
73.13
71.48
67.95
63.38
58.39
53.09
47.33
41.33
35.74
31.28
28.15
25.69
22.54
17.13
8.33
-4.27
-19.91
-36.52
-50.87
-59.53
-60.27
-53.33
-41.56
-29.06
-19.09
-12.43
-7.38
-1.52
6.32
15.15
22.76
27.61
30.24
32.94
37.98
45.80
54.64
61.66
64.98
64.96
63.71
63.48
65.02
67.10
67.48
64.52
58.15
49.72
41.02
33.02
25.56
17.85
9.22
-0.31
-10.07
-19.37
-28.02
-36.36
-44.91
-53.94
-63.35
-72.97
-82.83
-93.26
-104.61
-116.74
-128.88
-139.93
-148.92
-155.32
-158.89
-159.06
-154.63
-144.14
-126.82
-103.49
-76.88
-50.64
-27.70
-8.95
6.79
21.75
37.46
53.94
69.86
83.42
93.58
100.40
104.52
106.55
106.70
104.95
101.58
97.49
93.87
91.60
90.52
89.50
86.98
81.91
74.15
64.26
52.99
40.68
27.32
13.01
-1.64
-15.43
-27.19
-36.58
-44.40
-52.23
-61.42
-72.10
-83.09
-92.77
-100.26
-106.11
-112.02
-119.50
-129.07
-139.81
-150.10
-158.23
-162.78
-162.33
-155.21
-139.82
-115.68
-84.34
-49.50
-15.67
13.78
37.80
57.62
75.04
90.78
103.95
113.00
117.16
117.38
115.67
113.81
112.26
110.21
106.77
102.22
98.22
96.80
98.65
102.40
105.18
104.21
98.48
89.10
78.33
68.00
58.57
49.37
39.45
28.78
18.34
9.54
3.11
-1.62
-6.49
-13.32
-22.80
-33.81
-44.11
-51.92
-57.12
-61.45
-67.54
-77.34
-90.95
-106.69
-121.96
-134.38
-142.28
-144.61
-140.72
-130.34
-114.08
-94.03
-73.70
-56.79
-45.63
-40.09
-37.68
-35.04
-29.79
-21.36
-10.83
0.12
10.37
19.63
28.04
35.69
42.41
48.26
53.97
60.87
70.18
82.12
95.41
107.60
116.37
120.51
120.33
117.21
112.49
106.77
99.85
91.28
80.85
68.93
56.18
43.42
31.51
21.26
13.39
8.07
4.66
1.72
-2.27
-8.38
-16.81
-27.02
-38.22
-49.54
-59.86
-67.59
-70.95
-68.76
-61.42
-51.07
-40.63
-32.29
-26.27
-21.09
-14.93
-7.03
1.81
10.10
16.95
22.66
28.30
34.49
40.62
45.26
47.47
47.71
47.61
48.73
51.24
53.64
54.01
51.46
46.88
42.17
38.69
36.18
33.10
27.90
20.37
11.78
3.78
-3.05
-9.81
-18.34
-29.89
-44.00
-58.84
-72.54
-84.47
-95.44
-106.72
-118.96
-131.55
-142.92
-151.48
-156.13
-156.20
-151.04
-140.17
-123.69
-102.78
-79.69
-56.79
-35.59
-16.12
2.47
20.76
38.35
53.98
66.53
75.94
83.14
89.11
93.96
96.58
95.65
91.18
85.08
80.45
79.78
83.31
88.56
91.71
89.56
80.95
66.99
50.18
32.87
16.46
1.53
-11.73
-22.91
-31.48
-37.36
-41.60
-46.32
-53.74
-64.93
-79.09
-93.77
-106.09
-114.35
-118.85
-121.81
-126.11
-133.77
-145.00
-158.03
-169.49
-175.37
-172.10
-157.59
-132.13
-98.71
-62.26
-27.79
1.58
25.58
46.28
66.03
85.54
103.45
117.30
125.26
127.36
125.24
120.87
115.27
108.46
100.62
93.13
88.56
89.41
96.27
106.96
117.12
122.21
119.55
109.17
93.16
74.34
55.00
36.32
18.90
3.28
-9.57
-18.64
-23.51
-24.95
-25.02
-26.35
-31.19
-40.37
-53.25
-68.29
-84.14
-100.38
-117.51
-136.05
-155.48
-173.88
-188.27
-195.65
-194.11
-183.35
-164.52
-139.78
-111.94
-84.11
-59.44
-40.15
-26.71
-17.44
-9.03
1.98
17.42
36.85
57.81
77.27
93.15
104.82
112.84
118.17
121.59
123.94
126.12
129.14
133.57
138.99
143.84
146.08
144.58
140.05
134.99
132.47
134.51
140.68
148.40
153.93
154.21
148.15
136.74
122.53
108.66
98.09
92.75
92.92
96.56
99.58
96.37
81.76
53.27
12.40
-35.32
-82.15
-120.84
-146.75
-159.02
-160.01
-153.95
-145.24
-136.86
-129.83
-123.23
-114.95
-103.05
-87.09
-68.57
-50.41
-35.53
-25.43
-19.70
-16.54
-14.08
-11.29
-8.16
-4.73
-0.29
6.66
17.46
32.08
48.37
62.65
71.48
73.13
68.37
59.72
49.92
40.69
32.10
23.10
12.53
0.20
-12.72
-23.94
-31.08
-32.88
-30.06
-25.37
-22.57
-25.04
-34.50
-50.55
-71.00
-92.78
-112.44
-126.48
-131.82
-126.48
-110.48
-86.45
-59.21
-34.11
-14.94
-2.80
3.60
6.59
8.35
10.16
12.63
16.18
20.80
25.64
28.90
28.69
24.50
18.37
14.66
18.17
31.32
52.25
75.17
92.67
99.09
92.91
76.98
56.73
37.54
22.86
13.50
8.51
6.38
6.01
6.55
6.77
4.71
-1.87
-14.31
-32.06
-52.36
-71.50
-86.38
-95.70
-100.15
-101.65
-102.33
-103.75
-106.56
-110.50
-114.17
-115.05
-109.90
-96.00
-72.69
-42.42
-10.37
17.61
37.54
49.08
55.14
59.72
65.54
72.89
80.39
86.60
91.46
96.19
102.00
108.68
114.42
116.90
114.75
108.42
99.79
90.62
81.33
70.75
57.29
40.48
21.88
4.56
-8.33
-15.07
-16.25
-14.32
-12.36
-12.71
-16.32
-22.95
-31.96
-43.00
-56.09
-71.05
-86.95
-101.95
-113.90
-121.45
-124.85
-125.89
-126.97
-130.05
-135.94
-144.22
-153.55
-161.96
-166.94
-165.72
-156.08
-137.29
-110.84
-80.11
-48.82
-19.31
8.34
35.44
62.77
89.05
111.33
126.65
134.20
136.10
136.15
137.39
140.43
143.61
144.90
143.76
141.68
140.80
141.79
142.46
138.45
125.58
102.34
70.84
35.81
2.29
-26.31
-48.68
-64.97
-75.18
-78.64
-74.59
-63.70
-48.94
-35.02
-26.43
-25.59
-31.77
-41.83
-52.28
-60.90
-67.15
-71.31
-73.31
-72.35
-67.27
-57.72
-44.85
-31.00
-18.79
-10.11
-5.70
-5.31
-7.98
-12.10
-15.58
-16.17
-12.32
-4.02
7.06
18.21
27.03
32.42
34.68
34.70
33.07
29.87
25.41
20.82
18.28
20.17
27.51
39.08
51.61
61.09
64.63
61.36
52.42
39.85
25.46
10.22
-5.67
-22.08
-38.15
-52.25
-62.24
-66.49
-64.81
-58.73
-51.17
-45.54
-44.44
-48.95
-58.67
-72.26
-87.99
-103.88
-117.21
-124.64
-123.07
-111.38
-91.71
-69.36
-50.80
-40.77
-40.16
-46.14
-54.19
-60.58
-63.77
-63.69
-60.28
-52.43
-38.75
-19.49
2.22
20.75
30.64
29.33
18.53
2.98
-12.55
-25.69
-37.17
-49.44
-64.57
-83.05
-104.23
-127.56
-153.02
-180.54
-208.72
-234.32
-253.35
-263.37
-265.16
-262.67
-260.66
-261.70
-264.36
-263.87
-254.98
-234.91
-204.81
-168.87
-131.94
-97.24
-65.45
-35.18
-4.37
28.31
63.27
100.22
138.51
177.23
214.97
249.46
277.86
297.69
307.82
309.54
306.17
301.92
300.01
301.41
304.50
306.04
302.86
293.36
278.27
260.24
242.77
228.67
219.05
213.07
208.52
202.90
194.49
182.72
168.07
151.42
133.58
114.98
95.93
76.83
58.33
41.24
26.21
13.66
3.78
-3.52
-8.73
-12.84
-17.23
-23.40
-32.51
-44.88
-59.84
-75.84
-90.73
-102.11
-107.79
-106.58
-98.69
-85.85
-70.94
-56.85
-45.53
-37.40
-31.78
-27.45
-23.34
-18.55
-12.15
-3.14
9.09
23.92
39.14
51.30
57.10
54.98
46.07
33.58
21.09
10.90
3.19
-3.40
-10.37
-17.94
-24.68
-28.45
-27.55
-21.85
-12.88
-3.09
5.33
11.04
13.38
11.61
4.37
-10.00
-32.44
-61.86
-94.65
-125.43
-148.80
-161.18
-161.75
-151.93
-134.04
-110.00
-81.11
-48.71
-14.96
16.82
43.14
61.65
72.26
76.93
78.56
79.75
82.04
85.93
91.39
98.29
105.99
112.90
116.42
113.79
103.53
86.50
65.89
46.18
31.25
22.81
20.05
20.41
21.21
20.99
19.96
19.24
19.46
19.77
17.67
10.23
-4.26
-25.08
-49.00
-71.50
-88.71
-98.93
-102.64
-101.46
-96.56
-87.70
-73.84
-54.34
-30.15
-4.03
20.24
39.36
51.53
56.66
55.82
50.56
42.56
33.57
25.48
20.11
18.74
21.45
27.22
34.36
41.44
47.86
53.79
59.68
65.70
71.26
75.22
76.42
74.23
68.61
60.02
49.16
36.90
24.34
12.91
4.17
-0.69
-1.62
-0.12
1.04
-1.11
-8.52
-21.01
-36.20
-50.76
-62.11
-69.57
-74.56
-79.72
-87.42
-98.79
-113.64
-131.19
-150.62
-171.11
-191.37
-209.12
-221.60
-227.40
-228.39
-230.35
-241.29
-267.67
-310.66
-364.56
-418.77
-462.02
-486.88
-492.09
-481.78
-462.49
-439.79
-416.47
-392.88
-368.59
-343.74
-319.47
-297.27
-277.73
-259.98
-242.03
-221.81
-198.17
-171.38
-143.06
-115.36
-89.89
-67.12
-46.30
-25.93
-4.54
18.49
42.75
66.93
89.42
108.96
124.99
137.66
147.54
155.17
160.82
164.43
165.81
165.01
162.39
158.69
154.72
151.10
148.11
145.72
143.87
142.69
142.72
144.75
149.51
157.35
167.98
180.66
194.46
208.71
223.26
238.44
254.90
273.45
294.83
319.66
348.02
378.90
409.75
436.52
454.52
459.79
450.59
428.03
395.65
358.07
319.26
281.67
246.24
213.19
182.78
155.34
130.86
108.43
86.32
62.69
36.49
8.15
-20.41
-46.31
-66.39
-78.06
-79.81
-71.57
-54.77
-32.06
-6.70
18.26
40.64
59.46
74.61
86.22
94.17
98.27
98.87
97.33
96.05
97.56
103.30
112.79
123.63
132.40
136.05
133.10
124.08
111.17
97.14
84.23
73.48
64.75
57.26
50.32
43.70
37.64
32.52
28.47
25.08
21.45
16.38
8.92
-1.40
-13.54
-25.79
-36.35
-43.85
-47.64
-47.93
-45.95
-43.66
-42.94
-44.09
-46.14
-47.49
-46.94
-44.51
-41.54
-40.16
-42.11
-47.67
-53.83
-56.96
-54.96
-48.45
-40.29
-33.71
-30.75
-31.56
-34.69
-34.11
-25.89
-10.59
7.16
22.27
32.71
40.24
48.45
60.24
84.88
126.56
181.91
241.31
295.05
338.63
373.11
402.22
429.40
470.19
534.35
620.51
716.31
806.53
881.38
938.28
979.32
1008.20
1046.49
1109.72
1199.45
1302.30
1399.79
1478.85
1534.58
1567.51
1467.07
1176.01
714.65
178.97
-322.67
-725.90
-1016.55
-1209.51
-1329.03
-1398.39
-1417.88
-1387.68
-1316.53
-1223.99
-1131.82
-1054.36
-996.13
-955.21
-927.29
-894.25
-843.30
-773.10
-694.09
-620.34
-561.35
-519.27
-491.50
-474.74
-456.33
-427.58
-387.61
-342.88
-302.10
-271.37
-252.00
-241.84
-236.88
-228.05
-208.15
-175.09
-132.80
-88.87
-51.48
-25.46
-11.53
-6.93
-5.48
-2.18
4.48
12.55
22.80
32.74
41.11
48.50
56.41
63.40
69.29
72.52
71.18
63.97
50.20
30.88
7.41
-19.79
-46.98
-73.38
-100.01
-128.66
-161.45
-200.81
-247.74
-300.82
-355.33
-403.18
-434.99
-442.78
-422.75
-376.97
-312.89
-239.92
-166.18
-96.17
-30.45
32.41
94.29
156.59
220.08
284.77
349.76
412.46
468.30
511.55
537.02
542.16
527.91
497.95
456.95
408.90
356.47
301.49
245.81
191.41
140.37
93.80
51.23
10.93
-29.54
-72.25
-118.36
-167.77
-219.09
-269.59
-315.71
-353.69
-379.94
-391.67
-387.16
-365.81
-328.20
-276.16
-212.51
-140.79
-64.84
11.53
84.58
150.59
205.93
247.43
273.41
284.65
284.66
278.88
272.69
269.00
267.53
265.18
258.00
243.43
221.49
194.36
164.94
135.19
105.05
72.87
36.43
-5.87
-53.80
-104.74
-153.87
-194.96
-221.84
-230.47
-220.74
-197.31
-168.35
-142.65
-126.52
-121.89
-126.79
-137.38
-150.14
-163.00
-174.98
-185.23
-192.64
-196.37
-196.40
-193.58
-188.79
-181.91
-171.26
-154.36
-129.10
-95.00
-53.65
-7.93
38.95
84.06
124.61
158.04
182.40
196.89
202.30
200.43
193.11
180.96
162.97
137.07
101.53
56.40
4.12
-50.75
-102.88
-147.71
-182.57
-206.67
-220.60
-225.63
-223.37
-215.63
-204.38
-191.43
-177.95
-164.10
-149.04
-131.84
-112.40
-91.91
-72.26
-54.61
-38.12
-19.91
3.35
33.36
68.90
105.85
138.57
161.97
172.89
170.76
157.65
137.34
114.62
94.17
79.63
72.68
72.47
75.71
77.35
72.10
56.06
28.30
-8.69
-49.53
-87.62
-117.35
-135.69
-142.70
-140.49
-131.62
-117.84
-99.76
-77.64
-52.31
-25.68
-0.17
22.09
40.05
53.56
62.87
68.21
69.51
66.68
59.95
49.77
36.57
20.71
2.66
-16.44
-34.27
-47.48
-52.71
-47.79
-32.72
-9.90
16.74
42.96
65.44
82.60
94.51
102.58
108.95
115.97
125.54
138.89
155.95
174.96
192.70
205.09
208.28
199.86
179.49
149.33
113.68
77.90
46.91
23.69
8.61
-0.13
-5.19
-8.60
-11.43
-14.10
-17.62
-24.39
-37.99
-62.16
-99.02
-147.77
-204.46
-262.67
-314.92
-354.23
-375.37
-375.55
-354.78
-315.49
-261.90
-199.00
-131.45
-62.84
4.64
70.19
133.81
195.57
254.75
309.55
357.13
394.39
418.82
429.20
425.53
408.76
380.26
341.95
296.82
249.07
203.78
165.68
137.78
120.57
112.16
109.16
107.83
105.05
98.51
86.75
68.89
44.70
14.76
-19.40
-55.37
-90.32
-121.43
-146.51
-164.06
-173.37
-174.39
-167.75
-154.88
-138.46
-122.53
-112.04
-111.73
-124.32
-149.13
-181.71
-215.12
-242.27
-258.26
-261.53
-253.79
-238.95
-221.62
-206.16
-195.95
-192.60
-195.26
-200.31
-202.14
-194.84
-174.48
-140.63
-96.36
-46.64
3.85
52.26
97.79
140.70
181.08
218.34
251.50
279.54
301.71
317.32
325.33
324.34
313.13
291.30
259.78
220.68
176.68
130.28
83.57
37.98
-5.42
-45.74
-82.47
-115.39
-144.31
-168.87
-188.57
-202.92
-211.97
-216.38
-217.18
-215.16
-210.33
-202.21
-190.83
-177.83
-166.75
-161.85
-165.78
-177.85
-193.83
-207.80
-214.97
-213.55
-204.79
-191.32
-175.12
-156.66
-135.44
-111.52
-86.38
-62.70
-42.90
-27.62
-15.52
-4.12
8.66
23.36
38.98
53.69
65.76
73.99
77.77
76.85
71.46
62.43
51.13
39.19
27.68
16.54
4.75
-9.12
-25.69
-44.04
-61.81
-76.13
-84.62
-86.20
-81.05
-70.23
-55.24
-37.76
-19.65
-3.09
9.66
16.72
16.77
9.59
-3.64
-20.47
-37.33
-50.31
-56.31
-54.11
-44.66
-30.73
-15.66
-2.14
8.30
15.29
19.16
20.73
21.29
22.49
25.82
31.89
39.95
48.14
54.60
58.49
60.41
61.96
64.74
69.49
76.25
84.77
95.02
107.20
121.11
135.61
148.68
158.14
162.46
161.54
156.66
149.56
141.68
133.34
123.51
110.42
92.55
69.43
42.23
13.67
-12.84
-34.04
-47.79
-53.66
-53.06
-48.81
-44.53
-43.41
-47.24
-55.85
-67.05
-77.58
-84.43
-85.61
-80.44
-69.36
-53.66
-35.46
-17.76
-3.87
3.55
3.98
-0.67
-6.60
-10.29
-9.99
-6.39
-1.60
2.65
6.05
9.34
13.21
17.11
19.62
19.72
18.15
17.28
19.97
27.61
39.14
51.63
61.93
68.30
71.03
71.37
70.24
67.51
62.15
53.33
41.49
28.24
15.59
4.88
-3.64
-10.71
-17.08
-23.11
-28.87
-34.53
-40.82
-48.97
-59.84
-73.13
-86.88
-98.05
-103.78
-102.45
-94.19
-80.64
-64.38
-48.04
-33.81
-23.10
-16.19
-12.10
-8.96
-4.70
1.96
10.93
20.87
29.87
36.37
39.80
40.45
39.04
36.44
33.54
31.38
31.11
33.57
38.71
45.46
52.25
57.69
61.28
63.42
64.88
65.93
66.05
64.27
59.94
53.31
45.51
37.83
31.03
25.10
19.60
14.20
9.06
4.50
0.42
-3.93
-9.75
-18.03
-29.05
-42.22
-56.82
-72.38
-88.94
-106.45
-124.04
-139.67
-150.54
-154.23
-149.47
-136.56
-117.09
-93.42
-68.29
-44.70
-25.54
-12.88
-7.07
-6.30
-7.23
-6.50
-2.24
5.21
13.93
21.82
27.84
32.29
36.06
39.79
43.38
46.47
49.20
52.57
57.89
65.89
75.75
85.16
91.32
92.25
87.89
79.84
70.54
61.99
54.86
48.58
42.17
35.14
27.86
21.31
16.28
12.65
9.39
5.13
-1.06
-9.11
-18.09
-26.98
-35.44
-43.97
-53.64
-65.17
-78.44
-92.68
-106.99
-120.98
-134.94
-149.20
-163.31
-175.61
-183.38
-183.73
-174.61
-155.59
-128.36
-96.42
-64.25
-36.30
-15.72
-3.26
2.77
5.73
9.12
14.96
23.35
32.97
42.10
49.70
55.57
59.93
62.65
63.45
62.15
59.40
56.75
55.89
57.90
62.65
68.83
74.51
77.88
77.65
73.38
65.55
55.27
43.98
32.61
21.17
8.93
-4.67
-19.19
-32.96
-43.69
-49.84
-51.64
-50.73
-48.87
-46.43
-42.04
-33.59
-20.26
-3.57
13.28
27.47
38.62
49.27
63.65
84.94
113.41
146.03
177.60
202.45
216.12
216.28
203.19
179.54
149.54
117.23
84.67
51.31
15.03
-24.85
-65.23
-99.07
-117.90
-115.86
-92.85
-54.71
-10.60
30.81
63.70
85.28
94.26
89.20
68.15
29.82
-24.84
-91.83
-164.18
-233.88
-294.24
-341.89
-377.54
-404.96
-428.38
-449.87
-467.79
-477.74
-475.17
-458.21
-429.06
-392.89
-355.39
-320.23
-288.19
-258.11
-228.77
-200.12
-173.31
-149.50
-128.85
-109.90
-90.16
-67.47
-40.94
-11.43
18.88
47.62
73.40
96.48
118.65
142.60
171.02
205.59
246.06
289.80
332.01
366.51
387.23
390.07
374.46
343.53
302.98
258.94
215.85
175.79
139.31
106.98
80.56
62.77
55.84
59.78
71.84
87.73
103.57
117.38
128.96
138.49
144.96
146.10
140.11
127.48
111.38
95.70
82.32
69.89
55.21
36.61
16.82
2.61
0.72
13.02
34.25
54.14
62.96
57.00
39.75
18.95
1.26
-11.59
-22.72
-36.60
-54.99
-75.26
-91.86
-99.78
-97.97
-89.96
-81.91
-78.99
-82.24
-87.34
-86.22
-71.09
-38.44
8.52
60.73
107.07
139.30
155.32
158.90
156.75
154.72
155.72
160.11
167.23
176.35
186.02
192.50
189.78
172.15
137.87
92.16
46.37
13.47
1.91
11.44
33.51
55.26
65.57
59.53
39.74
14.05
-8.43
-21.28
-23.01
-16.67
-7.82
-1.51
-0.59
-5.31
-14.14
-25.15
-36.83
-47.81
-56.08
-58.99
-54.20
-41.45
-23.54
-5.72
6.63
10.85
8.06
2.38
-1.77
-2.14
0.50
3.54
4.65
3.19
0.25
-2.77
-5.28
-7.67
-10.19
-12.01
-11.40
-7.14
-0.43
5.25
5.99
0.21
-9.71
-18.38
-20.72
-15.67
-7.43
-3.22
-8.98
-25.50
-47.72
-67.51
-77.95
-76.67
-66.28
-52.08
-38.72
-28.36
-20.68
-14.63
-9.79
-6.61
-5.51
-5.83
-5.66
-2.77
3.90
13.60
24.16
33.25
39.56
43.14
44.96
46.29
48.14
51.17
55.64
61.31
67.26
72.07
74.31
73.21
69.13
63.26
56.90
50.89
45.38
40.00
34.36
28.25
21.68
14.81
7.98
1.76
-3.09
-6.01
-7.16
-7.47
-8.47
-11.40
-16.45
-22.68
-28.34
-31.73
-31.73
-28.14
-21.53
-13.09
-4.40
2.82
7.28
8.75
8.24
7.52
8.38
11.56
16.45
21.61
25.69
28.16
29.40
30.16
30.80
31.21
31.08
30.48
30.09
30.77
32.92
36.12
39.26
41.13
41.21
39.66
36.96
33.34
28.56
22.11
13.85
4.48
-4.62
-12.15
-17.60
-21.53
-25.22
-29.87
-35.82
-42.45
-48.57
-53.16
-55.96
-57.60
-59.19
-61.66
-65.35
-69.79
-73.96
-76.58
-76.39
-72.33
-63.78
-50.91
-35.12
-19.08
-6.09
1.24
2.22
-1.34
-5.80
-7.36
-3.91
4.17
14.52
24.28
31.61
36.32
39.25
41.41
43.32
44.88
45.94
46.75
47.98
50.20
53.40
56.78
59.14
59.63
58.17
55.44
52.30
49.13
45.75
41.66
36.60
30.99
25.66
21.36
18.26
15.84
13.35
10.24
6.56
2.67
-1.17
-5.10
-9.54
-14.78
-20.66
-26.62
-32.24
-37.67
-43.54
-50.50
-58.63
-67.30
-75.59
-83.07
-90.27
-98.30
-107.97
-118.89
-129.10
-135.95
-136.95
-130.93
-118.24
-100.61
-80.54
-60.85
-44.36
-33.22
-28.22
-28.38
-31.24
-33.83
-33.94
-30.81
-25.07
-17.85
-9.89
-1.40
7.45
15.91
22.73
26.81
28.28
28.79
30.65
35.36
42.49
49.80
54.68
55.70
53.38
49.60
46.30
44.15
42.65
40.62
37.41
33.44
29.85
27.72
27.28
27.91
28.51
28.27
27.17
25.78
24.84
24.76
25.39
26.23
26.51
25.46
22.44
17.11
9.59
0.74
-8.13
-15.85
-22.12
-27.94
-35.38
-46.55
-62.22
-81.02
-99.51
-113.45
-119.34
-115.65
-103.10
-84.03
-61.55
-38.83
-18.70
-3.33
6.19
10.29
10.91
10.87
12.59
17.17
23.98
31.33
37.41
41.15
42.35
41.36
38.56
34.39
29.61
25.48
23.52
24.79
29.26
35.44
41.08
44.17
43.72
40.04
34.18
27.34
20.38
13.97
8.54
4.50
1.97
0.49
-0.91
-3.26
-7.14
-12.16
-17.21
-21.10
-23.47
-25.15
-27.93
-33.69
-43.34
-56.43
-71.11
-84.62
-94.10
-97.11
-92.16
-78.98
-58.96
-35.08
-11.49
7.54
19.14
22.94
21.20
17.68
15.68
16.65
19.80
23.16
25.12
25.38
24.83
24.68
25.51
27.13
29.27
32.25
37.05
44.56
54.43
64.80
72.97
76.72
75.54
70.71
64.20
57.44
50.62
43.19
34.77
25.79
17.41
10.67
5.72
1.72
-2.54
-7.83
-14.16
-21.09
-28.23
-35.43
-42.76
-50.05
-57.05
-63.74
-70.80
-79.41
-90.32
-102.86
-114.64
-122.21
-122.52
-114.24
-98.12
-76.62
-53.04
-30.69
-12.36
0.09
6.14
6.88
4.85
3.00
3.60
7.37
13.60
20.88
28.05
34.63
40.51
45.46
49.08
51.10
51.83
52.37
54.09
57.78
63.12
68.64
72.60
73.82
72.32
69.08
65.30
61.52
57.41
52.13
45.05
36.43
27.39
19.37
13.33
9.23
6.04
2.41
-2.66
-9.43
-17.55
-26.36
-35.27
-43.76
-51.39
-57.96
-63.71
-69.51
-76.67
-86.24
-98.19
-111.01
-121.98
-128.11
-127.08
-117.99
-101.49
-79.64
-55.46
-32.43
-13.72
-1.39
4.35
5.24
4.19
3.98
6.17
10.80
16.83
23.28
29.79
36.40
43.01
48.91
53.00
54.68
54.56
54.34
55.84
59.73
64.85
68.86
69.48
65.82
58.79
50.41
42.53
36.01
30.66
25.77
20.89
16.11
11.83
8.35
5.59
3.18
0.84
-1.43
-3.43
-5.04
-6.62
-8.90
-12.72
-18.66
-26.69
-36.08
-45.79
-54.87
-62.94
-70.43
-78.42
-88.00
-99.62
-112.42
-124.25
-132.20
-133.57
-126.77
-111.86
-90.57
-65.82
-41.04
-19.26
-2.49
8.75
15.35
19.15
22.03
25.13
28.75
32.66
36.66
40.86
45.46
50.33
54.74
57.74
58.93
58.94
59.16
60.85
64.17
67.90
70.15
69.53
66.01
60.78
55.49
51.09
47.58
44.27
40.60
36.46
32.05
27.35
21.78
14.48
4.96
-6.25
-17.66
-27.64
-35.48
-41.94
-48.93
-58.38
-71.00
-85.71
-99.90
-110.30
-114.04
-109.31
-95.70
-74.50
-48.58
-22.00
0.89
16.90
25.18
27.43
26.95
26.82
28.55
31.66
34.78
36.92
38.27
39.80
42.22
45.26
47.80
48.91
48.77
48.84
50.90
55.73
62.41
68.78
72.73
73.36
71.23
67.56
63.08
57.58
50.49
41.58
31.67
22.43
15.19
10.08
5.81
0.44
-7.41
-17.59
-28.50
-38.07
-44.88
-48.89
-51.41
-54.48
-60.05
-69.25
-81.99
-96.81
-111.07
-121.55
-125.28
-120.33
-106.47
-85.31
-60.05
-34.70
-13.06
2.39
11.12
14.59
15.57
16.83
20.14
25.84
33.16
40.93
48.19
54.33
58.81
61.08
60.77
58.13
54.28
51.11
50.46
53.17
58.73
65.45
71.27
74.49
74.31
70.90
64.97
57.49
49.36
41.31
33.70
26.71
20.29
14.24
8.28
2.08
-4.72
-12.33
-20.44
-28.32
-34.93
-39.60
-42.67
-45.62
-50.72
-60.04
-74.30
-92.11
-110.27
-124.55
-131.10
-127.70
-114.39
-93.42
-68.59
-44.19
-23.75
-9.19
-0.40
4.40
7.75
11.80
17.46
24.36
31.44
37.62
42.48
46.27
49.56
52.73
55.81
58.59
61.05
63.54
66.55
70.34
74.49
77.84
78.93
76.76
71.24
63.34
54.50
45.95
38.25
31.21
24.23
16.94
9.54
2.69
-2.83
-6.62
-9.03
-10.88
-13.21
-16.77
-21.88
-28.38
-35.83
-43.63
-51.14
-57.96
-64.02
-69.94
-76.78
-85.67
-97.03
-110.00
-122.30
-130.87
-132.93
-126.92
-113.17
-93.66
-71.47
-49.84
-31.42
-17.69
-8.73
-3.41
0.22
4.12
9.67
17.22
26.19
35.45
43.82
50.49
55.03
57.48
58.20
57.91
57.64
58.34
60.54
63.97
67.63
70.18
70.58
68.58
64.64
59.64
54.29
48.91
43.38
37.51
31.22
24.56
17.52
9.93
1.73
-6.79
-14.69
-20.66
-23.71
-23.89
-22.70
-22.61
-26.02
-34.09
-46.15
-59.95
-72.38
-80.57
-82.53
-77.45
-65.71
-48.93
-29.78
-11.43
3.22
12.78
17.76
20.19
22.29
25.32
29.05
32.35
34.52
35.91
37.68
40.65
44.41
47.44
48.36
47.25
45.92
46.92
51.58
58.85
65.79
69.27
67.93
62.69
55.91
49.65
44.43
39.24
32.76
24.34
14.51
4.57
-4.45
-12.17
-18.90
-25.10
-30.87
-35.82
-39.58
-42.17
-44.27
-47.18
-52.30
-60.51
-71.80
-85.08
-98.38
-109.19
-114.98
-113.77
-104.80
-88.89
-68.60
-47.59
-29.52
-16.66
-8.98
-4.44
-0.14
5.99
14.20
23.08
30.69
35.88
38.87
40.78
42.62
44.58
46.07
46.56
46.28
46.38
48.43
53.32
60.58
68.39
74.43
76.84
74.99
69.54
62.03
54.00
46.42
39.50
32.88
26.18
19.45
13.19
8.00
4.17
1.36
-1.30
-4.66
-9.18
-14.73
-20.79
-26.91
-33.13
-40.24
-49.47
-61.86
-77.46
-94.80
-111.08
-122.85
-127.23
-122.83
-110.09
-91.01
-68.51
-45.70
-25.31
-9.32
1.29
6.70
8.21
7.87
7.79
9.46
13.42
19.34
26.36
33.54
39.97
44.93
48.02
49.49
50.44
52.49
57.00
64.17
72.62
79.82
83.44
82.39
77.35
70.15
62.63
55.64
48.89
41.63
33.44
24.89
17.23
11.72
8.92
8.35
8.86
9.09
8.06
5.34
0.90
-5.18
-12.82
-21.87
-32.04
-42.75
-53.34
-63.34
-72.70
-81.85
-91.39
-101.57
-111.78
-120.54
-125.77
-125.42
-118.12
-103.66
-83.42
-60.29
-38.12
-20.66
-10.35
-7.29
-9.22
-12.54
-13.82
-11.24
-4.94
3.52
12.38
20.62
28.10
34.98
41.14
46.14
49.50
51.32
52.39
53.62
55.49
57.65
59.21
59.29
57.58
54.36
50.25
45.78
41.16
36.45
31.71
27.13
23.00
19.54
16.81
14.76
13.24
11.92
10.26
7.57
3.25
-2.90
-10.49
-18.61
-26.34
-33.24
-39.56
-46.17
-54.08
-63.83
-75.13
-86.87
-97.21
-104.08
-105.46
-99.86
-86.75
-66.99
-42.99
-18.29
3.29
18.89
27.54
30.27
29.33
27.09
25.06
23.72
22.99
22.92
23.89
26.31
30.02
34.17
37.65
39.93
41.56
43.90
48.23
54.66
61.83
67.53
69.90
68.40
63.93
58.09
52.20
46.68
41.06
34.72
27.38
19.32
10.98
2.44
-6.46
-15.93
-25.73
-35.08
-43.09
-49.50
-55.08
-61.38
-69.74
-80.33
-91.76
-101.50
-106.78
-105.58
-97.05
-81.67
-61.21
-38.45
-16.77
0.64
11.90
17.14
18.36
18.38
19.46
22.36
26.39
30.37
33.59
36.23
38.89
41.78
44.46
46.21
46.79
47.02
48.34
51.80
57.20
62.90
66.73
67.21
64.28
59.24
53.77
48.90
44.56
40.04
34.56
27.97
20.75
13.54
6.70
0.13
-6.52
-13.51
-20.71
-27.57
-33.37
-37.57
-40.16
-41.91
-44.42
-49.69
-59.29
-73.50
-90.75
-107.89
-121.13
-127.33
-124.94
-114.21
-96.93
-75.89
-54.26
-34.99
-20.21
-10.68
-5.43
-2.26
1.24
6.62
13.96
22.12
29.69
35.73
40.16
43.38
45.89
47.99
49.99
52.35
55.64
60.23
65.81
71.36
75.50
77.08
75.68
71.60
65.48
58.03
49.81
41.41
33.51
26.72
21.28
16.99
13.16
9.00
4.11
-1.44
-7.25
-12.90
-18.30
-23.59
-29.01
-34.69
-40.77
-47.65
-56.08
-66.87
-80.06
-94.41
-107.34
-115.74
-117.14
-110.68
-97.36
-79.51
-59.93
-41.13
-25.00
-12.67
-4.52
-0.05
2.11
3.79
6.68
11.84
19.31
28.20
37.23
45.11
50.83
53.86
54.32
52.99
51.37
51.15
53.57
58.74
65.36
71.20
74.14
73.10
68.46
61.82
55.01
49.23
44.49
39.93
34.38
27.07
18.09
8.24
-1.27
-9.27
-14.93
-17.90
-18.28
-16.75
-14.48
-13.01
-13.95
-18.40
-26.60
-37.67
-49.93
-61.62
-71.62
-79.85
-87.23
-94.96
-103.72
-113.14
-121.76
-127.56
-128.69
-123.94
-112.95
-96.31
-75.52
-52.94
-31.34
-13.39
-0.60
7.13
11.45
14.64
18.52
23.70
29.76
35.86
41.51
46.68
51.46
55.66
58.71
60.17
60.40
60.66
62.49
66.69
72.60
78.21
81.12
79.77
74.23
66.01
57.19
49.44
43.44
38.96
35.32
31.79
27.80
23.00
17.21
10.52
3.47
-3.19
-8.77
-13.12
-16.98
-21.75
-28.82
-38.85
-51.25
-64.25
-75.46
-82.55
-83.75
-78.17
-65.92
-48.35
-27.91
-7.93
8.33
18.79
23.25
23.41
21.95
21.29
22.66
25.99
30.48
35.39
40.32
45.14
49.52
52.85
54.80
55.66
56.59
59.07
63.87
70.30
76.36
79.75
78.99
74.08
66.22
56.92
47.21
37.54
28.23
19.97
13.78
10.24
8.78
7.37
3.34
-5.10
-17.72
-32.22
-45.34
-54.61
-59.72
-62.52
-65.98
-72.66
-83.45
-97.15
-110.96
-121.45
-125.57
-121.47
-108.94
-89.62
-66.64
-43.73
-24.32
-10.39
-2.05
2.30
4.88
7.68
11.67
16.83
22.70
28.78
34.68
40.11
44.51
47.31
48.34
48.08
47.69
48.39
50.81
54.60
58.70
61.94
63.65
63.83
62.85
60.95
58.02
53.79
48.15
41.43
34.19
27.05
20.37
14.10
8.00
1.85
-4.49
-11.06
-17.67
-24.11
-30.02
-35.08
-39.33
-43.39
-48.54
-56.26
-67.47
-81.75
-97.17
-110.65
-119.04
-120.15
-113.40
-99.80
-81.61
-61.63
-42.56
-26.58
-14.87
-7.29
-2.53
1.42
6.33
13.03
21.25
29.89
37.68
43.73
47.67
49.64
50.17
50.03
50.33
52.20
56.26
62.26
68.85
74.09
76.26
74.67
69.71
62.53
54.30
45.71
36.94
28.11
19.62
12.10
6.22
2.20
-0.39
-2.54
-5.23
-8.96
-13.60
-18.52
-23.11
-27.11
-30.72
-34.52
-39.19
-45.36
-53.51
-63.98
-76.64
-90.78
-104.95
-117.06
-124.83
-126.40
-120.75
-108.07
-89.83
-68.59
-47.47
-29.53
-16.83
-9.68
-6.63
-5.17
-2.80
1.90
8.95
17.23
25.33
32.26
37.68
41.80
44.99
47.52
49.65
51.72
54.11
57.12
60.70
64.28
66.91
67.64
65.85
61.56
55.40
48.46
41.90
36.52
32.55
29.55
26.68
22.99
17.92
11.57
4.72
-1.64
-6.81
-10.81
-14.61
-19.58
-26.86
-36.75
-48.49
-60.48
-70.74
-77.41
-78.95
-74.32
-63.31
-47.01
-27.86
-9.27
5.46
14.51
18.23
18.82
19.06
20.93
24.87
29.96
34.96
39.06
42.14
44.37
45.77
46.18
45.68
45.02
45.44
48.03
52.81
58.47
62.93
64.46
62.53
57.90
51.91
45.64
39.34
32.75
25.68
18.40
11.74
6.37
2.37
-0.95
-4.61
-9.49
-15.88
-23.44
-31.43
-38.99
-45.55
-50.95
-55.63
-60.67
-67.31
-76.42
-87.88
-100.29
-111.19
-117.62
-117.03
-108.20
-91.61
-69.63
-46.14
-25.36
-10.62
-3.01
-1.02
-1.24
-0.16
4.18
11.52
19.97
27.46
32.93
36.60
39.39
41.94
44.23
46.05
47.48
49.24
52.26
56.98
62.82
68.39
72.21
73.42
72.17
69.09
64.90
59.89
53.91
46.87
39.05
31.10
23.90
18.06
13.58
9.90
6.20
1.87
-3.09
-8.21
-12.84
-16.75
-20.46
-25.02
-31.30
-39.43
-48.59
-57.56
-65.53
-72.72
-80.30
-89.46
-100.34
-111.37
-119.67
-122.16
-116.89
-103.91
-85.29
-64.30
-44.39
-28.02
-16.20
-8.52
-3.61
0.10
3.73
7.76
12.16
16.83
21.89
27.65
34.20
41.08
47.20
51.39
53.23
53.47
53.89
56.28
61.32
68.12
74.50
78.12
77.69
73.71
68.15
63.37
60.94
60.77
61.34
60.54
56.76
49.59
39.76
28.44
16.75
5.47
-4.86
-13.75
-20.81
-25.98
-29.57
-32.23
-34.49
-36.38
-37.58
-37.89
-37.84
-38.86
-42.81
-51.15
-64.27
-81.32
-100.58
-119.94
-137.16
-149.80
-155.47
-152.28
-139.78
-119.62
-95.37
-71.30
-50.70
-34.65
-21.81
-9.78
3.25
17.37
31.08
42.42
50.14
54.26
55.56
54.73
51.82
46.57
39.20
31.07
24.45
21.57
23.52
29.66
38.14
46.96
54.90
61.79
67.85
73.02
76.52
77.06
73.56
65.84
54.61
41.27
27.13
12.99
-0.79
-13.84
-25.27
-33.54
-37.08
-35.30
-29.31
-21.92
-16.76
-16.79
-23.30
-35.51
-50.95
-66.31
-78.36
-84.56
-83.52
-75.30
-61.50
-44.92
-28.78
-15.54
-5.96
1.03
7.61
15.79
26.20
37.97
49.11
57.61
62.24
62.80
59.89
54.60
48.14
41.75
36.71
34.06
34.45
37.82
43.30
49.59
55.39
59.85
62.63
63.83
63.51
61.37
56.81
49.37
39.05
26.62
13.35
0.45
-11.34
-21.93
-31.47
-39.84
-46.58
-51.02
-52.91
-52.84
-52.34
-53.21
-56.82
-63.48
-72.47
-82.30
-91.09
-96.94
-98.12
-93.45
-82.82
-67.66
-50.65
-34.88
-22.55
-13.88
-7.10
0.51
11.03
24.85
40.39
55.06
66.47
73.28
75.44
73.65
68.91
62.28
54.82
47.72
42.26
39.50
40.01
43.66
49.71
57.06
64.36
70.27
73.70
73.94
70.83
64.81
56.80
47.80
38.70
30.07
22.08
14.61
7.23
-0.64
-9.55
-19.64
-30.30
-40.17
-47.66
-51.75
-52.79
-52.68
-54.14
-59.36
-68.78
-80.74
-92.08
-99.53
-100.95
-95.88
-85.30
-70.87
-54.52
-38.16
-23.62
-12.56
-5.95
-3.49
-3.46
-3.21
-0.24
6.73
17.18
29.00
39.59
47.01
50.75
51.79
51.89
52.64
54.81
58.26
62.44
66.80
71.04
74.85
77.35
77.24
73.27
65.15
54.21
43.17
34.95
31.32
32.06
35.18
38.16
39.05
37.09
32.60
26.38
19.20
11.43
3.18
-5.57
-14.94
-25.13
-36.19
-47.85
-59.31
-69.47
-77.55
-83.62
-88.72
-94.22
-101.01
-108.65
-115.48
-119.48
-118.82
-112.50
-100.37
-83.08
-62.06
-39.72
-19.14
-3.37
5.75
8.48
6.99
4.19
2.23
1.83
2.45
3.54
5.30
8.75
14.97
24.10
35.02
46.04
55.78
63.93
71.05
77.81
84.22
89.42
92.07
91.18
86.54
78.74
68.71
57.17
44.37
30.51
16.14
2.51
-8.64
-15.82
-18.49
-17.38
-14.14
-10.61
-8.11
-7.09
-7.42
-8.61
-10.28
-12.40
-15.41
-20.01
-26.99
-36.76
-49.01
-62.56
-75.52
-85.92
-92.23
-93.72
-90.31
-82.31
-70.33
-55.53
-39.69
-25.03
-13.42
-5.50
-0.54
3.18
7.12
11.87
17.08
22.18
27.17
32.76
39.69
48.00
56.64
64.10
69.41
72.70
74.96
77.15
79.34
80.51
79.24
74.47
66.10
54.90
42.21
29.54
18.27
9.50
3.62
-0.07
-3.22
-7.93
-15.64
-26.16
-37.76
-48.10
-55.62
-60.55
-64.70
-70.42
-79.12
-90.52
-102.79
-113.33
-119.63
-119.86
-113.10
-99.53
-80.71
-59.50
-39.54
-24.02
-14.25
-9.07
-5.53
-0.50
7.61
18.20
29.12
38.49
45.71
51.66
57.57
63.64
68.47
69.98
66.85
59.57
50.45
42.64
39.14
42.30
53.82
74.62
103.95
138.35
171.10
193.29
196.72
177.54
137.96
85.36
29.34
-21.76
-62.58
-90.45
-104.24
-104.12
-92.46
-74.71
-58.77
-51.95
-57.72
-73.74
-93.40
-109.90
-120.19
-125.74
-130.17
-135.45
-139.57
-138.05
-127.88
-110.71
-92.77
-81.46
-80.82
-88.69
-97.79
-99.67
-89.21
-66.52
-35.96
-3.51
26.17
50.91
70.39
84.89
94.61
99.62
100.34
97.67
92.81
86.72
79.75
72.15
64.48
58.02
54.11
53.64
56.44
61.25
66.41
70.48
72.31
71.09
66.47
58.67
48.98
39.79
34.24
35.02
42.76
55.00
66.32
70.01
60.38
34.86
-4.85
-53.43
-103.35
-146.80
-177.25
-190.74
-186.49
-167.19
-138.45
-107.14
-79.38
-58.32
-43.49
-31.53
-18.69
-3.09
14.43
31.46
46.23
59.33
73.68
92.64
117.97
148.59
181.15
211.62
236.56
253.66
261.04
256.78
238.73
205.48
157.78
99.37
36.72
-22.85
-73.26
-111.48
-137.74
-154.69
-165.85
-174.49
-182.79
-191.74
-201.24
-210.21
-217.15
-220.61
-219.61
-214.02
-204.35
-191.15
-174.55
-154.37
-130.53
-103.69
-75.31
-46.60
-17.45
14.10
51.35
97.62
154.73
222.09
296.22
371.23
439.71
494.00
528.14
539.19
528.18
499.58
459.68
414.57
368.75
324.79
283.92
246.83
213.74
184.23
156.71
128.47
96.42
58.11
12.96
-36.87
-86.36
-128.53
-156.46
-165.58
-155.56
-130.79
-99.07
-68.71
-45.64
-31.58
-24.61
-21.40
-19.69
-19.47
-22.24
-28.93
-38.03
-45.30
-45.11
-32.93
-7.25
29.68
72.70
115.54
152.76
181.05
199.38
208.65
210.94
208.67
203.90
197.97
191.38
184.30
176.80
169.06
161.22
153.08
143.82
132.31
117.47
98.98
77.49
54.45
31.65
10.58
-7.94
-23.88
-37.75
-50.21
-61.69
-72.20
-81.39
-88.71
-93.71
-96.20
-96.36
-94.68
-91.86
-88.64
-85.58
-83.04
-81.04
-79.34
-77.58
-75.41
-72.81
-70.19
-68.40
-68.50
-71.36
-77.39
-86.30
-97.23
-109.14
-121.32
-133.82
-147.43
-163.42
-182.94
-206.46
-233.49
-262.91
-293.24
-323.39
-352.97
-382.33
-412.57
-445.44
-483.34
-528.68
-582.61
-643.22
-704.49
-756.85
-789.74
-795.43
-772.06
-724.49
-662.19
-595.32
-531.04
-471.70
-415.65
-359.72
-301.73
-241.79
-181.88
-124.44
-70.82
-20.67
27.79
76.80
127.97
181.57
236.99
293.46
350.79
408.88
466.28
518.88
560.39
585.04
591.23
583.62
571.69
565.09
568.52
578.97
587.65
585.06
566.24
533.03
492.19
451.09
413.91
380.61
347.98
313.64
278.22
244.70
216.01
193.06
174.52
157.74
140.27
120.12
97.34
73.84
52.02
33.26
17.35
2.91
-11.67
-27.48
-46.78
-70.38
-97.03
-124.68
-152.26
-180.02
-208.59
-238.20
-268.29
-303.49
-346.05
-393.47
-440.72
-485.22
-528.30
-573.27
-622.68
-675.87
-739.36
-810.94
-876.26
-916.36
-920.25
-889.29
-833.01
-763.06
-688.70
-632.86
-605.99
-598.08
-587.36
-558.22
-508.18
-444.94
-381.02
-329.47
-324.05
-383.01
-496.30
-635.70
-776.71
-906.99
-1021.63
-1117.08
-1040.62
-732.89
-272.10
192.13
559.39
806.28
951.73
1026.65
1059.74
1071.94
1052.11
992.73
905.31
814.49
739.08
684.93
649.40
627.27
613.55
586.22
533.11
461.08
389.05
331.79
293.82
272.77
264.42
264.55
258.27
236.85
203.62
169.54
143.02
126.03
116.20
110.72
106.68
96.41
75.72
46.72
15.52
-12.94
-36.91
-57.00
-73.48
-87.08
-100.37
-114.62
-128.67
-139.57
-144.29
-139.82
-131.49
-120.98
-109.46
-97.63
-85.89
-74.41
-63.30
-52.75
-43.04
-34.72
-27.13
-19.98
-13.04
-6.11
1.00
8.33
15.77
22.99
29.47
35.57
41.52
47.60
54.15
61.43
69.41
77.68
85.37
91.51
95.80
97.98
98.17
96.92
95.11
93.47
92.29
91.32
90.22
89.07
88.28
88.84
92.21
99.87
112.65
130.30
151.62
175.44
200.74
226.81
253.43
281.02
310.71
344.16
383.16
428.83
481.80
539.17
593.71
635.26
654.50
646.51
612.20
557.80
491.94
425.38
365.05
311.98
262.46
211.81
157.27
98.50
36.68
-26.72
-85.70
-135.54
-174.36
-202.41
-219.25
-222.82
-211.39
-185.82
-150.27
-104.81
-50.77
7.88
65.47
117.92
164.10
204.56
239.84
231.68
162.02
43.29
-90.22
-207.83
-296.25
-355.92
-392.65
-412.84
-421.71
-415.07
-391.08
-351.96
-304.08
-254.24
-206.57
-162.29
-120.75
-79.88
-43.15
-10.19
19.45
44.68
63.13
70.84
62.85
35.24
-12.02
-71.03
-129.98
-179.32
-214.49
-235.27
-243.31
-238.80
-221.65
-193.00
-155.20
-112.63
-72.42
-43.51
-29.64
-28.44
-34.04
-41.06
-46.49
-49.36
-49.71
-48.39
-46.39
-44.17
-42.03
-40.17
-38.90
-38.37
-37.98
-36.85
-34.57
-31.33
-27.44
-23.32
-18.70
-13.96
-9.12
-3.22
4.27
12.83
21.07
27.63
31.72
33.52
33.82
33.75
35.73
40.74
47.98
55.45
61.05
63.76
64.00
63.13
63.00
67.59
79.87
100.91
129.14
160.57
189.56
210.37
218.92
201.82
157.28
93.94
27.27
-28.49
-66.52
-88.07
-98.62
-103.59
-105.75
-103.48
-95.48
-82.81
-69.34
-59.26
-54.96
-56.01
-60.00
-63.75
-63.49
-57.94
-48.65
-39.69
-34.71
-36.25
-43.12
-52.51
-61.20
-66.03
-66.07
-62.89
-60.30
-61.51
-68.32
-80.71
-97.64
-117.34
-136.90
-152.82
-156.91
-146.39
-121.33
-85.16
-44.08
-5.32
25.37
45.71
56.55
60.42
59.30
54.69
47.84
40.54
35.34
34.88
40.48
51.07
64.05
75.24
81.91
84.08
84.34
86.36
92.92
105.03
121.84
138.94
153.36
161.31
158.25
140.31
106.96
63.09
18.92
-13.54
-26.12
-18.80
-0.30
16.55
21.50
12.13
-6.05
-23.70
-33.55
-34.10
-29.11
-24.28
-22.95
-24.49
-25.41
-22.30
-14.54
-4.60
3.60
7.05
4.71
-1.91
-10.03
-16.38
-19.32
-19.20
-17.89
-17.66
-20.07
-25.29
-31.37
-36.89
-40.15
-40.39
-37.95
-34.06
-30.10
-27.17
-25.73
-25.54
-26.03
-26.43
-26.21
-25.16
-23.35
-21.00
-18.55
-16.54
-15.47
-15.74
-17.27
-19.59
-21.87
-23.46
-23.54
-22.17
-20.23
-19.05
-19.85
-23.07
-28.12
-33.53
-37.61
-39.28
-38.59
-36.70
-35.18
-35.37
-38.00
-42.96
-49.92
-57.97
-64.88
-66.88
-59.60
-40.46
-10.06
26.11
59.47
81.81
88.82
81.92
66.90
50.71
38.22
30.75
26.81
24.45
22.91
22.86
25.41
30.68
37.45
43.73
48.19
50.00
49.80
49.00
49.15
51.08
54.33
57.59
59.07
57.25
51.34
41.96
30.40
18.34
7.11
-2.54
-10.55
-17.18
-22.63
-26.93
-29.62
-30.25
-28.39
-24.01
-17.49
-9.55
-1.02
7.35
15.14
22.37
28.97
35.07
40.84
46.38
51.70
56.86
61.97
67.13
72.73
78.50
84.36
90.31
96.34
102.52
108.89
115.53
122.64
130.54
138.54
146.23
153.19
159.12
163.73
166.76
168.12
167.86
166.35
162.79
156.77
148.07
136.48
121.65
102.96
79.18
47.97
15.11
-17.21
-47.29
-73.78
-95.57
-111.80
-121.88
-125.50
-122.58
-113.18
-98.85
-81.00
-60.96
-40.03
-19.37
0.02
17.49
32.76
46.12
57.30
66.65
74.90
83.04
92.12
103.15
117.07
134.61
156.33
181.79
210.20
240.31
270.35
298.19
321.46
337.90
345.75
343.82
331.77
310.47
281.81
247.98
210.99
172.39
133.22
94.08
55.15
16.65
-21.01
-57.24
-91.85
-125.28
-158.43
-192.27
-227.38
-264.23
-301.84
-337.92
-369.72
-395.26
-414.08
-427.19
-436.23
-442.72
-449.19
-455.83
-460.77
-461.42
-457.06
-449.93
-444.65
-446.81
-461.60
-496.69
-555.11
-633.30
-722.06
-809.43
-883.74
-935.72
-960.26
-957.69
-939.46
-915.54
-889.67
-859.62
-821.66
-774.56
-720.35
-663.02
-606.60
-561.42
-529.16
-501.12
-463.23
-404.28
-320.35
-213.79
-90.63
89.94
327.24
582.77
801.73
948.82
1021.64
1038.57
1022.16
989.00
946.79
887.51
805.23
704.46
598.30
501.02
422.04
364.46
325.79
310.42
306.14
299.69
284.27
261.65
237.75
217.46
202.36
190.80
179.60
160.96
132.73
99.64
69.82
49.50
40.06
38.87
41.69
44.91
43.75
37.36
28.58
21.36
19.07
22.09
28.46
35.39
40.58
41.55
37.86
30.75
21.98
12.67
2.62
-9.14
-23.52
-40.87
-60.95
-82.67
-104.43
-124.64
-142.25
-156.32
-166.85
-174.07
-178.17
-178.96
-175.96
-169.16
-159.14
-146.91
-133.73
-120.77
-108.90
-98.67
-89.11
-79.21
-68.46
-57.27
-46.69
-37.86
-31.56
-28.04
-27.12
-25.87
-21.44
-12.27
1.21
17.08
33.15
47.83
60.42
70.71
82.83
100.54
125.56
156.42
189.46
220.98
248.81
272.74
293.98
319.83
357.38
410.91
480.15
561.07
648.63
738.73
828.78
883.71
877.48
800.37
666.03
503.21
339.98
193.74
70.97
-28.99
-109.79
-170.50
-210.22
-229.91
-233.89
-228.86
-221.45
-216.18
-215.43
-219.47
-223.65
-223.28
-215.71
-201.65
-184.41
-167.84
-154.66
-146.37
-142.91
-141.01
-137.36
-129.92
-118.90
-106.18
-94.28
-83.44
-75.60
-70.92
-67.41
-62.92
-56.08
-46.94
-36.74
-27.43
-20.39
-16.29
-14.08
-11.56
-6.30
3.01
15.96
30.96
45.47
58.09
68.91
80.34
95.36
115.19
137.52
156.34
164.49
155.64
128.13
84.69
31.97
-22.05
-70.40
-108.33
-133.50
-140.63
-128.06
-99.02
-63.96
-36.58
-27.66
-39.41
-63.20
-83.43
-84.62
-61.45
-20.22
22.82
51.52
58.27
46.03
25.10
6.17
-4.16
-6.60
5.14
33.33
75.11
124.20
174.38
221.88
259.76
287.45
303.09
305.78
294.82
271.10
241.43
211.01
182.87
157.30
133.52
109.70
85.26
59.96
34.69
11.10
-10.11
-29.19
-47.37
-65.33
-83.53
-101.21
-118.11
-133.46
-147.25
-160.58
-175.06
-192.32
-213.33
-238.45
-266.49
-295.11
-319.76
-335.78
-340.62
-335.40
-325.30
-317.01
-315.18
-318.84
-321.40
-311.10
-277.88
-217.07
-131.67
-31.48
70.17
159.90
227.32
264.87
274.02
259.22
228.90
193.16
160.72
136.51
120.63
109.33
93.93
74.75
50.30
21.54
-9.55
-41.27
-72.84
-104.30
-135.86
-173.07
-209.13
-244.89
-282.36
-324.09
-371.23
-421.58
-468.74
-503.37
-523.75
-515.92
-480.69
-424.28
-355.34
-281.22
-205.68
-129.37
-6.10
98.85
189.38
257.98
299.04
311.87
301.42
276.12
244.42
212.07
173.58
137.07
101.34
66.02
31.46
-2.52
-37.85
-78.33
-128.04
-194.50
-268.47
-342.67
-406.69
-450.80
-469.63
-464.15
-440.78
-408.12
-376.65
-345.05
-312.48
-276.74
-237.01
-194.99
-153.91
-116.15
-81.18
-47.28
-7.53
42.01
102.83
173.53
249.83
325.12
390.62
436.68
454.84
443.02
406.14
356.81
311.78
285.79
285.89
309.22
345.78
384.77
419.96
451.47
483.01
516.74
549.51
573.30
579.25
562.62
526.28
478.94
431.01
389.76
357.04
329.84
303.55
274.83
242.47
208.89
176.31
146.38
119.12
93.44
67.49
39.52
8.09
-28.95
-70.04
-114.71
-162.50
-214.09
-271.02
-334.25
-401.89
-467.85
-524.71
-560.73
-571.21
-558.65
-532.85
-505.38
-483.56
-467.05
-449.49
-425.72
-388.07
-337.37
-277.86
-215.62
-153.31
-89.09
-19.25
73.04
159.20
233.43
286.20
312.80
312.16
289.32
253.83
215.84
181.70
149.93
121.42
93.62
65.63
33.80
-5.24
-53.58
-111.54
-179.06
-258.31
-347.19
-445.24
-521.89
-551.47
-524.98
-453.94
-357.78
-253.19
-153.58
-66.98
0.40
47.37
73.63
82.48
79.97
72.73
65.09
58.24
52.84
50.23
52.56
58.48
65.60
71.87
76.50
79.03
79.63
79.11
78.99
81.58
87.41
96.68
110.10
129.43
151.36
174.49
197.69
220.79
244.62
269.47
295.80
324.52
357.26
395.54
440.44
490.17
539.60
580.78
604.82
605.39
581.33
537.19
481.12
422.22
366.79
317.47
274.02
235.25
200.52
169.98
143.93
121.81
102.39
83.86
64.91
45.41
26.41
9.68
-3.29
-11.98
-17.07
-19.85
-21.79
-23.80
-25.86
-27.07
-26.18
-22.17
-14.69
-4.21
8.34
21.88
35.58
49.07
62.29
75.21
87.47
98.21
106.18
110.00
108.55
101.37
88.71
71.47
50.90
28.21
4.43
-19.64
-43.33
-65.95
-86.61
-104.40
-118.59
-128.94
-135.97
-140.84
-145.17
-150.47
-157.70
-166.95
-177.64
-188.83
-199.86
-210.81
-222.55
-236.42
-253.59
-274.51
-298.60
-324.62
-351.16
-377.32
-403.10
-429.38
-457.64
-489.75
-527.82
-573.61
-627.56
-687.19
-746.42
-796.14
-826.66
-831.07
-807.96
-762.05
-702.14
-637.64
-575.24
-517.57
-463.96
-412.53
-362.15
-313.07
-266.43
-223.05
-182.67
-143.96
-105.12
-64.70
-22.00
22.58
67.95
112.82
156.32
198.18
238.95
279.64
321.28
364.73
410.78
460.63
515.61
576.36
641.26
705.35
760.68
798.45
812.23
800.52
767.45
720.95
669.60
619.65
573.82
532.00
493.08
456.46
422.40
391.41
363.35
337.03
310.67
282.83
253.11
222.35
192.39
165.18
142.07
123.30
108.01
94.63
81.42
67.21
51.58
35.00
18.35
2.44
-12.53
-27.31
-43.53
-63.15
-87.88
-118.43
-154.25
-193.56
-234.15
-274.04
-312.19
-348.71
-384.60
-421.25
-460.25
-503.29
-551.92
-606.65
-665.68
-724.05
-774.01
-807.10
-817.05
-802.43
-767.30
-719.46
-667.61
-618.42
-575.31
-538.85
-508.22
-482.39
-460.38
-440.85
-421.73
-400.48
-375.01
-344.55
-309.88
-272.62
-234.22
-194.92
-153.65
-108.72
-59.10
-5.33
50.27
104.42
154.19
198.18
237.14
273.39
309.73
348.47
390.55
435.20
479.80
519.93
550.19
565.50
562.78
542.68
510.14
473.53
442.00
422.04
414.96
416.52
419.57
418.09
410.74
401.40
396.49
400.50
412.35
425.13
429.21
417.18
387.55
345.12
298.09
253.57
214.67
180.30
147.30
113.35
78.30
43.59
10.51
-21.78
-56.46
-97.47
-146.65
-201.45
-254.53
-296.06
-317.96
-317.80
-300.63
-277.03
-258.34
-251.72
-257.08
-267.76
-274.22
-268.80
-248.52
-215.50
-174.86
-132.35
-92.57
-58.47
-31.46
-11.69
2.15
12.78
23.45
36.70
53.10
71.16
88.04
101.15
109.40
113.19
114.00
113.20
111.69
110.00
108.44
107.16
105.52
102.01
94.74
82.42
65.13
44.41
22.66
1.96
-16.37
-32.18
-46.06
-59.17
-73.04
-89.08
-107.52
-126.54
-141.90
-147.86
-139.48
-115.03
-77.46
-33.42
8.92
42.67
64.24
73.54
73.15
66.78
58.29
50.97
47.12
47.44
51.15
56.21
60.39
62.57
63.32
64.76
69.02
76.86
86.92
96.60
103.58
107.26
109.18
111.97
117.51
125.73
134.62
141.26
143.40
140.23
132.16
120.47
106.44
90.90
73.87
54.87
32.84
6.97
-22.82
-55.22
-87.25
-115.20
-135.90
-148.28
-153.98
-156.69
-160.14
-166.00
-172.38
-174.19
-165.85
-144.12
-110.22
-69.51
-29.73
2.24
22.43
30.57
29.23
21.90
11.73
1.43
-6.12
-7.36
1.27
21.29
50.89
84.88
115.61
135.15
137.80
121.59
88.41
43.05
-9.61
-63.93
-113.66
-152.73
-176.71
-184.15
-177.00
-159.89
-138.64
-121.08
-111.87
-110.89
-114.46
-118.47
-120.97
-122.46
-125.02
-130.40
-143.06
-163.91
-189.51
-214.24
-233.82
-247.07
-254.61
-257.34
-255.62
-255.33
-260.68
-272.18
-286.84
-300.95
-311.87
-318.42
-320.79
-286.61
-204.73
-89.79
27.67
123.83
191.39
233.88
258.09
269.92
273.91
267.77
250.73
225.92
199.15
175.42
156.49
141.88
130.31
120.77
108.52
91.17
70.10
49.38
32.71
21.50
15.24
12.38
12.27
11.57
8.13
2.08
-4.73
-10.68
-15.44
-19.76
-24.16
-29.08
-36.14
-46.14
-58.57
-72.05
-85.26
-97.60
-109.11
-119.34
-127.98
-135.27
-141.17
-145.04
-145.75
-141.75
-131.05
-116.72
-99.77
-80.86
-60.60
-39.57
-18.29
2.64
22.62
40.94
56.81
70.26
81.19
89.48
95.11
98.15
98.73
97.09
93.42
87.86
81.09
73.59
65.63
57.40
48.94
40.23
31.20
21.74
11.71
1.41
-8.89
-18.90
-28.29
-36.75
-43.99
-49.82
-54.17
-57.14
-58.81
-59.44
-59.43
-59.23
-59.29
-60.04
-61.83
-64.87
-69.23
-74.79
-81.25
-88.23
-95.27
-101.91
-107.73
-112.41
-115.75
-117.64
-118.09
-117.14
-114.88
-111.41
-106.81
-101.19
-94.73
-87.62
-80.08
-72.30
-64.38
-56.35
-48.13
-39.68
-30.96
-22.08
-13.26
-4.80
3.01
10.01
16.20
21.75
26.84
31.60
35.95
39.64
42.34
43.92
44.60
45.09
46.45
49.83
56.06
65.35
77.22
90.71
104.85
119.07
133.50
148.88
166.12
185.80
207.74
231.09
254.55
277.09
298.37
318.99
340.33
364.32
392.91
427.63
468.76
514.61
561.27
602.78
632.37
644.13
634.45
602.89
551.96
486.62
413.04
337.21
263.82
195.70
134.20
80.30
35.68
2.70
-16.95
-24.08
-22.98
-20.59
-23.94
-37.25
-60.87
-92.16
-127.88
-166.17
-206.97
-250.64
-296.27
-340.86
-380.02
-409.61
-426.87
-430.79
-421.79
-401.22
-371.22
-334.53
-294.40
-253.71
-214.45
-177.28
-141.78
-107.07
-72.29
-36.83
-0.07
38.56
79.38
121.77
163.89
202.76
235.58
261.18
280.90
298.07
316.62
339.24
366.31
395.78
423.94
446.41
459.07
458.59
442.91
411.68
366.45
310.42
247.62
182.23
117.99
58.36
6.48
-35.22
-65.95
-87.69
-105.27
-124.85
-151.56
-187.63
-231.65
-279.48
-326.10
-367.53
-401.89
-429.21
-450.52
-466.56
-476.97
-480.14
-473.95
-456.80
-428.73
-391.84
-349.82
-306.85
-266.37
-230.36
-199.54
-174.14
-154.68
-141.91
-136.13
-136.31
-139.72
-142.50
-140.75
-131.81
-115.08
-91.79
-64.30
-35.11
-6.20
21.26
46.73
70.19
92.09
113.38
135.82
161.81
194.04
234.40
282.30
333.57
380.28
412.61
421.87
403.80
360.48
300.08
234.27
174.58
129.35
102.40
93.38
99.33
116.26
140.00
166.49
191.77
212.10
224.38
226.66
218.55
201.28
177.47
150.23
122.37
95.85
71.55
49.79
30.96
15.91
6.00
2.40
5.31
13.14
22.65
29.67
30.78
24.63
12.52
-2.11
-15.13
-23.30
-25.06
-20.44
-10.39
4.07
22.29
44.27
70.58
102.10
139.16
180.64
223.18
261.13
287.79
297.57
288.21
261.66
223.45
180.54
138.88
101.93
70.68
44.55
22.79
4.74
-10.39
-24.02
-37.90
-53.09
-68.94
-82.84
-91.20
-91.49
-83.88
-71.59
-59.27
-50.32
-44.75
-38.79
-26.84
-4.63
28.25
67.90
108.01
142.79
169.22
187.60
200.28
209.50
215.93
218.45
215.32
205.82
191.27
174.71
159.63
148.42
141.42
137.10
133.15
127.80
120.72
112.95
106.19
101.63
99.29
97.86
95.16
89.23
78.99
64.79
48.13
31.05
15.24
1.48
-10.50
-21.68
-33.18
-45.66
-59.25
-73.59
-88.08
-101.83
-113.52
-121.49
-124.19
-120.99
-112.82
-102.19
-92.29
-85.77
-83.56
-84.74
-87.35
-89.64
-91.09
-92.48
-95.18
-100.07
-107.02
-114.96
-122.67
-129.60
-136.28
-144.08
-154.69
-169.30
-188.05
-210.00
-233.66
-257.65
-281.26
-304.64
-328.53
-353.81
-381.31
-411.95
-446.99
-487.55
-533.51
-582.07
-627.07
-659.96
-672.37
-659.24
-620.90
-562.97
-494.14
-422.78
-354.49
-291.24
-232.18
-175.39
-118.98
-61.06
0.81
69.65
147.88
235.08
326.39
412.77
483.47
529.96
549.32
545.27
526.21
501.59
478.33
459.13
443.19
428.28
412.84
396.73
380.82
365.82
351.61
337.32
321.35
302.91
282.42
261.46
241.68
223.97
208.16
193.20
177.72
160.05
139.46
116.53
92.90
70.40
50.33
33.08
18.25
4.94
-9.30
-26.03
-45.19
-65.15
-83.80
-99.59
-111.94
-121.17
-128.29
-138.73
-156.27
-181.11
-209.90
-238.05
-262.14
-280.67
-293.91
-303.46
-320.12
-351.68
-398.95
-455.82
-513.78
-566.61
-611.55
-648.63
-679.54
-720.20
-781.76
-865.17
-962.07
-1061.66
-1156.48
-1242.17
-1314.56
-1368.21
-1414.86
-1462.16
-1509.03
-1547.47
-1569.96
-1575.24
-1566.91
-1549.53
-1416.65
-1121.04
-691.01
-217.27
209.12
542.04
778.03
935.07
1035.51
1098.08
1118.34
1091.95
1027.93
944.34
860.79
790.11
737.06
701.01
678.75
652.97
611.87
555.25
491.55
432.70
386.58
355.49
337.98
330.96
322.58
304.52
275.75
241.53
209.33
184.04
167.02
157.34
153.14
148.27
138.38
122.75
103.72
84.80
68.28
54.83
44.08
35.31
26.32
15.69
3.37
-9.61
-21.77
-32.09
-40.24
-46.31
-50.58
-53.39
-55.10
-56.01
-56.42
-56.54
-56.48
-56.31
-56.04
-55.66
-55.13
-54.39
-53.37
-52.01
-50.17
-47.73
-44.61
-40.77
-36.25
-31.15
-25.67
-20.02
-14.35
-8.78
-3.34
1.94
7.06
11.92
16.31
20.00
22.80
24.64
25.68
26.25
26.78
27.61
28.88
30.49
32.16
33.64
34.94
36.44
38.87
43.07
49.65
58.73
69.82
82.08
94.60
106.95
119.38
132.76
148.19
166.41
187.43
210.37
233.98
257.11
279.35
301.21
323.84
348.56
376.49
408.43
444.71
484.87
527.02
567.60
601.65
624.04
631.02
621.28
596.15
558.58
511.83
458.58
400.96
341.01
281.29
224.53
172.73
126.14
82.66
38.13
-12.54
-73.53
-146.19
-227.44
-309.40
-381.14
-431.85
-454.71
-449.35
-421.84
-381.97
-339.18
-299.30
-263.32
-228.36
-190.18
-145.52
-93.99
-38.71
14.08
56.19
79.11
76.02
43.78
-15.45
-94.04
-179.79
-258.55
-317.43
-347.89
-347.71
-321.04
-276.64
-224.91
-174.99
-132.97
-101.67
-81.45
-71.16
-68.61
-70.40
-72.21
-69.46
-58.53
-37.88
-8.26
28.07
68.49
111.02
154.31
196.76
235.84
268.41
292.02
306.65
315.54
324.48
339.42
363.73
396.17
431.03
460.30
476.79
476.73
460.55
431.70
394.57
352.46
306.91
258.41
207.71
156.60
107.98
64.44
26.73
-7.17
-41.75
-82.66
-134.89
-200.81
-278.86
-362.98
-443.49
-509.43
-551.77
-566.41
-555.36
-525.61
-485.87
-442.92
-399.54
-354.66
-305.36
-249.23
-186.01
-118.17
-50.50
10.65
58.53
87.71
96.12
86.81
67.72
49.08
39.51
42.75
57.20
78.14
101.67
127.20
157.32
195.24
241.96
295.03
349.68
401.09
446.18
483.60
512.68
531.97
539.01
531.52
509.04
473.89
430.80
385.35
342.38
304.72
272.99
245.98
221.48
197.17
171.27
143.23
113.59
83.82
55.46
29.30
5.11
-18.46
-43.04
-69.90
-99.25
-130.17
-161.14
-190.95
-219.46
-247.99
-278.79
-313.78
-353.42
-395.92
-437.37
-472.60
-496.47
-505.01
-496.32
-471.17
-433.34
-389.40
-347.80
-316.76
-301.88
-304.24
-320.10
-342.58
-364.52
-381.04
-390.72
-394.72
-394.88
-392.03
-385.40
-373.56
-355.65
-332.24
-305.15
-276.45
-247.31
-217.62
-186.51
-153.19
-117.69
-81.07
-44.74
-9.71
24.08
57.94
93.94
134.18
179.82
230.33
283.07
333.62
376.74
407.91
424.93
428.65
422.64
411.79
400.28
390.16
381.07
371.23
359.12
344.65
329.42
315.71
305.33
298.80
295.52
294.54
295.44
298.68
305.31
315.80
329.18
342.69
352.37
354.31
346.07
327.59
301.12
270.28
238.72
208.94
181.63
156.00
130.69
104.87
78.88
54.19
32.65
15.54
2.96
-6.25
-14.02
-22.35
-32.53
-44.77
-58.35
-72.00
-84.49
-95.09
-103.76
-111.17
-118.34
-126.32
-135.79
-146.84
-159.05
-171.80
-184.89
-198.70
-214.25
-232.74
-255.02
-281.39
-311.95
-347.17
-387.91
-434.62
-485.66
-536.48
-579.50
-606.25
-610.16
-588.98
-545.44
-485.77
-417.20
-345.73
-275.36
-208.94
-149.66
-101.45
-67.92
-50.27
-45.54
-47.21
-47.98
-43.81
-36.60
-33.51
-42.68
-67.73
-104.37
-141.43
-166.03
-169.86
-152.92
-122.52
-88.65
-58.37
-32.75
-7.96
21.36
58.59
103.98
155.42
209.95
264.42
315.14
357.02
384.22
391.82
377.77
343.91
295.00
236.24
170.96
100.10
24.12
-54.20
-128.29
-189.11
-228.79
-244.38
-239.44
-222.07
-200.91
-181.02
-162.41
-141.20
-113.05
-75.78
-30.14
21.28
75.44
129.43
179.97
222.52
251.66
262.40
252.22
222.14
176.38
120.80
60.69
-0.44
-60.42
-116.82
-165.74
-201.91
-220.55
-219.88
-202.37
-174.13
-142.14
-111.07
-81.60
-50.64
-13.71
32.40
87.95
149.94
212.96
270.53
316.21
344.61
352.32
338.78
306.58
260.48
206.00
147.41
86.63
23.58
-42.26
-109.49
-173.52
-227.26
-263.80
-279.76
-277.28
-263.25
-246.03
-231.39
-219.69
-206.70
-186.73
-156.45
-116.82
-71.95
-25.85
20.51
69.61
124.92
186.96
250.87
307.05
344.38
355.00
337.33
296.57
242.09
183.43
126.46
72.04
17.27
-41.09
-103.16
-164.63
-218.08
-256.51
-276.52
-279.65
-270.87
-255.49
-236.53
-213.52
-184.42
-147.90
-105.19
-59.80
-15.35
27.02
69.97
118.63
177.35
246.05
318.59
383.97
429.94
447.94
436.25
400.47
350.61
296.90
245.92
199.29
154.94
109.55
60.80
8.07
-47.71
-104.87
-161.38
-214.87
-262.48
-301.03
-327.61
-339.83
-336.61
-318.41
-287.18
-245.92
-197.88
-145.70
-91.07
-35.06
20.79
73.38
117.82
148.24
159.64
149.68
119.32
72.33
14.14
-48.78
-109.58
-161.62
-199.47
-220.34
-224.82
-216.55
-200.37
-180.10
-157.01
-129.94
-96.60
-55.17
-5.27
51.76
112.85
173.20
226.41
265.25
283.41
277.62
249.17
203.35
147.07
85.68
21.13
-47.39
-120.63
-196.01
-266.47
-322.33
-355.33
-362.43
-347.19
-317.77
-283.11
-249.19
-217.40
-185.70
-151.24
-112.43
-69.45
-23.49
24.23
72.27
118.16
157.82
186.27
199.60
197.01
181.43
158.47
134.11
112.72
96.05
83.64
74.03
65.72
57.56
49.21
41.47
36.34
36.64
45.02
62.26
86.19
112.04
133.93
147.23
150.49
145.90
137.99
131.56
129.68
132.64
138.34
143.51
145.22
141.78
132.87
118.98
100.95
79.81
57.18
35.58
18.19
8.04
6.64
13.43
26.09
41.50
57.01
71.17
83.52
93.71
101.12
104.88
104.42
100.52
95.47
92.50
94.67
103.68
119.15
139.06
160.66
181.85
201.65
219.78
235.62
247.41
252.24
247.10
230.65
204.25
171.65
137.55
105.14
74.78
44.37
10.77
-27.89
-71.05
-115.77
-157.80
-193.11
-219.12
-235.00
-241.16
-239.48
-233.40
-227.76
-227.73
-236.22
-252.35
-271.77
-288.89
-299.33
-302.14
-299.88
-296.72
-295.48
-295.73
-294.35
-288.02
-275.30
-256.41
-232.56
-204.53
-172.55
-136.57
-96.96
-55.52
-15.24
15.29
27.92
19.03
-7.34
-42.63
-78.31
-109.05
-133.35
-152.22
-165.67
-175.43
-182.13
-183.89
-179.16
-167.43
-149.47
-126.78
-100.47
-74.09
-49.13
-25.68
-0.69
28.13
61.50
98.00
134.92
169.62
200.35
227.16
251.26
277.68
310.43
351.45
399.68
451.90
504.58
555.09
602.50
624.42
605.85
542.30
444.07
330.09
218.10
118.80
35.74
-31.76
-86.18
-126.79
-153.44
-166.54
-168.90
-165.16
-160.07
-157.12
-158.00
-162.95
-166.18
-165.44
-158.84
-146.79
-131.74
-116.68
-103.98
-94.76
-89.03
-84.26
-78.20
-68.01
-52.39
-31.48
-6.45
20.64
47.01
69.63
87.12
94.39
90.98
78.93
61.87
43.73
27.41
14.12
3.57
-4.92
-12.17
-17.67
-21.12
-22.73
-23.23
-23.60
-24.55
-26.27
-28.48
-30.79
-32.25
-32.54
-31.92
-31.04
-30.52
-30.70
-31.46
-32.38
-33.05
-32.81
-31.54
-29.49
-27.17
-25.11
-23.66
-22.91
-22.70
-22.70
-22.34
-21.19
-19.08
-16.14
-12.83
-9.77
-7.49
-6.30
-6.10
-6.50
-7.01
-7.27
-7.14
-6.66
-6.00
-5.29
-4.72
-4.43
-4.63
-5.46
-6.91
-8.73
-10.46
-11.59
-11.78
-11.02
-9.66
-8.23
-7.22
-6.89
-7.22
-7.93
-8.63
-8.88
-8.44
-7.28
-5.63
-3.94
-2.74
-2.38
-2.89
-3.99
-5.14
-5.80
-5.68
-4.84
-3.67
-2.65
-2.22
-2.57
-3.66
-5.33
-7.31
-9.31
-10.95
-11.92
-12.03
-11.33
-10.16
-9.07
-8.55
-8.86
-9.89
-11.28
-12.63
-13.66
-14.36
-14.85
-15.30
-15.78
-16.30
-16.84
-17.44
-18.16
-19.03
-20.00
-20.97
-21.80
-22.38
-22.68
-22.75
-22.72
-22.74
-22.93
-23.35
-23.93
-24.54
-25.01
-25.26
-25.35
-25.44
-25.73
-26.32
-27.16
-28.00
-28.54
-28.52
-27.83
-26.56
-24.95
-23.25
-21.62
-20.09
-18.54
-16.85
-14.99
-13.02
-11.10
-9.35
-7.82
-6.44
-5.14
-3.88
-2.75
-1.84
-1.23
-0.85
-0.50
-0.01
0.73
1.61
2.43
2.98
3.19
3.12
2.95
2.80
2.71
2.60
2.37
1.95
1.38
0.75
0.19
-0.26
-0.61
-0.94
-1.38
-2.02
-2.91
-3.97
-5.02
-5.85
-6.21
-5.95
-5.02
-3.53
-1.69
0.19
1.81
2.96
3.58
3.76
3.71
3.68
3.88
4.43
5.29
6.34
7.34
8.05
8.30
8.03
7.35
6.50
5.80
5.43
5.44
5.71
6.07
6.40
6.69
6.98
7.25
7.44
7.38
6.96
6.20
5.27
4.43
3.84
3.53
3.32
2.97
2.29
1.25
0.03
-1.07
-1.83
-2.14
-2.12
-2.08
-2.35
-3.24
-4.89
-7.16
-9.66
-11.77
-12.86
-12.48
-10.62
-7.77
-4.83
-2.81
-2.48
-4.00
-6.93
-10.38
-13.43
-15.59
-17.08
-18.81
-22.12
-28.28
-37.91
-50.75
-65.59
-80.62
-93.92
-104.03
-110.27
-112.81
-112.51
-110.56
-107.96
-105.01
-101.08
-94.80
-84.90
-70.96
-53.98
-35.97
-18.98
-4.05
9.35
22.70
37.29
53.30
69.74
85.13
98.65
110.64
121.94
133.00
142.93
149.64
151.13
147.05
139.25
131.21
126.52
127.15
132.57
140.00
145.54
145.70
138.68
124.39
104.26
80.40
54.96
30.16
7.93
-10.32
-24.06
-33.86
-41.95
-51.75
-65.01
-82.08
-100.58
-116.54
-126.98
-131.23
-129.98
-125.26
-118.82
-111.83
-104.62
-97.15
-89.84
-84.31
-82.89
-86.45
-96.59
-111.09
-125.34
-132.81
-127.02
-104.69
-67.78
-23.00
22.59
61.76
90.16
107.40
117.13
124.88
135.85
154.06
178.51
210.86
249.98
291.27
326.75
347.80
347.99
324.96
281.01
212.53
129.45
48.07
-17.67
-63.52
-92.35
-108.59
-115.35
-114.87
-108.93
-98.41
-86.53
-77.08
-73.36
-75.34
-79.85
-83.27
-84.91
-84.00
-80.64
-77.45
-77.62
-84.62
-99.21
-119.17
-137.62
-150.54
-153.16
-140.04
-111.84
-68.19
-14.65
40.22
87.03
116.84
123.66
107.21
72.31
25.60
-26.70
-82.28
-139.37
-191.43
-231.09
-251.80
-249.14
-222.73
-177.66
-116.77
-53.98
-4.87
23.41
34.04
35.51
34.94
34.98
34.09
29.89
20.34
7.42
-2.30
-5.25
-0.39
10.47
24.38
37.97
49.03
56.47
62.43
71.35
87.60
115.20
151.53
194.71
241.71
287.98
327.13
353.21
362.41
353.78
330.20
297.43
263.08
233.06
209.84
191.95
176.06
159.28
140.64
121.82
105.94
96.55
95.48
102.50
115.99
134.05
155.03
177.04
197.32
211.92
216.96
209.72
190.00
160.50
125.64
89.82
55.92
24.95
-3.41
-29.72
-54.50
-78.09
-101.18
-124.84
-150.41
-179.08
-211.56
-247.75
-286.34
-324.81
-359.85
-388.48
-409.21
-423.02
-433.25
-444.24
-459.19
-478.72
-500.28
-519.03
-529.74
-528.78
-515.44
-492.12
-463.46
-435.05
-411.88
-397.09
-391.15
-391.65
-393.96
-392.67
-383.25
-363.20
-332.55
-293.48
-249.32
-203.52
-158.95
-117.57
-80.37
-47.60
-18.91
6.50
29.80
52.30
75.07
98.45
122.17
145.43
167.38
187.79
207.34
227.59
250.23
276.10
304.27
331.90
354.94
369.55
373.56
367.26
353.08
334.53
314.74
295.61
277.62
260.38
243.36
226.41
209.79
193.95
179.24
165.79
153.51
142.20
131.56
121.34
111.43
101.96
93.31
85.96
80.28
76.18
73.09
70.09
66.33
61.37
55.34
48.77
42.19
36.04
30.72
26.96
25.90
28.58
35.23
44.72
54.90
63.70
70.41
76.17
83.22
93.13
105.26
116.34
121.68
117.36
102.14
78.06
49.53
21.46
-2.40
-20.14
-31.40
-36.56
-36.16
-30.92
-22.27
-12.67
-5.44
-3.86
-9.96
-23.47
-41.92
-61.39
-77.95
-88.97
-93.74
-93.21
-89.18
-83.39
-76.98
-70.44
-63.89
-57.48
-51.59
-46.76
-43.45
-41.68
-40.96
-40.41
-39.13
-36.60
-32.83
-28.29
-23.60
-19.29
-15.69
-12.93
-10.95
-9.60
-8.60
-7.59
-6.25
-4.45
-2.30
-0.03
2.09
3.91
5.24
5.81
5.23
3.09
-0.64
-5.38
-9.93
-12.93
-13.35
-11.01
-6.61
-1.37
3.42
6.94
8.92
9.59
9.31
8.44
7.19
5.75
4.41
3.51
3.32
3.92
5.05
6.25
7.08
7.26
6.83
6.05
5.23
4.61
4.28
4.19
4.28
4.41
4.41
4.05
3.12
1.62
-0.11
-1.49
-1.89
-1.05
0.73
2.67
3.87
3.74
2.28
-0.01
-2.44
-4.47
-5.90
-6.79
-7.23
-7.22
-6.57
-5.11
-2.85
-0.04
2.86
5.39
7.17
7.99
7.75
6.45
4.20
1.30
-1.73
-4.29
-5.90
-6.38
-5.93
-4.99
-3.99
-3.13
-2.34
-1.42
-0.26
1.03
2.13
2.70
2.59
1.90
0.90
-0.06
-0.76
-1.11
-1.11
-0.77
-0.07
0.99
2.33
3.64
4.36
3.80
1.46
-2.64
-7.78
-12.71
-16.09
-17.01
-15.42
-12.11
-8.33
-5.27
-3.60
-3.28
-3.75
-4.28
-4.32
-3.63
-2.35
-0.78
0.75
1.99
2.86
3.44
3.87
4.26
4.67
5.08
5.40
5.55
5.50
5.25
4.80
4.20
3.44
2.55
1.58
0.65
-0.12
-0.60
-0.70
-0.45
0.01
0.45
0.61
0.31
-0.44
-1.44
-2.36
-2.93
-3.02
-2.79
-2.58
-2.78
-3.64
-5.13
-6.94
-8.62
-9.75
-10.09
-9.67
-8.68
-7.45
-6.28
-5.37
-4.80
-4.52
-4.41
-4.32
-4.19
-4.00
-3.79
-3.53
-3.13
-2.45
-1.39
0.04
1.65
3.16
4.31
4.94
5.05
4.74
4.10
3.24
2.26
1.31
0.65
0.57
1.26
2.63
4.34
5.82
6.56
6.24
4.90
2.92
0.78
-1.02
-2.18
-2.62
-2.46
-1.91
-1.25
-0.72
-0.46
-0.55
-0.93
-1.53
-2.26
-3.03
-3.81
-4.55
-5.25
-5.90
-6.50
-7.04
-7.47
-7.60
-7.18
-5.96
-3.86
-1.05
2.05
4.92
7.12
8.49
9.10
9.20
8.99
8.62
8.18
7.73
7.43
7.41
7.73
8.27
8.80
9.06
8.90
8.30
7.37
6.19
4.81
3.27
1.65
0.13
-1.04
-1.65
-1.63
-1.11
-0.32
0.46
1.08
1.46
1.58
1.48
1.12
0.53
-0.26
-1.15
-2.00
-2.70
-3.23
-3.66
-4.11
-4.68
-5.44
-6.33
-7.28
-8.21
-9.09
-9.91
-10.69
-11.35
-11.79
-11.85
-11.47
-10.67
-9.56
-8.25
-6.82
-5.26
-3.60
-1.90
-0.29
1.10
2.22
3.11
3.89
4.62
5.23
5.60
5.58
5.12
4.32
3.39
2.49
1.69
0.96
0.26
-0.40
-0.90
-1.07
-0.81
-0.19
0.58
1.24
1.58
1.54
1.18
0.66
0.09
-0.46
-1.00
-1.53
-2.07
-2.57
-2.98
-3.22
-3.28
-3.23
-3.25
-3.53
-4.18
-5.13
-6.11
-6.76
-6.81
-6.20
-5.14
-3.92
-2.79
-1.86
-1.07
-0.38
0.22
0.67
0.93
1.10
1.39
1.98
2.94
4.09
5.15
5.85
6.08
5.94
5.59
5.18
4.76
4.30
3.77
3.22
2.80
2.68
2.90
3.41
4.01
4.48
4.65
4.51
4.14
3.64
3.05
2.34
1.43
0.30
-0.91
-2.00
-2.74
-3.04
-2.98
-2.81
-2.80
-3.12
-3.84
-4.88
-6.13
-7.48
-8.84
-10.05
-10.90
-11.18
-10.75
-9.66
-8.14
-6.53
-5.12
-4.05
-3.29
-2.67
-2.05
-1.34
-0.59
0.17
0.90
1.66
2.49
3.39
4.26
4.96
5.36
5.46
5.35
5.11
4.78
4.33
3.71
2.94
2.13
1.48
1.18
1.32
1.84
2.51
3.11
3.44
3.43
3.13
2.69
2.22
1.80
1.44
1.07
0.64
0.12
-0.42
-0.96
-1.45
-1.91
-2.35
-2.84
-3.39
-4.03
-4.73
-5.48
-6.27
-7.11
-7.99
-8.90
-9.72
-10.32
-10.51
-10.16
-9.27
-7.94
-6.38
-4.75
-3.17
-1.69
-0.40
0.61
1.24
1.48
1.46
1.49
1.84
2.66
3.88
5.18
6.23
6.80
6.82
6.43
5.81
5.14
4.48
3.86
3.29
2.79
2.46
2.40
2.63
3.11
3.72
4.23
4.49
4.37
3.89
3.17
2.37
1.65
1.05
0.55
0.07
-0.49
-1.16
-1.92
-2.65
-3.23
-3.58
-3.71
-3.70
-3.72
-3.92
-4.43
-5.30
-6.44
-7.66
-8.70
-9.25
-9.08
-8.09
-6.36
-4.14
-1.81
0.30
1.92
2.96
3.48
3.72
3.94
4.39
5.19
6.30
7.50
8.52
9.14
9.27
8.94
8.28
7.42
6.43
5.33
4.17
3.00
1.95
1.15
0.64
0.37
0.21
0.05
-0.19
-0.47
-0.73
-0.90
-0.96
-0.96
-1.00
-1.14
-1.43
-1.86
-2.41
-3.06
-3.80
-4.61
-5.47
-6.34
-7.12
-7.73
-8.09
-8.22
-8.21
-8.23
-8.46
-8.98
-9.76
-10.58
-11.18
-11.29
-10.76
-9.61
-7.99
-6.15
-4.32
-2.69
-1.35
-0.35
0.33
0.75
1.00
1.19
1.42
1.80
2.37
3.08
3.85
4.54
5.01
5.18
5.04
4.67
4.20
3.76
3.46
3.31
3.26
3.22
3.12
2.98
2.86
2.83
2.91
3.02
3.01
2.74
2.14
1.27
0.28
-0.64
-1.34
-1.75
-1.94
-2.10
-2.46
-3.21
-4.41
-5.90
-7.35
-8.39
-8.76
-8.44
-7.61
-6.54
-5.46
-4.41
-3.37
-2.29
-1.26
-0.40
0.20
0.56
0.90
1.49
2.46
3.77
5.15
6.26
6.92
7.13
7.06
6.88
6.71
6.50
6.15
5.61
4.93
4.23
3.67
3.31
3.10
2.93
2.68
2.28
1.79
1.26
0.78
0.36
-0.07
-0.59
-1.29
-2.18
-3.19
-4.18
-5.01
-5.61
-5.99
-6.27
-6.63
-7.19
-7.99
-8.92
-9.78
-10.32
-10.38
-9.91
-8.97
-7.69
-6.17
-4.51
-2.77
-1.09
0.39
1.50
2.17
2.47
2.65
2.98
3.65
4.69
5.92
7.06
7.85
8.16
8.03
7.57
6.94
6.25
5.53
4.81
4.14
3.64
3.42
3.57
4.07
4.78
5.46
5.85
5.79
5.25
4.38
3.44
2.66
2.17
1.96
1.87
1.70
1.28
0.55
-0.39
-1.41
-2.35
-3.12
-3.75
-4.29
-4.81
-5.39
-6.10
-7.00
-8.13
-9.43
-10.71
-11.67
-11.96
-11.36
-9.85
-7.69
-5.24
-2.89
-0.91
0.63
1.84
2.87
3.88
4.93
6.00
7.05
8.02
8.90
9.71
10.44
11.09
11.60
11.90
11.89
11.50
10.74
9.72
8.64
7.71
7.10
6.80
6.67
6.47
6.01
5.24
4.30
3.38
2.62
2.01
1.42
0.71
-0.19
-1.19
-2.13
-2.89
-3.44
-3.85
-4.23
-4.65
-5.09
-5.52
-5.89
-6.23
-6.56
-6.95
-7.45
-8.10
-8.91
-9.81
-10.67
-11.27
-11.40
-10.94
-9.93
-8.53
-7.02
-5.58
-4.23
-2.90
-1.49
-0.01
1.35
2.36
2.85
2.80
2.40
1.95
1.70
1.81
2.29
3.08
4.07
5.16
6.21
7.06
7.53
7.45
6.73
5.42
3.68
1.77
-0.06
-1.62
-2.82
-3.60
-3.99
-4.02
-3.80
-3.46
-3.12
-2.91
-2.93
-3.21
-3.75
-4.50
-5.35
-6.12
-6.64
-6.81
-6.69
-6.46
-6.34
-6.44
-6.69
-6.86
-6.64
-5.88
-4.65
-3.17
-1.76
-0.62
0.24
0.94
1.67
2.52
3.50
4.53
5.49
6.33
7.00
7.49
7.78
7.85
7.72
7.43
7.10
6.83
6.66
6.55
6.40
6.13
5.74
5.31
4.93
4.63
4.40
4.13
3.76
3.29
2.81
2.41
2.13
1.90
1.57
0.99
0.13
-0.90
-1.93
-2.77
-3.35
-3.71
-3.94
-4.17
-4.48
-4.88
-5.40
-6.04
-6.81
-7.67
-8.48
-9.05
-9.16
-8.67
-7.58
-6.04
-4.26
-2.47
-0.82
0.59
1.72
2.52
2.97
3.07
2.93
2.74
2.74
3.06
3.72
4.58
5.39
5.89
5.93
5.51
4.75
3.87
3.05
2.46
2.15
2.14
2.37
2.74
3.17
3.53
3.74
3.69
3.35
2.70
1.86
0.99
0.27
-0.13
-0.21
-0.04
0.23
0.42
0.42
0.20
-0.23
-0.87
-1.67
-2.62
-3.62
-4.58
-5.40
-6.08
-6.68
-7.33
-8.11
-8.99
-9.79
-10.27
-10.22
-9.57
-8.39
-6.89
-5.27
-3.69
-2.22
-0.92
0.19
1.08
1.78
2.41
3.11
4.03
5.22
6.58
7.91
8.99
9.63
9.79
9.57
9.17
8.79
8.62
8.72
9.06
9.49
9.81
9.78
9.28
8.27
6.89
5.34
3.81
2.42
1.14
-0.17
-1.62
-3.25
-4.99
-6.63
-8.01
-9.01
-9.61
-9.88
-9.90
-9.72
-9.36
-8.87
-8.32
-7.85
-7.63
-7.75
-8.26
-9.09
-10.12
-11.18
-12.07
-12.62
-12.66
-12.09
-10.90
-9.20
-7.20
-5.15
-3.29
-1.74
-0.57
0.29
0.92
1.43
1.91
2.41
2.96
3.55
4.12
4.60
4.92
5.04
4.96
4.68
4.21
3.60
2.98
2.50
2.33
2.51
2.96
3.46
3.81
3.85
3.63
3.28
2.98
2.81
2.77
2.77
2.69
2.47
2.05
1.45
0.68
-0.19
-1.04
-1.76
-2.25
-2.49
-2.58
-2.72
-3.08
-3.77
-4.73
-5.73
-6.50
-6.75
-6.33
-5.25
-3.73
-2.05
-0.52
0.66
1.42
1.86
2.16
2.53
3.07
3.80
4.61
5.34
5.88
6.17
6.29
6.33
6.38
6.45
6.51
6.50
6.40
6.24
6.11
6.06
6.08
6.08
5.95
5.62
5.09
4.39
3.60
2.73
1.77
0.70
-0.48
-1.65
-2.67
-3.40
-3.79
-3.97
-4.13
-4.44
-4.99
-5.72
-6.49
-7.19
-7.79
-8.35
-8.93
-9.52
-9.98
-10.12
-9.79
-8.96
-7.73
-6.29
-4.81
-3.39
-2.04
-0.73
0.56
1.78
2.87
3.76
4.46
4.99
5.43
5.84
6.21
6.48
6.61
6.54
6.30
5.95
5.54
5.14
4.77
4.45
4.17
3.94
3.76
3.62
3.52
3.43
3.33
3.24
3.16
3.11
3.09
3.05
2.88
2.50
1.87
1.00
0.00
-1.00
-1.92
-2.69
-3.37
-3.98
-4.57
-5.22
-6.00
-7.00
-8.26
-9.71
-11.15
-12.31
-12.96
-12.98
-12.42
-11.40
-10.03
-8.36
-6.40
-4.21
-1.96
0.12
1.81
3.03
3.88
4.59
5.36
6.30
7.29
8.11
8.55
8.54
8.18
7.66
7.17
6.81
6.60
6.48
6.38
6.26
6.08
5.86
5.53
4.99
4.23
3.37
2.64
2.29
2.45
2.96
3.44
3.35
2.16
-0.27
-3.53
-6.92
-9.63
-11.21
-11.78
-11.87
-12.47
-14.41
-17.79
-21.82
-25.20
-26.78
-26.28
-24.39
-22.31
-21.76
-24.06
-29.19
-35.50
-40.37
-41.07
-35.75
-23.92
-6.20
14.88
35.86
53.83
67.50
77.00
83.55
88.70
94.04
101.21
109.86
117.42
119.98
113.86
96.72
69.09
34.45
-3.35
-34.77
-51.31
-52.48
-45.67
-39.05
-37.53
-39.21
-40.60
-39.02
-33.25
-24.54
-13.84
-1.89
11.60
26.95
43.44
58.94
71.28
79.32
82.04
78.74
69.49
55.50
38.73
20.81
2.56
-15.28
-31.74
-46.53
-60.11
-73.60
-88.42
-106.02
-128.00
-154.40
-181.51
-202.00
-207.67
-192.53
-154.86
-97.64
-27.71
44.56
107.81
152.79
174.08
170.13
143.06
98.18
41.96
-11.62
-48.93
-65.33
-65.55
-57.03
-45.12
-32.52
-20.41
-9.49
-0.18
6.28
9.10
8.84
7.47
6.94
8.19
11.06
14.82
18.86
21.96
23.31
22.86
21.46
19.96
18.73
17.67
16.60
15.56
13.44
10.17
5.48
-0.66
-8.27
-17.35
-27.62
-38.39
-47.13
-54.02
-59.06
-62.61
-65.18
-67.23
-69.25
-71.89
-75.99
-82.07
-89.83
-96.60
-98.03
-89.47
-68.41
-36.43
0.77
35.43
60.89
73.95
76.12
71.81
65.84
61.39
59.27
58.63
58.36
57.86
57.20
56.80
57.00
57.83
59.25
61.50
65.10
71.17
80.54
92.37
103.63
109.37
104.57
86.71
57.52
22.91
-9.38
-32.41
-43.89
-46.04
-43.46
-40.22
-37.89
-35.60
-31.61
-25.19
-17.54
-11.25
-8.64
-10.30
-14.80
-19.39
-21.24
-19.19
-14.08
-8.51
-5.53
-7.22
-13.95
-24.43
-36.49
-47.85
-56.30
-59.44
-54.83
-41.09
-19.21
6.66
29.99
44.38
46.39
37.29
22.28
7.74
-1.72
-5.35
-5.57
-5.32
-5.77
-5.92
-3.95
0.51
5.85
8.70
6.06
-3.04
-16.64
-30.53
-40.66
-44.59
-42.84
-38.42
-35.23
-36.26
-42.81
-54.17
-67.80
-80.11
-87.08
-85.13
-72.37
-49.13
-18.48
14.25
43.41
65.27
79.50
88.83
97.34
107.59
118.27
126.36
127.54
116.51
91.88
57.05
18.71
-15.99
-43.13
-62.16
-75.78
-87.76
-100.69
-114.25
-125.60
-132.27
-134.69
-138.01
-148.57
-170.35
-202.47
-238.38
-268.01
-280.51
-270.43
-233.18
-175.15
-107.09
-40.10
16.25
54.38
69.10
61.10
34.73
-2.30
-40.61
-69.38
-80.37
-71.54
-47.41
-15.92
20.18
59.80
101.65
142.44
179.18
209.86
233.68
251.42
265.33
283.92
312.91
351.47
393.00
430.45
459.48
478.68
488.90
457.44
373.24
253.34
130.08
26.24
-52.32
-109.71
-152.59
-186.43
-214.59
-232.87
-238.42
-233.21
-223.04
-213.40
-207.24
-205.41
-207.66
-212.39
-214.23
-209.57
-198.80
-185.33
-172.47
-161.89
-154.04
-148.89
-146.30
-142.53
-134.79
-122.58
-107.14
-89.56
-69.96
-47.49
-20.14
8.54
39.02
72.01
107.23
143.66
180.75
219.12
260.26
305.17
352.70
399.65
439.22
462.81
463.11
436.97
386.66
318.78
241.97
164.29
92.64
31.91
-14.77
-45.82
-61.69
-65.26
-61.40
-55.89
-53.78
-57.93
-69.28
-86.98
-108.48
-129.96
-146.95
-155.75
-154.72
-145.25
-130.95
-116.20
-104.44
-97.70
-97.25
-104.78
-122.44
-151.00
-187.40
-223.49
-247.63
-248.89
-221.79
-168.98
-100.45
-29.19
34.13
84.96
125.29
160.74
196.43
233.78
270.25
301.72
325.66
343.34
359.00
376.94
398.08
418.36
430.46
427.61
407.37
372.99
331.71
291.01
255.34
224.82
196.42
166.52
133.26
97.49
61.97
29.68
1.99
-21.96
-44.84
-69.65
-98.25
-130.48
-164.37
-197.29
-227.24
-253.81
-278.20
-302.63
-329.52
-360.95
-398.44
-442.59
-492.39
-544.27
-591.77
-626.41
-640.06
-627.70
-589.38
-530.17
-458.14
-381.38
-305.60
-233.37
-164.79
-98.96
-35.04
27.81
90.92
156.59
227.33
304.19
384.99
463.61
531.13
578.55
600.12
595.45
569.54
530.69
487.38
445.77
408.69
376.28
347.39
320.86
295.87
271.74
247.64
222.64
196.10
168.10
139.40
110.99
83.48
56.47
28.69
-1.36
-34.60
-70.68
-108.15
-144.89
-179.23
-210.77
-240.55
-270.67
-303.56
-341.16
-384.26
-431.75
-480.32
-524.72
-558.55
-575.60
-571.70
-545.89
-500.95
-442.63
-377.61
-311.14
-245.50
-180.13
-113.67
-46.73
16.36
67.98
100.05
107.43
90.26
53.41
3.64
-53.72
-116.55
-184.52
-256.15
-326.41
-386.73
-427.72
-442.79
-430.85
-396.98
-350.68
-302.95
-263.47
-238.41
-229.33
-233.60
-245.82
-259.95
-271.29
-277.53
-278.26
-273.94
-264.49
-249.11
-227.15
-199.22
-167.68
-135.81
-106.66
-81.82
-61.32
-44.14
-29.05
-15.14
-1.82
11.24
24.38
37.82
51.63
65.81
80.37
95.36
110.72
126.05
140.57
153.42
164.17
173.31
182.33
193.16
207.32
225.26
246.32
268.94
291.48
312.99
333.53
354.27
377.37
405.40
440.22
481.86
527.41
570.88
604.49
621.10
616.93
593.27
556.31
515.22
479.24
454.94
444.55
445.94
453.70
460.99
461.48
450.82
427.30
391.68
346.54
295.64
243.44
194.68
153.77
123.72
104.96
94.89
88.45
79.76
64.27
40.19
8.46
-28.24
-66.91
-105.31
-142.13
-176.72
-208.95
-239.17
-268.52
-298.86
-332.33
-370.48
-413.48
-459.65
-505.52
-546.55
-577.84
-595.32
-596.73
-582.59
-556.47
-524.02
-490.90
-460.80
-434.05
-408.06
-379.34
-345.90
-308.72
-271.46
-238.41
-212.22
-192.55
-176.38
-159.68
-139.29
-113.81
-83.33
-48.56
-10.22
30.93
73.60
115.49
153.56
184.65
206.65
219.24
223.98
223.86
222.27
222.20
225.74
233.64
245.13
258.11
269.59
276.69
277.63
272.11
260.90
244.65
222.87
193.71
154.87
104.72
43.04
-28.74
-107.93
-190.42
-270.43
-340.35
-391.96
-418.84
-419.32
-397.88
-363.73
-327.25
-295.83
-271.70
-252.50
-234.11
-213.43
-189.89
-164.77
-139.52
-114.44
-88.61
-60.77
-30.43
1.99
35.35
68.41
100.22
129.94
156.59
179.02
195.97
206.24
208.97
203.75
190.94
172.12
150.28
129.37
113.36
104.68
103.36
107.30
113.78
121.06
128.81
137.28
145.85
152.48
154.79
151.71
144.67
137.18
133.09
134.67
141.71
152.24
164.01
175.63
186.46
195.88
202.52
204.52
200.58
190.83
176.93
161.15
145.22
129.95
115.61
102.39
90.85
81.58
74.82
70.03
66.19
62.30
58.02
53.92
51.12
50.64
52.78
56.93
61.81
66.08
68.82
69.88
69.75
69.25
69.21
70.16
72.13
74.53
76.41
76.72
74.66
69.98
62.99
54.47
45.38
36.67
29.12
23.08
18.11
13.00
5.98
-4.53
-18.94
-35.89
-52.41
-64.89
-70.42
-67.93
-58.52
-44.77
-29.62
-15.21
-2.57
8.03
16.40
21.88
23.35
19.81
11.03
-2.26
-18.72
-36.93
-55.90
-75.25
-94.93
-114.76
-134.29
-152.86
-169.75
-184.21
-195.46
-202.62
-204.94
-202.04
-194.15
-181.99
-166.54
-148.67
-128.99
-108.04
-86.92
-67.23
-50.44
-36.77
-24.33
-9.42
11.70
40.55
74.62
107.69
132.07
142.04
136.39
118.88
96.32
75.52
60.69
52.76
50.64
52.95
59.17
69.24
82.56
97.23
110.33
119.15
122.70
122.35
121.42
123.52
130.68
142.19
154.47
162.13
159.86
144.21
114.44
72.56
22.47
-30.92
-82.46
-127.51
-162.66
-186.42
-199.53
-204.55
-204.61
-202.13
-197.87
-191.26
-181.57
-169.08
-155.55
-143.48
-134.89
-130.22
-128.31
-127.14
-124.86
-120.49
-113.91
-105.73
-97.20
-89.79
-84.67
-82.03
-80.51
-77.46
-70.03
-56.70
-38.32
-18.04
-0.08
12.07
17.00
15.85
11.32
6.29
2.55
0.38
-0.98
-2.41
-4.31
-6.37
-8.03
-8.87
-8.91
-8.56
-8.20
-8.01
-8.00
-8.24
-9.03
-10.83
-13.71
-16.93
-18.76
-17.09
-10.40
1.48
17.19
34.46
51.09
65.71
77.87
87.68
95.29
100.71
103.94
105.38
105.94
106.78
108.73
111.79
115.05
117.17
116.97
113.86
107.81
98.98
87.45
73.39
57.40
40.83
25.56
13.27
4.78
-0.26
-2.99
-4.56
-5.54
-5.78
-4.91
-3.03
-0.95
0.05
-1.15
-4.98
-11.10
-18.78
-27.47
-37.00
-47.36
-58.33
-69.19
-78.81
-86.11
-90.47
-91.93
-91.13
-88.93
-86.11
-83.23
-80.68
-78.73
-77.56
-76.98
-76.19
-73.82
-68.28
-58.48
-44.41
-27.33
-9.30
7.52
21.69
32.83
41.33
47.80
52.48
55.10
55.12
52.17
46.33
37.93
27.36
14.73
0.14
-16.10
-32.96
-48.72
-61.36
-69.30
-72.11
-70.57
-66.41
-61.55
-57.52
-55.15
-54.53
-55.14
-55.96
-55.71
-53.35
-48.54
-41.99
-35.33
-30.42
-28.55
-29.85
-33.44
-37.97
-42.32
-45.90
-48.42
-49.47
-48.39
-44.62
-38.37
-30.91
-24.28
-20.31
-19.60
-21.12
-22.55
-21.44
-16.23
-6.91
5.13
17.68
28.56
36.12
39.71
39.82
37.93
36.17
36.64
40.48
47.30
55.26
61.77
64.74
63.44
58.60
51.77
44.35
36.94
29.48
21.79
14.23
7.75
3.45
1.76
2.14
3.23
3.56
2.26
-0.49
-3.71
-6.25
-7.35
-7.19
-6.76
-7.45
-10.29
-15.46
-22.09
-28.61
-33.25
-34.56
-31.72
-24.67
-14.02
-1.11
12.16
23.70
31.72
35.41
35.14
32.28
28.50
25.14
22.82
21.60
21.38
22.29
24.56
28.13
32.35
36.00
37.82
37.08
33.86
28.90
23.04
16.80
10.34
3.84
-2.18
-6.76
-8.82
-7.73
-3.62
2.61
9.82
17.02
23.66
29.57
34.59
38.46
40.68
40.83
38.74
34.67
29.22
23.13
17.14
11.77
7.29
3.68
0.63
-2.28
-5.47
-9.13
-13.16
-17.22
-20.98
-24.20
-26.77
-28.48
-28.95
-27.73
-24.56
-19.61
-13.47
-6.80
0.21
8.02
17.51
29.30
43.00
57.04
69.26
77.74
81.76
81.96
79.90
77.18
74.78
72.84
70.92
68.43
64.95
60.22
54.15
46.82
38.63
30.39
23.25
18.27
15.90
15.65
16.17
15.84
13.47
8.88
2.91
-2.93
-7.09
-8.49
-6.84
-2.59
3.25
9.34
14.39
17.36
17.70
15.38
10.87
4.94
-1.61
-8.16
-14.38
-20.22
-25.77
-31.14
-36.40
-41.57
-46.61
-51.47
-55.99
-59.90
-62.82
-64.37
-64.33
-62.74
-59.88
-56.13
-51.75
-46.98
-42.03
-37.22
-32.94
-29.36
-26.28
-23.09
-19.13
-14.19
-8.81
-4.07
-1.05
-0.23
-1.29
-3.41
-5.88
-8.48
-11.44
-14.91
-18.50
-21.28
-22.22
-20.90
-17.83
-14.26
-11.52
-10.43
-10.95
-12.44
-14.08
-15.30
-15.90
-15.99
-15.88
-15.94
-16.54
-18.01
-20.36
-23.29
-26.20
-28.48
-29.80
-30.21
-29.93
-28.98
-27.04
-23.54
-18.16
-11.32
-4.20
1.67
5.23
6.48
6.49
6.81
8.67
12.36
17.29
22.51
27.26
31.25
34.44
36.73
37.76
37.12
34.75
31.16
27.21
23.60
20.43
17.11
12.93
7.68
2.06
-2.63
-5.20
-5.32
-3.69
-1.63
-0.28
0.08
-0.01
0.34
1.64
3.50
4.87
4.58
2.07
-2.18
-6.87
-10.46
-11.94
-11.25
-9.31
-7.47
-6.89
-8.09
-10.80
-14.25
-17.64
-20.34
-21.97
-22.29
-21.07
-18.20
-13.92
-8.92
-4.20
-0.63
1.50
2.65
3.78
5.83
9.17
13.50
18.10
22.29
25.74
28.52
30.70
32.21
32.76
32.09
30.24
27.62
24.77
22.00
19.27
16.27
12.82
9.19
6.12
4.40
4.45
5.99
8.15
9.95
10.73
10.39
9.30
7.97
6.72
5.60
4.48
3.27
1.96
0.65
-0.50
-1.39
-1.95
-2.19
-2.20
-2.16
-2.34
-2.99
-4.30
-6.34
-9.04
-12.22
-15.57
-18.67
-20.93
-21.75
-20.68
-17.66
-13.15
-7.98
-3.05
1.14
4.57
7.65
10.88
14.47
18.30
22.02
25.35
28.30
31.09
33.97
37.00
39.90
42.20
43.53
43.74
42.99
41.59
39.77
37.68
35.44
33.26
31.45
30.39
30.22
30.81
31.72
32.42
32.51
31.81
30.36
28.28
25.66
22.51
18.84
14.65
9.93
4.70
-0.96
-6.79
-12.24
-16.59
-19.26
-20.07
-19.49
-18.40
-17.80
-18.37
-20.26
-23.20
-26.69
-30.27
-33.54
-36.19
-37.87
-38.33
-37.49
-35.72
-33.68
-32.11
-31.48
-31.67
-32.08
-31.95
-30.68
-28.16
-24.68
-20.76
-16.89
-13.44
-10.68
-8.87
-8.22
-8.79
-10.31
-12.32
-14.36
-16.19
-17.91
-19.76
-21.82
-23.84
-25.27
-25.66
-24.85
-23.12
-20.96
-18.73
-16.48
-14.08
-11.48
-8.90
-6.79
-5.56
-5.29
-5.72
-6.46
-7.30
-8.37
-10.04
-12.53
-15.61
-18.70
-21.15
-22.66
-23.44
-24.01
-24.80
-25.77
-26.54
-26.72
-26.33
-25.86
-25.90
-26.60
-27.30
-26.76
-23.75
-17.82
-9.54
-0.26
8.59
16.08
21.98
26.49
29.83
31.99
32.90
32.59
31.35
29.62
27.62
25.23
22.18
18.32
14.05
10.25
7.90
7.54
8.93
11.19
13.17
14.03
13.52
11.96
9.85
7.57
5.25
2.79
0.16
-2.43
-4.51
-5.58
-5.42
-4.29
-2.94
-2.24
-2.82
-4.79
-7.75
-11.07
-14.17
-16.70
-18.50
-19.44
-19.41
-18.43
-16.78
-14.97
-13.50
-12.60
-12.03
-11.21
-9.59
-6.95
-3.53
0.22
3.90
7.45
11.04
14.75
18.34
21.22
22.69
22.36
20.42
17.58
14.72
12.49
11.12
10.41
10.10
10.05
10.38
11.28
12.79
14.69
16.58
18.10
19.11
19.69
20.01
20.11
19.88
19.09
17.65
15.71
13.64
11.96
11.09
11.22
12.18
13.53
14.58
14.68
13.39
10.61
6.58
1.78
-3.30
-8.26
-12.79
-16.63
-19.54
-21.33
-21.90
-21.30
-19.59
-16.75
-12.71
-7.44
-1.25
5.13
10.78
14.98
17.67
19.60
22.00
25.98
31.98
39.57
47.69
55.20
61.24
65.44
67.67
67.81
65.65
61.10
54.47
46.60
38.66
31.72
26.31
22.18
18.56
14.53
9.43
3.14
-4.00
-11.39
-18.35
-24.30
-28.88
-32.04
-33.99
-35.15
-35.96
-36.66
-37.20
-37.27
-36.48
-34.58
-31.57
-27.75
-23.61
-19.76
-16.90
-15.68
-16.63
-19.87
-25.01
-31.21
-37.38
-42.60
-46.30
-48.31
-48.72
-47.67
-45.35
-42.02
-38.16
-34.34
-31.05
-28.41
-26.05
-23.30
-19.62
-14.87
-9.42
-3.87
1.24
5.61
9.04
11.21
11.68
10.01
6.24
1.10
-4.18
-8.30
-10.55
-11.05
-10.62
-10.19
-10.41
-11.33
-12.62
-13.93
-15.05
-15.96
-16.73
-17.41
-18.05
-18.82
-19.91
-21.41
-23.17
-24.72
-25.50
-25.08
-23.37
-20.59
-17.10
-13.18
-9.00
-4.82
-1.20
1.01
0.97
-1.55
-5.86
-10.37
-13.26
-13.18
-9.96
-4.52
1.62
7.08
11.21
14.08
16.07
17.52
18.47
18.83
18.66
18.19
17.66
17.10
16.25
14.74
12.54
10.19
8.64
8.79
11.00
14.90
19.52
23.76
26.76
28.08
27.62
25.50
22.01
17.58
12.81
8.41
4.94
2.61
1.21
0.17
-1.16
-3.24
-6.15
-9.62
-13.20
-16.49
-19.12
-20.85
-21.39
-20.49
-18.13
-14.70
-11.02
-8.06
-6.39
-5.76
-5.11
-3.07
1.22
7.53
14.58
20.68
24.55
25.97
25.70
24.90
24.43
24.44
24.50
24.02
22.74
20.79
18.49
16.07
13.59
11.01
8.55
6.73
6.15
7.19
9.62
12.66
15.25
16.55
16.26
14.71
12.56
10.42
8.57
6.90
5.15
3.08
0.73
-1.59
-3.44
-4.51
-4.73
-4.39
-3.91
-3.73
-4.10
-5.06
-6.52
-8.37
-10.53
-12.82
-14.92
-16.34
-16.59
-15.47
-13.23
-10.45
-7.78
-5.53
-3.56
-1.41
1.33
4.71
8.38
11.84
14.73
17.07
19.14
21.26
23.40
25.23
26.24
26.07
24.65
22.23
19.11
15.60
11.96
8.48
5.54
3.59
2.89
3.36
4.55
5.77
6.40
6.16
5.18
3.82
2.47
1.35
0.45
-0.33
-1.10
-1.95
-2.88
-3.90
-5.04
-6.26
-7.41
-8.20
-8.36
-7.81
-6.79
-5.80
-5.46
-6.17
-7.95
-10.45
-13.13
-15.36
-16.58
-16.33
-14.26
-10.27
-4.64
1.93
8.50
14.21
18.67
22.03
24.80
27.45
30.19
32.86
35.29
37.47
39.67
42.16
44.81
47.01
47.86
46.65
43.34
38.54
33.17
27.87
22.78
17.56
11.96
6.12
0.73
-3.34
-5.59
-6.20
-5.99
-5.93
-6.66
-8.20
-10.05
-11.60
-12.52
-12.97
-13.45
-14.56
-16.69
-19.84
-23.62
-27.44
-30.78
-33.40
-35.43
-37.23
-39.13
-41.23
-43.36
-45.14
-46.25
-46.64
-46.47
-46.09
-45.71
-45.28
-44.58
-43.25
-41.02
-37.77
-33.57
-28.63
-23.26
-17.82
-12.59
-7.73
-3.21
1.12
5.35
9.37
12.79
15.15
16.19
16.00
14.94
13.33
11.18
8.12
3.73
-2.00
-8.43
-14.37
-18.63
-20.50
-20.08
-18.03
-15.27
-12.47
-10.02
-8.04
-6.57
-5.63
-5.20
-5.16
-5.48
-6.23
-7.63
-9.88
-12.92
-16.41
-19.81
-22.71
-25.03
-26.93
-28.57
-29.79
-30.13
-29.24
-27.25
-24.94
-23.41
-23.41
-24.75
-26.32
-26.56
-24.33
-19.50
-12.95
-6.05
0.10
5.02
8.80
11.79
14.11
15.69
16.41
16.30
15.61
14.67
13.67
12.69
11.84
11.38
11.68
13.07
15.48
18.45
21.30
23.51
24.90
25.58
25.71
25.19
23.82
21.47
18.34
14.98
11.98
9.59
7.54
5.21
2.00
-2.25
-7.22
-12.23
-16.56
-19.65
-21.14
-20.84
-18.74
-15.14
-10.71
-6.36
-2.88
-0.59
0.84
2.19
4.21
7.19
10.91
14.82
18.47
21.73
24.69
27.42
29.70
31.09
31.21
30.02
27.83
25.14
22.27
19.21
15.81
12.00
8.06
4.58
2.16
1.08
1.16
1.87
2.64
3.13
3.30
3.29
3.16
2.87
2.25
1.22
-0.10
-1.44
-2.57
-3.42
-4.20
-5.27
-6.90
-9.14
-11.76
-14.35
-16.51
-17.89
-18.23
-17.30
-14.92
-11.17
-6.49
-1.67
2.46
5.41
7.33
8.94
11.09
14.29
18.45
23.03
27.40
31.33
34.99
38.79
42.95
47.25
51.14
53.99
55.41
55.28
53.68
50.69
46.43
41.13
35.37
30.01
25.92
23.58
22.76
22.60
22.04
20.30
17.19
13.17
8.90
4.90
1.36
-1.77
-4.58
-7.04
-9.09
-10.81
-12.53
-14.69
-17.62
-21.22
-25.03
-28.42
-30.95
-32.51
-33.22
-33.16
-32.20
-30.12
-26.86
-22.77
-18.60
-15.22
-13.23
-12.71
-13.31
-14.45
-15.63
-16.43
-16.51
-15.50
-13.22
-9.88
-6.25
-3.45
-2.46
-3.67
-6.76
-10.92
-15.37
-19.69
-23.88
-28.06
-32.12
-35.57
-37.75
-38.10
-36.51
-33.35
-29.25
-24.91
-20.77
-17.06
-13.87
-11.32
-9.73
-9.58
-11.27
-14.79
-19.50
-24.20
-27.57
-28.82
-28.04
-26.09
-24.08
-22.63
-21.61
-20.27
-17.84
-14.16
-9.72
-5.37
-1.82
0.80
2.76
4.48
6.11
7.55
8.59
9.18
9.52
9.84
10.25
10.68
11.00
11.25
11.57
11.99
12.18
11.47
9.24
5.42
0.76
-3.44
-5.89
-6.00
-4.11
-1.22
1.61
3.70
4.95
5.69
6.29
6.98
7.78
8.46
8.67
8.06
6.36
3.61
0.11
-3.60
-6.96
-9.60
-11.33
-12.00
-11.43
-9.41
-5.95
-1.53
2.93
6.41
8.27
8.61
8.18
7.98
8.74
10.61
13.22
15.98
18.43
20.35
21.69
22.43
22.54
22.02
20.98
19.62
18.10
16.43
14.45
12.09
9.46
7.00
5.25
4.51
4.68
5.25
5.60
5.38
4.74
4.12
4.00
4.50
5.26
5.66
5.20
3.81
1.85
-0.12
-1.68
-2.77
-3.66
-4.72
-6.17
-7.99
-9.95
-11.78
-13.17
-13.85
-13.62
-12.44
-10.47
-8.18
-6.16
-4.82
-4.16
-3.69
-2.70
-0.71
2.31
5.85
9.25
11.99
14.02
15.67
17.30
19.03
20.63
21.70
21.89
21.10
19.46
17.19
14.48
11.53
8.62
6.18
4.77
4.79
6.31
9.02
12.30
15.53
18.31
20.57
22.41
23.97
25.28
26.25
26.74
26.69
26.15
25.37
24.72
24.56
25.16
26.45
28.01
29.15
29.15
27.65
24.75
20.98
16.98
13.17
9.67
6.39
3.37
0.89
-0.62
-0.92
-0.17
1.05
2.08
2.52
2.42
2.14
1.97
1.87
1.55
0.69
-0.61
-1.85
-2.42
-2.12
-1.39
-1.16
-2.41
-5.64
-10.67
-16.83
-23.33
-29.58
-35.15
-39.65
-42.55
-43.31
-41.68
-38.04
-33.38
-28.97
-25.77
-24.02
-23.31
-22.88
-22.20
-21.15
-19.96
-18.95
-18.29
-18.01
-18.15
-18.88
-20.34
-22.49
-24.90
-26.87
-27.82
-27.60
-26.66
-25.80
-25.72
-26.71
-28.46
-30.43
-32.03
-32.96
-33.16
-32.67
-31.44
-29.40
-26.50
-22.90
-18.87
-14.73
-10.67
-6.75
-3.00
0.37
3.00
4.48
4.66
3.79
2.38
0.87
-0.69
-2.60
-5.25
-8.65
-12.24
-15.09
-16.44
-16.17
-14.87
-13.43
-12.51
-12.23
-12.25
-12.18
-11.90
-11.53
-11.18
-10.70
-9.73
-8.00
-5.63
-3.19
-1.42
-0.82
-1.38
-2.62
-3.86
-4.42
-3.70
-1.25
3.19
9.35
16.26
22.35
25.97
26.23
23.49
19.30
15.70
14.22
15.32
18.34
22.07
25.49
28.11
29.90
31.01
31.40
30.80
29.04
26.15
22.50
18.63
14.91
11.51
8.43
5.72
3.64
2.62
2.99
4.72
7.29
9.85
11.51
11.80
10.83
9.18
7.57
6.50
6.02
5.74
5.10
3.67
1.39
-1.39
-4.01
-5.81
-6.38
-5.72
-4.30
-2.78
-1.89
-2.12
-3.67
-6.44
-10.11
-14.20
-18.09
-21.00
-22.14
-20.99
-17.58
-12.66
-7.44
-3.08
-0.23
1.30
2.25
3.48
5.45
8.12
11.07
13.94
16.58
19.00
21.17
22.85
23.62
23.16
21.45
18.83
15.76
12.60
9.49
6.43
3.53
1.07
-0.56
-1.09
-0.59
0.45
1.37
1.66
1.13
0.02
-1.25
-2.25
-2.71
-2.64
-2.14
-1.42
-0.73
-0.31
-0.34
-0.87
-1.70
-2.43
-2.65
-2.08
-0.81
0.73
1.91
2.15
1.13
-1.13
-4.35
-8.02
-11.55
-14.27
-15.46
-14.52
-11.23
-5.89
0.54
6.87
12.02
15.53
17.68
19.27
21.16
23.88
27.46
31.62
36.04
40.51
44.93
49.09
52.54
54.69
55.10
53.76
51.13
47.88
44.51
41.05
37.16
32.50
27.07
21.39
16.22
12.20
9.44
7.53
5.92
4.22
2.48
1.00
0.01
-0.57
-1.20
-2.42
-4.58
-7.58
-10.97
-14.17
-16.73
-18.53
-19.79
-20.96
-22.50
-24.71
-27.65
-31.14
-34.80
-38.23
-41.09
-43.27
-44.81
-45.85
-46.51
-46.83
-46.76
-46.23
-45.22
-43.73
-41.75
-39.31
-36.43
-33.22
-29.83
-26.42
-23.05
-19.65
-16.05
-12.15
-8.13
-4.38
-1.42
0.36
0.85
0.20
-1.39
-3.76
-6.80
-10.29
-13.76
-16.55
-18.11
-18.25
-17.23
-15.58
-13.77
-11.92
-9.92
-7.62
-5.19
-3.13
-1.97
-1.94
-2.79
-3.92
-4.80
-5.26
-5.57
-6.15
-7.26
-8.80
-10.49
-12.12
-13.81
-15.86
-18.45
-21.32
-23.74
-24.87
-24.27
-22.23
-19.65
-17.43
-15.98
-14.86
-13.14
-9.94
-5.02
1.14
7.61
13.56
18.62
22.83
26.32
29.09
30.92
31.64
31.36
30.49
29.47
28.55
27.69
26.66
25.36
23.92
22.61
21.63
20.91
20.17
19.16
17.81
16.35
15.07
14.05
13.09
11.80
9.79
7.04
3.92
1.03
-1.04
-2.03
-2.14
-1.95
-2.16
-3.33
-5.61
-8.74
-12.17
-15.28
-17.51
-18.40
-17.75
-15.59
-12.37
-8.82
-5.80
-3.90
-3.17
-3.02
-2.60
-1.19
1.36
4.69
8.14
11.24
13.87
16.19
18.29
20.05
21.11
21.13
20.07
18.13
15.68
12.96
10.03
6.92
3.83
1.27
-0.15
-0.05
1.45
3.72
5.89
7.27
7.67
7.30
6.57
5.71
4.73
3.44
1.72
-0.30
-2.30
-3.90
-4.83
-5.09
-4.90
-4.58
-4.49
-4.88
-5.88
-7.49
-9.57
-11.86
-14.00
-15.61
-16.33
-15.86
-14.13
-11.27
-7.68
-3.86
-0.22
3.09
6.23
9.52
13.24
17.41
21.79
26.08
30.16
34.12
38.16
42.30
46.23
49.31
50.95
50.88
49.35
46.91
44.07
40.99
37.55
33.55
29.08
24.61
20.83
18.20
16.69
15.77
14.79
13.34
11.46
9.53
7.93
6.68
5.43
3.70
1.14
-2.21
-5.96
-9.48
-12.17
-13.64
-13.79
-12.89
-11.54
-10.53
-10.62
-12.29
-15.55
-19.97
-24.91
-29.71
-33.95
-37.44
-40.11
-41.88
-42.63
-42.26
-40.83
-38.58
-35.85
-32.99
-30.20
-27.59
-25.20
-23.03
-20.98
-18.83
-16.23
-12.90
-8.89
-4.72
-1.30
0.41
-0.16
-2.94
-7.30
-12.42
-17.53
-22.14
-25.88
-28.44
-29.52
-28.92
-26.80
-23.70
-20.37
-17.47
-15.35
-13.95
-12.98
-12.08
-10.99
-9.62
-8.09
-6.74
-6.06
-6.49
-8.11
-10.49
-12.71
-13.75
-13.02
-10.68
-7.62
-5.00
-3.66
-3.74
-4.72
-5.85
-6.60
-6.89
-7.01
-7.27
-7.78
-8.37
-8.70
-8.47
-7.51
-5.81
-3.43
-0.46
2.91
6.37
9.53
12.06
13.85
15.07
16.07
17.05
17.95
18.48
18.40
17.79
17.10
16.91
17.58
18.99
20.57
21.64
21.75
20.86
19.25
17.27
15.16
13.01
10.86
8.81
6.94
5.25
3.59
1.76
-0.33
-2.55
-4.67
-6.52
-8.06
-9.36
-10.35
-10.70
-9.91
-7.68
-4.26
-0.49
2.49
3.88
3.64
2.56
1.82
2.33
4.33
7.44
11.00
14.52
17.89
21.18
24.36
27.05
28.66
28.65
26.85
23.54
19.28
14.69
10.30
6.50
3.62
1.93
1.54
2.26
3.58
4.78
5.30
4.97
4.03
3.00
2.32
2.15
2.28
2.39
2.18
1.51
0.42
-0.96
-2.45
-3.87
-5.05
-5.86
-6.27
-6.36
-6.34
-6.48
-7.04
-8.23
-10.16
-12.73
-15.54
-17.90
-19.04
-18.38
-15.89
-12.12
-8.05
-4.58
-2.14
-0.59
0.56
1.79
3.34
5.21
7.37
9.91
12.98
16.53
20.13
22.98
24.30
23.85
22.04
19.89
18.50
18.64
20.46
23.63
27.53
31.60
35.34
38.41
40.55
41.48
40.98
38.98
35.62
31.25
26.31
21.19
16.06
10.89
5.59
0.16
-5.20
-10.16
-14.55
-18.47
-22.23
-26.06
-29.71
-32.56
-34.01
-34.02
-33.55
-34.18
-37.24
-42.89
-49.69
-55.15
-56.79
-53.31
-45.18
-34.34
-23.22
-13.73
-6.76
-2.24
0.42
1.74
1.97
1.21
-0.28
-1.90
-2.84
-2.54
-1.00
1.06
2.51
2.35
0.12
-3.95
-9.24
-15.11
-21.21
-27.37
-33.42
-38.96
-43.40
-46.20
-47.20
-46.66
-45.14
-43.19
-41.11
-38.85
-36.22
-32.97
-28.83
-23.42
-16.28
-7.10
3.90
15.80
27.09
36.18
42.05
44.55
44.28
42.16
38.83
34.51
29.20
23.17
17.16
12.24
9.29
8.58
9.57
11.27
12.82
13.85
14.55
15.44
17.04
19.57
22.86
26.31
29.03
30.06
28.65
24.63
18.45
11.04
3.27
-4.35
-11.76
-19.04
-25.97
-31.96
-36.36
-39.06
-40.85
-43.40
-48.35
-56.41
-66.85
-77.79
-86.95
-92.57
-93.99
-91.87
-87.74
-83.25
-79.45
-76.32
-72.65
-66.55
-56.50
-42.31
-25.41
-8.64
4.90
12.74
13.52
6.87
-6.67
-25.52
-46.65
-65.67
-77.69
-79.08
-69.18
-50.59
-27.68
-4.66
16.32
35.47
54.12
72.95
90.84
105.31
114.15
116.83
115.07
112.03
110.69
112.38
116.44
120.91
123.64
123.67
121.43
118.38
116.13
115.52
116.30
117.34
117.17
114.46
108.31
98.36
84.94
69.07
52.31
36.46
23.09
13.12
6.76
3.77
3.64
5.80
9.33
12.73
14.01
11.15
2.96
-10.21
-26.25
-41.94
-53.96
-60.12
-60.11
-55.41
-48.74
-42.90
-39.68
-39.32
-40.73
-42.19
-42.36
-40.80
-37.99
-34.89
-32.19
-29.99
-27.84
-25.07
-21.25
-16.39
-10.86
-5.03
0.90
7.07
13.62
20.43
26.88
31.94
34.56
34.11
30.72
25.24
18.91
12.91
7.95
4.22
1.52
-0.56
-2.57
-5.19
-9.16
-15.03
-22.79
-31.61
-40.02
-46.40
-49.69
-49.76
-47.28
-43.24
-38.32
-32.73
-26.40
-19.45
-12.49
-6.56
-2.67
-1.23
-1.87
-3.50
-4.94
-5.32
-4.52
-2.99
-1.44
-0.41
-0.06
-0.15
-0.29
-0.16
0.40
1.39
2.77
4.56
6.77
9.37
12.14
14.77
16.94
18.45
19.34
19.80
20.10
20.40
20.75
21.07
21.27
21.25
20.99
20.53
19.97
19.48
19.23
19.30
19.61
19.86
19.59
18.48
16.50
14.03
11.74
10.21
9.64
9.70
9.72
9.00
7.14
4.23
0.68
-3.02
-6.53
-9.71
-12.55
-14.98
-16.83
-17.79
-17.62
-16.26
-13.94
-11.11
-8.35
-6.12
-4.62
-3.73
-3.08
-2.32
-1.34
-0.42
-0.15
-1.06
-3.33
-6.50
-9.67
-11.83
-12.36
-11.32
-9.42
-7.66
-6.92
-7.64
-9.77
-12.92
-16.54
-20.10
-23.10
-25.07
-25.69
-24.83
-22.72
-19.91
-17.16
-15.14
-14.25
-14.49
-15.59
-17.13
-18.75
-20.21
-21.35
-22.14
-22.62
-22.96
-23.40
-24.13
-25.16
-26.28
-27.09
-27.11
-26.04
-23.78
-20.43
-16.19
-11.22
-5.60
0.53
6.90
13.04
18.39
22.51
25.24
26.83
27.85
28.93
30.59
33.04
36.16
39.62
42.91
45.45
46.59
45.72
42.49
36.98
29.84
22.22
15.43
10.47
7.68
6.62
6.27
5.54
3.74
0.84
-2.55
-5.55
-7.41
-7.81
-6.92
-5.30
-3.67
-2.74
-2.97
-4.53
-7.27
-10.89
-15.00
-19.18
-22.94
-25.71
-26.81
-25.65
-21.98
-16.16
-9.02
-1.62
5.09
10.46
14.11
15.70
14.76
10.74
3.37
-6.95
-19.14
-31.79
-43.72
-54.43
-64.07
-72.97
-81.32
-88.75
-94.40
-97.15
-96.02
-90.56
-81.06
-68.52
-54.29
-39.99
-26.94
-15.54
-5.12
5.61
17.77
31.58
46.42
61.59
76.13
89.42
101.36
112.21
122.29
131.61
139.84
147.10
154.29
161.74
169.08
175.37
179.59
181.60
182.04
182.24
184.08
189.07
196.10
201.60
200.52
188.32
163.36
126.85
82.23
28.90
-26.84
-75.10
-107.92
-124.29
-128.49
-125.14
-117.74
-111.30
-106.22
-101.68
-97.68
-94.40
-88.14
-78.57
-66.23
-52.79
-39.78
-27.38
-15.11
-4.88
4.87
14.26
22.10
27.02
26.72
19.76
6.79
-11.14
-33.34
-54.94
-74.44
-92.69
-111.71
-135.21
-165.85
-203.88
-249.16
-299.87
-351.24
-397.15
-430.57
-445.24
-439.22
-413.72
-372.07
-321.08
-266.89
-212.17
-156.76
-98.76
-30.21
43.12
102.17
138.14
145.67
123.33
77.24
19.93
-33.04
-68.39
-80.69
-71.39
-47.15
-19.57
0.18
5.14
-6.65
-32.75
-68.18
-108.06
-146.86
-178.62
-199.52
-206.85
-198.73
-175.03
-138.15
-93.46
-48.45
-9.72
19.80
40.43
56.10
72.55
94.87
125.47
163.27
203.87
241.55
271.59
291.56
302.45
308.48
315.13
326.70
344.65
367.05
389.77
408.14
418.00
416.49
402.66
378.03
347.04
316.49
293.37
281.70
279.95
280.85
274.25
251.92
211.33
156.58
95.91
37.34
-14.95
-61.48
-106.13
-153.19
-205.46
-263.26
-324.23
-383.59
-434.87
-471.06
-486.62
-479.39
-451.14
-407.15
-354.01
-297.23
-239.91
-182.81
-125.59
-68.14
-11.11
44.56
97.28
144.66
183.82
212.18
228.71
234.59
232.80
226.69
219.12
209.89
195.81
173.06
140.02
98.74
54.35
13.01
-20.11
-40.20
-45.88
-39.54
-25.66
-8.28
10.50
30.35
51.72
74.96
102.43
133.99
166.07
193.81
214.56
229.46
242.19
256.14
272.79
295.11
322.94
351.73
375.04
387.89
388.59
377.85
356.86
300.46
201.89
77.89
-42.32
-137.38
-202.30
-241.93
-263.76
-274.74
-277.46
-269.00
-248.16
-219.96
-193.81
-176.53
-172.42
-177.63
-185.67
-189.14
-186.99
-177.50
-164.55
-151.49
-144.73
-148.82
-164.50
-189.14
-216.60
-237.04
-240.11
-219.83
-175.25
-110.39
-32.64
48.15
120.58
174.68
205.59
215.03
209.06
195.74
181.64
169.48
157.24
139.67
112.14
73.97
28.97
-17.68
-62.29
-104.07
-144.48
-185.92
-230.33
-278.28
-329.05
-380.72
-430.57
-475.05
-508.66
-525.17
-520.12
-492.86
-446.83
-388.32
-324.15
-260.00
-199.85
-144.88
-94.53
-48.17
-5.60
33.65
70.77
107.40
147.23
185.99
216.25
233.40
237.34
230.70
216.93
199.35
180.75
162.97
146.36
131.12
117.76
106.16
95.70
85.89
76.63
68.12
60.48
54.24
49.06
45.47
43.49
42.70
42.54
42.66
42.91
43.22
43.29
43.32
44.39
46.81
50.55
55.91
63.83
75.68
92.71
115.52
139.89
162.12
177.66
183.22
178.22
165.01
147.49
129.32
112.58
98.19
86.78
77.59
69.93
63.04
55.37
44.04
25.43
-5.74
-48.47
-94.37
-133.50
-158.84
-168.91
-166.58
-156.62
-143.49
-130.27
-120.59
-114.54
-114.01
-120.64
-133.92
-150.09
-162.53
-163.83
-148.63
-115.74
-65.67
-6.75
50.66
98.57
133.47
155.49
165.89
165.09
152.91
130.36
100.05
67.46
38.78
17.86
4.61
-3.84
-10.06
-13.79
-12.06
-2.74
13.71
33.38
51.05
63.45
71.24
78.18
87.87
100.35
110.39
109.99
92.39
55.08
0.45
-66.18
-139.14
-213.70
-285.50
-349.56
-399.69
-430.08
-438.04
-425.70
-399.38
-366.98
-334.38
-303.51
-272.74
-239.08
-200.57
-157.52
-111.96
-66.15
-21.31
22.67
66.66
111.68
158.57
207.75
258.41
308.13
352.85
387.67
408.63
413.93
404.73
384.79
358.99
331.55
304.85
279.32
254.02
227.45
197.35
161.35
118.18
68.97
17.75
-29.10
-64.67
-83.62
-83.82
-67.83
-41.82
-12.75
14.04
35.77
51.98
63.85
73.26
82.09
90.24
95.29
93.70
82.35
59.52
25.47
-17.45
-67.33
-115.82
-152.48
-171.76
-175.32
-168.34
-155.31
-138.68
-119.86
-100.17
-81.24
-65.12
-53.62
-46.94
-43.20
-39.53
-33.75
-25.29
-15.19
-6.35
-0.74
-0.18
-5.03
-13.80
-24.10
-34.05
-43.06
-49.68
-55.46
-62.11
-70.76
-81.04
-91.09
-98.74
-102.54
-102.50
-99.81
-96.55
-94.53
-95.42
-100.29
-109.00
-119.62
-128.37
-130.21
-120.41
-97.19
-62.88
-23.98
11.34
36.75
50.49
55.52
56.88
59.00
63.64
69.97
75.84
79.64
81.48
83.44
87.47
94.28
102.91
110.98
115.67
115.30
109.89
101.29
92.90
87.57
86.88
91.07
99.38
110.61
123.14
134.59
138.38
130.84
109.70
75.87
34.13
-8.09
-43.56
-67.98
-81.23
-86.17
-85.92
-82.75
-77.20
-69.06
-58.99
-49.15
-42.39
-40.78
-44.00
-49.00
-52.06
-50.32
-43.13
-32.50
-22.14
-15.57
-15.23
-20.95
-30.84
-42.49
-53.23
-60.29
-60.95
-52.98
-34.80
-8.95
19.79
46.03
65.69
77.95
85.23
91.73
99.16
105.57
106.92
98.03
76.76
45.73
11.59
-17.89
-37.37
-45.90
-46.40
-44.14
-43.00
-44.04
-46.02
-47.01
-46.54
-46.28
-49.11
-56.98
-70.30
-86.94
-103.72
-117.86
-128.26
-135.82
-142.71
-151.42
-163.39
-179.64
-199.59
-221.33
-242.01
-258.01
-266.98
-269.52
-269.61
-267.68
-267.08
-269.18
-271.93
-270.62
-258.65
-232.84
-195.94
-155.39
-118.88
-91.24
-71.90
-56.63
-40.52
-16.71
17.53
59.29
101.63
138.30
166.00
185.57
200.26
213.70
234.68
268.29
312.18
357.79
396.49
423.80
440.63
451.15
460.28
479.84
517.47
571.99
634.93
696.76
750.52
790.92
812.04
757.52
601.51
368.62
123.45
-74.39
-200.46
-264.04
-291.55
-309.27
-328.16
-340.28
-332.15
-298.04
-245.20
-188.13
-139.57
-105.10
-82.08
-70.69
-63.02
-55.70
-53.63
-66.11
-98.09
-145.65
-198.80
-248.21
-289.86
-320.68
-340.58
-350.51
-350.68
-340.43
-320.63
-296.23
-275.61
-266.21
-267.06
-270.54
-267.04
-250.86
-223.67
-193.37
-169.47
-157.28
-155.01
-153.43
-141.78
-113.41
-68.43
-12.37
47.29
104.44
155.56
199.35
235.84
265.59
290.00
311.89
335.58
365.99
406.60
457.33
513.61
567.14
608.29
629.62
628.12
606.72
572.92
535.31
499.84
468.10
438.02
406.35
371.29
333.35
294.86
258.38
224.91
193.39
161.92
129.54
97.12
67.00
40.37
17.59
-1.73
-18.60
-34.41
-50.15
-65.64
-79.56
-90.09
-99.03
-108.15
-117.78
-127.22
-136.27
-145.31
-154.49
-163.21
-170.42
-181.81
-201.26
-227.98
-257.90
-287.85
-316.75
-344.30
-369.80
-391.94
-419.60
-458.12
-504.72
-551.27
-591.40
-623.06
-646.57
-662.70
-672.12
-688.89
-722.24
-770.22
-823.16
-873.09
-917.69
-958.55
-998.59
-956.81
-799.61
-558.94
-302.05
-75.27
109.03
254.29
365.49
445.78
498.58
516.26
498.50
457.09
409.14
366.58
333.03
307.62
288.98
276.80
261.56
236.51
203.73
170.52
142.48
121.28
106.46
97.34
93.41
87.62
74.77
55.71
34.67
15.24
-0.97
-13.24
-20.58
-21.40
-16.62
-11.82
-7.54
-2.28
5.41
16.09
29.77
46.30
65.27
84.78
103.08
120.50
138.05
156.58
175.94
194.91
211.48
223.47
229.31
228.29
221.20
208.86
191.91
171.08
147.66
124.00
103.11
87.68
78.62
74.78
72.92
69.30
61.58
50.03
37.49
28.18
26.19
34.05
52.26
79.30
112.05
146.39
177.77
201.73
214.69
214.65
201.83
178.83
149.99
120.20
93.68
72.98
58.74
49.87
44.32
39.86
34.63
27.53
18.30
7.43
-3.93
-14.50
-23.25
-29.71
-34.15
-37.32
-40.02
-42.74
-45.50
-48.01
-50.11
-51.93
-53.87
-56.23
-58.89
-61.16
-62.12
-61.06
-57.94
-53.36
-48.25
-43.33
-38.90
-34.91
-31.28
-28.13
-25.74
-24.37
-23.83
-23.53
-22.70
-20.93
-18.38
-15.63
-13.31
-11.71
-10.75
-10.10
-9.51
-8.96
-8.60
-8.47
-8.39
-7.94
-6.73
-4.61
-1.82
1.11
3.60
5.31
6.27
6.72
6.96
7.05
6.84
5.98
4.16
1.33
-2.14
-5.71
-8.97
-11.89
-14.87
-18.45
-22.96
-28.28
-33.79
-38.76
-42.60
-45.00
-45.83
-45.02
-42.41
-37.98
-32.05
-25.39
-19.14
-14.35
-11.49
-10.14
-9.23
-7.54
-4.38
0.04
4.77
8.61
10.76
11.14
10.32
9.08
8.02
7.37
7.02
6.79
6.51
6.16
5.69
5.05
4.20
3.16
2.05
0.99
-0.02
-1.10
-2.39
-3.95
-5.64
-7.23
-8.57
-9.63
-10.56
-11.58
-12.93
-14.74
-16.96
-19.35
-21.52
-23.06
-23.72
-23.56
-23.02
-22.69
-23.06
-24.19
-25.69
-26.81
-26.78
-25.04
-21.51
-16.49
-10.61
-4.72
0.34
3.92
5.87
6.57
6.74
7.11
8.05
9.47
10.96
12.11
12.78
13.12
13.38
13.72
14.06
14.17
13.87
13.18
12.25
11.28
10.31
9.16
7.63
5.66
3.45
1.35
-0.31
-1.46
-2.23
-2.91
-3.67
-4.50
-5.27
-5.89
-6.42
-6.99
-7.77
-8.80
-9.95
-10.91
-11.43
-11.40
-10.92
-10.24
-9.71
-9.65
-10.26
-11.59
-13.41
-15.24
-16.49
-16.58
-15.24
-12.55
-8.98
-5.19
-1.87
0.50
1.80
2.24
2.34
2.60
3.39
4.81
6.75
9.02
11.48
13.98
16.37
18.37
19.67
20.10
19.74
18.97
18.30
18.03
18.09
18.06
17.48
16.19
14.50
12.98
12.15
12.17
12.70
13.16
12.98
11.87
9.94
7.47
4.81
2.19
-0.26
-2.47
-4.38
-5.97
-7.36
-8.73
-10.32
-12.28
-14.55
-16.89
-18.87
-19.99
-19.70
-17.53
-13.34
-7.45
-0.75
5.48
9.90
11.75
11.05
8.66
5.86
3.76
2.89
3.21
4.29
5.70
7.20
8.57
9.55
9.70
8.64
6.39
3.49
0.79
-0.94
-1.39
-0.93
-0.33
-0.24
-0.85
-1.82
-2.62
-2.92
-2.75
-2.50
-2.48
-2.74
-3.00
-3.03
-2.78
-2.52
-2.62
-3.41
-4.97
-7.16
-9.71
-12.25
-14.43
-15.95
-16.69
-16.80
-16.62
-16.63
-17.15
-18.22
-19.51
-20.47
-20.45
-18.81
-15.24
-9.80
-3.08
3.87
9.81
13.77
15.42
15.27
14.29
13.45
13.35
13.97
15.03
16.19
17.40
18.78
20.34
21.87
22.92
23.04
22.00
19.99
17.58
15.35
13.68
12.59
11.77
10.79
9.41
7.64
5.73
3.89
2.23
0.67
-0.90
-2.51
-4.02
-5.24
-6.06
-6.51
-6.84
-7.33
-8.16
-9.34
-10.75
-12.30
-13.92
-15.60
-17.27
-18.79
-19.90
-20.41
-20.27
-19.66
-18.87
-18.15
-17.69
-17.45
-17.31
-16.99
-16.12
-14.25
-10.99
-6.22
-0.27
6.03
11.66
15.78
18.15
19.13
19.44
19.76
20.35
21.07
21.57
21.64
21.41
21.23
21.38
21.91
22.53
22.84
22.58
21.79
20.66
19.35
17.69
15.32
12.00
7.88
3.62
0.14
-1.82
-1.97
-0.62
1.56
3.67
4.92
4.73
2.93
-0.20
-3.90
-7.15
-9.12
-9.56
-9.03
-8.62
-9.34
-11.51
-14.50
-17.08
-18.11
-17.09
-14.41
-11.12
-8.41
-7.13
-7.52
-9.20
-11.44
-13.31
-14.06
-13.20
-10.70
-6.78
-2.05
2.83
7.16
10.35
12.05
12.25
11.38
10.07
9.00
8.51
8.57
8.88
9.13
9.17
8.97
8.50
7.56
5.96
3.71
1.18
-1.13
-2.87
-4.10
-5.30
-7.03
-9.54
-12.52
-15.31
-17.28
-18.23
-18.39
-18.17
-17.93
-17.68
-17.32
-16.65
-15.52
-13.91
-11.87
-9.57
-7.28
-5.34
-3.96
-3.21
-2.93
-2.83
-2.70
-2.48
-2.41
-2.88
-4.23
-6.41
-8.86
-10.63
-10.94
-9.57
-7.05
-4.46
-2.83
-2.53
-3.07
-3.55
-3.13
-1.58
0.73
3.15
5.12
6.40
7.03
7.05
6.44
5.19
3.49
1.73
0.42
-0.16
-0.17
-0.09
-0.48
-1.68
-3.57
-5.66
-7.42
-8.47
-8.78
-8.52
-8.00
-7.52
-7.29
-7.32
-7.62
-8.09
-8.73
-9.63
-10.97
-12.89
-15.38
-18.08
-20.43
-21.89
-22.24
-21.74
-21.03
-20.80
-21.39
-22.66
-24.05
-24.92
-24.86
-23.74
-21.57
-18.45
-14.47
-9.83
-4.95
-0.42
3.19
5.62
7.04
7.96
8.97
10.51
12.73
15.56
18.83
22.26
25.48
27.93
29.13
28.84
27.37
25.40
23.62
22.36
21.35
20.01
17.90
15.12
12.30
10.23
9.35
9.39
9.59
9.10
7.46
4.83
1.83
-0.85
-2.84
-4.15
-5.16
-6.35
-8.04
-10.35
-13.10
-15.89
-18.30
-19.94
-20.64
-20.56
-20.12
-19.87
-20.25
-21.33
-22.82
-24.19
-24.85
-24.35
-22.51
-19.32
-14.98
-9.84
-4.47
0.41
4.10
6.22
6.92
6.85
6.85
7.55
9.10
11.22
13.38
15.11
16.16
16.45
16.05
15.11
13.87
12.64
11.74
11.29
11.16
10.96
10.32
9.05
7.27
5.29
3.44
1.90
0.68
-0.25
-0.93
-1.33
-1.46
-1.47
-1.60
-2.14
-3.25
-4.86
-6.67
-8.32
-9.51
-10.22
-10.68
-11.17
-11.98
-13.17
-14.64
-16.20
-17.71
-19.15
-20.56
-21.96
-23.08
-23.49
-22.62
-20.07
-15.77
-10.09
-3.77
2.33
7.47
11.28
13.83
15.56
16.95
18.22
19.22
19.55
18.98
17.77
16.73
16.76
18.39
21.29
24.39
26.39
26.51
24.82
22.15
19.49
17.45
16.02
14.80
13.44
11.99
10.79
10.18
10.19
10.43
10.36
9.53
7.81
5.36
2.48
-0.58
-3.57
-6.25
-8.34
-9.66
-10.30
-10.70
-11.46
-13.08
-15.72
-19.04
-22.32
-24.73
-25.57
-24.37
-21.05
-15.88
-9.57
-3.18
2.09
5.27
5.97
4.67
2.49
0.82
0.71
2.51
5.82
9.75
13.34
15.89
17.10
16.99
15.76
13.73
11.28
8.84
6.78
5.32
4.45
3.91
3.39
2.65
1.65
0.49
-0.69
-1.80
-2.85
-3.86
-4.83
-5.70
-6.56
-7.66
-9.36
-11.93
-15.29
-18.89
-21.91
-23.59
-23.71
-22.70
-21.43
-20.84
-21.41
-23.05
-25.17
-26.97
-27.68
-26.65
-23.44
-17.93
-10.48
-2.07
5.84
11.82
15.03
15.65
14.74
13.78
13.95
15.64
18.43
21.46
23.86
25.12
25.17
24.23
22.66
20.78
18.86
17.05
15.38
13.78
12.13
10.38
8.64
7.10
5.92
5.08
4.35
3.35
1.82
-0.25
-2.59
-4.83
-6.69
-8.16
-9.47
-10.91
-12.71
-14.91
-17.33
-19.70
-21.62
-22.68
-22.63
-21.49
-19.67
-17.87
-16.77
-16.74
-17.66
-18.97
-19.94
-19.83
-18.13
-14.60
-9.34
-2.79
4.27
10.83
16.00
19.27
20.76
21.08
20.98
21.02
21.36
21.87
22.37
22.79
23.19
23.52
23.61
23.13
21.89
19.97
17.75
15.69
13.97
12.41
10.62
8.35
5.79
3.50
2.02
1.45
1.34
0.97
-0.26
-2.32
-4.67
-6.59
-7.70
-8.17
-8.50
-9.15
-10.21
-11.43
-12.41
-12.98
-13.24
-13.44
-13.75
-14.21
-14.73
-15.26
-15.87
-16.72
-17.92
-19.35
-20.67
-21.41
-21.07
-19.29
-15.91
-11.10
-5.31
0.69
6.06
10.14
12.65
13.77
14.00
13.94
13.97
14.22
14.65
15.12
15.63
16.24
17.00
17.85
18.54
18.79
18.46
17.62
16.61
15.79
15.38
15.31
15.28
14.98
14.23
13.16
12.07
11.36
11.17
11.38
11.62
11.54
10.91
9.89
8.93
8.59
9.37
11.43
14.60
18.26
21.64
24.01
24.97
24.62
23.42
22.01
20.93
20.45
20.69
21.67
23.41
25.92
29.08
32.40
35.17
36.65
36.42
34.53
31.51
28.08
24.81
21.94
19.30
16.52
13.18
8.94
3.56
-3.01
-10.74
-19.54
-29.24
-39.58
-50.18
-60.44
-69.67
-77.14
-82.30
-84.93
-85.21
-83.63
-80.82
-77.32
-73.53
-69.64
-65.82
-62.21
-59.03
-56.44
-54.46
-52.84
-51.01
-48.19
-43.69
-37.27
-29.30
-20.74
-12.75
-6.23
-1.54
1.64
3.97
6.18
8.69
11.61
14.88
18.30
21.70
24.84
27.36
28.87
29.11
28.14
26.43
24.69
23.60
23.54
24.55
26.42
28.67
30.76
32.12
32.34
31.16
28.69
25.41
21.96
18.93
16.55
14.67
12.94
10.96
8.58
5.87
3.07
0.38
-2.02
-3.98
-5.32
-5.99
-6.10
-6.06
-6.50
-8.11
-11.18
-15.56
-20.55
-25.10
-28.27
-29.64
-29.35
-28.24
-27.38
-27.72
-29.64
-32.81
-36.30
-38.82
-39.30
-37.07
-32.28
-25.76
-18.77
-12.79
-8.94
-7.76
-8.97
-11.72
-14.99
-17.90
-20.03
-21.48
-22.64
-23.84
-25.28
-27.00
-28.95
-31.09
-33.35
-35.48
-36.98
-37.29
-35.85
-32.38
-26.94
-19.83
-11.40
-1.79
8.84
20.33
32.33
44.37
55.91
66.53
76.02
84.22
90.92
95.75
98.26
98.04
94.89
88.93
80.62
70.79
60.40
50.41
41.43
33.60
26.55
19.79
13.01
6.38
0.50
-3.98
-6.82
-8.11
-8.14
-6.94
-4.13
0.87
8.19
17.07
25.95
32.99
36.97
37.82
36.50
34.45
32.79
31.94
31.68
31.61
31.62
31.88
32.66
33.97
35.41
36.32
36.19
34.86
32.58
29.84
27.09
24.61
22.60
21.31
21.13
22.45
25.34
29.42
33.90
37.90
40.91
42.94
44.47
46.05
47.92
49.88
51.37
51.91
51.29
49.65
47.21
43.95
39.55
33.53
25.53
15.48
3.59
-9.88
-24.84
-41.40
-59.69
-79.64
-100.78
-122.36
-143.55
-163.77
-182.68
-200.03
-215.35
-227.72
-235.74
-237.79
-232.51
-219.21
-198.46
-172.20
-143.47
-115.57
-91.09
-71.08
-55.02
-41.47
-29.02
-17.20
-6.46
2.45
9.38
15.10
20.95
27.93
35.96
43.85
49.93
53.03
53.09
51.18
48.97
47.99
48.98
51.65
54.98
57.67
58.60
57.35
54.21
49.98
45.45
41.05
36.75
32.36
27.99
24.29
22.26
22.59
25.18
28.98
32.35
33.83
32.79
29.60
25.41
21.62
19.24
18.64
19.51
21.18
23.00
24.58
25.89
27.10
28.33
29.53
30.45
30.87
30.66
29.89
28.82
27.68
26.68
25.89
25.37
25.07
24.90
24.68
24.25
23.54
22.64
21.78
21.16
20.56
19.35
16.64
11.68
4.39
-4.51
-13.86
-22.35
-29.13
-33.90
-36.87
-38.41
-38.89
-38.58
-37.60
-35.81
-32.79
-27.92
-20.75
-11.48
-1.28
7.92
14.11
16.21
14.60
10.96
7.45
5.66
6.08
8.16
10.86
13.35
15.25
16.47
16.95
16.51
14.97
12.49
9.56
6.87
4.93
3.77
2.93
1.78
-0.05
-2.48
-5.06
-7.31
-9.00
-10.20
-11.20
-12.28
-13.66
-15.52
-18.19
-22.04
-27.32
-33.93
-41.32
-48.67
-55.09
-59.97
-63.13
-64.76
-65.15
-64.54
-62.99
-60.51
-57.08
-52.82
-47.93
-42.73
-37.49
-32.31
-27.10
-21.62
-15.66
-9.34
-3.19
1.95
5.30
6.51
5.90
4.31
2.78
2.10
2.52
3.86
5.65
7.49
9.16
10.54
11.62
12.37
12.83
13.17
13.63
14.50
15.91
17.76
19.65
21.12
21.87
21.97
21.79
21.90
22.75
24.37
26.38
28.08
28.80
28.23
26.60
24.58
22.96
22.22
22.27
22.51
22.18
20.81
18.42
15.49
12.69
10.56
9.33
9.03
9.67
11.31
13.98
17.47
21.24
24.51
26.56
27.04
26.09
24.20
21.97
19.84
18.14
17.06
16.79
17.51
19.19
21.53
23.87
25.47
25.75
24.62
22.25
19.07
15.37
11.33
7.00
2.54
-1.64
-4.94
-6.81
-7.04
-5.89
-4.07
-2.42
-1.73
-2.40
-4.38
-7.23
-10.24
-12.62
-13.81
-13.68
-12.55
-11.10
-10.12
-10.28
-11.94
-15.02
-18.94
-22.76
-25.33
-25.68
-23.33
-18.75
-13.17
-8.26
-5.35
-4.89
-6.25
-8.12
-9.13
-8.41
-5.82
-1.78
3.14
8.46
13.85
18.88
22.98
25.46
25.77
23.91
20.51
16.68
13.56
11.83
11.47
11.76
11.71
10.46
7.72
3.80
-0.54
-4.49
-7.53
-9.52
-10.69
-11.50
-12.47
-13.97
-16.24
-19.28
-22.98
-27.05
-31.15
-34.85
-37.81
-39.76
-40.64
-40.66
-40.27
-40.05
-40.50
-41.76
-43.42
-44.49
-43.74
-40.26
-33.98
-25.85
-17.65
-11.30
-8.12
-8.35
-11.15
-15.15
-19.18
-22.67
-25.58
-28.15
-30.52
-32.73
-34.94
-37.68
-41.63
-47.14
-53.74
-60.02
-64.16
-64.75
-61.51
-55.46
-48.31
-41.61
-36.02
-31.07
-25.61
-18.64
-9.85
0.07
9.71
17.62
22.81
25.11
25.04
23.64
21.98
21.03
21.38
23.28
26.72
31.28
36.21
40.67
43.93
45.56
45.49
43.99
41.43
38.34
35.41
33.44
33.16
34.98
38.72
43.48
48.00
50.92
51.36
49.05
44.42
38.42
32.14
26.59
22.39
19.79
18.51
18.04
17.81
17.43
16.77
15.94
15.14
14.54
14.20
14.14
14.44
15.17
16.38
17.99
19.81
21.53
22.91
23.87
24.44
24.77
25.01
25.20
25.40
25.65
26.10
26.93
28.37
30.52
33.27
36.32
39.16
41.20
41.87
40.69
37.51
32.54
26.39
19.95
14.08
9.42
6.16
4.11
2.87
2.01
1.27
0.49
-0.43
-1.64
-3.23
-5.21
-7.36
-9.29
-10.64
-11.29
-11.33
-11.04
-10.72
-10.54
-10.53
-10.62
-10.66
-10.49
-9.98
-9.01
-7.66
-6.18
-4.90
-4.10
-3.81
-3.80
-3.72
-3.24
-2.31
-1.08
0.19
1.22
1.80
1.79
1.15
-0.06
-1.63
-3.25
-4.63
-5.66
-6.51
-7.53
-9.15
-11.72
-15.35
-19.90
-24.89
-29.62
-33.24
-34.97
-34.48
-32.01
-28.49
-25.16
-23.08
-22.73
-23.83
-25.55
-27.00
-27.58
-27.18
-26.00
-24.32
-22.30
-20.07
-17.78
-15.77
-14.49
-14.29
-15.24
-16.98
-18.98
-20.68
-21.77
-22.16
-21.90
-20.95
-19.21
-16.54
-12.93
-8.54
-3.68
1.36
6.39
11.27
15.84
19.77
22.66
24.19
24.27
23.15
21.34
19.38
17.58
15.98
14.46
12.88
11.27
9.78
8.58
7.67
6.83
5.82
4.55
3.30
2.60
2.91
4.37
6.56
8.69
9.96
10.04
9.16
8.05
7.42
7.69
8.86
10.66
12.79
15.13
17.69
20.48
23.26
25.58
26.93
27.00
25.81
23.68
21.08
18.42
15.99
13.94
12.39
11.39
10.89
10.74
10.78
10.90
11.08
11.41
11.91
12.43
12.62
12.03
10.38
7.78
4.71
1.81
-0.34
-1.47
-1.64
-1.15
-0.39
0.27
0.36
-0.67
-3.47
-8.53
-15.92
-25.09
-34.90
-43.96
-50.98
-55.25
-56.70
-55.86
-53.48
-50.27
-46.71
-43.07
-39.56
-36.47
-34.07
-32.43
-31.30
-30.05
-27.89
-24.05
-18.15
-10.40
-1.55
7.32
15.23
21.67
26.76
31.10
35.40
40.05
44.92
49.39
52.65
54.12
53.62
51.31
47.54
42.77
37.44
32.02
27.00
22.75
19.32
16.27
12.89
8.37
2.24
-5.39
-13.88
-22.27
-29.66
-35.46
-39.53
-42.10
-43.62
-44.55
-45.19
-45.67
-46.03
-46.30
-46.55
-46.93
-47.49
-48.06
-48.35
-48.00
-47.01
-45.84
-45.33
-46.21
-48.55
-51.38
-52.94
-51.47
-46.18
-37.84
-28.48
-20.55
-15.83
-14.69
-16.13
-18.26
-19.10
-17.06
-11.24
-1.49
11.42
25.83
39.51
50.21
56.42
57.97
55.98
52.21
48.35
45.45
43.93
43.90
45.44
48.49
52.65
56.96
60.08
60.80
58.55
53.62
46.93
39.47
31.90
24.42
16.99
9.67
2.81
-3.02
-7.24
-9.45
-9.54
-7.67
-4.34
-0.33
3.45
6.19
7.43
7.22
6.24
5.38
5.52
7.04
9.77
13.03
15.95
17.81
18.26
17.37
15.60
13.56
11.89
11.03
11.15
11.97
12.86
13.01
11.76
8.91
4.91
0.75
-2.47
-4.01
-3.85
-2.69
-1.60
-1.54
-2.93
-5.60
-8.94
-12.25
-15.01
-17.01
-18.30
-19.07
-19.55
-19.97
-20.64
-21.77
-23.50
-25.69
-27.98
-29.85
-30.81
-30.58
-29.17
-26.81
-23.88
-20.77
-17.74
-14.98
-12.61
-10.66
-9.08
-7.78
-6.61
-5.44
-4.28
-3.21
-2.37
-1.90
-1.86
-2.23
-2.92
-3.78
-4.55
-4.91
-4.56
-3.33
-1.26
1.31
3.80
5.64
6.47
6.31
5.55
4.79
4.51
4.91
5.87
7.13
8.46
9.84
11.30
12.69
13.56
13.19
10.99
6.89
1.56
-3.80
-7.95
-10.13
-10.38
-9.35
-7.97
-6.94
-6.45
-6.28
-6.02
-5.28
-3.91
-1.96
0.28
2.38
3.89
4.51
4.22
3.34
2.43
1.98
2.29
3.31
4.75
6.27
7.63
8.77
9.80
10.81
11.78
12.53
12.81
12.33
10.87
8.37
5.04
1.39
-1.95
-4.42
-5.71
-5.87
-5.25
-4.22
-3.08
-1.89
-0.52
1.18
3.18
5.30
7.23
8.81
10.13
11.53
13.31
15.52
17.80
19.48
19.88
18.62
15.85
12.18
8.42
5.24
3.01
1.79
1.37
1.53
2.07
2.80
3.62
4.56
5.69
7.16
9.00
11.10
13.10
14.50
14.87
14.08
12.39
10.32
8.29
6.47
4.80
3.21
1.76
0.68
0.33
0.81
1.91
3.02
3.66
3.84
4.20
5.63
8.65
13.03
17.77
21.69
23.93
24.54
24.49
25.00
26.74
29.42
32.00
33.42
33.29
31.44
28.49
25.47
23.42
22.73
23.07
23.81
24.58
25.49
25.55
24.05
20.82
16.44
11.52
6.40
1.40
-2.85
-5.27
-6.79
-8.18
-9.80
-11.46
-13.31
-16.49
-22.41
-31.71
-43.90
-60.31
-81.00
-104.83
-129.06
-151.30
-171.07
-189.60
-209.01
-213.72
-193.82
-150.29
-95.39
-40.97
7.40
48.54
82.57
109.78
130.80
142.11
145.16
141.66
134.55
126.07
116.58
105.05
90.17
70.90
44.30
12.87
-21.58
-56.50
-90.06
-122.15
-153.90
-186.76
-221.91
-261.27
-305.19
-352.65
-399.48
-439.33
-465.33
-471.87
-456.27
-419.64
-367.33
-306.26
-243.52
-183.62
-128.31
-77.48
-30.36
13.20
52.27
85.02
110.36
128.52
141.92
154.01
167.56
183.18
199.06
212.05
219.52
221.03
218.31
214.41
211.77
210.87
209.97
206.09
196.91
182.18
163.80
144.80
127.63
112.64
97.69
79.56
56.21
28.82
2.07
-17.85
-26.30
-22.68
-10.69
3.49
14.42
19.75
20.75
20.67
22.38
26.69
32.11
35.97
36.04
31.88
25.09
18.75
16.07
19.21
28.51
42.26
57.64
71.98
83.73
92.56
98.66
101.76
100.54
93.31
79.21
59.32
36.85
15.93
-0.10
-10.03
-14.94
-17.33
-19.51
-22.68
-26.72
-30.86
-34.50
-37.52
-40.16
-42.55
-44.53
-45.62
-45.44
-43.99
-41.63
-39.02
-36.62
-34.74
-33.35
-32.32
-31.30
-29.77
-26.98
-22.17
-14.96
-5.61
4.91
15.28
24.39
31.78
37.53
41.96
45.30
47.47
48.31
47.89
46.72
45.53
44.79
44.33
43.32
40.67
35.56
27.86
18.15
7.29
-3.82
-14.60
-24.48
-32.85
-38.95
-42.13
-42.11
-39.19
-34.18
-28.10
-21.95
-16.30
-11.28
-6.66
-2.12
2.43
6.71
10.02
11.56
10.85
8.17
4.77
2.44
2.90
6.99
14.37
23.66
33.21
41.61
48.05
52.24
54.08
53.70
51.53
48.43
45.60
44.02
43.82
44.02
42.89
38.81
31.21
21.05
10.41
1.58
-3.75
-5.16
-3.41
-0.01
3.46
5.70
6.00
4.30
1.25
-2.00
-4.16
-4.27
-1.98
2.31
7.69
13.06
17.53
20.66
22.38
22.88
22.33
20.89
18.77
16.30
13.96
12.27
11.59
12.01
13.25
14.70
15.58
15.08
12.61
7.91
1.21
-6.96
-15.81
-24.61
-32.83
-40.30
-46.98
-52.84
-57.75
-61.48
-63.91
-65.00
-64.65
-62.50
-58.06
-51.18
-42.56
-33.97
-27.72
-25.66
-28.10
-33.51
-39.06
-41.89
-40.55
-35.49
-28.73
-22.71
-19.01
-17.77
-17.85
-17.63
-15.84
-12.14
-7.12
-1.87
2.60
5.68
7.44
8.27
8.66
8.81
8.55
7.40
4.85
0.68
-4.84
-10.89
-16.34
-20.15
-21.65
-20.71
-17.56
-12.55
-6.00
1.81
10.41
19.13
27.14
33.77
38.73
41.91
43.04
41.31
35.32
23.58
5.47
-18.07
-44.08
-68.09
-85.07
-90.85
-83.54
-64.32
-37.21
-7.78
18.81
39.56
54.11
63.95
70.82
75.27
76.60
73.81
66.96
57.57
47.84
39.03
30.59
20.80
8.51
-5.53
-18.77
-28.34
-32.88
-33.13
-31.13
-28.61
-26.10
-23.34
-20.33
-18.03
-17.85
-20.36
-24.21
-26.44
-23.93
-15.41
-2.32
11.97
23.88
31.31
34.26
34.14
32.79
31.67
31.56
32.70
35.15
38.94
44.06
50.38
57.67
65.45
72.99
79.50
84.30
87.18
88.47
89.05
90.04
92.40
96.55
102.27
108.83
115.30
121.00
125.66
129.48
132.79
135.72
137.88
138.44
136.49
131.70
124.80
117.47
111.69
108.84
108.85
110.15
110.11
106.06
96.25
80.44
59.76
36.14
11.33
-13.81
-39.60
-67.11
-97.66
-132.00
-169.90
-210.04
-250.23
-287.66
-319.30
-342.16
-353.75
-352.85
-340.57
-320.69
-299.13
-281.75
-271.79
-268.34
-266.72
-260.97
-247.05
-224.68
-196.73
-166.79
-136.45
-104.39
-67.98
-26.17
18.25
59.01
88.82
102.51
98.59
78.60
45.02
-0.05
-54.55
-114.79
-174.35
-224.88
-258.72
-271.95
-265.80
-245.59
-217.84
-187.45
-156.40
-124.54
-91.34
-57.28
-23.87
7.51
36.58
64.31
91.97
119.78
146.17
168.33
183.49
190.39
190.01
185.19
179.35
175.09
173.33
173.39
173.79
173.10
170.56
166.22
160.68
154.63
148.61
142.80
137.09
131.15
124.69
117.56
109.93
102.09
94.30
86.56
78.58
69.95
60.49
50.43
40.46
31.47
24.25
19.33
16.80
16.39
17.57
19.65
21.91
23.74
24.85
25.33
25.64
26.35
27.89
30.33
33.32
36.27
38.61
40.10
40.85
41.31
41.96
43.18
45.05
47.44
50.10
52.88
55.80
59.00
62.60
66.61
70.84
75.00
78.77
81.92
84.26
85.68
86.11
85.73
85.22
85.80
88.79
94.70
102.38
108.75
109.67
101.52
82.63
53.87
18.11
-21.06
-60.47
-97.93
-131.86
-160.93
-184.08
-201.03
-212.72
-221.06
-228.01
-234.31
-238.98
-239.91
-235.28
-224.89
-210.52
-195.15
-181.63
-171.54
-164.76
-159.82
-154.84
-148.38
-140.03
-130.44
-120.92
-113.03
-107.98
-106.22
-107.45
-110.74
-114.62
-116.79
-114.28
-103.95
-83.72
-53.85
-17.55
19.47
50.94
72.41
82.81
84.56
82.09
79.65
79.68
82.35
86.31
89.84
91.82
91.97
90.50
87.69
83.61
78.06
70.87
62.10
52.24
42.16
32.79
24.86
18.79
14.64
12.12
10.89
10.62
11.13
12.31
14.00
15.96
17.87
19.31
20.05
20.13
19.95
20.14
21.28
23.67
27.07
30.84
34.15
36.33
37.17
37.00
36.49
36.39
37.18
39.03
41.76
45.01
48.43
51.67
54.42
56.33
57.12
56.68
55.16
53.04
50.92
49.31
48.36
47.85
47.33
46.38
44.84
42.91
40.96
39.33
38.08
36.93
35.40
32.97
29.35
24.54
18.89
13.04
7.76
3.82
1.77
1.73
3.35
5.91
8.50
10.38
11.00
10.32
8.84
7.34
6.66
7.17
9.04
12.33
17.06
23.03
30.07
38.03
46.84
56.37
66.07
75.28
83.47
90.42
95.77
99.64
102.77
106.19
111.04
117.45
125.17
133.83
142.95
150.59
155.27
156.87
156.65
157.01
158.43
160.71
163.25
164.80
161.06
148.74
127.76
101.10
74.36
49.32
26.95
8.21
-6.78
-22.79
-44.06
-71.37
-101.97
-129.91
-155.34
-179.18
-201.46
-222.41
-247.73
-281.59
-323.10
-366.80
-403.61
-433.31
-457.86
-478.69
-458.57
-376.16
-241.94
-91.81
19.35
96.32
148.68
182.19
207.72
228.08
238.54
235.48
220.51
200.11
184.38
174.44
168.84
166.27
164.67
158.58
144.49
123.32
99.75
81.13
67.66
57.56
49.34
41.34
30.37
14.76
-4.42
-24.16
-40.40
-54.07
-67.59
-82.87
-101.32
-124.13
-151.22
-181.00
-211.27
-239.86
-267.52
-296.21
-328.14
-365.84
-411.52
-465.53
-524.85
-582.71
-629.71
-657.31
-660.44
-639.32
-599.54
-549.61
-497.73
-449.13
-405.41
-365.62
-328.21
-292.49
-258.82
-227.78
-199.22
-171.87
-143.95
-114.09
-82.09
-48.96
-16.60
13.17
39.36
62.22
83.04
103.59
125.40
149.13
174.40
200.06
224.81
247.99
269.68
290.86
312.74
336.28
361.78
389.18
418.60
450.63
485.89
523.91
562.04
595.19
617.04
622.25
608.47
577.17
532.68
480.23
423.87
366.04
308.53
254.11
207.00
171.53
149.84
140.07
136.78
133.48
125.91
113.85
100.33
89.27
82.87
80.86
81.54
83.54
86.74
91.56
97.48
101.77
99.98
87.82
63.63
29.49
-9.42
-46.40
-75.43
-93.17
-100.04
-99.57
-96.56
-95.03
-96.61
-100.05
-101.73
-96.99
-81.76
-54.00
-14.16
34.48
86.03
132.97
167.83
185.34
183.96
166.04
136.22
99.81
61.10
22.39
-15.33
-51.64
-85.72
-116.77
-144.68
-171.07
-197.99
-226.89
-258.46
-293.07
-331.48
-374.56
-422.68
-474.75
-528.67
-578.39
-614.66
-629.00
-618.06
-586.46
-543.56
-499.38
-460.36
-430.33
-407.32
-384.99
-357.37
-322.04
-281.52
-238.62
-194.96
-151.76
-115.36
-92.59
-87.25
-98.84
-122.33
-150.87
-174.91
-185.95
-159.40
-93.73
-12.30
55.01
90.26
104.19
107.72
108.33
108.35
108.28
104.86
97.34
89.23
85.55
89.74
100.31
114.65
130.53
146.68
159.99
169.47
177.13
186.15
198.58
213.12
228.26
243.11
257.74
270.95
282.62
294.16
307.50
323.85
342.41
362.50
384.20
408.56
436.28
468.23
504.79
544.46
582.91
613.08
627.85
622.49
596.29
552.26
496.28
435.01
373.82
315.66
261.27
210.59
163.93
122.15
85.93
54.89
27.14
-0.35
-30.58
-65.22
-103.76
-143.74
-181.87
-215.42
-243.50
-267.32
-289.63
-313.65
-341.83
-375.48
-414.02
-454.81
-493.38
-523.77
-539.47
-535.03
-507.91
-459.63
-395.79
-324.54
-254.28
-191.25
-138.24
-94.81
-58.87
-28.67
-4.27
12.49
19.63
17.12
7.68
-4.28
-14.97
-23.38
-31.70
-43.68
-61.99
-86.01
-111.45
-131.99
-141.50
-136.54
-116.89
-84.66
-42.98
5.17
57.68
113.08
169.65
224.49
273.08
309.92
330.12
331.34
314.96
285.70
249.59
211.64
174.18
136.59
96.39
51.32
1.05
-51.99
-102.67
-144.27
-170.33
-176.50
-162.05
-130.02
-86.05
-36.52
13.10
59.24
99.77
133.15
157.81
172.32
176.03
169.84
156.26
138.64
120.01
102.02
84.60
66.53
46.20
22.27
-6.11
-39.02
-75.65
-114.07
-151.22
-182.93
-204.59
-212.57
-205.44
-184.90
-155.66
-124.38
-97.08
-77.16
-63.85
-52.74
-37.59
-12.83
24.21
72.48
127.88
184.33
235.10
274.06
296.84
302.03
291.94
272.16
249.98
231.91
221.24
217.05
215.10
209.81
196.53
173.04
139.68
98.91
54.76
12.18
-23.44
-47.30
-56.59
-52.37
-39.73
-26.54
-21.15
-29.87
-54.92
-93.86
-140.72
-188.01
-228.50
-256.99
-271.24
-272.15
-263.02
-248.00
-230.28
-211.16
-190.45
-167.83
-144.82
-125.44
-114.51
-115.11
-126.30
-143.00
-158.33
-166.79
-166.74
-160.36
-151.74
-144.19
-138.69
-134.34
-129.96
-125.58
-122.98
-124.84
-133.47
-149.81
-173.46
-203.27
-237.97
-276.19
-316.06
-354.51
-387.15
-409.07
-416.33
-407.59
-384.82
-352.65
-316.59
-281.10
-248.26
-217.71
-187.79
-157.01
-125.04
-92.73
-61.50
-32.41
-5.71
19.18
43.14
66.83
90.57
114.42
138.27
161.97
185.43
208.59
231.51
254.29
277.09
300.27
324.73
352.01
383.93
421.37
462.68
502.69
533.23
545.51
533.37
495.82
437.48
366.54
291.46
218.05
148.71
83.29
20.87
-39.20
-96.82
-151.34
-201.93
-247.56
-286.59
-316.76
-335.85
-342.54
-337.38
-323.13
-304.33
-286.28
-273.57
-268.88
-272.13
-280.47
-289.13
-292.94
-287.98
-272.74
-248.18
-216.82
-181.51
-144.65
-107.97
-72.56
-39.25
-8.76
18.41
42.24
63.66
84.39
106.47
131.67
160.61
191.99
222.75
248.87
266.52
273.31
268.94
255.06
234.45
209.96
183.74
156.83
129.27
100.71
71.26
42.21
16.31
-2.56
-10.31
-3.96
17.08
50.40
90.79
131.43
165.56
188.30
197.89
195.95
186.74
175.69
167.45
164.61
167.40
174.17
182.52
190.51
196.87
200.71
201.08
197.06
188.35
176.20
163.57
154.31
151.53
156.00
165.80
177.40
187.45
194.23
197.91
199.64
200.32
200.15
199.00
197.18
195.57
194.80
194.19
191.49
183.94
170.21
151.85
133.03
118.57
111.36
110.62
112.23
110.83
102.49
86.19
63.71
38.15
12.21
-13.03
-38.06
-64.02
-91.47
-119.43
-145.43
-166.23
-179.19
-183.51
-180.88
-175.08
-170.67
-171.47
-179.54
-194.67
-214.69
-236.24
-255.74
-270.06
-277.20
-276.58
-268.93
-255.91
-239.27
-220.44
-200.43
-179.82
-158.75
-137.25
-115.28
-92.98
-70.89
-50.06
-31.81
-17.13
-6.05
2.32
8.84
13.13
13.00
5.54
-10.53
-32.58
-53.54
-64.09
-57.17
-32.04
4.61
41.50
68.05
79.22
77.12
68.51
59.90
53.85
48.47
39.93
25.67
6.39
-14.79
-35.18
-54.66
-75.73
-100.66
-128.41
-154.33
-172.76
-180.99
-181.54
-180.99
-185.83
-198.52
-214.96
-226.28
-223.68
-203.06
-166.59
-120.56
-71.62
-23.82
20.96
63.97
108.29
156.44
208.56
262.22
313.43
357.67
390.77
406.79
402.89
381.00
346.22
303.53
256.27
206.70
156.82
108.58
59.38
8.44
-41.40
-85.85
-123.26
-155.46
-185.92
-218.06
-254.69
-303.62
-368.72
-446.20
-526.12
-597.50
-651.02
-679.83
-680.81
-618.94
-489.68
-326.14
-175.61
-65.05
4.89
46.30
71.87
89.54
103.60
108.62
101.39
85.55
69.51
60.41
62.00
75.64
101.54
134.97
166.83
190.31
204.01
211.23
215.83
220.83
228.31
238.82
251.08
260.14
262.52
257.95
248.58
234.92
215.68
189.98
159.32
128.19
101.67
84.24
76.22
72.96
64.80
43.17
6.68
-37.32
-76.07
-97.88
-96.33
-72.84
-33.35
8.10
35.80
41.24
28.91
10.08
-7.90
-19.03
-29.42
-42.07
-54.77
-60.30
-49.54
-19.00
30.02
89.69
147.59
189.38
204.66
189.19
147.42
91.62
37.54
-1.26
-18.22
-14.38
3.12
26.52
49.91
71.11
90.77
109.63
126.51
137.97
140.77
134.15
121.86
110.51
106.65
113.56
129.53
148.81
164.59
172.61
173.03
170.10
168.96
172.44
179.31
184.80
183.09
170.19
145.84
113.40
78.19
45.03
16.47
-7.46
-28.56
-48.88
-69.59
-90.50
