1559311950.00
64.000000
-0.00
-0.00
-0.00
-0.00
-0.00
-0.00
-0.00
-0.00
-0.00
-0.00
0.00
0.01
0.01
-0.00
-0.03
-0.05
-0.05
0.00
0.13
0.36
0.66
1.01
1.37
1.72
2.06
2.40
2.79
3.24
3.80
4.42
5.06
5.66
6.20
6.68
7.15
7.68
8.31
9.14
10.09
11.04
11.88
12.56
13.14
13.76
14.65
15.96
17.91
20.32
22.90
25.38
27.58
29.57
31.68
34.32
37.81
42.54
48.15
54.10
59.83
64.97
69.58
74.14
79.34
85.71
93.76
103.00
112.62
121.73
129.77
136.75
143.30
150.75
157.77
166.64
177.95
191.79
206.97
220.57
228.25
225.36
208.53
176.87
132.76
80.05
23.07
-34.94
-92.44
-149.16
-205.23
-260.37
-313.74
-363.86
-409.81
-450.87
-486.44
-515.65
-537.10
-549.06
-549.75
-538.11
-513.89
-478.30
-433.44
-381.95
-326.45
-269.20
-211.92
-155.87
-102.09
-51.42
-4.87
36.71
72.66
102.70
126.97
145.98
160.44
171.06
178.47
183.05
185.11
184.86
182.58
178.62
173.39
167.30
160.70
153.83
146.83
139.79
132.74
125.71
118.78
112.02
105.49
99.26
93.34
87.77
82.55
77.68
73.19
69.07
65.34
62.00
59.07
56.54
54.39
52.61
51.16
49.98
48.98
48.03
46.98
45.66
43.89
41.51
38.40
34.48
29.76
24.27
18.15
11.61
4.87
-1.78
-8.08
-13.79
-18.71
-22.72
-25.73
-27.75
-28.83
-29.06
-28.57
-27.45
-25.84
-23.81
-21.48
-18.92
-16.21
-13.40
-10.51
-7.52
-4.38
-1.03
2.53
6.24
10.03
13.75
17.26
20.50
23.56
26.61
29.87
33.56
37.78
42.54
47.77
53.19
58.58
63.85
68.97
73.94
78.66
82.90
86.35
88.68
89.53
88.93
87.44
85.91
85.22
85.89
87.81
90.24
92.08
91.90
88.78
82.46
73.24
61.54
47.32
29.62
6.54
-21.83
-55.79
-94.77
-136.98
-180.02
-221.32
-259.09
-292.76
-322.92
-351.02
-379.46
-410.97
-447.94
-491.39
-539.58
-587.25
-626.28
-648.04
-646.52
-621.05
-576.42
-520.91
-463.05
-408.80
-360.48
-317.64
-278.94
-243.71
-212.36
-185.44
-162.67
-142.66
-123.43
-103.48
-82.50
-61.39
-41.84
-25.40
-12.70
-3.21
4.47
11.89
20.12
29.30
38.69
47.08
53.39
57.14
58.62
58.72
58.46
58.66
59.58
60.97
62.26
62.83
62.37
60.93
58.96
57.09
55.93
55.85
56.88
58.68
60.70
62.38
63.35
63.64
63.62
63.95
65.24
67.87
71.69
76.14
80.47
84.01
86.67
88.92
91.75
96.17
102.79
111.47
121.34
131.28
140.37
148.51
156.45
165.59
177.45
193.38
214.33
240.60
271.53
304.95
337.24
363.76
380.34
384.76
377.56
361.58
340.59
317.51
293.52
268.55
242.34
215.48
189.61
166.42
146.54
129.05
111.86
92.73
70.38
44.91
17.85
-7.92
-28.68
-40.38
-39.94
-26.56
-2.77
25.91
52.53
71.04
78.53
75.67
65.85
53.10
40.34
28.79
18.50
9.67
3.34
1.17
4.35
12.64
24.02
35.49
44.62
50.83
55.62
61.67
70.93
83.09
95.44
104.09
105.98
100.46
89.41
76.23
64.07
54.63
47.91
42.95
38.80
34.91
31.35
28.17
25.23
22.11
18.38
13.87
8.71
3.23
-2.16
-7.10
-11.30
-14.46
-16.44
-17.28
-17.23
-16.58
-15.60
-14.36
-12.88
-11.28
-9.85
-9.04
-9.16
-10.22
-11.86
-13.54
-14.79
-15.41
-15.57
-15.61
-15.83
-16.27
-16.73
-16.90
-16.55
-15.69
-14.58
-13.56
-12.99
-13.01
-13.42
-13.89
-14.02
-13.70
-13.15
-12.83
-13.12
-14.00
-14.99
-15.38
-14.69
-12.92
-10.65
-8.73
-7.83
-8.15
-9.26
-10.49
-11.23
-11.29
-11.00
-10.86
-11.22
-12.03
-12.75
-12.72
-11.61
-9.59
-7.38
-5.77
-5.23
-5.65
-6.50
-7.22
-7.53
-7.56
-7.57
-7.72
-7.85
-7.61
-6.79
-5.46
-4.08
-3.24
-3.29
-4.13
-5.23
-6.00
-6.07
-5.60
-5.07
-5.02
-5.69
-6.82
-7.80
-8.09
-7.54
-6.46
-5.51
-5.25
-5.83
-6.95
-8.13
-8.99
-9.48
-9.77
-10.03
-10.22
-10.11
-9.45
-8.13
-6.43
-4.79
-3.70
-3.43
-3.92
-4.89
-5.88
-6.41
-6.05
-4.66
-2.36
0.29
2.57
3.76
3.50
1.98
-0.16
-2.06
-3.07
-2.96
-1.94
-0.52
0.71
1.35
1.29
0.66
-0.25
-1.14
-1.72
-1.96
-1.93
-1.84
-1.95
-2.32
-2.86
-3.29
-3.34
-2.88
-2.02
-1.05
-0.23
0.32
0.59
0.54
0.11
-0.90
-2.61
-4.92
-7.43
-9.43
-10.31
-9.88
-8.46
-6.79
-5.67
-5.56
-6.39
-7.72
-8.94
-9.68
-9.93
-9.96
-10.11
-10.50
-11.04
-11.49
-11.79
-12.08
-12.65
-13.61
-14.69
-15.27
-14.62
-12.34
-8.53
-3.89
0.62
4.04
5.88
6.13
5.27
4.12
3.41
3.59
4.61
5.97
6.91
6.79
5.51
3.49
1.40
-0.16
-0.92
-1.04
-0.78
-0.33
0.32
1.14
1.90
2.24
1.84
0.70
-0.75
-1.87
-2.22
-1.87
-1.35
-1.37
-2.32
-4.11
-6.11
-7.60
-8.05
-7.46
-6.22
-5.01
-4.37
-4.48
-5.13
-5.86
-6.19
-5.88
-5.02
-3.92
-2.95
-2.36
-2.23
-2.51
-3.09
-3.82
-4.48
-4.79
-4.59
-3.88
-3.06
-2.59
-2.84
-3.76
-4.88
-5.53
-5.27
-4.04
-2.14
-0.03
1.92
3.41
4.19
3.95
2.51
-0.04
-3.19
-6.15
-8.07
-8.47
-7.40
-5.37
-3.00
-0.78
1.14
2.84
4.40
5.68
6.36
6.10
4.77
2.71
0.69
-0.30
0.50
3.18
6.86
9.98
10.76
8.06
1.98
-6.13
-14.08
-19.71
-21.80
-20.30
-16.25
-11.11
-6.15
-2.06
0.95
2.93
3.94
3.96
3.05
1.47
-0.31
-1.73
-2.39
-2.23
-1.51
-0.59
0.16
0.59
0.71
0.61
0.46
0.32
0.22
0.18
0.23
0.43
0.91
1.77
3.05
4.75
6.71
8.70
10.45
11.75
12.47
12.71
12.67
12.53
12.33
11.97
11.28
10.16
8.55
6.45
3.90
0.92
-2.39
-5.71
-8.70
-10.89
-12.10
-12.45
-12.36
-12.34
-12.69
-13.44
-14.24
-14.68
-14.39
-13.29
-11.52
-9.44
-7.44
-5.90
-5.05
-4.88
-5.17
-5.47
-5.38
-4.68
-3.46
-2.14
-1.21
-1.02
-1.54
-2.43
-3.19
-3.46
-3.10
-2.23
-1.09
0.14
1.28
2.26
3.00
3.50
3.88
4.30
4.91
5.69
6.49
7.06
7.33
7.38
7.46
7.82
8.50
9.32
9.97
10.17
9.71
8.56
6.77
4.60
2.38
0.53
-0.58
-0.75
-0.14
0.86
1.72
1.90
1.05
-0.97
-4.12
-8.13
-12.58
-16.89
-20.40
-22.48
-22.77
-21.28
-18.52
-15.29
-12.45
-10.55
-9.61
-9.15
-8.38
-6.80
-4.46
-1.87
0.25
1.51
2.12
2.79
4.22
6.67
9.64
12.07
12.82
11.27
7.65
2.96
-1.39
-4.21
-5.01
-4.17
-2.65
-1.56
-1.55
-2.54
-3.87
-4.70
-4.56
-3.58
-2.40
-1.75
-2.01
-3.06
-4.28
-5.07
-5.09
-4.45
-3.48
-2.53
-1.64
-0.69
0.49
1.88
3.16
3.86
3.59
2.32
0.36
-1.84
-3.82
-5.31
-6.16
-6.28
-5.64
-4.32
-2.63
-0.98
0.15
0.50
-0.00
-1.15
-2.68
-4.25
-5.64
-6.69
-7.32
-7.54
-7.47
-7.33
-7.35
-7.65
-8.07
-8.33
-8.13
-7.25
-5.76
-3.85
-1.87
-0.02
1.66
3.31
5.07
6.84
8.21
8.60
7.67
5.55
2.92
0.73
-0.29
0.03
1.25
2.61
3.44
3.43
2.66
1.49
0.24
-0.89
-1.76
-2.19
-2.00
-1.09
0.38
1.97
3.12
3.43
2.78
1.55
0.37
-0.13
0.34
1.59
3.00
3.86
3.62
2.20
0.04
-2.08
-3.37
-3.34
-2.01
0.12
2.27
3.75
4.02
2.92
0.58
-2.58
-6.00
-8.89
-10.47
-10.25
-8.23
-4.99
-1.60
0.84
1.66
0.91
-0.74
-2.42
-3.43
-3.54
-2.93
-2.06
-1.47
-1.50
-2.30
-3.75
-5.50
-7.00
-7.70
-7.14
-5.21
-2.26
0.97
3.70
5.40
6.05
6.01
5.77
5.57
5.30
4.76
3.92
3.06
2.70
3.16
4.33
5.55
6.04
5.35
3.68
1.75
0.37
0.02
0.55
1.33
1.51
0.51
-1.76
-4.79
-7.65
-9.48
-9.75
-8.61
-6.73
-5.00
-4.07
-4.14
-4.94
-5.97
-6.88
-7.50
-7.86
-7.88
-7.39
-6.16
-4.27
-2.15
-0.46
0.12
-0.59
-2.32
-4.37
-5.97
-6.56
-5.95
-4.37
-2.26
-0.23
1.28
2.01
1.99
1.52
0.99
0.76
1.04
1.82
2.81
3.74
4.33
4.48
4.20
3.57
2.72
1.76
0.86
0.16
-0.14
-0.01
0.50
1.21
1.79
1.94
1.39
0.14
-1.61
-3.39
-4.71
-5.18
-4.64
-3.24
-1.33
0.68
2.44
3.72
4.47
4.66
4.33
3.51
2.29
0.87
-0.54
-1.68
-2.50
-3.12
-3.73
-4.40
-4.95
-5.01
-4.30
-2.88
-1.17
0.20
0.71
0.34
-0.54
-1.28
-1.49
-1.18
-0.80
-0.81
-1.34
-2.03
-2.30
-1.75
-0.44
1.11
2.26
2.56
2.00
0.87
-0.47
-1.78
-3.07
-4.43
-5.88
-7.20
-8.11
-8.32
-7.80
-6.67
-5.27
-3.99
-3.17
-3.01
-3.49
-4.29
-4.84
-4.64
-3.48
-1.69
-0.08
0.56
-0.16
-1.83
-3.49
-4.08
-3.13
-0.91
1.69
3.72
4.74
4.89
4.69
4.55
4.60
4.66
4.63
4.68
5.14
6.25
7.73
8.89
8.80
6.99
3.63
-0.42
-4.12
-6.78
-8.35
-9.38
-10.58
-12.30
-14.29
-15.75
-15.78
-13.82
-9.98
-4.94
0.31
4.86
8.16
10.12
10.93
11.02
10.76
10.41
10.06
9.52
8.37
6.15
2.47
-2.55
-8.24
-13.61
-17.79
-20.40
-21.76
-22.71
-24.15
-26.63
-30.17
-34.54
-39.72
-46.12
-54.66
-66.01
-80.00
-95.28
-109.80
-121.48
-129.27
-133.67
-136.71
-141.15
-149.21
-161.56
-177.04
-193.12
-206.85
-215.81
-218.76
-215.78
-208.32
-198.83
-190.22
-185.03
-184.43
-187.39
-190.79
-190.33
-182.11
-164.21
-137.35
-104.23
-68.19
-31.42
5.57
43.87
84.93
129.46
176.23
222.10
262.76
294.11
313.52
320.46
316.33
303.55
284.56
261.22
235.01
207.63
181.50
159.49
144.04
135.90
133.66
134.08
133.36
128.83
119.84
107.81
95.40
85.12
78.10
73.85
70.65
66.54
60.32
51.83
41.78
31.21
21.03
11.81
3.99
-1.97
-5.64
-6.87
-6.10
-4.43
-3.20
-3.45
-5.38
-8.27
-10.91
-12.26
-11.96
-10.41
-8.32
-6.20
-4.03
-1.36
2.23
6.64
11.12
14.65
16.38
16.19
14.69
12.84
11.54
11.24
11.86
12.99
14.19
15.23
16.20
17.33
18.77
20.39
21.67
21.85
20.25
16.60
11.17
4.72
-1.85
-7.88
-13.21
-18.08
-22.86
-27.62
-31.97
-35.18
-36.59
-35.95
-33.57
-30.12
-26.32
-22.60
-19.01
-15.22
-10.86
-5.70
0.17
6.31
12.06
16.76
19.97
21.67
22.20
22.13
21.95
21.79
21.39
20.26
17.97
14.46
10.00
5.14
0.36
-4.09
-8.16
-11.93
-15.39
-18.47
-20.97
-22.76
-23.86
-24.42
-24.61
-24.62
-24.53
-24.41
-24.41
-24.84
-26.17
-28.84
-33.00
-38.33
-43.94
-48.57
-51.02
-50.56
-47.08
-41.00
-33.03
-23.74
-13.55
-2.84
7.77
17.37
24.94
29.66
31.40
30.75
28.87
26.99
26.06
26.47
28.06
30.37
32.79
34.79
36.02
36.40
36.09
35.44
34.76
34.12
33.29
31.79
29.22
25.45
20.74
15.57
10.45
5.73
1.70
-1.27
-2.68
-1.92
1.43
7.46
15.81
25.56
35.32
43.32
47.78
47.28
41.34
30.60
16.71
1.72
-12.60
-25.47
-37.06
-48.05
-58.90
-69.33
-78.36
-84.62
-86.76
-83.62
-74.41
-59.06
-38.64
-15.64
6.44
23.88
34.09
36.51
32.81
26.13
19.69
15.65
14.50
15.43
17.04
18.15
18.14
16.89
14.55
11.35
7.54
3.36
-0.80
-4.59
-7.71
-10.13
-12.09
-14.04
-16.46
-19.62
-23.48
-27.61
-31.25
-33.53
-33.62
-31.07
-26.04
-19.44
-12.80
-7.88
-6.07
-7.95
-12.96
-19.71
-26.41
-31.50
-34.19
-34.63
-33.71
-32.69
-32.73
-34.40
-37.56
-41.37
-44.55
-45.73
-43.78
-38.07
-28.57
-16.16
-2.37
10.86
21.75
29.39
34.04
36.89
39.33
42.15
44.95
46.39
44.95
39.91
32.05
23.39
16.57
13.67
15.50
21.28
29.22
37.25
43.83
48.26
50.52
50.83
49.26
45.69
40.22
33.61
27.31
22.93
21.40
22.14
23.24
22.36
18.15
11.16
3.84
-0.84
-1.10
2.58
7.64
10.88
10.21
5.64
-0.94
-7.13
-11.34
-13.50
-14.52
-15.44
-16.48
-17.03
-16.22
-13.75
-10.30
-7.20
-5.68
-6.22
-8.32
-10.88
-12.80
-13.36
-12.52
-10.66
-8.38
-6.22
-4.58
-3.77
-4.01
-5.50
-8.31
-12.24
-16.81
-21.25
-24.73
-26.46
-25.84
-22.54
-16.56
-8.39
0.95
10.04
17.43
22.06
23.73
23.13
21.55
20.42
20.78
23.13
27.31
32.67
38.08
42.30
44.18
43.08
39.14
33.16
26.26
19.33
12.73
6.26
-0.41
-7.40
-14.35
-20.73
-26.15
-30.71
-34.91
-39.18
-43.40
-46.64
-47.61
-45.27
-39.45
-31.12
-22.08
-14.22
-8.88
-6.52
-6.83
-9.15
-12.80
-17.21
-21.84
-26.02
-29.02
-30.30
-29.73
-27.60
-24.52
-21.04
-17.52
-14.06
-10.61
-7.08
-3.42
0.41
4.50
8.98
13.90
19.10
24.15
28.48
31.58
33.30
33.82
33.60
33.07
32.46
31.80
30.97
29.89
28.51
26.73
24.31
20.88
16.05
9.60
1.68
-7.23
-16.35
-24.84
-31.82
-36.57
-38.59
-37.64
-33.92
-28.08
-21.11
-14.15
-8.17
-3.75
-1.07
0.07
0.01
-0.91
-2.33
-3.93
-5.39
-6.39
-6.73
-6.42
-5.72
-4.96
-4.41
-4.13
-3.94
-3.60
-2.94
-2.03
-1.14
-0.63
-0.73
-1.48
-2.61
-3.63
-4.07
-3.54
-1.93
0.63
3.80
7.05
9.80
11.48
11.70
10.37
7.75
4.36
0.89
-2.09
-4.30
-5.74
-6.67
-7.43
-8.21
-9.02
-9.66
-9.81
-9.05
-7.00
-3.39
1.75
7.94
14.27
19.55
22.67
22.97
20.54
16.23
11.28
6.91
3.83
2.08
1.17
0.49
-0.34
-1.30
-2.06
-2.30
-1.91
-1.11
-0.36
-0.13
-0.66
-1.94
-3.66
-5.37
-6.54
-6.70
-5.64
-3.46
-0.64
2.06
3.87
4.29
3.28
1.27
-1.07
-3.18
-4.84
-6.23
-7.83
-10.08
-13.17
-16.95
-21.01
-24.89
-28.32
-31.31
-34.14
-37.11
-40.45
-44.15
-47.99
-51.58
-54.36
-55.61
-54.52
-50.39
-42.92
-32.54
-20.38
-8.10
2.63
10.66
15.75
18.56
20.21
21.74
23.69
26.09
28.74
31.46
34.33
37.43
40.51
42.65
42.54
38.97
31.66
21.68
11.23
2.87
-1.66
-2.10
0.31
3.54
5.61
5.32
2.37
-2.86
-9.71
-17.49
-25.47
-32.77
-38.38
-41.41
-41.42
-38.71
-34.31
-29.56
-25.60
-22.64
-19.77
-15.18
-6.85
6.50
24.91
46.98
70.54
93.29
113.68
130.99
145.16
156.24
163.94
167.56
166.24
159.31
146.61
128.57
106.24
81.26
55.56
30.97
8.82
-10.42
-27.05
-41.67
-54.75
-66.33
-76.28
-84.75
-92.47
-100.53
-109.72
-119.93
-129.83
-137.38
-140.58
-138.31
-130.61
-118.54
-103.64
-87.66
-72.29
-59.02
-48.91
-42.38
-39.04
-37.81
-37.42
-36.88
-35.98
-35.11
-34.97
-36.07
-38.26
-40.93
-43.24
-44.59
-44.84
-44.37
-43.63
-42.92
-42.44
-42.47
-43.49
-46.02
-49.74
-52.83
-52.10
-44.33
-28.17
-5.27
20.07
42.89
60.01
71.32
79.25
86.69
94.92
102.71
107.21
105.91
98.31
86.38
73.72
64.11
60.29
63.34
72.75
86.72
102.64
117.12
126.79
128.67
120.63
101.98
73.89
39.43
3.04
-30.57
-57.58
-75.90
-85.17
-86.01
-79.22
-65.43
-45.44
-20.65
6.40
32.29
53.55
67.43
72.81
70.51
63.22
54.56
47.92
44.87
44.15
41.74
32.59
13.17
-16.34
-51.87
-87.16
-116.28
-135.56
-144.00
-142.20
-131.26
-112.30
-87.11
-58.81
-31.98
-11.52
-1.15
-2.10
-12.85
-29.88
-48.73
-65.18
-76.03
-79.69
-76.58
-68.94
-59.99
-52.48
-47.75
-45.13
-42.79
-38.97
-33.00
-25.85
-19.45
-15.73
-15.57
-18.30
-21.72
-22.54
-17.23
-2.92
21.55
55.08
94.26
134.23
169.97
197.74
215.57
223.11
220.88
209.55
189.96
163.54
132.79
101.22
72.49
49.28
32.39
20.78
12.28
4.72
-3.11
-11.24
-18.77
-24.46
-27.43
-27.56
-25.54
-22.74
-20.74
-20.70
-23.11
-27.65
-33.62
-40.31
-47.23
-53.98
-60.10
-64.93
-67.92
-69.13
-69.27
-69.45
-70.35
-71.77
-73.01
-73.68
-74.41
-76.86
-82.61
-91.95
-103.15
-113.06
-118.46
-117.41
-109.55
-95.50
-75.87
-50.67
-19.67
16.62
56.03
94.55
126.97
148.34
155.30
147.10
126.13
97.37
67.26
42.02
26.00
20.73
24.96
35.62
49.05
62.34
73.70
82.53
89.08
94.11
98.85
104.90
113.98
127.26
144.46
162.99
177.97
183.53
174.98
150.96
114.30
71.15
28.54
-8.25
-37.18
-59.26
-76.88
-92.12
-105.76
-117.56
-127.13
-134.73
-141.22
-147.54
-153.85
-159.23
-161.90
-159.93
-152.09
-138.37
-120.13
-99.70
-79.76
-62.46
-48.85
-38.75
-31.14
-24.77
-18.86
-13.26
-8.24
-4.07
-0.76
1.95
4.38
6.59
8.31
9.07
8.49
6.53
3.57
0.32
-2.40
-3.98
-4.10
-2.83
-0.55
2.24
5.03
7.45
9.29
10.53
11.30
11.92
12.75
14.13
16.26
19.04
22.00
24.38
25.37
24.39
21.37
16.93
12.05
7.83
4.90
3.24
2.21
0.98
-1.03
-3.82
-6.81
-9.19
-10.30
-9.92
-8.28
-5.95
-3.50
-1.39
0.13
1.08
1.61
1.90
1.94
1.48
0.17
-2.20
-5.36
-8.58
-10.92
-11.80
-11.23
-9.84
-8.40
-7.41
-6.89
-6.52
-6.01
-5.26
-4.34
-3.21
-1.65
0.66
3.80
7.34
10.59
13.03
14.71
16.31
18.76
22.59
27.54
32.45
35.68
35.75
31.85
24.15
13.71
2.01
-9.46
-19.68
-28.25
-35.25
-40.87
-45.05
-47.33
-46.93
-43.17
-35.78
-25.20
-12.52
0.62
12.34
20.86
24.94
24.32
19.98
14.06
9.31
8.27
12.41
21.76
35.00
50.09
64.90
77.61
87.09
92.79
94.75
93.39
89.27
82.86
74.39
64.00
52.04
39.58
28.62
21.65
20.94
27.58
40.80
57.87
74.60
86.40
89.69
83.24
68.85
50.95
34.96
24.92
21.60
21.95
20.62
12.51
-4.66
-29.35
-57.11
-82.86
-102.99
-116.16
-122.86
-124.03
-120.23
-111.56
-98.44
-82.28
-65.56
-51.12
-41.09
-36.11
-35.23
-36.61
-38.39
-39.47
-39.74
-39.81
-40.53
-42.45
-45.58
-49.40
-53.17
-56.18
-57.95
-58.33
-57.34
-55.10
-51.67
-47.09
-41.42
-34.89
-27.93
-21.09
-14.94
-9.95
-6.32
-3.96
-2.60
-1.90
-1.63
-1.70
-2.14
-2.90
-3.76
-4.29
-4.08
-2.83
-0.58
2.37
5.50
8.26
10.21
11.17
11.27
10.96
11.01
12.34
15.72
21.41
28.95
37.14
44.36
49.12
50.58
48.76
44.49
39.01
33.50
28.83
25.42
23.26
21.98
20.89
19.14
15.91
10.69
3.53
-5.08
-14.34
-23.40
-31.55
-38.25
-43.00
-45.30
-44.68
-40.95
-34.47
-26.19
-17.46
-9.62
-3.57
0.41
2.51
3.19
2.84
1.72
0.13
-1.37
-1.83
-0.03
4.98
13.37
24.29
35.99
46.39
53.86
57.65
58.07
56.13
52.94
49.18
44.85
39.49
32.74
24.91
17.14
11.15
8.68
10.89
18.09
29.88
45.30
62.74
79.70
92.67
97.82
92.39
76.21
52.50
26.98
5.76
-7.18
-11.47
-10.14
-7.84
-8.59
-14.30
-24.60
-37.70
-51.54
-64.62
-76.02
-85.29
-92.17
-96.64
-98.99
-99.84
-100.06
-100.49
-101.74
-103.94
-106.80
-109.69
-111.79
-112.69
-112.66
-112.93
-115.43
-121.81
-132.24
-144.45
-153.83
-154.79
-142.88
-116.71
-78.92
-35.28
7.14
42.30
66.74
79.95
83.74
81.06
75.11
68.68
63.91
62.08
63.41
67.06
71.22
73.77
72.88
67.58
58.02
45.29
31.23
17.90
7.32
1.09
0.07
4.10
11.96
21.61
30.76
37.56
41.13
41.78
40.69
39.49
39.59
41.76
45.99
51.65
57.88
64.06
70.09
76.54
84.37
94.50
107.17
121.30
134.15
141.60
139.31
124.55
97.78
63.35
28.18
-0.64
-18.77
-25.98
-26.13
-25.08
-27.87
-36.51
-49.12
-60.69
-64.93
-56.50
-33.23
2.60
44.12
81.39
104.26
105.87
85.26
47.80
3.24
-37.78
-67.06
-80.57
-78.30
-62.97
-38.27
-7.98
24.24
54.88
80.72
99.23
108.85
109.28
101.38
87.52
71.40
57.55
50.09
50.85
57.84
65.17
64.95
50.69
20.49
-21.74
-67.66
-107.98
-136.15
-150.55
-154.15
-152.27
-149.80
-149.17
-150.08
-150.45
-148.14
-142.30
-133.39
-122.39
-109.45
-93.35
-71.86
-43.19
-7.51
32.32
71.34
104.02
125.90
134.68
130.06
113.20
86.19
52.28
16.24
-15.92
-38.37
-47.87
-45.36
-35.75
-25.52
-19.53
-18.79
-20.51
-20.49
-15.94
-7.20
2.71
10.20
13.19
12.00
8.57
4.76
0.96
-4.07
-12.16
-24.30
-39.73
-55.92
-69.58
-78.26
-81.47
-81.29
-81.44
-85.65
-95.73
-110.40
-125.48
-135.40
-135.65
-125.08
-106.89
-87.70
-75.10
-74.64
-87.73
-111.43
-140.02
-167.13
-187.36
-197.16
-195.22
-182.79
-163.99
-145.52
-135.07
-138.58
-157.42
-187.11
-218.59
-241.64
-248.90
-238.23
-212.45
-177.08
-137.53
-97.32
-57.79
-18.86
20.01
59.17
98.49
137.22
173.87
206.61
233.44
252.69
263.27
265.17
259.50
248.42
234.80
221.53
210.72
203.10
198.00
193.81
188.85
182.16
173.82
164.66
155.72
147.68
140.73
134.80
129.73
125.40
121.64
118.08
114.28
109.85
104.59
98.37
91.01
82.31
72.17
60.82
48.73
36.45
24.21
11.85
-1.04
-14.73
-29.01
-43.10
-55.89
-66.26
-73.38
-76.85
-76.77
-73.63
-68.21
-61.46
-54.23
-47.10
-40.22
-33.47
-26.75
-20.26
-14.59
-10.45
-8.39
-8.54
-10.73
-14.42
-18.73
-22.31
-23.33
-19.86
-10.67
4.01
22.26
40.98
57.06
68.57
75.21
78.01
78.39
77.37
75.26
72.05
67.95
63.74
60.56
59.33
60.24
62.50
64.75
65.67
64.59
61.86
58.64
56.49
56.62
59.42
64.22
69.63
74.16
76.89
77.80
77.72
77.70
78.35
79.45
79.88
78.12
72.88
63.69
51.05
36.25
20.92
6.53
-5.83
-15.55
-22.35
-26.19
-27.28
-26.00
-22.96
-18.92
-14.68
-11.01
-8.55
-7.77
-9.00
-12.37
-17.81
-24.97
-33.15
-41.47
-48.95
-54.88
-58.97
-61.44
-62.89
-63.94
-64.97
-66.06
-67.15
-68.34
-70.00
-72.65
-76.52
-81.17
-85.58
-88.48
-88.98
-87.06
-83.55
-79.66
-76.34
-73.88
-71.85
-69.43
-65.95
-61.18
-55.39
-49.16
-43.06
-37.48
-32.53
-28.10
-24.03
-20.20
-16.62
-13.41
-10.71
-8.62
-7.15
-6.18
-5.51
-4.92
-4.21
-3.34
-2.34
-1.37
-0.58
-0.07
0.16
0.22
0.20
0.20
0.26
0.36
0.43
0.38
0.15
-0.25
-0.76
-1.25
-1.60
-1.77
-1.85
-2.00
-2.39
-3.08
-3.97
-4.82
-5.40
-5.61
-5.51
-5.29
-5.14
-5.13
-5.19
-5.19
-5.04
-4.81
-4.64
-4.68
-4.97
-5.35
-5.54
-5.28
-4.48
-3.26
-1.89
-0.71
0.09
0.47
0.53
0.40
0.24
0.15
0.30
0.86
1.98
3.61
5.50
7.16
8.12
8.00
6.80
4.79
2.49
0.38
-1.25
-2.35
-3.09
-3.66
-4.21
-4.75
-5.17
-5.36
-5.30
-5.05
-4.74
-4.46
-4.11
-3.51
-2.45
-0.87
1.01
2.77
3.96
4.34
4.03
3.48
3.19
3.49
4.37
5.48
6.33
6.59
6.23
5.53
4.91
4.67
4.84
5.21
5.44
5.30
4.78
4.13
3.69
3.66
4.06
4.67
5.18
5.37
5.21
4.81
4.39
4.13
4.11
4.30
4.65
5.05
5.47
5.84
6.11
6.20
6.05
5.64
5.08
4.57
4.35
4.58
5.29
6.36
7.56
8.67
9.58
10.22
10.60
10.69
10.41
9.69
8.50
6.91
5.04
3.02
0.95
-1.12
-3.18
-5.18
-7.04
-8.66
-9.91
-10.72
-11.04
-10.96
-10.61
-10.23
-10.01
-10.14
-10.65
-11.45
-12.33
-13.04
-13.37
-13.19
-12.48
-11.35
-10.00
-8.68
-7.60
-6.92
-6.67
-6.81
-7.20
-7.65
-7.95
-7.91
-7.44
-6.57
-5.45
-4.30
-3.28
-2.47
-1.84
-1.24
-0.54
0.35
1.40
2.49
3.47
4.18
4.51
4.44
4.05
3.50
2.99
2.69
2.67
2.85
3.07
3.10
2.79
2.07
1.03
-0.12
-1.13
-1.81
-2.10
-2.10
-2.00
-1.98
-2.13
-2.41
-2.73
-2.99
-3.18
-3.38
-3.67
-4.10
-4.59
-4.98
-5.10
-4.86
-4.33
-3.70
-3.27
-3.26
-3.75
-4.63
-5.62
-6.40
-6.73
-6.56
-6.03
-5.43
-5.12
-5.39
-6.39
-8.08
-10.30
-12.79
-15.33
-17.79
-20.17
-22.65
-25.49
-29.03
-33.52
-39.01
-45.22
-51.54
-57.18
-61.40
-63.79
-64.35
-63.47
-61.60
-59.05
-55.71
-51.03
-44.11
-33.93
-19.63
-0.85
22.06
47.87
74.53
99.51
120.19
134.42
140.91
139.52
131.23
117.94
102.16
86.53
73.32
63.91
58.53
56.21
55.16
53.36
49.27
42.25
32.76
22.06
11.64
2.69
-4.24
-9.31
-13.10
-16.27
-19.26
-22.20
-25.03
-27.67
-30.22
-32.87
-35.76
-38.77
-41.45
-43.10
-43.06
-41.00
-37.14
-32.23
-27.33
-23.48
-21.37
-21.11
-22.16
-23.32
-22.87
-18.96
-10.21
3.66
21.27
39.72
55.30
64.65
65.93
59.37
46.97
31.66
16.15
2.28
-9.16
-18.01
-24.39
-28.40
-30.22
-30.26
-29.18
-27.78
-26.60
-25.75
-24.89
-23.43
-20.88
-17.16
-12.71
-8.34
-4.96
-3.30
-3.62
-5.65
-8.60
-11.44
-13.19
-13.25
-11.58
-8.75
-5.71
-3.45
-2.62
-3.28
-4.93
-6.68
-7.61
-7.12
-5.04
-1.58
2.82
7.71
12.67
17.30
21.12
23.62
24.44
23.60
21.56
19.10
17.04
15.92
15.82
16.42
17.12
17.25
16.28
13.91
10.14
5.39
0.37
-4.11
-7.47
-9.59
-10.80
-11.65
-12.50
-13.28
-13.55
-12.86
-11.16
-8.95
-7.06
-6.19
-6.54
-7.62
-8.61
-8.73
-7.69
-5.74
-3.50
-1.56
-0.22
0.60
1.15
1.68
2.24
2.70
2.88
2.66
2.13
1.52
1.12
1.13
1.48
1.92
2.06
1.61
0.51
-0.97
-2.36
-3.20
-3.24
-2.60
-1.69
-1.01
-0.88
-1.34
-2.22
-3.19
-3.97
-4.39
-4.43
-4.13
-3.63
-3.07
-2.63
-2.44
-2.56
-2.94
-3.40
-3.74
-3.81
-3.60
-3.17
-2.65
-2.17
-1.78
-1.53
-1.44
-1.54
-1.84
-2.27
-2.67
-2.77
-2.38
-1.43
-0.13
1.17
2.13
2.60
2.70
2.74
3.06
3.78
4.82
5.90
6.77
7.35
7.70
7.97
8.22
8.43
8.44
8.15
7.53
6.69
5.78
4.95
4.24
3.58
2.83
1.82
0.44
-1.30
-3.22
-5.03
-6.42
-7.19
-7.35
-7.06
-6.55
-5.96
-5.26
-4.30
-2.91
-1.01
1.30
3.76
6.03
7.83
9.07
9.80
10.21
10.48
10.67
10.67
10.27
9.22
7.42
4.96
2.16
-0.58
-2.92
-4.68
-5.92
-6.78
-7.45
-7.98
-8.31
-8.29
-7.84
-7.08
-6.32
-5.94
-6.15
-6.90
-7.90
-8.75
-9.16
-9.12
-8.86
-8.69
-8.87
-9.46
-10.32
-11.24
-11.99
-12.43
-12.57
-12.53
-12.53
-12.77
-13.37
-14.29
-15.31
-16.15
-16.53
-16.31
-15.56
-14.47
-13.40
-12.75
-12.86
-13.91
-15.77
-17.90
-19.39
-19.25
-16.77
-11.88
-5.21
2.14
9.04
14.80
19.28
22.84
25.92
28.73
31.12
32.69
33.10
32.26
30.49
28.31
26.30
24.76
23.67
22.75
21.63
20.03
17.92
15.58
13.42
11.82
10.99
10.85
11.15
11.62
12.09
12.47
12.78
13.03
13.15
13.03
12.51
11.57
10.30
8.98
8.00
7.77
8.54
10.25
12.54
14.77
16.32
16.82
16.35
15.44
14.84
15.19
16.79
19.53
23.04
26.85
30.53
33.77
36.49
38.80
41.14
44.16
48.65
55.12
63.53
73.13
82.74
91.27
98.19
103.75
108.62
113.40
118.12
122.26
125.12
126.37
126.16
124.75
121.96
116.56
106.47
89.45
63.99
29.88
-11.86
-59.32
-110.02
-160.91
-208.31
-248.24
-277.28
-293.73
-298.53
-295.14
-288.42
-282.95
-281.46
-284.33
-290.01
-296.15
-300.73
-302.78
-302.43
-300.36
-297.05
-292.13
-284.10
-270.69
-249.83
-220.68
-184.10
-142.43
-98.60
-55.11
-13.46
25.72
61.88
93.80
119.55
137.03
145.07
144.31
137.18
126.91
116.25
106.65
98.39
91.49
86.46
84.50
86.81
93.56
103.26
113.10
120.21
122.97
121.77
118.37
114.82
112.09
109.73
106.29
100.40
91.59
80.69
69.38
59.49
52.38
48.49
47.20
47.24
47.04
45.16
40.61
33.07
22.89
10.95
-1.60
-13.56
-23.74
-31.10
-34.79
-34.35
-29.89
-22.14
-12.33
-1.91
7.87
16.28
23.10
28.44
32.59
35.95
38.99
42.18
45.78
49.68
53.46
56.70
59.37
62.11
65.98
71.77
79.39
87.62
94.47
98.09
97.65
93.72
87.87
81.85
76.73
72.58
68.85
64.82
60.20
55.17
50.22
45.73
41.72
37.88
33.80
29.23
24.16
18.79
13.26
7.56
1.68
-4.14
-9.18
-12.32
-12.59
-9.72
-4.40
1.75
6.96
10.17
11.36
11.47
11.74
12.89
14.79
16.57
17.17
15.79
12.15
6.47
-0.67
-8.62
-16.73
-24.66
-32.47
-40.53
-49.24
-58.69
-68.25
-76.73
-82.86
-85.93
-86.30
-85.23
-84.26
-84.41
-85.73
-87.42
-88.56
-88.93
-89.55
-92.42
-99.93
-113.77
-134.34
-160.45
-189.34
-217.08
-239.01
-250.41
-247.52
-228.75
-195.52
-152.20
-105.12
-60.66
-23.25
5.83
28.29
47.31
65.66
84.31
102.32
117.74
128.93
135.44
138.07
138.34
137.83
137.61
138.37
140.54
144.51
150.44
157.98
166.04
172.74
175.88
173.65
165.21
151.07
133.01
113.66
95.69
81.04
70.49
63.80
60.19
58.96
59.85
62.81
67.41
72.47
75.98
75.65
69.85
58.29
42.35
24.74
8.80
-2.46
-7.17
-4.91
3.25
15.29
28.74
41.15
50.43
55.01
54.11
47.84
37.20
23.82
9.40
-4.79
-18.26
-31.15
-43.84
-56.44
-68.69
-80.07
-90.08
-98.46
-105.14
-110.02
-112.89
-113.48
-111.75
-108.00
-102.78
-96.68
-90.05
-82.96
-75.45
-67.76
-60.52
-54.52
-50.44
-48.49
-48.33
-49.22
-50.36
-51.09
-51.10
-50.33
-48.90
-47.04
-45.02
-43.19
-41.77
-40.66
-39.18
-36.23
-30.64
-21.70
-9.63
4.38
18.55
31.11
40.97
47.98
52.78
56.32
59.46
62.64
65.81
68.59
70.49
71.05
70.05
67.55
63.90
59.65
55.39
51.61
48.67
46.82
46.29
47.25
49.75
53.54
58.03
62.32
65.42
66.59
65.50
62.27
57.38
51.47
45.19
39.16
33.99
30.27
28.62
29.49
32.97
38.56
44.99
50.58
53.77
53.88
51.54
48.27
45.34
42.43
36.95
24.55
0.87
-36.43
-86.77
-146.96
-212.85
-280.67
-346.94
-407.46
-456.72
-488.84
-500.06
-491.32
-468.42
-439.68
-412.07
-388.03
-365.19
-339.00
-306.32
-267.74
-227.13
-188.51
-153.17
-118.55
-79.65
-31.81
26.93
95.19
169.24
242.77
309.19
363.20
402.06
425.92
436.73
436.99
428.74
413.46
392.51
367.47
339.47
308.46
273.26
232.65
187.19
140.08
96.12
59.14
29.91
5.76
-17.39
-41.95
-66.78
-87.96
-101.48
-106.02
-103.60
-97.80
-91.12
-83.58
-73.60
-60.10
-43.91
-27.75
-14.52
-5.51
0.20
4.69
9.64
15.76
22.99
31.38
41.16
51.73
60.44
62.76
54.22
33.60
5.06
-22.67
-40.05
-41.62
-29.14
-10.77
3.13
5.20
-5.42
-23.54
-41.20
-51.94
-53.30
-46.88
-36.59
-26.02
-17.45
-11.75
-9.09
-9.44
-12.52
-17.29
-21.72
-23.12
-19.45
-10.50
1.65
13.29
20.76
21.98
17.34
9.25
0.79
-5.66
-9.28
-10.49
-10.08
-8.45
-5.59
-1.55
3.12
7.32
10.00
10.77
10.17
9.38
9.71
11.91
15.82
20.44
24.28
26.16
25.40
22.01
16.58
10.01
3.00
-4.00
-10.64
-17.18
-23.77
-30.37
-36.75
-42.54
-47.44
-51.30
-54.33
-56.60
-57.69
-57.27
-54.97
-50.57
-44.20
-36.29
-27.58
-18.19
-8.96
0.01
8.86
17.73
26.31
33.81
39.08
40.83
38.66
32.86
24.57
15.22
5.84
-3.17
-12.17
-21.43
-31.57
-42.45
-53.75
-65.18
-76.51
-86.98
-94.67
-96.69
-89.43
-71.18
-43.30
-10.45
20.97
45.24
59.47
64.15
62.28
57.44
52.22
47.92
45.14
44.56
47.57
55.69
69.27
86.31
102.17
110.86
106.85
89.04
61.00
29.98
4.02
-11.50
-15.74
-12.08
-5.71
-0.55
2.18
3.50
5.25
8.44
12.59
16.31
18.37
18.59
17.91
17.88
19.64
23.40
28.39
33.14
36.23
36.67
34.42
30.11
24.65
18.73
12.56
5.91
-1.64
-9.95
-18.98
-28.06
-36.27
-42.74
-47.03
-49.19
-49.68
-49.49
-48.97
-48.55
-48.27
-48.11
-47.95
-47.69
-47.29
-46.72
-45.90
-44.55
-42.73
-39.78
-35.34
-29.15
-21.16
-11.58
-0.87
10.23
20.82
29.85
36.40
39.68
39.34
35.46
28.52
19.40
9.13
-1.19
-10.60
-18.35
-24.02
-27.29
-27.97
-26.11
-21.83
-15.60
-8.14
-0.46
6.16
10.56
12.14
10.82
7.09
1.75
-4.55
-11.44
-18.99
-27.93
-38.71
-50.99
-63.47
-74.22
-81.38
-84.03
-82.20
-77.23
-72.07
-69.37
-70.60
-75.51
-82.40
-89.31
-95.05
-99.12
-102.09
-106.20
-113.24
-124.04
-138.45
-155.31
-172.62
-187.71
-195.85
-185.06
-149.34
-90.12
-17.06
55.36
114.03
151.39
166.41
164.52
152.90
136.01
115.60
91.71
64.44
35.87
12.70
-5.41
-19.06
-29.95
-41.18
-55.51
-74.05
-96.12
-118.73
-138.99
-155.55
-167.44
-174.86
-179.08
-180.66
-178.28
-175.86
-173.07
-169.00
-163.51
-156.41
-148.17
-139.92
-132.67
-126.95
-122.78
-118.78
-113.93
-107.96
-100.66
-92.27
-83.42
-74.77
-66.86
-60.08
-53.93
-48.12
-42.70
-37.60
-32.92
-28.76
-25.22
-22.36
-20.24
-18.43
-16.66
-14.84
-12.91
-10.82
-8.61
-6.32
-4.02
-1.74
0.68
3.33
6.28
9.52
13.05
16.83
20.86
25.15
29.74
34.73
40.14
45.88
51.79
57.61
63.10
68.09
72.54
76.54
80.29
84.02
87.84
91.73
95.58
99.25
102.77
106.37
110.49
115.57
121.91
129.41
137.62
145.73
152.94
158.69
162.89
165.91
168.32
170.64
173.04
175.32
177.07
178.03
178.35
178.72
180.18
183.82
190.64
201.39
216.47
235.72
257.90
280.54
299.94
312.08
314.08
305.37
288.08
266.13
243.58
222.99
205.35
190.03
175.88
162.43
150.16
139.99
131.99
124.91
116.49
104.90
89.31
70.09
48.72
26.93
6.40
-11.88
-27.39
-39.75
-47.31
-48.83
-44.17
-34.42
-21.62
-7.98
4.33
13.68
19.34
24.54
31.93
41.97
53.18
63.74
72.61
79.61
85.05
89.59
100.05
120.46
149.52
181.85
212.14
237.68
258.13
274.30
287.33
307.70
341.17
385.15
430.99
470.53
500.14
519.94
531.77
537.67
551.69
581.32
622.81
664.06
693.52
705.81
701.37
683.96
579.91
365.52
75.48
-219.89
-465.14
-641.07
-753.45
-817.04
-847.02
-856.21
-841.94
-804.21
-750.44
-693.26
-642.95
-603.62
-574.77
-554.24
-539.69
-519.56
-487.15
-444.21
-398.80
-358.70
-327.50
-305.19
-290.06
-280.03
-267.27
-247.17
-220.61
-192.56
-167.89
-148.89
-135.54
-126.82
-121.39
-115.17
-105.70
-93.25
-80.13
-68.65
-59.88
-53.79
-49.96
-47.63
-45.11
-41.21
-35.66
-28.92
-21.50
-13.68
-5.17
3.60
12.40
20.86
28.71
35.85
42.25
47.89
52.58
55.98
57.42
56.58
53.26
47.77
40.87
33.62
27.05
21.88
18.47
15.60
13.36
11.63
10.37
9.72
9.93
11.36
14.59
21.20
31.50
45.22
60.02
71.64
74.97
66.30
45.71
16.74
-12.62
-35.34
-47.90
-51.14
-48.29
-42.53
-35.60
-28.16
-21.18
-16.51
-16.64
-22.45
-32.14
-41.47
-45.95
-43.37
-35.01
-24.78
-16.98
-14.11
-15.57
-18.47
-19.41
-16.42
-9.87
-2.07
4.05
6.77
6.24
4.17
2.61
2.26
2.42
1.73
-0.51
-3.66
-5.96
-5.95
-3.51
-0.11
2.02
1.26
-2.49
-7.85
-12.88
-16.06
-16.89
-15.85
-13.74
-11.19
-8.51
-5.75
-2.96
-0.32
1.93
3.58
4.53
4.82
4.60
4.07
3.51
3.18
3.25
3.76
4.54
5.35
5.96
6.28
6.39
6.45
6.62
6.92
7.25
7.40
7.17
6.47
5.38
4.20
3.38
3.34
4.37
6.49
9.48
12.98
16.50
19.56
21.86
23.25
23.79
23.74
23.42
23.15
23.08
23.25
23.58
24.00
24.50
25.02
25.37
25.13
23.58
20.34
15.32
8.89
1.79
-5.02
-10.91
-15.55
-18.90
-20.89
-21.60
-21.29
-20.48
-20.00
-20.65
-22.68
-25.48
-27.84
-28.46
-26.71
-23.02
-18.79
-15.76
-15.29
-17.91
-23.26
-30.44
-38.63
-47.49
-57.16
-67.75
-78.76
-88.88
-96.15
-98.53
-94.80
-85.10
-70.65
-53.23
-34.40
-15.03
4.55
23.81
41.46
55.50
63.53
63.26
53.06
32.50
3.11
-31.26
-64.73
-90.66
-103.78
-102.05
-87.41
-64.93
-40.63
-18.98
-1.61
12.36
24.71
36.48
47.24
55.54
60.15
60.90
58.81
55.44
51.93
48.36
43.92
37.66
29.34
19.96
11.61
6.65
6.83
12.55
22.57
34.49
45.51
53.36
56.93
56.41
53.08
48.61
44.46
41.46
39.71
38.95
38.91
39.58
41.17
43.71
46.82
49.69
51.43
51.49
49.97
47.65
45.60
44.75
45.39
47.20
49.32
50.82
51.17
50.50
49.67
49.98
52.64
58.31
66.64
76.23
84.80
89.58
87.86
77.79
59.06
33.44
4.58
-22.67
-43.67
-55.41
-57.55
-52.73
-45.66
-41.63
-44.57
-55.78
-73.62
-94.42
-113.92
-128.84
-137.58
-140.25
-138.19
-133.36
-127.92
-124.03
-123.57
-127.76
-136.68
-149.02
-162.36
-173.76
-180.57
-180.90
-173.87
-159.66
-139.52
-115.78
-91.75
-71.11
-57.04
-51.21
-53.18
-60.24
-67.99
-71.25
-65.45
-47.97
-19.15
17.45
55.92
89.74
114.01
126.95
130.31
128.30
125.67
125.68
129.08
134.25
138.42
139.28
136.26
130.90
126.04
124.71
128.59
137.22
147.99
156.75
158.64
149.07
124.79
85.35
34.54
-19.07
-63.54
-87.36
-84.41
-57.72
-19.44
13.89
28.68
20.34
-4.85
-33.58
-52.59
-54.98
-42.69
-24.12
-8.88
-2.72
-5.39
-11.95
-16.26
-14.61
-7.70
0.30
4.47
2.16
-5.29
-13.40
-17.44
-15.44
-9.55
-4.76
-5.62
-13.15
-23.94
-32.09
-32.75
-25.12
-13.08
-3.23
-1.32
-9.52
-25.64
-44.43
-60.17
-69.04
-70.35
-66.08
-59.39
-52.90
-47.95
-44.69
-42.81
-42.04
-42.21
-42.76
-42.32
-38.77
-29.95
-14.97
5.18
27.88
50.10
69.48
84.81
95.91
103.13
107.04
107.99
106.34
102.62
97.74
92.63
87.70
82.66
76.91
70.15
62.35
53.79
44.77
35.83
27.35
19.19
10.76
-0.31
-14.96
-32.65
-50.93
-68.49
-84.17
-96.32
-103.86
-106.77
-105.92
-102.11
-95.68
-86.25
-73.07
-55.24
-32.53
-6.25
20.62
43.83
59.05
63.14
55.54
38.87
18.56
0.60
-11.20
-16.50
-18.01
-19.35
-23.02
-29.10
-35.53
-39.21
-38.03
-31.95
-22.69
-12.52
-3.13
4.57
10.13
13.30
14.54
14.53
13.88
13.24
13.26
14.63
17.63
22.06
27.36
33.61
40.93
49.03
56.95
63.49
67.57
68.37
65.46
55.25
36.65
12.88
-9.30
-23.57
-27.45
-22.66
-13.44
-4.48
1.09
3.16
3.58
4.37
6.20
8.25
8.89
6.74
1.47
-6.08
-13.85
-19.82
-22.79
-23.13
-21.76
-19.59
-17.25
-15.06
-13.05
-10.72
-7.60
-3.65
0.61
4.43
7.21
8.68
8.98
8.53
7.97
7.77
7.98
8.23
8.04
7.01
5.20
3.00
0.93
-0.51
-1.03
-0.65
0.24
1.20
1.82
1.83
1.14
-0.17
-1.89
-3.79
-5.71
-7.54
-9.11
-10.19
-10.76
-10.92
-10.94
-11.22
-12.06
-13.52
-15.33
-16.83
-17.17
-16.00
-13.45
-10.27
-7.39
-5.60
-5.32
-6.46
-8.40
-10.23
-11.39
-11.53
-10.59
-8.85
-7.15
-7.10
-10.67
-19.37
-30.74
-40.59
-44.15
-38.70
-24.96
-6.50
11.73
25.11
30.76
28.18
18.48
4.18
-11.37
-24.47
-31.84
-31.45
-23.30
-9.44
6.90
22.07
33.38
39.65
41.00
38.10
31.58
21.77
8.87
-6.42
-22.71
-37.40
-47.09
-48.75
-41.24
-26.24
-8.07
7.81
18.12
21.78
20.45
17.30
15.11
14.98
16.09
16.80
15.91
13.57
10.97
9.56
10.09
12.08
14.13
14.78
13.17
9.64
5.45
2.08
0.61
1.06
2.51
3.56
3.20
1.33
-1.30
-3.61
-4.99
-5.51
-5.86
-6.79
-8.69
-11.47
-14.26
-16.34
-17.52
-18.28
-19.40
-21.41
-24.27
-27.37
-30.03
-31.89
-33.16
-34.25
-35.39
-36.24
-35.96
-33.59
-28.57
-21.16
-12.41
-3.83
3.30
8.48
12.14
15.44
19.69
25.83
34.23
44.78
57.12
70.85
85.52
100.28
113.72
123.94
128.98
127.69
120.24
108.21
93.94
79.56
66.29
54.23
42.86
31.85
21.51
12.72
6.39
2.71
0.94
-0.37
-2.60
-6.41
-11.56
-17.11
-22.11
-26.02
-28.87
-31.05
-32.86
-34.27
-34.98
-34.59
-32.95
-30.29
-27.19
-24.35
-22.38
-21.54
-21.73
-22.57
-23.59
-24.43
-24.92
-25.12
-25.21
-25.35
-25.59
-25.87
-26.07
-26.08
-25.88
-25.54
-25.17
-24.85
-24.63
-24.44
-24.20
-23.82
-23.25
-22.54
-21.75
-20.96
-20.17
-19.30
-18.22
-16.75
-14.81
-12.45
-9.90
-7.48
-5.52
-4.26
-3.74
-3.82
-4.23
-4.67
-4.89
-4.81
-4.49
-4.05
-3.58
-3.15
-2.75
-2.39
-2.09
-1.91
-1.91
-2.07
-2.34
-2.65
-2.97
-3.37
-3.96
-4.81
-5.88
-6.94
-7.66
-7.69
-6.82
-5.05
-2.60
0.15
2.75
4.79
5.98
6.16
5.43
4.02
2.30
0.66
-0.62
-1.43
-1.78
-1.80
-1.66
-1.47
-1.30
-1.22
-1.21
-1.27
-1.36
-1.47
-1.57
-1.73
-2.00
-2.49
-3.24
-4.21
-5.23
-6.02
-6.27
-5.71
-4.27
-2.07
0.55
3.18
5.47
7.22
8.38
9.03
9.25
9.04
8.39
7.26
5.71
3.91
2.07
0.42
-0.89
-1.81
-2.37
-2.61
-2.58
-2.35
-1.97
-1.52
-1.13
-0.95
-1.11
-1.70
-2.69
-3.93
-5.12
-5.87
-5.83
-4.77
-2.69
0.13
3.26
6.19
8.54
10.08
10.79
10.78
10.21
9.25
8.04
6.73
5.43
4.20
3.04
1.90
0.70
-0.62
-2.04
-3.46
-4.78
-5.84
-6.55
-6.88
-6.90
-6.78
-6.78
-7.14
-7.99
-9.25
-10.62
-11.63
-11.81
-10.85
-8.70
-5.58
-1.92
1.76
5.01
7.50
9.11
9.87
9.96
9.59
8.97
8.29
7.64
7.11
6.72
6.45
6.25
6.00
5.61
4.97
4.04
2.89
1.62
0.39
-0.66
-1.50
-2.16
-2.72
-3.22
-3.61
-3.67
-3.17
-1.89
0.18
2.81
5.58
8.03
9.79
10.70
10.76
10.12
8.94
7.41
5.72
4.07
2.65
1.53
0.69
0.00
-0.69
-1.46
-2.26
-2.97
-3.47
-3.69
-3.66
-3.46
-3.18
-2.92
-2.75
-2.75
-2.99
-3.46
-4.04
-4.50
-4.54
-3.93
-2.54
-0.44
2.12
4.76
7.07
8.69
9.34
8.88
7.34
4.94
2.08
-0.73
-3.03
-4.51
-5.07
-4.88
-4.31
-3.76
-3.56
-3.84
-4.60
-5.68
-6.92
-8.08
-9.02
-9.76
-10.48
-11.46
-12.95
-15.02
-17.48
-19.86
-21.42
-21.57
-20.27
-18.08
-15.82
-14.23
-13.72
-14.20
-15.27
-16.18
-16.48
-16.50
-17.03
-18.81
-22.00
-26.22
-30.54
-33.95
-35.23
-33.74
-30.08
-25.64
-21.90
-19.65
-18.87
-18.55
-17.26
-13.14
-4.96
6.89
21.01
35.74
49.78
62.01
71.73
74.88
69.19
58.27
49.16
46.80
51.13
59.94
68.60
73.65
73.46
69.14
63.42
56.24
48.77
41.95
36.39
32.00
28.46
25.46
23.45
23.08
24.31
26.72
29.27
31.00
31.16
29.63
26.68
23.09
19.56
16.21
13.10
10.25
8.07
7.10
7.89
10.65
15.31
21.46
28.30
35.22
41.85
48.20
54.66
61.70
69.42
77.25
83.89
87.71
87.56
83.31
75.90
66.56
55.88
43.31
27.47
7.07
-18.07
-46.67
-76.49
-105.20
-131.21
-153.85
-172.86
-187.72
-197.24
-199.69
-193.52
-178.17
-154.80
-126.39
-97.29
-72.32
-55.44
-48.62
-51.22
-60.12
-70.58
-76.96
-74.00
-58.11
-28.95
9.40
48.12
75.44
80.23
56.44
6.57
-57.98
-120.22
-163.56
-177.73
-162.02
-124.55
-77.99
-34.20
-0.14
23.01
38.07
48.60
56.50
61.45
62.16
58.44
52.30
47.44
47.37
53.51
64.26
75.59
83.24
84.62
79.83
71.37
62.90
57.35
55.97
58.10
62.22
66.87
70.80
72.40
69.30
58.81
38.83
9.43
-26.87
-64.91
-98.25
-121.47
-132.07
-130.71
-120.01
-103.32
-83.48
-63.44
-45.52
-31.31
-21.91
-17.85
-18.58
-21.92
-25.09
-25.34
-22.14
-16.40
-9.74
-4.19
-1.90
-4.42
-11.65
-22.63
-28.99
-25.94
-14.42
1.23
17.65
33.15
44.85
53.14
57.74
58.57
55.26
48.89
41.92
37.20
36.50
39.78
45.85
52.28
56.87
56.64
49.90
38.68
27.49
19.41
14.07
8.62
-0.90
-17.00
-39.46
-63.80
-82.23
-87.01
-74.15
-45.44
-7.52
30.37
60.16
77.20
81.28
75.47
63.82
49.79
35.86
24.03
15.67
11.49
10.70
11.51
11.59
9.06
3.31
-4.80
-13.18
-19.65
-22.52
-21.38
-17.25
-11.98
-7.28
-4.07
-2.37
-1.43
-0.35
1.64
4.57
7.20
7.70
4.89
-1.09
-8.72
-15.84
-20.52
-20.76
-15.33
-5.09
6.87
16.11
17.97
9.19
-10.59
-37.96
-64.96
-79.35
-72.37
-45.11
-7.24
29.74
58.30
78.01
90.99
98.78
101.56
98.16
87.88
72.22
53.30
35.72
23.52
18.57
20.85
28.93
40.31
52.33
62.92
70.92
75.96
77.80
76.15
71.05
62.78
51.57
38.01
23.48
9.95
-0.79
-8.65
-15.75
-25.51
-40.94
-63.03
-89.58
-115.61
-135.13
-143.43
-138.93
-123.41
-100.66
-74.98
-50.03
-28.45
-11.91
-1.25
3.46
2.91
-1.59
-8.32
-15.71
-22.75
-29.04
-34.61
-39.48
-43.45
-46.10
-47.12
-46.56
-44.94
-43.20
-42.38
-43.32
-46.40
-51.42
-57.65
-63.94
-69.01
-71.70
-71.27
-67.54
-60.95
-52.34
-42.75
-33.10
-24.10
-16.16
-9.44
-3.86
0.89
5.32
10.07
15.66
22.23
29.30
35.85
40.72
43.12
42.99
41.06
38.39
35.76
33.18
29.94
25.12
18.30
10.13
2.32
-2.99
-4.08
-0.40
7.22
16.93
26.61
34.58
40.04
43.04
44.17
44.11
43.30
41.89
39.85
37.21
34.20
31.24
28.77
26.97
25.74
24.69
23.38
21.55
19.25
16.80
14.60
12.91
11.72
10.81
9.89
8.76
7.43
6.08
4.94
4.22
3.92
3.91
3.97
3.85
3.40
2.56
1.34
-0.20
-1.94
-3.71
-5.29
-6.41
-6.89
-6.62
-5.66
-4.22
-2.56
-0.94
0.44
1.44
2.01
2.14
1.88
1.37
0.80
0.38
0.30
0.65
1.37
2.27
3.11
3.70
3.98
3.99
3.83
3.58
3.23
2.72
2.06
1.34
0.73
0.42
0.49
0.85
1.36
1.84
2.19
2.42
2.56
2.64
2.67
2.63
2.49
2.29
2.07
1.84
1.65
1.49
1.36
1.26
1.17
1.04
0.82
0.49
0.04
-0.50
-1.04
-1.51
-1.90
-2.20
-2.46
-2.73
-3.00
-3.17
-3.12
-2.74
-2.02
-1.02
0.11
1.20
2.08
2.63
2.78
2.51
1.91
1.16
0.49
0.11
0.14
0.52
1.07
1.55
1.79
1.68
1.25
0.60
-0.14
-0.87
-1.46
-1.87
-2.10
-2.25
-2.42
-2.70
-3.11
-3.55
-3.86
-3.91
-3.62
-3.03
-2.26
-1.42
-0.62
0.09
0.70
1.17
1.48
1.63
1.68
1.73
1.88
2.18
2.59
2.99
3.21
3.14
2.77
2.13
1.35
0.51
-0.29
-1.03
-1.67
-2.20
-2.60
-2.87
-3.04
-3.14
-3.19
-3.18
-3.09
-2.85
-2.43
-1.80
-1.00
-0.10
0.73
1.32
1.53
1.31
0.77
0.13
-0.32
-0.41
-0.09
0.52
1.22
1.81
2.16
2.24
2.11
1.82
1.43
0.98
0.50
0.01
-0.46
-0.90
-1.32
-1.76
-2.28
-2.87
-3.49
-4.02
-4.26
-4.10
-3.47
-2.48
-1.33
-0.29
0.43
0.74
0.67
0.33
-0.12
-0.56
-0.89
-1.06
-1.04
-0.82
-0.43
0.07
0.60
1.08
1.39
1.46
1.22
0.64
-0.20
-1.16
-2.04
-2.69
-3.05
-3.22
-3.36
-3.62
-4.05
-4.49
-4.72
-4.51
-3.81
-2.71
-1.49
-0.46
0.15
0.28
0.05
-0.34
-0.60
-0.54
-0.06
0.83
2.02
3.39
4.75
5.95
6.82
7.27
7.25
6.82
6.11
5.24
4.32
3.41
2.54
1.73
1.00
0.34
-0.28
-0.93
-1.63
-2.33
-2.88
-3.12
-2.91
-2.30
-1.46
-0.64
-0.05
0.21
0.18
-0.04
-0.31
-0.54
-0.64
-0.54
-0.22
0.33
1.00
1.63
2.04
2.06
1.63
0.82
-0.21
-1.23
-2.08
-2.65
-2.94
-3.06
-3.10
-3.17
-3.29
-3.44
-3.58
-3.65
-3.59
-3.37
-3.00
-2.51
-2.00
-1.58
-1.34
-1.32
-1.46
-1.65
-1.75
-1.66
-1.36
-0.93
-0.46
-0.02
0.34
0.60
0.78
0.86
0.84
0.70
0.40
-0.05
-0.62
-1.27
-1.92
-2.51
-3.06
-3.58
-4.11
-4.67
-5.19
-5.54
-5.62
-5.36
-4.79
-4.02
-3.19
-2.39
-1.65
-1.00
-0.45
-0.03
0.27
0.49
0.80
1.40
2.48
4.08
6.05
8.05
9.77
10.98
11.65
11.92
11.95
11.82
11.47
10.78
9.64
8.07
6.21
4.26
2.40
0.75
-0.67
-1.85
-2.78
-3.42
-3.71
-3.64
-3.22
-2.56
-1.83
-1.23
-0.93
-1.01
-1.40
-1.91
-2.34
-2.52
-2.44
-2.14
-1.73
-1.29
-0.85
-0.42
-0.03
0.24
0.37
0.35
0.23
0.11
0.02
-0.02
-0.07
-0.22
-0.47
-0.83
-1.24
-1.65
-2.01
-2.28
-2.46
-2.49
-2.37
-2.12
-1.82
-1.58
-1.48
-1.57
-1.78
-2.03
-2.19
-2.21
-2.03
-1.70
-1.25
-0.77
-0.37
-0.16
-0.24
-0.60
-1.17
-1.79
-2.33
-2.70
-2.91
-3.03
-3.16
-3.37
-3.67
-4.02
-4.37
-4.68
-4.89
-4.96
-4.83
-4.47
-3.87
-3.10
-2.25
-1.44
-0.79
-0.36
-0.16
-0.11
-0.09
0.03
0.34
0.79
1.28
1.63
1.71
1.49
1.01
0.42
-0.15
-0.58
-0.83
-0.91
-0.88
-0.78
-0.71
-0.71
-0.86
-1.18
-1.69
-2.33
-2.98
-3.48
-3.67
-3.43
-2.70
-1.54
-0.13
1.31
2.52
3.32
3.62
3.48
3.06
2.58
2.24
2.13
2.26
2.53
2.81
2.98
3.00
2.83
2.49
1.98
1.31
0.50
-0.36
-1.14
-1.76
-2.23
-2.67
-3.24
-4.06
-5.11
-6.18
-6.96
-7.21
-6.86
-6.02
-4.96
-3.93
-3.06
-2.29
-1.51
-0.61
0.40
1.36
2.11
2.52
2.60
2.50
2.40
2.44
2.61
2.80
2.89
2.80
2.55
2.26
2.11
2.22
2.58
3.13
3.68
4.04
4.03
3.60
2.78
1.67
0.42
-0.84
-1.98
-2.87
-3.31
-3.14
-2.24
-0.65
1.36
3.36
4.91
5.72
5.79
5.35
4.76
4.31
4.12
4.16
4.29
4.40
4.48
4.55
4.66
4.81
4.88
4.72
4.25
3.43
2.38
1.28
0.27
-0.58
-1.34
-2.13
-3.03
-3.99
-4.85
-5.37
-5.39
-4.89
-4.00
-2.96
-1.99
-1.24
-0.73
-0.43
-0.29
-0.29
-0.45
-0.77
-1.21
-1.68
-2.04
-2.21
-2.15
-1.95
-1.73
-1.63
-1.75
-2.10
-2.62
-3.23
-3.82
-4.26
-4.48
-4.45
-4.23
-3.95
-3.78
-3.82
-4.06
-4.36
-4.54
-4.44
-4.00
-3.28
-2.38
-1.41
-0.47
0.38
1.05
1.49
1.69
1.71
1.71
1.83
2.13
2.54
2.90
3.06
2.94
2.54
1.96
1.28
0.59
-0.09
-0.69
-1.18
-1.50
-1.63
-1.60
-1.51
-1.47
-1.55
-1.77
-2.09
-2.41
-2.62
-2.63
-2.36
-1.83
-1.14
-0.41
0.19
0.58
0.70
0.59
0.31
-0.05
-0.41
-0.74
-0.97
-1.09
-1.04
-0.79
-0.35
0.26
0.93
1.50
1.83
1.84
1.54
1.06
0.58
0.19
-0.09
-0.36
-0.72
-1.19
-1.70
-2.10
-2.26
-2.11
-1.72
-1.20
-0.65
-0.11
0.44
1.05
1.73
2.43
3.02
3.43
3.62
3.63
3.58
3.59
3.74
4.06
4.53
5.10
5.70
6.27
6.72
6.98
7.01
6.86
6.64
6.51
6.53
6.65
6.71
6.57
6.13
5.46
4.74
4.19
3.99
4.23
4.86
5.74
6.63
7.30
7.53
7.23
6.42
5.30
4.08
3.01
2.19
1.65
1.32
1.12
0.97
0.80
0.56
0.18
-0.36
-1.05
-1.83
-2.60
-3.27
-3.82
-4.26
-4.64
-4.98
-5.28
-5.53
-5.72
-5.89
-5.99
-5.96
-5.65
-4.93
-3.75
-2.24
-0.66
0.65
1.43
1.59
1.23
0.62
0.07
-0.17
-0.01
0.48
1.12
1.68
1.99
1.99
1.72
1.29
0.78
0.24
-0.38
-1.12
-1.96
-2.86
-3.75
-4.58
-5.34
-6.03
-6.69
-7.27
-7.74
-8.01
-8.02
-7.69
-7.00
-6.00
-4.79
-3.55
-2.49
-1.76
-1.40
-1.34
-1.40
-1.41
-1.31
-1.12
-0.94
-0.86
-0.89
-0.99
-1.10
-1.19
-1.29
-1.47
-1.75
-2.10
-2.44
-2.68
-2.82
-2.92
-3.08
-3.35
-3.75
-4.23
-4.74
-5.24
-5.73
-6.15
-6.41
-6.39
-5.99
-5.18
-4.03
-2.71
-1.43
-0.34
0.45
0.93
1.17
1.27
1.38
1.59
1.96
2.49
3.07
3.59
3.92
4.00
3.87
3.60
3.32
3.08
2.93
2.81
2.62
2.27
1.71
0.95
0.10
-0.73
-1.40
-1.82
-1.92
-1.68
-1.06
-0.09
1.17
2.55
3.84
4.80
5.28
5.30
5.02
4.69
4.50
4.50
4.57
4.52
4.21
3.64
2.94
2.34
1.98
1.88
1.93
1.99
1.96
1.84
1.69
1.53
1.31
0.93
0.30
-0.56
-1.49
-2.29
-2.76
-2.78
-2.39
-1.68
-0.80
0.15
1.06
1.88
2.58
3.16
3.65
4.09
4.51
4.90
5.21
5.39
5.39
5.24
5.01
4.81
4.68
4.64
4.61
4.49
4.21
3.74
3.13
2.43
1.71
1.04
0.46
0.04
-0.21
-0.31
-0.36
-0.47
-0.71
-1.00
-1.18
-1.04
-0.47
0.49
1.62
2.65
3.35
3.67
3.65
3.46
3.28
3.24
3.41
3.72
4.07
4.31
4.31
4.04
3.57
3.05
2.61
2.32
2.14
1.97
1.70
1.31
0.81
0.26
-0.31
-0.91
-1.58
-2.32
-3.05
-3.67
-4.04
-4.07
-3.73
-3.03
-2.08
-0.99
0.11
1.06
1.78
2.19
2.29
2.10
1.71
1.21
0.72
0.34
0.11
0.03
0.02
-0.02
-0.18
-0.51
-1.00
-1.57
-2.19
-2.84
-3.52
-4.23
-4.91
-5.52
-5.99
-6.34
-6.61
-6.84
-7.08
-7.29
-7.40
-7.30
-6.90
-6.21
-5.27
-4.25
-3.32
-2.61
-2.21
-2.07
-2.05
-2.03
-1.87
-1.57
-1.18
-0.82
-0.58
-0.50
-0.55
-0.67
-0.84
-1.05
-1.36
-1.81
-2.37
-2.96
-3.46
-3.74
-3.80
-3.73
-3.75
-4.07
-4.83
-6.01
-7.39
-8.63
-9.41
-9.50
-8.88
-7.81
-6.64
-5.76
-5.40
-5.57
-6.02
-6.47
-6.65
-6.46
-6.01
-5.57
-5.43
-5.89
-7.16
-9.29
-12.11
-15.05
-17.21
-17.55
-15.25
-10.10
-2.64
5.96
14.40
21.68
27.39
31.68
34.96
37.47
39.18
39.86
39.39
38.01
36.49
35.74
36.41
38.42
40.82
42.07
40.79
36.45
29.66
21.86
14.57
8.55
3.41
-2.10
-9.36
-18.92
-30.16
-41.62
-51.71
-59.17
-63.61
-65.27
-64.60
-62.22
-58.57
-53.91
-48.48
-42.01
-33.77
-22.87
-8.93
7.01
22.27
33.28
37.00
32.11
19.89
3.64
-12.59
-25.49
-33.35
-35.89
-33.30
-25.82
-13.99
0.38
13.50
21.30
21.89
16.17
6.45
-4.61
-13.93
-21.15
-26.07
-28.56
-28.35
-25.38
-20.20
-14.49
-9.53
-6.26
-5.28
-6.63
-9.93
-14.31
-18.50
-21.29
-21.92
-20.23
-16.59
-11.64
-5.44
2.49
12.85
25.77
40.12
53.62
63.81
69.09
69.38
66.23
61.86
58.06
55.58
54.07
52.59
50.29
46.75
42.01
36.48
30.71
25.20
20.27
16.08
12.55
9.45
6.46
3.21
-0.54
-4.80
-9.32
-13.64
-17.29
-20.01
-22.04
-24.03
-26.82
-31.00
-36.66
-43.21
-49.58
-54.65
-57.58
-58.16
-56.96
-55.11
-53.98
-54.80
-58.21
-63.86
-70.16
-74.40
-73.36
-64.48
-46.94
-22.38
5.54
32.28
54.07
69.03
77.45
81.03
81.78
81.02
79.20
76.26
72.22
67.50
62.74
58.35
54.18
49.62
44.02
36.99
28.78
20.16
12.09
5.30
0.02
-3.97
-7.20
-10.12
-12.92
-15.41
-17.18
-17.81
-17.14
-15.30
-12.71
-9.88
-7.21
-4.97
-3.27
-2.14
-1.60
-1.70
-2.38
-3.46
-4.62
-5.48
-5.79
-5.54
-4.91
-4.25
-3.84
-3.82
-4.23
-4.98
-6.00
-7.16
-8.34
-9.39
-10.08
-10.20
-9.56
-8.17
-6.24
-4.11
-2.16
-0.66
0.27
0.69
0.82
0.85
0.81
0.61
0.09
-0.84
-2.13
-3.69
-5.48
-7.26
-8.93
-10.47
-11.90
-13.13
-13.97
-14.26
-14.06
-13.69
-13.09
-12.22
-11.04
-9.68
-8.15
-6.31
-3.97
-1.03
2.40
6.79
12.20
18.14
23.66
28.05
31.41
34.67
39.08
45.66
55.81
69.77
86.40
103.29
117.89
128.56
134.80
136.91
129.05
108.48
76.93
40.37
4.99
-25.66
-50.56
-69.85
-83.79
-92.54
-95.24
-92.62
-85.39
-75.31
-64.49
-54.61
-46.49
-40.29
-35.77
-31.87
-27.86
-23.57
-19.51
-16.46
-14.88
-14.79
-15.95
-18.03
-20.25
-21.99
-22.87
-22.96
-22.40
-21.17
-19.11
-16.21
-12.67
-8.65
-4.35
0.20
4.96
9.80
14.44
18.37
21.02
22.00
21.34
19.64
17.92
17.08
17.47
18.77
20.27
21.29
21.60
21.05
20.07
19.34
19.59
21.10
23.54
26.27
28.77
30.86
31.93
31.39
28.63
23.23
14.96
3.84
-9.69
-24.86
-40.80
-57.62
-75.05
-92.03
-106.48
-116.42
-121.11
-121.54
-119.91
-112.73
-98.40
-78.00
-55.61
-35.31
-18.86
-5.17
8.62
25.23
45.12
64.16
77.10
77.80
63.81
38.01
7.40
-20.01
-38.52
-46.65
-47.10
-44.17
-41.33
-39.82
-39.37
-39.79
-41.87
-46.84
-54.80
-63.56
-69.44
-66.65
-51.30
-23.60
11.59
46.67
74.51
90.24
94.09
90.09
83.12
76.41
70.92
66.13
61.50
57.38
54.93
55.41
58.98
64.30
68.79
69.18
62.94
49.26
29.52
7.27
-12.70
-26.10
-30.70
-27.15
-18.56
-9.03
-2.05
0.72
-0.38
-3.64
-7.23
-9.94
-11.54
-12.16
-11.90
-10.69
-8.53
-5.76
-3.25
-1.86
-2.10
-3.70
-5.65
-6.84
-6.62
-5.17
-3.10
-1.28
-0.65
-1.94
-5.41
-10.08
-13.73
-13.27
-6.59
6.03
21.42
34.51
40.88
39.19
32.11
24.92
22.81
27.92
38.54
50.17
57.79
57.86
49.22
32.85
10.44
-14.09
-36.92
-55.25
-67.69
-74.30
-76.22
-75.04
-72.09
-68.18
-63.65
-59.12
-55.44
-53.30
-52.95
-53.86
-54.98
-55.40
-54.83
-53.83
-53.51
-54.36
-55.39
-54.22
-48.21
-35.95
-18.08
2.99
24.38
43.85
60.39
73.76
83.54
88.63
87.63
79.96
66.83
51.29
37.08
27.38
23.55
24.90
29.53
35.09
39.73
42.40
42.70
40.34
35.33
28.20
20.37
14.01
11.05
11.81
14.12
14.26
9.00
-2.43
-17.43
-31.31
-39.56
-40.01
-33.47
-22.83
-11.08
-0.45
7.96
13.51
15.56
13.44
6.88
-3.28
-15.20
-26.31
-34.05
-36.65
-33.69
-26.38
-17.17
-9.13
-4.61
-4.34
-7.23
-11.08
-13.66
-13.63
-10.88
-6.23
-0.94
3.76
6.97
8.27
7.91
6.86
6.17
6.69
8.65
11.43
13.87
14.86
13.89
11.32
8.47
6.67
6.93
9.44
13.48
17.48
19.50
17.96
12.41
4.26
-3.95
-8.84
-7.40
1.51
15.82
30.35
38.28
32.99
11.92
-22.66
-63.37
-100.02
-122.62
-124.28
-103.47
-64.84
-19.76
21.68
49.04
56.31
44.69
22.30
0.30
-12.55
-13.84
-7.60
-0.77
1.31
-1.27
-3.86
-1.54
6.69
16.84
22.40
19.17
7.43
-8.00
-19.77
-22.18
-14.85
-2.64
7.43
10.43
6.27
-2.12
-11.23
-18.31
-22.12
-22.43
-18.70
-9.02
9.27
38.14
75.07
112.74
141.83
154.29
146.01
117.74
74.66
20.57
-32.68
-73.31
-97.94
-111.23
-118.98
-123.32
-122.87
-114.87
-97.64
-71.29
-39.39
-7.48
19.35
38.22
48.72
52.21
51.14
47.73
43.42
37.46
28.26
15.71
2.27
-8.06
-11.75
-7.27
4.39
20.31
36.30
48.68
55.53
56.59
52.12
42.11
26.92
8.40
-9.44
-21.57
-24.01
-15.81
0.11
17.97
31.84
38.45
38.32
34.70
30.95
28.48
26.10
21.09
11.73
-1.47
-15.43
-26.20
-31.00
-29.48
-23.54
-16.27
-10.33
-7.22
-6.93
-8.59
-11.34
-14.87
-19.10
-23.33
-26.18
-25.74
-20.66
-10.90
1.68
13.24
18.84
14.25
-0.58
-21.33
-40.19
-51.47
-54.26
-50.85
-44.47
-37.67
-31.49
-25.62
-19.53
-13.30
-7.94
-4.57
-3.54
-4.29
-5.71
-6.49
-5.64
-3.01
0.67
4.06
6.01
6.21
5.06
3.42
2.23
2.19
3.42
5.44
7.38
8.50
8.60
7.91
6.95
6.25
6.21
6.88
8.00
9.16
9.97
10.34
10.38
10.30
10.35
10.68
11.31
12.17
13.09
13.96
14.73
15.45
16.16
16.94
17.81
18.78
19.79
20.82
21.79
22.61
23.18
23.38
23.09
22.22
20.64
18.27
15.22
11.59
7.51
3.19
-1.20
-5.41
-9.27
-12.32
-14.71
-16.43
-17.46
-17.90
-17.83
-17.37
-16.63
-15.83
-14.94
-14.05
-13.17
-12.31
-11.50
-10.72
-9.98
-9.27
-8.58
-7.90
-7.27
-6.67
-6.09
-5.54
-5.02
-4.54
-4.07
-3.64
-3.20
-2.82
-2.45
-2.13
-1.82
-1.54
-1.27
-1.04
-0.81
-0.60
-0.42
-0.25
-0.09
0.04
0.16
0.27
0.36
0.45
0.53
0.59
0.64
0.68
0.71
0.75
0.76
0.78
0.79
0.81
0.82
0.83
0.84
0.85
0.86
0.87
0.88
0.90
0.91
0.92
0.94
0.95
0.96
0.98
0.99
1.01
1.02
1.04
1.06
1.07
1.09
1.10
1.13
1.14
1.16
1.19
1.19
1.21
1.22
1.24
1.28
1.33
1.39
1.42
1.40
1.28
1.10
0.86
0.64
0.47
0.38
0.35
0.34
0.28
0.12
-0.14
-0.45
-0.74
-0.92
-0.99
-0.99
-0.98
-1.10
-1.45
-2.00
-2.67
-3.29
-3.69
-3.80
-3.74
-3.74
-4.11
-5.10
-6.67
-8.58
-10.39
-11.69
-12.28
-12.41
-12.62
-13.57
-15.72
-19.07
-23.12
-26.98
-29.85
-31.39
-31.96
-32.52
-34.20
-37.80
-43.32
-49.93
-56.29
-61.31
-64.42
-66.07
-67.31
-69.36
-73.21
-79.50
-88.59
-100.20
-112.82
-123.23
-126.97
-119.80
-99.74
-68.64
-31.92
3.39
31.48
49.97
60.46
66.48
71.41
76.80
82.15
86.08
87.61
86.88
84.86
82.42
79.63
75.77
69.94
61.41
50.35
37.66
24.66
12.74
2.81
-4.71
-9.92
-13.11
-14.73
-15.22
-15.01
-14.50
-13.89
-13.14
-11.94
-9.72
-5.90
-0.42
6.04
12.05
16.00
16.91
15.09
12.20
11.00
14.23
23.25
37.09
52.73
65.97
73.33
73.51
67.86
60.41
56.39
60.52
74.69
96.52
119.41
134.22
131.85
106.16
57.25
-7.89
-76.91
-135.67
-172.59
-182.28
-167.05
-133.79
-94.61
-62.04
-43.92
-40.11
-42.93
-41.25
-26.14
4.48
44.59
82.38
106.31
109.88
93.83
64.23
28.42
-8.68
-46.13
-85.33
-127.43
-170.69
-210.33
-240.45
-257.13
-260.41
-253.95
-243.00
-231.77
-222.08
-213.23
-203.22
-190.35
-174.34
-156.33
-138.20
-121.65
-107.28
-94.14
-79.86
-61.65
-37.94
-9.58
20.03
46.10
64.31
72.71
72.43
67.11
61.31
58.67
60.68
66.67
74.52
81.83
86.88
89.16
89.23
88.46
88.63
91.67
99.53
113.71
134.82
161.70
190.74
215.98
230.44
228.56
208.85
175.36
136.89
103.84
84.10
79.93
87.52
99.49
108.82
111.99
109.82
105.49
101.79
99.15
96.00
90.61
83.14
75.94
71.87
71.81
73.03
70.22
58.46
36.46
8.11
-18.93
-36.57
-39.96
-29.40
-9.80
12.01
30.36
42.75
50.00
54.45
57.73
59.42
57.43
49.95
37.66
24.23
14.79
12.83
17.51
23.64
24.48
16.12
0.56
-14.67
-20.51
-11.65
10.29
37.57
60.96
74.98
80.77
84.67
93.65
110.46
131.70
149.72
157.18
151.44
135.86
117.77
104.41
99.29
101.06
105.21
107.00
104.08
97.06
88.34
80.17
73.23
66.37
57.30
43.93
25.03
0.14
-30.93
-68.82
-114.52
-168.47
-229.33
-292.93
-352.51
-400.29
-430.06
-439.29
-430.08
-408.15
-380.58
-353.30
-329.50
-309.56
-292.29
-276.36
-261.41
-248.00
-236.80
-227.78
-219.70
-210.36
-197.34
-178.76
-153.59
-121.53
-83.07
-39.91
4.49
45.06
76.32
94.47
99.24
94.55
86.96
82.95
86.13
96.09
109.19
120.83
127.73
128.98
125.61
119.39
111.65
102.79
92.58
80.72
67.26
53.05
39.68
28.81
21.32
16.49
11.99
5.08
-5.90
-20.16
-34.31
-43.70
-44.42
-34.93
-16.09
9.84
40.45
73.45
106.11
134.30
152.61
156.06
142.55
114.55
78.69
43.24
14.60
-4.56
-15.51
-21.41
-24.42
-24.39
-19.18
-6.58
13.69
38.81
63.91
83.69
94.40
95.52
89.12
78.60
67.34
57.99
52.22
52.12
59.86
76.65
102.44
133.70
163.61
184.19
189.63
178.11
153.97
124.84
98.09
79.92
72.86
76.22
87.52
103.74
120.63
135.37
145.35
148.44
146.38
143.38
144.63
154.11
172.80
196.55
220.70
240.37
238.14
204.28
138.94
52.54
-38.31
-107.60
-149.62
-167.10
-167.26
-159.56
-154.42
-158.53
-174.16
-198.37
-223.69
-242.33
-246.43
-232.88
-205.11
-169.83
-134.87
-106.79
-88.95
-81.17
-81.74
-85.97
-88.85
-86.88
-77.86
-61.86
-41.36
-20.33
-2.79
7.89
11.33
9.11
3.28
-4.28
-12.66
-22.11
-33.17
-45.71
-58.80
-70.02
-76.79
-77.58
-72.54
-63.50
-53.63
-46.42
-44.55
-49.10
-58.72
-69.88
-77.78
-77.64
-66.01
-41.85
-6.73
35.44
79.23
118.62
147.86
162.47
160.15
141.49
109.95
71.09
31.19
-4.11
-30.63
-45.75
-48.08
-37.46
-15.42
14.16
44.98
69.27
80.10
73.92
52.41
22.47
-5.95
-23.49
-24.81
-10.58
12.95
36.64
51.72
52.38
36.68
6.14
-35.00
-80.34
-121.77
-150.57
-159.69
-146.50
-114.84
-74.55
-38.14
-15.92
-11.93
-22.62
-38.87
-50.32
-49.59
-34.83
-9.55
19.37
44.44
59.92
63.11
54.60
37.66
16.83
-3.38
-19.74
-30.85
-36.79
-38.42
-36.61
-31.85
-24.44
-14.79
-3.73
7.49
17.43
24.74
28.43
27.92
22.95
13.63
0.45
-15.54
-32.67
-48.98
-62.60
-72.23
-77.42
-78.51
-76.10
-70.58
-61.79
-49.18
-32.54
-12.83
7.50
24.99
36.44
40.30
37.40
30.54
23.16
17.75
14.96
13.75
12.57
10.59
8.37
7.50
9.49
14.50
20.81
25.31
24.78
17.33
3.14
-15.68
-35.97
-54.54
-68.77
-76.74
-77.04
-68.79
-51.98
-27.93
0.28
28.08
50.45
63.48
65.78
59.02
47.17
34.66
24.38
16.36
8.01
-4.10
-22.00
-44.53
-67.30
-84.43
-91.03
-85.44
-69.76
-48.84
-28.23
-12.14
-2.34
1.91
3.10
4.29
8.12
15.93
27.33
40.16
51.10
56.68
54.58
44.43
28.02
8.75
-9.40
-22.93
-29.71
-29.30
-23.09
-13.76
-4.59
1.58
3.18
0.19
-6.25
-14.55
-23.41
-32.00
-39.70
-45.57
-48.13
-45.71
-37.23
-23.00
-5.05
13.33
28.54
37.91
40.51
37.37
30.74
23.17
16.41
11.08
7.09
4.51
4.29
8.19
17.98
34.36
55.98
79.42
99.73
111.84
111.96
98.85
74.28
42.64
9.62
-19.47
-41.24
-54.90
-61.75
-63.87
-62.71
-58.29
-49.60
-35.68
-16.77
5.25
27.24
45.59
57.25
60.55
55.78
45.37
33.40
24.49
22.07
26.89
36.36
45.39
48.34
41.35
24.04
-0.40
-26.55
-48.87
-63.60
-69.70
-68.64
-63.45
-57.58
-53.87
-53.88
-57.43
-62.73
-66.83
-66.44
-58.97
-43.34
-20.40
7.26
35.78
60.98
79.23
88.21
87.30
77.74
62.22
44.23
27.23
13.89
5.81
3.36
5.93
12.12
19.90
26.98
31.32
31.77
28.55
23.23
18.05
14.96
14.87
17.35
20.98
24.08
25.23
23.69
19.33
12.62
4.52
-3.47
-9.55
-12.03
-9.92
-3.40
6.10
16.40
25.25
31.07
33.19
31.70
27.09
19.93
10.82
0.60
-9.53
-18.18
-24.14
-26.96
-27.21
-26.37
-26.20
-27.96
-31.80
-36.60
-40.35
-40.96
-37.05
-28.56
-16.86
-4.37
6.17
12.42
13.13
8.40
-0.41
-11.01
-20.84
-27.70
-30.28
-28.51
-23.51
-17.16
-11.41
-7.51
-5.61
-4.81
-3.73
-1.37
2.31
6.20
8.50
7.62
2.86
-5.25
-15.15
-24.69
-31.55
-33.54
-29.15
-18.34
-3.34
11.35
20.20
19.09
7.72
-9.31
-23.96
-28.08
-17.19
7.24
38.26
66.29
83.07
84.46
71.33
48.24
21.25
-4.23
-24.79
-39.30
-48.44
-53.90
-57.53
-60.68
-63.95
-67.23
-69.96
-71.47
-71.21
-68.84
-64.29
-57.73
-49.67
-40.98
-32.72
-25.98
-21.48
-19.23
-18.40
-17.56
-15.09
-9.95
-2.14
7.08
15.54
20.83
21.24
16.29
6.94
-4.74
-16.25
-25.43
-30.86
-31.97
-28.87
-22.14
-12.59
-1.33
10.31
20.92
29.27
34.63
37.11
37.55
37.22
37.24
38.11
39.59
40.92
41.37
40.69
39.39
38.58
39.47
42.87
48.74
56.10
63.21
68.09
68.97
64.83
55.59
42.20
26.44
10.55
-3.22
-13.05
-17.98
-17.97
-13.78
-6.61
2.37
12.35
22.86
33.44
43.19
50.58
53.68
50.95
42.03
28.35
12.87
-0.90
-10.08
-13.42
-11.54
-6.39
-0.37
4.41
6.47
4.92
-0.60
-9.64
-20.63
-30.71
-36.46
-35.12
-26.11
-11.74
3.30
13.76
15.85
8.92
-4.43
-19.29
-30.28
-33.36
-26.93
-12.19
7.38
27.14
42.71
51.32
52.55
48.28
41.63
35.37
30.64
26.55
20.98
12.03
-0.62
-15.28
-28.95
-38.67
-42.84
-41.97
-38.38
-35.21
-35.09
-39.15
-46.65
-55.39
-62.62
-66.05
-64.63
-58.72
-49.69
-39.30
-29.06
-19.91
-12.28
-6.42
-2.54
-0.89
-1.69
-5.07
-11.15
-20.13
-32.21
-47.34
-64.70
-82.34
-97.10
-105.17
-103.25
-89.81
-66.06
-35.91
-4.92
21.47
39.50
47.87
47.37
39.90
27.35
11.35
-6.46
-23.81
-37.64
-44.88
-43.75
-35.03
-22.26
-10.86
-6.24
-12.00
-28.64
-53.57
-81.89
-107.86
-126.36
-134.02
-129.79
-114.87
-92.15
-65.43
-38.59
-14.97
2.95
13.91
18.07
17.28
14.79
14.49
19.58
31.21
47.84
65.81
80.94
90.33
93.51
92.26
89.41
87.40
87.39
89.35
92.79
97.26
102.56
108.20
113.16
115.91
115.00
109.85
101.23
91.07
81.76
75.30
72.68
73.66
77.11
81.46
85.19
87.15
86.69
83.65
78.26
71.04
62.76
54.24
46.32
39.61
34.24
29.80
25.44
20.19
13.49
5.49
-2.93
-10.50
-16.15
-19.55
-21.41
-23.38
-27.58
-35.90
-49.21
-67.01
-87.24
-106.67
-121.56
-128.51
-125.25
-111.53
-89.34
-62.72
-36.74
-15.96
-2.92
2.70
3.96
5.36
11.06
23.28
41.75
64.26
87.69
109.08
125.94
136.02
137.05
127.06
105.30
73.29
35.34
-2.38
-33.59
-54.10
-63.13
-63.33
-59.50
-56.63
-58.26
-65.47
-76.97
-89.86
-100.61
-106.28
-105.37
-98.11
-86.36
-73.01
-61.22
-53.36
-50.27
-50.61
-50.80
-45.65
-29.98
-0.91
40.31
87.76
132.46
165.52
181.58
180.54
167.13
148.09
128.97
111.91
95.63
77.31
54.99
29.06
2.20
-21.90
-40.22
-51.42
-55.88
-55.07
-50.88
-45.18
-39.65
-35.81
-34.73
-36.74
-41.11
-46.11
-49.66
-50.21
-47.48
-42.76
-38.40
-36.88
-39.87
-47.74
-59.48
-73.29
-87.14
-99.29
-108.53
-114.28
-116.62
-116.21
-114.01
-110.96
-107.57
-103.77
-99.09
-92.90
-84.67
-73.96
-60.36
-43.56
-23.76
-2.10
19.25
37.58
50.79
58.55
62.71
66.70
73.97
86.33
103.03
120.76
134.95
141.32
137.51
123.76
102.74
78.50
55.15
35.86
22.48
15.80
15.94
22.59
34.72
50.24
65.98
78.22
83.77
81.11
70.92
55.83
39.60
26.00
17.92
16.78
22.18
31.97
42.58
49.79
49.57
39.00
17.11
-14.55
-51.79
-88.17
-116.48
-130.93
-129.30
-114.10
-91.93
-71.08
-58.32
-56.51
-64.06
-76.39
-88.18
-95.46
-96.15
-89.97
-77.65
-60.59
-40.99
-21.97
-7.11
0.74
0.65
-5.40
-12.91
-16.40
-11.67
2.52
23.93
47.80
68.61
81.85
85.10
78.20
62.73
41.60
18.61
-1.95
-16.00
-20.84
-16.07
-3.87
11.89
27.17
39.16
46.73
49.86
48.67
42.88
32.34
17.93
2.25
-10.82
-17.58
-16.40
-8.61
1.89
10.54
14.20
12.25
6.29
-1.57
-10.33
-20.59
-33.46
-48.60
-62.89
-70.78
-66.61
-47.54
-15.81
21.37
54.19
73.95
76.46
63.35
41.05
17.99
1.39
-4.96
-1.23
9.35
22.24
33.22
39.49
40.09
35.64
27.90
18.93
10.57
4.06
-0.35
-2.97
-4.51
-5.65
-6.78
-8.09
-9.62
-11.24
-12.63
-13.14
-11.99
-8.74
-3.72
1.66
5.28
5.08
0.11
-8.85
-19.35
-28.03
-31.74
-28.68
-19.05
-4.90
10.47
23.54
31.44
32.59
26.72
14.83
-1.02
-17.97
-32.78
-42.46
-45.06
-40.51
-30.84
-19.59
-10.71
-7.05
-9.35
-16.06
-24.07
-30.05
-31.61
-28.04
-20.23
-10.13
-0.02
8.06
12.66
12.92
8.77
0.84
-9.47
-20.18
-29.17
-34.70
-35.83
-32.57
-25.64
-16.22
-5.63
4.73
13.33
18.68
19.67
16.09
9.02
0.74
-5.99
-8.91
-7.22
-1.90
4.74
10.05
12.11
10.38
5.79
0.20
-4.38
-6.44
-5.35
-1.47
4.05
9.52
13.09
13.20
9.07
1.02
-9.43
-19.94
-28.08
-32.06
-31.34
-26.59
-19.30
-11.15
-3.54
2.53
6.37
7.45
5.52
0.91
-5.25
-11.15
-14.82
-14.99
-11.75
-6.63
-1.99
-0.01
-1.77
-6.86
-13.59
-19.63
-22.82
-21.80
-16.38
-7.66
2.20
10.44
14.53
12.96
5.87
-4.90
-16.42
-25.71
-30.88
-31.56
-28.74
-23.98
-18.49
-12.75
-6.75
-0.55
5.30
9.66
11.31
9.66
5.13
-1.04
-7.35
-12.68
-16.52
-18.79
-19.37
-17.88
-13.92
-7.54
0.50
8.85
16.28
22.35
27.60
32.94
38.72
43.97
46.56
44.20
35.78
22.35
6.96
-6.40
-14.28
-14.96
-8.88
1.82
14.41
26.43
36.37
43.56
47.84
49.11
47.22
42.18
34.53
25.60
17.10
10.47
6.24
3.72
1.46
-1.78
-6.33
-11.41
-15.58
-17.59
-16.85
-13.51
-8.16
-1.50
5.63
12.14
16.60
17.49
13.89
6.05
-4.35
-14.67
-22.20
-25.14
-23.16
-17.26
-9.12
-0.39
7.84
14.93
20.27
22.94
21.76
15.92
5.72
-6.89
-18.74
-26.56
-28.37
-24.35
-16.69
-8.61
-2.90
-1.06
-2.96
-7.29
-12.25
-16.01
-17.16
-14.84
-9.00
-0.56
8.59
15.97
19.26
17.16
9.90
-0.75
-12.16
-21.72
-27.62
-29.11
-26.27
-19.60
-9.76
2.38
15.46
27.43
35.82
38.51
34.76
25.84
14.88
5.72
1.27
2.20
6.80
11.89
14.47
13.14
8.44
2.39
-2.63
-4.89
-3.65
0.88
7.87
16.04
23.70
28.88
29.78
25.45
16.36
4.42
-7.50
-16.62
-21.12
-20.78
-16.89
-11.58
-6.65
-2.66
1.47
7.71
17.46
29.96
41.76
47.91
44.61
31.84
14.35
-0.08
-4.22
4.86
24.28
46.71
64.00
70.77
66.28
53.81
38.37
24.20
13.53
6.59
2.57
0.43
-0.65
-1.31
-2.07
-3.34
-5.51
-8.95
-14.14
-21.48
-30.84
-41.06
-49.93
-54.76
-53.55
-46.17
-34.77
-23.09
-15.12
-13.47
-18.26
-27.17
-36.33
-41.88
-41.31
-34.36
-23.00
-10.59
-0.72
3.98
2.55
-4.12
-13.75
-23.32
-29.81
-30.88
-25.41
-13.91
1.33
16.65
27.88
31.76
27.16
15.60
0.74
-13.04
-22.24
-25.37
-23.05
-17.19
-9.86
-2.53
4.01
9.22
12.24
11.91
7.34
-1.22
-11.85
-21.35
-26.38
-24.87
-17.05
-5.45
6.06
13.82
15.65
11.49
2.97
-7.28
-16.55
-22.81
-25.04
-23.42
-19.17
-14.11
-10.14
-8.91
-11.11
-16.13
-22.17
-26.80
-27.98
-24.84
-17.98
-9.20
-1.13
4.01
5.34
3.56
0.46
-2.16
-3.31
-3.06
-2.24
-2.77
-6.85
-16.35
-32.10
-53.36
-77.86
-102.27
-123.10
-134.88
-135.01
-124.84
-109.43
-94.78
-84.67
-79.41
-76.72
-73.66
-67.99
-59.60
-49.52
-38.81
-28.38
-17.02
-3.10
14.82
37.76
66.93
102.55
143.62
187.09
227.64
258.54
273.49
269.34
245.09
206.54
163.32
125.30
99.07
86.10
83.38
85.42
86.98
84.79
78.30
68.39
56.60
44.70
34.61
28.02
25.60
26.58
28.54
28.55
23.86
13.07
-3.21
-22.55
-41.63
-57.33
-67.48
-71.19
-68.49
-60.31
-48.30
-34.56
-21.37
-10.86
-4.51
-2.93
-5.64
-11.07
-17.11
-21.64
-23.12
-21.14
-16.51
-10.94
-6.33
-4.15
-4.99
-8.65
-14.48
-21.57
-28.91
-35.40
-40.05
-42.32
-42.41
-41.28
-40.19
-40.07
-40.94
-41.91
-41.80
-39.81
-36.04
-31.40
-26.98
-23.33
-20.10
-16.33
-11.01
-3.94
3.93
10.59
13.73
11.77
4.72
-5.54
-15.72
-22.32
-23.04
-17.82
-9.18
-1.43
1.00
-4.51
-17.30
-33.37
-46.71
-51.82
-46.16
-31.34
-12.46
4.03
13.06
12.76
4.80
-6.77
-17.47
-23.91
-24.66
-20.21
-12.26
-3.02
5.50
11.95
15.95
17.93
18.82
19.64
21.14
23.71
27.26
31.34
35.14
37.49
36.98
32.26
22.54
8.06
-9.54
-27.33
-41.62
-48.89
-46.90
-35.55
-17.24
3.71
22.21
34.06
37.04
31.53
19.97
5.86
-7.26
-16.60
-20.46
-18.31
-10.69
0.77
13.59
24.79
31.50
31.66
24.66
11.82
-3.74
-17.69
-25.79
-25.26
-15.90
-0.29
17.10
31.49
39.38
39.47
32.62
21.17
8.04
-4.02
-12.76
-16.72
-15.52
-9.90
-1.83
5.86
10.16
8.66
0.29
-14.19
-32.07
-49.21
-61.05
-64.00
-56.60
-39.83
-16.69
8.87
32.84
51.53
61.63
60.48
47.03
22.87
-7.21
-36.21
-57.23
-66.26
-63.81
-54.40
-44.19
-38.00
-37.31
-40.13
-42.68
-41.52
-35.30
-25.06
-13.41
-3.24
3.51
6.31
5.87
3.60
0.90
-1.37
-2.87
-3.66
-3.87
-3.39
-1.88
1.08
5.60
11.20
16.80
20.97
22.34
20.23
14.94
7.71
0.28
-5.67
-9.11
-9.79
-8.01
-4.11
1.77
9.71
19.47
30.05
39.61
46.01
47.88
45.49
40.78
36.48
34.56
35.08
36.14
34.96
29.60
20.07
8.63
-1.16
-5.67
-2.30
9.84
29.75
54.46
79.23
98.07
105.09
96.31
71.48
34.81
-5.90
-41.65
-65.22
-73.59
-68.59
-55.88
-42.39
-33.76
-32.36
-36.86
-43.18
-46.38
-42.82
-31.65
-14.93
3.25
18.43
27.27
28.47
22.71
12.23
0.15
-10.13
-15.52
-13.93
-4.88
10.06
27.48
43.07
52.98
55.02
49.02
36.52
20.12
3.03
-11.20
-19.11
-18.21
-8.32
7.58
23.84
34.13
34.07
23.36
5.96
-11.81
-24.13
-28.15
-24.74
-17.29
-9.72
-4.65
-2.78
-3.42
-5.52
-8.42
-11.89
-15.76
-19.38
-21.63
-21.33
-17.89
-11.68
-3.95
3.67
9.63
12.88
12.98
10.23
5.60
0.61
-3.04
-4.24
-2.98
-0.61
0.75
-0.81
-6.00
-14.03
-22.97
-30.53
-34.96
-35.36
-31.74
-24.75
-15.62
-5.95
2.65
9.12
13.30
15.96
17.96
19.36
18.95
14.76
5.45
-8.25
-23.16
-34.67
-38.82
-34.21
-22.82
-9.08
2.08
7.31
5.95
-0.10
-7.58
-13.36
-15.53
-13.76
-9.06
-3.14
2.24
5.76
6.90
5.92
3.79
1.86
1.39
3.15
6.98
11.85
16.03
17.70
15.54
9.20
-0.44
-11.56
-21.76
-28.83
-31.38
-29.33
-23.91
-17.14
-10.92
-6.13
-2.49
0.91
4.60
8.03
9.60
7.62
1.47
-7.88
-18.31
-27.64
-34.70
-39.60
-43.10
-45.61
-46.57
-44.62
-38.49
-28.09
-14.95
-1.91
7.98
12.57
11.49
6.10
-1.08
-7.38
-10.89
-10.91
-7.97
-3.45
0.93
3.60
3.59
0.80
-3.99
-9.30
-13.80
-17.16
-20.62
-26.63
-37.48
-53.64
-72.72
-89.87
-99.55
-97.66
-82.90
-56.78
-22.57
15.85
54.71
90.30
118.93
137.23
143.12
136.68
120.32
97.96
73.53
49.75
27.86
8.35
-7.90
-19.11
-23.00
-18.05
-4.56
15.04
36.95
57.29
73.17
83.13
86.85
84.65
77.34
66.44
54.45
44.59
39.80
41.47
48.79
59.10
69.34
77.37
82.52
84.94
84.48
79.97
69.76
52.97
30.59
5.60
-18.16
-37.72
-52.11
-62.30
-70.08
-76.62
-81.79
-84.40
-83.06
-77.08
-66.66
-52.56
-35.71
-17.01
2.27
20.09
33.66
40.24
38.20
28.14
12.96
-2.96
-15.33
-21.39
-20.67
-14.83
-6.68
0.84
5.43
5.87
1.96
-5.58
-15.32
-25.30
-33.36
-37.58
-36.76
-30.83
-21.07
-9.86
-0.06
5.91
6.77
2.89
-4.07
-11.83
-18.47
-23.13
-26.14
-28.65
-31.82
-35.99
-40.32
-42.81
-40.95
-32.68
-17.31
3.81
27.32
48.44
62.21
64.97
55.72
36.72
12.96
-9.32
-24.67
-30.26
-26.65
-17.27
-6.83
0.55
2.69
-0.36
-6.88
-14.48
-21.03
-25.14
-26.30
-24.76
-21.15
-16.12
-10.10
-3.29
4.09
11.35
17.23
20.24
19.37
14.87
8.54
3.15
1.29
4.15
11.00
19.51
26.92
31.11
31.28
27.96
22.36
15.74
9.02
2.72
-2.73
-6.74
-8.55
-7.51
-3.62
2.09
7.52
10.03
7.35
-1.35
-14.83
-29.95
-42.76
-49.97
-50.29
-44.64
-35.49
-25.61
-17.00
-10.51
-6.24
-4.30
-5.07
-8.94
-15.60
-23.52
-30.29
-33.59
-32.39
-27.61
-21.68
-17.39
-16.53
-19.21
-23.81
-27.92
-29.23
-26.36
-19.20
-8.75
3.19
14.40
22.67
26.22
24.15
16.86
6.06
-5.66
-15.51
-21.42
-22.63
-19.72
-14.07
-7.13
0.16
7.50
14.82
21.78
27.46
30.60
30.26
26.37
19.98
12.83
6.61
2.32
0.05
-0.73
-0.68
-0.22
0.51
1.50
2.74
4.22
6.05
8.53
11.90
15.97
19.93
22.41
22.09
18.38
11.98
4.78
-0.73
-2.42
0.65
7.77
16.89
25.37
30.83
31.88
28.46
21.71
13.46
5.77
0.33
-1.81
-0.65
2.72
6.26
7.51
4.69
-2.38
-11.84
-20.16
-23.54
-19.41
-7.58
9.65
28.36
44.45
54.82
57.98
54.00
44.09
30.16
14.52
-0.38
-12.43
-20.22
-23.58
-23.44
-21.42
-19.02
-16.99
-15.11
-12.68
-9.26
-5.35
-2.38
-2.00
-5.06
-10.82
-16.98
-20.54
-19.22
-12.51
-1.96
9.49
18.67
23.39
23.01
18.53
12.05
6.18
3.28
4.86
11.01
20.22
29.61
35.61
35.03
26.20
9.70
-11.51
-32.70
-48.70
-55.50
-51.59
-38.40
-19.86
-0.84
14.48
23.88
27.24
25.77
20.94
13.86
5.35
-3.51
-11.09
-15.51
-15.56
-11.56
-5.59
-0.68
0.43
-3.45
-11.40
-20.81
-28.39
-31.41
-28.59
-20.44
-9.03
2.84
12.50
18.29
19.85
17.98
14.03
9.28
4.60
0.49
-2.76
-4.74
-4.96
-3.02
1.18
7.15
13.89
20.00
23.92
24.33
20.56
12.87
2.61
-8.06
-16.79
-21.73
-22.15
-18.60
-12.84
-7.17
-3.73
-3.79
-7.28
-12.65
-17.39
-18.82
-15.12
-6.19
5.92
17.41
23.94
22.37
12.12
-4.38
-22.60
-37.80
-46.92
-49.55
-47.46
-43.07
-38.09
-32.89
-27.11
-20.87
-15.45
-12.95
-15.01
-21.43
-29.84
-36.66
-38.96
-36.10
-30.16
-24.87
-23.77
-28.49
-37.89
-48.62
-56.43
-57.68
-50.59
-35.59
-15.18
6.81
26.10
39.00
43.16
38.13
25.53
8.62
-8.55
-22.19
-29.79
-30.65
-25.81
-17.51
-8.27
-0.04
6.13
10.05
11.89
11.80
9.87
6.41
2.24
-1.41
-3.52
-4.05
-4.29
-6.41
-12.19
-21.65
-32.48
-40.69
-42.17
-34.48
-17.97
4.46
28.35
49.15
63.28
68.49
63.82
49.64
27.91
2.45
-21.02
-35.89
-36.42
-19.88
11.82
52.37
92.88
124.97
143.69
148.82
144.23
135.44
126.97
120.61
115.45
109.30
100.41
88.54
74.78
60.58
46.68
32.70
17.69
1.15
-16.11
-31.75
-42.57
-45.87
-40.79
-29.02
-14.48
-2.16
3.66
0.87
-9.80
-25.07
-40.39
-51.43
-55.35
-51.39
-40.71
-25.70
-9.11
6.52
19.21
27.57
30.80
28.70
21.89
11.92
0.91
-9.03
-16.69
-22.25
-27.30
-33.80
-42.89
-53.87
-64.22
-70.60
-70.28
-62.31
-47.71
-29.05
-9.40
8.36
21.82
29.13
29.11
21.59
7.70
-9.97
-27.81
-41.78
-48.37
-45.27
-32.05
-10.35
16.12
42.23
62.49
72.60
70.68
57.80
37.67
15.48
-3.55
-15.37
-17.92
-11.41
1.71
17.37
30.72
37.43
34.96
23.41
5.67
-13.43
-28.60
-35.82
-33.51
-22.93
-7.53
8.36
20.92
27.85
28.58
23.90
15.28
4.40
-7.10
-17.57
-25.35
-29.16
-28.50
-24.04
-17.61
-11.51
-7.69
-7.01
-9.07
-12.59
-16.06
-18.43
-19.33
-18.87
-17.35
-14.93
-11.64
-7.54
-3.04
0.98
3.34
3.09
0.14
-4.41
-8.45
-9.63
-6.55
0.39
8.89
15.53
17.27
12.78
3.10
-8.93
-19.98
-27.60
-31.03
-30.92
-28.44
-24.38
-18.81
-11.59
-3.13
5.20
11.39
13.90
12.68
9.40
6.69
6.69
9.78
14.28
17.13
15.40
7.57
-5.79
-22.38
-39.01
-52.55
-60.64
-62.07
-56.96
-46.71
-33.87
-21.64
-13.17
-10.63
-14.49
-23.34
-34.21
-43.68
-48.96
-48.92
-44.18
-36.66
-28.50
-21.14
-14.91
-9.23
-3.34
3.00
9.14
13.83
15.91
15.08
12.10
8.49
5.78
4.76
5.26
6.39
7.29
7.57
7.62
8.26
10.33
14.23
19.81
26.32
32.59
37.30
39.15
37.38
32.09
24.42
16.30
9.91
6.94
8.17
13.44
21.89
32.43
43.94
55.16
64.61
70.53
71.30
66.07
55.34
41.18
26.61
14.67
7.28
4.58
5.05
6.35
6.46
4.52
1.01
-2.69
-5.09
-5.22
-2.87
1.46
6.84
12.14
16.21
18.14
17.43
14.08
8.68
2.15
-4.42
-10.02
-13.83
-15.28
-14.12
-10.59
-5.50
-0.24
3.72
5.32
4.44
2.05
-0.17
-0.54
1.85
6.74
12.78
18.01
20.63
19.65
15.10
7.98
-0.16
-7.74
-13.50
-16.63
-16.71
-13.72
-7.98
-0.34
7.77
14.59
18.38
18.21
14.31
8.05
1.22
-4.75
-9.50
-13.61
-17.94
-22.82
-27.66
-31.17
-32.26
-30.82
-27.94
-25.38
-24.52
-25.41
-26.70
-26.31
-22.70
-15.88
-7.56
-0.33
3.53
3.16
-0.60
-5.72
-10.07
-12.21
-11.78
-9.20
-5.16
-0.29
4.84
9.51
12.76
13.52
11.12
5.64
-1.91
-9.82
-16.14
-19.26
-18.28
-13.30
-5.47
3.08
9.71
11.92
8.18
-1.33
-14.53
-27.89
-37.58
-40.91
-37.34
-28.75
-18.72
-11.00
-8.17
-10.71
-17.06
-24.53
-30.32
-32.54
-30.45
-24.39
-15.36
-4.76
5.66
13.90
18.00
16.52
9.29
-2.26
-15.25
-26.13
-31.87
-30.98
-23.95
-13.01
-1.27
8.40
14.20
15.67
13.66
9.70
5.50
2.56
1.91
4.10
9.09
16.22
24.02
30.38
32.88
29.56
19.82
4.97
-11.77
-26.16
-34.32
-34.21
-26.32
-13.60
-0.26
9.71
13.98
12.49
7.27
1.41
-2.15
-1.54
3.63
12.51
23.63
35.45
46.74
56.51
63.93
68.35
69.59
68.31
65.89
63.91
63.17
63.01
61.39
55.84
44.76
28.47
9.20
-9.89
-25.94
-37.37
-43.96
-46.24
-44.85
-40.30
-33.23
-24.94
-17.48
-13.12
-13.42
-18.25
-25.60
-32.18
-34.75
-31.42
-22.47
-10.12
2.41
12.26
17.90
19.45
18.31
16.21
14.52
13.80
13.89
14.18
13.96
12.67
9.98
5.93
0.92
-4.28
-8.75
-11.69
-12.61
-11.47
-8.53
-4.24
0.86
6.12
10.79
14.12
15.60
15.14
13.08
9.98
6.31
2.29
-2.02
-6.39
-10.23
-12.75
-13.26
-11.62
-8.47
-5.01
-2.52
-1.92
-3.39
-6.41
-9.99
-12.98
-14.50
-14.10
-11.96
-8.70
-5.15
-2.04
0.15
1.19
1.03
-0.26
-2.31
-4.40
-5.45
-4.43
-0.97
4.19
9.21
11.77
10.16
4.16
-4.74
-13.92
-20.66
-23.24
-21.41
-16.15
-9.05
-1.61
5.15
10.57
14.11
15.21
13.47
9.05
3.03
-2.79
-6.44
-6.69
-3.59
1.59
6.94
10.80
12.33
11.65
9.52
6.87
4.47
2.74
1.83
1.56
1.54
1.21
0.12
-1.81
-4.23
-6.50
-8.09
-9.00
-9.83
-11.34
-13.86
-16.72
-18.29
-16.67
-10.76
-1.25
9.27
17.04
18.73
13.07
1.63
-11.59
-21.88
-25.82
-22.73
-14.94
-6.52
-1.48
-2.15
-8.57
-18.68
-29.29
-37.01
-39.13
-34.27
-22.81
-7.03
9.23
21.57
26.37
22.00
9.39
-8.27
-26.68
-41.66
-50.27
-51.25
-45.07
-33.49
-19.13
-4.94
6.30
12.48
12.60
7.19
-1.62
-10.34
-15.15
-13.32
-4.56
8.49
21.05
28.12
26.64
16.80
1.70
-14.04
-26.40
-33.28
-34.74
-32.25
-27.64
-22.36
-17.36
-13.29
-10.68
-9.88
-10.80
-12.81
-14.92
-16.14
-15.75
-13.44
-9.16
-2.96
5.04
14.43
24.18
32.62
37.85
38.47
34.31
26.79
18.42
11.90
8.96
9.81
13.19
17.04
19.24
18.12
12.75
3.19
-9.03
-20.65
-27.15
-23.99
-8.62
18.07
51.42
84.53
110.64
125.44
128.18
121.07
107.77
91.63
74.91
58.78
44.01
31.48
22.18
16.72
14.78
14.93
14.98
12.87
7.53
-0.58
-9.65
-17.49
-22.45
-24.18
-23.57
-22.21
-21.50
-22.18
-24.11
-26.55
-28.46
-28.85
-27.00
-22.74
-16.59
-9.81
-4.17
-1.38
-2.49
-7.35
-14.63
-22.31
-28.26
-30.99
-30.04
-25.99
-20.06
-13.63
-7.84
-3.41
-0.82
-0.27
-1.73
-4.90
-9.13
-13.39
-16.50
-17.56
-16.34
-13.69
-10.99
-9.55
-10.29
-13.38
-18.41
-24.79
-32.16
-40.65
-50.98
-63.56
-77.83
-92.15
-104.13
-111.46
-112.94
-108.90
-99.78
-87.90
-76.42
-68.00
-63.99
-64.04
-66.80
-70.50
-73.18
-72.80
-67.88
-58.03
-43.46
-25.42
-5.73
13.90
32.59
50.74
69.86
92.12
120.04
155.85
198.41
244.09
286.28
316.73
328.31
318.17
289.31
249.85
209.85
176.94
153.62
136.90
120.82
100.13
72.87
40.70
7.26
-24.05
-51.49
-74.64
-93.54
-107.80
-116.81
-120.21
-118.97
-115.66
-113.63
-115.75
-123.01
-134.25
-146.63
-156.81
-161.95
-160.24
-151.41
-136.55
-117.77
-97.65
-78.93
-64.25
-56.06
-55.88
-63.36
-76.35
-91.23
-103.96
-111.58
-113.37
-110.26
-105.39
-102.61
-104.15
-110.08
-118.49
-126.90
-133.61
-138.00
-140.00
-139.46
-136.05
-127.80
-112.69
-89.54
-58.33
-20.11
23.59
71.37
122.32
172.62
219.15
258.98
289.64
309.40
317.59
314.67
302.10
281.98
256.65
228.93
201.19
175.03
151.27
130.05
111.07
93.88
78.04
63.18
49.56
37.45
27.08
18.46
11.35
5.41
0.21
-4.62
-9.35
-13.78
-17.59
-20.53
-22.46
-23.48
-23.92
-24.16
-24.54
-25.19
-25.86
-26.11
-25.54
-24.00
-21.67
-19.09
-16.87
-15.42
-14.81
-14.51
-13.72
-11.76
-8.40
-4.03
0.45
4.08
6.26
6.99
7.03
7.40
9.02
12.34
17.35
23.51
29.77
34.84
36.65
33.53
24.85
11.46
-4.45
-20.12
-33.29
-42.94
-49.46
-54.19
-58.37
-62.57
-66.33
-68.51
-67.81
-63.47
-55.80
-46.35
-37.52
-31.57
-29.66
-31.02
-33.25
-33.53
-30.14
-23.47
-15.71
-9.60
-6.75
-6.89
-8.15
-8.29
-6.06
-1.77
3.01
6.49
7.56
6.31
3.69
0.92
-1.09
-2.11
-2.49
-2.83
-3.59
-4.78
-5.98
-6.59
-6.11
-4.57
-2.50
-0.69
0.11
-0.34
-1.72
-3.27
-4.24
-4.16
-3.04
-1.34
0.34
1.47
1.85
1.62
1.13
0.77
0.80
1.26
2.07
3.08
4.16
5.22
6.17
6.85
7.10
6.89
6.33
5.72
5.35
5.37
5.77
6.37
6.97
7.51
8.11
8.91
9.97
11.19
12.35
13.26
13.86
14.10
14.11
13.95
13.66
13.23
12.56
11.56
10.05
8.41
6.74
5.11
3.52
1.90
0.22
-1.57
-3.48
-5.42
-7.30
-9.09
-10.78
-12.46
-14.23
-16.22
-18.49
-20.99
-23.51
-25.76
-27.49
-28.49
-28.62
-27.91
-26.46
-24.49
-22.22
-19.89
-17.64
-15.59
-13.76
-12.10
-10.58
-9.11
-7.63
-6.08
-4.43
-2.71
-1.06
0.33
1.31
1.77
1.78
1.53
1.27
1.22
1.49
2.03
2.70
3.28
3.64
3.69
3.45
3.00
2.47
1.99
1.68
1.63
1.83
2.24
2.72
3.13
3.36
3.34
3.11
2.76
2.40
2.13
1.98
1.92
1.87
1.72
1.43
1.01
0.55
0.19
0.04
0.14
0.45
0.88
1.31
1.61
1.66
1.36
0.68
-0.35
-1.56
-2.70
-3.47
-3.65
-3.18
-2.17
-0.87
0.41
1.46
2.19
2.63
2.89
3.03
3.07
2.92
2.52
1.87
1.10
0.37
-0.15
-0.42
-0.53
-0.66
-0.99
-1.59
-2.40
-3.27
-4.00
-4.42
-4.44
-4.01
-3.22
-2.19
-1.15
-0.28
0.30
0.61
0.77
1.00
1.45
2.19
3.20
4.40
5.67
6.92
7.98
8.65
8.76
8.21
7.13
5.80
4.55
3.66
3.24
3.23
3.50
3.91
4.37
4.84
5.24
5.46
5.32
4.71
3.56
1.99
0.17
-1.62
-3.12
-4.15
-4.64
-4.66
-4.36
-3.93
-3.55
-3.34
-3.36
-3.65
-4.16
-4.77
-5.29
-5.48
-5.19
-4.37
-3.12
-1.68
-0.30
0.79
1.52
1.89
2.05
2.14
2.27
2.46
2.64
2.67
2.44
1.93
1.18
0.31
-0.57
-1.38
-2.09
-2.65
-2.96
-2.89
-2.40
-1.54
-0.56
0.29
0.81
1.00
1.04
1.18
1.63
2.39
3.29
4.12
4.69
4.97
5.00
4.92
4.77
4.54
4.17
3.60
2.87
2.08
1.40
0.98
0.91
1.16
1.67
2.33
3.02
3.65
4.14
4.48
4.69
4.85
5.08
5.45
5.99
6.64
7.31
7.89
8.29
8.45
8.35
7.94
7.15
5.97
4.42
2.63
0.80
-0.84
-2.12
-3.01
-3.57
-3.90
-4.15
-4.38
-4.64
-4.97
-5.41
-6.03
-6.87
-7.89
-8.97
-9.97
-10.71
-11.10
-11.11
-10.78
-10.19
-9.45
-8.70
-8.07
-7.67
-7.60
-7.86
-8.42
-9.23
-10.20
-11.28
-12.38
-13.38
-14.17
-14.60
-14.55
-13.95
-12.79
-11.19
-9.37
-7.64
-6.30
-5.49
-5.14
-4.99
-4.73
-4.07
-2.95
-1.49
0.05
1.42
2.46
3.05
3.16
2.82
2.11
1.16
0.17
-0.70
-1.28
-1.46
-1.17
-0.36
1.00
2.91
5.20
7.49
9.32
10.27
10.16
9.19
7.86
6.88
6.87
8.08
10.20
12.56
14.47
15.50
15.72
15.58
15.81
17.09
19.72
23.41
27.33
30.38
31.46
29.87
25.50
19.02
12.04
6.51
3.22
1.02
-2.52
-9.48
-20.41
-33.85
-46.97
-56.80
-61.64
-61.50
-57.90
-52.91
-48.23
-44.92
-43.50
-44.27
-47.19
-51.36
-54.50
-53.26
-44.44
-26.94
-2.98
22.30
42.95
54.91
57.81
54.76
50.25
47.70
47.93
49.39
49.71
47.90
44.20
40.11
37.07
35.36
34.04
31.61
26.85
19.72
11.33
3.33
-2.83
-6.59
-8.31
-8.89
-9.04
-8.90
-8.04
-5.84
-2.19
2.34
6.60
9.37
9.98
8.55
5.92
3.20
1.22
0.43
0.78
1.91
3.28
4.34
4.49
3.19
0.00
-5.11
-11.62
-18.60
-25.18
-31.20
-37.16
-43.86
-51.63
-59.99
-67.54
-72.46
-73.38
-69.97
-63.13
-54.24
-44.39
-33.94
-22.91
-11.47
0.18
11.88
23.50
34.89
45.85
56.13
65.40
72.73
77.08
78.35
77.96
77.87
79.62
83.79
89.88
96.69
102.05
103.64
100.89
95.55
90.32
87.43
88.11
92.49
99.73
107.04
109.86
103.87
86.39
56.52
15.28
-33.86
-85.53
-127.68
-147.76
-144.82
-130.83
-118.82
-113.88
-113.61
-112.89
-108.22
-99.44
-89.91
-83.76
-82.24
-82.82
-81.89
-77.65
-70.87
-63.89
-58.86
-57.40
-59.90
-64.83
-69.23
-70.81
-69.22
-65.86
-62.88
-62.35
-66.14
-75.12
-87.68
-99.26
-103.78
-96.08
-74.32
-41.23
-3.45
30.68
54.40
65.39
66.03
61.22
55.49
51.01
47.56
43.95
39.50
34.79
31.33
30.75
33.02
36.93
40.63
42.41
41.65
38.89
35.40
32.57
31.25
31.38
32.13
32.33
30.87
27.43
22.33
16.52
11.21
7.45
5.67
5.67
6.63
7.41
7.28
5.86
3.42
0.89
-0.55
0.02
2.84
7.30
12.00
15.79
17.73
17.64
16.23
14.78
14.49
16.09
19.78
25.26
32.22
39.25
44.01
43.85
37.05
24.26
9.06
-2.85
-8.48
-4.68
8.26
26.29
43.53
54.88
58.09
53.99
45.18
34.12
22.57
11.01
-0.24
-10.14
-17.15
-19.99
-18.52
-13.99
-8.71
-4.72
-3.65
-6.16
-11.85
-19.59
-27.99
-35.80
-42.21
-46.96
-50.20
-52.59
-54.96
-57.85
-61.24
-64.60
-67.08
-68.07
-67.34
-65.05
-61.66
-57.51
-52.38
-45.47
-35.68
-22.28
-5.57
12.88
30.57
44.87
53.97
57.64
57.11
54.47
51.64
49.68
48.62
47.85
46.76
45.19
43.43
41.86
40.58
39.22
37.21
34.10
29.93
25.28
20.88
17.36
14.85
13.08
11.56
9.87
7.85
5.68
3.74
2.45
2.09
2.72
4.12
5.91
7.55
8.59
8.82
8.32
7.46
6.71
6.42
6.67
7.25
7.85
8.16
8.05
7.56
6.80
5.88
4.84
3.67
2.41
1.20
0.27
-0.17
-0.01
0.67
1.63
2.53
3.11
3.20
2.82
2.07
1.09
-0.03
-1.24
-2.52
-3.85
-5.17
-6.41
-7.49
-8.34
-8.94
-9.31
-9.52
-9.64
-9.72
-9.77
-9.71
-9.44
-8.88
-8.02
-6.97
-5.91
-5.05
-4.47
-4.18
-4.04
-3.86
-3.48
-2.87
-2.13
-1.49
-1.18
-1.40
-2.23
-3.65
-5.58
-7.87
-10.38
-12.93
-15.30
-17.22
-18.44
-18.79
-18.34
-17.37
-16.31
-15.53
-15.24
-15.40
-15.77
-16.14
-16.33
-16.27
-15.89
-14.98
-13.23
-10.35
-6.27
-1.26
4.05
8.90
12.67
15.12
16.37
16.81
16.79
16.57
16.21
15.68
14.97
14.16
13.38
12.78
12.36
12.04
11.60
10.83
9.61
7.99
6.22
4.62
3.51
3.03
3.13
3.51
3.80
3.67
3.05
2.06
1.04
0.29
-0.01
0.13
0.55
1.06
1.52
1.86
2.00
1.86
1.34
0.43
-0.73
-1.91
-2.78
-3.12
-2.89
-2.27
-1.51
-0.85
-0.44
-0.31
-0.44
-0.82
-1.46
-2.33
-3.33
-4.29
-4.99
-5.28
-5.11
-4.59
-3.91
-3.32
-2.98
-2.89
-2.96
-3.02
-2.87
-2.44
-1.74
-0.83
0.13
1.01
1.70
2.10
2.18
1.92
1.39
0.72
0.10
-0.29
-0.38
-0.24
-0.10
-0.20
-0.63
-1.26
-1.76
-1.78
-1.14
0.04
1.34
2.26
2.48
1.98
1.00
-0.05
-0.86
-1.31
-1.42
-1.25
-0.82
-0.13
0.87
2.12
3.47
4.72
5.70
6.35
6.71
6.87
6.95
7.05
7.23
7.54
7.97
8.51
9.04
9.44
9.52
9.13
8.18
6.66
4.65
2.29
-0.22
-2.72
-5.06
-7.13
-8.91
-10.34
-11.39
-12.00
-12.07
-11.57
-10.53
-9.08
-7.42
-5.79
-4.35
-3.18
-2.26
-1.52
-0.86
-0.28
0.21
0.55
0.69
0.66
0.54
0.46
0.50
0.67
0.92
1.08
1.07
0.83
0.41
-0.08
-0.51
-0.83
-1.05
-1.24
-1.49
-1.81
-2.15
-2.41
-2.45
-2.22
-1.75
-1.20
-0.75
-0.56
-0.63
-0.87
-1.09
-1.12
-0.96
-0.72
-0.55
-0.59
-0.84
-1.19
-1.50
-1.66
-1.65
-1.53
-1.38
-1.27
-1.24
-1.30
-1.44
-1.63
-1.87
-2.14
-2.45
-2.81
-3.23
-3.67
-4.01
-4.12
-3.88
-3.28
-2.39
-1.39
-0.46
0.28
0.76
0.97
0.96
0.78
0.54
0.34
0.25
0.29
0.39
0.44
0.39
0.27
0.20
0.29
0.58
0.97
1.26
1.31
1.05
0.58
0.04
-0.42
-0.73
-0.91
-1.00
-1.02
-0.99
-0.90
-0.74
-0.49
-0.14
0.31
0.79
1.19
1.37
1.26
0.87
0.35
-0.14
-0.46
-0.56
-0.49
-0.32
-0.08
0.23
0.60
1.00
1.30
1.37
1.15
0.70
0.18
-0.24
-0.48
-0.58
-0.69
-0.96
-1.41
-1.96
-2.45
-2.73
-2.72
-2.47
-2.07
-1.59
-1.06
-0.47
0.18
0.82
1.34
1.61
1.58
1.26
0.79
0.32
-0.03
-0.21
-0.27
-0.25
-0.19
-0.09
0.08
0.31
0.54
0.70
0.70
0.51
0.14
-0.35
-0.88
-1.40
-1.87
-2.28
-2.58
-2.74
-2.74
-2.58
-2.27
-1.86
-1.38
-0.85
-0.32
0.21
0.68
1.06
1.35
1.51
1.58
1.60
1.59
1.56
1.46
1.25
0.92
0.53
0.21
0.09
0.17
0.34
0.42
0.22
-0.26
-0.91
-1.52
-1.94
-2.15
-2.26
-2.37
-2.51
-2.60
-2.57
-2.36
-2.01
-1.59
-1.12
-0.54
0.21
1.09
1.96
2.58
2.77
2.49
1.93
1.35
0.99
0.93
1.13
1.45
1.79
2.12
2.40
2.61
2.66
2.44
1.88
0.99
-0.03
-0.93
-1.47
-1.54
-1.19
-0.64
-0.16
0.08
0.02
-0.23
-0.49
-0.58
-0.40
0.05
0.71
1.46
2.18
2.77
3.15
3.27
3.13
2.79
2.34
1.88
1.53
1.33
1.29
1.36
1.45
1.49
1.44
1.26
0.97
0.60
0.16
-0.30
-0.73
-1.07
-1.27
-1.32
-1.22
-0.99
-0.66
-0.29
0.10
0.46
0.80
1.12
1.47
1.89
2.41
3.00
3.58
4.04
4.25
4.17
3.78
3.11
2.23
1.23
0.17
-0.88
-1.82
-2.50
-2.76
-2.48
-1.70
-0.70
0.13
0.41
-0.02
-1.01
-2.16
-3.08
-3.58
-3.73
-3.77
-3.91
-4.17
-4.36
-4.28
-3.84
-3.17
-2.49
-1.97
-1.58
-1.14
-0.41
0.68
1.98
3.13
3.77
3.68
2.89
1.71
0.52
-0.30
-0.59
-0.39
0.08
0.55
0.80
0.75
0.46
0.07
-0.24
-0.37
-0.32
-0.18
-0.06
0.01
0.08
0.27
0.70
1.39
2.25
3.14
3.92
4.56
5.11
5.63
6.14
6.52
6.61
6.24
5.34
4.01
2.48
1.06
0.02
-0.47
-0.43
-0.04
0.39
0.56
0.26
-0.57
-1.80
-3.23
-4.66
-5.88
-6.77
-7.24
-7.25
-6.81
-5.99
-4.91
-3.75
-2.67
-1.81
-1.22
-0.87
-0.67
-0.54
-0.45
-0.42
-0.51
-0.76
-1.14
-1.54
-1.83
-1.91
-1.76
-1.45
-1.08
-0.69
-0.29
0.09
0.37
0.44
0.17
-0.48
-1.37
-2.29
-2.99
-3.29
-3.18
-2.77
-2.24
-1.81
-1.60
-1.67
-1.93
-2.17
-2.16
-1.69
-0.75
0.52
1.81
2.78
3.25
3.19
2.75
2.10
1.40
0.74
0.19
-0.17
-0.23
0.03
0.49
0.92
1.04
0.70
-0.01
-0.87
-1.58
-1.95
-1.99
-1.85
-1.72
-1.71
-1.80
-1.92
-2.01
-2.09
-2.17
-2.25
-2.24
-2.02
-1.48
-0.66
0.29
1.10
1.56
1.60
1.28
0.81
0.37
0.08
-0.09
-0.21
-0.35
-0.54
-0.71
-0.77
-0.62
-0.28
0.20
0.67
0.96
0.94
0.60
0.04
-0.55
-0.98
-1.17
-1.12
-0.95
-0.78
-0.69
-0.65
-0.61
-0.47
-0.19
0.20
0.65
1.12
1.57
1.95
2.22
2.36
2.33
2.20
2.03
1.90
1.85
1.87
1.90
1.91
1.88
1.85
1.87
1.91
1.95
1.93
1.79
1.50
1.08
0.57
0.03
-0.47
-0.89
-1.23
-1.50
-1.76
-2.04
-2.33
-2.59
-2.70
-2.59
-2.22
-1.66
-0.99
-0.33
0.27
0.76
1.10
1.26
1.18
0.85
0.33
-0.29
-0.88
-1.29
-1.44
-1.28
-0.85
-0.28
0.24
0.48
0.31
-0.29
-1.17
-2.08
-2.75
-3.06
-3.06
-2.95
-2.95
-3.20
-3.65
-4.16
-4.53
-4.62
-4.38
-3.85
-3.11
-2.32
-1.61
-1.13
-0.96
-0.99
-0.99
-0.61
0.39
2.02
4.02
5.96
7.44
8.30
8.62
8.63
8.50
8.26
7.81
7.03
5.92
4.60
3.30
2.20
1.37
0.77
0.30
-0.12
-0.56
-0.99
-1.39
-1.72
-2.00
-2.22
-2.39
-2.51
-2.59
-2.60
-2.53
-2.36
-2.11
-1.79
-1.46
-1.17
-0.98
-0.90
-0.87
-0.77
-0.48
0.03
0.69
1.33
1.78
1.94
1.89
1.73
1.57
1.38
1.08
0.57
-0.09
-0.73
-1.13
-1.20
-1.06
-0.96
-1.15
-1.67
-2.34
-2.83
-2.85
-2.29
-1.32
-0.22
0.70
1.28
1.52
1.51
1.40
1.27
1.19
1.14
1.10
1.04
0.93
0.80
0.70
0.69
0.84
1.10
1.40
1.61
1.63
1.45
1.13
0.79
0.50
0.25
0.01
-0.32
-0.74
-1.24
-1.75
-2.21
-2.60
-2.94
-3.22
-3.38
-3.33
-3.01
-2.41
-1.63
-0.81
-0.10
0.43
0.75
0.91
0.96
0.94
0.88
0.78
0.68
0.59
0.53
0.54
0.61
0.72
0.82
0.86
0.72
0.37
-0.21
-0.91
-1.57
-2.02
-2.17
-2.02
-1.71
-1.38
-1.17
-1.15
-1.33
-1.65
-2.02
-2.32
-2.41
-2.17
-1.57
-0.67
0.36
1.29
1.91
2.08
1.84
1.32
0.76
0.36
0.27
0.51
1.02
1.65
2.27
2.78
3.15
3.40
3.51
3.46
3.22
2.79
2.30
1.90
1.71
1.76
1.93
1.99
1.76
1.19
0.37
-0.49
-1.15
-1.48
-1.48
-1.27
-1.00
-0.79
-0.69
-0.65
-0.62
-0.56
-0.47
-0.39
-0.35
-0.39
-0.51
-0.67
-0.83
-0.97
-1.05
-1.07
-1.02
-0.94
-0.88
-0.86
-0.94
-1.07
-1.20
-1.24
-1.15
-0.98
-0.86
-0.95
-1.31
-1.87
-2.47
-2.88
-2.95
-2.64
-2.03
-1.27
-0.49
0.20
0.74
1.14
1.42
1.58
1.61
1.51
1.26
0.95
0.67
0.52
0.54
0.69
0.86
0.92
0.81
0.59
0.36
0.20
0.13
0.07
-0.06
-0.26
-0.49
-0.67
-0.76
-0.78
-0.83
-0.97
-1.22
-1.53
-1.80
-1.91
-1.82
-1.49
-0.98
-0.38
0.21
0.70
1.03
1.19
1.21
1.15
1.04
0.90
0.74
0.60
0.48
0.40
0.35
0.28
0.17
-0.01
-0.28
-0.62
-1.01
-1.41
-1.75
-1.98
-2.02
-1.87
-1.57
-1.25
-1.06
-1.10
-1.40
-1.89
-2.40
-2.75
-2.83
-2.57
-2.00
-1.23
-0.38
0.40
1.03
1.44
1.64
1.66
1.57
1.45
1.41
1.51
1.79
2.15
2.48
2.63
2.48
2.06
1.44
0.78
0.20
-0.22
-0.45
-0.51
-0.39
-0.12
0.23
0.53
0.64
0.47
0.05
-0.45
-0.84
-0.94
-0.74
-0.36
0.06
0.37
0.53
0.59
0.64
0.71
0.81
0.92
1.03
1.15
1.28
1.39
1.39
1.15
0.59
-0.31
-1.43
-2.57
-3.49
-4.05
-4.17
-3.90
-3.37
-2.68
-1.90
-1.04
-0.15
0.70
1.33
1.56
1.31
0.66
-0.14
-0.80
-1.11
-1.02
-0.66
-0.22
0.15
0.35
0.38
0.21
-0.22
-0.95
-1.92
-2.97
-3.81
-4.15
-3.84
-2.89
-1.51
0.04
1.47
2.60
3.32
3.63
3.61
3.36
3.03
2.79
2.70
2.78
2.95
3.08
3.03
2.74
2.20
1.51
0.77
0.11
-0.39
-0.66
-0.67
-0.46
-0.10
0.32
0.67
0.92
1.06
1.13
1.22
1.35
1.53
1.70
1.79
1.76
1.62
1.40
1.15
0.88
0.57
0.19
-0.27
-0.74
-1.11
-1.26
-1.14
-0.82
-0.45
-0.23
-0.28
-0.63
-1.16
-1.73
-2.17
-2.42
-2.45
-2.29
-1.99
-1.59
-1.12
-0.62
-0.13
0.30
0.64
0.82
0.81
0.63
0.33
0.01
-0.22
-0.28
-0.14
0.15
0.48
0.77
0.94
0.95
0.83
0.61
0.33
0.02
-0.27
-0.53
-0.75
-0.93
-1.11
-1.30
-1.52
-1.77
-2.04
-2.28
-2.45
-2.46
-2.25
-1.77
-1.05
-0.21
0.59
1.19
1.52
1.60
1.55
1.49
1.54
1.72
1.98
2.22
2.36
2.33
2.10
1.73
1.28
0.82
0.41
0.07
-0.18
-0.36
-0.47
-0.50
-0.48
-0.47
-0.56
-0.79
-1.17
-1.62
-2.02
-2.26
-2.27
-2.03
-1.56
-0.92
-0.19
0.57
1.27
1.89
2.37
2.68
2.76
2.58
2.16
1.57
0.97
0.53
0.33
0.38
0.55
0.67
0.66
0.53
0.41
0.38
0.44
0.51
0.42
0.05
-0.56
-1.29
-1.93
-2.35
-2.50
-2.47
-2.34
-2.21
-2.06
-1.84
-1.48
-0.98
-0.39
0.18
0.68
1.07
1.37
1.64
1.89
2.08
2.15
2.05
1.80
1.46
1.15
0.93
0.82
0.75
0.62
0.37
0.00
-0.41
-0.80
-1.11
-1.34
-1.52
-1.69
-1.87
-2.03
-2.15
-2.22
-2.24
-2.21
-2.14
-2.01
-1.79
-1.45
-1.01
-0.48
0.12
0.79
1.52
2.26
2.92
3.36
3.45
3.17
2.62
1.98
1.46
1.22
1.25
1.46
1.69
1.81
1.75
1.49
1.05
0.43
-0.34
-1.18
-1.95
-2.49
-2.66
-2.44
-1.97
-1.48
-1.20
-1.23
-1.51
-1.85
-2.05
-2.02
-1.77
-1.41
-1.02
-0.65
-0.25
0.21
0.74
1.30
1.80
2.19
2.43
2.53
2.52
2.42
2.28
2.13
2.03
1.97
1.93
1.83
1.59
1.19
0.69
0.24
-0.01
0.03
0.27
0.56
0.70
0.58
0.25
-0.09
-0.23
-0.02
0.56
1.40
2.32
3.12
3.72
4.13
4.48
4.95
5.66
6.62
7.72
8.76
9.54
9.93
9.95
9.74
9.55
9.71
10.52
12.16
14.44
16.69
17.80
16.49
11.80
3.61
-7.21
-18.91
-29.42
-36.91
-40.38
-39.71
-35.61
-29.20
-21.67
-13.97
-6.79
-0.50
4.79
9.08
12.45
15.05
17.02
18.51
19.68
20.66
21.54
22.39
23.27
24.23
25.34
26.54
27.52
27.70
26.29
22.51
15.98
6.91
-3.89
-15.19
-25.73
-34.51
-40.99
-45.00
-46.65
-46.18
-43.97
-40.51
-36.42
-32.31
-28.65
-25.66
-23.27
-21.19
-19.09
-16.68
-13.86
-10.72
-7.55
-4.68
-2.41
-0.88
-0.03
0.37
0.57
0.78
1.11
1.57
2.17
2.99
4.09
5.47
6.98
8.38
9.39
9.84
9.75
9.27
8.63
8.05
7.65
7.48
7.48
7.55
7.54
7.29
6.73
5.82
4.66
3.44
2.38
1.68
1.44
1.68
2.28
3.05
3.77
4.23
4.30
3.95
3.22
2.25
1.18
0.12
-0.82
-1.61
-2.19
-2.55
-2.61
-2.29
-1.59
-0.59
0.49
1.35
1.75
1.59
0.95
0.10
-0.68
-1.20
-1.46
-1.61
-1.87
-2.42
-3.26
-4.18
-4.90
-5.19
-4.95
-4.29
-3.46
-2.71
-2.17
-1.80
-1.47
-1.06
-0.54
0.05
0.61
1.08
1.48
1.87
2.25
2.63
2.94
3.11
3.17
3.17
3.21
3.30
3.40
3.41
3.20
2.71
1.98
1.12
0.26
-0.49
-1.11
-1.60
-2.02
-2.43
-2.82
-3.15
-3.36
-3.39
-3.19
-2.76
-2.10
-1.25
-0.25
0.87
2.04
3.17
4.12
4.80
5.14
5.16
4.94
4.57
4.15
3.73
3.34
3.01
2.79
2.68
2.66
2.65
2.55
2.29
1.88
1.38
0.90
0.55
0.38
0.41
0.60
0.88
1.17
1.42
1.67
2.01
2.60
3.57
4.92
6.48
7.98
9.08
9.57
9.39
8.66
7.59
6.37
5.17
4.06
3.05
2.12
1.27
0.50
-0.17
-0.70
-1.06
-1.29
-1.47
-1.71
-2.09
-2.65
-3.31
-3.96
-4.45
-4.70
-4.70
-4.51
-4.19
-3.80
-3.37
-2.89
-2.42
-1.97
-1.57
-1.18
-0.76
-0.28
0.24
0.70
1.01
1.11
1.03
0.90
0.84
0.91
1.07
1.23
1.29
1.22
1.03
0.76
0.41
-0.03
-0.53
-1.00
-1.31
-1.37
-1.18
-0.84
-0.57
-0.51
-0.70
-1.07
-1.46
-1.75
-1.86
-1.83
-1.70
-1.44
-1.05
-0.51
0.14
0.80
1.34
1.70
1.89
1.96
1.96
1.89
1.68
1.31
0.79
0.23
-0.23
-0.50
-0.59
-0.57
-0.57
-0.65
-0.78
-0.88
-0.87
-0.77
-0.62
-0.56
-0.69
-1.05
-1.60
-2.21
-2.72
-2.95
-2.83
-2.36
-1.61
-0.69
0.27
1.19
2.00
2.67
3.17
3.49
3.70
3.88
4.12
4.46
4.84
5.13
5.16
4.84
4.17
3.25
2.23
1.24
0.33
-0.47
-1.14
-1.63
-1.89
-1.90
-1.74
-1.57
-1.59
-1.96
-2.69
-3.61
-4.49
-5.07
-5.24
-5.02
-4.54
-3.95
-3.32
-2.69
-2.04
-1.38
-0.76
-0.26
0.08
0.31
0.50
0.71
0.94
1.13
1.17
1.02
0.69
0.25
-0.20
-0.59
-0.91
-1.15
-1.33
-1.46
-1.56
-1.62
-1.66
-1.71
-1.79
-1.90
-2.06
-2.23
-2.37
-2.45
-2.42
-2.24
-1.93
-1.49
-0.94
-0.30
0.38
1.03
1.58
1.92
1.99
1.79
1.43
1.02
0.70
0.53
0.52
0.57
0.60
0.49
0.22
-0.17
-0.61
-0.99
-1.27
-1.44
-1.50
-1.47
-1.34
-1.11
-0.83
-0.59
-0.52
-0.70
-1.15
-1.76
-2.33
-2.69
-2.70
-2.34
-1.67
-0.81
0.12
0.99
1.70
2.17
2.38
2.37
2.24
2.07
1.92
1.78
1.64
1.45
1.22
1.00
0.85
0.84
0.94
1.07
1.14
1.08
0.84
0.48
0.04
-0.42
-0.85
-1.24
-1.55
-1.79
-1.95
-2.03
-2.02
-1.94
-1.76
-1.48
-1.12
-0.74
-0.42
-0.26
-0.27
-0.39
-0.51
-0.54
-0.50
-0.49
-0.66
-1.07
-1.68
-2.34
-2.91
-3.34
-3.67
-3.99
-4.33
-4.62
-4.75
-4.66
-4.41
-4.17
-4.03
-4.01
-3.98
-3.80
-3.39
-2.80
-2.14
-1.49
-0.83
-0.06
0.93
2.20
3.66
5.18
6.59
7.75
8.56
8.98
9.05
8.80
8.36
7.83
7.29
6.80
6.36
6.01
5.73
5.51
5.29
4.95
4.41
3.63
2.72
1.83
1.12
0.62
0.28
-0.02
-0.37
-0.82
-1.33
-1.86
-2.40
-2.93
-3.40
-3.73
-3.77
-3.45
-2.77
-1.88
-0.99
-0.31
0.08
0.21
0.24
0.30
0.48
0.76
1.01
1.12
1.02
0.77
0.48
0.27
0.22
0.30
0.43
0.53
0.54
0.50
0.44
0.41
0.40
0.37
0.27
0.09
-0.19
-0.55
-0.97
-1.46
-1.98
-2.48
-2.86
-3.02
-2.89
-2.48
-1.85
-1.13
-0.45
0.12
0.54
0.82
0.99
1.06
1.02
0.87
0.66
0.47
0.37
0.40
0.53
0.68
0.78
0.77
0.65
0.44
0.17
-0.15
-0.50
-0.88
-1.24
-1.52
-1.69
-1.72
-1.68
-1.64
-1.70
-1.92
-2.25
-2.59
-2.78
-2.72
-2.40
-1.93
-1.46
-1.10
-0.87
-0.72
-0.55
-0.31
-0.02
0.27
0.50
0.70
0.91
1.19
1.53
1.85
2.00
1.87
1.43
0.78
0.08
-0.50
-0.90
-1.14
-1.34
-1.60
-2.01
-2.53
-3.08
-3.55
-3.89
-4.13
-4.25
-4.23
-3.99
-3.45
-2.59
-1.48
-0.27
0.90
1.93
2.83
3.63
4.34
4.89
5.21
5.24
5.02
4.67
4.33
4.07
3.85
3.58
3.16
2.57
1.92
1.31
0.82
0.47
0.19
-0.05
-0.28
-0.47
-0.61
-0.70
-0.77
-0.83
-0.85
-0.77
-0.53
-0.09
0.47
1.04
1.54
1.92
2.21
2.50
2.80
3.07
3.25
3.22
2.97
2.56
2.10
1.70
1.40
1.18
0.96
0.71
0.45
0.22
0.06
-0.05
-0.14
-0.25
-0.39
-0.57
-0.77
-0.99
-1.28
-1.63
-2.00
-2.29
-2.39
-2.22
-1.79
-1.21
-0.63
-0.17
0.11
0.25
0.34
0.50
0.78
1.19
1.66
2.11
2.45
2.63
2.65
2.54
2.32
1.96
1.45
0.82
0.22
-0.20
-0.29
-0.03
0.40
0.63
0.31
-0.77
-2.50
-4.51
-6.29
-7.41
-7.67
-7.09
-5.94
-4.47
-2.94
-1.47
-0.17
0.89
1.62
1.91
1.78
1.32
0.71
0.19
-0.07
-0.02
0.28
0.70
1.09
1.31
1.31
1.08
0.69
0.21
-0.26
-0.65
-0.91
-1.03
-1.02
-0.93
-0.80
-0.69
-0.70
-0.91
-1.34
-1.95
-2.54
-2.92
-2.91
-2.47
-1.70
-0.80
0.05
0.74
1.24
1.55
1.65
1.54
1.24
0.84
0.49
0.30
0.31
0.49
0.74
0.97
1.13
1.21
1.21
1.13
0.95
0.67
0.30
-0.14
-0.61
-1.05
-1.43
-1.72
-1.94
-2.11
-2.28
-2.44
-2.54
-2.47
-2.14
-1.56
-0.86
-0.22
0.19
0.35
0.37
0.40
0.55
0.84
1.16
1.42
1.58
1.66
1.74
1.84
1.93
1.93
1.80
1.53
1.19
0.85
0.54
0.26
-0.03
-0.33
-0.61
-0.84
-1.01
-1.13
-1.26
-1.45
-1.69
-1.96
-2.20
-2.36
-2.41
-2.34
-2.15
-1.89
-1.59
-1.27
-0.95
-0.62
-0.25
0.15
0.54
0.82
0.88
0.67
0.27
-0.18
-0.48
-0.55
-0.38
-0.12
0.08
0.09
-0.10
-0.44
-0.82
-1.17
-1.44
-1.61
-1.60
-1.31
-0.66
0.38
1.65
2.90
3.83
4.25
4.15
3.70
3.16
2.76
2.61
2.65
2.75
2.75
2.60
2.34
2.05
1.81
1.64
1.49
1.30
1.03
0.72
0.41
0.22
0.20
0.36
0.62
0.86
0.93
0.78
0.41
-0.10
-0.62
-1.06
-1.36
-1.50
-1.48
-1.33
-1.13
-0.98
-1.01
-1.26
-1.70
-2.17
-2.47
-2.45
-2.09
-1.51
-0.83
-0.20
0.33
0.73
0.99
1.12
1.09
0.93
0.71
0.52
0.42
0.45
0.58
0.77
0.91
0.91
0.70
0.26
-0.35
-1.00
-1.52
-1.79
-1.75
-1.49
-1.15
-0.92
-0.90
-1.11
-1.48
-1.91
-2.25
-2.43
-2.36
-2.04
-1.49
-0.78
-0.07
0.48
0.75
0.72
0.51
0.28
0.20
0.36
0.72
1.17
1.58
1.86
1.98
1.98
1.89
1.75
1.55
1.28
0.95
0.61
0.32
0.14
0.08
0.14
0.23
0.29
0.25
0.14
-0.02
-0.20
-0.39
-0.61
-0.89
-1.19
-1.44
-1.50
-1.29
-0.78
-0.04
0.80
1.57
2.12
2.38
2.38
2.20
1.98
1.83
1.82
1.96
2.22
2.54
2.92
3.34
3.79
4.21
4.43
4.29
3.63
2.47
0.99
-0.54
-1.81
-2.61
-2.92
-2.84
-2.53
-2.15
-1.80
-1.54
-1.39
-1.35
-1.37
-1.38
-1.31
-1.10
-0.79
-0.46
-0.23
-0.14
-0.21
-0.39
-0.62
-0.87
-1.17
-1.52
-1.90
-2.20
-2.38
-2.42
-2.44
-2.54
-2.82
-3.28
-3.86
-4.46
-4.98
-5.38
-5.70
-6.03
-6.45
-6.95
-7.50
-8.00
-8.30
-8.21
-7.69
-6.84
-5.89
-5.01
-4.26
-3.55
-2.66
-1.34
0.73
3.45
6.37
8.91
10.62
11.42
11.51
11.25
10.97
11.24
11.99
12.85
13.47
13.78
13.99
14.31
14.68
14.85
15.22
15.86
16.81
18.08
19.32
19.53
16.86
8.97
-6.01
-26.82
-50.19
-72.18
-90.30
-103.72
-111.80
-112.93
-104.62
-87.81
-60.61
-24.35
16.38
55.51
87.97
111.42
126.48
135.88
140.06
140.46
137.16
129.63
117.75
102.55
85.86
69.36
53.51
37.37
19.95
0.00
-22.73
-47.08
-70.89
-92.05
-109.68
-124.09
-136.16
-145.86
-152.77
-156.26
-156.35
-154.15
-151.44
-149.43
-147.38
-142.30
-129.94
-107.54
-75.67
-38.64
-3.01
25.07
42.07
48.13
46.21
40.75
35.87
34.68
39.06
49.74
66.01
85.67
105.02
119.55
125.32
120.34
105.07
82.09
55.21
28.18
4.10
-14.65
-25.98
-27.99
-19.51
-1.05
24.54
52.32
76.45
92.16
97.25
92.62
81.51
67.95
55.32
45.39
38.24
32.80
27.85
22.65
17.06
11.40
5.91
0.67
-4.33
-8.92
-12.80
-15.35
-16.00
-14.58
-11.53
-7.75
-4.21
-1.88
-1.78
-5.39
-13.46
-25.01
-37.16
-46.03
-48.32
-42.76
-30.88
-16.14
-3.15
5.79
11.92
18.70
29.12
43.66
60.34
75.89
88.02
94.92
97.21
97.38
97.29
96.11
90.49
76.69
51.89
15.36
-34.14
-95.44
-163.72
-230.78
-286.79
-322.52
-331.32
-311.61
-254.04
-163.80
-60.23
33.27
101.32
139.11
147.74
134.37
105.24
68.18
30.85
1.38
-13.92
-13.35
1.28
23.14
44.18
58.35
63.99
61.31
53.44
44.93
38.43
32.97
25.43
14.08
-0.10
-13.64
-23.94
-29.75
-31.47
-30.70
-29.23
-28.09
-26.78
-24.22
-19.51
-13.49
-7.84
-4.03
-2.67
-3.39
-5.01
-5.98
-5.23
-2.50
1.42
5.27
7.93
8.92
8.52
7.53
7.02
7.72
9.77
12.72
15.76
18.08
19.23
19.22
18.44
17.38
15.96
14.20
11.74
8.04
2.68
-4.08
-11.61
-18.86
-24.75
-28.58
-30.34
-30.36
-29.33
-27.99
-26.34
-24.06
-20.55
-15.34
-7.58
0.85
8.07
12.30
11.60
6.60
-1.34
-10.31
-18.66
-25.57
-31.58
-37.86
-44.20
-52.04
-61.44
-71.92
-82.56
-91.85
-97.48
-96.64
-86.59
-66.29
-37.74
-5.22
25.70
50.44
67.01
76.09
79.63
79.60
76.64
70.50
61.58
51.49
43.12
39.48
42.48
51.44
62.83
70.96
69.27
52.99
20.98
-22.98
-70.52
-110.87
-134.47
-136.40
-118.11
-86.69
-51.64
-21.31
-0.16
11.66
16.84
18.57
18.52
16.90
13.34
8.24
3.21
0.91
3.13
9.91
19.25
27.98
33.36
34.17
31.36
27.38
24.95
25.70
29.59
34.97
39.48
41.21
39.58
35.60
31.31
28.91
29.62
33.30
38.54
43.36
46.17
46.36
44.55
42.14
40.72
41.48
45.05
51.34
59.35
67.02
71.30
68.98
57.95
38.50
13.84
-10.80
-30.01
-40.33
-41.55
-36.35
-28.82
-22.51
-19.26
-19.07
-20.90
-23.52
-26.00
-27.76
-28.25
-26.95
-23.53
-18.13
-11.44
-4.66
1.00
4.74
6.38
6.27
5.00
3.10
0.81
-1.55
-3.95
-6.50
-9.21
-12.05
-14.86
-17.49
-19.86
-22.06
-24.53
-28.03
-33.29
-40.59
-49.44
-58.58
-66.48
-72.15
-75.71
-78.49
-82.45
-89.17
-99.01
-110.78
-122.29
-131.20
-135.94
-136.04
-132.07
-125.09
-116.23
-106.37
-96.22
-86.33
-77.13
-68.82
-61.21
-53.82
-46.03
-37.40
-27.88
-17.93
-8.35
-0.07
6.20
10.11
11.82
12.00
11.72
12.24
14.58
19.19
25.66
32.72
38.70
42.18
42.54
40.24
36.69
33.66
32.60
34.11
37.81
42.65
47.39
51.15
53.59
54.80
55.03
54.40
52.78
50.01
46.09
41.35
36.51
32.35
29.55
28.36
28.55
29.44
30.11
29.62
27.30
23.05
17.52
12.01
8.16
7.34
10.03
15.42
21.42
25.37
24.91
19.00
8.41
-4.44
-16.30
-24.14
-26.14
-22.16
-13.50
-2.38
8.90
18.41
24.88
27.63
26.58
22.10
15.17
7.28
0.23
-4.29
-5.23
-2.58
2.70
8.97
14.51
18.07
19.12
17.81
14.87
11.37
8.62
7.94
10.36
16.19
24.76
34.55
43.65
50.61
54.92
57.25
58.90
61.11
64.44
68.60
72.79
76.20
78.45
79.73
80.56
81.49
82.86
84.70
86.82
88.82
90.19
90.25
88.20
83.24
74.83
63.03
48.74
33.75
20.26
10.18
4.37
2.25
2.10
1.87
0.17
-3.09
-6.82
-9.48
-10.13
-9.01
-7.40
-6.94
-8.62
-12.33
-17.02
-21.46
-25.01
-27.93
-31.10
-35.40
-41.04
-47.32
-52.99
-56.91
-58.60
-58.44
-57.29
-56.07
-55.23
-54.68
-54.00
-52.74
-50.73
-48.11
-45.25
-42.56
-40.33
-38.66
-37.50
-36.65
-35.96
-35.38
-35.01
-35.09
-35.79
-37.09
-38.66
-39.96
-40.45
-39.78
-38.03
-35.66
-33.34
-31.68
-30.99
-31.14
-31.69
-32.07
-31.90
-31.14
-30.07
-29.04
-28.22
-27.45
-26.36
-24.63
-22.21
-19.37
-16.50
-13.84
-11.35
-8.72
-5.72
-2.37
0.98
3.77
5.50
5.83
4.67
2.15
-1.34
-5.03
-7.77
-8.26
-5.43
1.02
10.37
21.14
31.61
40.57
47.65
53.22
57.93
62.13
65.56
67.52
67.30
64.65
59.96
54.11
48.05
42.46
37.54
33.07
28.68
24.16
19.61
15.48
12.38
10.88
11.14
12.83
15.08
16.77
16.84
14.76
10.68
5.44
0.23
-3.82
-6.01
-6.21
-4.74
-2.22
0.65
3.26
5.20
6.27
6.52
6.19
5.59
5.01
4.63
4.49
4.53
4.60
4.52
4.02
2.87
0.97
-1.53
-4.23
-6.60
-8.17
-8.72
-8.36
-7.41
-6.31
-5.48
-5.20
-5.64
-6.78
-8.39
-10.06
-11.22
-11.34
-10.11
-7.62
-4.32
-0.97
1.69
3.12
3.20
2.21
0.70
-0.81
-1.99
-2.84
-3.58
-4.44
-5.47
-6.46
-6.98
-6.64
-5.24
-2.99
-0.46
1.61
2.52
1.97
0.12
-2.41
-4.82
-6.37
-6.61
-5.42
-2.96
0.40
4.17
7.94
11.49
14.93
18.75
23.60
29.98
37.93
46.87
55.67
63.10
68.24
70.79
71.12
70.05
68.39
66.68
64.86
62.43
58.58
52.51
43.79
32.53
19.36
5.27
-8.62
-21.27
-31.82
-39.60
-44.10
-45.00
-42.37
-36.78
-29.40
-21.77
-15.48
-11.62
-10.48
-11.43
-13.21
-14.42
-14.01
-11.71
-8.12
-4.55
-2.64
-3.76
-8.58
-16.76
-27.06
-37.70
-46.90
-53.37
-56.52
-56.42
-53.55
-48.55
-42.04
-34.65
-27.05
-19.97
-14.12
-10.07
-8.04
-7.79
-8.65
-9.71
-10.05
-9.16
-7.01
-4.11
-1.21
0.97
2.05
2.03
1.29
0.41
-0.04
0.37
1.83
4.23
7.20
10.14
12.50
13.84
14.03
13.23
11.81
10.21
8.76
7.61
6.76
6.12
5.64
5.35
5.35
5.72
6.38
7.06
7.36
7.01
6.01
4.67
3.51
2.89
2.84
3.02
2.88
2.04
0.43
-1.59
-3.46
-4.64
-4.79
-3.85
-2.03
0.27
2.53
4.20
4.77
3.84
1.36
-2.42
-6.93
-11.45
-15.31
-18.07
-19.60
-20.03
-19.62
-18.66
-17.31
-15.62
-13.57
-11.15
-8.42
-5.52
-2.65
-0.04
2.11
3.62
4.36
4.30
3.51
2.17
0.56
-1.03
-2.27
-2.85
-2.54
-1.32
0.64
2.92
5.00
6.47
7.17
7.32
7.27
7.38
7.74
8.16
8.24
7.70
6.51
4.99
3.63
2.88
2.84
3.26
3.66
3.54
2.66
1.16
-0.52
-1.88
-2.54
-2.45
-1.86
-1.25
-1.10
-1.73
-3.18
-5.27
-7.54
-9.44
-10.42
-10.16
-8.74
-6.58
-4.31
-2.48
-1.32
-0.78
-0.60
-0.59
-0.72
-1.10
-1.81
-2.71
-3.51
-3.85
-3.59
-2.86
-2.00
-1.38
-1.20
-1.44
-1.98
-2.73
-3.64
-4.67
-5.68
-6.38
-6.44
-5.68
-4.26
-2.67
-1.57
-1.52
-2.65
-4.61
-6.72
-8.30
-8.99
-8.89
-8.43
-8.13
-8.29
-8.85
-9.45
-9.73
-9.52
-8.99
-8.51
-8.48
-9.00
-9.85
-10.56
-10.69
-9.98
-8.51
-6.59
-4.60
-2.88
-1.60
-0.81
-0.45
-0.37
-0.40
-0.35
-0.08
0.46
1.19
1.93
2.53
2.88
3.04
3.22
3.65
4.59
6.16
8.34
10.93
13.55
15.77
17.17
17.51
16.77
15.18
13.13
11.02
9.21
7.87
7.05
6.73
6.84
7.34
8.13
9.04
9.79
10.07
9.64
8.44
6.66
4.68
2.89
1.58
0.80
0.34
-0.12
-0.88
-2.08
-3.63
-5.20
-6.38
-6.77
-6.23
-4.90
-3.23
-1.76
-0.94
-0.94
-1.60
-2.50
-3.24
-3.55
-3.42
-3.06
-2.79
-2.78
-3.05
-3.39
-3.50
-3.17
-2.39
-1.41
-0.62
-0.37
-0.75
-1.54
-2.36
-2.82
-2.78
-2.38
-1.99
-1.88
-2.18
-2.71
-3.18
-3.33
-2.99
-2.13
-0.84
0.75
2.43
4.00
5.25
6.09
6.59
6.90
7.24
7.66
8.00
7.93
7.17
5.62
3.56
1.50
0.02
-0.55
-0.27
0.37
0.77
0.43
-0.71
-2.30
-3.75
-4.56
-4.51
-3.78
-2.78
-1.90
-1.42
-1.32
-1.46
-1.62
-1.64
-1.42
-0.95
-0.29
0.45
1.13
1.62
1.87
1.95
1.97
2.05
2.24
2.53
2.79
2.92
2.85
2.60
2.23
1.83
1.44
1.03
0.55
-0.08
-0.87
-1.72
-2.49
-3.02
-3.24
-3.28
-3.39
-3.82
-4.67
-5.71
-6.47
-6.37
-4.97
-2.16
1.74
6.06
10.02
12.95
14.47
14.55
13.40
11.42
8.99
6.49
4.17
2.18
0.55
-0.80
-1.99
-3.09
-4.08
-4.83
-5.19
-5.07
-4.57
-3.89
-3.38
-3.31
-3.82
-4.84
-6.14
-7.39
-8.32
-8.82
-8.96
-9.02
-9.31
-10.07
-11.27
-12.64
-13.70
-14.05
-13.45
-12.00
-10.00
-7.80
-5.65
-3.60
-1.62
0.27
1.99
3.35
4.26
4.76
5.05
5.33
5.69
6.10
6.41
6.54
6.53
6.50
6.50
6.52
6.41
6.08
5.55
4.98
4.52
4.22
3.99
3.67
3.14
2.45
1.80
1.42
1.49
2.06
3.02
4.23
5.49
6.63
7.52
8.09
8.35
8.33
8.09
7.67
7.07
6.31
5.39
4.38
3.35
2.37
1.46
0.68
0.09
-0.25
-0.38
-0.41
-0.56
-0.97
-1.64
-2.37
-2.86
-2.90
-2.51
-1.92
-1.48
-1.45
-1.84
-2.46
-3.05
-3.38
-3.44
-3.33
-3.21
-3.18
-3.22
-3.22
-3.11
-2.84
-2.49
-2.19
-2.05
-2.14
-2.49
-3.06
-3.81
-4.62
-5.36
-5.86
-6.01
-5.85
-5.58
-5.55
-6.02
-7.06
-8.47
-9.88
-10.91
-11.42
-11.49
-11.38
-11.39
-11.71
-12.37
-13.29
-14.33
-15.32
-16.09
-16.48
-16.38
-15.73
-14.58
-13.06
-11.32
-9.57
-8.00
-6.78
-6.05
-5.82
-5.89
-5.87
-5.22
-3.44
-0.20
4.55
10.54
17.25
23.98
30.01
34.75
37.83
39.25
39.33
38.52
37.21
35.56
33.43
30.52
26.65
21.89
16.65
11.54
7.15
3.85
1.69
0.49
-0.05
-0.22
-0.17
-0.01
0.17
0.25
0.07
-0.46
-1.35
-2.48
-3.69
-4.79
-5.66
-6.23
-6.47
-6.40
-6.10
-5.66
-5.26
-5.06
-5.21
-5.74
-6.59
-7.59
-8.52
-9.21
-9.57
-9.66
-9.63
-9.66
-9.84
-10.13
-10.37
-10.34
-9.90
-9.06
-7.93
-6.73
-5.64
-4.81
-4.32
-4.18
-4.40
-4.89
-5.49
-5.97
-6.10
-5.74
-4.92
-3.86
-2.78
-1.84
-0.99
-0.04
1.22
2.82
4.58
6.13
7.15
7.53
7.38
6.98
6.53
6.12
5.67
5.11
4.39
3.58
2.77
2.05
1.52
1.26
1.37
1.92
2.86
3.98
4.98
5.57
5.62
5.19
4.50
3.81
3.28
3.00
2.91
2.94
3.03
3.09
3.09
3.02
2.90
2.82
2.84
2.95
3.04
2.98
2.72
2.37
2.14
2.20
2.52
2.86
2.84
2.17
0.87
-0.73
-2.15
-2.98
-3.10
-2.76
-2.35
-2.25
-2.61
-3.36
-4.29
-5.24
-6.13
-6.97
-7.84
-8.77
-9.71
-10.54
-11.14
-11.44
-11.42
-11.13
-10.63
-9.93
-9.07
-8.13
-7.24
-6.60
-6.33
-6.42
-6.68
-6.84
-6.69
-6.18
-5.49
-4.89
-4.56
-4.52
-4.53
-4.31
-3.61
-2.40
-0.84
0.80
2.25
3.37
4.14
4.69
5.21
5.85
6.65
7.49
8.15
8.41
8.20
7.64
7.00
6.54
6.42
6.56
6.74
6.69
6.28
5.54
4.68
3.91
3.35
2.93
2.43
1.64
0.47
-0.99
-2.50
-3.83
-4.88
-5.67
-6.29
-6.80
-7.10
-7.04
-6.53
-5.64
-4.61
-3.70
-3.05
-2.57
-2.03
-1.25
-0.23
0.79
1.52
1.75
1.53
1.11
0.81
0.84
1.18
1.64
2.01
2.20
2.24
2.33
2.61
3.09
3.60
3.91
3.83
3.32
2.50
1.59
0.75
0.10
-0.33
-0.50
-0.41
-0.02
0.66
1.49
2.27
2.78
2.90
2.70
2.39
2.23
2.37
2.78
3.29
3.63
3.58
3.05
2.12
0.99
-0.10
-0.96
-1.52
-1.84
-2.04
-2.25
-2.53
-2.83
-3.04
-3.09
-3.01
-2.95
-3.13
-3.73
-4.78
-6.14
-7.53
-8.67
-9.30
-9.35
-8.89
-8.09
-7.16
-6.34
-5.76
-5.49
-5.46
-5.47
-5.18
-4.18
-2.10
1.20
5.60
10.71
15.98
20.84
24.90
27.96
30.05
31.31
31.93
32.10
31.98
31.67
31.27
30.90
30.72
30.89
31.59
32.90
34.79
37.19
39.91
42.68
45.19
47.13
48.27
48.61
48.45
48.40
49.17
51.26
54.76
59.12
63.34
66.24
66.89
64.95
60.78
55.31
49.71
44.90
41.29
38.61
36.03
32.39
26.49
17.33
4.40
-12.09
-31.20
-51.28
-70.40
-86.69
-98.82
-106.14
-108.78
-107.41
-103.18
-97.74
-93.17
-92.14
-97.49
-111.75
-136.12
-169.80
-209.74
-251.03
-288.13
-316.21
-332.15
-334.82
-324.73
-303.26
-272.05
-232.87
-187.78
-139.50
-91.25
-46.54
-8.41
21.15
41.67
54.21
61.05
65.11
69.18
75.15
83.59
93.79
104.36
113.77
121.20
126.55
130.35
133.18
135.48
137.44
139.16
140.99
143.43
147.02
151.87
157.44
162.46
165.26
164.14
157.91
146.08
128.98
107.86
84.67
61.83
41.78
26.41
16.57
11.92
10.98
11.62
11.74
9.86
5.37
-1.40
-9.55
-17.95
-25.62
-32.26
-38.31
-44.67
-52.08
-60.44
-68.57
-74.56
-76.49
-73.19
-65.16
-54.47
-43.91
-35.90
-31.53
-30.67
-32.36
-35.31
-37.86
-38.92
-37.83
-34.31
-28.33
-19.96
-9.77
1.26
12.26
23.48
34.97
46.65
58.20
69.22
79.64
89.03
96.59
101.53
104.15
104.15
101.03
94.25
83.50
69.15
51.23
29.25
-1.66
-41.34
-85.26
-127.07
-163.44
-196.99
-229.50
-258.78
-279.90
-287.67
-273.51
-235.86
-179.43
-113.02
-45.89
15.60
68.32
111.51
145.61
171.94
190.78
202.38
207.50
207.68
205.17
201.65
197.89
194.15
190.95
188.09
185.19
181.86
177.97
174.01
170.58
167.89
165.49
162.39
156.42
145.00
125.56
96.20
56.33
6.93
-49.23
-107.73
-163.22
-210.94
-247.83
-273.05
-287.54
-292.86
-290.05
-279.20
-259.84
-232.00
-197.35
-159.32
-122.39
-90.78
-67.05
-51.51
-42.43
-37.04
-32.59
-27.29
-20.65
-13.44
-7.02
-2.72
-1.32
-2.81
-6.58
-11.73
-17.37
-22.79
-27.56
-31.40
-34.16
-35.79
-36.33
-35.88
-34.61
-32.71
-30.34
-27.59
-24.44
-20.88
-16.92
-12.89
-9.42
-7.38
-7.52
-9.97
-13.98
-17.98
-20.21
-19.46
-15.65
-9.79
-3.46
1.94
5.68
7.74
8.47
8.18
7.07
5.41
4.00
4.38
8.45
17.73
32.36
50.70
69.50
84.98
94.14
95.89
91.34
83.21
74.71
68.32
65.09
64.73
66.13
68.14
70.07
71.70
73.01
73.95
74.21
73.36
71.12
67.51
62.93
57.94
52.97
48.09
43.11
37.67
31.57
24.95
18.25
12.07
6.92
3.04
0.35
-1.41
-2.64
-3.67
-4.70
-5.84
-7.06
-8.27
-9.34
-10.15
-10.59
-10.60
-10.15
-9.26
-8.01
-6.46
-4.72
-2.90
-1.15
0.37
1.56
2.38
2.87
3.16
3.33
3.39
3.25
2.71
1.66
0.07
-1.94
-4.13
-6.27
-8.16
-9.70
-10.81
-11.45
-11.64
-11.46
-11.08
-10.71
-10.60
-10.91
-11.68
-12.82
-14.15
-15.47
-16.62
-17.48
-18.00
-18.12
-17.82
-17.09
-15.97
-14.60
-13.14
-11.78
-10.62
-9.64
-8.77
-7.90
-6.98
-6.06
-5.23
-4.50
-3.83
-3.05
-2.00
-0.60
1.03
2.62
3.85
4.44
4.29
3.52
2.33
0.99
-0.28
-1.37
-2.22
-2.82
-3.20
-3.39
-3.44
-3.42
-3.36
-3.30
-3.26
-3.28
-3.42
-3.77
-4.41
-5.35
-6.51
-7.76
-8.94
-9.90
-10.56
-10.85
-10.73
-10.21
-9.37
-8.31
-7.18
-6.12
-5.20
-4.39
-3.65
-2.93
-2.25
-1.70
-1.36
-1.29
-1.43
-1.63
-1.70
-1.49
-0.93
-0.10
0.86
1.78
2.52
3.02
3.33
3.53
3.75
4.01
4.26
4.35
4.12
3.51
2.59
1.53
0.57
-0.12
-0.48
-0.57
-0.52
-0.45
-0.44
-0.53
-0.69
-0.85
-0.93
-0.75
-0.16
0.93
2.47
4.26
5.95
7.19
7.79
7.74
7.23
6.54
5.91
5.43
5.06
4.66
4.10
3.33
2.39
1.44
0.61
-0.02
-0.44
-0.71
-0.95
-1.21
-1.54
-1.87
-2.14
-2.22
-2.05
-1.58
-0.91
-0.15
0.54
1.05
1.36
1.54
1.69
1.87
2.07
2.21
2.23
2.10
1.92
1.80
1.83
2.02
2.30
2.56
2.68
2.60
2.25
1.65
0.83
-0.12
-1.08
-1.94
-2.61
-3.06
-3.33
-3.46
-3.46
-3.32
-3.02
-2.55
-1.91
-1.13
-0.20
0.87
2.06
3.29
4.40
5.23
5.69
5.79
5.65
5.41
5.16
4.87
4.44
3.78
2.88
1.80
0.68
-0.35
-1.23
-1.94
-2.54
-3.13
-3.77
-4.51
-5.32
-6.13
-6.79
-7.19
-7.21
-6.84
-6.07
-5.00
-3.72
-2.36
-1.05
0.09
0.93
1.44
1.61
1.53
1.32
1.08
0.90
0.80
0.75
0.73
0.76
0.88
1.14
1.58
2.20
2.96
3.82
4.72
5.61
6.40
6.91
6.95
6.37
5.20
3.67
2.15
1.05
0.61
0.84
1.52
2.32
2.92
3.12
2.87
2.23
1.35
0.41
-0.37
-0.78
-0.66
0.06
1.26
2.71
4.06
5.04
5.46
5.34
4.84
4.23
3.80
3.74
4.15
4.91
5.82
6.64
7.25
7.70
8.23
9.18
10.80
13.11
15.88
18.69
21.16
23.07
24.45
25.57
26.77
28.41
30.72
33.75
37.19
40.39
42.22
41.39
36.74
27.83
15.23
0.58
-13.91
-26.16
-34.82
-39.58
-41.00
-40.04
-37.59
-34.21
-30.15
-25.66
-21.02
-16.62
-12.74
-9.42
-6.44
-3.46
-0.33
2.81
5.56
7.41
7.97
7.03
4.54
0.43
-5.48
-13.39
-23.36
-35.11
-47.95
-60.79
-72.43
-81.73
-87.87
-90.47
-89.69
-86.15
-80.82
-74.73
-68.55
-62.37
-55.57
-47.14
-36.27
-22.86
-7.80
7.29
20.61
30.90
37.82
41.91
44.25
45.86
47.44
49.14
50.74
51.80
51.87
50.60
47.81
43.58
38.26
32.32
26.27
20.49
15.11
10.14
5.54
1.37
-2.21
-5.03
-6.99
-8.11
-8.51
-8.35
-7.72
-6.63
-5.10
-3.27
-1.42
0.02
0.61
0.13
-1.35
-3.41
-5.41
-6.78
-7.18
-6.66
-5.64
-4.66
-4.22
-4.61
-5.80
-7.57
-9.57
-11.40
-12.72
-13.28
-12.90
-11.56
-9.36
-6.55
-3.47
-0.49
2.07
4.03
5.35
6.05
6.23
6.00
5.45
4.63
3.65
2.54
1.39
0.29
-0.65
-1.31
-1.57
-1.43
-1.03
-0.61
-0.43
-0.65
-1.28
-2.16
-3.05
-3.80
-4.32
-4.61
-4.69
-4.54
-4.11
-3.37
-2.37
-1.24
-0.20
0.57
0.96
0.97
0.70
0.31
-0.10
-0.46
-0.81
-1.29
-2.02
-3.07
-4.38
-5.80
-7.04
-7.84
-8.03
-7.56
-6.52
-5.04
-3.27
-1.36
0.58
2.42
4.02
5.25
6.06
6.48
6.58
6.47
6.26
6.02
5.83
5.74
5.78
5.93
6.07
6.07
5.79
5.22
4.48
3.73
3.18
2.91
2.90
3.01
3.07
2.94
2.54
1.92
1.19
0.55
0.12
0.02
0.25
0.73
1.37
2.06
2.73
3.35
3.89
4.32
4.58
4.62
4.47
4.18
3.88
3.66
3.56
3.49
3.33
2.99
2.48
1.93
1.49
1.27
1.20
1.12
0.84
0.25
-0.63
-1.66
-2.71
-3.68
-4.53
-5.24
-5.75
-5.99
-5.89
-5.41
-4.63
-3.64
-2.58
-1.59
-0.74
-0.09
0.36
0.59
0.66
0.60
0.45
0.26
0.08
-0.02
0.02
0.22
0.58
1.05
1.55
2.00
2.33
2.51
2.47
2.19
1.66
0.92
0.06
-0.78
-1.50
-2.00
-2.24
-2.23
-2.01
-1.58
-0.97
-0.17
0.78
1.82
2.87
3.85
4.71
5.44
6.03
6.48
6.78
6.89
6.81
6.55
6.18
5.76
5.34
4.96
4.63
4.34
4.06
3.74
3.31
2.75
2.06
1.33
0.65
0.08
-0.37
-0.81
-1.33
-1.98
-2.71
-3.39
-3.83
-3.90
-3.54
-2.81
-1.80
-0.68
0.40
1.32
2.01
2.43
2.62
2.65
2.60
2.58
2.64
2.78
2.95
3.05
3.00
2.76
2.36
1.89
1.42
0.99
0.62
0.29
-0.02
-0.31
-0.59
-0.91
-1.32
-1.88
-2.57
-3.35
-4.15
-4.85
-5.38
-5.66
-5.64
-5.31
-4.71
-3.92
-3.03
-2.15
-1.31
-0.55
0.10
0.59
0.81
0.72
0.33
-0.19
-0.66
-0.90
-0.83
-0.52
-0.14
0.15
0.23
0.09
-0.20
-0.57
-0.95
-1.31
-1.68
-2.06
-2.47
-2.91
-3.34
-3.72
-4.00
-4.12
-4.03
-3.69
-3.08
-2.25
-1.28
-0.27
0.67
1.44
2.02
2.40
2.65
2.81
2.91
2.99
3.01
2.94
2.73
2.42
2.08
1.84
1.79
1.93
2.13
2.18
1.94
1.37
0.59
-0.17
-0.72
-1.02
-1.14
-1.23
-1.42
-1.70
-1.93
-1.94
-1.61
-0.88
0.16
1.33
2.44
3.32
3.83
3.88
3.40
2.35
0.73
-1.36
-3.73
-6.14
-8.28
-9.93
-10.90
-11.16
-10.77
-9.86
-8.59
-7.10
-5.54
-4.02
-2.60
-1.29
-0.12
0.88
1.62
2.00
1.99
1.69
1.27
0.99
1.02
1.39
2.05
2.84
3.66
4.44
5.18
5.84
6.35
6.63
6.62
6.34
5.88
5.34
4.85
4.42
4.10
3.86
3.69
3.58
3.49
3.35
3.09
2.71
2.22
1.69
1.20
0.75
0.32
-0.14
-0.67
-1.27
-1.87
-2.40
-2.79
-2.98
-2.95
-2.64
-2.05
-1.16
-0.03
1.27
2.61
3.86
4.89
5.57
5.86
5.74
5.30
4.72
4.18
3.85
3.77
3.88
4.07
4.18
4.16
4.01
3.79
3.56
3.33
3.08
2.77
2.38
1.93
1.45
0.94
0.37
-0.36
-1.33
-2.48
-3.63
-4.50
-4.82
-4.48
-3.58
-2.37
-1.15
-0.14
0.56
0.96
1.13
1.08
0.84
0.44
-0.02
-0.43
-0.67
-0.69
-0.54
-0.34
-0.25
-0.42
-0.88
-1.60
-2.41
-3.14
-3.63
-3.83
-3.78
-3.65
-3.63
-3.88
-4.41
-5.16
-5.94
-6.54
-6.76
-6.52
-5.82
-4.78
-3.55
-2.27
-1.06
-0.00
0.84
1.40
1.64
1.56
1.27
0.92
0.69
0.66
0.81
1.03
1.22
1.30
1.30
1.25
1.17
1.05
0.86
0.56
0.17
-0.29
-0.80
-1.38
-2.04
-2.80
-3.57
-4.25
-4.68
-4.74
-4.38
-3.65
-2.69
-1.68
-0.76
-0.00
0.60
1.12
1.61
2.09
2.51
2.82
2.98
3.03
3.05
3.07
3.08
3.01
2.77
2.33
1.73
1.07
0.48
0.06
-0.15
-0.14
0.04
0.27
0.42
0.37
0.06
-0.45
-1.06
-1.63
-2.08
-2.35
-2.43
-2.28
-1.86
-1.16
-0.22
0.82
1.79
2.50
2.85
2.86
2.65
2.36
2.14
2.01
1.95
1.86
1.71
1.48
1.24
1.07
1.01
1.01
0.93
0.62
0.05
-0.73
-1.54
-2.20
-2.65
-2.95
-3.23
-3.62
-4.12
-4.60
-4.89
-4.80
-4.29
-3.42
-2.35
-1.26
-0.28
0.52
1.14
1.62
2.01
2.31
2.51
2.58
2.49
2.25
1.94
1.63
1.37
1.19
1.04
0.88
0.68
0.46
0.25
0.10
0.02
0.01
0.04
0.03
-0.09
-0.43
-1.03
-1.87
-2.80
-3.57
-3.94
-3.77
-3.09
-2.07
-0.91
0.20
1.18
2.06
2.88
3.61
4.17
4.47
4.46
4.17
3.74
3.34
3.06
2.95
2.95
2.98
2.96
2.86
2.69
2.47
2.19
1.89
1.59
1.32
1.10
0.89
0.59
0.12
-0.58
-1.48
-2.43
-3.27
-3.82
-3.97
-3.66
-2.96
-1.97
-0.86
0.18
0.98
1.48
1.67
1.63
1.49
1.34
1.22
1.14
1.09
1.06
1.01
0.91
0.72
0.44
0.11
-0.19
-0.41
-0.53
-0.60
-0.69
-0.83
-1.02
-1.18
-1.26
-1.29
-1.40
-1.72
-2.37
-3.29
-4.26
-5.00
-5.31
-5.09
-4.48
-3.68
-2.92
-2.28
-1.80
-1.39
-1.01
-0.67
-0.41
-0.25
-0.18
-0.15
-0.06
0.11
0.32
0.50
0.55
0.42
0.15
-0.19
-0.51
-0.74
-0.88
-0.97
-1.11
-1.36
-1.75
-2.28
-2.87
-3.42
-3.82
-3.97
-3.75
-3.11
-2.03
-0.59
1.07
2.72
4.18
5.34
6.23
6.97
7.71
8.58
9.58
10.62
11.54
12.17
12.36
12.04
11.20
9.87
8.19
6.30
4.36
2.53
0.86
-0.61
-1.89
-3.00
-3.99
-4.94
-5.94
-7.05
-8.23
-9.39
-10.34
-10.90
-10.95
-10.48
-9.55
-8.28
-6.81
-5.28
-3.83
-2.57
-1.57
-0.86
-0.38
-0.09
0.08
0.16
0.19
0.23
0.32
0.50
0.73
0.93
1.00
0.88
0.59
0.24
-0.10
-0.37
-0.55
-0.72
-0.94
-1.25
-1.70
-2.31
-3.09
-3.95
-4.78
-5.35
-5.46
-4.96
-3.91
-2.46
-0.90
0.52
1.64
2.38
2.77
2.90
2.88
2.82
2.81
2.88
3.00
3.12
3.12
2.98
2.69
2.32
1.95
1.59
1.25
0.90
0.58
0.33
0.23
0.26
0.32
0.21
-0.27
-1.17
-2.41
-3.69
-4.69
-5.15
-4.97
-4.23
-3.12
-1.85
-0.60
0.51
1.40
2.04
2.41
2.58
2.67
2.79
3.01
3.31
3.60
3.75
3.65
3.32
2.82
2.27
1.76
1.35
1.08
0.91
0.84
0.81
0.75
0.59
0.29
-0.17
-0.77
-1.46
-2.21
-2.94
-3.61
-4.11
-4.35
-4.25
-3.81
-3.09
-2.23
-1.34
-0.51
0.24
0.92
1.51
1.93
2.07
1.84
1.25
0.46
-0.30
-0.79
-0.86
-0.46
0.32
1.34
2.42
3.41
4.18
4.63
4.70
4.44
3.95
3.34
2.74
2.18
1.61
0.94
0.13
-0.79
-1.68
-2.37
-2.67
-2.51
-1.88
-0.92
0.16
1.14
1.82
2.12
2.09
1.87
1.62
1.42
1.30
1.22
1.11
0.94
0.72
0.47
0.19
-0.17
-0.64
-1.24
-1.89
-2.48
-2.89
-3.06
-3.00
-2.81
-2.62
-2.53
-2.63
-2.96
-3.50
-4.18
-4.87
-5.33
-5.35
-4.79
-3.68
-2.22
-0.74
0.46
1.20
1.53
1.64
1.77
2.06
2.48
2.90
3.12
3.04
2.73
2.35
2.08
2.00
2.03
2.00
1.75
1.23
0.54
-0.13
-0.61
-0.84
-0.88
-0.90
-1.09
-1.53
-2.22
-3.05
-3.83
-4.39
-4.61
-4.45
-3.92
-3.09
-2.04
-0.88
0.31
1.41
2.32
2.98
3.36
3.48
3.41
3.23
3.02
2.85
2.76
2.74
2.78
2.84
2.88
2.84
2.70
2.39
1.94
1.39
0.83
0.37
0.06
-0.13
-0.29
-0.56
-1.04
-1.75
-2.60
-3.46
-4.12
-4.44
-4.31
-3.70
-2.67
-1.32
0.20
1.72
3.09
4.16
4.85
5.11
5.00
4.65
4.22
3.87
3.68
3.65
3.69
3.68
3.51
3.15
2.60
1.91
1.16
0.41
-0.25
-0.72
-0.97
-1.01
-0.93
-0.89
-1.01
-1.39
-2.05
-2.91
-3.79
-4.47
-4.75
-4.51
-3.73
-2.52
-1.09
0.31
1.49
2.31
2.75
2.86
2.72
2.45
2.12
1.81
1.57
1.43
1.37
1.34
1.27
1.09
0.76
0.32
-0.17
-0.63
-0.99
-1.27
-1.51
-1.76
-2.06
-2.41
-2.80
-3.25
-3.77
-4.40
-5.10
-5.75
-6.19
-6.23
-5.78
-4.88
-3.70
-2.43
-1.27
-0.33
0.37
0.86
1.20
1.44
1.60
1.70
1.72
1.69
1.56
1.36
1.09
0.78
0.46
0.14
-0.17
-0.48
-0.82
-1.16
-1.45
-1.65
-1.71
-1.69
-1.67
-1.82
-2.22
-2.88
-3.72
-4.55
-5.15
-5.35
-5.07
-4.35
-3.32
-2.20
-1.16
-0.31
0.36
0.93
1.51
2.15
2.83
3.42
3.83
4.01
3.99
3.83
3.56
3.18
2.70
2.15
1.61
1.20
0.96
0.87
0.82
0.68
0.39
0.00
-0.40
-0.71
-0.92
-1.07
-1.28
-1.62
-2.07
-2.49
-2.72
-2.60
-2.05
-1.12
0.06
1.32
2.51
3.55
4.36
4.94
5.29
5.40
5.30
5.02
4.62
4.18
3.81
3.56
3.47
3.52
3.61
3.63
3.43
2.95
2.21
1.34
0.49
-0.18
-0.60
-0.82
-0.97
-1.19
-1.60
-2.21
-2.94
-3.65
-4.17
-4.36
-4.14
-3.52
-2.60
-1.55
-0.55
0.26
0.80
1.08
1.13
1.06
0.92
0.76
0.58
0.41
0.23
0.10
0.05
0.11
0.26
0.40
0.44
0.26
-0.18
-0.85
-1.62
-2.36
-3.00
-3.51
-3.95
-4.39
-4.89
-5.45
-6.03
-6.55
-6.93
-7.10
-6.99
-6.56
-5.77
-4.64
-3.24
-1.72
-0.26
0.97
1.89
2.54
3.02
3.49
4.02
4.59
5.09
5.39
5.46
5.32
5.06
4.76
4.42
4.00
3.45
2.78
2.05
1.38
0.88
0.60
0.54
0.60
0.66
0.56
0.17
-0.51
-1.42
-2.32
-3.01
-3.30
-3.12
-2.54
-1.67
-0.62
0.50
1.61
2.62
3.42
3.93
4.11
4.01
3.71
3.32
2.91
2.52
2.17
1.87
1.68
1.62
1.68
1.81
1.85
1.71
1.33
0.75
0.07
-0.59
-1.15
-1.64
-2.10
-2.60
-3.15
-3.70
-4.14
-4.37
-4.32
-3.96
-3.26
-2.27
-1.07
0.23
1.47
2.47
3.11
3.34
3.21
2.85
2.43
2.10
1.97
2.04
2.25
2.46
2.54
2.40
2.00
1.39
0.69
-0.01
-0.59
-1.03
-1.29
-1.40
-1.38
-1.30
-1.27
-1.39
-1.76
-2.41
-3.21
-3.96
-4.41
-4.40
-3.94
-3.16
-2.29
-1.49
-0.83
-0.24
0.38
1.07
1.77
2.37
2.71
2.74
2.47
1.98
1.36
0.70
0.08
-0.43
-0.77
-0.93
-0.98
-1.02
-1.19
-1.55
-2.06
-2.57
-2.96
-3.10
-2.96
-2.59
-2.08
-1.55
-1.11
-0.84
-0.72
-0.65
-0.47
-0.00
0.86
2.08
3.51
4.93
6.14
7.01
7.49
7.64
7.52
7.26
6.95
6.72
6.61
6.61
6.62
6.51
6.18
5.59
4.81
3.96
3.18
2.53
1.97
1.43
0.84
0.20
-0.40
-0.89
-1.26
-1.58
-1.99
-2.58
-3.37
-4.23
-4.94
-5.34
-5.29
-4.81
-3.98
-2.95
-1.88
-0.93
-0.23
0.17
0.28
0.18
-0.02
-0.24
-0.45
-0.66
-0.90
-1.18
-1.49
-1.84
-2.22
-2.67
-3.13
-3.48
-3.58
-3.30
-2.60
-1.65
-0.68
0.03
0.32
0.14
-0.44
-1.28
-2.30
-3.41
-4.51
-5.42
-5.94
-5.89
-5.22
-4.03
-2.56
-1.10
0.11
0.96
1.45
1.68
1.75
1.74
1.69
1.62
1.52
1.40
1.27
1.14
1.05
1.00
0.99
0.97
0.91
0.76
0.53
0.27
0.03
-0.15
-0.29
-0.44
-0.70
-1.10
-1.66
-2.34
-3.10
-3.84
-4.47
-4.83
-4.76
-4.13
-2.97
-1.47
0.09
1.39
2.25
2.63
2.64
2.45
2.21
1.94
1.62
1.23
0.78
0.35
0.04
-0.08
-0.05
-0.01
-0.10
-0.41
-0.95
-1.65
-2.40
-3.09
-3.66
-4.11
-4.43
-4.62
-4.68
-4.63
-4.49
-4.34
-4.21
-4.08
-3.90
-3.58
-3.04
-2.24
-1.19
0.02
1.28
2.47
3.52
4.45
5.29
6.08
6.81
7.39
7.72
7.69
7.29
6.58
5.68
4.67
3.61
2.52
1.45
0.45
-0.39
-1.01
-1.35
-1.45
-1.36
-1.22
-1.17
-1.30
-1.69
-2.30
-3.00
-3.61
-3.94
-3.86
-3.32
-2.34
-1.04
0.45
1.99
3.40
4.54
5.30
5.63
5.57
5.25
4.81
4.40
4.08
3.88
3.78
3.79
3.89
4.07
4.25
4.24
3.85
2.97
1.59
-0.11
-1.85
-3.37
-4.50
-5.22
-5.63
-5.89
-6.11
-6.34
-6.54
-6.57
-6.29
-5.56
-4.36
-2.75
-0.91
0.95
2.64
4.08
5.26
6.19
6.89
7.38
7.64
7.68
7.46
6.93
5.96
4.39
2.12
-0.81
-4.13
-7.41
-10.19
-12.14
-13.16
-13.35
-12.90
-12.01
-10.79
-9.33
-7.71
-6.06
-4.54
-3.29
-2.37
-1.74
-1.29
-0.90
-0.49
-0.00
0.59
1.28
2.07
2.90
3.71
4.43
4.98
5.35
5.52
5.49
5.28
4.92
4.50
4.09
3.78
3.61
3.57
3.59
3.53
3.33
2.95
2.40
1.75
1.07
0.41
-0.20
-0.76
-1.26
-1.71
-2.12
-2.46
-2.76
-3.05
-3.38
-3.82
-4.38
-4.98
-5.41
-5.43
-4.78
-3.42
-1.49
0.61
2.45
3.69
4.21
4.14
3.71
3.21
2.79
2.56
2.52
2.64
2.89
3.21
3.51
3.69
3.67
3.45
3.02
2.44
1.79
1.16
0.62
0.28
0.18
0.28
0.44
0.43
0.07
-0.73
-1.88
-3.13
-4.11
-4.50
-4.13
-3.09
-1.62
-0.09
1.21
2.11
2.60
2.81
2.87
2.86
2.82
2.72
2.55
2.28
1.95
1.60
1.29
1.09
1.01
1.03
1.07
1.04
0.88
0.58
0.20
-0.15
-0.39
-0.50
-0.54
-0.65
-0.98
-1.59
-2.45
-3.38
-4.14
-4.51
-4.38
-3.75
-2.76
-1.56
-0.31
0.88
1.89
2.64
3.06
3.15
2.97
2.62
2.22
1.81
1.40
1.01
0.67
0.46
0.41
0.50
0.64
0.67
0.48
0.07
-0.47
-1.01
-1.40
-1.60
-1.64
-1.64
-1.72
-2.00
-2.53
-3.29
-4.17
-5.01
-5.61
-5.82
-5.52
-4.70
-3.41
-1.80
-0.11
1.43
2.63
3.40
3.77
3.86
3.82
3.77
3.77
3.79
3.80
3.75
3.60
3.35
3.01
2.61
2.16
1.66
1.11
0.47
-0.28
-1.11
-1.96
-2.69
-3.19
-3.37
-3.27
-3.00
-2.74
-2.67
-2.85
-3.28
-3.81
-4.26
-4.42
-4.16
-3.46
-2.44
-1.35
-0.45
0.09
0.25
0.15
0.03
0.03
0.21
0.48
0.70
0.79
0.73
0.60
0.51
0.51
0.66
0.91
1.22
1.53
1.78
1.91
1.91
1.80
1.62
1.45
1.31
1.18
1.00
0.74
0.37
-0.09
-0.57
-1.02
-1.33
-1.41
-1.18
-0.58
0.35
1.50
2.65
3.59
4.19
4.44
4.42
4.26
4.08
3.90
3.71
3.50
3.29
3.14
3.09
3.09
3.05
2.83
2.35
1.62
0.78
0.01
-0.55
-0.82
-0.86
-0.79
-0.75
-0.89
-1.32
-2.04
-3.00
-4.04
-4.98
-5.65
-5.89
-5.64
-4.91
-3.81
-2.46
-1.08
0.14
1.04
1.57
1.75
1.70
1.52
1.32
1.14
1.01
0.94
0.95
1.03
1.20
1.40
1.59
1.70
1.67
1.48
1.15
0.73
0.34
0.04
-0.13
-0.25
-0.45
-0.83
-1.42
-2.12
-2.79
-3.26
-3.49
-3.50
-3.40
-3.28
-3.19
-3.18
-3.28
-3.50
-3.84
-4.21
-4.50
-4.59
-4.43
-4.04
-3.50
-2.90
-2.26
-1.54
-0.72
0.17
1.03
1.68
1.95
1.78
1.27
0.62
0.04
-0.32
-0.45
-0.49
-0.63
-1.04
-1.77
-2.71
-3.67
-4.42
-4.79
-4.75
-4.31
-3.56
-2.60
-1.53
-0.43
0.61
1.50
2.19
2.68
3.00
3.22
3.42
3.63
3.81
3.90
3.86
3.67
3.38
3.05
2.77
2.58
2.45
2.33
2.15
1.88
1.54
1.17
0.79
0.35
-0.22
-1.03
-2.10
-3.33
-4.53
-5.39
-5.69
-5.35
-4.45
-3.21
-1.90
-0.70
0.29
1.09
1.74
2.27
2.68
2.91
2.96
2.83
2.56
2.26
1.99
1.82
1.78
1.84
1.95
2.03
1.97
1.72
1.30
0.78
0.32
0.04
-0.01
0.11
0.22
0.14
-0.27
-1.03
-2.01
-2.99
-3.73
-4.03
-3.79
-3.00
-1.76
-0.24
1.35
2.80
3.91
4.61
4.88
4.84
4.62
4.39
4.26
4.26
4.37
4.50
4.61
4.63
4.57
4.39
4.02
3.42
2.56
1.51
0.44
-0.48
-1.08
-1.36
-1.44
-1.51
-1.78
-2.33
-3.09
-3.92
-4.61
-4.99
-4.98
-4.58
-3.85
-2.93
-1.95
-1.01
-0.17
0.57
1.23
1.80
2.25
2.54
2.65
2.58
2.40
2.21
2.07
2.02
2.04
2.04
1.93
1.68
1.30
0.85
0.42
0.06
-0.23
-0.49
-0.76
-1.12
-1.59
-2.22
-3.02
-3.97
-4.97
-5.83
-6.33
-6.25
-5.56
-4.39
-3.00
-1.71
-0.72
-0.10
0.18
0.23
0.10
-0.13
-0.41
-0.69
-0.89
-0.97
-0.94
-0.84
-0.72
-0.59
-0.41
-0.17
0.15
0.47
0.68
0.67
0.38
-0.15
-0.78
-1.38
-1.82
-2.11
-2.31
-2.53
-2.82
-3.13
-3.38
-3.44
-3.25
-2.81
-2.19
-1.45
-0.66
0.11
0.79
1.33
1.70
1.89
1.99
2.09
2.28
2.59
2.94
3.22
3.25
2.97
2.38
1.64
0.97
0.55
0.45
0.57
0.76
0.85
0.78
0.54
0.17
-0.34
-1.02
-1.90
-2.88
-3.76
-4.31
-4.36
-3.91
-3.07
-2.06
-1.05
-0.15
0.60
1.18
1.60
1.88
2.06
2.19
2.34
2.51
2.66
2.72
2.65
2.49
2.30
2.19
2.18
2.24
2.28
2.19
1.90
1.39
0.70
-0.06
-0.78
-1.42
-2.00
-2.58
-3.22
-3.90
-4.50
-4.85
-4.80
-4.30
-3.43
-2.38
-1.34
-0.44
0.27
0.86
1.38
1.88
2.36
2.80
3.18
3.53
3.85
4.11
4.27
4.28
4.13
3.85
3.51
3.18
2.90
2.65
2.41
2.15
1.86
1.55
1.22
0.84
0.37
-0.24
-0.99
-1.83
-2.63
-3.23
-3.47
-3.26
-2.57
-1.51
-0.24
1.05
2.18
3.03
3.55
3.77
3.73
3.55
3.30
3.09
2.97
2.92
2.90
2.83
2.69
2.50
2.30
2.11
1.93
1.72
1.46
1.14
0.75
0.34
-0.06
-0.46
-0.90
-1.42
-2.06
-2.85
-3.71
-4.56
-5.25
-5.66
-5.66
-5.24
-4.46
-3.45
-2.38
-1.41
-0.62
-0.02
0.44
0.78
1.04
1.19
1.17
0.96
0.57
0.11
-0.31
-0.55
-0.57
-0.39
-0.15
-0.02
-0.11
-0.45
-0.96
-1.45
-1.79
-1.92
-1.95
-2.08
-2.50
-3.27
-4.27
-5.22
-5.85
-5.95
-5.53
-4.69
-3.64
-2.55
-1.51
-0.54
0.38
1.26
2.09
2.83
3.39
3.73
3.82
3.66
3.30
2.83
2.32
1.84
1.42
1.07
0.78
0.56
0.39
0.27
0.18
0.08
-0.05
-0.25
-0.54
-0.98
-1.63
-2.52
-3.64
-4.84
-5.91
-6.61
-6.75
-6.29
-5.32
-4.06
-2.69
-1.37
-0.17
0.89
1.80
2.53
3.05
3.32
3.33
3.10
2.72
2.29
1.94
1.78
1.88
2.20
2.65
3.09
3.38
3.41
3.16
2.70
2.14
1.62
1.18
0.79
0.36
-0.23
-1.01
-1.91
-2.80
-3.50
-3.88
-3.90
-3.57
-2.93
-2.09
-1.11
-0.10
0.87
1.74
2.47
3.04
3.46
3.78
4.02
4.21
4.33
4.34
4.19
3.85
3.35
2.79
2.31
1.99
1.83
1.71
1.50
1.11
0.58
0.05
-0.35
-0.58
-0.75
-1.04
-1.59
-2.42
-3.36
-4.17
-4.61
-4.58
-4.14
-3.45
-2.70
-2.01
-1.41
-0.85
-0.26
0.37
1.02
1.61
2.05
2.35
2.55
2.73
2.96
3.21
3.42
3.48
3.36
3.06
2.67
2.32
2.09
2.00
2.04
2.11
2.13
2.02
1.74
1.25
0.55
-0.34
-1.39
-2.52
-3.60
-4.47
-4.97
-5.02
-4.60
-3.79
-2.72
-1.52
-0.36
0.57
1.06
0.94
0.19
-0.99
-2.21
-3.06
-3.23
-2.67
-1.62
-0.47
0.39
0.76
0.67
0.39
0.27
0.55
1.27
2.17
2.83
2.81
1.81
-0.14
-2.71
-5.32
-7.34
-8.40
-8.42
-7.72
-6.81
-6.26
-6.48
-7.46
-8.78
-9.65
-9.29
-7.20
-3.51
0.77
3.71
2.89
-3.66
-16.40
-33.58
-51.37
-64.71
-68.98
-61.46
-42.53
-15.43
15.12
44.67
70.02
89.48
102.54
109.38
110.58
106.70
98.64
88.10
77.59
69.56
65.36
64.74
66.28
68.10
68.33
65.60
59.43
50.01
37.16
19.61
-4.46
-35.87
-70.43
-100.37
-119.66
-127.74
-128.11
-124.43
-117.99
-107.24
-89.51
-63.98
-34.24
-7.78
7.57
7.89
-4.76
-23.39
-39.65
-47.70
-46.64
-40.35
-34.53
-33.06
-36.11
-40.88
-43.92
-43.35
-39.31
-33.64
-28.86
-26.97
-28.43
-32.58
-38.50
-45.40
-52.24
-57.43
-57.68
-49.95
-32.82
-7.61
21.45
48.61
68.85
78.94
79.98
75.41
68.65
61.77
55.33
49.25
43.79
39.85
38.37
39.62
42.60
45.42
46.32
44.53
40.65
36.35
33.45
33.11
35.41
39.32
43.06
45.03
44.52
41.79
38.07
35.11
34.65
37.84
44.45
52.31
57.54
56.17
44.81
23.04
-6.17
-37.30
-64.22
-82.63
-90.95
-91.20
-86.94
-81.53
-76.94
-73.98
-72.90
-74.09
-76.87
-79.77
-80.19
-75.07
-62.40
-42.28
-17.17
9.06
32.78
51.78
65.40
73.94
77.89
77.30
72.14
62.88
50.81
37.85
25.90
16.04
8.32
2.19
-2.98
-7.66
-11.81
-15.15
-17.33
-18.10
-17.40
-15.35
-12.26
-8.66
-5.29
-2.84
-1.75
-1.84
-2.25
-1.81
0.43
4.59
9.79
14.41
16.83
16.18
12.78
8.11
4.11
2.50
4.09
8.51
14.46
20.29
24.64
27.01
27.92
28.61
30.42
34.11
39.51
45.58
51.04
54.74
56.13
55.56
54.09
53.13
53.93
56.93
61.40
65.30
65.65
59.47
44.90
22.03
-7.02
-38.74
-69.54
-96.76
-119.11
-136.32
-148.38
-154.96
-155.60
-150.26
-139.97
-126.93
-113.85
-102.92
-94.96
-89.17
-83.68
-76.50
-66.50
-53.87
-39.94
-26.56
-15.34
-7.11
-1.78
1.43
3.45
5.07
6.58
7.94
9.01
9.83
10.75
12.29
14.82
18.21
21.79
24.50
25.35
23.89
20.37
15.69
11.10
7.74
6.28
6.79
8.72
11.19
13.21
14.02
13.19
10.77
7.19
3.19
-0.39
-2.76
-3.37
-2.13
0.61
4.03
7.09
8.83
8.74
6.93
4.14
1.44
-0.18
-0.15
1.49
4.18
7.09
9.48
10.94
11.51
11.53
11.45
11.63
12.26
13.36
14.92
16.87
19.07
21.16
22.57
22.64
20.89
17.28
12.43
7.42
3.48
1.55
1.99
4.49
8.31
12.54
16.39
19.30
20.97
21.33
20.53
18.89
16.84
14.79
13.04
11.59
10.28
8.80
6.99
4.92
2.90
1.36
0.60
0.66
1.23
1.87
2.21
2.16
1.87
1.60
1.46
1.32
0.85
-0.24
-1.94
-3.84
-5.24
-5.44
-4.07
-1.25
2.44
6.22
9.36
11.48
12.49
12.56
11.94
10.87
9.53
8.08
6.70
5.60
4.93
4.74
4.91
5.23
5.45
5.41
5.06
4.49
3.85
3.24
2.79
2.59
2.77
3.45
4.69
6.39
8.23
9.78
10.62
10.53
9.66
8.47
7.57
7.48
8.45
10.39
12.95
15.70
18.22
20.24
21.56
22.10
21.84
20.87
19.42
17.87
16.70
16.35
17.05
18.68
20.61
21.90
21.42
18.27
12.05
3.05
-7.82
-19.28
-30.01
-39.00
-45.68
-49.93
-51.95
-52.12
-50.83
-48.49
-45.41
-41.83
-37.85
-33.42
-28.40
-22.72
-16.46
-9.98
-3.87
1.30
5.14
7.61
9.01
9.79
10.31
10.71
10.91
10.75
10.27
9.70
9.48
10.00
11.36
13.23
14.95
15.77
15.18
13.21
10.42
7.65
5.64
4.72
4.63
4.66
4.06
2.37
-0.34
-3.53
-6.42
-8.34
-8.97
-8.35
-6.84
-4.87
-2.83
-1.03
0.30
1.03
1.06
0.43
-0.68
-1.97
-3.13
-3.92
-4.27
-4.23
-3.95
-3.59
-3.28
-3.07
-2.98
-3.01
-3.12
-3.28
-3.47
-3.67
-3.91
-4.25
-4.74
-5.44
-6.38
-7.53
-8.79
-9.95
-10.73
-10.85
-10.11
-8.51
-6.31
-3.91
-1.74
-0.13
0.83
1.24
1.32
1.31
1.35
1.47
1.61
1.69
1.63
1.44
1.20
1.00
0.93
1.00
1.17
1.33
1.37
1.20
0.79
0.18
-0.54
-1.26
-1.88
-2.39
-2.82
-3.27
-3.85
-4.56
-5.30
-5.79
-5.69
-4.79
-3.05
-0.66
1.99
4.47
6.42
7.62
8.00
7.69
6.89
5.88
4.88
4.05
3.42
2.96
2.66
2.49
2.49
2.66
2.93
3.11
3.01
2.47
1.54
0.45
-0.43
-0.80
-0.56
0.14
0.95
1.46
1.41
0.79
-0.24
-1.38
-2.37
-3.07
-3.37
-3.21
-2.51
-1.22
0.63
2.86
5.22
7.44
9.36
10.95
12.31
13.56
14.78
15.89
16.77
17.30
17.53
17.66
18.00
18.76
19.94
21.19
21.90
21.44
19.34
15.45
9.97
3.31
-4.04
-11.64
-19.15
-26.42
-33.42
-40.21
-46.88
-53.40
-59.57
-65.01
-69.15
-71.40
-71.23
-68.29
-62.54
-54.30
-44.25
-33.32
-22.54
-12.82
-4.73
1.55
6.17
9.50
11.89
13.59
14.75
15.46
15.79
15.87
15.86
15.90
16.08
16.36
16.61
16.67
16.42
15.81
14.89
13.76
12.52
11.25
10.02
8.93
8.08
7.58
7.43
7.55
7.79
8.00
8.10
8.16
8.32
8.74
9.43
10.32
11.19
11.79
11.95
11.59
10.77
9.66
8.47
7.43
6.75
6.56
6.89
7.62
8.49
9.18
9.40
9.01
8.06
6.77
5.42
4.30
3.51
3.01
2.60
2.08
1.29
0.22
-0.99
-2.06
-2.71
-2.72
-2.03
-0.75
0.85
2.43
3.67
4.37
4.47
4.03
3.26
2.38
1.58
0.99
0.61
0.42
0.36
0.42
0.62
0.96
1.39
1.77
1.93
1.79
1.39
0.90
0.50
0.30
0.23
0.13
-0.18
-0.78
-1.62
-2.54
-3.37
-3.98
-4.28
-4.25
-3.85
-3.10
-2.08
-0.90
0.31
1.42
2.38
3.14
3.68
3.96
3.95
3.58
2.90
1.96
0.96
0.09
-0.44
-0.51
-0.18
0.38
0.86
0.99
0.62
-0.18
-1.18
-2.08
-2.67
-2.89
-2.85
-2.72
-2.61
-2.56
-2.53
-2.47
-2.32
-2.06
-1.63
-0.96
0.02
1.31
2.78
4.24
5.45
6.25
6.58
6.47
6.01
5.25
4.24
3.05
1.82
0.70
-0.13
-0.59
-0.69
-0.54
-0.32
-0.17
-0.23
-0.55
-1.08
-1.69
-2.23
-2.56
-2.65
-2.62
-2.68
-3.05
-3.83
-4.96
-6.17
-7.13
-7.57
-7.31
-6.38
-4.91
-3.13
-1.28
0.41
1.78
2.69
3.11
3.08
2.74
2.25
1.78
1.39
1.11
0.88
0.67
0.46
0.29
0.21
0.23
0.32
0.37
0.30
0.06
-0.34
-0.80
-1.23
-1.58
-1.89
-2.28
-2.86
-3.67
-4.64
-5.52
-6.00
-5.81
-4.84
-3.22
-1.29
0.54
1.93
2.74
3.04
2.99
2.78
2.50
2.19
1.83
1.46
1.17
1.01
0.99
1.04
1.08
1.06
0.97
0.89
0.82
0.76
0.63
0.40
0.07
-0.29
-0.63
-0.96
-1.38
-2.00
-2.82
-3.70
-4.39
-4.63
-4.25
-3.25
-1.76
0.03
1.89
3.63
5.03
5.92
6.20
5.90
5.20
4.36
3.60
2.96
2.30
1.42
0.15
-1.48
-3.27
-4.94
-6.27
-7.17
-7.71
-8.02
-8.16
-8.15
-7.95
-7.51
-6.88
-6.19
-5.61
-5.28
-5.27
-5.51
-5.84
-6.06
-5.99
-5.52
-4.62
-3.28
-1.50
0.65
3.06
5.54
7.82
9.64
10.83
11.32
11.20
10.62
9.75
8.70
7.57
6.43
5.33
4.35
3.55
2.95
2.53
2.24
2.02
1.79
1.46
1.02
0.47
-0.11
-0.68
-1.25
-1.89
-2.69
-3.68
-4.78
-5.78
-6.44
-6.55
-6.03
-4.93
-3.43
-1.73
-0.08
1.32
2.31
2.84
2.93
2.70
2.34
2.01
1.80
1.72
1.70
1.69
