1552620154.00
64.000000
-0.00
-0.00
-0.00
-0.00
-0.00
-0.00
-0.00
-0.00
-0.00
-0.00
0.00
0.01
0.01
-0.00
-0.03
-0.05
-0.05
0.00
0.13
0.36
0.66
1.01
1.37
1.72
2.06
2.40
2.79
3.24
3.80
4.42
5.06
5.66
6.20
6.68
7.15
7.68
8.31
9.15
10.09
11.04
11.88
12.56
13.13
13.76
14.67
16.01
17.98
20.36
22.88
25.22
27.24
29.03
30.95
33.46
36.88
41.57
47.14
53.02
58.62
63.59
68.03
72.45
77.60
83.97
92.05
101.27
110.75
119.57
127.19
133.74
139.95
147.23
154.26
163.18
174.38
187.79
202.12
214.56
221.00
217.09
199.66
167.82
123.71
70.75
12.89
-46.79
-106.59
-165.79
-223.95
-280.38
-334.23
-384.42
-430.71
-473.05
-511.12
-543.80
-569.05
-584.30
-587.21
-576.59
-552.58
-517.05
-472.84
-423.29
-371.62
-320.26
-270.30
-221.15
-170.81
-116.75
-57.53
6.20
71.32
133.10
186.90
229.69
260.76
281.31
293.34
298.52
297.80
291.75
281.14
267.26
251.80
236.29
221.59
207.73
194.16
180.15
165.39
150.08
134.97
120.93
108.65
98.30
89.44
81.29
73.07
64.37
55.30
46.35
38.16
31.16
25.40
20.74
16.73
12.94
9.22
5.59
2.25
-0.59
-2.84
-4.50
-5.71
-6.64
-7.45
-8.22
-8.98
-9.71
-10.33
-10.74
-10.89
-10.75
-10.37
-9.80
-9.04
-8.10
-6.98
-5.74
-4.49
-3.42
-2.68
-2.39
-2.50
-2.84
-3.13
-3.13
-2.73
-2.01
-1.22
-0.67
-0.56
-0.91
-1.54
-2.19
-2.68
-2.95
-3.13
-3.33
-3.58
-3.77
-3.75
-3.42
-2.89
-2.36
-2.04
-2.04
-2.27
-2.55
-2.69
-2.63
-2.40
-2.10
-1.82
-1.60
-1.44
-1.32
-1.23
-1.16
-1.11
-1.08
-1.08
-1.16
-1.34
-1.60
-1.84
-1.91
-1.67
-1.05
-0.06
1.20
2.59
3.98
5.25
6.32
7.09
7.49
7.50
7.17
6.65
6.10
5.62
5.23
4.85
4.31
3.53
2.40
0.97
-0.59
-2.13
-3.50
-4.63
-5.47
-5.99
-6.17
-6.02
-5.59
-5.01
-4.44
-4.04
-3.86
-3.90
-4.07
-4.28
-4.45
-4.57
-4.64
-4.66
-4.63
-4.55
-4.42
-4.29
-4.17
-4.08
-4.00
-3.89
-3.69
-3.34
-2.79
-2.00
-1.01
0.11
1.20
2.07
2.56
2.62
2.32
1.84
1.39
1.11
1.01
1.01
0.97
0.80
0.48
0.06
-0.39
-0.79
-1.12
-1.38
-1.58
-1.69
-1.70
-1.56
-1.29
-0.92
-0.51
-0.16
0.04
0.03
-0.21
-0.65
-1.17
-1.64
-1.99
-2.21
-2.34
-2.51
-2.78
-3.20
-3.75
-4.43
-5.24
-6.21
-7.32
-8.47
-9.47
-10.06
-10.06
-9.39
-8.18
-6.69
-5.22
-4.01
-3.15
-2.55
-2.01
-1.37
-0.50
0.56
1.69
2.71
3.51
4.08
4.51
4.92
5.41
6.02
6.73
7.49
8.24
8.93
9.53
10.00
10.32
10.43
10.31
9.95
9.39
8.69
7.94
7.22
6.55
5.93
5.33
4.72
4.09
3.51
3.07
2.80
2.63
2.37
1.77
0.64
-1.06
-3.19
-5.45
-7.50
-8.99
-9.71
-9.57
-8.64
-7.11
-5.26
-3.42
-1.84
-0.67
0.05
0.41
0.56
0.63
0.76
1.00
1.37
1.82
2.21
2.41
2.32
1.98
1.52
1.13
0.98
1.10
1.41
1.81
2.18
2.48
2.72
2.90
2.98
2.91
2.66
2.29
1.93
1.68
1.60
1.61
1.56
1.32
0.87
0.27
-0.35
-0.88
-1.28
-1.58
-1.86
-2.23
-2.73
-3.42
-4.30
-5.31
-6.34
-7.21
-7.67
-7.52
-6.65
-5.13
-3.20
-1.21
0.54
1.84
2.63
2.98
2.99
2.73
2.28
1.70
1.07
0.51
0.14
0.02
0.13
0.35
0.54
0.59
0.47
0.26
0.09
0.10
0.35
0.81
1.34
1.72
1.78
1.44
0.77
0.02
-0.57
-0.83
-0.74
-0.48
-0.33
-0.51
-1.15
-2.17
-3.42
-4.71
-5.91
-6.97
-7.90
-8.69
-9.36
-9.90
-10.35
-10.74
-11.06
-11.27
-11.21
-10.74
-9.73
-8.15
-6.05
-3.60
-0.99
1.57
3.90
5.86
7.40
8.56
9.43
10.08
10.58
10.92
11.04
10.93
10.54
9.91
9.03
7.95
6.74
5.55
4.54
3.87
3.62
3.70
3.93
4.07
3.93
3.49
2.82
2.07
1.34
0.66
-0.01
-0.69
-1.34
-1.85
-2.13
-2.15
-1.97
-1.73
-1.52
-1.38
-1.22
-0.96
-0.58
-0.15
0.23
0.55
0.93
1.62
2.82
4.57
6.69
8.81
10.49
11.35
11.11
9.63
6.88
2.99
-1.67
-6.59
-11.15
-14.78
-17.12
-18.07
-17.76
-16.48
-14.57
-12.42
-10.37
-8.73
-7.66
-7.13
-6.93
-6.73
-6.22
-5.20
-3.70
-1.86
0.05
1.77
3.06
3.74
3.78
3.28
2.48
1.66
0.98
0.44
-0.18
-1.17
-2.74
-4.86
-7.20
-9.26
-10.56
-10.83
-10.12
-8.77
-7.26
-6.03
-5.35
-5.29
-5.77
-6.69
-7.96
-9.52
-11.27
-13.07
-14.69
-15.96
-16.79
-17.24
-17.42
-17.33
-16.79
-15.41
-12.84
-8.96
-4.02
1.45
6.89
11.93
16.50
20.76
24.86
28.83
32.55
35.83
38.55
40.67
42.12
42.78
42.43
40.90
38.19
34.53
30.35
26.09
22.10
18.60
15.75
13.64
12.32
11.72
11.57
11.50
11.15
10.33
9.03
7.44
5.77
4.21
2.80
1.52
0.35
-0.70
-1.58
-2.20
-2.55
-2.65
-2.61
-2.51
-2.37
-2.19
-1.91
-1.54
-1.11
-0.72
-0.45
-0.32
-0.35
-0.54
-0.94
-1.60
-2.54
-3.70
-4.94
-6.08
-7.00
-7.66
-8.12
-8.49
-8.90
-9.45
-10.18
-11.09
-12.16
-13.33
-14.51
-15.62
-16.51
-17.01
-16.98
-16.28
-14.90
-12.96
-10.76
-8.65
-7.01
-6.04
-5.80
-6.13
-6.79
-7.50
-8.10
-8.54
-8.88
-9.23
-9.66
-10.13
-10.58
-10.94
-11.25
-11.62
-12.22
-13.10
-14.15
-15.17
-15.97
-16.46
-16.69
-16.73
-16.59
-16.13
-15.12
-13.42
-11.02
-8.08
-4.87
-1.60
1.59
4.71
7.76
10.66
13.28
15.44
16.98
17.81
17.91
17.34
16.19
14.65
13.00
11.52
10.50
10.04
10.08
10.41
10.77
10.96
10.87
10.49
9.80
8.81
7.50
5.97
4.38
2.94
1.84
1.16
0.90
0.98
1.28
1.72
2.21
2.66
2.95
3.01
2.82
2.44
1.96
1.51
1.11
0.76
0.44
0.08
-0.31
-0.72
-1.12
-1.45
-1.68
-1.81
-1.84
-1.83
-1.87
-2.07
-2.56
-3.38
-4.46
-5.63
-6.61
-7.13
-7.08
-6.46
-5.44
-4.25
-3.10
-2.12
-1.38
-0.88
-0.59
-0.50
-0.58
-0.76
-0.97
-1.09
-1.00
-0.57
0.28
1.54
3.08
4.70
6.19
7.35
8.05
8.20
7.69
6.42
4.37
1.74
-1.05
-3.39
-4.76
-4.86
-3.70
-1.52
1.38
4.70
8.15
11.28
13.47
14.03
12.46
8.82
3.82
-1.44
-5.80
-8.55
-9.60
-9.36
-8.44
-7.35
-6.34
-5.45
-4.70
-4.21
-4.17
-4.66
-5.59
-6.63
-7.35
-7.42
-6.78
-5.61
-4.32
-3.29
-2.79
-2.84
-3.26
-3.76
-4.02
-3.83
-3.14
-2.09
-0.92
0.10
0.79
1.11
1.19
1.24
1.45
1.87
2.45
3.00
3.32
3.31
3.01
2.55
2.10
1.78
1.59
1.45
1.26
0.90
0.28
-0.63
-1.84
-3.31
-4.97
-6.64
-8.05
-8.85
-8.68
-7.36
-4.94
-1.76
1.67
4.81
7.27
8.89
9.78
10.17
10.30
10.34
10.29
10.11
9.76
9.27
8.72
8.23
7.86
7.57
7.31
6.96
6.38
5.44
3.99
1.90
-0.77
-3.81
-6.83
-9.37
-11.14
-12.07
-12.37
-12.40
-12.46
-12.71
-13.14
-13.64
-14.08
-14.45
-14.75
-15.03
-15.31
-15.61
-15.96
-16.38
-16.83
-17.17
-17.20
-16.67
-15.44
-13.48
-10.92
-7.98
-4.90
-1.89
0.85
3.21
5.11
6.53
7.57
8.42
9.24
10.12
11.03
11.84
12.39
12.59
12.44
12.03
11.51
11.02
10.66
10.51
10.57
10.76
10.94
10.92
10.54
9.71
8.48
6.98
5.37
3.81
2.41
1.25
0.35
-0.26
-0.65
-0.90
-1.14
-1.54
-2.17
-3.05
-4.09
-5.20
-6.27
-7.25
-8.14
-8.87
-9.30
-9.22
-8.43
-6.84
-4.58
-2.01
0.48
2.57
4.20
5.51
6.77
8.15
9.60
10.90
11.80
12.17
12.09
11.84
11.67
11.71
11.87
11.93
11.67
10.99
9.93
8.64
7.29
5.99
4.80
3.75
2.87
2.21
1.79
1.57
1.49
1.43
1.24
0.84
0.18
-0.72
-1.77
-2.82
-3.71
-4.33
-4.67
-4.80
-4.87
-4.99
-5.21
-5.51
-5.85
-6.17
-6.45
-6.64
-6.67
-6.43
-5.84
-4.90
-3.69
-2.39
-1.17
-0.15
0.66
1.35
1.99
2.62
3.20
3.69
4.07
4.42
4.83
5.35
5.92
6.36
6.42
5.96
4.95
3.58
2.11
0.80
-0.20
-0.86
-1.29
-1.60
-1.91
-2.30
-2.78
-3.35
-3.97
-4.58
-5.07
-5.35
-5.35
-5.09
-4.67
-4.25
-4.02
-4.09
-4.42
-4.89
-5.27
-5.39
-5.15
-4.60
-3.86
-3.10
-2.45
-2.00
-1.85
-2.05
-2.63
-3.45
-4.27
-4.70
-4.37
-3.11
-1.03
1.47
3.82
5.52
6.31
6.23
5.59
4.78
4.16
3.95
4.21
4.83
5.61
6.31
6.71
6.66
6.17
5.38
4.53
3.89
3.60
3.62
3.79
3.87
3.68
3.18
2.43
1.54
0.61
-0.33
-1.27
-2.16
-2.91
-3.41
-3.58
-3.50
-3.33
-3.26
-3.41
-3.79
-4.30
-4.80
-5.21
-5.48
-5.66
-5.78
-5.89
-6.02
-6.23
-6.60
-7.18
-7.93
-8.63
-9.00
-8.72
-7.65
-5.83
-3.52
-1.07
1.21
3.14
4.68
5.89
6.86
7.62
8.19
8.52
8.59
8.43
8.11
7.71
7.31
6.94
6.67
6.52
6.53
6.70
6.96
7.18
7.21
6.93
6.33
5.51
4.62
3.81
3.17
2.74
2.52
2.43
2.41
2.42
2.47
2.62
2.97
3.57
4.40
5.25
5.69
5.24
3.57
0.69
-2.96
-6.65
-9.53
-10.86
-10.26
-7.88
-4.24
-0.11
3.73
6.50
7.68
7.06
4.92
1.99
-0.95
-3.19
-4.37
-4.53
-3.95
-2.97
-1.65
0.23
3.62
8.88
15.27
21.04
24.38
24.48
21.80
17.61
13.39
9.91
7.19
4.99
3.18
1.86
1.32
1.62
2.39
2.66
1.92
-0.72
-5.58
-12.22
-19.54
-26.28
-31.49
-34.69
-35.75
-34.68
-31.64
-26.84
-20.75
-14.20
-8.22
-3.72
-1.15
-0.35
-0.75
-1.85
-3.36
-5.34
-7.98
-11.28
-14.92
-18.33
-20.95
-22.52
-23.16
-23.20
-22.99
-22.71
-22.41
-22.10
-21.85
-21.78
-22.03
-22.52
-22.95
-22.85
-21.79
-19.60
-16.44
-12.74
-8.96
-5.40
-2.08
1.02
3.82
5.93
6.87
6.42
4.99
3.70
3.93
6.71
12.06
18.95
25.74
30.95
33.83
34.55
33.81
32.34
30.50
28.23
25.36
21.92
18.28
14.97
12.43
10.80
9.77
8.80
7.32
4.97
1.77
-1.94
-5.55
-8.47
-10.28
-10.85
-10.36
-9.15
-7.53
-5.69
-3.64
-1.25
1.53
4.67
7.99
11.25
14.26
16.91
19.10
20.70
21.42
20.88
18.73
14.82
9.37
2.88
-3.97
-10.53
-16.34
-21.12
-24.81
-27.41
-29.02
-29.76
-29.80
-29.37
-28.73
-28.10
-27.61
-27.24
-26.81
-26.00
-24.44
-21.86
-18.13
-13.47
-8.29
-3.14
1.49
5.32
8.29
10.54
12.27
13.67
14.86
15.92
16.87
17.73
18.50
19.20
19.84
20.45
21.02
21.51
21.87
22.01
21.80
21.12
19.87
18.02
15.62
12.88
10.04
7.39
5.14
3.33
1.88
0.55
-0.90
-2.63
-4.70
-6.98
-9.30
-11.47
-13.37
-14.98
-16.39
-17.71
-18.99
-20.14
-20.90
-20.97
-20.08
-18.16
-15.35
-11.96
-8.38
-4.92
-1.81
0.88
3.18
5.12
6.74
8.03
8.98
9.60
9.94
10.06
10.04
9.93
9.72
9.38
8.85
8.09
7.13
6.05
4.96
3.95
3.11
2.48
2.09
1.99
2.21
2.77
3.64
4.79
6.11
7.45
8.68
9.65
10.26
10.47
10.28
9.72
8.84
7.74
6.54
5.49
4.85
4.87
5.68
7.16
9.02
10.83
12.19
12.87
12.83
12.23
11.36
10.50
9.88
9.65
9.80
10.24
10.80
11.27
11.42
11.09
10.19
8.72
6.74
4.41
1.94
-0.44
-2.54
-4.24
-5.54
-6.51
-7.30
-8.01
-8.70
-9.35
-9.91
-10.31
-10.53
-10.57
-10.40
-10.06
-9.55
-8.93
-8.29
-7.78
-7.50
-7.53
-7.91
-8.58
-9.45
-10.36
-11.08
-11.37
-10.96
-9.69
-7.60
-4.90
-2.01
0.63
2.64
3.85
4.37
4.47
4.52
4.77
5.29
5.97
6.59
6.92
6.84
6.40
5.72
4.98
4.31
3.76
3.34
3.01
2.72
2.47
2.23
1.97
1.68
1.31
0.83
0.24
-0.42
-1.08
-1.63
-1.96
-2.07
-2.03
-1.98
-2.07
-2.38
-2.92
-3.59
-4.31
-5.03
-5.72
-6.41
-7.11
-7.81
-8.48
-9.06
-9.47
-9.55
-9.12
-8.00
-6.09
-3.49
-0.52
2.41
4.88
6.65
7.70
8.21
8.40
8.52
8.68
8.91
9.14
9.27
9.23
8.95
8.45
7.79
7.04
6.26
5.50
4.75
4.00
3.29
2.64
2.12
1.74
1.47
1.21
0.85
0.31
-0.43
-1.30
-2.21
-3.08
-3.85
-4.53
-5.19
-5.86
-6.56
-7.22
-7.75
-8.03
-8.02
-7.72
-7.20
-6.53
-5.81
-5.15
-4.63
-4.36
-4.40
-4.76
-5.30
-5.79
-5.88
-5.29
-3.93
-1.92
0.43
2.71
4.55
5.79
6.45
6.68
6.70
6.65
6.60
6.50
6.33
6.10
5.87
5.73
5.76
5.91
6.10
6.17
6.03
5.69
5.22
4.72
4.26
3.81
3.32
2.76
2.15
1.56
1.05
0.68
0.41
0.12
-0.29
-0.91
-1.77
-2.80
-3.89
-4.89
-5.63
-6.03
-6.13
-6.08
-6.08
-6.33
-6.86
-7.54
-8.07
-8.13
-7.49
-6.13
-4.23
-2.13
-0.19
1.30
2.24
2.63
2.61
2.35
1.98
1.61
1.30
1.11
1.07
1.24
1.66
2.31
3.12
3.95
4.64
5.02
5.06
4.83
4.50
4.20
4.02
3.88
3.61
3.05
2.14
0.95
-0.37
-1.60
-2.65
-3.51
-4.23
-4.89
-5.50
-6.03
-6.43
-6.74
-7.04
-7.46
-8.10
-8.98
-10.00
-10.95
-11.55
-11.56
-10.80
-9.25
-7.03
-4.43
-1.81
0.47
2.10
2.97
3.19
3.03
2.82
2.87
3.28
4.03
4.91
5.72
6.27
6.50
6.43
6.12
5.60
4.91
4.08
3.15
2.20
1.31
0.49
-0.25
-0.97
-1.65
-2.24
-2.68
-2.88
-2.84
-2.64
-2.39
-2.22
-2.20
-2.33
-2.56
-2.84
-3.07
-3.18
-3.14
-2.95
-2.66
-2.39
-2.26
-2.37
-2.80
-3.54
-4.51
-5.61
-6.66
-7.42
-7.66
-7.18
-5.90
-3.94
-1.61
0.76
2.81
4.38
5.40
5.96
6.21
6.30
6.39
6.58
6.90
7.28
7.58
7.67
7.50
7.13
6.70
6.37
6.15
6.00
5.78
5.42
4.94
4.47
4.12
3.98
3.99
4.07
4.11
4.05
3.87
3.58
3.20
2.74
2.17
1.51
0.73
-0.19
-1.29
-2.55
-3.88
-5.12
-6.08
-6.64
-6.78
-6.64
-6.43
-6.41
-6.75
-7.49
-8.53
-9.60
-10.32
-10.33
-9.35
-7.34
-4.52
-1.33
1.71
4.12
5.62
6.19
6.03
5.44
4.73
4.09
3.60
3.25
2.99
2.79
2.66
2.63
2.70
2.83
2.95
3.00
3.00
3.04
3.25
3.70
4.38
5.15
5.82
6.27
6.47
6.50
6.54
6.74
7.20
7.93
8.83
9.77
10.61
11.23
11.59
11.69
11.59
11.37
11.06
10.68
10.26
9.79
9.26
8.60
7.65
6.20
4.11
1.42
-1.59
-4.48
-6.76
-8.09
-8.40
-7.83
-6.69
-5.27
-3.84
-2.53
-1.45
-0.68
-0.29
-0.29
-0.59
-0.99
-1.26
-1.18
-0.67
0.18
1.13
1.82
1.89
1.08
-0.69
-3.25
-6.25
-9.23
-11.76
-13.59
-14.64
-15.03
-14.91
-14.42
-13.68
-12.77
-11.80
-10.89
-10.10
-9.40
-8.64
-7.61
-6.18
-4.37
-2.34
-0.38
1.25
2.41
3.15
3.63
4.11
4.81
5.84
7.13
8.54
9.95
11.42
13.18
15.55
18.75
22.72
27.10
31.29
34.63
36.44
36.07
32.92
26.63
17.42
6.33
-4.86
-14.13
-19.95
-21.87
-20.62
-17.63
-14.30
-11.46
-9.21
-7.32
-5.75
-4.86
-5.30
-7.43
-11.01
-15.09
-18.42
-20.02
-19.56
-17.52
-14.84
-12.56
-11.38
-11.51
-12.74
-14.65
-16.87
-19.14
-21.48
-24.03
-27.07
-30.82
-35.36
-40.45
-45.50
-49.64
-51.97
-51.85
-49.11
-44.14
-37.79
-31.08
-24.95
-20.04
-16.66
-14.83
-14.40
-15.05
-16.24
-17.30
-17.47
-16.14
-13.02
-8.28
-2.48
3.65
9.41
14.29
18.07
20.74
22.40
23.20
23.23
22.56
21.19
19.17
16.65
13.96
11.59
10.07
9.78
10.66
12.21
13.59
13.94
12.72
9.87
5.77
1.01
-3.87
-8.57
-12.97
-17.00
-20.45
-23.02
-24.44
-24.66
-23.92
-22.58
-20.95
-19.09
-16.80
-13.83
-10.09
-5.81
-1.43
2.51
5.65
7.95
9.61
11.01
12.52
14.43
16.82
19.56
22.31
24.61
26.08
26.55
26.18
25.33
24.46
23.86
23.54
23.31
22.90
22.12
20.95
19.53
18.04
16.63
15.38
14.34
13.49
12.79
12.14
11.38
10.32
8.87
7.02
4.91
2.74
0.69
-1.08
-2.52
-3.60
-4.35
-4.88
-5.37
-6.05
-7.08
-8.42
-9.75
-10.48
-10.05
-8.13
-4.84
-0.69
3.57
7.29
10.14
12.10
13.39
14.27
14.90
15.32
15.40
14.86
13.36
10.65
6.70
1.75
-3.73
-9.12
-13.81
-17.40
-19.75
-20.95
-21.21
-20.85
-20.22
-19.61
-19.12
-18.54
-17.53
-15.90
-13.66
-10.93
-7.83
-4.46
-0.69
3.69
8.97
15.02
21.17
26.55
30.71
33.78
36.24
38.69
41.52
45.08
49.05
52.56
54.69
55.13
54.17
52.36
50.41
48.96
48.86
50.16
51.79
51.78
48.26
39.81
25.68
6.10
-19.40
-47.64
-72.76
-88.93
-94.98
-92.36
-83.05
-69.36
-53.14
-37.45
-24.77
-16.75
-13.87
-15.51
-20.02
-25.70
-31.35
-36.04
-38.77
-38.01
-32.79
-23.61
-12.47
-1.89
5.91
9.84
10.28
8.73
7.22
7.05
8.40
10.54
12.79
14.82
16.56
18.04
19.13
19.69
19.55
18.63
17.15
15.56
14.32
13.52
12.88
11.80
9.79
6.59
2.34
-2.45
-6.99
-10.47
-12.28
-12.17
-10.33
-7.25
-3.55
0.12
3.23
5.38
6.33
6.01
4.58
2.41
0.07
-1.82
-2.83
-2.82
-1.98
-0.76
0.33
0.89
0.74
-0.10
-1.45
-3.00
-4.42
-5.43
-5.91
-5.94
-5.82
-5.99
-6.79
-8.40
-10.66
-13.14
-15.29
-16.55
-16.53
-15.11
-12.59
-9.69
-7.42
-6.80
-8.42
-12.17
-17.15
-21.99
-25.42
-26.68
-25.79
-23.33
-20.09
-16.67
-13.30
-9.98
-6.71
-3.62
-0.94
1.13
2.63
3.84
5.11
6.73
8.73
10.89
12.92
14.58
15.87
16.96
18.08
19.36
20.75
22.00
22.84
23.06
22.64
21.65
20.23
18.48
16.46
14.20
11.79
9.31
6.87
4.61
2.61
0.98
-0.21
-0.88
-1.05
-0.79
-0.23
0.45
1.13
1.72
2.19
2.49
2.57
2.40
2.02
1.50
0.94
0.39
-0.16
-0.75
-1.37
-1.90
-2.12
-1.79
-0.82
0.66
2.32
3.71
4.50
4.59
4.16
3.59
3.20
3.18
3.46
3.80
3.96
3.78
3.29
2.60
1.86
1.16
0.48
-0.19
-0.86
-1.45
-1.85
-1.94
-1.70
-1.22
-0.65
-0.22
-0.05
-0.15
-0.37
-0.50
-0.37
0.06
0.66
1.19
1.42
1.24
0.70
0.01
-0.59
-0.93
-0.95
-0.70
-0.32
0.08
0.40
0.61
0.73
0.76
0.73
0.63
0.53
0.51
0.76
1.43
2.60
4.18
5.88
7.27
7.91
7.55
6.20
4.16
1.87
-0.21
-1.77
-2.72
-3.15
-3.27
-3.32
-3.51
-3.96
-4.74
-5.79
-6.98
-8.13
-9.08
-9.70
-9.98
-9.97
-9.76
-9.45
-9.15
-8.97
-9.02
-9.36
-9.98
-10.73
-11.41
-11.82
-11.91
-11.83
-11.81
-12.06
-12.62
-13.36
-14.01
-14.35
-14.31
-14.02
-13.68
-13.49
-13.51
-13.70
-13.93
-14.12
-14.20
-14.14
-13.81
-13.05
-11.66
-9.52
-6.70
-3.43
-0.04
3.16
6.01
8.45
10.51
12.21
13.55
14.52
15.14
15.48
15.68
15.88
16.16
16.52
16.89
17.15
17.19
16.92
16.37
15.68
15.03
14.63
14.57
14.81
15.17
15.42
15.36
14.91
14.06
12.88
11.46
9.93
8.39
6.95
5.65
4.48
3.39
2.30
1.15
-0.06
-1.28
-2.47
-3.60
-4.70
-5.74
-6.66
-7.32
-7.53
-7.12
-6.09
-4.60
-2.91
-1.35
-0.09
0.85
1.64
2.44
3.36
4.33
5.17
5.71
5.85
5.67
5.31
4.92
4.56
4.24
3.93
3.65
3.45
3.40
3.52
3.75
3.99
4.16
4.21
4.14
3.96
3.64
3.15
2.45
1.57
0.57
-0.43
-1.33
-2.04
-2.56
-2.93
-3.25
-3.61
-4.05
-4.51
-4.84
-4.85
-4.35
-3.30
-1.77
0.02
1.80
3.38
4.64
5.58
6.25
6.75
7.10
7.33
7.43
7.40
7.22
6.89
6.42
5.79
5.01
4.08
3.03
1.93
0.86
-0.13
-1.02
-1.85
-2.70
-3.62
-4.64
-5.70
-6.73
-7.64
-8.39
-9.01
-9.52
-9.97
-10.35
-10.64
-10.82
-10.92
-11.03
-11.25
-11.64
-12.08
-12.38
-12.25
-11.49
-10.03
-7.95
-5.51
-2.97
-0.56
1.58
3.36
4.74
5.68
6.21
6.41
6.42
6.42
6.53
6.80
7.13
7.40
7.43
7.12
6.46
5.55
4.54
3.61
2.92
2.54
2.45
2.52
2.56
2.41
1.97
1.27
0.40
-0.48
-1.26
-1.87
-2.35
-2.75
-3.14
-3.58
-4.04
-4.47
-4.79
-4.97
-5.02
-5.01
-5.05
-5.24
-5.64
-6.24
-6.94
-7.54
-7.82
-7.59
-6.75
-5.33
-3.51
-1.54
0.33
1.90
3.10
3.93
4.46
4.75
4.88
4.92
4.96
5.09
5.32
5.59
5.78
5.72
5.32
4.62
3.78
3.03
2.53
2.33
2.38
2.52
2.63
2.64
2.53
2.36
2.16
1.95
1.74
1.52
1.28
1.03
0.77
0.46
0.07
-0.42
-0.99
-1.57
-2.06
-2.36
-2.44
-2.32
-2.13
-1.99
-2.05
-2.33
-2.83
-3.47
-4.16
-4.86
-5.54
-6.18
-6.74
-7.10
-7.11
-6.64
-5.67
-4.29
-2.73
-1.23
0.02
0.95
1.59
2.00
2.22
2.28
2.19
2.03
1.90
1.88
1.98
2.15
2.28
2.29
2.13
1.85
1.51
1.16
0.84
0.56
0.34
0.21
0.20
0.26
0.34
0.35
0.22
-0.03
-0.36
-0.68
-0.91
-1.03
-1.07
-1.05
-1.01
-0.94
-0.86
-0.78
-0.76
-0.86
-1.15
-1.61
-2.21
-2.84
-3.42
-3.90
-4.24
-4.50
-4.73
-5.00
-5.30
-5.57
-5.69
-5.54
-5.03
-4.14
-2.96
-1.59
-0.16
1.20
2.35
3.20
3.68
3.81
3.68
3.41
3.12
2.86
2.60
2.30
1.95
1.61
1.34
1.23
1.24
1.34
1.43
1.47
1.47
1.47
1.53
1.65
1.77
1.82
1.70
1.39
0.92
0.39
-0.09
-0.41
-0.56
-0.55
-0.47
-0.41
-0.43
-0.54
-0.74
-0.99
-1.25
-1.52
-1.77
-2.00
-2.20
-2.37
-2.55
-2.75
-2.99
-3.30
-3.66
-4.05
-4.46
-4.80
-4.98
-4.87
-4.37
-3.46
-2.22
-0.87
0.39
1.35
1.93
2.17
2.24
2.29
2.40
2.54
2.60
2.46
2.09
1.59
1.08
0.67
0.39
0.23
0.13
0.09
0.16
0.41
0.83
1.32
1.72
1.86
1.71
1.34
0.92
0.63
0.53
0.56
0.59
0.47
0.18
-0.21
-0.57
-0.80
-0.87
-0.89
-0.95
-1.11
-1.34
-1.57
-1.73
-1.78
-1.76
-1.72
-1.71
-1.77
-1.93
-2.25
-2.76
-3.44
-4.20
-4.85
-5.23
-5.21
-4.76
-3.94
-2.81
-1.52
-0.20
0.97
1.86
2.39
2.56
2.48
2.29
2.12
2.06
2.12
2.27
2.47
2.66
2.80
2.83
2.71
2.45
2.09
1.70
1.39
1.20
1.14
1.19
1.28
1.37
1.45
1.54
1.64
1.74
1.77
1.69
1.44
1.02
0.50
-0.02
-0.45
-0.69
-0.72
-0.57
-0.35
-0.17
-0.17
-0.38
-0.75
-1.16
-1.45
-1.55
-1.51
-1.44
-1.51
-1.82
-2.34
-3.00
-3.69
-4.28
-4.71
-4.89
-4.76
-4.26
-3.37
-2.18
-0.85
0.41
1.42
2.08
2.38
2.39
2.21
2.00
1.87
1.89
2.06
2.31
2.57
2.76
2.88
2.93
2.95
2.94
2.91
2.84
2.73
2.61
2.51
2.43
2.38
2.29
2.09
1.74
1.26
0.70
0.19
-0.17
-0.32
-0.27
-0.16
-0.13
-0.32
-0.75
-1.31
-1.81
-2.06
-2.01
-1.71
-1.36
-1.16
-1.23
-1.54
-2.01
-2.51
-2.96
-3.40
-3.91
-4.54
-5.26
-5.95
-6.42
-6.54
-6.22
-5.50
-4.47
-3.23
-1.87
-0.48
0.86
2.06
3.00
3.55
3.68
3.43
2.94
2.41
2.03
1.86
1.90
2.04
2.18
2.26
2.27
2.26
2.25
2.23
2.20
2.14
2.05
1.94
1.80
1.63
1.41
1.16
0.91
0.73
0.66
0.72
0.85
0.96
0.95
0.76
0.39
-0.13
-0.69
-1.19
-1.55
-1.76
-1.83
-1.85
-1.89
-1.99
-2.13
-2.29
-2.44
-2.61
-2.85
-3.22
-3.74
-4.41
-5.14
-5.81
-6.31
-6.52
-6.36
-5.76
-4.75
-3.39
-1.82
-0.20
1.30
2.57
3.49
4.01
4.12
3.87
3.40
2.87
2.46
2.30
2.44
2.77
3.17
3.50
3.68
3.68
3.55
3.32
3.07
2.84
2.70
2.66
2.69
2.71
2.59
2.28
1.79
1.23
0.76
0.45
0.33
0.26
0.13
-0.17
-0.63
-1.14
-1.58
-1.84
-1.90
-1.81
-1.66
-1.53
-1.47
-1.51
-1.61
-1.76
-1.90
-2.04
-2.17
-2.31
-2.52
-2.85
-3.33
-3.95
-4.61
-5.14
-5.33
-4.99
-4.06
-2.59
-0.79
1.09
2.79
4.17
5.15
5.75
6.01
5.97
5.71
5.29
4.83
4.44
4.19
4.13
4.22
4.38
4.53
4.61
4.61
4.53
4.40
4.25
4.11
4.02
4.00
4.03
4.08
4.03
3.80
3.34
2.71
2.02
1.38
0.86
0.45
0.09
-0.26
-0.60
-0.89
-1.11
-1.27
-1.45
-1.76
-2.23
-2.85
-3.48
-3.97
-4.21
-4.18
-3.99
-3.80
-3.76
-3.92
-4.24
-4.63
-5.02
-5.38
-5.71
-6.01
-6.17
-6.05
-5.50
-4.44
-2.92
-1.10
0.80
2.55
3.96
4.91
5.33
5.26
4.83
4.25
3.71
3.35
3.17
3.09
2.99
2.83
2.64
2.50
2.49
2.57
2.63
2.57
2.32
1.94
1.54
1.27
1.16
1.16
1.15
1.03
0.72
0.26
-0.26
-0.73
-1.10
-1.37
-1.56
-1.70
-1.81
-1.84
-1.78
-1.66
-1.52
-1.49
-1.66
-2.06
-2.64
-3.29
-3.86
-4.29
-4.59
-4.85
-5.15
-5.54
-6.01
-6.52
-7.07
-7.61
-8.09
-8.40
-8.35
-7.78
-6.57
-4.75
-2.46
0.03
2.44
4.53
6.13
7.15
7.58
7.51
7.10
6.56
6.08
5.79
5.67
5.64
5.58
5.41
5.11
4.72
4.30
3.90
3.53
3.20
2.91
2.66
2.45
2.30
2.15
1.97
1.70
1.36
0.99
0.67
0.48
0.40
0.36
0.22
-0.11
-0.64
-1.28
-1.91
-2.40
-2.73
-2.94
-3.09
-3.22
-3.34
-3.43
-3.54
-3.77
-4.27
-5.09
-6.23
-7.51
-8.71
-9.63
-10.10
-10.05
-9.49
-8.48
-7.13
-5.54
-3.82
-2.08
-0.42
1.04
2.16
2.85
3.04
2.81
2.32
1.76
1.35
1.18
1.29
1.58
1.96
2.29
2.50
2.56
2.48
2.31
2.08
1.79
1.45
1.05
0.63
0.27
0.03
-0.09
-0.16
-0.28
-0.55
-0.99
-1.50
-1.95
-2.24
-2.33
-2.27
-2.15
-2.03
-1.95
-1.86
-1.72
-1.49
-1.20
-0.90
-0.67
-0.58
-0.66
-0.94
-1.41
-2.03
-2.71
-3.30
-3.58
-3.33
-2.41
-0.86
1.11
3.21
5.11
6.60
7.59
8.10
8.23
8.07
7.75
7.36
6.96
6.58
6.21
5.82
5.40
4.95
4.54
4.22
4.05
4.05
4.18
4.37
4.54
4.59
4.48
4.21
3.83
3.44
3.08
2.76
2.42
1.95
1.26
0.33
-0.74
-1.82
-2.75
-3.40
-3.73
-3.78
-3.63
-3.40
-3.22
-3.21
-3.43
-3.92
-4.61
-5.34
-5.87
-5.94
-5.35
-4.05
-2.20
-0.13
1.79
3.26
4.13
4.42
4.25
3.78
3.12
2.35
1.54
0.77
0.16
-0.25
-0.43
-0.44
-0.41
-0.44
-0.60
-0.90
-1.30
-1.76
-2.25
-2.78
-3.40
-4.19
-5.23
-6.55
-8.19
-10.12
-12.26
-14.50
-16.66
-18.57
-20.00
-20.85
-21.13
-21.04
-20.92
-21.10
-21.78
-22.94
-24.27
-25.30
-25.56
-24.73
-22.75
-19.85
-16.39
-12.75
-9.22
-5.94
-2.92
-0.13
2.49
4.90
7.01
8.66
9.72
10.14
10.07
9.97
10.49
12.40
16.27
22.17
29.45
36.86
42.88
46.18
46.20
43.28
38.61
33.73
29.88
27.43
25.69
23.25
18.65
11.18
1.30
-9.50
-19.25
-26.39
-30.32
-31.48
-30.97
-29.94
-29.13
-28.80
-28.85
-29.18
-29.77
-30.62
-31.56
-32.20
-31.98
-30.40
-27.35
-23.35
-19.56
-17.45
-18.21
-22.10
-28.11
-34.09
-37.45
-36.13
-29.43
-18.27
-4.69
8.98
21.07
30.99
39.04
45.92
52.17
57.86
62.63
66.03
67.81
68.07
67.14
65.39
62.91
59.50
54.73
48.35
40.51
31.93
23.70
16.85
11.89
8.62
6.26
3.81
0.64
-3.19
-6.99
-9.76
-10.78
-9.98
-8.04
-6.08
-5.11
-5.55
-7.03
-8.68
-9.59
-9.21
-7.57
-5.16
-2.54
-0.05
2.32
4.80
7.62
10.83
14.20
17.30
19.57
20.46
19.55
16.69
12.02
5.91
-1.19
-8.94
-17.07
-25.29
-33.13
-39.78
-44.24
-45.65
-43.67
-38.66
-31.67
-23.95
-16.53
-9.94
-4.18
1.03
5.92
10.51
14.60
17.95
20.45
22.21
23.48
24.49
25.36
26.05
26.38
26.26
25.74
25.01
24.33
23.73
22.98
21.50
18.64
13.95
7.47
-0.20
-8.09
-15.20
-20.86
-24.83
-27.32
-28.67
-29.21
-29.10
-28.41
-27.24
-25.79
-24.36
-23.21
-22.49
-22.17
-22.03
-21.78
-21.18
-20.07
-18.55
-16.86
-15.42
-14.63
-14.75
-15.91
-18.04
-20.96
-24.40
-28.03
-31.39
-33.92
-35.23
-35.17
-34.01
-32.28
-30.43
-28.47
-25.91
-21.98
-16.00
-7.84
2.06
12.85
23.65
33.77
42.83
50.63
57.03
61.79
64.78
66.01
65.77
64.56
62.90
61.19
59.55
57.86
55.80
52.97
49.04
43.80
37.25
29.62
21.38
13.18
5.71
-0.51
-5.41
-9.45
-13.45
-18.29
-24.40
-31.54
-38.80
-45.01
-49.15
-50.76
-50.03
-47.63
-44.39
-41.02
-37.95
-35.34
-33.12
-31.07
-28.99
-26.62
-23.78
-20.35
-16.26
-11.53
-6.20
-0.39
5.73
11.95
18.02
23.70
28.85
33.37
37.26
40.44
42.69
43.56
42.47
38.94
32.80
24.41
14.67
4.82
-3.94
-10.70
-15.06
-17.10
-17.18
-15.70
-13.15
-10.19
-7.81
-7.25
-9.71
-15.78
-25.18
-36.81
-49.16
-60.81
-70.83
-78.73
-84.08
-86.25
-84.35
-77.72
-66.46
-51.64
-35.18
-19.20
-5.48
4.90
11.52
14.54
14.50
12.28
9.02
5.92
4.01
3.86
5.50
8.46
12.05
15.51
18.18
19.57
19.39
17.65
14.76
11.52
8.89
7.67
8.30
10.72
14.49
18.96
23.49
27.54
30.74
32.90
33.95
33.91
32.87
30.93
28.18
24.70
20.57
15.91
10.90
5.82
1.00
-3.13
-6.21
-7.98
-8.40
-7.69
-6.27
-4.63
-3.22
-2.31
-1.95
-2.03
-2.31
-2.49
-2.24
-1.29
0.51
3.04
5.96
8.76
10.90
12.04
12.10
11.27
9.91
8.41
7.07
5.99
5.14
4.40
3.58
2.59
1.47
0.38
-0.39
-0.62
-0.26
0.56
1.49
2.17
2.39
2.15
1.70
1.34
1.35
1.81
2.66
3.78
5.08
6.52
8.17
10.05
12.18
14.50
16.96
19.55
22.29
25.18
28.16
31.02
33.51
35.34
36.35
36.49
35.78
34.17
31.46
27.31
21.37
13.54
4.16
-5.98
-15.85
-24.48
-31.31
-36.27
-39.73
-42.20
-44.02
-45.18
-45.39
-44.37
-42.02
-38.65
-34.81
-31.13
-28.01
-25.49
-23.25
-20.87
-18.07
-14.80
-11.29
-7.83
-4.62
-1.74
0.83
3.08
4.96
6.46
7.70
8.97
10.61
12.80
15.46
18.30
21.00
23.41
25.60
27.75
29.95
31.97
33.40
33.76
32.63
29.80
25.11
18.45
9.75
-0.77
-12.36
-23.63
-32.74
-37.90
-37.99
-33.03
-24.28
-13.90
-4.21
2.94
6.71
7.30
5.69
3.18
0.99
0.01
0.76
3.32
7.41
12.33
17.09
20.54
21.76
20.24
16.18
10.42
4.19
-1.18
-4.72
-6.07
-5.56
-4.02
-2.42
-1.48
-1.31
-1.47
-1.18
0.20
2.86
6.38
9.98
12.82
14.40
14.67
13.93
12.66
11.23
9.83
8.49
7.14
5.69
4.06
2.21
0.12
-2.07
-4.06
-5.36
-5.46
-3.96
-0.77
3.76
8.95
13.95
18.00
20.65
21.81
21.79
21.03
19.96
18.78
17.46
15.81
13.62
10.82
7.57
4.18
1.02
-1.63
-3.64
-5.03
-5.90
-6.35
-6.50
-6.47
-6.48
-6.80
-7.76
-9.55
-12.21
-15.50
-18.94
-22.00
-24.24
-25.52
-26.06
-26.35
-26.97
-28.26
-30.21
-32.44
-34.39
-35.64
-36.12
-36.16
-36.36
-37.26
-39.15
-41.87
-44.88
-47.43
-48.82
-48.59
-46.64
-43.18
-38.57
-33.19
-27.30
-21.12
-14.88
-8.85
-3.35
1.34
5.15
8.18
10.64
12.64
14.15
14.97
14.89
13.90
12.23
10.28
8.49
7.18
6.50
6.45
6.87
7.57
8.28
8.72
8.73
8.28
7.56
6.93
6.74
7.29
8.73
11.11
14.41
18.50
23.16
27.94
32.24
35.46
37.10
36.95
35.10
31.79
27.38
22.20
16.65
11.15
6.23
2.30
-0.43
-2.06
-3.02
-3.86
-5.01
-6.68
-8.76
-10.91
-12.76
-14.03
-14.59
-14.50
-13.93
-13.12
-12.27
-11.49
-10.79
-10.10
-9.36
-8.59
-7.91
-7.49
-7.43
-7.70
-8.13
-8.46
-8.48
-8.06
-7.20
-6.04
-4.72
-3.41
-2.23
-1.28
-0.60
-0.25
-0.27
-0.68
-1.48
-2.60
-3.91
-5.16
-6.12
-6.62
-6.62
-6.22
-5.59
-4.93
-4.33
-3.86
-3.51
-3.27
-3.13
-3.00
-2.81
-2.44
-1.81
-0.95
0.05
1.04
1.90
2.60
3.18
3.74
4.30
4.81
5.18
5.33
5.27
5.11
5.09
5.41
6.21
7.45
8.96
10.49
11.89
13.13
14.38
15.84
17.65
19.77
21.89
23.62
24.56
24.47
23.25
20.92
17.53
13.19
8.15
2.94
-1.73
-5.14
-6.98
-7.48
-7.29
-7.04
-6.96
-6.64
-5.36
-2.55
1.73
6.69
11.17
14.17
15.29
14.85
13.53
11.99
10.58
9.32
8.15
7.18
6.75
7.22
8.71
10.87
12.96
14.09
13.59
11.38
7.90
3.95
0.32
-2.46
-4.26
-5.26
-5.75
-5.98
-6.01
-5.71
-4.77
-2.83
0.36
4.83
10.30
16.24
22.02
27.06
30.97
33.52
34.53
33.89
31.52
27.58
22.57
17.28
12.58
9.03
6.65
4.84
2.70
-0.57
-5.23
-10.93
-16.85
-22.07
-25.98
-28.36
-29.36
-29.28
-28.39
-26.87
-24.84
-22.46
-20.01
-17.79
-16.06
-14.96
-14.38
-14.12
-13.92
-13.60
-13.12
-12.55
-12.07
-11.80
-11.82
-12.04
-12.27
-12.25
-11.76
-10.73
-9.27
-7.64
-6.19
-5.19
-4.75
-4.76
-4.97
-5.10
-4.95
-4.51
-3.94
-3.44
-3.23
-3.40
-3.93
-4.72
-5.59
-6.38
-6.88
-6.90
-6.30
-5.03
-3.20
-1.06
1.01
2.69
3.80
4.35
4.52
4.54
4.53
4.49
4.30
3.87
3.21
2.44
1.78
1.41
1.37
1.59
1.91
2.16
2.22
2.08
1.80
1.50
1.34
1.45
1.92
2.77
3.91
5.16
6.32
7.27
7.99
8.64
9.48
10.79
12.70
15.06
17.45
19.21
19.65
18.30
15.11
10.52
5.38
0.64
-2.93
-4.95
-5.48
-4.85
-3.45
-1.64
0.31
2.11
3.44
3.92
3.30
1.59
-0.85
-3.39
-5.36
-6.32
-6.21
-5.29
-3.93
-2.42
-0.84
0.90
2.88
5.04
7.11
8.73
9.61
9.66
8.98
7.78
6.25
4.46
2.41
0.13
-2.32
-4.82
-7.28
-9.62
-11.83
-13.92
-15.79
-17.26
-18.08
-18.00
-16.89
-14.79
-11.95
-8.74
-5.56
-2.79
-0.63
0.82
1.61
1.84
1.65
1.12
0.27
-0.88
-2.37
-4.22
-6.43
-8.92
-11.57
-14.13
-16.33
-17.89
-18.70
-18.80
-18.43
-17.83
-17.16
-16.38
-15.31
-13.76
-11.75
-9.46
-7.25
-5.42
-4.10
-3.22
-2.65
-2.29
-2.13
-2.26
-2.65
-3.17
-3.55
-3.54
-3.03
-2.12
-1.08
-0.18
0.45
0.81
1.11
1.59
2.43
3.69
5.26
6.98
8.65
10.12
11.28
12.06
12.42
12.34
11.87
11.13
10.30
9.56
9.04
8.80
8.77
8.83
8.85
8.70
8.28
7.52
6.38
4.91
3.19
1.38
-0.38
-2.01
-3.49
-4.91
-6.32
-7.71
-8.91
-9.64
-9.64
-8.78
-7.16
-5.05
-2.83
-0.80
0.87
2.16
3.14
3.87
4.35
4.55
4.48
4.23
3.92
3.67
3.53
3.44
3.28
2.99
2.60
2.23
1.98
1.90
1.89
1.80
1.53
1.06
0.44
-0.20
-0.78
-1.31
-1.81
-2.32
-2.81
-3.24
-3.58
-3.86
-4.16
-4.62
-5.33
-6.24
-7.19
-7.91
-8.08
-7.46
-6.00
-3.79
-1.13
1.60
4.04
5.92
7.18
7.87
8.15
8.19
8.11
7.97
7.80
7.55
7.23
6.84
6.42
6.02
5.68
5.36
5.01
4.53
3.93
3.23
2.57
2.08
1.79
1.65
1.48
1.12
0.48
-0.37
-1.31
-2.15
-2.78
-3.16
-3.36
-3.51
-3.77
-4.27
-5.07
-6.13
-7.26
-8.16
-8.48
-7.97
-6.58
-4.49
-2.06
0.31
2.31
3.77
4.68
5.13
5.25
5.15
4.96
4.74
4.60
4.57
4.64
4.77
4.89
4.94
4.89
4.72
4.48
4.19
3.88
3.57
3.23
2.81
2.24
1.48
0.52
-0.55
-1.60
-2.49
-3.11
-3.42
-3.47
-3.36
-3.28
-3.42
-3.96
-4.98
-6.35
-7.77
-8.83
-9.13
-8.44
-6.78
-4.39
-1.70
0.84
2.90
4.33
5.12
5.42
5.38
5.14
4.79
4.42
4.09
3.85
3.70
3.61
3.53
3.42
3.25
3.07
2.91
2.81
2.76
2.71
2.59
2.34
1.90
1.27
0.45
-0.48
-1.43
-2.28
-2.93
-3.37
-3.65
-3.91
-4.32
-4.98
-5.91
-6.97
-7.88
-8.29
-7.94
-6.73
-4.80
-2.48
-0.19
1.75
3.16
4.04
4.51
4.74
4.85
4.90
4.90
4.84
4.67
4.41
4.07
3.67
3.25
2.82
2.41
2.05
1.75
1.55
1.43
1.36
1.23
0.97
0.54
-0.05
-0.73
-1.42
-2.07
-2.66
-3.19
-3.65
-4.04
-4.36
-4.65
-4.96
-5.32
-5.74
-6.14
-6.35
-6.14
-5.31
-3.76
-1.54
1.09
3.78
6.16
7.95
9.10
9.70
9.96
10.09
10.24
10.45
10.72
11.00
11.26
11.45
11.56
11.58
11.54
11.49
11.44
11.37
11.22
10.86
10.24
9.35
8.27
7.12
6.01
4.94
3.82
2.54
0.99
-0.85
-2.88
-4.93
-6.82
-8.41
-9.68
-10.69
-11.56
-12.43
-13.37
-14.35
-15.26
-15.88
-15.96
-15.29
-13.79
-11.62
-9.12
-6.76
-4.99
-4.08
-4.06
-4.75
-5.86
-7.11
-8.31
-9.34
-10.13
-10.67
-11.01
-11.25
-11.55
-12.06
-12.79
-13.65
-14.39
-14.78
-14.68
-14.13
-13.32
-12.53
-11.96
-11.70
-11.67
-11.77
-11.86
-11.91
-11.97
-12.13
-12.47
-12.99
-13.65
-14.36
-15.02
-15.57
-15.92
-15.99
-15.71
-15.05
-14.04
-12.67
-10.91
-8.64
-5.67
-1.85
2.82
8.15
13.71
19.04
23.73
27.54
30.42
32.50
33.99
35.16
36.23
37.42
38.86
40.56
42.39
44.16
45.63
46.64
47.18
47.38
47.47
47.64
47.94
48.25
48.21
47.39
45.39
42.04
37.41
31.82
25.72
19.50
13.41
7.59
2.13
-2.81
-7.00
-10.19
-12.25
-13.26
-13.47
-13.28
-13.07
-13.15
-13.76
-15.03
-16.97
-19.42
-22.02
-24.27
-25.66
-25.82
-24.69
-22.56
-19.90
-17.28
-15.15
-13.75
-13.15
-13.24
-13.84
-14.71
-15.61
-16.30
-16.69
-16.73
-16.54
-16.24
-15.98
-15.81
-15.73
-15.68
-15.59
-15.39
-14.99
-14.35
-13.41
-12.19
-10.84
-9.61
-8.85
-8.80
-9.48
-10.64
-11.80
-12.46
-12.24
-11.04
-9.02
-6.55
-3.99
-1.67
0.22
1.60
2.48
2.99
3.37
3.87
4.67
5.68
6.60
7.01
6.69
5.76
4.70
4.11
4.38
5.46
6.86
7.93
8.21
7.60
6.40
5.04
3.85
2.91
2.11
1.27
0.30
-0.76
-1.73
-2.45
-2.78
-2.75
-2.46
-2.13
-1.94
-1.97
-2.15
-2.31
-2.26
-1.97
-1.54
-1.21
-1.10
-1.23
-1.45
-1.63
-1.74
-1.92
-2.33
-3.10
-4.16
-5.30
-6.28
-6.95
-7.27
-7.31
-7.13
-6.72
-5.99
-4.89
-3.39
-1.62
0.24
1.96
3.39
4.44
5.11
5.48
5.64
5.67
5.56
5.24
4.58
3.53
2.18
0.69
-0.70
-1.80
-2.59
-3.17
-3.71
-4.31
-4.95
-5.50
-5.82
-5.92
-5.99
-6.36
-7.33
-9.00
-11.24
-13.71
-16.03
-17.87
-19.08
-19.73
-19.97
-20.00
-19.94
-19.80
-19.55
-19.12
-18.41
-17.27
-15.52
-12.92
-9.26
-4.54
1.03
6.95
12.64
17.56
21.42
24.20
26.09
27.37
28.26
28.83
29.05
28.87
28.28
27.34
26.14
24.66
22.92
20.92
18.76
16.58
14.61
13.08
12.18
12.02
12.50
13.48
14.77
16.06
16.91
16.87
15.72
13.34
9.73
4.93
-0.76
-6.79
-12.43
-17.12
-20.74
-23.73
-26.94
-30.14
-33.39
-36.48
-39.13
-41.23
-43.07
-45.18
-47.98
-51.44
-54.99
-57.94
-59.55
-59.27
-56.64
-51.20
-42.52
-30.48
-15.64
0.68
16.48
29.97
40.17
47.08
51.47
54.22
55.90
56.59
56.16
54.67
52.63
50.85
49.98
50.07
50.47
50.03
47.61
42.67
35.42
26.84
18.19
10.57
4.54
0.10
-3.13
-5.56
-7.46
-8.92
-9.93
-10.57
-11.10
-11.88
-13.27
-15.38
-17.95
-20.40
-22.04
-22.32
-21.16
-18.97
-16.53
-14.66
-13.87
-14.26
-15.48
-16.99
-18.27
-18.99
-19.00
-18.30
-16.92
-14.94
-12.47
-9.71
-6.95
-4.53
-2.73
-1.74
-1.55
-2.07
-3.05
-4.28
-5.50
-6.55
-7.33
-7.80
-8.04
-8.15
-8.26
-8.45
-8.73
-8.98
-9.09
-8.91
-8.40
-7.62
-6.83
-6.44
-6.89
-8.52
-11.32
-14.85
-18.30
-20.71
-21.41
-20.17
-17.33
-13.62
-9.83
-6.57
-4.08
-2.21
-0.53
1.52
4.47
8.59
13.80
19.69
25.57
30.77
34.77
37.37
38.53
38.38
37.01
34.51
31.05
26.90
22.46
18.11
14.18
10.84
8.13
5.93
4.02
2.12
-0.05
-2.64
-5.65
-8.89
-12.07
-14.98
-17.55
-19.88
-22.13
-24.46
-26.90
-29.40
-31.84
-34.05
-35.85
-37.02
-37.36
-36.75
-35.23
-32.97
-30.20
-27.13
-23.89
-20.56
-17.19
-13.85
-10.64
-7.59
-4.68
-1.74
1.42
4.95
8.88
13.06
17.19
20.84
23.60
25.16
25.45
24.68
23.35
22.14
21.78
22.88
25.72
30.24
35.97
42.16
48.03
52.90
56.44
58.60
59.58
59.62
58.86
57.36
55.14
52.24
48.77
44.83
40.40
35.36
29.47
22.60
14.86
6.62
-1.53
-8.92
-14.97
-19.33
-21.85
-22.65
-22.01
-20.41
-18.41
-16.55
-15.25
-14.68
-14.76
-15.22
-15.71
-15.97
-15.85
-15.33
-14.46
-13.28
-11.78
-9.95
-7.80
-5.41
-2.93
-0.52
1.66
3.50
4.97
6.10
6.93
7.51
7.85
7.93
7.68
7.05
5.98
4.44
2.51
0.30
-2.00
-4.23
-6.29
-8.18
-9.97
-11.75
-13.55
-15.32
-16.93
-18.17
-18.81
-18.67
-17.61
-15.65
-12.95
-9.85
-6.72
-3.91
-1.58
0.35
2.06
3.74
5.44
7.05
8.38
9.23
9.54
9.35
8.76
7.93
6.98
5.96
4.89
3.76
2.55
1.29
0.01
-1.22
-2.31
-3.15
-3.64
-3.64
-3.00
-1.60
0.61
3.56
7.06
10.88
14.76
18.46
21.64
23.86
24.59
23.41
20.23
15.43
9.83
4.44
0.14
-2.59
-3.74
-3.64
-2.75
-1.43
0.11
1.74
3.34
4.74
5.77
6.28
6.23
5.62
4.49
2.89
0.90
-1.25
-3.22
-4.58
-4.99
-4.29
-2.61
-0.31
2.17
4.40
6.03
6.81
6.59
5.36
3.29
0.75
-1.76
-3.71
-4.82
-5.09
-4.87
-4.72
-5.25
-6.93
-9.89
-13.83
-18.03
-21.53
-23.46
-23.39
-21.45
-18.24
-14.58
-11.16
-8.36
-6.21
-4.57
-3.22
-2.01
-0.84
0.37
1.70
3.18
4.74
6.23
7.45
8.25
8.56
8.44
8.02
7.47
6.95
6.57
6.39
6.38
6.50
6.74
7.10
7.55
8.00
8.27
8.17
7.58
6.53
5.15
3.64
2.10
0.50
-1.25
-3.24
-5.41
-7.58
-9.50
-11.01
-12.07
-12.79
-13.35
-13.90
-14.47
-14.98
-15.33
-15.42
-15.25
-14.95
-14.74
-14.83
-15.36
-16.36
-17.71
-19.14
-20.36
-21.07
-21.08
-20.33
-18.87
-16.86
-14.58
-12.31
-10.28
-8.62
-7.26
-6.01
-4.58
-2.78
-0.52
2.10
4.84
7.43
9.69
11.53
12.99
14.14
15.05
15.75
16.25
16.58
16.76
16.79
16.63
16.19
15.40
14.23
12.76
11.17
9.68
8.46
7.64
7.20
7.07
7.12
7.14
6.95
6.44
5.59
4.56
3.60
2.93
2.62
2.59
2.63
2.66
2.75
3.21
4.41
6.58
9.64
13.19
16.65
19.40
21.08
21.63
21.31
20.54
19.79
19.29
19.01
18.62
17.66
15.67
12.44
8.05
2.94
-2.29
-6.99
-10.68
-13.13
-14.42
-14.83
-14.78
-14.74
-15.14
-16.33
-18.46
-21.44
-24.86
-28.06
-30.36
-31.23
-30.58
-28.77
-26.44
-24.28
-22.71
-21.82
-21.42
-21.24
-21.10
-20.98
-20.91
-20.87
-20.70
-20.09
-18.74
-16.51
-13.46
-9.85
-5.98
-2.11
1.59
5.01
8.05
10.65
12.71
14.24
15.27
15.87
16.09
15.98
15.58
15.01
14.42
13.95
13.62
13.31
12.77
11.77
10.27
8.38
6.37
4.44
2.60
0.72
-1.41
-3.82
-6.34
-8.63
-10.40
-11.61
-12.52
-13.59
-15.18
-17.34
-19.76
-21.84
-23.01
-22.91
-21.54
-19.20
-16.35
-13.40
-10.61
-8.01
-5.51
-2.92
-0.14
2.87
6.02
9.19
12.27
15.13
17.72
19.93
21.61
22.60
22.77
22.10
20.70
18.76
16.59
14.47
12.64
11.25
10.37
9.97
9.98
10.29
10.75
11.20
11.50
11.54
11.28
10.74
10.01
9.19
8.38
7.63
6.90
6.12
5.22
4.17
3.01
1.83
0.69
-0.42
-1.54
-2.73
-3.97
-5.20
-6.33
-7.37
-8.42
-9.59
-10.90
-12.15
-13.02
-13.16
-12.47
-11.13
-9.53
-8.08
-6.95
-6.03
-5.06
-3.82
-2.35
-0.94
0.03
0.33
-0.02
-0.72
-1.39
-1.73
-1.69
-1.43
-1.20
-1.20
-1.40
-1.63
-1.68
-1.45
-1.00
-0.54
-0.28
-0.26
-0.38
-0.41
-0.16
0.39
1.10
1.73
2.11
2.21
2.07
1.81
1.49
1.11
0.70
0.30
0.02
-0.02
0.23
0.71
1.31
1.90
2.36
2.63
2.66
2.39
1.79
0.91
-0.06
-0.83
-1.06
-0.51
0.82
2.67
4.63
6.29
7.39
7.90
7.99
7.86
7.63
7.37
7.04
6.62
6.16
5.70
5.30
4.91
4.46
3.90
3.19
2.39
1.57
0.78
0.05
-0.64
-1.28
-1.84
-2.28
-2.58
-2.76
-2.90
-3.09
-3.40
-3.87
-4.50
-5.21
-5.91
-6.50
-6.89
-7.06
-7.05
-6.97
-6.96
-7.19
-7.73
-8.58
-9.61
-10.60
-11.25
-11.31
-10.62
-9.22
-7.30
-5.15
-3.07
-1.26
0.21
1.37
2.30
3.08
3.70
4.13
4.35
4.36
4.24
4.08
4.00
4.08
4.33
4.71
5.13
5.46
5.63
5.58
5.30
4.82
4.18
3.45
2.72
2.08
1.56
1.18
0.89
0.62
0.30
-0.10
-0.54
-1.01
-1.46
-1.90
-2.37
-2.89
-3.45
-4.00
-4.52
-4.97
-5.37
-5.79
-6.33
-7.08
-8.08
-9.28
-10.49
-11.41
-11.71
-11.16
-9.67
-7.41
-4.71
-1.98
0.40
2.23
3.49
4.30
4.82
5.18
5.42
5.55
5.61
5.62
5.64
5.71
5.78
5.77
5.59
5.20
4.64
4.00
3.38
2.88
2.55
2.41
2.40
2.44
2.37
2.07
1.45
0.57
-0.37
-1.03
-1.03
-0.01
2.21
5.57
9.69
13.87
17.29
19.16
19.05
16.94
13.28
8.73
3.97
-0.59
-4.76
-8.57
-12.12
-15.49
-18.67
-21.56
-24.00
-25.76
-26.57
-26.23
-24.62
-21.87
-18.29
-14.29
-10.32
-6.71
-3.65
-1.24
0.52
1.68
2.36
2.74
3.02
3.40
4.01
4.88
6.00
7.33
8.84
10.50
12.25
13.96
15.51
16.75
17.53
17.73
17.26
16.05
14.15
11.71
8.98
6.27
3.88
2.00
0.69
-0.10
-0.50
-0.70
-0.87
-1.15
-1.64
-2.38
-3.30
-4.32
-5.37
-6.39
-7.43
-8.62
-10.14
-12.04
-14.30
-16.74
-19.03
-20.85
-21.86
-21.83
-20.76
-18.83
-16.37
-13.88
-11.82
-10.50
-10.06
-10.29
-10.85
-11.43
-11.79
-11.83
-11.49
-10.77
-9.61
-8.08
-6.15
-3.90
-1.47
1.01
3.50
5.94
8.17
9.98
11.10
11.60
11.81
12.23
12.75
13.20
13.38
13.08
12.95
12.85
12.81
13.18
13.88
15.20
17.43
20.65
24.61
28.73
32.24
34.56
35.45
35.04
33.73
32.08
30.49
29.19
28.24
27.56
27.15
27.05
27.20
27.48
27.75
27.79
27.42
26.52
24.94
22.61
19.38
15.06
9.54
2.85
-4.87
-13.34
-22.21
-31.14
-39.66
-47.19
-53.08
-56.76
-58.00
-57.03
-54.55
-51.43
-48.40
-45.77
-43.38
-40.81
-37.68
-33.81
-29.31
-24.50
-19.72
-15.22
-11.12
-7.50
-4.36
-1.69
0.55
2.39
3.91
5.15
6.17
7.06
7.89
8.80
9.88
11.16
12.54
13.80
14.68
14.93
14.46
13.35
11.76
9.82
7.59
5.05
2.21
-0.83
-3.82
-6.43
-8.43
-9.72
-10.32
-10.29
-9.66
-8.42
-6.63
-4.51
-2.43
-0.77
0.23
0.62
0.74
1.04
1.89
3.36
5.26
7.24
8.95
10.19
10.92
11.19
11.06
10.48
9.33
7.49
4.99
2.04
-0.94
-3.45
-5.11
-5.71
-5.34
-4.27
-2.91
-1.62
-0.67
-0.19
-0.16
-0.47
-1.01
-1.66
-2.35
-3.07
-3.78
-4.47
-5.03
-5.36
-5.37
-5.04
-4.46
-3.75
-3.07
-2.45
-1.84
-1.09
-0.02
1.45
3.29
5.33
7.30
8.97
10.14
10.79
10.98
10.89
10.74
10.74
11.01
11.58
12.36
13.16
13.76
13.98
13.77
13.27
12.75
12.54
12.88
13.90
15.52
17.51
19.50
21.18
22.24
22.60
22.40
21.87
21.25
20.55
19.47
17.53
14.30
9.64
3.87
-2.34
-8.25
-13.36
-17.49
-20.78
-23.47
-25.71
-27.52
-28.86
-29.86
-30.92
-32.62
-35.59
-40.21
-46.36
-53.39
-60.20
-65.54
-68.38
-68.18
-65.12
-59.93
-53.59
-46.90
-40.28
-33.73
-27.00
-19.86
-12.25
-4.29
3.75
11.63
19.09
25.85
31.55
35.82
38.38
39.16
38.41
36.64
34.43
32.25
30.34
28.68
27.12
25.47
23.68
21.85
20.20
19.00
18.37
18.29
18.59
19.05
19.51
19.86
20.07
20.10
19.92
19.48
18.79
17.84
16.67
15.32
13.83
12.23
10.54
8.72
6.71
4.36
1.53
-1.89
-5.80
-9.86
-13.54
-16.26
-17.64
-17.66
-16.65
-15.11
-13.51
-12.07
-10.75
-9.35
-7.69
-5.76
-3.68
-1.62
0.33
2.17
4.02
5.94
7.94
9.89
11.66
13.08
14.10
14.67
14.77
14.41
13.66
12.72
11.91
11.57
11.88
12.69
13.54
13.79
12.95
10.87
7.87
4.56
1.55
-0.76
-2.37
-3.53
-4.57
-5.75
-7.10
-8.46
-9.63
-10.42
-10.77
-10.74
-10.42
-9.90
-9.15
-8.14
-6.85
-5.47
-4.29
-3.62
-3.57
-3.92
-4.24
-4.00
-2.93
-1.06
1.29
3.74
6.07
8.25
10.45
12.83
15.41
18.00
20.25
21.78
22.29
21.48
19.10
14.80
8.27
-0.51
-10.98
-21.86
-31.45
-38.18
-41.31
-41.23
-39.28
-37.05
-35.56
-34.84
-34.15
-32.52
-29.38
-24.84
-19.56
-14.38
-9.98
-6.79
-5.00
-4.73
-6.02
-8.65
-12.11
-15.62
-18.37
-19.87
-20.11
-19.50
-18.77
-18.61
-19.34
-20.75
-22.20
-22.77
-21.77
-18.78
-13.85
-7.62
-1.07
4.80
9.34
12.38
14.14
14.87
15.01
14.81
14.06
12.13
8.38
2.50
-5.21
-14.03
-23.15
-31.41
-37.72
-41.57
-43.07
-42.68
-40.92
-38.26
-35.29
-32.85
-30.99
-28.84
-25.03
-18.11
-6.99
8.43
26.82
46.68
62.65
69.45
65.91
55.40
42.91
32.32
24.46
18.95
14.95
11.57
8.85
7.85
8.94
11.49
14.27
16.02
16.13
14.62
11.93
9.09
7.14
6.34
6.25
6.27
6.23
6.67
8.40
11.81
16.73
22.27
26.93
29.39
29.24
27.27
25.10
24.29
25.52
28.54
32.34
35.56
37.01
36.10
32.87
27.84
21.62
14.68
7.34
-0.09
-7.17
-13.44
-18.38
-21.70
-23.50
-24.46
-25.58
-27.75
-31.16
-35.14
-38.58
-40.41
-40.23
-38.38
-35.81
-33.47
-31.73
-29.98
-27.09
-22.10
-14.78
-5.80
3.63
12.18
18.70
21.91
21.43
18.24
14.24
11.47
10.70
12.00
14.91
18.53
21.60
22.97
21.97
18.61
13.71
8.70
5.23
4.59
7.18
12.26
18.32
23.53
26.29
25.77
22.11
16.29
9.91
4.54
1.18
0.06
0.83
2.87
5.75
9.34
13.42
17.89
22.37
26.00
27.71
26.73
23.00
17.03
9.64
1.22
-7.52
-15.65
-22.49
-27.94
-32.65
-37.81
-44.80
-54.44
-67.00
-80.73
-92.41
-98.77
-97.83
-89.45
-75.16
-57.69
-36.55
-15.23
1.86
12.86
19.21
23.43
27.01
30.15
32.46
33.87
34.16
33.83
33.46
32.94
31.42
27.96
22.55
15.87
9.41
4.24
1.48
1.87
5.20
10.28
15.09
17.84
17.63
14.82
10.44
6.23
3.88
4.15
6.98
11.09
14.78
16.84
17.15
16.13
14.50
12.65
10.34
7.32
2.95
-2.68
-8.84
-14.64
-19.66
-23.78
-27.12
-30.01
-31.85
-32.61
-32.29
-31.00
-28.07
-23.91
-19.65
-16.36
-15.00
-14.78
-14.81
-14.27
-12.55
-9.72
-6.55
-3.96
-2.55
-2.45
-3.15
-4.08
-4.48
-3.52
-0.66
4.20
10.80
18.46
26.20
33.01
37.93
40.53
41.04
40.12
38.40
36.29
33.79
30.65
26.69
22.02
17.27
13.38
11.10
10.51
11.05
11.71
11.52
10.07
7.54
4.48
1.41
-1.51
-4.55
-8.08
-12.26
-16.81
-21.16
-24.66
-26.85
-27.68
-27.41
-26.42
-24.94
-22.98
-20.34
-16.80
-12.34
-7.17
-1.73
3.49
8.17
12.25
15.89
19.23
22.24
24.66
26.09
26.22
24.93
22.52
19.68
17.28
15.98
16.03
17.22
19.09
21.10
22.56
23.07
22.45
20.71
17.77
13.56
8.18
2.03
-4.16
-9.96
-15.02
-19.14
-22.24
-24.47
-26.09
-27.33
-28.42
-29.67
-31.96
-35.99
-41.71
-48.26
-54.43
-59.11
-61.50
-61.17
-55.09
-42.19
-24.28
-5.34
10.79
21.63
26.27
25.20
20.00
12.80
5.10
-2.23
-8.77
-14.18
-18.07
-20.26
-20.22
-17.84
-13.71
-9.33
-6.15
-4.81
-4.82
-5.11
-4.68
-3.04
-0.37
2.76
5.73
8.42
10.78
13.21
15.77
17.98
19.09
18.57
16.57
13.82
11.38
10.07
10.15
11.18
12.39
13.25
13.69
14.10
14.92
16.38
18.37
20.68
23.20
26.04
29.47
33.61
38.07
41.85
43.61
42.17
37.03
28.58
17.98
6.81
-3.52
-12.13
-18.86
-24.12
-28.47
-32.13
-34.73
-35.35
-33.02
-27.29
-18.81
-9.24
-0.71
5.02
7.37
7.01
5.43
4.14
3.98
5.00
6.77
8.87
11.01
13.05
14.67
15.29
14.33
11.55
7.33
2.55
-1.86
-5.32
-7.81
-9.63
-10.99
-11.73
-11.33
-9.25
-5.32
0.09
6.21
12.16
17.28
21.28
24.19
26.10
27.05
26.94
25.62
23.00
19.22
14.68
10.11
6.37
4.35
4.63
7.19
11.38
16.02
19.85
22.02
22.35
21.36
19.81
18.24
16.61
14.44
11.22
6.82
1.78
-2.84
-5.95
-6.87
-5.67
-3.06
-0.17
1.90
2.35
1.00
-1.83
-5.43
-8.94
-11.72
-13.53
-14.53
-15.15
-15.84
-16.91
-18.38
-20.15
-22.07
-24.07
-26.11
-28.08
-29.83
-31.26
-32.52
-33.98
-36.14
-39.18
-42.73
-45.89
-47.59
-47.16
-44.66
-40.92
-37.03
-33.83
-31.50
-29.63
-27.48
-24.51
-20.59
-16.04
-11.42
-7.25
-3.83
-1.12
1.20
3.56
6.35
9.70
13.42
17.02
19.94
21.78
22.38
21.92
20.70
19.03
17.12
15.06
12.91
10.77
8.81
7.20
6.01
5.22
4.70
4.26
3.82
3.36
2.92
2.65
2.67
3.12
4.08
5.57
7.43
9.40
11.11
12.21
12.53
12.14
11.29
10.36
9.65
9.28
9.20
9.25
9.33
9.43
9.67
10.22
11.14
12.31
13.47
14.31
14.62
14.45
14.07
13.88
14.23
15.19
16.57
17.98
19.05
19.65
19.95
20.30
21.09
22.54
24.57
26.82
28.68
29.43
28.33
24.89
18.90
10.65
0.88
-9.27
-18.56
-25.92
-30.71
-32.84
-32.80
-31.41
-29.60
-28.15
-27.54
-27.89
-29.09
-30.84
-32.79
-34.55
-35.75
-36.09
-35.39
-33.68
-31.09
-27.86
-24.20
-20.27
-16.24
-12.33
-8.84
-6.05
-4.10
-2.96
-2.40
-2.12
-1.87
-1.50
-0.98
-0.44
-0.14
-0.43
-1.69
-4.10
-7.57
-11.62
-15.49
-18.36
-19.58
-18.86
-16.40
-12.80
-8.99
-5.90
-4.23
-4.13
-5.10
-5.98
-5.43
-2.48
2.88
9.65
16.14
20.78
22.88
23.00
22.56
23.08
25.28
28.74
32.19
34.25
34.09
31.69
27.62
22.45
16.40
9.33
1.02
-8.48
-18.69
-28.90
-38.48
-47.20
-55.29
-63.19
-71.30
-79.70
-88.05
-95.60
-101.27
-103.74
-101.69
-94.10
-80.72
-62.35
-40.82
-18.63
1.79
18.74
31.54
40.49
46.36
49.94
51.82
52.35
51.93
51.11
50.46
50.38
50.87
51.52
51.71
50.92
48.99
46.18
43.10
40.38
38.45
37.36
36.72
35.96
34.50
32.04
28.64
24.78
21.12
18.16
16.22
15.33
15.39
16.14
17.14
17.80
17.49
15.59
11.73
6.07
-0.63
-7.13
-12.20
-15.05
-15.54
-13.95
-10.88
-7.05
-2.94
1.18
5.29
9.31
12.99
15.98
18.20
19.58
20.02
19.45
17.82
15.33
12.24
8.82
3.92
-2.41
-9.13
-14.88
-18.45
-20.35
-21.17
-21.28
-20.97
-20.32
-19.14
-17.43
-15.51
-13.85
-12.96
-12.90
-13.47
-14.23
-14.69
-14.25
-12.66
-10.11
-7.06
-4.13
-1.70
-0.04
0.70
0.56
-0.09
-0.79
-1.07
-0.59
0.72
2.72
5.02
7.07
8.45
9.04
8.99
8.59
8.18
7.92
7.87
7.89
7.75
7.19
6.10
4.54
2.81
1.34
0.57
0.81
2.02
3.87
5.79
7.27
8.00
8.03
7.72
7.62
8.26
10.01
12.99
17.00
21.49
25.64
28.50
29.24
27.45
23.34
17.65
11.51
5.95
1.67
-1.13
-2.67
-3.32
-3.44
-3.24
-2.86
-2.49
-2.40
-2.90
-4.27
-6.58
-9.66
-13.11
-16.45
-19.26
-21.31
-22.58
-23.19
-23.34
-23.15
-22.60
-21.56
-19.95
-17.81
-15.44
-13.34
-12.00
-11.72
-12.51
-14.01
-15.75
-17.32
-18.57
-19.60
-20.63
-21.84
-23.22
-24.56
-25.53
-25.79
-25.06
-23.16
-20.00
-15.64
-10.25
-4.15
2.24
8.52
14.43
19.85
24.70
28.82
31.87
33.39
33.06
30.89
27.38
23.30
19.44
16.23
13.70
11.58
9.60
7.73
6.22
5.37
5.35
6.03
7.04
8.00
8.65
8.99
9.18
9.42
9.77
10.14
10.35
10.23
9.74
8.94
8.01
7.13
6.38
5.74
5.10
4.35
3.42
2.33
1.12
-0.09
-1.17
-1.91
-2.13
-1.65
-0.48
1.19
3.05
4.77
6.18
7.28
8.23
9.18
10.13
10.91
11.31
11.18
10.58
9.74
8.96
8.47
8.33
8.39
8.41
8.17
7.55
6.59
5.44
4.29
3.26
2.42
1.74
1.20
0.79
0.51
0.36
0.31
0.27
0.17
-0.06
-0.46
-1.10
-2.11
-3.67
-5.95
-9.02
-12.80
-16.97
-21.11
-24.74
-27.51
-29.22
-29.87
-29.65
-28.88
-27.94
-27.19
-26.86
-27.01
-27.49
-27.99
-28.24
-28.09
-27.54
-26.67
-25.46
-23.80
-21.49
-18.43
-14.74
-10.76
-6.93
-3.56
-0.70
1.86
4.43
7.15
9.91
12.40
14.25
15.28
15.59
15.45
15.20
15.04
14.94
14.71
14.09
12.86
10.94
8.34
5.16
1.55
-2.23
-5.78
-8.57
-10.03
-9.77
-7.82
-4.69
-1.27
1.46
2.71
2.15
-0.10
-3.59
-7.71
-11.89
-15.60
-18.41
-19.99
-20.11
-18.75
-16.10
-12.56
-8.64
-4.79
-1.31
1.71
4.34
6.74
9.07
11.37
13.58
15.44
16.60
16.71
15.51
12.95
9.21
4.75
0.11
-4.15
-7.67
-10.32
-12.24
-13.70
-14.96
-16.17
-17.23
-17.93
-17.96
-17.10
-15.29
-12.70
-9.65
-6.57
-3.86
-1.73
-0.14
1.11
2.29
3.59
5.02
6.39
7.51
8.25
8.61
8.74
8.83
9.01
9.39
10.13
11.42
13.44
16.24
19.61
23.05
25.92
27.66
27.99
26.96
24.83
21.83
18.07
13.50
8.08
2.03
-4.16
-9.76
-14.06
-16.71
-17.81
-17.90
-17.64
-17.56
-17.84
-18.28
-18.47
-18.00
-16.66
-14.50
-11.79
-8.91
-6.19
-3.88
-2.05
-0.60
0.64
1.86
3.17
4.56
5.93
7.15
8.17
9.07
9.99
11.07
12.32
13.55
14.49
14.89
14.68
14.06
13.35
12.89
12.84
13.13
13.50
13.67
13.41
12.63
11.35
9.59
7.44
4.99
2.39
-0.09
-2.19
-3.74
-4.70
-5.23
-5.52
-5.70
-5.68
-5.18
-3.83
-1.42
1.97
5.97
10.05
13.68
16.51
18.41
19.40
19.52
18.82
17.34
15.13
12.34
9.21
6.02
3.04
0.49
-1.52
-2.89
-3.59
-3.51
-2.58
-0.76
1.91
5.23
8.87
12.39
15.31
17.19
17.64
16.43
13.48
8.92
3.11
-3.38
-9.93
-15.96
-21.14
-25.33
-28.60
-31.07
-32.90
-34.19
-34.98
-35.25
-34.92
-33.90
-32.11
-29.56
-26.40
-22.90
-19.46
-16.40
-13.93
-12.07
-10.64
-9.43
-8.28
-7.19
-6.32
-5.88
-6.04
-6.78
-7.97
-9.36
-10.74
-11.97
-12.90
-13.34
-12.98
-11.56
-9.06
-5.81
-2.50
0.11
1.50
1.55
0.41
-1.72
-4.79
-8.80
-13.55
-18.30
-21.99
-23.57
-22.63
-19.70
-16.03
-12.93
-11.07
-10.17
-9.20
-7.03
-3.04
2.56
8.93
15.07
20.25
24.19
27.00
28.95
30.24
30.92
30.93
30.24
28.95
27.36
25.88
24.92
24.69
25.19
26.16
27.23
28.07
28.52
28.60
28.45
28.12
27.45
26.12
23.78
20.39
16.35
12.48
9.67
8.52
8.95
10.27
11.46
11.62
10.32
7.66
4.07
0.06
-3.92
-7.53
-10.43
-12.22
-12.54
-11.22
-8.33
-4.20
0.70
5.99
11.42
16.93
22.63
28.68
35.24
42.19
49.05
54.90
58.58
59.17
56.43
50.91
43.78
36.29
29.29
23.04
17.39
12.13
7.27
3.07
-0.27
-2.75
-4.68
-6.54
-8.76
-11.59
-15.17
-19.55
-24.72
-30.54
-36.67
-42.59
-47.76
-51.79
-54.54
-56.07
-56.54
-56.03
-54.57
-52.27
-49.39
-46.46
-44.05
-42.61
-42.25
-42.72
-43.57
-44.38
-44.93
-45.28
-45.52
-45.65
-45.36
-44.10
-41.30
-36.63
-30.18
-22.44
-14.07
-5.78
1.87
8.45
13.62
17.13
18.93
19.24
18.56
17.55
16.76
16.44
16.44
16.39
15.93
14.86
13.27
11.36
9.37
7.40
5.49
3.64
1.93
0.51
-0.42
-0.68
-0.18
0.99
2.59
4.27
5.63
6.36
6.34
5.68
4.67
3.68
2.99
2.65
2.52
2.34
1.89
1.13
0.16
-0.81
-1.65
-2.34
-2.97
-3.69
-4.60
-5.73
-7.02
-8.38
-9.70
-10.86
-11.76
-12.33
-12.50
-12.26
-11.62
-10.59
-9.22
-7.58
-5.72
-3.62
-1.14
1.95
5.91
10.84
16.53
22.46
27.86
31.97
34.25
34.58
33.23
30.73
27.69
24.64
21.94
19.78
18.19
17.07
16.26
15.53
14.64
13.41
11.75
9.75
7.65
5.75
4.37
3.71
3.78
4.43
5.35
6.18
6.64
6.57
6.06
5.42
4.97
4.95
5.26
5.53
5.20
3.78
1.15
-2.35
-5.94
-8.60
-9.45
-8.01
-4.36
0.86
6.61
11.67
14.83
15.33
13.09
8.90
4.19
0.55
-0.99
-0.35
1.60
3.50
4.11
2.84
-0.20
-4.37
-8.88
-12.97
-16.03
-17.60
-17.49
-15.86
-13.28
-10.59
-8.47
-7.16
-6.42
-5.69
-4.55
-2.88
-0.95
0.75
1.79
1.95
1.28
0.03
-1.38
-2.50
-2.91
-2.28
-0.47
2.44
6.18
10.40
14.71
18.85
22.72
26.29
29.38
31.47
31.48
27.94
19.44
5.26
-13.96
-36.03
-57.62
-75.08
-85.55
-87.82
-82.69
-72.66
-61.16
-51.58
-46.29
-46.07
-49.84
-55.06
-58.55
-57.65
-51.16
-39.73
-25.43
-10.80
2.15
12.60
20.72
27.14
32.21
35.82
37.60
37.51
36.15
34.67
34.25
35.48
38.08
41.17
43.68
44.84
44.26
41.74
37.08
30.15
21.19
11.08
1.26
-6.77
-12.05
-14.50
-14.72
-13.54
-11.39
-8.24
-3.80
1.84
7.95
13.20
16.14
15.84
12.24
6.11
-1.25
-8.47
-14.46
-18.63
-20.90
-21.55
-20.95
-19.29
-16.47
-12.13
-5.97
2.01
11.36
21.17
30.37
38.07
43.71
47.18
48.73
48.77
47.78
46.22
44.47
42.88
41.67
40.93
40.63
40.62
40.74
40.90
41.09
41.31
41.57
41.76
41.65
40.89
39.08
35.88
31.09
24.81
17.52
10.04
3.31
-1.96
-5.82
-9.29
-14.16
-22.27
-34.49
-50.04
-66.32
-79.70
-86.81
-85.76
-76.70
-61.69
-43.71
-25.98
-11.53
-3.23
-3.85
-15.37
-37.88
-68.57
-101.87
-130.83
-149.35
-154.12
-145.33
-125.98
-100.27
-72.23
-44.89
-20.41
-0.36
14.24
23.11
27.01
27.59
26.90
26.64
27.76
30.37
34.05
38.09
41.71
44.32
45.62
45.76
45.29
44.83
44.81
45.25
45.75
45.82
45.26
44.26
43.31
42.87
42.98
43.16
42.51
40.07
35.29
28.33
20.07
11.90
5.15
0.68
-1.43
-1.76
-1.28
-0.82
-0.81
-1.20
-1.70
-2.04
-2.23
-2.52
-3.20
-4.39
-5.94
-7.45
-8.52
-8.90
-8.64
-8.04
-7.50
-7.32
-7.57
-8.08
-8.52
-8.64
-8.30
-7.50
-6.32
-4.80
-2.94
-0.78
1.54
3.73
5.45
6.40
6.47
5.77
4.64
3.45
2.55
2.18
2.37
2.99
3.74
4.27
4.27
3.62
2.40
0.89
-0.64
-1.99
-3.13
-4.19
-5.42
-7.10
-9.53
-12.94
-17.39
-22.63
-28.04
-32.74
-35.84
-36.76
-35.47
-32.47
-28.60
-24.75
-21.54
-19.17
-17.48
-16.09
-14.59
-12.77
-10.61
-8.30
-6.09
-4.12
-2.36
-0.57
1.52
4.12
7.22
10.61
13.95
16.81
18.75
19.33
18.19
15.20
10.70
5.54
0.90
-2.09
-2.79
-1.37
1.31
4.07
5.93
6.48
5.96
5.00
4.26
4.18
4.86
6.17
7.95
10.07
12.44
14.94
17.39
19.57
21.38
22.90
24.34
25.88
27.48
28.76
29.11
27.97
25.09
20.78
15.77
10.94
7.00
4.31
2.83
2.30
2.41
2.90
3.56
4.15
4.36
3.89
2.52
0.25
-2.57
-5.39
-7.60
-8.74
-8.67
-7.54
-5.74
-3.65
-1.57
0.36
2.05
3.41
4.25
4.36
3.60
1.94
-0.44
-3.20
-5.97
-8.38
-10.20
-11.37
-11.94
-12.13
-12.20
-12.42
-13.01
-14.07
-15.50
-17.09
-18.46
-19.23
-19.10
-17.96
-15.92
-13.30
-10.52
-8.00
-6.04
-4.78
-4.13
-3.87
-3.69
-3.33
-2.73
-1.97
-1.30
-0.90
-0.86
-1.02
-1.16
-1.08
-0.72
-0.18
0.35
0.71
0.85
0.80
0.65
0.46
0.29
0.17
0.14
0.25
0.43
0.55
0.37
-0.37
-1.75
-3.66
-5.72
-7.43
-8.34
-8.18
-6.99
-5.07
-2.81
-0.58
1.39
3.02
4.27
5.10
5.44
5.23
4.51
3.44
2.25
1.21
0.54
0.33
0.65
1.53
3.02
5.19
7.99
11.31
14.90
18.49
21.80
24.61
26.73
27.95
28.02
26.73
24.00
20.02
15.21
10.08
5.11
0.56
-3.54
-7.23
-10.51
-13.22
-15.09
-15.87
-15.47
-14.01
-11.70
-8.82
-5.59
-2.19
1.20
4.38
7.13
9.35
11.02
12.27
13.20
13.80
13.88
13.18
11.40
8.47
4.51
-0.06
-4.72
-8.87
-12.05
-13.99
-14.67
-14.36
-13.50
-12.64
-12.22
-12.52
-13.54
-15.12
-16.99
-18.88
-20.54
-21.76
-22.32
-22.05
-20.83
-18.71
-15.92
-12.87
-10.03
-7.71
-6.04
-4.93
-4.13
-3.41
-2.69
-2.05
-1.71
-1.84
-2.50
-3.52
-4.60
-5.41
-5.71
-5.45
-4.76
-3.80
-2.72
-1.58
-0.32
1.09
2.63
4.11
5.30
5.97
6.03
5.50
4.56
3.39
2.13
0.87
-0.35
-1.44
-2.28
-2.70
-2.64
-2.11
-1.30
-0.40
0.45
1.26
2.15
3.32
4.86
6.70
8.61
10.27
11.44
11.95
11.84
11.22
10.25
9.09
7.89
6.77
5.79
5.00
4.32
3.65
2.89
1.98
0.96
-0.08
-1.02
-1.79
-2.37
-2.81
-3.19
-3.62
-4.17
-4.89
-5.75
-6.66
-7.40
-7.77
-7.58
-6.73
-5.24
-3.29
-1.10
1.06
2.91
4.28
5.08
5.37
5.33
5.15
4.97
4.85
4.73
4.54
4.26
3.93
3.66
3.54
3.58
3.72
3.86
3.89
3.74
3.42
2.98
2.52
2.07
1.65
1.19
0.60
-0.19
-1.17
-2.24
-3.25
-3.99
-4.30
-4.10
-3.39
-2.24
-0.80
0.77
2.30
3.65
4.69
5.34
5.60
5.50
5.14
4.65
4.15
3.72
3.39
3.16
3.01
2.94
2.94
3.02
3.12
3.12
2.91
2.37
1.43
0.15
-1.34
-2.90
-4.35
-5.56
-6.50
-7.18
-7.70
-8.13
-8.52
-8.82
-8.94
-8.71
-8.00
-6.73
-4.95
-2.82
-0.59
1.50
3.22
4.49
5.31
5.78
5.99
5.99
5.84
5.58
5.27
5.01
4.88
4.91
5.04
5.15
5.12
4.88
4.45
3.94
3.49
3.24
3.19
3.31
3.43
3.41
3.13
2.58
1.86
1.12
0.51
0.07
-0.28
-0.67
-1.21
-1.83
-2.36
-2.51
-2.07
-0.99
0.55
2.24
3.71
4.71
5.16
5.14
4.81
4.36
3.89
3.47
3.11
2.82
2.58
2.36
2.10
1.78
1.38
0.96
0.59
0.36
0.30
0.38
0.51
0.57
0.50
0.27
-0.07
-0.45
-0.82
-1.17
-1.52
-1.91
-2.37
-2.90
-3.42
-3.81
-3.93
-3.65
-2.93
-1.82
-0.50
0.81
1.91
2.64
2.97
2.99
2.85
2.66
2.48
2.29
1.99
1.56
1.03
0.52
0.15
0.01
0.10
0.37
0.71
1.04
1.27
1.33
1.18
0.80
0.26
-0.33
-0.84
-1.17
-1.34
-1.44
-1.59
-1.90
-2.40
-3.03
-3.68
-4.18
-4.40
-4.21
-3.58
-2.56
-1.29
0.00
1.15
2.01
2.52
2.67
2.50
2.06
1.43
0.71
0.04
-0.47
-0.73
-0.75
-0.59
-0.33
-0.05
0.20
0.39
0.50
0.49
0.37
0.17
-0.08
-0.30
-0.47
-0.62
-0.80
-1.10
-1.58
-2.24
-2.99
-3.68
-4.13
-4.18
-3.74
-2.80
-1.45
0.12
1.68
3.00
3.91
4.32
4.30
3.98
3.57
3.24
3.07
3.02
2.99
2.88
2.65
2.33
2.03
1.78
1.59
1.35
0.93
0.23
-0.78
-2.02
-3.38
-4.71
-5.84
-6.63
-7.02
-7.06
-6.94
-6.96
-7.34
-8.13
-9.15
-10.03
-10.36
-9.91
-8.64
-6.70
-4.29
-1.61
1.18
3.87
6.16
7.70
8.24
7.77
6.56
5.06
3.72
2.87
2.56
2.70
3.05
3.38
3.49
3.27
2.65
1.66
0.39
-0.98
-2.22
-3.10
-3.39
-2.93
-1.69
0.13
2.13
3.80
4.73
4.79
4.19
3.38
2.91
3.17
4.33
6.30
8.86
11.82
14.99
18.21
21.29
24.04
26.26
27.83
28.65
28.71
27.99
26.50
24.22
21.21
17.71
14.03
10.34
6.49
2.08
-3.28
-9.76
-17.06
-24.46
-30.80
-35.09
-37.05
-37.32
-37.06
-37.30
-38.53
-40.62
-42.96
-44.43
-44.01
-41.25
-36.51
-30.56
-24.22
-18.07
-12.50
-7.60
-2.59
3.72
12.30
23.38
36.35
50.01
62.56
71.80
73.09
63.25
43.47
19.78
-0.60
-13.13
-17.17
-14.85
-9.42
-3.63
1.47
6.03
10.62
14.88
17.78
18.52
17.03
14.00
10.54
7.94
7.02
7.71
8.95
9.41
8.14
5.01
0.48
-4.59
-9.11
-12.05
-12.93
-11.95
-9.80
-7.30
-5.18
-3.98
-3.99
-5.12
-7.07
-9.48
-11.99
-14.06
-14.94
-13.87
-10.57
-5.57
-0.21
3.79
5.00
2.89
-1.89
-7.87
-13.44
-17.56
-19.99
-21.12
-21.42
-21.09
-19.93
-17.65
-14.17
-9.86
-5.44
-1.78
0.40
0.78
-0.54
-3.14
-6.42
-9.71
-12.40
-13.98
-14.16
-12.89
-10.36
-6.96
-3.11
0.78
4.35
7.32
9.43
10.57
10.76
10.23
9.35
8.53
8.02
7.85
7.84
7.74
7.39
6.84
6.27
5.91
5.91
6.27
6.83
7.40
7.77
7.80
7.44
6.79
6.06
5.55
5.55
6.27
7.72
9.70
11.85
13.74
15.03
15.56
15.41
14.88
14.31
14.00
14.03
14.26
14.36
14.02
13.02
11.32
9.06
6.47
3.77
1.13
-1.34
-3.54
-5.42
-6.94
-8.20
-9.37
-10.65
-12.23
-14.16
-16.32
-18.47
-20.34
-21.68
-22.39
-22.45
-21.94
-20.96
-19.65
-18.13
-16.54
-15.01
-13.67
-12.59
-11.78
-11.20
-10.76
-10.41
-10.14
-9.95
-9.84
-9.81
-9.77
-9.63
-9.25
-8.54
-7.45
-6.02
-4.36
-2.63
-1.00
0.37
1.40
2.07
2.51
2.89
3.42
4.29
5.60
7.36
9.41
11.52
13.33
14.43
14.47
13.29
11.00
7.97
4.75
1.84
-0.53
-2.49
-4.43
-6.79
-9.81
-13.37
-17.02
-20.10
-22.00
-22.30
-20.86
-17.87
-13.79
-9.31
-5.20
-2.23
-0.94
-1.65
-4.27
-8.36
-13.20
-17.84
-21.36
-22.99
-22.25
-19.09
-13.84
-7.14
0.23
7.45
13.75
18.45
21.12
21.60
20.19
17.56
14.58
12.09
10.63
10.34
10.95
11.98
12.94
13.51
13.64
13.49
13.33
13.41
13.88
14.69
15.70
16.65
17.26
17.35
16.83
15.78
14.42
13.04
11.91
11.18
10.80
10.50
9.87
8.47
6.07
2.68
-1.45
-5.89
-10.16
-13.89
-16.87
-19.00
-20.33
-20.97
-21.07
-20.78
-20.31
-19.85
-19.51
-19.28
-18.99
-18.31
-16.95
-14.75
-11.83
-8.50
-5.20
-2.31
-0.03
1.64
2.81
3.64
4.18
4.44
4.37
3.96
3.29
2.54
1.97
1.82
2.22
3.13
4.36
5.57
6.47
6.88
6.77
6.29
5.64
5.03
4.62
4.46
4.56
4.79
5.02
5.13
5.07
4.87
4.59
4.35
4.27
4.46
5.00
5.95
7.35
9.21
11.40
13.64
15.64
17.18
18.24
18.97
19.67
20.65
21.99
23.48
24.73
25.44
25.55
25.32
24.83
24.22
23.50
22.51
20.99
18.81
16.11
13.36
11.21
9.59
8.30
6.94
5.02
1.95
-2.56
-8.33
-14.59
-20.33
-25.60
-30.52
-35.30
-40.23
-45.60
-51.44
-57.37
-62.70
-66.78
-70.36
-73.93
-77.40
-80.35
-82.40
-83.61
-84.65
-86.72
-84.27
-74.68
-57.86
-36.12
-12.63
9.05
24.58
29.59
21.59
1.80
-25.30
-52.90
-72.39
-76.88
-63.36
-33.37
8.07
54.39
98.87
131.74
148.46
150.02
140.19
122.90
101.28
78.06
56.17
38.53
26.77
21.90
22.68
26.70
31.17
33.77
33.52
30.74
26.61
22.31
19.28
18.29
19.10
20.76
22.15
22.48
21.54
19.56
17.03
14.92
14.05
14.70
16.31
17.61
17.07
13.45
6.50
-2.78
-12.21
-19.49
-23.03
-22.60
-19.14
-14.18
-9.13
-4.87
-1.79
-0.03
0.12
-1.72
-5.78
-11.79
-18.91
-26.00
-32.15
-36.99
-40.71
-43.79
-46.38
-48.08
-47.96
-45.05
-38.99
-30.41
-20.85
-12.15
-5.72
-2.01
-0.64
-0.92
-2.50
-5.59
-10.66
-17.72
-25.98
-33.93
-40.01
-43.49
-44.88
-45.62
-47.17
-50.28
-54.51
-58.42
-60.14
-57.98
-50.68
-37.55
-18.56
5.39
32.04
57.44
76.21
82.86
74.14
51.13
19.88
-10.31
-30.43
-35.56
-26.56
-9.15
9.40
23.79
32.51
37.35
41.02
45.18
49.66
53.30
55.17
55.23
54.09
52.09
48.81
43.50
35.72
25.77
14.85
4.50
-3.79
-8.64
-8.97
-4.58
2.97
10.07
11.71
3.98
-13.80
-37.98
-61.26
-75.79
-76.66
-64.18
-43.41
-21.56
-4.43
5.54
9.41
10.46
12.18
16.63
23.51
30.39
33.91
31.45
22.07
7.42
-8.49
-20.64
-25.09
-21.03
-11.25
-0.31
8.49
14.59
20.06
27.65
38.17
48.92
54.03
46.59
21.42
-18.94
-64.51
-103.60
-128.67
-137.02
-128.55
-104.69
-69.25
-28.99
7.35
31.19
38.55
31.33
15.64
-0.36
-9.98
-10.74
-4.16
6.56
18.42
29.98
41.45
54.05
66.23
76.21
82.66
85.57
86.30
86.08
85.10
82.20
76.07
66.04
52.31
36.18
19.61
4.29
-9.47
-22.06
-32.89
-39.12
-37.36
-27.84
-15.90
-10.48
-17.96
-40.13
-73.05
-108.13
-135.44
-144.55
-131.39
-98.56
-53.37
-5.04
37.72
66.94
74.71
61.70
37.76
14.52
-0.10
-3.22
4.01
17.50
32.00
42.97
47.95
45.96
36.56
20.75
1.15
-18.40
-34.26
-43.73
-45.00
-37.96
-24.94
-10.54
0.69
6.06
5.28
-0.16
-7.98
-15.88
-22.00
-25.44
-26.43
-25.63
-23.57
-20.51
-16.84
-13.18
-10.09
-7.76
-5.97
-4.40
-2.75
-0.86
1.18
2.95
4.02
4.25
3.86
3.34
3.18
3.71
5.04
7.07
9.59
12.41
15.47
18.76
22.25
25.80
29.10
31.84
33.75
34.83
35.29
35.51
35.81
36.30
36.86
37.21
37.06
36.28
34.83
32.78
30.14
26.89
23.10
18.99
14.89
11.10
7.83
5.10
2.83
0.79
-1.25
-3.60
-6.52
-10.10
-14.15
-18.15
-21.38
-23.25
-23.67
-23.03
-22.10
-21.62
-21.83
-22.51
-23.29
-23.94
-24.37
-24.31
-23.14
-20.20
-15.29
-9.24
-3.91
-1.38
-2.88
-7.95
-14.54
-20.02
-22.53
-21.75
-18.68
-14.73
-10.79
-6.79
-2.23
3.06
8.51
12.93
15.26
15.27
13.61
11.44
9.83
9.14
9.04
8.89
8.11
6.66
5.02
3.91
3.61
3.97
4.41
4.51
4.26
4.16
5.15
8.24
14.04
22.03
31.03
39.06
44.42
46.15
44.32
39.97
34.80
30.49
27.73
26.66
25.79
22.81
15.10
0.40
-22.45
-52.38
-83.84
-108.98
-121.85
-123.22
-117.94
-111.55
-108.19
-109.44
-113.82
-117.33
-117.67
-108.75
-87.68
-55.15
-15.04
27.06
65.98
98.95
126.23
142.11
147.15
144.25
135.90
122.80
105.06
83.75
61.62
42.08
27.52
19.88
18.23
19.73
21.20
20.85
17.91
12.98
7.17
1.31
-3.34
-6.85
-9.96
-13.25
-16.53
-18.95
-19.41
-17.38
-13.55
-9.06
-5.98
-6.04
-9.88
-16.52
-23.79
-29.31
-31.61
-30.63
-27.12
-22.43
-17.69
-13.37
-9.34
-5.43
-1.67
1.65
4.25
6.15
7.54
8.62
9.54
10.46
11.69
13.51
15.87
18.17
19.37
18.50
15.08
9.32
1.72
-7.27
-17.49
-28.87
-40.76
-51.55
-58.92
-60.80
-56.38
-46.71
-34.07
-21.17
-10.32
-3.00
0.23
-0.58
-4.97
-12.00
-20.05
-26.21
-26.85
-18.99
-1.95
21.60
45.73
62.91
66.91
55.46
32.16
4.87
-17.92
-30.76
-33.08
-28.54
-22.34
-16.94
-14.30
-14.20
-14.74
-14.88
-15.58
-18.60
-25.10
-33.21
-39.69
-41.80
-38.14
-29.33
-17.59
-5.14
5.75
13.94
19.45
22.81
24.26
24.04
22.25
18.83
13.97
8.31
3.06
-0.31
-0.66
2.34
8.38
16.45
25.06
32.59
37.67
39.44
37.68
32.71
25.41
17.30
10.21
5.75
4.80
7.21
11.91
17.25
21.48
23.30
22.28
18.93
14.36
9.89
6.55
4.83
4.58
5.24
6.11
6.64
6.55
5.78
4.34
2.24
-0.55
-4.02
-8.07
-12.47
-16.90
-20.89
-23.94
-25.62
-25.69
-24.30
-21.96
-19.42
-17.25
-15.56
-13.91
-11.53
-7.85
-2.88
2.75
8.02
12.09
14.61
15.62
15.25
13.43
10.00
5.16
-0.16
-4.48
-6.44
-5.69
-3.20
-0.64
0.62
0.49
0.12
1.10
4.18
8.65
12.66
14.30
12.74
8.61
3.42
-1.41
-5.30
-8.45
-11.33
-14.14
-16.62
-18.39
-19.28
-19.33
-18.49
-16.25
-11.79
-4.62
4.81
14.82
23.12
27.88
28.64
26.26
22.28
17.75
12.75
6.81
-0.16
-7.08
-12.03
-13.38
-10.98
-6.42
-2.28
-0.58
-1.63
-4.02
-5.50
-4.56
-1.22
3.25
7.43
10.67
13.24
15.92
19.15
22.82
26.07
27.73
27.08
24.33
20.51
16.96
14.94
15.19
18.13
23.22
28.91
33.29
35.00
33.90
31.08
28.34
27.31
29.12
33.31
37.92
40.56
39.54
34.33
25.16
12.29
-6.52
-30.85
-57.20
-80.87
-98.65
-109.93
-116.05
-119.45
-122.30
-125.18
-125.43
-118.65
-101.23
-72.53
-36.41
-0.40
27.20
42.10
43.78
36.33
25.75
17.01
12.66
12.32
13.95
15.40
15.72
15.03
14.45
14.55
15.10
16.38
17.93
20.55
25.28
32.76
42.30
52.51
61.13
62.17
53.12
36.58
18.05
1.72
-9.89
-18.17
-24.01
-27.99
-30.70
-32.28
-32.97
-33.23
-33.53
-33.75
-33.31
-31.16
-26.69
-20.08
-11.72
-2.60
5.87
12.33
16.15
17.41
17.03
15.98
14.97
14.64
15.17
16.29
17.42
18.16
18.27
17.89
17.20
16.40
15.76
15.45
15.44
15.50
15.41
15.02
14.38
13.61
12.83
12.12
11.49
10.78
9.88
8.73
7.44
6.21
5.18
4.35
3.62
2.87
2.03
1.12
0.22
-0.61
-1.33
-1.89
-2.21
-2.17
-1.72
-0.93
-0.04
0.61
0.74
0.19
-1.00
-2.67
-4.51
-6.17
-7.31
-7.72
-7.45
-6.82
-6.40
-6.72
-8.00
-9.98
-11.98
-13.21
-13.11
-11.62
-9.16
-6.39
-3.92
-2.06
-0.80
0.03
0.61
1.03
1.23
1.15
0.78
0.27
-0.15
-0.30
-0.11
0.29
0.67
0.85
0.73
0.41
0.01
-0.33
-0.62
-0.99
-1.60
-2.59
-3.93
-5.50
-7.05
-8.38
-9.30
-9.69
-9.50
-8.80
-7.73
-6.52
-5.44
-4.67
-4.30
-4.24
-4.31
-4.35
-4.27
-4.12
-4.00
-4.00
-4.10
-4.22
-4.24
-4.12
-3.92
-3.74
-3.69
-3.77
-3.89
-3.94
-3.81
-3.51
-3.06
-2.47
-1.74
-0.78
0.43
1.83
3.26
4.52
5.44
5.96
6.17
6.15
6.00
5.76
5.45
5.11
4.81
4.62
4.53
4.46
4.24
3.74
2.95
2.00
1.04
0.20
-0.54
-1.32
-2.30
-3.58
-5.16
-6.93
-8.73
-10.40
-11.76
-12.63
-12.86
-12.31
-10.97
-8.93
-6.36
-3.53
-0.66
2.06
4.49
6.53
8.10
9.18
9.80
10.02
9.97
9.74
9.38
8.89
8.26
7.54
6.82
6.20
5.74
5.38
5.00
4.45
3.68
2.77
1.86
1.10
0.58
0.24
-0.01
-0.26
-0.59
-1.01
-1.54
-2.19
-2.98
-3.86
-4.80
-5.73
-6.59
-7.36
-8.00
-8.45
-8.62
-8.45
-7.89
-6.96
-5.76
-4.39
-2.98
-1.64
-0.44
0.53
1.26
1.77
2.12
2.37
2.58
2.75
2.85
2.85
2.75
2.58
2.40
2.23
2.03
1.75
1.36
0.85
0.34
-0.06
-0.26
-0.29
-0.26
-0.35
-0.67
-1.23
-1.93
-2.61
-3.18
-3.63
-4.03
-4.45
-4.88
-5.18
-5.19
-4.77
-3.90
-2.74
-1.50
-0.41
0.42
1.04
1.57
2.10
2.65
3.12
3.36
3.28
2.88
2.32
1.79
1.43
1.31
1.38
1.57
1.84
2.14
2.44
2.68
2.75
2.54
2.00
1.14
0.02
-1.22
-2.43
-3.45
-4.12
-4.37
-4.28
-4.05
-3.97
-4.29
-5.06
-6.09
-7.05
-7.60
-7.52
-6.76
-5.46
-3.82
-2.03
-0.24
1.42
2.83
3.91
4.61
4.96
5.07
5.08
5.13
5.28
5.48
5.63
5.60
5.27
4.64
3.79
2.83
1.89
1.08
0.40
-0.19
-0.78
-1.45
-2.26
-3.21
-4.29
-5.48
-6.73
-7.97
-9.14
-10.19
-11.10
-11.84
-12.37
-12.66
-12.65
-12.30
-11.63
-10.68
-9.55
-8.35
-7.15
-6.03
-5.06
-4.34
-3.96
-3.94
-4.17
-4.47
-4.62
-4.44
-3.84
-2.82
-1.48
0.07
1.72
3.40
5.04
6.57
7.92
8.95
9.56
9.71
9.41
8.79
7.98
7.10
6.20
5.19
4.00
2.55
0.91
-0.85
-2.60
-4.33
-6.10
-8.01
-10.02
-11.91
-13.34
-14.00
-13.83
-13.09
-12.23
-11.72
-11.72
-12.01
-12.10
-11.51
-10.02
-7.79
-5.23
-2.78
-0.67
1.06
2.52
3.73
4.63
5.07
5.08
4.98
5.33
6.74
9.59
13.82
19.03
24.69
30.41
36.03
41.50
46.67
51.13
54.18
55.10
53.45
49.22
42.84
35.04
26.58
18.09
10.11
3.07
-2.62
-6.66
-8.94
-9.65
-9.26
-8.39
-7.59
-7.17
-7.08
-6.99
-6.50
-5.31
-3.41
-1.08
1.28
3.30
4.83
5.98
7.07
8.47
10.42
13.00
16.03
19.18
22.06
24.27
25.49
25.48
24.01
21.00
16.47
10.68
4.10
-2.73
-9.34
-15.52
-21.31
-26.88
-32.31
-37.35
-41.45
-43.94
-44.32
-42.52
-38.93
-34.23
-29.15
-24.22
-19.64
-15.40
-11.42
-7.70
-4.38
-1.57
0.71
2.70
4.81
7.44
10.77
14.59
18.37
21.44
23.28
23.70
22.92
21.33
19.36
17.26
15.07
12.69
10.06
7.25
4.48
2.06
0.21
-0.99
-1.66
-2.09
-2.55
-3.24
-4.15
-5.15
-6.00
-6.47
-6.45
-5.95
-5.10
-4.08
-3.07
-2.24
-1.69
-1.46
-1.55
-1.90
-2.41
-2.94
-3.35
-3.59
-3.67
-3.69
-3.80
-4.10
-4.63
-5.31
-6.04
-6.68
-7.15
-7.40
-7.38
-7.10
-6.60
-5.97
-5.37
-4.97
-4.93
-5.29
-5.99
-6.88
-7.80
-8.63
-9.34
-9.90
-10.27
-10.37
-10.08
-9.33
-8.14
-6.61
-4.90
-3.13
-1.40
0.26
1.82
3.21
4.34
5.08
5.35
5.17
4.64
3.93
3.23
2.67
2.30
2.09
2.01
2.00
2.06
2.20
2.39
2.58
2.67
2.58
2.23
1.64
0.85
-0.07
-1.03
-1.97
-2.85
-3.62
-4.25
-4.68
-4.87
-4.75
-4.24
-3.28
-1.80
0.14
2.36
4.61
6.63
8.27
9.53
10.55
11.49
12.41
13.23
13.79
13.92
13.56
12.74
11.54
10.04
8.31
6.45
4.66
3.18
2.21
1.74
1.51
1.07
-0.01
-1.95
-4.64
-7.65
-10.43
-12.47
-13.50
-13.57
-12.96
-12.13
-11.49
-11.37
-11.85
-12.82
-14.00
-15.07
-15.76
-15.91
-15.50
-14.60
-13.34
-11.87
-10.37
-9.01
-7.90
-7.10
-6.54
-6.09
-5.63
-5.08
-4.46
-3.88
-3.45
-3.18
-3.00
-2.72
-2.17
-1.32
-0.29
0.69
1.43
1.87
2.21
2.75
3.86
5.67
8.07
10.69
13.06
14.72
15.41
15.07
13.78
11.79
9.37
6.77
4.18
1.69
-0.65
-2.83
-4.77
-6.37
-7.48
-8.03
-8.03
-7.67
-7.21
-6.91
-6.91
-7.17
-7.50
-7.67
-7.48
-6.94
-6.19
-5.50
-5.05
-4.89
-4.89
-4.80
-4.41
-3.58
-2.35
-0.85
0.71
2.10
3.02
3.20
2.44
0.77
-1.40
-3.40
-4.40
-3.77
-1.37
2.38
6.63
10.42
13.03
14.20
14.06
12.99
11.37
9.49
7.55
5.75
4.34
3.59
3.65
4.46
5.68
6.78
7.23
6.70
5.15
2.81
0.06
-2.69
-5.11
-7.06
-8.47
-9.39
-9.84
-9.86
-9.49
-8.85
-8.09
-7.39
-6.86
-6.54
-6.35
-6.20
-5.98
-5.67
-5.32
-5.02
-4.76
-4.44
-3.83
-2.67
-0.81
1.75
4.77
7.86
10.54
12.41
13.24
12.98
11.84
10.13
8.21
6.38
4.86
3.75
3.02
2.60
2.40
2.32
2.27
2.15
1.86
1.34
0.61
-0.24
-1.03
-1.61
-1.89
-1.84
-1.51
-1.00
-0.43
0.09
0.46
0.63
0.56
0.27
-0.17
-0.66
-1.08
-1.36
-1.47
-1.43
-1.27
-1.05
-0.81
-0.59
-0.42
-0.35
-0.41
-0.60
-0.87
-1.16
-1.35
-1.37
-1.17
-0.73
-0.12
0.56
1.16
1.55
1.61
1.32
0.80
0.25
-0.12
-0.17
0.10
0.56
1.05
1.46
1.74
1.91
2.04
2.18
2.34
2.54
2.73
2.87
2.92
2.80
2.48
1.99
1.41
0.89
0.53
0.38
0.38
0.40
0.32
0.05
-0.37
-0.84
-1.22
-1.37
-1.25
-0.88
-0.34
0.25
0.82
1.31
1.69
1.92
1.98
1.85
1.53
1.09
0.61
0.20
-0.04
-0.08
0.09
0.42
0.86
1.36
1.85
2.27
2.54
2.56
2.26
1.60
0.65
-0.45
-1.44
-2.08
-2.20
-1.83
-1.14
-0.40
0.16
0.40
0.33
0.04
-0.37
-0.86
-1.42
-2.00
-2.52
-2.83
-2.84
-2.51
-1.92
-1.20
-0.46
0.23
0.89
1.52
2.15
2.75
3.25
3.60
3.77
3.79
3.71
3.60
3.51
3.46
3.45
3.39
3.19
2.75
1.98
0.89
-0.43
-1.81
-3.04
-3.97
-4.54
-4.77
-4.81
-4.81
-4.93
-5.24
-5.72
-6.23
-6.59
-6.65
-6.29
-5.52
-4.41
-3.11
-1.80
-0.67
0.14
0.55
0.55
0.27
-0.14
-0.48
-0.62
-0.54
-0.30
-0.02
0.22
0.41
0.59
0.82
1.14
1.53
1.92
2.23
2.41
2.47
2.44
2.33
2.11
1.74
1.23
0.66
0.15
-0.13
-0.08
0.29
0.84
1.36
1.65
1.55
1.08
0.38
-0.31
-0.76
-0.81
-0.46
0.16
0.82
1.31
1.51
1.41
1.11
0.72
0.35
0.03
-0.23
-0.44
-0.62
-0.77
-0.90
-0.99
-1.03
-0.99
-0.87
-0.64
-0.34
0.01
0.33
0.53
0.54
0.34
-0.03
-0.44
-0.74
-0.82
-0.63
-0.22
0.27
0.70
0.91
0.84
0.51
0.01
-0.49
-0.84
-0.94
-0.81
-0.54
-0.33
-0.34
-0.65
-1.19
-1.82
-2.32
-2.56
-2.53
-2.31
-2.00
-1.71
-1.44
-1.18
-0.91
-0.62
-0.34
-0.07
0.21
0.57
1.02
1.58
2.17
2.69
3.06
3.22
3.16
2.92
2.51
2.02
1.51
1.11
0.91
0.94
1.15
1.43
1.63
1.68
1.62
1.53
1.54
1.73
2.04
2.37
2.55
2.45
2.04
1.43
0.74
0.16
-0.22
-0.35
-0.25
-0.00
0.34
0.71
1.10
1.51
2.00
2.65
3.51
4.60
5.84
7.05
8.04
8.67
8.92
8.88
8.67
8.37
8.01
7.51
6.85
6.05
5.13
4.12
2.95
1.50
-0.30
-2.39
-4.53
-6.40
-7.68
-8.25
-8.19
-7.77
-7.30
-7.03
-7.06
-7.35
-7.78
-8.25
-8.71
-9.13
-9.45
-9.55
-9.29
-8.54
-7.35
-5.99
-4.88
-4.49
-5.08
-6.58
-8.54
-10.35
-11.44
-11.56
-10.82
-9.63
-8.54
-7.97
-8.15
-9.07
-10.56
-12.35
-14.10
-15.55
-16.52
-16.95
-17.00
-16.86
-16.76
-16.79
-16.90
-17.01
-17.01
-16.84
-16.45
-15.79
-14.74
-13.23
-11.35
-9.38
-7.72
-6.74
-6.57
-6.91
-7.16
-6.66
-4.96
-2.10
1.46
5.01
7.95
9.98
11.19
11.82
12.11
12.08
11.61
10.57
8.98
7.11
5.35
4.01
3.21
2.84
2.73
2.77
3.07
3.87
5.39
7.62
10.18
12.41
13.61
13.26
11.28
8.07
4.34
0.87
-1.76
-3.31
-3.88
-3.80
-3.45
-3.15
-3.03
-3.09
-3.20
-3.21
-2.98
-2.51
-1.95
-1.62
-1.95
-3.29
-5.79
-9.27
-13.19
-16.73
-19.00
-19.34
-17.49
-13.66
-8.51
-2.85
2.57
7.25
10.96
13.66
15.44
16.35
16.40
15.55
13.78
11.25
8.29
5.48
3.47
2.85
3.87
6.37
9.73
13.08
15.55
16.57
15.99
14.15
11.70
9.39
7.83
7.36
7.99
9.49
11.46
13.52
15.32
16.53
16.78
15.80
13.47
9.96
5.74
1.47
-2.16
-4.71
-6.08
-6.50
-6.40
-6.17
-6.01
-5.89
-5.63
-5.03
-4.01
-2.63
-1.07
0.42
1.67
2.53
2.94
2.86
2.33
1.43
0.35
-0.70
-1.52
-2.03
-2.22
-2.15
-1.90
-1.48
-0.88
-0.04
1.04
2.31
3.68
5.02
6.24
7.28
8.17
8.97
9.79
10.76
11.94
13.36
14.95
16.57
18.03
19.10
19.64
19.59
18.97
17.94
16.63
15.16
13.59
11.93
10.21
8.42
6.58
4.63
2.43
-0.15
-3.21
-6.71
-10.47
-14.20
-17.60
-20.46
-22.65
-24.13
-24.84
-24.72
-23.68
-21.70
-18.88
-15.43
-11.73
-8.17
-5.08
-2.65
-0.90
0.29
1.06
1.52
1.76
1.84
1.91
2.15
2.74
3.67
4.79
5.81
6.46
6.63
6.42
6.11
6.00
6.28
6.95
7.89
8.88
9.73
10.26
10.36
9.99
9.17
7.98
6.63
5.34
4.34
3.78
3.67
3.90
4.27
4.56
4.61
4.36
3.86
3.21
2.53
1.84
1.12
0.29
-0.70
-1.84
-3.14
-4.56
-6.12
-7.82
-9.57
-11.23
-12.62
-13.56
-14.03
-14.12
-13.99
-13.75
-13.38
-12.70
-11.52
-9.76
-7.53
-5.16
-2.97
-1.09
0.69
2.88
6.02
10.38
15.77
21.62
27.29
32.46
37.25
42.12
47.45
53.20
58.76
63.19
65.66
65.85
64.01
60.73
56.52
51.56
45.65
38.46
29.84
19.99
9.47
-1.03
-10.89
-19.71
-27.33
-33.72
-38.95
-43.08
-46.19
-48.44
-49.97
-50.97
-51.63
-52.12
-52.59
-53.16
-53.85
-54.61
-55.29
-55.70
-55.74
-55.40
-54.74
-53.83
-52.63
-50.96
-48.52
-45.02
-40.29
-34.37
-27.48
-19.87
-11.82
-3.57
4.57
12.22
18.86
24.07
27.62
29.60
30.42
30.57
30.48
30.33
30.03
29.36
28.10
26.16
23.55
20.40
16.84
13.00
9.04
5.12
1.40
-1.97
-4.97
-7.68
-10.27
-12.90
-15.63
-18.36
-20.87
-22.83
-23.93
-23.95
-22.78
-20.54
-17.63
-14.73
-12.58
-11.70
-12.07
-13.05
-13.62
-12.93
-10.72
-7.45
-4.05
-1.39
0.15
0.79
1.15
1.75
2.80
4.13
5.37
6.32
7.06
7.91
9.24
11.22
13.73
16.31
18.40
19.52
19.47
18.34
16.44
14.18
11.92
9.90
8.29
7.23
6.84
7.18
8.22
9.79
11.67
13.59
15.33
16.75
17.81
18.56
19.12
19.61
20.08
20.46
20.55
20.11
19.01
17.32
15.31
13.31
11.61
10.31
9.32
8.46
7.58
6.53
5.16
3.31
0.78
-2.54
-6.62
-11.22
-16.00
-20.60
-24.77
-28.39
-31.42
-33.77
-35.31
-35.80
-35.06
-32.99
-29.64
-25.28
-20.39
-15.56
-11.37
-8.22
-6.20
-5.07
-4.40
-3.75
-2.83
-1.61
-0.18
1.29
2.76
4.21
5.63
6.87
7.66
7.72
6.89
5.31
3.30
1.37
-0.03
-0.51
0.15
2.01
4.98
8.71
12.65
16.08
18.27
18.74
17.38
14.53
10.82
6.97
3.58
1.08
-0.31
-0.55
0.28
1.94
4.07
6.26
8.10
9.36
9.97
10.06
9.83
9.45
8.96
8.35
7.58
6.68
5.74
4.91
4.30
3.98
3.90
3.99
4.15
4.29
4.37
4.39
4.37
4.35
4.40
4.54
4.73
4.87
4.75
4.20
3.09
1.49
-0.40
-2.22
-3.63
-4.34
-4.24
-3.40
-2.07
-0.56
0.83
1.93
2.64
3.02
3.22
3.39
3.68
4.19
4.88
5.67
6.39
6.87
6.97
6.67
6.04
5.23
4.38
3.69
3.31
3.36
3.93
5.03
6.53
8.20
9.74
10.89
11.46
11.44
10.85
9.74
8.10
5.86
2.97
-0.49
-4.29
-8.03
-11.29
-13.73
-15.21
-15.75
-15.51
-14.76
-13.72
-12.59
-11.50
-10.56
-9.83
-9.37
-9.20
-9.31
-9.64
-10.07
-10.41
-10.43
-9.89
-8.64
-6.66
-4.05
-1.05
2.06
5.02
7.64
9.80
11.49
12.78
13.81
14.74
15.64
16.41
16.72
16.13
14.27
11.07
6.85
2.24
-2.08
-5.57
-7.93
-9.13
-9.23
-8.34
-6.60
-4.23
-1.53
1.15
3.50
5.29
6.50
7.18
7.49
7.61
7.68
7.83
8.08
8.33
8.43
8.30
7.97
7.59
7.30
7.08
6.75
6.08
4.93
3.41
1.83
0.59
-0.11
-0.32
-0.34
-0.58
-1.35
-2.78
-4.81
-7.27
-9.96
-12.64
-15.13
-17.25
-18.92
-20.16
-21.12
-21.97
-22.77
-23.41
-23.60
-22.99
-21.44
-19.05
-16.19
-13.33
-10.79
-8.68
-6.85
-5.12
-3.41
-1.79
-0.48
0.33
0.63
0.58
0.43
0.42
0.66
1.09
1.56
1.96
2.25
2.46
2.70
3.00
3.34
3.66
3.89
4.00
4.02
3.97
3.87
3.71
3.41
2.88
2.04
0.81
-0.86
-2.96
-5.34
-7.73
-9.73
-10.95
-11.12
-10.18
-8.35
-6.03
-3.64
-1.57
0.01
1.10
1.87
2.51
3.19
3.93
4.67
5.29
5.68
5.78
5.63
5.34
5.03
4.84
4.81
4.98
5.31
5.71
6.08
6.32
6.34
6.10
5.60
4.87
3.94
2.88
1.77
0.64
-0.48
-1.67
-2.98
-4.43
-5.89
-7.16
-7.99
-8.23
-7.87
-7.08
-6.05
-4.93
-3.78
-2.54
-1.23
0.11
1.38
2.48
3.37
4.08
4.64
5.04
5.22
5.14
4.81
4.30
3.72
3.17
2.71
2.33
2.02
1.80
1.71
1.80
2.06
2.40
2.68
2.70
2.33
1.52
0.30
-1.18
-2.76
-4.29
-5.71
-7.02
-8.27
-9.49
-10.71
-11.92
-13.12
-14.27
-15.30
-16.14
-16.76
-17.23
-17.75
-18.57
-19.87
-21.57
-23.30
-24.52
-24.74
-23.87
-22.33
-20.94
-20.56
-21.74
-24.34
-27.54
-30.06
-30.56
-28.07
-22.33
-13.84
-3.75
6.55
15.81
23.24
28.60
32.07
33.93
34.35
33.32
30.80
26.96
22.32
17.71
13.98
11.73
11.18
12.11
14.03
16.27
17.94
18.07
15.81
10.87
3.90
-3.51
-9.26
-11.64
-10.06
-5.33
0.75
6.21
9.81
11.36
11.49
11.06
10.62
10.23
9.59
8.44
6.77
4.86
3.05
1.55
0.27
-1.05
-2.69
-4.69
-6.83
-8.69
-9.85
-10.13
-9.67
-8.84
-8.02
-7.40
-6.87
-6.06
-4.57
-2.14
1.27
5.44
9.97
14.37
18.17
21.00
22.69
23.27
22.96
22.08
20.92
19.64
18.27
16.70
14.80
12.51
9.87
7.00
4.03
1.10
-1.72
-4.38
-6.86
-9.11
-11.09
-12.73
-14.00
-14.95
-15.66
-16.28
-16.87
-17.40
-17.65
-17.33
-16.17
-14.06
-11.05
-7.40
-3.37
0.79
4.94
8.96
12.67
15.84
18.12
19.26
19.18
18.03
16.19
14.17
12.40
11.09
10.19
9.40
8.37
6.90
5.01
2.95
1.08
-0.31
-1.13
-1.50
-1.65
-1.86
-2.31
-3.06
-4.07
-5.20
-6.26
-7.02
-7.34
-7.26
-7.04
-7.19
-8.39
-11.12
-15.36
-20.25
-24.15
-25.07
-21.45
-12.99
-1.03
11.80
22.43
28.54
29.34
25.74
19.80
13.81
9.47
7.52
7.78
9.51
11.80
13.79
14.82
14.46
12.57
9.35
5.27
0.99
-2.82
-5.68
-7.33
-7.81
-7.32
-6.22
-4.95
-3.94
-3.62
-4.27
-5.96
-8.43
-11.14
-13.41
-14.63
-14.52
-13.18
-11.06
-8.77
-6.84
-5.60
-5.20
-5.65
-6.97
-9.11
-11.90
-14.96
-17.73
-19.74
-20.78
-21.06
-21.06
-21.25
-21.82
-22.62
-23.31
-23.69
-23.89
-24.39
-25.85
-28.85
-33.70
-40.17
-47.15
-52.64
-53.97
-48.82
-36.42
-18.49
0.90
16.60
24.33
22.39
12.19
-2.49
-16.98
-27.22
-30.70
-26.71
-16.17
-1.39
14.42
27.73
35.59
36.51
30.86
20.75
9.32
-0.09
-4.79
-3.29
4.45
16.92
31.36
44.52
53.59
57.12
55.41
50.18
43.78
38.19
34.44
32.56
31.84
31.42
30.65
29.23
27.18
24.68
21.90
18.95
15.88
12.76
9.70
6.84
4.28
2.04
0.04
-1.80
-3.55
-5.14
-6.48
-7.49
-8.15
-8.55
-8.81
-9.00
-9.10
-8.95
-8.37
-7.19
-5.36
-2.96
-0.22
2.57
5.07
7.02
8.31
8.97
9.15
9.03
8.78
8.44
7.99
7.34
6.44
5.28
3.88
2.33
0.75
-0.76
-2.04
-2.97
-3.50
-3.62
-3.41
-3.00
-2.51
-2.06
-1.73
-1.60
-1.75
-2.20
-2.96
-3.91
-4.91
-5.80
-6.50
-7.01
-7.39
-7.70
-7.95
-8.05
-7.93
-7.51
-6.79
-5.82
-4.71
-3.58
-2.53
-1.71
-1.18
-0.99
-1.08
-1.39
-1.84
-2.43
-3.20
-4.16
-5.26
-6.35
-7.23
-7.75
-7.92
-7.89
-7.85
-7.93
-8.12
-8.33
-8.48
-8.56
-8.59
-8.63
-8.62
-8.46
-8.07
-7.43
-6.65
-5.86
-5.14
-4.47
-3.74
-2.83
-1.76
-0.66
0.31
1.03
1.51
1.87
2.25
2.69
3.13
3.39
3.35
2.99
2.50
2.11
2.07
2.45
3.12
3.81
4.22
4.19
3.77
3.18
2.68
2.45
2.52
2.80
3.16
3.51
3.81
4.06
4.23
4.29
4.23
4.06
3.91
3.90
4.15
4.64
5.28
5.89
6.29
6.40
6.22
5.84
5.41
4.99
4.62
4.24
3.80
3.25
2.65
2.08
1.64
1.38
1.25
1.13
0.92
0.55
0.05
-0.50
-0.99
-1.33
-1.49
-1.50
-1.36
-1.12
-0.84
-0.53
-0.24
0.03
0.27
0.50
0.75
1.05
1.42
1.88
2.42
3.03
3.68
4.37
5.05
5.65
6.05
6.14
5.88
5.32
4.57
3.79
3.13
2.64
2.32
2.09
1.86
1.56
1.13
0.57
-0.02
-0.57
-1.01
-1.34
-1.65
-2.09
-2.74
-3.55
-4.38
-5.06
-5.47
-5.62
-5.63
-5.64
-5.73
-5.93
-6.20
-6.45
-6.63
-6.67
-6.53
-6.18
-5.65
-5.04
-4.50
-4.16
-4.06
-4.16
-4.34
-4.46
-4.45
-4.32
-4.11
-3.86
-3.57
-3.21
-2.73
-2.17
-1.59
-1.07
-0.67
-0.36
-0.07
0.26
0.69
1.17
1.64
2.05
2.34
2.52
2.56
2.45
2.17
1.74
1.23
0.75
0.39
0.23
0.24
0.33
0.40
0.38
0.23
-0.03
-0.36
-0.67
-0.87
-0.91
-0.77
-0.53
-0.34
-0.31
-0.52
-0.92
-1.35
-1.67
-1.77
-1.66
-1.41
-1.09
-0.75
-0.37
0.07
0.57
1.08
1.51
1.78
1.84
1.75
1.60
1.51
1.56
1.72
1.88
1.89
1.63
1.11
0.49
-0.01
-0.20
-0.01
0.46
1.02
1.49
1.75
1.81
1.70
1.50
1.27
1.08
1.04
1.25
1.71
2.31
2.80
2.96
2.64
1.93
1.05
0.29
-0.20
-0.41
-0.51
-0.68
-1.05
-1.59
-2.20
-2.71
-3.02
-3.12
-3.07
-2.98
-2.92
-2.94
-3.09
-3.35
-3.74
-4.22
-4.73
-5.20
-5.56
-5.74
-5.77
-5.70
-5.59
-5.44
-5.25
-4.99
-4.69
-4.40
-4.21
-4.13
-4.13
-4.10
-3.93
-3.56
-3.02
-2.39
-1.81
-1.35
-1.03
-0.80
-0.59
-0.35
-0.06
0.27
0.65
1.06
1.46
1.78
1.94
1.90
1.67
1.41
1.28
1.46
1.96
2.63
3.20
3.43
3.24
2.69
2.01
1.44
1.11
1.03
1.11
1.19
1.15
0.95
0.60
0.19
-0.16
-0.39
-0.46
-0.42
-0.36
-0.37
-0.52
-0.79
-1.10
-1.36
-1.52
-1.59
-1.63
-1.70
-1.82
-1.96
-2.07
-2.11
-2.06
-1.94
-1.79
-1.65
-1.55
-1.50
-1.49
-1.51
-1.53
-1.54
-1.53
-1.46
-1.31
-1.05
-0.64
-0.11
0.47
0.97
1.26
1.31
1.15
0.91
0.76
0.80
1.06
1.44
1.85
2.16
2.32
2.38
2.38
2.36
2.31
2.20
2.02
1.81
1.63
1.55
1.59
1.74
1.97
2.23
2.49
2.71
2.88
2.98
3.00
2.97
2.92
2.84
2.72
2.48
2.07
1.50
0.84
0.20
-0.38
-0.96
-1.65
-2.53
-3.60
-4.70
-5.60
-6.11
-6.16
-5.86
-5.46
-5.18
-5.15
-5.33
-5.56
-5.63
-5.38
-4.77
-3.88
-2.88
-1.92
-1.06
-0.27
0.49
1.23
1.82
2.09
1.90
1.28
0.44
-0.35
-0.84
-1.00
-0.92
-0.77
-0.64
-0.48
-0.22
0.19
0.70
1.17
1.50
1.66
1.72
1.77
1.87
2.03
2.19
2.28
2.29
2.21
2.05
1.79
1.44
1.03
0.66
0.44
0.45
0.68
1.05
1.42
1.67
1.75
1.62
1.31
0.87
0.39
-0.04
-0.30
-0.29
-0.01
0.51
1.12
1.67
2.05
2.24
2.30
2.34
2.46
2.69
2.95
3.11
3.07
2.79
2.35
1.87
1.45
1.10
0.76
0.33
-0.21
-0.82
-1.41
-1.88
-2.19
-2.35
-2.40
-2.43
-2.48
-2.63
-2.91
-3.31
-3.73
-4.07
-4.20
-4.10
-3.81
-3.47
-3.17
-2.99
-2.93
-2.96
-3.07
-3.26
-3.48
-3.68
-3.76
-3.70
-3.53
-3.37
-3.31
-3.36
-3.42
-3.32
-2.96
-2.35
-1.63
-1.04
-0.73
-0.73
-0.94
-1.13
-1.12
-0.79
-0.13
0.72
1.58
2.21
2.41
2.00
0.88
-0.92
-3.22
-5.72
-8.03
-9.76
-10.72
-10.91
-10.58
-10.07
-9.64
-9.34
-8.99
-8.35
-7.24
-5.67
-3.86
-2.08
-0.49
0.95
2.39
4.00
5.82
7.72
9.54
11.13
12.53
13.80
15.02
16.14
16.95
17.23
16.84
15.82
14.38
12.80
11.28
9.90
8.65
7.47
6.36
5.38
4.64
4.20
4.02
3.92
3.68
3.14
2.20
0.93
-0.62
-2.39
-4.42
-6.75
-9.41
-12.34
-15.36
-18.27
-20.91
-23.23
-25.23
-27.01
-28.64
-30.23
-31.91
-34.00
-37.00
-41.50
-47.96
-56.45
-66.43
-76.76
-85.94
-92.54
-95.60
-94.89
-90.85
-84.41
-76.62
-68.44
-60.59
-53.49
-47.22
-41.40
-35.29
-27.91
-18.33
-6.13
8.42
24.17
39.35
51.97
60.46
64.07
63.15
58.95
53.22
47.68
43.50
41.15
40.45
40.80
41.55
42.22
42.52
42.36
41.70
40.55
38.96
37.06
35.05
33.20
31.71
30.60
29.64
28.38
26.38
23.41
19.70
15.80
12.39
10.00
8.78
8.53
8.84
9.36
9.97
10.73
11.77
13.09
14.51
15.73
16.39
16.28
15.24
13.21
10.17
6.19
1.50
-3.44
-8.07
-11.81
-14.36
-15.71
-16.16
-16.14
-16.01
-15.96
-15.93
-15.79
-15.36
-14.53
-13.24
-11.47
-9.22
-6.54
-3.57
-0.51
2.34
4.73
6.45
7.44
7.70
7.35
6.54
5.42
4.15
2.88
1.74
0.83
0.26
0.05
0.28
1.01
2.30
4.17
6.55
9.23
11.85
14.02
15.39
15.77
15.24
14.04
12.60
11.39
10.85
11.35
13.03
15.74
18.97
22.01
24.13
24.86
24.16
22.36
19.99
17.51
15.13
12.86
10.65
8.48
6.47
4.81
3.62
2.94
2.63
2.54
2.53
2.53
2.57
2.69
2.93
3.27
3.61
3.79
3.66
3.14
2.26
1.18
0.09
-0.86
-1.62
-2.25
-2.85
-3.56
-4.47
-5.68
-7.24
-9.16
-11.35
-13.56
-15.43
-16.51
-16.43
-15.03
-12.43
-9.01
-5.30
-1.79
1.22
3.62
5.51
7.04
8.37
9.59
10.72
11.71
12.50
13.03
13.23
13.07
12.56
11.80
10.89
9.95
9.06
8.27
7.58
6.96
6.41
5.92
5.50
5.16
4.90
4.65
4.31
3.75
2.83
1.50
-0.19
-2.10
-4.05
-5.89
-7.55
-9.04
-10.42
-11.81
-13.29
-14.97
-16.86
-18.88
-20.77
-22.08
-22.36
-21.25
-18.64
-14.78
-10.17
-5.40
-0.95
2.91
6.10
8.68
10.69
12.14
13.06
13.47
13.52
13.36
13.11
12.84
12.50
12.00
11.30
10.42
9.45
8.49
7.62
6.84
6.11
5.36
4.50
3.44
2.16
0.64
-1.03
-2.69
-4.20
-5.44
-6.41
-7.23
-8.08
-9.15
-10.52
-12.17
-13.90
-15.39
-16.23
-16.06
-14.68
-12.16
-8.87
-5.34
-2.09
0.59
2.67
4.36
5.93
7.57
9.27
10.89
12.26
13.24
13.82
14.07
14.15
14.20
14.32
14.55
14.89
15.30
15.77
16.31
16.89
17.44
17.75
17.61
16.87
15.50
13.66
11.60
9.52
7.54
5.63
3.72
1.73
-0.30
-2.33
-4.27
-6.13
-7.92
-9.69
-11.44
-13.16
-14.81
-16.32
-17.58
-18.35
-18.38
-17.39
-15.28
-12.21
-8.58
-4.95
-1.83
0.45
1.88
2.67
3.15
3.60
4.16
4.83
5.46
5.86
5.88
5.49
4.71
3.68
2.54
1.44
0.47
-0.31
-0.84
-1.13
-1.20
-1.13
-1.05
-1.11
-1.40
-1.93
-2.63
-3.42
-4.23
-5.08
-6.02
-7.12
-8.36
-9.70
-11.06
-12.43
-13.87
-15.48
-17.36
-19.54
-21.92
-24.27
-26.22
-27.35
-27.26
-25.72
-22.76
-18.70
-14.05
-9.37
-5.13
-1.56
1.31
3.61
5.51
7.17
8.68
10.12
11.52
12.88
14.15
15.24
16.08
16.62
16.89
16.99
17.01
16.99
16.90
16.60
15.95
14.88
13.43
11.72
9.97
8.36
6.94
5.64
4.30
2.75
0.89
-1.21
-3.36
-5.36
-7.08
-8.55
-9.94
-11.39
-12.99
-14.57
-15.77
-16.18
-15.44
-13.46
-10.48
-6.98
-3.54
-0.63
1.52
2.93
3.83
4.50
5.18
6.00
6.97
8.04
9.06
9.92
10.51
10.74
10.61
10.18
9.57
8.88
8.21
7.56
6.93
6.24
5.48
4.70
3.97
3.42
3.13
3.06
3.10
3.04
2.70
1.92
0.69
-0.90
-2.71
-4.54
-6.27
-7.80
-9.13
-10.33
-11.52
-12.86
-14.44
-16.21
-17.94
-19.22
-19.59
-18.70
-16.43
-13.00
-8.87
-4.66
-0.93
1.98
3.99
5.27
6.12
6.79
7.43
8.07
8.65
9.14
9.58
10.02
10.50
10.96
11.26
11.22
10.78
10.05
9.23
8.59
8.25
8.15
8.14
8.02
7.68
7.15
6.53
5.96
5.52
5.19
4.88
4.46
3.81
2.88
1.66
0.24
-1.29
-2.85
-4.40
-5.98
-7.69
-9.62
-11.82
-14.25
-16.74
-18.97
-20.52
-20.94
-19.92
-17.44
-13.82
-9.66
-5.63
-2.31
0.03
1.40
2.04
2.20
2.14
2.01
1.91
1.90
1.99
2.10
2.16
2.07
1.84
1.56
1.35
1.30
1.33
1.31
1.05
0.48
-0.32
-1.21
-2.04
-2.77
-3.44
-4.15
-4.92
-5.67
-6.31
-6.79
-7.18
-7.60
-8.19
-8.98
-9.92
-10.96
-12.06
-13.27
-14.64
-16.14
-17.55
-18.50
-18.57
-17.49
-15.23
-12.05
-8.35
-4.58
-1.05
2.10
4.85
7.24
9.30
11.03
12.44
13.54
14.40
15.07
15.54
15.76
15.66
15.25
14.61
13.92
13.35
13.02
12.91
12.88
12.78
12.48
11.93
11.14
10.16
9.04
7.86
6.66
5.46
4.29
3.11
1.87
0.57
-0.76
-2.02
-3.13
-4.05
-4.84
-5.65
-6.63
-7.90
-9.53
-11.46
-13.51
-15.36
-16.57
-16.73
-15.57
-13.08
-9.62
-5.73
-1.96
1.26
3.80
5.71
7.18
8.40
9.46
10.41
11.22
11.87
12.33
12.54
12.47
12.09
11.44
10.59
9.65
8.74
7.93
7.28
6.79
6.44
6.17
5.86
5.43
4.77
3.86
2.75
1.52
0.29
-0.90
-2.05
-3.22
-4.47
-5.82
-7.23
-8.60
-9.83
-10.84
-11.61
-12.18
-12.60
-13.02
-13.58
-14.46
-15.80
-17.61
-19.71
-21.71
-23.06
-23.26
-21.97
-19.22
-15.37
-10.97
-6.64
-2.86
0.12
2.26
3.69
4.66
5.46
6.32
7.40
8.69
10.03
11.16
11.80
11.79
11.10
9.89
8.45
7.08
6.02
5.38
5.06
4.87
4.56
3.89
2.72
1.04
-1.05
-3.38
-5.71
-7.83
-9.57
-10.84
-11.69
-12.26
-12.73
-13.27
-13.94
-14.68
-15.40
-16.04
-16.62
-17.15
-17.56
-17.62
-16.96
-15.18
-12.07
-7.72
-2.51
2.93
8.05
12.42
15.89
18.53
20.50
21.98
23.15
24.11
25.00
25.94
27.06
28.39
29.82
31.06
31.73
31.41
29.90
27.24
23.74
19.84
16.00
12.53
9.59
7.21
5.33
3.84
2.59
1.38
0.02
-1.58
-3.43
-5.41
-7.41
-9.31
-11.11
-12.83
-14.47
-16.04
-17.50
-18.88
-20.30
-21.89
-23.71
-25.61
-27.24
-28.11
-27.79
-26.08
-23.08
-19.19
-14.94
-10.84
-7.25
-4.29
-1.91
0.08
1.88
3.61
5.33
7.03
8.63
10.05
11.24
12.15
12.78
13.16
13.33
13.39
13.40
13.39
13.38
13.33
13.21
12.97
12.61
12.08
11.36
10.41
9.26
7.94
6.55
5.20
3.93
2.78
1.69
0.60
-0.59
-2.01
-3.74
-5.81
-8.09
-10.39
-12.46
-14.15
-15.48
-16.67
-17.99
-19.70
-21.80
-24.08
-26.10
-27.37
-27.49
-26.25
-23.69
-20.06
-15.80
-11.39
-7.29
-3.87
-1.33
0.30
1.21
1.70
2.10
2.66
3.43
4.29
4.99
5.29
5.08
4.42
3.55
2.69
2.06
1.72
1.65
1.75
1.89
2.01
2.12
2.25
2.43
2.64
2.81
2.83
2.60
2.10
1.38
0.58
-0.18
-0.83
-1.45
-2.18
-3.17
-4.51
-6.16
-7.95
-9.66
-11.05
-11.92
-12.11
-11.56
-10.24
-8.19
-5.49
-2.26
1.39
5.30
9.31
13.19
16.69
19.55
21.56
22.64
22.80
22.16
20.92
19.28
17.44
15.55
13.73
12.06
10.59
9.37
8.39
7.62
6.95
6.23
5.36
4.29
3.08
1.92
1.00
0.43
0.22
0.21
0.15
-0.18
-0.91
-2.04
-3.39
-4.69
-5.71
-6.34
-6.68
-6.94
-7.40
-8.25
-9.51
-11.06
-12.65
-13.97
-14.68
-14.45
-13.07
-10.49
-6.96
-2.95
0.94
4.19
6.51
7.94
8.78
9.38
10.02
10.80
11.62
12.36
12.85
13.03
12.89
12.47
11.81
10.94
9.93
8.84
7.80
6.92
6.30
5.93
5.71
5.49
5.12
4.51
3.64
2.57
1.40
0.23
-0.89
-1.90
-2.81
-3.65
-4.45
-5.26
-6.10
-7.00
-7.93
-8.86
-9.76
-10.63
-11.44
-12.22
-13.01
-13.88
-14.91
-16.12
-17.41
-18.50
-19.01
-18.55
-16.91
-14.16
-10.66
-6.99
-3.69
-1.13
0.62
1.78
2.67
3.61
4.80
6.24
7.79
9.24
10.33
10.87
10.76
10.08
9.01
7.82
6.75
5.95
5.41
5.04
4.72
4.42
4.13
3.88
3.67
3.40
2.95
2.26
1.36
0.37
-0.61
-1.53
-2.40
-3.29
-4.23
-5.20
-6.14
-6.98
-7.78
-8.61
-9.63
-10.90
-12.33
-13.70
-14.66
-14.84
-13.98
-12.03
-9.15
-5.69
-2.06
1.37
4.31
6.60
8.22
9.22
9.79
10.13
10.48
10.96
11.56
12.14
12.53
12.54
12.13
11.35
10.37
9.31
8.34
7.57
7.12
7.01
7.21
7.54
7.77
7.63
6.96
5.72
4.05
2.16
0.26
-1.48
-3.00
-4.33
-5.56
-6.74
-7.92
-9.06
-10.12
-11.08
-11.95
-12.77
-13.58
-14.42
-15.32
-16.35
-17.56
-18.92
-20.24
-21.16
-21.22
-20.08
-17.66
-14.25
-10.40
-6.70
-3.59
-1.21
0.57
2.04
3.46
4.95
6.47
7.83
8.84
9.41
9.54
9.36
9.03
8.67
8.33
7.97
7.56
7.10
6.63
6.24
5.98
5.83
5.71
5.54
5.20
4.65
3.90
3.01
2.09
1.25
0.54
-0.01
-0.47
-0.92
-1.44
-2.06
-2.75
-3.43
-4.03
-4.54
-4.99
-5.42
-5.94
-6.60
-7.47
-8.62
-10.07
-11.79
-13.57
-15.09
-15.90
-15.58
-13.89
-10.94
-7.12
-3.02
0.76
3.82
6.04
7.54
8.57
9.40
10.16
10.90
11.56
12.05
12.28
12.24
11.95
11.49
10.97
10.49
10.15
10.00
10.02
10.15
10.25
10.22
9.97
9.45
8.69
7.72
6.56
5.22
3.69
1.99
0.20
-1.61
-3.39
-5.14
-6.89
-8.63
-10.26
-11.64
-12.65
-13.31
-13.79
-14.35
-15.15
-16.13
-16.92
-17.00
-15.94
-13.60
-10.28
-6.56
-3.06
-0.22
1.86
3.38
4.63
5.90
7.33
8.88
10.45
11.90
13.09
13.88
14.17
13.84
12.93
11.57
10.02
8.57
7.44
6.72
6.38
6.30
6.35
6.39
6.33
6.04
5.43
4.48
3.22
1.78
0.33
-0.98
-2.08
-3.04
-4.00
-5.05
-6.23
-7.49
-8.71
-9.79
-10.70
-11.51
-12.35
-13.37
-14.65
-16.21
-17.98
-19.74
-21.18
-21.86
-21.40
-19.53
-16.27
-11.89
-6.89
-1.82
2.85
6.84
10.03
12.43
14.14
15.24
15.86
16.05
15.89
15.40
14.62
13.61
12.47
11.33
10.31
9.49
8.88
8.48
8.25
8.18
8.20
8.20
8.04
7.56
6.75
5.69
4.55
3.53
2.73
2.11
1.57
0.94
0.12
-0.92
-2.13
-3.40
-4.59
-5.59
-6.33
-6.84
-7.20
-7.58
-8.13
-8.97
-10.07
-11.27
-12.25
-12.61
-12.03
-10.36
-7.70
-4.38
-0.90
2.29
4.87
6.74
8.02
8.96
9.81
10.75
11.80
12.84
13.67
14.06
13.88
13.14
12.01
10.75
9.65
8.93
8.70
8.97
9.62
10.45
11.28
11.95
12.39
12.56
12.47
12.04
11.20
9.88
8.13
6.10
4.04
2.18
0.63
-0.68
-1.91
-3.26
-4.85
-6.70
-8.75
-10.97
-13.33
-15.84
-18.38
-20.69
-22.39
-23.06
-22.39
-20.39
-17.36
-13.86
-10.55
-7.92
-6.19
-5.23
-4.66
-4.09
-3.22
-2.01
-0.63
0.62
1.49
1.82
1.56
0.75
-0.54
-2.22
-4.14
-6.09
-7.79
-8.96
-9.42
-9.21
-8.62
-8.10
-8.17
-9.17
-11.18
-13.92
-16.90
-19.53
-21.33
-22.05
-21.72
-20.58
-18.98
-17.28
-15.68
-14.24
-12.88
-11.47
-9.92
-8.32
-6.83
-5.69
-5.06
-4.97
-5.29
-5.76
-6.07
-5.90
-4.99
-3.20
-0.55
2.75
6.36
9.91
13.09
15.77
17.97
19.79
21.33
22.65
23.74
24.55
25.04
25.15
24.83
24.06
22.85
21.28
19.51
17.71
16.09
14.79
13.89
13.39
13.14
12.94
12.57
11.86
10.78
9.45
8.05
6.77
5.68
4.77
3.93
3.05
2.03
0.81
-0.63
-2.24
-3.90
-5.44
-6.70
-7.62
-8.31
-9.00
-9.99
-11.44
-13.36
-15.51
-17.49
-18.83
-19.13
-18.18
-16.00
-12.91
-9.39
-6.01
-3.20
-1.18
0.13
0.98
1.72
2.59
3.67
4.91
6.15
7.18
7.82
7.96
7.55
6.66
5.50
4.33
3.40
2.87
2.75
2.91
3.13
3.25
3.19
2.96
2.61
2.19
1.71
1.16
0.56
-0.08
-0.76
-1.48
-2.32
-3.31
-4.44
-5.61
-6.71
-7.65
-8.44
-9.25
-10.28
-11.63
-13.24
-14.74
-15.61
-15.31
-13.53
-10.33
-6.15
-1.64
2.55
5.99
8.50
10.16
11.17
11.78
12.22
12.66
13.21
13.84
14.42
14.69
14.46
13.64
12.35
10.85
9.44
8.31
7.49
6.89
6.39
5.89
5.31
4.65
3.89
3.03
2.05
0.99
-0.10
-1.14
-2.03
-2.69
-3.13
-3.44
-3.78
-4.33
-5.18
-6.28
-7.42
-8.39
-9.02
-9.34
-9.58
-10.00
-10.83
-12.10
-13.63
-15.10
-16.11
-16.30
-15.44
-13.49
-10.64
-7.22
-3.69
-0.44
2.23
4.23
5.59
6.49
7.13
7.72
8.40
9.21
10.06
10.77
11.16
11.12
10.66
9.93
9.10
8.32
7.66
7.17
6.87
6.78
6.85
6.95
6.92
6.57
5.84
4.78
3.54
2.30
1.17
0.16
-0.77
-1.73
-2.78
-3.94
-5.16
-6.37
-7.44
-8.32
-8.97
-9.44
-9.84
-10.34
-11.08
-12.17
-13.63
-15.32
-17.01
-18.33
-18.88
-18.33
-16.59
-13.83
-10.46
-7.03
-4.03
-1.73
-0.13
1.00
2.03
3.25
4.81
6.68
8.69
10.63
12.37
13.80
14.90
15.61
15.88
15.74
15.28
14.70
14.23
14.01
14.03
14.13
14.06
13.64
12.82
11.65
10.28
8.81
7.32
5.84
4.42
3.12
1.97
1.00
0.10
-0.85
-1.99
-3.37
-5.00
-6.78
-8.60
-10.39
-12.05
-13.45
-14.35
-14.49
-13.64
-11.75
-9.04
-5.94
-2.94
-0.46
1.32
2.44
3.10
3.55
3.97
4.47
5.05
5.67
6.23
6.62
6.71
6.38
5.60
4.38
2.83
1.10
-0.61
-2.05
-3.02
-3.38
-3.18
-2.61
-2.04
-1.86
-2.38
-3.72
-5.77
-8.26
-10.85
-13.24
-15.23
-16.73
-17.77
-18.41
-18.72
-18.72
-18.45
-17.91
-17.12
-16.11
-14.95
-13.70
-12.45
-11.29
-10.32
-9.61
-9.09
-8.57
-7.70
-6.10
-3.44
0.35
5.11
10.40
15.71
20.49
24.37
27.13
28.77
29.39
29.17
28.24
26.72
24.64
22.06
19.08
15.85
12.59
9.47
6.54
3.77
1.01
-1.81
-4.59
-7.00
-8.62
-9.05
-8.09
-5.88
-2.79
0.66
4.00
6.92
9.29
11.09
12.35
13.09
13.33
13.04
12.19
10.71
8.53
5.61
2.08
-1.81
-5.64
-9.00
-11.62
-13.46
-14.72
-15.72
-16.73
-17.86
-19.03
-19.99
-20.47
-20.26
-19.27
-17.51
-15.10
-12.25
-9.20
-6.27
-3.75
-1.83
-0.54
0.27
0.88
1.53
2.36
3.32
4.25
4.97
5.36
5.39
5.13
4.64
4.03
3.37
2.78
2.33
2.03
1.80
1.53
1.18
0.83
0.69
0.98
1.80
3.02
4.34
5.33
5.72
5.44
4.68
3.72
2.87
2.22
1.73
1.20
0.44
-0.66
-2.08
-3.69
-5.33
-6.77
-7.82
-8.26
-7.88
-6.59
-4.41
-1.62
1.33
3.91
5.69
6.48
6.44
5.91
5.31
4.97
5.04
5.42
5.95
6.40
6.59
6.46
6.01
5.31
4.48
3.68
3.06
2.74
2.73
2.97
3.31
3.60
3.68
3.51
3.06
2.38
1.55
0.69
-0.06
-0.62
-0.98
-1.20
-1.40
-1.67
-2.09
-2.66
-3.38
-4.22
-5.20
-6.29
-7.42
-8.48
-9.35
-10.03
-10.63
-11.39
-12.54
-14.10
-15.81
-17.19
-17.70
-16.95
-14.90
-11.89
-8.49
-5.31
-2.75
-0.97
0.18
0.99
1.76
2.71
3.90
5.24
6.52
7.47
7.87
7.65
6.90
5.88
4.89
4.18
3.89
4.03
4.51
5.21
6.05
6.94
7.80
8.48
8.85
8.74
8.13
7.12
5.90
4.73
3.80
3.18
2.80
2.55
2.38
2.28
2.33
2.61
3.14
3.81
4.46
4.88
4.94
4.58
3.82
2.65
1.08
-0.90
-3.17
-5.50
-7.50
-8.75
-8.98
-8.19
-6.68
-4.93
-3.39
-2.33
-1.75
-1.46
-1.17
-0.62
0.33
1.69
3.30
4.88
6.10
6.66
6.40
5.40
3.92
2.33
0.97
-0.05
-0.74
-1.25
-1.68
-2.05
-2.31
-2.48
-2.66
-3.08
-3.90
-5.20
-6.80
-8.46
-9.91
-11.06
-12.00
-12.95
-14.06
-15.40
-16.87
-18.32
-19.58
-20.55
-21.20
-21.58
-21.79
-21.98
-22.26
-22.62
-22.88
-22.68
-21.56
-19.17
-15.44
-10.56
-5.00
0.68
6.05
10.83
14.93
18.40
21.28
23.61
25.36
26.54
27.18
27.32
26.98
26.13
24.69
22.62
20.03
17.16
14.40
12.07
10.34
9.15
8.30
7.55
6.76
5.86
4.81
3.56
2.03
0.20
-1.84
-3.86
-5.57
-6.73
-7.30
-7.46
-7.54
-7.86
-8.54
-9.52
-10.53
-11.29
-11.61
-11.54
-11.30
-11.20
-11.54
-12.49
-14.05
-16.05
-18.17
-20.01
-21.10
-21.02
-19.53
-16.67
-12.80
-8.51
-4.41
-0.94
1.76
3.82
5.56
7.28
9.18
11.29
13.51
15.69
17.66
19.33
20.67
21.68
22.39
22.83
23.03
22.99
22.74
22.30
21.70
20.98
20.11
19.06
17.82
16.44
15.05
13.88
13.12
12.94
13.33
14.12
15.01
15.62
15.58
14.67
12.84
10.26
7.20
4.00
0.88
-2.10
-5.02
-7.98
-11.06
-14.28
-17.55
-20.78
-23.84
-26.57
-28.67
-29.80
-29.64
-28.03
-25.17
-21.52
-17.69
-14.19
-11.24
-8.79
-6.62
-4.55
-2.53
-0.66
0.90
2.12
3.07
3.94
4.87
5.87
6.78
7.34
7.32
6.65
5.37
3.68
1.85
0.18
-1.06
-1.60
-1.25
0.02
2.08
4.58
7.06
9.10
10.43
11.01
11.00
10.62
10.06
9.38
8.58
7.59
6.45
5.23
4.10
3.13
2.34
1.60
0.73
-0.45
-2.04
-4.03
-6.31
-8.65
-10.79
-12.40
-13.17
-12.90
-11.57
-9.42
-6.85
-4.32
-2.22
-0.69
0.32
1.03
1.69
2.49
3.49
4.58
5.59
6.33
6.68
6.63
6.26
5.67
4.99
4.32
3.73
3.32
3.12
3.13
3.18
3.04
2.46
1.36
-0.16
-1.83
-3.33
-4.46
-5.24
-5.88
-6.67
-7.84
-9.49
-11.50
-13.61
-15.44
-16.65
-16.97
-16.29
-14.73
-12.52
-10.04
-7.68
-5.71
-4.28
-3.32
-2.64
-1.94
-0.95
0.47
2.28
4.28
6.15
7.64
8.60
9.04
9.11
8.98
8.81
8.74
8.89
9.37
10.26
11.53
13.02
14.46
15.52
15.95
15.66
14.72
13.34
11.78
10.27
8.95
7.87
6.97
6.12
5.20
4.10
2.81
1.41
0.08
-0.99
-1.64
-1.80
-1.51
-0.92
-0.21
0.45
0.95
1.29
1.53
1.71
1.89
2.07
2.21
2.28
2.25
2.10
1.83
1.45
1.01
0.59
0.23
-0.12
-0.68
-1.79
-3.76
-6.77
-10.63
-14.82
-18.62
-21.34
-22.55
-22.21
-20.61
-18.26
-15.66
-13.20
-11.06
-9.31
-7.91
-6.78
-5.77
-4.70
-3.35
-1.61
0.49
2.69
4.65
6.02
6.63
6.58
6.15
5.70
5.50
5.58
5.83
6.03
6.01
5.70
5.14
4.38
3.46
2.43
1.34
0.29
-0.64
-1.40
-2.05
-2.71
-3.51
-4.51
-5.67
-6.88
-7.96
-8.80
-9.34
-9.57
-9.57
-9.42
-9.21
-9.01
-8.92
-9.01
-9.40
-10.10
-11.05
-11.97
-12.46
-12.10
-10.62
-8.07
-4.80
-1.34
1.80
4.30
6.14
7.52
8.71
9.89
11.12
12.29
13.27
13.93
14.26
14.32
14.23
14.10
13.97
13.85
13.75
13.70
13.75
13.97
14.39
14.93
15.38
15.49
15.04
13.93
12.21
10.11
7.87
5.74
3.87
2.29
0.94
-0.31
-1.63
-3.14
-4.94
-7.04
-9.37
-11.81
-14.14
-16.11
-17.46
-17.92
-17.35
-15.78
-13.41
-10.65
-7.92
-5.57
-3.71
-2.28
-1.05
0.17
1.46
2.77
3.95
4.88
5.44
5.60
5.36
4.75
3.87
2.84
1.82
0.95
0.33
-0.04
-0.18
-0.16
-0.03
0.16
0.37
0.52
0.56
0.44
0.24
0.08
0.11
0.37
0.74
0.99
0.83
0.15
-0.92
-2.01
-2.66
-2.65
-2.07
-1.40
-1.24
-2.02
-3.82
-6.33
-9.01
-11.44
-13.44
-15.10
-16.73
-18.56
-20.71
-23.08
-25.45
-27.54
-29.04
-29.67
-29.19
-27.48
-24.62
-20.91
-16.84
-12.92
-9.56
-6.92
-4.91
-3.27
-1.69
0.06
2.07
4.31
6.69
9.10
11.41
13.57
15.47
17.05
18.24
19.02
19.42
19.60
19.73
19.96
20.35
20.80
21.08
20.92
20.16
18.77
16.91
14.85
12.89
11.22
9.87
8.75
7.68
6.49
5.08
3.44
1.60
-0.33
-2.24
-3.98
-5.43
-6.51
-7.22
-7.66
-8.06
-8.67
-9.67
-11.01
-12.43
-13.45
-13.58
-12.51
-10.23
-7.07
-3.58
-0.32
2.30
4.14
5.31
6.07
6.69
7.34
8.04
8.73
9.28
9.66
9.88
9.98
9.98
9.79
9.31
8.48
7.39
6.28
5.47
5.15
5.28
5.56
5.57
5.03
3.87
2.36
0.87
-0.27
-0.96
-1.34
-1.63
-2.03
-2.54
-2.99
-3.16
-2.92
-2.32
-1.57
-0.97
-0.74
-1.01
-1.81
-3.04
-4.50
-5.93
-6.97
-7.25
-6.52
-4.81
-2.54
-0.49
0.44
-0.37
-2.95
-6.64
-10.28
-12.70
-13.14
-11.48
-8.19
-4.03
0.29
4.31
7.86
10.92
13.49
15.49
16.88
17.62
17.81
17.63
17.26
16.88
16.53
16.14
15.53
14.48
12.85
10.67
8.14
5.64
3.49
1.88
0.72
-0.28
-1.50
-3.23
-5.51
-8.13
-10.66
-12.67
-13.88
-14.25
-13.96
-13.33
-12.65
-12.10
-11.73
-11.48
-11.36
-11.45
-11.97
-13.18
-15.15
-17.70
-20.37
-22.66
-24.19
-24.85
-24.68
-23.70
-21.77
-18.64
-14.15
-8.48
-2.23
3.76
8.74
12.35
14.66
16.00
16.73
17.05
16.98
16.54
15.85
15.10
14.46
13.99
13.61
13.13
12.42
11.41
10.15
8.78
7.40
6.12
4.96
3.90
2.90
1.91
0.90
-0.09
-1.06
-1.97
-2.84
-3.68
-4.56
-5.50
-6.52
-7.58
-8.61
-9.56
-10.44
-11.29
-12.18
-13.12
-13.97
-14.47
-14.27
-13.12
-10.94
-7.93
-4.44
-0.85
2.52
5.52
8.09
10.25
12.03
13.50
14.73
15.83
16.88
17.86
18.61
18.91
18.55
17.48
15.86
14.03
12.34
11.02
10.13
9.49
8.85
7.98
6.77
5.23
3.47
1.60
-0.31
-2.21
-4.09
-5.91
-7.59
-9.06
-10.25
-11.11
-11.62
-11.79
-11.62
-11.18
-10.55
-9.88
-9.37
-9.25
-9.75
-10.94
-12.73
-14.81
-16.67
-17.77
-17.65
-16.11
-13.25
-9.48
-5.35
-1.46
1.79
4.21
5.88
7.05
8.04
9.05
10.14
11.25
12.26
13.09
13.73
14.24
14.65
14.95
15.10
15.03
14.74
14.28
13.73
13.13
12.46
11.64
10.54
9.11
7.40
5.57
3.82
2.31
1.11
0.15
-0.67
-1.47
-2.29
-3.09
-3.80
-4.37
-4.82
-5.26
-5.83
-6.66
-7.82
-9.38
-11.36
-13.77
-16.56
-19.60
-22.62
-25.25
-27.03
-27.57
-26.61
-24.21
-20.72
-16.75
-12.95
-9.84
-7.60
-6.05
-4.79
-3.38
-1.55
0.71
3.20
5.64
7.82
9.64
11.13
12.31
13.20
13.75
13.93
13.79
13.46
13.10
12.81
12.61
12.42
12.13
11.64
10.95
10.09
9.10
8.03
6.90
5.74
4.63
3.68
2.95
2.44
2.03
1.58
0.97
0.12
-0.96
-2.19
-3.47
-4.73
-5.92
-7.06
-8.16
-9.30
-10.55
-11.95
-13.49
-15.02
-16.27
-16.86
-16.48
-14.95
-12.35
-9.00
-5.39
-2.02
0.79
2.94
4.58
5.98
7.37
8.81
10.22
11.41
12.22
12.65
12.79
12.82
12.79
12.66
12.29
11.55
10.46
9.19
8.00
7.11
6.60
6.33
6.05
5.49
4.51
3.13
1.50
-0.17
-1.72
-3.05
-4.21
-5.30
-6.42
-7.63
-8.94
-10.28
-11.54
-12.64
-13.54
-14.25
-14.85
-15.43
-16.11
-16.94
-17.89
-18.82
-19.43
-19.36
-18.20
-15.75
-12.04
-7.44
-2.52
2.08
5.91
8.81
10.90
12.46
13.77
14.98
16.05
16.88
17.35
17.38
16.98
16.19
15.13
13.89
12.61
11.41
10.42
9.70
9.24
8.94
8.68
8.34
7.83
7.14
6.33
5.42
4.44
3.39
2.24
1.02
-0.24
-1.43
-2.50
-3.39
-4.14
-4.79
-5.41
-6.04
-6.71
-7.44
-8.28
-9.27
-10.48
-11.94
-13.62
-15.46
-17.31
-18.95
-20.07
-20.32
-19.46
-17.38
-14.29
-10.61
-6.92
-3.71
-1.23
0.58
2.01
3.46
5.26
7.52
10.11
12.74
14.99
16.53
17.14
16.82
15.73
14.14
12.35
10.59
9.03
7.78
6.95
6.56
6.57
6.80
6.96
6.72
5.85
4.32
2.26
-0.05
-2.36
-4.49
-6.33
-7.82
-8.89
-9.53
-9.74
-9.63
-9.37
-9.15
-9.10
-9.24
-9.52
-9.85
-10.14
-10.34
-10.47
-10.64
-10.98
-11.70
-12.86
-14.37
-15.88
-16.86
-16.78
-15.33
-12.51
-8.73
-4.56
-0.61
2.69
5.14
6.79
7.83
8.50
9.05
9.68
10.48
11.44
12.43
13.22
13.61
13.47
12.84
11.87
10.77
9.71
8.78
7.98
7.29
6.74
6.35
6.17
6.17
6.21
6.13
5.85
5.41
4.99
4.78
4.83
5.03
5.13
4.85
4.06
2.79
1.19
-0.54
-2.24
-3.83
-5.24
-6.43
-7.40
-8.26
-9.19
-10.45
-12.22
-14.56
-17.27
-19.91
-21.88
-22.59
-21.64
-18.96
-14.90
-10.07
-5.19
-0.82
2.75
5.53
7.66
9.34
10.66
11.65
12.31
12.63
12.68
12.50
12.13
11.60
10.93
10.17
9.42
8.78
8.34
8.14
8.15
8.28
8.32
8.07
7.32
5.95
3.99
1.63
-0.83
-3.07
-4.80
-5.91
-6.45
-6.63
-6.78
-7.26
-8.32
-10.00
-12.07
-14.05
-15.32
-15.35
-13.88
-11.05
-7.34
-3.41
0.16
3.02
5.12
6.64
7.81
8.82
9.77
10.70
11.65
12.62
13.57
14.39
14.90
14.97
14.50
13.57
12.34
11.05
9.92
9.07
8.51
8.17
7.94
7.71
7.43
7.08
6.65
6.12
5.47
4.70
3.84
2.98
2.25
1.73
1.42
1.26
1.16
1.00
0.73
0.27
-0.38
-1.22
-2.15
-3.05
-3.73
-4.06
-4.07
-3.92
-3.88
-4.23
-5.12
-6.51
-8.21
-9.92
-11.40
-12.56
-13.48
-14.39
-15.57
-17.23
-19.38
-21.79
-24.03
-25.51
-25.70
-24.28
-21.23
-16.86
-11.78
-6.66
-2.09
1.53
4.11
5.77
6.83
7.61
8.38
9.23
10.13
10.92
11.37
11.36
10.85
9.98
9.00
8.16
7.61
7.33
7.21
7.05
6.69
6.07
5.23
4.25
3.21
2.12
0.96
-0.30
-1.67
-3.09
-4.45
-5.67
-6.74
-7.77
-8.92
-10.39
-12.25
-14.45
-16.82
-19.11
-21.12
-22.74
-23.95
-24.78
-25.28
-25.52
-25.54
-25.40
-25.17
-24.82
-24.18
-22.92
-20.69
-17.25
-12.64
-7.26
-1.76
3.16
7.04
9.75
11.49
12.65
13.66
14.73
15.95
17.24
18.47
19.48
20.18
20.47
20.29
19.67
18.69
17.52
16.37
15.42
14.81
14.52
14.43
14.29
13.85
12.97
11.66
10.11
8.54
7.14
5.99
4.98
3.94
2.70
1.16
-0.64
-2.57
-4.46
-6.15
-7.53
-8.59
-9.42
-10.20
-11.16
-12.46
-14.13
-15.99
-17.65
-18.59
-18.35
-16.62
-13.42
-9.10
-4.26
0.41
4.31
7.10
8.79
9.64
10.10
10.56
11.31
12.34
13.50
14.51
15.18
15.41
15.28
14.93
14.49
14.04
13.60
13.18
12.80
12.51
12.33
12.26
12.24
12.19
12.04
11.76
11.36
10.90
10.41
9.87
9.18
8.26
7.04
5.56
3.92
2.27
0.73
-0.66
-1.92
-3.10
-4.23
-5.29
-6.21
-6.96
-7.57
-8.16
-8.82
-9.59
-10.34
-10.89
-11.01
-10.61
-9.70
-8.43
-6.99
-5.57
-4.32
-3.32
-2.60
-2.15
-1.88
-1.68
-1.40
-0.95
-0.32
0.42
1.12
1.66
1.99
2.11
2.06
1.87
1.52
0.95
0.10
-1.04
-2.38
-3.76
-5.01
-6.06
-6.95
-7.84
-8.88
-10.15
-11.58
-12.96
-14.12
-14.93
-15.39
-15.59
-15.60
-15.47
-15.10
-14.41
-13.34
-11.96
-10.45
-9.09
-8.12
-7.72
-7.95
-8.78
-10.14
-11.90
-13.83
-15.56
-16.59
-16.37
-14.52
-11.03
-6.34
-1.24
3.36
6.82
8.84
9.57
9.40
8.83
8.27
8.07
8.53
9.85
12.07
15.01
18.24
21.22
23.47
24.76
25.19
25.05
24.65
24.18
23.65
22.92
21.88
20.47
18.70
16.63
14.31
11.81
9.21
6.67
4.38
2.53
1.26
0.57
0.42
0.67
1.26
2.13
3.24
4.51
5.82
7.01
7.90
8.37
8.30
7.60
6.23
4.21
1.74
-0.83
-3.00
-4.27
-4.37
-3.36
-1.71
-0.14
0.71
0.48
-0.72
-2.45
-4.11
-5.23
-5.71
-5.69
-5.48
-5.32
-5.29
-5.34
-5.39
-5.47
-5.70
-6.17
-6.81
-7.40
-7.60
-7.17
-6.11
-4.70
-3.33
-2.38
-2.02
-2.17
-2.60
-3.05
-3.41
-3.72
-4.10
-4.70
-5.56
-6.65
-7.83
-8.99
-10.09
-11.18
-12.34
-13.71
-15.37
-17.35
-19.58
-21.89
-23.97
-25.40
-25.79
-24.86
-22.59
-19.26
-15.34
-11.34
-7.66
-4.48
-1.78
0.53
2.57
4.43
6.18
7.91
9.69
11.51
13.28
14.79
15.76
16.05
15.66
14.74
13.60
12.53
11.77
11.42
11.52
11.99
12.68
13.38
13.87
13.98
13.61
12.81
11.71
10.53
9.45
8.53
7.72
6.89
5.88
4.62
3.11
1.48
-0.13
-1.56
-2.73
-3.66
-4.48
-5.34
-6.40
-7.77
-9.45
-11.35
-13.23
-14.79
-15.72
-15.75
-14.75
-12.77
-10.00
-6.79
-3.45
-0.26
2.66
5.32
7.77
10.07
12.18
13.97
15.34
16.24
16.73
16.89
16.77
16.31
15.43
14.10
12.43
10.69
9.19
8.12
7.43
6.88
6.19
5.18
3.90
2.56
1.38
0.48
-0.22
-0.94
-1.92
-3.32
-5.13
-7.21
-9.33
-11.25
-12.75
-13.71
-14.16
-14.24
-14.21
-14.36
-14.90
-15.82
-16.90
-17.72
-17.83
-16.95
-15.02
-12.22
-8.95
-5.64
-2.64
-0.18
1.67
2.98
3.91
4.62
5.25
5.85
6.40
6.82
7.03
6.97
6.63
5.97
5.00
3.75
2.30
0.84
-0.40
-1.22
-1.51
-1.32
-0.83
-0.26
0.18
0.36
0.20
-0.32
-1.15
-2.16
-3.21
-4.13
-4.86
-5.45
-6.05
-6.76
-7.58
-8.42
-9.14
-9.68
-10.14
-10.66
-11.37
-12.22
-12.94
-13.16
-12.54
-10.97
-8.55
-5.60
-2.52
0.32
2.64
4.35
5.48
6.20
6.75
7.32
8.05
8.98
10.01
11.00
11.80
12.29
12.40
12.12
11.49
10.59
9.50
8.32
7.10
5.88
4.64
3.35
1.98
0.53
-0.92
-2.24
-3.29
-3.96
-4.23
-4.22
-4.11
-4.10
-4.34
-4.85
-5.58
-6.40
-7.21
-7.95
-8.59
-9.14
-9.66
-10.17
-10.65
-10.97
-10.92
-10.25
-8.77
-6.44
-3.45
-0.16
2.97
5.55
7.35
8.36
8.77
8.87
8.96
9.24
9.81
10.64
11.59
12.48
13.09
13.24
12.88
12.00
10.75
9.31
7.91
6.72
5.88
5.45
5.41
5.66
6.03
6.30
6.26
5.79
4.91
3.81
2.76
2.00
1.63
1.53
1.42
1.04
0.24
-0.89
-2.10
-3.13
-3.87
-4.42
-5.02
-5.92
-7.23
-8.87
-10.70
-12.59
-14.47
-16.25
-17.75
-18.67
-18.64
-17.44
-15.10
-11.99
-8.62
-5.49
-2.87
-0.78
0.95
2.55
4.18
5.90
7.69
9.41
10.90
12.02
12.68
12.88
12.73
12.36
11.84
11.21
10.47
9.62
8.76
8.00
7.47
7.22
7.16
7.08
6.79
6.18
5.29
4.27
3.28
2.40
1.59
0.71
-0.37
-1.66
-3.02
-4.24
-5.11
-5.61
-5.89
-6.25
-6.96
-8.20
-9.91
-11.90
-13.90
-15.65
-16.95
-17.69
-17.75
-17.04
-15.49
-13.07
-9.88
-6.16
-2.29
1.34
4.39
6.67
8.23
9.25
10.00
10.66
11.30
11.85
12.17
12.15
11.72
10.90
9.70
8.16
6.35
4.36
2.40
0.69
-0.58
-1.32
-1.58
-1.55
-1.48
-1.57
-1.88
-2.34
-2.80
-3.10
-3.16
-3.08
-3.04
-3.23
-3.75
-4.53
-5.42
-6.21
-6.77
-7.10
-7.32
-7.58
-8.05
-8.81
-9.80
-10.84
-11.59
-11.69
-10.86
-9.01
-6.31
-3.16
-0.02
2.70
4.81
6.29
7.24
7.82
8.18
8.48
8.89
9.57
10.57
11.82
13.06
13.96
14.18
13.55
12.15
10.25
8.29
6.66
5.62
5.15
5.07
5.06
4.89
4.44
3.75
2.95
2.14
1.32
0.42
-0.66
-1.94
-3.32
-4.60
-5.55
-6.04
-6.15
-6.15
-6.43
-7.31
-8.95
-11.24
-13.87
-16.44
-18.59
-20.04
-20.54
-19.92
-18.11
-15.17
-11.44
-7.46
-3.86
-1.08
0.73
1.76
2.45
3.28
4.59
6.45
8.74
11.13
13.20
14.55
14.95
14.38
13.13
11.62
10.25
9.26
8.64
8.18
7.67
7.03
6.34
5.72
5.31
5.11
5.07
5.11
5.20
5.36
5.57
5.72
5.62
5.06
3.95
2.36
0.46
-1.55
-3.53
-5.48
-7.41
-9.29
-10.97
-12.25
-12.97
-13.13
-12.93
-12.64
-12.49
-12.53
-12.59
-12.40
-11.74
-10.51
-8.82
-6.86
-4.84
-2.92
-1.13
0.53
2.08
3.52
4.87
6.14
7.40
8.73
10.16
11.64
13.07
14.28
15.14
15.57
15.51
14.90
13.68
11.80
9.31
6.49
3.75
1.58
0.35
0.11
0.59
1.36
2.03
2.39
2.52
2.61
2.85
3.26
3.64
3.64
2.90
1.21
-1.43
-4.71
-8.11
-11.09
-13.22
-14.42
-14.92
-15.12
-15.34
-15.63
-15.73
-15.31
-14.19
-12.51
-10.61
-8.82
-7.24
-5.77
-4.29
-2.83
-1.69
-1.15
-1.25
-1.61
-1.56
-0.52
1.66
4.55
7.34
9.23
9.77
8.96
7.12
4.64
1.80
-1.19
-4.01
-6.15
-7.02
-6.16
-3.54
0.32
4.54
8.17
10.63
11.83
12.09
11.82
11.26
10.40
9.04
7.10
4.72
2.33
0.41
-0.72
-1.10
-1.10
-1.26
-2.04
-3.64
-5.85
-8.18
-10.03
-10.87
-10.44
-8.75
-6.10
-2.96
0.15
2.79
4.70
5.85
6.38
6.56
6.67
6.88
7.27
7.83
8.49
9.14
9.66
9.91
9.75
9.11
8.04
6.69
5.34
4.24
3.57
3.33
3.39
3.48
3.37
2.92
2.14
1.16
0.18
-0.65
-1.26
-1.72
-2.13
-2.61
-3.20
-3.84
-4.46
-4.96
-5.30
-5.54
-5.78
-6.25
-7.14
-8.57
-10.50
-12.69
-14.78
-16.39
-17.29
-17.45
-16.96
-15.98
-14.61
-12.86
-10.72
-8.24
-5.51
-2.68
0.18
3.03
5.85
8.54
10.89
12.62
13.53
13.61
12.99
11.91
10.54
8.99
7.32
5.66
4.24
3.33
3.14
3.67
4.72
5.95
7.04
7.81
8.25
8.50
8.72
9.02
9.42
9.80
10.01
9.89
9.34
8.38
7.09
5.60
4.08
2.69
1.53
0.66
0.02
-0.53
-1.24
-2.35
-4.08
-6.51
-9.58
-12.98
-16.22
-18.61
-19.51
-18.50
-15.63
-11.46
-6.97
-3.18
-0.84
-0.15
-0.75
-2.00
-3.19
-3.89
-3.94
-3.44
-2.62
-1.74
-1.10
-1.01
-1.79
-3.61
-6.38
-9.64
-12.73
-14.96
-15.93
-15.68
-14.68
-13.55
-12.72
-12.30
-12.06
-11.62
-10.73
-9.37
-7.76
-6.22
-4.98
-4.11
-3.55
-3.19
-2.91
-2.64
-2.38
-2.14
-1.98
-1.95
-2.12
-2.55
-3.29
-4.36
-5.72
-7.23
-8.58
-9.36
-9.17
-7.76
-5.15
-1.70
2.02
5.44
8.14
9.96
11.01
11.52
11.73
11.83
11.89
11.95
12.02
12.07
12.09
12.01
11.80
11.45
11.03
10.60
10.23
9.93
9.65
9.30
8.84
8.28
7.65
6.98
6.22
5.29
4.14
2.82
1.43
0.12
-1.04
-2.07
-3.08
-4.11
-5.15
-6.16
-7.16
-8.27
-9.66
-11.45
-13.52
-15.47
-16.72
-16.75
-15.30
-12.52
-8.86
-4.95
-1.36
1.57
3.74
5.28
6.48
7.64
9.01
10.67
12.49
14.18
15.33
15.66
15.08
13.77
12.12
10.57
9.45
8.95
9.05
9.59
10.35
11.05
11.38
11.11
10.11
8.44
6.32
4.13
2.20
0.73
-0.27
-0.98
-1.60
-2.31
-3.16
-4.09
-5.07
-6.11
-7.30
-8.80
-10.71
-13.04
-15.71
-18.45
-20.84
-22.36
-22.51
-20.98
-17.81
-13.44
-8.60
-4.06
-0.40
2.21
3.90
5.06
6.06
7.11
8.28
9.51
10.75
11.92
12.96
13.78
14.29
14.39
14.06
13.35
12.44
11.53
10.80
10.36
10.19
10.22
10.26
10.17
9.83
9.21
8.37
7.39
6.36
5.34
4.30
3.23
2.11
0.97
-0.15
-1.23
-2.32
-3.49
-4.81
-6.29
-7.84
-9.31
-10.57
-11.56
-12.40
-13.31
-14.52
-16.16
-18.19
-20.33
-22.11
-23.01
-22.61
-20.71
-17.43
-13.19
-8.59
-4.20
-0.47
2.39
4.39
5.74
6.70
7.51
8.37
9.35
10.45
11.58
12.58
13.29
13.58
13.38
12.75
11.83
10.82
9.98
9.46
9.34
9.52
9.80
9.88
9.52
8.60
7.14
5.29
3.26
1.26
-0.58
-2.18
-3.52
-4.61
-5.49
-6.25
-6.95
-7.68
-8.45
-9.22
-9.83
-10.12
-9.99
-9.47
-8.76
-8.14
-7.86
-7.99
-8.39
-8.73
-8.65
-7.87
-6.35
-4.24
-1.81
0.63
2.86
4.76
6.28
7.40
8.13
8.55
8.77
8.99
9.34
9.88
10.55
11.14
11.43
11.24
10.53
9.40
8.06
6.74
5.63
4.82
4.32
4.02
3.82
3.60
3.32
2.95
2.50
2.00
1.40
0.62
-0.43
-1.80
-3.43
-5.19
-6.91
-8.41
-9.58
-10.42
-10.99
-11.46
-11.99
-12.74
-13.83
-15.26
-16.86
-18.32
-19.22
-19.13
-17.77
-15.12
-11.43
-7.25
-3.14
0.39
3.10
5.04
6.42
7.51
8.50
9.42
10.23
10.87
11.34
11.65
11.86
11.94
11.90
11.77
11.67
11.73
12.05
12.53
12.91
12.86
12.13
10.67
8.68
6.52
4.57
3.08
2.10
1.49
1.04
0.50
-0.35
-1.59
-3.21
-5.09
-7.04
-8.84
-10.36
-11.56
-12.51
-13.38
-14.40
-15.76
-17.52
-19.59
-21.64
-23.20
-23.77
-22.97
-20.73
-17.32
-13.28
-9.25
-5.73
-2.93
-0.82
0.86
2.35
3.83
5.31
6.69
7.90
8.88
9.69
10.39
11.04
11.58
11.94
12.05
11.92
11.62
11.30
11.03
10.86
10.68
10.38
9.82
8.98
7.87
6.59
5.20
3.80
2.47
1.30
0.35
-0.42
-1.10
-1.83
-2.71
-3.71
-4.71
-5.56
-6.14
-6.48
-6.73
-7.12
-7.82
-8.89
-10.29
-11.88
-13.47
-14.78
-15.51
-15.33
-14.06
-11.69
-8.51
-4.93
-1.45
1.60
4.07
6.00
7.53
8.80
9.93
11.00
12.04
13.04
13.93
14.59
14.88
14.70
14.05
13.04
11.85
10.63
9.53
8.63
7.98
7.64
7.54
7.55
7.43
6.91
5.86
4.34
2.60
0.96
-0.32
-1.20
-1.81
-2.37
-3.09
-4.05
-5.20
-6.42
-7.61
-8.70
-9.67
-10.53
-11.30
-12.09
-13.02
-14.24
-15.81
-17.62
-19.35
-20.52
-20.64
-19.38
-16.73
-13.01
-8.77
-4.61
-0.98
1.91
4.11
5.78
7.10
8.15
8.95
9.52
9.89
10.16
10.43
10.69
10.86
10.81
10.46
9.82
9.05
8.32
7.77
7.45
7.27
7.12
6.83
6.33
5.59
4.66
3.61
2.54
1.50
0.48
-0.58
-1.76
-3.09
-4.57
-6.08
-7.46
-8.61
-9.52
-10.33
-11.24
-12.46
-14.06
-15.90
-17.61
-18.68
-18.60
-17.05
-14.08
-10.09
-5.70
-1.57
1.81
4.24
5.84
6.90
7.74
8.63
9.65
10.76
11.83
12.72
13.31
13.56
13.47
13.11
12.57
11.93
11.29
10.71
10.25
9.90
9.61
9.32
8.90
8.29
7.42
6.32
5.05
3.72
2.44
1.29
0.29
-0.62
-1.59
-2.73
-4.08
-5.58
-7.08
-8.41
-9.43
-10.17
-10.74
-11.37
-12.31
-13.75
-15.71
-18.01
-20.25
-21.84
-22.20
-20.93
-17.99
-13.72
-8.82
-4.05
-0.05
2.85
4.72
5.87
6.73
7.62
8.72
10.02
11.37
12.61
13.57
14.15
14.32
14.09
13.52
12.71
11.78
10.85
10.03
9.40
9.03
8.95
9.09
9.30
9.35
9.02
8.18
6.85
5.21
3.53
2.02
0.79
-0.19
-1.05
-1.97
-3.06
-4.32
-5.66
-6.95
-8.06
-8.94
-9.65
-10.32
-11.13
-12.26
-13.80
-15.72
-17.84
-19.82
-21.24
-21.66
-20.72
-18.34
-14.71
-10.28
-5.66
-1.42
2.07
4.70
6.55
7.89
8.98
10.01
11.07
12.10
12.99
13.62
13.89
13.80
13.36
12.65
11.79
10.89
10.06
9.38
8.91
8.63
8.49
8.39
8.22
7.88
7.30
6.48
5.44
4.29
3.14
2.06
1.05
-0.02
-1.26
-2.72
-4.34
-5.94
-7.33
-8.38
-9.12
-9.70
-10.36
-11.30
-12.67
-14.49
-16.60
-18.64
-20.12
-20.53
-19.50
-16.98
-13.26
-8.90
-4.55
-0.77
2.16
4.18
5.49
6.35
7.03
7.73
8.50
9.26
9.86
10.19
10.19
9.94
9.59
9.24
8.94
8.66
8.28
7.70
6.92
6.01
5.12
4.41
3.95
3.69
3.51
3.22
2.64
1.66
0.28
-1.40
-3.20
-4.92
-6.42
-7.63
-8.58
-9.39
-10.22
-11.21
-12.42
-13.81
-15.21
-16.33
-16.85
-16.48
-15.07
-12.66
-9.47
-5.87
-2.25
1.03
3.74
5.76
7.12
7.91
8.32
8.50
8.62
8.75
8.88
8.94
8.87
8.66
8.30
7.86
7.35
6.80
6.21
5.63
5.15
4.81
4.63
4.46
4.12
3.39
2.20
0.62
-1.12
-2.75
-4.06
-4.99
-5.63
-6.13
-6.67
-7.42
-8.48
-9.93
-11.73
-13.67
-15.33
-16.19
-15.77
-13.87
-10.70
-6.80
-2.85
0.59
3.27
5.25
6.75
8.02
9.20
10.36
11.50
12.57
13.51
14.19
14.45
14.16
13.30
12.00
10.55
9.25
8.30
7.79
7.62
7.62
7.58
7.31
6.68
5.67
4.34
2.86
1.47
0.36
-0.40
-0.89
-1.32
-1.97
-3.00
-4.40
-6.01
-7.58
-8.92
-9.92
-10.62
-11.18
-11.79
-12.64
-13.88
-15.52
-17.38
-19.10
-20.13
-19.96
-18.27
-15.10
-10.89
-6.26
-1.89
1.78
4.60
6.65
8.17
9.39
10.46
11.42
12.27
13.01
13.61
14.10
14.43
14.56
14.40
13.91
13.14
12.25
11.46
10.92
10.69
10.66
10.62
10.41
9.94
9.26
8.47
7.69
6.94
6.20
5.40
4.48
3.43
2.29
1.09
-0.11
-1.33
-2.54
-3.77
-4.99
-6.19
-7.32
-8.34
-9.23
-10.00
-10.72
-11.55
-12.64
-14.10
-15.87
-17.71
-19.16
-19.71
-18.96
-16.77
-13.37
-9.28
-5.13
-1.44
1.49
3.62
5.08
6.06
6.72
7.19
7.57
7.95
8.40
8.92
9.41
9.75
9.83
9.59
9.10
8.43
7.68
6.94
6.30
5.85
5.65
5.66
5.72
5.57
4.94
3.71
1.97
-0.00
-1.85
-3.33
-4.39
-5.19
-5.97
-6.95
-8.22
-9.75
-11.39
-12.86
-13.85
-14.06
-13.24
-11.36
-8.61
-5.38
-2.19
0.54
2.58
3.96
4.89
5.65
6.42
7.26
8.10
8.82
9.31
9.55
9.56
9.37
9.02
8.53
7.94
7.33
6.83
6.53
6.50
6.70
7.02
7.34
7.55
7.60
7.46
7.16
6.70
6.12
5.46
4.76
4.05
3.37
2.72
2.13
1.63
1.20
0.82
0.43
-0.03
-0.57
-1.14
-1.67
-2.08
-2.38
-2.61
-2.87
-3.20
-3.64
-4.14
-4.66
-5.14
-5.58
-6.00
-6.44
-6.97
-7.63
-8.44
-9.37
-10.33
-11.22
-11.94
-12.43
-12.72
-12.88
-13.06
-13.46
-14.23
-15.41
-16.86
-18.24
-19.04
-18.75
-17.08
-14.04
-10.05
-5.76
-1.87
1.13
3.06
4.09
4.55
4.78
4.99
5.26
5.54
5.76
5.90
6.00
6.07
6.14
6.21
6.24
6.26
6.25
6.24
6.23
6.20
6.09
5.86
5.46
4.90
4.23
3.55
2.96
2.51
2.18
1.87
1.46
0.86
0.08
-0.77
-1.53
-2.06
-2.33
-2.41
-2.42
-2.48
-2.68
-3.04
-3.54
-4.16
-4.86
-5.64
-6.46
-7.34
-8.31
-9.43
-10.70
-12.03
-13.13
-13.62
-13.18
-11.64
-9.14
-6.06
-2.94
-0.26
1.69
2.84
3.30
3.28
3.00
2.68
2.49
2.59
3.07
3.92
5.00
6.10
6.94
7.33
7.16
6.52
5.63
4.72
4.02
3.63
3.54
3.66
3.86
4.01
3.97
3.59
2.79
1.57
0.07
-1.47
-2.75
-3.59
-3.98
-4.11
-4.24
-4.60
-5.26
-6.14
-7.03
-7.75
-8.26
-8.65
-9.16
-10.01
-11.33
-13.08
-15.06
-16.90
-18.17
-18.44
-17.41
-14.98
-11.38
-7.09
-2.71
1.17
4.17
6.21
7.44
8.12
8.53
8.86
9.20
9.57
9.92
10.20
10.32
10.19
9.78
9.11
8.31
7.57
7.02
6.72
6.58
6.40
6.03
5.39
4.52
3.58
2.67
1.84
1.05
0.26
-0.54
-1.26
-1.76
-1.97
-1.98
-1.94
-2.10
-2.60
-3.46
-4.56
-5.71
-6.74
-7.59
-8.32
-9.05
-9.94
-11.09
-12.54
-14.26
-16.10
-17.80
-18.93
-19.06
-17.81
-15.09
-11.16
-6.59
-2.08
1.75
4.54
6.30
7.28
7.84
8.33
8.94
9.68
10.49
11.20
11.67
11.82
11.63
11.19
10.59
9.93
9.25
8.57
7.92
7.37
6.98
6.78
6.71
6.63
6.33
5.71
4.75
3.61
2.53
1.70
1.21
0.97
0.81
0.49
-0.14
-1.16
-2.51
-4.06
-5.58
-6.87
-7.79
-8.37
-8.79
-9.35
-10.33
-11.88
-13.87
-15.93
-17.50
-18.02
-17.10
-14.68
-11.02
-6.63
-2.11
2.04
5.52
8.29
10.47
12.27
13.88
15.37
16.75
17.94
18.84
19.45
19.80
20.05
20.32
20.69
21.13
21.48
21.59
21.40
20.99
20.59
20.49
20.94
22.00
23.56
25.37
27.00
27.89
27.37
24.84
20.08
13.41
5.81
-1.37
-6.86
-9.94
-10.63
-9.58
-7.72
-5.90
-4.60
-4.09
-4.48
-5.93
-8.58
-12.36
-16.91
-21.50
-25.32
-27.64
-28.11
-26.77
-24.01
-20.43
-16.63
-13.11
-10.16
-7.84
-5.94
-4.13
-2.08
0.36
3.04
5.54
7.34
8.02
7.47
5.84
3.53
0.97
-1.52
-3.71
-5.43
-6.48
-6.63
-5.70
-3.68
-0.85
2.23
4.91
6.66
7.29
7.03
6.43
6.09
6.43
7.47
8.88
10.10
10.57
9.90
8.03
5.22
1.96
-1.21
-3.91
-6.04
-7.86
-9.77
-12.15
-15.15
-18.62
-22.21
-25.55
-28.32
-30.35
-31.42
-31.29
-29.64
-26.25
-21.24
-15.15
-8.95
-3.75
-0.46
0.58
-0.27
-2.08
-3.68
-4.21
-3.30
-1.32
0.95
2.64
3.10
1.91
-1.09
-5.68
-11.01
-15.32
-16.22
-11.60
-0.72
15.04
32.47
47.85
58.48
63.71
64.79
63.69
61.78
59.13
54.91
48.36
39.66
30.01
21.03
13.85
8.58
4.45
0.44
-4.21
-9.52
-15.00
-19.98
-24.08
-27.25
-29.82
-32.09
-34.15
-35.81
-36.60
-36.10
-34.05
-30.49
-25.72
-20.18
-14.38
-8.78
-3.75
0.48
3.82
6.32
8.13
9.36
10.11
10.36
10.11
9.34
8.18
6.82
5.54
4.54
3.88
3.49
3.19
2.78
2.13
1.24
0.18
-0.96
-2.07
-3.12
-4.10
-5.02
-5.87
-6.66
-7.41
-8.14
-8.90
-9.68
-10.46
-11.21
-11.96
-12.78
-13.79
-15.06
-16.49
-17.84
-18.74
-18.84
-17.96
-16.13
-13.63
-10.82
-8.06
-5.59
-3.47
-1.68
-0.10
1.39
2.86
4.36
5.87
7.33
8.70
9.88
10.80
11.36
11.48
11.17
10.49
9.60
8.71
8.00
7.56
7.35
7.28
7.19
6.99
6.62
6.12
5.54
4.90
4.24
3.55
2.85
2.14
1.42
0.67
-0.14
-1.06
-2.13
-3.34
-4.68
-6.08
-7.49
-8.88
-10.22
-11.54
-12.89
-14.29
-15.74
-17.11
-18.15
-18.55
-18.04
-16.50
-14.03
-10.93
-7.64
-4.56
-1.96
0.05
1.55
2.72
3.76
4.84
6.01
7.27
8.53
9.66
10.56
11.13
11.32
11.11
10.52
9.66
8.69
7.83
7.25
7.07
7.25
7.65
8.03
8.21
8.11
7.71
7.08
6.24
5.23
4.09
2.93
1.88
1.12
0.70
0.51
0.31
-0.15
-1.07
-2.40
-3.96
-5.48
-6.76
-7.74
-8.50
-9.16
-9.88
-10.77
-11.87
-13.13
-14.38
-15.33
-15.62
-14.92
-13.07
-10.11
-6.32
-2.10
2.16
6.13
9.66
12.72
15.37
17.68
19.69
21.35
22.55
23.13
23.02
22.22
20.86
19.18
17.42
15.83
14.59
13.79
13.43
13.41
13.54
13.57
13.27
12.49
11.21
9.56
7.74
5.94
4.30
2.86
1.61
0.47
-0.69
-2.03
-3.67
-5.70
-8.06
-10.57
-12.97
-15.04
-16.64
-17.80
-18.63
-19.34
-20.09
-20.92
-21.75
-22.38
-22.52
-21.94
-20.48
-18.17
-15.22
-11.94
-8.66
-5.64
-3.00
-0.74
1.25
3.05
4.71
6.18
7.32
7.97
8.07
7.63
6.84
5.97
5.25
4.82
4.68
4.74
4.90
5.07
5.24
5.39
5.52
5.57
5.49
5.20
4.66
3.90
2.99
1.99
0.95
-0.15
-1.36
-2.73
-4.27
-5.89
-7.44
-8.73
-9.67
-10.30
-10.80
-11.43
-12.37
-13.59
-14.79
-15.52
-15.33
-13.98
-11.55
-8.43
-5.13
-2.09
0.47
2.59
4.45
6.27
8.16
10.12
12.01
13.68
14.96
15.76
15.98
15.64
14.80
13.64
12.34
11.11
10.09
9.33
8.83
8.56
8.46
8.47
8.54
8.57
8.45
8.08
7.40
6.43
5.24
3.96
2.71
1.57
0.56
-0.41
-1.45
-2.64
-4.00
-5.39
-6.66
-7.69
-8.50
-9.22
-10.11
-11.36
-13.04
-15.04
-17.09
-18.86
-20.06
-20.41
-19.76
-18.03
-15.29
-11.76
-7.79
-3.79
-0.11
3.03
5.62
7.79
9.74
11.55
13.17
14.42
15.12
15.16
14.62
13.70
12.63
11.57
10.64
9.88
9.33
9.07
9.16
9.57
10.23
10.93
11.46
11.64
11.37
10.63
9.49
8.06
6.51
5.00
3.64
2.44
1.34
0.21
-1.04
-2.38
-3.72
-4.86
-5.69
-6.20
-6.57
-7.02
-7.79
-9.01
-10.64
-12.48
-14.26
-15.66
-16.44
-16.39
-15.46
-13.70
-11.33
-8.60
-5.82
-3.21
-0.86
1.28
3.35
5.43
7.55
9.59
11.35
12.62
13.27
13.29
12.75
11.79
10.53
9.11
7.65
6.31
5.25
4.57
4.30
4.33
4.46
4.51
4.38
4.08
3.68
3.25
2.70
1.91
0.74
-0.88
-2.86
-5.01
-7.12
-9.07
-10.82
-12.42
-13.92
-15.39
-16.85
-18.25
-19.52
-20.48
-20.95
-20.69
-19.62
-17.72
-15.21
-12.37
-9.58
-7.16
-5.28
-3.98
-3.11
-2.48
-1.88
-1.16
-0.35
0.49
1.22
1.80
2.30
2.82
3.44
4.13
4.73
5.11
5.22
5.12
4.97
4.93
5.02
5.13
5.06
4.67
3.92
2.87
1.70
0.54
-0.53
-1.51
-2.47
-3.47
-4.54
-5.65
-6.70
-7.58
-8.24
-8.68
-9.02
-9.46
-10.17
-11.29
-12.77
-14.43
-15.98
-17.08
-17.47
-17.01
-15.73
-13.78
-11.40
-8.82
-6.24
-3.79
-1.54
0.52
2.45
4.27
6.01
7.62
8.99
10.01
10.58
10.69
10.41
9.87
9.19
8.45
7.69
6.93
6.18
5.49
4.97
4.67
4.58
4.58
4.53
4.30
3.83
3.23
2.61
2.13
1.85
1.72
1.60
1.37
0.97
0.44
-0.08
-0.40
-0.37
0.06
0.82
1.70
2.47
2.88
2.74
1.98
0.64
-1.13
-3.07
-4.85
-6.10
-6.49
-5.83
-4.17
-1.74
1.04
3.76
6.14
8.10
9.73
11.21
12.68
14.16
15.54
16.65
17.37
17.61
17.36
16.64
15.50
14.01
12.26
10.39
8.56
6.92
5.62
4.70
4.17
3.90
3.71
3.42
2.94
2.25
1.47
0.74
0.13
-0.35
-0.83
-1.43
-2.27
-3.37
-4.68
-6.10
-7.53
-8.85
-9.99
-10.87
-11.49
-11.89
-12.20
-12.57
-13.14
-13.92
-14.82
-15.60
-15.93
-15.52
-14.25
-12.16
-9.52
-6.70
-4.02
-1.70
0.26
1.98
3.64
5.36
7.16
8.91
10.44
11.55
12.09
12.02
11.42
10.48
9.45
8.60
8.13
8.13
8.55
9.23
9.93
10.43
10.56
10.29
9.72
8.99
8.27
7.59
6.91
6.10
5.06
3.79
2.41
1.10
0.00
-0.84
-1.49
-2.07
-2.73
-3.56
-4.64
-5.98
-7.49
-8.98
-10.19
-10.79
-10.52
-9.32
-7.33
-4.88
-2.37
-0.13
1.69
3.13
4.31
5.39
6.47
7.56
8.57
9.41
10.00
10.28
10.23
9.86
9.21
8.34
7.34
6.32
5.42
4.74
4.35
4.22
4.31
4.49
4.60
4.51
4.13
3.43
2.49
1.47
0.49
-0.33
-0.98
-1.53
-2.08
-2.73
-3.51
-4.40
-5.36
-6.32
-7.25
-8.12
-8.96
-9.79
-10.67
-11.69
-12.91
-14.31
-15.77
-17.02
-17.75
-17.65
-16.58
-14.61
-11.98
-9.05
-6.11
-3.37
-0.91
1.30
3.29
5.09
6.69
8.09
9.27
10.25
11.02
11.55
11.79
11.67
11.15
10.29
9.24
8.20
7.38
6.86
6.66
6.67
6.75
6.80
6.76
6.64
6.40
6.03
5.48
4.72
3.78
2.71
1.60
0.56
-0.38
-1.19
-1.92
-2.65
-3.44
-4.35
-5.33
-6.30
-7.15
-7.85
-8.45
-9.09
-9.91
-10.98
-12.31
-13.80
-15.30
-16.61
-17.47
-17.62
-16.87
-15.15
-12.60
-9.51
-6.26
-3.15
-0.38
2.00
3.98
5.63
6.96
8.01
8.84
9.47
9.92
10.21
10.31
10.20
9.91
9.44
8.88
8.29
7.77
7.42
7.28
7.34
7.51
7.67
7.67
7.42
6.89
6.12
5.21
4.25
3.34
2.52
1.77
1.03
0.18
-0.88
-2.14
-3.54
-4.92
-6.12
-7.05
-7.71
-8.20
-8.68
-9.32
-10.24
-11.47
-12.95
-14.51
-15.87
-16.71
-16.75
-15.82
-13.97
-11.43
-8.57
-5.77
-3.28
-1.19
0.61
2.27
3.92
5.59
7.22
8.70
9.90
10.76
11.24
11.30
10.96
10.28
9.42
8.54
7.85
7.46
7.38
7.54
7.80
8.05
8.19
8.15
7.90
7.41
6.70
5.79
4.72
3.56
2.32
1.05
-0.21
-1.39
-2.43
-3.26
-3.87
-4.35
-4.79
-5.35
-6.13
-7.18
-8.45
-9.78
-10.96
-11.74
-11.90
-11.35
-10.09
-8.24
-5.97
-3.48
-0.93
1.52
3.79
5.80
7.53
8.99
10.17
11.07
11.64
11.83
11.59
10.97
10.03
8.91
7.74
6.65
5.72
5.00
4.52
4.23
4.08
3.98
3.80
3.47
2.95
2.25
1.40
0.49
-0.41
-1.23
-1.92
-2.52
-3.07
-3.66
-4.33
-5.09
-5.91
-6.72
-7.47
-8.14
-8.74
-9.33
-10.01
-10.90
-12.11
-13.62
-15.25
-16.61
-17.27
-16.89
-15.38
-12.99
-10.16
-7.33
-4.81
-2.67
-0.79
0.98
2.74
4.47
6.06
7.41
8.44
9.14
9.54
9.65
9.46
8.95
8.12
7.05
5.92
4.92
4.23
3.91
3.85
3.86
3.75
3.41
2.83
2.11
1.36
0.65
0.02
-0.54
-1.02
-1.45
-1.86
-2.32
-2.91
-3.70
-4.67
-5.72
-6.69
-7.46
-8.00
-8.38
-8.75
-9.27
-10.07
-11.22
-12.72
-14.49
-16.34
-17.96
-19.00
-19.09
-18.02
-15.81
-12.71
-9.16
-5.63
-2.46
0.13
2.18
3.83
5.30
6.77
8.31
9.89
11.37
12.57
13.33
13.57
13.31
12.65
11.76
10.82
10.00
9.40
9.08
9.01
9.12
9.28
9.39
9.35
9.05
8.44
7.50
6.30
4.99
3.75
2.70
1.85
1.10
0.27
-0.71
-1.84
-3.01
-4.08
-4.98
-5.76
-6.52
-7.38
-8.38
-9.50
-10.69
-11.92
-13.26
-14.73
-16.30
-17.79
-18.88
-19.21
-18.51
-16.73
-14.08
-10.95
-7.76
-4.81
-2.22
0.07
2.21
4.30
6.40
8.45
10.32
11.83
12.87
13.32
13.20
12.57
11.59
10.45
9.31
8.34
7.62
7.18
6.97
6.92
6.91
6.84
6.65
6.30
5.81
5.20
4.47
3.63
2.67
1.58
0.35
-1.01
-2.44
-3.85
-5.13
-6.18
-7.01
-7.67
-8.31
-9.10
-10.12
-11.39
-12.77
-14.03
-14.88
-15.06
-14.40
-12.91
-10.72
-8.09
-5.35
-2.73
-0.37
1.72
3.63
5.45
7.21
8.84
10.22
11.21
11.76
11.86
11.57
10.99
10.23
9.38
8.56
7.85
7.35
7.08
7.00
7.04
7.11
7.12
7.02
6.75
6.25
5.50
4.49
3.29
2.02
0.80
-0.29
-1.27
-2.22
-3.25
-4.40
-5.63
-6.84
-7.90
-8.79
-9.56
-10.39
-11.44
-12.78
-14.35
-15.86
-16.98
-17.33
-16.72
-15.09
-12.60
-9.55
-6.29
-3.15
-0.38
1.89
3.70
5.21
6.61
8.06
9.57
11.03
12.21
12.93
13.07
12.65
11.82
10.76
9.66
8.69
7.97
7.61
7.64
8.01
8.56
9.09
9.38
9.30
8.85
8.07
7.10
6.04
4.97
3.89
2.81
1.69
0.53
-0.62
-1.70
-2.66
-3.44
-4.06
-4.60
-5.17
-5.85
-6.69
-7.68
-8.75
-9.84
-10.91
-12.00
-13.12
-14.31
-15.51
-16.58
-17.30
-17.39
-16.66
-15.02
-12.59
-9.63
-6.47
-3.42
-0.70
1.62
3.59
5.31
6.91
8.44
9.85
11.05
11.88
12.26
12.19
11.79
11.24
10.69
10.26
9.97
9.79
9.67
9.60
9.58
9.62
9.68
9.71
9.63
9.35
8.82
8.03
6.99
5.81
4.58
3.40
2.34
1.37
0.42
-0.60
-1.71
-2.86
-3.95
-4.89
-5.66
-6.30
-6.94
-7.69
-8.64
-9.84
-11.28
-12.90
-14.61
-16.22
-17.52
-18.27
-18.24
-17.35
-15.61
-13.19
-10.35
-7.37
-4.52
-1.98
0.15
1.90
3.42
4.86
6.33
7.82
9.19
10.25
10.84
10.90
10.51
9.80
8.92
8.02
7.19
6.57
6.22
6.19
6.38
6.62
6.68
6.42
5.82
5.02
4.21
3.50
2.83
2.07
1.05
-0.25
-1.73
-3.16
-4.37
-5.30
-6.05
-6.78
-7.61
-8.56
-9.61
-10.68
-11.79
-12.93
-14.04
-14.93
-15.29
-14.81
-13.37
-11.09
-8.32
-5.52
-3.01
-0.91
0.87
2.53
4.25
6.04
7.78
9.29
10.39
11.01
11.20
11.06
10.72
10.26
9.73
9.16
8.59
8.09
7.72
7.48
7.36
7.27
7.12
6.83
6.40
5.83
5.18
4.46
3.67
2.79
1.81
0.72
-0.49
-1.78
-3.11
-4.41
-5.60
-6.61
-7.41
-8.05
-8.67
-9.45
-10.55
-12.06
-13.88
-15.77
-17.37
-18.28
-18.24
-17.21
-15.34
-12.96
-10.37
-7.81
-5.33
-2.91
-0.49
1.96
4.38
6.69
8.79
10.57
11.93
12.80
13.16
13.05
12.60
11.96
11.28
10.65
10.12
9.71
9.47
9.43
9.57
9.80
10.00
10.00
9.73
9.18
8.45
7.65
6.86
6.08
5.26
4.31
3.23
2.08
0.97
0.00
-0.80
-1.49
-2.17
-2.96
-3.92
-5.04
-6.24
-7.39
-8.37
-9.14
-9.74
-10.31
-11.07
-12.18
-13.72
-15.58
-17.47
-18.96
-19.65
-19.26
-17.74
-15.28
-12.23
-8.99
-5.88
-3.10
-0.66
1.53
3.56
5.54
7.47
9.27
10.86
12.13
13.01
13.47
13.51
13.21
12.64
11.91
11.13
10.37
9.69
9.11
8.65
8.32
8.13
8.09
8.12
8.12
7.90
7.34
6.37
5.09
3.68
2.36
1.24
0.31
-0.54
-1.48
-2.58
-3.81
-5.05
-6.19
-7.18
-8.06
-8.90
-9.78
-10.75
-11.82
-13.02
-14.31
-15.62
-16.74
-17.39
-17.31
-16.31
-14.44
-11.93
-9.08
-6.21
-3.50
-1.02
1.21
3.22
5.01
6.60
7.99
9.18
10.14
10.79
11.04
10.83
10.19
9.28
8.30
7.44
6.81
6.40
6.14
5.98
5.92
5.98
6.20
6.53
6.78
6.70
6.10
4.91
3.28
1.50
-0.15
-1.49
-2.51
-3.39
-4.31
-5.38
-6.58
-7.85
-9.11
-10.37
-11.71
-13.14
-14.52
-15.55
-15.89
-15.25
-13.60
-11.13
-8.24
-5.29
-2.61
-0.29
1.69
3.42
5.01
6.54
8.04
9.44
10.65
11.57
12.09
12.18
11.87
11.25
10.41
9.45
8.49
7.65
7.06
6.79
6.85
7.14
7.46
7.63
7.50
7.01
6.22
5.21
4.14
3.12
2.22
1.44
0.71
-0.13
-1.18
-2.48
-3.97
-5.47
-6.81
-7.90
-8.77
-9.51
-10.29
-11.24
-12.41
-13.80
-15.32
-16.77
-17.86
-18.29
-17.79
-16.30
-13.93
-10.99
-7.88
-4.91
-2.30
-0.07
1.85
3.56
5.14
6.59
7.81
8.68
9.06
8.93
8.40
7.68
7.02
6.62
6.52
6.66
6.92
7.23
7.57
7.96
8.39
8.76
8.91
8.67
8.02
7.05
5.97
4.98
4.21
3.70
3.38
3.18
3.02
2.84
2.60
2.26
1.74
0.97
-0.06
-1.33
-2.70
-4.01
-5.07
-5.78
-6.21
-6.55
-7.07
-7.97
-9.31
-10.90
-12.42
-13.45
-13.66
-12.89
-11.16
-8.67
-5.73
-2.69
0.14
2.56
4.46
5.91
7.03
8.02
8.99
9.99
10.92
11.64
12.03
12.08
11.84
11.45
11.03
10.63
10.24
9.81
9.31
8.80
8.42
8.29
8.45
8.82
9.22
9.42
9.26
8.70
7.81
6.77
5.78
5.02
4.61
4.58
4.92
5.52
6.18
6.61
6.59
5.95
4.76
3.21
1.58
0.08
-1.27
-2.57
-3.97
-5.52
-7.12
-8.53
-9.46
-9.72
-9.22
-8.01
-6.23
-4.05
-1.61
0.92
3.41
5.71
7.71
9.30
10.46
11.20
11.56
11.54
11.14
10.31
8.96
7.01
4.43
1.32
-2.18
-5.79
-9.25
-12.29
-14.74
-16.49
-17.55
-18.00
-17.97
-17.63
-17.11
-16.54
-16.03
-15.64
-15.45
-15.46
-15.65
-15.96
-16.33
-16.71
-17.13
-17.65
-18.37
-19.40
-20.80
-22.53
-24.46
-26.32
-27.76
-28.46
-28.17
-26.80
-24.50
-21.54
-18.25
-14.93
-11.73
-8.70
-5.85
-3.19
-0.73
1.52
3.65
5.81
8.24
11.09
14.33
17.63
20.42
22.03
21.99
20.22
17.18
13.73
10.81
9.15
8.90
9.67
10.67
11.10
10.45
8.75
6.49
4.34
2.80
1.91
1.12
-0.47
-3.77
-9.38
-17.29
-26.86
-36.88
-45.75
-51.78
-53.55
-50.40
-42.81
-32.42
-21.64
-12.88
-7.65
-6.11
-7.13
-8.91
-9.81
-8.91
-6.18
-2.15
2.54
7.42
12.30
17.13
21.86
26.37
30.45
33.92
36.65
38.57
39.62
39.68
38.64
36.46
33.27
29.35
25.09
20.89
17.07
13.80
11.13
8.99
7.19
5.51
3.69
1.58
-0.84
-3.39
-5.73
-7.54
-8.59
-8.92
-8.82
-8.75
-9.16
-10.30
-12.13
-14.23
-16.00
-16.80
-16.22
-14.22
-11.12
-7.57
-4.28
-1.86
-0.66
-0.70
-1.66
-2.97
-3.95
-3.97
-2.64
0.05
3.73
7.71
11.22
13.63
14.66
14.41
13.33
11.96
10.82
10.22
10.22
10.66
11.22
11.55
11.34
10.43
8.88
6.97
5.09
3.64
2.91
2.94
3.58
4.53
5.47
6.19
6.56
6.55
6.18
5.47
4.48
3.33
2.24
1.44
1.09
1.21
1.64
2.12
2.36
2.17
1.46
0.20
-1.53
-3.64
-5.94
-8.09
-9.68
-10.34
-9.88
-8.37
-6.18
-3.74
-1.41
0.67
2.62
4.65
6.97
9.59
12.32
14.77
16.54
17.29
16.90
15.48
13.31
10.79
8.24
5.87
3.75
1.90
0.34
-0.84
-1.54
-1.66
-1.25
-0.46
0.45
1.22
1.68
1.75
1.45
0.88
0.13
-0.72
-1.61
-2.52
-3.40
-4.24
-5.02
-5.71
-6.31
-6.85
-7.37
-7.95
-8.61
-9.38
-10.23
-11.16
-12.20
-13.43
-14.89
-16.51
-18.02
-18.93
-18.75
-17.17
-14.25
-10.46
-6.45
-2.82
0.09
2.26
3.91
5.26
6.46
7.56
8.59
9.63
10.77
12.01
13.18
14.00
14.22
13.73
12.67
11.37
10.17
9.32
8.88
8.81
8.98
9.29
9.66
9.98
10.12
9.94
9.33
8.29
6.91
5.37
3.83
2.39
1.09
-0.10
-1.23
-2.29
-3.26
-4.08
-4.71
-5.15
-5.44
-5.63
-5.83
-6.17
-6.81
-7.89
-9.48
-11.45
-13.50
-15.17
-15.98
-15.61
-13.96
-11.24
-7.83
-4.20
-0.79
2.13
4.40
6.01
7.04
7.63
7.93
8.06
8.10
8.10
8.08
8.06
8.05
8.00
7.85
7.52
6.95
6.19
5.33
4.54
3.94
3.55
3.33
3.17
2.95
2.62
2.15
1.56
0.83
-0.06
-1.14
-2.44
-3.90
-5.39
-6.76
-7.83
-8.53
-8.89
-9.07
-9.30
-9.83
-10.84
-12.35
-14.13
-15.79
-16.82
-16.78
-15.47
-13.03
-9.83
-6.39
-3.18
-0.49
1.55
2.98
3.86
4.37
4.70
5.06
5.65
6.52
7.58
8.61
9.41
9.81
9.78
9.37
8.67
7.78
6.81
5.92
5.27
4.96
5.01
5.29
5.59
5.65
5.31
4.51
3.33
1.93
0.45
-0.99
-2.35
-3.61
-4.75
-5.72
-6.51
-7.12
-7.63
-8.15
-8.80
-9.69
-10.93
-12.53
-14.43
-16.41
-18.11
-19.09
-18.96
-17.53
-14.89
-11.39
-7.54
-3.89
-0.83
1.45
3.01
4.08
4.97
5.96
7.20
8.66
10.15
11.46
12.41
12.92
13.01
12.75
12.21
11.46
10.60
9.74
9.01
8.53
8.30
8.27
8.29
8.20
7.89
7.27
6.37
5.28
4.12
3.04
2.14
1.48
0.98
0.54
0.01
-0.72
-1.72
-2.94
-4.27
-5.57
-6.71
-7.61
-8.28
-8.82
-9.39
-10.16
-11.24
-12.62
-14.16
-15.54
-16.36
-16.22
-14.84
-12.17
-8.47
-4.22
0.03
3.79
6.80
9.02
10.65
11.95
13.15
14.36
15.56
