1536845174.00
64.000000
-0.00
-0.00
-0.00
-0.00
-0.00
-0.00
-0.00
-0.00
-0.00
-0.00
0.00
0.01
0.01
-0.00
-0.03
-0.05
-0.05
0.00
0.13
0.36
0.66
1.01
1.37
1.72
2.06
2.40
2.79
3.24
3.80
4.42
5.06
5.66
6.20
6.68
7.15
7.68
8.31
9.14
10.09
11.04
11.88
12.56
13.14
13.76
14.65
15.96
17.91
20.32
22.90
25.38
27.58
29.57
31.68
34.32
37.81
42.54
48.15
54.10
59.83
64.97
69.58
74.14
79.34
85.71
93.76
103.00
112.62
121.73
129.77
136.75
143.31
150.75
157.77
166.64
177.95
191.80
206.99
220.60
228.28
225.36
208.47
176.72
132.51
79.72
22.70
-35.33
-92.81
-149.53
-205.63
-260.85
-314.32
-364.57
-410.61
-451.72
-487.31
-516.51
-537.99
-550.05
-550.95
-539.59
-515.68
-480.33
-435.61
-384.15
-328.64
-271.46
-214.45
-158.91
-105.84
-55.93
-9.98
31.26
67.15
97.23
121.39
139.88
153.29
162.45
168.26
171.52
172.76
172.24
169.93
165.73
159.58
151.72
142.64
133.07
123.70
114.99
107.04
99.57
92.15
84.34
75.84
66.48
56.24
45.49
35.16
26.83
22.32
22.88
28.47
37.40
46.88
54.20
57.75
57.58
55.06
51.98
49.54
47.97
46.68
44.96
42.50
39.51
36.51
33.90
31.70
29.63
27.30
24.56
21.66
19.13
17.49
16.95
17.28
17.81
17.81
16.71
14.44
11.42
8.35
5.80
4.06
3.06
2.59
2.51
2.80
3.42
4.16
4.60
4.27
2.94
0.80
-1.56
-3.44
-4.42
-4.50
-4.05
-3.56
-3.31
-3.33
-3.45
-3.48
-3.35
-3.16
-3.03
-3.10
-3.44
-3.97
-4.50
-4.80
-4.62
-3.89
-2.73
-1.43
-0.32
0.40
0.74
0.84
0.85
0.80
0.55
-0.07
-1.09
-2.32
-3.30
-3.53
-2.70
-0.85
1.57
3.82
5.21
5.44
4.71
3.69
3.13
3.51
4.76
6.36
7.68
8.35
8.46
8.37
8.47
8.80
9.11
8.94
8.05
6.39
4.25
2.02
-0.01
-1.78
-3.38
-4.97
-6.59
-8.22
-9.69
-10.81
-11.48
-11.68
-11.52
-11.12
-10.61
-10.02
-9.32
-8.47
-7.54
-6.72
-6.25
-6.28
-6.72
-7.26
-7.46
-7.03
-5.93
-4.43
-2.97
-1.94
-1.52
-1.59
-1.87
-2.10
-2.20
-2.27
-2.52
-3.06
-3.82
-4.51
-4.81
-4.52
-3.71
-2.67
-1.78
-1.39
-1.59
-2.26
-3.11
-3.80
-4.10
-3.90
-3.24
-2.23
-1.17
-0.48
-0.66
-2.13
-5.07
-9.31
-14.33
-19.47
-23.85
-26.78
-27.90
-27.33
-25.49
-22.97
-20.42
-18.33
-16.90
-15.91
-14.66
-12.19
-7.58
-0.48
8.65
18.42
27.00
32.60
34.06
31.15
24.55
15.73
6.72
-0.21
-3.06
-0.58
7.21
18.84
31.76
43.03
50.27
52.30
49.33
42.77
34.72
27.48
22.93
22.19
25.28
31.18
38.07
43.94
47.16
46.97
43.58
37.94
31.38
25.24
20.57
18.02
17.71
19.24
21.75
24.02
24.83
23.20
18.75
11.84
3.57
-4.49
-10.67
-13.76
-13.27
-9.62
-3.91
2.38
7.81
11.17
11.63
8.74
2.53
-6.39
-16.82
-27.12
-35.58
-40.94
-42.84
-41.92
-39.58
-37.45
-36.78
-38.06
-41.03
-44.86
-48.67
-51.77
-53.82
-54.75
-54.58
-53.31
-50.93
-47.52
-43.29
-38.66
-34.05
-29.72
-25.68
-21.75
-17.67
-13.39
-9.14
-5.36
-2.56
-1.01
-0.61
-0.91
-1.37
-1.47
-0.99
0.01
1.25
2.46
3.41
4.07
4.52
4.83
5.01
4.96
4.54
3.72
2.62
1.50
0.71
0.46
0.79
1.49
2.22
2.62
2.46
1.67
0.36
-1.22
-2.76
-3.95
-4.56
-4.52
-3.87
-2.79
-1.52
-0.27
0.81
1.68
2.36
2.91
3.35
3.68
3.93
4.10
4.22
4.32
4.38
4.35
4.19
3.87
3.43
2.96
2.56
2.28
2.11
1.96
1.68
1.16
0.33
-0.77
-2.03
-3.26
-4.34
-5.15
-5.66
-5.89
-5.85
-5.57
-5.02
-4.25
-3.29
-2.21
-1.07
0.08
1.24
2.35
3.30
3.90
3.91
3.19
1.84
0.19
-1.17
-1.67
-0.92
1.11
4.11
7.49
10.62
13.02
14.46
14.92
14.49
13.28
11.41
8.97
6.13
3.13
0.26
-2.24
-4.22
-5.67
-6.64
-7.20
-7.39
-7.22
-6.73
-6.03
-5.28
-4.63
-4.13
-3.70
-3.17
-2.37
-1.25
0.06
1.34
2.33
2.88
3.01
2.89
2.72
2.65
2.68
2.73
2.61
2.18
1.37
0.19
-1.24
-2.78
-4.28
-5.61
-6.72
-7.61
-8.31
-8.90
-9.41
-9.89
-10.40
-11.06
-12.09
-13.74
-16.13
-19.18
-22.50
-25.50
-27.55
-28.28
-27.67
-26.09
-24.17
-22.57
-21.73
-21.72
-22.28
-22.77
-22.33
-20.02
-15.06
-7.23
2.96
14.20
24.66
32.54
36.67
36.96
34.40
30.65
27.46
26.06
26.84
29.35
32.61
35.51
37.16
37.08
35.25
32.05
28.20
24.49
21.66
20.14
19.97
20.79
21.99
22.91
23.11
22.37
20.74
18.40
15.62
12.71
10.04
8.05
7.12
7.39
8.67
10.47
12.16
13.30
13.73
13.58
13.18
12.73
12.26
11.59
10.44
8.69
6.46
4.09
2.10
0.96
0.94
1.98
3.77
5.78
7.39
8.12
7.70
6.12
3.63
0.57
-2.71
-5.96
-9.01
-11.72
-13.97
-15.64
-16.71
-17.30
-17.68
-18.13
-18.85
-19.78
-20.64
-21.05
-20.69
-19.51
-17.68
-15.55
-13.47
-11.70
-10.32
-9.31
-8.55
-7.93
-7.39
-6.90
-6.44
-6.04
-5.68
-5.36
-5.07
-4.79
-4.53
-4.30
-4.11
-3.99
-3.95
-4.04
-4.28
-4.72
-5.38
-6.23
-7.22
-8.22
-9.05
-9.50
-9.43
-8.73
-7.42
-5.61
-3.45
-1.10
1.28
3.55
5.56
7.14
8.17
8.60
8.47
7.87
6.94
5.83
4.71
3.73
3.02
2.61
2.43
2.33
2.14
1.75
1.15
0.43
-0.30
-0.97
-1.59
-2.20
-2.83
-3.46
-4.07
-4.61
-5.04
-5.40
-5.73
-6.09
-6.52
-7.01
-7.42
-7.49
-6.88
-5.32
-2.75
0.55
4.00
6.85
8.52
8.77
7.84
6.29
4.79
3.84
3.63
3.96
4.48
4.82
4.74
4.21
3.35
2.32
1.21
0.04
-1.24
-2.70
-4.35
-6.11
-7.83
-9.29
-10.30
-10.73
-10.62
-10.13
-9.53
-9.02
-8.70
-8.44
-8.02
-7.19
-5.85
-4.09
-2.20
-0.51
0.69
1.22
0.99
0.06
-1.29
-2.50
-2.85
-1.55
1.88
7.46
14.66
22.54
30.08
36.37
40.75
42.83
42.46
39.72
34.97
28.94
22.58
16.90
12.64
10.08
8.97
8.77
8.83
8.69
8.16
7.29
6.27
5.26
4.33
3.39
2.33
1.04
-0.46
-2.03
-3.47
-4.58
-5.26
-5.57
-5.64
-5.71
-5.99
-6.63
-7.59
-8.77
-9.93
-10.86
-11.44
-11.66
-11.67
-11.62
-11.67
-11.87
-12.17
-12.51
-12.87
-13.30
-13.92
-14.77
-15.78
-16.67
-17.08
-16.65
-15.21
-12.85
-9.96
-7.00
-4.40
-2.38
-0.91
0.20
1.16
2.05
2.87
3.45
3.73
3.67
3.41
3.10
2.86
2.68
2.44
2.02
1.35
0.50
-0.39
-1.20
-1.88
-2.47
-3.06
-3.72
-4.47
-5.26
-6.07
-6.91
-7.79
-8.72
-9.60
-10.24
-10.43
-9.96
-8.78
-7.01
-4.88
-2.68
-0.66
1.08
2.60
4.08
5.69
7.46
9.27
10.85
11.92
12.32
12.07
11.42
10.66
10.00
9.53
9.16
8.73
8.14
7.39
6.53
5.62
4.58
3.27
1.49
-0.85
-3.58
-6.37
-8.71
-10.23
-10.77
-10.50
-9.75
-8.88
-8.08
-7.37
-6.67
-5.89
-5.07
-4.32
-3.86
-3.80
-4.21
-5.08
-6.40
-8.19
-10.39
-12.77
-14.73
-15.43
-13.98
-9.85
-3.21
5.02
13.44
20.68
25.88
28.91
30.27
30.71
30.88
31.04
31.16
31.04
30.49
29.37
27.61
25.10
21.79
17.75
13.26
8.84
5.09
2.53
1.37
1.50
2.47
3.71
4.69
5.06
4.76
3.89
2.71
1.46
0.34
-0.54
-1.17
-1.54
-1.66
-1.53
-1.17
-0.67
-0.14
0.25
0.35
0.07
-0.62
-1.76
-3.32
-5.25
-7.45
-9.77
-11.95
-13.67
-14.59
-14.49
-13.32
-11.30
-8.85
-6.49
-4.70
-3.72
-3.53
-3.87
-4.40
-4.80
-4.84
-4.45
-3.63
-2.45
-1.02
0.48
1.90
3.05
3.78
4.04
3.83
3.23
2.33
1.27
0.20
-0.72
-1.38
-1.76
-1.94
-2.17
-2.67
-3.64
-5.08
-6.82
-8.56
-9.96
-10.81
-11.02
-10.68
-9.99
-9.15
-8.37
-7.77
-7.39
-7.25
-7.32
-7.53
-7.83
-8.14
-8.43
-8.67
-8.89
-9.10
-9.37
-9.76
-10.37
-11.28
-12.55
-14.17
-16.03
-17.94
-19.69
-21.15
-22.29
-23.23
-24.22
-25.52
-27.34
-29.75
-32.63
-35.64
-38.27
-39.85
-39.77
-37.51
-32.73
-25.33
-15.43
-3.40
10.03
23.84
36.87
48.05
56.67
62.57
66.06
67.75
68.27
68.05
67.31
66.09
64.39
62.20
59.48
56.15
52.14
47.46
42.28
36.92
31.70
26.86
22.41
18.28
14.36
10.64
7.28
4.51
2.58
1.53
1.18
1.09
0.69
-0.53
-2.93
-6.52
-10.96
-15.66
-20.00
-23.53
-26.07
-27.68
-28.52
-28.66
-28.01
-26.39
-23.71
-20.17
-16.27
-12.66
-9.91
-8.28
-7.68
-7.69
-7.84
-7.81
-7.51
-7.09
-6.82
-6.88
-7.34
-8.13
-9.11
-10.12
-11.03
-11.73
-12.14
-12.13
-11.65
-10.64
-9.10
-7.07
-4.59
-1.75
1.37
4.58
7.59
10.04
11.62
12.16
11.77
10.78
9.67
8.84
8.55
8.76
9.28
9.84
10.27
10.54
10.76
11.16
12.02
13.54
15.75
18.46
21.18
23.31
24.19
23.37
20.69
16.31
10.62
4.05
-2.99
-10.23
-17.40
-24.21
-30.30
-35.19
-38.48
-39.86
-39.28
-36.92
-33.21
-28.70
-23.92
-19.24
-14.81
-10.58
-6.43
-2.26
1.89
5.88
9.49
12.52
14.85
16.39
17.11
16.99
16.11
14.65
12.93
11.29
9.98
9.01
8.15
7.09
5.58
3.67
1.69
0.14
-0.50
0.01
1.57
3.82
6.21
8.28
9.69
10.40
10.56
10.41
10.22
10.19
10.35
10.66
10.95
11.00
10.59
9.56
7.83
5.44
2.53
-0.68
-3.97
-7.16
-10.11
-12.73
-14.97
-16.77
-18.10
-18.98
-19.55
-20.01
-20.61
-21.55
-22.86
-24.41
-25.92
-27.15
-27.97
-28.41
-28.63
-28.80
-29.01
-29.19
-29.22
-28.97
-28.38
-27.48
-26.33
-24.97
-23.45
-21.84
-20.22
-18.61
-16.95
-14.87
-11.82
-7.10
-0.26
8.71
19.19
30.12
40.23
48.51
54.33
57.49
58.10
56.34
52.46
46.79
39.83
32.35
25.25
19.36
15.26
13.04
12.30
12.25
11.94
10.54
7.51
2.79
-3.26
-9.98
-16.60
-22.40
-26.84
-29.61
-30.65
-30.17
-28.57
-26.42
-24.31
-22.74
-22.07
-22.41
-23.63
-25.40
-27.23
-28.58
-29.03
-28.38
-26.78
-24.65
-22.55
-21.00
-20.22
-20.11
-20.31
-20.32
-19.71
-18.21
-15.74
-12.35
-8.22
-3.56
1.35
6.14
10.48
14.08
16.83
18.81
20.28
21.52
22.71
23.87
24.79
25.22
24.97
24.02
22.55
20.82
19.06
17.43
15.95
14.63
13.45
12.40
11.46
10.57
9.61
8.45
7.02
5.33
3.45
1.54
-0.24
-1.70
-2.68
-3.11
-3.02
-2.58
-2.02
-1.54
-1.23
-0.97
-0.56
0.24
1.48
2.97
4.32
5.09
4.95
3.86
2.04
-0.10
-2.13
-3.75
-4.90
-5.68
-6.27
-6.85
-7.45
-8.03
-8.51
-8.84
-9.10
-9.49
-10.25
-11.57
-13.44
-15.63
-17.75
-19.35
-20.07
-19.65
-17.96
-15.01
-10.94
-6.01
-0.69
4.48
8.94
12.30
14.36
15.22
15.06
14.12
12.56
10.49
8.00
5.25
2.47
-0.13
-2.37
-4.19
-5.60
-6.66
-7.44
-7.96
-8.23
-8.30
-8.27
-8.28
-8.46
-8.84
-9.35
-9.80
-9.94
-9.52
-8.41
-6.60
-4.26
-1.64
1.00
3.46
5.61
7.45
9.00
10.24
11.13
11.63
11.72
11.47
11.02
10.53
10.15
9.91
9.73
9.46
8.88
7.87
6.43
4.70
2.95
1.46
0.40
-0.21
-0.54
-0.82
-1.30
-2.05
-2.98
-3.83
-4.31
-4.17
-3.32
-1.81
0.19
2.49
4.92
7.36
9.70
11.77
13.36
14.26
14.35
13.67
12.43
10.93
9.43
8.11
6.99
5.97
4.94
3.80
2.56
1.28
0.03
-1.17
-2.38
-3.66
-5.10
-6.69
-8.35
-9.97
-11.43
-12.67
-13.63
-14.28
-14.49
-14.11
-12.99
-11.11
-8.61
-5.78
-2.98
-0.44
1.75
3.60
5.18
6.47
7.34
7.61
7.23
6.31
5.14
4.04
3.28
2.95
2.98
3.16
3.29
3.21
2.83
2.12
1.11
-0.11
-1.47
-2.89
-4.36
-5.90
-7.45
-8.88
-9.97
-10.47
-10.24
-9.28
-7.73
-5.76
-3.45
-0.77
2.37
5.96
9.80
13.48
16.56
18.70
19.82
20.05
19.71
19.06
18.29
17.42
16.39
15.10
13.48
11.60
9.55
7.52
5.67
4.10
2.79
1.60
0.36
-1.12
-2.92
-5.01
-7.23
-9.37
-11.21
-12.51
-13.09
-12.82
-11.71
-9.93
-7.78
-5.62
-3.76
-2.34
-1.27
-0.35
0.64
1.73
2.79
3.53
3.71
3.32
2.56
1.84
1.48
1.59
2.03
2.49
2.69
2.51
2.06
1.53
1.13
0.92
0.84
0.66
0.13
-0.92
-2.53
-4.53
-6.61
-8.36
-9.39
-9.44
-8.47
-6.64
-4.26
-1.74
0.61
2.60
4.19
5.44
6.44
7.25
7.87
8.25
8.35
8.24
8.05
7.91
7.90
7.93
7.82
7.43
6.76
5.96
5.27
4.89
4.84
4.93
4.83
4.21
2.88
0.86
-1.70
-4.49
-7.20
-9.61
-11.55
-12.99
-13.91
-14.34
-14.26
-13.67
-12.61
-11.21
-9.77
-8.61
-8.12
-8.55
-10.02
-12.50
-15.76
-19.26
-22.12
-23.13
-21.06
-15.11
-5.26
7.44
21.23
34.08
44.36
51.27
54.80
55.48
53.89
50.38
45.12
38.26
30.21
21.72
13.74
7.13
2.32
-0.73
-2.53
-3.67
-4.60
-5.42
-5.97
-6.05
-5.59
-4.87
-4.32
-4.36
-5.10
-6.31
-7.52
-8.29
-8.40
-8.01
-7.50
-7.27
-7.55
-8.33
-9.37
-10.40
-11.20
-11.70
-11.91
-11.96
-11.96
-12.08
-12.43
-13.08
-13.97
-14.91
-15.55
-15.56
-14.70
-12.96
-10.61
-8.01
-5.56
-3.50
-1.93
-0.76
0.12
0.84
1.47
2.04
2.58
3.10
3.62
4.11
4.51
4.74
4.67
4.26
3.51
2.51
1.41
0.35
-0.53
-1.24
-1.86
-2.56
-3.53
-4.86
-6.56
-8.47
-10.38
-11.99
-13.00
-13.16
-12.33
-10.53
-7.99
-5.10
-2.34
-0.13
1.29
1.88
1.82
1.37
0.80
0.26
-0.22
-0.70
-1.29
-2.10
-3.22
-4.68
-6.35
-7.94
-8.98
-8.95
-7.50
-4.65
-0.85
3.13
6.44
8.48
9.03
8.36
7.01
5.65
4.80
4.75
5.48
6.73
8.12
9.23
9.82
9.80
9.31
8.56
7.82
7.22
6.80
6.55
6.45
6.50
6.69
6.93
7.03
6.77
5.95
4.55
2.74
0.82
-0.87
-2.05
-2.68
-2.88
-2.93
-3.14
-3.73
-4.78
-6.20
-7.76
-9.17
-10.15
-10.50
-10.17
-9.24
-7.91
-6.45
-5.05
-3.82
-2.78
-1.87
-1.06
-0.35
0.15
0.35
0.19
-0.29
-0.93
-1.56
-2.04
-2.33
-2.53
-2.81
-3.41
-4.48
-6.10
-8.22
-10.67
-13.21
-15.56
-17.42
-18.60
-18.97
-18.52
-17.32
-15.52
-13.31
-10.85
-8.28
-5.66
-3.01
-0.30
2.48
5.33
8.17
10.94
13.54
15.89
17.91
19.46
20.38
20.52
19.84
18.42
16.52
14.44
12.37
10.30
8.10
5.69
3.14
0.74
-1.19
-2.43
-3.01
-3.14
-3.04
-2.81
-2.34
-1.53
-0.37
0.87
1.78
1.95
1.23
-0.21
-1.94
-3.47
-4.39
-4.56
-3.98
-2.80
-1.17
0.81
3.09
5.66
8.52
11.65
15.06
18.75
22.72
26.87
30.88
34.17
35.97
35.51
32.30
26.40
18.51
9.79
1.54
-5.23
-10.02
-12.94
-14.54
-15.56
-16.67
-18.30
-20.60
-23.47
-26.61
-29.58
-31.91
-33.18
-33.23
-32.21
-30.64
-29.28
-28.88
-29.86
-32.13
-35.09
-37.83
-39.52
-39.79
-38.89
-37.65
-37.23
-38.81
-43.22
-50.57
-60.00
-69.50
-76.19
-76.96
-69.46
-53.10
-29.49
-2.09
24.90
47.89
64.92
75.91
82.11
85.11
86.14
85.74
84.01
80.98
76.87
71.85
65.77
57.87
46.94
31.92
12.48
-10.56
-35.32
-59.29
-79.85
-94.78
-102.42
-101.98
-93.59
-78.43
-58.60
-36.73
-15.39
3.50
19.03
31.22
40.64
47.93
53.53
57.65
60.41
62.03
62.84
63.15
63.15
62.81
61.93
60.31
57.97
55.24
52.69
50.94
50.38
50.94
52.04
52.79
52.31
50.08
46.18
41.35
36.78
33.77
33.30
35.68
40.34
45.93
50.76
53.35
52.98
50.02
45.83
42.32
41.28
43.80
49.91
58.58
67.87
75.20
77.69
72.72
58.86
36.73
9.32
-18.61
-41.95
-57.12
-63.21
-62.04
-56.93
-51.09
-46.35
-42.94
-40.21
-37.57
-35.15
-33.74
-34.18
-36.83
-41.31
-46.69
-51.86
-55.92
-58.42
-59.25
-58.59
-56.70
-53.84
-50.27
-46.18
-41.80
-37.38
-33.15
-29.28
-25.80
-22.65
-19.76
-17.15
-14.97
-13.53
-13.06
-13.69
-15.32
-17.58
-19.93
-21.73
-22.40
-21.57
-19.14
-15.42
-11.02
-6.79
-3.57
-1.92
-1.98
-3.34
-5.22
-6.72
-7.09
-6.03
-3.67
-0.47
2.90
5.80
7.78
8.52
7.98
6.31
3.81
0.89
-2.06
-4.80
-7.28
-9.65
-12.15
-14.99
-18.17
-21.42
-24.26
-26.14
-26.59
-25.40
-22.73
-19.06
-15.10
-11.55
-8.96
-7.55
-7.20
-7.59
-8.32
-9.10
-9.85
-10.64
-11.58
-12.70
-13.85
-14.78
-15.24
-15.05
-14.17
-12.69
-10.77
-8.61
-6.47
-4.65
-3.39
-2.82
-2.77
-2.85
-2.48
-1.18
1.21
4.47
8.03
11.22
13.49
14.60
14.71
14.24
13.72
13.56
13.83
14.25
14.35
13.64
11.95
9.43
6.62
4.11
2.46
2.00
2.92
5.27
8.80
12.86
16.34
17.88
16.38
11.54
4.19
-4.00
-11.15
-15.92
-17.93
-17.71
-16.11
-13.77
-10.75
-6.77
-1.60
4.52
10.77
16.06
19.50
20.78
20.23
18.55
16.42
14.09
11.43
8.03
3.59
-1.76
-7.43
-12.52
-16.12
-17.64
-17.02
-14.72
-11.50
-8.17
-5.25
-2.84
-0.73
1.49
4.04
6.92
9.86
12.58
14.91
16.85
18.47
19.84
20.92
21.68
22.16
22.63
23.41
24.81
26.91
29.47
32.08
34.28
35.69
36.13
35.53
33.94
31.43
28.10
24.06
19.54
14.85
10.42
6.67
3.92
2.28
1.55
1.31
1.06
0.36
-0.97
-2.99
-5.62
-8.85
-12.68
-17.06
-21.76
-26.33
-30.15
-32.69
-33.71
-33.34
-32.05
-30.40
-28.84
-27.54
-26.41
-25.26
-23.95
-22.46
-20.87
-19.33
-17.88
-16.52
-15.20
-13.85
-12.47
-11.11
-9.85
-8.76
-7.87
-7.22
-6.80
-6.58
-6.47
-6.42
-6.35
-6.26
-6.18
-6.21
-6.42
-6.83
-7.39
-7.99
-8.48
-8.74
-8.71
-8.40
-7.93
-7.41
-6.94
-6.56
-6.25
-6.03
-5.88
-5.79
-5.69
-5.48
-5.00
-4.15
-2.90
-1.38
0.17
1.54
2.56
3.18
3.41
3.33
2.97
2.38
1.61
0.74
-0.11
-0.89
-1.57
-2.18
-2.79
-3.41
-4.05
-4.64
-5.18
-5.67
-6.23
-6.97
-7.99
-9.30
-10.81
-12.34
-13.75
-14.86
-15.59
-15.85
-15.59
-14.76
-13.36
-11.51
-9.41
-7.36
-5.74
-4.81
-4.73
-5.49
-6.89
-8.65
-10.30
-11.26
-10.83
-8.37
-3.46
3.85
12.97
22.82
32.15
39.81
45.04
47.53
47.30
44.60
39.79
33.35
25.98
18.55
12.03
7.20
4.53
3.96
5.02
6.98
9.09
10.76
11.68
11.81
11.26
10.22
8.86
7.30
5.58
3.72
1.76
-0.21
-2.04
-3.60
-4.84
-5.75
-6.49
-7.20
-7.99
-8.90
-9.85
-10.77
-11.59
-12.36
-13.11
-13.87
-14.52
-14.83
-14.53
-13.47
-11.62
-9.16
-6.34
-3.42
-0.60
1.96
4.11
5.66
6.47
6.46
5.68
4.33
2.67
0.98
-0.58
-1.95
-3.20
-4.41
-5.65
-6.84
-7.81
-8.34
-8.29
-7.69
-6.70
-5.59
-4.57
-3.74
-3.10
-2.60
-2.13
-1.65
-1.04
-0.22
0.88
2.27
3.83
5.37
6.72
7.79
8.59
9.20
9.70
10.13
10.49
10.80
11.12
11.44
11.72
11.84
11.66
11.07
10.13
8.99
7.84
6.85
6.04
5.34
4.62
3.81
2.89
1.87
0.73
-0.57
-2.03
-3.56
-4.95
-5.88
-6.10
-5.56
-4.44
-3.10
-1.86
-0.85
-0.02
0.84
1.86
3.03
4.16
5.00
5.39
5.32
5.00
4.67
4.54
4.66
4.93
5.16
5.15
4.80
4.08
3.10
1.99
0.91
-0.02
-0.74
-1.28
-1.72
-2.23
-2.95
-3.92
-5.04
-6.07
-6.68
-6.61
-5.73
-4.15
-2.12
0.01
1.95
3.55
4.79
5.71
6.41
6.96
7.35
7.56
7.56
7.31
6.82
6.13
5.34
4.51
3.67
2.79
1.84
0.74
-0.48
-1.77
-3.02
-4.14
-5.11
-5.92
-6.64
-7.28
-7.85
-8.37
-8.88
-9.47
-10.18
-10.98
-11.69
-12.06
-11.83
-10.90
-9.35
-7.38
-5.29
-3.28
-1.45
0.11
1.37
2.26
2.72
2.79
2.58
2.27
1.99
1.80
1.67
1.55
1.45
1.39
1.37
1.40
1.41
1.36
1.22
1.04
0.86
0.70
0.54
0.32
0.04
-0.30
-0.67
-1.06
-1.50
-1.97
-2.37
-2.48
-2.03
-0.84
1.06
3.43
5.88
8.04
9.70
10.84
11.55
11.98
12.23
12.33
12.29
12.16
11.96
11.73
11.45
11.07
10.52
9.75
8.70
7.39
5.84
4.13
2.38
0.79
-0.49
-1.32
-1.70
-1.78
-1.83
-2.13
-2.89
-4.09
-5.48
-6.59
-6.91
-6.09
-4.06
-1.09
2.35
5.73
8.70
11.12
13.02
14.49
15.53
16.03
15.77
14.60
12.40
9.24
5.32
0.95
-3.45
-7.43
-10.62
-12.75
-13.80
-13.92
-13.41
-12.55
-11.54
-10.43
-9.24
-8.00
-6.82
-5.81
-5.05
-4.47
-3.89
-2.99
-1.52
0.65
3.40
6.45
9.45
12.05
14.11
15.58
16.56
17.12
17.23
16.80
15.68
13.81
11.25
8.23
5.02
1.89
-1.04
-3.71
-6.16
-8.44
-10.59
-12.64
-14.67
-16.73
-18.91
-21.20
-23.44
-25.34
-26.58
-26.91
-26.28
-24.89
-23.09
-21.21
-19.42
-17.71
-15.90
-13.81
-11.29
-8.31
-4.94
-1.33
2.33
5.76
8.67
10.75
11.77
11.69
10.68
9.08
7.26
5.59
4.30
3.47
3.03
2.81
2.60
2.17
1.41
0.26
-1.23
-2.98
-4.87
-6.80
-8.65
-10.31
-11.61
-12.42
-12.71
-12.55
-12.14
-11.72
-11.46
-11.40
-11.48
-11.63
-11.88
-12.41
-13.46
-15.19
-17.53
-20.17
-22.68
-24.65
-25.94
-26.67
-27.24
-28.15
-29.90
-32.84
-37.15
-42.75
-49.18
-55.51
-60.50
-62.89
-61.98
-58.05
-52.38
-46.92
-43.42
-42.68
-44.14
-46.12
-46.52
-43.70
-37.02
-26.79
-13.87
0.74
16.11
31.36
45.56
57.72
67.05
73.36
77.15
79.61
82.12
85.65
90.40
95.68
100.17
102.42
101.25
96.12
87.27
75.63
62.55
49.38
37.15
26.24
16.45
7.27
-1.78
-10.70
-18.98
-25.62
-29.51
-29.87
-26.49
-19.97
-11.51
-2.75
4.71
9.66
11.60
10.83
8.26
5.04
2.13
0.02
-1.30
-2.17
-2.99
-3.94
-4.93
-5.60
-5.48
-4.17
-1.42
2.69
7.75
12.98
17.36
19.91
19.94
17.33
12.68
7.17
2.17
-1.16
-2.28
-1.29
1.25
4.72
8.68
12.96
17.39
21.54
24.68
25.95
24.85
21.57
17.00
12.33
8.55
6.06
4.70
4.07
3.89
4.30
5.64
8.26
12.18
16.94
21.68
25.35
27.19
26.95
25.08
22.67
21.08
21.52
24.35
28.81
33.05
34.84
32.42
25.39
14.84
2.87
-8.26
-17.42
-25.16
-33.38
-44.23
-59.04
-77.74
-99.02
-120.91
-140.62
-154.96
-160.24
-152.82
-130.50
-94.23
-48.78
-1.88
38.51
67.80
85.26
93.11
94.43
91.38
84.47
73.54
58.73
41.46
25.38
13.66
7.50
6.01
7.53
10.98
17.09
27.39
43.22
66.14
94.95
125.29
150.94
166.30
168.40
158.21
139.15
107.30
64.59
18.45
-21.43
-48.93
-62.90
-70.05
-77.22
-90.13
-112.14
-141.01
-171.17
-195.45
-207.64
-204.41
-186.36
-157.24
-122.94
-88.88
-56.72
-25.88
4.93
36.31
67.82
98.07
124.61
143.13
148.33
136.84
107.81
63.88
11.53
-39.63
-78.76
-97.25
-92.31
-67.93
-32.18
4.91
34.51
51.66
53.76
44.17
31.70
25.16
28.05
39.40
55.94
73.72
88.43
95.14
89.36
68.62
35.79
-5.01
-45.43
-75.86
-89.80
-86.61
-71.43
-52.08
-35.86
-27.06
-26.41
-31.16
-36.77
-39.75
-38.70
-34.17
-27.55
-20.33
-13.61
-8.29
-4.47
-2.17
-1.68
-3.31
-7.00
-11.89
-16.66
-20.12
-21.93
-22.34
-22.24
-22.86
-25.00
-28.46
-31.92
-33.38
-31.09
-24.47
-14.20
-2.09
9.53
18.74
24.62
27.32
27.64
26.50
24.40
21.48
17.70
13.10
8.02
2.97
-1.52
-5.16
-7.98
-10.19
-11.97
-13.33
-14.08
-13.95
-12.77
-10.59
-7.69
-4.49
-1.37
1.40
3.73
5.65
7.26
8.61
9.68
10.40
10.70
10.59
10.16
9.57
9.04
8.71
8.61
8.67
8.79
8.87
8.91
8.96
9.02
9.05
8.90
8.39
7.36
5.78
3.74
1.40
-1.02
-3.32
-5.33
-6.88
-7.83
-8.06
-7.57
-6.48
-5.01
-3.49
-2.16
-1.12
-0.26
0.64
1.82
3.31
4.89
6.18
6.76
6.42
5.21
3.37
1.17
-1.21
-3.69
-6.21
-8.65
-10.75
-12.29
-13.16
-13.51
-13.67
-14.03
-14.81
-16.01
-17.38
-18.54
-19.09
-18.79
-17.59
-15.67
-13.42
-11.26
-9.51
-8.12
-6.76
-4.88
-1.98
2.05
6.92
12.05
16.77
20.61
23.38
25.13
25.99
26.09
25.51
24.34
22.79
21.17
19.78
18.78
18.11
17.49
16.57
15.09
12.97
10.41
7.75
5.43
3.87
3.32
3.85
5.25
7.03
8.51
9.05
8.24
6.11
3.16
0.14
-2.27
-3.74
-4.33
-4.48
-4.71
-5.46
-6.98
-9.27
-12.16
-15.31
-18.27
-20.44
-21.26
-20.38
-17.86
-14.35
-10.94
-8.86
-9.02
-11.57
-15.84
-20.57
-24.40
-26.43
-26.45
-24.90
-22.49
-19.82
-17.14
-14.40
-11.40
-8.03
-4.29
-0.31
3.82
8.01
12.15
16.00
19.19
21.32
22.15
21.69
20.25
18.27
16.21
14.38
12.91
11.82
11.07
10.60
10.29
10.04
9.71
9.19
8.41
7.44
6.43
5.64
5.36
5.82
7.13
9.24
12.00
15.23
18.83
22.78
27.08
31.65
36.25
40.40
43.55
45.16
44.82
42.35
37.83
31.60
24.23
16.44
8.93
2.24
-3.39
-8.04
-11.91
-15.15
-17.71
-19.32
-19.67
-18.62
-16.37
-13.43
-10.49
-8.19
-6.94
-6.78
-7.41
-8.33
-9.01
-9.00
-8.09
-6.33
-3.98
-1.38
1.10
3.13
4.37
4.46
3.07
0.04
-4.40
-9.57
-14.48
-18.15
-19.92
-19.66
-17.69
-14.53
-10.66
-6.38
-1.91
2.41
6.06
8.50
9.40
8.94
7.85
7.12
7.64
9.78
13.25
17.18
20.55
22.51
22.88
22.16
21.32
21.24
22.17
23.57
24.34
23.45
20.60
16.45
12.29
9.25
7.55
6.33
4.09
-0.44
-7.51
-16.24
-25.09
-32.59
-37.92
-40.85
-41.37
-39.25
-34.10
-25.85
-15.41
-4.96
2.50
4.19
-1.32
-13.39
-29.30
-44.90
-55.62
-57.75
-49.49
-31.75
-8.26
15.32
33.10
40.97
38.00
26.61
11.21
-3.88
-16.12
-25.26
-32.43
-38.70
-44.05
-47.29
-46.88
-42.02
-33.20
-22.02
-10.56
-0.56
6.99
11.87
14.35
14.90
13.95
11.88
9.02
5.66
2.18
-0.91
-3.07
-3.89
-3.34
-1.96
-0.71
-0.69
-2.70
-6.89
-12.77
-19.43
-26.00
-31.92
-37.03
-41.21
-44.13
-45.15
-43.75
-40.07
-35.33
-31.45
-30.29
-32.55
-37.36
-42.59
-45.87
-45.79
-42.43
-37.10
-31.39
-26.32
-21.97
-17.62
-12.32
-5.36
3.65
14.82
28.11
43.20
59.44
75.82
91.05
103.85
113.18
118.38
119.23
115.98
109.24
99.96
89.21
77.97
66.92
56.30
45.95
35.61
25.12
14.70
4.95
-3.24
-9.05
-12.00
-12.15
-10.16
-7.09
-4.08
-2.02
-1.27
-1.68
-2.78
-4.04
-5.16
-6.17
-7.26
-8.52
-9.78
-10.52
-10.08
-8.01
-4.30
0.61
5.98
11.10
15.47
18.80
20.91
21.50
20.30
17.17
12.35
6.40
-0.15
-7.20
-15.34
-25.62
-38.99
-55.63
-74.57
-93.84
-110.94
-123.43
-129.50
-128.23
-119.73
-105.22
-86.99
-68.10
-51.77
-40.51
-35.33
-35.44
-38.61
-42.00
-43.21
-40.94
-35.14
-26.82
-17.44
-8.53
-1.22
3.77
6.22
6.21
4.07
0.19
-4.99
-11.08
-17.67
-24.36
-30.73
-36.26
-40.29
-42.03
-40.61
-35.37
-26.08
-13.20
2.20
18.62
34.48
48.45
59.72
68.01
73.48
76.41
76.96
75.07
70.70
64.25
56.82
50.05
45.66
44.65
47.04
51.99
58.44
65.70
73.47
81.44
88.66
93.55
94.49
90.81
83.43
74.70
67.33
63.11
62.11
62.86
63.07
60.67
54.49
44.44
31.20
15.93
-0.05
-15.45
-29.09
-40.12
-48.10
-53.14
-55.69
-56.29
-55.22
-52.48
-47.88
-41.40
-33.46
-24.86
-16.60
-9.42
-3.64
0.79
4.02
5.98
6.35
4.79
1.30
-3.50
-8.47
-12.37
-14.30
-14.05
-12.02
-9.03
-5.97
-3.56
-2.28
-2.36
-3.83
-6.48
-9.79
-12.98
-15.22
-15.86
-14.76
-12.36
-9.49
-6.98
-5.31
-4.37
-3.63
-2.43
-0.34
2.65
6.12
9.42
11.86
12.89
12.11
9.39
4.77
-1.36
-8.33
-15.28
-21.28
-25.61
-27.85
-27.97
-26.25
-23.10
-19.02
-14.52
-10.04
-5.99
-2.67
-0.24
1.30
2.12
2.50
2.66
2.76
2.82
2.78
2.64
2.42
2.25
2.26
2.52
2.98
3.53
4.01
4.31
4.34
4.10
3.60
2.84
1.82
0.50
-1.15
-3.23
-5.79
-8.84
-12.29
-15.92
-19.40
-22.38
-24.50
-25.61
-25.72
-25.12
-24.16
-23.23
-22.58
-22.26
-22.16
-22.04
-21.71
-21.02
-19.89
-18.33
-16.37
-14.06
-11.43
-8.53
-5.43
-2.14
1.44
5.53
10.45
16.48
23.68
31.72
39.86
47.17
52.76
56.23
57.70
57.80
57.38
57.09
57.19
57.52
57.71
57.41
56.49
55.14
53.84
53.20
53.77
55.82
59.17
63.23
67.08
69.84
70.85
69.96
67.48
64.02
60.29
56.87
54.07
51.81
49.68
46.95
42.75
36.32
27.27
15.70
2.21
-12.26
-26.60
-39.79
-51.09
-60.31
-68.03
-75.56
-84.59
-96.54
-111.78
-129.24
-146.63
-161.38
-171.71
-177.49
-180.16
-182.05
-185.23
-190.64
-197.76
-204.96
-210.11
-211.26
-207.09
-197.23
-182.43
-164.55
-146.22
-130.19
-118.18
-109.80
-102.10
-90.42
-70.22
-39.47
-0.17
41.89
79.16
105.33
117.75
118.22
111.62
103.47
97.87
96.60
99.74
106.59
116.14
126.79
135.76
139.18
133.35
116.81
92.00
65.17
44.15
35.04
39.28
53.03
68.95
79.67
80.87
72.75
59.12
44.96
33.99
27.33
23.73
21.05
17.69
13.44
9.20
6.19
5.04
5.44
6.24
6.11
4.32
1.20
-1.95
-3.51
-2.50
0.69
4.26
5.69
2.98
-4.21
-14.23
-24.12
-30.97
-33.38
-32.05
-29.31
-27.88
-29.42
-33.87
-39.75
-45.17
-48.89
-50.74
-51.33
-51.26
-50.43
-47.93
-42.64
-34.06
-22.88
-10.90
-0.39
6.88
10.22
10.16
8.04
5.30
2.94
1.31
0.32
-0.17
0.04
1.67
5.59
12.42
21.91
32.75
42.82
49.90
52.50
50.49
45.08
38.22
31.92
27.70
26.33
27.90
31.95
37.43
42.83
46.40
46.55
42.46
34.41
23.71
12.26
1.80
-6.50
-12.28
-15.68
-17.05
-16.71
-14.96
-12.14
-8.79
-5.51
-2.87
-1.15
-0.24
0.35
1.26
2.96
5.66
9.21
13.17
17.02
20.40
23.20
25.64
28.13
31.09
34.96
39.98
46.11
53.08
60.45
67.80
74.59
80.15
83.49
83.74
80.30
73.10
62.77
50.46
37.51
25.07
13.97
4.62
-2.38
-6.64
-8.10
-7.24
-5.01
-2.97
-3.14
-7.61
-18.04
-34.03
-53.21
-71.53
-84.42
-88.66
-84.08
-74.05
-62.77
-55.67
-55.61
-61.78
-70.95
-79.97
-86.82
-90.03
-87.85
-78.47
-63.02
-42.41
-19.84
0.06
13.49
19.26
19.16
16.70
15.44
17.47
23.10
31.10
38.44
41.09
35.77
21.86
2.32
-17.09
-30.35
-33.85
-28.91
-21.28
-17.95
-23.55
-37.90
-56.83
-75.13
-89.62
-99.72
-106.20
-108.61
-103.91
-87.54
-56.49
-12.09
39.19
87.77
124.35
142.88
142.07
125.50
100.67
77.08
63.44
64.52
78.42
96.51
106.61
98.94
71.51
31.80
-6.78
-31.86
-38.55
-31.26
-20.27
-15.49
-21.26
-35.20
-51.08
-63.12
-69.04
-70.22
-69.51
-68.51
-66.30
-59.82
-45.97
-23.40
6.52
39.94
71.66
96.45
110.36
111.74
101.77
84.42
65.46
51.03
45.73
51.33
66.25
86.18
105.53
118.99
122.61
114.40
94.49
64.93
29.55
-6.62
-38.17
-60.52
-71.21
-70.68
-62.22
-50.97
-42.33
-40.22
-45.97
-58.14
-73.30
-87.34
-96.84
-100.04
-97.03
-89.36
-79.19
-68.41
-58.17
-48.66
-39.54
-30.41
-21.25
-12.63
-5.51
-0.90
0.55
-1.10
-5.02
-9.83
-13.92
-15.85
-14.74
-10.35
-3.17
5.74
14.94
22.83
27.93
29.09
25.90
18.99
10.16
2.12
-2.32
-1.41
4.70
13.83
22.55
27.69
27.72
23.35
17.19
12.30
10.90
13.42
18.54
24.13
28.38
30.74
32.15
34.43
39.29
47.34
57.47
67.08
72.91
72.32
64.31
49.92
31.83
13.37
-2.51
-14.00
-20.63
-23.49
-25.32
-30.17
-42.37
-64.55
-95.48
-129.04
-155.52
-165.10
-152.27
-118.80
-73.43
-28.30
6.19
25.34
30.99
29.13
25.95
24.63
24.53
22.83
17.09
7.30
-4.02
-13.30
-17.92
-17.65
-14.53
-11.44
-10.38
-11.48
-13.10
-13.21
-10.88
-7.12
-4.48
-5.62
-11.77
-21.82
-32.68
-40.67
-43.12
-39.57
-31.81
-22.92
-15.81
-11.96
-10.99
-11.06
-9.86
-5.83
1.17
9.89
18.41
25.18
29.69
32.59
35.18
38.74
43.95
50.64
57.64
62.55
61.96
51.96
29.46
-6.17
-51.93
-101.37
-146.29
-179.28
-195.89
-195.52
-180.71
-155.53
-124.08
-89.58
-54.14
-18.89
15.70
49.42
81.69
110.98
134.60
149.40
152.91
144.64
126.52
102.54
77.63
56.66
43.40
40.03
46.62
60.82
78.07
92.66
99.42
95.55
81.70
61.50
39.98
21.48
8.30
0.49
-3.26
-4.54
-4.45
-3.57
-2.31
-1.21
-1.07
-2.64
-6.20
-11.39
-17.23
-22.56
-26.50
-28.73
-29.53
-29.37
-28.48
-26.57
-22.85
-16.51
-7.26
4.28
16.64
27.86
36.15
40.39
40.47
37.28
32.33
27.33
23.68
22.20
22.96
25.50
28.99
32.65
35.96
38.86
41.68
45.01
49.39
54.98
61.39
67.71
72.90
76.06
76.92
75.78
73.25
70.05
66.63
62.87
57.89
50.37
39.35
24.88
8.17
-8.99
-25.32
-40.66
-55.70
-70.79
-84.72
-94.56
-96.87
-89.65
-73.63
-52.08
-29.05
-7.52
11.50
28.18
42.43
53.00
57.89
55.79
47.39
35.11
22.13
10.77
1.60
-6.38
-14.48
-23.36
-32.50
-40.74
-47.06
-51.17
-53.58
-55.15
-56.56
-57.91
-58.81
-58.69
-57.20
-54.42
-50.74
-46.70
-42.73
-39.00
-35.52
-32.17
-28.92
-25.84
-23.09
-20.82
-19.06
-17.69
-16.62
-15.78
-15.26
-15.29
-16.15
-17.99
-20.73
-24.03
-27.40
-30.36
-32.58
-33.95
-34.56
-34.62
-34.37
-34.05
-33.89
-34.13
-35.03
-36.81
-39.60
-43.29
-47.56
-51.89
-55.73
-58.62
-60.39
-61.11
-60.97
-60.09
-58.34
-55.39
-50.83
-44.32
-35.71
-25.05
-12.51
1.58
16.67
31.90
46.16
58.27
67.28
72.75
74.72
73.60
69.87
63.96
56.26
47.29
37.72
28.31
19.60
11.71
4.27
-3.21
-10.97
-18.62
-25.30
-30.01
-32.21
-32.14
-30.72
-29.14
-28.40
-29.05
-31.22
-34.84
-39.75
-45.44
-50.90
-54.55
-54.67
-50.38
-42.28
-32.66
-24.69
-21.04
-22.50
-27.36
-31.99
-32.38
-25.88
-12.38
5.83
25.12
41.95
54.03
60.59
62.14
59.78
54.81
48.50
42.02
36.33
31.83
28.11
23.86
17.38
7.26
-6.85
-23.84
-41.26
-55.89
-64.54
-64.95
-56.44
-40.15
-18.73
4.41
26.10
44.09
57.42
66.25
71.32
73.44
73.18
70.85
66.69
61.12
55.00
49.69
46.72
47.35
51.95
59.68
68.58
76.21
80.51
80.49
76.40
69.35
60.68
51.44
42.24
33.48
25.55
18.94
14.01
10.76
8.66
6.87
4.52
1.07
-3.51
-8.79
-14.01
-18.35
-21.16
-22.14
-21.38
-19.32
-16.56
-13.59
-10.57
-7.26
-3.14
2.22
8.86
16.31
23.67
29.96
34.46
36.92
37.51
36.61
34.60
31.68
27.88
23.15
17.47
10.91
3.67
-3.98
-11.74
-19.37
-26.63
-33.30
-39.07
-43.49
-45.99
-46.07
-43.54
-38.72
-32.52
-26.16
-20.69
-16.72
-14.27
-13.05
-12.74
-13.24
-14.59
-16.72
-19.24
-21.33
-22.05
-20.76
-17.39
-12.45
-6.69
-0.68
5.42
11.78
18.73
26.39
34.46
42.34
49.41
55.34
60.05
63.47
65.19
64.51
60.51
52.47
40.15
24.04
5.49
-13.77
-31.87
-47.16
-57.94
-62.99
-62.07
-56.32
-47.99
-39.19
-31.52
-25.43
-20.53
-15.32
-8.55
-0.10
8.71
15.78
19.87
20.37
17.45
11.46
4.42
-0.80
-1.19
5.16
18.33
37.16
58.40
77.65
90.30
94.78
92.27
85.59
77.46
64.08
44.27
19.88
0.03
-13.05
-19.12
-20.14
-17.59
-13.43
-9.75
-7.30
-6.49
-7.68
-11.77
-18.32
-26.17
-33.90
-40.53
-45.39
-47.18
-44.97
-38.62
-29.44
-19.04
-9.71
-4.39
-6.33
-17.69
-37.08
-59.38
-78.12
-88.95
-90.56
-84.07
-71.78
-56.21
-39.14
-21.28
-3.21
13.20
26.69
35.72
39.57
38.88
35.36
31.03
27.43
24.82
22.31
18.68
13.00
5.71
-2.48
-11.45
-22.03
-35.48
-52.31
-71.16
-88.62
-100.52
-103.61
-97.06
-82.76
-64.32
-45.48
-28.86
-15.44
-4.89
3.62
10.79
16.83
21.59
24.81
26.53
27.15
27.35
27.78
28.64
29.72
30.42
30.10
28.48
25.79
22.78
20.28
18.79
18.16
17.71
16.52
13.98
10.08
5.51
1.39
-1.28
-2.02
-1.21
0.11
0.60
-0.82
-4.52
-10.00
-16.12
-21.45
-24.68
-24.99
-22.11
-16.36
-8.67
-0.50
6.46
10.81
12.13
11.21
9.83
9.88
12.39
17.00
22.21
26.30
28.26
28.20
27.05
25.74
24.59
23.20
20.94
17.60
13.77
10.55
8.96
9.35
11.11
13.03
13.82
12.75
9.94
6.25
2.77
0.33
-0.89
-1.33
-1.72
-2.61
-4.12
-5.88
-7.32
-7.97
-7.72
-6.75
-5.35
-3.64
-1.54
1.14
4.29
7.12
8.10
5.42
-2.22
-14.55
-29.24
-42.60
-50.89
-52.07
-46.86
-38.50
-31.13
-27.72
-28.91
-33.07
-37.77
-41.51
-44.36
-47.30
-50.68
-53.17
-52.22
-45.59
-32.95
-16.31
1.02
16.26
28.49
38.49
47.47
55.48
61.02
61.99
57.28
47.90
36.51
25.91
17.56
11.02
4.75
-2.41
-10.11
-16.71
-20.19
-19.43
-14.97
-8.66
-2.74
1.26
3.03
3.21
2.87
2.92
3.85
5.80
8.72
12.57
17.27
22.71
28.65
34.66
40.22
44.75
47.69
48.71
47.79
45.34
42.09
38.82
36.11
34.14
32.64
31.00
28.61
25.06
20.30
14.67
8.72
2.90
-2.60
-7.96
-13.44
-18.98
-23.81
-26.48
-25.38
-19.57
-9.54
2.62
13.78
20.76
21.53
15.87
5.43
-6.89
-17.76
-24.38
-25.13
-19.82
-9.68
3.04
15.67
25.88
32.17
34.18
32.48
28.20
22.55
16.53
10.83
5.90
2.11
-0.25
-0.95
0.03
2.38
5.46
8.43
10.45
10.80
8.98
4.72
-1.92
-10.51
-20.05
-29.00
-35.55
-38.11
-35.88
-29.30
-19.99
-10.31
-2.55
1.76
2.25
-0.37
-4.75
-9.43
-13.25
-15.48
-15.72
-13.85
-10.00
-4.65
1.26
6.35
9.11
8.42
4.00
-3.34
-11.89
-19.51
-24.39
-25.52
-22.88
-17.20
-9.55
-0.95
7.75
15.69
21.90
25.28
25.02
21.16
14.88
8.40
4.27
4.39
9.19
17.52
27.21
35.89
41.61
42.92
38.70
28.08
11.01
-10.80
-33.36
-50.99
-58.20
-52.27
-34.82
-11.71
9.35
21.85
22.94
14.00
-0.90
-17.19
-31.65
-42.89
-50.71
-55.18
-56.13
-53.30
-46.97
-38.23
-28.80
-20.33
-13.80
-9.23
-6.00
-3.38
-1.01
0.86
1.63
0.69
-2.14
-6.42
-11.22
-15.37
-17.88
-18.16
-16.14
-12.26
-7.29
-2.21
1.83
3.64
2.06
-3.68
-13.65
-26.92
-41.45
-54.61
-63.87
-67.75
-66.32
-61.17
-54.65
-48.90
-45.04
-42.93
-41.55
-39.80
-37.14
-33.91
-31.01
-29.40
-29.60
-31.46
-34.36
-37.53
-40.38
-42.67
-44.34
-45.32
-45.31
-43.77
-40.08
-33.86
-25.26
-15.01
-4.27
5.71
13.93
19.98
24.13
27.27
30.66
35.48
42.45
51.59
62.31
73.59
84.41
93.91
101.52
106.88
109.75
110.10
108.19
104.69
100.53
96.57
93.22
90.21
86.73
81.91
75.27
67.06
58.09
49.44
41.92
35.78
30.68
25.91
20.71
14.54
7.18
-1.31
-10.70
-20.54
-30.20
-38.84
-45.57
-49.74
-51.23
-50.52
-48.54
-46.27
-44.41
-43.19
-42.46
-41.92
-41.34
-40.66
-39.96
-39.35
-38.96
-38.89
-39.14
-39.62
-40.06
-40.14
-39.66
-38.62
-37.29
-36.01
-34.95
-34.06
-33.13
-32.00
-30.84
-30.10
-30.21
-31.31
-33.00
-34.47
-34.85
-33.61
-30.78
-26.83
-22.39
-17.96
-13.77
-9.79
-5.89
-2.06
1.54
4.69
7.22
9.09
10.46
11.62
12.87
14.43
16.37
18.63
21.04
23.40
25.47
27.01
27.82
27.74
26.67
24.61
21.70
18.28
14.86
12.05
10.43
10.36
11.87
14.59
17.91
21.11
23.59
25.06
25.50
25.11
24.21
23.06
21.80
20.52
19.22
17.88
16.56
15.28
14.07
12.87
11.62
10.20
8.59
6.80
4.90
2.91
0.74
-1.74
-4.58
-7.65
-10.57
-12.80
-13.83
-13.44
-11.77
-9.23
-6.38
-3.65
-1.33
0.53
1.96
3.01
3.72
4.09
4.19
4.06
3.76
3.30
2.66
1.80
0.73
-0.50
-1.83
-3.17
-4.48
-5.77
-7.06
-8.38
-9.77
-11.28
-12.95
-14.74
-16.52
-17.95
-18.62
-18.15
-16.38
-13.43
-9.71
-5.75
-2.07
1.03
3.44
5.23
6.54
7.51
8.24
8.79
9.14
9.26
9.15
8.81
8.32
7.77
7.26
6.78
6.29
5.65
4.80
3.71
2.47
1.15
-0.21
-1.59
-2.92
-4.04
-4.65
-4.48
-3.38
-1.48
0.82
3.02
4.69
5.67
6.05
6.10
6.02
5.84
5.46
4.75
3.72
2.51
1.36
0.48
-0.12
-0.57
-1.13
-1.99
-3.22
-4.76
-6.43
-8.11
-9.75
-11.41
-13.13
-14.80
-16.17
-16.83
-16.40
-14.71
-11.87
-8.30
-4.55
-1.12
1.70
3.83
5.31
6.21
6.60
6.50
5.97
5.12
4.13
3.16
2.29
1.56
0.92
0.32
-0.31
-0.98
-1.72
-2.56
-3.52
-4.67
-6.01
-7.49
-8.95
-10.12
-10.72
-10.50
-9.35
-7.35
-4.76
-1.94
0.71
2.86
4.29
4.98
5.00
4.56
3.86
3.10
2.34
1.63
0.96
0.40
0.03
-0.07
0.11
0.44
0.74
0.79
0.46
-0.31
-1.47
-2.94
-4.60
-6.22
-7.55
-8.25
-8.04
-6.78
-4.58
-1.77
1.23
3.99
6.23
7.85
8.88
9.42
9.59
9.48
9.16
8.68
8.08
7.37
6.56
5.66
4.72
3.80
2.94
2.18
1.46
0.65
-0.38
-1.76
-3.51
-5.52
-7.57
-9.35
-10.56
-10.95
-10.38
-8.90
-6.74
-4.24
-1.77
0.38
2.10
3.44
4.50
5.40
6.14
6.61
6.73
6.49
5.97
5.35
4.79
4.34
3.94
3.52
2.98
2.33
1.60
0.79
-0.11
-1.22
-2.65
-4.48
-6.61
-8.76
-10.53
-11.49
-11.36
-10.14
-8.07
-5.58
-3.08
-0.84
1.07
2.72
4.21
5.51
6.49
6.97
6.83
6.12
5.04
3.84
2.76
1.94
1.40
1.09
0.91
0.74
0.47
-0.03
-0.86
-2.07
-3.58
-5.22
-6.72
-7.76
-8.08
-7.47
-5.88
-3.44
-0.43
2.70
5.51
7.64
8.95
9.54
9.67
9.60
9.52
9.46
9.35
9.04
8.46
7.60
6.53
5.39
4.35
3.53
2.99
2.69
2.49
2.24
1.78
0.96
-0.27
-1.91
-3.80
-5.62
-6.91
-7.17
-6.06
-3.61
-0.23
3.40
6.57
8.77
9.89
10.11
9.75
9.09
8.33
7.51
6.69
5.94
5.37
5.06
5.02
5.13
5.17
4.98
4.45
3.61
2.57
1.45
0.27
-1.01
-2.51
-4.27
-6.18
-8.01
-9.39
-10.00
-9.66
-8.35
-6.29
-3.79
-1.19
1.19
3.14
4.57
5.48
5.98
6.19
6.18
5.97
5.52
4.80
3.87
2.91
2.15
1.73
1.66
1.78
1.80
1.48
0.74
-0.34
-1.57
-2.80
-3.98
-5.11
-6.19
-7.11
-7.59
-7.31
-6.02
-3.66
-0.46
3.08
6.33
8.69
9.76
9.45
7.99
5.91
3.82
2.25
1.46
1.24
1.01
-0.00
-2.37
-6.15
-10.76
-15.14
-18.26
-19.65
-19.83
-20.13
-22.21
-27.10
-34.57
-43.01
-50.05
-53.57
-52.75
-48.55
-43.14
-39.07
-38.22
-41.21
-47.33
-54.64
-59.92
-58.76
-46.22
-18.56
24.48
78.03
132.47
176.40
200.95
203.36
187.80
162.94
137.63
117.23
102.54
91.28
80.86
70.39
60.66
52.75
46.56
40.43
32.12
20.56
6.73
-6.71
-16.71
-21.50
-21.56
-19.23
-17.61
-19.10
-24.47
-32.74
-41.71
-48.98
-52.81
-52.64
-49.13
-43.69
-37.91
-32.89
-29.00
-25.85
-22.67
-18.77
-13.93
-8.49
-3.19
1.21
4.16
5.58
5.82
5.52
5.33
5.71
6.78
8.21
9.49
10.09
9.73
8.52
6.84
5.20
4.01
3.44
3.45
3.86
4.54
5.47
6.67
8.15
9.78
11.30
12.41
12.97
13.09
13.13
13.54
14.50
15.76
16.56
16.00
13.48
9.17
4.15
0.09
-1.38
0.63
5.92
13.27
20.92
27.24
31.15
32.37
31.29
28.53
24.65
19.89
14.34
8.19
1.82
-4.16
-8.99
-12.02
-13.00
-12.27
-10.67
-9.16
-8.38
-8.62
-9.92
-12.12
-14.95
-18.05
-21.03
-23.50
-25.16
-25.79
-25.72
-25.88
-27.34
-30.74
-36.04
-42.59
-49.57
-56.43
-62.88
-68.38
-72.83
-77.04
-81.80
-86.83
-90.70
-91.68
-89.81
-85.29
-79.50
-74.45
-71.82
-72.23
-75.07
-78.75
-80.66
-77.94
-67.72
-48.46
-21.01
11.19
43.06
69.68
88.27
99.04
104.56
108.15
111.76
115.15
116.70
115.02
110.21
103.83
97.92
93.65
90.79
87.98
83.59
76.72
67.48
56.67
45.09
33.06
20.42
6.94
-7.30
-21.70
-35.11
-46.17
-53.65
-56.82
-55.64
-50.73
-43.18
-34.37
-25.65
-18.05
-12.13
-7.91
-5.07
-3.15
-1.81
-0.99
-0.85
-1.64
-3.45
-6.12
-9.17
-12.03
-14.22
-15.54
-16.13
-16.32
-16.47
-16.84
-17.50
-18.40
-19.47
-20.71
-22.07
-23.45
-24.66
-25.36
-25.23
-24.12
-22.05
-19.24
-16.03
-12.73
-9.63
-7.01
-5.10
-4.07
-3.96
-4.54
-5.26
-5.39
-4.12
-0.91
4.34
11.21
18.86
26.27
32.57
37.20
40.11
41.63
42.29
42.39
41.83
39.94
35.69
28.18
17.03
2.73
-13.36
-29.48
-44.01
-56.15
-66.06
-74.72
-83.28
-92.42
-102.18
-111.66
-119.38
-123.96
-124.73
-122.08
-117.36
-112.28
-108.49
-107.23
-108.88
-112.75
-117.15
-119.72
-118.13
-110.63
-96.41
-76.26
-52.63
-29.06
-9.10
5.10
13.47
17.69
20.11
23.17
28.09
34.67
42.01
49.51
57.53
67.26
79.67
94.80
112.60
131.57
148.83
161.08
166.12
163.93
156.60
147.35
139.21
135.84
138.27
144.48
150.43
152.72
150.52
145.63
141.27
140.49
147.54
164.07
187.86
213.88
237.11
254.30
264.31
267.03
246.35
194.52
117.16
31.63
-44.60
-102.90
-143.90
-172.79
-194.78
-212.24
-221.63
-218.76
-203.38
-182.22
-163.38
-153.89
-156.75
-169.71
-186.51
-197.91
-197.31
-183.73
-161.14
-134.75
-107.96
-80.83
-51.39
-20.06
10.43
35.60
51.58
56.97
53.57
45.21
36.10
29.04
25.17
24.90
27.55
31.51
34.52
34.64
30.90
24.86
17.07
8.59
0.84
-5.18
-9.30
-12.17
-14.68
-17.38
-20.30
-23.28
-25.88
-27.80
-28.90
-29.23
-28.80
-27.99
-26.86
-25.51
-24.44
-24.14
-24.96
-26.87
-29.47
-32.13
-34.32
-35.58
-35.94
-35.86
-35.77
-35.78
-35.54
-34.42
-31.79
-27.42
-21.34
-14.28
-7.63
-2.88
-1.19
-2.91
-7.56
-14.03
-20.82
-25.62
-26.93
-24.55
-19.87
-15.56
-14.81
-20.34
-33.24
-52.35
-72.85
-89.58
-98.95
-99.83
-92.91
-79.79
-62.44
-42.81
-22.74
-1.32
22.02
46.99
72.83
99.40
127.33
157.45
190.31
226.27
268.38
317.45
369.73
417.21
450.68
463.16
451.96
419.27
352.97
255.58
143.86
40.66
-39.00
-93.50
-129.57
-155.19
-175.43
-191.85
-201.05
-201.23
-194.61
-186.49
-181.44
-180.17
-179.32
-173.55
-158.86
-132.79
-98.34
-62.90
-34.68
-18.52
-14.24
-17.91
-24.70
-31.00
-33.69
-31.76
-25.97
-18.15
-10.14
-3.32
1.18
2.76
1.67
-0.30
-1.22
-0.18
2.23
4.69
6.02
5.84
4.80
4.21
5.51
9.33
15.10
21.26
26.32
29.49
30.76
30.56
29.34
27.20
24.01
19.90
15.32
11.14
7.95
5.63
3.37
0.28
-4.07
-9.49
-14.18
-17.37
-19.45
-22.27
-28.48
-40.36
-58.38
-80.55
-102.46
-118.40
-123.24
-113.89
-91.04
-59.28
-25.82
2.10
19.47
25.06
21.38
12.74
3.48
-3.88
-8.74
-11.56
-12.64
-12.44
-12.03
-13.49
-20.10
-32.44
-48.57
-64.25
-76.12
-83.02
-85.85
-85.74
-82.86
-76.50
-65.34
-49.08
-29.60
-12.51
-0.96
2.79
-0.74
-7.27
-10.89
-6.89
5.43
22.25
37.21
45.19
44.60
35.27
21.43
8.82
1.72
0.95
4.09
7.61
9.44
9.85
11.17
16.46
26.81
40.25
52.43
58.80
57.06
48.58
37.58
29.33
28.16
35.18
48.06
62.26
73.23
78.42
78.00
73.93
68.42
62.69
56.21
47.57
35.86
21.98
8.60
-1.28
-6.42
-8.65
-12.25
-21.92
-40.07
-65.09
-91.69
-113.12
-124.03
-122.49
-110.19
-91.05
-69.37
-48.35
-29.81
-14.56
-3.01
4.60
8.57
9.98
10.58
12.07
15.22
19.59
23.80
26.42
26.79
25.46
23.91
23.79
26.07
30.51
35.67
39.44
39.90
35.83
27.04
14.21
-1.28
-17.47
-32.01
-42.50
-46.99
-44.84
-37.18
-26.83
-17.35
-11.71
-11.11
-14.65
-19.99
-24.55
-26.48
-25.13
-20.86
-14.55
-7.05
1.08
9.62
18.70
28.58
39.50
51.40
63.68
75.27
84.92
91.73
95.48
96.78
96.60
95.91
95.23
94.55
93.57
91.91
89.32
85.71
81.11
75.61
69.35
62.47
55.10
47.38
39.49
31.72
24.53
18.51
14.20
11.89
11.34
11.71
11.75
10.18
6.05
-0.83
-9.85
-19.70
-28.68
-35.30
-38.67
-38.90
-37.03
-34.74
-33.55
-34.26
-36.61
-39.49
-41.59
-42.01
-40.63
-37.91
-34.34
-29.92
-24.12
-16.26
-6.16
5.41
16.83
26.15
31.91
33.67
32.19
29.14
26.44
25.64
27.45
31.60
37.04
42.24
45.70
46.19
43.06
36.37
26.92
16.21
6.21
-1.13
-4.49
-3.71
0.00
4.49
7.34
6.83
2.49
-4.82
-13.41
-21.45
-27.66
-31.67
-33.88
-35.12
-36.09
-37.17
-38.29
-39.22
-39.84
-40.33
-41.10
-42.51
-44.57
-46.87
-48.70
-49.36
-48.52
-46.34
-43.40
-40.48
-38.35
-37.60
-38.61
-41.45
-45.88
-51.26
-56.74
-61.44
-64.79
-66.61
-67.08
-66.54
-65.20
-63.10
-60.00
-55.49
-48.94
-39.67
-27.10
-11.10
7.64
27.65
46.92
63.56
76.31
84.84
89.53
91.14
90.40
87.97
84.57
81.09
78.50
77.50
78.15
79.65
80.69
79.95
76.64
70.67
62.41
52.21
40.08
25.75
9.06
-9.58
-28.98
-47.36
-62.80
-73.73
-79.36
-79.62
-75.16
-67.18
-57.24
-47.13
-38.51
-32.66
-30.11
-30.64
-33.41
-37.27
-41.13
-44.11
-45.73
-45.87
-44.74
-42.76
-40.49
-38.52
-37.39
-37.45
-38.78
-41.07
-43.70
-46.01
-47.43
-47.72
-46.84
-44.77
-41.28
-36.00
-28.70
-19.72
-10.12
-1.52
4.50
6.91
5.68
1.65
-3.55
-7.90
-9.25
-5.68
3.83
18.85
37.17
55.22
69.03
75.68
74.35
66.65
55.94
46.15
40.45
40.35
45.45
53.89
63.10
70.81
75.77
77.89
78.00
77.14
75.93
74.29
71.53
66.91
60.02
51.13
41.01
30.66
20.92
12.19
4.23
-3.82
-13.10
-24.50
-38.03
-52.48
-65.69
-75.45
-80.39
-80.64
-77.77
-73.98
-71.18
-70.24
-70.89
-72.06
-72.63
-71.89
-69.69
-66.27
-61.98
-57.19
-52.13
-46.86
-41.40
-35.75
-29.84
-23.49
-16.52
-9.02
-1.42
5.60
11.51
16.24
20.10
23.60
27.09
30.59
33.80
36.22
37.73
38.69
39.66
40.80
41.73
41.80
40.77
39.29
38.25
38.97
42.38
48.01
53.45
55.30
50.85
39.34
22.27
1.52
-20.14
-39.45
-53.82
-62.38
-65.61
-64.59
-60.48
-54.45
-49.60
-48.15
-50.57
-56.21
-64.81
-76.26
-89.52
-102.32
-112.06
-119.65
-126.83
-134.88
-144.06
-153.84
-162.03
-164.42
-156.49
-121.78
-59.89
11.08
68.32
101.64
114.93
118.17
119.82
123.35
127.46
126.55
118.75
106.16
94.05
86.31
83.30
82.47
80.30
74.38
62.79
46.84
30.53
18.46
13.04
13.55
17.49
22.39
26.81
29.47
30.52
31.22
33.05
36.28
40.03
43.18
45.12
45.80
44.86
42.18
38.00
32.84
27.09
21.01
14.96
9.38
4.69
0.95
-1.87
-3.79
-4.83
-5.20
-5.42
-6.04
-7.54
-10.11
-13.62
-17.65
-21.58
-24.73
-26.54
-26.77
-25.68
-24.08
-23.16
-24.10
-27.51
-32.98
-39.02
-43.53
-44.63
-41.36
-34.06
-24.04
-12.90
-1.92
8.31
17.63
25.87
32.52
36.74
37.77
35.47
30.57
24.43
18.55
13.93
10.79
8.72
7.02
5.22
3.27
1.48
0.18
-0.53
-0.91
-1.39
-2.22
-3.25
-3.95
-3.63
-1.84
1.34
5.40
9.53
13.05
15.59
17.08
17.59
17.23
16.07
14.21
11.88
9.39
6.99
4.74
2.51
0.11
-2.52
-5.19
-7.59
-9.49
-10.86
-11.84
-12.58
-13.05
-13.13
-12.70
-11.86
-10.98
-10.54
-10.91
-12.18
-14.18
-16.63
-19.24
-21.71
-23.70
-24.77
-24.52
-22.80
-19.85
-16.33
-13.01
-10.52
-9.12
-8.65
-8.80
-9.32
-10.26
-11.87
-14.45
-18.01
-22.05
-25.49
-27.04
-25.62
-20.93
-13.64
-5.21
2.69
8.74
12.41
13.92
13.88
12.95
11.62
10.26
9.25
9.07
10.22
13.02
17.43
22.95
28.76
33.86
37.32
38.49
37.19
33.87
29.51
25.46
23.03
23.16
26.13
31.50
38.23
44.97
50.41
53.64
54.48
53.59
52.31
52.04
53.63
56.75
59.80
60.36
56.27
46.49
31.76
14.35
-2.79
-17.08
-27.14
-32.94
-35.38
-35.53
-34.12
-31.43
-27.64
-23.20
-19.05
-16.35
-16.04
-18.32
-22.43
-26.90
-30.12
-30.98
-29.13
-24.97
-19.34
-13.16
-7.47
-3.50
-2.60
-5.85
-13.37
-23.89
-34.91
-43.56
-47.80
-47.30
-43.39
-38.20
-33.48
-29.85
-26.84
-23.61
-19.72
-15.45
-11.52
-8.51
-6.47
-4.93
-3.31
-1.25
1.21
3.79
6.18
8.23
9.93
11.22
11.98
12.00
11.21
9.75
8.01
6.45
5.42
5.07
5.44
6.52
8.16
9.96
10.92
9.46
3.82
-7.16
-23.22
-42.29
-60.83
-74.99
-82.09
-81.57
-75.17
-65.99
-57.03
-50.10
-45.50
-42.57
-40.62
-39.46
-39.20
-39.54
-39.30
-36.58
-29.78
-18.70
-5.14
7.61
15.92
17.29
11.27
-0.37
-14.31
-26.74
-34.55
-36.10
-31.46
-22.04
-9.90
2.87
14.64
24.27
31.08
34.79
35.56
34.04
31.14
27.64
23.79
19.13
12.93
4.89
-4.40
-13.39
-20.18
-23.31
-22.36
-18.03
-11.70
-4.89
1.28
6.33
10.39
13.90
17.33
20.92
24.52
27.79
30.40
32.32
33.86
35.52
37.59
39.95
42.02
43.07
42.57
40.58
37.68
34.78
32.66
31.64
31.49
31.65
31.60
31.17
30.59
30.33
30.76
31.87
33.21
34.05
33.72
31.90
28.74
24.82
20.76
17.02
13.70
10.74
8.15
6.10
4.90
4.67
5.12
5.57
5.19
3.47
0.43
-3.39
-7.25
-10.57
-13.15
-15.07
-16.58
-17.87
-19.02
-20.13
-21.35
-22.86
-24.84
-27.28
-29.91
-32.21
-33.40
-32.82
-30.14
-25.68
-20.40
-15.70
-12.87
-12.55
-14.31
-16.70
-17.72
-15.59
-9.35
1.01
14.56
29.84
44.92
57.53
65.14
65.52
57.52
41.89
21.64
1.35
-14.22
-21.83
-20.84
-13.07
-1.67
10.43
21.46
30.75
37.99
42.48
43.08
38.85
29.98
18.35
7.01
-0.97
-3.88
-2.12
2.09
5.83
6.79
4.00
-2.25
-10.98
-21.30
-32.67
-44.80
-57.15
-68.60
-77.60
-82.73
-83.37
-80.12
-74.69
-69.35
-66.06
-65.87
-68.77
-73.74
-79.06
-82.62
-82.25
-76.14
-63.40
-44.42
-20.87
4.68
29.55
51.62
69.71
83.52
93.23
99.19
101.85
101.80
99.91
97.26
94.80
93.05
91.90
90.85
89.26
86.68
82.89
77.78
71.23
63.00
52.90
40.96
27.75
14.38
2.29
-7.09
-12.82
-14.75
-13.53
-10.45
-7.10
-4.88
-4.69
-6.65
-10.15
-14.08
-17.33
-19.17
-19.49
-18.78
-17.73
-16.88
-16.33
-15.82
-14.96
-13.51
-11.58
-9.55
-7.93
-7.19
-7.68
-9.66
-13.21
-18.18
-23.99
-29.73
-34.32
-36.87
-37.00
-35.00
-31.72
-28.17
-25.13
-22.93
-21.38
-20.07
-18.61
-16.80
-14.66
-12.25
-9.56
-6.52
-3.12
0.43
3.63
5.80
6.39
5.25
2.76
-0.31
-3.11
-5.12
-6.33
-7.23
-8.54
-10.88
-14.50
-19.10
-23.91
-27.83
-29.85
-29.40
-26.73
-22.89
-19.46
-17.84
-18.54
-20.84
-23.02
-23.00
-19.25
-11.45
-0.73
10.73
20.47
26.45
27.54
23.64
15.64
5.23
-5.43
-14.11
-19.05
-19.42
-15.43
-8.43
-0.45
6.40
10.56
11.27
8.64
3.53
-2.60
-7.77
-10.12
-8.49
-2.58
6.99
18.76
30.69
40.84
47.91
51.94
53.44
52.90
50.77
47.87
45.07
43.05
42.20
42.49
44.02
45.90
46.32
43.67
37.84
30.14
22.56
17.20
15.67
19.65
29.14
42.08
55.28
65.82
71.19
69.31
59.30
37.34
6.82
-22.93
-43.58
-54.71
-60.08
-62.32
-62.90
-60.83
-56.20
-49.13
-41.13
-34.83
-32.40
-33.80
-37.17
-40.14
-40.64
-37.90
-31.63
-23.08
-14.75
-9.09
-7.22
-8.89
-13.07
-18.27
-22.92
-25.15
-24.08
-20.30
-15.37
-10.84
-7.68
-6.12
-5.50
-4.72
-2.42
2.05
8.27
15.11
21.34
25.88
28.02
27.50
24.81
21.48
19.54
20.88
26.47
35.90
47.38
58.15
65.01
65.59
58.97
45.98
28.83
10.74
-4.77
-14.65
-17.35
-14.12
-8.05
-2.74
-0.91
-3.70
-10.42
-19.05
-27.19
-32.87
-36.29
-38.34
-39.76
-40.85
-41.92
-43.52
-46.34
-50.81
-56.61
-64.03
-72.17
-78.83
-81.60
-79.83
-75.64
-73.41
-77.76
-82.43
-82.64
-76.70
-66.22
-52.95
-38.09
-23.21
-10.37
-0.83
5.36
7.40
5.19
-0.62
-8.37
-16.33
-22.80
-26.29
-26.14
-21.07
-13.40
-7.13
-6.09
-10.94
-20.05
-30.14
-37.92
-39.46
-33.40
-22.73
-12.85
-8.77
-11.00
-18.39
-29.80
-47.12
-67.69
-87.99
-105.06
-116.28
-118.46
-104.66
-71.00
-19.81
38.84
96.91
146.93
184.14
207.47
219.90
231.31
248.46
271.21
291.71
307.36
317.90
325.50
332.14
310.46
251.57
169.43
104.74
54.71
14.89
-21.35
-52.30
-76.12
-92.67
-98.88
-94.92
-84.64
-76.49
-72.53
-73.23
-77.91
-86.35
-98.02
-108.16
-113.68
-114.32
-114.56
-115.34
-116.54
-116.42
-112.84
-103.80
-85.87
-58.90
-25.86
6.30
33.27
52.93
65.99
74.61
80.88
87.50
88.81
81.92
68.62
54.87
44.25
36.54
31.05
23.98
13.78
0.57
-13.47
-26.92
-38.85
-49.32
-59.26
-69.66
-80.71
-90.67
-96.72
-95.34
-84.98
-66.81
-44.34
-21.80
-2.33
12.62
23.46
31.09
36.50
39.68
40.26
38.27
34.63
31.07
29.16
29.55
31.17
32.14
29.58
22.57
13.65
6.59
3.00
1.44
-0.90
-6.17
-14.16
-22.86
-29.44
-32.13
-31.40
-29.54
-29.20
-32.11
-39.52
-49.24
-58.51
-64.22
-63.81
-56.29
-42.62
-25.45
-8.28
5.78
15.21
20.10
22.01
22.79
23.50
24.06
24.26
23.75
22.55
21.29
20.71
21.46
23.62
26.53
29.11
30.43
30.08
28.34
25.91
23.30
20.67
17.85
14.56
10.80
6.97
3.63
1.24
0.02
-0.15
0.41
1.37
2.33
2.90
2.84
2.21
1.62
2.12
4.71
9.82
16.87
24.37
30.42
33.45
32.85
29.13
23.60
17.74
12.62
8.54
5.16
1.95
-1.37
-4.55
-6.98
-8.06
-7.61
-5.97
-3.81
-1.77
-0.22
0.68
0.79
-0.15
-2.30
-5.51
-9.01
-11.66
-12.37
-10.74
-7.38
-3.58
-0.77
0.16
-0.86
-3.23
-6.16
-9.10
-11.91
-14.66
-17.33
-19.44
-20.06
-18.16
-13.10
-5.19
4.06
12.23
16.84
16.36
10.88
2.10
-7.44
-15.51
-21.05
-24.28
-26.20
-27.80
-29.52
-31.36
-33.15
-34.97
-37.14
-39.88
-43.03
-45.88
-47.47
-47.05
-44.43
-40.00
-34.55
-28.87
-23.54
-18.85
-14.88
-11.57
-8.69
-5.93
-2.91
0.70
4.97
9.58
13.89
17.08
18.55
18.24
16.74
15.19
14.80
16.33
19.81
24.49
29.16
32.65
34.24
33.85
32.04
29.67
27.77
27.26
28.77
32.43
37.72
43.44
47.85
49.00
45.33
36.51
24.00
10.90
1.00
-2.69
0.70
9.39
19.58
26.80
28.13
23.30
14.54
5.23
-1.60
-4.22
-2.51
2.41
8.35
13.45
16.84
18.29
17.64
14.46
8.15
-1.73
-15.06
-31.48
-48.54
-62.26
-69.60
-70.97
-70.31
-72.59
-80.25
-91.64
-103.26
-110.04
-108.42
-99.26
-88.09
-81.76
-84.07
-93.45
-105.10
-116.18
-124.91
-130.60
-133.60
-135.22
-136.55
-137.86
-138.54
-123.93
-91.48
-51.59
-17.28
7.50
27.05
46.59
64.74
80.50
90.23
88.96
76.68
59.81
47.69
47.68
62.11
86.74
112.78
129.67
128.66
108.68
77.04
45.11
22.41
12.74
14.02
20.97
27.52
28.63
22.97
12.50
0.08
-13.04
-27.80
-45.83
-67.07
-89.00
-107.16
-116.25
-112.19
-93.98
-63.80
-25.86
15.45
56.67
95.15
128.57
155.02
173.40
183.80
187.41
185.93
180.71
172.23
160.16
144.20
124.92
103.93
83.47
65.56
51.19
40.31
32.30
26.71
23.62
23.51
26.67
32.62
39.88
46.30
49.73
48.68
42.66
32.16
18.43
3.19
-11.63
-24.15
-32.94
-37.36
-37.81
-35.57
-32.36
-29.70
-28.52
-28.96
-30.55
-32.64
-34.58
-35.96
-36.55
-36.32
-35.30
-33.73
-32.01
-30.69
-30.29
-31.15
-33.28
-36.29
-39.46
-41.92
-42.87
-41.86
-39.03
-35.22
-31.75
-29.98
-30.83
-34.39
-39.83
-45.77
-50.84
-54.14
-55.46
-55.15
-53.84
-52.03
-49.98
-47.71
-45.22
-42.58
-39.98
-37.78
-36.29
-35.58
-35.41
-35.21
-34.27
-32.00
-28.19
-23.18
-17.62
-12.28
-7.69
-4.01
-1.12
1.07
2.50
2.94
2.23
0.53
-1.56
-3.15
-3.45
-2.10
0.71
4.36
8.19
11.85
15.36
19.02
23.02
27.26
31.35
34.75
37.10
38.33
38.66
38.42
37.91
37.35
36.91
36.76
37.08
37.98
39.45
41.33
43.36
45.27
46.79
47.71
47.86
47.20
45.85
44.15
42.58
41.63
41.62
42.61
44.47
46.95
49.80
52.80
55.70
58.13
59.55
59.35
57.01
52.30
45.34
36.58
26.54
15.73
4.50
-6.86
-17.94
-28.14
-36.64
-42.61
-45.48
-45.20
-42.39
-38.14
-33.72
-30.20
-28.17
-27.77
-28.67
-30.37
-32.39
-34.31
-35.80
-36.60
-36.50
-35.32
-33.06
-29.87
-26.05
-22.00
-18.06
-14.49
-11.44
-8.89
-6.74
-4.81
-2.95
-1.09
0.73
2.39
3.74
4.66
5.14
5.23
5.01
4.51
3.68
2.42
0.62
-1.76
-4.64
-7.84
-11.05
-13.95
-16.20
-17.52
-17.77
-16.97
-15.32
-13.15
-10.74
-8.32
-5.99
-3.80
-1.82
-0.10
1.38
2.88
4.89
7.96
12.39
17.93
23.69
28.38
30.76
30.16
26.68
21.05
14.11
6.39
-2.22
-12.39
-24.91
-40.15
-57.34
-74.28
-87.61
-93.71
-90.22
-77.37
-58.57
-39.66
-26.88
-24.52
-33.25
-49.82
-68.40
-82.70
-88.08
-82.93
-68.81
-50.00
-31.85
-18.81
-12.36
-9.74
-4.12
13.23
49.43
106.12
177.50
251.22
312.01
346.73
348.49
318.22
263.52
195.35
124.41
58.36
0.80
-48.33
-91.16
-130.14
-166.36
-198.59
-223.31
-235.90
-232.78
-213.69
-182.93
-148.47
-118.81
-99.77
-92.29
-92.77
-95.66
-96.61
-94.53
-91.24
-88.96
-87.76
-84.56
-74.48
-53.87
-22.97
13.32
47.21
71.40
82.22
80.73
71.20
57.83
42.39
23.92
0.84
-26.32
-53.50
-74.30
-82.79
-77.06
-60.54
-40.13
-22.35
-10.14
-2.52
3.39
9.60
16.76
24.00
30.31
35.90
42.55
52.61
67.46
86.82
109.06
133.11
157.13
177.64
190.10
191.36
181.64
164.54
144.87
125.80
109.12
94.06
79.03
64.11
52.89
50.81
61.25
82.71
97.92
92.81
65.93
29.32
-2.99
-23.51
-32.36
-34.34
-35.37
-39.53
-46.00
-51.70
-53.80
-51.52
-45.62
-37.69
-29.84
-24.32
-22.78
-24.11
-26.07
-26.34
-23.88
-18.60
-10.73
-0.59
11.18
23.00
33.58
39.49
36.93
23.17
-1.29
-32.03
-62.26
-85.24
-97.29
-99.40
-96.06
-91.81
-88.83
-85.91
-79.76
-67.65
-49.56
-28.94
-9.86
3.56
9.17
7.14
-0.10
-9.29
-17.57
-23.42
-26.66
-27.99
-28.30
-27.55
-24.77
-18.74
-8.90
4.04
18.10
30.66
39.80
44.96
46.98
46.98
45.13
40.40
31.48
18.53
4.25
-6.48
-9.06
-1.95
11.74
25.21
31.36
26.61
13.26
-2.57
-13.75
-16.01
-9.84
0.40
9.37
13.58
12.69
8.72
4.22
0.77
-1.56
-3.57
-5.77
-8.01
-9.67
-10.24
-9.76
-8.83
-8.00
-7.39
-6.45
-4.27
-0.22
5.35
10.77
13.47
11.11
3.23
-8.10
-18.65
-23.90
-21.32
-11.59
1.87
14.74
24.10
29.51
32.50
35.07
38.31
41.74
44.17
44.88
44.45
44.51
46.62
50.13
51.95
48.42
36.92
17.64
-6.18
-29.52
-47.70
-58.04
-60.65
-57.74
-52.26
-46.60
-41.92
-38.20
-34.89
-31.54
-28.11
-24.95
-22.32
-20.28
-18.62
-16.96
-15.06
-12.85
-10.51
-8.31
-6.54
-5.25
-4.33
-3.53
-2.61
-1.43
-0.05
1.40
2.74
3.82
4.68
5.38
6.03
6.69
7.35
7.98
8.60
9.26
10.01
10.87
11.64
11.96
11.44
9.80
7.12
3.90
0.81
-1.74
-3.33
-4.31
-5.41
-7.44
-10.79
-15.00
-18.85
-20.82
-19.83
-15.71
-9.68
-3.73
0.40
1.09
-1.50
-5.78
-9.53
-11.25
-10.88
-9.69
-9.93
-13.73
-22.01
-34.39
-49.60
-65.74
-80.50
-89.87
-90.31
-78.46
-53.76
-20.57
12.42
35.37
42.18
33.83
18.17
5.86
4.51
15.15
32.53
49.20
59.91
64.14
64.51
63.98
63.35
61.05
54.77
43.39
28.16
12.08
-1.62
-11.00
-15.33
-15.07
-11.35
-5.47
1.15
7.22
11.90
14.92
16.56
17.18
16.87
15.36
12.37
7.81
2.20
-3.12
-6.88
-8.32
-7.68
-5.84
-3.82
-2.30
-1.55
-1.54
-2.10
-3.33
-5.34
-8.02
-10.50
-11.28
-8.98
-3.39
4.43
12.58
19.12
22.94
23.56
21.96
20.00
19.13
19.68
21.34
23.67
26.77
30.53
32.88
32.44
29.35
24.57
19.09
13.68
8.66
3.97
-0.52
-6.29
-11.95
-13.55
-8.13
3.32
16.27
24.43
21.99
5.04
-30.13
-81.49
-141.00
-197.90
-242.50
-267.72
-270.35
-251.56
-200.66
-127.68
-56.81
-5.67
24.79
41.68
51.25
56.01
56.38
52.86
44.75
34.88
28.38
29.16
36.44
47.43
57.48
64.04
67.01
66.21
64.05
64.65
71.87
86.02
104.54
123.17
137.57
144.28
140.71
128.32
106.20
78.80
50.79
25.48
4.07
-13.69
-28.70
-41.85
-52.49
-58.86
-58.68
-51.84
-40.33
-27.31
-15.88
-8.18
-5.08
-6.06
-10.08
-15.39
-21.05
-26.86
-33.07
-39.73
-46.09
-49.88
-48.80
-42.03
-30.43
-16.77
-4.79
2.12
2.30
-3.57
-11.87
-18.73
-22.17
-22.18
-19.80
-16.04
-11.30
-5.23
3.03
15.54
33.30
55.00
77.76
98.52
114.59
123.59
123.68
106.68
71.52
27.61
-11.81
-39.39
-55.15
-62.98
-66.97
-69.50
-70.85
-68.94
-62.52
-53.26
-45.14
-41.93
-45.17
-53.52
-63.15
-69.48
-68.47
-57.51
-37.85
-13.71
10.11
29.82
42.95
48.25
45.73
37.49
27.02
18.50
15.21
18.54
27.15
37.16
43.87
43.86
36.92
22.55
3.41
-16.91
-35.45
-50.66
-62.20
-70.15
-74.56
-75.30
-72.67
-67.48
-61.35
-56.34
-54.03
-55.15
-59.49
-66.13
-73.88
-81.51
-87.81
-92.24
-94.97
-96.69
-98.11
-99.53
-100.60
-100.42
-97.97
-92.39
-83.55
-71.89
-58.00
-42.04
-23.67
-2.40
21.81
47.94
74.10
97.94
117.49
131.80
141.13
146.53
149.14
149.64
148.08
144.23
138.09
130.23
121.81
114.18
108.28
104.24
101.43
98.85
95.54
91.00
85.17
78.27
70.54
62.19
53.47
44.93
37.43
31.95
29.22
29.33
31.60
34.82
37.51
38.34
36.30
30.82
21.95
10.44
-2.24
-14.07
-22.99
-27.62
-27.73
-24.40
-19.67
-15.75
-14.20
-15.44
-18.76
-22.83
-26.39
-28.89
-30.52
-31.90
-33.56
-35.40
-36.66
-36.25
-33.40
-28.23
-21.84
-15.96
-12.35
-12.12
-15.34
-21.04
-27.60
-33.16
-36.23
-36.05
-32.64
-26.67
-19.31
-12.06
-6.65
-4.83
-7.80
-15.61
-26.73
-38.17
-46.42
-48.66
-43.91
-33.31
-19.50
-5.45
6.41
14.37
17.13
13.47
2.60
-14.99
-36.73
-57.95
-73.23
-78.28
-71.66
-55.35
-33.77
-11.92
6.44
19.73
28.33
33.63
37.13
39.96
42.95
46.79
52.02
58.60
65.65
71.42
73.75
70.89
62.26
48.73
32.41
15.82
1.25
-9.85
-16.88
-19.90
-19.28
-15.56
-9.52
-2.23
5.03
10.96
14.69
16.02
15.45
13.93
12.39
11.41
11.11
11.32
11.80
12.36
12.89
13.23
13.19
12.58
11.32
9.54
7.54
5.70
4.30
3.50
3.25
3.37
3.55
3.42
2.80
1.74
0.73
0.51
1.81
4.98
9.67
14.96
19.70
23.09
24.91
25.61
25.92
26.48
27.60
29.31
31.50
34.11
37.10
40.33
43.33
45.31
45.40
42.95
37.94
31.08
23.63
17.02
12.43
10.45
10.98
13.30
16.38
19.13
20.66
20.43
18.29
14.59
10.18
6.24
3.99
4.23
7.04
11.60
16.54
20.31
21.66
19.99
15.29
7.93
-1.57
-12.71
-24.96
-37.64
-49.83
-60.49
-68.67
-73.87
-76.28
-76.64
-75.99
-75.16
-74.42
-73.47
-71.70
-68.65
-64.37
-59.46
-54.82
-51.22
-48.99
-47.94
-47.53
-47.19
-46.51
-45.32
-43.66
-41.62
-39.33
-36.90
-34.49
-32.31
-30.60
-29.46
-28.76
-28.14
-27.09
-25.21
-22.38
-18.84
-15.12
-11.72
-8.86
-6.35
-3.70
-0.48
3.45
7.84
12.12
15.78
18.51
20.37
21.56
22.23
22.25
21.22
18.71
14.41
8.39
1.08
-6.91
-15.04
-22.95
-30.57
-38.02
-45.44
-52.88
-60.27
-67.48
-74.26
-80.29
-84.99
-87.58
-87.12
-82.81
-74.27
-61.81
-46.41
-29.49
-12.47
3.53
17.87
30.31
40.85
49.58
56.67
62.35
67.02
71.07
74.79
78.17
80.86
82.33
82.13
80.07
76.40
71.73
66.77
62.23
58.51
55.69
53.51
51.53
49.25
46.33
42.71
38.70
34.94
32.15
30.88
31.27
32.93
35.10
36.96
37.90
37.67
36.33
34.00
30.73
26.43
20.99
14.49
7.27
-0.11
-7.05
-13.04
-17.86
-21.56
-24.46
-26.97
-29.46
-32.08
-34.74
-37.13
-39.00
-40.28
-41.20
-42.08
-43.08
-44.01
-44.42
-43.95
-42.61
-40.68
-38.42
-35.60
-31.32
-24.42
-14.12
-0.63
14.76
30.10
43.55
54.01
61.22
65.46
67.12
66.35
63.17
57.69
50.37
41.98
33.39
25.16
17.42
9.86
2.02
-6.38
-15.20
-23.80
-31.29
-36.81
-39.82
-40.27
-38.65
-35.76
-32.46
-29.41
-26.94
-25.06
-23.61
-22.44
-21.54
-21.00
-20.99
-21.61
-22.82
-24.47
-26.33
-28.25
-30.15
-32.01
-33.85
-35.69
-37.46
-39.13
-40.62
-41.93
-43.09
-44.20
-45.42
-46.93
-48.85
-51.19
-53.82
-56.57
-59.26
-61.79
-64.06
-65.89
-66.99
-66.94
-65.41
-62.32
-57.92
-52.73
-47.26
-41.83
-36.45
-30.95
-25.15
-19.09
-13.07
-7.50
-2.73
1.04
3.79
5.56
6.36
6.15
4.93
2.83
0.27
-2.16
-3.80
-4.08
-2.72
0.29
4.73
10.34
16.94
24.48
32.98
42.41
52.53
62.86
72.74
81.46
88.43
93.27
95.85
96.25
94.74
91.74
87.81
83.58
79.70
76.59
74.36
72.66
70.79
67.89
63.23
56.51
47.98
38.37
28.74
20.12
13.31
8.72
6.28
5.52
5.67
5.88
5.46
4.05
1.79
-0.82
-3.07
-4.37
-4.41
-3.23
-1.18
1.26
3.54
5.19
5.90
5.52
4.11
1.90
-0.79
-3.72
-6.73
-9.84
-13.19
-16.90
-20.99
-25.35
-29.63
-33.35
-35.96
-37.02
-36.30
-33.91
-30.24
-25.88
-21.37
-17.11
-13.29
-10.02
-7.36
-5.43
-4.36
-4.17
-4.66
-5.50
-6.25
-6.58
-6.36
-5.60
-4.36
-2.55
0.03
3.58
8.03
12.86
17.12
19.81
20.33
18.71
15.71
12.40
9.69
8.01
7.26
7.04
6.99
6.95
6.96
7.07
7.29
7.50
7.64
7.81
8.27
9.22
10.65
12.26
13.54
13.93
13.04
10.76
7.27
2.96
-1.69
-6.22
-10.27
-13.63
-16.21
-17.88
-18.51
-17.88
-15.87
-12.54
-8.29
-3.72
0.56
4.19
7.19
9.81
12.31
14.70
16.65
17.73
17.62
16.31
14.11
11.48
8.90
6.71
5.12
4.33
4.46
5.54
7.39
9.66
11.93
13.92
15.59
17.13
18.73
20.42
22.12
23.73
25.26
26.73
28.05
28.84
28.42
26.09
21.54
15.07
7.56
0.14
-6.32
-11.48
-15.50
-18.77
-21.62
-24.16
-26.37
-28.26
-29.97
-31.74
-33.84
-36.38
-39.35
-42.57
-45.91
-49.25
-52.60
-55.94
-59.14
-61.87
-63.57
-63.60
-61.46
-56.94
-50.24
-41.91
-32.77
-23.63
-15.11
-7.58
-1.05
4.71
9.98
14.93
19.57
23.68
26.97
29.15
30.07
29.69
28.15
25.72
22.82
20.01
17.93
17.08
17.64
19.42
21.90
24.46
26.52
27.62
27.44
25.72
22.42
17.83
12.60
7.69
3.98
1.93
1.45
2.01
3.00
4.09
5.31
6.93
9.09
11.69
14.27
16.28
17.25
16.95
15.38
12.74
9.39
5.74
2.24
-0.75
-3.03
-4.59
-5.60
-6.26
-6.73
-6.98
-6.87
-6.22
-4.91
-2.93
-0.43
2.33
5.01
7.29
9.00
10.13
10.80
11.22
11.57
11.95
12.34
12.68
12.92
13.05
13.14
13.33
13.76
14.48
15.41
16.24
16.54
15.78
13.53
9.60
4.11
-2.54
-9.71
-16.72
-22.91
-27.75
-30.91
-32.36
-32.31
-31.21
-29.63
-28.11
-27.05
-26.62
-26.78
-27.35
-28.05
-28.55
-28.55
-27.85
-26.36
-24.18
-21.57
-18.85
-16.33
-14.18
-12.48
-11.25
-10.53
-10.37
-10.80
-11.68
-12.69
-13.40
-13.40
-12.43
-10.51
-7.89
-4.87
-1.74
1.27
4.03
6.39
8.31
9.82
11.09
12.34
13.75
15.31
16.82
17.98
18.52
18.31
17.43
16.07
14.47
12.89
11.57
10.75
10.63
11.18
12.09
12.82
12.69
11.23
8.40
4.67
0.87
-2.11
-3.63
-3.46
-1.82
0.82
3.91
6.96
9.65
11.72
13.03
13.43
12.88
11.42
9.21
6.54
3.79
1.32
-0.66
-2.11
-3.21
-4.25
-5.51
-7.16
-9.19
-11.42
-13.67
-15.80
-17.84
-19.89
-22.07
-24.32
-26.39
-27.91
-28.47
-27.92
-26.35
-24.10
-21.63
-19.31
-17.32
-15.75
-14.60
-13.89
-13.58
-13.52
-13.43
-12.93
-11.67
-9.47
-6.39
-2.73
1.14
4.84
8.07
10.62
12.36
13.20
13.09
11.99
9.97
7.20
3.99
0.78
-1.89
-3.51
-3.78
-2.74
-0.77
1.51
3.45
4.61
4.96
4.83
4.83
5.52
7.23
9.96
13.35
16.91
20.21
22.97
25.08
26.57
27.49
27.86
27.68
26.94
25.69
24.01
22.01
19.76
17.24
14.38
11.07
7.33
3.36
-0.43
-3.52
-5.48
-6.18
-5.82
-4.81
-3.64
-2.59
-1.77
-1.11
-0.54
-0.03
0.42
0.84
1.35
2.08
3.11
4.38
5.71
6.87
7.72
8.28
8.62
8.85
8.96
8.85
8.36
7.41
6.05
4.44
2.78
1.26
-0.04
-1.08
-1.79
-2.04
-1.63
-0.38
1.70
4.44
7.48
10.46
13.06
15.16
16.73
17.80
18.34
18.28
17.56
16.20
14.36
12.30
10.29
8.51
7.02
5.80
4.80
4.01
3.47
3.23
3.29
3.47
3.45
2.85
1.38
-0.95
-3.90
-6.96
-9.63
-11.49
-12.36
-12.27
-11.38
-9.91
-8.12
-6.29
-4.71
-3.59
-3.08
-3.13
-3.60
-4.27
-4.93
-5.49
-5.96
-6.44
-7.09
-8.02
-9.24
-10.65
-12.12
-13.51
-14.82
-16.11
-17.50
-19.07
-20.81
-22.64
-24.44
-26.07
-27.39
-28.21
-28.26
-27.28
-25.05
-21.58
-17.12
-12.12
-7.17
-2.74
0.90
3.72
5.92
7.80
9.60
11.45
13.29
14.94
16.18
16.88
16.94
16.40
15.33
13.90
12.36
11.03
10.17
9.88
9.96
10.03
9.58
8.23
5.90
2.82
-0.49
-3.45
-5.52
-6.42
-6.14
-4.95
-3.28
-1.61
-0.23
0.77
1.51
2.23
3.12
4.26
5.65
7.28
9.14
11.25
13.48
15.60
17.25
18.16
18.24
17.69
16.87
16.16
15.77
15.69
15.66
15.32
14.31
12.43
9.75
6.60
3.50
1.05
-0.30
-0.40
0.52
1.99
3.46
4.54
5.04
4.95
4.30
3.11
1.36
-0.90
-3.52
-6.30
-9.01
-11.64
-14.26
-17.04
-20.07
-23.30
-26.56
-29.75
-32.93
-36.33
-40.20
-44.68
-49.66
-54.84
-59.83
-64.34
-68.15
-71.19
-73.37
-74.59
-74.68
-73.45
-70.67
-66.07
-59.29
-50.02
-38.16
-24.04
-8.56
6.91
20.89
32.16
40.20
45.18
47.80
48.90
49.15
48.89
48.24
47.25
45.95
44.46
42.80
40.90
38.62
35.83
32.56
29.00
25.49
22.34
19.75
17.71
16.02
14.39
12.55
10.38
7.99
5.66
3.78
2.61
2.19
2.25
2.31
1.89
0.71
-1.23
-3.64
-6.07
-8.06
-9.26
-9.56
-9.06
-8.09
-7.06
-6.43
-6.48
-7.34
-8.93
-11.02
-13.24
-15.18
-16.34
-16.28
-14.64
-11.38
-6.77
-1.38
4.10
9.02
13.00
15.96
18.02
19.40
20.23
20.56
20.32
19.46
17.97
15.95
13.61
11.17
8.87
6.89
5.31
4.12
3.18
2.21
0.87
-1.15
-3.97
-7.44
-11.10
-14.36
-16.61
-17.47
-16.85
-14.88
-11.89
-8.20
-4.16
-0.07
3.78
7.13
9.80
11.73
12.97
13.66
13.99
14.12
14.16
14.18
14.22
14.29
14.35
14.24
13.71
12.46
10.26
7.05
3.03
-1.36
-5.61
-9.28
-12.18
-14.33
-15.95
-17.30
-18.58
-19.84
-21.01
-21.90
-22.29
-21.99
-20.82
-18.68
-15.54
-11.45
-6.60
-1.29
4.09
9.04
13.11
15.92
17.32
17.42
16.48
14.89
12.96
10.87
8.65
6.30
3.81
1.28
-1.17
-3.40
-5.32
-6.87
-7.96
-8.46
-8.27
-7.35
-5.81
-3.96
-2.15
-0.67
0.32
0.88
1.16
1.35
1.58
1.91
2.33
2.76
3.10
3.21
3.03
2.60
2.04
1.53
1.18
0.98
0.83
0.55
0.05
-0.68
-1.56
-2.51
-3.43
-4.26
-4.90
-5.20
-4.99
-4.15
-2.68
-0.72
1.49
3.66
5.58
7.08
8.04
8.40
8.11
7.25
5.98
4.50
2.95
1.34
-0.43
-2.47
-4.82
-7.24
-9.34
-10.66
-10.96
-10.38
-9.47
-9.03
-9.70
-11.71
-14.62
-17.48
-19.18
-18.92
-16.69
-13.30
-10.07
-8.27
-8.53
-10.62
-13.58
-16.26
-17.87
-18.15
-17.28
-15.64
-13.61
-11.68
-10.52
-10.89
-13.10
-16.40
-18.80
-17.60
-10.69
2.16
18.78
35.31
47.90
54.34
54.90
51.76
47.65
44.37
42.23
40.42
37.99
34.72
31.36
29.04
28.59
29.86
31.75
32.73
31.56
27.87
22.22
15.73
9.53
4.26
-0.03
-3.76
-7.44
-11.41
-15.72
-20.31
-25.17
-30.45
-36.35
-42.96
-49.97
-56.64
-61.96
-65.01
-65.47
-63.79
-61.07
-58.62
-57.29
-57.06
-56.96
-55.48
-51.13
-43.09
-31.44
-17.18
-1.91
12.64
25.02
34.39
40.66
44.42
46.66
48.37
50.25
52.50
54.88
56.96
58.31
58.71
58.19
57.10
55.95
55.29
55.49
56.58
58.19
59.74
60.67
60.76
60.27
59.79
59.98
61.20
63.28
65.51
66.79
65.80
61.28
52.37
38.97
22.19
4.30
-11.72
-23.18
-28.78
-29.24
-27.10
-25.69
-27.73
-34.31
-44.62
-56.60
-67.98
-77.17
-83.51
-87.07
-88.11
-86.75
-83.02
-76.97
-68.89
-59.28
-48.74
-37.89
-27.31
-17.54
-9.07
-2.20
3.06
7.01
10.13
12.74
14.90
16.36
16.80
16.07
14.30
11.80
8.73
5.00
0.33
-5.48
-12.24
-19.36
-25.95
-31.15
-34.35
-35.33
-34.20
-31.30
-26.95
-21.48
-15.17
-8.27
-1.10
5.96
12.51
18.28
23.10
27.13
30.77
34.51
38.80
43.88
49.77
56.19
62.62
68.17
71.71
72.10
68.63
61.45
51.62
40.88
31.00
23.18
17.72
14.14
11.58
9.29
6.84
4.15
1.30
-1.68
-4.77
-7.95
-11.09
-13.95
-16.28
-17.84
-18.53
-18.42
-17.70
-16.66
-15.61
-14.77
-14.24
-13.93
-13.64
-13.10
-12.08
-10.47
-8.23
-5.46
-2.31
1.04
4.43
7.72
10.78
13.52
15.87
17.80
19.30
20.43
21.25
21.80
22.06
21.90
21.10
19.43
16.73
13.03
8.53
3.61
-1.20
-5.23
-7.76
-8.19
-6.28
-2.41
2.47
7.07
10.21
11.30
10.46
8.32
5.57
2.60
-0.55
-4.05
-7.92
-11.89
-15.49
-18.32
-20.33
-21.82
-23.30
-25.19
-27.70
-30.68
-33.84
-36.91
-39.65
-42.00
-43.94
-45.46
-46.54
-47.18
-47.32
-46.86
-45.67
-43.60
-40.55
-36.58
-31.95
-27.03
-22.22
-17.77
-13.72
-10.00
-6.52
-3.36
-0.75
0.97
1.55
0.93
-0.64
-2.79
-5.08
-7.20
-9.00
-10.54
-11.99
-13.61
-15.62
-18.16
-21.27
-24.79
-28.37
-31.51
-33.57
-33.94
-32.17
-28.15
-22.17
-14.96
-7.44
-0.43
5.59
10.64
15.20
19.95
25.37
31.50
37.88
43.66
47.99
50.31
50.55
49.10
46.57
43.50
40.19
36.62
32.59
27.92
22.70
17.27
12.19
8.05
5.22
3.70
3.06
2.61
1.58
-0.56
-3.88
-7.93
-11.85
-14.72
-15.85
-15.08
-12.78
-9.77
-7.20
-6.31
-8.18
-13.21
-20.77
-28.92
-34.97
-36.41
-32.25
-23.75
-14.11
-7.07
-5.14
-8.39
-14.51
-20.15
-22.69
-21.43
-17.55
-13.06
-9.46
-6.97
-4.74
-1.62
2.90
8.31
13.41
17.01
18.56
18.37
17.32
16.31
15.80
15.62
15.22
14.05
11.98
9.31
6.75
5.03
4.66
5.78
8.13
11.17
14.29
16.96
18.85
19.89
20.17
19.74
18.50
16.22
12.69
7.99
2.57
-2.84
-7.53
-11.17
-13.87
-16.10
-18.27
-20.51
-22.60
-24.09
-24.66
-24.26
-23.06
-21.34
-19.31
-17.08
-14.76
-12.53
-10.66
-9.40
-8.83
-8.79
-8.89
-8.62
-7.58
-5.64
-2.95
0.03
2.72
4.57
5.21
4.56
2.93
0.86
-0.96
-1.95
-1.79
-0.55
1.40
3.56
5.50
6.94
7.72
7.76
7.03
5.50
3.26
0.57
-2.20
-4.61
-6.39
-7.51
-8.18
-8.70
-9.24
-9.82
-10.24
-10.32
-10.01
-9.43
-8.79
-8.24
-7.71
-6.90
-5.44
-3.07
0.19
4.03
7.92
11.33
13.83
15.16
15.32
14.49
13.07
11.51
10.19
9.30
8.83
8.57
8.28
7.84
7.29
6.76
6.36
6.11
5.89
5.55
5.00
4.24
3.35
2.40
1.47
0.65
0.06
-0.12
0.20
1.03
2.18
3.38
4.32
4.82
4.86
4.52
3.97
3.36
2.79
2.29
1.84
1.37
0.76
-0.07
-1.12
-2.23
-3.18
-3.68
-3.56
-2.78
-1.41
0.36
2.31
4.23
5.91
7.20
7.99
8.26
8.06
7.50
6.75
5.96
5.26
4.73
4.37
4.09
3.77
3.29
2.64
1.88
1.12
0.40
-0.38
-1.41
-2.86
-4.74
-6.77
-8.48
-9.33
-8.94
-7.27
-4.58
-1.39
1.75
4.42
6.46
7.97
9.18
10.41
11.84
13.54
15.35
16.92
17.80
17.50
15.74
12.58
8.49
4.30
1.01
-0.47
0.42
3.73
9.03
15.46
21.93
27.45
31.33
33.40
34.02
33.86
33.58
33.51
33.68
33.88
33.99
34.11
34.42
34.82
34.70
32.98
28.59
21.06
11.03
-0.03
-10.45
-19.35
-27.01
-34.74
-44.12
-56.18
-70.95
-87.38
-103.56
-117.01
-124.99
-125.05
-115.64
-96.82
-70.57
-40.37
-10.30
16.23
37.28
52.44
62.16
66.74
65.62
57.60
41.54
17.44
-12.85
-45.71
-76.66
-101.74
-118.75
-127.73
-130.63
-130.07
-128.28
-126.38
-124.48
-122.25
-119.36
-115.52
-110.25
-102.66
-91.57
-76.13
-56.37
-33.50
-9.67
12.67
31.56
46.06
56.31
63.39
68.84
74.15
80.24
86.95
92.85
95.56
92.48
81.95
64.25
42.07
19.99
3.16
-4.55
-1.99
8.71
22.95
35.36
41.81
40.79
33.70
23.91
15.24
10.44
10.41
14.28
20.11
25.90
30.13
32.06
31.52
28.65
23.69
16.82
8.18
-2.00
-13.34
-25.41
-37.77
-50.16
-62.55
-74.98
-87.29
-98.94
-108.93
-116.05
-119.45
-118.91
-115.04
-108.77
-100.88
-91.44
-79.83
-65.16
-46.86
-25.09
-0.84
24.41
49.01
71.51
90.81
106.30
117.87
125.91
131.11
134.27
135.99
136.61
136.21
134.79
132.42
129.15
124.90
119.36
112.04
102.61
91.08
78.01
64.29
50.89
38.47
27.51
18.34
11.32
6.85
4.99
5.20
6.31
6.87
5.84
3.06
-0.75
-4.42
-7.09
-8.59
-9.38
-10.00
-10.56
-10.56
-9.26
-6.29
-2.06
2.31
5.48
6.46
5.00
1.44
-3.55
-9.19
-14.74
-19.37
-22.19
-22.44
-19.67
-14.10
-6.61
1.48
8.79
14.29
17.50
18.52
17.89
16.34
14.64
13.40
12.96
13.41
14.56
16.16
17.97
19.84
21.63
23.03
23.47
22.24
18.65
12.41
3.78
-6.36
-16.76
-26.06
-33.17
-37.41
-38.62
-37.12
-33.61
-29.01
-24.26
-19.99
-16.36
-12.94
-8.97
-3.71
3.03
10.78
18.44
24.75
28.79
30.27
29.53
27.27
24.17
20.64
16.78
12.62
8.34
4.25
0.78
-1.75
-3.25
-3.87
-3.89
-3.57
-3.09
-2.51
-1.86
-1.14
-0.35
0.47
1.29
2.07
2.78
3.36
3.76
3.97
3.96
3.69
3.14
2.24
0.97
-0.62
-2.38
-4.02
-5.18
-5.56
-5.06
-3.83
-2.26
-0.87
-0.14
-0.34
-1.52
-3.47
-5.85
-8.27
-10.39
-12.02
-13.11
-13.83
-14.41
-15.15
-16.25
-17.74
-19.52
-21.32
-22.81
-23.67
-23.65
-22.66
-20.80
-18.28
-15.35
-12.20
-8.95
-5.63
-2.36
0.61
2.92
4.18
4.14
2.83
0.59
-2.06
-4.59
-6.62
-7.98
-8.60
-8.44
-7.51
-5.90
-3.89
-1.98
-0.72
-0.48
-1.31
-2.87
-4.70
-6.40
-7.83
-9.09
-10.34
-11.65
-12.93
-14.05
-14.95
-15.69
-16.39
-17.10
-17.75
-18.21
-18.40
-18.40
-18.39
-18.51
-18.75
-18.89
-18.54
-17.39
-15.24
-12.20
-8.49
-4.40
-0.20
3.92
7.77
11.10
13.61
15.08
15.40
14.71
13.35
11.74
10.22
8.97
8.03
7.36
6.94
6.81
6.95
7.28
7.57
7.57
7.10
6.18
4.95
3.59
2.22
0.80
-0.76
-2.53
-4.44
-6.30
-7.86
-8.92
-9.41
-9.35
-8.86
-8.06
-7.07
-5.95
-4.72
-3.40
-1.94
-0.34
1.39
3.22
5.10
6.98
8.79
10.45
11.77
12.53
12.49
11.48
9.48
6.70
3.50
0.29
-2.52
-4.68
-6.12
-6.95
-7.36
-7.61
-7.84
-8.13
-8.42
-8.63
-8.67
-8.54
-8.27
-7.94
-7.58
-7.16
-6.60
-5.83
-4.84
-3.68
-2.50
-1.46
-0.73
-0.48
-0.84
-1.92
-3.64
-5.78
-7.85
-9.23
-9.31
-7.67
-4.31
0.42
5.84
11.12
15.54
18.53
19.83
19.41
17.51
14.56
11.22
8.17
5.97
4.91
4.90
5.52
6.19
6.42
5.99
4.98
3.70
2.54
1.79
1.56
1.73
2.05
2.16
1.81
0.96
-0.14
-0.94
-0.74
1.11
4.93
10.44
16.69
22.21
25.42
25.17
21.21
14.39
6.33
-1.06
-6.32
-8.81
-8.80
-7.18
-5.00
-3.11
-1.97
-1.73
-2.36
-3.83
-6.01
-8.71
-11.49
-13.82
-15.21
-15.53
-15.14
-14.78
-15.25
-16.97
-19.65
-22.34
-23.81
-23.23
-20.65
-17.10
-14.07
-12.72
-13.17
-14.33
-14.25
-11.17
-4.43
4.80
13.84
19.51
19.60
14.14
5.67
-1.71
-4.21
-0.22
8.77
18.62
24.48
22.87
13.07
-2.90
-21.07
-36.64
-44.95
-42.79
-29.78
-9.39
10.89
21.67
15.25
-10.62
-50.57
-92.65
-122.40
-128.27
-106.18
-61.31
-6.23
43.57
75.22
82.67
68.19
40.60
11.19
-10.95
-22.09
-23.89
-20.86
-17.00
-13.50
-8.88
-0.96
10.80
24.36
36.05
42.69
43.45
40.12
36.18
34.54
36.02
38.93
40.03
36.48
27.42
14.54
1.32
-8.64
-13.25
-12.64
-8.87
-4.74
-2.49
-2.86
-5.06
-7.37
-8.03
-6.11
-1.85
3.54
8.46
11.69
12.79
12.21
10.93
9.92
9.71
10.22
10.93
11.21
10.68
9.31
7.34
5.16
3.07
1.18
-0.52
-2.10
-3.65
-5.26
-7.02
-9.09
-11.62
-14.74
-18.45
-22.51
-26.52
-29.88
-32.04
-32.62
-31.56
-29.17
-25.99
-22.55
-19.13
-15.63
-11.77
-7.25
-2.09
3.37
8.49
12.65
15.52
17.12
17.75
17.76
17.39
16.70
15.62
14.12
12.27
10.27
8.36
6.72
5.41
4.30
3.13
1.58
-0.61
-3.58
-7.31
-11.61
-16.09
-20.22
-23.46
-25.31
-25.47
-23.94
-21.00
-17.09
-12.74
-8.37
-4.22
-0.33
3.35
6.89
10.26
13.30
15.80
17.57
18.57
18.91
18.79
18.45
18.04
17.57
17.00
16.33
15.64
15.14
15.01
15.30
15.83
16.24
16.07
14.99
12.90
10.00
6.79
3.87
1.83
1.04
1.63
3.46
6.21
9.44
12.61
15.24
17.00
17.79
17.75
17.17
16.32
15.35
14.22
12.78
10.95
8.75
6.36
4.08
2.15
0.76
-0.08
-0.49
-0.68
-0.93
-1.48
-2.53
-4.15
-6.36
-9.15
-12.40
-15.91
-19.29
-21.96
-23.34
-22.96
-20.79
-17.20
-12.88
-8.55
-4.76
-1.70
0.73
2.71
4.45
5.98
7.25
8.14
8.59
8.57
8.11
7.26
6.07
4.56
2.80
0.87
-1.08
-2.90
-4.45
-5.71
-6.78
-7.92
-9.39
-11.33
-13.60
-15.78
-17.24
-17.36
-15.84
-12.68
-8.29
-3.25
1.89
6.75
11.15
15.00
18.26
20.86
22.74
23.91
24.44
24.39
23.72
22.30
20.01
16.94
13.41
9.92
6.89
4.45
2.39
0.29
-2.17
-5.08
-8.19
-11.15
-13.71
-15.80
-17.48
-18.76
-19.45
-19.22
-17.76
-14.92
-10.91
-6.19
-1.34
3.11
6.85
9.78
11.99
13.68
15.05
16.19
17.09
17.64
17.69
17.16
16.05
14.54
12.84
11.13
9.47
7.80
6.03
4.08
1.93
-0.38
-2.85
-5.49
-8.37
-11.46
-14.59
-17.38
-19.38
-20.11
-19.31
-17.04
-13.63
-9.66
-5.76
-2.43
0.06
1.66
2.51
2.83
2.77
2.40
1.69
0.64
-0.76
-2.42
-4.22
-6.04
-7.75
-9.25
-10.41
-11.13
-11.40
-11.34
-11.22
-11.45
-12.41
-14.26
-16.82
-19.54
-21.63
-22.34
-21.21
-18.24
-13.86
-8.76
-3.60
1.18
5.43
9.14
12.36
15.04
17.12
18.59
19.56
20.26
20.86
21.37
21.58
21.19
20.02
18.13
15.85
13.61
11.78
10.41
9.25
7.84
5.71
2.60
-1.37
-5.70
-9.63
-12.39
-13.46
-12.70
-10.31
-6.76
-2.56
1.82
6.01
9.71
12.71
14.89
16.28
17.08
17.54
17.84
18.05
18.06
17.71
16.91
15.68
14.18
12.58
11.03
9.53
8.06
6.53
4.90
3.10
1.02
-1.45
-4.37
-7.62
-10.75
-13.14
-14.14
-13.39
-10.94
-7.30
-3.16
0.88
4.46
7.46
9.84
11.55
12.44
12.49
11.79
10.69
9.61
8.82
8.35
7.97
7.35
6.29
4.82
3.19
1.65
0.30
-1.05
-2.75
-5.10
-8.20
-11.82
-15.49
-18.60
-20.62
-21.20
-20.21
-17.79
-14.22
-9.92
-5.34
-0.92
3.00
6.18
8.53
10.03
10.79
10.96
10.69
10.09
9.21
8.08
6.72
5.20
3.63
2.11
0.69
-0.71
-2.24
-4.04
-6.26
-9.00
-12.30
-16.16
-20.46
-24.86
-28.82
-31.67
-32.77
-31.76
-28.69
-24.07
-18.66
-13.36
-8.83
-5.43
-3.12
-1.58
-0.38
0.81
2.11
3.42
4.44
4.93
4.77
4.03
2.89
1.51
-0.02
-1.71
-3.58
-5.58
-7.58
-9.51
-11.40
-13.44
-15.94
-19.08
-22.78
-26.56
-29.70
-31.42
-31.21
-28.96
-25.00
-19.98
-14.62
-9.52
-5.07
-1.36
1.65
4.08
6.03
7.56
8.74
9.62
10.27
10.75
11.09
11.36
11.61
11.96
12.53
13.38
14.47
15.62
16.47
16.65
15.83
13.83
10.78
7.05
3.24
0.07
-1.82
-2.02
-0.48
2.47
6.24
10.17
13.71
16.56
18.61
19.95
20.72
21.00
20.84
20.25
19.24
17.89
16.30
14.62
12.97
11.41
9.96
8.62
7.37
6.16
4.89
3.41
1.52
-0.98
-4.13
-7.73
-11.31
-14.22
-15.78
-15.49
-13.26
-9.39
-4.52
0.54
5.10
8.70
11.18
12.67
13.45
13.81
13.98
14.12
14.21
14.19
13.93
13.33
12.38
11.16
9.88
8.74
7.87
7.27
6.79
6.22
5.32
3.95
2.06
-0.28
-2.83
-5.19
-6.88
-7.39
-6.44
-4.05
-0.63
3.19
6.75
9.63
11.72
13.19
14.31
15.27
16.05
16.51
16.47
15.82
14.61
13.01
11.23
9.44
7.74
6.13
4.57
3.03
1.48
-0.07
-1.67
-3.45
-5.59
-8.23
-11.36
-14.72
-17.72
-19.69
-19.98
-18.36
-15.05
-10.69
-6.10
-1.98
1.29
3.65
5.24
6.29
6.89
7.07
6.84
6.24
5.41
4.49
3.59
2.67
1.68
0.54
-0.77
-2.16
-3.52
-4.75
-5.86
-6.91
-8.09
-9.56
-11.45
-13.68
-15.97
-17.81
-18.65
-18.03
-15.81
-12.19
-7.67
-2.88
1.60
5.38
8.29
10.35
11.65
12.38
12.69
12.72
12.56
12.28
11.85
11.23
10.38
9.27
7.93
6.40
4.76
3.09
1.42
-0.21
-1.88
-3.72
-5.89
-8.49
-11.47
-14.59
-17.41
-19.40
-20.09
-19.27
-17.04
-13.88
-10.41
-7.25
-4.83
-3.29
-2.57
-2.46
-2.71
-3.14
-3.59
-3.91
-3.98
-3.73
-3.18
-2.45
-1.71
-1.11
-0.64
-0.11
0.74
2.13
4.06
6.22
8.11
9.25
9.39
8.64
7.50
6.56
6.36
7.10
8.70
10.87
13.24
15.51
17.51
19.09
20.18
20.73
20.71
20.15
19.14
17.75
16.07
14.12
11.91
9.46
6.81
4.07
1.37
-1.18
-3.48
-5.50
-7.25
-8.83
-10.35
-11.95
-13.79
-15.92
-18.28
-20.61
-22.49
-23.41
-22.99
-21.12
-18.04
-14.25
-10.31
-6.66
-3.52
-0.91
1.27
3.06
4.48
5.47
5.99
6.09
5.82
5.29
4.59
3.81
3.01
2.29
1.72
1.39
1.26
1.26
1.24
1.07
0.62
-0.19
-1.36
-2.89
-4.66
-6.44
-7.86
-8.49
-7.99
-6.27
-3.55
-0.32
2.87
5.60
7.72
9.31
10.55
11.55
12.32
12.76
12.77
12.36
11.65
10.82
10.02
9.33
8.74
8.19
7.63
7.06
6.52
6.06
5.73
5.48
5.22
4.78
4.02
2.90
1.59
0.44
-0.04
0.63
2.73
6.24
10.84
16.05
21.45
26.72
31.71
36.26
40.17
43.14
44.86
45.10
43.68
40.44
35.22
27.95
18.88
8.76
-1.13
-9.28
-14.44
-16.08
-14.55
-11.00
-6.88
-3.62
-2.37
-3.73
-7.78
-13.84
-20.54
-26.12
-28.91
-28.03
-23.78
-17.55
-11.22
-6.43
-3.96
-3.60
-4.47
-5.48
-5.84
-5.25
-3.90
-2.31
-1.14
-1.12
-2.72
-6.03
-10.73
-16.20
-21.50
-25.72
-28.41
-30.00
-32.21
-37.58
-48.62
-66.56
-90.37
-116.37
-139.00
-152.45
-152.47
-137.82
-109.97
-72.26
-29.02
15.24
56.49
91.37
117.41
133.23
137.80
132.08
118.93
101.86
83.89
67.28
54.01
46.15
45.46
50.55
58.77
65.93
66.37
54.25
26.51
-14.77
-62.41
-106.95
-142.90
-166.48
-175.85
-171.84
-158.38
-141.61
-128.73
-126.93
-141.93
-179.13
-235.31
-298.01
-350.70
-379.88
-379.51
-351.77
-304.96
-226.82
-125.11
-21.88
62.34
120.87
157.38
177.80
186.89
188.23
185.10
176.93
165.11
153.08
143.97
138.27
134.45
130.78
126.35
121.20
113.35
103.07
92.84
85.29
81.15
79.35
78.31
76.80
74.29
69.48
62.80
56.40
52.45
51.66
53.31
56.37
60.76
66.17
71.65
76.13
78.26
76.37
69.13
56.74
41.35
26.22
13.92
5.13
-1.02
-5.58
-8.55
-8.59
-3.78
6.77
21.73
37.49
49.89
56.23
56.83
54.86
54.67
59.78
71.04
86.44
102.05
114.05
120.34
121.22
118.89
116.11
115.01
116.47
120.48
125.87
130.68
132.47
128.88
118.21
99.86
74.68
44.78
12.79
-19.03
-49.30
-77.58
-104.29
-130.38
-157.67
-187.86
-221.76
-258.11
-293.18
-321.32
-336.70
-335.52
-317.53
-287.05
-250.73
-215.15
-184.56
-160.22
-141.10
-125.15
-110.52
-96.07
-82.83
-72.27
-65.69
-63.42
-64.85
-68.71
-73.37
-77.03
-77.73
-75.40
-70.30
-62.95
-54.10
-45.37
-39.94
-42.20
-56.01
-71.67
-78.08
-64.59
-27.45
28.11
89.98
143.66
177.18
185.59
172.31
145.07
112.56
80.10
50.89
27.41
12.54
9.36
19.73
42.60
71.79
98.74
115.66
118.43
107.28
87.07
65.13
48.49
41.52
44.15
53.10
63.55
71.20
73.44
69.79
61.52
50.73
39.52
28.84
18.71
8.71
-1.09
-9.79
-15.71
-17.15
-13.03
-3.47
10.11
25.56
40.61
53.55
63.51
70.44
74.74
76.99
77.65
76.92
74.70
70.56
64.03
54.86
43.29
30.08
16.29
3.02
-8.85
-18.79
-26.55
-32.04
-35.30
-36.55
-36.26
-35.17
-34.10
-33.81
-34.82
-37.46
-41.93
-48.39
-56.87
-67.06
-78.11
-88.57
-96.54
-100.03
-97.51
-88.41
-73.43
-54.46
-34.22
-15.47
-0.36
10.06
15.91
18.09
17.85
16.35
14.48
12.84
11.81
11.64
12.35
13.72
15.27
16.46
16.86
16.32
15.03
13.41
11.95
11.04
10.83
11.25
12.08
13.04
14.00
14.92
15.93
17.13
18.52
19.88
20.87
21.19
20.70
19.56
18.15
16.85
15.92
15.36
15.01
14.65
14.13
13.45
12.67
11.84
10.91
9.75
8.24
6.30
3.89
1.01
-2.39
-6.30
-10.63
-15.14
-19.43
-23.08
-25.73
-27.18
-27.40
-26.45
-24.46
-21.56
-17.94
-13.90
-9.82
-6.15
-3.25
-1.28
-0.20
0.23
0.29
0.20
0.03
-0.27
-0.80
-1.56
-2.49
-3.42
-4.21
-4.81
-5.30
-5.84
-6.57
-7.56
-8.72
-9.88
-10.86
-11.51
-11.75
-11.53
-10.87
-9.78
-8.32
-6.56
-4.61
-2.61
-0.63
1.26
3.01
4.60
6.00
7.12
7.90
8.30
8.30
7.97
7.41
6.80
6.34
6.18
6.45
7.11
7.99
8.85
9.38
9.37
8.69
7.32
5.39
3.03
0.43
-2.23
-4.78
-7.03
-8.79
-9.90
-10.27
-9.95
-9.14
-8.14
-7.24
-6.60
-6.26
-6.10
-6.00
-5.87
-5.74
-5.68
-5.79
-6.07
-6.46
-6.86
-7.22
-7.53
-7.87
-8.35
-9.07
-10.04
-11.18
-12.38
-13.56
-14.74
-15.99
-17.44
-19.09
-20.76
-22.16
-22.89
-22.70
-21.51
-19.50
-16.91
-14.02
-10.93
-7.65
-4.09
-0.24
3.77
7.70
11.26
14.19
16.39
17.86
18.70
19.01
18.87
18.41
17.75
17.08
16.56
16.28
16.18
16.07
15.68
14.77
13.23
11.13
8.70
6.28
4.18
2.66
1.84
1.75
2.34
3.51
5.14
7.05
9.13
11.28
13.45
15.70
18.10
20.65
23.28
25.77
27.85
29.27
29.93
29.96
29.71
29.66
30.24
31.69
33.95
36.56
38.86
40.16
39.93
37.93
34.19
28.97
22.60
15.53
8.32
1.60
-3.94
-7.81
-9.80
-10.14
-9.36
-8.08
-6.87
-6.00
-5.51
-5.28
-5.16
-5.10
-5.07
-5.06
-5.09
-5.13
-5.21
-5.39
-5.84
-6.72
-8.15
-10.15
-12.62
-15.41
-18.38
-21.46
-24.66
-28.07
-31.76
-35.76
-39.94
-44.08
-47.81
-50.73
-52.50
-52.92
-51.94
-49.63
-46.16
-41.76
-36.74
-31.48
-26.43
-21.98
-18.41
-15.79
-13.95
-12.56
-11.24
-9.67
-7.68
-5.28
-2.62
0.06
2.50
4.48
5.94
6.93
7.59
8.14
8.72
9.40
10.11
10.69
10.96
10.79
10.19
9.33
8.49
7.99
8.05
8.80
10.21
12.15
14.43
16.83
19.13
21.09
22.53
23.35
23.62
23.52
23.30
23.15
23.10
23.03
22.74
22.08
21.03
19.71
18.27
16.81
15.33
13.78
12.13
10.43
8.85
7.51
6.43
5.45
4.31
2.75
0.66
-1.90
-4.78
-7.74
-10.56
-13.05
-15.05
-16.45
-17.21
-17.34
-16.95
-16.16
-15.04
-13.63
-11.98
-10.22
-8.59
-7.43
-6.98
-7.36
-8.41
-9.86
-11.41
-12.85
-14.18
-15.46
-16.74
-18.00
-19.05
-19.76
-20.05
-20.07
-20.16
-20.70
-21.99
-24.07
-26.74
-29.64
-32.42
-34.89
-36.99
-38.76
-40.22
-41.35
-42.09
-42.36
-42.10
-41.25
-39.67
-37.16
-33.53
-28.80
-23.22
-17.34
-11.77
-6.95
-2.95
0.51
3.92
7.69
11.99
16.60
21.12
25.08
28.17
30.29
31.53
32.10
32.21
32.05
31.75
31.43
31.18
31.01
30.86
30.56
29.85
28.55
26.59
24.13
21.53
19.14
17.20
15.67
14.25
12.53
10.26
7.50
4.63
2.29
1.02
1.06
2.28
4.14
5.95
7.06
7.10
6.07
4.25
2.18
0.37
-0.84
-1.34
-1.28
-0.88
-0.37
0.19
0.86
1.82
3.24
5.34
8.29
12.23
17.05
22.30
27.11
30.45
31.44
29.75
25.75
20.32
14.57
9.41
5.36
2.60
1.02
0.45
0.65
1.28
1.97
2.35
2.23
1.65
0.85
0.11
-0.45
-0.94
-1.71
-3.18
-5.72
-9.52
-14.44
-20.13
-25.96
-31.24
-35.31
-37.68
-38.16
-36.91
-34.46
-31.53
-28.83
-26.86
-25.76
-25.29
-25.00
-24.47
-23.50
-22.16
-20.62
-19.04
-17.39
-15.48
-13.11
-10.26
-7.08
-3.93
-1.16
1.02
2.52
3.50
4.14
4.70
5.42
6.55
8.30
10.79
13.94
17.48
21.01
24.15
26.56
28.12
28.82
28.81
28.28
27.47
26.66
26.11
26.05
26.61
27.83
29.54
31.48
33.27
34.59
35.17
34.92
33.92
32.37
30.48
28.45
26.42
24.45
22.69
21.32
20.50
20.33
20.68
21.23
21.56
21.40
20.75
19.97
19.57
20.01
21.43
23.61
26.12
28.54
30.64
32.45
34.11
35.68
37.04
37.92
38.03
37.23
35.59
33.34
30.78
28.20
25.87
24.05
22.99
22.88
23.64
24.85
25.74
25.43
23.17
18.73
12.40
4.87
-3.12
-11.16
-19.33
-28.17
-38.40
-50.59
-64.82
-80.44
-96.07
-109.86
-119.93
-124.97
-124.74
-120.26
-113.63
-107.34
-103.52
-103.30
-106.52
-111.88
-117.32
-120.54
-119.55
-113.15
-101.27
-85.08
-66.72
-48.77
-33.54
-22.36
-15.30
-11.22
-8.31
-4.89
0.05
6.50
13.66
20.43
25.95
29.98
32.78
34.88
36.68
38.28
39.57
40.41
40.87
41.11
41.30
41.40
41.18
40.38
38.90
36.96
34.97
33.39
32.45
32.10
32.03
31.82
31.19
29.99
28.27
26.13
23.65
20.83
17.62
14.09
10.43
6.98
4.10
2.02
0.72
-0.06
-0.74
-1.59
-2.74
-4.03
-5.14
-5.78
-5.78
-5.15
-4.03
-2.61
-1.11
0.31
1.52
2.50
3.32
4.17
5.24
6.64
8.31
10.08
11.68
12.98
13.97
14.79
15.61
16.52
17.48
18.36
19.02
19.33
19.21
18.60
17.45
15.82
13.87
11.99
10.69
10.38
11.23
12.94
14.77
15.70
14.66
10.90
4.22
-4.78
-14.74
-23.77
-29.89
-31.66
-28.68
-21.79
-12.86
-4.09
2.78
6.99
8.88
9.50
10.02
11.17
13.08
15.35
17.43
18.91
19.65
19.82
19.65
19.37
19.11
18.84
18.43
17.69
16.41
14.43
11.75
8.51
4.99
1.52
-1.69
-4.59
-7.28
-9.83
-12.05
-13.46
-13.41
-11.44
-7.58
-2.54
2.46
6.10
7.43
6.17
2.73
-2.01
-7.00
-11.30
-14.24
-15.53
-15.20
-13.63
-11.43
-9.31
-7.88
-7.44
-7.82
-8.53
-8.87
-8.29
-6.61
-4.18
-1.71
-0.05
0.15
-1.28
-3.98
-7.09
-9.59
-10.49
-9.18
-5.55
-0.03
6.50
12.89
18.04
21.14
21.94
20.83
18.78
17.00
16.56
18.03
21.20
25.22
28.82
30.84
30.60
28.13
24.03
19.24
14.65
10.87
8.12
6.25
4.83
3.19
0.59
-3.65
-9.78
-17.46
-25.60
-32.67
-37.14
-38.05
-35.34
-29.79
-22.74
-15.55
-9.32
-4.77
-2.19
-1.63
-2.86
-5.38
-8.41
-11.01
-12.36
-11.99
-10.00
-7.00
-3.91
-1.71
-1.07
-2.24
-4.91
-8.35
-11.65
-14.02
-15.14
-15.21
-14.95
-15.22
-16.66
-19.39
-22.87
-26.13
-28.10
-28.00
-25.65
-21.48
-16.44
-11.67
-8.19
-6.72
-7.50
-10.32
-14.65
-19.72
-24.78
-29.21
-32.73
-35.39
-37.57
-39.77
-42.47
-45.94
-50.19
-55.00
-60.04
-64.99
-69.68
-74.14
-78.57
-83.28
-88.43
-93.84
-98.84
-102.28
-102.78
-99.10
-90.50
-76.99
-59.28
-38.62
-16.48
5.76
26.94
46.15
62.71
76.01
85.68
91.71
94.62
95.51
95.77
96.69
98.96
102.40
106.01
108.36
108.07
104.22
96.57
85.53
71.96
56.98
41.74
27.15
13.85
2.11
-8.06
-16.73
-23.89
-29.39
-33.10
-34.97
-35.41
-35.19
-35.46
-37.51
-42.45
-50.94
-62.81
-76.67
-89.74
-98.20
-97.99
-86.24
-62.45
-29.11
8.84
45.39
75.33
95.56
105.60
107.00
102.27
93.75
83.14
71.53
59.80
48.97
40.24
34.63
32.68
34.11
37.93
42.75
47.31
50.81
53.06
54.24
54.64
54.34
53.24
51.07
47.70
43.19
37.87
32.18
26.60
21.48
16.97
12.93
8.97
4.55
-0.83
-7.40
-14.97
-22.94
-30.58
-37.30
-42.92
-47.72
-52.14
-56.46
-60.50
-63.65
-65.11
-64.29
-61.09
-55.82
-48.92
-40.64
-31.01
-20.18
-8.88
1.51
9.37
13.85
15.41
15.95
17.83
22.67
30.54
39.94
48.68
55.00
58.31
59.07
58.14
56.14
53.14
48.99
43.82
38.23
33.23
29.77
28.46
29.28
31.73
34.95
37.96
39.88
40.06
38.21
34.44
29.06
22.52
15.26
7.66
0.15
-6.77
-12.47
-16.38
-18.16
-17.87
-16.03
-13.46
-11.02
-9.37
-8.79
-9.19
-10.20
-11.42
-12.46
-13.14
-13.43
-13.43
-13.29
-13.12
-12.93
-12.67
-12.27
-11.67
-10.86
-9.86
-8.70
-7.38
-5.86
-4.14
-2.33
-0.61
0.79
1.69
2.06
2.06
1.95
2.04
2.52
3.40
4.53
5.63
6.38
6.54
5.98
4.71
2.91
0.85
-1.17
-2.86
-4.00
-4.44
-4.16
-3.26
-1.93
-0.47
0.87
1.88
2.54
2.97
3.40
4.08
5.15
6.60
8.28
9.94
11.30
12.09
12.09
11.19
9.35
6.69
3.43
-0.10
-3.50
-6.42
-8.59
-9.92
-10.41
-10.17
-9.29
-7.87
-5.97
-3.75
-1.44
0.60
1.94
2.20
1.17
-1.08
-4.17
-7.48
-10.33
-12.24
-13.00
-12.75
-11.88
-10.82
-9.91
-9.26
-8.86
-8.66
-8.65
-8.85
-9.29
-9.87
-10.39
-10.63
-10.46
-9.91
-9.18
-8.52
-8.13
-8.10
-8.42
-9.01
-9.78
-10.63
-11.45
-12.14
-12.62
-12.88
-12.97
-13.00
-13.03
-13.02
-12.86
-12.41
-11.61
-10.48
-9.19
-7.92
-6.85
-6.05
-5.52
-5.19
-4.95
-4.70
-4.34
-3.84
-3.22
-2.51
-1.82
-1.25
-0.88
-0.77
-0.95
-1.42
-2.17
-3.08
-4.05
-4.96
-5.76
-6.50
-7.31
-8.31
-9.59
-11.14
-12.90
-14.77
-16.64
-18.43
-20.01
-21.27
-22.04
-22.23
-21.85
-21.10
-20.32
-19.93
-20.27
-21.60
-23.87
-26.70
-29.50
-31.67
-32.87
-33.22
-33.20
-33.48
-34.73
-37.28
-40.92
-44.92
-48.10
-49.09
-46.51
-39.26
-27.04
-10.68
7.93
26.29
42.08
53.74
60.88
64.12
65.02
64.97
64.69
64.21
63.46
62.60
62.16
62.67
64.46
68.03
72.94
77.65
80.12
79.06
74.70
68.83
63.98
62.52
66.77
76.75
89.80
101.80
109.35
111.09
107.86
101.61
94.56
90.01
89.77
93.51
99.18
104.28
106.47
103.56
93.36
65.71
18.75
-38.93
-93.05
-133.17
-156.74
-166.75
-167.87
-164.47
-159.48
-153.03
-145.19
-136.94
-129.61
-123.31
-117.82
-110.35
-99.27
-84.80
-67.73
-50.19
-35.00
-24.60
-19.87
-20.06
-23.48
-28.82
-35.09
-40.74
-44.55
-45.03
-41.69
-34.41
-23.41
-9.11
7.36
24.51
41.24
56.60
69.79
80.20
87.54
91.72
92.65
90.06
83.88
74.84
64.42
54.52
46.71
41.87
39.92
40.03
41.01
41.87
41.91
40.54
36.98
30.19
19.17
3.47
-16.38
-38.80
-61.31
-80.97
-94.96
-101.27
-99.33
-90.29
-76.80
-62.17
-49.30
-39.68
-33.15
-28.40
-23.93
-19.04
-14.01
-9.78
-7.10
-6.09
-6.16
-6.43
-6.27
-5.58
-4.73
-4.25
-4.47
-5.44
-7.01
-8.99
-11.21
-13.53
-15.66
-17.08
-17.19
-15.45
-11.73
-6.37
-0.18
5.79
10.57
13.61
14.84
14.67
13.78
12.82
12.29
12.37
13.03
14.13
15.48
16.81
17.77
17.95
16.96
14.68
11.41
7.85
4.86
3.10
2.73
3.31
4.01
3.97
2.68
0.05
-3.63
-7.97
-12.61
-17.21
-21.46
-24.98
-27.41
-28.49
-28.12
-26.43
-23.79
-20.47
-16.56
-12.07
-7.11
-1.96
2.88
6.82
9.36
10.11
9.24
7.38
5.11
2.51
-0.82
-5.48
-11.85
-19.83
-29.02
-38.03
-44.98
-48.65
-49.20
-48.07
-47.22
-48.30
-52.06
-58.79
-67.28
-75.35
-81.18
-83.81
-82.85
-77.95
-69.23
-58.15
-48.49
-43.65
-44.72
-49.82
-54.57
-53.63
-42.85
-21.43
12.32
51.09
83.59
103.46
112.70
116.80
119.32
120.69
119.85
116.31
110.20
103.15
96.71
90.38
81.70
67.89
48.28
25.06
2.41
-15.94
-27.15
-30.20
-26.84
-19.56
-11.30
-4.36
-0.01
1.23
-1.00
-5.90
-11.29
-14.25
-12.30
-4.59
7.68
21.48
33.12
39.60
40.24
36.73
31.72
27.23
23.58
19.87
14.80
8.55
2.49
-1.36
-1.55
1.70
6.44
9.81
9.44
4.69
-3.09
-11.29
-17.11
-18.66
-15.46
-8.22
1.54
11.72
19.53
21.51
14.30
-3.59
-29.79
-57.42
-76.78
-79.40
-62.35
-30.31
6.12
35.23
49.67
49.25
39.81
29.10
22.30
19.89
18.72
15.08
7.51
-2.31
-10.87
-15.10
-14.14
-9.70
-4.83
-2.23
-2.89
-5.74
-8.17
-7.32
-1.29
9.99
24.71
39.77
51.75
58.01
57.38
50.33
38.45
23.73
8.00
-7.17
-20.24
-29.52
-33.45
-31.27
-23.68
-13.02
-2.55
4.68
6.98
4.41
-1.63
-9.28
-17.04
-23.96
-29.39
-32.56
-32.70
-29.44
-23.32
-15.82
-8.81
-3.63
-0.48
1.65
4.31
8.62
14.59
21.03
26.27
29.01
29.02
27.20
25.01
23.69
23.64
24.39
24.97
24.44
22.28
18.48
13.43
7.76
2.07
-3.18
-7.90
-12.42
-17.32
-23.23
-30.40
-38.49
-46.54
-53.27
-57.50
-58.48
-56.17
-51.13
-44.37
-37.00
-29.91
-23.64
-18.27
-13.59
-9.31
-5.23
-1.37
2.13
5.05
7.24
8.62
9.25
9.21
8.53
7.05
4.39
0.16
-5.70
-12.58
-19.12
-23.69
-24.99
-22.67
-17.46
-10.72
-3.75
2.81
9.02
15.15
21.13
26.30
29.59
30.10
27.62
22.84
17.09
11.84
8.22
6.70
7.06
8.63
10.77
13.08
15.47
17.95
20.27
21.72
21.25
17.88
11.17
1.57
-9.64
-20.69
-29.85
-36.06
-39.28
-40.44
-41.15
-42.93
-46.72
-52.56
-59.71
-66.91
-72.81
-76.11
-75.57
-69.97
-58.28
-40.31
-17.20
8.47
33.21
53.50
66.64
71.23
67.42
56.80
41.84
25.40
10.38
-0.53
-5.36
-3.47
4.24
15.63
28.62
40.96
50.80
57.02
59.70
59.76
57.90
54.16
48.04
40.14
30.85
20.51
9.43
-1.34
-10.17
-16.03
-18.85
-19.65
-18.36
-16.01
-14.18
-14.09
-14.80
-13.42
-7.48
3.44
17.04
31.14
41.16
41.50
27.42
-1.44
-35.15
-57.20
-51.88
-26.33
11.99
54.64
96.40
128.26
143.47
139.76
118.12
80.93
30.21
-30.11
-96.22
-162.54
-220.71
-259.66
-270.06
-250.16
-208.09
-159.50
-119.66
-99.25
-100.38
-117.16
-138.63
-154.43
-159.29
-153.41
-139.98
-120.85
-96.68
-67.78
-35.87
-4.35
22.29
39.84
46.54
44.04
37.42
32.23
32.29
38.25
48.28
59.42
69.19
76.79
83.20
90.49
100.17
112.20
124.77
135.22
141.20
141.67
137.16
129.23
119.61
109.42
98.90
87.76
75.72
62.99
50.43
39.29
30.74
25.36
22.91
22.40
22.43
21.76
19.67
16.14
11.65
6.84
2.16
-2.25
-6.46
-10.42
-13.85
-16.17
-16.78
-15.41
-12.31
-8.26
-4.29
-1.26
0.41
0.86
0.61
0.29
0.35
0.89
1.79
2.81
3.70
4.28
4.39
3.89
2.72
0.94
-1.18
-3.25
-4.94
-6.03
-6.57
-6.77
-6.93
-7.26
-7.74
-8.04
-7.65
-6.13
-3.42
0.08
3.52
5.95
6.73
5.76
3.49
0.73
-1.73
-3.40
-4.15
-4.23
-4.11
-4.25
-4.98
-6.35
-8.09
-9.79
-11.10
-11.91
-12.27
-12.19
-11.56
-10.24
-8.31
-6.31
-5.17
-5.78
-8.51
-12.91
-17.87
-22.08
-24.63
-25.21
-24.12
-21.89
-19.09
-16.25
-13.98
-13.02
-14.09
-17.50
-22.90
-29.16
-34.60
-37.60
-37.33
-34.24
-29.96
-26.68
-26.19
-29.05
-34.28
-39.72
-42.88
-41.92
-36.26
-26.69
-15.12
-4.01
4.12
7.33
5.21
-0.78
-7.48
-10.97
-8.19
1.65
16.67
32.90
46.24
54.59
58.38
59.67
60.72
62.47
64.29
64.89
62.97
58.12
51.77
46.15
43.56
45.77
53.78
67.45
85.70
105.43
122.22
132.51
133.93
125.72
109.01
86.68
62.82
42.31
28.15
20.33
16.79
13.18
4.26
-13.61
-40.42
-75.51
-110.20
-133.07
-142.61
-140.28
-128.66
-110.44
-87.66
-61.98
-35.40
-9.95
11.50
26.58
35.68
40.65
43.15
43.32
39.66
30.16
14.69
-4.87
-24.97
-40.94
-50.06
-52.91
-52.70
-53.12
-56.39
-61.90
-67.48
-70.94
-70.71
-66.95
-61.10
-55.18
-50.60
-47.85
-46.51
-46.00
-45.63
-44.02
-39.35
-29.90
-15.10
3.74
23.44
40.13
50.88
54.93
54.08
51.38
49.44
49.29
50.37
51.46
51.83
51.72
51.86
52.60
53.36
52.76
49.53
43.32
34.87
25.79
17.94
12.53
9.73
8.75
8.32
7.30
5.21
2.28
-0.79
-3.18
-4.42
-4.41
-3.39
-1.76
0.02
1.51
2.37
2.45
1.84
0.88
0.10
-0.03
0.75
2.39
4.55
6.71
8.39
9.25
9.21
8.44
7.36
6.46
6.24
7.01
8.80
11.34
14.00
15.87
15.92
13.23
7.31
-1.60
-12.45
-23.66
-33.52
-40.77
-44.97
-46.57
-46.60
-46.16
-46.04
-46.46
-47.26
-48.06
-48.57
-48.75
-48.66
-48.42
-48.03
-47.38
-46.38
-45.06
-43.61
-42.32
-41.31
-40.40
-39.04
-36.53
-32.40
-26.62
-19.68
-12.38
-5.57
0.18
4.64
7.92
10.38
12.33
13.96
15.27
16.11
16.34
15.97
15.26
14.83
15.36
17.33
20.72
25.00
29.25
32.59
34.34
34.26
32.74
30.49
28.13
26.08
24.59
23.79
23.89
24.92
26.59
28.93
31.80
34.82
37.32
38.78
38.86
37.88
36.20
33.99
32.19
31.61
32.49
34.35
36.37
37.63
38.02
37.50
36.07
35.10
36.10
40.19
47.63
58.19
71.01
85.53
100.21
106.03
96.05
69.47
32.87
-4.57
-33.93
-54.73
-67.13
-71.40
-68.40
-57.65
-40.70
-21.56
-5.86
1.45
-2.02
-14.31
-31.13
-47.97
-61.01
-68.79
-71.88
-71.69
-69.14
-64.53
-57.58
-49.19
-41.64
-36.92
-35.95
-37.74
-39.77
-39.23
-34.54
-25.84
-15.25
-5.78
0.44
2.77
1.97
-0.44
-3.01
-4.83
-5.31
-4.20
-1.23
4.04
11.91
22.10
33.48
44.28
52.61
57.37
58.68
57.92
57.20
58.44
62.65
69.49
77.59
85.24
91.14
94.82
96.68
97.63
98.76
101.12
105.76
113.72
125.86
142.34
161.86
181.47
196.90
203.71
198.88
181.79
154.33
119.98
82.40
43.98
5.44
-33.67
-73.70
-113.82
-151.76
-184.70
-210.73
-229.93
-244.23
-256.09
-266.54
-274.09
-275.13
-265.84
-244.54
-213.12
-176.68
-141.59
-113.09
-93.75
-83.34
-79.79
-80.43
-82.83
-84.96
-85.23
-82.43
-75.86
-65.59
-52.49
-37.91
-23.35
-10.04
1.18
9.88
16.00
19.79
21.77
22.66
23.16
23.70
24.26
24.47
23.82
22.08
19.50
16.91
15.48
16.25
19.73
25.61
32.81
39.77
44.95
47.34
46.68
43.46
38.62
33.12
27.60
22.28
16.99
11.49
5.63
-0.40
-6.20
-11.24
-15.10
-17.58
-18.75
-18.82
-17.99
-16.39
-14.02
-10.86
-6.99
-2.63
1.92
6.32
10.39
14.12
17.60
20.92
23.99
26.57
28.30
28.97
28.59
27.50
26.28
25.51
25.62
26.75
28.79
31.45
34.39
37.30
39.94
42.10
43.56
44.19
43.88
42.68
40.81
38.57
36.30
34.25
32.51
30.99
29.54
27.90
25.77
22.71
18.15
11.52
2.41
-9.16
-22.59
-36.70
-50.05
-61.21
-69.14
-73.34
-73.86
-71.29
-66.54
-60.62
-54.40
-48.32
-42.43
-36.45
-30.12
-23.40
-16.60
-10.19
-4.54
0.20
4.13
7.34
9.70
10.81
10.25
7.90
4.21
0.09
-3.41
-5.57
-6.29
-5.98
-5.31
-4.80
-4.58
-4.46
-4.12
-3.39
-2.36
-1.31
-0.57
-0.32
-0.53
-0.99
-1.42
-1.64
-1.63
-1.61
-1.87
-2.73
-4.25
-6.28
-8.38
-10.03
-10.76
-10.29
-8.58
-5.86
-2.53
0.89
3.89
6.05
7.17
7.33
6.80
5.93
4.95
3.88
2.56
0.76
-1.60
-4.39
-7.19
-9.46
-10.76
-10.94
-10.26
-9.37
-9.19
-10.72
-14.81
-22.00
-32.21
-44.46
-56.62
-65.64
-68.30
-62.34
-47.52
-25.96
-1.61
21.20
39.20
51.07
57.41
59.84
59.90
58.49
55.85
52.03
47.37
42.58
38.43
35.29
32.94
30.63
27.54
23.26
18.01
12.57
7.86
4.48
2.41
1.08
-0.27
-2.19
-4.70
-7.26
-9.09
-9.55
-8.42
-5.98
-2.89
0.12
2.50
4.04
4.88
5.39
5.96
6.82
7.96
9.15
10.06
10.42
10.10
9.14
7.71
6.03
4.34
2.77
1.37
0.10
-1.17
-2.58
-4.23
-6.11
-8.13
-10.07
-11.71
-12.79
-13.08
-12.41
-10.69
-7.95
-4.37
-0.22
4.20
8.55
12.57
16.02
18.73
20.59
21.59
21.71
21.01
19.56
17.49
15.05
12.59
10.48
9.00
8.15
7.65
7.08
6.02
4.31
2.00
-0.66
-3.48
-6.32
-9.12
-11.74
-13.89
-15.15
-15.19
-13.91
-11.60
-8.84
-6.29
-4.41
-3.32
-2.82
-2.56
-2.26
-1.81
-1.34
-1.08
-1.25
-1.96
-3.18
-4.76
-6.46
-8.01
-9.18
-9.90
-10.29
-10.70
-11.65
-13.62
-16.89
-21.36
-26.58
-31.88
-36.61
-40.35
-43.02
-44.80
-46.05
-47.09
-48.13
-49.27
-50.50
-51.85
-53.35
-55.12
-57.37
-60.38
-64.35
-69.12
-73.84
-76.86
-76.05
-69.50
-56.45
-37.79
-16.11
5.22
23.17
36.14
44.27
49.00
52.08
54.69
57.09
58.84
59.49
59.03
58.05
57.40
57.63
58.64
59.70
59.77
58.12
54.58
49.66
44.24
39.25
35.34
32.78
31.52
31.29
31.67
32.08
31.87
30.42
27.44
23.23
18.76
15.42
14.61
17.13
22.75
30.13
37.05
41.14
40.65
35.25
26.20
15.99
7.44
2.60
2.09
5.07
9.87
14.80
18.71
21.03
21.44
19.57
15.16
8.46
0.58
-6.59
-11.11
-11.84
-9.04
-4.23
0.46
3.24
3.28
0.84
-3.14
-7.57
-11.77
-15.62
-19.42
-23.62
-28.46
-33.76
-38.96
-43.31
-46.26
-47.72
-48.20
-48.68
-50.24
-53.60
-58.80
-65.02
-70.75
-74.08
-73.09
-66.30
-53.09
-34.01
-10.90
13.38
35.48
52.37
62.12
64.37
60.29
52.06
42.15
32.61
24.70
18.89
15.07
12.90
11.97
11.92
12.39
12.99
13.33
13.09
12.22
11.03
10.10
10.08
11.30
13.58
16.16
18.00
18.26
16.66
13.60
9.89
6.26
3.03
-0.00
-3.23
-6.91
-10.86
-14.51
-17.21
-18.57
-18.65
-17.95
-17.13
-16.76
-17.04
-17.86
-18.91
-19.83
-20.42
-20.65
-20.56
-20.16
-19.36
-18.05
-16.15
-13.77
-11.18
-8.73
-6.67
-5.01
-3.53
-1.94
-0.07
2.07
4.34
6.63
8.93
11.30
13.62
15.52
16.43
15.84
13.61
10.15
6.28
2.92
0.72
-0.18
-0.04
0.70
1.63
2.48
3.00
2.90
1.80
-0.68
-4.73
-10.21
-16.64
-23.26
-29.23
-33.76
-36.32
-36.70
-35.07
-31.84
-27.45
-22.26
-16.32
-9.53
-1.76
6.86
15.78
24.09
30.74
34.92
36.32
35.25
32.46
28.83
25.10
21.65
18.55
15.67
12.89
10.19
7.65
5.30
3.10
0.82
-1.82
-5.02
-8.87
-13.28
-18.09
-23.11
-28.12
-32.83
-36.79
-39.41
-40.26
-39.28
-36.85
-33.57
-29.77
-25.01
-18.19
-8.18
5.33
21.10
36.46
48.24
54.08
53.34
47.27
38.16
28.34
19.41
12.15
6.97
4.25
4.31
7.10
11.70
16.42
19.32
19.08
15.65
10.35
5.25
2.31
2.56
5.83
10.95
16.44
21.03
24.07
25.55
25.81
25.22
23.95
21.93
18.98
15.02
10.18
4.80
-0.72
-6.06
-11.05
-15.63
-19.68
-22.96
-25.14
-25.93
-25.25
-23.36
-20.80
-18.30
-16.59
-16.18
-17.33
-19.93
-23.64
-27.89
-32.05
-35.52
-37.80
-38.51
-37.38
-34.33
-29.49
-23.30
-16.48
-9.92
-4.42
-0.52
1.73
2.67
2.84
2.78
2.87
3.25
3.95
4.96
6.24
7.73
9.22
10.36
10.73
9.98
7.97
4.88
1.17
-2.51
-5.55
-7.58
-8.58
-8.89
-9.05
-9.53
-10.49
-11.71
-12.75
-13.13
-12.63
-11.35
-9.67
-8.11
-7.09
-6.86
-7.42
-8.61
-10.11
-11.56
-12.63
-13.09
-12.84
-11.85
-10.16
-7.77
-4.74
-1.27
2.34
5.73
8.65
11.16
13.62
16.52
20.25
24.86
30.05
35.24
39.87
43.56
46.27
48.18
49.54
50.48
50.95
50.73
49.55
47.29
44.01
40.00
35.63
31.26
27.08
23.11
19.18
15.11
10.74
5.99
0.90
-4.42
-9.77
-14.91
-19.52
-23.26
-25.78
-26.81
-26.29
-24.36
-21.40
-17.92
-14.42
-11.26
-8.58
-6.34
-4.45
-2.85
-1.55
-0.59
-0.01
0.22
0.22
0.10
-0.06
-0.27
-0.58
-1.04
-1.68
-2.44
-3.25
-4.00
-4.63
-5.08
-5.39
-5.59
-5.71
-5.75
-5.63
-5.19
-4.30
-2.88
-0.97
1.30
3.72
6.07
8.17
9.87
11.11
11.90
12.30
12.46
12.53
12.69
13.05
13.63
14.36
15.13
15.80
16.30
16.61
16.81
16.97
17.15
17.26
17.13
16.49
15.16
13.14
10.68
8.19
6.18
5.00
4.81
5.52
6.86
8.52
10.18
11.55
12.40
12.52
11.83
10.38
8.43
6.41
4.77
3.84
3.72
4.29
5.21
6.14
6.78
6.98
6.71
6.06
5.12
3.99
2.76
1.49
0.29
-0.75
-1.52
-1.94
-2.01
-1.81
-1.50
-1.24
-1.16
-1.24
-1.42
-1.56
-1.60
-1.61
-1.80
-2.45
-3.74
-5.66
-7.92
-10.07
-11.68
-12.54
-12.75
-12.70
-12.90
-13.70
-15.20
-17.20
-19.33
-21.22
-22.62
-23.40
-23.50
-22.92
-21.64
-19.70
-17.26
-14.56
-11.89
-9.47
-7.40
-5.66
-4.15
-2.83
-1.66
-0.68
0.05
0.52
0.68
0.55
0.18
-0.29
-0.68
-0.82
-0.61
-0.06
0.72
1.56
2.38
3.18
4.02
5.00
6.23
7.83
9.94
12.64
15.94
19.65
23.39
26.69
29.20
30.79
31.67
32.27
33.04
34.31
36.17
38.47
40.95
43.35
45.45
47.08
48.11
48.47
48.17
47.36
46.32
45.38
44.81
44.60
44.54
44.26
43.47
42.15
40.62
39.42
39.04
39.68
41.17
43.02
44.70
45.88
46.53
46.85
47.09
47.28
47.03
45.49
41.45
33.49
20.36
1.35
-23.34
-52.30
-82.96
-112.03
-136.24
-153.16
-161.75
-162.57
-157.47
-148.92
-139.31
-130.54
-123.71
-119.25
-117.23
-117.54
-120.06
-124.64
-130.98
-138.37
-145.55
-150.74
-152.18
-148.81
-140.77
-129.68
-118.15
-108.85
-103.55
-102.53
-104.73
-108.32
-111.36
-112.08
-108.88
-100.41
-85.97
-66.17
-43.07
-19.73
0.97
17.57
30.58
41.89
53.66
67.09
82.00
97.21
111.42
123.79
134.11
142.37
148.33
151.49
151.35
147.67
140.83
131.73
121.62
111.88
103.67
97.65
93.86
91.71
90.29
88.73
86.60
83.90
81.02
78.35
76.04
73.88
71.41
68.18
64.08
59.34
54.40
49.63
45.08
40.49
35.46
29.68
23.23
16.33
9.25
2.09
-5.25
-12.87
-20.61
-28.08
-34.97
-41.66
-49.36
-59.72
-73.78
-91.12
-109.56
-125.88
-137.23
-142.32
-141.89
-138.02
-132.81
-127.30
-121.03
-112.62
-100.83
-85.49
-67.76
-49.82
-34.12
-22.66
-16.61
-16.25
-20.99
-29.84
-41.59
-55.13
-69.57
-84.30
-98.92
-113.20
-126.72
-138.50
-146.70
-148.56
-140.99
-121.81
-91.07
-51.87
-9.88
28.30
57.44
75.51
84.24
88.03
91.89
99.31
111.24
126.30
141.96
155.98
167.17
175.41
181.17
184.83
186.44
185.84
182.96
178.15
172.13
165.75
159.58
153.62
147.41
140.43
132.45
123.79
115.33
108.15
103.09
100.45
99.79
100.13
100.16
98.63
94.73
88.40
80.28
71.46
62.96
55.17
47.74
39.99
31.69
23.60
17.22
13.65
12.46
11.30
6.99
-2.79
-18.03
-36.57
-55.17
-71.09
-83.06
-90.99
-94.74
-92.97
-83.36
-63.75
-34.51
0.96
37.14
68.04
88.66
96.18
90.74
75.03
53.82
31.44
11.50
-3.34
-11.57
-13.44
-10.87
-6.43
-3.15
-3.41
-10.54
-26.97
-52.26
-82.72
-113.33
-139.51
-158.03
-168.80
-173.53
-177.17
-184.42
-196.24
-209.58
-221.32
-231.49
-242.97
-260.34
-269.95
-257.81
-218.67
-159.21
-91.18
-26.32
23.81
59.32
81.41
92.56
92.64
79.64
51.90
13.27
-28.27
-62.57
-79.47
-73.45
-44.91
1.85
51.40
87.01
102.54
103.13
97.60
92.20
87.89
83.37
76.54
66.45
55.43
47.77
45.89
48.85
53.68
56.65
55.72
50.71
42.77
34.97
31.22
33.87
42.52
54.54
66.05
71.82
67.53
50.96
24.05
-7.07
-34.37
-50.83
-52.82
-41.56
-22.36
-1.86
14.43
24.35
28.83
29.98
28.23
23.59
15.02
1.77
-14.83
-31.33
-43.52
-48.59
-46.44
-39.66
-31.88
-26.06
-23.32
-22.78
-22.57
-21.34
-19.05
-16.69
-15.61
-17.00
-20.00
-22.82
-23.50
-20.91
-15.48
-9.20
-4.17
-1.87
-2.48
-5.13
-8.66
-12.19
-15.39
-17.12
-18.01
-18.20
-17.65
-16.34
-14.45
-12.27
-9.91
-7.33
-4.75
-2.96
-2.84
-5.26
-10.52
-18.54
-27.88
-37.10
-45.21
-52.09
-58.58
-65.72
-74.56
-85.89
-100.12
-116.84
-133.78
-147.14
-151.89
-143.87
-121.60
-87.55
-47.61
-9.28
21.46
42.58
55.49
64.06
71.62
79.40
87.18
95.45
106.98
122.19
143.80
172.94
207.57
241.29
264.92
269.80
251.42
209.75
149.82
79.99
9.60
-51.56
-95.35
-116.90
-114.98
-91.59
-52.87
-5.58
41.06
73.58
86.41
85.53
79.62
71.92
64.48
51.31
30.60
5.07
-20.61
-41.90
-58.21
-70.41
-81.75
-96.02
-117.41
-145.22
-174.33
-197.20
-206.19
-196.77
-169.23
-128.56
-76.02
-23.08
17.27
39.93
49.34
53.09
55.66
57.03
54.91
48.04
36.63
24.80
17.72
18.22
25.18
34.47
41.13
41.65
35.69
25.29
15.40
11.13
14.67
24.11
34.71
41.44
41.13
34.02
23.06
13.27
9.41
13.77
25.48
41.30
56.77
66.94
66.64
52.16
23.48
-14.15
-50.64
-73.84
-74.35
-50.39
-9.90
32.26
60.42
64.92
45.91
12.11
-24.25
-53.03
-69.17
-74.75
-74.89
-73.41
-70.82
-65.31
-56.02
-44.94
-36.42
-34.59
-40.70
-50.29
-56.04
-51.39
-33.84
-6.60
23.20
47.77
61.61
62.66
52.33
34.03
12.34
-7.53
-20.44
-22.45
-12.33
7.32
30.64
50.94
63.43
67.08
64.37
59.33
55.14
52.76
51.02
48.08
43.01
36.45
30.07
26.36
27.41
34.15
45.94
60.86
76.32
90.13
101.10
109.08
114.74
118.67
120.83
120.40
116.16
107.43
94.94
80.97
68.59
60.37
57.05
56.84
56.08
50.84
38.63
19.83
-2.41
-24.00
-41.36
-52.45
-56.83
-55.01
-47.95
-37.44
-25.57
-14.91
-8.91
-10.40
-20.46
-38.41
-62.62
-91.84
-126.72
-167.89
-214.37
-264.16
-312.48
-351.75
-373.49
-370.93
-341.71
-290.69
-227.30
-163.26
-111.75
-81.47
-73.00
-79.40
-89.93
-95.33
-92.75
-82.89
-66.85
-46.89
-22.40
10.65
55.98
112.72
182.34
248.26
283.61
286.00
264.33
231.56
200.62
178.27
162.32
143.75
111.44
61.90
2.52
-55.20
-99.76
-124.48
-130.00
-122.51
-109.43
-96.76
-85.50
-73.01
-58.53
-43.29
-29.33
-18.59
-11.85
-8.46
-7.66
-7.83
-6.92
-4.77
-2.18
-0.09
0.67
-0.32
-2.92
-6.66
-10.23
-11.95
-11.32
-8.82
-5.46
-2.25
0.15
1.72
2.73
3.87
5.95
9.39
14.23
20.11
26.20
31.32
34.22
34.06
30.81
25.37
19.23
13.81
9.95
7.78
7.05
7.46
8.89
11.14
13.71
15.66
15.95
13.98
10.08
5.48
1.90
0.69
2.32
6.20
11.04
15.51
18.67
20.25
20.50
19.88
18.87
17.72
16.52
15.18
13.60
11.69
9.50
7.20
5.01
3.21
1.97
1.31
1.15
1.31
1.61
1.79
1.57
0.61
-1.31
-4.10
-7.20
-9.68
-10.51
-9.11
-5.70
-1.21
3.04
5.99
7.21
7.00
6.00
4.83
3.77
2.71
1.39
-0.35
-2.33
-4.04
-4.80
-4.03
-1.56
2.28
6.68
10.63
13.24
13.96
12.72
9.85
5.91
1.56
-2.57
-5.85
-7.86
-8.38
-7.59
-6.12
-4.85
-4.69
-6.17
-9.22
-13.06
-16.44
-18.02
-16.90
-12.86
-6.53
0.92
8.07
13.71
17.07
17.95
16.54
13.18
8.14
1.48
-6.90
-17.12
-29.26
-43.12
-58.11
-72.99
-85.77
-93.75
-94.13
-85.08
-66.64
-41.24
-13.31
12.06
30.69
40.60
42.35
38.31
31.39
24.02
17.65
12.85
9.59
7.50
5.97
4.31
1.85
-1.76
-6.15
-10.15
-12.19
-10.95
-5.97
2.10
11.94
21.66
29.30
33.52
34.24
32.83
31.86
34.26
42.35
57.35
77.98
100.60
120.55
134.20
140.16
139.40
134.24
126.85
119.27
111.82
103.52
93.44
82.05
71.16
62.75
57.70
55.28
54.95
55.61
55.93
55.14
53.49
51.96
51.70
53.76
50.69
40.08
24.34
7.01
-11.11
-31.29
-53.76
-76.26
-94.92
-106.57
-110.27
-107.02
-99.46
-90.31
-80.99
-71.46
-61.36
-51.06
-41.75
-33.99
-28.26
-25.45
-26.75
-32.91
-43.44
-56.34
-68.44
-76.23
-76.62
-68.86
-55.47
-41.04
-29.80
-23.65
-21.83
-22.36
-23.63
-25.21
-28.28
-34.70
-45.21
-58.18
-69.35
-73.56
-67.61
-51.52
-28.31
-2.24
23.14
46.40
65.33
77.80
82.51
78.33
64.75
42.83
15.99
-10.59
-31.85
-44.60
-49.36
-46.41
-36.87
-22.40
-4.99
13.07
29.23
41.03
46.66
45.89
40.26
31.05
20.36
10.26
2.15
-3.50
-6.85
-8.29
-8.04
-6.14
-3.27
-0.45
1.09
0.44
-2.60
-7.50
-13.29
-18.86
-23.21
-25.78
-26.23
-24.69
-21.85
-18.96
-17.42
-18.16
-21.05
-24.65
-26.60
-24.26
-15.99
-2.06
15.41
33.18
47.89
57.19
60.40
58.47
53.69
48.39
43.87
40.13
36.39
31.76
25.85
18.81
10.67
2.77
-2.53
-3.10
1.76
11.18
22.73
32.91
38.18
37.00
32.52
31.18
38.89
56.86
80.92
102.66
113.17
106.30
81.59
45.22
5.94
-29.28
-57.02
-76.22
-86.54
-87.73
-75.84
-52.16
-21.73
6.85
23.86
22.63
3.09
-28.38
-62.01
-91.40
-114.46
-131.47
-144.24
-155.11
-165.76
-176.12
-185.78
-179.75
-152.78
-113.19
-74.28
-43.55
-21.22
-4.67
8.73
19.33
27.21
30.93
30.12
26.94
24.12
22.65
21.46
19.54
13.81
3.51
-12.19
-32.26
-52.50
-66.78
-69.78
-59.05
-34.64
-1.67
33.63
65.46
90.66
110.12
127.30
145.90
159.92
175.00
190.95
201.42
202.90
194.41
177.79
156.40
132.88
107.60
79.67
45.51
3.74
-42.47
-86.00
-117.86
-130.94
-123.60
-100.69
-70.52
-43.06
-24.23
-13.63
-6.88
1.02
12.34
25.30
35.21
37.99
31.39
17.07
-0.16
-14.97
-23.41
-23.76
-16.09
-1.58
18.15
40.36
61.92
79.91
92.41
99.31
102.46
104.70
108.34
113.94
119.62
122.12
118.21
105.82
84.32
54.28
16.99
-25.64
-70.47
-112.71
-146.29
-165.49
-167.17
-152.39
-126.41
-96.86
-71.16
-54.21
-47.52
-49.67
-57.81
-68.99
-80.77
-91.20
-98.75
-102.37
-101.74
-97.53
-91.01
-84.08
-79.11
-78.13
-82.24
-91.09
-102.89
-114.92
-124.18
-127.66
-123.77
-113.25
-98.64
-83.10
-69.34
-58.91
-52.35
-49.17
-47.50
-45.56
-42.80
-39.67
-37.05
-35.79
-36.45
-39.45
-43.86
-46.25
-42.29
-29.00
-5.57
26.54
64.16
103.55
141.62
169.42
181.26
179.90
171.93
162.54
154.66
149.78
150.66
154.56
157.30
154.88
143.76
121.60
88.89
49.21
7.07
-29.93
-56.47
-70.61
-73.07
-66.55
-54.53
-39.96
-24.78
-10.40
1.77
9.48
11.31
7.94
1.56
-5.30
-10.93
-14.90
-17.99
-21.24
-25.70
-31.14
-36.00
-38.53
-38.04
-35.28
-31.87
-29.24
-27.57
-25.90
-22.29
-14.88
-2.92
12.67
29.70
45.55
58.10
66.34
70.08
69.87
66.49
60.80
53.65
45.88
38.26
31.36
25.47
20.45
15.97
11.81
8.11
5.47
4.77
6.86
12.00
19.59
28.10
35.58
40.29
41.45
39.56
36.18
33.27
32.42
34.30
38.54
43.93
48.70
50.89
48.51
39.86
24.13
1.87
-24.61
-51.57
-74.80
-90.90
-98.42
-98.17
-92.64
-84.82
-77.14
-70.70
-65.36
-60.24
-54.42
-47.84
-41.57
-37.68
-38.47
-45.43
-58.36
-74.99
-91.34
-102.91
-106.19
-99.71
-84.22
-62.24
-37.28
-13.36
5.53
16.67
19.81
17.60
14.97
17.30
27.89
46.05
67.06
84.24
93.14
93.89
90.39
87.24
86.49
86.48
82.86
71.10
48.74
17.54
-17.29
-49.72
-75.16
-90.84
-94.86
-86.58
-68.23
-45.93
-27.13
-17.52
-18.68
-27.41
-37.11
-39.83
-30.00
-3.89
31.72
62.48
79.20
83.88
83.92
83.86
84.50
84.47
81.89
76.55
72.90
75.37
87.07
107.00
128.84
144.63
147.96
135.04
106.29
66.84
24.01
-17.33
-49.17
-73.03
-96.40
-121.48
-148.36
-173.81
-192.02
-197.32
-187.01
-162.80
-131.08
-98.55
-69.84
-47.98
-33.65
-25.88
-22.90
-22.65
-23.10
-23.23
-21.74
-17.47
-10.77
-2.81
5.07
11.79
17.07
21.28
24.46
26.68
28.06
28.20
27.45
26.94
27.79
30.34
33.73
35.86
34.80
29.96
22.18
14.60
11.07
13.91
22.72
34.98
47.18
56.15
59.77
56.46
47.00
34.20
21.63
12.41
8.30
8.73
10.42
8.45
-2.48
-23.10
-49.06
-73.35
-89.07
-91.62
-79.71
-55.37
-19.05
19.86
50.11
67.58
75.90
79.96
81.63
79.56
71.30
58.30
40.51
21.67
6.80
-1.46
-4.28
-5.42
-9.33
-19.34
-35.83
-57.23
-78.51
-93.73
-99.73
-97.33
-89.73
-80.26
-73.79
-68.50
-61.80
-50.43
-32.45
-8.44
18.91
45.97
68.85
84.43
92.65
95.13
94.85
94.01
93.02
90.99
86.93
80.68
72.00
62.70
55.25
52.13
53.96
59.17
64.71
66.77
61.46
43.99
12.74
-29.91
-77.96
-124.14
-161.83
-186.33
-195.95
-181.41
-144.12
-98.17
-60.87
-40.56
-35.90
-40.75
-48.03
-51.93
-48.90
-41.31
-30.26
-16.89
-3.10
7.73
11.58
5.71
-10.07
-33.06
-59.90
-83.93
-97.16
-93.33
-70.52
-31.56
17.25
68.06
113.12
145.47
161.52
161.28
147.82
125.67
99.49
73.22
49.46
29.56
13.53
1.43
-6.59
-10.41
-10.32
-7.23
-2.34
3.22
8.62
13.38
17.57
21.41
25.05
28.36
31.04
32.93
34.26
35.79
38.50
43.31
50.38
58.93
67.36
73.76
76.52
74.81
68.72
59.09
47.02
33.29
18.14
1.42
-17.02
-36.86
-57.14
-76.22
-92.10
-102.98
-107.64
-105.62
-97.17
-83.14
-64.82
-43.80
-21.68
0.23
21.08
40.38
57.71
72.43
83.36
88.97
87.66
78.74
63.11
43.24
22.58
4.58
-8.36
-15.62
-18.34
-19.24
-20.67
-23.36
-26.34
-27.86
-26.66
-22.77
-17.77
-14.08
-14.69
-20.49
-29.64
-38.57
-44.17
-45.07
-41.89
-36.53
-31.27
-29.24
-31.52
-36.70
-41.98
-45.48
-47.17
-48.58
-52.03
-59.71
-74.64
-97.05
-123.65
-148.93
-167.99
-177.76
-176.97
-165.77
-133.89
-81.93
-22.48
29.02
65.77
89.54
105.05
115.55
121.26
120.27
108.79
87.76
60.50
33.32
11.86
-1.03
-5.43
-3.69
1.04
4.59
5.01
2.85
0.42
-1.02
-1.27
-0.35
1.99
6.23
11.74
18.03
24.70
31.53
37.70
42.31
45.05
46.21
46.17
44.68
41.46
36.34
29.37
20.48
9.88
-1.48
-12.06
-20.16
-24.38
-23.59
-17.31
-5.99
7.33
18.14
23.42
23.85
22.84
23.59
27.00
31.63
35.13
37.71
39.42
41.59
45.56
51.48
58.14
63.90
67.86
70.54
71.31
71.16
71.41
72.78
75.07
77.52
79.43
80.33
79.82
77.36
72.58
65.50
56.50
46.24
35.37
24.31
12.98
0.65
-13.83
-31.43
-52.47
-76.35
-101.52
-125.82
-147.03
-163.50
-174.51
-180.27
-181.43
-178.79
-173.01
-164.70
-154.35
-142.27
-128.38
-112.11
-92.52
-68.74
-40.75
-9.88
21.34
49.88
73.40
91.13
104.05
114.28
124.03
134.61
146.09
157.64
168.18
177.12
184.62
191.34
198.04
205.20
212.90
220.86
228.25
233.69
235.24
231.03
219.97
202.36
179.71
154.00
126.50
97.10
64.48
27.05
-15.74
-62.58
-110.31
-154.71
-191.67
-218.16
-232.91
-236.47
-230.97
-219.63
-205.99
-193.10
-182.90
-176.05
-172.04
-169.61
-167.05
-162.58
-154.67
-142.31
-125.40
-104.91
-82.76
-61.48
-43.43
-30.26
-22.43
-19.20
-18.90
-19.52
-19.28
-17.16
-13.00
-7.45
-1.58
3.52
7.06
8.71
8.58
7.03
4.55
1.57
-1.48
-4.22
-6.30
-7.51
-7.73
-7.05
-5.71
-4.06
-2.43
-1.11
-0.27
-0.02
-0.36
-1.25
-2.56
-4.20
-6.13
-8.40
-11.08
-14.18
-17.45
-20.42
-22.46
-23.04
-22.02
-19.77
-17.03
-14.66
-13.30
-13.15
-14.00
-15.45
-17.12
-18.87
-20.76
-23.01
-25.75
-28.98
-32.34
-35.16
-36.48
-35.33
-31.06
-23.62
-13.72
-2.73
7.73
16.20
21.70
23.94
23.19
20.25
16.18
12.15
9.15
7.68
7.59
8.09
8.13
6.79
3.75
-0.64
-5.50
-9.85
-12.84
-13.94
-12.89
-9.69
-4.53
2.05
9.24
16.00
21.43
24.99
26.74
27.26
27.38
27.88
29.14
31.06
33.15
34.80
35.53
35.17
33.84
31.80
29.29
26.44
23.37
20.29
17.63
15.94
15.57
16.39
17.66
18.21
16.93
13.33
7.88
2.02
-2.37
-3.76
-1.61
3.38
9.56
15.01
18.39
19.28
18.16
15.90
13.25
10.43
7.20
3.06
-2.47
-9.67
-18.56
-28.62
-38.69
-46.84
-50.75
-48.46
-39.27
-24.33
-6.46
10.59
23.42
30.05
30.27
25.45
17.75
9.22
1.39
-5.02
-9.86
-13.34
-15.91
-18.10
-20.50
-23.54
-27.32
-31.33
-34.48
-35.39
-32.93
-26.71
-17.39
-6.51
3.94
12.22
17.20
18.68
17.20
13.84
9.89
6.55
4.74
4.86
6.75
9.84
13.33
16.53
19.01
20.62
21.32
20.97
19.30
15.95
10.76
3.89
-4.05
-12.11
-19.12
-23.99
-25.85
-24.31
-19.57
-12.44
-4.18
3.78
10.19
14.34
16.14
16.02
14.68
12.80
10.83
9.00
7.30
5.65
3.98
2.32
0.79
-0.44
-1.23
-1.58
-1.65
-1.70
-2.03
-2.90
-4.52
-7.03
-10.46
-14.68
-19.26
-23.51
-26.59
-27.74
-26.59
-23.27
-18.43
-13.01
-7.97
-4.05
-1.60
-0.55
-0.57
-1.13
-1.71
-1.86
-1.34
-0.15
1.57
3.47
5.17
6.28
6.51
5.80
4.34
2.54
0.96
0.10
0.17
1.00
2.15
3.03
3.19
2.50
1.19
-0.24
-1.19
-1.17
0.09
2.54
5.85
9.50
12.90
15.59
17.35
18.22
18.49
18.55
18.67
18.91
19.17
19.24
18.93
18.20
17.09
15.69
14.12
12.45
10.71
8.91
7.07
5.17
3.19
1.08
-1.17
-3.48
-5.71
-7.62
-8.96
-9.48
-8.95
-7.23
-4.26
-0.15
4.77
9.97
14.82
18.74
21.34
22.49
22.31
20.98
18.73
15.72
12.14
8.29
4.57
1.43
-0.80
-2.03
-2.41
-2.30
-2.09
-2.16
-2.84
-4.37
-6.82
-10.05
-13.52
-16.42
-17.82
-17.02
-13.87
-8.88
-3.08
2.27
6.07
7.67
7.02
4.64
1.43
-1.54
-3.33
-3.48
-2.14
-0.16
1.18
0.56
-2.81
-8.88
-16.61
-24.33
-30.28
-33.18
-32.72
-29.63
-25.46
-22.14
-21.40
-24.23
-30.55
-39.08
-47.67
-53.87
-55.73
-52.50
-44.88
-34.84
-24.80
-16.82
-11.78
-9.19
-7.57
-5.11
-0.50
6.59
15.49
24.89
33.43
40.15
44.61
46.78
46.72
44.44
39.86
33.07
24.51
15.10
6.14
-1.10
-5.64
-7.09
-5.70
-2.14
2.74
8.24
13.91
19.57
25.08
30.19
34.46
37.33
38.33
37.35
34.68
30.99
27.05
23.53
20.77
18.78
17.24
15.70
13.75
11.23
8.24
5.17
2.46
0.50
-0.59
-0.93
-0.82
-0.54
-0.27
-0.07
0.03
-0.06
-0.48
-1.36
-2.69
-4.26
-5.74
-6.83
-7.45
-7.80
-8.24
-9.14
-10.63
-12.52
-14.43
-15.92
-16.77
-16.99
-16.82
-16.57
-16.40
-16.34
-16.21
-15.85
-15.14
-14.15
-13.04
-12.06
-11.41
-11.19
-11.38
-11.85
-12.36
-12.71
-12.74
-12.43
-11.95
-11.51
-11.27
-11.16
-10.77
-9.47
-6.71
-2.31
3.38
9.46
14.84
18.62
20.42
20.46
19.37
17.83
16.27
14.76
13.07
10.97
8.39
5.45
2.44
-0.35
-2.60
-3.98
-4.07
-2.42
1.22
6.71
13.30
19.73
24.56
26.62
25.37
21.06
14.61
7.39
0.95
-3.31
-4.35
-1.70
4.32
12.67
21.71
29.64
34.93
36.73
35.17
31.23
26.45
22.39
20.06
19.64
20.46
21.30
20.95
18.65
14.42
9.02
3.62
-0.51
-2.41
-1.59
1.92
7.60
14.53
21.58
27.61
31.71
33.46
33.00
30.94
28.09
25.19
22.67
20.62
18.89
17.25
15.52
13.60
11.48
9.23
6.98
4.93
3.37
2.47
2.27
2.60
3.20
3.88
4.62
5.59
7.03
9.10
11.75
14.73
17.67
20.23
22.20
23.50
24.13
24.17
23.70
22.84
21.75
20.65
19.81
19.48
19.87
21.07
23.02
25.55
28.34
31.07
33.43
35.18
36.09
35.99
34.77
32.37
28.92
24.68
19.97
15.11
10.21
5.09
-0.72
-7.81
-16.71
-27.58
-40.04
-53.09
-65.39
-75.57
-82.63
-86.27
-86.85
-85.28
-82.63
-79.82
-77.39
-75.50
-74.03
-72.76
-71.45
-69.87
-67.79
-64.95
-61.12
-56.27
-50.60
-44.60
-38.85
-33.86
-29.85
-26.68
-23.96
-21.21
-18.11
-14.55
-10.65
-6.67
-2.94
0.25
2.72
4.38
5.33
5.74
5.83
5.76
5.60
5.29
4.73
3.77
2.37
0.55
-1.49
-3.39
-4.73
-5.10
-4.28
-2.31
0.44
3.43
6.12
8.13
9.28
9.60
9.23
8.32
7.08
5.76
4.61
3.88
3.74
4.21
5.18
6.39
7.52
8.18
8.05
6.95
4.86
2.06
-1.04
-3.93
-6.24
-7.84
-8.86
-9.63
-10.43
-11.39
-12.37
-13.02
-12.99
-12.09
-10.44
-8.43
-6.62
-5.44
-5.03
-5.18
-5.43
-5.29
-4.48
-3.01
-1.17
0.65
2.14
3.11
3.60
3.66
3.31
2.53
1.27
-0.39
-2.22
-3.91
-5.18
-5.90
-6.16
-6.28
-6.61
-7.43
-8.75
-10.34
-11.78
-12.63
-12.55
-11.43
-9.42
-6.92
-4.45
-2.47
-1.30
-0.94
-1.18
-1.62
-1.85
-1.58
-0.66
0.92
3.17
6.11
9.77
13.96
18.22
21.82
24.06
24.61
23.72
22.19
21.08
21.24
23.03
26.31
30.49
34.79
38.36
40.27
39.67
35.92
28.84
18.94
7.33
-4.48
-15.00
-23.17
-28.58
-31.43
-32.36
-32.12
-31.43
-30.76
-30.27
-29.99
-29.79
-29.52
-29.04
-28.16
-26.59
-23.94
-19.88
-14.43
-8.12
-2.03
2.51
4.55
4.02
1.92
-0.09
-0.50
1.24
4.39
7.24
8.08
6.07
1.71
-3.47
-7.73
-9.95
-10.01
-8.52
-6.22
-3.44
0.01
4.55
10.27
16.70
22.79
27.44
29.93
30.29
29.18
27.55
26.25
25.85
26.73
29.37
34.45
42.64
54.19
68.45
83.79
97.90
108.50
114.06
114.26
110.00
103.00
95.24
88.35
83.23
79.78
76.79
72.11
63.18
47.91
25.76
-1.59
-30.39
-55.85
-73.77
-81.97
-80.95
-73.45
-63.29
-53.98
-47.72
-45.13
-45.50
-47.29
-48.69
-48.06
-44.51
-38.44
-31.92
-28.47
-32.07
-45.54
-69.05
-99.39
-130.74
-156.65
-172.42
-176.75
-172.01
-162.87
-154.17
-149.14
-148.67
-151.74
-156.59
-161.78
-166.64
-171.10
-175.12
-178.26
-179.72
-178.66
-174.61
-167.59
-157.94
-145.82
-130.73
-111.56
-87.07
-56.67
-20.89
18.71
60.10
101.46
141.38
178.53
211.08
236.50
252.01
255.72
247.72
230.35
207.66
184.01
162.79
145.67
132.74
123.09
115.53
108.82
101.76
93.19
82.24
68.55
52.68
36.18
21.19
9.78
3.28
1.77
4.10
8.19
11.68
12.57
9.79
3.41
-5.41
-14.73
-22.41
-26.59
-26.25
-21.50
-13.70
-5.11
1.66
4.54
2.66
-3.25
-11.18
-18.58
-23.28
-24.27
-21.76
-16.92
-11.25
-6.06
-2.17
0.06
0.73
0.31
-0.31
0.10
2.89
9.15
19.31
32.83
48.23
63.47
76.46
85.64
90.24
90.35
86.68
80.40
73.08
66.65
63.17
64.27
70.45
80.51
91.72
100.75
104.90
103.23
96.78
87.87
78.87
71.24
65.17
59.97
54.75
49.05
42.94
36.81
31.04
25.87
21.44
17.77
14.88
12.63
10.72
8.69
6.18
3.16
0.04
-2.46
-3.58
-2.91
-0.66
2.32
4.82
5.61
3.86
-0.60
-7.09
-14.12
-19.60
-21.37
-17.80
-8.59
4.87
19.61
31.82
38.16
36.84
28.27
14.85
-0.02
-13.18
-22.67
-28.04
-30.13
-30.43
-30.54
-32.13
-36.92
-46.83
-63.36
-86.65
-114.60
-142.87
-165.95
-179.22
-180.82
-172.45
-158.63
-144.65
-134.44
-129.13
-127.21
-125.81
-122.25
-115.17
-104.77
-92.35
-79.67
-68.56
-60.74
-57.60
-59.73
-66.29
-74.68
-80.72
-79.93
-69.13
-47.89
-18.93
12.76
41.70
63.64
76.73
81.43
79.68
73.74
65.43
55.76
45.11
33.44
20.46
5.66
-11.48
-31.18
-52.65
-73.56
-90.05
-97.51
-92.19
-72.87
-41.83
-4.43
32.53
63.01
83.50
93.35
94.16
88.34
78.17
65.30
51.01
36.47
22.75
10.52
-0.31
-10.48
-20.83
-31.70
-42.45
-51.69
-57.83
-59.78
-57.31
-51.09
-42.41
-32.83
-24.02
-17.55
-14.57
-15.55
-19.81
-25.42
-29.48
-28.91
-21.37
-6.08
16.02
42.56
70.48
96.66
118.25
132.72
137.98
132.77
117.19
93.03
63.56
32.77
4.31
-19.09
-35.88
-45.40
-47.48
-42.45
-31.30
-15.85
1.34
17.54
30.52
39.15
43.50
44.64
44.26
44.24
46.46
52.43
63.08
78.48
97.42
117.05
132.97
140.09
134.13
113.41
80.02
39.56
-0.48
-33.22
-54.54
-63.98
-64.08
-58.72
-51.37
-44.20
-38.08
-33.16
-29.63
-27.86
-28.28
-30.92
-35.23
-40.09
-44.27
-46.91
-47.87
-47.83
-47.76
-48.48
-50.13
-52.16
-53.57
-53.42
-51.33
-47.65
-43.37
-39.76
-37.83
-37.96
-39.73
-42.04
-43.59
-43.34
-40.84
-36.33
-30.43
-23.89
-17.25
-10.85
-4.91
0.37
4.80
8.36
11.34
14.40
18.34
23.70
30.45
37.87
44.79
50.07
53.20
54.51
55.11
56.41
59.43
64.34
70.33
75.87
79.28
79.32
75.58
68.45
58.87
48.00
36.85
26.18
16.54
8.29
1.65
-3.36
-6.96
-9.55
-11.51
-13.07
-14.20
-14.68
-14.34
-13.28
-11.92
-10.84
-10.57
-11.38
-13.19
-15.70
-18.50
-21.23
-23.63
-25.51
-26.73
-27.20
-26.89
-25.92
-24.49
-22.93
-21.59
-20.81
-20.75
-21.39
-22.45
-23.51
-24.04
-23.53
-21.59
-17.99
-12.70
-6.03
1.33
8.32
13.68
16.32
15.64
11.88
6.01
-0.52
-6.28
-10.28
-12.23
-12.43
-11.61
-10.45
-9.38
-8.42
-7.23
-5.25
-1.95
2.90
9.03
15.69
21.79
26.20
28.21
27.73
25.38
22.22
19.39
17.69
17.48
18.59
20.55
22.79
24.74
25.97
26.21
25.40
23.80
21.83
19.94
18.28
16.53
13.85
9.24
2.09
-7.31
-17.63
-26.90
-33.28
-35.82
-34.74
-31.12
-26.27
-21.05
-15.69
-10.09
-4.29
1.14
5.15
6.66
5.03
0.44
-6.13
-13.23
-19.40
-23.61
-25.45
-25.37
-24.41
-24.02
-25.58
-29.99
-37.39
-46.85
-56.55
-63.91
-66.22
-61.33
-48.45
-28.49
-3.94
21.80
45.35
64.26
77.57
85.81
90.47
93.26
95.36
96.97
97.32
95.15
89.40
79.93
67.75
54.81
43.25
34.59
29.27
26.54
24.92
22.79
18.90
12.64
4.09
-6.07
-16.80
-26.98
-35.63
-42.06
-45.87
-46.87
-45.04
-40.53
-33.86
-25.88
-17.73
-10.50
-4.77
-0.47
3.11
6.92
11.60
17.19
23.18
28.84
33.55
36.83
38.04
36.30
30.58
20.22
5.52
-11.98
-29.83
-45.47
-57.03
-63.76
-65.89
-64.10
-59.03
-51.21
-41.17
-29.89
-18.76
-9.38
-2.99
-0.01
0.06
-1.56
-3.48
-4.71
-5.10
-5.29
-6.42
-9.51
-14.88
-21.95
-29.34
-35.48
-39.19
-40.18
-39.33
-38.39
-39.53
-44.56
-54.27
-67.85
-82.79
-95.16
-100.54
-95.29
-77.79
-49.29
-13.75
23.16
55.73
79.67
93.02
96.04
90.53
78.83
63.22
45.62
27.78
11.36
-2.18
-11.83
-17.24
-18.78
-17.18
-13.35
-8.18
-2.47
3.01
7.73
11.49
14.49
17.20
20.07
23.26
26.49
29.24
31.04
31.72
31.48
30.68
29.68
28.57
27.26
25.58
23.34
20.43
16.79
12.38
7.16
1.11
-5.63
-12.65
-19.22
-24.26
-26.66
-25.58
-20.91
-13.45
-4.80
2.99
8.05
9.22
6.34
0.10
-8.21
-17.19
-25.78
-33.43
-40.19
-46.41
-52.48
-58.48
-64.12
-68.90
-72.46
-74.88
-76.75
-79.03
-82.61
-88.00
-95.07
-103.11
-110.62
-115.33
-114.12
-103.57
-81.08
-46.31
-2.07
45.85
90.32
125.27
147.61
157.94
159.58
156.67
152.43
148.36
144.56
140.69
136.61
132.58
128.78
124.98
120.49
114.47
106.54
96.94
86.57
76.56
67.80
60.64
54.83
49.67
44.34
38.21
31.07
23.22
15.33
8.19
2.42
-1.80
-4.79
-7.20
-9.70
-12.68
-16.10
-19.57
-22.54
-24.60
-25.61
-25.73
-25.35
-24.85
-24.49
-24.30
-24.17
-23.93
-23.44
-22.66
-21.61
-20.37
-18.97
-17.43
-15.81
-14.14
-12.48
-10.87
-9.32
-7.88
-6.59
-5.56
-4.82
-4.32
-3.88
-3.20
-2.02
-0.20
2.21
4.97
7.77
10.31
12.40
13.95
15.04
15.85
16.66
17.80
19.53
21.97
25.03
28.44
31.76
34.45
36.00
36.07
34.69
32.32
29.78
27.96
27.46
28.22
29.53
30.24
29.28
26.00
20.39
12.98
4.49
-4.40
-13.18
-21.36
-28.44
-33.91
-37.47
-39.22
-39.75
-40.02
-40.94
-43.08
-46.47
-50.70
-55.15
-59.28
-62.72
-65.26
-66.86
-67.54
-67.39
-66.54
-65.17
-63.47
-61.59
-59.70
-57.94
-56.46
-55.26
-54.22
-53.03
-51.34
-48.83
-45.44
-41.49
-37.65
-34.85
-33.96
-35.44
-39.05
-43.83
-48.30
-50.97
-50.81
-47.59
-41.89
-34.81
-27.60
-21.30
-16.58
-13.75
-12.81
-13.55
-15.57
-18.45
-21.81
-25.37
-28.91
-32.19
-34.88
-36.52
-36.69
-35.09
-31.70
-26.75
-20.61
-13.74
-6.61
0.28
6.35
11.13
14.49
16.85
19.15
22.50
27.65
34.61
42.51
49.98
55.77
59.19
60.30
59.69
58.03
55.78
52.98
49.42
44.80
38.97
32.03
24.37
16.60
9.40
3.30
-1.47
-5.09
-8.08
-10.98
-14.25
-18.10
-22.58
-27.65
-33.29
-39.40
-45.73
-51.91
-57.52
-62.33
-66.36
-69.76
-72.51
-74.11
-73.56
-69.63
-61.41
-48.89
-33.06
-15.79
0.82
14.98
25.60
32.48
36.09
37.43
37.70
38.14
39.76
43.13
48.24
54.47
60.80
66.15
69.67
71.00
70.20
67.73
64.24
60.47
57.17
54.95
54.20
54.88
56.51
58.20
58.96
57.98
55.02
50.46
45.22
40.36
36.74
34.64
33.64
32.87
31.28
28.03
22.76
15.63
7.33
-1.18
-8.85
-14.79
-18.49
-20.00
-19.88
-19.11
-18.79
-19.85
-22.78
-27.55
-33.61
-40.04
-45.81
-50.00
-52.03
-51.68
-49.14
-44.85
-39.46
-33.62
-27.93
-22.92
-19.02
-16.54
-15.63
-16.20
-17.84
-19.86
-21.46
-21.90
-20.77
-18.12
-14.44
-10.59
-7.50
-5.90
-6.22
-8.46
-12.19
-16.70
-21.09
-24.46
-26.09
-25.65
-23.22
-19.29
-14.56
-9.75
-5.41
-1.77
1.29
4.07
6.94
10.13
13.65
17.35
21.05
24.59
27.96
31.18
34.24
37.00
39.21
40.63
41.12
40.77
39.82
38.55
37.15
35.65
33.96
31.96
29.59
26.97
24.29
21.76
19.54
17.62
15.95
14.49
13.25
12.35
11.93
12.04
12.57
13.30
13.98
14.44
14.65
14.66
14.55
14.31
13.84
12.95
11.57
9.76
7.77
5.92
4.52
3.75
3.53
3.55
3.38
2.61
1.01
-1.32
-4.07
-6.76
-8.96
-10.48
-11.33
-11.69
-11.74
-11.54
-11.03
-9.97
-7.98
-4.56
0.82
8.41
17.85
28.00
37.01
42.96
44.51
41.50
35.00
26.84
18.93
12.58
8.34
6.11
5.61
6.63
9.14
13.06
18.03
23.33
27.95
30.96
31.76
30.33
27.24
23.45
19.99
17.64
16.71
17.06
18.32
20.14
22.33
24.74
26.97
28.18
27.05
22.23
12.86
-0.99
-18.16
-36.67
-54.38
-69.53
-81.20
-89.28
-94.21
-96.57
-96.81
-95.18
-91.82
-86.89
-80.78
-74.06
-67.45
-61.71
-57.56
-55.73
-56.79
-60.95
-67.64
-75.29
-81.50
-83.72
-80.28
-71.14
-58.07
-43.96
-31.56
-22.42
-16.45
-12.29
-8.24
-3.18
3.09
10.01
16.87
23.24
29.05
34.34
38.90
42.08
43.09
41.45
37.40
31.98
26.66
22.79
20.98
20.94
21.65
21.92
20.97
18.73
15.87
13.35
11.94
11.82
12.64
13.73
14.57
15.04
15.40
16.02
17.06
18.30
19.26
19.46
18.67
16.87
14.01
9.81
3.81
-4.38
-14.49
-25.50
-35.75
-43.57
-47.99
-49.21
-48.39
-47.14
-46.76
-47.73
-49.81
-52.51
-55.70
-59.94
-66.26
-75.56
-87.97
-102.68
-118.24
-133.15
-146.16
-156.22
-162.06
-162.08
-154.80
-139.78
-118.54
-94.65
-72.91
-57.41
-50.11
-50.16
-54.76
-60.68
-65.79
-69.31
-71.33
-71.87
-70.22
-65.29
-56.75
-46.32
-37.97
-36.63
-45.65
-64.37
-87.35
-105.92
-111.52
-99.10
-68.87
-25.65
23.52
72.12
115.86
152.60
181.42
201.51
211.98
212.41
203.57
187.67
167.72
146.70
126.75
109.06
93.82
80.86
69.99
61.29
55.19
52.22
52.65
56.17
61.69
67.67
72.50
75.03
74.80
72.07
67.53
62.03
56.32
51.01
46.51
43.04
40.60
38.88
37.44
35.79
33.68
31.16
28.60
26.43
24.95
24.15
23.70
23.16
22.20
20.70
18.81
16.78
14.86
13.18
11.78
10.66
9.90
9.59
9.88
10.84
12.40
14.36
16.42
18.25
19.56
20.14
19.92
19.08
18.04
17.44
17.92
19.86
23.20
27.33
31.30
34.04
34.77
33.18
29.54
24.58
19.16
14.13
10.05
7.14
5.37
4.52
4.32
4.51
4.86
5.20
5.40
5.43
5.29
4.92
4.22
3.02
1.21
-1.10
-3.50
-5.42
-6.42
-6.42
-5.86
-5.48
-5.93
-7.41
-9.47
-11.17
-11.51
-9.85
-6.15
-0.94
4.98
10.81
15.96
19.98
22.54
23.35
22.35
19.81
16.43
13.09
10.62
9.45
9.47
10.23
11.22
12.16
13.09
14.25
15.87
17.97
20.45
23.04
25.49
27.50
28.76
28.94
27.80
25.29
21.66
17.42
13.22
9.69
7.27
6.15
6.21
7.15
8.55
9.96
11.03
11.59
11.70
11.62
11.71
12.30
13.58
15.50
17.81
20.12
22.01
23.12
23.20
22.24
20.39
18.03
15.64
13.66
12.38
11.83
11.73
11.50
10.43
7.76
2.99
-3.80
-11.83
-19.54
-25.02
-26.61
-23.53
-16.23
-6.33
3.95
12.46
17.67
18.87
16.16
10.14
1.76
-7.79
-17.20
-25.22
-31.01
-34.39
-35.96
-36.92
-38.57
-41.80
-46.72
-52.59
-58.04
-61.58
-62.02
-58.93
-52.73
-44.59
-36.03
-28.53
-23.08
-20.04
-19.18
-19.91
-21.54
-23.42
-24.98
-25.67
-24.98
-22.58
-18.51
-13.24
-7.64
-2.72
0.71
2.24
1.93
0.16
-2.58
-5.84
-9.28
-12.59
-15.42
-17.32
-17.88
-16.86
-14.35
-10.78
-6.85
-3.35
-0.89
0.30
0.35
-0.24
-0.81
-0.75
0.32
2.47
5.45
8.78
11.89
14.30
15.70
15.99
15.24
13.66
11.54
9.23
7.15
5.68
5.08
5.42
6.50
7.92
9.26
10.15
10.45
10.19
9.49
8.44
7.15
5.75
4.53
3.94
4.47
6.42
9.67
13.67
17.53
20.37
21.52
20.69
17.92
13.55
8.05
2.04
-3.75
-8.52
-11.54
-12.38
-11.01
-7.87
-3.72
0.54
4.09
6.35
7.00
6.00
3.57
0.14
-3.64
-7.09
-9.66
-11.09
-11.53
-11.49
-11.68
-12.75
-15.02
-18.40
-22.38
-26.24
-29.22
-30.85
-30.98
-29.85
-27.94
-25.87
-24.09
-22.83
-22.01
-21.37
-20.61
-19.55
-18.26
-16.99
-16.13
-15.95
-16.61
-17.94
-19.58
-21.05
-21.84
-21.56
-20.02
-17.24
-13.47
-9.15
-4.83
-1.06
1.70
3.20
3.43
2.66
1.35
0.00
-0.99
-1.43
-1.35
-0.88
-0.17
0.68
1.62
2.59
3.47
4.06
4.17
3.67
2.59
1.04
-0.80
-2.72
-4.60
-6.56
-8.66
-10.80
-12.83
-14.59
-15.99
-17.06
-17.83
-18.35
-18.83
-19.26
-19.40
-18.90
-17.47
-15.00
-11.72
-8.00
-4.52
-2.30
-1.88
-2.95
-4.78
-6.35
-6.89
-6.15
-4.03
-1.04
1.04
1.19
-0.24
-2.29
-3.72
-3.55
-1.53
2.72
8.53
12.54
12.75
9.64
4.88
0.88
-0.21
2.68
10.55
22.46
32.92
38.07
37.45
31.88
23.24
14.45
9.52
15.18
37.00
73.21
119.79
171.28
219.59
257.34
281.40
279.31
248.07
217.05
198.60
185.89
173.44
156.60
133.62
105.78
75.76
46.66
18.47
-15.02
-57.52
-107.47
-161.23
-214.06
-261.44
-294.53
-303.54
-284.91
-247.17
-202.35
-159.52
-124.11
-98.08
-81.01
-71.17
-66.43
-65.33
-68.32
-73.77
-77.75
-76.70
-68.69
-54.94
-36.79
-17.23
0.02
11.06
14.58
11.94
5.44
-2.58
-10.36
-16.56
-20.70
-22.67
-22.51
-19.71
-13.45
-3.49
9.76
24.55
38.67
49.83
56.60
58.84
57.65
54.73
51.60
49.14
47.48
46.40
45.34
43.82
41.63
38.86
35.70
32.27
28.53
24.37
19.99
15.90
12.84
11.51
12.15
14.33
17.06
19.13
19.70
18.69
16.76
14.98
14.25
14.91
16.64
18.71
20.36
21.14
21.03
20.28
19.19
17.88
16.34
14.52
12.45
10.37
8.60
7.42
6.90
6.89
7.04
6.95
6.33
5.12
3.52
1.84
0.28
-1.23
-3.03
-5.60
-9.23
-13.92
-19.28
-24.79
-30.08
-35.00
-39.66
-44.12
-48.31
-52.12
-55.70
-59.82
-65.73
-74.68
-87.14
-102.32
-118.24
-132.44
-142.80
-148.14
-148.24
-143.40
-134.03
-120.47
-103.28
-83.51
-62.83
-43.09
-25.75
-11.34
0.50
10.71
20.27
29.87
