1514901954.00
64.000000
-0.00
-0.00
-0.00
-0.00
-0.00
-0.00
-0.00
-0.00
-0.00
-0.00
0.00
0.01
0.01
-0.00
-0.03
-0.05
-0.05
0.00
0.13
0.36
0.66
1.01
1.37
1.72
2.06
2.40
2.79
3.24
3.80
4.42
5.06
5.66
6.20
6.68
7.15
7.68
8.31
9.14
10.09
11.04
11.88
12.56
13.14
13.76
14.65
15.96
17.91
20.32
22.90
25.38
27.58
29.57
31.68
34.32
37.81
42.54
48.15
54.10
59.83
64.97
69.58
74.14
79.34
85.71
93.76
103.00
112.62
121.73
129.77
136.75
143.30
150.75
157.77
166.64
177.95
191.79
206.97
220.57
228.25
225.36
208.53
176.87
132.76
80.05
23.07
-34.94
-92.44
-149.16
-205.23
-260.37
-313.74
-363.87
-409.83
-450.91
-486.50
-515.74
-537.23
-549.22
-549.96
-538.37
-514.21
-478.67
-433.88
-382.45
-327.02
-269.84
-212.63
-156.66
-102.95
-52.37
-5.90
35.58
71.43
101.35
125.50
144.38
158.69
169.15
176.37
180.75
182.57
182.07
179.51
175.23
169.65
163.18
156.15
148.81
141.30
133.69
126.02
118.33
110.69
103.16
95.80
88.69
81.83
75.25
68.95
62.95
57.24
51.86
46.79
42.05
37.61
33.48
29.61
26.01
22.67
19.62
16.85
14.37
12.18
10.25
8.55
7.04
5.71
4.53
3.53
2.70
2.04
1.54
1.13
0.77
0.41
0.04
-0.34
-0.66
-0.90
-1.01
-1.01
-0.98
-1.03
-1.24
-1.64
-2.15
-2.66
-3.02
-3.12
-3.02
-2.85
-2.85
-3.19
-3.94
-4.95
-5.96
-6.68
-6.94
-6.80
-6.54
-6.54
-7.09
-8.28
-9.88
-11.47
-12.63
-13.16
-13.12
-12.83
-12.69
-13.03
-14.02
-15.75
-18.24
-21.23
-24.01
-25.34
-23.82
-18.45
-9.38
1.97
13.33
22.45
28.05
30.20
30.07
29.09
28.23
27.59
26.74
25.27
23.24
21.28
20.16
20.29
21.50
23.15
24.49
25.12
25.10
24.84
24.81
25.12
25.51
25.45
24.47
22.39
19.50
16.38
13.41
10.75
8.26
5.50
2.07
-2.19
-7.00
-11.69
-15.47
-17.73
-18.33
-17.66
-16.39
-15.19
-14.42
-14.13
-14.11
-14.09
-13.90
-13.50
-12.90
-12.15
-11.30
-10.40
-9.48
-8.64
-7.96
-7.49
-7.22
-7.14
-7.19
-7.33
-7.43
-7.33
-6.95
-6.38
-5.81
-5.52
-5.73
-6.43
-7.48
-8.50
-9.07
-8.86
-7.72
-5.84
-3.59
-1.61
-0.46
-0.48
-1.58
-3.29
-4.95
-5.95
-6.00
-5.16
-3.84
-2.49
-1.44
-0.78
-0.42
-0.17
0.17
0.48
0.74
0.94
1.12
1.36
1.78
2.47
3.37
4.31
5.02
5.39
5.43
5.40
5.66
6.58
8.29
10.63
13.14
15.19
16.19
15.77
13.97
11.19
8.18
5.67
4.19
3.90
4.55
5.74
7.09
8.40
9.65
10.91
12.17
13.32
14.13
14.43
14.12
13.22
11.88
10.25
8.52
6.88
5.43
4.27
3.43
2.97
2.92
3.30
4.05
5.02
5.98
6.73
7.14
7.22
7.14
7.12
7.39
8.07
9.10
10.20
10.96
10.98
10.05
8.30
6.13
4.03
2.25
0.71
-0.97
-3.18
-6.03
-9.18
-12.01
-13.89
-14.57
-14.22
-13.35
-12.46
-11.85
-11.47
-11.07
-10.40
-9.48
-8.50
-7.82
-7.66
-8.01
-8.59
-9.03
-9.10
-8.80
-8.36
-8.06
-8.09
-8.41
-8.82
-9.10
-9.20
-9.26
-9.51
-10.22
-11.46
-13.18
-15.24
-17.44
-19.50
-21.06
-21.68
-21.01
-19.00
-15.95
-12.54
-9.53
-7.45
-6.36
-5.85
-5.28
-4.09
-2.10
0.39
2.78
4.45
5.06
4.72
3.87
3.13
2.99
3.59
4.73
5.92
6.78
7.16
7.27
7.49
8.11
9.15
10.24
10.87
10.59
9.36
7.55
5.79
4.68
4.52
5.14
6.05
6.68
6.64
5.79
4.25
2.25
0.14
-1.73
-3.02
-3.57
-3.42
-2.90
-2.55
-2.83
-3.86
-5.38
-6.88
-7.82
-8.00
-7.52
-6.77
-6.12
-5.78
-5.72
-5.78
-5.75
-5.51
-5.08
-4.55
-4.08
-3.80
-3.71
-3.70
-3.58
-3.17
-2.47
-1.62
-0.95
-0.76
-1.21
-2.20
-3.42
-4.46
-5.00
-4.97
-4.52
-4.03
-3.92
-4.54
-6.00
-8.12
-10.41
-12.22
-12.89
-12.03
-9.70
-6.43
-3.03
-0.30
1.33
1.89
1.79
1.56
1.58
1.90
2.32
2.62
2.72
2.70
2.79
3.10
3.62
4.14
4.44
4.47
4.38
4.45
4.93
5.86
7.01
7.97
8.41
8.13
7.23
5.97
4.70
3.66
2.92
2.40
1.84
0.95
-0.55
-2.75
-5.45
-8.14
-10.15
-10.85
-9.99
-7.79
-4.92
-2.26
-0.50
0.03
-0.46
-1.43
-2.22
-2.37
-1.75
-0.59
0.74
1.86
2.58
2.85
2.76
2.40
1.85
1.15
0.39
-0.34
-0.96
-1.43
-1.84
-2.36
-3.16
-4.37
-5.92
-7.66
-9.33
-10.72
-11.74
-12.38
-12.80
-13.25
-13.96
-15.03
-16.26
-17.11
-16.86
-14.91
-11.13
-6.00
-0.52
4.22
7.50
9.24
9.92
10.31
11.02
12.25
13.80
15.28
16.34
16.85
16.90
16.70
16.46
16.25
16.04
15.78
15.39
14.90
14.39
13.93
13.54
13.12
12.57
11.78
10.78
9.72
8.79
8.14
7.77
7.54
7.22
6.56
5.42
3.84
2.10
0.68
0.08
0.68
2.43
4.90
7.33
9.01
9.53
8.98
7.84
6.72
6.06
5.94
6.18
6.45
6.52
6.34
6.01
5.66
5.38
5.18
5.03
4.93
4.85
4.82
4.79
4.74
4.58
4.22
3.58
2.61
1.35
-0.04
-1.22
-1.83
-1.57
-0.44
1.18
2.63
3.14
2.19
-0.17
-3.31
-6.20
-7.88
-7.80
-6.08
-3.40
-0.72
1.12
1.70
1.04
-0.49
-2.43
-4.43
-6.28
-7.93
-9.37
-10.55
-11.42
-11.90
-11.98
-11.69
-11.20
-10.70
-10.33
-10.14
-10.04
-9.86
-9.41
-8.64
-7.68
-6.82
-6.41
-6.66
-7.56
-8.77
-9.84
-10.31
-10.02
-9.15
-8.21
-7.86
-8.69
-10.98
-14.51
-18.58
-22.13
-24.05
-23.61
-20.79
-16.34
-11.57
-7.84
-6.06
-6.29
-7.82
-9.45
-10.03
-8.98
-6.46
-3.35
-0.84
0.06
-1.09
-3.97
-7.65
-10.98
-12.94
-12.96
-11.04
-7.74
-4.30
-2.50
-4.20
-10.61
-21.50
-34.82
-47.21
-55.30
-57.23
-53.54
-46.93
-40.90
-38.16
-39.40
-43.23
-46.87
-47.33
-42.33
-30.82
-13.04
9.56
34.70
59.61
81.60
98.66
109.77
114.94
114.99
111.20
104.94
97.57
90.32
84.11
79.35
75.78
72.68
69.15
64.56
58.83
52.51
46.40
41.22
37.24
34.26
31.76
29.22
26.26
22.79
18.88
14.69
10.31
5.82
1.30
-3.12
-7.29
-11.15
-14.78
-18.32
-21.82
-25.02
-27.36
-28.15
-26.93
-23.84
-19.64
-15.52
-12.63
-11.58
-12.26
-13.99
-15.86
-17.20
-17.76
-17.69
-17.32
-16.90
-16.43
-15.76
-14.66
-13.03
-10.96
-8.71
-6.61
-4.91
-3.79
-3.29
-3.36
-3.88
-4.68
-5.57
-6.39
-7.06
-7.58
-8.08
-8.73
-9.71
-11.13
-12.96
-14.99
-16.73
-17.58
-16.99
-14.77
-11.19
-7.02
-3.20
-0.52
0.75
0.88
0.49
0.22
0.40
0.98
1.61
1.92
1.69
0.99
0.15
-0.42
-0.45
0.09
0.96
1.79
2.29
2.38
2.26
2.24
2.54
3.13
3.71
3.90
3.39
2.11
0.22
-2.02
-4.28
-6.23
-7.56
-7.94
-7.14
-5.18
-2.42
0.48
2.80
4.01
4.06
3.30
2.33
1.65
1.48
1.70
2.01
2.14
1.98
1.62
1.21
0.84
0.45
-0.12
-1.07
-2.48
-4.20
-5.93
-7.25
-7.88
-7.80
-7.32
-6.99
-7.35
-8.72
-11.01
-13.70
-15.96
-17.03
-16.40
-14.12
-10.75
-7.19
-4.35
-2.85
-2.93
-4.39
-6.84
-9.65
-12.01
-13.08
-12.14
-8.98
-4.10
1.37
6.02
8.80
9.40
8.30
6.40
4.57
3.26
2.52
2.12
1.91
1.79
1.75
1.66
1.26
0.27
-1.51
-4.03
-6.91
-9.51
-11.10
-11.10
-9.36
-6.24
-2.52
0.89
3.30
4.57
5.02
5.25
5.77
6.70
7.80
8.62
8.83
8.44
7.86
7.60
8.06
9.23
10.72
11.94
12.42
12.06
11.12
10.04
9.17
8.60
8.20
7.64
6.62
4.94
2.55
-0.46
-3.91
-7.50
-10.83
-13.49
-15.10
-15.46
-14.57
-12.69
-10.23
-7.67
-5.42
-3.73
-2.60
-1.84
-1.20
-0.51
0.27
1.00
1.50
1.66
1.46
0.95
0.19
-0.80
-1.96
-3.23
-4.43
-5.42
-6.05
-6.34
-6.37
-6.28
-6.17
-6.13
-6.22
-6.54
-7.19
-8.22
-9.60
-11.12
-12.51
-13.48
-13.83
-13.45
-12.40
-10.87
-9.13
-7.45
-6.07
-5.10
-4.59
-4.55
-5.07
-6.39
-8.76
-12.35
-17.09
-22.61
-28.33
-33.71
-38.47
-42.74
-46.99
-51.85
-57.82
-65.11
-73.57
-82.73
-91.97
-100.79
-109.03
-117.08
-126.08
-137.73
-153.79
-175.19
-201.22
-229.04
-254.14
-271.41
-276.63
-267.58
-244.55
-209.97
-167.61
-121.53
-75.39
-31.89
7.41
41.99
72.21
98.97
123.32
146.07
167.66
188.07
206.96
223.72
237.59
247.61
252.95
253.10
248.23
239.30
227.84
215.53
203.68
192.98
183.37
174.32
165.23
155.68
145.63
135.28
124.90
114.63
104.54
94.64
85.07
76.08
67.94
60.83
54.67
49.20
44.01
38.71
33.09
27.17
21.21
15.59
10.65
6.60
3.42
0.91
-1.21
-3.15
-4.99
-6.66
-7.99
-8.91
-9.49
-9.90
-10.31
-10.77
-11.19
-11.44
-11.39
-11.06
-10.57
-10.05
-9.54
-9.01
-8.40
-7.65
-6.80
-5.86
-4.73
-3.21
-1.06
1.80
5.26
9.02
12.73
16.26
19.73
23.44
27.70
32.61
37.99
43.46
48.67
53.46
57.94
62.41
67.26
72.81
79.20
86.43
94.30
102.48
110.44
117.65
123.68
128.45
132.32
136.05
140.51
146.31
153.47
161.25
168.16
172.33
171.87
165.54
153.05
135.30
114.03
91.39
69.18
48.53
29.74
12.48
-3.76
-19.41
-34.69
-49.64
-64.29
-78.63
-92.56
-105.79
-117.82
-128.01
-135.78
-140.79
-143.00
-142.67
-140.28
-136.41
-131.63
-126.45
-121.21
-116.11
-111.21
-106.36
-101.33
-95.84
-89.76
-83.25
-76.88
-71.50
-67.96
-66.60
-66.93
-67.41
-65.88
-60.27
-49.52
-34.34
-17.20
-1.77
8.37
10.88
5.38
-6.55
-21.97
-37.53
-50.36
-58.57
-61.61
-60.31
-56.64
-53.17
-52.47
-56.21
-64.58
-76.11
-88.04
-97.37
-101.77
-100.30
-93.59
-83.42
-72.12
-61.88
-54.37
-50.48
-50.37
-53.56
-59.08
-65.71
-72.21
-77.49
-80.87
-81.93
-80.39
-75.87
-67.85
-55.75
-39.31
-18.84
4.67
29.76
54.76
78.11
98.34
113.89
123.12
124.44
116.92
100.82
77.86
50.92
23.24
-2.47
-24.65
-42.98
-57.88
-69.90
-79.17
-85.41
-88.31
-87.88
-84.77
-80.10
-75.06
-70.51
-66.75
-63.60
-60.69
-57.77
-54.82
-51.99
-49.42
-47.11
-44.92
-42.64
-40.13
-37.32
-34.22
-30.89
-27.41
-23.82
-20.19
-16.55
-12.94
-9.38
-5.91
-2.55
0.66
3.74
6.68
9.47
12.00
14.16
15.82
16.97
17.74
18.35
19.00
19.81
20.75
21.67
22.42
22.88
23.02
22.88
22.47
21.83
20.98
20.03
19.11
18.39
18.02
17.97
18.11
18.19
17.99
17.45
16.70
15.99
15.57
15.52
15.78
16.14
16.40
16.44
16.33
16.25
16.37
16.75
17.26
17.72
17.95
17.90
17.75
17.75
18.14
18.97
19.95
20.63
20.55
19.48
17.60
15.38
13.41
12.08
11.41
11.05
10.52
9.43
7.66
5.18
1.96
-2.12
-7.13
-12.77
-18.30
-22.82
-25.78
-27.49
-29.16
-32.24
-37.64
-45.09
-53.06
-59.61
-63.20
-63.42
-60.91
-56.89
-52.39
-47.87
-43.29
-38.40
-33.11
-27.56
-21.90
-16.15
-10.10
-3.47
3.96
12.02
20.23
27.87
34.28
39.10
42.38
44.48
45.89
47.01
47.94
48.45
48.10
46.49
43.50
39.56
35.60
32.89
32.52
35.01
39.90
45.81
50.66
52.30
49.07
40.32
26.62
9.46
-9.25
-27.86
-45.41
-61.64
-76.60
-90.02
-100.86
-107.44
-108.09
-101.96
-89.58
-72.68
-53.58
-34.45
-16.95
-2.28
8.61
15.09
17.09
15.42
11.80
8.41
7.22
9.37
14.92
23.18
33.12
43.77
54.33
64.05
72.20
78.31
82.35
84.92
87.12
90.31
95.71
104.18
116.08
131.20
148.69
167.06
184.37
198.67
208.50
213.46
214.22
212.11
208.23
202.82
195.05
183.56
167.45
146.92
123.34
98.62
74.31
51.19
29.29
8.48
-11.06
-28.80
-44.18
-57.12
-68.05
-77.67
-86.23
-93.29
-97.99
-99.86
-99.74
-99.95
-103.69
-113.65
-130.66
-152.92
-176.29
-195.37
-205.17
-202.42
-186.17
-157.58
-119.10
-73.87
-25.48
22.04
64.34
97.64
119.96
132.09
137.27
139.58
141.51
142.16
137.53
122.70
95.13
56.70
13.79
-25.31
-53.92
-69.60
-74.47
-73.49
-72.01
-74.18
-82.83
-99.84
-126.31
-161.80
-203.33
-244.84
-278.31
-296.37
-295.28
-276.89
-247.36
-214.37
-183.99
-159.13
-139.82
-124.93
-114.16
-108.80
-112.30
-127.12
-153.04
-187.25
-226.17
-267.11
-308.71
-349.99
-388.79
-422.77
-446.93
-454.67
-440.84
-405.00
-351.69
-288.12
-220.65
-152.65
-88.07
-28.76
24.57
70.43
105.28
124.91
127.31
114.36
91.27
59.98
23.15
-15.10
-49.93
-77.74
-96.97
-107.46
-110.07
-78.82
-6.54
92.17
190.61
269.22
322.99
356.34
375.80
386.04
389.26
382.57
363.88
335.22
302.04
269.68
240.87
215.62
192.48
169.81
143.76
113.03
80.23
50.51
28.39
15.99
12.91
16.97
25.05
31.82
33.60
30.32
24.91
21.14
21.33
25.32
30.61
33.59
30.26
19.27
3.15
-12.79
-22.98
-24.02
-15.80
-1.14
15.71
30.53
40.85
46.38
48.13
47.03
43.33
37.07
28.88
20.64
14.94
13.86
17.68
24.37
30.11
30.53
22.04
2.93
-26.16
-62.05
-99.31
-131.14
-150.62
-152.19
-132.93
-93.49
-38.31
24.82
85.97
135.27
165.56
174.59
165.91
147.57
129.00
117.54
116.11
123.03
133.90
144.02
150.02
150.25
144.23
132.16
114.89
94.09
72.03
50.76
31.15
12.78
-5.54
-24.56
-43.83
-61.76
-76.41
-86.33
-90.92
-90.28
-84.91
-75.73
-64.33
-53.04
-44.61
-41.18
-43.48
-50.33
-59.12
-66.75
-70.63
-69.25
-62.23
-50.07
-33.94
-15.39
3.83
22.09
38.33
51.99
62.74
70.13
73.37
71.75
65.34
55.45
44.48
34.92
28.41
25.15
24.46
25.71
29.19
36.07
47.33
62.30
77.95
89.47
92.18
83.70
65.02
39.94
13.25
-11.29
-32.03
-49.15
-63.51
-75.38
-84.07
-88.53
-88.17
-83.71
-76.91
-69.89
-64.51
-62.14
-63.59
-69.13
-78.04
-88.38
-97.17
-101.48
-99.72
-92.49
-82.30
-72.07
-63.31
-55.31
-45.76
-32.52
-15.47
2.86
18.44
27.83
30.14
27.56
24.29
24.56
30.73
42.43
57.11
71.62
83.78
93.06
100.39
107.06
113.72
119.99
124.74
126.89
126.15
123.16
119.18
115.46
112.59
110.29
107.60
103.31
96.58
87.30
76.16
64.32
52.95
42.74
33.71
25.45
17.45
9.60
2.35
-3.49
-7.19
-8.56
-8.10
-6.82
-5.77
-5.68
-6.72
-8.67
-11.11
-13.78
-16.58
-19.50
-22.49
-25.36
-27.84
-29.72
-30.76
-30.71
-29.21
-25.86
-20.47
-13.38
-5.55
1.65
6.83
9.17
8.84
6.94
5.11
4.89
7.15
11.85
18.14
24.88
30.97
35.68
38.67
39.76
38.78
35.53
29.96
22.40
13.72
5.18
-2.05
-7.24
-10.51
-12.76
-15.35
-19.49
-25.81
-34.02
-42.99
-51.26
-57.51
-61.04
-61.81
-60.23
-56.71
-51.45
-44.54
-36.35
-27.82
-20.52
-16.15
-15.91
-19.89
-26.87
-34.72
-41.08
-43.99
-42.43
-36.39
-26.69
-14.73
-2.15
9.51
19.24
26.75
32.51
37.27
41.44
44.49
44.90
40.83
31.24
17.02
1.21
-11.67
-17.24
-13.03
0.58
20.47
41.88
60.13
71.92
76.11
73.68
67.02
59.09
52.54
49.05
49.17
52.36
57.45
63.09
68.20
72.19
75.03
77.08
78.92
81.18
84.31
88.27
92.45
95.55
95.82
91.59
81.71
66.14
46.04
23.45
0.80
-19.78
-36.94
-50.32
-60.34
-67.81
-73.55
-78.20
-82.12
-85.54
-88.60
-91.41
-93.98
-96.14
-97.58
-97.95
-97.00
-94.71
-91.23
-86.72
-81.37
-75.36
-69.03
-62.99
-58.08
-55.09
-54.42
-55.87
-58.64
-61.61
-63.60
-63.63
-61.11
-55.89
-48.39
-39.75
-31.79
-26.62
-25.88
-29.99
-37.72
-46.44
-53.02
-54.91
-50.91
-41.38
-27.86
-12.42
3.02
17.04
28.92
38.58
46.52
53.64
60.99
69.38
79.09
89.70
100.20
109.28
115.67
118.42
117.02
111.62
103.03
92.57
81.83
72.16
64.28
58.00
52.49
46.63
39.60
31.28
22.22
13.45
6.06
0.95
-1.43
-1.09
1.55
5.74
10.60
15.22
18.87
21.05
21.50
20.08
16.82
11.94
5.88
-0.60
-6.63
-11.45
-14.72
-16.67
-18.06
-19.85
-22.84
-27.46
-33.54
-40.62
-48.12
-55.52
-62.46
-68.55
-73.18
-75.47
-74.60
-70.27
-63.28
-55.61
-49.87
-48.35
-52.09
-60.37
-71.09
-81.71
-90.28
-96.14
-99.85
-102.58
-105.36
-108.54
-111.74
-114.04
-114.44
-112.33
-107.72
-101.38
-94.58
-88.75
-84.83
-83.01
-82.64
-82.61
-81.87
-80.00
-77.29
-74.48
-72.17
-70.19
-67.53
-62.67
-54.41
-42.56
-28.16
-13.05
0.90
12.47
21.26
27.41
31.29
33.43
34.86
37.26
42.60
52.25
65.88
81.11
94.26
101.94
102.66
97.40
89.01
80.63
74.34
70.55
68.36
66.49
63.99
60.48
55.96
50.47
43.99
36.43
27.87
18.73
9.81
2.13
-3.30
-5.88
-5.68
-3.48
-0.52
2.01
3.58
4.49
5.61
7.71
10.88
14.21
16.22
15.53
11.66
5.26
-2.05
-8.38
-12.28
-13.24
-11.70
-8.67
-5.25
-2.26
-0.14
0.90
0.63
-1.27
-5.06
-10.70
-17.61
-24.74
-30.93
-35.40
-38.07
-39.54
-40.72
-42.30
-44.49
-46.95
-49.19
-50.83
-51.85
-52.45
-52.76
-52.58
-51.27
-48.00
-42.00
-32.97
-21.14
-7.32
7.30
21.35
33.44
42.41
47.52
48.58
46.05
40.86
34.24
27.37
21.23
16.50
13.73
13.51
16.58
23.75
35.40
51.11
69.34
87.60
103.16
113.93
119.20
119.80
117.51
114.10
110.56
106.94
102.69
97.23
90.34
82.10
72.62
61.84
49.65
36.20
22.14
8.55
-3.44
-13.26
-21.14
-28.07
-35.30
-43.73
-53.58
-64.26
-74.73
-83.86
-90.91
-95.66
-98.40
-99.67
-99.96
-99.47
-98.15
-95.92
-92.77
-88.96
-84.77
-80.28
-75.22
-69.00
-61.02
-51.11
-39.74
-28.05
-17.45
-9.17
-3.75
-0.92
0.36
1.49
3.81
8.15
14.70
22.85
31.38
38.69
43.20
43.79
40.10
32.77
23.21
13.26
4.57
-1.79
-5.62
-7.44
-8.10
-8.38
-8.68
-8.97
-9.09
-9.05
-9.26
-10.44
-13.28
-17.96
-23.86
-29.71
-34.05
-35.85
-34.89
-31.71
-27.23
-22.13
-16.60
-10.40
-3.38
4.12
10.97
15.64
16.69
13.54
6.74
-2.19
-11.36
-19.20
-24.94
-28.69
-31.22
-33.62
-37.00
-42.41
-50.68
-62.22
-76.60
-92.39
-107.17
-118.19
-123.29
-121.62
-113.92
-102.00
-87.72
-72.27
-55.80
-37.94
-18.55
1.58
20.83
37.49
50.61
60.60
68.92
77.10
85.78
94.22
100.85
104.23
104.04
101.41
98.30
96.49
96.70
98.40
100.21
100.73
99.19
95.61
90.55
84.67
78.39
71.78
64.64
56.69
47.77
38.02
27.97
18.41
10.19
3.89
-0.37
-2.95
-4.57
-5.92
-7.40
-8.96
-10.19
-10.62
-9.91
-8.13
-5.63
-2.89
-0.30
1.92
3.72
5.09
6.08
6.73
7.20
7.78
8.75
10.27
12.22
14.28
16.00
17.14
17.69
17.78
17.47
16.44
14.17
10.20
4.46
-2.54
-9.84
-16.39
-21.43
-24.68
-26.26
-26.56
-25.95
-24.76
-23.20
-21.47
-19.75
-18.21
-16.93
-15.84
-14.74
-13.38
-11.58
-9.29
-6.65
-4.00
-1.74
-0.23
0.29
-0.20
-1.56
-3.51
-5.79
-8.11
-10.23
-11.92
-12.97
-13.26
-12.79
-11.71
-10.30
-8.94
-7.91
-7.29
-6.94
-6.61
-6.23
-6.08
-6.72
-8.83
-12.80
-18.51
-25.28
-32.03
-37.63
-41.17
-42.08
-40.19
-35.69
-28.98
-20.58
-10.90
-0.13
11.65
24.19
36.80
48.32
57.39
63.12
65.50
65.40
64.15
62.84
61.84
60.86
59.36
57.02
53.95
50.47
46.75
42.54
37.36
30.84
23.15
15.11
7.93
2.79
0.40
0.72
3.09
6.46
9.84
12.54
14.30
15.23
15.61
15.73
15.83
16.09
16.69
17.79
19.48
21.64
23.95
25.89
26.93
26.81
25.65
23.99
22.55
21.89
22.16
22.96
23.53
23.15
21.49
18.82
15.95
13.82
13.06
13.72
15.23
16.83
17.98
18.73
19.55
20.98
22.96
24.43
23.34
17.02
2.68
-21.96
-57.97
-104.28
-156.86
-208.56
-250.00
-271.87
-267.84
-237.08
-185.19
-122.94
-63.21
-17.39
7.57
10.38
-5.26
-32.56
-64.04
-93.36
-116.26
-130.53
-135.45
-131.23
-118.66
-99.14
-74.70
-47.72
-20.39
5.80
30.22
52.88
73.90
93.10
109.85
123.35
132.98
138.51
140.24
138.83
135.28
130.73
126.23
122.40
119.13
115.65
110.79
103.65
93.98
82.44
70.28
58.85
49.08
41.17
34.67
28.73
22.60
15.90
8.76
1.67
-4.74
-10.02
-14.09
-17.22
-19.83
-22.30
-24.73
-26.95
-28.63
-29.50
-29.49
-28.80
-27.71
-26.52
-25.42
-24.48
-23.79
-23.36
-23.13
-22.87
-22.14
-20.41
-17.25
-12.50
-6.40
0.54
7.73
14.73
21.37
27.72
33.84
39.74
45.28
50.31
54.70
58.41
61.36
63.43
64.41
64.09
62.52
60.04
57.37
55.26
54.18
54.05
54.29
53.97
52.11
48.00
41.58
33.40
24.42
15.67
7.96
1.96
-2.24
-5.21
-7.94
-11.32
-15.80
-21.25
-27.01
-32.25
-35.71
-36.69
-35.56
-33.55
-32.00
-31.77
-32.87
-34.49
-35.48
-34.03
-29.25
-21.89
-14.02
-7.72
-4.31
-3.54
-3.90
-3.21
1.69
12.83
29.87
50.17
70.02
85.45
93.69
93.72
78.88
47.89
6.89
-33.29
-64.53
-85.52
-100.93
-117.48
-140.13
-169.73
-202.13
-230.87
-250.02
-256.62
-246.50
-220.81
-184.51
-144.40
-106.46
-72.85
-42.39
-12.24
20.06
55.47
92.33
127.45
157.08
177.75
187.50
185.59
172.50
150.09
121.81
92.08
65.84
47.28
38.59
39.51
47.23
57.23
64.70
66.19
60.15
47.50
30.94
13.98
0.12
-8.16
-9.80
-5.36
3.44
14.00
23.61
29.94
31.28
26.85
17.01
3.22
-12.21
-26.71
-38.20
-45.59
-48.91
-49.13
-47.57
-45.33
-43.02
-40.64
-37.86
-34.35
-30.11
-25.58
-21.50
-18.72
-17.85
-18.99
-21.72
-25.10
-27.98
-29.36
-28.68
-25.95
-21.79
-17.18
-13.11
-10.34
-9.18
-9.49
-10.89
-12.80
-14.65
-15.90
-16.02
-14.58
-11.38
-6.61
-0.87
4.96
10.04
13.97
16.88
19.34
22.00
25.14
28.55
31.65
33.85
34.95
35.22
35.14
35.14
35.27
35.24
34.63
33.23
31.15
28.84
26.88
25.75
25.75
26.89
28.95
31.58
34.39
37.04
39.33
41.17
42.51
43.23
43.13
41.88
39.11
34.59
28.34
20.69
12.34
4.14
-3.02
-8.48
-11.95
-13.53
-13.69
-13.13
-12.51
-12.17
-11.95
-11.04
-8.19
-2.15
7.69
20.89
35.98
50.83
63.37
72.25
77.05
78.05
75.80
70.79
63.39
54.12
43.88
33.92
25.45
19.11
14.66
11.01
6.72
0.69
-7.36
-16.85
-26.74
-36.07
-44.40
-51.77
-58.52
-64.83
-70.59
-75.40
-78.86
-80.79
-81.29
-80.68
-79.26
-77.29
-74.91
-72.24
-69.45
-66.74
-64.25
-62.02
-59.95
-57.89
-55.74
-53.52
-51.43
-49.75
-48.75
-48.47
-48.73
-49.11
-49.12
-48.46
-47.07
-45.17
-43.07
-41.08
-39.42
-38.30
-37.90
-38.35
-39.68
-41.66
-43.92
-46.14
-48.31
-50.91
-54.64
-60.08
-67.23
-75.23
-82.57
-87.71
-89.75
-88.67
-85.10
-79.72
-72.64
-63.34
-51.07
-35.59
-17.63
1.22
19.19
35.12
48.82
60.82
71.66
81.25
88.72
92.86
93.01
89.73
84.67
79.99
77.27
76.91
78.11
79.52
80.17
79.97
79.51
79.30
79.03
77.43
72.74
63.73
50.48
34.44
17.88
2.91
-9.33
-18.72
-25.91
-31.64
-36.28
-39.71
-41.45
-41.13
-38.79
-34.98
-30.63
-26.54
-23.10
-19.99
-16.45
-11.65
-5.23
2.49
10.57
17.85
23.49
27.30
29.86
32.27
35.64
40.57
46.91
53.84
60.21
65.12
68.23
69.88
70.74
71.43
72.26
73.27
74.57
76.43
79.16
82.60
85.62
86.25
82.10
71.27
53.06
27.87
-3.47
-40.58
-83.61
-132.29
-184.50
-235.42
-278.34
-306.97
-318.06
-312.98
-297.03
-277.05
-258.39
-243.05
-229.70
-215.37
-197.52
-175.31
-149.54
-121.68
-92.90
-63.55
-33.64
-3.44
26.02
53.05
75.80
93.20
105.50
114.16
121.22
128.28
135.68
142.42
146.71
146.88
142.16
132.89
120.12
104.96
88.13
69.96
50.79
31.34
12.90
-2.85
-14.33
-20.46
-20.89
-15.94
-6.43
6.56
21.77
37.86
53.51
67.52
79.07
87.78
93.77
97.49
99.49
100.14
99.60
97.90
95.03
91.15
86.53
81.57
76.58
71.75
67.11
62.73
58.83
55.77
54.00
53.77
54.95
56.88
58.52
58.73
56.66
52.16
45.80
38.63
31.58
24.88
17.82
9.08
-2.55
-17.33
-34.18
-50.99
-65.33
-75.47
-80.95
-82.75
-83.14
-85.36
-93.17
-110.01
-137.81
-175.92
-220.43
-264.84
-301.72
-324.91
-331.23
-321.07
-297.54
-264.96
-227.38
-187.69
-147.38
-106.81
-65.53
-22.96
20.94
64.86
105.94
140.13
163.51
173.67
170.71
157.24
137.47
115.82
95.78
79.36
67.25
59.28
54.76
52.68
51.69
50.32
47.25
41.82
34.29
25.77
17.91
12.31
9.99
11.19
15.41
21.74
29.10
36.52
43.30
49.01
53.34
56.08
56.97
55.69
51.97
45.86
37.88
29.11
21.04
15.09
12.20
12.44
15.01
18.57
21.67
23.27
23.01
21.27
18.95
17.08
16.48
17.51
20.04
23.70
28.13
33.24
39.17
46.10
53.89
62.07
69.87
76.58
81.89
86.07
89.85
94.17
100.00
108.05
118.48
130.54
142.31
150.89
153.21
147.10
132.30
110.81
86.18
62.20
41.65
25.54
13.17
2.69
-8.12
-21.22
-37.96
-58.86
-83.65
-111.43
-140.86
-170.47
-198.47
-222.45
-238.99
-244.07
-234.27
-208.37
-168.50
-119.97
-69.85
-24.83
10.21
32.76
42.21
39.20
25.37
3.44
-22.82
-49.16
-71.98
-89.37
-101.36
-109.19
-114.25
-117.25
-118.23
-117.11
-114.15
-109.87
-104.60
-98.00
-89.16
-77.35
-62.86
-47.34
-33.25
-22.60
-15.70
-10.65
-3.81
8.75
29.60
58.60
92.54
125.80
151.84
164.93
161.51
140.85
104.91
57.55
3.35
-53.58
-110.06
-163.71
-212.15
-252.48
-281.27
-295.66
-294.77
-280.68
-258.18
-233.10
-210.10
-190.88
-174.04
-156.21
-134.06
-105.57
-70.41
-29.59
14.84
59.68
100.68
133.24
153.92
162.12
160.69
155.00
150.73
151.47
157.61
167.12
177.28
186.56
195.06
203.84
213.52
223.38
231.58
236.15
236.19
232.22
225.81
218.72
211.86
205.04
197.19
187.16
174.48
159.71
144.25
129.70
117.18
106.82
97.88
89.10
79.47
68.58
56.88
45.31
34.78
25.61
17.43
9.47
1.17
-7.19
-14.50
-19.30
-20.67
-18.96
-15.73
-13.09
-12.65
-14.71
-18.24
-21.80
-24.49
-26.72
-30.31
-37.73
-51.41
-73.31
-104.98
-147.26
-199.55
-258.56
-317.70
-367.78
-399.43
-406.43
-388.31
-350.81
-303.68
-256.98
-217.48
-186.88
-162.43
-139.20
-112.78
-81.18
-45.45
-9.19
22.86
46.52
59.53
62.38
58.16
51.70
47.92
50.22
59.72
75.46
95.43
117.25
138.55
156.95
170.49
177.77
178.31
172.84
163.26
152.55
143.32
136.56
130.94
124.08
113.34
97.05
75.51
51.32
29.93
16.51
13.67
19.53
30.82
43.44
53.86
59.82
60.93
60.77
62.74
68.18
74.33
80.34
86.32
92.77
99.37
105.25
113.29
125.44
141.18
155.04
166.10
175.70
185.81
196.64
207.01
220.63
239.88
263.65
283.79
297.37
304.18
305.37
300.85
260.50
171.48
43.32
-73.83
-171.25
-250.88
-318.93
-371.21
-402.11
-409.17
-389.26
-345.78
-288.95
-236.85
-201.09
-184.27
-180.05
-175.42
-165.88
-147.25
-117.79
-81.52
-46.55
-16.60
6.97
23.90
33.27
33.72
28.25
20.34
11.92
1.66
-9.60
-19.74
-26.59
-29.78
-30.95
-30.83
-30.39
-30.99
-34.30
-39.63
-44.93
-48.04
-48.43
-47.52
-46.90
-48.19
-52.54
-60.30
-70.12
-79.68
-86.72
-89.98
-89.53
-86.03
-80.38
-73.44
-65.65
-57.17
-47.92
-37.84
-26.97
-15.72
-4.64
5.66
14.60
21.86
27.46
31.66
34.90
37.51
39.53
40.69
40.61
39.06
36.21
32.74
29.63
27.88
28.12
30.28
33.54
36.59
38.04
36.92
32.81
25.98
17.17
7.63
-1.44
-8.96
-14.04
-16.07
-14.92
-11.05
-5.48
0.61
6.47
11.61
15.84
19.34
22.55
25.92
29.69
33.87
38.37
43.48
49.01
54.25
58.35
60.86
61.97
62.53
63.96
67.94
76.07
88.23
102.27
114.69
122.03
122.04
114.23
99.89
77.93
51.16
25.32
5.61
-6.33
-11.68
-12.27
-9.42
-4.11
1.22
4.62
4.21
-1.06
-10.86
-23.63
-37.62
-52.04
-68.09
-84.84
-104.07
-127.82
-157.36
-192.91
-233.53
-276.68
-317.90
-351.16
-370.39
-373.48
-361.72
-339.00
-310.77
-281.94
-255.20
-230.54
-206.41
-171.96
-126.67
-78.88
-39.28
-13.65
-0.57
5.25
8.86
12.79
16.99
19.11
17.40
13.21
9.63
9.73
15.21
26.05
41.05
58.83
77.73
94.12
108.30
122.42
138.96
159.72
185.37
215.20
246.93
275.98
297.33
307.65
305.49
291.69
269.13
241.83
213.73
187.60
164.36
143.85
126.19
111.49
99.57
89.49
79.46
67.25
51.05
30.22
5.85
-19.06
-40.75
-55.90
-62.48
-60.26
-50.79
-36.95
-22.18
-9.72
-1.65
1.31
-0.22
-4.62
-9.94
-14.57
-17.60
-19.00
-19.36
-19.53
-20.16
-21.52
-23.36
-25.03
-25.87
-25.46
-23.81
-21.34
-18.63
-16.22
-14.43
-13.32
-12.79
-12.65
-12.71
-12.81
-12.76
-12.34
-11.24
-9.24
-6.29
-2.71
0.78
3.25
3.93
2.56
-0.33
-3.67
-6.16
-6.86
-5.51
-2.59
1.02
4.41
7.04
8.85
10.17
11.49
13.22
15.49
18.19
20.97
23.46
25.28
26.17
25.91
24.29
21.19
16.68
11.10
5.16
-0.30
-4.52
-7.15
-8.46
-9.20
-10.39
-12.83
-16.87
-22.24
-28.15
-33.49
-37.13
-38.20
-36.31
-31.71
-25.27
-18.23
-11.92
-7.35
-4.98
-4.63
-5.71
-7.47
-9.26
-10.70
-11.62
-11.88
-11.36
-9.91
-7.46
-4.24
-0.72
2.46
4.72
5.79
5.82
5.19
4.34
3.53
2.69
1.49
-0.48
-3.53
-7.79
-13.17
-19.39
-25.98
-32.34
-37.73
-41.55
-43.53
-43.90
-43.43
-43.12
-43.84
-45.88
-48.77
-51.41
-52.45
-50.80
-46.01
-38.50
-29.38
-20.24
-12.73
-8.04
-6.51
-7.32
-8.70
-8.43
-4.70
3.18
14.44
27.10
38.75
47.33
51.87
52.56
50.51
47.01
43.10
39.16
35.11
30.62
25.49
19.79
13.82
7.96
2.50
-2.42
-6.80
-10.66
-14.00
-16.91
-19.61
-22.47
-25.83
-29.88
-34.46
-39.07
-42.98
-45.47
-46.03
-44.53
-41.21
-36.71
-31.84
-27.44
-24.13
-22.16
-21.38
-21.27
-21.11
-20.25
-18.28
-15.20
-11.36
-7.36
-3.84
-1.29
0.08
0.33
-0.35
-1.75
-3.69
-6.08
-8.77
-11.59
-14.31
-16.74
-18.75
-20.25
-21.14
-21.31
-20.69
-19.41
-17.89
-16.81
-16.94
-18.92
-23.02
-29.01
-36.20
-43.49
-49.48
-52.75
-52.09
-46.84
-37.12
-23.91
-8.82
6.28
19.80
30.80
39.17
45.44
50.33
54.32
57.38
59.11
59.08
57.24
54.08
50.48
47.25
44.73
42.76
40.79
38.36
35.40
32.25
29.41
27.25
25.84
24.91
24.06
22.94
21.39
19.39
17.01
14.24
10.93
6.78
1.47
-5.15
-12.82
-20.84
-28.17
-33.71
-36.74
-37.18
-35.65
-33.23
-31.09
-30.16
-30.87
-33.20
-36.80
-41.22
-46.07
-50.96
-55.37
-58.52
-59.52
-57.71
-53.21
-47.03
-40.81
-36.30
-34.84
-37.14
-43.41
-53.56
-67.15
-82.81
-97.83
-108.07
-108.84
-96.56
-70.33
-32.70
10.92
53.90
90.28
116.27
130.75
134.91
131.49
123.75
114.66
106.30
99.60
94.49
90.26
86.04
81.10
75.03
67.61
58.82
48.88
38.45
28.61
20.56
15.13
12.28
11.09
10.08
7.90
3.95
-1.42
-7.16
-12.02
-15.12
-16.20
-15.65
-14.21
-12.63
-11.40
-10.58
-9.84
-8.57
-6.17
-2.29
3.00
9.15
15.30
20.54
24.11
25.61
25.15
23.23
20.65
18.29
16.75
16.21
16.27
16.13
14.94
12.17
7.90
2.78
-2.24
-6.34
-9.20
-11.05
-12.44
-13.88
-15.55
-17.27
-18.63
-19.32
-19.31
-18.90
-18.59
-18.83
-19.78
-21.23
-22.68
-23.39
-22.72
-20.22
-15.82
-9.97
-3.64
1.86
5.08
4.83
0.55
-7.53
-18.32
-30.13
-41.07
-49.56
-54.65
-56.13
-54.45
-50.31
-44.42
-37.26
-29.03
-19.84
-9.83
0.69
11.19
20.94
29.22
35.43
39.19
40.45
39.45
36.73
33.01
29.16
26.03
24.24
24.06
25.26
27.25
29.22
30.44
30.38
28.84
25.86
21.67
16.72
11.75
7.99
6.85
9.53
16.37
26.40
37.48
46.92
52.48
53.16
49.51
43.18
36.13
29.78
24.73
20.84
17.75
15.26
13.42
12.30
11.71
11.09
9.73
7.05
3.00
-1.97
-7.10
-11.63
-15.10
-17.48
-19.13
-20.48
-21.88
-23.43
-24.94
-26.12
-26.65
-26.42
-25.50
-24.16
-22.71
-21.41
-20.37
-19.56
-18.87
-18.20
-17.53
-16.95
-16.53
-16.40
-16.63
-17.27
-18.32
-19.72
-21.33
-22.99
-24.59
-26.18
-27.98
-30.18
-32.75
-35.24
-36.81
-36.53
-33.79
-28.67
-21.97
-14.91
-8.66
-3.95
-0.82
1.32
3.35
6.16
10.33
15.93
22.50
29.10
34.58
37.83
38.21
35.65
30.70
24.33
17.61
11.43
6.31
2.36
-0.69
-3.31
-5.97
-8.98
-12.50
-16.51
-20.92
-25.59
-30.30
-34.73
-38.50
-41.20
-42.67
-43.09
-42.97
-42.88
-43.02
-43.08
-42.30
-39.86
-35.41
-29.21
-21.96
-14.48
-7.29
-0.62
5.53
11.08
15.84
19.76
23.11
26.59
31.02
36.95
44.27
52.22
59.73
65.96
70.61
73.89
76.29
78.17
79.61
80.56
81.02
81.11
81.10
81.20
81.46
81.64
81.24
79.51
75.65
68.97
59.18
46.55
31.90
16.27
0.60
-14.64
-29.38
-43.75
-57.64
-70.55
-81.73
-90.56
-96.90
-101.18
-104.18
-106.58
-108.73
-110.54
-111.65
-111.68
-110.46
-107.96
-104.26
-99.40
-93.41
-86.41
-78.76
-70.94
-63.42
-56.25
-49.02
-41.05
-31.74
-21.01
-9.32
2.54
13.90
24.52
34.43
43.64
51.69
57.65
60.45
59.52
55.21
48.77
41.93
36.22
32.57
31.10
31.45
33.12
35.73
39.09
43.01
47.08
50.58
52.50
51.80
47.79
40.37
30.24
18.72
7.43
-2.22
-9.44
-14.23
-17.18
-19.09
-20.51
-21.55
-21.93
-21.29
-19.41
-16.36
-12.47
-8.14
-3.78
0.34
3.94
6.75
8.49
8.99
8.27
6.74
5.25
4.98
7.13
12.48
20.95
31.45
42.16
51.09
56.86
59.12
58.59
56.51
53.98
51.46
48.65
44.90
39.69
33.04
25.48
17.84
10.71
4.26
-1.80
-8.06
-15.02
-23.01
-32.10
-42.16
-52.91
-63.90
-74.40
-83.47
-90.14
-93.65
-93.74
-90.81
-85.74
-79.67
-73.67
-68.56
-64.77
-62.39
-61.21
-60.73
-60.27
-59.02
-56.10
-50.88
-43.05
-32.87
-21.07
-8.67
3.41
14.58
24.71
33.90
42.22
49.45
55.12
58.69
60.00
59.37
57.57
55.45
53.56
51.96
50.32
48.20
45.39
42.10
38.82
36.07
34.04
32.47
30.71
28.14
24.44
19.89
15.28
11.54
9.31
8.60
8.73
8.59
7.10
3.73
-1.23
-6.66
-10.85
-11.94
-8.53
-0.25
11.80
25.15
36.54
43.23
44.37
41.94
40.51
45.48
60.52
85.32
114.85
140.78
154.33
149.54
125.23
85.14
36.46
-12.43
-54.03
-83.08
-97.37
-98.13
-89.86
-79.22
-72.87
-74.67
-83.83
-95.06
-101.05
-96.37
-80.46
-58.06
-36.81
-23.28
-19.83
-23.95
-30.29
-34.04
-33.35
-29.64
-25.84
-23.98
-23.95
-23.76
-21.22
-15.58
-8.02
-1.03
3.19
3.91
2.10
-0.14
-0.79
1.17
5.47
10.86
15.76
18.89
19.73
18.57
16.36
14.35
13.43
13.73
14.29
13.43
9.43
1.45
-9.98
-22.90
-34.66
-42.88
-46.36
-45.32
-41.15
-35.75
-30.70
-26.92
-24.58
-23.45
-23.23
-23.74
-24.92
-26.63
-28.55
-30.01
-30.23
-28.43
-24.15
-17.37
-8.56
1.45
11.63
20.95
28.56
33.98
37.18
38.60
38.99
39.14
39.60
40.44
41.35
41.80
41.43
40.21
38.43
36.57
34.97
33.67
32.39
30.73
28.34
24.97
20.53
14.92
7.98
-0.32
-9.80
-19.83
-29.42
-37.50
-43.24
-46.45
-47.59
-47.57
-47.32
-47.35
-47.61
-47.54
-46.31
-43.17
-37.68
-29.82
-20.12
-9.83
-0.84
4.63
4.68
-1.46
-12.83
-26.85
-39.91
-48.57
-50.61
-45.63
-34.87
-20.65
-5.56
8.22
19.24
26.95
31.51
33.61
34.20
34.22
34.42
35.28
37.02
39.61
42.74
45.95
48.64
50.34
50.89
50.49
49.67
48.99
48.82
49.19
49.76
50.08
49.69
48.34
46.04
42.96
39.44
35.87
32.64
30.03
28.12
26.72
25.39
23.54
20.60
16.19
10.23
2.94
-5.18
-13.47
-21.10
-27.20
-30.91
-31.73
-29.63
-25.25
-19.67
-14.12
-9.53
-6.32
-4.40
-3.32
-2.67
-2.20
-1.91
-1.93
-2.39
-3.28
-4.47
-5.80
-7.13
-8.51
-10.17
-12.38
-15.26
-18.64
-21.93
-24.30
-24.91
-23.29
-19.44
-13.92
-7.70
-1.97
2.12
3.70
2.30
-2.03
-8.62
-16.42
-24.19
-30.81
-35.59
-38.30
-39.16
-38.58
-36.96
-34.55
-31.52
-27.97
-24.02
-19.78
-15.32
-10.62
-5.59
-0.12
5.76
11.95
18.20
24.24
29.81
34.74
38.94
42.45
45.46
48.30
51.30
54.71
58.58
62.75
67.02
71.19
75.08
78.41
80.64
81.09
79.19
74.94
69.17
63.40
59.18
57.39
57.73
59.00
59.81
59.46
58.37
57.76
58.88
62.22
67.12
72.15
75.65
76.26
73.05
65.32
52.33
33.42
8.41
-21.87
-55.34
-88.86
-118.94
-142.68
-158.43
-166.18
-167.26
-163.83
-158.05
-151.57
-145.34
-139.62
-134.36
-129.39
-124.61
-119.97
-115.42
-110.90
-106.33
-101.64
-96.66
-90.98
-83.86
-74.33
-61.50
-45.02
-25.40
-4.18
16.47
34.24
47.33
54.88
57.11
55.08
50.29
44.27
38.27
33.10
29.08
26.05
23.58
21.06
17.98
14.12
9.57
4.75
0.24
-3.42
-5.90
-7.17
-7.43
-7.04
-6.30
-5.45
-4.56
-3.67
-2.90
-2.45
-2.59
-3.50
-5.17
-7.27
-9.34
-10.88
-11.54
-11.16
-9.64
-6.91
-2.86
2.49
8.81
15.39
21.25
25.44
27.39
27.10
25.09
22.13
18.94
16.03
13.67
12.04
11.30
11.57
12.83
14.75
16.74
18.13
18.48
17.74
16.27
14.68
13.57
13.26
13.75
14.72
15.73
16.29
16.03
14.77
12.58
9.96
7.75
6.96
8.34
11.91
16.86
21.92
26.01
28.98
31.75
35.85
42.49
51.80
62.62
73.15
81.95
88.59
93.72
98.57
104.34
111.97
122.19
135.60
152.47
172.16
192.65
210.71
222.84
226.56
221.30
208.48
190.59
169.92
147.78
124.53
100.27
75.64
51.95
30.79
13.14
-1.07
-12.86
-23.65
-34.44
-45.45
-56.20
-66.18
-75.21
-83.64
-92.04
-100.71
-109.35
-117.17
-123.27
-127.19
-129.09
-129.63
-129.60
-129.58
-129.77
-130.08
-130.31
-130.10
-128.99
-126.35
-121.67
-114.92
-106.89
-99.01
-92.86
-89.32
-88.16
-88.09
-87.43
-84.95
-80.33
-74.18
-67.52
-61.21
-55.65
-50.82
-46.52
-42.68
-39.29
-36.34
-33.64
-30.82
-27.51
-23.49
-18.87
-14.10
-9.85
-6.77
-5.28
-5.41
-6.74
-8.62
-10.43
-11.68
-12.18
-11.91
-10.97
-9.45
-7.49
-5.31
-3.26
-1.74
-1.00
-1.09
-1.73
-2.47
-2.89
-2.76
-2.15
-1.32
-0.56
-0.06
0.16
0.20
0.14
-0.02
-0.41
-1.14
-2.22
-3.50
-4.72
-5.59
-5.99
-6.01
-5.90
-5.92
-6.22
-6.77
-7.39
-7.88
-8.15
-8.22
-8.20
-8.12
-7.92
-7.55
-7.05
-6.71
-6.96
-8.14
-10.21
-12.67
-14.68
-15.53
-14.92
-13.25
-11.30
-9.91
-9.51
-10.00
-10.84
-11.47
-11.54
-11.10
-10.43
-9.88
-9.64
-9.79
-10.26
-11.04
-12.12
-13.45
-14.89
-16.15
-16.84
-16.49
-14.80
-11.55
-6.84
-1.02
5.34
11.49
16.75
20.72
23.34
24.94
26.05
27.15
28.50
30.08
31.62
32.88
33.70
34.06
33.95
33.28
31.88
29.56
26.36
22.67
19.09
16.29
14.60
13.86
13.43
12.44
10.18
6.43
1.60
-3.47
-7.76
-10.46
-11.14
-9.82
-6.89
-2.90
1.58
6.03
10.08
13.38
15.62
16.52
15.90
13.74
10.31
6.09
1.74
-2.03
-4.69
-5.96
-5.96
-5.10
-3.97
-3.09
-2.76
-2.97
-3.55
-4.28
-5.11
-6.17
-7.73
-9.99
-12.97
-16.40
-19.76
-22.40
-23.71
-23.27
-21.03
-17.25
-12.52
-7.60
-3.15
0.35
2.84
4.54
5.86
7.09
8.33
9.36
9.80
9.30
7.77
5.49
3.08
1.34
0.91
2.06
4.57
7.81
11.01
13.53
14.96
15.27
14.67
13.47
12.05
10.67
9.49
8.57
7.77
6.76
5.17
2.64
-0.92
-5.18
-9.49
-13.01
-14.95
-14.89
-12.86
-9.28
-4.87
-0.36
3.63
6.71
8.70
9.53
9.21
7.82
5.57
2.84
0.20
-1.69
-2.31
-1.47
0.59
3.25
5.79
7.65
8.57
8.61
8.01
6.99
5.66
4.05
2.24
0.40
-1.15
-2.03
-1.88
-0.49
2.18
5.94
10.40
15.09
19.57
23.44
26.46
28.45
29.38
29.30
28.44
27.15
25.88
25.02
24.79
25.13
25.76
26.36
26.71
26.74
26.53
26.18
25.68
24.97
23.96
22.61
20.99
19.24
17.45
15.65
13.75
11.66
9.31
6.77
4.23
2.03
0.52
0.04
0.75
2.62
5.37
8.55
11.67
14.27
16.07
16.94
16.95
16.36
15.54
14.90
14.81
15.38
16.50
17.83
19.02
19.81
20.19
20.37
20.57
20.89
21.19
21.18
20.61
19.50
18.10
16.88
16.37
17.06
19.41
23.80
30.43
39.16
49.28
59.54
68.41
74.60
77.65
78.17
77.63
77.65
79.20
82.12
85.13
86.38
84.33
78.43
69.48
59.33
50.28
44.26
42.17
43.74
47.76
52.66
57.20
60.78
63.38
65.19
65.99
64.80
59.95
49.62
32.47
8.35
-21.39
-54.03
-86.09
-114.11
-135.49
-148.94
-154.62
-153.83
-148.39
-139.98
-129.65
-117.48
-102.72
-83.90
-59.37
-27.85
10.85
55.25
102.19
147.39
186.77
217.84
240.45
256.43
268.33
277.70
284.08
285.17
278.07
261.05
234.56
201.29
164.98
129.05
95.40
64.19
34.36
4.42
-26.89
-60.48
-96.92
-136.36
-178.05
-219.74
-257.52
-286.47
-302.42
-303.85
-293.05
-275.47
-257.41
-243.21
-233.35
-224.62
-212.15
-192.14
-163.77
-129.72
-94.99
-65.14
-44.36
-34.28
-33.52
-38.24
-43.49
-44.80
-39.81
-29.06
-15.72
-4.41
0.46
-4.11
-19.12
-43.55
-74.47
-107.21
-135.67
-153.30
-154.65
-137.20
-102.38
-55.27
-3.07
47.25
91.08
127.23
157.61
185.70
214.39
244.24
272.79
295.21
306.15
301.77
281.15
246.59
202.61
154.43
106.44
61.34
20.18
-17.19
-51.52
-83.84
-115.57
-148.76
-186.00
-229.61
-279.90
-333.67
-383.81
-420.79
-436.05
-425.36
-390.51
-338.26
-277.06
-213.77
-152.09
-93.40
-38.88
8.94
46.51
71.17
83.15
86.07
85.48
86.31
90.89
98.45
106.05
110.22
108.49
100.34
87.32
72.60
59.92
52.18
50.35
52.80
56.01
55.95
49.73
36.66
18.36
-2.07
-21.33
-37.00
-48.02
-54.82
-58.96
-62.69
-68.21
-77.00
-89.19
-103.48
-117.52
-128.77
-135.34
-136.60
-133.09
-126.14
-117.31
-108.07
-99.73
-93.45
-90.15
-90.10
-92.59
-95.82
-97.22
-94.38
-85.95
-72.25
-55.30
-38.26
-24.42
-16.28
-14.85
-19.26
-27.00
-34.53
-38.27
-35.78
-26.54
-12.07
4.65
20.44
33.10
42.01
48.07
52.95
58.26
64.87
72.74
81.01
88.19
92.65
93.19
89.80
84.24
79.86
80.49
88.62
103.90
122.69
139.28
148.25
146.76
135.73
119.21
102.56
90.22
84.33
84.53
88.79
94.70
100.27
104.36
106.53
106.72
105.06
101.71
96.90
90.86
83.81
75.90
67.28
58.21
49.18
40.93
34.29
29.94
28.18
28.89
31.49
34.99
38.09
39.38
37.63
32.34
24.06
14.51
6.14
1.15
0.67
4.17
9.69
14.62
16.69
14.69
8.60
-0.64
-11.69
-23.09
-33.58
-42.23
-48.52
-52.52
-54.88
-56.61
-58.75
-62.01
-66.54
-71.96
-77.60
-82.70
-86.68
-89.15
-89.94
-89.02
-86.51
-82.70
-77.96
-72.76
-67.59
-62.85
-58.77
-55.38
-52.44
-49.51
-46.13
-41.88
-36.66
-30.63
-24.24
-18.07
-12.69
-8.54
-5.81
-4.43
-4.22
-4.83
-5.94
-7.20
-8.33
-9.09
-9.33
-9.05
-8.39
-7.64
-7.13
-7.12
-7.69
-8.69
-9.82
-10.73
-11.13
-10.89
-10.01
-8.61
-6.91
-5.09
-3.30
-1.63
-0.11
1.29
2.54
3.61
4.47
5.14
5.78
6.67
8.12
10.37
13.40
16.87
20.21
22.80
24.17
24.15
22.90
20.69
17.85
14.57
11.03
7.37
3.78
0.50
-2.33
-4.75
-6.91
-9.03
-11.21
-13.36
-15.22
-16.45
-16.74
-15.93
-14.06
-11.32
-8.05
-4.67
-1.69
0.41
1.21
0.59
-1.24
-3.63
-5.83
-7.17
-7.43
-6.80
-5.64
-4.12
-2.04
1.03
5.17
9.83
13.63
14.87
12.36
5.81
-4.01
-15.69
-27.68
-38.41
-46.14
-48.95
-45.07
-33.69
-15.76
5.81
26.86
43.43
53.05
55.44
52.21
45.83
38.62
32.15
27.28
24.40
23.71
25.24
28.71
33.39
38.27
42.21
44.28
44.05
41.66
37.73
33.18
28.81
25.08
21.88
18.78
15.28
11.27
7.25
4.15
2.97
4.12
7.13
10.76
13.52
14.40
13.36
11.45
10.42
11.97
17.01
25.37
35.84
46.70
56.33
63.60
67.80
68.48
65.60
59.66
52.03
44.66
39.13
35.26
30.50
20.72
2.31
-25.39
-59.00
-92.06
-117.67
-131.27
-131.86
-121.50
-103.27
-79.70
-52.11
-21.33
11.28
43.30
71.85
94.46
109.95
118.64
121.89
121.53
119.21
116.16
113.03
109.91
106.75
103.60
100.82
98.99
98.38
98.49
97.97
95.21
89.30
80.70
71.33
63.65
59.45
58.75
59.88
60.23
57.66
51.40
42.31
32.36
23.68
17.91
15.84
17.41
21.79
27.37
32.02
33.40
29.69
20.16
5.40
-13.00
-33.29
-54.28
-75.58
-97.21
-118.68
-138.40
-153.71
-161.70
-160.35
-149.43
-130.66
-107.21
-82.70
-60.32
-42.11
-28.76
-19.73
-13.69
-9.18
-5.26
-2.09
-0.92
-3.57
-11.38
-24.34
-40.77
-57.84
-72.65
-83.31
-89.45
-92.01
-92.54
-92.56
-93.12
-94.79
-97.60
-100.90
-103.21
-102.28
-95.78
-82.44
-62.95
-40.00
-17.24
2.50
18.60
32.90
48.58
68.40
93.26
121.85
151.41
178.83
201.35
216.77
223.28
219.63
205.75
183.29
155.44
125.91
97.42
70.79
45.30
19.99
-4.89
-27.53
-45.35
-56.64
-61.79
-63.35
-64.77
-68.63
-75.53
-83.94
-91.40
-95.63
-95.42
-90.59
-81.71
-69.85
-56.59
-44.26
-35.77
-34.24
-41.97
-59.69
-86.04
-117.82
-150.59
-179.62
-200.84
-211.47
-210.49
-198.79
-178.87
-154.27
-128.44
-103.94
-81.95
-62.55
-45.31
-30.02
-16.94
-6.49
1.07
5.91
8.56
9.52
9.13
7.47
4.63
0.73
-4.19
-10.45
-18.63
-29.28
-42.25
-56.28
-69.14
-78.47
-82.76
-81.88
-76.97
-69.68
-61.47
-53.24
-45.52
-38.86
-33.93
-31.33
-31.05
-32.34
-33.81
-34.10
-32.46
-28.99
-24.55
-20.20
-16.64
-14.02
-11.97
-9.90
-7.54
-5.09
-3.32
-3.24
-5.65
-10.72
-17.79
-25.63
-32.93
-38.92
-43.66
-47.91
-52.67
-58.55
-65.46
-72.37
-77.60
-79.08
-74.96
-64.13
-46.58
-23.55
2.88
30.32
56.57
79.67
97.80
109.06
111.88
105.57
90.99
70.93
49.46
30.75
17.89
12.04
12.37
16.64
21.92
25.12
23.62
16.02
2.98
-12.10
-23.54
-25.09
-12.65
13.14
45.91
75.19
90.13
84.12
57.93
19.76
-17.92
-43.42
-50.35
-39.54
-17.54
6.93
26.94
39.44
45.18
47.04
48.03
50.09
54.13
60.79
70.72
84.40
101.37
119.68
135.97
146.56
148.78
142.09
128.25
110.71
93.36
79.25
69.54
63.43
58.86
54.02
48.73
45.03
46.46
56.44
76.34
104.44
136.28
166.36
190.15
205.51
212.98
214.78
213.49
210.83
207.10
201.33
191.82
177.01
156.35
130.75
102.63
75.18
51.13
31.88
16.93
4.43
-7.86
-21.52
-36.86
-53.04
-68.48
-81.56
-91.07
-96.38
-97.50
-94.92
-89.46
-82.04
-73.54
-64.71
-56.10
-48.00
-40.44
-33.10
-25.43
-16.71
-6.41
5.49
18.24
30.52
40.83
48.14
52.33
54.22
55.23
56.70
59.33
62.83
66.15
67.97
67.18
63.28
56.38
47.10
36.33
25.18
14.86
6.53
1.09
-1.16
-0.60
1.82
4.95
7.93
10.37
12.32
13.65
13.46
9.80
0.00
-18.37
-46.25
-82.14
-122.01
-160.18
-190.86
-209.80
-215.21
-207.76
-189.70
-163.75
-132.36
-97.73
-62.24
-28.75
-0.32
20.72
33.74
40.18
42.91
44.76
47.14
49.31
48.91
43.06
29.57
7.52
-22.60
-59.22
-99.95
-141.80
-181.53
-216.17
-243.57
-262.90
-274.65
-280.24
-281.53
-280.21
-277.41
-273.53
-268.16
-260.23
-248.43
-231.82
-210.38
-185.31
-158.59
-132.28
-107.71
-85.29
-64.79
-46.03
-29.22
-14.79
-2.98
6.78
15.80
25.58
37.03
49.88
62.78
73.91
81.80
85.86
86.53
84.84
82.00
78.94
76.24
74.15
72.75
72.07
72.13
72.96
74.55
76.76
79.28
81.67
83.45
84.25
83.94
82.63
80.58
78.12
75.43
72.54
69.27
65.47
61.02
56.02
50.69
45.42
40.57
36.39
32.95
30.10
27.56
24.97
22.12
19.00
15.85
13.05
10.93
9.66
9.23
9.47
10.20
11.36
13.01
15.34
18.43
22.23
26.49
30.80
34.67
37.69
39.61
40.33
39.93
38.47
36.02
32.65
28.56
24.28
20.60
18.46
18.59
21.19
25.86
31.69
37.52
42.39
45.84
47.96
49.52
51.72
55.87
62.94
73.06
85.34
98.15
109.79
119.15
126.11
131.39
135.96
140.49
145.23
150.03
154.46
157.67
158.18
153.98
143.18
125.10
101.08
74.48
49.62
30.22
18.06
12.81
12.76
15.95
20.78
25.78
28.87
27.01
16.85
-3.86
-35.12
-74.48
-118.01
-161.64
-201.96
-236.21
-261.79
-276.15
-277.60
-266.33
-245.09
-218.49
-191.19
-165.92
-142.72
-119.91
-96.05
-71.52
-48.66
-30.33
-18.06
-11.11
-7.22
-4.61
-3.77
-7.70
-19.99
-41.94
-70.53
-99.00
-119.81
-128.61
-126.74
-120.39
-117.09
-121.51
-133.02
-146.60
-155.89
-156.61
-147.97
-131.88
-110.91
-86.85
-60.75
-33.78
-8.16
13.30
28.49
37.44
42.95
49.83
63.19
86.51
120.33
162.03
206.64
248.25
281.73
303.94
314.22
314.15
306.75
295.59
284.13
275.37
271.60
273.92
281.56
291.42
298.22
295.72
279.21
247.93
206.59
164.38
131.75
116.03
117.85
130.46
142.39
142.52
124.87
90.67
46.84
2.01
-37.70
-70.69
-98.93
-125.29
-150.77
-173.59
-190.50
-199.10
-199.67
-195.38
-190.75
-189.33
-192.00
-196.75
-200.17
-199.34
-193.43
-184.06
-174.39
-167.45
-164.61
-165.00
-165.87
-163.82
-156.13
-141.87
-122.07
-99.30
-76.50
-55.90
-38.40
-23.54
-10.21
2.46
14.44
24.80
32.27
36.09
36.43
34.32
31.11
27.85
25.07
22.99
21.97
22.65
25.39
29.51
32.78
31.77
23.15
5.27
-20.76
-51.43
-82.30
-109.84
-132.71
-151.73
-168.88
-185.94
-203.58
-221.28
-237.85
-252.10
-263.15
-270.32
-272.77
-269.33
-258.55
-239.09
-210.26
-172.57
-127.97
-79.49
-30.54
15.96
58.08
94.93
126.17
151.67
171.33
185.20
193.78
197.73
197.67
193.73
185.63
173.24
157.30
139.85
123.87
112.16
106.13
105.04
106.37
107.07
105.01
99.88
93.01
86.30
80.94
76.62
71.79
64.70
54.53
42.01
29.16
18.26
10.79
6.88
5.34
4.41
2.56
-0.87
-5.47
-10.02
-13.00
-13.34
-10.83
-6.29
-1.16
3.09
5.69
6.90
7.96
10.50
15.89
24.69
36.37
49.56
62.48
73.52
81.72
86.84
89.44
90.40
90.48
89.94
88.53
85.77
81.28
75.03
67.31
58.49
49.01
39.36
30.39
23.31
19.57
20.21
25.15
32.91
41.12
47.56
51.47
53.91
57.04
62.66
70.86
79.76
86.72
89.99
89.94
88.87
89.43
92.71
97.26
99.66
96.48
86.10
69.51
49.58
29.33
10.60
-6.30
-22.00
-37.08
-51.41
-64.20
-74.49
-81.70
-85.89
-87.75
-88.44
-89.34
-91.75
-96.51
-103.75
-112.71
-121.99
-130.13
-136.05
-139.47
-140.67
-140.22
-138.49
-135.51
-131.10
-125.13
-117.75
-109.45
-100.94
-92.92
-85.86
-79.89
-74.89
-70.54
-66.57
-62.81
-59.26
-55.91
-52.69
-49.36
-45.54
-40.98
-35.59
-29.62
-23.55
-17.89
-13.05
-9.21
-6.31
-4.18
-2.62
-1.47
-0.62
0.01
0.56
1.15
1.86
2.65
3.35
3.72
3.54
2.73
1.42
-0.11
-1.55
-2.77
-3.83
-5.03
-6.71
-9.05
-12.09
-15.55
-19.01
-21.93
-23.77
-24.17
-22.96
-20.20
-16.13
-11.12
-5.59
0.06
5.45
10.32
14.50
18.02
20.95
23.35
25.21
26.36
26.65
26.07
24.84
23.38
22.15
21.39
21.10
21.02
20.92
20.61
20.12
19.53
18.89
18.13
17.06
15.52
13.41
10.79
7.88
4.93
2.26
0.17
-1.09
-1.38
-0.65
1.02
3.41
6.21
9.02
11.46
13.20
14.03
13.97
13.19
12.00
10.66
9.40
8.29
7.37
6.65
6.19
5.98
5.97
6.00
5.82
5.28
4.38
3.27
2.21
1.36
0.73
0.18
-0.52
-1.52
-2.87
-4.58
-6.67
-9.15
-11.98
-14.91
-17.47
-19.07
-19.23
-17.82
-15.13
-11.83
-8.64
-6.12
-4.35
-3.05
-1.79
-0.24
1.58
3.35
4.63
5.14
4.90
4.22
3.53
3.15
3.17
3.47
3.81
4.00
3.96
3.69
3.24
2.65
1.90
0.99
-0.07
-1.27
-2.59
-4.05
-5.71
-7.63
-9.80
-12.02
-13.94
-15.09
-15.04
-13.64
-11.08
-7.85
-4.51
-1.53
0.91
2.88
4.53
6.01
7.30
8.34
9.06
9.44
9.59
9.66
9.78
10.02
10.36
10.71
10.87
10.71
10.17
9.28
8.20
7.13
6.22
5.52
4.94
4.30
3.37
1.99
0.10
-2.18
-4.55
-6.58
-7.84
-8.02
-7.05
-5.13
-2.63
0.05
2.58
4.82
6.75
8.40
9.79
10.88
11.64
12.09
12.35
12.62
13.04
13.67
14.36
14.85
14.83
14.14
12.79
11.06
9.34
8.02
7.25
6.90
6.63
6.01
4.75
2.80
0.36
-2.20
-4.44
-5.98
-6.56
-6.04
-4.42
-1.85
1.42
5.07
8.77
12.30
15.60
18.70
21.65
24.49
27.12
29.36
31.02
31.91
32.15
32.16
32.66
34.51
38.39
44.62
53.00
62.88
73.31
83.13
91.14
96.15
97.19
93.61
85.28
72.70
56.88
39.17
20.92
3.25
-13.10
-27.71
-40.30
-50.64
-58.45
-63.35
-64.93
-62.77
-56.58
-46.46
-33.13
-18.36
-4.71
5.17
9.94
10.54
10.31
13.65
23.94
41.74
64.28
86.66
103.98
112.98
112.56
102.91
84.25
56.15
18.23
-28.33
-79.36
-127.63
-164.41
-182.08
-176.73
-149.43
-105.82
-54.06
-2.30
43.39
79.88
106.53
124.09
133.65
136.15
132.62
124.43
113.48
101.82
90.70
79.76
66.85
48.93
23.89
-7.52
-40.96
-69.54
-86.49
-88.13
-75.78
-55.42
-35.31
-22.80
-21.67
-31.42
-48.29
-67.45
-84.93
-98.57
-107.84
-112.77
-112.99
-107.37
-94.47
-73.68
-46.37
-16.39
10.46
28.01
31.59
19.58
-5.94
-39.71
-74.55
-103.25
-120.41
-123.91
-115.47
-100.00
-83.84
-72.53
-68.96
-72.79
-81.24
-90.86
-99.02
-104.63
-107.71
-108.41
-106.31
-100.45
-90.10
-75.68
-59.00
-42.66
-28.85
-18.32
-10.14
-2.39
6.49
16.68
26.73
34.13
36.57
32.82
22.98
8.11
-10.52
-31.87
-55.21
-79.68
-103.77
-125.01
-140.18
-145.96
-140.11
-122.57
-96.19
-66.28
-39.30
-20.67
-12.89
-14.70
-21.86
-29.23
-33.13
-32.68
-29.66
-27.14
-27.57
-31.72
-38.49
-45.57
-50.50
-51.55
-48.06
-40.53
-30.32
-19.17
-8.62
0.44
8.00
14.70
21.26
27.82
33.60
37.00
36.30
30.26
18.56
1.87
-18.40
-40.19
-60.95
-77.73
-87.52
-87.85
-77.24
-55.43
-23.09
18.44
67.26
120.68
174.91
225.21
266.57
294.94
308.13
306.21
291.13
265.97
234.19
199.42
165.40
136.10
115.23
105.38
107.22
119.09
137.16
156.34
171.59
179.33
178.42
170.09
156.89
141.29
124.46
105.69
83.00
54.27
18.55
-22.90
-67.18
-110.62
-149.47
-180.29
-200.16
-206.95
-200.06
-181.02
-152.99
-121.46
-92.94
-72.62
-62.18
-59.50
-60.20
-60.18
-57.39
-50.37
-39.76
-27.20
-13.63
1.62
19.91
41.44
64.08
84.00
100.48
113.64
124.41
134.69
147.23
164.25
185.56
208.18
227.70
244.11
257.66
267.47
271.71
269.10
259.64
244.60
226.24
183.20
110.71
20.96
-65.89
-136.07
-186.27
-219.22
-239.42
-251.59
-258.41
-260.12
-256.19
-246.60
-231.93
-212.28
-187.57
-158.49
-126.63
-97.04
-70.30
-46.32
-25.75
-9.52
2.29
10.40
15.23
16.09
11.30
1.35
-12.62
-28.82
-44.04
-53.14
-50.38
-32.05
0.94
41.73
79.71
102.35
99.56
68.39
15.65
-43.75
-92.40
-117.35
-115.10
-91.77
-59.89
-32.46
-17.47
-15.52
-21.19
-27.04
-27.40
-20.61
-8.49
5.54
18.71
30.13
40.54
51.06
61.84
71.35
76.88
76.04
68.20
55.31
41.54
31.67
29.08
34.33
45.06
57.08
66.23
69.96
68.06
62.15
54.56
47.13
40.58
34.84
29.71
25.49
23.00
22.86
24.61
26.26
24.74
17.21
2.46
-18.29
-41.69
-63.44
-79.82
-88.76
-90.01
-84.75
-74.75
-61.92
-48.08
-35.05
-24.63
-18.25
-16.49
-18.71
-23.05
-27.05
-28.53
-26.49
-21.49
-15.40
-10.49
-8.46
-9.72
-13.20
-16.93
-18.83
-17.56
-12.95
-6.00
1.52
7.69
11.08
11.18
8.59
4.81
1.90
1.76
5.49
12.99
23.00
33.62
43.03
50.18
54.97
58.02
60.09
61.51
62.08
61.24
58.53
53.94
47.93
41.15
34.12
26.86
19.04
10.13
-0.14
-11.55
-23.34
-34.44
-43.83
-50.94
-55.74
-58.73
-60.60
-61.94
-63.01
-63.68
-63.71
-62.96
-61.61
-60.17
-59.29
-59.41
-60.59
-62.39
-63.94
-64.22
-62.27
-57.52
-50.04
-40.76
-31.38
-23.95
-20.22
-20.93
-25.33
-31.38
-36.45
-38.33
-36.10
-30.36
-23.01
-16.46
-12.79
-13.31
-18.26
-27.02
-38.23
-50.16
-60.94
-68.95
-73.12
-73.12
-69.44
-63.22
-55.91
-48.86
-42.88
-37.99
-33.39
-27.78
-19.83
-8.74
5.40
21.50
37.73
52.08
62.87
69.33
71.78
71.51
70.40
70.44
73.14
79.29
88.86
101.17
115.13
129.38
142.59
153.62
161.77
166.98
169.66
170.44
169.63
166.92
161.49
152.51
139.76
123.91
106.44
89.07
73.11
59.16
47.16
36.70
27.39
19.07
11.71
5.23
-0.62
-6.38
-12.77
-20.47
-29.83
-40.77
-52.65
-64.53
-75.44
-84.76
-92.33
-98.45
-103.62
-108.30
-112.70
-116.78
-120.18
-122.32
-122.39
-119.39
-112.42
-101.00
-85.49
-67.24
-48.37
-31.23
-17.62
-8.32
-2.88
0.00
1.87
3.92
6.66
9.85
12.82
14.83
15.46
14.95
14.27
14.93
18.53
26.11
37.59
51.78
66.77
80.67
92.33
101.52
108.73
114.49
118.98
121.72
121.66
117.46
107.76
91.64
68.98
40.88
9.80
-20.82
-47.42
-67.38
-79.75
-85.44
-86.52
-85.36
-83.73
-82.51
-81.91
-81.82
-82.21
-83.07
-84.30
-85.41
-85.72
-84.60
-81.83
-77.86
-73.60
-70.08
-67.83
-66.67
-65.65
-63.45
-58.87
-51.24
-40.66
-27.88
-14.15
-0.82
10.97
20.59
28.09
34.10
39.57
45.33
51.71
58.40
64.49
68.85
70.48
68.91
64.28
57.24
48.74
39.74
30.97
22.82
15.38
8.63
2.55
-2.69
-6.82
-9.55
-10.73
-10.43
-8.94
-6.60
-3.70
-0.31
3.68
8.39
13.77
19.28
23.90
26.34
25.44
20.66
12.32
1.58
-10.02
-21.00
-30.44
-38.08
-44.18
-49.14
-53.22
-56.39
-58.37
-58.92
-58.02
-56.00
-53.52
-51.28
-49.73
-48.80
-47.87
-45.92
-42.00
-35.60
-26.99
-17.25
-8.06
-1.21
1.90
0.70
-4.35
-11.97
-20.35
-27.69
-32.65
-34.57
-33.47
-29.79
-24.12
-16.90
-8.32
1.59
12.75
24.72
36.57
46.92
54.14
56.85
54.30
46.71
35.31
22.14
9.67
0.28
-4.21
-2.95
3.80
14.73
27.79
40.76
51.78
59.80
64.74
67.26
68.36
68.97
69.58
70.18
70.15
68.49
64.15
56.50
45.86
33.68
22.25
13.89
10.10
11.06
15.63
22.09
28.81
34.80
39.66
43.30
45.66
46.66
46.33
44.81
42.16
38.14
32.12
23.40
11.70
-2.59
-18.53
-35.16
-52.00
-69.19
-86.98
-105.11
-122.33
-136.63
-146.08
-149.70
-148.04
-142.89
-136.46
-130.28
-124.64
-118.56
-110.58
-99.66
-85.76
-69.89
-53.54
-37.98
-23.71
-10.49
2.33
15.10
27.61
38.98
48.18
54.45
57.72
58.59
58.01
56.78
55.23
53.15
50.10
45.78
40.40
34.72
29.83
26.67
25.74
26.90
29.60
33.06
36.51
39.27
40.83
40.86
39.40
36.90
34.12
31.86
30.52
29.88
29.23
27.67
24.68
20.40
15.59
11.29
8.35
7.14
7.47
8.74
10.27
11.45
11.95
11.57
10.26
8.01
4.82
0.79
-3.83
-8.66
-13.19
-16.97
-19.64
-21.14
-21.60
-21.38
-20.95
-20.75
-21.07
-21.98
-23.29
-24.59
-25.46
-25.62
-25.03
-23.83
-22.22
-20.29
-18.02
-15.38
-12.39
-9.25
-6.15
-3.25
-0.54
2.14
4.90
7.79
10.74
13.68
16.66
19.77
23.03
26.23
28.94
30.67
31.12
30.38
28.93
27.43
26.47
26.35
27.03
28.16
29.26
29.77
29.24
27.32
23.88
19.04
13.12
6.60
-0.01
-6.24
-11.78
-16.49
-20.41
-23.68
-26.49
-28.97
-31.14
-32.92
-34.22
-34.98
-35.30
-35.37
-35.38
-35.50
-35.78
-36.17
-36.61
-37.05
-37.48
-37.87
-38.25
-38.62
-39.02
-39.51
-40.17
-41.06
-42.17
-43.48
-45.05
-47.01
-49.63
-53.16
-57.59
-62.57
-67.36
-71.09
-73.09
-73.25
-72.05
-70.35
-69.01
-68.50
-68.79
-69.30
-69.10
-67.09
-62.17
-53.56
-41.13
-25.72
-9.24
5.67
16.45
21.53
20.98
16.50
10.79
6.58
5.79
9.15
16.33
26.32
37.81
49.47
60.04
68.48
74.06
76.55
76.38
74.52
72.24
70.74
70.93
73.11
76.99
81.70
86.08
89.00
89.73
88.25
85.30
82.07
79.76
79.00
79.61
80.72
81.20
80.20
77.51
73.61
69.33
65.49
62.52
60.38
58.65
56.78
54.30
50.97
46.78
41.83
36.19
29.81
22.55
14.29
4.99
-5.12
-15.64
-26.03
-35.80
-44.55
-52.03
-58.06
-62.48
-65.19
-66.18
-65.62
-63.88
-61.48
-58.86
-56.32
-53.80
-51.02
-47.52
-42.92
-37.03
-29.94
-22.06
-13.93
-6.19
0.62
6.18
10.37
13.34
15.38
16.83
18.05
19.29
20.69
22.25
23.84
25.22
26.14
26.46
26.18
25.49
24.69
24.15
24.15
24.84
26.23
28.22
30.57
33.01
35.28
37.23
38.79
39.97
40.73
40.93
40.30
38.63
35.74
31.68
26.66
21.00
15.05
9.13
3.51
-1.52
-5.63
-8.48
-9.72
-9.22
-7.21
-4.43
-2.04
-1.25
-2.87
-6.79
-11.92
-16.39
-18.14
-15.55
-7.92
4.30
19.59
35.63
49.79
59.71
63.84
61.85
54.58
43.69
31.05
18.19
6.02
-5.05
-14.84
-23.10
-29.39
-33.26
-34.46
-33.15
-29.89
-25.45
-20.58
-15.72
-10.99
-6.27
-1.48
3.21
7.21
9.68
9.81
7.16
1.90
-5.25
-13.26
-21.08
-27.98
-33.62
-38.10
-41.77
-45.15
-48.74
-52.89
-57.71
-63.07
-68.63
-73.98
-78.72
-82.50
-84.98
-85.75
-84.37
-80.46
-74.03
-65.56
-56.09
-46.87
-39.05
-33.20
-29.20
-26.38
-23.82
-20.78
-16.91
-12.31
-7.34
-2.46
2.00
5.85
9.09
11.87
14.38
16.92
19.72
22.79
25.87
28.38
29.66
29.34
27.64
25.42
23.85
23.89
25.82
29.20
33.10
36.73
39.81
42.65
45.73
49.17
52.42
54.30
53.51
49.14
41.03
29.83
16.72
3.07
-9.84
-21.04
-29.85
-35.93
-39.15
-39.55
-37.23
-32.40
-25.37
-16.75
-7.45
1.40
8.71
13.73
16.30
16.83
16.02
14.57
12.84
10.85
8.37
5.22
1.44
-2.68
-6.75
-10.49
-13.87
-17.12
-20.58
-24.52
-28.98
-33.75
-38.46
-42.70
-46.23
-48.94
-50.85
-51.93
-52.11
-51.25
-49.29
-46.32
-42.58
-38.40
-34.02
-29.52
-24.87
-20.00
-14.93
-9.82
-4.92
-0.46
3.38
6.53
8.95
10.59
11.48
11.70
11.55
11.49
11.95
13.18
15.06
17.13
18.77
19.49
19.10
17.82
16.06
14.26
12.66
11.25
9.92
8.64
7.59
7.11
7.60
9.30
12.23
16.17
20.73
25.50
30.13
34.44
38.51
42.74
47.71
54.01
61.83
70.78
79.90
88.09
94.52
99.12
102.51
105.66
109.52
114.63
121.11
128.73
137.05
145.57
153.85
161.83
169.94
179.14
190.70
205.68
224.49
246.71
271.07
295.72
318.40
336.63
347.83
349.79
341.20
322.17
294.37
260.55
223.61
185.86
148.66
112.73
78.67
47.39
19.98
-2.70
-20.48
-34.09
-44.83
-53.93
-62.07
-69.20
-74.98
-79.42
-83.38
-88.61
-97.27
-111.21
-131.23
-156.80
-186.04
-216.12
-243.84
-266.31
-281.62
-289.18
-289.83
-285.49
-278.43
-270.53
-262.87
-255.59
-248.30
-240.53
-231.99
-222.59
-212.23
-200.70
-187.76
-173.48
-158.53
-144.16
-131.84
-122.62
-116.63
-112.93
-109.90
-105.90
-99.88
-91.60
-81.41
-69.84
-57.27
-44.15
-31.34
-20.38
-13.11
-10.96
-14.13
-21.26
-29.93
-37.65
-42.78
-45.04
-45.24
-44.63
-44.37
-45.17
-47.32
-50.71
-54.79
-58.54
-60.60
-59.67
-55.09
-47.31
-37.87
-28.88
-22.38
-19.63
-20.77
-24.91
-30.44
-35.66
-39.22
-40.43
-39.29
-36.26
-31.93
-26.84
-21.36
-15.81
-10.56
-6.11
-2.95
-1.33
-1.11
-1.68
-2.08
-1.34
1.34
6.32
13.52
22.55
32.83
43.77
54.81
65.50
75.52
84.78
93.59
102.70
113.25
126.41
142.97
162.83
184.83
206.94
226.80
242.52
253.09
258.37
258.67
254.12
244.38
228.95
207.70
181.54
152.42
122.82
94.86
69.69
47.35
27.29
9.02
-7.45
-21.80
-33.81
-43.77
-52.42
-60.70
-69.20
-77.96
-86.52
-94.27
-100.80
-105.99
-110.03
-113.16
-115.64
-117.61
-119.19
-120.49
-121.65
-122.83
-124.19
-125.88
-128.01
-130.52
-133.25
-135.85
-137.99
-139.40
-140.02
-139.93
-139.31
-138.33
-137.10
-135.60
-133.75
-131.46
-128.61
-125.11
-120.84
-115.73
-109.72
-102.79
-94.95
-86.22
-76.72
-66.74
-56.77
-47.37
-39.07
-32.13
-26.43
-21.61
-17.21
-12.95
-8.75
-4.79
-1.23
1.81
4.40
6.71
8.87
10.91
12.75
14.27
15.33
15.89
15.92
15.54
14.93
14.39
14.24
14.74
16.03
18.05
20.57
23.24
25.69
27.63
28.92
29.58
29.76
29.66
29.43
29.17
28.92
28.66
28.39
28.12
27.86
27.57
27.18
26.59
25.74
24.63
23.33
21.93
20.46
18.87
17.05
14.89
12.35
9.51
6.59
3.86
1.65
0.24
-0.18
0.44
2.00
4.19
6.63
8.90
10.76
12.16
13.25
14.29
15.42
16.66
17.89
18.93
19.70
20.25
20.72
21.17
21.56
21.70
21.37
20.44
19.02
17.35
15.77
14.50
13.58
12.85
12.01
10.84
9.24
7.37
5.55
4.20
3.64
4.04
5.33
7.29
9.61
12.00
14.23
16.15
17.68
18.84
19.64
20.15
20.44
20.58
20.59
20.50
20.33
20.12
19.87
19.50
18.85
17.77
16.17
14.11
11.82
9.58
7.64
6.03
4.57
2.91
0.69
-2.36
-6.28
-10.88
-15.75
-20.35
-24.21
-27.02
-28.82
-30.01
-31.21
-33.07
-35.98
-39.94
-44.57
-49.38
-54.00
-58.48
-63.23
-68.88
-75.97
-84.65
-94.46
-104.30
-112.45
-116.89
-115.71
-107.74
-93.08
-73.33
-51.35
-30.50
-13.71
-2.69
2.52
3.13
1.05
-1.94
-4.71
-7.00
-9.23
-12.13
-16.25
-21.70
-27.94
-33.97
-38.61
-40.79
-39.85
-35.65
-28.62
-19.66
-10.00
-0.88
6.87
13.27
19.41
27.23
38.81
55.47
77.20
102.58
129.37
155.41
179.25
200.38
218.93
235.12
248.95
260.22
268.76
274.79
278.92
281.96
284.53
286.71
287.89
286.99
282.86
274.66
262.04
245.06
223.82
198.26
168.20
133.67
95.30
54.63
13.90
-24.48
-58.62
-87.61
-111.54
-131.11
-147.11
-160.02
-170.01
-177.03
-181.18
-182.80
-182.56
-181.19
-179.35
-177.30
-174.95
-171.86
-167.54
-161.72
-154.48
-146.18
-137.30
-128.24
-119.16
-110.12
-101.17
-92.47
-84.29
-76.80
-69.95
-63.49
-57.02
-50.29
-43.32
-36.40
-29.98
-24.39
-19.74
-15.89
-12.57
-9.48
-6.44
-3.39
-0.34
2.66
5.59
8.42
11.10
13.54
15.65
17.36
18.61
19.46
19.97
20.20
20.16
19.83
19.18
18.25
17.09
15.76
14.27
12.53
10.47
8.07
5.45
2.95
0.93
-0.30
-0.66
-0.29
0.48
1.33
2.04
2.55
2.95
3.35
3.82
4.32
4.72
4.89
4.72
4.27
3.70
3.23
3.00
2.96
2.94
2.64
1.85
0.55
-1.08
-2.78
-4.32
-5.60
-6.70
-7.79
-9.04
-10.59
-12.50
-14.82
-17.51
-20.39
-23.17
-25.40
-26.62
-26.49
-24.94
-22.19
-18.66
-14.86
-11.19
-7.80
-4.67
-1.59
1.55
4.69
7.60
9.98
11.64
12.59
13.09
13.47
13.96
14.62
15.34
15.93
16.33
16.56
16.73
16.89
16.96
16.76
16.11
14.90
13.17
11.07
8.75
6.32
3.77
1.07
-1.70
-4.33
-6.44
-7.59
-7.53
-6.25
-4.11
-1.64
0.62
2.35
3.54
4.42
5.31
6.43
7.77
9.15
10.37
11.33
12.08
12.76
13.47
14.20
14.81
15.12
15.02
14.51
13.73
12.84
11.99
11.21
10.49
9.74
8.91
7.90
6.68
5.16
3.33
1.17
-1.29
-3.99
-6.78
-9.39
-11.44
-12.54
-12.38
-10.92
-8.42
-5.38
-2.40
0.07
1.87
3.12
4.13
5.15
6.33
7.60
8.85
9.98
10.94
11.81
12.61
13.36
13.97
14.28
14.19
13.64
12.71
11.57
10.44
9.50
8.84
8.43
8.12
7.68
6.93
5.71
4.00
1.81
-0.80
-3.70
-6.70
-9.49
-11.69
-12.87
-12.78
-11.38
-8.92
-5.86
-2.74
0.03
2.26
4.01
5.51
6.96
8.45
9.88
11.09
11.87
12.21
12.21
12.09
12.09
12.27
12.58
12.81
12.75
12.28
11.43
10.36
9.25
8.25
7.38
6.56
5.67
4.56
3.08
1.13
-1.30
-4.09
-6.92
-9.33
-10.86
-11.18
-10.19
-8.12
-5.37
-2.41
0.41
2.88
4.96
6.69
8.16
9.42
10.56
11.65
12.77
13.90
14.95
15.78
16.20
16.10
15.54
14.72
13.92
13.41
13.27
13.41
13.61
13.62
13.29
12.64
11.72
10.68
9.66
8.74
8.09
7.90
8.37
9.59
11.54
13.99
16.64
19.21
21.56
23.74
25.96
28.46
31.47
35.11
39.38
44.16
49.28
54.48
59.52
64.16
68.23
71.62
74.33
76.50
78.36
80.19
82.21
84.46
86.59
87.89
87.29
83.68
76.24
64.68
49.42
31.41
11.90
-7.85
-26.65
-43.55
-57.78
-68.83
-76.53
-81.11
-83.14
-83.35
-82.46
-80.95
-79.04
-76.74
-73.99
-70.75
-67.08
-63.14
-59.10
-55.11
-51.24
-47.47
-43.76
-40.11
-36.54
-33.20
-30.25
-27.82
-25.94
-24.52
-23.42
-22.47
-21.60
-20.76
-19.99
-19.33
-18.85
-18.64
-18.78
-19.29
-20.10
-20.97
-21.54
-21.42
-20.36
-18.36
-15.67
-12.70
-9.82
-7.25
-4.92
-2.68
-0.36
2.05
4.35
6.29
7.69
8.53
8.92
9.07
9.07
8.96
8.69
8.21
7.59
6.88
6.16
5.44
4.71
3.95
3.19
2.41
1.49
0.13
-2.07
-5.47
-10.22
-16.14
-22.76
-29.44
-35.52
-40.41
-43.65
-44.93
-44.12
-41.42
-37.27
-32.36
-27.36
-22.75
-18.68
-14.97
-11.29
-7.40
-3.30
0.79
4.58
7.92
10.93
13.93
17.26
21.09
25.29
29.46
33.12
35.88
37.68
38.82
39.82
41.23
43.44
46.51
50.12
53.73
56.79
58.96
60.35
61.53
63.39
66.84
72.51
80.51
90.37
101.28
112.32
122.90
133.00
143.41
155.59
171.33
192.18
218.75
250.09
283.54
315.10
340.39
355.87
359.76
352.53
336.47
314.85
290.89
267.00
244.47
223.53
203.66
183.93
163.14
140.12
113.93
84.18
51.11
15.57
-21.45
-59.29
-97.94
-138.01
-180.22
-224.89
-271.57
-319.13
-366.00
-410.27
-449.57
-481.04
-501.66
-509.44
-504.65
-490.11
-470.04
-447.72
-423.42
-394.31
-356.69
-309.44
-256.47
-206.40
-169.19
-151.83
-155.45
-175.69
-205.41
-237.99
-268.95
-295.32
-314.10
-321.40
-313.44
-288.76
-250.15
-204.27
-159.17
-120.83
-90.78
-66.10
-41.68
-13.41
19.69
55.26
89.15
117.64
139.00
153.83
164.22
172.61
180.77
189.60
199.30
209.69
220.49
231.14
240.63
247.32
249.02
243.48
229.24
206.52
177.62
146.57
117.85
94.97
79.18
69.21
62.11
54.63
44.51
31.13
15.23
-1.71
-18.18
-32.99
-45.20
-54.02
-58.68
-58.57
-53.45
-43.59
-29.80
-13.36
4.07
20.69
34.87
45.81
54.08
61.87
72.63
90.01
116.75
153.74
199.77
251.82
305.77
357.08
401.38
434.86
454.82
460.24
452.04
433.01
407.01
377.87
348.28
319.36
290.86
261.86
231.59
199.97
167.68
135.84
105.56
77.54
51.88
28.10
5.34
-17.40
-40.90
-65.64
-91.72
-118.86
-146.71
-174.95
-203.58
-233.02
-264.24
-298.61
-337.42
-381.14
-428.43
-475.78
-517.83
-548.81
-564.29
-562.73
-545.87
-517.96
-484.08
-448.59
-414.12
-381.58
-350.75
-321.05
-291.96
-263.16
-234.38
-205.28
-175.30
-143.74
-109.82
-73.09
-33.89
6.33
44.96
78.53
103.47
116.92
117.48
105.66
83.83
55.70
25.37
-3.55
-28.77
-49.59
-66.68
-81.47
-95.40
-109.33
-123.20
-136.13
-146.71
-153.50
-155.55
-152.66
-145.54
-135.51
-124.02
-112.01
-99.70
-86.61
-72.06
-55.79
-38.29
-20.88
-5.34
6.61
13.87
16.59
16.54
17.14
22.78
37.56
63.82
101.07
145.87
192.89
236.58
272.91
300.12
318.60
329.84
335.60
337.37
336.40
333.90
330.93
327.95
324.38
318.65
308.75
293.25
272.15
247.19
221.34
197.85
179.23
166.52
159.18
155.50
153.25
150.28
145.01
136.70
125.36
111.75
97.26
83.74
73.19
67.14
65.88
67.75
69.22
65.75
53.41
30.48
-1.77
-39.47
-77.64
-111.93
-139.82
-160.81
-175.66
-185.39
-190.65
-191.69
-188.83
-182.69
-174.19
-164.05
-152.22
-137.68
-118.83
-94.62
-65.73
-35.05
-6.97
14.39
27.24
33.12
36.44
42.53
55.31
75.76
101.90
130.19
157.29
181.32
201.82
218.76
231.39
237.84
235.68
223.06
199.74
167.23
128.10
84.63
37.88
-12.32
-65.95
-121.03
-172.45
-212.69
-234.29
-233.14
-210.75
-174.21
-133.79
-99.27
-76.83
-67.79
-69.49
-77.51
-87.82
-97.87
-106.63
-113.79
-119.08
-122.01
-122.17
-119.65
-115.34
-110.90
-108.31
-109.10
-113.65
-120.79
-127.99
-132.09
-130.45
-122.01
-107.62
-89.76
-71.44
-55.09
-41.74
-31.06
-21.96
-13.56
-5.88
0.10
3.01
1.92
-2.93
-10.00
-16.90
-21.27
-21.73
-18.34
-12.53
-6.41
-1.85
0.41
0.98
1.58
4.08
9.63
18.00
27.65
36.32
42.12
44.35
43.98
43.47
46.05
54.71
71.01
94.01
119.90
142.44
154.47
150.02
126.57
86.30
36.04
-14.50
-55.51
-79.98
-85.77
-76.06
-58.14
-40.94
-31.96
-34.91
-48.63
-67.82
-85.31
-94.86
-93.43
-81.85
-63.97
-44.71
-28.13
-16.33
-9.52
-6.91
-7.63
-11.26
-17.55
-25.88
-34.92
-42.67
-47.25
-47.52
-43.66
-36.96
-29.28
-22.17
-16.37
-11.71
-7.46
-2.90
2.17
7.29
11.57
14.16
14.79
13.97
12.90
12.98
15.21
19.78
25.87
31.97
36.48
38.35
37.40
34.34
30.39
26.76
24.22
22.93
22.55
22.44
22.00
20.73
18.43
15.10
10.93
6.33
1.80
-2.11
-4.95
-6.38
-6.33
-4.99
-2.74
-0.20
2.02
3.38
3.60
2.70
1.03
-0.86
-2.33
-2.87
-2.19
-0.27
2.67
6.21
9.84
13.03
15.31
16.41
16.24
14.96
12.95
10.71
8.69
7.15
6.06
5.11
3.93
2.28
0.25
-1.75
-3.20
-3.68
-3.05
-1.47
0.69
3.06
5.39
7.58
9.59
11.37
12.77
13.61
13.73
13.10
11.90
10.42
8.99
7.85
7.09
6.59
6.19
5.72
5.12
4.46
3.90
3.61
3.66
4.01
4.51
4.90
4.92
4.38
3.18
1.36
-0.85
-3.09
-4.87
-5.61
-4.88
-2.53
1.25
5.87
10.53
14.46
17.21
18.72
19.32
19.49
19.66
20.03
20.54
20.95
21.04
20.69
19.93
18.94
17.91
16.98
16.18
15.44
14.63
13.62
12.36
10.86
9.18
7.42
5.60
3.71
1.70
-0.42
-2.66
-4.99
-7.45
-10.05
-12.79
-15.49
-17.82
-19.34
-19.64
-18.62
-16.50
-13.80
-11.13
-8.94
-7.37
-6.20
-5.06
-3.58
-1.55
0.98
3.83
6.74
9.54
12.12
14.43
16.48
18.20
19.57
20.55
21.15
21.40
21.34
21.00
20.36
19.40
18.14
16.63
14.98
13.23
11.41
9.48
7.42
5.21
2.89
0.43
-2.15
-4.87
-7.63
-10.17
-12.10
-13.04
-12.75
-11.26
-8.89
-6.14
-3.44
-1.09
0.84
2.42
3.78
5.01
6.14
7.19
8.15
9.02
9.80
10.48
11.06
11.53
11.92
12.25
12.50
12.67
12.72
12.66
12.51
12.28
11.93
11.37
10.47
9.17
7.52
5.75
4.11
2.82
1.86
1.01
-0.07
-1.70
-3.98
-6.76
-9.65
-12.15
-13.83
-14.43
-13.91
-12.43
-10.29
-7.81
-5.31
-3.02
-1.09
0.44
1.64
2.66
3.65
4.77
6.03
7.34
8.52
9.38
9.82
9.87
9.67
9.39
9.17
9.04
8.93
8.78
8.52
8.16
7.73
7.22
6.60
5.81
4.80
3.59
2.26
0.98
-0.10
-0.92
-1.49
-1.96
-2.61
-3.70
-5.39
-7.61
-10.09
-12.37
-13.94
-14.45
-13.81
-12.22
-10.06
-7.78
-5.72
-4.04
-2.73
-1.70
-0.88
-0.24
0.17
0.39
0.50
0.67
1.08
1.77
2.67
3.59
4.33
4.76
4.91
4.90
4.84
4.82
4.86
4.95
5.06
5.15
5.17
5.06
4.79
4.38
3.89
3.40
2.99
2.68
2.45
2.21
1.82
1.13
0.01
-1.57
-3.48
-5.44
-7.06
-7.99
-8.06
-7.28
-5.90
-4.24
-2.59
-1.13
0.10
1.16
2.15
3.13
4.09
4.93
5.62
6.15
6.61
7.11
7.70
8.30
8.75
8.86
8.54
7.79
6.72
5.52
4.33
3.23
2.24
1.32
0.41
-0.51
-1.35
-1.99
-2.25
-2.02
-1.38
-0.63
-0.17
-0.33
-1.18
-2.51
-3.93
-5.14
-6.00
-6.55
-6.86
-6.97
-6.79
-6.21
-5.21
-3.93
-2.63
-1.58
-0.92
-0.61
-0.48
-0.35
-0.12
0.23
0.63
1.06
1.49
1.95
2.47
3.03
3.50
3.78
3.72
3.33
2.70
1.99
1.35
0.85
0.43
0.01
-0.48
-1.04
-1.56
-1.96
-2.18
-2.33
-2.61
-3.26
-4.39
-5.93
-7.58
-8.96
-9.73
-9.71
-8.95
-7.65
-6.10
-4.53
-3.09
-1.86
-0.85
-0.05
0.57
1.08
1.53
1.98
2.46
2.97
3.44
3.84
4.11
4.23
4.18
4.04
3.83
3.66
3.53
3.49
3.49
3.45
3.25
2.80
2.04
0.99
-0.21
-1.37
-2.30
-2.90
-3.19
-3.25
-3.27
-3.41
-3.83
-4.59
-5.63
-6.70
-7.45
-7.54
-6.78
-5.30
-3.46
-1.75
-0.59
-0.14
-0.26
-0.63
-0.91
-0.86
-0.41
0.36
1.27
2.11
2.71
2.96
2.89
2.60
2.28
2.05
1.98
2.00
1.99
1.83
1.46
0.93
0.31
-0.29
-0.75
-0.99
-0.99
-0.75
-0.38
-0.05
0.01
-0.39
-1.33
-2.77
-4.49
-6.16
-7.46
-8.10
-7.93
-6.97
-5.42
-3.64
-2.04
-0.97
-0.55
-0.67
-1.00
-1.16
-0.89
-0.18
0.77
1.68
2.36
2.73
2.90
2.96
2.96
2.86
2.60
2.18
1.70
1.29
1.05
0.95
0.89
0.69
0.28
-0.30
-0.93
-1.46
-1.82
-2.02
-2.16
-2.37
-2.71
-3.21
-3.88
-4.67
-5.51
-6.31
-6.91
-7.16
-6.93
-6.18
-5.01
-3.63
-2.35
-1.40
-0.90
-0.79
-0.89
-0.95
-0.77
-0.25
0.58
1.59
2.59
3.46
4.11
4.55
4.81
4.89
4.82
4.58
4.17
3.63
3.04
2.49
2.05
1.78
1.60
1.43
1.14
0.63
-0.09
-0.91
-1.70
-2.37
-2.90
-3.43
-4.12
-5.08
-6.31
-7.63
-8.80
-9.54
-9.66
-9.10
-7.91
-6.26
-4.47
-2.83
-1.64
-1.01
-0.95
-1.24
-1.63
-1.87
-1.86
-1.59
-1.20
-0.83
-0.56
-0.44
-0.43
-0.49
-0.62
-0.83
-1.20
-1.83
-2.77
-3.97
-5.32
-6.60
-7.67
-8.51
-9.24
-10.00
-10.91
-11.99
-13.18
-14.42
-15.74
-17.19
-18.82
-20.56
-22.21
-23.49
-24.18
-24.22
-23.66
-22.63
-21.23
-19.47
-17.37
-14.97
-12.42
-9.90
-7.58
-5.56
-3.79
-2.11
-0.24
2.11
5.11
8.72
12.68
16.56
19.91
22.40
23.99
24.88
25.44
26.03
26.88
28.01
29.21
30.17
30.60
30.33
29.38
27.87
25.93
23.62
20.93
17.88
14.55
11.18
8.06
5.41
3.24
1.40
-0.35
-2.22
-4.24
-6.32
-8.30
-10.02
-11.41
-12.47
-13.19
-13.56
-13.53
-13.09
-12.25
-11.09
-9.71
-8.19
-6.61
-5.05
-3.63
-2.51
-1.75
-1.31
-1.00
-0.56
0.28
1.58
3.20
4.81
6.11
6.94
7.38
7.69
8.23
9.23
10.75
12.65
14.67
16.55
18.11
19.33
20.29
21.13
21.94
22.72
23.37
23.75
23.76
23.40
22.83
22.25
21.80
21.52
21.29
20.87
20.08
18.86
17.31
15.58
13.85
12.16
10.55
8.93
7.28
5.50
3.51
1.19
-1.57
-4.79
-8.34
-11.94
-15.23
-17.89
-19.78
-20.86
-21.27
-21.19
-20.76
-20.11
-19.35
-18.55
-17.79
-17.17
-16.78
-16.64
-16.73
-16.91
-17.04
-16.96
-16.60
-16.00
-15.28
-14.60
-14.03
-13.62
-13.33
-13.12
-13.00
-13.04
-13.36
-14.06
-15.18
-16.69
-18.46
-20.27
-21.87
-23.01
-23.55
-23.47
-22.93
-22.23
-21.66
-21.46
-21.64
-22.02
-22.42
-22.61
-22.51
-22.16
-21.59
-20.84
-19.94
-18.88
-17.68
-16.41
-15.14
-13.91
-12.65
-11.19
-9.35
-7.05
-4.32
-1.38
1.50
4.06
6.18
7.87
9.17
10.13
10.70
10.79
10.38
9.60
8.75
8.15
8.06
8.49
9.24
9.99
10.43
10.40
9.90
9.06
8.07
7.07
6.13
5.30
4.55
3.89
3.34
2.96
2.80
2.78
2.77
2.61
2.15
1.37
0.38
-0.62
-1.43
-1.97
-2.31
-2.63
-3.13
-3.94
-5.03
-6.20
-7.14
-7.54
-7.22
-6.15
-4.47
-2.41
-0.25
1.81
3.64
5.16
6.35
7.21
7.76
8.05
8.20
8.35
8.63
9.04
9.46
9.73
9.66
9.21
8.48
7.70
7.15
6.99
7.19
7.55
7.75
7.49
6.56
4.96
2.85
0.48
-1.78
-3.60
-4.74
-5.05
-4.56
-3.46
-1.98
-0.42
1.02
2.22
3.16
3.88
4.46
4.99
5.54
6.14
6.78
7.38
7.87
8.13
8.10
7.77
7.16
6.38
5.51
4.67
3.92
3.24
2.58
1.84
0.94
-0.22
-1.72
-3.55
-5.66
-7.83
-9.77
-11.09
-11.53
-10.97
-9.60
-7.79
-5.99
-4.55
-3.59
-3.00
-2.53
-1.95
-1.17
-0.22
0.79
1.77
2.71
3.69
4.79
5.97
7.05
7.80
8.06
7.83
7.34
6.87
6.63
6.67
6.83
6.87
6.57
5.82
4.60
2.92
0.86
-1.45
-3.78
-5.78
-7.03
-7.28
-6.51
-4.99
-3.21
-1.61
-0.45
0.32
0.97
1.83
3.02
4.49
5.95
7.13
7.89
8.26
8.37
8.37
8.30
8.12
7.81
7.35
6.88
6.48
6.18
5.92
5.54
4.97
4.17
3.22
2.18
1.02
-0.31
-1.92
-3.77
-5.74
-7.63
-9.23
-10.39
-11.03
-11.16
-10.77
-9.92
-8.66
-7.12
-5.43
-3.70
-2.01
-0.41
1.02
2.21
3.10
3.66
3.96
4.13
4.27
4.41
4.48
4.34
3.86
3.01
1.88
0.61
-0.69
-1.90
-3.04
-4.15
-5.32
-6.60
-8.04
-9.63
-11.31
-12.96
-14.37
-15.32
-15.61
-15.15
-13.96
-12.22
-10.15
-8.00
-5.96
-4.13
-2.52
-1.13
0.07
1.10
1.96
2.68
3.32
3.93
4.59
5.29
5.99
6.55
6.83
6.74
6.31
5.68
5.00
4.46
4.09
3.86
3.60
3.15
2.33
1.09
-0.54
-2.40
-4.27
-5.90
-7.04
-7.55
-7.39
-6.66
-5.50
-4.12
-2.64
-1.15
0.37
1.95
3.63
5.37
7.10
8.69
10.03
11.09
11.90
12.56
13.11
13.60
14.00
14.24
14.27
14.04
13.58
12.92
12.15
11.35
10.60
9.92
9.22
8.35
7.07
5.26
2.96
0.44
-1.84
-3.40
-3.92
-3.35
-1.94
-0.12
1.65
3.09
4.12
4.89
5.65
6.59
7.76
9.06
10.29
11.27
11.92
12.28
12.45
12.50
12.47
12.26
11.79
11.00
9.90
8.64
7.40
6.30
5.40
4.60
3.71
2.49
0.79
-1.42
-4.00
-6.62
-8.92
-10.50
-11.15
-10.82
-9.69
-8.04
-6.19
-4.39
-2.79
-1.42
-0.23
0.88
1.97
3.06
4.10
5.00
5.72
6.24
6.61
6.87
7.09
7.27
7.34
7.25
6.95
6.44
5.78
5.03
4.32
3.73
3.32
3.06
2.79
2.26
1.19
-0.55
-2.87
-5.45
-7.80
-9.50
-10.32
-10.29
-9.60
-8.48
-7.08
-5.48
-3.76
-2.05
-0.49
0.78
1.77
2.59
3.38
4.24
5.18
6.09
6.86
7.47
7.94
8.33
8.68
8.93
9.02
8.91
8.58
8.05
7.32
6.40
5.27
3.97
2.56
1.07
-0.51
-2.31
-4.42
-6.80
-9.26
-11.38
-12.78
-13.18
-12.56
-11.15
-9.34
-7.52
-5.92
-4.66
-3.70
-2.90
-2.17
-1.40
-0.58
0.24
1.02
1.73
2.36
2.94
3.53
4.09
4.57
4.87
4.95
4.83
4.62
4.39
4.20
3.98
3.63
3.02
2.14
1.06
-0.07
-1.06
-1.85
-2.51
-3.27
-4.35
-5.82
-7.52
-9.07
-10.02
-10.06
-9.21
-7.74
-6.07
-4.57
-3.39
-2.47
-1.64
-0.72
0.32
1.38
2.30
2.92
3.19
3.21
3.18
3.26
3.56
4.03
4.51
4.85
4.96
4.87
4.69
4.52
4.36
4.17
3.81
3.26
2.56
1.81
1.07
0.33
-0.49
-1.45
-2.52
-3.48
-4.08
-4.05
-3.29
-1.89
-0.13
1.64
3.12
4.17
4.81
5.19
5.44
5.66
5.83
5.90
5.84
5.70
5.62
5.76
6.18
6.80
7.40
7.68
7.43
6.62
5.43
4.18
3.20
2.66
2.54
2.58
2.49
1.94
0.79
-0.95
-3.10
-5.34
-7.35
-8.84
-9.59
-9.54
-8.73
-7.33
-5.60
-3.86
-2.36
-1.26
-0.54
-0.05
0.42
0.99
1.74
2.61
3.52
4.43
5.31
6.14
6.84
7.28
7.34
6.98
6.27
5.37
4.44
3.61
2.87
2.20
1.51
0.76
-0.14
-1.26
-2.67
-4.38
-6.29
-8.22
-9.85
-10.90
-11.14
-10.56
-9.33
-7.75
-6.17
-4.81
-3.75
-2.91
-2.10
-1.22
-0.21
0.87
1.91
2.84
3.60
4.18
4.60
4.86
5.02
5.12
5.17
5.20
5.20
5.11
4.94
4.70
4.44
4.22
4.04
3.82
3.42
2.74
1.66
0.19
-1.57
-3.45
-5.21
-6.57
-7.29
-7.27
-6.59
-5.46
-4.21
-3.10
-2.24
-1.53
-0.81
0.10
1.24
2.48
3.61
4.43
4.82
4.80
4.47
3.98
3.43
2.87
2.30
1.67
0.95
0.13
-0.78
-1.71
-2.64
-3.57
-4.56
-5.70
-7.04
-8.63
-10.44
-12.44
-14.59
-16.82
-19.02
-20.99
-22.48
-23.26
-23.20
-22.33
-20.84
-19.03
-17.19
-15.54
-14.13
-12.85
-11.59
-10.20
-8.68
-7.14
-5.74
-4.62
-3.77
-3.10
-2.43
-1.63
-0.69
0.31
1.16
1.76
2.07
2.19
2.25
2.32
2.37
2.29
2.00
1.45
0.71
-0.15
-1.15
-2.35
-3.88
-5.73
-7.69
-9.41
-10.49
-10.68
-9.98
-8.64
-7.03
-5.48
-4.18
-3.12
-2.13
-1.00
0.38
2.02
3.77
5.37
6.53
7.14
7.25
7.08
6.91
6.87
6.98
7.10
7.12
6.98
6.70
6.38
6.02
5.63
5.14
4.51
3.79
3.04
2.26
1.40
0.37
-0.93
-2.39
-3.78
-4.78
-5.09
-4.61
-3.45
-1.90
-0.28
1.15
2.34
3.32
4.24
5.20
6.20
7.18
8.01
8.61
8.99
9.19
9.29
9.33
9.28
9.09
8.74
8.23
7.64
7.01
6.43
5.89
5.37
4.84
4.29
3.69
2.96
2.02
0.80
-0.70
-2.31
-3.77
-4.75
-5.00
-4.41
-3.11
-1.43
0.24
1.53
2.25
2.40
2.17
1.82
1.63
1.76
2.26
3.13
4.31
5.71
7.21
8.62
9.68
10.14
9.90
9.01
7.71
6.33
5.09
4.04
3.10
2.13
1.07
-0.06
-1.21
-2.45
-3.94
-5.89
-8.37
-11.18
-13.86
-15.86
-16.75
-16.40
-15.05
-13.18
-11.27
-9.67
-8.47
-7.56
-6.73
-5.76
-4.57
-3.19
-1.73
-0.33
0.92
1.97
2.86
3.61
4.25
4.78
5.21
5.53
5.77
5.91
5.95
5.80
5.39
4.70
3.77
2.70
1.61
0.49
-0.78
-2.40
-4.60
-7.39
-10.56
-13.63
-16.01
-17.21
-16.99
-15.51
-13.24
-10.83
-8.91
-7.83
-7.61
-7.98
-8.49
-8.80
-8.77
-8.49
-8.22
-8.13
-8.24
-8.32
-8.05
-7.14
-5.51
-3.39
-1.22
0.55
1.55
1.73
1.44
1.36
2.42
5.67
12.00
21.81
34.59
48.78
61.91
71.20
74.36
70.41
60.08
45.59
29.86
15.52
4.19
-3.79
-9.00
-12.32
-14.41
-15.55
-15.82
-15.39
-14.77
-14.67
-15.69
-17.99
-21.01
-23.70
-24.98
-24.23
-21.59
-17.83
-13.97
-10.82
-8.61
-7.08
-5.69
-4.10
-2.33
-0.77
0.15
0.20
-0.51
-1.61
-2.65
-3.35
-3.60
-3.45
-2.95
-2.17
-1.15
0.02
1.18
2.20
2.98
3.57
4.05
4.51
4.97
5.39
5.70
5.87
5.94
5.96
5.97
5.99
6.00
5.94
5.78
5.41
4.79
3.88
2.74
1.49
0.30
-0.67
-1.35
-1.81
-2.21
-2.74
-3.56
-4.74
-6.27
-8.05
-9.94
-11.71
-13.22
-14.41
-15.51
-16.86
-18.74
-21.04
-23.04
-23.53
-21.23
-15.39
-6.29
4.78
15.89
25.21
31.62
34.89
35.50
34.20
31.58
27.92
23.28
17.83
11.91
6.08
0.90
-3.26
-6.31
-8.38
-9.71
-10.50
-10.90
-11.00
-10.94
-10.91
-11.07
-11.48
-11.97
-12.21
-11.83
-10.62
-8.62
-6.06
-3.28
-0.53
2.11
4.69
7.31
9.98
12.61
15.00
16.90
18.10
18.42
17.84
16.46
14.58
12.58
10.85
9.63
8.95
8.60
8.30
7.78
6.90
5.64
4.11
2.41
0.65
-1.13
-2.92
-4.78
-6.81
-9.20
-12.08
-15.48
-19.20
-22.86
-25.91
-27.84
-28.31
-27.30
-25.09
-22.21
-19.18
-16.46
-14.26
-12.53
-11.04
-9.46
-7.57
-5.37
-3.09
-1.07
0.42
1.29
1.67
1.79
1.91
2.18
2.60
3.14
3.68
4.11
4.27
4.03
3.28
2.03
0.44
-1.25
-2.78
-4.08
-5.24
-6.54
-8.28
-10.65
-13.66
-17.11
-20.61
-23.65
-25.73
-26.54
-25.98
-24.21
-21.58
-18.48
-15.29
-12.31
-9.74
-7.63
-5.91
-4.41
-2.92
-1.32
0.34
1.91
3.17
3.98
4.38
4.54
4.71
5.05
5.61
6.30
6.98
7.56
7.94
8.06
7.90
7.46
6.83
6.10
5.35
4.55
3.52
2.05
0.00
-2.54
-5.26
-7.70
-9.37
-10.00
-9.59
-8.40
-6.86
-5.37
-4.17
-3.33
-2.76
-2.30
-1.84
-1.27
-0.53
0.44
1.76
3.49
5.62
8.02
10.42
12.51
14.07
15.01
15.43
15.51
15.44
15.31
15.12
14.84
14.42
13.87
13.23
12.51
11.71
10.75
9.61
8.30
6.99
5.89
5.25
5.21
5.79
6.83
8.10
9.42
10.70
11.96
13.30
14.73
16.15
17.35
18.15
18.46
18.42
18.23
18.08
17.96
17.71
17.13
16.13
14.84
13.51
12.38
11.47
10.68
9.79
8.65
7.27
5.72
4.06
2.28
0.36
-1.62
-3.39
-4.60
-4.96
-4.36
-2.99
-1.19
0.73
2.59
4.42
6.34
8.41
10.58
12.63
14.31
15.40
15.84
15.70
15.12
14.28
13.30
12.20
11.00
9.68
8.29
6.90
5.60
4.41
3.31
2.13
0.66
-1.32
-3.91
-7.11
-10.69
-14.31
-17.53
-19.94
-21.25
-21.34
-20.26
-18.25
-15.68
-12.97
-10.48
-8.41
-6.80
-5.50
-4.31
-3.08
-1.74
-0.36
0.91
1.96
2.70
3.11
3.20
2.98
2.48
1.73
0.78
-0.32
-1.51
-2.76
-4.05
-5.36
-6.71
-8.18
-9.93
-12.17
-15.04
-18.44
-22.01
-25.18
-27.34
-28.07
-27.30
-25.31
-22.64
-19.80
-17.19
-14.97
-13.08
-11.40
-9.76
-8.16
-6.68
-5.48
-4.66
-4.23
-4.01
-3.78
-3.35
-2.70
-2.05
-1.67
-1.82
-2.55
-3.67
-4.87
-5.85
-6.50
-6.86
-7.13
-7.50
-8.11
-9.01
-10.25
-11.81
-13.62
-15.46
-16.95
-17.62
-17.04
-15.10
-12.02
-8.35
-4.76
-1.75
0.48
2.12
3.59
5.24
7.25
9.48
11.63
13.39
14.59
15.30
15.76
16.19
16.67
17.14
17.36
17.15
16.43
15.30
13.94
12.56
11.25
10.02
8.84
7.63
6.32
4.81
2.93
0.53
-2.43
-5.73
-8.88
-11.26
-12.28
-11.71
-9.70
-6.78
-3.63
-0.80
1.37
2.82
3.70
4.24
4.70
5.33
6.33
7.79
9.64
11.67
13.57
15.09
16.07
16.48
16.37
15.80
14.86
13.65
12.36
11.15
10.15
9.33
8.55
7.53
6.05
3.99
1.41
-1.50
-4.49
-7.29
-9.66
-11.35
-12.16
-11.92
-10.58
-8.27
-5.32
-2.15
0.83
3.34
5.32
6.88
8.15
9.19
9.97
10.40
10.50
10.44
10.48
10.81
11.39
11.92
12.07
11.60
10.55
9.15
7.68
6.32
5.12
3.98
2.76
1.36
-0.38
-2.60
-5.46
-8.94
-12.76
-16.36
-19.05
-20.30
-19.95
-18.30
-15.90
-13.34
-10.96
-8.83
-6.82
-4.71
-2.38
0.10
2.56
4.80
6.73
8.37
9.85
11.28
12.67
13.91
14.80
15.18
15.04
14.46
13.60
12.59
11.43
10.07
8.38
6.40
4.25
2.14
0.22
-1.52
-3.24
-5.21
-7.64
-10.54
-13.65
-16.48
-18.49
-19.25
-18.65
-16.85
-14.31
-11.56
-9.08
-7.10
-5.65
-4.56
-3.59
-2.52
-1.24
0.18
1.58
2.68
3.30
3.38
3.04
2.51
2.07
1.90
1.98
2.17
2.23
2.00
1.44
0.63
-0.32
-1.38
-2.58
-3.95
-5.42
-6.81
-8.01
-9.03
-10.15
-11.77
-14.19
-17.32
-20.61
-23.21
-24.31
-23.54
-21.11
-17.67
-13.97
-10.57
-7.65
-5.10
-2.77
-0.58
1.42
3.15
4.67
6.20
8.00
10.17
12.54
14.71
16.21
16.74
16.32
15.28
14.09
13.13
12.62
12.43
12.28
11.80
10.80
9.32
7.64
6.07
4.80
3.73
2.55
0.91
-1.37
-4.20
-7.28
-10.17
-12.51
-14.06
-14.69
-14.37
-13.18
-11.24
-8.80
-6.17
-3.67
-1.47
0.35
1.91
3.37
4.91
6.60
8.39
10.08
11.43
12.28
12.64
12.67
12.59
12.56
12.59
12.56
12.29
11.70
10.81
9.75
8.62
7.47
6.21
4.74
2.95
0.86
-1.46
-3.92
-6.43
-8.90
-11.16
-12.94
-13.89
-13.75
-12.50
-10.36
-7.78
-5.21
-2.91
-0.88
1.05
3.06
5.18
7.30
9.15
10.54
11.40
11.80
11.94
12.04
12.29
12.74
13.29
13.71
13.76
13.27
12.23
10.80
9.23
7.70
6.28
4.90
3.41
1.72
-0.21
-2.39
-4.84
-7.62
-10.73
-14.02
-17.12
-19.53
-20.74
-20.46
-18.65
-15.60
-11.85
-7.98
-4.50
-1.70
0.37
1.88
3.06
4.16
5.32
6.51
7.65
8.61
9.30
9.73
9.95
10.05
10.14
10.28
10.49
10.73
10.87
10.73
10.14
9.00
7.33
5.29
3.14
1.11
-0.65
-2.13
-3.41
-4.67
-6.08
-7.82
-9.95
-12.45
-15.11
-17.58
-19.40
-20.16
-19.64
-17.90
-15.29
-12.30
-9.39
-6.88
-4.80
-3.05
-1.45
0.15
1.78
3.41
4.97
6.34
7.47
8.30
8.80
9.02
9.03
8.93
8.84
8.79
8.74
8.57
8.16
7.40
6.25
4.77
3.08
1.28
-0.51
-2.25
-3.94
-5.64
-7.44
-9.43
-11.69
-14.21
-16.82
-19.21
-20.97
-21.73
-21.29
-19.69
-17.25
-14.43
-11.63
-9.17
-7.14
-5.48
-4.13
-2.99
-2.00
-1.10
-0.18
0.86
2.04
3.34
4.60
5.64
6.30
6.56
6.50
6.33
6.28
6.43
6.77
7.09
7.18
6.84
6.02
4.81
3.41
1.95
0.53
-0.92
-2.47
-4.20
-6.09
-8.08
-10.07
-11.96
-13.61
-14.82
-15.33
-14.94
-13.54
-11.24
-8.37
-5.37
-2.66
-0.49
1.16
2.44
3.58
4.76
6.00
7.21
8.22
8.90
9.20
9.22
9.12
9.10
9.21
9.41
9.54
9.41
8.91
8.03
6.90
5.69
4.51
3.36
2.12
0.58
-1.43
-3.98
-6.95
-10.04
-12.84
-14.97
-16.15
-16.26
-15.35
-13.60
-11.30
-8.75
-6.29
-4.11
-2.27
-0.65
0.94
2.62
4.38
6.04
7.41
8.36
8.97
9.44
10.01
10.80
11.74
12.53
12.87
12.56
11.61
10.22
8.68
7.20
5.84
4.51
3.08
1.43
-0.48
-2.66
-5.09
-7.75
-10.56
-13.33
-15.68
-17.17
-17.40
-16.26
-13.91
-10.79
-7.45
-4.36
-1.80
0.15
1.57
2.64
3.52
4.34
5.13
5.91
6.66
7.40
8.08
8.68
9.10
9.25
9.05
8.52
7.76
6.88
5.97
5.00
3.89
2.56
0.98
-0.78
-2.67
-4.65
-6.76
-9.12
-11.75
-14.53
-17.20
-19.31
-20.45
-20.37
-19.06
-16.76
-13.93
-11.03
-8.42
-6.23
-4.37
-2.66
-0.96
0.76
2.35
3.67
4.60
5.20
5.60
6.02
6.56
7.22
7.90
8.48
8.84
8.95
8.75
8.21
7.32
6.07
4.55
2.95
1.46
0.19
-0.93
-2.16
-3.83
-6.15
-9.09
-12.30
-15.27
-17.42
-18.37
-17.98
-16.38
-13.91
-10.99
-8.03
-5.37
-3.20
-1.55
-0.33
0.62
1.43
2.17
2.85
3.44
3.96
4.42
4.83
5.14
5.30
5.27
5.04
4.67
4.22
3.72
3.13
2.45
1.71
1.00
0.42
-0.05
-0.51
-1.13
-2.09
-3.46
-5.23
-7.35
-9.76
-12.37
-15.00
-17.35
-18.98
-19.45
-18.49
-16.14
-12.76
-8.92
-5.22
-2.07
0.40
2.32
3.97
5.59
7.32
9.11
10.84
12.31
13.41
14.11
14.47
14.58
14.54
14.40
14.16
13.83
13.38
12.79
12.07
11.17
10.09
8.84
7.51
6.20
5.01
3.92
2.78
1.30
-0.77
-3.52
-6.77
-10.16
-13.17
-15.33
-16.29
-15.94
-14.43
-12.12
-9.47
-6.94
-4.80
-3.10
-1.66
-0.28
1.24
2.85
4.39
5.66
6.51
6.98
7.25
7.54
7.98
8.57
9.21
9.75
10.06
10.06
9.75
9.18
8.41
7.49
6.44
5.29
4.02
2.64
1.12
-0.59
-2.50
-4.59
-6.74
-8.73
-10.25
-11.00
-10.73
-9.42
-7.23
-4.51
-1.72
0.75
2.67
4.02
4.96
5.75
6.61
7.67
8.92
10.26
11.56
12.64
13.41
13.79
13.79
13.49
13.01
12.48
12.04
11.72
11.48
11.22
10.80
10.10
9.06
7.68
6.03
4.20
2.36
0.58
-1.12
-2.88
-4.86
-7.19
-9.81
-12.45
-14.66
-15.96
-16.05
-14.85
-12.58
-9.62
-6.44
-3.42
-0.81
1.33
3.03
4.43
5.67
6.87
8.09
9.31
10.47
11.49
12.30
12.82
13.00
12.87
12.47
11.90
11.28
10.69
10.17
9.63
8.97
8.07
6.89
5.49
3.99
2.53
1.23
0.12
-0.86
-1.84
-2.99
-4.49
-6.46
-8.91
-11.66
-14.38
-16.60
-17.89
-17.96
-16.78
-14.61
-11.90
-9.15
-6.71
-4.76
-3.31
-2.25
-1.40
-0.61
0.27
1.32
2.54
3.79
4.88
5.62
5.94
5.91
5.71
5.53
5.50
5.60
5.75
5.84
5.79
5.52
4.95
4.01
2.61
0.79
-1.29
-3.39
-5.25
-6.72
-7.84
-8.83
-10.03
-11.67
-13.86
-16.39
-18.95
-21.11
-22.56
-23.14
-22.82
-21.75
-20.10
-18.10
-15.93
-13.79
-11.85
-10.23
-8.95
-7.92
-6.99
-5.96
-4.69
-3.14
-1.42
0.28
1.72
2.74
3.25
3.33
3.18
3.03
3.08
3.33
3.67
3.91
3.88
3.55
2.95
2.21
1.42
0.61
-0.21
-1.08
-1.98
-2.99
-4.17
-5.62
-7.39
-9.35
-11.19
-12.51
-12.98
-12.49
-11.16
-9.27
-7.10
-4.86
-2.73
-0.77
0.97
2.54
3.96
5.28
6.50
7.58
8.48
9.15
9.57
9.79
9.86
9.79
9.61
9.28
8.84
8.32
7.77
7.20
6.58
5.82
4.87
3.71
2.38
0.97
-0.44
-1.79
-3.07
-4.31
-5.59
-6.93
-8.35
-9.78
-11.10
-12.09
-12.49
-12.03
-10.61
-8.30
-5.43
-2.54
-0.15
1.44
2.29
2.74
3.27
4.21
5.59
7.12
8.40
9.15
9.36
9.27
9.21
9.37
9.73
10.11
10.26
10.05
9.42
8.41
7.08
5.47
3.62
1.64
-0.32
-2.11
-3.72
-5.28
-7.00
-9.06
-11.41
-13.82
-15.80
-16.90
-16.80
-15.47
-13.19
-10.43
-7.70
-5.35
-3.50
-2.06
-0.77
0.61
2.20
3.97
5.71
7.21
8.26
8.84
9.09
9.20
9.36
9.62
9.91
10.09
10.00
9.63
9.03
8.32
7.57
6.79
5.95
5.01
3.99
2.95
1.86
0.61
-1.05
-3.31
-6.16
-9.23
-11.87
-13.41
-13.39
-11.85
-9.22
-6.17
-3.36
-1.16
0.36
1.38
2.18
3.01
3.99
5.13
6.31
7.35
8.09
8.43
8.42
8.21
7.99
7.84
7.75
7.62
7.36
6.93
6.33
5.61
4.78
3.78
2.51
0.94
-0.85
-2.74
-4.63
-6.56
-8.63
-10.97
-13.56
-16.15
-18.30
-19.54
-19.57
-18.41
-16.37
-13.97
-11.71
-9.96
-8.79
-8.03
-7.36
-6.48
-5.25
-3.73
-2.20
-0.93
-0.06
0.44
0.82
1.30
2.00
2.77
3.39
3.65
3.56
3.31
3.17
3.24
3.36
3.22
2.54
1.26
-0.35
-1.92
-3.15
-4.06
-4.96
-6.22
-8.02
-10.15
-12.13
-13.35
-13.45
-12.40
-10.52
-8.25
-5.95
-3.77
-1.65
0.47
2.63
4.70
6.48
7.84
8.80
9.50
10.14
10.86
11.64
12.38
12.90
13.08
12.82
12.16
11.20
10.13
9.14
8.36
7.77
7.20
6.43
5.27
3.68
1.77
-0.25
-2.18
-3.89
-5.39
-6.70
-7.79
-8.53
-8.73
-8.23
-7.06
-5.40
-3.54
-1.77
-0.22
1.12
2.37
3.64
4.91
6.04
6.84
7.16
7.05
6.70
6.40
6.33
6.52
6.83
7.00
6.86
6.35
5.61
4.83
4.21
3.85
3.67
3.45
2.92
1.84
0.12
-2.12
-4.57
-6.81
-8.39
-9.05
-8.76
-7.69
-6.18
-4.55
-3.00
-1.58
-0.25
1.10
2.53
4.04
5.62
7.16
8.60
9.82
10.75
11.38
11.74
11.86
11.77
11.46
10.88
10.05
9.01
7.94
7.01
6.36
5.98
5.70
5.25
4.30
2.68
0.32
-2.58
-5.69
-8.55
-10.74
-11.94
-12.03
-11.11
-9.49
-7.53
-5.54
-3.72
-2.10
-0.60
0.86
2.31
3.71
4.92
5.86
6.51
6.89
7.10
7.25
7.39
7.57
7.75
7.86
7.83
7.60
7.16
6.58
5.97
5.45
5.04
4.66
4.11
3.18
1.74
-0.22
-2.52
-4.87
-6.93
-8.34
-8.86
-8.34
-6.72
-4.07
-0.54
3.58
7.90
11.99
15.47
18.08
19.78
20.66
20.91
20.70
20.14
19.31
18.32
17.34
16.55
16.10
15.96
15.94
15.82
15.47
14.99
14.61
14.56
14.86
15.27
15.36
14.73
13.15
10.68
7.61
4.26
0.87
-2.39
-5.43
-8.13
-10.28
-11.70
-12.22
-11.87
-10.86
-9.50
-8.13
-6.95
-6.03
-5.25
-4.43
-3.47
-2.43
-1.52
-1.04
-1.21
-2.08
-3.50
-5.23
-7.03
-8.73
-10.31
-11.74
-12.97
-13.87
-14.30
-14.18
-13.58
-12.75
-11.97
-11.47
-11.35
-11.60
-12.17
-13.03
-14.14
-15.39
-16.57
-17.40
-17.61
-17.15
-16.14
-14.89
-13.74
-12.88
-12.40
-12.27
-12.43
-12.85
-13.50
-14.29
-15.09
-15.68
-15.94
-15.82
-15.39
-14.73
-13.91
-12.95
-11.85
-10.61
-9.27
-7.92
-6.64
-5.49
-4.49
-3.61
-2.87
-2.29
-1.99
-2.11
-2.70
-3.64
-4.62
-5.17
-4.88
-3.52
-1.27
1.44
4.09
6.30
7.98
9.30
10.51
11.75
12.96
13.92
14.40
14.30
13.72
12.90
12.12
11.55
11.22
11.03
10.75
10.17
9.12
7.61
5.78
3.86
2.13
0.73
-0.29
-1.08
-1.84
-2.81
-4.18
-6.01
-8.21
-10.48
-12.44
-13.60
-13.66
-12.55
-10.52
-8.07
-5.76
-3.95
-2.73
-1.85
-0.98
0.16
1.62
3.23
4.70
5.78
6.37
6.55
6.51
6.44
6.52
6.77
7.12
7.43
7.51
7.18
6.37
5.11
3.56
1.93
0.37
-1.05
-2.37
-3.69
-5.12
-6.69
-8.36
-9.96
-11.28
-12.09
-12.20
-11.55
-10.25
-8.60
-6.92
-5.50
-4.43
-3.55
-2.64
-1.49
-0.08
1.44
2.77
3.66
4.00
3.84
3.42
2.95
2.57
2.29
2.02
1.62
0.98
0.05
-1.12
-2.46
-3.88
-5.32
-6.69
-7.93
-8.98
-9.86
-10.69
-11.67
-13.01
-14.76
-16.66
-18.26
-19.04
-18.63
-16.99
-14.44
-11.49
-8.65
-6.26
-4.38
-2.90
-1.56
-0.16
1.39
3.03
4.62
5.95
6.90
7.45
7.71
7.87
8.09
8.43
8.82
9.13
9.19
8.92
8.35
7.62
6.90
6.30
5.88
5.53
5.09
4.35
3.14
1.42
-0.69
-2.89
-4.79
-6.03
-6.34
-5.69
-4.18
-2.14
0.09
2.14
3.76
4.87
5.52
5.89
6.17
6.44
6.72
6.87
6.83
6.60
6.33
6.21
6.33
6.62
6.87
6.81
6.32
5.44
4.41
3.47
2.75
2.26
1.86
1.44
0.93
0.29
-0.53
-1.63
-3.08
-4.83
-6.58
-7.87
-8.20
-7.30
-5.29
-2.66
-0.06
1.97
3.20
3.74
3.91
4.07
4.39
4.89
5.45
5.96
6.35
6.63
6.81
6.86
6.74
6.37
5.72
4.86
3.96
3.16
2.57
2.18
1.88
1.51
0.91
0.00
-1.25
-2.83
-4.66
-6.61
-8.51
-10.11
-11.18
-11.51
-11.04
-9.83
-8.07
-6.06
-4.11
-2.46
-1.19
-0.23
0.59
1.47
2.49
3.55
4.45
4.94
4.93
4.54
4.04
3.72
3.73
4.02
4.35
4.46
4.20
3.59
2.80
1.99
1.29
0.68
0.08
-0.63
-1.54
-2.67
-4.04
-5.56
-7.09
-8.39
-9.18
-9.22
-8.46
-7.02
-5.18
-3.26
-1.54
-0.17
0.88
1.68
2.35
2.98
3.62
4.27
4.91
5.49
5.96
6.27
6.44
6.48
6.44
6.33
6.13
5.79
5.27
4.58
3.76
2.91
2.11
1.44
0.88
0.37
-0.25
-1.13
-2.38
-4.01
-5.91
-7.87
-9.59
-10.77
-11.12
-10.54
-9.09
-7.04
-4.76
-2.63
-0.90
0.37
1.29
2.11
3.04
4.20
5.57
7.05
8.52
9.90
11.16
12.30
13.33
14.21
14.89
15.30
15.44
15.33
15.08
14.79
14.56
14.41
14.26
14.02
13.58
12.89
11.99
10.89
9.60
8.05
6.18
4.07
1.96
0.24
-0.71
-0.68
0.24
1.70
3.23
4.49
5.34
5.89
6.37
6.96
7.69
8.39
8.85
8.89
8.49
7.83
7.16
6.71
6.56
6.60
6.63
6.47
6.06
5.42
4.63
3.74
2.77
1.73
0.60
-0.60
-1.85
-3.22
-4.79
-6.65
-8.76
-10.89
-12.70
-13.79
-13.89
-13.01
-11.42
-9.53
-7.81
-6.52
-5.69
-5.13
-4.57
-3.78
-2.68
-1.45
-0.30
0.54
1.02
1.24
1.35
1.52
1.73
1.92
1.95
1.78
1.46
1.06
0.71
0.39
0.05
-0.40
-1.01
-1.82
-2.86
-4.21
-5.94
-8.03
-10.32
-12.42
-13.88
-14.36
-13.75
-12.29
-10.39
-8.56
-7.08
-6.05
-5.29
-4.56
-3.69
-2.63
-1.49
-0.45
0.36
0.90
1.23
1.47
1.72
2.01
2.28
2.39
2.17
1.52
0.50
-0.72
-1.91
-2.85
-3.45
-3.77
-4.00
-4.41
-5.17
-6.40
-8.01
-9.79
-11.40
-12.50
-12.85
-12.33
-11.05
-9.28
-7.35
-5.54
-3.98
-2.69
-1.57
-0.50
0.62
1.78
2.93
3.89
4.49
4.61
4.22
3.45
2.57
1.84
1.45
1.42
1.61
1.83
1.97
1.97
1.87
1.67
1.35
0.80
-0.01
-1.04
-2.20
-3.36
-4.51
-5.75
-7.18
-8.82
-10.47
-11.80
-12.42
-12.12
-10.98
-9.30
-7.57
-6.18
-5.35
-5.02
-4.88
-4.59
-3.86
-2.63
-1.08
0.47
1.71
2.47
2.82
2.94
3.03
3.19
3.40
3.54
3.51
3.25
2.76
2.08
1.26
0.35
-0.55
-1.38
-2.11
-2.83
-3.69
-4.85
-6.37
-8.17
-10.01
-11.53
-12.41
-12.44
-11.59
-10.02
-8.02
-5.92
-4.00
-2.40
-1.10
0.02
1.07
2.13
3.14
3.99
4.56
4.84
4.91
4.94
5.08
5.39
5.76
6.01
5.91
5.33
4.31
3.05
1.82
0.82
0.14
-0.32
-0.76
-1.43
-2.52
-4.07
-6.06
-8.35
-10.72
-12.89
-14.49
-15.18
-14.72
-13.09
-10.57
-7.65
-4.92
-2.81
-1.49
-0.79
-0.36
0.16
0.97
2.03
3.10
3.96
4.47
4.69
4.75
4.76
4.69
4.37
3.59
2.20
0.23
-2.07
-4.39
-6.46
-8.21
-9.74
-11.27
-13.01
-15.06
-17.44
-20.10
-22.97
-26.01
-29.07
-31.89
-34.09
-35.27
-35.17
-33.83
-31.60
-28.94
-26.31
-23.93
-21.75
-19.58
-17.19
-14.50
-11.59
-8.65
-5.90
-3.46
-1.36
0.51
2.24
3.96
5.70
7.45
9.14
10.69
12.02
13.11
13.95
14.54
14.90
15.07
15.09
14.99
14.76
14.36
13.70
12.71
11.37
9.80
8.20
6.88
6.16
6.27
7.25
8.93
10.94
12.86
14.36
15.27
15.63
15.68
15.67
15.78
16.09
16.49
16.82
16.95
16.78
16.36
15.79
15.16
14.55
13.99
13.42
12.76
11.93
10.89
9.66
8.32
6.93
5.56
4.20
2.76
1.18
-0.62
-2.62
-4.75
-6.87
-8.87
-10.60
-11.92
-12.63
-12.53
-11.56
-9.79
-7.49
-5.07
-2.90
-1.17
0.11
1.13
2.16
3.43
5.05
6.97
8.98
10.77
12.02
12.58
12.49
12.03
11.63
11.64
12.15
12.99
13.84
14.37
14.39
13.92
13.03
11.87
10.52
9.11
7.77
6.63
5.77
5.16
4.60
3.83
2.72
1.40
0.21
-0.38
-0.05
1.20
3.00
4.78
5.96
6.26
5.78
5.00
4.47
4.60
5.47
6.82
8.22
9.31
9.94
10.13
10.00
9.65
9.07
8.21
7.06
5.68
4.24
2.98
2.09
1.62
1.48
1.43
1.17
0.43
-0.89
-2.74
-4.92
-7.21
-9.38
-11.27
-12.73
-13.56
-13.59
-12.70
-10.94
-8.54
-5.89
-3.37
-1.27
0.28
1.31
1.95
2.40
2.86
3.44
4.16
4.91
5.51
5.83
5.86
5.66
5.32
4.89
4.27
3.37
2.18
0.85
-0.32
-1.05
-1.22
-1.01
-0.80
-1.00
-1.89
-3.50
-5.63
-7.97
-10.17
-11.95
-13.06
-13.32
-12.67
-11.23
-9.30
-7.26
-5.49
-4.12
-3.06
-2.08
-0.91
0.53
2.10
3.56
4.65
5.29
5.56
5.61
5.60
5.55
5.44
5.18
4.77
4.30
3.89
3.65
3.57
3.54
3.41
3.09
2.55
1.82
0.93
-0.19
-1.64
-3.53
-5.80
-8.18
-10.27
-11.63
-12.00
-11.39
-10.07
-8.42
-6.80
-5.42
-4.29
-3.34
-2.44
-1.49
-0.44
0.73
1.95
3.08
3.88
4.18
3.92
3.22
2.38
1.68
1.31
1.27
1.40
1.53
1.50
1.25
0.80
0.15
-0.60
-1.38
-2.11
-2.72
-3.28
-3.94
-4.95
-6.48
-8.50
-10.77
-12.89
-14.44
-15.15
-15.00
-14.13
-12.76
-11.16
-9.55
-8.13
-7.02
-6.31
-5.91
-5.60
-5.09
-4.15
-2.76
-1.11
0.42
1.53
2.11
2.29
2.37
2.64
3.24
4.11
5.01
5.69
5.92
5.65
4.94
4.00
3.05
2.33
1.96
1.95
2.19
2.45
2.50
2.14
1.31
0.11
-1.20
-2.26
-2.73
-2.35
-1.12
0.76
2.87
4.79
6.18
6.97
7.30
7.43
7.68
8.16
8.86
9.63
10.27
10.69
10.89
10.96
10.96
10.96
10.93
10.82
10.60
10.29
9.95
9.64
9.40
9.19
8.91
8.42
7.59
6.30
4.55
2.40
-0.00
-2.47
-4.78
-6.73
-8.14
-8.92
-9.02
-8.51
-7.55
-6.37
-5.20
-4.20
-3.41
-2.71
-1.95
-1.04
-0.04
0.90
1.58
1.91
1.93
1.80
1.72
1.79
2.00
2.28
2.50
2.52
2.29
1.77
0.98
0.00
-1.10
-2.23
-3.32
-4.35
-5.35
-6.37
-7.45
-8.61
-9.84
-11.02
-11.98
-12.47
-12.29
-11.37
-9.85
-8.01
-6.24
-4.77
-3.59
-2.51
-1.26
0.28
2.00
3.56
4.64
5.07
4.97
4.68
4.56
4.78
5.24
5.61
5.55
4.89
3.71
2.34
1.18
0.49
0.29
0.37
0.36
-0.08
-1.12
-2.80
-4.96
-7.37
-9.78
-11.93
-13.54
-14.41
-14.43
-13.60
-12.09
-10.14
-8.06
-6.10
-4.44
-3.15
-2.13
-1.21
-0.21
1.04
2.48
3.97
5.27
6.20
6.71
6.89
6.92
6.93
6.96
6.93
6.71
6.27
5.62
4.89
4.15
3.46
2.73
1.91
0.88
-0.37
-1.85
-3.53
-5.35
-7.22
-8.99
-10.44
-11.30
-11.41
-10.74
-9.45
-7.85
-6.25
-4.86
-3.67
-2.59
-1.45
-0.16
1.25
2.61
3.77
4.61
5.12
5.38
5.50
5.56
5.58
5.58
5.55
5.49
5.39
5.20
4.90
4.47
3.93
3.35
2.82
2.36
1.91
1.35
0.54
-0.60
-2.08
-3.85
-5.84
-7.94
-9.99
-11.77
-13.00
-13.44
-12.99
-11.72
-9.91
-7.88
-5.91
-4.10
-2.40
-0.67
1.24
3.38
5.64
7.86
9.84
11.43
12.55
13.22
13.56
13.71
13.81
13.95
14.15
14.39
14.61
14.77
14.82
14.70
14.32
13.54
12.30
10.59
8.57
6.50
4.60
2.96
1.45
-0.15
-1.98
-3.95
-5.70
-6.78
-6.86
-5.89
-4.16
-2.18
-0.42
0.86
1.69
2.27
2.86
3.56
4.38
5.16
5.78
6.19
6.43
6.66
6.99
7.44
7.95
8.33
8.45
8.20
7.59
6.73
5.77
4.85
4.03
3.34
2.74
2.13
1.36
0.28
-1.20
-3.07
-5.13
-7.07
-8.52
-9.14
-8.79
-7.51
-5.58
-3.38
-1.31
0.35
1.52
2.31
2.98
3.75
4.72
5.83
6.86
7.58
7.88
7.82
7.61
7.44
7.47
7.70
8.01
8.23
8.19
7.81
7.11
6.19
5.17
4.15
3.19
2.27
1.37
0.41
-0.67
-1.93
-3.42
-5.14
-7.02
-8.89
-10.48
-11.45
-11.52
-10.57
-8.69
-6.18
-3.50
-1.07
0.80
2.00
2.68
3.05
3.38
3.84
4.48
5.23
5.99
6.63
7.05
7.24
7.21
7.07
6.88
6.74
6.65
6.57
6.41
6.09
5.57
4.89
4.13
3.36
2.65
1.98
1.26
0.37
-0.82
-2.39
-4.31
-6.43
-8.40
-9.82
-10.29
-9.62
-7.92
-5.57
-3.15
-1.16
0.15
0.85
1.25
1.70
2.47
3.57
4.87
6.14
7.20
7.89
8.22
8.23
7.99
7.61
7.18
6.74
6.29
5.77
5.10
4.24
3.19
2.01
0.78
-0.43
-1.61
-2.80
-4.03
-5.36
-6.85
-8.46
-10.19
-11.92
-13.47
-14.62
-15.13
-14.83
-13.75
-12.07
-10.13
-8.30
-6.84
-5.84
-5.20
-4.72
-4.16
-3.37
-2.37
-1.28
-0.29
0.46
0.97
1.32
1.65
2.04
2.45
2.80
3.01
3.08
3.06
3.06
3.12
3.19
3.16
2.95
2.50
1.88
1.17
0.43
-0.31
-1.11
-2.06
-3.28
-4.80
-6.57
-8.38
-9.89
-10.75
-10.66
-9.61
-7.84
-5.78
-3.88
-2.47
-1.54
-0.88
-0.17
0.84
2.17
3.64
4.94
5.82
6.17
6.11
5.84
5.62
5.62
5.85
6.18
6.45
6.49
6.24
5.75
5.12
4.46
3.80
3.15
2.42
1.53
0.38
-1.13
-3.03
-5.27
-7.61
-9.73
-11.23
-11.82
-11.44
-10.28
-8.68
-7.01
-5.55
-4.39
-3.49
-2.78
-2.18
-1.62
-1.07
-0.53
0.01
0.48
0.82
1.00
1.06
1.07
1.09
1.14
1.14
0.99
0.62
0.06
-0.55
-1.06
-1.41
-1.68
-2.04
-2.70
-3.78
-5.24
-6.93
-8.62
-10.10
-11.20
-11.83
-11.91
-11.39
-10.25
-8.62
-6.68
-4.76
-3.12
-1.93
-1.13
-0.53
0.14
1.08
2.31
3.72
5.09
6.26
7.12
7.70
8.09
8.36
8.54
8.55
8.29
7.70
6.86
5.88
4.97
4.30
3.89
3.63
3.28
2.61
1.44
-0.20
-2.17
-4.18
-5.92
-7.17
-7.78
-7.71
-7.00
-5.76
-4.15
-2.42
-0.78
0.56
1.54
2.21
2.70
3.19
3.77
4.46
5.19
5.91
6.55
7.08
7.45
7.66
7.71
7.63
7.46
7.22
6.86
6.33
5.51
4.41
3.12
1.78
0.59
-0.36
-1.11
-1.83
-2.70
-3.94
-5.60
-7.61
-9.77
-11.77
-13.23
-13.86
-13.48
-12.12
-10.03
-7.59
-5.28
-3.44
-2.20
-1.44
-0.88
-0.25
0.62
1.71
2.87
3.93
4.77
5.37
5.71
5.83
5.75
5.52
5.22
4.93
4.71
4.54
4.36
4.04
3.48
2.69
1.72
0.64
-0.45
-1.56
-2.69
-3.89
-5.27
-6.90
-8.84
-10.97
-13.07
-14.76
-15.65
-15.50
-14.27
-12.17
-9.58
-6.89
-4.47
-2.50
-1.08
-0.13
0.48
1.00
1.64
2.54
3.72
5.03
6.25
7.20
7.74
7.90
7.77
7.46
7.05
6.58
6.07
5.52
4.94
4.35
3.76
3.16
2.50
1.73
0.85
-0.14
-1.21
-2.35
-3.59
-4.96
-6.51
-8.13
-9.63
-10.72
-11.08
-10.56
-9.17
-7.11
-4.74
-2.40
-0.38
1.22
2.42
3.35
4.17
4.97
5.76
6.42
6.80
6.79
6.47
5.97
5.54
5.29
5.21
5.16
4.96
4.53
3.89
3.14
2.35
1.55
0.72
-0.15
-1.08
-2.06
-3.11
-4.29
-5.66
-7.23
-8.91
-10.49
-11.66
-12.17
-11.87
-10.77
-9.10
-7.15
-5.26
-3.66
-2.40
-1.40
-0.47
0.53
1.67
2.88
4.05
5.10
5.98
6.71
7.35
7.95
8.53
9.09
9.55
9.82
9.84
9.58
9.08
8.47
7.86
7.33
6.86
6.35
5.66
4.69
3.40
1.84
0.11
-1.63
-3.18
-4.34
-4.94
-4.84
-4.02
-2.57
-0.65
1.49
3.62
5.54
7.17
8.56
9.82
11.08
12.43
13.89
15.48
17.17
18.89
20.52
21.76
22.28
21.75
20.05
17.32
13.91
10.29
6.81
3.68
0.90
-1.62
-3.95
-6.19
-8.35
-10.48
-12.61
-14.80
-17.13
-19.60
-22.15
-24.58
-26.58
-27.79
-27.93
-26.92
-24.98
-22.52
-20.00
-17.74
-15.84
-14.13
-12.32
-10.22
-7.82
-5.32
-3.05
-1.33
-0.28
0.22
0.46
0.77
1.36
2.22
3.18
3.99
4.47
4.57
4.34
3.92
3.44
2.94
2.38
1.72
0.90
-0.11
-1.27
-2.59
-4.06
-5.68
-7.42
-9.08
-10.41
-11.10
-10.94
-9.93
-8.32
-6.52
-4.92
-3.75
-3.03
-2.53
-1.98
-1.16
-0.00
1.38
2.77
3.96
4.79
5.23
5.39
5.40
5.39
5.42
5.46
5.46
5.38
5.20
4.96
4.68
4.36
3.95
3.38
2.59
1.58
0.36
-1.05
-2.66
-4.48
-6.48
-8.51
-10.33
-11.68
-12.32
-12.16
-11.25
-9.75
-7.89
-5.92
-4.06
-2.41
-0.99
0.29
1.53
2.77
3.96
4.92
5.53
5.77
5.79
5.83
6.04
6.44
6.84
7.00
6.72
5.98
4.94
3.90
3.10
2.63
2.43
2.27
1.91
1.14
-0.05
-1.55
-3.18
-4.78
-6.26
-7.57
-8.58
-9.16
-9.15
-8.47
-7.24
-5.68
-4.12
-2.82
-1.87
-1.19
-0.62
-0.01
0.73
1.55
2.33
2.97
3.39
3.62
3.77
3.97
4.27
4.60
4.83
4.79
4.43
3.82
3.12
2.51
2.12
1.93
1.84
1.65
1.20
0.41
-0.72
-2.04
-3.29
-4.13
-4.25
-3.48
-1.89
0.26
2.58
4.71
6.45
7.79
8.81
9.66
10.40
10.94
11.16
10.98
10.45
9.76
9.17
8.89
8.94
9.20
9.37
9.19
8.52
7.38
5.99
4.64
3.55
2.76
2.17
1.53
0.61
-0.74
-2.53
-4.66
-6.94
-9.14
-11.03
-12.35
-12.88
-12.46
-11.10
-9.06
-6.72
-4.53
-2.79
-1.57
-0.67
0.23
1.39
2.90
4.60
6.20
7.35
7.90
7.88
7.56
7.21
7.01
6.94
6.81
6.42
5.69
4.69
3.65
2.79
2.16
1.65
1.04
0.09
-1.32
-3.14
-5.24
-7.45
-9.66
-11.81
-13.84
-15.62
-16.95
-17.58
-17.34
-16.25
-14.51
-12.47
-10.43
-8.59
-6.92
-5.29
-3.58
-1.84
-0.22
1.06
1.90
2.35
2.58
2.82
3.21
3.69
4.15
4.45
4.53
4.43
4.25
4.09
3.96
3.84
3.68
3.41
2.96
2.27
1.26
-0.16
-2.01
-4.22
-6.57
-8.68
-10.19
-10.78
-10.35
-9.00
-7.10
-5.05
-3.22
-1.82
-0.85
-0.18
0.36
0.90
1.50
2.16
2.87
3.64
4.50
5.44
6.37
7.19
7.73
7.88
7.59
6.91
5.96
4.88
3.82
2.91
2.15
1.48
0.73
-0.25
-1.56
-3.21
-5.06
-6.90
-8.50
-9.65
-10.19
-10.02
-9.13
-7.64
-5.82
-3.99
-2.47
-1.43
-0.85
-0.51
-0.16
0.34
0.97
1.58
2.00
2.21
2.28
2.39
2.68
3.17
3.72
4.12
4.23
4.00
3.56
3.11
2.82
2.71
2.72
2.66
2.34
1.61
0.42
-1.23
-3.21
-5.29
-7.14
-8.36
-8.65
-7.91
-6.28
-4.15
-1.97
-0.09
1.34
2.41
3.26
4.06
4.85
5.63
6.30
6.80
7.12
7.34
7.52
7.73
8.01
8.30
8.49
8.47
8.14
7.51
6.66
5.73
4.82
4.00
3.26
2.54
1.79
0.93
-0.10
-1.38
-2.91
-4.62
-6.32
-7.73
-8.56
-8.65
-8.00
-6.79
-5.32
-3.87
-2.60
-1.54
-0.60
0.38
1.48
2.65
3.76
4.62
5.09
5.18
5.04
4.87
4.83
4.96
5.11
5.11
4.82
4.23
3.44
2.61
1.88
1.26
0.68
0.06
-0.62
-1.31
-1.96
-2.56
-3.24
-4.16
-5.43
-7.01
-8.60
-9.79
-10.21
-9.68
-8.32
-6.45
-4.47
-2.70
-1.27
-0.15
0.82
1.78
2.82
3.90
4.90
5.72
6.29
6.59
6.69
6.60
6.33
5.88
5.24
4.47
3.65
2.89
2.23
1.65
1.09
0.50
-0.14
-0.78
-1.41
-2.02
-2.73
-3.65
-4.88
-6.43
-8.19
-9.96
-11.44
-12.33
-12.38
-11.51
-9.81
-7.57
-5.14
-2.86
-0.91
0.67
2.02
3.29
4.52
5.67
6.60
7.17
7.34
7.17
6.83
6.51
6.30
6.24
6.24
6.19
5.96
5.51
4.86
4.10
3.32
2.58
1.85
1.05
0.12
-0.95
-2.12
-3.35
-4.65
-6.12
-7.81
-9.61
-11.22
-12.20
-12.14
-10.88
-8.66
-6.00
-3.47
-1.52
-0.25
0.50
1.02
1.51
2.06
2.62
3.09
3.45
3.77
4.14
4.62
5.17
5.70
6.03
6.02
5.62
4.87
3.92
2.93
2.05
1.34
0.78
0.26
-0.29
-0.97
-1.84
-2.93
-4.27
-5.85
-7.60
-9.26
-10.52
-10.99
-10.44
-8.88
-6.61
-4.11
-1.87
-0.17
1.03
1.98
3.01
4.24
5.61
6.85
7.73
8.17
8.27
8.21
8.19
8.23
8.27
8.20
7.96
7.56
7.05
6.50
5.91
5.27
4.61
3.93
3.32
2.78
2.26
1.63
0.76
-0.41
-1.85
-3.39
-4.76
-5.64
-5.83
-5.25
-4.02
-2.41
-0.76
0.64
1.66
2.33
2.82
3.34
4.03
4.86
5.71
6.39
6.81
7.01
7.07
7.14
7.26
7.39
7.38
7.13
6.64
6.00
5.38
4.90
4.56
4.22
3.68
2.80
1.50
-0.15
-2.08
-4.19
-6.42
-8.66
-10.79
-12.54
-13.66
-13.97
-13.42
-12.20
-10.60
-8.97
-7.51
-6.28
-5.16
-4.00
-2.70
-1.38
-0.19
0.63
1.01
1.04
0.97
1.00
1.25
1.66
2.11
2.42
2.48
2.24
1.70
0.93
0.04
-0.81
-1.47
-1.85
-2.04
-2.28
-2.86
-3.99
-5.68
-7.77
-9.92
-11.76
-12.93
-13.21
-12.53
-11.00
-8.92
-6.68
-4.61
-2.88
-1.46
-0.19
1.10
2.43
3.69
4.68
5.29
5.56
5.69
5.92
6.41
7.14
7.93
8.54
8.76
8.53
7.93
7.13
6.31
5.55
4.85
4.10
3.12
1.76
-0.06
-2.32
-4.89
-7.46
-9.66
-11.10
-11.52
-10.88
-9.41
-7.48
-5.51
-3.76
-2.31
-1.06
0.12
1.33
2.50
3.53
4.25
4.63
4.71
4.66
4.68
4.87
5.24
5.66
5.92
5.85
5.37
4.55
3.57
2.65
1.92
1.37
0.81
-0.01
-1.27
-3.04
-5.18
-7.36
-9.16
-10.19
-10.24
-9.30
-7.61
-5.55
-3.51
-1.73
-0.24
1.07
2.35
3.67
4.98
6.12
6.92
7.33
7.46
7.51
7.74
8.26
9.03
9.85
10.42
10.50
10.02
9.09
7.95
6.85
5.96
5.24
4.53
3.62
2.34
0.63
-1.44
-3.68
-5.81
-7.55
-8.63
-8.85
-8.12
-6.55
-4.44
-2.16
-0.09
1.53
2.65
3.42
4.04
4.73
5.50
6.27
6.93
7.39
7.70
7.99
8.39
8.91
9.41
9.70
9.57
9.00
8.10
7.09
6.22
5.65
5.34
5.13
4.75
3.97
2.68
0.89
-1.27
-3.65
-6.04
-8.24
-10.02
-11.11
-11.32
-10.61
-9.18
-7.38
-5.67
-4.38
-3.58
-3.09
-2.61
-1.88
-0.81
0.52
1.90
3.14
4.18
5.04
5.78
6.42
6.93
7.23
7.21
6.88
6.28
5.58
4.88
4.26
3.68
3.04
2.21
1.15
-0.12
-1.55
-3.08
-4.72
-6.48
-8.35
-10.19
-11.71
-12.57
-12.49
-11.40
-9.46
-7.03
-4.51
-2.23
-0.33
1.23
2.55
3.73
4.79
5.70
6.47
7.16
7.87
8.70
9.63
10.56
11.26
11.56
11.33
10.58
9.44
8.12
6.83
5.75
4.98
4.50
4.20
3.91
3.42
2.60
1.40
-0.15
-1.89
-3.61
-5.00
-5.74
-5.59
-4.46
-2.49
0.04
2.77
5.44
7.90
10.19
12.40
14.58
16.72
18.67
20.23
21.24
21.65
21.54
21.18
20.83
20.72
20.83
20.97
20.83
20.20
19.04
17.54
16.02
14.74
13.78
13.02
12.17
10.91
8.98
6.26
2.78
-1.23
-5.39
-9.27
-12.51
-14.91
-16.49
-17.47
-18.13
-18.69
-19.26
-19.78
-20.12
-20.15
-19.84
-19.30
-18.70
-18.22
-18.02
-18.09
-18.33
-18.55
-18.62
-18.54
-18.39
-18.32
-18.38
-18.52
-18.52
-18.23
-17.63
-16.91
-16.40
-16.47
-17.30
-18.83
-20.77
-22.63
-23.96
-24.40
-23.80
-22.22
-19.89
-17.10
-14.13
-11.17
-8.34
-5.71
-3.32
-1.21
0.60
2.10
3.28
4.21
4.97
5.64
6.30
7.00
7.74
8.45
9.00
9.24
9.06
8.45
7.50
6.39
5.30
4.34
3.52
2.73
1.84
0.74
-0.59
-2.00
-3.25
-4.06
-4.19
-3.56
-2.27
-0.58
1.16
2.66
3.79
4.57
5.14
5.67
6.23
6.86
7.49
8.04
8.42
8.57
8.47
8.14
7.69
7.26
6.95
6.79
6.71
6.56
6.19
5.50
4.44
2.95
1.01
-1.39
-4.17
-7.08
-9.81
-11.97
-13.33
-13.79
-13.37
-12.15
-10.17
-7.54
-4.42
-1.13
1.94
4.37
5.93
6.67
6.82
6.73
6.68
6.78
6.98
7.14
7.18
7.06
6.87
6.68
6.50
6.26
5.79
4.92
3.52
1.57
-0.86
-3.65
-6.64
-9.68
-12.58
-15.17
-17.31
-18.87
-19.81
-20.16
-19.98
-19.27
-18.02
-16.17
-13.75
-10.86
-7.80
-4.95
-2.69
-1.20
-0.46
-0.23
-0.17
0.02
0.51
1.26
2.10
2.88
3.52
4.04
4.58
5.19
5.88
6.56
7.03
7.22
7.10
6.79
6.47
6.26
6.19
6.19
6.07
5.67
4.87
3.68
2.22
0.68
-0.73
-1.82
-2.46
-2.56
-2.08
-1.05
0.35
1.88
3.24
4.25
4.88
5.29
5.66
6.11
6.57
6.90
6.94
6.71
6.38
6.14
6.11
6.20
6.21
5.93
5.29
4.39
3.46
2.68
2.15
1.75
1.27
0.48
-0.75
-2.36
-4.10
-5.60
-6.49
-6.55
-5.78
-4.41
-2.74
-1.11
0.31
1.50
2.52
3.45
4.32
5.10
5.75
6.28
6.71
7.12
7.54
7.97
8.34
8.61
8.68
8.52
8.10
7.42
6.51
5.43
4.31
3.27
2.45
1.93
1.68
1.55
1.25
0.54
-0.74
-2.48
-4.38
-5.99
-6.89
-6.85
-5.88
-4.20
-2.16
-0.12
1.65
3.00
3.95
4.60
5.11
5.57
5.98
6.25
6.30
6.10
5.75
5.41
5.23
5.27
5.45
5.62
5.65
5.51
5.27
5.07
5.01
5.10
5.23
5.30
5.19
4.83
4.23
3.35
2.18
0.77
-0.82
-2.40
-3.74
-4.65
-5.02
-4.92
-4.55
-4.15
-3.91
-3.89
-4.08
-4.35
-4.57
-4.64
-4.48
-4.07
-3.44
-2.68
-1.93
-1.32
-0.95
-0.85
-0.95
-1.16
-1.36
-1.55
-1.79
-2.18
-2.83
-3.73
-4.82
-5.95
-7.00
-7.90
-8.65
-9.33
-10.02
-10.89
-12.01
-13.43
-15.13
-16.93
-18.59
-19.78
-20.26
-19.91
-18.85
-17.40
-15.92
-14.72
-13.96
-13.58
-13.38
-13.13
-12.67
-11.97
-11.07
-10.12
-9.20
-8.38
-7.67
-7.08
-6.60
-6.22
-5.92
-5.64
-5.32
-4.90
-4.32
-3.55
-2.61
-1.56
-0.54
0.29
0.80
0.92
0.68
0.15
-0.61
-1.61
-2.84
-4.23
-5.56
-6.51
-6.70
-5.91
-4.23
-2.00
0.24
2.03
3.16
3.70
3.97
4.35
5.07
6.15
7.41
8.55
9.36
9.74
9.80
9.70
9.64
9.68
9.84
10.04
10.20
10.26
10.13
9.78
9.21
8.47
7.62
6.74
5.91
5.13
4.35
3.51
2.50
1.25
-0.28
-1.99
-3.72
-5.19
-6.12
-6.33
-5.84
-4.86
-3.75
-2.82
-2.20
-1.79
-1.36
-0.71
0.22
1.23
2.08
2.52
2.53
2.26
1.99
1.94
2.15
2.53
2.87
3.04
2.99
2.78
2.52
2.25
1.96
1.61
1.14
0.51
-0.24
-1.11
-2.10
-3.21
-4.40
-5.54
-6.41
-6.77
-6.43
-5.36
-3.72
-1.84
-0.15
1.04
1.62
1.76
1.83
2.20
3.05
4.30
5.61
6.59
6.96
6.73
6.17
5.59
5.21
5.07
5.06
5.02
4.88
4.61
4.24
3.76
3.15
2.34
1.37
0.34
-0.60
-1.35
-1.92
-2.47
-3.18
-4.23
-5.62
-7.20
-8.66
-9.64
-9.84
-9.14
-7.64
-5.63
-3.53
-1.72
-0.48
0.14
0.36
0.54
1.04
2.04
3.47
5.04
6.32
7.06
7.18
6.88
6.47
6.19
6.12
6.17
6.18
6.02
5.65
5.08
4.35
3.50
2.58
1.64
0.76
0.03
-0.55
-1.03
-1.59
-2.40
-3.56
-5.05
-6.70
-8.19
-9.21
-9.47
-8.85
-7.48
-5.71
-3.97
-2.65
-1.93
-1.71
-1.70
-1.61
-1.23
-0.61
0.04
0.47
0.53
0.25
-0.16
-0.46
-0.46
-0.13
0.45
1.09
1.61
1.85
1.74
1.30
0.57
-0.37
-1.44
-2.61
-3.81
-4.95
-5.96
-6.77
-7.43
-8.03
-8.72
-9.64
-10.76
-11.93
-12.83
-13.17
-12.76
-11.63
-10.04
-8.37
-6.93
-5.90
-5.21
-4.72
-4.26
-3.75
-3.26
-2.93
-2.82
-2.94
-3.16
-3.39
-3.58
-3.77
-4.05
-4.48
-5.06
-5.72
-6.41
-7.07
-7.68
-8.26
-8.84
-9.47
-10.17
-11.00
-12.01
-13.27
-14.80
-16.55
-18.34
-19.88
-20.81
-20.80
-19.64
-17.37
-14.23
-10.62
-6.92
-3.45
-0.33
2.47
5.10
7.73
10.44
13.19
15.82
18.16
20.07
21.55
22.71
23.70
24.59
25.35
25.85
26.00
25.76
25.23
24.59
23.97
23.41
22.84
22.10
21.08
19.69
17.94
15.88
13.58
11.12
8.66
6.41
4.62
3.51
3.19
3.57
4.44
5.48
6.42
7.09
7.47
7.58
7.52
7.34
7.14
6.96
6.88
6.91
7.06
7.26
7.41
7.44
7.30
7.05
6.74
6.42
6.08
5.63
4.98
4.08
3.03
1.95
0.97
0.09
-0.83
-2.02
-3.64
-5.69
-7.93
-9.99
-11.49
-12.21
-12.12
-11.38
-10.20
-8.82
-7.41
-6.09
-4.89
-3.81
-2.77
-1.71
-0.55
0.69
1.94
3.13
4.15
4.98
5.61
6.04
6.26
6.24
5.98
5.56
5.07
4.62
4.24
3.87
3.40
2.76
1.92
0.95
-0.07
-1.09
-2.16
-3.39
-4.80
-6.33
-7.73
-8.67
-8.89
-8.32
-7.10
-5.59
-4.15
-2.99
-2.11
-1.30
-0.31
1.02
2.62
4.26
5.65
6.61
7.16
7.44
7.65
7.95
8.34
8.72
8.93
8.88
8.51
7.85
6.94
5.84
4.60
3.34
2.13
1.09
0.25
-0.43
-1.10
-1.94
-3.08
-4.55
-6.25
-7.92
-9.28
-10.12
-10.34
-9.96
-9.15
-8.05
-6.78
-5.44
-4.08
-2.76
-1.55
-0.55
0.22
0.72
0.99
1.11
1.18
1.32
1.59
2.01
2.51
2.96
3.25
3.31
3.14
2.82
2.41
1.92
1.34
0.63
-0.21
-1.20
-2.28
-3.40
-4.59
-5.89
-7.36
-8.98
-10.60
-11.98
-12.81
-12.88
-12.17
-10.86
-9.27
-7.66
-6.19
-4.87
-3.64
-2.41
-1.17
0.02
1.08
1.93
2.59
3.13
3.62
4.13
4.67
5.22
5.74
6.21
6.59
6.89
7.07
7.09
6.85
6.26
5.27
3.94
2.50
1.23
0.37
0.02
0.06
0.20
0.11
-0.41
-1.33
-2.44
-3.43
-4.09
-4.30
-4.10
-3.58
-2.79
-1.77
-0.56
0.79
2.12
3.28
4.17
4.70
4.89
4.80
4.56
4.30
4.15
4.29
4.81
5.78
7.09
8.52
9.79
10.59
10.74
10.24
9.27
8.14
7.13
6.40
5.96
5.63
5.19
4.46
3.41
2.20
1.07
0.32
0.20
0.81
2.09
3.81
5.72
7.57
9.25
10.79
12.33
13.96
15.67
17.24
18.31
18.52
17.66
15.74
13.03
9.87
6.63
3.49
0.50
-2.40
-5.31
-8.21
-10.99
-13.41
-15.23
-16.29
-16.61
-16.32
-15.65
-14.83
-14.01
-13.27
-12.67
-12.32
-12.34
-12.78
-13.57
-14.42
-15.02
-15.06
-14.50
-13.47
-12.18
-10.75
-9.17
-7.37
-5.30
-3.04
-0.80
1.18
2.76
3.91
4.66
5.09
5.21
5.05
4.68
4.20
3.78
3.51
3.42
3.43
3.47
3.44
3.32
3.10
2.76
2.25
1.54
0.58
-0.61
-1.96
-3.39
-4.80
-6.11
-7.24
-8.08
-8.53
-8.51
-8.07
-7.34
-6.55
-5.89
-5.49
-5.31
-5.19
-4.93
-4.40
-3.57
-2.51
-1.45
-0.52
0.18
0.63
0.89
1.04
1.03
0.82
0.36
-0.35
-1.21
-2.12
-2.97
-3.75
-4.49
-5.23
-5.97
-6.71
-7.50
-8.41
-9.60
-11.16
-13.05
-15.06
-16.83
-17.98
-18.23
-17.50
-15.93
-13.82
-11.49
-9.21
-7.15
-5.30
-3.62
-2.04
-0.57
0.76
1.84
2.64
3.18
3.56
3.95
4.44
5.09
5.81
6.46
6.84
6.81
6.33
5.48
4.49
3.61
3.05
2.86
2.96
3.13
3.08
2.59
1.52
-0.10
-2.09
-4.15
-5.91
-7.08
-7.50
-7.13
-6.16
-4.82
-3.35
-1.92
-0.60
0.61
1.75
2.81
3.76
4.52
5.03
5.29
5.35
5.32
5.32
5.42
5.60
5.78
5.82
5.59
5.02
4.15
3.09
2.03
1.12
0.45
-0.01
-0.42
-0.94
-1.73
-2.85
-4.29
-5.94
-7.60
-9.05
-10.01
-10.23
-9.61
-8.20
-6.24
-4.11
-2.09
-0.40
0.95
2.05
2.99
3.85
4.65
5.38
6.03
6.57
7.02
7.42
7.85
8.40
9.08
9.80
10.38
10.56
10.24
9.45
8.43
7.45
6.71
6.21
5.81
5.26
4.37
3.04
1.28
-0.73
-2.73
-4.38
-5.35
-5.50
-4.84
-3.59
-2.04
-0.47
0.94
2.15
3.21
4.20
5.13
6.01
6.81
7.52
8.12
8.62
9.04
9.40
9.69
9.95
10.15
10.29
10.33
10.25
10.06
9.77
9.38
8.92
8.34
7.62
6.70
5.52
4.07
2.35
0.38
-1.74
-3.88
-5.82
-7.29
-8.03
-7.87
-6.80
-5.00
-2.82
-0.65
1.20
2.60
3.61
4.45
5.33
6.35
7.49
8.58
9.49
10.11
10.43
10.53
10.44
10.17
9.71
9.06
8.27
7.45
6.71
6.10
5.55
4.92
4.10
3.03
1.80
0.55
-0.62
-1.68
-2.71
-3.90
-5.39
-7.25
-9.33
-11.35
-12.94
-13.74
-13.57
-12.50
-10.80
-8.90
-7.20
-5.95
-5.18
-4.71
-4.28
-3.65
-2.74
-1.62
-0.47
0.50
1.15
1.45
1.46
1.34
1.24
1.26
1.42
1.61
1.70
1.57
1.15
0.49
-0.32
-1.19
-2.07
-2.95
-3.80
-4.59
-5.32
-6.03
-6.89
-8.06
-9.68
-11.69
-13.80
-15.53
-16.44
-16.27
-15.07
-13.17
-10.97
-8.88
-7.08
-5.61
-4.33
-3.07
-1.72
-0.23
1.31
2.79
4.05
4.98
5.52
5.71
5.63
5.38
5.11
4.88
4.75
4.72
4.77
4.87
4.91
4.83
4.58
4.11
3.47
2.71
1.89
1.07
0.23
-0.68
-1.76
-3.07
-4.57
-6.09
-7.35
-8.00
-7.80
-6.73
-5.01
-3.02
-1.12
0.46
1.70
2.72
3.67
4.64
5.63
6.54
7.26
7.74
8.01
8.16
8.32
8.55
8.86
9.14
9.24
8.99
8.32
7.26
5.98
4.67
3.53
2.60
1.89
1.28
0.64
-0.14
-1.17
-2.52
-4.20
-6.11
-7.97
-9.41
-10.06
-9.68
-8.30
-6.21
-3.85
-1.68
-0.01
1.10
1.78
2.26
2.80
3.52
4.40
5.30
6.02
6.44
6.55
6.47
6.36
6.31
6.33
6.30
6.13
5.76
5.24
4.65
4.04
3.41
2.74
1.96
1.08
0.13
-0.84
-1.83
-2.87
-3.99
-5.25
-6.60
-7.92
-8.99
-9.49
-9.21
-8.06
-6.21
-4.02
-1.95
-0.36
0.67
1.28
1.80
2.51
3.54
4.77
5.95
6.82
7.24
7.23
6.97
6.64
6.40
6.29
6.23
6.12
5.87
5.41
4.82
4.19
3.62
3.11
2.57
1.90
1.01
-0.06
-1.22
-2.35
-3.43
-4.49
-5.51
-6.42
-7.02
-7.11
-6.58
-5.53
-4.22
-2.96
-2.00
-1.37
-0.98
-0.65
-0.23
0.33
1.00
1.73
2.41
3.00
3.48
3.83
4.08
4.25
4.40
4.56
4.73
4.85
4.86
4.67
4.28
3.70
3.00
2.26
1.50
0.78
0.14
-0.37
-0.71
-0.90
-1.04
-1.36
-2.14
-3.58
-5.68
-8.12
-10.38
-11.91
-12.32
-11.57
-9.98
-8.06
-6.33
-5.08
-4.35
-3.96
-3.64
-3.19
-2.58
-1.91
-1.31
-0.93
-0.83
-0.98
-1.28
-1.64
-1.99
-2.27
-2.49
-2.66
-2.78
-2.88
-2.98
-3.14
-3.40
-3.79
-4.33
-5.00
-5.71
-6.42
-7.10
-7.82
-8.66
-9.73
-11.03
-12.45
-13.69
-14.42
-14.34
-13.38
-11.71
-9.65
-7.58
-5.76
-4.26
-3.03
-1.93
-0.86
0.18
1.14
1.90
2.43
2.71
2.81
2.85
2.94
3.18
3.56
4.00
4.37
4.52
4.37
3.92
3.27
2.53
1.82
1.16
0.54
-0.08
-0.74
-1.48
-2.33
-3.28
-4.31
-5.27
-5.93
-6.02
-5.31
-3.78
-1.61
0.79
3.05
4.85
6.14
7.05
7.80
8.56
9.43
10.40
11.40
12.37
13.23
13.88
14.16
13.92
13.03
11.50
9.47
7.21
5.03
3.16
1.74
0.72
-0.06
-0.80
-1.70
-2.88
-4.37
-6.14
-8.10
-10.14
-12.13
-13.88
-15.18
-15.80
-15.59
-14.58
-13.01
-11.25
-9.72
-8.68
-8.16
-7.94
-7.71
-7.26
-6.52
-5.65
-4.83
-4.15
-3.61
-3.05
-2.36
-1.58
-0.86
-0.44
-0.48
-0.99
-1.78
-2.59
-3.14
-3.31
-3.15
-2.86
-2.71
-2.91
-3.52
-4.47
-5.56
-6.52
-7.11
-7.16
-6.62
-5.52
-4.04
-2.35
-0.61
1.08
2.71
4.30
5.86
7.29
8.51
9.41
9.97
10.28
10.44
10.57
10.71
10.87
11.02
11.13
11.17
11.09
10.84
10.36
9.66
8.83
7.97
7.19
6.49
5.76
4.89
3.81
2.60
1.43
0.49
-0.06
-0.23
-0.07
0.33
0.90
1.62
2.45
3.37
4.34
5.33
6.31
7.30
8.23
9.02
9.49
9.56
9.20
8.52
7.68
6.85
6.12
5.50
4.95
4.39
3.77
3.05
2.19
1.20
0.12
-0.94
-1.92
-2.77
-3.53
-4.36
-5.37
-6.65
-8.11
-9.52
-10.60
-11.10
-10.84
-9.82
-8.19
-6.24
-4.30
-2.66
-1.49
-0.76
-0.28
0.27
1.11
2.35
3.86
5.40
6.66
7.41
7.56
7.22
6.56
5.84
5.28
4.98
4.96
5.08
5.11
4.83
4.12
2.99
1.62
0.25
-0.93
-1.82
-2.50
-3.16
-3.99
-5.10
-6.50
-8.08
-9.70
-11.17
-12.32
-12.96
-12.97
-12.25
-10.86
-8.98
-6.86
-4.74
-2.78
-0.98
0.71
2.32
3.82
5.09
6.05
6.70
7.13
7.51
7.94
8.39
8.77
8.95
8.90
8.75
8.68
8.81
9.10
9.37
9.37
8.94
8.04
6.83
5.53
4.35
3.40
2.64
1.95
1.19
0.21
-1.09
-2.69
-4.48
-6.25
-7.71
-8.60
-8.75
-8.17
-7.02
-5.58
-4.11
-2.84
-1.84
-1.03
-0.29
0.55
1.55
2.68
3.85
4.91
5.77
6.41
6.87
7.22
7.51
7.76
7.97
8.16
8.33
8.52
8.73
8.91
8.98
8.87
8.53
7.99
7.35
6.66
5.96
5.16
4.12
2.70
0.89
-1.18
-3.21
-4.83
-5.72
-5.70
-4.82
-3.30
-1.45
0.41
2.09
3.46
4.54
5.36
5.95
6.35
6.60
6.75
6.89
7.15
7.58
8.18
8.83
9.43
9.91
10.30
10.72
11.31
12.15
13.17
14.23
15.16
15.83
16.27
16.56
16.82
17.12
17.45
17.77
17.98
18.01
17.86
17.59
17.34
17.30
17.62
18.39
19.57
20.97
22.36
23.52
24.35
24.88
25.22
25.44
25.50
25.21
24.32
22.60
19.99
16.62
12.73
8.58
4.37
0.18
-3.97
-8.03
-11.98
-15.82
-19.68
-23.74
-28.15
-32.87
-37.55
-41.62
-44.48
-45.73
-45.40
-43.88
-41.85
-39.98
-38.79
-38.44
-38.84
-39.61
-40.32
-40.52
-39.96
-38.61
-36.68
-34.49
-32.39
-30.60
-29.11
-27.70
-25.93
-23.21
-19.02
-13.08
-5.64
2.47
10.02
15.79
19.09
20.05
19.66
19.28
20.09
22.63
26.69
31.55
36.46
41.12
45.82
51.38
58.75
68.52
80.57
93.92
106.99
118.01
125.58
129.04
128.58
125.16
120.27
115.66
113.12
114.01
118.60
125.31
130.61
129.80
119.10
97.62
68.40
37.60
12.21
-2.36
-3.60
8.33
31.67
63.75
100.90
137.76
167.32
182.38
178.08
154.18
115.45
69.72
24.58
-15.63
-50.88
-84.38
-120.48
-162.80
-213.27
-271.75
-335.89
-400.69
-458.70
-501.04
-519.81
-510.92
-475.93
-422.10
-360.08
-300.46
-250.73
-214.06
-190.11
-177.20
-174.43
-182.18
-200.93
-229.11
-261.71
-290.72
-307.63
-306.73
-287.43
-254.37
-214.74
-174.79
-137.08
-100.10
-60.21
-14.38
37.72
93.44
148.43
198.45
240.70
274.19
299.27
316.85
327.81
332.61
331.33
323.95
310.87
293.20
272.80
251.81
231.88
213.62
196.54
179.65
162.31
144.80
128.44
115.03
105.96
101.43
100.43
101.18
102.15
102.81
103.90
107.11
114.15
125.50
139.72
153.59
163.34
166.25
162.07
153.02
143.08
136.11
133.79
134.81
135.57
131.83
120.33
99.40
68.10
27.09
-20.87
-70.37
-113.65
-142.54
-151.80
-142.18
-121.19
-101.98
-96.17
-109.19
-138.68
-177.01
-215.60
-248.69
-274.44
-293.65
-309.63
-323.36
-333.69
-339.19
-340.15
-338.82
-338.02
-339.03
-340.14
-339.37
-331.25
-309.52
-270.63
-216.82
-156.47
-101.26
-61.78
-25.80
12.50
54.88
99.15
142.17
180.75
211.62
232.52
243.78
248.14
246.17
239.64
230.30
219.57
208.24
196.69
185.19
174.10
163.57
150.25
132.92
111.78
88.22
63.73
39.63
16.71
-4.70
-21.28
-35.50
-49.40
-64.35
-80.72
-97.42
-111.29
-117.47
-111.01
-89.46
-55.96
-17.04
19.07
45.68
60.03
63.75
61.17
56.72
52.95
49.49
45.50
40.64
35.76
32.30
31.22
32.28
34.09
35.02
33.62
29.99
25.33
21.30
19.14
19.13
20.52
21.92
22.10
20.39
17.30
13.98
11.66
11.01
11.81
13.15
13.95
13.45
11.55
8.83
6.27
4.81
5.21
7.81
12.33
17.48
21.18
21.01
15.26
4.05
-10.38
-24.30
-33.99
-37.29
-34.36
-27.25
-18.65
-10.50
-3.37
3.12
9.51
15.63
20.57
23.24
23.04
20.36
16.42
12.72
10.50
10.19
11.44
13.30
14.75
15.09
14.21
12.51
10.64
9.22
8.54
8.68
9.46
10.68
12.15
13.68
14.88
15.28
14.49
12.46
9.73
7.24
6.19
7.50
11.35
16.91
22.55
26.40
27.01
23.91
17.45
8.89
0.01
-7.28
-11.19
-10.30
-3.93
7.57
22.69
38.62
52.26
61.11
64.05
61.75
56.15
49.63
43.96
41.49
42.92
47.93
55.60
64.69
73.89
81.85
87.44
90.00
89.70
87.25
83.65
79.38
73.71
64.63
49.72
27.48
-1.53
-34.54
-67.68
-97.37
-121.58
-140.26
-154.65
-166.18
-175.65
-183.15
-188.65
-192.81
-197.01
-202.90
-211.59
-223.07
-236.16
-249.08
-260.10
-268.02
-272.47
-273.68
-272.26
-269.10
-265.20
-261.49
-258.62
-256.87
-256.05
-255.54
-254.08
-249.51
-238.75
-218.17
-184.98
-138.72
-82.24
-21.24
37.59
89.05
130.90
163.66
188.98
207.89
219.80
223.41
218.53
207.48
195.13
187.38
188.79
200.68
220.28
241.59
257.35
261.56
251.38
228.08
196.27
162.03
130.59
104.80
84.80
69.00
55.32
42.29
29.32
16.32
3.50
-8.50
-18.24
-23.09
-19.35
-3.47
26.23
68.01
115.77
160.23
191.86
204.50
197.95
178.15
154.44
135.29
124.70
121.15
119.51
114.59
104.07
89.27
73.66
60.24
49.84
41.10
31.77
20.36
6.87
-7.50
-21.20
-33.25
-43.65
-53.00
-61.95
-70.66
-78.55
-84.52
-87.47
-86.83
-83.02
-77.36
-71.67
-67.56
-65.79
-65.91
-66.57
-66.19
-63.62
-58.77
-52.61
-46.78
-43.01
-42.46
-45.31
-50.64
-56.78
-61.83
-64.31
-63.64
-60.17
-54.83
-48.78
-42.94
-37.92
-34.01
-31.12
-28.72
-25.95
-21.75
-15.31
-6.53
3.91
14.74
24.67
33.00
39.79
45.70
51.49
57.47
63.29
68.08
70.90
71.25
69.31
65.87
62.02
58.75
56.50
55.11
53.97
52.32
49.59
45.57
40.40
34.41
27.95
21.31
14.66
8.08
1.66
-4.46
-10.10
-15.00
-18.96
-21.80
-23.40
-23.62
-22.33
-19.45
-15.09
-9.62
-3.59
2.33
7.58
11.76
14.76
16.65
17.63
17.95
17.83
17.46
16.90
16.11
14.91
13.01
10.10
5.96
0.50
-6.12
-13.56
-21.37
-29.11
-36.43
-43.10
-48.97
-53.94
-57.82
-60.37
-61.27
-60.24
-57.18
-52.21
-45.76
-38.45
-30.97
-23.96
-17.82
-12.81
-9.12
-6.97
-6.59
-8.17
-11.68
-16.71
-22.49
-28.00
-32.22
-34.38
-34.18
-31.85
-28.05
-23.65
-19.48
-16.06
-13.57
-11.95
-11.06
-10.94
-11.75
-13.76
-17.12
-21.63
-26.68
-31.32
-34.49
-35.33
-33.56
-29.60
-24.48
-19.52
-15.86
-14.07
-14.03
-15.19
-16.87
-18.66
-20.46
-22.34
-24.22
-25.85
-26.76
-26.56
-25.23
-23.17
-21.15
-19.93
-20.04
-21.47
-23.77
-26.10
-27.56
-27.48
-25.53
-21.86
-16.99
-11.63
-6.47
-2.03
1.44
3.93
5.68
7.09
8.64
10.79
13.74
17.45
21.55
25.55
29.01
31.70
33.62
34.97
35.89
36.51
36.85
36.92
36.75
36.40
35.91
35.26
34.35
33.12
31.53
29.65
27.66
25.73
24.01
22.55
21.29
20.08
18.77
17.26
15.49
13.52
11.42
9.24
7.02
4.82
2.78
1.24
0.60
1.23
3.22
6.28
9.81
13.06
15.45
16.72
17.01
16.70
16.24
15.97
15.98
16.20
16.50
16.72
16.83
16.85
16.80
16.71
16.54
16.17
15.48
14.37
12.86
11.10
9.32
7.77
6.54
5.58
4.67
3.56
2.03
-0.07
-2.74
-5.89
-9.31
-12.65
-15.48
-17.35
-17.95
-17.28
-15.62
-13.48
-11.43
-9.87
-8.96
-8.63
-8.68
-8.92
-9.23
-9.54
-9.79
-9.92
-9.83
-9.47
-8.89
-8.20
-7.56
-7.07
-6.79
-6.63
-6.46
-6.13
-5.54
-4.67
-3.59
-2.41
-1.27
-0.39
0.03
-0.16
-0.95
-2.13
-3.36
-4.20
-4.35
-3.69
-2.31
-0.52
1.34
2.94
4.05
4.56
4.52
4.09
3.58
3.30
3.58
4.55
6.13
8.10
10.08
11.71
12.69
12.85
12.18
10.82
9.04
7.15
5.41
4.02
3.02
2.34
1.84
1.33
0.60
-0.52
-2.07
-3.92
-5.76
-7.13
-7.63
-7.02
-5.37
-3.02
-0.45
1.92
3.86
5.38
6.64
7.85
9.09
10.35
11.54
12.57
13.42
14.15
14.88
15.68
16.57
17.43
18.20
18.84
19.41
20.03
20.79
21.72
22.70
23.51
23.91
23.73
22.96
21.76
20.53
19.80
20.06
21.69
24.72
28.85
33.51
38.08
42.20
45.83
49.31
53.06
57.37
62.21
67.23
72.00
76.27
80.16
84.18
89.06
95.35
103.02
111.15
117.89
120.81
117.51
106.42
87.44
62.14
33.48
5.21
-19.06
-36.60
-46.12
-48.06
-44.40
-38.25
-33.11
-32.11
-37.24
-49.11
-66.92
-88.88
-112.81
-136.54
-158.28
-176.68
-190.88
-200.36
-205.04
-205.23
-201.60
-195.09
-186.71
-177.25
-167.13
-156.35
-144.56
-131.40
-116.73
-100.90
-84.71
-69.16
-55.12
-42.96
-32.41
-22.74
-13.13
-3.18
6.87
16.19
23.78
29.02
31.99
33.47
34.54
36.17
38.80
42.41
46.64
51.14
55.69
60.13
64.26
67.76
70.23
71.37
71.10
69.66
67.43
64.92
62.52
60.48
58.81
57.30
55.51
52.86
48.78
42.85
34.90
24.97
13.19
-0.29
-15.35
-31.59
-48.02
-63.01
-74.48
-80.42
-79.63
-72.16
-59.14
-42.41
-23.64
-3.86
16.64
38.04
60.41
83.29
105.64
125.88
142.14
152.36
154.42
146.57
127.95
99.24
62.87
22.55
-17.79
-55.15
-88.22
-117.23
-143.10
-166.32
-186.34
-201.63
-210.35
-211.12
-203.53
-188.13
-166.16
-139.21
-109.00
-77.38
-46.11
-16.76
9.55
32.27
51.38
67.24
80.37
91.42
101.08
110.13
119.25
128.76
138.40
147.26
154.14
158.09
158.95
157.71
156.38
157.34
162.70
173.59
189.71
209.13
228.34
242.78
247.67
239.37
216.78
182.37
142.20
104.82
79.19
72.39
87.82
124.59
177.95
240.52
303.76
359.35
400.33
422.20
423.53
406.07
374.09
333.17
288.59
244.12
201.40
160.15
119.08
76.91
33.26
-10.94
-53.72
-92.74
-126.01
-152.57
-172.57
-187.14
-197.89
-206.51
-214.42
-222.71
-232.02
-242.48
-253.64
-264.48
-273.70
-280.09
-282.94
-282.11
-277.91
-270.89
-261.70
-251.18
-240.22
-229.64
-219.89
-210.86
-201.92
-192.29
-181.53
-169.77
-157.58
-145.49
-133.55
-121.14
-107.36
-91.69
-74.52
-57.24
-41.69
-29.39
-20.68
-14.53
-8.96
-2.01
7.40
18.93
31.08
42.00
50.45
56.33
60.59
64.68
69.75
76.18
83.44
90.16
94.37
93.72
86.10
70.28
46.70
17.69
-12.85
-40.62
-62.19
-75.94
-82.20
-82.65
-79.52
-74.93
-70.72
-68.56
-69.94
-75.87
-86.32
-99.89
-113.78
-124.53
-129.05
-125.75
-115.15
-99.78
-83.22
-68.78
-58.36
-51.81
-47.40
-42.72
-35.86
-26.13
-14.18
-1.55
9.94
18.69
23.56
24.00
20.18
13.04
4.28
-3.95
-9.58
-11.24
-8.62
-2.57
5.20
12.69
18.18
20.63
19.96
16.91
12.78
9.01
6.76
6.61
8.55
12.14
16.73
21.66
26.32
30.10
32.39
32.74
31.04
27.70
23.64
20.01
17.77
17.38
18.66
21.04
23.90
26.90
30.07
33.68
37.93
42.71
47.63
52.13
55.68
58.02
59.05
58.77
57.15
54.16
49.88
44.58
38.82
33.22
28.28
24.16
20.68
17.45
14.12
10.58
6.96
3.54
0.58
-1.86
-3.86
-5.67
-7.54
-9.65
-12.13
-15.00
-18.19
-21.56
-24.83
-27.63
-29.61
-30.54
-30.42
-29.57
-28.50
-27.79
-27.89
-29.00
-31.00
-33.54
-36.10
-38.17
-39.47
-39.91
-39.69
-39.14
-38.70
-38.86
-40.00
-42.19
-45.16
-48.42
-51.48
-54.06
-56.24
-58.47
-61.50
-65.80
-71.21
-76.70
-80.96
-82.82
-81.79
-78.32
-73.57
-69.39
-67.10
-67.04
-68.22
-69.43
-69.69
-68.91
-67.70
-67.31
-69.84
-76.43
-87.00
-99.46
-111.70
-121.70
-128.03
-129.54
-126.08
-120.68
-118.11
-124.16
-142.31
-173.44
-213.13
-252.27
-278.89
-282.50
-259.15
-210.17
-141.25
-58.93
27.78
109.35
175.96
220.27
249.33
267.58
279.86
279.04
267.26
245.46
216.89
180.81
137.15
87.69
34.38
-19.31
-69.47
-110.42
-138.18
-149.96
-145.16
-124.91
-92.59
-54.52
-16.36
18.55
51.37
84.63
121.29
162.46
207.14
251.90
291.21
320.30
336.65
342.03
340.60
337.91
338.43
344.02
352.56
358.37
355.13
338.89
310.68
275.81
242.11
216.75
203.80
203.00
210.34
220.26
227.65
229.10
222.74
207.89
184.69
154.40
119.52
83.69
50.78
23.80
3.85
-10.05
-20.31
-29.68
-40.19
-52.74
-67.14
-82.45
-97.39
-110.49
-120.43
-126.26
-127.78
-125.77
-121.85
-117.97
-115.82
-116.33
-119.49
-124.59
-130.61
-136.56
-141.59
-144.95
-145.85
-143.49
-137.27
-127.07
-113.48
-97.75
-81.47
-66.00
-52.06
-39.46
-27.30
-14.56
-0.60
14.27
28.94
42.00
52.45
60.36
67.00
74.40
84.29
97.01
110.88
122.47
127.81
123.94
110.29
89.13
65.10
43.87
30.69
28.97
39.31
59.22
83.57
105.81
119.80
121.64
110.96
91.06
67.45
45.60
28.95
17.91
10.55
4.16
-3.15
-11.70
-20.77
-29.77
-39.25
-51.00
-67.26
-89.47
-117.30
-148.73
-181.03
-212.09
-241.45
-270.39
-301.21
-336.40
-377.95
-426.93
-483.28
-545.08
-608.00
-665.17
-708.43
-730.56
-727.91
-701.74
-657.73
-603.56
-546.11
-489.37
-434.41
-380.73
-327.94
-276.72
-228.35
-183.61
-141.95
-101.46
-59.86
-15.50
32.08
82.27
133.73
184.90
233.86
278.25
315.30
342.32
357.54
360.74
353.40
338.11
317.69
294.53
270.29
246.18
223.35
202.92
185.74
171.92
160.64
150.40
139.68
127.64
114.35
100.70
87.80
76.35
66.26
56.81
47.02
36.32
24.95
13.89
4.43
-2.50
-6.95
-9.99
-13.30
-18.47
-26.19
-36.04
-46.65
-56.46
-64.30
-69.85
-73.48
-75.87
-77.67
-79.48
-81.92
-85.59
-90.55
-95.43
-97.13
-91.51
-75.15
-47.42
-11.39
26.83
60.27
83.56
94.49
93.95
84.57
69.02
48.86
24.55
-3.77
-35.40
-68.79
-101.82
-132.60
-159.99
-183.73
-204.08
-220.98
-233.59
-240.29
-239.19
-229.02
-209.98
-183.63
-152.28
-118.10
-82.82
-48.09
-16.08
10.39
28.54
36.99
36.86
31.68
25.90
22.87
23.23
24.89
24.59
20.00
11.25
0.88
-7.58
-11.51
-10.31
-5.34
1.21
7.70
13.69
19.85
27.10
35.71
44.94
53.39
59.90
64.33
67.87
72.52
80.04
90.89
103.70
115.54
122.80
122.43
113.02
95.37
72.54
49.18
30.51
21.11
23.87
39.32
65.51
98.37
132.64
163.01
185.48
198.28
202.23
200.30
196.37
193.66
193.60
195.60
197.74
198.05
195.46
189.97
182.22
172.74
161.60
148.62
133.97
118.52
103.85
91.87
84.04
80.85
81.62
84.67
87.95
89.76
89.42
87.49
85.41
84.83
86.80
91.24
97.14
102.99
107.63
110.69
112.84
115.40
119.75
126.72
136.33
147.78
159.92
171.58
181.96
190.42
196.28
198.54
196.44
190.27
182.15
175.76
174.91
181.50
194.15
208.29
218.06
218.75
208.57
188.82
162.51
132.58
100.68
67.15
31.92
-4.71
-41.86
-78.69
-115.28
-153.08
-194.60
-242.34
-297.21
-357.30
-417.39
-470.15
-508.35
-527.58
-528.03
-514.55
-494.76
-476.05
-462.89
-455.73
-451.75
-446.76
-437.30
-421.64
-399.65
-371.89
-338.77
-300.35
-256.80
-209.07
-159.29
-110.58
-66.14
-28.28
2.10
25.32
42.29
53.79
60.27
62.33
61.35
59.77
60.69
66.87
79.63
98.41
121.02
144.55
166.35
184.62
198.49
207.69
212.30
212.63
209.33
203.44
196.13
188.41
180.73
172.99
164.68
155.37
144.96
133.78
122.41
111.42
101.11
91.52
82.57
74.20
66.47
59.57
53.67
48.92
45.41
43.24
42.54
43.35
45.64
49.18
53.70
58.85
64.42
70.22
76.09
81.80
87.02
91.38
94.56
96.39
96.80
95.76
93.24
89.20
83.65
76.71
68.64
59.70
50.09
39.94
29.30
18.29
7.10
-4.13
-15.25
-26.20
-36.72
-46.23
-53.78
-58.39
-59.47
-57.31
-53.12
-48.59
-45.17
-43.49
-43.20
-43.30
-42.80
-41.17
-38.55
-35.54
-32.74
-30.53
-28.91
-27.64
-26.47
-25.31
-24.22
-23.29
-22.58
-21.96
-21.19
-20.00
-18.26
-16.03
-13.62
-11.42
-9.81
-9.04
-9.12
-9.93
-11.30
-13.13
-15.43
-18.26
-21.56
-24.98
-27.94
-29.61
-29.33
-26.81
-22.27
-16.39
-10.10
-4.21
0.71
4.49
7.21
9.11
10.42
11.36
12.05
12.58
13.01
13.37
13.69
13.99
14.25
14.39
14.31
13.86
12.93
11.44
9.32
6.56
3.17
-0.85
-5.38
-10.22
-14.98
-19.17
-22.23
-23.80
-23.73
-22.23
-19.77
-16.88
-13.95
-11.11
-8.24
-5.08
-1.46
2.56
6.65
10.37
13.28
15.20
16.10
16.16
15.61
14.60
13.28
11.74
10.09
8.49
7.04
5.75
4.49
2.99
0.99
-1.74
-5.27
-9.48
-14.03
-18.40
-21.96
-24.09
-24.38
-22.75
-19.48
-15.15
-10.37
-5.69
-1.39
2.42
5.76
8.63
10.94
12.61
13.62
14.11
14.34
14.54
14.82
15.07
15.04
14.44
13.24
11.63
10.00
8.72
7.92
7.37
6.60
5.07
2.44
-1.37
-6.11
-11.31
-16.35
-20.57
-23.41
-24.44
-23.52
-20.82
-16.77
-11.99
-7.01
-2.22
2.21
6.20
9.67
12.48
14.48
15.60
15.99
16.01
16.11
16.68
17.86
19.44
20.95
21.82
21.61
20.20
17.85
15.08
12.50
10.52
9.18
8.20
7.11
5.44
2.89
-0.50
-4.47
-8.49
-11.97
-14.34
-15.21
-14.49
-12.38
-9.31
-5.78
-2.20
1.17
4.22
6.83
8.91
10.34
11.14
11.46
11.61
11.93
12.58
13.54
14.54
15.25
15.40
14.87
13.75
12.22
10.48
8.66
6.83
5.03
3.18
1.16
-1.25
-4.31
-8.17
-12.72
-17.51
-21.84
-24.88
-26.02
-25.04
-22.19
-18.04
-13.31
-8.65
-4.47
-1.02
1.60
3.35
4.28
4.50
4.26
3.84
3.52
3.49
3.78
4.28
4.81
5.20
5.35
5.24
4.85
4.19
3.24
1.95
0.24
-2.01
-4.95
-8.71
-13.23
-18.20
-22.94
-26.56
-28.25
-27.56
-24.59
-19.96
-14.56
-9.21
-4.43
-0.43
2.82
5.33
7.09
8.01
8.11
7.60
6.82
6.21
6.02
6.27
6.74
7.09
7.05
6.52
5.62
4.59
3.60
2.67
1.62
0.14
-2.05
-5.18
-9.26
-14.05
-19.09
-23.67
-27.03
-28.55
-27.90
-25.14
-20.77
-15.54
-10.22
-5.44
-1.56
1.34
3.34
4.57
5.19
5.35
5.24
5.09
5.07
5.26
5.61
5.93
6.04
5.86
5.37
4.65
3.76
2.65
1.19
-0.81
-3.50
-6.96
-11.15
-15.88
-20.72
-24.99
-27.87
-28.63
-26.89
-22.86
-17.29
-11.27
-5.83
-1.62
1.21
2.95
4.04
4.84
5.52
6.08
6.46
6.66
6.74
6.76
6.76
6.66
6.39
5.87
5.09
4.09
2.90
1.51
-0.18
-2.30
-5.03
-8.51
-12.71
-17.37
-21.86
-25.33
-26.96
-26.23
-23.23
-18.60
-13.36
-8.44
-4.42
-1.40
0.89
2.77
4.45
5.95
7.17
8.06
8.65
9.13
9.61
10.09
10.41
10.32
9.62
8.29
6.45
4.39
2.34
0.47
-1.24
-2.95
-4.93
-7.51
-10.89
-15.07
-19.70
-24.07
-27.28
-28.57
-27.59
-24.59
-20.29
-15.58
-11.17
-7.36
-4.04
-0.97
1.99
4.76
7.06
8.66
9.58
10.04
10.39
10.87
11.45
11.91
11.89
11.18
9.82
8.05
6.23
4.65
3.42
2.41
1.28
-0.45
-3.15
-7.06
-12.07
-17.68
-23.09
-27.41
-29.88
-30.15
-28.33
-24.89
-20.49
-15.72
-10.99
-6.49
-2.27
1.68
5.33
8.54
11.18
13.09
14.25
14.81
14.99
15.05
15.12
15.16
14.96
14.29
13.01
11.19
9.07
6.95
5.04
3.41
1.91
0.32
-1.62
-4.07
-7.09
-10.65
-14.64
-18.79
-22.65
-25.63
-27.13
-26.72
-24.35
-20.38
-15.50
-10.46
-5.85
-1.95
1.31
4.13
6.73
9.18
11.47
13.54
15.31
16.78
17.94
18.81
19.39
19.69
19.68
19.35
18.68
17.69
16.43
15.00
13.48
11.90
10.27
8.50
6.50
4.16
1.44
-1.73
-5.37
-9.48
-13.97
-18.53
-22.62
-25.57
-26.76
-25.87
-23.04
-18.86
-14.17
-9.72
-5.99
-3.01
-0.54
1.76
4.10
6.44
8.61
10.39
11.67
12.46
12.88
13.12
13.27
13.34
13.28
12.97
12.32
11.28
9.93
8.36
6.73
5.12
3.53
1.84
-0.15
-2.63
-5.76
-9.56
-13.92
-18.54
-22.96
-26.54
-28.65
-28.84
-26.99
-23.42
-18.82
-13.97
-9.48
-5.64
-2.42
0.39
2.94
5.24
7.13
8.47
9.23
9.56
9.73
9.92
10.20
10.46
10.48
10.15
9.50
8.67
7.81
6.96
5.98
4.66
2.78
0.25
-2.91
-6.58
-10.67
-15.00
-19.35
-23.35
-26.48
-28.24
-28.30
-26.64
-23.59
-19.74
-15.67
-11.83
-8.42
-5.42
-2.66
0.04
2.77
5.47
8.00
10.22
12.03
13.48
14.70
15.79
16.80
17.61
18.01
17.81
17.00
15.71
14.18
12.60
11.03
9.41
7.68
5.82
3.94
2.19
0.57
-1.07
-3.11
-5.87
-9.50
-13.81
-18.17
-21.78
-23.86
-23.95
-22.07
-18.68
-14.51
-10.26
-6.38
-3.01
-0.03
2.73
5.40
8.01
10.47
12.72
14.77
16.63
18.27
19.56
20.38
20.57
20.16
19.30
18.27
17.39
16.80
16.48
16.19
15.62
14.52
12.80
10.61
8.14
5.61
3.10
0.50
-2.37
-5.71
-9.63
-14.04
-18.70
-23.14
-26.78
-29.03
-29.45
-27.94
-24.73
-20.42
-15.68
-11.07
-6.93
-3.33
-0.19
2.62
5.16
7.44
9.47
11.29
12.98
14.60
16.14
17.53
18.64
19.37
19.67
19.63
19.38
19.10
18.89
18.69
18.30
17.47
16.01
13.89
11.26
8.42
5.60
2.93
0.35
-2.37
-5.52
-9.34
-13.86
-18.86
-23.87
-28.26
-31.39
-32.78
-32.25
-29.99
-26.47
-22.32
