1552620032.00
64.000000
-0.00
-0.00
-0.00
-0.00
-0.00
-0.00
-0.00
-0.00
-0.00
-0.00
0.00
0.01
0.01
-0.00
-0.03
-0.05
-0.05
0.00
0.13
0.36
0.66
1.01
1.37
1.72
2.06
2.40
2.79
3.24
3.80
4.42
5.06
5.66
6.20
6.68
7.15
7.68
8.31
9.14
10.09
11.04
11.88
12.56
13.14
13.76
14.65
15.96
17.92
20.32
22.91
25.38
27.58
29.57
31.67
34.32
37.83
42.58
48.20
54.15
59.81
64.83
69.28
73.67
78.72
84.99
93.01
102.24
111.85
120.92
128.85
135.68
142.08
149.41
156.39
165.29
176.65
190.49
205.55
218.88
226.18
222.91
205.79
174.02
129.97
77.37
20.35
-38.03
-96.27
-154.04
-211.21
-267.21
-321.00
-371.13
-416.91
-458.05
-494.34
-525.05
-548.61
-562.81
-565.32
-554.66
-530.60
-494.77
-449.98
-399.51
-346.27
-292.23
-238.41
-185.25
-133.21
-83.08
-36.27
5.62
41.18
69.45
90.11
103.59
111.26
115.58
119.97
127.88
141.66
161.43
184.79
207.58
225.56
236.06
238.72
235.12
227.55
217.79
206.59
193.94
179.84
164.85
150.01
136.44
124.67
114.48
105.12
95.70
85.73
75.30
65.02
55.61
47.62
41.31
36.36
32.19
28.29
24.35
20.28
16.20
12.25
8.61
5.41
2.75
0.67
-0.82
-1.84
-2.60
-3.31
-4.13
-5.12
-6.17
-7.08
-7.61
-7.49
-6.57
-4.85
-2.60
-0.39
1.07
1.18
-0.33
-3.14
-6.43
-9.18
-10.57
-10.26
-8.60
-6.35
-4.38
-3.29
-3.18
-3.72
-4.37
-4.74
-4.71
-4.45
-4.25
-4.37
-4.87
-5.59
-6.15
-6.20
-5.54
-4.17
-2.38
-0.61
0.70
1.30
1.16
0.47
-0.47
-1.43
-2.32
-3.15
-3.95
-4.66
-5.15
-5.27
-4.93
-4.20
-3.24
-2.23
-1.32
-0.56
0.06
0.55
0.81
0.73
0.25
-0.51
-1.19
-1.27
-0.25
2.15
5.83
10.25
14.64
18.12
20.05
20.09
18.33
15.15
11.09
6.80
2.69
-0.83
-3.52
-5.29
-6.28
-6.76
-7.09
-7.52
-8.16
-8.91
-9.57
-9.97
-10.04
-9.81
-9.38
-8.81
-8.15
-7.48
-6.90
-6.53
-6.43
-6.52
-6.62
-6.50
-6.04
-5.24
-4.27
-3.36
-2.71
-2.40
-2.40
-2.58
-2.80
-2.99
-3.15
-3.31
-3.48
-3.60
-3.57
-3.32
-2.82
-2.16
-1.51
-1.03
-0.87
-1.07
-1.58
-2.31
-3.15
-4.01
-4.80
-5.47
-5.98
-6.35
-6.55
-6.60
-6.51
-6.36
-6.25
-6.24
-6.34
-6.40
-6.17
-5.47
-4.23
-2.52
-0.66
0.94
1.97
2.29
1.99
1.27
0.36
-0.60
-1.49
-2.19
-2.53
-2.36
-1.64
-0.59
0.39
0.87
0.57
-0.50
-2.06
-3.72
-5.17
-6.32
-7.32
-8.46
-9.98
-11.93
-14.15
-16.25
-17.75
-18.22
-17.39
-15.26
-12.07
-8.26
-4.30
-0.59
2.64
5.33
7.51
9.24
10.58
11.62
12.43
13.07
13.54
13.76
13.56
12.81
11.48
9.71
7.81
6.09
4.82
4.00
3.48
2.99
2.28
1.26
0.02
-1.23
-2.30
-3.12
-3.77
-4.49
-5.50
-6.94
-8.86
-11.20
-13.81
-16.43
-18.61
-19.79
-19.42
-17.24
-13.45
-8.77
-4.17
-0.52
1.77
2.84
3.24
3.56
4.15
5.04
6.07
7.05
8.00
9.04
10.35
11.93
13.57
14.93
15.71
15.78
15.30
14.61
14.04
13.74
13.62
13.43
12.86
11.78
10.26
8.59
7.08
5.93
5.18
4.62
3.96
2.87
1.16
-1.24
-4.26
-7.66
-11.00
-13.69
-15.05
-14.50
-11.82
-7.30
-1.77
3.72
8.20
11.13
12.54
12.88
12.78
12.76
13.06
13.64
14.33
14.92
15.30
15.43
15.34
15.07
14.63
14.01
13.20
12.23
11.17
10.15
9.32
8.77
8.52
8.51
8.60
8.66
8.55
8.17
7.44
6.34
4.93
3.31
1.66
0.09
-1.31
-2.56
-3.73
-4.90
-6.16
-7.55
-9.11
-10.76
-12.31
-13.43
-13.71
-12.85
-10.82
-7.94
-4.84
-2.15
-0.36
0.45
0.55
0.38
0.32
0.56
1.06
1.63
2.08
2.31
2.32
2.19
2.04
1.91
1.79
1.64
1.39
1.05
0.65
0.28
0.06
0.05
0.25
0.58
0.89
0.99
0.73
0.05
-0.94
-2.03
-2.95
-3.47
-3.50
-3.13
-2.58
-2.12
-2.00
-2.41
-3.49
-5.28
-7.65
-10.20
-12.24
-12.97
-11.74
-8.34
-3.14
2.97
8.91
13.81
17.22
19.24
20.26
20.75
21.00
21.13
21.13
21.02
20.94
21.10
21.59
22.31
22.92
22.95
22.04
20.07
17.26
14.05
10.93
8.22
6.00
4.12
2.31
0.33
-1.98
-4.57
-7.33
-10.05
-12.57
-14.83
-16.89
-18.89
-20.94
-23.13
-25.43
-27.71
-29.72
-31.06
-31.29
-30.05
-27.24
-23.14
-18.39
-13.76
-9.94
-7.24
-5.63
-4.86
-4.62
-4.76
-5.22
-5.94
-6.79
-7.55
-8.03
-8.20
-8.21
-8.32
-8.71
-9.46
-10.48
-11.55
-12.46
-13.07
-13.39
-13.55
-13.73
-14.11
-14.75
-15.57
-16.42
-17.07
-17.38
-17.32
-17.01
-16.69
-16.73
-17.48
-19.19
-21.80
-24.73
-26.94
-27.17
-24.45
-18.62
-10.48
-1.56
6.50
12.55
16.26
18.07
18.70
18.79
18.61
18.17
17.39
16.32
15.20
14.24
13.60
13.22
12.91
12.42
11.56
10.26
8.63
6.90
5.35
4.24
3.65
3.45
3.35
2.97
2.07
0.63
-1.15
-2.87
-4.18
-4.91
-5.19
-5.37
-5.85
-6.98
-8.88
-11.49
-14.50
-17.49
-19.94
-21.31
-21.21
-19.49
-16.35
-12.30
-8.04
-4.19
-1.14
1.06
2.64
3.90
5.10
6.35
7.63
8.86
9.95
10.84
11.50
11.97
12.30
12.56
12.77
12.94
13.02
12.96
12.76
12.50
12.28
12.22
12.31
12.45
12.42
11.99
11.04
9.63
7.93
6.18
4.58
3.19
1.91
0.58
-0.99
-2.89
-5.12
-7.61
-10.21
-12.74
-14.95
-16.49
-16.93
-15.92
-13.28
-9.17
-4.10
1.15
5.87
9.58
12.19
13.98
15.34
16.59
17.81
18.87
19.59
19.91
19.93
19.81
19.69
19.53
19.21
18.61
17.73
16.72
15.78
15.05
14.50
13.94
13.15
11.99
10.47
8.72
6.92
5.19
3.59
2.11
0.73
-0.63
-2.07
-3.72
-5.69
-8.04
-10.73
-13.58
-16.31
-18.57
-20.00
-20.35
-19.54
-17.67
-15.09
-12.18
-9.35
-6.87
-4.86
-3.28
-2.04
-1.05
-0.25
0.38
0.87
1.29
1.69
2.12
2.59
3.05
3.47
3.85
4.20
4.53
4.81
5.02
5.11
5.02
4.73
4.22
3.46
2.47
1.28
-0.01
-1.29
-2.45
-3.48
-4.47
-5.60
-7.09
-9.12
-11.72
-14.69
-17.61
-19.94
-21.11
-20.77
-18.86
-15.69
-11.81
-7.79
-4.15
-1.16
1.07
2.60
3.58
4.17
4.54
4.81
5.00
5.06
4.90
4.49
3.89
3.33
3.15
3.66
5.02
7.22
10.05
13.19
16.29
19.04
21.24
22.74
23.48
23.50
22.95
22.09
21.27
20.80
20.90
21.58
22.68
23.91
24.99
25.66
25.79
25.32
24.28
22.81
21.18
19.75
18.86
18.73
19.36
20.49
21.69
22.57
22.90
22.71
22.25
21.81
21.57
21.45
21.19
20.50
19.25
17.57
15.76
14.04
12.43
10.59
8.06
4.48
-0.15
-5.35
-10.40
-14.58
-17.54
-19.34
-20.34
-20.89
-21.10
-20.74
-19.39
-16.71
-12.67
-7.58
-1.96
3.59
8.52
12.41
14.85
15.59
14.60
12.22
9.06
5.79
2.86
0.28
-2.27
-5.20
-8.69
-12.61
-16.58
-20.29
-23.63
-26.71
-29.73
-32.70
-35.41
-37.51
-38.67
-38.84
-38.22
-37.19
-36.06
-34.94
-33.65
-31.93
-29.57
-26.63
-23.44
-20.50
-18.25
-16.98
-16.72
-17.26
-18.25
-19.22
-19.73
-19.41
-18.03
-15.58
-12.18
-8.04
-3.31
1.82
7.08
12.01
15.93
18.20
18.42
16.71
13.66
10.17
7.22
5.53
5.55
7.34
10.71
15.26
20.42
25.56
30.08
33.48
35.46
35.98
35.18
33.38
30.96
28.30
25.69
23.39
21.53
20.18
19.34
18.96
18.93
19.13
19.42
19.69
19.90
20.01
19.87
19.24
17.76
15.09
11.15
6.24
0.99
-3.75
-7.21
-9.00
-9.25
-8.52
-7.57
-7.00
-6.98
-7.19
-7.02
-5.88
-3.47
0.09
4.32
8.54
12.10
14.46
15.27
14.41
11.95
8.10
3.13
-2.73
-9.39
-16.79
-24.81
-32.96
-40.43
-46.20
-49.49
-50.20
-49.15
-47.83
-47.78
-49.97
-54.36
-60.00
-65.38
-69.12
-70.32
-68.77
-64.82
-59.06
-52.08
-44.35
-36.21
-27.86
-19.45
-11.11
-2.95
4.96
12.56
19.73
26.29
31.86
35.88
37.68
36.77
33.07
27.12
19.91
12.57
6.01
0.64
-3.61
-7.07
-10.01
-12.39
-13.98
-14.51
-13.97
-12.66
-11.08
-9.68
-8.64
-7.85
-6.98
-5.77
-4.13
-2.21
-0.32
1.22
2.15
2.35
1.87
0.94
0.01
-0.35
0.45
2.80
6.76
11.99
17.88
23.80
29.25
34.00
38.04
41.46
44.33
46.53
47.79
47.58
45.27
40.22
32.12
21.22
8.46
-4.63
-16.34
-25.34
-31.00
-33.57
-33.92
-33.16
-32.28
-31.98
-32.71
-34.82
-38.54
-43.88
-50.47
-57.41
-63.49
-67.44
-68.47
-66.57
-62.50
-57.50
-52.75
-48.89
-45.82
-42.75
-38.60
-32.48
-24.06
-13.75
-2.48
8.55
18.35
26.37
32.53
37.03
40.07
41.73
41.98
40.80
38.42
35.27
31.85
28.56
25.56
22.89
20.64
18.97
18.05
17.79
17.76
17.24
15.53
12.30
7.77
2.64
-2.24
-6.16
-8.76
-10.01
-10.16
-9.55
-8.61
-7.78
-7.44
-7.86
-9.05
-10.68
-12.26
-13.27
-13.41
-12.66
-11.33
-9.85
-8.63
-7.90
-7.71
-7.95
-8.41
-8.91
-9.31
-9.49
-9.37
-8.85
-7.87
-6.43
-4.69
-2.96
-1.64
-1.12
-1.60
-2.98
-4.88
-6.71
-7.87
-7.91
-6.68
-4.26
-0.94
2.90
6.87
10.66
14.03
16.88
19.20
21.07
22.56
23.74
24.62
25.21
25.51
25.53
25.30
24.85
24.19
23.35
22.40
21.46
20.66
20.11
19.78
19.57
19.34
18.95
18.36
17.60
16.69
15.60
14.23
12.45
10.18
7.50
4.61
1.79
-0.69
-2.70
-4.25
-5.50
-6.66
-7.89
-9.26
-10.64
-11.80
-12.40
-12.17
-10.95
-8.76
-5.81
-2.48
0.84
3.74
5.99
7.52
8.47
9.11
9.69
10.36
11.08
11.70
12.03
11.98
11.62
11.12
10.69
10.46
10.42
10.47
10.48
10.35
10.06
9.67
9.27
8.86
8.43
7.88
7.14
6.18
5.04
3.78
2.46
1.11
-0.30
-1.80
-3.41
-5.13
-6.95
-8.86
-10.80
-12.71
-14.44
-15.74
-16.35
-16.02
-14.61
-12.19
-9.03
-5.55
-2.17
0.79
3.19
5.06
6.56
7.83
8.92
9.81
10.47
10.86
11.06
11.14
11.21
11.30
11.38
11.40
11.30
11.08
10.78
10.43
10.08
9.72
9.34
8.93
8.47
7.93
7.27
6.43
5.38
4.17
2.93
1.83
0.95
0.29
-0.26
-0.88
-1.71
-2.85
-4.28
-5.93
-7.65
-9.17
-10.16
-10.25
-9.18
-6.96
-3.93
-0.65
2.29
4.46
5.77
6.40
6.68
6.90
7.18
7.47
7.66
7.70
7.61
7.45
7.23
6.92
6.39
5.56
4.49
3.39
2.47
1.87
1.56
1.31
0.92
0.28
-0.54
-1.39
-2.10
-2.64
-3.09
-3.56
-4.12
-4.74
-5.37
-5.96
-6.55
-7.20
-7.98
-8.86
-9.80
-10.75
-11.74
-12.85
-14.08
-15.28
-16.09
-16.10
-14.97
-12.71
-9.63
-6.30
-3.30
-0.96
0.67
1.78
2.62
3.37
4.04
4.56
4.88
5.04
5.14
5.27
5.46
5.66
5.84
6.02
6.28
6.72
7.37
8.15
8.94
9.58
9.99
10.14
10.04
9.75
9.30
8.72
8.04
7.31
6.56
5.76
4.87
3.81
2.58
1.24
-0.10
-1.31
-2.30
-3.06
-3.70
-4.36
-5.27
-6.57
-8.29
-10.26
-12.11
-13.35
-13.55
-12.50
-10.29
-7.29
-4.00
-0.91
1.64
3.53
4.80
5.60
6.13
6.54
6.93
7.32
7.65
7.88
7.95
7.89
7.71
7.46
7.17
6.84
6.46
6.09
5.79
5.64
5.62
5.61
5.45
4.96
4.12
3.03
1.87
0.85
0.07
-0.48
-0.93
-1.42
-2.02
-2.73
-3.52
-4.30
-5.01
-5.59
-6.03
-6.36
-6.68
-7.16
-8.00
-9.30
-11.01
-12.86
-14.47
-15.42
-15.41
-14.30
-12.17
-9.27
-5.95
-2.63
0.34
2.69
4.29
5.24
5.76
6.10
6.48
6.96
7.44
7.74
7.74
7.45
7.01
6.64
6.52
6.68
7.01
7.32
7.45
7.31
6.96
6.51
6.08
5.71
5.36
4.93
4.38
3.70
2.97
2.29
1.71
1.24
0.79
0.21
-0.60
-1.65
-2.85
-4.02
-5.01
-5.72
-6.21
-6.64
-7.17
-7.93
-8.93
-10.09
-11.35
-12.68
-14.06
-15.34
-16.29
-16.55
-15.77
-13.80
-10.81
-7.22
-3.61
-0.53
1.68
2.96
3.50
3.60
3.58
3.61
3.73
3.84
3.84
3.71
3.50
3.37
3.44
3.74
4.23
4.74
5.16
5.38
5.37
5.12
4.63
3.93
3.03
2.02
1.02
0.11
-0.65
-1.24
-1.72
-2.17
-2.67
-3.30
-4.10
-5.02
-5.98
-6.87
-7.63
-8.25
-8.84
-9.52
-10.39
-11.35
-12.13
-12.32
-11.55
-9.68
-6.84
-3.44
-0.05
2.85
4.95
6.21
6.79
6.93
6.86
6.69
6.44
6.10
5.68
5.24
4.83
4.48
4.16
3.82
3.44
3.00
2.57
2.20
1.93
1.77
1.64
1.49
1.27
0.98
0.61
0.20
-0.28
-0.83
-1.48
-2.22
-2.97
-3.70
-4.35
-4.93
-5.47
-6.00
-6.58
-7.27
-8.17
-9.39
-11.00
-12.89
-14.77
-16.12
-16.40
-15.26
-12.68
-9.08
-5.11
-1.49
1.29
3.04
3.94
4.32
4.56
4.92
5.49
6.23
7.02
7.74
8.31
8.69
8.92
9.01
9.01
8.92
8.76
8.55
8.34
8.15
7.96
7.71
7.30
6.66
5.78
4.73
3.64
2.65
1.81
1.14
0.58
0.07
-0.45
-1.03
-1.71
-2.49
-3.34
-4.14
-4.80
-5.28
-5.62
-5.99
-6.60
-7.61
-8.98
-10.51
-11.78
-12.36
-11.89
-10.24
-7.54
-4.17
-0.64
2.56
5.06
6.71
7.58
7.90
7.94
8.00
8.26
8.76
9.38
9.92
10.17
10.04
9.61
9.02
8.46
8.02
7.67
7.33
6.91
6.40
5.82
5.20
4.52
3.72
2.77
1.73
0.74
-0.01
-0.45
-0.65
-0.82
-1.23
-2.05
-3.23
-4.59
-5.83
-6.77
-7.35
-7.71
-8.08
-8.69
-9.71
-11.16
-12.91
-14.69
-16.13
-16.82
-16.44
-14.82
-12.09
-8.60
-4.90
-1.55
1.07
2.80
3.78
4.31
4.73
5.22
5.80
6.33
6.64
6.63
6.34
5.93
5.54
5.27
5.09
4.91
4.62
4.21
3.72
3.22
2.79
2.43
2.08
1.67
1.12
0.39
-0.51
-1.48
-2.44
-3.31
-4.05
-4.67
-5.22
-5.75
-6.35
-7.11
-8.09
-9.33
-10.72
-12.02
-12.88
-12.93
-11.96
-10.01
-7.36
-4.43
-1.63
0.77
2.66
4.08
5.15
5.97
6.66
7.24
7.72
8.06
8.22
8.15
7.86
7.35
6.71
5.98
5.26
4.59
4.03
3.59
3.29
3.07
2.88
2.62
2.22
1.61
0.78
-0.24
-1.36
-2.45
-3.37
-4.05
-4.53
-4.94
-5.42
-6.10
-7.04
-8.23
-9.61
-11.05
-12.33
-13.10
-12.98
-11.70
-9.25
-5.95
-2.39
0.78
3.13
4.58
5.39
5.94
6.60
7.52
8.59
9.59
10.29
10.56
10.46
10.14
9.76
9.39
8.99
8.48
7.80
6.98
6.14
5.44
4.97
4.72
4.56
4.34
3.92
3.24
2.34
1.34
0.31
-0.70
-1.68
-2.68
-3.70
-4.69
-5.55
-6.15
-6.45
-6.51
-6.47
-6.56
-6.94
-7.73
-8.93
-10.42
-12.00
-13.32
-14.01
-13.70
-12.25
-9.77
-6.64
-3.43
-0.62
1.49
2.91
3.86
4.63
5.45
6.40
7.44
8.43
9.26
9.83
10.10
10.06
9.70
9.09
8.32
7.53
6.83
6.32
6.04
5.95
5.96
5.90
5.62
5.05
4.23
3.28
2.41
1.80
1.49
1.42
1.40
1.24
0.82
0.12
-0.74
-1.63
-2.43
-3.06
-3.58
-4.05
-4.56
-5.13
-5.72
-6.25
-6.65
-6.96
-7.28
-7.78
-8.60
-9.81
-11.37
-13.12
-14.84
-16.26
-17.07
-16.95
-15.63
-13.04
-9.42
-5.26
-1.27
1.94
4.01
4.98
5.21
5.18
5.32
5.79
6.53
7.34
8.03
8.49
8.75
8.86
8.87
8.74
8.43
7.90
7.20
6.44
5.78
5.32
5.09
5.04
5.06
5.01
4.79
4.33
3.62
2.69
1.66
0.66
-0.18
-0.78
-1.19
-1.51
-1.88
-2.40
-3.13
-4.02
-4.98
-5.89
-6.66
-7.26
-7.76
-8.26
-8.95
-9.95
-11.29
-12.80
-14.16
-14.96
-14.83
-13.61
-11.34
-8.36
-5.07
-1.92
0.78
2.85
4.28
5.18
5.71
6.08
6.44
6.90
7.47
8.09
8.62
8.97
9.08
8.95
8.62
8.14
7.57
6.98
6.44
6.00
5.69
5.50
5.36
5.20
4.93
4.51
3.95
3.25
2.44
1.56
0.66
-0.19
-0.89
-1.40
-1.72
-1.92
-2.11
-2.41
-2.88
-3.51
-4.24
-4.98
-5.66
-6.28
-6.86
-7.46
-8.17
-9.05
-10.15
-11.47
-12.86
-14.06
-14.66
-14.23
-12.51
-9.53
-5.66
-1.55
2.13
4.88
6.55
7.34
7.63
7.76
7.97
8.31
8.73
9.15
9.49
9.69
9.69
9.48
9.05
8.50
7.93
7.43
7.02
6.66
6.31
5.93
5.52
5.06
4.53
3.91
3.17
2.34
1.50
0.71
0.01
-0.65
-1.33
-2.07
-2.87
-3.69
-4.48
-5.20
-5.85
-6.44
-6.95
-7.38
-7.73
-8.09
-8.62
-9.50
-10.84
-12.55
-14.30
-15.56
-15.83
-14.77
-12.41
-9.15
-5.60
-2.38
0.07
1.68
2.61
3.19
3.70
4.32
5.05
5.80
6.43
6.79
6.82
6.54
6.00
5.30
4.57
3.90
3.39
3.11
3.03
3.12
3.25
3.26
3.07
2.61
1.93
1.11
0.28
-0.50
-1.18
-1.78
-2.34
-2.89
-3.46
-4.03
-4.62
-5.21
-5.86
-6.62
-7.59
-8.81
-10.16
-11.41
-12.19
-12.16
-11.13
-9.16
-6.51
-3.61
-0.84
1.47
3.21
4.39
5.15
5.64
6.01
6.33
6.62
6.85
6.96
6.92
6.78
6.58
6.42
6.31
6.22
6.04
5.68
5.13
4.46
3.79
3.25
2.91
2.72
2.59
2.39
2.07
1.65
1.18
0.72
0.31
-0.03
-0.31
-0.51
-0.66
-0.78
-0.96
-1.30
-1.84
-2.50
-3.04
-3.11
-2.36
-0.59
2.16
5.57
9.21
12.61
15.46
17.67
19.35
20.77
22.23
23.98
26.12
28.57
31.14
33.48
35.18
35.88
35.29
33.37
30.26
26.31
21.94
17.55
13.44
9.76
6.56
3.80
1.36
-0.88
-3.10
-5.46
-8.08
-10.97
-14.00
-16.98
-19.66
-21.96
-23.88
-25.61
-27.42
-29.60
-32.37
-35.86
-40.02
-44.53
-48.77
-51.94
-53.23
-52.17
-48.81
-43.70
-37.76
-31.89
-26.65
-22.16
-18.19
-14.39
-10.54
-6.69
-3.07
0.04
2.44
4.15
5.36
6.30
7.15
7.99
8.76
9.38
9.85
10.22
10.65
11.25
12.03
12.86
13.53
13.85
13.74
13.18
12.28
11.26
10.35
9.78
9.70
10.14
10.91
11.76
12.38
12.52
12.10
11.11
9.65
7.88
6.02
4.39
3.37
3.26
4.11
5.70
7.55
9.17
10.24
10.76
10.96
11.16
11.50
11.92
12.18
11.97
11.12
9.65
7.71
5.53
3.35
1.30
-0.51
-2.02
-3.19
-4.01
-4.54
-4.87
-5.21
-5.76
-6.64
-7.90
-9.44
-11.05
-12.51
-13.68
-14.55
-15.27
-16.12
-17.34
-19.09
-21.31
-23.76
-26.15
-28.22
-29.88
-31.22
-32.39
-33.52
-34.69
-35.82
-36.76
-37.28
-37.06
-35.72
-32.89
-28.35
-22.19
-14.87
-7.24
-0.22
5.42
9.34
11.67
12.90
13.61
14.25
14.99
15.77
16.41
16.79
16.93
16.99
17.17
17.62
18.32
19.12
19.76
20.01
19.80
19.22
18.48
17.80
17.25
16.78
16.20
15.35
14.17
12.73
11.22
9.82
8.60
7.54
6.53
5.43
4.19
2.84
1.49
0.24
-0.84
-1.73
-2.48
-3.16
-3.87
-4.71
-5.77
-7.08
-8.61
-10.26
-11.83
-13.02
-13.52
-13.04
-11.43
-8.73
-5.18
-1.22
2.65
5.99
8.59
10.42
11.70
12.66
13.50
14.28
14.93
15.34
15.42
15.16
14.60
13.82
12.88
11.77
10.42
8.77
6.72
4.26
1.46
-1.57
-4.64
-7.57
-10.23
-12.58
-14.65
-16.46
-17.96
-19.00
-19.43
-19.17
-18.39
-17.42
-16.61
-16.22
-16.22
-16.36
-16.34
-15.94
-15.19
-14.36
-13.81
-13.90
-14.79
-16.42
-18.45
-20.32
-21.45
-21.31
-19.64
-16.57
-12.51
-8.06
-3.75
0.03
3.17
5.68
7.63
9.07
10.02
10.48
10.47
10.11
9.59
9.11
8.86
8.95
9.42
10.21
11.18
12.19
13.10
13.81
14.29
14.52
14.52
14.30
13.86
13.22
12.39
11.39
10.25
8.96
7.53
5.99
4.45
3.05
1.91
1.10
0.60
0.28
-0.01
-0.39
-0.95
-1.74
-2.77
-3.98
-5.22
-6.19
-6.54
-6.00
-4.48
-2.19
0.45
2.96
4.96
6.35
7.23
7.78
8.18
8.47
8.61
8.53
8.25
7.84
7.43
7.09
6.86
6.69
6.52
6.27
5.91
5.39
4.69
3.86
2.97
2.15
1.53
1.12
0.81
0.37
-0.39
-1.56
-3.02
-4.54
-5.86
-6.88
-7.68
-8.45
-9.42
-10.76
-12.50
-14.48
-16.47
-18.15
-19.24
-19.51
-18.86
-17.34
-15.16
-12.63
-10.10
-7.90
-6.29
-5.31
-4.85
-4.59
-4.20
-3.41
-2.21
-0.81
0.42
1.17
1.32
1.00
0.51
0.09
-0.12
-0.12
-0.01
0.16
0.40
0.73
1.13
1.52
1.82
1.99
2.11
2.35
2.91
3.92
5.44
7.37
9.60
11.97
14.40
16.82
19.19
21.42
23.35
24.77
25.43
25.14
23.82
21.60
18.81
15.90
13.33
11.45
10.39
10.03
10.09
10.24
10.16
9.71
8.88
7.86
6.92
6.35
6.38
7.07
8.29
9.77
11.17
12.21
12.75
12.81
12.54
12.17
11.91
11.89
12.19
12.77
13.52
14.27
14.85
15.15
15.17
15.04
14.95
15.14
15.75
16.75
17.99
19.24
20.31
21.12
21.87
22.91
24.75
27.89
32.58
38.72
45.77
52.82
58.76
62.54
63.43
61.22
56.17
48.94
40.33
31.14
22.03
13.44
5.62
-1.39
-7.68
-13.47
-18.99
-24.43
-29.79
-34.87
-39.21
-42.23
-43.43
-42.63
-40.06
-36.42
-32.62
-29.48
-27.52
-26.77
-26.87
-27.33
-27.71
-27.76
-27.48
-26.99
-26.52
-26.30
-26.49
-27.12
-27.99
-28.69
-28.73
-27.70
-25.49
-22.34
-18.72
-15.17
-12.06
-9.48
-7.35
-5.56
-4.15
-3.29
-3.24
-4.16
-5.97
-8.43
-11.19
-13.96
-16.62
-19.20
-21.83
-24.62
-27.66
-30.99
-34.60
-38.35
-41.96
-44.97
-46.86
-47.25
-46.12
-43.87
-41.25
-39.04
-37.75
-37.45
-37.74
-37.97
-37.49
-35.99
-33.51
-30.44
-27.27
-24.35
-21.79
-19.44
-17.00
-14.21
-10.98
-7.41
-3.75
-0.27
2.83
5.42
7.45
8.88
9.72
10.08
10.21
10.46
11.16
12.45
14.28
16.35
18.30
19.91
21.08
21.93
22.61
23.23
23.84
24.40
24.94
25.47
26.13
27.06
28.48
30.58
33.54
37.43
42.11
47.33
52.67
57.73
62.17
65.75
68.32
69.74
69.87
68.59
65.83
61.61
56.10
49.58
42.44
35.13
28.05
21.51
15.65
10.48
5.89
1.71
-2.18
-5.85
-9.32
-12.55
-15.48
-18.01
-20.05
-21.48
-22.27
-22.46
-22.18
-21.59
-20.89
-20.29
-19.93
-19.94
-20.33
-21.02
-21.81
-22.49
-22.93
-23.10
-23.15
-23.27
-23.61
-24.15
-24.74
-25.16
-25.23
-24.90
-24.25
-23.43
-22.56
-21.73
-20.98
-20.25
-19.51
-18.72
-17.89
-17.07
-16.35
-15.86
-15.70
-15.97
-16.73
-18.02
-19.78
-21.91
-24.20
-26.37
-28.17
-29.44
-30.15
-30.41
-30.38
-30.19
-29.89
-29.42
-28.72
-27.78
-26.63
-25.41
-24.25
-23.27
-22.51
-21.96
-21.50
-20.93
-19.98
-18.41
-16.08
-13.06
-9.68
-6.43
-3.85
-2.35
-2.14
-3.20
-5.39
-8.47
-12.05
-15.60
-18.47
-19.98
-19.69
-17.55
-13.96
-9.63
-5.32
-1.53
1.54
4.01
6.10
8.00
9.76
11.36
12.78
14.11
15.52
17.16
19.08
21.14
23.08
24.62
25.52
25.68
25.16
24.14
22.79
21.29
19.71
18.00
16.09
13.99
11.79
9.71
7.98
6.80
6.30
6.37
6.67
6.71
6.08
4.58
2.36
-0.22
-2.73
-4.77
-6.29
-7.59
-9.07
-10.96
-13.16
-15.33
-17.07
-18.11
-18.16
-17.37
-16.31
-15.55
-15.15
-14.49
-12.49
-8.18
-1.09
8.92
20.75
32.19
41.03
46.32
48.96
51.08
55.00
62.11
73.11
86.69
99.69
108.79
112.21
110.27
104.73
98.15
93.91
96.86
110.80
136.21
169.36
203.08
228.77
238.97
229.96
196.51
143.19
84.42
35.90
4.36
-13.28
-23.28
-29.43
-31.82
-31.61
-27.90
-22.13
-18.56
-22.12
-35.55
-58.25
-87.46
-120.69
-151.46
-177.90
-200.40
-221.43
-244.55
-272.83
-307.55
-347.40
-388.09
-422.37
-443.10
-442.78
-417.38
-368.64
-303.53
-231.38
-160.15
-94.21
-26.45
40.95
101.89
149.97
181.96
198.73
204.11
203.12
199.41
196.86
191.62
179.70
158.43
127.40
88.35
44.93
2.78
-31.91
-51.66
-52.09
-30.37
12.97
72.95
140.06
202.39
249.44
274.54
276.86
259.48
230.42
199.76
176.18
163.64
155.88
145.21
124.80
93.52
55.27
17.31
-13.53
-38.13
-61.28
-88.32
-122.40
-164.34
-209.61
-255.00
-299.28
-343.44
-379.66
-400.53
-400.72
-378.51
-335.79
-276.34
-207.03
-136.42
-72.80
-21.97
13.00
33.66
43.30
45.20
43.28
40.54
39.50
42.37
51.12
66.39
88.31
116.97
148.18
178.92
205.58
224.60
233.45
231.51
219.71
200.69
177.78
154.14
132.61
114.42
99.63
87.76
78.37
70.97
65.22
60.87
57.78
56.49
57.47
61.00
66.81
73.54
78.35
77.39
67.03
45.56
14.93
-19.68
-51.38
-74.14
-85.12
-85.51
-79.48
-72.05
-66.75
-64.48
-64.08
-63.64
-61.86
-58.53
-54.08
-48.93
-43.12
-36.44
-28.96
-21.40
-15.07
-11.20
-10.31
-11.95
-15.00
-18.22
-20.85
-22.73
-24.22
-25.85
-27.85
-30.07
-32.04
-33.28
-33.54
-32.65
-30.23
-26.00
-20.04
-12.83
-5.21
1.79
7.27
10.83
12.87
14.76
17.91
22.96
29.45
36.08
41.32
43.98
43.82
41.52
38.93
37.74
38.66
41.28
44.38
46.42
46.10
42.64
33.00
17.04
-2.38
-21.23
-36.81
-48.13
-54.78
-56.02
-51.19
-40.77
-26.56
-12.06
-1.18
3.54
2.62
-1.76
-6.82
-10.65
-12.88
-13.87
-14.30
-14.31
-13.45
-11.02
-6.73
-0.99
5.22
11.09
16.42
21.36
26.13
30.19
31.33
27.30
17.20
2.41
-13.91
-28.11
-37.75
-41.82
-40.79
-36.09
-29.40
-22.49
-17.08
-14.61
-15.73
-20.39
-27.18
-34.16
-39.53
-42.11
-41.55
-38.25
-33.73
-28.82
-25.04
-23.46
-24.80
-29.02
-35.00
-40.57
-42.96
-39.64
-28.42
-10.59
11.39
34.19
54.47
69.35
76.82
76.10
67.77
55.08
39.95
25.40
14.08
7.42
4.86
4.42
3.87
2.00
-0.58
-2.26
-0.91
4.31
12.33
20.49
25.88
26.78
23.18
16.47
8.19
-0.25
-9.06
-17.86
-25.84
-31.69
-33.94
-31.97
-26.62
-20.22
-15.25
-13.31
-14.24
-16.58
-18.61
-19.39
-19.35
-19.87
-22.27
-26.71
-32.00
-36.12
-37.42
-35.21
-29.62
-21.05
-9.66
4.42
20.41
36.21
48.49
53.84
50.38
38.98
23.16
7.88
-2.39
-5.13
-0.15
10.89
25.43
40.71
54.27
64.05
68.61
67.49
61.28
51.57
40.33
29.27
19.35
10.90
4.00
-1.09
-3.78
-3.62
-0.79
3.49
7.24
8.47
6.10
0.47
-6.87
-14.04
-19.72
-23.62
-26.21
-28.11
-29.57
-30.49
-30.76
-30.82
-31.60
-34.00
-38.12
-42.76
-45.69
-44.59
-38.23
-27.13
-13.43
0.02
10.88
18.12
22.15
24.25
25.76
27.43
29.20
30.44
30.31
28.11
23.45
16.38
7.52
-1.77
-9.56
-13.76
-12.86
-6.54
4.06
16.69
28.85
38.53
44.79
47.74
48.10
46.77
44.49
41.69
38.47
34.65
29.77
23.29
14.91
4.95
-5.48
-14.62
-20.58
-22.06
-18.87
-12.03
-3.43
4.91
11.42
15.36
16.74
16.10
14.12
11.52
8.96
7.06
6.30
6.83
8.36
10.20
11.45
11.44
10.00
7.51
4.67
2.17
0.36
-0.81
-1.69
-2.62
-3.78
-5.07
-6.22
-6.91
-6.92
-6.20
-4.88
-3.22
-1.52
-0.08
0.93
1.41
1.36
0.78
-0.28
-1.74
-3.42
-5.02
-6.20
-6.69
-6.39
-5.43
-4.11
-2.82
-1.96
-2.00
-3.51
-7.09
-13.22
-22.04
-33.08
-45.26
-57.14
-67.35
-75.00
-79.80
-81.90
-81.66
-79.37
-75.22
-69.53
-62.88
-56.23
-50.59
-46.68
-44.47
-43.17
-41.53
-38.51
-33.73
-27.75
-21.76
-17.02
-14.30
-13.67
-14.62
-16.41
-18.48
-20.48
-22.19
-23.28
-23.26
-21.62
-18.22
-13.42
-8.10
-3.31
0.19
2.11
2.76
2.77
2.76
3.12
3.91
4.94
5.94
6.70
7.13
7.29
7.29
7.24
7.21
7.21
7.14
6.88
6.34
5.61
4.95
4.77
5.45
7.18
9.82
12.96
16.06
18.64
20.46
21.56
22.17
22.57
22.93
23.22
23.28
22.84
21.76
20.03
17.83
15.41
12.94
10.50
8.14
6.02
4.47
4.01
5.09
7.79
11.70
16.03
19.94
22.83
24.58
25.44
25.80
25.98
26.06
25.99
25.61
24.84
23.69
22.23
20.57
18.86
17.23
15.81
14.65
13.73
12.91
11.99
10.83
9.36
7.71
6.04
4.55
3.34
2.40
1.62
0.87
0.02
-0.97
-2.08
-3.22
-4.26
-5.11
-5.69
-6.03
-6.23
-6.49
-7.06
-8.12
-9.71
-11.64
-13.50
-14.78
-14.97
-13.76
-11.14
-7.38
-2.97
1.50
5.54
8.88
11.47
13.50
15.27
17.09
19.11
21.31
23.44
25.18
26.22
26.36
25.56
23.93
21.62
18.80
15.62
12.28
9.01
6.09
3.69
1.84
0.37
-0.98
-2.48
-4.20
-5.99
-7.55
-8.58
-8.95
-8.71
-8.13
-7.45
-6.85
-6.35
-5.87
-5.33
-4.72
-4.09
-3.55
-3.16
-2.93
-2.86
-2.94
-3.24
-3.81
-4.67
-5.66
-6.43
-6.54
-5.65
-3.63
-0.72
2.60
5.76
8.30
9.95
10.73
10.84
10.55
10.15
9.84
9.69
9.69
9.69
9.51
8.95
7.87
6.20
4.06
1.68
-0.64
-2.64
-4.18
-5.30
-6.18
-7.03
-7.99
-9.09
-10.21
-11.20
-11.88
-12.19
-12.24
-12.30
-12.85
-14.36
-17.12
-21.00
-25.33
-29.13
-31.42
-31.74
-30.41
-28.48
-27.26
-27.67
-29.82
-32.92
-35.69
-36.91
-35.81
-32.16
-26.12
-17.87
-7.58
4.47
17.61
30.67
42.16
50.77
55.87
57.71
57.24
55.68
53.97
52.55
51.36
50.08
48.46
46.38
43.98
41.49
39.18
37.15
35.29
33.11
29.86
24.68
16.98
6.66
-5.67
-18.83
-31.31
-41.62
-48.63
-51.77
-51.11
-47.25
-41.18
-34.09
-27.08
-20.96
-16.05
-12.20
-8.97
-5.88
-2.61
0.82
4.17
7.12
9.56
11.60
13.57
15.78
18.33
20.91
22.96
23.90
23.48
21.94
19.90
18.07
16.93
16.58
16.69
16.70
15.88
13.51
8.97
2.05
-6.77
-16.14
-24.15
-28.91
-29.44
-26.09
-20.46
-14.74
-10.72
-9.25
-10.22
-13.07
-17.32
-22.71
-28.94
-35.29
-40.55
-43.43
-43.25
-40.42
-36.29
-32.49
-30.04
-28.90
-28.13
-26.60
-23.68
-19.65
-15.41
-11.95
-9.87
-9.21
-9.62
-10.73
-12.21
-13.92
-15.67
-17.19
-18.17
-18.42
-17.97
-17.15
-16.44
-16.22
-16.65
-17.53
-18.40
-18.75
