1557957375.00
64.000000
-0.00
-0.00
-0.00
-0.00
-0.00
-0.00
-0.00
-0.00
-0.00
-0.00
0.00
0.01
0.01
-0.00
-0.03
-0.05
-0.05
0.00
0.13
0.36
0.66
1.01
1.37
1.72
2.06
2.40
2.79
3.24
3.80
4.42
5.06
5.66
6.20
6.68
7.15
7.68
8.31
9.14
10.09
11.04
11.88
12.56
13.14
13.76
14.65
15.96
17.91
20.32
22.90
25.38
27.58
29.58
31.68
34.32
37.81
42.53
48.14
54.11
59.86
65.02
69.64
74.17
79.29
85.52
93.41
102.48
111.98
121.03
129.05
136.04
142.59
149.97
156.89
165.61
176.78
190.53
205.70
219.35
227.08
224.16
207.17
175.21
130.72
77.66
20.46
-37.59
-94.98
-151.61
-207.80
-263.41
-317.62
-368.80
-415.76
-457.51
-493.32
-522.41
-543.72
-555.90
-557.54
-547.58
-525.51
-492.00
-448.62
-397.74
-342.12
-284.57
-227.54
-172.82
-121.54
-74.14
-30.81
8.35
43.09
73.05
97.78
117.04
130.78
139.10
142.28
140.88
136.23
130.68
127.41
129.51
138.69
154.31
173.31
191.28
204.11
209.57
207.75
200.49
190.09
178.24
165.67
152.44
138.66
124.86
111.92
100.63
91.19
83.16
75.62
67.74
59.22
50.59
42.60
36.02
31.21
27.90
25.34
22.67
19.33
15.22
10.76
6.57
3.25
1.05
-0.14
-0.72
-1.22
-2.02
-3.27
-4.87
-6.53
-7.88
-8.65
-8.78
-8.37
-7.70
-7.03
-6.54
-6.27
-6.19
-6.22
-6.29
-6.25
-5.88
-4.95
-3.34
-1.22
0.99
2.71
3.45
3.13
1.99
0.53
-0.77
-1.67
-2.20
-2.48
-2.63
-2.67
-2.52
-2.15
-1.62
-1.12
-0.86
-0.95
-1.41
-2.06
-2.68
-3.08
-3.18
-3.03
-2.74
-2.45
-2.22
-2.07
-1.98
-1.92
-1.87
-1.78
-1.60
-1.27
-0.78
-0.21
0.33
0.74
0.99
1.16
1.40
1.82
2.47
3.29
4.16
4.97
5.64
6.10
6.36
6.48
6.53
6.56
6.63
6.69
6.62
6.30
5.53
4.19
2.32
0.07
-2.32
-4.58
-6.50
-7.95
-8.90
-9.38
-9.45
-9.17
-8.64
-8.00
-7.43
-7.10
-7.09
-7.34
-7.68
-7.87
-7.73
-7.18
-6.27
-5.14
-3.90
-2.68
-1.57
-0.68
-0.09
0.17
0.15
-0.01
-0.18
-0.29
-0.37
-0.51
-0.83
-1.39
-2.14
-2.93
-3.61
-4.04
-4.19
-4.11
-3.92
-3.76
-3.74
-3.92
-4.21
-4.50
-4.63
-4.48
-4.04
-3.38
-2.60
-1.84
-1.15
-0.58
-0.13
0.17
0.25
0.01
-0.67
-1.81
-3.23
-4.53
-5.14
-4.40
-1.74
3.09
9.80
17.51
24.86
30.41
33.06
32.48
29.23
24.49
19.45
14.89
10.83
6.78
2.15
-3.41
-9.90
-17.13
-24.76
-32.15
-38.02
-40.47
-37.49
-27.99
-12.76
5.35
22.30
34.45
39.91
39.01
33.55
25.62
16.60
7.18
-2.14
-10.52
-16.88
-20.51
-21.70
-21.80
-22.50
-24.85
-28.68
-32.72
-35.40
-35.78
-33.97
-30.99
-28.10
-26.18
-25.47
-25.71
-26.44
-27.29
-28.05
-28.65
-29.00
-28.91
-28.15
-26.60
-24.40
-22.02
-20.19
-19.77
-21.36
-24.91
-29.44
-33.13
-33.66
-28.99
-17.92
-0.61
21.50
45.97
69.97
90.81
106.38
115.34
117.25
112.47
102.07
87.65
70.96
53.70
37.30
22.78
10.78
1.52
-5.00
-8.94
-10.35
-9.04
-4.67
2.91
13.30
25.37
37.36
47.37
53.97
56.58
55.57
51.92
46.77
41.02
35.21
29.53
24.06
18.80
13.75
8.87
4.10
-0.61
-5.17
-9.32
-12.67
-14.87
-15.74
-15.36
-14.12
-12.58
-11.26
-10.51
-10.48
-11.11
-12.32
-14.02
-16.16
-18.66
-21.36
-24.00
-26.29
-27.93
-28.62
-28.16
-26.39
-23.36
-19.37
-14.95
-10.81
-7.61
-5.74
-5.13
-5.34
-5.69
-5.57
-4.61
-2.76
-0.26
2.54
5.27
7.65
9.46
10.62
11.15
11.19
10.96
10.72
10.67
10.89
11.31
11.83
12.29
12.67
12.97
13.21
13.38
13.40
13.13
12.49
11.44
10.05
8.39
6.51
4.40
2.09
-0.35
-2.73
-4.82
-6.42
-7.45
-8.00
-8.33
-8.71
-9.33
-10.21
-11.18
-11.96
-12.21
-11.69
-10.35
-8.35
-6.05
-3.89
-2.32
-1.67
-2.05
-3.32
-5.11
-6.83
-7.89
-7.87
-6.69
-4.76
-2.86
-2.01
-3.08
-6.54
-12.31
-19.81
-28.09
-36.13
-42.97
-47.95
-50.69
-51.16
-49.64
-46.60
-42.65
-38.33
-34.03
-29.89
-25.88
-21.90
-17.92
-14.11
-10.79
-8.30
-6.90
-6.59
-7.16
-8.18
-9.23
-9.90
-9.95
-9.31
-8.06
-6.43
-4.77
-3.42
-2.63
-2.47
-2.87
-3.62
-4.51
-5.31
-5.79
-5.75
-5.01
-3.52
-1.42
0.91
3.06
4.65
5.57
5.97
6.16
6.42
6.93
7.62
8.34
8.87
9.11
9.03
8.72
8.30
7.87
7.44
6.97
6.36
5.54
4.50
3.32
2.14
1.10
0.26
-0.37
-0.85
-1.16
-1.29
-1.16
-0.79
-0.28
0.19
0.44
0.34
-0.12
-0.86
-1.82
-2.94
-4.24
-5.73
-7.31
-8.77
-9.82
-10.15
-9.60
-8.23
-6.30
-4.18
-2.17
-0.45
0.97
2.21
3.41
4.66
5.95
7.23
8.42
9.44
10.24
10.80
11.14
11.29
11.38
11.50
11.74
12.07
12.45
12.79
13.04
13.21
13.38
13.67
14.14
14.82
15.65
16.52
17.32
17.99
18.56
19.15
19.94
21.13
22.82
24.99
27.42
29.74
31.43
31.94
30.90
28.20
24.17
19.45
14.78
10.66
7.15
3.78
-0.17
-5.37
-12.10
-20.14
-28.80
-37.15
-44.20
-49.18
-51.62
-51.54
-49.35
-45.79
-41.68
-37.64
-33.95
-30.57
-27.26
-23.80
-20.14
-16.39
-12.72
-9.27
-6.07
-3.12
-0.41
1.94
3.75
4.84
5.18
4.99
4.70
4.80
5.62
7.18
9.13
10.94
12.07
12.18
11.18
9.20
6.45
3.12
-0.63
-4.63
-8.60
-12.19
-14.95
-16.56
-16.85
-15.89
-13.95
-11.35
-8.43
-5.41
-2.41
0.55
3.48
6.41
9.35
12.26
15.05
17.55
19.58
20.98
21.72
21.97
22.15
22.83
24.57
27.74
32.20
37.21
41.51
43.64
42.51
37.79
30.14
20.97
11.97
4.53
-0.65
-3.56
-4.66
-4.52
-3.64
-2.33
-0.86
0.44
1.15
0.89
-0.57
-3.07
-6.12
-8.90
-10.56
-10.53
-8.72
-5.60
-2.06
0.97
2.84
3.37
2.85
1.84
0.92
0.53
0.96
2.38
4.96
8.77
13.63
19.00
24.02
27.71
29.44
29.19
27.45
24.87
21.66
17.33
10.95
1.79
-9.98
-23.01
-35.19
-44.49
-49.75
-51.00
-49.06
-44.98
-39.46
-32.84
-25.34
-17.45
-9.95
-3.67
0.99
4.34
7.32
11.12
16.66
24.07
32.48
40.04
44.39
43.32
35.58
21.41
2.62
-17.91
-37.15
-52.85
-64.08
-71.21
-75.31
-77.47
-78.31
-77.86
-75.79
-71.78
-65.83
-58.28
-49.73
-40.76
-31.84
-23.21
-15.03
-7.43
-0.59
5.26
9.95
13.48
16.03
17.94
19.55
21.07
22.61
24.13
25.57
26.89
28.10
29.24
30.36
31.56
32.87
34.27
35.57
36.43
36.40
35.11
32.35
28.21
23.02
17.31
11.59
6.29
1.60
-2.46
-6.06
-9.39
-12.60
-15.71
-18.63
-21.19
-23.27
-24.81
-25.90
-26.66
-27.19
-27.58
-27.88
-28.18
-28.53
-28.90
-29.06
-28.64
-27.19
-24.40
-20.32
-15.41
-10.38
-5.93
-2.52
-0.17
1.36
2.48
3.56
4.80
6.25
7.85
9.53
11.19
12.70
13.92
14.74
15.15
15.22
15.11
15.01
15.02
15.18
15.41
15.65
15.79
15.78
15.58
15.15
14.47
13.52
12.36
11.09
9.84
8.74
7.84
7.13
6.52
5.91
5.21
4.39
3.48
2.56
1.69
0.93
0.26
-0.36
-0.99
-1.71
-2.56
-3.61
-4.92
-6.56
-8.46
-10.38
-11.93
-12.64
-12.17
-10.48
-7.84
-4.80
-1.97
0.20
1.51
2.06
2.11
1.94
1.82
1.88
2.16
2.69
3.42
4.29
5.19
6.00
6.65
7.12
7.48
7.81
8.13
8.44
8.66
8.75
8.70
8.54
8.29
7.91
7.35
6.56
5.56
4.49
3.47
2.59
1.82
0.96
-0.16
-1.66
-3.50
-5.50
-7.39
-8.94
-10.05
-10.74
-11.11
-11.35
-11.61
-12.05
-12.82
-14.03
-15.65
-17.43
-18.89
-19.47
-18.76
-16.66
-13.49
-9.84
-6.39
-3.58
-1.55
-0.16
0.82
1.60
2.28
2.85
3.32
3.74
4.19
4.76
5.47
6.27
7.09
7.85
8.47
8.92
9.21
9.37
9.48
9.61
9.86
10.27
10.84
11.57
12.39
13.16
13.59
13.26
11.70
8.56
3.84
-2.00
-8.10
-13.43
-17.16
-18.84
-18.52
-16.62
-13.80
-10.79
-8.37
-7.23
-7.95
-10.82
-15.74
-22.18
-29.19
-35.64
-40.47
-42.90
-42.63
-39.90
-35.37
-29.94
-24.49
-19.74
-16.06
-13.57
-12.10
-11.30
-10.67
-9.57
-7.31
-3.32
2.68
10.51
19.52
28.82
37.47
44.75
50.24
53.71
55.07
54.23
51.20
46.19
39.64
32.22
24.63
17.39
10.70
4.50
-1.46
-7.35
-13.17
-18.75
-23.76
-27.86
-30.76
-32.31
-32.49
-31.50
-29.69
-27.51
-25.43
-23.76
-22.58
-21.73
-20.88
-19.62
-17.62
-14.68
-10.78
-6.06
-0.79
4.62
9.74
14.17
17.68
20.30
22.32
24.23
26.46
29.21
32.42
35.79
39.00
41.86
44.39
46.75
49.15
51.65
54.18
56.58
58.70
60.43
61.73
62.56
62.86
62.59
61.78
60.60
59.33
58.21
57.18
55.82
53.38
49.08
42.40
33.44
22.85
11.66
0.95
-8.45
-16.09
-21.81
-25.63
-27.70
-28.29
-27.86
-27.10
-26.71
-27.28
-29.06
-31.90
-35.30
-38.56
-40.93
-41.78
-40.73
-37.84
-33.60
-28.89
-24.70
-21.76
-20.30
-19.98
-20.14
-20.15
-19.68
-18.74
-17.51
-16.12
-14.50
-12.50
-10.05
-7.31
-4.64
-2.45
-0.96
-0.14
0.22
0.40
0.56
0.70
0.71
0.43
-0.24
-1.29
-2.60
-3.88
-4.79
-4.98
-4.24
-2.57
-0.27
2.18
4.24
5.48
5.71
5.00
3.63
2.03
0.60
-0.38
-0.76
-0.56
0.12
1.14
2.36
3.62
4.73
5.49
5.67
5.18
4.08
2.59
1.02
-0.38
-1.52
-2.47
-3.34
-4.21
-5.08
-5.92
-6.71
-7.55
-8.54
-9.81
-11.39
-13.21
-15.09
-16.78
-17.96
-18.31
-17.62
-15.84
-13.18
-10.08
-7.04
-4.51
-2.66
-1.44
-0.58
0.20
1.12
2.26
3.59
4.98
6.28
7.33
8.05
8.43
8.55
8.51
8.40
8.24
7.97
7.50
6.76
5.76
4.56
3.26
1.97
0.72
-0.45
-1.52
-2.49
-3.35
-4.15
-4.98
-5.95
-7.12
-8.43
-9.64
-10.42
-10.44
-9.52
-7.72
-5.29
-2.61
-0.03
2.16
3.86
5.07
5.91
6.53
7.11
7.75
8.54
9.44
10.33
11.04
11.43
11.43
11.06
10.44
9.74
9.09
8.58
8.21
7.93
7.66
7.33
6.93
6.41
5.76
4.93
3.89
2.70
1.44
0.24
-0.82
-1.76
-2.68
-3.70
-4.89
-6.17
-7.30
-7.98
-7.91
-6.95
-5.11
-2.50
0.72
4.41
8.44
12.66
16.83
20.63
23.79
26.17
27.89
29.25
30.62
32.31
34.51
37.19
40.20
43.23
45.81
47.36
47.33
45.40
41.65
36.58
30.94
25.41
20.34
15.61
10.84
5.63
-0.22
-6.57
-13.08
-19.37
-25.17
-30.37
-34.91
-38.70
-41.56
-43.28
-43.74
-43.05
-41.60
-39.94
-38.58
-37.79
-37.43
-37.08
-36.25
-34.66
-32.35
-29.65
-27.00
-24.65
-22.61
-20.66
-18.52
-16.03
-13.19
-10.13
-7.00
-3.92
-1.04
1.50
3.53
4.92
5.68
5.93
5.91
5.86
5.95
6.23
6.63
7.05
7.36
7.45
7.28
6.82
6.10
5.19
4.24
3.36
2.66
2.21
1.99
1.92
1.83
1.54
0.91
-0.13
-1.54
-3.26
-5.16
-7.10
-8.90
-10.38
-11.33
-11.62
-11.25
-10.40
-9.34
-8.35
-7.60
-7.08
-6.62
-5.98
-4.98
-3.54
-1.74
0.24
2.12
3.64
4.61
4.95
4.70
4.02
3.07
2.02
0.96
-0.04
-0.92
-1.57
-1.85
-1.63
-0.87
0.30
1.63
2.78
3.48
3.62
3.27
2.65
1.99
1.48
1.17
0.98
0.77
0.40
-0.20
-1.02
-2.01
-3.16
-4.42
-5.72
-6.86
-7.56
-7.51
-6.56
-4.80
-2.56
-0.32
1.50
2.67
3.22
3.34
3.32
3.36
3.54
3.87
4.30
4.74
5.11
5.36
5.47
5.46
5.38
5.23
5.01
4.65
4.13
3.51
2.92
2.52
2.39
2.47
2.58
2.54
2.23
1.69
1.06
0.49
-0.00
-0.43
-0.89
-1.41
-1.94
-2.39
-2.71
-2.96
-3.31
-3.94
-4.95
-6.28
-7.69
-8.82
-9.35
-9.08
-8.03
-6.42
-4.56
-2.79
-1.32
-0.25
0.46
0.94
1.29
1.60
1.92
2.25
2.59
2.94
3.30
3.63
3.89
4.00
3.93
3.68
3.36
3.11
3.06
3.25
3.61
3.99
4.21
4.18
3.87
3.36
2.78
2.23
1.81
1.52
1.35
1.22
1.07
0.83
0.45
-0.06
-0.68
-1.36
-2.06
-2.77
-3.52
-4.40
-5.50
-6.84
-8.36
-9.86
-11.03
-11.59
-11.36
-10.36
-8.81
-7.06
-5.44
-4.15
-3.22
-2.56
-2.05
-1.58
-1.10
-0.59
-0.04
0.57
1.19
1.74
2.10
2.19
2.03
1.68
1.29
0.95
0.74
0.67
0.75
1.00
1.42
1.97
2.52
2.90
2.99
2.72
2.18
1.54
0.98
0.56
0.25
-0.09
-0.55
-1.17
-1.87
-2.52
-2.99
-3.28
-3.48
-3.70
-4.06
-4.59
-5.25
-6.01
-6.84
-7.79
-8.89
-10.10
-11.25
-12.04
-12.16
-11.41
-9.81
-7.59
-5.15
-2.86
-0.96
0.51
1.61
2.46
3.11
3.54
3.74
3.76
3.73
3.81
4.13
4.68
5.35
5.99
6.43
6.59
6.47
6.18
5.82
5.48
5.23
5.07
5.01
5.02
5.05
5.03
4.88
4.51
3.90
3.12
2.29
1.57
1.06
0.77
0.62
0.46
0.16
-0.31
-0.94
-1.66
-2.39
-3.08
-3.67
-4.18
-4.66
-5.21
-5.99
-7.13
-8.65
-10.44
-12.17
-13.41
-13.76
-12.96
-11.05
-8.35
-5.30
-2.38
0.08
1.91
3.11
3.79
4.08
4.13
4.11
4.16
4.42
4.92
5.61
6.35
7.01
7.50
7.79
7.90
7.82
7.58
7.18
6.68
6.16
5.72
5.44
5.32
5.28
5.21
5.01
4.65
4.16
3.62
3.11
2.65
2.23
1.78
1.22
0.47
-0.52
-1.69
-2.94
-4.10
-5.06
-5.77
-6.31
-6.84
-7.58
-8.71
-10.25
-12.06
-13.87
-15.27
-15.91
-15.56
-14.14
-11.86
-9.08
-6.24
-3.78
-1.95
-0.77
-0.07
0.41
0.90
1.55
2.32
3.09
3.71
4.15
4.41
4.59
4.76
4.92
5.02
4.98
4.78
4.51
4.33
4.40
4.79
5.44
6.12
6.58
6.60
6.16
5.40
4.60
4.04
3.83
3.92
4.04
3.92
3.37
2.37
1.08
-0.27
-1.51
-2.56
-3.45
-4.26
-5.06
-5.88
-6.75
-7.74
-8.98
-10.59
-12.54
-14.59
-16.28
-17.09
-16.64
-14.85
-11.98
-8.59
-5.27
-2.53
-0.62
0.45
0.85
0.80
0.54
0.28
0.15
0.26
0.60
1.07
1.50
1.74
1.72
1.49
1.25
1.23
1.65
2.60
4.08
6.02
8.29
10.76
13.30
15.80
18.19
20.44
22.62
24.80
27.08
29.47
31.94
34.37
36.62
38.49
39.81
40.37
40.00
38.58
36.08
32.58
28.18
23.03
17.26
11.03
4.57
-1.75
-7.41
-11.81
-14.40
-14.85
-13.15
-9.66
-4.97
0.18
5.10
9.19
12.06
13.50
13.51
12.34
10.37
8.06
5.84
4.01
2.79
2.29
2.58
3.67
5.41
7.52
9.60
11.26
12.26
12.62
12.55
12.34
12.21
12.16
11.98
11.27
9.66
6.85
2.78
-2.37
-8.25
-14.38
-20.25
-25.33
-29.23
-31.66
-32.61
-32.40
-31.69
-31.33
-32.09
-34.47
-38.45
-43.53
-48.87
-53.41
-56.05
-55.82
-52.05
-44.48
-33.41
-19.67
-4.43
11.03
25.65
38.81
50.31
60.29
68.92
76.05
81.06
82.92
80.54
73.32
61.50
46.40
30.10
14.91
2.76
-5.22
-8.88
-8.92
-6.64
-3.64
-1.48
-1.40
-4.01
-9.19
-16.13
-23.55
-30.13
-34.85
-37.22
-37.32
-35.70
-33.15
-30.50
-28.38
-27.17
-26.90
-27.34
-28.18
-29.10
-29.96
-30.76
-31.61
-32.62
-33.77
-34.81
-35.35
-34.90
-33.11
-29.86
-25.37
-20.15
-14.83
-9.97
-5.85
-2.45
0.51
3.38
6.41
9.53
12.30
14.09
14.26
12.46
8.85
4.05
-1.06
-5.68
-9.39
-12.15
-14.21
-15.92
-17.43
-18.80
-19.95
-20.92
-21.80
-22.78
-23.99
-25.41
-26.87
-28.11
-28.88
-29.06
-28.60
-27.55
-25.99
-23.95
-21.49
-18.63
-15.41
-11.89
-8.19
-4.57
-1.34
1.17
2.76
3.47
3.52
3.28
3.08
3.07
3.23
3.39
3.43
3.27
2.98
2.61
2.21
1.83
1.49
1.24
1.16
1.33
1.73
2.26
2.78
3.13
3.20
2.96
2.49
1.90
1.31
0.78
0.26
-0.37
-1.24
-2.39
-3.72
-4.96
-5.83
-6.08
-5.65
-4.68
-3.40
-1.99
-0.54
1.05
2.91
5.09
7.47
9.71
11.33
11.88
11.10
8.97
5.81
2.18
-1.21
-3.67
-4.71
-4.18
-2.29
0.42
3.27
5.66
7.24
7.99
8.17
8.22
8.59
9.62
11.53
14.38
18.13
22.56
27.37
32.12
36.36
39.69
41.90
43.03
43.39
43.42
43.53
43.88
44.28
44.19
42.91
39.82
34.68
27.80
19.94
12.10
5.10
-0.74
-5.64
-10.24
-15.14
-20.63
-26.44
-31.87
-36.19
-38.94
-40.18
-40.49
-40.72
-41.75
-44.17
-48.18
-53.38
-58.80
-63.03
-64.51
-62.04
-55.17
-44.52
-31.56
-18.15
-5.97
3.94
11.34
16.61
20.45
23.63
26.68
29.87
33.12
36.04
38.01
38.50
37.16
34.03
29.49
24.19
18.80
13.92
10.06
7.60
6.77
7.64
9.98
13.30
17.02
20.67
24.05
27.27
30.63
34.42
38.73
43.44
48.24
52.78
56.73
59.88
62.09
63.34
63.75
63.56
63.02
62.22
60.93
58.65
54.81
49.22
42.23
34.69
27.60
21.57
16.57
11.90
6.70
0.32
-7.28
-15.56
-23.61
-30.41
-34.98
-36.46
-34.26
-28.38
-19.75
-10.25
-2.44
1.35
-0.16
-6.70
-16.53
-27.17
-36.28
-42.34
-44.93
-44.49
-42.02
-38.69
-35.67
-33.95
-34.21
-36.66
-41.00
-46.46
-52.08
-56.98
-60.60
-62.84
-63.94
-64.38
-64.73
-65.52
-67.09
-69.56
-72.70
-76.04
-78.88
-80.58
-80.68
-78.99
-75.54
-70.34
-63.23
-53.82
-41.70
-26.76
-9.55
8.70
26.24
41.29
52.52
59.39
62.13
61.47
58.31
53.41
47.31
40.40
33.09
25.94
19.55
14.50
11.10
9.35
8.93
9.45
10.61
12.39
14.94
18.46
22.92
27.86
32.41
35.47
36.08
33.71
28.52
21.30
13.33
6.03
0.66
-1.97
-1.54
1.76
7.28
14.14
21.33
27.90
33.14
36.68
38.62
39.34
39.38
39.13
38.62
37.61
35.73
32.71
28.57
23.53
17.87
11.85
5.65
-0.39
-5.70
-9.55
-11.20
-10.28
-7.01
-2.14
3.23
8.10
11.85
14.42
16.04
16.88
16.69
14.70
9.91
1.64
-9.94
-23.68
-37.67
-49.90
-58.89
-64.01
-65.48
-63.97
-60.29
-55.20
-49.37
-43.43
-37.94
-33.19
-29.13
-25.37
-21.41
-16.95
-12.03
-6.98
-2.28
1.73
4.97
7.60
9.84
11.91
13.87
15.74
17.51
19.15
20.63
21.85
22.66
22.98
22.79
22.27
21.66
21.23
21.12
21.33
21.75
22.20
22.52
22.56
22.21
21.37
20.03
18.25
16.20
14.12
12.16
10.36
8.65
6.93
5.16
3.39
1.73
0.24
-1.13
-2.52
-3.98
-5.39
-6.46
-6.80
-6.17
-4.65
-2.59
-0.50
1.21
2.42
3.30
4.17
5.35
7.00
9.10
11.46
13.81
15.87
17.38
18.14
18.12
17.41
16.18
14.63
12.91
11.05
9.06
6.93
4.73
2.63
0.83
-0.46
-1.09
-1.06
-0.51
0.32
1.14
1.74
2.04
2.12
2.10
2.08
2.03
1.85
1.40
0.60
-0.49
-1.70
-2.87
-3.90
-4.80
-5.68
-6.69
-7.91
-9.38
-11.06
-12.80
-14.42
-15.65
-16.26
-16.09
-15.15
-13.61
-11.75
-9.87
-8.14
-6.59
-5.17
-3.74
-2.29
-0.88
0.39
1.41
2.16
2.68
3.03
3.21
3.22
3.05
2.76
2.46
2.36
2.68
3.54
4.98
6.89
9.06
11.22
13.12
14.55
15.40
15.68
15.48
14.99
14.50
14.31
14.63
15.52
16.82
18.14
19.08
19.37
19.02
18.33
17.75
17.66
18.19
19.22
20.37
21.21
21.32
20.37
18.17
14.70
10.18
5.04
-0.09
-4.62
-8.25
-11.14
-13.83
-16.92
-20.72
-24.96
-28.90
-31.63
-32.55
-31.60
-29.27
-26.22
-22.97
-19.62
-15.86
-11.23
-5.36
1.74
9.56
17.10
23.04
26.03
25.13
20.13
11.71
1.21
-9.73
-19.67
-27.66
-33.32
-36.62
-37.71
-36.82
-34.26
-30.45
-25.94
-21.31
-17.05
-13.40
-10.42
-7.92
-5.56
-2.90
0.56
5.19
11.08
17.78
24.25
29.01
30.50
27.67
20.30
9.22
-3.94
-17.20
-28.75
-37.30
-42.27
-43.65
-41.90
-37.70
-31.87
-25.24
-18.57
-12.45
-7.27
-3.12
0.15
2.84
5.35
8.02
11.04
14.39
17.78
20.81
23.08
24.38
24.79
24.70
24.66
25.24
26.79
29.41
32.86
36.74
40.47
43.45
45.15
45.15
43.30
39.76
35.03
29.84
24.91
20.71
17.36
14.65
12.21
9.69
6.87
3.72
0.25
-3.42
-7.19
-10.88
-14.21
-16.89
-18.63
-19.28
-19.00
-18.32
-18.07
-19.28
-22.81
-29.04
-37.59
-47.23
-56.27
-62.99
-66.29
-66.01
-62.89
-58.15
-52.99
-48.19
-43.98
-40.24
-36.76
-33.46
-30.36
-27.53
-24.91
-22.33
-19.58
-16.59
-13.47
-10.55
-8.20
-6.71
-6.17
-6.35
-6.84
-7.13
-6.82
-5.77
-4.17
-2.47
-1.19
-0.71
-1.10
-2.10
-3.22
-4.00
-4.14
-3.77
-3.35
-3.56
-4.94
-7.66
-11.28
-14.90
-17.44
-18.13
-16.86
-14.22
-11.30
-9.20
-8.69
-10.00
-12.85
-16.43
-19.41
-19.94
-16.07
-6.39
9.16
28.84
49.38
67.03
78.96
84.16
83.50
78.87
72.00
63.69
53.95
42.74
30.66
19.21
10.20
4.96
3.69
5.53
9.08
13.12
17.00
20.58
23.86
26.59
28.16
27.82
25.05
19.83
12.76
4.87
-2.71
-9.06
-13.65
-16.45
-17.69
-17.78
-17.07
-15.77
-13.96
-11.60
-8.61
-4.96
-0.83
3.42
7.17
9.74
10.55
9.37
6.43
2.39
-1.82
-5.30
-7.39
-7.92
-7.17
-5.71
-4.18
-3.05
-2.43
-2.20
-2.12
-2.05
-2.08
-2.47
-3.43
-5.05
-7.18
-9.51
-11.67
-13.27
-13.88
-13.13
-10.66
-6.28
-0.02
7.86
16.95
26.84
37.16
47.59
57.87
67.74
77.01
85.55
93.16
99.45
103.76
105.27
103.33
97.81
89.40
79.39
69.26
60.12
52.39
45.78
39.75
33.92
28.38
23.62
20.25
18.53
18.19
18.33
17.65
14.82
8.94
-0.17
-11.77
-24.39
-36.20
-45.50
-51.24
-53.17
-51.80
-48.10
-43.13
-37.83
-32.93
-28.99
-26.41
-25.39
-25.77
-27.06
-28.50
-29.32
-29.05
-27.72
-25.81
-24.03
-23.03
-23.18
-24.49
-26.71
-29.48
-32.45
-35.32
-37.87
-39.91
-41.32
-42.04
-42.17
-41.86
-41.33
-40.80
-40.41
-40.29
-40.49
-41.04
-41.86
-42.73
-43.32
-43.21
-42.10
-39.91
-36.82
-33.23
-29.58
-26.27
-23.47
-21.25
-19.59
-18.52
-18.14
-18.57
-19.89
-22.05
-24.88
-28.12
-31.51
-34.79
-37.69
-39.92
-41.08
-40.72
-38.46
-34.14
-28.00
-20.69
-13.18
-6.46
-1.29
2.00
3.55
3.82
3.36
2.61
1.86
1.19
0.58
-0.09
-1.03
-2.46
-4.61
-7.56
-11.10
-14.76
-17.85
-19.68
-19.77
-18.04
-14.77
-10.55
-6.03
-1.84
1.64
4.19
5.78
6.52
6.62
6.32
5.88
5.48
5.19
4.96
4.65
4.12
3.31
2.27
1.17
0.22
-0.36
-0.43
0.09
1.15
2.61
4.22
5.67
6.69
7.06
6.75
5.87
4.62
3.22
1.83
0.53
-0.70
-1.89
-3.04
-4.19
-5.41
-6.78
-8.32
-9.93
-11.21
-11.61
-10.59
-7.86
-3.58
1.64
7.00
11.85
15.90
19.26
22.29
25.27
28.25
31.00
33.14
34.37
34.61
33.99
32.78
31.21
29.45
27.55
25.54
23.43
21.24
18.88
16.23
13.16
9.57
5.52
1.14
-3.41
-8.01
-12.58
-16.97
-20.89
-23.89
-25.50
-25.38
-23.51
-20.22
-16.11
-11.87
-8.12
-5.29
-3.54
-2.76
-2.62
-2.54
-1.86
0.09
3.83
9.51
16.82
24.91
32.57
38.52
41.84
42.19
39.93
35.96
31.39
27.34
24.68
23.94
25.27
28.41
32.74
37.38
41.51
44.49
46.11
46.55
46.13
45.14
43.68
41.63
38.84
35.17
30.63
25.28
19.17
12.26
4.53
-3.96
-12.83
-21.35
-28.52
-33.26
-34.76
-32.68
-27.33
-19.65
-11.05
-3.12
2.60
5.03
3.73
-0.95
-7.91
-15.53
-22.13
-26.43
-27.88
-26.79
-24.11
-21.03
-18.59
-17.38
-17.55
-18.86
-20.92
-23.22
-25.08
-25.69
-24.18
-19.99
-13.22
-4.85
3.40
9.56
12.12
10.59
5.70
-0.93
-7.36
-12.05
-14.23
-13.99
-12.01
-9.18
-6.41
-4.39
-3.51
-3.76
-4.75
-5.78
-6.13
-5.40
-3.73
-1.81
-0.54
-0.70
-2.57
-5.98
-10.46
-15.52
-20.78
-25.85
-30.16
-32.92
-33.20
-30.32
-24.14
-15.22
-4.65
6.31
16.70
26.14
34.80
43.04
50.87
57.54
61.54
61.15
55.26
44.09
29.39
13.99
0.86
-7.89
-11.47
-10.38
-5.86
0.67
8.02
15.27
21.61
26.29
28.60
28.01
24.36
17.83
8.99
-1.33
-12.12
-22.24
-30.63
-36.38
-38.96
-38.33
-34.95
-29.82
-24.27
-19.72
-17.34
-17.66
-20.38
-24.40
-28.16
-30.11
-29.24
-25.28
-18.75
-10.64
-2.09
5.89
12.58
17.61
20.95
22.84
23.79
24.42
25.41
27.22
29.97
33.27
36.27
37.81
36.85
32.91
26.33
18.30
10.49
4.45
1.04
0.25
1.31
3.15
4.89
6.13
6.90
7.55
8.47
10.00
12.38
15.70
19.73
23.81
26.87
27.74
25.61
20.44
13.10
5.13
-1.72
-5.99
-6.81
-3.92
2.40
11.41
21.94
32.49
41.36
47.12
48.98
47.07
42.37
36.26
30.02
24.38
19.39
14.62
9.51
3.63
-3.08
-10.37
-17.69
-24.27
-29.18
-31.53
-30.92
-27.82
-23.79
-21.15
-22.13
-27.98
-38.40
-51.61
-65.12
-76.74
-85.28
-90.76
-94.05
-96.30
-98.49
-101.21
-104.76
-109.11
-113.92
-118.43
-121.36
-121.14
-116.19
-105.49
-88.96
-67.68
-43.76
-19.77
1.89
19.61
32.86
42.08
48.38
53.02
57.04
61.08
65.34
69.77
74.11
78.08
81.50
84.34
86.83
89.46
92.86
97.50
103.39
109.79
115.16
117.49
114.86
106.09
91.18
71.30
48.59
25.54
4.57
-12.43
-24.31
-30.78
-32.43
-30.56
-26.88
-23.12
-20.56
-19.84
-20.92
-23.34
-26.63
-30.47
-34.76
-39.45
-44.24
-48.43
-50.96
-50.69
-46.91
-39.66
-29.84
-18.95
-8.52
0.32
7.14
12.06
15.47
17.68
18.80
18.82
17.74
15.64
12.61
8.68
3.80
-2.05
-8.61
-15.20
-20.83
-24.57
-25.98
-25.30
-23.42
-21.51
-20.60
-21.25
-23.60
-27.44
-32.51
-38.54
-45.24
-52.12
-58.36
-62.85
-64.50
-62.53
-56.71
-47.40
-35.47
-22.11
-8.70
3.38
12.86
18.81
20.85
19.29
15.14
9.85
4.99
1.86
1.15
2.91
6.64
11.46
16.48
20.96
24.49
26.98
28.57
29.43
29.69
29.34
28.33
26.60
24.21
21.30
18.04
14.59
11.06
7.53
4.11
0.93
-1.84
-4.14
-5.97
-7.43
-8.60
-9.44
-9.72
-9.10
-7.29
-4.25
-0.26
4.22
8.73
13.07
17.33
21.83
26.81
32.22
37.70
42.68
46.67
49.43
51.01
51.63
51.44
50.38
48.27
44.94
40.47
35.28
30.03
25.47
22.21
20.72
21.25
23.86
28.18
33.33
37.84
39.94
38.08
31.54
20.70
6.98
-7.67
-21.48
-33.26
-42.50
-49.24
-53.73
-56.23
-57.02
-56.32
-54.49
-51.85
-48.68
-45.09
-41.09
-36.59
-31.60
-26.31
-21.13
-16.64
-13.53
-12.37
-13.51
-16.84
-21.80
-27.44
-32.64
-36.44
-38.20
-37.82
-35.63
-32.24
-28.30
-24.24
-20.27
-16.35
-12.36
-8.19
-3.90
0.34
4.26
7.56
9.98
11.27
11.25
9.81
6.99
3.08
-1.31
-5.37
-8.26
-9.42
-8.80
-6.89
-4.52
-2.53
-1.46
-1.37
-1.93
-2.64
-3.05
-2.92
-2.22
-1.06
0.42
2.11
3.86
5.47
6.75
7.54
7.81
7.71
7.48
7.38
7.60
8.14
8.91
9.73
10.43
10.90
11.11
11.08
10.86
10.53
10.14
9.69
9.16
8.47
7.55
6.39
5.03
3.64
2.45
1.77
1.81
2.67
4.23
6.22
8.29
10.20
11.86
13.36
14.90
16.61
18.46
20.27
21.79
22.77
23.10
22.78
21.91
20.60
18.96
17.02
14.89
12.69
10.65
8.99
7.87
7.35
7.30
7.46
7.55
7.33
6.68
5.72
4.62
3.59
2.75
2.01
1.15
-0.08
-1.83
-4.08
-6.59
-9.03
-11.10
-12.60
-13.49
-13.82
-13.71
-13.25
-12.53
-11.62
-10.51
-9.19
-7.59
-5.69
-3.50
-1.15
1.18
3.29
5.03
6.35
7.31
7.97
8.43
8.71
8.86
8.85
8.66
8.26
7.59
6.60
5.33
3.86
2.35
0.95
-0.25
-1.20
-1.92
-2.45
-2.87
-3.28
-3.79
-4.54
-5.53
-6.60
-7.41
-7.55
-6.69
-4.80
-2.13
0.81
3.50
5.57
6.88
7.51
7.66
7.54
7.31
7.10
6.98
6.98
7.09
7.25
7.32
7.20
6.77
6.04
5.06
3.97
2.88
1.88
0.98
0.18
-0.54
-1.20
-1.78
-2.31
-2.86
-3.51
-4.34
-5.39
-6.65
-8.04
-9.42
-10.62
-11.43
-11.68
-11.26
-10.22
-8.72
-7.04
-5.46
-4.18
-3.23
-2.53
-1.90
-1.22
-0.44
0.43
1.32
2.14
2.86
3.45
3.92
4.26
4.50
4.62
4.63
4.45
4.04
3.33
2.36
1.26
0.20
-0.65
-1.22
-1.57
-1.84
-2.19
-2.71
-3.45
-4.40
-5.52
-6.73
-7.89
-8.80
-9.24
-9.05
-8.19
-6.80
-5.13
-3.44
-1.93
-0.69
0.28
1.04
1.62
2.08
2.48
2.87
3.29
3.73
4.12
4.32
4.22
3.81
3.19
2.58
2.20
2.17
2.47
2.94
3.33
3.45
3.23
2.73
2.11
1.52
1.02
0.56
0.02
-0.69
-1.60
-2.65
-3.77
-4.86
-5.86
-6.65
-7.09
-7.00
-6.27
-4.93
-3.20
-1.38
0.22
1.45
2.34
3.05
3.76
4.56
5.43
6.29
7.04
7.63
8.07
8.38
8.60
8.71
8.68
8.48
8.08
7.57
7.05
6.66
6.46
6.44
6.47
6.40
6.08
5.42
4.44
3.25
2.02
0.90
0.01
-0.60
-1.02
-1.38
-1.82
-2.42
-3.21
-4.17
-5.28
-6.47
-7.64
-8.57
-9.01
-8.68
-7.49
-5.58
-3.32
-1.13
0.60
1.77
2.47
2.95
3.45
4.13
5.03
6.03
6.99
7.73
8.13
8.12
7.77
7.25
6.75
6.46
6.45
6.69
7.10
7.54
7.95
8.27
8.51
8.63
8.59
8.35
7.93
7.38
6.81
6.31
5.88
5.42
4.76
3.79
2.47
0.89
-0.78
-2.43
-4.02
-5.64
-7.41
-9.38
-11.43
-13.28
-14.56
-14.97
-14.42
-13.05
-11.22
-9.38
-7.86
-6.82
-6.17
-5.73
-5.26
-4.67
-3.99
-3.31
-2.73
-2.22
-1.70
-1.07
-0.31
0.47
1.07
1.31
1.14
0.67
0.08
-0.43
-0.81
-1.08
-1.37
-1.75
-2.25
-2.83
-3.39
-3.86
-4.21
-4.48
-4.74
-5.13
-5.72
-6.57
-7.57
-8.62
-9.52
-10.17
-10.53
-10.67
-10.72
-10.82
-11.05
-11.44
-11.93
-12.36
-12.56
-12.31
-11.46
-9.97
-7.96
-5.70
-3.54
-1.78
-0.55
0.20
0.71
1.28
2.10
3.26
4.61
5.98
7.21
8.23
9.02
9.58
9.90
9.95
9.76
9.45
9.23
9.28
9.71
10.48
11.44
12.43
13.32
14.07
14.76
15.53
16.47
17.63
18.93
20.26
21.47
22.53
23.54
24.74
26.42
28.86
32.12
36.14
40.66
45.34
49.83
53.75
56.74
58.53
58.96
58.07
56.06
53.27
50.03
46.59
43.08
39.48
35.72
31.75
27.55
23.19
18.84
14.73
11.15
8.35
6.45
5.39
4.81
4.20
2.98
0.73
-2.71
-7.28
-12.76
-18.87
-25.18
-31.03
-35.59
-38.13
-38.43
-37.12
-35.63
-35.58
-38.11
-43.34
-50.38
-57.93
-64.96
-71.09
-76.44
-81.16
-84.98
-87.22
-87.13
-84.40
-79.40
-73.03
-66.34
-60.08
-54.48
-49.25
-43.85
-37.76
-30.80
-23.21
-15.59
-8.68
-3.11
0.89
3.54
5.32
6.70
7.95
9.01
9.67
9.77
9.35
8.60
7.82
7.29
7.19
7.63
8.70
10.44
12.86
15.85
19.12
22.31
24.99
26.86
27.76
27.68
26.70
24.89
22.32
19.14
15.60
12.12
9.21
7.37
6.89
7.85
10.06
13.14
16.65
20.11
23.13
25.47
27.09
28.26
29.43
31.03
33.26
35.89
38.31
39.76
39.66
37.84
34.66
30.76
26.85
23.33
20.16
16.94
13.13
8.38
2.78
-3.07
-8.15
-11.43
-12.16
-10.09
-5.54
0.96
8.79
17.48
26.69
36.06
45.09
53.21
59.82
64.46
66.83
66.83
64.43
59.67
52.71
43.92
33.88
23.37
13.19
4.04
-3.59
-9.45
-13.41
-15.42
-15.49
-13.77
-10.64
-6.85
-3.44
-1.52
-1.95
-5.08
-10.57
-17.50
-24.70
-31.05
-35.77
-38.53
-39.40
-38.74
-37.14
-35.27
-33.82
-33.34
-34.11
-36.07
-38.88
-42.03
-45.07
-47.71
-49.86
-51.58
-52.95
-54.01
-54.73
-55.09
-55.16
-55.13
-55.29
-55.91
-57.13
-58.90
-60.98
-63.04
-64.85
-66.44
-68.19
-70.68
-74.55
-80.26
-87.88
-97.18
-107.60
-118.37
-128.45
-136.54
-141.14
-140.81
-134.61
-122.53
-105.63
-85.79
-65.12
-45.31
-27.26
-11.16
3.12
15.52
25.66
33.07
37.54
39.54
40.21
40.95
42.90
46.48
51.36
56.65
61.43
65.00
67.07
67.56
66.47
63.78
59.55
54.14
48.30
43.13
39.70
38.67
40.04
43.17
47.09
50.89
54.05
56.49
58.37
59.89
61.07
61.73
61.58
60.40
58.13
54.87
50.87
46.34
41.43
36.19
30.59
24.55
18.10
11.34
4.55
-1.89
-7.46
-11.65
-14.08
-14.67
-13.66
-11.59
-9.17
-7.07
-5.77
-5.46
-6.13
-7.58
-9.63
-12.09
-14.83
-17.71
-20.51
-22.98
-24.81
-25.72
-25.56
-24.39
-22.49
-20.26
-18.12
-16.36
-15.09
-14.28
-13.89
-13.93
-14.57
-16.06
-18.60
-22.25
-26.76
-31.60
-35.92
-38.78
-39.27
-36.86
-31.55
-23.90
-14.86
-5.52
3.24
10.83
16.95
21.43
24.15
24.95
23.78
20.80
16.46
11.44
6.49
2.20
-1.12
-3.49
-5.16
-6.52
-7.86
-9.32
-10.86
-12.42
-13.96
-15.48
-16.99
-18.35
-19.21
-19.18
-18.01
-15.76
-12.85
-9.86
-7.29
-5.37
-3.99
-2.90
-1.79
-0.47
1.11
2.99
5.13
7.51
10.06
12.68
15.27
17.82
20.37
23.01
25.73
28.41
30.82
32.66
33.78
34.19
34.08
33.79
33.64
33.84
34.38
35.06
35.55
35.58
35.04
34.08
32.95
31.93
31.17
30.66
30.29
29.94
29.59
29.31
29.16
29.12
28.94
28.27
26.71
23.98
20.03
15.05
9.38
3.42
-2.49
-8.10
-13.25
-17.86
-21.87
-25.29
-28.21
-30.78
-33.13
-35.23
-36.87
-37.57
-36.80
-34.16
-29.52
-23.20
-15.87
-8.41
-1.70
3.60
7.12
8.83
8.89
7.62
5.36
2.45
-0.72
-3.70
-5.98
-7.07
-6.66
-4.66
-1.26
3.16
8.13
13.09
17.47
20.61
21.87
20.71
16.87
10.46
1.98
-7.73
-17.64
-26.60
-33.46
-37.26
-37.45
-34.16
-28.25
-21.11
-14.12
-8.14
-3.23
1.23
6.03
11.63
17.75
23.45
27.53
29.04
27.63
23.63
17.83
11.20
4.65
-1.15
-5.69
-8.61
-9.64
-8.72
-6.00
-1.92
2.79
7.30
10.90
13.20
14.25
14.47
14.44
14.64
15.24
16.04
16.62
16.54
15.56
13.72
11.29
8.66
6.12
3.76
1.50
-0.83
-3.38
-6.14
-8.91
-11.36
-13.11
-13.89
-13.59
-12.22
-9.81
-6.40
-2.01
3.32
9.38
15.91
22.68
29.72
37.32
45.94
55.77
66.48
76.99
85.74
91.08
91.86
87.65
78.83
66.27
51.06
34.38
17.38
1.33
-12.60
-23.43
-30.73
-34.68
-36.02
-35.69
-34.51
-32.85
-30.66
-27.57
-23.32
-18.02
-12.24
-6.93
-3.13
-1.69
-3.02
-7.03
-13.24
-20.87
-29.01
-36.74
-43.23
-47.95
-50.80
-52.16
-52.80
-53.57
-55.10
-57.56
-60.61
-63.61
-65.95
-67.32
-67.93
-68.37
-69.39
-71.52
-74.84
-78.82
-82.46
-84.49
-83.68
-79.16
-70.50
-57.92
-42.19
-24.56
-6.53
10.43
25.16
37.01
45.86
51.92
55.52
56.90
56.16
53.29
48.39
41.69
33.63
24.83
16.07
8.24
2.30
-0.88
-0.77
2.62
8.64
16.09
23.57
29.93
34.59
37.66
39.77
41.62
43.67
45.83
47.56
48.07
46.74
43.33
38.16
31.94
25.54
19.64
14.61
10.37
6.58
2.81
-1.19
-5.46
-9.76
-13.75
-17.10
-19.60
-21.17
-21.87
-21.76
-20.94
-19.50
-17.57
-15.38
-13.13
-10.97
-8.84
-6.49
-3.51
0.51
5.77
12.14
19.20
26.26
32.71
38.12
42.47
46.10
49.53
53.26
57.49
62.03
66.29
69.40
70.47
68.80
64.09
56.53
46.78
35.80
24.61
14.06
4.61
-3.67
-11.06
-17.85
-24.13
-29.53
-33.34
-34.77
-33.28
-28.88
-22.15
-14.20
-6.39
-0.09
3.57
3.81
0.43
-6.06
-14.49
-23.25
-30.82
-36.30
-39.80
-42.37
-45.53
-50.60
-58.19
-68.05
-79.38
-91.21
-102.66
-112.94
-121.05
-125.53
-124.60
-116.72
-101.43
-80.00
-55.46
-31.83
-12.84
-0.71
4.49
4.59
2.39
0.44
0.24
2.05
5.30
9.17
13.14
17.06
20.97
24.84
28.35
31.05
32.56
32.82
32.15
31.10
30.13
29.46
28.97
28.43
27.68
26.87
26.47
27.09
29.16
32.75
37.47
42.60
47.35
51.10
53.61
55.10
56.10
57.36
59.48
62.67
66.57
70.19
72.26
71.60
67.69
60.81
52.05
42.84
34.37
27.27
21.43
16.29
11.25
5.96
0.44
-5.02
-10.16
-14.92
-19.50
-24.27
-29.59
-35.59
-42.07
-48.64
-54.78
-60.07
-64.25
-67.23
-69.09
-70.01
-70.30
-70.40
-70.84
-72.01
-73.99
-76.36
-78.25
-78.62
-76.62
-71.96
-64.93
-56.29
-46.96
-37.71
-29.04
-21.12
-13.96
-7.45
-1.51
3.95
9.01
13.72
18.06
21.97
25.34
28.06
30.12
31.61
32.78
33.91
35.30
37.14
39.50
42.29
45.18
47.62
48.90
48.33
45.57
40.79
34.75
28.54
23.20
19.38
17.22
16.49
16.90
18.26
20.53
23.60
27.09
30.31
32.44
32.79
31.07
27.45
22.37
16.34
9.75
2.85
-4.24
-11.40
-18.46
-25.22
-31.44
-36.91
-41.43
-44.82
-46.91
-47.59
-46.79
-44.59
-41.19
-36.89
-32.10
-27.19
-22.53
-18.41
-15.06
-12.61
-11.04
-10.16
-9.65
-9.09
-8.10
-6.50
-4.37
-2.07
-0.08
1.17
1.46
0.85
-0.35
-1.76
-3.04
-3.97
-4.41
-4.26
-3.43
-1.79
0.74
4.07
7.97
12.05
15.91
19.05
20.91
20.82
18.04
12.10
3.09
-8.06
-19.66
-29.66
-36.24
-38.35
-35.95
-29.77
-20.97
-10.65
0.35
11.36
21.74
30.73
37.50
41.40
42.18
40.21
36.46
32.23
28.88
27.41
28.29
31.39
36.18
41.96
48.07
54.05
59.67
64.83
69.51
73.66
77.16
79.74
80.92
80.12
76.78
70.65
61.97
51.50
40.25
29.13
18.62
8.79
-0.53
-9.39
-17.52
-24.50
-29.90
-33.60
-35.85
-37.07
-37.68
-37.89
-37.68
-37.01
-35.96
-34.80
-33.93
-33.76
-34.60
-36.59
-39.75
-43.94
-48.88
-54.14
-59.15
-63.36
-66.33
-67.88
-68.12
-67.30
-65.66
-63.32
-60.15
-55.89
-50.30
-43.28
-35.04
-26.09
-17.19
-9.22
-2.94
1.15
3.04
3.22
2.56
2.11
2.72
4.81
8.23
12.36
16.32
19.31
20.88
21.02
20.14
18.87
17.79
17.25
17.31
17.76
18.30
18.66
18.64
18.09
16.81
14.52
10.98
6.13
0.26
-5.98
-11.76
-16.30
-19.08
-19.93
-18.95
-16.40
-12.57
-7.78
-2.38
3.31
9.04
14.73
20.44
26.20
31.83
36.89
40.67
42.47
41.79
38.51
33.03
26.20
19.16
13.11
8.98
7.14
7.27
8.48
9.62
9.74
8.33
5.41
1.37
-3.21
-7.75
-11.72
-14.54
-15.68
-14.74
-11.73
-7.14
-1.89
2.93
6.50
8.53
9.38
9.84
10.83
13.01
16.58
21.26
26.35
30.97
34.13
35.04
33.23
28.84
22.68
16.09
10.60
7.47
7.28
9.73
13.69
17.58
19.76
19.05
15.05
8.31
0.14
-7.79
-13.97
-17.51
-18.34
-17.03
-14.54
-11.80
-9.52
-8.12
-7.80
-8.57
-10.25
-12.52
-14.97
-17.32
-19.61
-22.19
-25.62
-30.21
-35.72
-41.21
-45.26
-46.54
-44.34
-38.86
-31.15
-22.66
-14.69
-8.06
-2.98
0.77
3.55
5.74
7.61
9.30
10.95
12.62
14.36
16.15
17.95
19.70
21.30
22.68
23.77
24.48
24.79
24.64
23.95
22.62
20.53
17.68
14.23
10.52
7.02
4.17
2.29
1.44
1.44
1.93
2.51
2.87
2.84
2.38
1.61
0.73
-0.04
-0.47
-0.40
0.23
1.31
2.60
3.79
4.58
4.82
4.54
3.99
3.50
3.34
3.66
4.43
5.51
6.75
8.07
9.44
10.85
12.32
13.76
15.08
16.19
17.05
17.70
18.27
18.95
19.98
21.56
23.87
27.00
30.93
35.50
40.44
45.37
49.88
53.63
56.43
58.31
59.48
60.21
60.61
60.46
59.14
55.80
49.66
40.32
28.02
13.65
-1.40
-15.56
-27.44
-36.13
-41.39
-43.65
-43.88
-43.27
-42.90
-43.41
-44.80
-46.56
-47.82
-47.81
-46.18
-43.20
-39.73
-36.90
-35.70
-36.65
-39.62
-43.92
-48.63
-52.84
-55.82
-57.09
-56.38
-53.64
-49.16
-43.66
-38.25
-34.23
-32.65
-34.00
-37.95
-43.51
-49.35
-54.27
-57.56
-59.13
-59.38
-58.93
-58.38
-58.13
-58.34
-59.04
-60.20
-61.65
-62.94
-63.15
-60.94
-54.92
-44.19
-28.82
-10.00
10.27
29.84
47.00
60.84
71.12
77.95
81.45
81.80
79.37
74.84
69.11
62.99
56.89
50.65
43.81
35.95
27.06
17.58
8.19
-0.51
-8.23
-14.91
-20.63
-25.40
-29.07
-31.47
-32.50
-32.27
-31.04
-29.15
-26.83
-24.17
-21.16
-17.75
-14.01
-10.12
-6.36
-2.96
-0.08
2.22
3.98
5.25
6.07
6.43
6.35
5.86
5.05
4.08
3.13
2.37
1.86
1.51
1.19
0.77
0.29
-0.08
0.03
0.92
2.75
5.39
8.49
11.59
14.29
16.40
17.92
19.03
19.95
20.90
22.05
23.43
24.95
26.41
27.54
28.08
27.88
26.98
25.63
24.19
23.05
22.36
21.91
21.07
18.94
14.68
7.85
-1.38
-12.26
-23.60
-34.21
-43.15
-49.91
-54.42
-56.86
-57.53
-56.74
-54.76
-51.82
-48.21
-44.21
-40.20
-36.56
-33.70
-31.80
-30.64
-29.48
-27.13
-22.34
-14.29
-3.00
10.62
25.06
38.72
50.47
59.82
66.81
71.68
74.58
75.49
74.28
70.87
65.36
57.93
48.86
38.38
26.78
14.43
1.86
-10.24
-21.12
-30.09
-36.70
-40.83
-42.68
-42.74
-41.61
-39.85
-37.78
-35.44
-32.59
-28.96
-24.41
-19.13
-13.60
-8.44
-4.22
-1.23
0.55
1.33
1.38
0.90
-0.04
-1.38
-3.08
-5.04
-7.16
-9.28
-11.17
-12.51
-12.85
-11.80
-9.17
-5.16
-0.33
4.55
8.72
11.75
13.52
14.28
14.43
14.40
14.55
15.06
15.97
17.20
18.52
19.66
20.39
20.54
20.10
19.18
17.96
16.66
15.45
14.43
13.68
13.21
12.95
12.82
12.71
12.55
12.24
11.72
10.92
9.83
8.51
7.10
5.80
4.75
3.98
3.37
2.69
1.69
0.24
-1.65
-3.85
-6.17
-8.38
-10.27
-11.60
-12.23
-12.11
-11.31
-10.05
-8.61
-7.23
-6.07
-5.11
-4.26
-3.37
-2.34
-1.10
0.33
1.91
3.56
5.19
6.74
8.13
9.31
10.22
10.82
11.12
11.16
11.02
10.78
10.45
9.99
9.30
8.35
7.12
5.73
4.34
3.13
2.21
1.56
1.03
0.42
-0.48
-1.74
-3.30
-4.97
-6.59
-8.03
-9.27
-10.25
-10.87
-10.93
-10.22
-8.71
-6.58
-4.24
-2.13
-0.54
0.50
1.22
1.88
2.71
3.73
4.90
6.07
7.16
8.11
8.90
9.50
9.87
9.99
9.89
9.63
9.32
9.09
9.01
9.09
9.27
9.43
9.39
9.04
8.32
7.31
6.15
5.03
4.04
3.23
2.52
1.86
1.21
0.57
0.01
-0.46
-0.85
-1.26
-1.74
-2.36
-3.10
-3.86
-4.49
-4.84
-4.75
-4.15
-3.03
-1.52
0.18
1.84
3.22
4.18
4.69
4.79
4.64
4.41
4.30
4.47
4.98
5.76
6.62
7.34
7.77
7.87
7.74
7.54
7.41
7.37
7.35
7.25
7.05
6.81
6.63
6.57
6.59
6.50
6.10
5.26
4.03
2.64
1.37
0.42
-0.20
-0.66
-1.25
-2.13
-3.31
-4.62
-5.79
-6.65
-7.16
-7.47
-7.83
-8.46
-9.48
-10.82
-12.23
-13.34
-13.72
-13.05
-11.26
-8.53
-5.30
-2.09
0.68
2.82
4.39
5.62
6.74
7.90
9.11
10.28
11.29
12.05
12.51
12.67
12.55
12.13
11.40
10.38
9.14
7.81
6.54
5.45
4.58
3.93
3.43
3.00
2.61
2.27
1.98
1.75
1.55
1.36
1.14
0.89
0.60
0.31
0.03
-0.26
-0.59
-1.04
-1.72
-2.72
-4.11
-5.87
-7.88
-9.86
-11.44
-12.27
-12.07
-10.83
-8.76
-6.30
-3.90
-1.88
-0.35
0.80
1.74
2.59
3.39
4.10
4.68
5.16
5.59
6.00
6.33
6.44
6.24
5.76
5.15
4.68
4.57
4.85
5.37
5.90
6.15
5.98
5.44
4.65
3.80
3.00
2.25
1.48
0.63
-0.27
-1.13
-1.85
-2.35
-2.70
-3.04
-3.57
-4.38
-5.48
-6.74
-7.98
-9.01
-9.67
-9.87
-9.54
-8.63
-7.20
-5.34
-3.24
-1.11
0.87
2.61
4.10
5.43
6.69
7.93
9.17
10.42
11.64
12.80
13.85
14.75
15.50
16.16
16.82
17.61
18.61
19.84
21.25
22.71
24.09
25.28
26.25
27.05
27.79
28.66
29.81
31.33
33.05
34.63
35.61
35.49
33.93
30.76
25.96
19.60
11.88
3.13
-6.13
-15.22
-23.45
-30.26
-35.34
-38.66
-40.35
-40.59
-39.54
-37.32
-34.04
-29.85
-24.89
-19.23
-12.89
-5.83
1.86
9.95
17.87
24.82
29.84
32.01
30.72
25.78
17.54
6.78
-5.52
-18.41
-31.10
-42.97
-53.43
-61.88
-67.68
-70.42
-70.11
-67.30
-62.93
-58.04
-53.35
-49.10
-45.02
-40.68
-35.78
-30.33
-24.65
-19.19
-14.30
-10.08
-6.40
-3.03
0.19
3.27
6.03
8.24
9.71
10.40
10.44
10.12
9.75
9.58
9.70
10.04
10.38
10.49
10.20
9.50
8.47
7.26
6.01
4.79
3.66
2.71
2.03
1.74
1.89
2.41
3.10
3.75
4.15
4.27
4.20
4.14
4.28
4.70
5.30
5.88
6.20
6.13
5.62
4.78
3.72
2.57
1.38
0.18
-0.99
-2.03
-2.80
-3.18
-3.15
-2.83
-2.44
-2.25
-2.52
-3.38
-4.83
-6.72
-8.82
-10.86
-12.61
-13.93
-14.71
-14.87
-14.32
-12.94
-10.65
-7.40
-3.27
1.60
6.96
12.53
18.04
23.21
27.79
31.64
34.73
37.19
39.20
40.96
42.57
43.97
45.04
45.58
45.47
44.69
43.24
41.16
38.45
35.08
31.03
26.34
21.10
15.48
9.64
3.74
-2.07
-7.64
-12.79
-17.24
-20.66
-22.75
-23.35
-22.56
-20.77
-18.53
-16.46
-15.01
-14.33
-14.33
-14.72
-15.22
-15.64
-15.92
-16.13
-16.38
-16.77
-17.38
-18.25
-19.37
-20.71
-22.16
-23.62
-24.99
-26.19
-27.18
-27.96
-28.53
-28.93
-29.20
-29.43
-29.71
-30.12
-30.69
-31.36
-32.01
-32.47
-32.54
-32.06
-30.86
-28.93
-26.34
-23.32
-20.26
-17.54
-15.50
-14.32
-14.00
-14.32
-14.97
-15.58
-15.81
-15.43
-14.36
-12.63
-10.39
-7.82
-5.06
-2.23
0.57
3.26
5.72
7.87
9.71
11.33
12.92
14.71
16.84
19.31
21.95
24.39
26.18
26.91
26.30
24.32
21.21
17.40
13.41
9.68
6.53
4.06
2.26
1.08
0.47
0.41
0.85
1.62
2.42
2.85
2.58
1.48
-0.32
-2.41
-4.23
-5.33
-5.53
-5.04
-4.36
-4.10
-4.73
-6.41
-8.91
-11.74
-14.25
-15.86
-16.15
-15.04
-12.70
-9.55
-6.11
-2.87
-0.15
1.93
3.46
4.65
5.67
6.68
7.72
8.83
10.01
11.24
12.48
13.62
14.57
15.23
15.63
15.91
16.23
16.74
17.44
18.14
18.53
18.30
17.27
15.48
13.13
10.53
7.97
5.65
3.70
2.12
0.90
-0.05
-0.79
-1.42
-1.96
-2.38
-2.60
-2.56
-2.24
-1.72
-1.19
-0.88
-1.02
-1.73
-2.96
-4.48
-5.94
-6.92
-7.17
-6.59
-5.35
-3.75
-2.07
-0.45
1.24
3.30
6.03
9.54
13.58
17.54
20.59
21.99
21.30
18.50
13.99
8.42
2.51
-3.07
-7.71
-10.93
-12.38
-11.89
-9.53
-5.63
-0.75
4.45
9.25
13.02
15.20
15.38
13.35
9.18
3.31
-3.49
-10.27
-16.14
-20.54
-23.40
-25.10
-26.28
-27.43
-28.72
-29.82
-30.13
-29.00
-25.99
-20.96
-14.16
-6.17
2.05
9.29
14.36
16.42
15.43
12.15
7.85
3.79
0.67
-1.49
-3.06
-4.40
-5.43
-5.77
-4.99
-3.07
-0.53
1.71
2.80
2.32
0.40
-2.31
-5.01
-7.01
-7.98
-7.94
-7.23
-6.29
-5.54
-5.20
-5.27
-5.55
-5.80
-5.83
-5.57
-5.14
-4.76
-4.72
-5.26
-6.52
-8.42
-10.70
-12.87
-14.33
-14.50
-12.93
-9.52
-4.48
1.67
8.24
14.56
20.17
24.79
28.34
30.69
31.55
30.41
26.63
19.75
9.74
-2.71
-16.23
-28.96
-38.97
-44.68
-45.28
-40.92
-32.60
-21.93
-10.70
-0.44
7.81
13.64
17.14
18.69
18.78
17.86
16.35
14.66
13.18
12.21
11.86
11.99
12.28
12.34
11.87
10.78
9.18
7.23
5.12
2.97
0.93
-0.75
-1.71
-1.58
-0.11
2.66
6.31
10.21
13.71
16.37
18.14
19.36
20.50
21.98
23.92
26.12
28.14
29.56
30.23
30.41
30.61
31.43
33.18
35.67
38.10
39.15
37.30
31.21
20.22
4.58
-14.35
-34.28
-52.38
-65.92
-72.91
-72.67
-65.93
-54.66
-41.49
-28.93
-18.82
-11.97
-8.29
-7.12
-7.66
-9.20
-11.21
-13.24
-14.81
-15.45
-14.86
-13.04
-10.33
-7.29
-4.46
-2.19
-0.56
0.61
1.57
2.53
3.56
4.58
5.46
6.07
6.41
6.57
6.74
7.11
7.77
8.63
9.48
10.04
10.10
9.60
8.66
7.48
6.28
5.16
4.09
2.92
1.52
-0.16
-2.01
-3.79
-5.23
-6.17
-6.66
-6.94
-7.33
-8.12
-9.30
-10.64
-11.70
-12.03
-11.40
-9.87
-7.76
-5.51
-3.49
-1.88
-0.68
0.20
0.85
1.33
1.62
1.78
1.87
2.02
2.30
2.78
3.42
4.19
5.08
6.11
7.27
8.52
9.74
10.80
11.59
12.08
12.29
12.28
12.09
11.72
11.15
10.34
9.29
8.01
6.58
5.08
3.63
2.30
1.11
0.04
-1.01
-2.13
-3.41
-4.90
-6.62
-8.52
-10.49
-12.30
-13.61
-14.02
-13.24
-11.26
-8.38
-5.17
-2.20
0.10
1.62
2.50
2.98
3.26
3.42
3.46
3.40
3.33
3.35
3.57
4.05
4.83
5.92
7.31
8.97
10.81
12.63
14.28
15.66
16.80
17.77
18.60
19.18
19.29
18.70
17.29
15.12
12.39
9.35
6.19
2.99
-0.23
-3.48
-6.75
-9.93
-12.90
-15.51
-17.63
-19.14
-19.96
-20.06
-19.52
-18.57
-17.56
-16.88
-16.85
-17.53
-18.66
-19.67
-19.82
-18.54
-15.59
-11.16
-5.81
-0.24
4.94
9.38
13.02
15.93
18.25
20.05
21.39
22.26
22.74
22.92
22.91
22.73
22.34
21.73
20.89
19.88
18.82
17.81
16.89
16.04
15.22
14.40
13.62
12.97
12.49
12.22
12.08
11.94
11.72
11.45
11.22
11.22
11.60
12.37
13.44
14.58
15.62
16.41
16.90
17.04
16.71
15.77
14.05
11.49
8.16
4.26
0.04
-4.24
-8.32
-11.92
-14.68
-16.21
-16.21
-14.63
-11.76
-8.24
-4.81
-2.13
-0.57
-0.10
-0.42
-1.09
-1.72
-2.04
-1.91
-1.27
-0.12
1.48
3.41
5.46
7.38
8.96
10.09
10.72
10.91
10.72
10.22
9.47
8.49
7.30
5.91
4.38
2.79
1.27
-0.11
-1.37
-2.58
-3.89
-5.40
-7.08
-8.87
-10.65
-12.41
-14.21
-16.16
-18.35
-20.72
-23.17
-25.51
-27.54
-29.07
-29.91
-29.87
-28.87
-26.98
-24.45
-21.65
-18.91
-16.36
-14.00
-11.67
-9.25
-6.72
-4.19
-1.83
0.21
1.79
2.88
3.52
3.83
3.97
4.08
4.22
4.36
4.43
4.37
4.22
4.14
4.26
4.64
5.16
5.55
5.47
4.73
3.40
1.77
0.27
-0.72
-1.06
-0.91
-0.60
-0.49
-0.73
-1.21
-1.59
-1.48
-0.62
0.98
3.04
4.98
6.01
5.24
1.90
-4.41
-13.34
-23.64
-33.28
-40.01
-42.09
-38.88
-31.18
-20.83
-10.04
-0.60
6.55
11.36
14.31
15.91
16.47
16.07
14.80
12.92
10.94
9.46
8.87
9.18
10.02
10.81
11.06
10.54
9.44
8.16
7.19
6.78
6.90
7.21
7.28
6.76
5.60
4.00
2.30
0.79
-0.47
-1.64
-2.97
-4.67
-6.76
-9.05
-11.21
-12.88
-13.77
-13.69
-12.57
-10.48
-7.64
-4.43
-1.26
1.44
3.44
4.72
5.38
5.63
5.60
5.36
4.89
4.26
3.59
3.12
3.07
3.58
4.59
5.88
7.13
8.09
8.60
8.70
8.48
8.12
7.71
7.34
7.02
6.76
6.53
6.23
5.76
5.03
4.06
2.99
2.07
1.57
1.57
2.00
2.59
3.04
3.13
2.79
2.15
1.44
0.89
0.69
0.91
1.48
2.15
2.51
2.03
0.15
-3.52
-8.93
-15.56
-22.38
-28.11
-31.59
-32.15
-29.77
-25.05
-18.96
-12.56
-6.64
-1.72
1.98
4.43
5.69
5.89
5.28
4.16
2.91
1.88
1.32
1.34
1.89
2.80
3.84
4.80
5.52
5.95
6.14
6.21
6.23
6.22
6.11
5.76
5.07
4.00
2.63
1.12
-0.35
-1.63
-2.62
-3.33
-3.76
-3.98
-4.02
-4.01
-4.07
-4.39
-5.02
-5.85
-6.51
-6.53
-5.47
-3.18
0.11
3.87
7.41
10.14
11.69
11.95
11.04
9.16
6.61
3.75
0.97
-1.38
-3.02
-3.84
-3.93
-3.46
-2.69
-1.82
-0.99
-0.24
0.40
0.89
1.17
1.15
0.80
0.21
-0.43
-0.90
-1.03
-0.84
-0.48
-0.18
-0.10
-0.26
-0.53
-0.72
-0.74
-0.63
-0.61
-0.93
-1.76
-3.03
-4.38
-5.24
-5.04
-3.48
-0.66
2.90
6.46
9.36
11.20
12.04
12.17
12.03
11.94
12.07
12.37
12.64
12.50
11.47
8.95
4.47
-2.12
-10.36
-19.11
-26.83
-32.02
-33.76
-32.05
-27.74
-22.17
-16.63
-11.96
-8.40
-5.80
-3.86
-2.40
-1.37
-0.79
-0.61
-0.64
-0.66
-0.49
-0.14
0.28
0.57
0.65
0.60
0.67
1.14
2.24
3.99
6.24
8.64
10.86
12.61
13.76
14.33
14.45
14.32
14.14
14.06
14.11
14.21
14.19
13.83
12.86
11.02
8.11
4.06
-0.99
-6.64
-12.24
-17.03
-20.35
-21.81
-21.47
-19.77
-17.35
-14.84
-12.67
-10.98
-9.71
-8.71
-7.89
-7.26
-6.88
-6.79
-6.96
-7.29
-7.63
-7.83
-7.76
-7.31
-6.38
-4.87
-2.80
-0.27
2.50
5.26
7.77
9.86
11.48
12.69
13.58
14.37
15.22
16.28
17.53
18.78
19.69
19.94
19.41
18.27
16.99
16.07
15.85
16.26
16.92
17.30
16.98
15.84
14.09
12.15
10.45
9.28
8.70
8.51
8.31
7.47
5.15
0.49
-7.13
-17.71
-30.36
-43.38
-54.64
-62.33
-65.52
-64.44
-60.19
-54.06
-46.97
-39.16
-30.45
-20.77
-10.56
-0.80
7.43
13.45
17.36
19.91
22.03
24.31
26.65
28.38
28.70
27.09
23.63
18.94
13.92
9.34
5.63
2.84
0.74
-0.89
-2.08
-2.61
-2.13
-0.26
3.21
8.22
14.44
21.13
27.21
31.25
31.77
27.70
18.90
6.41
-7.64
-20.70
-30.58
-36.17
-37.65
-36.16
-33.17
-29.93
-27.11
-24.91
-23.33
-22.41
-22.27
-23.04
-24.61
-26.59
-28.33
-29.20
-28.75
-26.94
-24.11
-20.82
-17.60
-14.80
-12.43
-10.27
-8.01
-5.43
-2.49
0.69
3.84
6.79
9.50
12.11
14.87
17.98
21.51
25.28
28.94
32.02
34.14
35.03
34.65
33.13
30.71
27.66
24.24
20.60
16.82
12.93
8.94
4.93
1.07
-2.41
-5.27
-7.40
-8.85
-9.81
-10.52
-11.13
-11.67
-12.02
-12.12
-11.98
-11.75
-11.68
-11.95
-12.64
-13.68
-14.92
-16.21
-17.32
-17.99
-17.86
-16.64
-14.20
-10.72
-6.65
-2.58
1.01
3.84
5.96
7.55
8.82
9.92
10.92
11.84
12.74
13.70
14.79
16.07
17.59
19.34
21.27
23.16
24.67
25.38
24.95
23.25
20.47
17.03
13.39
9.92
6.76
3.91
1.23
-1.34
-3.86
-6.30
-8.61
-10.68
-12.41
-13.67
-14.39
-14.62
-14.57
-14.48
-14.56
-14.94
-15.58
-16.39
-17.22
-17.89
-18.17
-17.85
-16.76
-14.90
-12.46
-9.80
-7.31
-5.25
-3.65
-2.36
-1.09
0.41
2.29
4.58
7.23
10.14
13.20
16.24
19.12
21.66
23.79
25.51
26.90
28.09
29.20
30.23
31.07
31.48
31.17
29.87
27.38
23.67
18.82
13.09
6.83
0.51
-5.39
-10.45
-14.43
-17.29
-19.17
-20.35
-21.11
-21.71
-22.30
-22.94
-23.60
-24.21
-24.69
-24.95
-24.87
-24.23
-22.75
-20.07
-15.97
-10.49
-4.03
2.68
8.88
14.00
17.84
20.53
22.31
23.33
23.56
22.95
21.52
19.47
17.17
14.90
12.82
10.86
8.87
6.76
4.56
2.42
0.53
-0.91
-1.76
-1.89
-1.18
0.41
2.80
5.73
8.82
11.70
14.01
15.57
16.26
15.97
14.54
11.76
7.46
1.68
-5.25
-12.66
-19.71
-25.57
-29.71
-32.00
-32.71
-32.32
-31.36
-30.26
-29.26
-28.48
-27.94
-27.53
-27.01
-26.02
-24.15
-21.16
-17.11
-12.39
-7.61
-3.36
0.01
2.53
4.47
6.19
7.99
9.95
11.96
13.82
15.34
16.42
17.03
17.24
17.08
16.58
15.78
14.74
13.62
12.60
11.83
11.34
11.03
10.69
10.15
9.37
8.47
7.60
6.90
6.37
5.88
5.33
4.61
3.77
2.87
1.96
1.04
0.04
-1.13
-2.48
-3.98
-5.51
-6.93
-8.14
-9.04
-9.60
-9.85
-9.94
-10.08
-10.50
-11.27
-12.19
-12.87
-12.86
-11.82
-9.72
-6.88
-3.77
-0.85
1.62
3.62
5.28
6.77
8.16
9.45
10.57
11.44
12.03
12.39
12.55
12.59
12.53
12.38
12.11
11.70
11.15
10.51
9.87
9.32
8.89
8.57
8.34
8.19
8.14
8.20
8.36
8.50
8.49
8.26
7.78
7.17
6.49
5.76
4.85
3.60
1.88
-0.24
-2.52
-4.62
-6.26
-7.32
-7.88
-8.14
-8.34
-8.64
-9.14
-9.89
-10.94
-12.27
-13.76
-15.13
-15.95
-15.83
-14.56
-12.23
-9.21
-6.03
-3.18
-0.92
0.74
1.99
3.12
4.38
5.90
7.65
9.45
11.08
12.34
13.18
13.69
14.09
14.67
15.60
16.90
18.41
19.88
21.09
21.93
22.50
23.04
23.84
25.11
26.87
28.90
30.80
32.11
32.50
31.89
30.54
28.92
27.52
26.69
26.44
26.49
26.41
25.85
24.59
22.63
20.13
17.27
14.27
11.31
8.54
6.13
4.27
3.14
2.92
3.80
5.93
9.32
13.76
18.77
23.63
27.51
29.55
29.10
25.76
19.46
10.51
-0.45
-12.56
-24.86
-36.43
-46.50
-54.49
-60.01
-62.90
-63.23
-61.33
-57.75
-53.11
-47.99
-42.76
-37.58
-32.45
-27.36
-22.44
-17.92
-14.09
-11.12
-8.97
-7.36
-5.80
-3.84
-1.14
2.30
6.13
9.68
12.10
12.63
10.75
6.36
-0.21
-8.28
-16.98
-25.38
-32.59
-37.93
-40.93
-41.46
-39.70
-36.10
-31.19
-25.48
-19.38
-13.18
-7.18
-1.71
2.89
6.33
8.54
9.71
10.21
10.48
10.84
11.37
11.97
12.43
12.60
12.51
12.44
12.87
14.33
17.17
21.40
26.70
32.49
38.16
43.27
47.61
51.16
53.93
55.83
56.53
55.52
52.30
46.61
38.67
29.24
19.50
10.77
4.06
-0.16
-2.10
-2.50
-2.47
-3.20
-5.80
-11.09
-19.43
-30.49
-43.10
-55.45
-65.39
-71.07
-71.43
-66.47
-57.17
-45.13
-32.10
-19.68
-9.12
-1.24
3.57
5.42
4.95
3.26
1.66
1.27
2.54
5.10
7.89
9.59
9.17
6.30
1.36
-4.85
-11.46
-17.86
-23.66
-28.55
-32.16
-34.18
-34.57
-33.80
-32.84
-32.80
-34.32
-37.26
-40.55
-42.65
-42.16
-38.36
-31.49
-22.54
-12.84
-3.59
4.43
10.83
15.45
18.20
19.01
17.99
15.61
12.78
10.70
10.54
13.07
18.34
25.69
34.02
42.12
49.06
54.37
58.01
60.21
61.27
61.43
60.78
59.35
57.11
54.05
50.18
45.50
40.07
33.95
27.26
20.13
12.69
5.07
-2.58
-10.06
-17.08
-23.28
-28.44
-32.54
-35.82
-38.65
-41.25
-43.48
-44.70
-44.07
-40.85
-34.92
-26.87
-17.93
-9.54
-2.81
1.70
4.08
4.75
4.17
2.54
-0.17
-4.08
-9.14
-14.96
-20.93
-26.35
-30.73
-33.92
-36.05
-37.38
-38.04
-38.00
-37.10
-35.21
-32.38
-28.92
-25.27
-21.78
-18.62
-15.73
-12.88
-9.85
-6.44
-2.57
1.72
6.26
10.76
14.77
17.80
19.42
19.45
18.07
15.74
13.07
10.63
8.69
7.22
6.00
4.77
3.46
2.27
1.58
1.91
3.69
7.12
11.95
17.37
21.97
23.98
21.75
14.31
1.83
-14.37
-32.12
-49.10
-63.48
-74.30
-81.48
-85.62
-87.66
-88.60
-89.25
-90.04
-90.93
-91.33
-90.29
-86.78
-80.08
-69.94
-56.74
-41.33
-24.83
-8.42
6.88
20.29
31.32
39.74
45.46
48.47
48.69
46.09
40.67
32.70
22.71
11.63
0.63
-8.97
-15.90
-19.11
-17.99
-12.65
-3.96
6.50
16.74
24.83
29.47
30.19
27.50
22.54
16.71
11.22
6.80
3.58
1.18
-1.04
-3.65
-6.91
-10.59
-14.13
-16.79
-17.99
-17.50
-15.40
-11.95
-7.41
-1.99
4.13
10.70
17.31
23.46
28.66
32.62
35.31
36.95
38.01
38.93
40.05
41.46
43.02
44.43
45.42
45.92
46.12
46.47
47.48
49.48
52.52
56.22
59.93
62.90
64.53
64.50
62.79
59.56
54.97
49.11
41.96
33.60
24.32
14.80
5.95
-1.25
-6.10
-8.34
-8.21
-6.34
-3.62
-1.11
-0.02
-1.60
-6.82
-15.91
-28.00
-41.11
-52.70
-60.43
-63.04
-60.63
-54.37
-45.88
-36.50
-26.99
-17.65
-8.63
-0.15
7.51
14.28
20.49
26.82
33.94
42.11
50.93
59.34
66.06
70.06
70.99
69.25
65.85
61.89
58.16
54.72
50.90
45.58
37.69
26.65
12.66
-3.31
-19.86
-35.63
-49.69
-61.64
-71.60
-79.79
-86.33
-90.99
-93.35
-93.08
-90.21
-85.27
-79.11
-72.59
-66.15
-59.72
-52.86
-45.16
-36.65
-27.88
-19.80
-13.33
-9.01
-6.79
-6.12
-6.20
-6.24
-5.68
-4.27
-2.00
0.90
4.09
7.21
9.99
12.30
14.19
15.89
17.72
20.04
23.17
27.21
31.94
36.83
41.11
44.00
45.01
44.07
41.46
37.63
32.96
27.50
21.08
13.45
4.54
-5.35
-15.56
-25.20
-33.32
-39.16
-42.28
-42.66
-40.74
-37.29
-33.15
-28.97
-24.92
-20.75
-15.96
-10.26
-3.92
2.14
6.67
8.65
7.83
4.98
1.69
-0.27
0.45
4.31
10.86
19.02
27.57
35.50
42.14
47.08
50.06
50.85
49.32
45.58
40.03
33.26
25.89
18.36
10.91
3.63
-3.38
-9.87
-15.48
-19.87
-22.92
-24.76
-25.80
-26.56
-27.47
-28.81
-30.62
-32.67
-34.52
-35.56
-35.19
-32.94
-28.70
-22.88
-16.35
-10.23
-5.54
-2.86
-2.11
-2.58
-3.25
-3.12
-1.62
1.21
4.72
7.89
9.57
8.89
5.49
-0.37
-7.80
-15.46
-21.80
-25.44
-25.46
-21.65
-14.56
-5.35
4.59
14.10
22.48
29.55
35.38
39.84
42.47
42.53
39.39
33.02
24.24
14.59
5.86
-0.43
-3.49
-3.37
-0.69
3.63
8.72
13.95
18.84
22.96
25.86
27.09
26.44
24.19
21.15
18.40
16.83
16.60
16.86
16.06
12.58
5.49
-4.97
-17.43
-29.89
-40.43
-47.68
-51.02
-50.46
-46.41
-39.48
-30.49
-20.38
-10.19
-0.89
6.83
12.63
16.49
18.60
19.16
18.33
16.19
12.83
8.35
2.89
-3.40
-10.44
-18.12
-26.29
-34.56
-42.28
-48.49
-52.19
-52.56
-49.27
-42.70
-33.81
-23.95
-14.40
-6.15
0.33
5.01
8.20
10.42
12.23
14.17
16.60
19.65
23.13
26.61
29.58
31.59
32.38
31.85
30.04
27.02
22.85
17.67
11.74
5.40
-0.91
-6.70
-11.52
-14.95
-16.62
-16.27
-13.92
-9.97
-5.35
-1.36
0.61
-0.35
-4.33
-10.47
-17.17
-22.66
-25.60
-25.47
-22.55
-17.67
-11.79
-5.72
0.04
5.23
9.68
13.29
15.93
17.62
18.50
18.86
19.11
19.57
20.35
21.23
21.82
21.73
20.79
19.19
17.43
16.00
15.24
15.08
15.17
15.07
14.46
13.29
11.70
9.88
8.01
6.16
4.43
3.04
2.31
2.59
4.10
6.80
10.37
14.38
18.41
22.26
25.85
29.11
31.65
32.70
31.15
25.81
15.99
1.79
-15.68
-34.54
-52.50
-67.32
-77.17
-80.93
-78.35
-70.05
-57.57
-43.08
-28.96
-17.30
-9.36
-5.35
-4.54
-5.56
-6.98
-7.62
-6.80
-4.33
-0.40
4.56
10.06
15.66
20.96
25.64
29.42
32.10
33.59
34.04
33.69
32.81
31.54
29.86
27.68
25.04
22.19
19.58
17.65
16.63
16.41
16.63
16.94
17.14
17.30
17.57
18.06
18.70
19.30
19.66
19.72
19.61
19.60
20.00
20.99
22.65
24.89
27.48
30.05
32.17
33.43
33.49
32.22
29.69
26.19
22.12
17.92
13.99
10.63
7.93
5.83
4.07
2.35
0.43
-1.77
-4.16
-6.56
-8.87
-11.10
-13.34
-15.71
-18.23
-20.82
-23.39
-25.84
-28.11
-30.07
-31.53
-32.21
-31.86
-30.41
-28.02
-25.06
-21.98
-19.13
-16.67
-14.57
-12.74
-11.06
-9.49
-8.00
-6.57
-5.17
-3.82
-2.59
-1.60
-1.00
-0.87
-1.16
-1.71
-2.29
-2.66
-2.68
-2.34
-1.74
-1.05
-0.45
-0.09
-0.02
-0.20
-0.48
-0.67
-0.61
-0.23
0.36
0.94
1.20
0.90
-0.11
-1.78
-3.92
-6.25
-8.46
-10.26
-11.46
-12.03
-12.07
-11.87
-11.68
-11.68
-11.80
-11.70
-10.98
-9.31
-6.67
-3.37
0.13
3.37
6.13
8.40
10.36
12.23
14.21
16.49
19.27
22.71
26.86
31.47
35.97
39.63
41.74
41.94
40.29
37.16
33.08
28.47
23.62
18.73
14.02
9.75
6.19
3.42
1.33
-0.44
-2.34
-4.75
-7.86
-11.56
-15.51
-19.22
-22.20
-24.08
-24.66
-23.94
-22.07
-19.36
-16.37
-13.85
-12.66
-13.49
-16.47
-20.97
-25.73
-29.21
-30.29
-28.65
-24.89
-20.17
-15.66
-12.08
-9.56
-7.80
-6.36
-4.97
-3.52
-2.06
-0.62
0.85
2.36
3.87
5.21
6.18
6.64
6.64
6.43
6.36
6.75
7.75
9.33
11.28
13.31
15.13
16.52
17.38
17.76
17.84
17.74
17.52
17.05
16.08
14.39
12.00
9.18
6.42
4.18
2.71
1.94
1.55
1.19
0.74
0.36
0.42
1.23
2.76
4.44
5.24
4.12
0.45
-5.67
-13.37
-21.37
-28.35
-33.27
-35.33
-33.95
-28.78
-19.84
-7.77
6.30
21.20
36.27
51.67
67.94
85.12
101.93
115.57
122.49
119.87
106.95
85.54
59.38
32.80
9.29
-9.30
-22.72
-31.81
-37.67
-41.28
-43.31
-44.39
-45.22
-46.58
-49.09
-52.89
-57.46
-61.71
-64.42
-64.78
-62.80
-59.35
-55.82
-53.51
-53.08
-54.25
-55.98
-56.86
-55.77
-52.27
-46.74
-40.13
-33.55
-27.85
-23.38
-20.04
-17.41
-15.07
-12.73
-10.39
-8.19
-6.33
-4.95
-4.04
-3.49
-3.12
-2.78
-2.37
-1.84
-1.19
-0.45
0.34
1.08
1.68
2.03
2.08
1.85
1.43
0.90
0.34
-0.26
-0.94
-1.74
-2.71
-3.82
-5.03
-6.27
-7.44
-8.49
-9.35
-9.98
-10.39
-10.70
-11.10
-11.74
-12.61
-13.50
-13.95
-13.48
-11.77
-8.87
-5.19
-1.35
2.04
4.57
6.13
6.83
6.91
6.63
6.19
5.72
5.33
5.03
4.87
4.85
4.99
5.26
5.61
5.89
5.95
5.64
4.96
4.04
3.12
2.40
1.95
1.61
1.12
0.19
-1.33
-3.32
-5.48
-7.37
-8.63
-9.05
-8.58
-7.37
-5.61
-3.56
-1.46
0.44
1.88
2.64
2.59
1.79
0.48
-0.86
-1.67
-1.44
0.10
2.86
6.44
10.21
13.55
16.09
17.80
18.90
19.72
20.51
21.31
22.06
22.70
23.27
23.91
24.64
25.19
24.95
23.13
19.17
13.05
5.35
-2.87
-10.45
-16.43
-20.24
-21.62
-20.46
-16.74
-10.55
-2.28
7.26
16.80
24.93
30.51
32.99
32.59
30.05
26.21
21.64
16.47
10.61
4.08
-2.73
-9.06
-14.08
-17.37
-19.12
-20.03
-20.95
-22.37
-24.20
-25.85
-26.58
-25.78
-23.32
-19.49
-14.86
-10.00
-5.39
-1.29
2.14
4.81
6.66
7.64
7.75
7.05
5.58
3.38
0.42
-3.27
-7.63
-12.43
-17.34
-21.99
-26.09
-29.45
-32.03
-33.86
-35.06
-35.72
-35.97
-35.92
-35.61
-34.93
-33.67
-31.51
-28.22
-23.78
-18.43
-12.60
-6.76
-1.27
3.71
8.11
11.91
14.96
16.99
17.68
16.80
14.31
10.49
5.88
1.26
-2.53
-4.71
-4.78
-2.57
1.63
7.21
13.40
19.43
24.70
28.89
31.90
33.81
34.78
35.00
34.70
34.08
33.38
32.77
32.35
32.15
32.11
32.14
32.16
32.09
31.83
31.24
30.17
28.45
25.98
22.70
18.57
13.54
7.58
0.73
-6.74
-14.25
-20.96
-25.92
-28.34
-27.81
-24.42
-18.61
-10.94
-1.97
7.90
18.26
28.67
38.56
47.41
54.87
60.98
66.14
70.97
76.11
81.97
88.64
95.90
103.15
109.48
113.71
114.65
111.41
103.81
92.55
79.11
65.27
52.54
41.69
32.65
24.74
17.21
9.57
1.76
-5.98
-13.37
-20.31
-26.89
-33.26
-39.39
-44.99
-49.56
-52.49
-53.26
-51.59
-47.53
-41.47
-34.04
-26.03
-18.20
-11.24
-5.69
-1.99
-0.54
-1.67
-5.53
-11.96
-20.32
-29.50
-38.12
-44.91
-49.09
-50.56
-49.87
-47.95
-45.74
-43.89
-42.76
-42.42
-42.84
-44.00
-45.83
-48.13
-50.56
-52.64
-53.95
-54.26
-53.64
-52.35
-50.71
-48.89
-46.86
-44.48
-41.60
-38.18
-34.35
-30.32
-26.34
-22.71
-19.75
-17.81
-17.21
-18.03
-19.94
-22.17
-23.61
-23.24
-20.47
-15.37
-8.60
-1.14
6.10
12.50
17.80
21.93
24.79
26.26
26.20
24.71
22.15
19.18
16.51
14.69
13.87
13.83
14.10
14.23
14.06
13.78
13.91
15.00
17.35
20.76
24.58
27.88
29.78
29.78
27.83
24.21
19.30
13.50
7.16
0.71
-5.27
-10.08
-13.12
-14.12
-13.27
-11.20
-8.70
-6.48
-4.93
-4.07
-3.67
-3.42
-3.07
-2.56
-1.98
-1.46
-1.17
-1.16
-1.34
-1.57
-1.69
-1.63
-1.47
-1.40
-1.66
-2.40
-3.63
-5.18
-6.81
-8.31
-9.51
-10.38
-10.98
-11.43
-11.86
-12.41
-13.20
-14.29
-15.63
-17.08
-18.39
-19.36
-19.88
-20.02
-20.00
-19.98
-20.00
-19.86
-19.25
-17.95
-15.96
-13.61
-11.49
-10.24
-10.34
-11.98
-15.08
-19.31
-24.29
-29.63
-35.00
-40.16
-44.94
-49.28
-53.19
-56.71
-59.92
-62.88
-65.74
-68.69
-72.00
-75.90
-80.50
-85.74
-91.27
-96.35
-99.83
-100.21
-96.00
-86.18
-70.62
-50.36
-27.40
-4.16
17.19
35.22
49.35
59.56
65.99
68.78
68.03
64.14
57.96
50.74
43.76
37.94
33.49
30.04
26.98
23.83
20.48
17.21
14.45
12.59
11.85
12.32
14.01
16.86
20.65
25.01
29.38
33.26
36.29
38.46
39.99
41.26
42.60
44.20
46.16
48.50
51.23
54.39
57.89
61.51
64.96
67.93
70.31
72.33
74.51
77.47
81.64
86.91
92.52
97.20
99.58
98.58
93.74
85.36
74.41
62.36
50.95
41.91
36.60
35.69
38.90
44.99
51.97
57.59
59.77
57.00
48.48
34.21
15.04
-7.39
-30.72
-52.36
-70.02
-82.24
-88.68
-90.01
-87.46
-82.31
-75.56
-67.89
-59.77
-51.65
-43.95
-37.01
-30.91
-25.48
-20.40
-15.40
-10.39
-5.46
-0.75
3.71
7.97
12.13
16.05
19.35
21.38
21.51
19.38
15.01
8.85
1.58
-6.04
-13.15
-18.91
-22.51
-23.36
-21.30
-16.74
-10.63
-4.09
1.90
6.81
10.58
13.42
15.64
17.51
19.21
20.95
22.93
25.33
28.18
31.30
34.36
37.03
39.13
40.63
41.70
42.54
43.27
43.81
43.91
43.13
40.97
36.99
30.93
22.85
13.10
2.35
-8.62
-19.05
-28.40
-36.37
-42.93
-48.15
-52.14
-54.98
-56.73
-57.53
-57.57
-57.20
-56.73
-56.37
-56.01
-55.35
-53.95
-51.49
-47.97
-43.75
-39.41
-35.56
-32.56
-30.47
-29.09
-28.22
-27.77
-27.83
-28.56
-30.01
-32.00
-34.16
-36.09
-37.58
-38.70
-39.72
-40.92
-42.32
-43.65
-44.37
-43.88
-41.80
-38.06
-33.00
-27.24
-21.52
-16.52
-12.70
-10.19
-8.77
-7.90
-6.96
-5.35
-2.72
0.98
5.42
10.08
14.27
17.45
19.26
19.77
19.40
18.78
18.58
19.16
20.49
22.17
23.54
24.04
23.35
21.53
18.92
16.08
13.49
11.54
10.42
10.14
10.64
11.78
13.41
15.37
17.48
19.58
21.64
23.76
26.17
29.01
32.17
35.09
36.75
35.93
31.53
23.10
11.02
-3.47
-18.66
-32.86
-44.85
-54.08
-60.64
-64.92
-67.32
-68.12
-67.41
-65.28
-61.93
-57.66
-52.85
-47.72
-42.26
-36.28
-29.54
-21.97
-13.82
-5.63
1.99
8.52
13.80
17.95
21.30
24.12
26.49
28.28
29.29
29.46
28.89
27.88
26.81
25.94
25.40
25.13
24.95
24.62
23.89
22.58
20.62
18.09
15.26
12.52
10.28
8.79
8.01
7.63
7.08
5.82
3.53
0.26
-3.54
-7.17
-9.89
-11.18
-10.83
-9.00
-6.09
-2.65
0.84
3.99
6.59
8.57
10.01
11.07
11.97
12.92
14.06
15.39
16.77
17.98
18.80
19.14
19.03
18.64
18.16
17.70
17.28
16.84
16.34
15.77
15.19
14.64
14.12
13.58
12.90
12.00
10.85
9.51
8.07
6.62
5.21
3.87
2.59
1.38
0.27
-0.72
-1.65
-2.60
-3.65
-4.81
-5.92
-6.67
-6.75
-5.88
-4.02
-1.37
1.66
4.58
6.98
8.60
9.40
9.54
9.25
8.79
8.35
8.04
7.88
7.82
7.82
7.85
7.93
8.11
8.45
9.00
9.76
10.68
11.70
12.73
13.73
14.66
15.47
16.04
16.15
15.54
13.95
11.34
7.90
4.05
0.31
-2.94
-5.56
-7.70
-9.65
-11.64
-13.76
-15.91
-17.88
-19.50
-20.65
-21.22
-21.09
-20.10
-18.16
-15.31
-11.78
-7.98
-4.31
-1.13
1.42
3.33
4.64
5.45
5.84
5.93
5.87
5.84
6.01
6.49
7.23
8.11
8.89
9.33
9.30
8.78
7.92
6.97
6.20
5.77
5.72
5.92
6.14
6.18
5.91
5.35
4.67
4.03
3.52
3.10
2.60
1.81
0.60
-1.05
-3.04
-5.22
-7.49
-9.76
-11.84
-13.45
-14.23
-13.83
-12.14
-9.40
-6.08
-2.81
-0.10
1.80
2.90
3.38
3.52
3.57
3.69
3.96
4.46
5.16
6.01
6.89
7.66
8.20
8.45
8.47
8.42
8.46
8.72
9.18
9.70
10.04
10.01
9.57
8.83
8.00
7.30
6.82
6.51
6.19
5.69
4.88
3.73
2.36
0.94
-0.36
-1.39
-2.10
-2.52
-2.76
-2.94
-3.14
-3.32
-3.29
-2.83
-1.72
0.08
2.39
4.90
7.29
9.33
10.94
12.15
13.01
13.51
13.61
13.35
12.86
12.39
12.11
12.08
12.17
12.17
11.91
11.38
10.70
10.01
9.36
8.69
7.90
6.89
5.70
4.43
3.20
2.06
0.99
-0.05
-1.11
-2.20
-3.30
-4.39
-5.42
-6.31
-7.01
-7.46
-7.68
-7.76
-7.83
-8.02
-8.39
-8.90
-9.52
-10.21
-11.01
-11.98
-13.15
-14.39
-15.45
-15.98
-15.71
-14.50
-12.45
-9.87
-7.13
-4.61
-2.55
-1.04
-0.03
0.60
0.97
1.15
1.15
0.97
0.62
0.12
-0.50
-1.17
-1.78
-2.22
-2.37
-2.13
-1.50
-0.58
0.44
1.32
1.87
2.03
1.86
1.51
1.15
0.89
0.80
0.86
1.06
1.32
1.56
1.65
1.44
0.82
-0.25
-1.70
-3.39
-5.16
-6.92
-8.60
-10.20
-11.65
-12.83
-13.53
-13.51
-12.63
-10.93
-8.56
-5.83
-3.06
-0.47
1.84
3.90
5.78
7.53
9.07
10.25
10.86
10.71
9.72
7.97
5.69
3.24
1.02
-0.62
-1.52
-1.71
-1.41
-0.95
-0.61
-0.55
-0.74
-1.03
-1.28
-1.40
-1.39
-1.37
-1.41
-1.53
-1.67
-1.73
-1.67
-1.50
-1.31
-1.22
-1.36
-1.82
-2.63
-3.79
-5.19
-6.71
-8.17
-9.39
-10.18
-10.35
-9.75
-8.32
-6.12
-3.32
-0.25
2.75
5.35
7.33
8.61
9.20
9.20
8.74
7.99
7.11
6.21
5.35
4.52
3.63
2.59
1.37
0.02
-1.32
-2.46
-3.21
-3.49
-3.35
-2.94
-2.50
-2.23
-2.25
-2.52
-2.95
-3.39
-3.76
-3.98
-4.02
-3.82
-3.34
-2.56
-1.57
-0.50
0.45
1.16
1.57
1.67
1.51
1.07
0.34
-0.64
-1.70
-2.53
-2.69
-1.88
-0.02
2.64
5.58
8.23
10.16
11.21
11.52
11.34
10.92
10.36
9.64
8.71
7.56
6.31
5.20
4.43
4.10
4.20
4.56
5.00
5.35
5.53
5.51
5.29
4.86
4.20
3.28
2.12
0.77
-0.65
-2.01
-3.15
-3.99
-4.50
-4.78
-4.99
-5.29
-5.82
-6.59
-7.48
-8.36
-9.09
-9.64
-10.06
-10.47
-10.94
-11.47
-11.98
-12.27
-12.11
-11.34
-9.86
-7.76
-5.28
-2.73
-0.46
1.32
2.54
3.27
3.64
3.79
3.75
3.53
3.15
2.69
2.26
1.99
1.93
2.01
2.06
1.90
1.33
0.31
-1.11
-2.77
-4.45
-5.99
-7.30
-8.36
-9.23
-10.00
-10.72
-11.41
-11.98
-12.31
-12.27
-11.78
-10.94
-9.95
-9.15
-8.87
-9.29
-10.37
-11.83
-13.21
-14.09
-14.16
-13.38
-11.87
-9.94
-7.88
-5.91
-4.17
-2.73
-1.59
-0.78
-0.30
-0.12
-0.17
-0.32
-0.40
-0.29
0.04
0.53
1.04
1.41
1.50
1.26
0.76
0.09
-0.60
-1.22
-1.75
-2.25
-2.82
-3.57
-4.58
-5.84
-7.30
-8.87
-10.40
-11.80
-13.01
-14.03
-14.99
-16.04
-17.34
-18.91
-20.59
-22.01
-22.69
-22.23
-20.45
-17.48
-13.71
-9.68
-5.88
-2.61
-0.03
1.88
3.20
4.05
4.56
4.94
5.39
6.07
7.09
8.37
9.77
11.12
12.33
13.39
14.38
15.37
16.35
17.24
17.90
18.18
18.01
17.38
16.35
14.99
13.34
11.43
9.34
7.26
5.43
4.09
3.36
3.20
3.38
3.63
3.73
3.62
3.31
2.82
2.11
1.08
-0.31
-1.89
-3.34
-4.22
-4.17
-3.10
-1.19
1.15
3.49
5.51
7.07
8.15
8.80
9.10
9.12
8.95
8.72
8.56
8.57
8.78
9.09
9.32
9.31
8.94
8.25
7.39
6.56
5.88
5.38
4.94
4.45
3.81
3.02
2.15
1.27
0.45
-0.35
-1.13
-1.92
-2.73
-3.55
-4.44
-5.43
-6.61
-7.98
-9.47
-10.89
-11.99
-12.49
-12.20
-11.07
-9.22
-6.94
-4.55
-2.36
-0.55
0.87
1.99
3.01
4.07
5.22
6.41
7.52
8.41
9.00
9.24
9.18
8.87
8.36
7.68
6.94
6.25
5.75
5.53
5.60
5.82
5.99
5.94
5.60
5.02
4.31
3.60
2.93
2.31
1.72
1.15
0.56
-0.12
-1.02
-2.20
-3.56
-4.75
-5.15
-4.14
-1.33
3.19
8.81
14.61
19.69
23.46
25.74
26.76
26.92
26.66
26.33
26.17
26.28
26.61
27.08
27.60
28.23
29.17
30.69
32.93
35.75
38.63
40.77
41.29
39.40
34.53
26.50
15.63
2.85
-10.35
-22.22
-31.24
-36.59
-38.40
-37.59
-35.42
-32.99
-30.97
-29.55
-28.69
-28.28
-28.17
-28.11
-27.63
-26.12
-23.01
-18.04
-11.43
-3.83
3.85
10.72
16.14
19.89
22.13
23.24
23.68
23.81
23.75
23.48
22.87
21.82
20.32
18.48
16.46
14.46
12.63
11.01
9.58
8.18
6.66
4.88
2.81
0.59
-1.60
-3.60
-5.40
-7.14
-9.04
-11.24
-13.72
-16.34
-18.92
-21.39
-23.83
-26.46
-29.46
-32.90
-36.62
-40.32
-43.60
-46.08
-47.48
-47.66
-46.63
-44.51
-41.54
-37.95
-34.05
-30.07
-26.13
-22.14
-17.82
-12.83
-7.08
-0.98
4.40
7.58
7.31
3.15
-4.06
-12.36
-19.34
-23.02
-22.50
-18.11
-11.03
-2.73
5.48
12.63
18.02
21.02
21.09
17.91
11.60
2.79
-7.44
-17.78
-26.99
-34.10
-38.57
-40.29
-39.61
-37.23
-34.09
-31.21
-29.52
-29.66
-31.86
-35.82
-40.70
-45.30
-48.31
-48.72
-46.16
-40.94
-33.94
-26.20
-18.52
-11.29
-4.53
1.84
7.82
13.23
17.90
21.83
25.34
28.94
33.13
38.09
43.63
49.21
54.18
57.87
59.81
59.66
57.29
52.76
46.33
38.50
29.97
21.47
13.72
7.22
2.27
-1.07
-2.93
-3.57
-3.36
-2.68
-1.97
-1.55
-1.65
-2.35
-3.63
-5.38
-7.53
-9.98
-12.57
-14.99
-16.81
-17.52
-16.77
-14.52
-11.12
-7.21
-3.44
-0.29
2.13
3.95
5.45
6.85
8.22
9.53
10.69
11.65
12.39
12.89
13.09
12.95
12.41
11.52
10.39
9.23
8.22
7.46
6.91
6.40
5.73
4.72
3.33
1.66
-0.11
-1.80
-3.33
-4.68
-5.90
-7.00
-7.94
-8.56
-8.66
-8.14
-7.00
-5.45
-3.82
-2.48
-1.71
-1.62
-2.06
-2.71
-3.15
-3.02
-2.08
-0.33
2.05
4.77
7.53
10.09
12.34
14.29
16.02
17.63
19.15
20.49
21.47
21.87
21.49
20.27
18.31
15.88
13.39
11.24
9.78
9.12
9.21
9.75
10.40
10.82
10.87
10.54
9.93
9.14
8.13
6.78
4.91
2.42
-0.64
-4.10
-7.66
-11.03
-13.91
-16.07
-17.36
-17.79
-17.55
-16.97
-16.39
-16.00
-15.71
-15.20
-14.09
-12.20
-9.62
-6.75
-4.06
-1.93
-0.47
0.43
0.99
1.44
1.95
2.69
3.80
5.43
7.56
10.00
12.42
14.47
16.07
17.44
19.08
21.54
25.10
29.67
34.78
39.86
44.42
48.28
51.50
54.34
57.04
59.72
62.29
64.50
65.88
65.76
63.29
57.61
48.03
34.34
17.12
-2.27
-21.89
-39.76
-54.46
-65.64
-74.03
-81.10
-88.24
-96.13
-104.34
-111.50
-115.90
-116.22
-111.99
-103.71
-92.48
-79.57
-66.05
-52.68
-40.00
-28.50
-18.68
-10.85
-5.02
-0.78
2.60
5.91
9.69
14.02
18.59
22.90
26.52
29.32
31.43
33.15
34.71
36.13
37.19
37.61
37.17
35.91
34.19
32.50
31.37
31.11
31.72
32.96
34.50
36.13
37.92
40.24
43.66
48.73
55.70
64.11
72.49
78.33
78.57
70.43
52.48
25.40
-7.85
-42.76
-74.40
-98.60
-112.63
-115.37
-107.08
-89.08
-63.59
-33.57
-2.45
26.36
50.02
66.71
75.65
76.93
71.24
59.78
44.22
26.65
9.28
-5.97
-18.03
-26.74
-32.69
-36.69
-39.36
-41.00
-41.74
-41.83
-41.73
-42.02
-43.08
-44.81
-46.67
-47.92
-47.95
-46.62
-44.27
-41.55
-39.10
-37.28
-36.04
-35.03
-33.77
-31.90
-29.41
-26.62
-24.07
-22.30
-21.59
-21.82
-22.54
-23.12
-23.02
-21.97
-19.98
-17.30
-14.31
-11.37
-8.79
-6.80
-5.52
-4.87
-4.66
-4.58
-4.30
-3.61
-2.45
-0.92
0.81
2.59
4.29
5.89
7.40
8.84
10.24
11.63
13.03
14.41
15.74
16.94
17.95
18.71
19.20
19.42
19.39
19.15
18.72
18.07
17.21
16.17
14.99
13.77
12.59
11.55
10.68
9.94
9.24
8.43
7.33
5.79
3.77
1.42
-0.94
-2.84
-3.85
-3.68
-2.39
-0.28
2.20
4.59
6.59
8.06
9.02
9.48
9.54
9.30
8.95
8.73
8.84
9.34
10.14
11.02
11.77
12.24
12.42
12.40
12.30
12.18
12.04
11.81
11.38
10.69
9.73
8.55
7.23
5.84
4.46
3.12
1.83
0.58
-0.65
-1.88
-3.14
-4.43
-5.70
-6.85
-7.74
-8.24
-8.30
-7.99
-7.48
-7.01
-6.85
-7.15
-7.89
-8.79
-9.39
-9.16
-7.74
-5.11
-1.63
2.09
5.42
7.92
9.52
10.40
10.85
11.11
11.22
11.13
10.77
10.19
9.59
9.22
9.25
9.64
10.16
10.46
10.27
9.51
8.38
7.20
6.28
5.82
5.81
6.13
6.58
7.02
7.37
7.58
7.59
7.34
6.80
5.95
4.85
3.60
2.36
1.20
0.18
-0.73
-1.62
-2.56
-3.64
-4.89
-6.27
-7.65
-8.74
-9.21
-8.73
-7.12
-4.47
-1.18
2.19
5.06
7.05
8.11
8.47
8.46
8.41
8.46
8.56
8.58
8.39
7.95
7.30
6.56
5.79
5.05
4.37
3.71
3.07
2.42
1.71
0.92
0.04
-0.87
-1.73
-2.37
-2.65
-2.47
-1.85
-0.95
-0.04
0.58
0.71
0.32
-0.42
-1.26
-1.96
-2.40
-2.59
-2.62
-2.60
-2.58
-2.56
-2.42
-2.02
-1.13
0.42
2.69
5.54
8.61
11.44
13.62
14.92
15.33
14.97
13.99
12.45
10.36
7.77
4.83
1.80
-1.02
-3.37
-5.15
-6.39
-7.22
-7.81
-8.37
-9.03
-9.84
-10.75
-11.62
-12.29
-12.71
-12.96
-13.21
-13.66
-14.36
-15.17
-15.83
-16.12
-15.96
-15.54
-15.18
-15.21
-15.79
-16.84
-18.13
-19.40
-20.45
-21.13
-21.29
-20.73
-19.27
-16.83
-13.60
-9.99
-6.52
-3.64
-1.51
-0.04
1.06
2.05
3.07
4.18
5.32
6.42
7.40
8.16
8.52
8.32
7.42
5.81
3.60
0.96
-1.90
-4.85
-7.76
-10.47
-12.77
-14.46
-15.41
-15.68
-15.49
-15.13
-14.84
-14.68
-14.50
-14.09
-13.34
-12.34
-11.36
-10.72
-10.58
-10.94
-11.64
-12.44
-13.15
-13.60
-13.64
-13.10
-11.80
-9.69
-6.86
-3.63
-0.47
2.19
4.12
5.28
5.90
6.28
6.69
7.25
7.98
8.76
9.52
10.20
10.82
11.45
12.12
12.80
13.40
13.80
13.93
13.81
13.49
13.09
12.70
12.36
12.05
11.73
11.35
10.87
10.27
9.56
8.77
7.98
7.26
6.70
6.31
6.08
5.90
5.64
5.22
4.58
3.78
2.94
2.27
2.03
2.46
3.72
5.81
8.56
11.61
14.51
16.89
18.54
19.42
19.69
19.56
19.19
18.70
18.12
17.47
16.82
16.25
15.82
15.60
15.55
15.62
15.71
15.74
15.68
15.54
15.35
15.14
14.87
14.49
13.89
13.00
11.80
10.33
8.66
6.85
4.88
2.74
0.38
-2.16
-4.74
-7.18
-9.27
-10.87
-11.93
-12.53
-12.83
-13.06
-13.44
-14.15
-15.21
-16.47
-17.61
-18.26
-18.13
-17.11
-15.34
-13.15
-10.89
-8.86
-7.17
-5.84
-4.84
-4.14
-3.73
-3.63
-3.79
-4.11
-4.48
-4.79
-4.98
-5.04
-4.97
-4.81
-4.58
-4.33
-4.07
-3.81
-3.55
-3.31
-3.06
-2.82
-2.56
-2.27
-1.98
-1.71
-1.56
-1.62
-1.96
-2.52
-3.19
-3.77
-4.05
-3.94
-3.48
-2.81
-2.20
-1.94
-2.23
-3.11
-4.37
-5.63
-6.39
-6.24
-5.01
-2.83
-0.11
2.64
4.99
6.72
7.81
8.40
8.72
8.98
9.32
9.78
10.37
11.02
11.69
12.30
12.81
13.17
13.31
13.19
12.83
12.32
11.79
11.41
11.28
11.34
11.43
11.35
10.93
10.15
9.12
8.01
6.96
6.00
5.07
4.04
2.81
1.35
-0.27
-1.94
-3.51
-4.87
-5.96
-6.75
-7.26
-7.56
-7.76
-7.98
-8.29
-8.66
-8.87
-8.62
-7.58
-5.61
-2.81
0.46
3.66
6.29
8.03
8.85
8.96
8.64
8.18
7.73
7.32
6.95
6.56
6.14
5.71
5.26
4.83
4.45
4.13
3.89
3.69
3.52
3.31
3.04
2.70
2.29
1.88
1.49
1.15
0.87
0.62
0.34
-0.04
-0.59
-1.32
-2.24
-3.30
-4.47
-5.70
-7.00
-8.34
-9.70
-11.01
-12.21
-13.25
-14.14
-14.95
-15.73
-16.52
-17.21
-17.63
-17.55
-16.77
-15.28
-13.23
-10.89
-8.51
-6.29
-4.27
-2.39
-0.61
1.07
2.54
3.70
4.47
4.89
5.06
5.13
5.19
5.27
5.36
5.44
5.50
5.56
5.66
5.77
5.87
5.90
5.82
5.65
5.41
5.15
4.87
4.56
4.22
3.87
3.59
3.46
3.53
3.75
3.96
3.98
3.71
3.16
2.48
1.88
1.49
1.35
1.35
1.37
1.26
0.98
0.57
0.14
-0.12
-0.04
0.55
1.70
3.32
5.19
6.99
8.43
9.37
9.79
9.80
9.53
9.05
8.42
7.68
6.94
6.35
6.00
5.91
5.96
5.98
5.81
5.43
4.94
4.52
4.34
4.51
5.03
5.84
6.86
7.97
9.12
10.22
11.22
12.09
12.82
13.45
14.06
14.74
15.62
16.81
18.41
20.57
23.41
27.06
31.52
36.58
41.79
46.45
49.81
51.25
50.47
47.53
42.83
36.95
30.56
24.33
18.85
14.57
11.73
10.27
9.92
10.23
10.81
11.48
12.33
13.68
15.82
18.88
22.64
26.50
29.76
31.85
32.62
32.49
32.22
32.68
34.45
37.53
41.18
43.91
43.73
38.75
27.89
11.60
-7.99
-27.59
-43.88
-54.76
-60.10
-61.58
-61.77
-62.97
-66.38
-72.00
-79.11
-86.92
-94.86
-102.51
-109.22
-113.90
-115.11
-111.49
-102.33
-87.96
-69.92
-50.69
-33.11
-19.69
-11.90
-9.84
-12.28
-17.18
-22.46
-26.62
-29.11
-30.24
-30.78
-31.46
-32.70
-34.54
-36.82
-39.34
-41.89
-44.16
-45.62
-45.58
-43.48
-39.19
-33.24
-26.73
-20.96
-16.94
-15.00
-14.63
-14.79
-14.19
-11.88
-7.50
-1.37
5.65
12.54
18.40
22.71
25.37
26.60
26.81
26.42
25.74
24.98
24.23
23.53
22.81
21.92
20.71
19.04
16.90
14.45
12.02
9.97
8.55
7.81
7.56
7.46
7.17
6.46
5.34
3.99
2.68
1.62
0.98
0.79
1.10
1.97
3.49
5.70
8.50
11.56
14.38
16.46
17.47
17.50
17.02
16.79
17.57
19.79
23.41
27.91
32.47
36.22
38.51
39.07
38.08
36.08
33.73
31.60
29.98
28.80
27.82
26.82
25.77
24.88
24.40
24.35
24.35
23.62
21.30
16.86
10.62
3.80
-1.55
-3.05
1.39
12.86
30.89
53.01
74.84
90.76
95.34
85.13
60.20
24.60
-14.56
-49.25
-73.08
-83.09
-80.22
-68.34
-52.30
-36.32
-22.96
-13.35
-7.98
-7.51
-13.09
-25.91
-46.35
-73.20
-103.37
-132.39
-155.42
-168.51
-169.35
-157.67
-135.10
-105.04
-72.35
-42.87
-22.45
-15.59
-23.93
-45.43
-74.76
-104.95
-129.59
-144.69
-149.30
-144.93
-134.25
-119.82
-103.38
-85.90
-67.93
-49.96
-32.51
-15.96
-0.37
14.52
29.12
43.65
57.86
70.83
81.26
87.87
89.97
87.83
82.82
76.87
71.78
68.55
67.09
66.44
65.51
63.63
60.89
58.00
55.81
54.95
55.68
57.95
61.65
66.50
71.79
76.08
77.33
73.45
63.21
46.97
26.81
5.87
-12.69
-26.69
-35.35
-39.01
-38.58
-34.93
-28.80
-20.87
-12.08
-3.58
3.50
8.34
10.76
11.08
9.99
8.18
6.17
4.25
2.60
1.34
0.59
0.38
0.68
1.36
2.27
3.23
4.09
4.78
5.27
5.57
5.75
5.85
5.95
6.15
6.52
7.17
8.14
9.39
10.80
12.21
13.44
14.39
15.07
15.53
15.86
16.08
16.17
16.08
15.79
15.31
14.77
14.35
14.30
14.82
15.98
17.66
19.58
21.39
22.82
23.76
24.21
24.25
23.84
22.86
21.18
18.74
15.72
12.48
9.53
7.30
6.14
6.13
7.18
8.99
11.11
13.05
14.35
14.77
14.29
13.14
11.66
10.18
8.92
7.96
7.27
6.77
6.35
5.91
5.36
4.63
3.69
2.57
1.34
0.10
-1.08
-2.13
-2.99
-3.60
-3.88
-3.83
-3.52
-3.19
-3.15
-3.73
-5.02
-6.86
-8.82
-10.38
-11.24
-11.44
-11.41
-11.71
-12.65
-14.05
-15.21
-15.17
-13.18
-9.05
-3.34
2.79
8.02
11.30
12.29
11.46
9.93
9.07
10.06
13.56
19.41
26.57
33.07
36.33
33.65
23.16
4.72
-19.48
-45.12
-66.95
-80.49
-83.60
-77.05
-64.04
-48.66
-34.38
-23.10
-15.13
-9.90
-6.73
-5.28
-5.50
-7.25
-9.96
-12.67
-14.32
-14.18
-12.17
-8.86
-5.23
-2.25
-0.43
0.34
0.69
1.44
3.21
6.06
9.52
12.78
15.07
15.99
15.65
14.58
13.48
12.93
13.18
14.09
15.23
16.11
16.34
15.81
14.70
13.41
12.39
11.99
12.34
13.38
14.83
16.24
16.85
15.67
11.60
3.82
-7.69
-21.79
-36.25
-48.38
-55.87
-57.65
-54.16
-47.00
-38.19
-29.35
-21.37
-14.44
-8.52
-3.58
0.25
2.83
4.21
4.71
4.74
4.57
4.17
3.30
1.63
-1.02
-4.51
-8.45
-12.29
-15.49
-17.63
-18.41
-17.70
-15.58
-12.39
-8.68
-5.08
-2.15
-0.20
0.82
1.15
1.08
0.83
0.49
0.15
0.03
0.46
1.76
4.02
6.99
10.14
12.90
14.90
16.08
16.65
16.87
16.90
16.77
16.45
15.91
15.20
14.39
13.51
12.53
11.36
9.99
8.52
7.12
5.95
5.05
4.33
3.59
2.69
1.59
0.39
-0.82
-1.99
-3.15
-4.39
-5.75
-7.20
-8.62
-9.89
-10.95
-11.86
-12.69
-13.50
-14.27
-14.83
-14.99
-14.54
-13.43
-11.77
-9.84
-8.03
-6.69
-6.01
-5.93
-6.20
-6.48
-6.51
-6.21
-5.64
-4.93
-4.16
-3.31
-2.28
-1.04
0.41
1.96
3.45
4.79
5.89
6.75
7.35
7.70
7.80
7.69
7.45
7.13
6.80
6.42
5.95
5.38
4.75
4.14
3.67
3.38
3.27
3.21
3.07
2.75
2.21
1.53
0.77
-0.01
-0.77
-1.43
-1.83
-1.70
-0.80
0.96
3.42
6.20
8.82
10.89
12.25
13.01
13.43
13.78
14.25
14.90
15.67
16.44
17.05
17.38
17.31
16.84
16.05
15.12
14.26
13.59
13.12
12.75
12.37
11.90
11.31
10.65
9.93
9.13
8.19
7.07
5.80
4.50
3.34
2.43
1.79
1.29
0.81
0.23
-0.46
-1.21
-1.94
-2.54
-2.95
-3.13
-3.07
-2.83
-2.56
-2.43
-2.63
-3.26
-4.26
-5.37
-6.23
-6.50
-5.96
-4.67
-2.87
-0.91
0.86
2.27
3.30
4.07
4.78
5.55
6.42
7.31
8.12
8.75
9.17
9.45
9.67
9.91
10.18
10.38
10.38
10.07
9.45
8.65
7.83
7.18
6.77
6.58
6.51
6.47
6.37
6.13
5.62
4.69
3.23
1.23
-1.12
-3.50
-5.55
-7.02
-7.87
-8.23
-8.32
-8.36
-8.50
-8.81
-9.30
-9.94
-10.70
-11.58
-12.52
-13.46
-14.19
-14.42
-13.83
-12.21
-9.58
-6.24
-2.71
0.45
2.88
4.48
5.43
6.05
6.63
7.33
8.10
8.82
9.33
9.53
9.45
9.22
8.98
8.83
8.77
8.69
8.45
7.94
7.14
6.13
5.05
4.02
3.12
2.43
1.95
1.69
1.63
1.73
1.96
2.25
2.60
2.96
3.28
3.47
3.44
3.10
2.43
1.48
0.37
-0.77
-1.80
-2.64
-3.23
-3.55
-3.61
-3.53
-3.45
-3.53
-3.84
-4.29
-4.56
-4.27
-3.07
-0.85
2.19
5.57
8.70
11.04
12.26
12.32
11.35
9.64
7.50
5.23
3.04
1.06
-0.67
-2.20
-3.64
-5.02
-6.36
-7.58
-8.60
-9.31
-9.66
-9.67
-9.40
-8.95
-8.45
-8.04
-7.77
-7.61
-7.50
-7.29
-6.89
-6.30
-5.60
-4.91
-4.33
-3.92
-3.67
-3.55
-3.53
-3.63
-3.86
-4.25
-4.77
-5.38
-6.02
-6.64
-7.21
-7.76
-8.32
-8.92
-9.58
-10.32
-11.07
-11.76
-12.21
-12.24
-11.66
-10.40
-8.50
-6.16
-3.68
-1.38
0.54
1.99
2.98
3.60
3.96
4.12
4.15
4.13
4.17
4.36
4.76
5.29
5.83
6.20
6.26
6.00
5.51
4.94
4.42
4.00
3.64
3.28
2.88
2.49
2.22
2.18
2.43
2.91
3.50
4.04
4.41
4.54
4.44
4.14
3.70
3.16
2.57
1.98
1.44
0.97
0.57
0.17
-0.30
-0.89
-1.59
-2.32
-2.98
-3.44
-3.58
-3.28
-2.49
-1.19
0.52
2.48
4.46
6.26
7.74
8.84
9.58
10.07
10.39
10.65
10.92
11.23
11.56
11.79
11.81
11.53
10.92
10.06
9.04
7.99
7.00
6.15
5.44
4.89
4.44
4.04
3.63
3.19
2.76
2.44
2.30
2.36
2.54
2.67
2.63
2.45
2.33
2.58
3.45
4.98
6.98
9.05
10.78
11.91
12.42
12.50
12.46
12.57
12.99
13.79
14.90
16.14
17.22
17.81
17.81
17.52
17.69
19.14
22.31
26.78
31.24
33.95
33.54
29.64
23.11
15.51
8.46
2.91
-0.98
-3.55
-5.17
-5.87
-5.38
-3.41
0.12
4.99
10.79
17.08
23.36
28.82
32.19
31.75
25.93
14.07
-2.92
-22.59
-41.57
-56.71
-66.13
-69.62
-68.43
-64.40
-59.26
-54.10
-49.42
-45.31
-41.76
-38.83
-36.59
-35.12
-34.44
-34.51
-35.17
-36.19
-37.29
-38.25
-38.98
-39.57
-40.09
-40.42
-40.20
-38.84
-35.88
-31.25
-25.46
-19.45
-14.28
-10.69
-8.91
-8.65
-9.31
-10.32
-11.28
-12.04
-12.62
-13.06
-13.32
-13.28
-12.79
-11.69
-9.97
-7.75
-5.28
-2.90
-0.87
0.66
1.75
2.59
3.39
4.27
5.21
6.06
6.63
6.75
6.38
5.60
4.63
3.70
3.03
2.75
2.87
3.29
3.83
4.27
4.40
4.10
3.29
2.01
0.34
-1.56
-3.48
-5.19
-6.47
-7.17
-7.24
-6.67
-5.51
-3.79
-1.58
1.00
3.69
6.21
8.25
9.64
10.40
10.68
10.73
10.75
10.86
11.07
11.32
11.54
11.68
11.69
11.51
11.11
10.46
9.67
8.83
8.13
7.66
7.49
7.54
7.70
7.81
7.73
7.45
6.97
6.43
5.93
5.57
5.40
5.40
5.52
5.65
5.69
5.49
4.93
3.91
2.45
0.68
-1.22
-3.02
-4.59
-5.86
-6.83
-7.42
-7.52
-6.94
-5.60
-3.56
-1.11
1.32
3.35
4.78
5.62
6.05
6.31
6.57
6.89
7.22
7.43
7.40
7.04
6.32
5.31
4.16
3.10
2.33
1.92
1.82
1.81
1.64
1.15
0.29
-0.78
-1.85
-2.74
-3.38
-3.82
-4.15
-4.44
-4.67
-4.73
-4.53
-4.08
-3.54
-3.20
-3.41
-4.37
-6.08
-8.27
-10.43
-11.96
-12.33
-11.17
-8.39
-4.16
1.04
6.49
11.41
15.15
17.37
18.14
17.85
16.97
15.83
14.54
13.01
11.13
8.86
6.33
3.71
1.16
-1.22
-3.32
-4.97
-5.97
-6.14
-5.48
-4.24
-2.81
-1.63
-0.93
-0.68
-0.55
-0.13
0.91
2.63
4.78
6.90
8.48
9.20
9.01
8.19
7.21
6.56
6.51
7.01
7.78
8.40
8.52
8.01
7.05
6.10
5.83
7.03
10.37
16.13
23.94
32.62
40.41
45.40
46.24
42.69
35.64
26.81
18.02
10.45
4.36
-0.72
-5.51
-10.46
-15.51
-20.15
-23.79
-26.08
-26.98
-26.75
-25.62
-23.75
-21.18
-17.91
-14.08
-9.97
-5.94
-2.29
0.81
3.42
5.71
7.91
10.20
12.72
15.53
18.71
22.37
26.61
31.49
36.86
42.31
47.18
50.63
51.92
50.69
47.06
41.63
35.32
29.13
23.83
19.96
17.75
17.19
18.09
20.11
22.69
25.10
26.50
26.11
23.41
18.27
11.11
2.83
-5.43
-12.63
-18.05
-21.44
-22.96
-22.96
-21.84
-19.97
-17.65
-15.13
-12.59
-10.13
-7.86
-6.01
-5.01
-5.31
-7.11
-10.09
-13.50
-16.32
-17.84
-18.00
-17.36
-16.70
-16.58
-17.00
-17.50
-17.54
-16.80
-15.41
-13.70
-11.93
-10.02
-7.59
-4.16
0.52
6.26
12.49
18.41
23.27
26.61
28.33
28.65
28.10
27.42
27.45
28.88
31.96
36.29
40.90
44.58
46.39
45.94
43.33
38.86
32.60
24.35
13.80
0.93
-13.81
-29.56
-45.29
-60.14
-73.43
-84.64
-93.21
-98.57
-100.35
-98.60
-93.96
-87.54
-80.67
-74.57
-70.16
-67.92
-67.94
-69.87
-72.93
-75.97
-77.74
-77.12
-73.52
-67.10
-58.62
-49.24
-40.00
-31.54
-24.07
-17.54
-11.87
-6.98
-2.74
1.18
5.27
9.95
15.26
20.64
25.10
27.69
27.99
26.47
24.40
23.38
24.74
29.11
36.09
44.35
51.97
57.00
57.98
54.39
46.85
36.90
26.67
18.23
13.01
11.38
12.61
15.17
17.43
18.20
17.23
15.11
12.84
11.28
10.79
11.22
12.15
13.32
14.66
16.15
17.53
18.16
17.33
14.66
10.36
5.35
0.79
-2.36
-3.79
-3.89
-3.33
-2.75
-2.41
-2.20
-1.75
-0.42
2.68
8.62
18.23
31.54
47.34
63.21
76.24
84.07
85.89
82.61
76.29
69.14
62.56
56.83
51.44
45.70
39.31
32.48
25.72
19.52
14.23
10.05
7.13
5.66
5.84
7.65
10.73
14.29
17.25
18.49
17.04
12.30
4.09
-7.35
-21.34
-36.84
-52.50
-66.81
-78.37
-86.22
-90.04
-90.25
-87.95
-84.56
-81.38
-79.13
-77.74
-76.29
-73.22
-66.65
-54.61
-35.55
-8.97
23.68
58.43
89.25
109.57
114.66
103.66
80.10
50.54
21.85
-1.36
-17.96
-29.66
-39.14
-48.28
-57.40
-65.77
-72.67
-78.17
-83.13
-88.47
-94.42
-100.21
-104.49
-106.02
-104.43
-100.51
-95.90
-92.44
-91.40
-93.02
-96.45
-100.15
-102.53
-102.46
-99.63
-94.50
-88.05
-81.37
-75.28
-69.86
-64.30
-57.17
-46.89
-32.54
-14.46
5.87
26.40
45.44
62.11
76.12
87.22
94.75
97.83
96.15
90.69
83.82
78.41
76.41
77.84
80.83
82.62
81.05
75.47
66.78
56.66
46.62
37.53
29.65
23.02
17.78
14.18
12.38
12.27
13.26
14.53
15.24
14.90
13.41
11.01
8.14
5.25
2.73
0.87
-0.22
-0.68
-0.93
-1.55
-3.03
-5.52
-8.56
-11.25
-12.61
-11.94
-9.19
-4.91
-0.02
4.56
8.24
10.80
12.33
12.98
12.89
12.12
10.79
9.15
7.59
6.49
6.04
6.03
5.95
5.29
3.82
1.79
-0.10
-1.13
-0.85
0.60
2.65
4.54
5.68
5.83
5.10
3.73
2.05
0.38
-0.90
-1.31
-0.38
2.17
6.22
11.13
15.80
19.00
19.69
17.36
12.17
4.81
-3.80
-12.79
-21.51
-29.57
-36.62
-42.32
-46.25
-48.08
-47.73
-45.48
-41.94
-37.88
-33.99
-30.72
-28.21
-26.43
-25.23
-24.47
-23.99
-23.53
-22.72
-21.19
-18.68
-15.23
-11.17
-6.98
-3.18
-0.07
2.28
3.95
5.13
5.97
6.60
7.13
7.63
8.19
8.81
9.48
10.16
10.87
11.64
12.56
13.70
15.09
16.73
18.58
20.54
22.48
24.20
25.45
26.05
25.93
25.16
23.89
22.33
20.61
18.81
16.93
14.92
12.75
10.40
7.94
5.44
3.01
0.79
-1.12
-2.63
-3.69
-4.30
-4.55
-4.60
-4.69
-5.09
-5.99
-7.38
-9.00
-10.37
-10.93
-10.25
-8.26
-5.26
-1.88
1.22
3.56
5.00
5.69
5.95
6.09
6.31
6.70
7.29
8.09
9.10
10.28
11.53
12.69
13.60
14.17
14.37
14.27
13.96
13.52
13.03
12.53
12.05
11.59
11.09
10.49
9.75
8.93
8.15
7.56
7.26
7.20
7.21
7.04
6.50
5.58
4.41
3.25
2.29
1.59
1.05
0.48
-0.27
-1.21
-2.23
-3.19
-4.01
-4.70
-5.37
-6.17
-7.20
-8.51
-10.05
-11.62
-12.92
-13.56
-13.18
-11.60
-8.90
-5.47
-1.84
1.48
4.16
6.12
7.44
8.26
8.71
8.92
9.01
9.14
9.47
10.07
10.91
11.82
12.59
13.06
13.15
12.90
12.42
11.85
11.30
10.85
10.55
10.35
10.16
9.86
9.39
8.79
8.13
7.53
7.02
6.58
6.12
5.61
5.02
4.41
3.82
3.24
2.65
2.03
1.37
0.66
-0.12
-1.05
-2.17
-3.48
-4.87
-6.17
-7.26
-8.16
-9.01
-10.02
-11.30
-12.77
-14.20
-15.25
-15.66
-15.27
-14.06
-12.13
-9.64
-6.75
-3.68
-0.69
1.98
4.16
5.78
6.92
7.75
8.43
9.11
9.85
10.66
11.55
12.50
13.52
14.57
15.57
16.36
16.78
16.72
16.18
15.28
14.19
13.09
12.01
10.88
9.58
8.04
6.33
4.67
3.27
2.26
1.57
1.02
0.45
-0.19
-0.78
-1.16
-1.24
-1.10
-0.97
-1.13
-1.70
-2.67
-3.85
-5.06
-6.18
-7.24
-8.28
-9.33
-10.32
-11.11
-11.56
-11.66
-11.45
-11.03
-10.37
-9.29
-7.47
-4.60
-0.51
4.68
10.56
16.55
22.03
26.51
29.71
31.59
32.27
31.99
31.04
29.72
28.30
26.97
25.85
24.92
24.04
22.96
21.50
19.62
17.44
15.23
13.25
11.64
10.42
9.44
8.48
7.40
6.20
4.93
3.70
2.52
1.43
0.40
-0.69
-1.93
-3.36
-4.92
-6.47
-7.90
-9.15
-10.09
-10.71
-11.22
-12.02
-13.39
-15.39
-17.80
-20.30
-22.61
-24.25
-25.07
-25.42
-26.14
-28.09
-31.69
-36.67
-42.08
-46.41
-47.19
-42.31
-31.01
-14.56
4.09
21.45
34.56
41.98
44.29
44.60
46.55
52.63
63.27
77.06
91.74
104.70
113.27
109.53
88.20
49.68
0.91
-48.45
-90.46
-120.38
-136.21
-138.10
-128.07
-108.90
-84.57
-59.91
-39.32
-25.39
-17.80
-14.15
-11.68
-8.50
-3.47
3.26
10.54
17.13
22.27
26.02
28.83
30.99
32.41
33.08
33.13
31.62
28.44
23.85
18.50
13.17
8.53
5.04
3.10
2.73
3.41
4.40
4.81
4.08
2.22
-0.23
-2.47
-3.78
-3.85
-3.02
-1.95
-1.58
-2.77
-6.10
-11.67
-19.09
-27.49
-35.64
-42.24
-46.12
-46.69
-44.01
-38.82
-32.23
-25.43
-19.38
-14.59
-11.11
-8.59
-6.58
-4.70
-2.72
-0.61
1.53
3.59
5.41
6.87
7.90
8.46
8.57
8.26
7.55
6.52
5.27
4.06
3.15
2.78
2.96
3.42
3.73
3.49
2.61
1.42
0.60
0.92
2.86
6.40
11.06
16.04
20.57
24.08
26.36
27.42
27.42
26.53
24.94
22.88
20.59
18.31
16.23
14.36
12.55
10.52
8.01
4.90
1.26
-2.65
-6.47
-9.87
-12.68
-14.87
-16.55
-17.86
-18.88
-19.67
-20.26
-20.71
-21.12
-21.59
-22.16
-22.76
-23.20
-23.32
-23.03
-22.36
-21.50
-20.63
-19.91
-19.39
-19.03
-18.70
-18.29
-17.74
-17.06
-16.36
-15.76
-15.35
-15.17
-15.23
-15.51
-16.01
-16.64
-17.22
-17.41
-16.80
-15.08
-12.19
-8.40
-4.29
-0.58
2.16
3.65
4.00
3.56
2.77
1.92
1.12
0.34
-0.51
-1.46
-2.42
-3.28
-3.90
-4.18
-4.06
-3.45
-2.36
-0.95
0.41
1.22
1.08
-0.08
-1.85
-3.52
-4.34
-3.86
-2.14
0.35
2.98
5.12
6.35
6.48
5.60
4.01
2.27
1.01
0.81
1.93
4.14
6.86
9.37
11.11
11.91
12.01
11.83
11.75
11.90
12.14
12.14
11.49
9.86
7.16
3.63
-0.17
-3.43
-5.40
-5.69
-4.46
-2.40
-0.50
0.28
-0.73
-3.77
-8.57
-14.41
-20.27
-24.96
-27.45
-27.12
-24.01
-18.80
-12.53
-6.21
-0.45
4.60
9.11
13.23
16.94
19.96
22.03
23.02
23.07
22.51
21.70
20.86
20.05
19.20
18.23
17.06
15.71
14.20
12.51
10.62
8.51
6.21
3.83
1.55
-0.46
-2.08
-3.29
-4.17
-4.85
-5.50
-6.29
-7.39
-8.88
-10.68
-12.54
-14.00
-14.55
-13.82
-11.76
-8.68
-5.17
-1.83
0.96
3.09
4.69
6.00
7.14
8.18
9.08
9.86
10.55
11.20
11.79
12.26
12.49
12.41
11.99
11.35
10.65
10.07
9.76
9.72
9.87
10.00
9.90
9.41
8.52
7.33
6.02
4.79
3.73
2.84
2.07
1.31
0.49
-0.43
-1.44
-2.49
-3.53
-4.50
-5.40
-6.22
-6.99
-7.76
-8.58
-9.50
-10.57
-11.84
-13.28
-14.76
-16.05
-16.81
-16.68
-15.46
-13.13
-9.92
-6.28
-2.66
0.54
3.12
5.04
6.44
7.48
8.30
9.00
9.64
10.24
10.81
11.31
11.72
11.98
12.06
11.99
11.81
11.58
11.35
11.13
10.95
10.78
10.61
10.38
10.07
9.60
8.98
8.19
7.28
6.28
5.22
4.16
3.09
2.08
1.16
0.36
-0.30
-0.89
-1.50
-2.23
-3.14
-4.27
-5.55
-6.86
-8.09
-9.14
-9.99
-10.70
-11.45
-12.40
-13.68
-15.25
-16.89
-18.18
-18.65
-17.94
-15.91
-12.77
-8.98
-5.11
-1.67
1.02
2.87
4.01
4.64
5.01
5.31
5.66
6.14
6.72
7.32
7.81
8.08
8.06
7.77
7.31
6.84
6.51
6.42
6.56
6.80
6.95
6.80
6.25
5.31
4.10
2.80
1.56
0.45
-0.52
-1.35
-1.98
-2.34
-2.30
-1.88
-1.21
-0.56
-0.21
-0.35
-0.98
-1.92
-2.94
-3.82
-4.48
-4.94
-5.28
-5.59
-5.92
-6.29
-6.67
-6.95
-6.92
-6.29
-4.76
-2.17
1.37
5.49
9.62
13.19
15.80
17.36
18.00
18.00
17.64
17.11
16.52
15.92
15.34
14.87
14.53
14.33
14.16
13.84
13.18
12.12
10.76
9.30
8.01
7.02
6.33
5.79
5.15
4.19
2.80
0.99
-1.12
-3.32
-5.40
-7.16
-8.50
-9.44
-10.15
-10.88
-11.82
-13.01
-14.25
-15.23
-15.63
-15.26
-14.12
-12.37
-10.27
-8.04
-5.87
-3.92
-2.34
-1.19
-0.40
0.29
1.29
2.98
5.53
8.71
11.99
14.74
16.53
17.32
17.39
17.21
17.14
17.27
17.47
17.43
16.89
15.76
14.08
12.02
9.80
7.61
5.61
3.89
2.56
1.74
1.47
1.80
2.66
3.87
5.20
6.42
7.34
7.93
8.25
8.37
8.30
7.99
7.28
6.08
4.39
2.36
0.21
-1.83
-3.63
-5.15
-6.43
-7.46
-8.14
-8.35
-8.01
-7.20
-6.18
-5.31
-4.92
-5.09
-5.58
-5.85
-5.25
-3.29
0.23
5.08
10.72
16.51
21.88
26.50
30.25
33.23
35.57
37.43
38.96
40.26
41.41
42.39
43.08
43.27
42.74
41.39
39.25
36.55
33.59
30.68
27.99
25.54
23.19
20.71
17.83
14.34
10.11
5.19
-0.25
-5.89
-11.35
-16.33
-20.67
-24.37
-27.58
-30.43
-32.99
-35.22
-37.06
-38.47
-39.50
-40.29
-41.02
-41.79
-42.61
-43.41
-44.11
-44.67
-45.15
-45.64
-46.32
-47.28
-48.53
-49.90
-51.02
-51.42
-50.67
-48.57
-45.25
-41.14
-36.83
-32.83
-29.40
-26.53
-24.05
-21.79
-19.69
-17.78
-16.09
-14.53
-12.93
-11.11
-8.97
-6.61
-4.24
-2.13
-0.45
0.80
1.72
2.47
3.11
3.62
3.87
3.70
2.99
1.72
-0.02
-2.13
-4.41
-6.71
-8.86
-10.72
-12.16
-13.07
-13.43
-13.27
-12.74
-12.03
-11.31
-10.67
-10.13
-9.74
-9.70
-10.29
-11.71
-13.73
-15.65
-16.38
-14.95
-10.97
-4.87
2.21
8.89
14.20
17.83
20.10
21.62
22.88
24.04
25.01
25.63
25.88
25.88
25.78
25.54
24.91
23.46
20.77
16.69
11.49
5.75
0.26
-4.30
-7.55
-9.51
-10.51
-11.01
-11.45
-12.05
-12.93
-14.09
-15.49
-17.03
-18.49
-19.59
-20.01
-19.61
-18.56
-17.36
-16.54
-16.45
-16.96
-17.45
-17.19
-15.66
-12.92
-9.55
-6.46
-4.50
-4.23
-5.82
-9.05
-13.38
-18.03
-22.09
-24.78
-25.69
-24.97
-23.28
-21.42
-19.93
-18.84
-17.67
-15.88
-13.20
-9.90
-6.56
-3.76
-1.75
-0.35
0.77
1.88
2.96
3.74
4.02
3.82
3.49
3.49
4.17
5.54
7.29
8.92
9.95
10.14
9.51
8.33
6.96
5.80
5.19
5.33
6.31
7.97
10.04
12.09
13.75
14.83
15.31
15.36
15.17
14.87
14.50
14.07
13.65
13.36
13.33
13.60
14.05
14.48
14.71
14.69
14.50
14.27
14.13
14.06
14.04
14.02
14.03
14.14
14.45
14.95
15.52
15.92
15.88
15.20
13.79
11.78
9.49
7.35
5.73
4.84
4.63
4.86
5.18
5.36
5.33
5.21
5.24
5.61
6.45
7.77
9.52
11.60
13.87
16.17
18.37
20.36
22.18
23.98
25.95
28.19
30.54
32.51
33.47
32.87
30.63
27.18
23.33
19.90
17.32
15.55
14.14
12.63
10.83
8.94
7.40
6.57
6.59
7.30
8.38
9.51
10.43
10.90
10.60
9.17
6.38
2.36
-2.20
-6.17
-8.19
-7.26
-3.03
3.94
12.38
20.70
27.54
32.22
34.85
36.24
37.52
39.64
43.14
48.03
54.00
60.58
67.18
73.03
77.15
78.60
76.94
72.63
66.93
61.25
56.11
50.46
41.85
27.53
5.91
-22.35
-54.28
-85.50
-111.58
-129.28
-137.03
-134.89
-124.20
-107.18
-86.66
-65.68
-47.16
-33.31
-25.14
-22.18
-22.60
-23.74
-22.99
-18.70
-10.72
-0.42
9.89
17.91
22.22
22.60
19.87
15.20
9.55
3.40
-3.10
-9.83
-16.38
-22.12
-26.49
-29.35
-31.05
-32.38
-34.14
-36.81
-40.33
-44.17
-47.53
-49.69
-50.18
-48.92
-46.17
-42.38
-38.04
-33.55
-29.18
-25.01
-21.07
-17.37
-14.00
-11.09
-8.78
-7.10
-5.96
-5.17
-4.52
-3.82
-3.00
-2.05
-1.06
-0.11
0.73
1.44
2.03
2.56
3.04
3.51
3.96
4.35
4.64
4.82
4.92
4.99
5.12
5.35
5.69
6.09
6.38
6.41
6.08
5.44
4.61
3.78
3.04
2.32
1.41
0.06
-1.90
-4.42
-7.27
-10.06
-12.33
-13.66
-13.73
-12.41
-9.80
-6.24
-2.30
1.42
4.45
6.55
7.77
8.36
8.62
8.75
8.82
8.80
8.63
8.35
8.05
7.82
7.69
7.59
7.37
6.93
6.32
5.66
5.18
5.00
5.09
5.29
5.34
5.09
4.48
3.59
2.53
1.40
0.26
-0.87
-1.94
-2.91
-3.72
-4.38
-4.91
-5.39
-5.86
-6.34
-6.88
-7.50
-8.35
-9.52
-11.03
-12.64
-13.90
-14.26
-13.26
-10.83
-7.31
-3.39
0.19
2.86
4.47
5.19
5.40
5.47
5.60
5.85
6.19
6.57
6.99
7.47
8.00
8.55
9.01
9.31
9.42
9.39
9.29
9.21
9.17
9.10
8.95
8.68
8.30
7.89
7.49
7.12
6.77
6.38
5.93
5.44
4.91
4.36
3.70
2.86
1.76
0.45
-0.91
-2.11
-2.92
-3.28
-3.25
-3.09
-3.13
-3.66
-4.88
-6.80
-9.18
-11.58
-13.44
-14.21
-13.51
-11.28
-7.83
-3.70
0.44
4.01
6.65
8.28
9.00
9.05
8.74
8.33
8.03
7.96
8.14
8.49
8.87
9.15
9.21
9.00
8.52
7.83
7.05
6.35
5.85
5.60
5.52
5.42
5.09
4.39
3.34
2.11
0.92
-0.05
-0.77
-1.30
-1.76
-2.24
-2.78
-3.33
-3.82
-4.26
-4.69
-5.22
-5.92
-6.83
-7.88
-8.96
-9.94
-10.75
-11.43
-12.07
-12.84
-13.86
-15.16
-16.53
-17.62
-17.97
-17.18
-15.06
-11.70
-7.51
-3.05
1.12
4.58
7.18
8.93
9.99
10.51
10.63
10.47
10.18
9.91
9.86
10.11
10.62
11.20
11.58
11.58
11.15
10.46
9.73
9.21
8.97
8.93
8.87
8.57
7.86
6.74
5.30
3.70
2.08
0.52
-0.95
-2.32
-3.59
-4.76
-5.77
-6.59
-7.17
-7.49
-7.57
-7.44
-7.12
-6.68
-6.22
-5.87
-5.81
-6.23
-7.27
-8.92
-10.96
-12.89
-14.07
-13.87
-11.89
-8.16
-3.19
2.20
7.15
11.01
13.56
14.95
15.54
15.68
15.58
15.31
14.83
14.16
13.35
12.46
11.52
10.42
9.07
7.43
5.65
4.05
2.96
2.64
3.09
4.07
5.21
6.14
6.66
6.76
6.55
6.23
5.90
5.56
5.13
4.46
3.42
1.98
0.23
-1.65
-3.46
-5.04
-6.37
-7.51
-8.61
-9.83
-11.29
-13.10
-15.24
-17.61
-19.88
-21.56
-22.08
-21.01
-18.23
-14.09
-9.28
-4.59
-0.70
2.05
3.65
4.34
4.43
4.20
3.82
3.39
2.98
2.67
2.53
2.60
2.89
3.35
3.83
4.14
4.15
3.77
3.07
2.22
1.43
0.83
0.45
0.11
-0.40
-1.28
-2.59
-4.19
-5.85
-7.31
-8.48
-9.42
-10.36
-11.56
-13.25
-15.51
-18.28
-21.29
-24.07
-26.02
-26.58
-25.34
-22.31
-17.87
-12.70
-7.52
-2.85
1.09
4.36
7.11
9.48
11.51
13.19
14.53
15.59
16.49
17.28
17.98
18.47
18.63
18.35
17.59
16.44
14.99
13.41
11.87
10.51
9.39
8.49
7.65
6.61
5.14
3.14
0.74
-1.73
-3.87
-5.38
-6.19
-6.50
-6.67
-7.03
-7.77
-8.83
-9.99
-10.83
-10.97
-10.09
-8.08
-5.12
-1.62
1.87
4.83
6.92
8.12
8.57
8.56
8.32
8.01
7.68
7.39
7.17
7.08
7.15
7.34
7.55
7.73
7.85
7.94
8.02
8.06
7.95
7.56
6.80
5.64
4.17
2.50
0.74
-1.02
-2.74
-4.33
-5.73
-6.94
-8.00
-9.05
-10.27
-11.80
-13.68
-15.87
-18.31
-20.94
-23.75
-26.68
-29.49
-31.74
-32.82
-32.15
-29.44
-24.88
-19.06
-12.86
-7.12
-2.39
1.20
3.82
5.84
7.67
9.60
11.81
14.28
16.85
19.23
21.06
22.04
22.09
21.35
20.18
19.01
18.12
17.52
16.97
16.05
14.36
11.76
8.38
4.64
1.06
-1.91
-4.02
-5.27
-5.78
-5.76
-5.45
-5.06
-4.81
-4.86
-5.28
-6.03
-6.96
-7.87
-8.56
-8.99
-9.24
-9.50
-10.00
-10.82
-11.84
-12.67
-12.78
-11.62
-8.92
-4.80
0.20
5.24
9.56
12.67
14.55
15.55
16.22
17.00
18.09
19.42
20.78
21.93
22.75
23.20
23.34
23.21
22.81
22.14
21.19
20.02
18.72
17.45
16.27
15.23
14.29
13.39
12.46
11.48
10.44
9.31
8.13
6.91
5.71
4.59
3.57
2.62
1.65
0.57
-0.69
-2.10
-3.61
-5.11
-6.54
-7.84
-9.04
-10.19
-11.38
-12.67
-14.13
-15.79
-17.59
-19.32
-20.60
-20.98
-20.04
-17.56
-13.72
-9.05
-4.29
-0.15
2.92
4.86
5.92
6.45
6.76
7.00
7.20
7.35
7.47
7.62
7.83
8.13
8.44
8.65
8.67
8.46
8.00
7.36
6.60
5.79
4.99
4.23
3.54
2.90
2.30
1.67
0.99
0.24
-0.57
-1.41
-2.25
-3.13
-4.22
-5.68
-7.68
-10.20
-13.03
-15.80
-18.15
-19.87
-20.94
-21.54
-21.91
-22.26
-22.73
-23.34
-24.03
-24.57
-24.59
-23.59
-21.15
-17.12
-11.76
-5.71
0.18
5.17
8.89
11.39
13.06
14.43
16.00
18.01
20.50
23.23
25.80
27.77
28.79
28.73
27.66
25.88
23.71
21.41
19.14
16.97
14.92
13.01
11.27
9.72
8.36
7.12
5.93
4.73
3.48
2.13
0.68
-0.83
-2.34
-3.76
-5.03
-6.18
-7.30
-8.55
-10.03
-11.81
-13.86
-16.12
-18.50
-20.86
-22.95
-24.39
-24.73
-23.65
-21.07
-17.30
-12.92
-8.62
-4.92
-2.07
0.02
1.57
2.83
3.97
5.07
6.15
7.24
8.33
9.38
10.30
10.95
11.24
11.10
10.59
9.81
8.88
7.93
6.99
6.06
5.11
4.10
2.99
1.77
0.47
-0.77
-1.84
-2.62
-3.09
-3.39
-3.76
-4.45
-5.60
-7.16
-8.91
-10.55
-11.86
-12.81
-13.53
-14.30
-15.36
-16.84
-18.68
-20.60
-22.15
-22.79
-22.05
-19.70
-15.87
-11.02
-5.85
-1.05
2.92
5.88
7.93
9.33
10.32
11.08
11.67
12.11
12.41
12.60
12.71
12.78
12.77
12.64
12.32
11.73
10.90
9.89
8.85
7.98
7.41
7.16
7.08
6.90
6.33
5.21
3.55
1.56
-0.45
-2.18
-3.46
-4.27
-4.73
-5.00
-5.21
-5.47
-5.85
-6.39
-7.12
-8.03
-9.07
-10.17
-11.25
-12.30
-13.39
-14.62
-16.09
-17.82
-19.62
-21.16
-21.92
-21.45
-19.46
-15.98
-11.43
-6.43
-1.68
2.28
5.21
7.17
8.43
9.30
10.05
10.81
11.61
12.39
13.07
13.59
13.91
13.99
13.84
13.47
12.90
12.20
11.48
10.84
10.40
10.17
10.12
10.11
10.01
9.72
9.24
8.65
8.06
7.52
7.01
6.41
5.56
4.37
2.88
1.24
-0.32
-1.62
-2.56
-3.23
-3.80
-4.52
-5.55
-6.91
-8.45
-9.94
-11.14
-11.93
-12.33
-12.50
-12.66
-12.99
-13.63
-14.59
-15.76
-16.80
-17.27
-16.68
-14.65
-11.17
-6.55
-1.45
3.45
7.59
10.74
12.99
14.59
15.84
16.89
17.77
18.39
18.68
18.61
18.26
17.78
17.33
17.01
16.84
16.72
16.59
16.43
16.27
16.19
16.14
16.00
15.58
14.72
13.41
11.78
10.06
8.46
7.06
5.80
4.53
3.09
1.38
-0.56
-2.60
-4.57
-6.32
-7.80
-9.10
-10.34
-11.69
-13.18
-14.76
-16.30
-17.69
-18.93
-20.07
-21.25
-22.56
-24.01
-25.61
-27.32
-29.04
-30.56
-31.55
-31.58
-30.28
-27.53
-23.56
-18.89
-14.10
-9.66
-5.75
-2.34
0.66
3.25
5.37
6.95
8.01
8.73
9.36
10.06
10.85
11.63
12.19
12.39
12.15
11.54
10.68
9.77
8.97
8.41
8.08
7.88
7.60
7.06
6.14
4.94
3.69
2.66
2.04
1.84
1.83
1.68
1.10
-0.06
-1.72
-3.66
-5.57
-7.24
-8.62
-9.76
-10.81
-11.88
-13.04
-14.33
-15.74
-17.15
-18.36
-19.00
-18.66
-17.06
-14.15
-10.24
-5.90
-1.75
1.73
4.35
6.18
7.47
8.44
9.24
9.90
10.43
10.86
11.26
11.69
12.16
12.60
12.85
12.77
12.31
11.55
10.66
9.79
9.01
8.24
7.34
6.20
4.82
3.31
1.84
0.53
-0.61
-1.65
-2.69
-3.79
-4.94
-6.03
-6.99
-7.86
-8.81
-10.09
-11.98
-14.62
-17.89
-21.40
-24.53
-26.53
-26.78
-24.98
-21.30
-16.29
-10.75
-5.47
-1.01
2.41
4.84
6.54
7.80
8.84
9.83
10.86
12.01
13.26
14.51
15.59
16.26
16.36
15.86
14.89
13.68
12.49
11.46
10.56
9.64
8.55
7.25
5.85
4.52
3.38
2.38
1.31
-0.10
-2.00
-4.34
-6.88
-9.36
-11.56
-13.43
-15.03
-16.42
-17.69
-18.88
-20.07
-21.35
-22.75
-24.16
-25.26
-25.57
-24.64
-22.24
-18.46
-13.75
-8.72
-3.98
0.09
3.36
5.95
8.09
10.05
12.00
14.01
16.05
17.99
19.64
20.81
21.34
21.21
20.49
19.40
18.20
17.11
16.25
15.65
15.21
14.79
14.21
13.37
12.22
10.83
9.31
7.80
6.45
5.29
4.28
3.33
2.25
0.93
-0.70
-2.60
-4.60
-6.48
-8.05
-9.23
-10.10
-10.93
-12.05
-13.76
-16.11
-18.86
-21.45
-23.22
-23.56
-22.16
-19.16
-15.02
-10.43
-6.03
-2.25
0.73
2.96
4.58
5.78
6.73
7.58
8.50
9.58
10.81
12.04
13.08
13.73
13.92
13.72
13.28
12.75
12.22
11.75
11.30
10.87
10.42
9.88
9.19
8.28
7.17
5.97
4.81
3.79
2.92
2.14
1.32
0.38
-0.73
-2.03
-3.53
-5.28
-7.29
-9.50
-11.81
-13.97
-15.63
-16.40
-15.90
-13.92
-10.50
-6.00
-1.03
3.69
7.63
10.56
12.59
14.07
15.33
16.60
17.92
19.20
20.29
21.07
21.44
21.26
20.38
18.68
16.13
12.88
9.22
5.56
2.23
-0.51
-2.61
-4.11
-5.11
-5.70
-5.98
-6.07
-6.14
-6.44
-7.23
-8.71
-10.93
-13.73
-16.75
-19.54
-21.71
-22.96
-23.21
-22.54
-21.17
-19.37
-17.47
-15.74
-14.40
-13.47
-12.76
-11.89
-10.49
-8.34
-5.60
-2.74
-0.42
0.78
0.68
-0.42
-1.85
-2.81
-2.69
-1.28
1.20
4.24
7.28
9.89
11.88
13.28
14.26
15.01
15.62
16.13
16.50
16.69
16.62
16.21
15.35
13.94
11.91
9.31
6.40
3.56
1.26
-0.11
-0.36
0.34
1.60
2.88
3.69
3.75
3.00
1.56
-0.38
-2.64
-5.09
-7.62
-10.15
-12.52
-14.61
-16.35
-17.74
-18.89
-19.89
-20.67
-20.97
-20.36
-18.48
-15.22
-10.86
-6.04
-1.48
2.26
5.01
6.99
8.61
10.22
11.97
13.75
15.32
16.49
17.20
17.58
17.80
18.00
18.17
18.18
17.82
16.97
15.67
14.10
12.53
11.15
10.02
9.06
8.13
7.15
6.14
5.19
4.37
3.66
2.96
2.14
1.11
-0.14
-1.58
-3.15
-4.87
-6.79
-8.93
-11.22
-13.47
-15.41
-16.84
-17.76
-18.37
-19.05
-20.15
-21.79
-23.84
-25.81
-27.11
-27.13
-25.55
-22.36
-17.91
-12.82
-7.74
-3.21
0.50
3.37
5.61
7.48
9.15
10.68
12.06
13.25
14.21
14.96
15.50
15.78
15.75
15.34
14.52
13.33
11.91
10.46
9.19
8.25
7.68
7.35
7.05
6.54
5.69
4.46
2.98
1.44
-0.01
-1.34
-2.62
-4.00
-5.59
-7.38
-9.28
-11.13
-12.84
-14.32
-15.62
-16.82
-18.06
-19.44
-21.08
-23.05
-25.38
-27.94
-30.45
-32.42
-33.23
-32.38
-29.59
-25.03
-19.23
-12.96
-6.99
-1.83
2.30
5.52
8.06
10.18
12.06
13.78
15.35
16.74
17.92
18.86
19.52
19.89
19.99
19.85
19.52
19.03
18.39
17.58
16.58
15.41
14.12
12.80
11.55
10.45
9.52
8.69
7.76
6.56
4.93
2.85
0.46
-1.98
-4.20
-6.01
-7.35
-8.36
-9.26
-10.33
-11.81
-13.81
-16.32
-19.07
-21.64
-23.46
-24.06
-23.16
-20.83
-17.47
-13.63
-9.89
-6.64
-4.00
-1.94
-0.29
1.11
2.35
3.45
4.39
5.08
5.44
5.40
4.93
4.06
2.89
1.54
0.10
-1.35
-2.76
-4.05
-5.05
-5.54
-5.36
-4.59
-3.57
-2.98
-3.56
-5.90
-10.16
-15.93
-22.40
-28.54
-33.49
-36.74
-38.20
-38.10
-36.77
-34.56
-31.86
-29.11
-26.87
-25.66
-25.68
-26.64
-27.68
-27.64
-25.47
-20.70
-13.68
-5.33
3.15
10.86
17.34
22.54
26.56
29.33
30.62
30.13
27.91
24.48
20.88
18.31
17.73
19.50
23.38
28.63
34.31
39.59
43.89
46.96
48.87
49.95
50.74
51.73
53.18
54.86
56.10
55.99
53.78
49.22
42.61
34.61
25.83
16.61
6.99
-3.14
-13.75
-24.61
-35.36
-45.69
-55.32
-63.96
-71.11
-76.06
-78.05
-76.65
-72.02
-64.99
-56.73
-48.42
-40.89
-34.49
-29.20
-24.81
-21.04
-17.63
-14.33
-10.90
-7.22
-3.28
0.74
4.55
7.88
10.56
12.60
14.19
15.57
16.95
18.40
19.81
20.98
21.71
21.93
21.67
21.14
20.53
19.95
19.40
18.74
17.84
16.58
15.00
13.24
11.50
9.98
8.76
7.80
6.94
5.95
4.60
2.74
0.29
-2.60
-5.64
-8.32
-10.08
-10.45
-9.20
-6.49
-2.79
1.26
5.08
8.29
10.77
12.60
13.90
14.79
15.36
15.74
16.05
16.47
17.10
17.93
18.81
19.52
19.84
19.65
18.99
18.04
17.01
16.06
15.28
14.65
14.11
13.58
12.97
12.23
11.33
10.28
9.14
8.02
7.00
6.07
5.13
4.01
2.59
0.90
-0.86
-2.40
-3.50
-4.09
-4.36
-4.65
-5.32
-6.60
-8.49
-10.74
-12.88
-14.33
-14.55
-13.29
-10.59
-6.93
-3.03
0.29
2.41
3.06
2.42
1.03
-0.44
-1.34
-1.32
-0.34
1.31
3.17
4.80
5.88
6.29
6.13
5.60
4.90
4.17
3.46
2.75
1.98
1.14
0.30
-0.32
-0.42
0.37
2.30
5.42
9.50
14.09
18.62
22.64
25.94
28.59
30.86
32.97
34.91
36.40
36.92
36.06
33.78
30.61
27.67
26.34
27.79
32.60
40.49
50.41
60.73
69.68
75.59
77.18
73.77
65.49
53.34
39.21
25.32
13.54
4.65
-1.92
-7.64
-13.92
-21.25
-28.79
-34.93
-38.31
-38.63
-36.93
-34.88
-33.85
-34.14
-34.99
-35.21
-33.98
-31.37
-28.15
-25.26
-23.16
-21.69
-20.23
-18.18
-15.39
-12.29
-9.68
-8.35
-8.71
-10.63
-13.57
-16.78
-19.61
-21.57
-22.43
-22.17
-20.86
-18.67
-15.82
-12.60
-9.31
-6.24
-3.63
-1.62
-0.20
0.72
1.36
1.95
2.70
3.66
4.75
5.76
6.44
6.67
6.41
5.77
4.87
3.85
2.77
1.67
0.60
-0.42
-1.38
-2.28
-3.21
-4.23
-5.41
-6.72
-8.11
-9.45
-10.64
-11.62
-12.38
-12.95
-13.42
-13.87
-14.40
-15.10
-16.07
-17.33
-18.91
-20.70
-22.47
-23.84
-24.37
-23.65
-21.55
-18.24
-14.22
-10.12
-6.54
-3.79
-1.89
-0.62
0.27
0.98
1.56
1.99
2.25
2.35
2.42
2.57
2.92
3.47
4.13
4.69
4.90
4.60
3.76
2.56
1.28
0.19
-0.59
-1.14
-1.62
-2.22
-3.01
-3.95
-4.89
-5.71
-6.33
-6.78
-7.11
-7.39
-7.70
-8.17
-8.93
-10.13
-11.83
-13.87
-15.85
-17.23
-17.48
-16.34
-13.94
-10.74
-7.40
-4.47
-2.21
-0.57
0.73
1.97
3.27
4.59
5.77
6.63
7.09
7.20
7.05
6.75
6.34
5.83
5.20
4.48
3.76
3.16
2.75
2.54
2.45
2.35
2.13
1.74
1.25
0.75
0.28
-0.20
-0.76
-1.51
-2.42
-3.39
-4.25
-4.86
-5.20
-5.39
-5.63
-6.12
-7.01
-8.31
-9.96
-11.75
-13.37
-14.41
-14.47
-13.30
-10.91
-7.69
-4.21
-1.07
1.31
2.85
3.71
4.21
4.63
5.11
5.70
6.35
6.99
7.55
7.98
8.22
8.27
8.14
7.90
7.60
7.29
6.99
6.74
6.56
6.45
6.40
6.34
6.16
5.75
5.07
4.13
3.02
1.90
0.91
0.12
-0.45
-0.92
-1.46
-2.21
-3.24
-4.48
-5.75
-6.82
-7.53
-7.88
-8.04
-8.26
-8.84
-9.93
-11.57
-13.57
-15.55
-17.01
-17.45
-16.53
-14.26
-10.97
-7.24
-3.68
-0.72
1.46
2.91
3.81
4.34
4.68
4.96
5.33
5.89
6.64
7.49
8.25
8.76
8.92
8.82
8.57
8.29
8.04
7.79
7.51
7.17
6.77
6.34
5.89
5.40
4.85
4.21
3.52
2.81
2.09
1.40
0.75
0.11
-0.52
-1.14
-1.76
-2.40
-3.07
-3.75
-4.41
-5.00
-5.44
-5.72
-5.87
-6.04
-6.46
-7.38
-8.97
-11.19
-13.71
-15.92
-17.07
-16.56
-14.13
-10.07
-5.10
-0.19
3.77
6.28
7.32
7.30
6.81
6.36
6.25
6.51
7.00
7.58
8.12
8.51
8.59
8.17
7.03
5.10
2.51
-0.39
-3.18
-5.52
-7.34
-8.79
-10.14
-11.64
-13.40
-15.39
-17.51
-19.64
-21.67
-23.55
-25.27
-26.85
-28.35
-29.87
-31.43
-33.02
-34.55
-35.87
-36.86
-37.43
-37.59
-37.45
-37.23
-37.28
-37.96
-39.47
-41.65
-43.98
-45.60
-45.67
-43.61
-39.37
-33.36
-26.32
-19.01
-12.09
-5.97
-0.85
3.25
6.45
8.99
11.10
13.02
14.86
16.71
18.62
20.69
23.05
25.77
28.78
31.86
34.67
36.91
38.38
39.03
38.90
38.05
36.47
34.14
31.09
27.52
23.82
20.51
18.12
17.00
17.22
18.63
20.97
23.97
27.45
31.26
35.19
38.94
42.11
44.40
45.74
46.30
46.40
46.31
46.05
45.46
44.40
42.88
41.13
39.33
37.31
34.43
29.75
22.50
12.59
0.83
-11.21
-21.81
-29.60
-33.98
-35.06
-33.50
-30.15
-25.84
-21.25
-16.85
-12.89
-9.38
-6.22
-3.27
-0.52
1.95
4.02
5.58
6.62
7.17
7.19
6.54
5.04
2.64
-0.56
-4.22
-7.96
-11.43
-14.35
-16.53
-17.70
-17.60
-15.99
-12.89
-8.65
-3.94
0.49
4.01
6.30
7.42
7.68
7.48
7.13
6.83
6.62
6.47
6.29
6.03
5.58
4.91
3.98
2.82
1.49
0.08
-1.33
-2.70
-3.99
-5.11
-5.91
-6.17
-5.57
-3.91
-1.12
2.61
6.89
11.17
14.89
17.57
18.94
18.95
17.79
15.82
13.47
11.12
8.98
7.08
5.33
3.56
1.70
-0.15
-1.64
-2.26
-1.51
0.82
4.51
8.84
12.80
15.44
16.16
14.94
12.24
8.77
5.19
1.95
-0.74
-2.87
-4.48
-5.60
-6.28
-6.61
-6.69
-6.64
-6.59
-6.62
-6.79
-7.11
-7.52
-7.94
-8.22
-8.31
-8.21
-8.06
-8.07
-8.41
-9.16
-10.26
-11.51
-12.72
-13.77
-14.67
-15.50
-16.34
-17.22
-18.05
-18.75
-19.22
-19.47
-19.60
-19.75
-20.06
-20.64
-21.59
-22.94
-24.66
-26.57
-28.35
-29.47
-29.40
-27.67
-24.15
-19.05
-12.96
-6.68
-0.98
3.63
6.99
9.27
10.89
12.29
13.74
15.37
17.06
18.64
19.97
20.98
21.69
22.09
22.14
21.78
21.00
19.88
18.63
17.44
16.43
15.59
14.80
13.88
12.77
11.51
10.21
9.01
7.97
7.06
6.16
5.09
3.71
1.96
-0.16
-2.51
-4.96
-7.31
-9.43
-11.20
-12.53
-13.38
-13.75
-13.71
-13.37
-12.93
-12.56
-12.34
-12.15
-11.66
-10.38
-7.84
-3.79
1.57
7.63
13.49
18.27
21.41
22.85
22.96
22.34
21.56
20.93
20.50
20.20
20.00
19.98
20.26
20.85
21.53
21.85
21.32
19.70
17.12
14.13
11.33
9.12
7.46
5.84
3.63
0.36
-4.07
-9.31
-14.79
-19.89
-24.09
-26.99
-28.36
-28.09
-26.23
-23.07
-19.08
-14.92
-11.23
-8.57
-7.28
-7.47
-9.11
-11.95
-15.57
-19.30
-22.35
-23.95
-23.60
-21.24
-17.34
-12.70
-8.20
-4.48
-1.80
-0.05
1.07
1.86
2.46
2.88
3.11
3.20
3.29
3.57
4.18
5.12
6.18
7.08
7.53
7.39
6.73
5.84
5.08
4.74
4.93
5.52
6.26
6.87
7.18
7.18
6.99
6.76
6.49
6.09
5.35
4.10
2.37
0.32
-1.72
-3.47
-4.78
-5.68
-6.38
-7.14
-8.22
-9.85
-12.13
-15.06
-18.38
-21.62
-24.14
-25.32
-24.79
-22.57
-19.12
-15.17
-11.45
-8.50
-6.46
-5.17
-4.24
-3.28
-2.01
-0.37
1.55
3.54
5.39
6.97
8.23
9.16
9.76
10.02
9.93
9.52
8.90
8.21
7.63
7.31
7.29
7.56
8.00
8.45
8.74
8.72
8.32
7.56
6.56
5.49
4.47
3.51
2.57
1.54
0.32
-1.12
-2.76
-4.53
-6.31
-7.98
-9.43
-10.56
-11.39
-12.02
-12.65
-13.50
-14.78
-16.63
-19.06
-21.90
-24.73
-26.95
-27.82
-26.75
-23.48
-18.32
-11.99
-5.45
0.47
5.33
9.09
11.96
14.22
16.02
17.41
18.40
19.03
19.44
19.75
20.05
20.32
20.48
20.44
20.18
19.77
19.35
19.05
18.96
19.07
19.32
19.62
19.88
20.03
19.97
19.62
18.85
17.57
15.77
13.57
11.19
8.88
6.85
5.19
3.86
2.76
1.75
0.69
-0.50
-1.87
-3.36
-4.84
-6.14
-7.13
-7.81
-8.37
-9.08
-10.25
-12.11
-14.66
-17.67
-20.60
-22.74
-23.35
-21.93
-18.40
-13.21
-7.25
-1.53
3.12
6.31
8.10
8.85
9.00
8.93
8.86
8.91
9.13
9.56
10.12
10.70
11.15
11.29
11.05
10.41
9.46
8.35
7.26
6.37
5.82
5.63
5.71
5.83
5.76
5.31
4.44
3.26
1.98
0.79
-0.20
-1.04
-1.91
-3.01
-4.54
-6.55
-8.97
-11.58
-14.15
-16.44
-18.29
-19.69
-20.77
-21.82
-23.16
-25.01
-27.34
-29.72
-31.37
-31.42
-29.27
-24.87
-18.82
-12.21
-6.16
-1.46
1.64
3.42
4.39
5.01
5.51
5.90
6.08
6.02
5.84
5.72
5.80
6.12
6.56
6.95
7.13
7.05
6.76
6.39
6.05
5.79
5.63
5.54
5.48
5.43
5.35
5.20
4.95
4.59
4.13
3.59
2.92
2.06
0.88
-0.68
-2.61
-4.79
-7.03
-9.15
-11.07
-12.82
-14.54
-16.39
-18.51
-20.96
-23.73
-26.67
-29.48
-31.66
-32.59
-31.71
-28.73
-23.85
-17.74
-11.39
-5.75
-1.48
1.30
2.89
3.85
4.75
5.92
7.47
9.29
11.19
12.99
14.56
15.79
16.59
16.93
16.76
16.13
15.13
13.91
12.62
11.41
10.40
9.68
9.26
9.12
9.12
9.12
8.95
8.51
7.76
6.75
5.57
4.29
2.99
1.70
0.45
-0.74
-1.88
-2.99
-4.12
-5.29
-6.52
-7.76
-9.02
-10.33
-11.78
-13.57
-15.88
-18.85
-22.44
-26.33
-29.88
-32.24
-32.59
-30.44
-25.88
-19.63
-12.79
-6.49
-1.52
1.88
3.99
5.31
6.35
7.43
8.62
9.89
11.17
12.48
13.83
15.22
16.54
17.57
18.12
18.07
17.51
16.63
15.74
15.05
14.62
14.33
14.00
13.48
12.71
11.74
10.65
9.49
8.27
6.93
5.46
3.89
2.29
0.76
-0.60
-1.75
-2.75
-3.66
-4.58
-5.59
-6.69
-7.84
-8.99
-10.02
-10.90
-11.64
-12.41
-13.45
-15.02
-17.25
-19.97
-22.64
-24.47
-24.64
-22.60
-18.36
-12.46
-5.83
0.48
5.70
9.45
11.79
13.07
13.73
14.15
14.55
15.05
15.66
16.35
17.06
17.72
18.24
18.56
18.60
18.35
17.88
17.25
16.55
15.83
15.15
14.51
13.91
13.33
12.69
11.89
10.84
9.49
7.87
6.09
4.32
2.74
1.44
0.45
-0.32
-1.04
-1.91
-3.07
-4.55
-6.28
-8.08
-9.71
-11.00
-11.89
-12.47
-12.96
-13.63
-14.78
-16.56
-18.95
-21.67
-24.19
-25.82
-25.89
-23.98
-20.04
-14.49
-8.07
-1.68
3.92
8.25
11.14
12.77
13.44
13.53
13.35
13.14
13.04
13.10
13.33
13.68
14.05
14.33
14.37
14.08
13.42
12.48
11.45
10.46
9.56
8.64
7.52
6.03
4.20
2.18
0.24
-1.44
-2.78
-3.88
-4.89
-5.94
-7.03
-8.04
-8.83
-9.31
-9.52
-9.62
-9.84
-10.46
-11.71
-13.73
-16.45
-19.54
-22.40
-24.25
-24.36
-22.26
-17.94
-11.95
-5.18
1.35
6.85
10.92
13.57
15.05
15.70
15.83
15.62
15.22
14.77
14.42
14.28
14.34
14.51
14.62
14.53
14.17
13.52
12.63
11.52
10.23
8.82
7.41
6.16
5.17
4.42
3.73
2.86
1.58
-0.15
-2.19
-4.22
-5.97
-7.28
-8.17
-8.84
-9.61
-10.75
-12.51
-14.94
-17.93
-21.07
-23.74
-25.17
-24.72
-22.07
-17.43
-11.49
-5.21
0.50
5.05
8.27
10.30
11.45
12.05
12.33
12.46
12.56
12.71
12.90
13.11
13.24
13.23
13.06
12.75
12.35
11.86
11.25
10.48
9.50
8.29
6.92
5.48
4.05
2.64
1.19
-0.43
-2.32
-4.55
-7.05
-9.68
-12.26
-14.66
-16.78
-18.53
-19.86
-20.75
-21.25
-21.56
-21.97
-22.77
-24.09
-25.70
-27.03
-27.30
-25.77
-22.11
-16.55
-9.89
-3.22
2.44
6.52
8.99
10.31
11.12
11.94
12.91
13.85
14.37
14.18
13.21
11.68
9.94
8.38
7.15
6.20
5.32
4.30
3.05
1.66
0.35
-0.71
-1.43
-1.91
-2.32
-2.81
-3.47
-4.25
-5.05
-5.80
-6.54
-7.43
-8.68
-10.51
-12.98
-16.06
-19.58
-23.36
-27.25
-31.18
-35.03
-38.56
-41.27
-42.50
-41.61
-38.30
-32.81
-25.90
-18.63
-11.95
-6.42
-2.06
1.49
4.65
7.69
10.57
13.08
14.97
16.14
16.68
16.77
16.57
16.16
15.53
14.63
13.47
12.11
10.68
9.31
8.05
6.87
5.63
4.22
2.54
0.64
-1.33
-3.18
-4.71
-5.85
-6.66
-7.28
-7.86
-8.47
-9.07
-9.60
-10.01
-10.25
-10.21
-9.64
-8.12
-5.22
-0.58
5.93
14.11
23.57
33.72
43.96
53.78
62.77
70.71
77.48
83.12
87.65
91.08
93.34
94.33
93.99
92.40
89.63
85.70
80.43
73.49
64.57
53.61
40.94
27.36
13.98
1.99
-7.72
-14.88
-19.96
-24.12
-28.73
-34.79
-42.38
-50.55
-57.60
-61.81
-62.17
-58.79
-52.79
-45.81
-39.39
-34.53
-31.50
-30.00
-29.35
-28.77
-27.57
-25.30
-21.82
-17.26
-11.99
-6.44
-1.05
3.76
7.68
10.49
12.10
12.62
12.30
11.49
10.50
9.48
8.42
7.17
5.55
3.44
0.86
-2.05
-5.07
-7.98
-10.65
-13.09
-15.37
-17.55
-19.55
-21.14
-21.93
-21.61
-20.02
-17.30
-13.89
-10.36
-7.33
-5.22
-4.20
-4.15
-4.79
-5.81
-6.98
-8.22
-9.59
-11.17
-12.97
-14.84
-16.55
-17.78
-18.19
-17.53
-15.65
-12.58
-8.56
-4.00
0.60
4.81
8.38
11.28
13.69
15.81
17.74
19.42
20.67
21.29
21.24
20.63
19.73
18.81
18.03
17.45
17.02
16.65
16.28
15.86
15.28
14.42
13.11
11.27
8.96
6.39
3.88
1.71
0.04
-1.10
-1.85
-2.38
-2.86
-3.48
-4.35
-5.50
-6.88
-8.33
-9.68
-10.80
-11.64
-12.29
-12.89
-13.60
-14.54
-15.67
-16.79
-17.57
-17.61
-16.54
-14.18
-10.60
-6.16
-1.35
3.35
7.59
11.17
14.06
16.25
17.76
18.66
19.05
19.08
18.90
18.60
18.25
17.85
17.43
17.02
16.64
16.24
15.70
14.90
13.76
12.36
10.85
9.46
8.36
7.61
7.17
6.92
6.77
6.65
6.58
6.65
6.97
7.66
8.78
10.31
12.21
14.42
16.91
19.59
22.23
24.45
25.75
25.68
23.97
20.72
16.26
11.11
5.83
0.97
-2.89
-5.11
-5.08
-2.43
2.63
9.25
15.95
20.98
22.80
20.52
14.16
4.70
-6.27
-16.91
-25.68
-31.70
-34.86
-35.68
-35.01
-33.63
-32.08
-30.57
-29.16
-27.87
-26.78
-25.95
-25.39
-24.93
-24.29
-23.21
-21.53
-19.26
-16.52
-13.47
-10.18
-6.65
-2.87
1.08
4.94
8.26
10.51
11.22
10.16
7.43
3.51
-0.92
-5.18
-8.74
-11.37
-13.13
-14.25
-15.02
-15.67
-16.39
-17.27
-18.24
-19.05
-19.29
-18.49
-16.37
-13.00
-8.93
-4.91
-1.68
0.33
1.15
1.09
0.58
-0.04
-0.61
-1.06
-1.36
-1.41
-1.14
-0.53
0.32
1.25
2.08
2.76
3.30
3.84
4.45
5.15
5.85
6.38
6.60
6.47
6.02
5.35
4.61
3.87
3.14
2.37
1.50
0.50
-0.56
-1.59
-2.46
-3.05
-3.36
-3.46
-3.46
-3.52
-3.78
-4.34
-5.22
-6.38
-7.62
-8.62
-9.00
-8.41
-6.75
-4.21
-1.26
1.56
3.83
5.40
6.36
6.92
7.31
7.59
7.73
7.65
7.31
6.74
6.07
5.39
4.73
4.07
3.35
2.52
1.61
0.68
-0.15
-0.82
-1.36
-1.87
-2.51
-3.40
-4.61
-6.04
-7.54
-8.95
-10.17
-11.18
-12.02
-12.78
-13.50
-14.19
-14.83
-15.43
-15.99
-16.56
-17.12
-17.54
-17.57
-16.93
-15.40
-12.98
-9.97
-6.83
-4.06
-2.01
-0.79
-0.37
-0.64
-1.50
-2.85
-4.49
-6.09
-7.24
-7.60
-7.05
-5.76
-4.01
-2.11
-0.23
1.58
3.31
4.85
6.03
6.71
6.85
6.63
6.32
6.18
6.31
6.63
6.90
6.86
6.36
5.39
4.10
2.75
1.57
0.71
0.16
-0.21
-0.60
-1.17
-2.03
-3.19
-4.59
-6.14
-7.67
-8.91
-9.52
-9.12
-7.53
-4.82
-1.37
2.21
5.34
7.64
9.04
9.76
10.16
10.58
11.27
12.26
13.46
14.65
15.59
16.10
16.14
15.78
15.14
14.39
13.61
12.87
12.15
11.48
10.89
10.42
10.12
9.99
10.03
10.15
10.25
10.17
9.70
8.61
6.70
3.86
0.16
-4.18
-8.76
-13.14
-16.88
-19.72
-21.56
-22.50
-22.73
-22.46
-21.88
-21.14
-20.33
-19.57
-19.03
-18.81
-18.95
-19.32
-19.58
-19.25
-17.89
-15.22
-11.33
-6.66
-1.85
2.43
5.73
7.98
9.40
10.41
11.36
12.44
13.63
14.80
15.77
16.47
16.90
17.13
17.25
17.25
17.09
16.72
16.15
15.46
14.81
14.32
14.05
13.97
13.97
13.92
13.69
13.22
12.47
11.43
10.18
8.80
7.39
6.03
4.71
3.36
1.90
0.28
-1.42
-3.05
-4.46
-5.53
-6.31
-6.95
-7.70
-8.77
-10.27
-12.23
-14.49
-16.84
-18.92
-20.36
-20.73
-19.76
-17.37
-13.79
-9.49
-5.10
-1.17
1.97
4.24
5.84
7.05
8.14
9.27
10.45
11.62
12.66
13.43
13.86
13.98
13.87
13.66
13.48
13.39
13.40
13.47
13.60
13.83
14.30
15.13
16.48
18.38
20.76
23.43
26.02
28.06
29.05
28.51
26.16
21.95
16.12
9.17
1.72
-5.61
-12.36
-18.31
-23.46
-28.02
-32.22
-36.27
-40.21
-43.91
-47.07
-49.29
-50.15
-49.33
-46.71
-42.51
-37.21
-31.47
-25.94
-21.07
-17.00
-13.59
-10.57
-7.66
-4.67
-1.55
1.65
4.78
7.71
10.28
12.41
14.03
15.16
15.87
16.26
16.45
16.59
16.76
17.00
17.23
17.33
17.13
16.53
15.50
14.15
12.63
11.10
9.59
8.09
6.52
4.85
3.11
1.34
-0.35
-1.95
-3.46
-4.90
-6.33
-7.76
-9.22
-10.79
-12.57
-14.66
-17.12
-19.83
-22.46
-24.53
-25.52
-25.13
-23.32
-20.40
-16.84
-13.13
-9.58
-6.27
-3.11
-0.00
3.04
5.92
8.46
10.53
12.05
13.03
13.51
13.55
13.21
12.62
11.90
11.21
10.63
10.17
9.75
9.27
8.61
7.73
6.59
5.26
3.78
2.30
0.96
-0.11
-0.86
-1.33
-1.63
-1.91
-2.31
-2.94
-3.86
-5.08
-6.53
-8.04
-9.44
-10.50
-11.12
-11.33
-11.29
-11.24
-11.44
-12.05
-13.11
-14.46
-15.78
-16.66
-16.69
-15.59
-13.36
-10.25
-6.66
-2.99
0.49
3.67
6.60
9.32
11.85
14.17
16.23
18.00
19.49
20.68
21.54
22.01
21.99
21.45
20.38
18.80
16.81
14.51
12.03
9.55
7.27
5.39
4.07
3.41
3.38
3.86
4.63
5.41
5.94
6.03
5.59
4.69
3.53
2.36
1.42
0.82
0.46
0.11
-0.53
-1.67
-3.35
-5.44
-7.68
-9.78
-11.52
-12.78
-13.65
-14.27
-14.88
-15.64
-16.57
-17.44
-17.85
-17.33
-15.55
-12.50
-8.45
-3.91
0.59
4.65
8.05
10.75
12.76
14.13
14.94
15.34
15.52
15.70
16.01
16.46
16.88
17.03
16.76
15.97
14.79
13.38
11.98
10.76
9.82
9.17
8.75
8.46
8.17
7.82
7.38
6.88
6.36
5.81
5.22
4.54
3.77
2.99
2.33
1.90
1.69
1.57
1.35
0.84
0.03
-0.95
-1.86
-2.50
-2.80
-2.84
-2.84
-3.07
-3.74
-5.00
-6.85
-9.11
-11.43
-13.32
-14.29
-13.97
-12.33
-9.63
-6.43
-3.36
-0.94
0.61
1.32
1.42
1.19
0.82
0.43
0.06
-0.27
-0.53
-0.69
-0.71
-0.62
-0.48
-0.36
-0.33
-0.40
-0.54
-0.69
-0.78
-0.80
-0.75
-0.65
-0.52
-0.37
-0.21
-0.04
0.10
0.19
0.18
0.06
-0.20
-0.62
-1.25
-2.11
-3.14
-4.24
-5.25
-6.11
-6.84
-7.62
-8.65
-10.08
-11.90
-13.96
-16.08
-18.01
-19.53
-20.37
-20.27
-19.00
-16.51
-13.02
-8.93
-4.74
-0.83
2.63
5.61
8.17
10.33
12.01
13.12
13.62
13.58
13.20
12.64
12.03
11.43
10.79
10.02
9.05
7.85
6.47
5.07
3.81
2.85
2.19
1.73
1.27
0.60
-0.37
-1.58
-2.86
-4.04
-4.98
-5.67
-6.21
-6.75
-7.43
-8.33
-9.46
-10.73
-12.04
-13.29
-14.43
-15.50
-16.64
-17.99
-19.71
-21.74
-23.85
-25.57
-26.32
-25.68
-23.53
-20.20
-16.30
-12.53
-9.40
-7.10
-5.48
-4.24
-3.12
-1.98
-0.85
0.21
1.18
2.17
3.25
4.43
5.60
6.56
7.17
7.44
7.50
7.57
7.81
8.28
8.91
9.62
10.34
10.99
11.47
11.62
11.23
10.19
8.56
6.63
4.76
3.22
2.10
1.26
0.45
-0.52
-1.76
-3.20
-4.68
-6.00
-6.97
-7.46
-7.46
-7.11
-6.71
-6.60
-7.04
-8.03
-9.27
-10.19
-10.22
-8.96
-6.36
-2.75
1.33
5.29
8.66
11.22
12.93
13.96
14.49
14.71
14.78
14.79
14.78
14.78
14.73
14.55
14.15
13.46
12.51
11.40
10.29
9.35
8.73
8.45
8.47
8.66
8.87
8.98
8.87
8.49
7.79
6.83
5.72
4.61
3.66
2.94
2.46
2.07
1.62
0.96
0.07
-0.94
-1.93
-2.74
-3.37
-3.88
-4.43
-5.13
-6.05
-7.19
-8.53
-9.97
-11.37
-12.44
-12.82
-12.16
-10.28
-7.31
-3.70
-0.08
2.96
5.07
6.21
6.63
6.67
6.59
6.56
6.60
6.64
6.62
6.47
6.21
5.87
5.49
5.14
4.85
4.64
4.49
4.34
4.17
3.92
3.62
3.30
3.05
2.89
2.84
2.89
2.99
3.12
3.28
3.49
3.75
4.02
4.24
4.34
4.25
3.92
3.32
2.42
1.27
-0.05
-1.41
-2.66
-3.73
-4.68
-5.66
-6.82
-8.16
-9.43
-10.14
-9.74
-7.81
-4.32
0.40
5.69
10.85
15.37
19.05
22.01
24.54
26.97
29.52
32.27
35.15
38.02
40.73
43.18
45.41
47.61
50.06
52.92
56.14
59.30
61.58
61.87
58.95
51.72
39.64
23.03
3.28
-17.22
-35.68
-49.66
-57.85
-60.40
-58.74
-54.92
-50.86
-47.89
-46.55
-46.82
-48.37
-50.68
-53.13
-55.06
-55.81
-54.96
-52.36
-48.22
-42.98
-37.21
-31.45
-26.20
-21.83
-18.48
-16.05
-14.25
-12.67
-11.00
-9.14
-7.19
-5.33
-3.71
-2.34
-1.11
0.12
1.42
2.70
3.79
4.50
4.73
4.46
3.82
2.98
2.14
1.42
0.89
0.53
0.28
0.07
-0.18
-0.51
-0.97
-1.60
-2.39
-3.31
-4.27
-5.10
-5.64
-5.77
-5.43
-4.71
-3.79
-2.92
-2.34
-2.17
-2.42
-2.88
-3.25
-3.16
-2.36
-0.82
1.26
3.48
5.44
6.87
7.77
8.30
8.72
9.23
9.90
10.66
11.44
12.12
12.66
12.98
12.99
12.62
11.91
11.01
10.17
9.63
9.50
9.67
9.88
9.84
9.36
8.45
7.23
5.85
4.36
2.70
0.74
-1.58
-4.15
-6.66
-8.75
-10.12
-10.68
-10.59
-10.20
-9.88
-9.90
-10.41
-11.41
-12.85
-14.60
-16.47
-18.13
-19.16
-19.16
-17.88
-15.36
-11.93
-8.08
-4.29
-0.81
2.37
5.55
9.07
13.21
17.95
23.05
28.02
32.33
35.55
37.47
38.16
37.92
37.25
36.66
36.62
37.51
39.57
42.93
47.59
53.40
60.01
66.81
72.92
77.28
78.89
76.99
71.32
62.14
50.22
36.71
23.03
10.70
1.12
-4.80
-6.87
-5.88
-3.47
-1.73
-2.67
-7.62
-16.98
-30.02
-45.16
-60.30
-73.30
-82.48
-86.99
-86.91
-83.06
-76.60
-68.61
-59.79
-50.50
-40.93
-31.35
-22.23
-14.16
-7.73
-3.28
-0.90
-0.29
-0.90
-1.94
-2.54
-1.96
0.24
4.11
9.27
14.95
20.16
23.82
25.04
23.32
18.76
12.15
4.69
-2.31
-7.86
-11.59
-13.67
-14.60
-14.84
-14.58
-13.74
-12.12
-9.65
-6.58
-3.47
-1.01
0.22
-0.06
-1.83
-4.74
-8.26
-11.82
-14.81
-16.71
-17.16
-16.03
-13.52
-10.19
-6.85
-4.43
-3.76
-5.34
-9.17
-14.71
-20.96
-26.70
-30.92
-33.10
-33.48
-32.92
-32.64
-33.73
-36.82
-41.96
-48.65
-56.00
-62.98
-68.61
-72.18
-73.36
-72.34
-69.78
-66.62
-63.82
-62.06
-61.44
-61.44
-60.99
-58.73
-53.48
-44.63
-32.46
-18.15
-3.47
9.79
20.39
27.94
32.88
36.05
38.32
40.20
41.81
42.97
43.42
43.04
41.86
40.04
37.81
35.35
32.76
30.11
27.42
24.72
22.10
19.58
17.18
14.86
12.55
10.29
8.27
6.83
6.34
7.03
8.86
11.45
14.25
16.69
18.42
19.38
19.78
19.91
20.06
20.35
20.73
21.05
21.19
21.09
20.84
20.63
20.67
21.07
21.83
22.76
23.59
24.05
24.02
23.59
23.05
22.78
23.07
24.02
25.44
26.98
28.17
28.56
27.81
25.63
21.92
16.70
10.22
2.86
-4.90
-12.64
-20.10
-27.12
-33.66
-39.60
-44.74
-48.75
-51.27
-52.03
-50.94
-48.19
-44.17
-39.45
-34.59
-30.04
-26.00
-22.41
-19.06
-15.73
-12.29
-8.77
-5.29
-1.96
1.18
4.09
6.77
9.12
11.06
12.53
13.56
14.30
14.94
15.63
16.42
17.22
17.84
18.11
17.92
17.25
16.21
14.96
13.67
12.51
11.52
10.68
9.82
8.82
7.55
6.07
4.50
3.08
1.98
1.29
0.94
0.72
0.39
-0.28
-1.42
-2.98
-4.75
-6.36
-7.35
-7.30
-5.96
-3.33
0.31
4.45
8.53
12.13
15.02
17.29
19.23
21.19
23.41
25.94
28.68
31.50
34.52
38.08
42.60
48.30
54.92
61.66
67.48
71.44
73.12
72.75
71.02
68.76
66.64
64.95
63.61
62.33
60.76
58.57
55.63
52.04
48.11
44.31
41.07
38.56
36.55
34.49
31.57
27.08
20.63
12.38
3.15
-5.69
-12.51
-16.04
-15.91
-13.19
-10.22
-9.99
-14.96
-25.97
-41.69
-58.94
-73.75
-82.66
-83.77
-77.22
-64.99
-50.16
-36.07
-25.49
-20.06
-19.99
-24.17
-30.53
-36.63
-40.32
-40.24
-36.16
-28.92
-20.26
-12.31
-7.03
-5.64
-8.27
-13.98
-21.10
-27.82
-32.83
-35.58
-36.44
-36.36
-36.64
-38.49
-42.75
-49.72
-59.06
-69.84
-80.64
-89.90
-96.13
-98.24
-95.75
-88.87
-78.43
-65.75
-52.29
-39.38
-27.88
-18.04
-9.62
-2.15
4.72
11.05
16.50
20.63
23.09
23.90
23.48
22.47
21.57
21.24
21.64
22.66
24.03
25.46
26.75
27.75
28.38
28.58
28.34
27.70
26.78
25.73
24.75
23.91
23.22
22.52
21.62
20.34
18.64
16.63
14.55
12.65
11.14
10.05
9.29
8.67
8.02
7.24
6.31
5.31
4.29
3.28
2.20
1.00
-0.38
-1.91
-3.48
-4.87
-5.80
-6.00
-5.22
-3.39
-0.60
2.80
6.38
9.68
12.41
14.51
16.16
17.59
19.01
20.49
21.93
23.17
24.07
24.59
24.80
24.81
24.79
24.80
24.80
24.56
23.73
21.96
18.96
14.72
9.44
3.51
-2.58
-8.33
-13.32
-17.16
-19.62
-20.62
-20.38
-19.38
-18.25
-17.49
-17.35
-17.70
-18.18
-18.36
-17.96
-16.93
-15.41
-13.68
-12.05
-10.80
-10.11
-10.02
-10.35
-10.77
-10.80
-10.02
-8.20
-5.42
-2.03
1.47
4.55
6.85
8.26
8.92
9.15
9.28
9.52
9.86
10.12
10.08
9.59
8.69
7.60
6.66
6.16
6.25
6.89
7.89
9.06
10.27
11.66
13.54
16.37
20.61
26.51
34.00
42.60
51.50
59.63
65.89
69.32
69.34
65.97
59.83
52.08
44.10
37.07
31.69
28.06
25.86
24.67
24.38
25.27
27.90
32.70
39.54
47.44
54.56
58.71
57.96
51.39
39.44
23.87
7.20
-8.05
-20.07
-28.13
-32.50
-34.00
-33.61
-32.23
-30.68
-29.80
-30.50
-33.46
-38.87
-46.16
-54.05
-60.95
-65.39
-66.49
-64.06
-58.58
-51.02
-42.65
-34.90
-29.13
-26.38
-27.02
-30.63
-36.02
-41.61
-45.84
-47.65
-46.67
-43.25
-38.31
-33.10
-28.93
-26.99
-28.04
-32.29
-39.15
-47.24
-54.61
-59.28
-59.75
-55.57
-47.42
-36.97
-26.29
-17.31
-11.26
-8.47
-8.35
-9.64
-10.70
-9.98
-6.40
0.37
9.77
20.44
30.56
38.25
42.11
41.57
37.18
30.41
23.35
18.03
15.84
17.16
21.38
27.13
32.75
36.59
37.25
33.76
25.75
13.69
-1.01
-16.14
-29.09
-37.57
-40.18
-36.80
-28.57
-17.58
-6.39
2.49
7.07
6.20
-0.24
-11.27
-25.03
-39.08
-50.88
-58.28
-60.03
-55.95
-46.97
-34.83
-21.57
-9.04
1.53
9.66
15.50
19.59
22.49
24.70
26.48
28.01
29.35
30.54
31.53
32.25
32.59
32.50
32.06
31.48
31.04
30.93
31.23
31.78
32.35
32.67
32.63
32.29
31.85
31.60
31.78
32.55
33.92
35.73
37.66
39.21
39.86
39.11
36.68
32.52
26.84
20.05
12.59
4.80
-3.03
-10.66
-17.77
-23.91
-28.52
-31.13
-31.54
-29.96
-27.01
-23.50
-20.26
-17.89
-16.73
-16.86
-18.16
-20.35
-22.95
-25.33
-26.84
-26.98
-25.59
-22.90
-19.43
-15.76
-12.34
-9.35
-6.79
-4.52
-2.44
-0.44
1.60
3.85
6.57
9.94
13.96
18.35
22.58
26.01
28.15
28.79
28.05
26.26
23.80
20.97
17.95
14.81
11.61
8.44
5.49
2.95
1.00
-0.27
-0.89
-1.08
-1.08
-1.15
-1.40
-1.84
-2.40
-3.00
-3.61
-4.23
-4.91
-5.68
-6.54
-7.46
-8.34
-8.99
-9.14
-8.42
-6.48
-3.11
1.61
7.28
13.10
18.01
20.84
20.57
16.73
9.60
0.22
-9.88
-19.20
-26.66
-31.84
-34.81
-35.82
-35.06
-32.52
-28.25
-22.49
-15.84
-9.14
-3.22
1.31
4.15
5.30
4.95
3.42
1.10
-1.59
-4.24
-6.51
-8.17
-9.14
-9.44
-9.15
-8.38
-7.24
-5.83
-4.27
-2.65
-1.09
0.32
1.40
1.98
1.94
1.35
0.61
0.38
1.45
4.40
9.39
15.98
23.29
30.32
36.30
40.96
44.56
47.73
51.20
55.54
60.95
67.24
73.80
79.66
83.67
84.75
82.12
75.63
65.83
53.88
41.24
29.34
19.21
11.41
6.07
3.03
1.93
2.30
3.46
4.54
4.56
2.65
-1.65
-8.26
-16.51
-25.44
-34.02
-41.52
-47.56
-52.15
-55.52
-58.01
-59.96
-61.68
-63.39
-65.24
-67.21
-69.19
-70.93
-72.15
-72.48
-71.57
-69.02
-64.53
-58.04
-49.85
-40.63
-31.31
-22.82
-15.85
-10.68
-7.21
-5.03
-3.68
-2.74
-1.91
-1.06
-0.14
0.82
1.72
2.51
3.16
3.73
4.36
5.26
6.65
8.69
11.42
14.74
18.40
22.01
25.16
27.47
28.71
28.87
28.16
26.95
25.65
24.51
23.56
22.57
21.16
19.01
16.00
12.33
8.34
4.46
0.99
-1.91
-4.19
-5.84
-6.85
-7.23
-7.01
-6.30
-5.22
-3.86
-2.29
-0.61
0.99
2.26
2.94
2.91
2.25
1.25
0.27
-0.42
-0.78
-0.97
-1.26
-1.83
-2.70
-3.72
-4.67
-5.46
-6.10
-6.77
-7.59
-8.58
-9.57
-10.31
-10.60
-10.44
-10.03
-9.64
-9.46
-9.52
-9.71
-9.85
-9.77
-9.38
-8.63
-7.53
-6.14
-4.65
-3.35
-2.59
-2.67
-3.66
-5.37
-7.35
-9.05
-9.99
-9.90
-8.74
-6.71
-4.18
-1.59
0.68
2.30
3.13
3.23
2.77
2.03
1.28
0.75
0.49
0.46
0.52
0.46
0.14
-0.52
-1.47
-2.56
-3.60
-4.41
-4.88
-5.01
-4.89
-4.69
-4.61
-4.86
-5.58
-6.82
-8.43
-10.15
-11.64
-12.64
-13.09
-13.23
-13.50
-14.36
-16.05
-18.35
-20.59
-21.91
-21.62
-19.47
-15.74
-11.10
-6.33
-2.05
1.37
3.83
5.43
6.36
6.87
7.19
7.54
8.04
8.67
9.35
9.92
10.28
10.45
10.49
10.51
10.61
10.80
10.98
11.03
10.88
10.50
10.00
9.49
9.04
8.59
7.92
6.77
4.97
2.56
-0.24
-3.07
-5.61
-7.69
-9.34
-10.74
-12.09
-13.57
-15.31
-17.36
-19.67
-22.08
-24.20
-25.56
-25.63
-24.09
-20.97
-16.75
-12.13
-7.81
-4.22
-1.40
0.91
3.03
5.18
7.39
9.53
11.50
13.24
14.74
15.99
16.92
17.44
17.46
17.04
16.34
15.58
14.94
14.46
14.03
13.46
12.52
11.08
9.17
6.96
4.73
2.74
1.19
0.11
-0.62
-1.26
-2.05
-3.19
-4.73
-6.61
-8.63
-10.54
-12.11
-13.18
-13.74
-13.92
-14.01
-14.39
-15.32
-16.85
-18.68
-20.21
-20.73
-19.69
-16.92
-12.71
-7.73
-2.76
1.60
5.06
7.66
9.66
11.35
12.91
14.40
15.78
16.98
17.95
18.65
19.06
19.21
19.13
18.83
18.33
17.63
16.75
15.70
14.58
13.49
12.51
11.70
11.05
10.45
9.81
8.98
7.90
6.54
4.97
3.33
1.78
0.48
-0.48
-1.17
-1.74
-2.41
-3.30
-4.41
-5.55
-6.49
-7.04
-7.14
-6.91
-6.60
-6.54
-7.08
-8.54
-11.08
-14.57
-18.51
-22.07
-24.32
-24.56
-22.64
-19.01
-14.57
-10.27
-6.76
-4.25
-2.52
-1.20
-0.00
1.16
2.17
2.90
3.24
3.24
3.02
2.75
2.60
2.70
3.15
4.01
5.30
6.99
8.96
11.05
13.03
14.70
15.87
16.46
16.54
16.30
15.96
15.71
15.56
15.40
15.02
14.29
13.19
11.89
10.62
9.55
8.71
7.99
7.18
6.10
4.68
2.93
0.98
-1.02
-2.90
-4.52
-5.77
-6.66
-7.37
-8.17
-9.38
-11.14
-13.23
-15.05
-15.72
-14.45
-10.86
-5.14
1.96
9.35
16.01
21.18
24.50
26.00
25.90
24.58
22.47
19.96
17.34
14.78
12.28
9.84
7.44
5.23
3.44
2.32
2.02
2.54
3.68
5.18
6.72
8.00
8.81
8.98
8.46
7.27
5.58
3.62
1.69
0.02
-1.23
-2.04
-2.47
-2.61
-2.58
-2.47
-2.41
-2.52
-2.92
-3.66
-4.67
-5.75
-6.66
-7.18
-7.24
-6.97
-6.59
-6.37
-6.51
-7.11
-8.09
-9.14
-9.70
-9.06
-6.57
-1.91
4.76
12.73
21.00
28.59
34.83
39.47
42.56
44.24
44.54
43.37
40.57
36.15
30.38
23.79
17.06
10.75
5.20
0.43
-3.75
-7.61
-11.28
-14.74
-17.81
-20.26
-21.97
-22.99
-23.53
-23.83
-24.09
-24.39
-24.68
-24.84
-24.77
-24.46
-24.03
-23.69
-23.67
-24.11
-24.98
-26.07
-27.08
-27.69
-27.77
-27.38
-26.82
-26.50
-26.83
-28.09
-30.27
-33.01
-35.64
-37.26
-37.05
-34.50
-29.60
-22.94
-15.47
-8.23
-2.01
2.84
6.37
8.91
10.80
12.26
13.35
13.98
14.08
13.64
12.80
11.77
10.75
9.77
8.72
7.38
5.63
3.56
1.46
-0.28
-1.35
-1.73
-1.68
-1.60
-1.80
-2.35
-3.01
-3.34
-2.91
-1.44
1.01
4.12
7.36
10.21
12.27
13.38
13.58
13.04
11.96
10.48
8.71
6.69
4.44
1.93
-0.93
-4.22
-7.84
-11.45
-14.43
-16.12
-16.00
-14.02
-10.52
-6.22
-1.85
2.01
5.10
7.40
8.98
9.92
10.29
10.17
9.71
9.16
8.74
8.54
8.53
8.47
8.11
7.24
5.80
3.92
1.86
-0.09
-1.65
-2.70
-3.20
-3.25
-3.00
-2.65
-2.42
-2.52
-3.09
-4.21
-5.85
-7.87
-10.12
-12.43
-14.72
-17.00
-19.35
-21.86
-24.53
-27.28
-29.93
-32.31
-34.39
-36.28
-38.29
-40.79
-44.12
-48.49
-53.88
-60.10
-66.77
-73.44
-79.58
-84.71
-88.43
-90.60
-91.37
-91.18
-90.65
-90.30
-90.38
-90.63
-90.35
-88.61
-84.50
-77.43
-67.26
-54.24
-38.85
-21.72
-3.52
14.99
32.93
49.34
63.30
74.19
81.77
86.23
88.05
87.81
85.96
82.80
78.56
73.50
68.00
62.56
57.64
53.55
50.27
47.56
45.00
42.27
39.30
36.27
33.55
31.45
30.08
29.37
29.09
29.07
29.21
29.48
29.78
29.86
29.39
28.05
25.72
22.54
18.84
14.97
11.20
7.80
5.06
3.42
3.31
5.04
8.48
13.12
18.15
22.81
26.56
29.22
30.90
31.83
32.23
32.29
32.10
31.78
31.39
30.91
30.25
29.28
27.89
26.06
23.89
21.51
19.06
16.62
14.21
11.86
9.58
7.42
5.49
3.91
2.76
2.11
1.92
2.16
2.75
3.61
4.67
5.82
6.91
7.79
8.32
8.44
8.20
7.75
7.21
6.68
6.13
5.44
4.39
2.78
0.43
-2.74
-6.68
-11.23
-16.01
-20.51
-24.18
-26.59
-27.59
-27.34
-26.30
-24.99
-23.83
-22.95
-22.25
-21.47
-20.32
-18.65
-16.40
-13.60
-10.34
-6.76
-2.99
0.78
4.43
7.97
11.50
15.23
19.29
23.63
27.92
31.69
34.44
35.89
36.02
35.09
33.45
31.48
29.40
27.31
25.19
22.98
20.59
17.92
14.97
11.83
8.71
5.91
3.61
1.77
0.12
-1.75
-4.12
-6.97
-9.96
-12.57
-14.37
-15.21
-15.17
-14.45
-13.26
-11.76
-10.18
-8.87
-8.18
-8.32
-9.12
-9.96
-10.01
-8.49
-5.09
-0.08
5.82
11.67
16.69
20.41
22.78
23.99
24.41
24.43
24.44
24.85
26.02
28.16
30.94
33.24
33.15
28.30
16.80
-1.98
-26.89
-55.12
-83.08
-107.31
-125.34
-135.89
-138.63
-133.78
-121.83
-103.62
-80.52
-54.54
-28.14
-3.76
16.72
32.36
43.19
49.94
53.52
54.63
53.46
49.95
44.26
37.50
32.02
30.95
37.03
51.09
71.30
93.36
111.94
122.60
123.22
114.11
97.16
74.52
47.96
19.10
-9.97
-36.23
-56.34
-67.85
-70.38
-65.90
-57.85
-49.66
-43.34
-39.17
-36.11
-32.89
-28.80
-23.93
-18.86
-14.10
-9.81
-5.85
-2.05
1.62
4.92
7.41
8.78
8.91
7.97
6.38
4.66
3.33
2.76
3.05
4.00
5.15
5.87
5.56
3.77
0.40
-4.32
-9.80
-15.25
-19.80
-22.79
-23.89
-23.24
-21.39
-19.04
-16.81
-15.00
-13.63
-12.49
-11.35
-10.03
-8.47
-6.67
-4.66
-2.49
-0.30
1.74
3.44
4.72
5.65
6.43
7.34
8.51
9.85
11.04
11.59
11.09
9.41
6.79
3.79
1.09
-0.87
-2.00
-2.63
-3.31
-4.60
-6.82
-10.03
-14.05
-18.58
-23.24
-27.60
-31.17
-33.49
-34.33
-33.87
-32.74
-31.80
-31.63
-32.16
-32.49
-31.25
-27.13
-19.54
-8.90
3.52
16.09
27.40
36.59
43.44
48.17
51.20
53.02
54.13
55.01
56.05
57.46
59.16
60.90
62.26
62.87
62.51
61.14
58.88
55.87
52.31
48.43
44.56
41.04
38.20
36.17
34.75
33.47
31.65
28.76
24.59
19.35
13.61
8.07
3.29
-0.43
-3.12
-5.05
-6.62
-8.24
-10.14
-12.25
-14.13
-14.99
-14.01
-10.66
-5.06
1.95
9.05
15.04
19.34
22.33
25.07
28.87
34.57
42.22
51.08
60.06
68.20
74.97
80.37
84.82
88.99
93.65
99.38
106.10
112.65
116.74
115.49
106.60
89.50
65.85
39.08
13.12
-9.03
-26.21
-38.90
-48.46
-56.20
-62.83
-68.55
-73.42
-77.62
-81.54
-85.51
-89.61
-93.69
-97.50
-100.92
-104.07
-107.20
-110.44
-113.58
-115.93
-116.55
-114.58
-109.62
-101.92
-92.36
-82.10
-72.18
-63.26
-55.48
-48.60
-42.27
-36.13
-30.00
-23.86
-17.87
-12.32
-7.60
-4.12
-2.18
-1.86
-2.93
-4.88
-7.11
-9.09
-10.49
-11.30
-11.75
-12.17
-12.84
-13.90
-15.28
-16.83
-18.32
-19.58
-20.55
-21.26
-21.82
-22.30
-22.75
-23.02
-22.89
-22.08
-20.47
-18.15
-15.44
-12.84
-10.78
-9.49
-8.92
-8.78
-8.61
-7.97
-6.52
-4.08
-0.67
3.45
7.80
11.71
14.53
15.76
15.29
13.44
10.82
8.14
5.97
4.55
3.85
3.64
3.67
3.75
3.81
3.86
3.88
3.79
3.48
2.77
1.58
-0.08
-2.02
-3.96
-5.62
-6.81
-7.55
-7.95
-8.13
-8.11
-7.82
-7.14
-6.07
-4.76
-3.46
-2.43
-1.77
-1.40
-1.18
-0.93
-0.62
-0.30
-0.14
-0.29
-0.84
-1.81
-3.06
-4.37
-5.40
-5.81
-5.34
-3.96
-1.86
0.54
2.81
4.63
5.89
6.70
7.29
7.85
8.51
9.29
10.11
10.86
11.41
11.73
11.84
11.83
11.84
11.99
12.35
12.93
13.69
14.55
15.39
16.13
16.65
16.86
16.67
16.05
15.03
13.70
12.15
10.48
8.71
6.81
4.72
2.38
-0.20
-2.92
-5.65
-8.22
-10.52
-12.53
-14.32
-16.02
-17.77
-19.58
-21.33
-22.70
-23.28
-22.74
-20.99
-18.27
-15.12
-12.15
-9.86
-8.45
-7.82
-7.72
-7.93
-8.28
-8.77
-9.37
-10.03
-10.61
-10.97
-11.02
-10.77
-10.32
-9.77
-9.20
-8.65
-8.16
-7.75
-7.48
-7.39
-7.50
-7.76
-8.09
-8.44
-8.78
-9.11
-9.50
-9.94
-10.42
-10.91
-11.32
-11.64
-11.85
-12.01
-12.20
-12.50
-12.98
-13.65
-14.47
-15.27
-15.81
-15.77
-14.88
-13.00
-10.18
-6.72
-3.05
0.34
3.07
4.98
6.11
6.72
7.15
7.72
8.61
9.88
11.38
12.90
14.21
15.16
15.74
16.08
16.34
16.70
17.23
17.90
18.55
18.98
18.99
18.52
17.70
16.82
16.19
16.00
16.06
15.81
14.42
11.15
5.62
-1.96
-10.90
-20.30
-29.43
-37.98
-46.09
-54.13
-62.35
-70.51
-77.79
-82.78
-83.78
-79.13
-67.50
-48.46
-22.85
6.95
37.15
63.27
81.38
89.35
87.67
79.35
68.79
60.19
