1505224916.00
64.000000
-0.00
-0.00
-0.00
-0.00
-0.00
-0.00
-0.00
-0.00
-0.00
-0.00
0.00
0.01
0.01
-0.00
-0.03
-0.05
-0.05
0.00
0.13
0.36
0.66
1.01
1.37
1.72
2.06
2.40
2.79
3.24
3.80
4.42
5.06
5.66
6.20
6.68
7.15
7.68
8.31
9.14
10.09
11.04
11.88
12.56
13.14
13.76
14.65
15.96
17.91
20.32
22.90
25.38
27.58
29.57
31.68
34.32
37.81
42.54
48.15
54.10
59.83
64.97
69.58
74.14
79.34
85.71
93.76
103.00
112.62
121.73
129.77
136.75
143.30
150.75
157.77
166.64
177.95
191.79
206.97
220.57
228.25
225.36
208.53
176.87
132.76
80.05
23.07
-34.94
-92.44
-149.16
-205.23
-260.37
-313.74
-363.87
-409.83
-450.91
-486.50
-515.74
-537.23
-549.22
-549.96
-538.37
-514.21
-478.67
-433.88
-382.45
-327.02
-269.84
-212.63
-156.66
-102.95
-52.37
-5.90
35.58
71.43
101.35
125.50
144.38
158.69
169.15
176.37
180.75
182.57
182.07
179.51
175.23
169.65
163.18
156.15
148.81
141.30
133.69
126.02
118.33
110.69
103.16
95.80
88.68
81.83
75.25
68.95
62.95
57.25
51.86
46.78
42.03
37.59
33.45
29.61
26.07
22.81
19.83
17.11
14.67
12.48
10.54
8.83
7.35
6.07
4.97
4.05
3.27
2.62
2.09
1.65
1.30
1.01
0.79
0.61
0.48
0.37
0.29
0.24
0.20
0.18
0.17
0.17
0.19
0.21
0.23
0.26
0.30
0.34
0.38
0.43
0.47
0.52
0.57
0.62
0.68
0.74
0.80
0.86
0.94
1.02
1.11
1.21
1.32
1.45
1.59
1.75
1.93
2.12
2.34
2.58
2.85
3.14
3.46
3.82
4.21
4.63
5.09
5.59
6.12
6.69
7.31
7.97
8.67
9.41
10.20
11.04
11.94
12.89
13.89
14.92
15.97
17.04
18.12
19.23
20.36
21.50
22.56
23.45
23.99
24.04
23.46
22.18
20.17
17.48
14.18
10.35
6.10
1.57
-3.10
-7.74
-12.13
-16.03
-19.24
-21.60
-23.11
-23.91
-24.23
-24.32
-24.38
-24.44
-24.38
-24.04
-23.27
-22.12
-20.82
-19.75
-19.26
-19.54
-20.43
-21.51
-22.27
-22.33
-21.64
-20.56
-19.74
-19.77
-21.00
-23.25
-25.92
-28.29
-29.79
-30.28
-30.09
-29.80
-30.11
-31.68
-35.04
-40.44
-47.44
-54.54
-59.18
-58.43
-50.16
-34.19
-12.76
10.15
30.30
44.69
52.48
54.67
53.19
49.84
45.66
41.07
36.34
31.88
28.25
25.87
24.63
23.89
22.81
20.64
17.07
12.26
6.69
0.91
-4.74
-10.19
-15.63
-21.25
-27.09
-32.79
-37.65
-40.74
-41.18
-38.53
-32.89
-24.96
-15.83
-6.62
1.84
9.24
15.71
21.61
27.25
32.59
37.28
40.84
42.85
43.31
42.60
41.32
40.04
39.03
38.22
37.20
35.52
32.81
28.98
24.19
18.72
12.93
7.11
1.41
-4.07
-9.35
-14.51
-19.76
-25.42
-31.74
-38.77
-46.09
-52.76
-57.56
-59.35
-57.46
-52.03
-43.92
-34.39
-24.65
-15.47
-7.01
0.94
8.70
16.23
23.18
28.95
33.07
35.42
36.24
36.08
35.46
34.66
33.74
32.58
31.03
29.00
26.54
23.68
20.49
17.02
13.35
9.59
5.86
2.18
-1.56
-5.56
-10.09
-15.34
-21.26
-27.52
-33.43
-38.04
-40.44
-40.00
-36.66
-30.90
-23.58
-15.60
-7.64
-0.06
6.96
13.26
18.60
22.66
25.24
26.35
26.30
25.59
24.75
24.13
23.85
23.73
23.41
22.53
20.80
18.22
15.03
11.62
8.34
5.34
2.41
-0.85
-4.93
-10.13
-16.40
-23.29
-30.01
-35.56
-38.97
-39.50
-36.91
-31.54
-24.23
-16.08
-8.08
-0.85
5.42
10.85
15.61
19.74
23.12
25.64
27.30
28.26
28.77
28.99
28.93
28.47
27.50
25.99
24.02
21.71
19.09
16.16
12.88
9.28
5.43
1.47
-2.51
-6.56
-10.89
-15.77
-21.45
-28.05
-35.54
-43.60
-51.60
-58.68
-63.75
-65.86
-64.39
-59.34
-51.35
-41.53
-31.18
-21.39
-12.82
-5.67
0.24
5.19
9.44
13.06
15.95
18.01
19.11
19.18
18.21
16.24
13.35
9.68
5.47
1.02
-3.48
-7.94
-12.51
-17.49
-23.24
-29.98
-37.56
-45.54
-53.16
-59.65
-64.37
-67.02
-67.67
-66.67
-64.48
-61.51
-57.94
-53.61
-48.00
-40.43
-30.23
-17.14
-1.53
15.51
32.40
47.49
59.59
68.30
74.01
77.52
79.61
80.75
81.02
80.31
78.60
76.10
73.23
70.39
67.78
65.28
62.63
59.55
55.98
52.02
47.87
43.57
39.08
34.30
29.16
23.70
18.06
12.32
6.50
0.54
-5.63
-12.02
-18.58
-25.12
-31.23
-36.24
-39.26
-39.47
-36.45
-30.48
-22.50
-13.80
-5.51
1.68
7.62
12.44
16.34
19.42
21.76
23.47
24.76
25.85
26.84
27.67
28.18
28.25
27.88
27.15
26.17
24.97
23.53
21.76
19.54
16.78
13.48
9.68
5.54
1.24
-3.03
-7.20
-11.32
-15.56
-20.16
-25.29
-31.00
-37.12
-43.23
-48.52
-51.97
-52.43
-49.08
-41.72
-30.92
-17.95
-4.32
8.72
20.51
31.02
40.57
49.40
57.47
64.40
69.81
73.50
75.66
76.71
77.05
76.92
76.21
74.69
72.16
68.56
64.01
58.76
53.17
47.63
42.57
38.32
35.09
32.89
31.48
30.46
29.28
27.36
24.11
19.09
12.07
3.14
-7.27
-18.42
-29.37
-39.17
-46.92
-51.98
-53.98
-52.94
-49.20
-43.41
-36.39
-28.98
-22.01
-16.17
-12.02
-9.92
-10.03
-12.16
-15.88
-20.56
-25.45
-29.93
-33.57
-36.19
-37.85
-38.83
-39.44
-39.96
-40.56
-41.30
-42.19
-43.25
-44.62
-46.51
-49.18
-52.77
-57.17
-62.00
-66.62
-70.32
-72.56
-73.12
-72.19
-70.40
-68.63
-67.73
-68.19
-69.85
-71.87
-72.88
-71.47
-66.71
-58.47
-47.45
-34.90
-22.09
-9.95
1.10
11.03
19.90
27.73
34.35
39.57
43.36
45.93
47.65
48.90
49.99
51.03
51.96
52.67
52.99
52.81
52.07
50.85
49.27
47.48
45.59
43.58
41.27
38.48
34.98
30.70
25.66
20.03
14.12
8.45
3.81
1.10
1.16
4.36
10.36
18.11
26.20
33.31
38.56
41.69
42.82
42.24
40.25
37.10
33.15
28.89
24.92
21.70
19.35
17.64
16.01
13.89
10.87
6.86
2.07
-3.11
-8.29
-13.14
-17.51
-21.40
-24.92
-28.26
-31.54
-34.87
-38.31
-41.82
-45.32
-48.64
-51.53
-53.65
-54.68
-54.38
-52.67
-49.66
-45.54
-40.62
-35.17
-29.45
-23.69
-18.06
-12.73
-7.82
-3.47
0.12
2.71
4.06
4.10
3.01
1.26
-0.48
-1.56
-1.48
-0.08
2.55
6.12
10.23
14.44
18.30
21.46
23.73
25.12
25.79
25.99
25.87
25.41
24.45
22.87
20.69
18.13
15.55
13.23
11.24
9.33
7.04
3.88
-0.52
-6.19
-12.81
-19.81
-26.61
-32.76
-37.96
-41.99
-44.63
-45.56
-44.44
-41.11
-35.78
-29.08
-22.02
-15.72
-11.05
-8.39
-7.58
-8.04
-9.06
-10.09
-10.84
-11.26
-11.51
-11.68
-11.82
-11.86
-11.78
-11.61
-11.51
-11.74
-12.58
-14.27
-16.89
-20.35
-24.33
-28.41
-32.05
-34.70
-35.87
-35.32
-33.01
-29.16
-24.24
-18.81
-13.45
-8.61
-4.57
-1.37
1.08
2.92
4.31
5.36
6.14
6.70
7.14
7.56
8.05
8.65
9.24
9.56
9.32
8.27
6.45
4.11
1.66
-0.57
-2.48
-4.25
-6.20
-8.62
-11.55
-14.82
-18.19
-21.45
-24.56
-27.47
-30.01
-31.74
-32.11
-30.66
-27.25
-22.21
-16.26
-10.19
-4.59
0.33
4.74
8.88
12.88
16.54
19.46
21.24
21.75
21.20
20.08
18.89
17.91
17.13
16.30
15.12
13.41
11.18
8.54
5.64
2.56
-0.70
-4.19
-7.91
-11.82
-15.95
-20.34
-25.18
-30.60
-36.60
-42.83
-48.61
-52.95
-54.90
-53.87
-49.84
-43.40
-35.53
-27.19
-19.05
-11.42
-4.24
2.63
9.21
15.33
20.73
25.15
28.55
31.07
32.99
34.53
35.77
36.66
37.07
36.94
36.24
35.02
33.22
30.72
27.37
23.14
18.21
12.90
7.61
2.58
-2.22
-7.02
-12.19
-18.06
-24.77
-32.20
-39.90
-47.11
-52.84
-56.07
-56.09
-52.67
-46.20
-37.55
-27.78
-17.86
-8.43
0.23
8.02
14.93
20.89
25.84
29.81
32.94
35.50
37.78
39.93
41.91
43.51
44.42
44.48
43.70
42.32
40.66
38.93
37.12
34.96
32.03
27.98
22.72
16.52
9.96
3.75
-1.54
-5.70
-8.96
-11.98
-15.50
-20.12
-26.06
-32.96
-39.96
-45.87
-49.46
-49.84
-46.76
-40.65
-32.51
-23.55
-14.77
-6.72
0.51
7.03
12.91
18.02
22.05
24.67
25.84
25.72
24.65
22.96
20.76
17.92
14.17
9.26
3.14
-3.90
-11.29
-18.39
-24.67
-29.95
-34.48
-38.86
-43.90
-50.25
-58.28
-67.72
-77.71
-86.84
-93.44
-96.03
-93.82
-87.02
-76.89
-65.29
-54.06
-44.35
-36.35
-29.47
-22.79
-15.71
-8.22
-0.82
5.84
11.40
15.98
20.01
23.87
27.50
30.36
31.78
31.35
29.24
26.16
22.93
20.07
17.49
14.61
10.68
5.15
-2.15
-11.02
-21.10
-31.85
-42.50
-51.86
-58.49
-60.96
-58.45
-51.05
-39.91
-26.75
-13.25
-0.55
11.02
21.69
31.78
41.41
50.25
57.92
64.17
69.11
73.12
76.56
79.47
81.49
82.00
80.49
76.84
71.42
64.99
58.45
52.48
47.38
42.94
38.53
33.40
26.86
18.49
8.25
-3.60
-16.57
-29.91
-42.56
-53.18
-60.34
-62.90
-60.44
-53.50
-43.42
-31.85
-20.05
-8.60
2.62
13.95
25.49
36.79
46.99
55.21
61.02
64.68
66.89
68.44
69.69
70.44
70.07
67.89
63.64
57.65
50.66
43.47
36.67
30.41
24.50
18.63
12.53
6.02
-1.12
-9.20
-18.56
-29.24
-40.78
-51.99
-61.19
-66.68
-67.24
-62.64
-53.61
-41.58
-28.18
-14.77
-2.19
9.22
19.42
28.36
35.89
41.86
46.24
49.22
51.14
52.34
52.89
52.53
50.80
47.27
41.88
35.04
27.51
20.05
13.12
6.65
0.15
-7.03
-15.42
-25.15
-35.86
-46.69
-56.41
-63.63
-67.09
-65.96
-60.16
-50.34
-37.81
-24.12
-10.61
1.88
13.05
23.00
31.89
39.72
46.36
51.61
55.41
57.85
59.16
59.50
58.92
57.34
54.68
51.00
46.55
41.71
36.75
31.71
26.27
19.91
12.10
2.56
-8.53
-20.45
-31.99
-41.64
-47.89
-49.64
-46.55
-39.13
-28.68
-16.83
-5.05
5.70
15.17
23.54
31.10
37.97
44.01
48.97
52.62
54.91
55.97
55.94
54.94
53.04
50.31
46.90
42.99
38.87
34.69
30.53
26.26
21.53
15.83
8.65
-0.31
-10.85
-22.07
-32.45
-40.26
-44.07
-43.28
-38.34
-30.49
-21.27
-11.90
-2.97
5.47
13.67
21.71
29.39
36.21
41.67
45.53
47.90
49.16
49.71
49.73
49.06
47.36
44.28
39.76
34.11
27.90
21.71
15.83
10.19
4.30
-2.45
-10.61
-20.42
-31.66
-43.56
-54.86
-64.00
-69.45
-70.22
-66.18
-58.09
-47.42
-35.77
-24.38
-13.84
-4.11
5.04
13.72
21.63
28.25
33.13
36.15
37.69
38.39
38.82
39.22
39.31
38.60
36.63
33.26
28.85
24.00
19.29
15.00
11.00
6.82
1.91
-4.22
-11.79
-20.69
-30.47
-40.33
-49.15
-55.65
-58.71
-57.67
-52.61
-44.29
-33.94
-22.87
-12.08
-2.16
6.68
14.39
20.90
26.02
29.63
31.71
32.49
32.37
31.83
31.16
30.40
29.27
27.38
24.38
20.23
15.12
9.55
4.00
-1.14
-5.72
-9.82
-13.65
-17.59
-21.97
-26.99
-32.45
-37.65
-41.40
-42.42
-39.77
-33.31
-23.83
-12.75
-1.56
8.70
17.70
25.62
32.77
39.17
44.48
48.23
50.18
50.54
49.97
49.19
48.67
48.34
47.65
45.91
42.65
37.89
32.17
26.28
20.93
16.47
12.77
9.29
5.38
0.39
-6.07
-14.05
-23.14
-32.47
-40.82
-46.80
-49.24
-47.55
-41.90
-33.27
-23.07
-12.72
-3.17
5.19
12.42
18.75
24.18
28.48
31.28
32.38
32.00
30.76
29.41
28.53
28.16
27.82
26.76
24.41
20.62
15.74
10.42
5.25
0.52
-3.93
-8.49
-13.67
-19.82
-26.99
-34.94
-43.08
-50.57
-56.44
-59.75
-59.93
-56.82
-50.88
-43.02
-34.30
-25.69
-17.79
-10.81
-4.74
0.47
4.77
8.04
10.23
11.46
12.12
12.68
13.52
14.73
16.02
16.84
16.61
14.99
12.04
8.15
3.91
-0.18
-3.90
-7.40
-11.11
-15.59
-21.24
-28.09
-35.73
-43.27
-49.50
-53.24
-53.61
-50.26
-43.52
-34.29
-23.78
-13.16
-3.26
5.47
12.94
19.21
24.44
28.69
32.12
34.89
37.20
39.14
40.54
41.03
40.07
37.32
32.73
26.73
20.01
13.31
7.17
1.76
-3.13
-7.98
-13.37
-19.70
-26.96
-34.56
-41.43
-46.27
-48.03
-46.30
-41.44
-34.50
-26.78
-19.44
-13.26
-8.55
-5.23
-3.07
-1.76
-0.99
-0.46
-0.01
0.45
0.82
0.90
0.44
-0.78
-2.86
-5.74
-9.18
-12.79
-16.12
-18.78
-20.66
-22.06
-23.57
-25.90
-29.40
-33.83
-38.27
-41.42
-41.98
-39.26
-33.30
-24.88
-15.17
-5.33
3.82
11.89
18.77
24.49
29.01
32.21
34.00
34.39
33.61
32.03
30.02
27.76
25.24
22.28
18.71
14.54
10.00
5.41
1.12
-2.75
-6.28
-9.79
-13.72
-18.43
-24.08
-30.44
-36.81
-42.12
-45.18
-45.12
-41.71
-35.52
-27.72
-19.65
-12.38
-6.42
-1.66
2.29
5.85
9.19
12.12
14.31
15.49
15.62
14.98
14.02
13.17
12.56
12.01
11.12
9.50
7.00
3.80
0.29
-3.08
-6.07
-8.73
-11.39
-14.49
-18.41
-23.35
-29.23
-35.70
-42.09
-47.49
-50.89
-51.40
-48.58
-42.67
-34.56
-25.53
-16.82
-9.31
-3.24
1.60
5.65
9.25
12.49
15.29
17.54
19.25
20.52
21.52
22.38
23.11
23.57
23.58
22.94
21.52
19.37
16.61
13.54
10.42
7.44
4.55
1.53
-1.93
-6.09
-11.06
-16.82
-23.27
-30.21
-37.24
-43.69
-48.58
-50.82
-49.67
-45.02
-37.61
-28.77
-19.96
-12.25
-6.00
-0.94
3.46
7.61
11.60
15.20
18.10
20.14
21.41
22.21
22.83
23.38
23.74
23.58
22.57
20.55
17.64
14.22
10.73
7.50
4.59
1.80
-1.17
-4.60
-8.62
-13.25
-18.42
-24.05
-29.97
-35.77
-40.78
-44.08
-44.82
-42.55
-37.46
-30.37
-22.37
-14.50
-7.40
-1.28
3.96
8.43
12.13
14.94
16.74
17.59
17.81
17.83
18.04
18.57
19.17
19.32
18.49
16.40
13.18
9.30
5.35
1.84
-1.08
-3.56
-5.97
-8.74
-12.20
-16.44
-21.27
-26.13
-30.17
-32.47
-32.36
-29.67
-24.81
-18.61
-11.98
-5.61
0.14
5.14
9.31
12.54
14.69
15.73
15.79
15.14
14.05
12.73
11.26
9.66
7.93
6.14
4.36
2.61
0.83
-1.15
-3.59
-6.79
-11.04
-16.42
-22.73
-29.36
-35.29
-39.30
-40.35
-37.92
-32.27
-24.41
-15.75
-7.67
-1.06
3.88
7.45
10.19
12.49
14.44
15.86
16.57
16.54
15.92
14.99
13.95
12.84
11.51
9.76
7.41
4.40
0.74
-3.52
-8.44
-14.12
-20.65
-27.89
-35.33
-41.99
-46.58
-47.94
-45.42
-39.22
-30.37
-20.40
-10.74
-2.34
4.54
10.12
14.78
18.77
22.11
24.68
26.34
27.10
27.06
26.37
25.20
23.64
21.70
19.38
16.61
13.35
9.59
5.31
0.47
-5.06
-11.44
-18.81
-26.98
-35.32
-42.67
-47.58
-48.84
-45.92
-39.26
-30.15
-20.20
-10.75
-2.48
4.63
11.03
17.08
22.79
27.82
31.67
34.02
34.94
34.80
34.17
33.48
32.91
32.26
31.15
29.18
26.20
22.40
18.23
14.13
10.35
6.77
2.99
-1.45
-6.94
-13.58
-21.25
-29.62
-38.10
-45.85
-51.76
-54.68
-53.76
-48.89
-40.72
-30.62
-20.10
-10.36
-1.95
5.14
11.20
16.46
20.96
24.59
27.31
29.30
30.93
32.50
34.06
35.25
35.49
34.22
31.26
26.91
21.84
16.78
12.26
8.39
4.91
1.35
-2.83
-8.05
-14.49
-21.93
-29.70
-36.70
-41.59
-43.22
-41.04
-35.26
-26.83
-17.11
-7.38
1.40
8.76
14.62
19.09
22.38
24.70
26.29
27.44
28.41
29.39
30.39
31.23
31.58
31.14
29.69
27.20
23.82
19.73
15.04
9.64
3.27
-4.37
-13.41
-23.57
-33.99
-43.28
-49.75
-51.99
-49.29
-42.03
-31.65
-20.12
-9.24
-0.05
7.34
13.46
18.95
24.10
28.78
32.65
35.52
37.54
39.09
40.40
41.38
41.48
40.12
36.90
31.99
26.02
19.77
13.80
8.25
2.88
-2.81
-9.28
-16.75
-25.06
-33.60
-41.32
-46.90
-49.08
-47.10
-41.03
-31.90
-21.32
-10.90
-1.69
6.13
13.01
19.55
26.00
32.13
37.30
40.93
42.79
43.09
42.34
41.10
39.71
38.26
36.60
34.53
31.92
28.78
25.30
21.69
18.11
14.50
10.57
5.92
0.09
-7.12
-15.67
-25.12
-34.72
-43.37
-49.87
-53.18
-52.71
-48.52
-41.39
-32.51
-23.11
-14.06
-5.73
1.91
9.02
15.59
21.36
25.92
28.98
30.57
31.06
30.99
30.77
30.48
29.83
28.36
25.71
21.91
17.38
12.74
8.57
5.11
2.21
-0.66
-4.17
-8.96
-15.45
-23.61
-32.84
-41.93
-49.28
-53.34
-53.11
-48.62
-40.83
-31.34
-21.70
-12.93
-5.29
1.46
7.64
13.32
18.17
21.78
23.91
24.75
24.78
24.52
24.20
23.67
22.44
20.03
16.24
11.20
5.33
-0.93
-7.29
-13.65
-20.08
-26.74
-33.87
-41.71
-50.50
-60.25
-70.54
-80.38
-88.35
-92.92
-92.93
-88.07
-78.95
-66.92
-53.55
-40.15
-27.47
-15.63
-4.48
6.10
15.96
24.77
32.23
38.31
43.36
47.67
51.19
53.36
53.32
50.57
45.55
39.72
34.99
32.82
33.47
35.83
38.13
38.87
37.47
34.34
30.22
25.52
19.98
13.06
4.59
-4.61
-12.78
-17.88
-18.55
-14.69
-7.61
0.56
7.80
12.90
15.87
17.67
19.71
23.20
28.66
35.71
43.27
50.05
54.97
57.67
58.49
58.24
57.68
57.22
56.80
56.16
55.07
53.54
51.62
49.24
45.96
41.08
33.91
24.24
12.39
-0.77
-14.16
-26.68
-37.39
-45.53
-50.58
-52.37
-51.18
-47.70
-42.81
-37.23
-31.35
-25.14
-18.45
-11.28
-4.00
2.74
8.29
12.34
15.00
16.70
17.79
18.39
18.37
17.48
15.59
12.82
9.45
5.76
1.89
-2.20
-6.65
-11.57
-17.04
-23.14
-29.94
-37.46
-45.48
-53.29
-59.74
-63.47
-63.35
-58.89
-50.56
-39.54
-27.42
-15.62
-5.00
4.21
12.36
19.85
26.85
33.07
38.00
41.23
42.77
43.17
43.15
43.24
43.37
42.91
41.11
37.52
32.37
26.44
20.67
15.59
11.08
6.48
0.96
-6.02
-14.41
-23.57
-32.47
-39.98
-45.18
-47.50
-46.78
-43.23
-37.33
-29.68
-20.90
-11.64
-2.47
6.08
13.52
19.50
23.81
26.49
27.83
28.36
28.62
28.96
29.42
29.73
29.47
28.28
26.11
23.16
19.78
16.25
12.65
8.81
4.39
-0.97
-7.52
-15.34
-24.29
-33.90
-43.29
-51.29
-56.61
-58.13
-55.38
-48.69
-39.20
-28.42
-17.79
-8.25
-0.13
6.65
12.30
16.91
20.52
23.18
25.15
26.80
28.47
30.24
31.86
32.85
32.81
31.53
29.16
26.01
22.46
18.78
15.07
11.14
6.61
0.94
-6.27
-14.94
-24.27
-32.77
-38.70
-40.62
-38.06
-31.74
-23.30
-14.61
-7.14
-1.43
2.74
6.01
8.90
11.49
13.53
14.69
14.94
14.63
14.23
13.97
13.58
12.40
9.83
5.69
0.48
-4.86
-9.39
-12.70
-15.02
-17.12
-19.96
-24.30
-30.45
-38.16
-46.59
-54.41
-60.00
-61.94
-59.44
-52.71
-42.97
-31.97
-21.39
-12.22
-4.66
1.69
7.38
12.63
17.23
20.74
22.83
23.60
23.61
23.60
24.11
25.16
26.23
26.52
25.36
22.59
18.63
14.24
10.17
6.75
3.78
0.71
-3.08
-7.91
-13.83
-20.65
-28.16
-36.10
-44.10
-51.46
-57.18
-60.23
-59.89
-56.07
-49.37
-40.77
-31.34
-21.85
-12.70
-4.12
3.69
10.39
15.63
19.23
21.36
22.50
23.26
24.08
25.11
26.03
26.33
25.50
23.35
20.10
16.27
12.45
8.98
5.84
2.71
-0.92
-5.43
-11.06
-17.77
-25.28
-33.04
-40.22
-45.73
-48.51
-47.72
-43.16
-35.34
-25.31
-14.30
-3.36
6.90
16.25
24.58
31.67
37.26
41.07
43.13
43.82
43.76
43.58
43.60
43.67
43.31
41.99
39.36
35.51
30.81
25.79
20.81
15.95
10.98
5.48
-0.92
-8.45
-17.06
-26.35
-35.57
-43.59
-49.16
-51.19
-49.21
-43.55
-35.27
-25.77
-16.26
-7.42
0.64
8.17
15.40
22.28
28.50
33.69
37.69
40.65
42.98
45.19
47.62
50.30
52.94
54.95
55.74
54.92
52.43
48.52
43.66
38.29
32.65
26.77
20.52
13.65
5.94
-2.83
-12.77
-23.80
-35.42
-46.64
-56.04
-62.20
-64.08
-61.51
-55.25
-46.72
-37.53
-28.92
-21.46
-15.07
-9.32
-3.70
1.98
7.59
12.79
17.27
20.91
23.77
26.01
27.66
28.59
28.57
27.53
25.64
23.36
21.18
19.54
18.62
18.48
19.10
20.51
22.73
25.68
29.07
32.42
35.31
37.57
39.53
41.99
45.96
52.36
61.61
73.45
86.86
100.26
111.94
120.49
125.09
125.70
122.84
117.43
110.40
102.58
94.45
86.25
77.89
69.10
59.46
48.52
35.95
21.71
6.16
-9.86
-25.28
-39.09
-50.67
-59.98
-67.45
-73.76
-79.49
-84.86
-89.70
-93.50
-95.73
-95.88
-93.71
-89.27
-82.86
-75.03
-66.44
-57.77
-49.60
-42.28
-35.97
-30.64
-26.20
-22.62
-19.98
-18.51
-18.45
-19.99
-23.10
-27.51
-32.80
-38.46
-44.02
-49.14
-53.64
-57.44
-60.59
-63.15
-65.19
-66.82
-68.15
-69.36
-70.65
-72.14
-73.72
-75.01
-75.37
-74.11
-70.74
-65.14
-57.61
-48.76
-39.22
-29.62
-20.42
-12.03
-4.89
0.64
4.29
6.01
6.02
4.75
2.72
0.37
-1.98
-4.12
-5.92
-7.26
-8.11
-8.64
-9.23
-10.53
-13.21
-17.73
-24.04
-31.52
-39.09
-45.39
-49.23
-49.80
-46.83
-40.63
-31.97
-21.94
-11.77
-2.56
5.00
10.75
15.11
18.77
22.40
26.36
30.53
34.50
37.86
40.52
42.79
45.30
48.60
52.84
57.52
61.55
63.58
62.44
57.66
49.80
40.49
32.13
27.04
26.76
31.42
39.77
49.84
59.69
67.86
73.54
76.57
77.70
78.68
81.95
89.77
102.72
118.36
131.28
134.60
122.69
93.90
51.69
3.54
-41.71
-76.99
-98.94
-108.25
-108.29
-103.27
-96.68
-90.56
-85.52
-81.46
-78.17
-75.88
-75.08
-76.06
-78.54
-81.53
-83.62
-83.75
-81.71
-78.32
-74.96
-72.78
-71.97
-71.63
-70.18
-66.24
-59.39
-50.31
-40.38
-30.87
-22.35
-14.63
-7.13
0.51
8.20
15.30
21.05
24.96
26.97
27.54
27.29
26.78
26.31
25.82
25.11
23.96
22.28
20.11
17.50
14.41
10.69
6.24
1.09
-4.55
-10.34
-16.04
-21.49
-26.58
-31.02
-34.23
-35.53
-34.34
-30.56
-24.59
-17.21
-9.32
-1.61
5.42
11.49
16.38
19.97
22.25
23.40
23.66
23.33
22.65
21.79
20.83
19.76
18.61
17.37
16.03
14.54
12.84
10.85
8.48
5.71
2.53
-1.05
-5.10
-9.83
-15.44
-22.06
-29.46
-36.97
-43.56
-48.16
-49.99
-48.87
-45.29
-40.16
-34.44
-28.81
-23.53
-18.50
-13.58
-8.71
-4.06
0.05
3.40
5.95
7.89
9.50
10.98
12.33
13.31
13.65
13.12
11.72
9.57
6.88
3.81
0.47
-3.08
-6.79
-10.68
-14.88
-19.72
-25.56
-32.66
-40.87
-49.43
-57.05
-62.19
-63.55
-60.48
-53.24
-42.92
-31.05
-19.05
-7.92
1.97
10.77
18.81
26.35
33.33
39.48
44.44
48.04
50.33
51.67
52.48
53.13
53.78
54.28
54.35
53.66
52.13
49.93
47.46
45.11
42.95
40.73
37.87
33.74
27.98
20.57
11.93
2.77
-6.07
-13.72
-19.39
-22.42
-22.46
-19.56
-14.25
-7.45
-0.21
6.55
12.26
16.71
19.91
21.95
22.92
22.94
22.24
21.19
20.22
19.66
19.50
19.46
19.00
17.64
15.14
11.71
7.83
4.08
0.84
-1.94
-4.71
-8.16
-12.89
-19.11
-26.46
-34.03
-40.53
-44.66
-45.48
-42.63
-36.48
-27.99
-18.40
-8.92
-0.32
7.08
13.35
18.70
23.21
26.75
29.06
30.01
29.70
28.53
27.03
25.59
24.26
22.77
20.67
17.64
13.75
9.38
5.01
1.06
-2.41
-5.59
-8.90
-12.66
-17.14
-22.41
-28.44
-35.14
-42.22
-49.06
-54.67
-57.89
-57.69
-53.69
-46.30
-36.67
-26.24
-16.26
-7.43
0.21
6.94
13.11
18.83
23.96
28.26
31.63
34.11
35.86
37.05
37.69
37.73
37.08
35.79
34.04
32.09
30.14
28.21
26.15
23.69
20.68
17.08
13.10
9.01
5.10
1.47
-1.99
-5.54
-9.55
-14.32
-19.96
-26.28
-32.71
-38.37
-42.15
-43.10
-40.72
-35.28
-27.71
-19.38
-11.55
-5.01
0.10
4.13
7.57
10.72
13.54
15.80
17.29
18.00
18.26
18.58
19.39
20.87
22.78
24.62
25.80
25.98
25.12
23.50
21.46
19.22
16.84
14.25
11.40
8.33
5.11
1.67
-2.30
-7.15
-13.11
-19.88
-26.61
-32.10
-35.19
-35.21
-32.15
-26.68
-19.84
-12.69
-6.02
-0.21
4.75
9.03
12.82
16.13
18.89
20.99
22.45
23.44
24.21
24.99
25.82
26.60
27.12
27.17
26.63
25.42
23.52
20.87
17.44
13.30
8.58
3.58
-1.41
-6.15
-10.53
-14.66
-18.85
-23.43
-28.56
-34.01
-39.05
-42.70
-43.94
-42.17
-37.43
-30.41
-22.23
-14.03
-6.62
-0.34
4.87
9.30
13.21
16.66
19.55
21.78
23.30
24.22
24.76
25.16
25.52
25.78
25.76
25.24
24.06
22.20
19.79
17.05
14.21
11.44
8.74
5.92
2.79
-0.82
-4.94
-9.46
-14.32
-19.44
-24.77
-30.03
-34.61
-37.55
-37.94
-35.33
-30.07
-23.20
-16.01
-9.52
-4.12
0.44
4.62
8.70
12.59
15.89
18.23
19.56
20.16
20.44
20.74
21.15
21.51
21.60
21.19
20.20
18.69
16.76
14.49
11.94
9.15
6.16
3.09
0.05
-2.91
-5.88
-9.14
-13.04
-17.86
-23.59
-29.75
-35.42
-39.53
-41.19
-40.11
-36.62
-31.58
-25.99
-20.62
-15.80
-11.43
-7.21
-2.93
1.39
5.46
8.96
11.72
13.78
15.38
16.79
18.17
19.49
20.59
21.18
20.95
19.68
17.26
13.78
9.50
4.86
0.33
-3.72
-7.18
-10.21
-13.19
-16.53
-20.53
-25.20
-30.19
-34.84
-38.17
-39.29
-37.55
-32.96
-26.13
-18.12
-9.99
-2.44
4.31
10.39
16.01
21.20
25.75
29.35
31.79
33.07
33.44
33.27
32.89
32.49
32.08
31.50
30.52
28.91
26.59
23.62
20.26
16.78
13.43
10.25
7.11
3.68
-0.38
-5.40
-11.44
-18.27
-25.25
-31.46
-35.91
-37.83
-36.92
-33.47
-28.18
-21.93
-15.46
-9.20
-3.31
2.16
7.09
11.23
14.31
16.17
16.93
16.96
16.68
16.44
16.32
16.10
15.43
13.97
11.62
8.60
5.34
2.33
-0.11
-2.03
-3.85
-6.16
-9.47
-14.03
-19.71
-26.10
-32.60
-38.57
-43.33
-46.13
-46.34
-43.58
-38.02
-30.39
-21.76
-13.28
-5.77
0.43
5.38
9.30
12.44
14.98
17.05
18.76
20.20
21.34
21.98
21.86
20.72
18.51
15.44
11.91
8.38
5.14
2.20
-0.74
-4.21
-8.76
-14.71
-22.00
-30.06
-37.90
-44.35
-48.31
-49.00
-46.20
-40.29
-32.17
-22.98
-13.85
-5.60
1.43
7.23
12.01
16.02
19.34
22.02
24.10
25.65
26.78
27.50
27.61
26.84
24.87
21.60
17.31
12.52
7.84
3.63
-0.13
-3.88
-8.29
-14.02
-21.45
-30.39
-40.08
-49.27
-56.40
-60.12
-59.65
-55.03
-47.12
-37.24
-26.74
-16.57
-7.21
1.28
8.92
15.62
21.16
25.28
28.01
29.69
30.86
32.16
33.98
36.34
38.93
41.18
42.49
42.41
40.80
37.88
34.08
29.88
25.46
20.66
14.96
7.81
-1.16
-11.87
-23.80
-36.11
-47.75
-57.60
-64.55
-67.73
-66.62
-61.31
-52.54
-41.51
-29.53
-17.64
-6.41
4.03
13.75
22.76
30.85
37.76
43.20
47.10
49.61
50.99
51.55
51.53
51.09
50.32
49.35
48.27
47.07
45.61
43.62
40.83
37.10
32.55
27.59
22.77
18.49
14.87
11.66
8.35
4.38
-0.71
-7.04
-14.37
-22.03
-29.01
-34.12
-36.21
-34.42
-28.49
-18.78
-6.25
7.81
22.06
35.31
46.70
55.68
62.01
65.79
67.44
67.60
67.03
66.37
65.96
65.78
65.46
64.41
62.16
58.42
53.28
47.12
40.50
34.04
28.17
23.10
18.68
14.56
10.24
5.25
-0.74
-7.77
-15.64
-23.91
-32.01
-39.22
-44.86
-48.26
-48.91
-46.59
-41.45
-34.02
-25.20
-15.98
-7.30
0.20
6.23
10.80
14.09
16.23
17.33
17.37
16.44
14.69
12.40
9.89
7.40
4.95
2.45
-0.35
-3.61
-7.34
-11.42
-15.64
-19.82
-23.90
-27.99
-32.30
-37.10
-42.58
-48.77
-55.51
-62.47
-69.23
-75.37
-80.51
-84.30
-86.40
-86.51
-84.42
-80.13
-73.90
-66.19
-57.54
-48.32
-38.70
-28.64
-18.15
-7.37
3.30
13.39
22.50
30.45
37.22
42.83
47.15
49.99
51.20
50.87
49.35
47.18
44.73
42.04
38.80
34.62
29.24
22.85
15.93
9.11
2.80
-2.97
-8.50
-14.32
-20.91
-28.49
-36.84
-45.27
-52.69
-57.84
-59.72
-57.78
-52.26
-44.02
-34.27
-24.26
-14.80
-6.23
1.54
8.75
15.57
21.94
27.60
32.24
35.72
38.11
39.65
40.64
41.26
41.50
41.29
40.58
39.48
38.12
36.59
34.79
32.45
29.22
24.98
19.89
14.41
9.10
4.34
0.25
-3.37
-6.90
-10.75
-15.22
-20.51
-26.75
-33.85
-41.48
-48.93
-55.13
-58.82
-59.00
-55.19
-47.77
-37.83
-26.81
-16.10
-6.55
1.53
8.29
14.00
18.79
22.58
25.19
26.56
26.82
26.36
25.62
24.95
24.45
23.94
23.13
21.67
19.35
16.17
12.29
7.94
3.31
-1.43
-6.24
-11.03
-15.74
-20.26
-24.60
-28.92
-33.60
-39.08
-45.59
-52.91
-60.18
-66.04
-69.00
-67.97
-62.67
-53.76
-42.66
-31.02
-20.20
-10.84
-2.85
4.30
11.14
17.82
24.05
29.30
33.11
35.44
36.62
37.12
37.32
37.21
36.51
34.85
32.01
28.12
23.54
18.71
13.97
9.42
4.94
0.24
-4.98
-11.04
-18.20
-26.58
-36.12
-46.46
-56.81
-66.05
-72.89
-76.22
-75.48
-70.88
-63.25
-53.76
-43.50
-33.23
-23.33
-13.93
-5.16
2.73
9.33
14.38
17.82
19.96
21.35
22.57
24.00
25.72
27.46
28.79
29.23
28.46
26.42
23.32
19.51
15.32
10.93
6.41
1.70
-3.25
-8.53
-14.29
-20.79
-28.32
-36.92
-46.16
-54.93
-61.69
-64.86
-63.42
-57.26
-47.23
-34.81
-21.59
-8.76
3.06
13.83
23.81
33.21
42.01
49.91
56.44
61.22
64.11
65.29
65.22
64.41
63.26
61.93
60.36
58.43
55.98
52.86
49.01
44.34
38.92
32.86
26.45
19.99
13.67
7.47
1.09
-5.95
-14.15
-23.79
-34.61
-45.69
-55.54
-62.43
-64.90
-62.28
-54.95
-44.18
-31.63
-18.85
-6.87
3.91
13.51
22.08
29.66
36.24
41.75
46.19
49.67
52.36
54.33
55.63
56.21
55.99
54.96
53.13
50.62
47.61
44.18
40.38
36.10
31.15
25.40
18.87
11.80
4.56
-2.51
-9.26
-15.84
-22.69
-30.34
-39.17
-49.00
-58.98
-67.64
-73.20
-74.21
-69.97
-60.89
-48.33
-34.14
-20.04
-7.18
3.99
13.52
21.66
28.58
34.31
38.82
42.21
44.64
46.31
47.32
47.66
47.29
46.24
44.71
42.97
41.13
39.06
36.41
32.78
28.03
22.33
16.26
10.40
5.18
0.61
-3.67
-8.22
-13.63
-20.32
-28.43
-37.70
-47.43
-56.50
-63.48
-67.02
-66.22
-60.92
-51.85
-40.33
-27.87
-15.75
-4.78
4.68
12.53
18.70
23.11
25.75
26.83
26.82
26.37
26.08
26.22
26.61
26.66
25.69
23.21
19.19
14.02
8.39
2.90
-2.13
-6.75
-11.32
-16.36
-22.41
-29.82
-38.69
-48.61
-58.63
-67.32
-73.14
-74.85
-71.98
-64.94
-54.84
-43.10
-30.99
-19.37
-8.56
1.44
10.72
19.36
27.29
34.32
40.24
44.90
48.22
50.28
51.22
51.17
50.31
48.73
46.65
44.30
41.89
39.53
37.11
34.36
30.92
26.50
20.99
14.44
7.05
-1.00
-9.57
-18.65
-28.32
-38.57
-49.24
-59.69
-68.79
-75.11
-77.32
-74.66
-67.33
-56.46
-43.71
-30.75
-18.71
-8.05
1.35
9.83
17.62
24.73
30.92
35.94
39.62
41.95
43.12
43.40
42.99
41.99
40.29
37.74
34.35
30.34
26.25
22.68
20.16
18.86
18.64
19.06
19.65
19.92
19.45
17.80
14.48
8.90
0.66
-10.23
-23.07
-36.37
-48.06
-55.99
-58.60
-55.34
-46.94
-35.04
-21.60
-8.20
4.25
15.58
25.85
35.04
42.85
48.82
52.66
54.50
54.98
54.92
54.98
55.30
55.55
55.07
53.31
50.09
45.70
40.68
35.60
30.75
26.11
21.43
16.41
10.71
4.04
-3.92
-13.37
-24.20
-35.72
-46.58
-54.97
-59.18
-58.21
-52.19
-42.34
-30.47
-18.27
-6.76
3.88
13.91
23.65
33.00
41.44
48.20
52.64
54.55
54.19
52.09
48.85
44.92
40.58
36.03
31.45
27.07
23.03
19.37
15.92
12.39
8.54
4.24
-0.43
-5.35
-10.43
-15.70
-21.37
-27.74
-35.08
-43.44
-52.47
-61.31
-68.54
-72.56
-72.03
-66.38
-56.09
-42.60
-27.90
-13.83
-1.65
8.28
16.25
22.93
28.93
34.57
39.84
44.56
48.51
51.58
53.78
55.17
55.80
55.67
54.79
53.26
51.26
48.99
46.49
43.61
40.01
35.37
29.64
23.09
16.26
9.70
3.70
-1.79
-7.17
-12.97
-19.68
-27.53
-36.37
-45.65
-54.35
-61.13
-64.63
-63.92
-58.75
-49.85
-38.64
-26.78
-15.68
-6.11
1.83
8.47
14.21
19.24
23.48
26.76
28.92
29.98
30.19
29.91
29.49
29.12
28.77
28.16
26.92
24.71
21.45
17.25
12.41
7.26
1.99
-3.34
-8.80
-14.44
-20.28
-26.36
-32.75
-39.60
-46.92
-54.47
-61.43
-66.61
-68.67
-66.70
-60.57
-51.09
-39.72
-28.05
-17.35
-8.23
-0.67
5.71
11.29
16.28
20.64
24.24
26.97
28.77
29.67
29.68
28.80
27.13
24.83
22.18
19.48
16.94
14.56
12.17
9.52
6.41
2.86
-1.04
-5.10
-9.23
-13.49
-17.98
-22.81
-27.97
-33.33
-38.53
-43.10
-46.44
-47.86
-46.79
-42.94
-36.50
-28.13
-18.86
-9.81
-1.84
4.65
9.77
14.01
17.92
21.94
26.16
30.38
34.23
37.32
39.46
40.61
40.87
40.37
39.24
37.60
35.59
33.36
31.02
28.62
26.13
23.51
20.78
18.07
15.60
13.65
12.47
12.17
12.73
13.95
15.49
17.01
18.23
19.14
19.97
21.17
23.22
26.40
30.77
36.18
42.34
48.96
55.77
62.59
69.21
75.36
80.55
84.03
84.88
82.26
75.71
65.37
51.91
36.20
19.02
0.83
-17.99
-36.83
-54.58
-69.64
-80.43
-86.10
-86.98
-84.69
-81.60
-79.99
-81.25
-85.45
-91.39
-97.18
-100.95
-101.45
-98.34
-92.07
-83.63
-74.07
-64.39
-55.32
-47.41
-41.04
-36.46
-33.68
-32.42
-32.07
-31.78
-30.70
-28.23
-24.35
-19.60
-15.02
-11.65
-10.17
-10.66
-12.61
-15.13
-17.40
-18.90
-19.58
-19.73
-19.83
-20.33
-21.55
-23.68
-26.70
-30.35
-34.10
-37.09
-38.32
-36.93
-32.53
-25.42
-16.53
-7.13
1.62
9.04
14.98
19.69
23.52
26.70
29.30
31.30
32.74
33.80
34.72
35.65
36.56
37.18
37.15
36.15
34.09
31.11
27.55
23.82
20.23
16.95
13.94
11.11
8.30
5.41
2.34
-0.95
-4.42
-7.87
-10.89
-12.89
-13.31
-11.78
-8.25
-3.10
2.99
9.19
14.75
19.22
22.43
24.50
25.64
26.10
25.97
25.23
23.79
21.57
18.65
15.34
12.07
9.28
7.22
5.85
4.84
3.83
2.52
0.81
-1.24
-3.57
-6.16
-9.12
-12.56
-16.49
-20.77
-25.23
-29.74
-34.26
-38.73
-42.84
-45.92
-47.14
-45.84
-41.85
-35.68
-28.42
-21.28
-15.16
-10.38
-6.72
-3.74
-1.07
1.33
3.27
4.54
5.11
5.21
5.20
5.44
5.99
6.66
7.04
6.70
5.40
3.13
0.14
-3.17
-6.45
-9.46
-12.14
-14.68
-17.38
-20.52
-24.17
-28.17
-32.07
-35.25
-37.06
-36.99
-34.80
-30.62
-24.91
-18.42
-11.92
-6.05
-1.07
3.11
6.76
10.05
12.90
15.00
16.02
15.89
14.87
13.48
12.24
11.41
10.92
10.50
9.84
8.78
7.28
5.34
2.91
-0.07
-3.74
-8.07
-12.92
-18.07
-23.27
-28.37
-33.30
-38.04
-42.46
-46.27
-48.99
-50.05
-48.97
-45.59
-40.22
-33.55
-26.54
-20.02
-14.46
-9.87
-5.89
-1.98
2.18
6.60
10.96
14.76
17.62
19.43
20.38
20.76
20.81
20.61
20.09
19.14
17.75
16.00
14.12
12.27
10.54
8.80
6.82
4.29
0.95
-3.28
-8.33
-13.97
-19.95
-26.01
-31.87
-37.12
-41.11
-43.02
-42.12
-38.14
-31.59
-23.67
-15.85
-9.33
-4.47
-0.82
2.54
6.42
11.00
15.84
20.14
23.27
25.17
26.34
27.59
29.50
32.23
35.33
38.06
39.74
40.01
38.92
36.79
33.98
30.67
26.85
22.41
17.40
12.17
7.25
3.09
-0.27
-3.32
-6.80
-11.11
-15.77
-19.28
-19.70
-15.48
-6.39
6.24
20.04
32.50
41.94
47.81
50.46
50.56
48.75
45.55
41.71
38.31
36.72
38.12
42.96
50.69
59.82
68.47
75.01
78.51
78.99
77.15
74.02
70.54
67.28
64.39
61.70
59.03
56.22
53.22
49.96
46.39
42.63
39.27
37.42
38.49
43.52
52.47
63.93
75.29
83.62
86.69
83.71
75.37
63.36
49.47
34.98
20.45
5.93
-8.63
-22.96
-36.49
-48.34
-57.75
-64.34
-68.37
-70.68
-72.34
-74.17
-76.36
-78.46
-79.75
-79.90
-79.25
-78.69
-78.88
-79.66
-79.79
-77.66
-72.36
-64.49
-56.02
-49.47
-46.52
-47.28
-50.40
-53.90
-56.31
-57.24
-57.27
-57.37
-58.19
-59.75
-61.48
-62.70
-62.94
-62.21
-60.94
-59.78
-59.35
-59.93
-61.38
-63.19
-64.66
-65.21
-64.57
-62.84
-60.39
-57.70
-55.19
-53.20
-51.92
-51.51
-52.04
-53.40
-55.31
-57.23
-58.49
-58.42
-56.49
-52.49
-46.52
-38.96
-30.46
-21.76
-13.60
-6.56
-1.05
2.83
5.14
6.13
6.08
5.35
4.34
3.46
3.08
3.39
4.40
5.90
7.55
8.91
9.53
8.97
6.86
3.13
-1.92
-7.50
-12.48
-15.72
-16.40
-14.32
-9.88
-3.94
2.54
8.70
13.96
17.93
20.54
21.87
22.17
21.77
20.96
19.90
18.58
16.91
14.81
12.32
9.58
6.82
4.20
1.73
-0.76
-3.64
-7.27
-12.03
-18.12
-25.41
-33.39
-41.15
-47.48
-51.23
-51.66
-48.65
-42.83
-35.35
-27.44
-20.03
-13.53
-7.88
-2.73
2.23
7.11
11.75
15.78
18.82
20.56
20.89
19.92
18.03
15.59
12.91
10.08
7.09
3.87
0.41
-3.30
-7.37
-12.12
-17.91
-24.78
-32.16
-38.73
-42.83
-43.08
-38.94
-31.01
-20.69
-9.65
0.78
9.85
17.35
23.32
27.88
31.11
33.24
34.67
35.96
37.51
39.36
41.03
41.69
40.57
37.32
32.24
26.08
19.68
13.61
8.00
2.55
-3.19
-9.65
-17.06
-25.29
-33.79
-41.54
-47.14
-49.18
-46.81
-40.12
-30.26
-18.99
-8.05
1.48
9.32
15.86
21.61
26.88
31.59
35.49
38.41
40.35
41.50
42.07
42.10
41.50
40.10
37.79
34.67
31.05
27.31
23.77
20.42
16.86
12.36
6.10
-2.29
-12.41
-22.92
-31.83
-37.10
-37.42
-32.65
-23.89
-13.05
-2.05
7.70
15.65
21.98
27.18
31.67
35.56
38.75
41.15
42.76
43.73
44.22
44.26
43.68
42.24
39.77
36.37
32.32
27.97
23.47
18.61
12.86
5.65
-3.29
-13.59
-24.22
-33.67
-40.38
-43.18
-41.57
-35.84
-26.88
-15.93
-4.24
7.11
17.38
26.13
33.20
38.64
42.65
45.46
47.26
48.17
48.21
47.32
45.48
42.77
39.36
35.52
31.52
27.56
23.67
19.69
15.36
10.34
4.25
-3.21
-12.08
-21.90
-31.60
-39.56
-44.07
-43.94
-39.04
-30.41
-19.86
-9.24
0.24
8.30
15.35
21.96
28.38
34.37
39.43
43.24
45.86
47.65
49.01
50.04
50.47
49.80
47.72
44.31
40.08
35.74
31.79
28.34
24.96
20.89
15.28
7.60
-2.22
-13.56
-25.15
-35.23
-42.04
-44.27
-41.53
-34.53
-24.83
-14.31
-4.49
3.89
10.98
17.42
23.78
30.15
36.09
40.90
44.02
45.37
45.44
44.99
44.74
44.98
45.50
45.71
44.97
42.89
39.50
35.22
30.58
26.07
21.88
17.83
13.50
8.45
2.25
-5.25
-14.00
-23.66
-33.63
-42.96
-50.41
-54.72
-54.99
-51.02
-43.52
-33.94
-23.87
-14.54
-6.37
0.96
8.14
15.67
23.48
30.87
36.95
41.01
42.99
43.33
42.84
42.18
41.57
40.84
39.58
37.45
34.41
30.67
26.60
22.46
18.28
14.04
9.63
5.02
0.21
-4.79
-10.10
-15.98
-22.60
-29.93
-37.51
-44.33
-49.05
-50.43
-47.77
-41.29
-32.05
-21.64
-11.55
-2.77
4.48
10.54
15.96
21.15
26.14
30.66
34.38
37.00
38.49
38.98
38.76
38.12
37.22
36.13
34.81
33.11
30.92
28.18
24.88
21.02
16.61
11.71
6.41
0.88
-4.69
-10.20
-15.74
-21.59
-28.04
-35.22
-42.77
-49.83
-55.16
-57.53
-56.11
-50.85
-42.55
-32.58
-22.45
-13.34
-5.80
0.26
5.29
9.68
13.58
16.87
19.41
21.21
22.49
23.63
24.86
26.10
26.99
27.06
25.95
23.55
20.02
15.75
11.13
6.52
2.18
-1.86
-5.79
-10.02
-15.06
-21.30
-28.82
-37.13
-45.18
-51.55
-54.80
-54.04
-49.24
-41.32
-31.77
-22.08
-13.29
-5.71
0.88
6.85
12.32
17.06
20.68
22.91
23.86
23.98
23.85
23.85
24.08
24.32
24.19
23.29
21.44
18.65
15.12
11.15
7.08
3.11
-0.65
-4.28
-7.98
-12.04
-16.78
-22.42
-28.99
-36.18
-43.30
-49.33
-53.12
-53.78
-50.97
-45.09
-37.10
-28.24
-19.61
-11.81
-4.94
1.25
7.10
12.66
17.74
21.92
24.92
26.72
27.62
28.07
28.40
28.65
28.59
27.88
26.23
23.65
20.39
16.90
13.58
10.60
7.89
5.19
2.10
-1.77
-6.66
-12.62
-19.50
-26.87
-34.03
-40.05
-43.98
-45.04
-42.88
-37.79
-30.65
-22.64
-14.83
-7.87
-1.83
3.56
8.53
13.02
16.66
18.99
19.84
19.47
18.51
17.55
16.86
16.23
15.23
13.49
10.98
8.03
5.09
2.50
0.29
-1.80
-4.16
-7.21
-11.28
-16.48
-22.75
-29.69
-36.43
-41.80
-44.51
-43.65
-39.05
-31.49
-22.41
-13.36
-5.49
0.84
5.97
10.53
14.92
19.08
22.59
25.00
26.20
26.50
26.48
26.56
26.79
26.73
25.73
23.35
19.59
14.94
10.15
5.89
2.40
-0.52
-3.38
-6.74
-10.99
-16.30
-22.60
-29.71
-37.22
-44.42
-50.36
-53.94
-54.32
-51.25
-45.27
-37.49
-29.19
-21.36
-14.43
-8.20
-2.28
3.65
9.54
15.05
19.70
23.10
25.22
26.26
26.66
26.83
27.01
27.19
27.14
26.49
24.96
22.50
19.31
15.74
12.17
8.76
5.46
1.98
-2.01
-6.72
-12.21
-18.41
-25.25
-32.68
-40.57
-48.46
-55.42
-60.13
-61.28
-58.06
-50.63
-40.15
-28.33
-16.89
-6.90
1.35
8.23
14.31
20.00
25.35
30.15
34.10
37.00
38.79
39.58
39.56
38.98
38.08
37.01
35.78
34.24
32.10
29.16
25.35
20.80
15.85
10.85
6.07
1.61
-2.61
-6.81
-11.28
-16.36
-22.38
-29.50
-37.61
-46.08
-53.74
-59.17
-61.03
-58.58
-52.03
-42.50
-31.64
-21.03
-11.70
-3.94
2.55
8.31
13.72
18.84
23.41
27.14
29.79
31.34
32.02
32.15
32.07
31.97
31.84
31.42
30.38
28.45
25.55
21.85
17.65
13.30
8.99
4.71
0.26
-4.60
-10.09
-16.30
-23.25
-30.85
-38.84
-46.64
-53.32
-57.63
-58.44
-55.20
-48.25
-38.85
-28.68
-19.21
-11.14
-4.35
1.81
7.99
14.34
20.45
25.69
29.50
31.79
32.86
33.24
33.37
33.42
33.26
32.58
31.08
28.61
25.24
21.21
16.81
12.22
7.50
2.57
-2.66
-8.19
-14.01
-20.13
-26.66
-33.76
-41.33
-48.82
-55.10
-58.76
-58.63
-54.35
-46.51
-36.48
-25.81
-15.69
-6.61
1.52
9.05
16.24
23.04
29.16
34.25
38.09
40.63
42.06
42.59
42.43
41.68
40.34
38.38
35.76
32.49
28.62
24.26
19.51
14.50
9.37
4.27
-0.69
-5.46
-10.16
-15.05
-20.47
-26.73
-33.95
-42.01
-50.30
-57.82
-63.25
-65.30
-63.20
-56.93
-47.40
-36.07
-24.58
-14.10
-5.13
2.48
9.25
15.57
21.52
26.88
31.36
34.79
37.28
39.11
40.60
41.84
42.74
42.99
42.30
40.53
37.71
34.05
29.80
25.19
20.37
15.47
10.58
5.79
1.10
-3.59
-8.51
-14.03
-20.53
-28.18
-36.72
-45.28
-52.42
-56.51
-56.26
-51.26
-42.22
-30.77
-18.88
-8.18
0.56
7.46
13.23
18.55
23.71
28.47
32.28
34.75
35.85
35.98
35.77
35.71
35.93
36.09
35.59
33.86
30.67
26.20
20.98
15.61
10.48
5.62
0.68
-4.79
-11.17
-18.55
-26.73
-35.33
-43.85
-51.73
-58.33
-62.93
-64.81
-63.53
-59.08
-52.03
-43.39
-34.33
-25.88
-18.66
-12.88
-8.45
-5.22
-3.01
-1.66
-0.94
-0.52
-0.00
0.82
1.89
2.87
3.26
2.63
0.88
-1.73
-4.79
-7.92
-11.07
-14.55
-18.93
-24.74
-32.14
-40.72
-49.43
-56.77
-61.23
-61.77
-58.18
-51.18
-42.11
-32.39
-23.04
-14.42
-6.38
1.48
9.30
16.86
23.67
29.30
33.65
37.08
40.19
43.41
46.83
49.98
52.12
52.53
50.86
47.20
42.03
35.99
29.65
23.49
17.85
12.83
8.21
3.40
-2.41
-9.84
-18.80
-28.28
-36.55
-41.72
-42.55
-38.86
-31.59
-22.36
-12.80
-4.08
3.24
9.06
13.40
16.22
17.48
17.24
15.76
13.56
11.24
9.26
7.77
6.63
5.55
4.30
2.85
1.31
-0.22
-1.86
-4.06
-7.42
-12.43
-19.02
-26.39
-33.10
-37.47
-38.16
-34.68
-27.51
-17.91
-7.42
2.68
11.67
19.29
25.67
30.99
35.44
39.14
42.29
44.99
47.32
49.21
50.51
51.10
50.96
50.27
49.28
48.23
47.20
46.10
44.69
42.60
39.45
34.81
28.47
20.53
11.68
3.22
-3.21
-6.13
-4.78
0.49
8.31
16.72
23.90
28.70
30.94
31.17
30.24
28.90
27.52
26.14
24.62
22.79
20.59
17.98
14.94
11.43
7.43
2.97
-1.80
-6.76
-11.86
-17.14
-22.81
-29.13
-36.25
-44.11
-52.18
-59.50
-64.78
-66.71
-64.46
-57.96
-47.97
-35.92
-23.40
-11.69
-1.49
7.08
14.26
20.28
25.18
28.81
30.90
31.30
30.13
27.76
24.71
21.49
18.46
15.63
12.85
9.80
6.12
1.47
-4.43
-11.76
-20.40
-29.80
-38.85
-46.10
-50.10
-49.97
-45.67
-38.08
-28.69
-19.01
-10.10
-2.34
4.48
10.82
17.03
23.02
28.46
32.78
35.62
36.82
36.54
35.11
32.91
30.31
27.59
24.97
22.56
20.35
18.09
15.31
11.37
5.63
-2.33
-12.40
-23.74
-34.82
-43.69
-48.53
-48.25
-42.95
-33.90
-23.03
-12.21
-2.59
5.64
13.00
20.16
27.37
34.29
40.13
44.19
46.20
46.50
45.82
44.91
44.16
43.48
42.40
40.33
36.99
32.46
27.19
21.72
16.47
11.52
6.69
1.59
-4.19
-10.96
-18.90
-27.88
-37.36
-46.38
-53.60
-57.63
-57.46
-52.88
-44.60
-33.99
-22.66
-11.84
-2.09
6.63
14.67
22.30
29.44
35.76
40.84
44.51
46.82
48.06
48.55
48.51
48.07
47.25
46.12
44.68
42.94
40.80
38.16
34.93
31.13
26.87
22.33
17.68
13.04
8.38
3.60
-1.56
-7.46
-14.48
-22.79
-32.00
-41.13
-48.67
-53.11
-53.43
-49.60
-42.60
-33.99
-25.40
-17.83
-11.53
-6.13
-1.06
3.99
8.87
13.15
16.37
18.40
19.42
19.85
20.01
19.96
19.50
18.29
16.15
13.14
9.57
5.80
2.07
-1.64
-5.53
-9.87
-14.90
-20.67
-27.12
-34.07
-41.25
-48.22
-54.29
-58.54
-59.98
-57.96
-52.43
-44.07
-34.11
-23.86
-14.28
-5.74
1.89
8.87
15.26
20.80
25.09
27.88
29.25
29.66
29.63
29.55
29.47
29.12
28.14
26.28
23.60
20.45
17.32
14.60
12.32
10.14
7.42
3.47
-2.14
-9.48
-18.16
-27.36
-35.92
-42.58
-46.17
-45.97
-42.00
-35.00
-26.22
-17.01
-8.32
-0.53
6.45
12.91
18.96
24.47
29.08
32.43
34.40
35.13
34.95
34.29
33.50
32.73
31.91
30.80
29.08
26.51
23.10
19.03
14.67
10.29
5.99
1.66
-2.94
-8.03
-13.74
-20.10
-27.18
-35.00
-43.44
-51.99
-59.67
-65.12
-67.08
-64.87
-58.75
-49.88
-39.84
-30.08
-21.44
-13.99
-7.37
-1.09
5.09
11.14
16.81
21.86
26.17
29.70
32.48
34.49
35.65
35.96
35.47
34.32
32.67
30.64
28.19
25.20
21.57
17.26
12.41
7.24
2.00
-3.12
-8.04
-12.88
-17.84
-23.22
-29.32
-36.17
-43.38
-50.04
-54.84
-56.51
-54.30
-48.36
-39.74
-30.09
-21.01
-13.50
-7.76
-3.26
0.80
4.98
9.38
13.64
17.21
19.69
21.06
21.55
21.52
21.14
20.32
18.79
16.31
12.90
8.87
4.70
0.81
-2.62
-5.74
-8.91
-12.55
-16.90
-21.99
-27.66
-33.65
-39.68
-45.39
-50.35
-54.03
-55.96
-55.86
-53.79
-50.09
-45.23
-39.57
-33.22
-26.20
-18.65
-11.02
-4.02
1.69
5.76
8.36
10.03
11.34
12.62
13.78
14.51
14.49
13.65
12.18
10.41
8.65
7.06
5.65
4.39
3.23
2.14
0.96
-0.60
-2.95
-6.38
-10.81
-15.66
-19.96
-22.68
-23.17
-21.36
-17.68
-12.73
-6.97
-0.49
6.69
14.40
22.02
28.58
33.16
35.31
35.38
34.30
33.17
32.72
32.98
33.33
32.91
31.12
27.94
23.90
19.83
16.45
14.08
12.55
11.37
9.84
7.25
3.00
-3.24
-11.31
-20.53
-29.64
-37.04
-41.04
-40.29
-34.02
-22.37
-6.45
11.72
29.59
44.61
54.87
59.53
58.94
54.33
47.30
39.36
31.63
24.86
19.43
15.44
12.53
9.93
6.64
1.86
-4.59
-12.00
-19.01
-24.07
-26.07
-24.77
-20.86
-15.72
-10.94
-7.98
-7.83
-10.89
-16.84
-24.70
-32.90
-39.64
-43.34
-43.13
-39.07
-32.08
-23.50
-14.68
-6.55
0.39
5.90
9.89
12.23
13.00
12.56
11.59
10.92
11.16
12.44
14.34
16.12
17.15
17.27
16.80
16.52
17.12
18.96
21.85
25.15
28.05
29.81
29.96
28.29
24.91
20.06
14.18
7.85
1.78
-3.33
-6.98
-9.04
-9.81
-9.80
-9.58
-9.53
-9.75
-10.12
-10.45
-10.71
-10.96
-11.40
-12.18
-13.39
-14.97
-16.74
-18.58
-20.40
-22.30
-24.40
-26.89
-29.81
-33.15
-36.79
-40.63
-44.70
-49.12
-54.04
-59.36
-64.57
-68.75
-70.72
-69.51
-64.66
-56.54
-46.18
-35.02
-24.38
-15.25
-8.03
-2.59
1.45
4.69
7.64
10.72
14.13
17.83
21.60
25.08
27.91
29.89
31.02
31.36
30.99
29.81
27.46
23.38
16.84
7.25
-5.66
-21.45
-38.82
-55.68
-69.65
-78.66
-81.62
-78.68
-71.24
-61.29
-50.82
-41.29
-33.33
-26.92
-21.66
-17.10
-12.99
-9.36
-6.49
-4.78
-4.54
-5.91
-8.81
-12.95
-17.99
-23.63
-29.62
-35.77
-41.93
-47.97
-53.89
-59.76
-65.76
-71.97
-78.16
-83.53
-86.74
-86.15
-80.40
-68.93
-52.38
-32.49
-11.50
8.54
26.39
41.72
54.81
65.98
75.29
82.50
87.37
89.93
90.61
89.96
88.36
85.90
82.47
78.02
72.73
67.03
61.41
56.12
51.11
46.06
40.50
33.99
26.24
17.24
7.40
-2.35
-10.64
-16.01
-17.33
-14.28
-7.48
1.73
11.81
21.57
30.48
38.64
46.43
54.08
61.46
68.04
73.23
76.56
78.02
77.99
77.07
75.94
75.17
75.11
75.91
77.36
78.93
79.76
78.92
75.71
69.91
61.82
52.04
41.24
29.96
18.61
7.75
-1.85
-9.25
-13.63
-14.65
-12.55
-8.04
-2.06
4.53
11.06
17.07
22.23
26.31
29.24
31.12
32.28
33.15
34.09
35.28
36.68
38.18
39.71
41.32
43.19
45.36
47.59
49.34
49.88
48.69
45.73
41.61
37.41
34.37
33.42
34.86
38.29
42.77
47.10
50.25
51.65
51.31
49.79
47.86
46.24
45.31
44.99
44.83
44.22
42.59
39.60
35.26
29.84
23.76
17.39
10.91
4.31
-2.51
-9.55
-16.62
-23.32
-29.14
-33.68
-36.68
-38.12
-38.06
-36.59
-33.78
-29.68
-24.41
-18.33
-12.12
-6.73
-3.09
-1.67
-2.04
-2.94
-2.73
-0.25
4.55
10.53
15.94
19.27
19.87
18.08
14.69
10.21
4.49
-3.11
-13.22
-25.90
-40.35
-55.25
-69.19
-81.23
-91.07
-98.99
-105.53
-111.28
-116.70
-122.24
-128.33
-135.34
-143.36
-151.84
-159.46
-164.41
-165.03
-160.63
-151.88
-140.67
-129.27
-119.54
-112.29
-107.36
-104.09
-101.81
-100.17
-98.87
-97.44
-95.06
-90.71
-83.65
-73.75
-61.65
-48.53
-35.62
-23.77
-13.23
-3.63
5.69
15.38
25.61
35.93
45.29
52.49
56.68
57.74
56.41
53.97
51.74
50.56
50.60
51.45
52.47
53.14
53.26
52.93
52.37
51.72
50.92
49.76
48.01
45.55
42.37
38.56
34.20
29.26
23.74
17.77
11.64
5.91
1.19
-2.17
-4.13
-5.08
-5.64
-6.44
-7.87
-10.06
-12.88
-16.04
-19.21
-22.13
-24.69
-26.95
-29.12
-31.49
-34.34
-37.81
-41.90
-46.45
-51.20
-55.86
-60.25
-64.35
-68.42
-72.99
-78.66
-85.89
-94.58
-103.84
-112.06
-117.29
-117.84
-112.84
-102.60
-88.34
-71.76
-54.43
-37.45
-21.36
-6.43
7.07
18.70
28.01
34.71
38.97
41.20
41.96
41.60
40.11
37.31
33.06
27.45
20.85
13.74
6.48
-0.80
-8.23
-16.10
-24.73
-34.22
-44.39
-54.55
-63.56
-69.94
-72.31
-69.87
-62.74
-52.02
-39.47
-26.93
-15.69
-6.24
1.72
8.98
16.30
24.11
32.34
40.50
47.89
53.85
58.00
60.38
61.50
62.18
63.33
65.75
69.96
76.04
83.63
91.93
99.75
105.72
108.64
107.93
103.84
97.52
90.59
84.60
80.41
78.00
76.65
75.52
74.39
73.95
75.64
80.82
89.83
101.42
112.87
120.99
123.36
119.33
110.20
98.64
87.50
78.74
72.95
69.62
67.75
66.48
65.45
64.56
63.73
62.60
60.67
57.55
53.26
48.42
44.04
41.06
39.86
39.94
39.96
38.29
33.49
24.93
12.95
-1.34
-16.41
-30.81
-43.50
-53.96
-62.16
-68.37
-73.03
-76.68
-79.78
-82.81
-86.11
-89.96
-94.50
-99.86
-106.03
-112.92
-120.19
-127.18
-132.90
-136.29
-136.47
-133.11
-126.57
-117.77
-107.80
-97.53
-87.32
-77.00
-66.20
-54.67
-42.56
-30.44
-18.98
-8.75
0.05
7.52
13.89
19.31
23.78
27.19
29.48
30.71
31.10
30.81
29.84
27.93
24.70
19.97
13.95
7.43
1.52
-2.59
-4.09
-2.74
1.10
6.62
12.88
18.99
24.26
28.19
30.51
31.17
30.43
28.78
26.88
25.19
23.79
22.24
19.65
15.12
8.06
-1.58
-13.29
-26.23
-39.55
-52.44
-64.16
-74.02
-81.44
-86.12
-88.28
-88.56
-87.75
-86.41
-84.58
-81.80
-77.51
-71.34
-63.42
-54.27
-44.54
-34.69
-24.86
-14.99
-5.01
4.90
14.32
22.76
29.82
35.44
39.83
43.27
45.93
47.70
48.23
47.29
44.91
41.54
37.87
34.53
31.87
29.87
28.19
26.42
24.19
21.27
17.56
13.10
8.15
3.22
-0.98
-3.70
-4.31
-2.52
1.61
7.71
15.27
23.83
33.02
42.55
52.17
61.53
70.19
77.67
83.48
87.34
89.21
89.31
88.12
86.18
83.96
81.70
79.34
76.60
73.09
68.61
63.21
57.25
51.29
45.78
40.88
36.40
31.97
27.36
22.65
18.39
15.41
14.46
15.99
19.86
25.52
32.03
38.27
43.02
45.01
43.08
36.45
25.03
9.70
-7.73
-25.00
-40.09
-52.04
-61.34
-69.63
-78.84
-90.11
-103.04
-115.72
-125.55
-130.48
-129.95
-125.13
-118.26
-111.70
-106.97
-104.70
-104.79
-106.94
-110.91
-116.21
-121.90
-126.34
-127.65
-124.44
-116.51
-105.11
-92.59
-81.52
-73.83
-70.15
-69.72
-70.79
-71.29
-69.61
-65.04
-57.92
-49.28
-40.37
-32.23
-25.40
-20.13
-16.53
-14.86
-15.38
-18.20
-23.10
-29.52
-36.83
-44.51
-52.31
-60.10
-67.70
-74.79
-81.10
-86.56
-91.35
-95.68
-99.20
-100.65
-97.91
-88.77
-71.91
-47.72
-18.41
12.64
42.07
67.60
88.50
105.34
119.25
131.20
141.60
150.36
157.19
161.91
164.64
165.71
165.57
164.72
163.66
162.84
162.65
163.19
164.10
164.53
163.28
159.13
151.31
139.76
125.10
108.39
90.61
72.50
54.33
36.15
17.89
-0.41
-18.70
-36.81
-54.42
-70.79
-84.71
-94.54
-98.68
-96.20
-87.24
-73.14
-56.00
-38.06
-21.00
-5.69
7.77
19.66
30.31
39.82
48.16
55.27
61.29
66.57
71.51
76.38
81.09
85.20
88.13
89.43
88.94
86.91
83.74
79.70
74.86
69.01
61.94
53.69
44.63
35.43
26.77
19.04
12.25
6.05
-0.10
-6.68
-14.00
-22.27
-31.55
-41.76
-52.46
-62.81
-71.55
-77.29
-78.94
-76.12
-69.34
-59.78
-48.86
-37.72
-27.02
-16.89
-7.29
1.69
9.67
16.08
20.44
22.66
23.15
22.67
22.10
22.05
22.81
24.25
26.10
28.10
30.08
31.93
33.46
34.34
34.07
32.22
28.61
23.55
17.68
11.77
6.43
1.83
-2.31
-6.57
-11.55
-17.68
-25.09
-33.65
-42.90
-52.12
-60.24
-66.01
-68.24
-66.27
-60.14
-50.79
-39.67
-28.26
-17.53
-7.79
1.12
9.49
17.36
24.41
30.17
34.37
37.17
39.07
40.72
42.61
44.93
47.62
50.47
53.23
55.53
56.97
57.17
56.03
53.96
51.89
51.04
52.45
56.53
62.88
70.33
77.24
81.83
82.52
78.44
69.79
58.27
46.89
39.19
37.96
44.06
55.91
69.94
81.93
88.58
88.64
83.14
74.80
66.90
62.02
61.17
63.51
66.79
68.26
65.58
57.69
44.90
28.57
10.32
-8.47
-26.89
-44.30
-59.98
-73.16
-83.34
-90.63
-95.95
-100.59
-105.50
-110.76
-115.44
-118.18
-118.00
-114.91
-109.98
-104.80
-100.68
-98.06
-96.41
-94.65
-91.81
-87.41
-81.56
-74.78
-67.57
-60.20
-52.71
-45.02
-37.18
-29.40
-22.09
-15.64
-10.23
-5.71
-1.66
2.43
6.86
11.54
16.08
19.95
22.85
24.70
25.63
25.66
24.64
22.33
18.59
13.63
7.99
2.29
-3.02
-7.82
-12.19
-16.16
-19.65
-22.51
-24.82
-27.10
-30.28
-35.29
-42.64
-52.04
-62.42
-72.28
-80.16
-85.13
-86.97
-85.96
-82.53
-76.88
-68.95
-58.58
-46.01
-32.11
-18.30
-6.13
3.40
10.14
14.73
18.19
21.28
24.15
26.32
27.09
25.87
22.48
17.17
10.43
2.88
-4.93
-12.59
-19.85
-26.63
-33.01
-39.18
-45.33
-51.56
-57.71
-63.34
-67.69
-69.83
-68.95
-64.68
-57.23
-47.51
-36.80
-26.44
-17.47
-10.36
-5.08
-1.28
1.50
3.69
5.68
7.84
10.55
14.19
19.00
24.90
31.46
37.89
43.24
46.69
47.89
47.01
44.69
41.78
38.98
36.65
34.78
33.07
31.10
28.38
24.44
18.89
11.65
3.17
-5.47
-12.76
-17.18
-17.75
-14.31
-7.63
0.89
9.68
17.38
23.17
26.82
28.61
29.14
29.05
28.82
28.62
28.41
28.01
27.35
26.51
25.69
25.06
24.67
24.44
24.22
23.83
23.09
21.70
19.19
14.98
8.62
0.06
-10.24
-21.21
-31.58
-40.27
-46.76
-51.22
-54.43
-57.37
-60.84
-65.02
-69.45
-73.07
-74.55
-72.75
-67.03
-57.52
-45.00
-30.67
-15.77
-1.36
11.90
23.62
33.57
41.61
47.65
51.72
54.08
55.18
55.62
55.96
56.57
57.52
58.51
59.06
58.64
56.91
53.88
49.86
45.29
40.55
35.71
30.59
24.89
18.41
11.21
3.60
-4.10
-11.62
-18.85
-25.69
-31.91
-36.95
-40.05
-40.50
-37.98
-32.77
-25.75
-18.04
-10.68
-4.24
1.26
6.11
10.63
14.91
18.72
21.70
23.62
24.56
24.86
24.99
25.22
25.53
25.56
24.83
22.96
19.87
15.79
11.14
6.36
1.71
-2.78
-7.22
-11.86
-16.87
-22.36
-28.27
-34.37
-40.29
-45.49
-49.28
-50.99
-50.17
-46.74
-41.10
-33.97
-26.20
-18.49
-11.25
-4.60
1.46
6.94
11.73
15.70
18.80
21.08
22.71
23.89
24.77
25.48
26.07
26.63
27.22
27.86
28.40
28.53
27.90
26.30
23.74
20.53
17.08
13.76
10.73
7.89
4.97
1.61
-2.53
-7.68
-13.87
-20.83
-27.94
-34.21
-38.52
-39.90
-37.81
-32.37
-24.28
-14.63
-4.60
4.79
12.85
19.27
24.03
27.28
29.24
30.06
29.80
28.57
26.57
24.16
21.73
19.60
17.84
16.32
14.84
13.23
11.51
9.72
7.88
5.88
3.58
0.86
-2.27
-5.69
-9.30
-13.07
-17.11
-21.62
-26.79
-32.62
-38.90
-45.08
-50.33
-53.67
-54.22
-51.49
-45.58
-37.22
-27.60
-18.04
-9.60
-2.86
2.23
6.18
9.69
13.33
17.25
21.13
24.40
26.56
27.47
27.46
27.11
26.91
27.02
27.22
27.04
26.08
24.22
21.55
18.36
14.91
11.39
7.88
4.40
0.93
-2.53
-6.10
-9.97
-14.36
-19.43
-25.10
-30.93
-36.07
-39.45
-40.11
-37.58
-32.06
-24.48
-16.10
-8.11
-1.23
4.32
8.74
12.31
15.15
17.26
18.57
19.12
19.13
18.91
18.71
18.57
18.27
17.46
15.86
13.39
10.28
6.90
3.61
0.54
-2.48
-5.78
-9.73
-14.54
-20.17
-26.34
-32.57
-38.19
-42.49
-44.77
-44.53
-41.65
-36.49
-29.82
-22.54
-15.36
-8.59
-2.22
3.87
9.56
14.40
17.83
19.38
19.12
17.62
15.78
14.40
13.81
13.79
13.75
13.09
11.50
9.11
6.25
3.33
0.53
-2.21
-5.11
-8.45
-12.44
-17.21
-22.86
-29.33
-36.39
-43.48
-49.69
-53.99
-55.45
-53.59
-48.54
-40.97
-31.91
-22.39
-13.24
-4.90
2.51
9.08
14.94
20.12
24.47
27.80
29.98
31.03
31.24
30.97
30.59
30.25
29.90
29.33
28.35
26.79
24.65
22.00
18.97
15.72
12.40
9.08
5.74
2.18
-1.88
-6.71
-12.36
-18.60
-24.79
-30.08
-33.59
-34.66
-32.99
-28.82
-22.77
-15.71
-8.52
-1.82
4.07
9.15
13.53
17.29
20.37
22.63
23.99
24.54
24.54
24.27
23.86
23.27
22.26
20.64
18.39
15.67
12.82
10.13
7.75
5.60
3.44
0.97
-2.10
-5.96
-10.70
-16.25
-22.35
-28.50
-33.98
-37.91
-39.55
-38.46
-34.68
-28.76
-21.51
-13.81
-6.31
0.68
7.10
12.99
18.32
22.91
26.53
29.05
30.50
31.09
31.12
30.84
30.36
29.69
28.75
27.47
25.80
23.69
21.09
17.97
14.30
10.10
5.48
0.62
-4.35
-9.31
-14.31
-19.52
-25.21
-31.56
-38.55
-45.74
-52.25
-57.01
-58.95
-57.47
-52.58
-44.94
-35.64
-25.82
-16.38
-7.83
-0.26
6.47
12.51
17.89
22.55
26.39
29.38
31.62
33.27
34.47
35.24
35.50
35.15
34.19
32.76
31.07
29.35
27.70
26.07
24.29
22.22
19.82
17.18
14.48
11.88
9.43
6.98
4.21
0.74
-3.68
-9.07
-15.07
-21.09
-26.40
-30.29
-32.25
-31.98
-29.52
-25.23
-19.78
-13.93
-8.41
-3.61
0.39
3.85
7.08
10.26
13.34
16.08
18.30
19.95
21.17
22.17
23.08
23.83
24.15
23.76
22.53
20.55
18.09
15.45
12.77
9.97
6.82
3.12
-1.18
-5.91
-10.81
-15.68
-20.44
-25.09
-29.60
-33.65
-36.66
-37.90
-36.73
-32.90
-26.57
-18.32
-8.91
0.89
10.46
19.37
27.32
34.08
39.47
43.40
45.95
47.33
47.91
48.01
47.83
47.39
46.55
45.11
43.04
40.43
37.47
34.38
31.22
27.99
24.59
21.00
17.28
13.49
9.65
5.64
1.29
-3.51
-8.64
-13.70
-18.01
-20.92
-21.92
-20.90
-18.09
-13.98
-9.18
-4.19
0.58
4.88
8.54
11.41
13.36
14.24
14.03
12.76
10.66
8.06
5.33
2.78
0.53
-1.49
-3.54
-5.87
-8.59
-11.60
-14.66
-17.57
-20.21
-22.70
-25.19
-27.81
-30.54
-33.31
-36.01
-38.70
-41.56
-44.79
-48.48
-52.43
-56.14
-58.89
-59.96
-58.79
-55.25
-49.63
-42.54
-34.72
-26.73
-18.86
-11.19
-3.72
3.41
9.92
15.47
19.83
22.99
25.13
26.50
27.29
27.56
27.31
26.57
25.42
24.02
22.44
20.69
18.60
16.00
12.74
8.86
4.56
0.19
-3.94
-7.64
-11.05
-14.63
-18.97
-24.53
-31.34
-38.84
-45.97
-51.50
-54.43
-54.26
-51.14
-45.69
-38.77
-31.14
-23.44
-15.98
-8.95
-2.48
3.31
8.28
12.27
15.21
17.06
17.89
17.83
17.07
15.80
14.18
12.32
10.31
8.18
6.00
3.79
1.58
-0.68
-3.09
-5.82
-9.08
-13.09
-18.00
-23.94
-30.84
-38.39
-45.91
-52.43
-56.81
-58.11
-55.90
-50.41
-42.47
-33.16
-23.39
-13.62
-3.88
5.99
15.95
25.52
33.89
40.16
43.81
44.90
44.14
42.49
40.78
39.41
38.32
37.15
35.52
33.29
30.49
27.24
23.63
19.65
15.26
10.53
5.72
1.12
-3.08
-7.00
-11.07
-15.78
-21.54
-28.22
-35.19
-41.39
-45.71
-47.32
-45.88
-41.61
-35.06
-26.90
-17.64
-7.73
2.44
12.37
21.42
28.94
34.60
38.46
41.02
42.95
44.83
46.99
49.39
51.83
54.18
56.40
58.58
60.71
62.64
63.95
64.18
62.97
60.18
56.04
51.04
45.82
40.89
36.44
32.16
27.24
20.61
11.48
-0.27
-13.72
-27.05
-38.02
-44.72
-46.09
-42.25
-34.27
-23.68
-11.92
-0.01
11.44
22.03
31.30
38.65
43.53
45.72
45.51
43.73
41.41
39.35
37.79
36.38
34.39
31.24
26.77
21.37
15.75
10.54
5.99
1.90
-2.23
-6.92
-12.49
-19.09
-26.74
-35.39
-44.81
-54.43
-63.09
-69.24
-71.29
-68.27
-60.41
-49.16
-36.81
-25.62
-16.97
-10.98
-6.63
-2.54
2.23
7.76
13.36
18.14
21.63
24.09
26.28
28.89
31.92
34.44
35.01
32.31
25.79
16.02
4.39
-7.47
-18.34
-27.73
-35.78
-42.92
-49.42
-55.25
-60.11
-63.58
-65.24
-64.71
-61.58
-55.50
-46.34
-34.32
-20.02
-4.22
12.41
29.49
47.00
64.91
82.97
100.62
117.02
131.45
143.49
153.19
160.90
167.02
171.90
175.70
178.53
180.50
181.77
182.51
182.69
182.01
179.94
175.79
168.98
159.23
146.58
131.43
114.40
96.14
77.28
58.37
39.80
21.76
4.23
-12.90
-29.81
-46.49
-62.69
-77.95
-91.78
-103.91
-114.44
-123.76
-132.36
-140.47
-147.83
-153.79
-157.58
-158.70
-157.21
-153.69
-148.98
-143.73
-138.17
-132.11
-125.22
-117.42
-109.09
-101.00
-93.92
-88.31
-84.09
-80.75
-77.63
-74.28
-70.59
-66.73
-62.95
-59.36
-55.87
-52.25
-48.35
-44.23
-40.19
-36.67
-33.99
-32.23
-31.19
-30.48
-29.74
-28.77
-27.53
-26.12
-24.63
-23.09
-21.55
-20.06
-18.72
-17.64
-16.91
-16.55
-16.48
-16.62
-16.84
-17.03
-17.12
-17.09
-16.95
-16.71
-16.46
-16.30
-16.35
-16.74
-17.55
-18.65
-19.79
-20.58
-20.64
-19.79
-18.07
-15.77
-13.23
-10.70
-8.28
-5.98
-3.84
-1.96
-0.50
0.52
1.20
1.82
2.64
3.80
5.22
6.75
8.21
9.56
10.84
12.00
12.82
12.95
12.05
10.06
7.26
4.29
1.82
0.31
-0.25
-0.27
-0.32
-0.78
-1.76
-3.04
-4.31
-5.45
-6.54
-7.80
-9.38
-11.19
-12.92
-14.19
-14.78
-14.67
-14.06
-13.14
-12.02
-10.64
-8.90
-6.76
-4.31
-1.82
0.41
2.17
3.38
4.17
4.79
5.45
6.24
7.08
7.83
8.36
8.68
8.95
9.36
9.94
10.53
10.79
10.42
9.26
7.47
5.40
3.47
1.99
1.09
0.80
1.11
2.03
3.51
5.47
7.68
9.83
11.62
12.79
13.25
13.05
12.39
11.49
10.57
9.78
9.11
8.48
7.76
6.80
5.51
3.85
1.88
-0.33
-2.66
-5.07
-7.53
-10.18
-13.15
-16.54
-20.24
-23.87
-26.83
-28.51
-28.48
-26.68
-23.38
-19.07
-14.22
-9.22
-4.33
0.22
4.19
7.44
9.93
11.77
13.17
14.31
15.22
15.77
15.78
15.12
13.82
12.02
9.96
7.77
5.46
2.87
-0.22
-4.06
-8.79
-14.36
-20.50
-26.69
-32.23
-36.45
-38.86
-39.32
-37.95
-35.07
-30.99
-25.96
-20.15
-13.83
-7.37
-1.27
3.99
8.19
11.33
13.66
15.45
16.86
17.85
18.24
17.88
16.72
14.90
12.64
10.18
7.66
5.14
2.49
-0.43
-3.83
-7.88
-12.64
-18.00
-23.66
-29.07
-33.58
-36.49
-37.30
-35.84
-32.35
-27.38
-21.65
-15.75
-10.01
-4.43
1.10
6.62
12.00
16.89
20.95
24.01
26.15
27.63
28.73
29.59
30.14
30.15
29.43
27.86
25.51
22.56
19.22
15.67
12.03
8.34
4.52
0.45
-4.15
-9.54
-15.89
-23.09
-30.65
-37.75
-43.40
-46.75
-47.33
-45.09
-40.39
-33.77
-25.86
-17.20
-8.29
0.45
8.70
16.28
23.12
29.21
34.50
38.88
42.22
44.49
45.83
46.54
46.91
47.12
47.13
46.73
45.71
43.92
41.28
37.82
33.60
28.76
23.54
18.18
12.85
7.58
2.15
-3.82
-10.59
-18.23
-26.32
-34.10
-40.59
-44.84
-46.12
-44.05
-38.69
-30.52
-20.44
-9.55
1.05
10.58
18.62
25.19
30.53
34.88
38.43
41.22
43.29
44.70
45.62
46.15
46.33
46.01
45.02
43.22
40.59
37.31
33.62
29.79
26.00
22.22
18.28
13.85
8.67
2.62
-4.19
-11.52
-19.08
-26.59
-33.74
-40.15
-45.30
-48.56
-49.41
-47.63
-43.38
-37.16
-29.64
-21.49
-13.19
-5.08
2.59
9.58
15.68
20.65
24.47
27.29
29.37
30.98
32.23
33.07
33.29
32.72
31.29
29.04
26.10
22.63
18.76
14.57
10.15
5.45
0.36
-5.40
-12.05
-19.55
-27.52
-35.14
-41.37
-45.24
-46.18
-44.13
-39.52
-33.07
-25.49
-17.34
-8.90
-0.34
8.14
16.17
23.17
28.61
32.16
33.94
34.43
34.26
33.95
33.68
33.28
32.44
30.92
28.64
25.74
22.44
18.91
15.18
11.19
6.84
2.03
-3.36
-9.41
-16.26
-23.92
-32.16
-40.40
-47.70
-52.86
-54.85
-53.10
-47.72
-39.47
-29.50
-18.98
-8.76
0.68
9.19
16.70
23.10
28.26
32.07
34.61
36.10
36.94
37.49
37.94
38.26
38.27
37.63
36.08
33.54
30.10
26.02
21.65
17.25
12.93
8.60
4.02
-1.11
-7.06
-13.98
-21.87
-30.50
-39.30
-47.37
-53.64
-57.14
-57.27
-53.98
-47.81
-39.63
-30.35
-20.73
-11.24
-2.09
6.67
14.99
22.72
29.65
35.51
40.12
43.46
45.75
47.29
48.35
49.00
49.09
48.37
46.64
43.90
40.33
36.16
31.61
26.77
21.68
16.39
10.97
5.48
-0.12
-5.99
-12.40
-19.52
-27.37
-35.62
-43.57
-50.29
-54.74
-56.06
-53.82
-48.10
-39.55
-29.18
-18.07
-7.13
3.01
12.11
20.11
27.05
32.91
37.64
41.11
43.29
44.30
44.41
43.92
43.12
42.11
40.84
39.15
36.88
33.98
30.49
26.49
22.10
17.37
12.36
7.13
1.80
-3.51
-8.70
-13.84
-19.14
-24.87
-31.22
-38.05
-44.81
-50.60
-54.34
-55.13
-52.52
-46.74
-38.59
-29.20
-19.68
-10.86
-3.18
3.26
8.50
12.64
15.74
17.90
19.31
20.28
21.19
22.29
23.53
24.58
24.89
23.96
21.63
18.15
14.12
10.18
6.69
3.59
0.48
-3.19
-7.82
-13.45
-19.80
-26.39
-32.68
-38.08
-42.02
-43.96
-43.48
-40.41
-34.97
-27.72
-19.47
-11.00
-2.91
4.45
10.97
16.58
21.23
24.80
27.23
28.57
28.98
28.76
28.16
27.31
26.16
24.57
22.39
19.58
16.24
12.55
8.64
4.53
0.16
-4.67
-10.15
-16.46
-23.60
-31.33
-39.07
-45.90
-50.78
-52.80
-51.47
-46.93
-39.90
-31.38
-22.31
-13.28
-4.51
3.99
12.16
19.71
26.19
31.12
34.28
35.78
36.12
35.89
35.58
35.33
34.97
34.12
32.42
29.71
26.11
21.99
17.75
13.72
10.03
6.53
2.86
-1.41
-6.73
-13.30
-21.00
-29.31
-37.33
-43.91
-47.91
-48.55
-45.61
-39.50
-31.21
-21.96
-12.84
-4.58
2.58
8.75
14.16
18.96
23.11
26.48
28.94
30.58
31.64
32.41
33.11
33.65
33.73
32.92
30.92
27.67
23.42
18.57
13.52
8.47
3.46
-1.66
-7.04
-12.76
-18.84
-25.24
-31.99
-39.13
-46.57
-53.93
-60.46
-65.20
-67.23
-66.08
-61.87
-55.35
-47.56
-39.46
-31.57
-23.98
-16.59
-9.34
-2.52
3.33
7.68
10.29
11.38
11.57
11.47
11.38
11.13
10.12
7.71
3.58
-2.14
-8.90
-16.07
-23.24
-30.35
-37.65
-45.54
-54.27
-63.88
-74.09
-84.33
-93.76
-101.24
-105.52
-105.39
-100.05
-89.33
-73.85
-54.84
-33.76
-11.94
9.66
30.45
49.98
67.70
82.90
94.89
103.27
108.15
110.16
110.19
109.06
107.20
104.61
101.02
96.15
89.94
82.71
74.97
67.24
59.88
52.92
46.18
39.28
31.85
23.65
14.67
5.17
-4.27
-12.88
-19.78
-24.20
-25.61
-23.92
-19.43
-12.83
-4.97
3.26
11.16
18.30
24.46
29.55
33.47
36.15
37.54
37.79
37.22
36.29
35.33
34.50
33.64
32.43
30.58
27.91
24.51
20.57
16.36
12.03
7.66
3.20
-1.44
-6.33
-11.56
-17.17
-23.23
-29.78
-36.69
-43.54
-49.59
-53.89
-55.52
-53.95
-49.19
-41.87
-32.95
-23.46
-14.14
-5.39
2.62
9.80
15.99
21.04
24.82
27.39
28.97
29.91
30.49
30.82
30.81
30.18
28.63
26.03
22.48
18.30
13.95
9.76
5.87
2.13
-1.75
-6.10
-11.14
-16.94
-23.40
-30.20
-36.86
-42.69
-46.95
-48.90
-48.12
-44.52
-38.51
-30.81
-22.24
-13.62
-5.52
1.68
7.82
12.87
16.85
19.83
21.88
23.08
23.60
23.61
23.30
22.72
21.79
20.35
18.21
15.31
11.77
7.79
3.62
-0.59
-4.87
-9.42
-14.54
-20.47
-27.24
-34.37
-40.96
-45.82
-47.87
-46.60
-42.21
-35.56
-27.77
-19.80
-12.15
-4.89
2.05
8.68
14.71
19.74
23.38
25.49
26.30
26.23
25.81
25.40
25.10
24.70
23.81
22.04
19.24
15.55
11.34
7.10
3.09
-0.66
-4.44
-8.66
-13.69
-19.68
-26.49
-33.69
-40.63
-46.53
-50.56
-52.02
-50.52
-46.06
-39.13
-30.56
-21.30
-12.16
-3.67
3.99
10.80
16.80
21.90
25.95
28.81
30.53
31.37
31.68
31.79
31.81
31.60
30.85
29.26
26.70
23.26
19.26
15.12
11.21
7.65
4.32
0.84
-3.27
-8.41
-14.78
-22.21
-30.25
-38.12
-44.90
-49.67
-51.70
-50.63
-46.55
-39.96
-31.67
-22.58
-13.44
-4.78
3.13
10.16
16.20
21.18
25.10
28.06
30.28
32.04
33.51
34.69
35.40
35.43
34.61
32.97
30.75
28.22
25.60
22.88
19.87
16.32
12.07
7.18
1.92
-3.30
-8.19
-12.66
-16.86
-21.20
-26.15
-32.13
-39.29
-47.47
-56.05
-63.98
-69.98
-72.90
-72.09
-67.65
-60.42
-51.65
-42.59
-34.07
-26.40
-19.54
-13.38
-7.97
-3.55
-0.45
1.23
1.70
1.46
1.11
1.10
1.57
2.38
3.24
3.87
4.15
4.13
3.96
3.78
3.58
3.16
2.16
0.20
-3.06
-7.70
-13.52
-19.94
-26.08
-30.95
-33.63
-33.57
-30.69
-25.40
-18.44
-10.61
-2.59
5.19
12.49
19.18
25.11
30.11
34.01
36.76
38.46
39.31
39.56
39.40
38.88
37.98
36.64
34.77
32.34
29.29
25.68
21.60
17.22
12.78
8.51
4.54
0.74
-3.23
-7.83
-13.46
-20.18
-27.62
-34.93
-41.02
-44.80
-45.53
-42.97
-37.45
-29.68
-20.56
-10.91
-1.35
7.76
16.21
23.91
30.77
36.68
41.52
45.21
47.75
49.20
49.67
49.28
48.19
46.57
44.51
42.05
39.13
35.66
31.54
26.77
21.47
15.82
9.95
3.89
-2.41
-9.07
-16.18
-23.76
-31.83
-40.35
-49.16
-57.86
-65.65
-71.45
-74.13
-72.94
-67.85
-59.63
-49.54
-38.93
-28.69
-19.13
-10.09
-1.32
7.26
15.35
22.53
28.45
33.09
36.69
39.60
41.98
43.72
44.49
43.99
42.19
39.36
35.93
32.25
28.42
24.32
19.77
14.69
9.19
3.48
-2.25
-7.93
-13.63
-19.54
-25.77
-32.31
-38.80
-44.58
-48.70
-50.14
-48.19
-42.74
-34.35
-24.14
-13.42
-3.27
5.76
13.61
20.51
26.68
32.17
36.79
40.31
42.57
43.69
43.98
43.88
43.70
43.49
43.04
41.98
39.99
36.97
33.09
28.67
24.07
19.50
15.03
10.61
6.10
1.35
-3.81
-9.57
-16.08
-23.38
-31.22
-38.96
-45.68
-50.23
-51.60
-49.33
-43.61
-35.36
-25.85
-16.30
-7.51
0.28
7.22
13.57
19.37
24.43
28.43
31.19
32.80
33.63
34.09
34.42
34.51
33.95
32.28
29.21
24.88
19.77
14.54
9.72
5.51
1.71
-2.11
-6.42
-11.54
-17.58
-24.44
-31.88
-39.48
-46.59
-52.28
-55.53
-55.45
-51.66
-44.48
-34.88
-24.21
-13.78
-4.49
3.29
9.64
14.83
19.17
22.78
25.67
27.81
29.27
30.16
30.68
30.88
30.70
29.92
28.38
26.04
23.09
19.89
16.76
13.87
11.16
8.35
5.08
1.04
-3.98
-10.05
-16.97
-24.27
-31.16
-36.65
-39.74
-39.80
-36.68
-30.81
-23.03
-14.31
-5.50
2.78
10.10
16.15
20.69
23.58
24.92
25.07
24.60
24.10
23.99
24.36
24.99
25.50
25.50
24.78
23.35
21.36
19.03
16.50
13.78
10.76
7.28
3.20
-1.50
-6.75
-12.31
-17.83
-22.88
-26.94
-29.54
-30.32
-29.13
-26.06
-21.41
-15.64
-9.27
-2.77
3.43
8.97
13.57
17.03
19.22
20.11
19.85
18.73
17.18
15.61
14.26
13.15
12.05
10.67
8.85
6.63
4.26
1.94
-0.31
-2.77
-5.99
-10.45
-16.32
-23.19
-30.09
-35.82
-39.25
-39.79
-37.47
-32.89
-26.93
-20.42
-13.88
-7.62
-1.72
3.66
8.30
11.93
14.39
15.73
16.20
16.14
15.86
15.49
14.98
14.13
12.70
10.52
7.52
3.79
-0.52
-5.26
-10.37
-15.86
-21.83
-28.23
-34.80
-40.92
-45.78
-48.49
-48.42
-45.44
-39.96
-32.79
-24.90
-17.10
-9.93
-3.61
1.84
6.38
9.98
12.60
14.24
15.04
15.26
15.20
15.04
14.81
14.37
13.52
12.13
10.16
7.66
4.70
1.26
-2.85
-7.83
-13.81
-20.60
-27.60
-33.87
-38.37
-40.28
-39.24
-35.48
-29.60
-22.42
-14.64
-6.78
0.81
7.86
14.07
19.13
22.81
25.04
25.97
25.91
25.19
24.04
22.55
20.68
18.38
15.66
12.65
9.53
6.45
3.44
0.36
-3.10
-7.32
-12.60
-18.95
-25.94
-32.64
-37.87
-40.50
-39.85
-35.92
-29.40
-21.37
-12.89
-4.76
2.65
9.24
15.00
19.82
23.57
26.16
27.66
28.29
28.41
28.27
27.98
27.41
26.34
24.62
22.20
19.24
15.91
12.28
8.26
3.57
-2.07
-8.78
-16.38
-24.27
-31.56
-37.21
-40.28
-40.21
-36.99
-31.18
-23.72
-15.60
-7.60
-0.09
6.92
13.49
19.62
25.10
29.62
32.96
35.10
36.29
36.88
37.17
37.32
37.25
36.72
35.50
33.42
30.50
26.97
23.14
19.29
15.54
11.72
7.47
2.33
-4.01
-11.47
-19.48
-27.07
-33.01
-36.22
-36.03
-32.43
-26.03
-17.88
-9.09
-0.50
7.49
14.82
21.61
27.90
33.51
38.16
41.69
44.13
45.84
47.23
48.61
50.01
51.14
51.58
50.97
49.18
46.38
42.93
39.23
35.60
32.14
28.80
25.37
21.56
17.10
11.77
5.49
-1.50
-8.56
-14.65
-18.52
-19.11
-15.93
-9.13
0.46
11.76
23.64
35.13
45.38
53.57
58.98
61.13
59.97
56.00
50.12
43.26
36.19
29.29
22.59
15.96
9.24
2.31
-4.79
-11.93
-18.83
-25.20
-30.82
-35.60
-39.67
-43.33
-46.93
-50.77
-55.03
-59.81
-65.20
-71.31
-78.11
-85.36
-92.43
-98.31
-101.88
-102.39
-99.70
-94.34
-87.00
-78.06
-67.41
-54.85
-40.75
-26.40
-13.74
-4.36
1.28
4.12
5.85
7.68
9.66
10.64
9.34
5.35
-0.25
-5.43
-8.26
-8.03
-5.56
-2.66
-1.24
-2.51
-6.66
-13.18
-21.27
-30.24
-39.54
-48.69
-56.96
-63.38
-66.88
-66.74
-62.93
-56.19
-47.80
-39.13
-31.16
-24.30
-18.50
-13.51
-9.13
-5.31
-2.08
0.61
2.96
5.23
7.67
10.37
13.23
16.06
18.64
20.80
22.43
23.54
24.23
24.75
25.43
26.49
27.95
29.47
30.37
29.85
27.28
22.55
16.22
9.45
3.62
-0.18
-1.45
-0.47
2.00
5.15
8.48
12.06
16.34
21.77
28.42
35.82
43.06
49.20
53.57
56.04
56.96
56.92
56.52
56.11
55.74
55.23
54.28
52.55
49.70
45.45
39.54
31.86
22.44
11.50
-0.67
-13.80
-27.61
-41.75
-55.64
-68.39
-78.89
-86.06
-89.23
-88.32
-83.84
-76.70
-67.93
-58.47
-49.08
-40.39
-32.92
-27.07
-23.03
-20.63
-19.44
-18.81
-18.10
-16.90
-15.10
-12.92
-10.80
-9.22
-8.62
-9.25
-11.09
-13.74
-16.42
-18.06
-17.67
-14.65
-9.16
-2.08
5.23
11.54
16.18
19.30
21.70
24.41
28.29
33.69
40.48
48.15
56.01
63.38
69.61
74.22
76.90
77.61
76.55
74.11
70.71
66.67
62.19
57.32
52.05
46.39
40.41
34.25
28.09
22.10
16.39
10.93
5.61
0.18
-5.63
-12.02
-19.05
-26.38
-33.29
-38.80
-41.90
-41.87
-38.56
-32.40
-24.28
-15.31
-6.39
1.89
9.33
15.91
21.59
26.19
29.37
30.75
30.16
27.69
23.75
18.93
13.87
9.02
4.60
0.59
-3.14
-6.73
-10.33
-14.03
-18.05
-22.72
-28.47
-35.64
-44.12
-53.28
-61.95
-68.82
-72.88
-73.76
-71.84
-67.89
-62.71
-56.70
-49.84
-41.87
-32.60
-22.21
-11.27
-0.54
9.29
17.78
24.85
30.66
35.43
39.40
42.74
45.58
48.01
50.04
51.54
52.16
51.35
48.51
43.25
35.55
25.89
15.11
4.15
-6.22
-15.42
-23.06
-28.72
-31.91
-32.14
-29.20
-23.34
-15.37
-6.44
2.27
9.98
16.47
22.05
27.31
32.82
38.84
45.17
51.29
56.52
60.28
62.27
62.52
61.27
58.80
55.30
50.89
45.79
40.35
35.07
30.26
25.86
21.28
15.80
8.99
1.13
-6.81
-13.70
-18.87
-22.55
-25.61
-28.94
-32.79
-36.43
-38.56
-38.05
-34.67
-29.32
-23.79
-20.08
-19.77
-23.60
-31.30
-41.80
-53.47
-64.60
-73.81
-80.36
-84.18
-85.71
-85.53
-84.16
-82.06
-79.73
-77.90
-77.38
-78.79
-82.32
-87.61
-93.97
-100.81
-108.01
-116.01
-125.59
-137.42
-151.68
-167.81
-184.60
-200.48
-213.89
-223.81
-229.98
-233.04
-234.12
-234.18
-233.18
-229.51
-220.11
-201.17
-169.48
-123.74
-65.63
0.02
66.11
124.84
169.67
197.02
206.98
202.95
190.28
174.47
159.76
148.48
141.24
137.59
136.76
138.04
140.64
143.67
146.08
146.97
145.95
143.29
139.79
136.36
133.56
131.34
129.07
125.88
121.07
114.35
105.97
96.56
86.85
77.34
68.08
58.62
48.17
35.99
21.77
5.99
-10.14
-24.92
-36.75
-44.65
-48.47
-48.91
-47.07
-44.07
-40.61
-36.98
-33.07
-28.74
-23.94
-18.84
-13.74
-8.97
-4.79
-1.30
1.43
3.42
4.66
5.13
4.84
3.84
2.30
0.42
-1.64
-3.81
-6.29
-9.44
-13.70
-19.39
-26.47
-34.42
-42.27
-48.77
-52.71
-53.26
-50.25
-44.15
-35.99
-26.96
-18.13
-10.15
-3.22
2.79
8.07
12.73
16.68
19.77
21.91
23.18
23.80
23.97
23.74
22.94
21.35
18.79
15.28
11.11
6.62
2.05
-2.67
-7.87
-14.06
-21.56
-30.22
-39.33
-47.60
-53.64
-56.30
-55.10
-50.41
-43.16
-34.57
-25.60
-16.82
-8.36
-0.21
7.60
14.82
21.10
26.14
29.85
32.39
34.10
35.37
36.45
37.35
37.90
37.82
36.83
34.83
31.97
28.55
24.95
21.38
17.86
14.20
10.15
5.52
0.18
-5.92
-12.82
-20.40
-28.27
-35.56
-41.07
-43.59
-42.31
-37.28
-29.30
-19.69
-9.74
-0.28
8.40
16.39
23.83
30.65
36.62
41.50
45.20
47.88
49.88
51.45
52.68
53.47
53.63
53.05
51.75
49.89
47.65
45.11
42.20
38.78
34.74
30.04
24.81
19.29
13.73
8.35
3.19
-1.87
-7.16
-13.09
-19.90
-27.50
-35.24
-42.00
-46.50
-47.71
-45.20
-39.33
-31.03
-21.51
-11.87
-2.87
5.11
12.01
17.91
22.92
27.14
30.66
33.56
35.98
38.09
40.06
41.94
43.62
44.86
45.34
44.85
43.33
40.87
37.68
33.90
29.62
24.89
19.82
14.56
9.38
4.47
-0.18
-4.82
-9.93
-15.96
-23.04
-30.75
-38.03
-43.53
-45.99
-44.75
-40.04
-32.81
-24.40
-16.00
-8.32
-1.51
4.61
10.24
15.42
19.96
23.63
26.30
28.07
29.24
30.12
30.93
31.61
31.89
31.41
29.94
27.48
24.25
20.56
16.68
12.72
8.67
4.45
-0.04
-4.85
-10.06
-15.75
-22.00
-28.85
-36.18
-43.58
-50.34
-55.50
-58.12
-57.52
-53.58
-46.77
-38.03
-28.38
-18.63
-9.21
-0.20
8.34
16.26
23.20
28.81
32.93
35.74
37.66
39.16
40.50
41.63
42.29
42.16
41.15
39.44
37.36
35.22
33.08
30.75
27.88
24.20
19.68
14.57
9.26
4.12
-0.70
-5.23
-9.65
-14.16
-19.00
-24.40
-30.63
-37.81
-45.72
-53.63
-60.34
-64.56
-65.23
-62.00
-55.34
-46.26
-35.99
-25.59
-15.70
-6.60
1.68
9.14
15.79
21.51
26.23
29.95
32.77
34.92
36.71
38.40
40.07
41.61
42.72
43.11
42.64
41.36
39.51
37.40
35.22
33.00
30.60
27.79
24.33
20.08
15.06
9.50
3.72
-1.92
-7.26
-12.32
-17.38
-22.76
-28.80
-35.64
-43.13
-50.82
-57.97
-63.62
-66.81
-66.81
-63.37
-56.79
-47.87
-37.61
-26.96
-16.59
-6.92
1.85
9.54
16.02
21.23
25.23
28.30
30.74
32.82
34.61
36.01
36.80
36.81
36.02
34.63
32.91
31.11
29.28
27.28
24.81
21.55
17.36
12.33
6.77
1.12
-4.27
-9.19
-13.77
-18.33
-23.31
-29.10
-35.76
-42.94
-49.88
-55.52
-58.79
-58.93
-55.66
-49.31
-40.77
-31.17
-21.58
-12.70
-4.76
2.35
8.84
14.73
19.81
23.76
26.39
27.77
28.29
28.41
28.41
28.30
27.85
26.77
24.95
22.48
19.56
16.38
12.97
9.30
5.31
0.97
-3.72
-8.72
-14.16
-20.16
-26.81
-33.95
-41.06
-47.27
-51.58
-53.20
-51.73
-47.37
-40.77
-32.83
-24.41
-16.08
-8.18
-0.80
6.02
12.25
17.76
22.46
26.31
29.36
31.74
33.57
34.95
35.92
36.49
36.67
36.49
35.99
35.12
33.85
32.05
29.67
26.70
23.21
19.33
15.21
10.95
6.65
2.33
-2.12
-6.87
-12.16
-18.04
-24.18
-29.79
-33.59
-34.32
-31.15
-24.04
-13.81
-1.83
10.42
21.88
32.13
41.31
49.92
58.47
67.31
76.51
85.87
94.93
103.05
109.53
113.70
115.01
113.11
107.86
99.22
87.35
72.56
55.40
36.58
16.92
-2.64
-21.16
-37.72
-51.49
-61.94
-69.09
-73.62
-76.79
-80.15
-84.87
-91.20
-98.15
-103.68
-105.39
-101.37
-90.93
-74.84
-54.96
-33.52
-12.39
7.35
25.35
41.61
55.99
67.98
76.85
81.94
83.01
80.35
74.75
67.23
58.84
50.51
42.87
36.14
30.05
23.93
16.90
8.18
-2.60
-15.26
-29.27
-43.89
-58.52
-72.86
-86.99
-101.24
-115.97
-131.36
-147.11
-162.09
-174.30
-181.24
-180.63
-171.32
-153.85
-130.42
-104.07
-77.70
-53.24
-31.50
-12.46
3.97
17.61
28.03
34.97
38.67
39.96
40.01
39.77
39.60
39.22
38.03
35.46
31.31
25.98
20.19
14.77
10.29
6.89
4.21
1.58
-1.72
-6.20
-11.88
-18.35
-24.82
-30.31
-33.96
-35.20
-33.85
-30.09
-24.30
-16.87
-8.12
1.79
12.66
24.20
35.87
46.91
56.59
64.36
70.16
74.43
78.05
81.87
86.29
90.95
94.65
95.82
93.16
86.46
76.81
66.26
56.91
49.93
45.00
40.57
34.51
24.81
10.06
-10.49
-36.67
-67.03
-98.27
-125.30
-142.36
-145.08
-132.48
-107.90
-77.86
-49.44
-27.47
-13.07
-4.20
2.40
9.05
16.26
23.24
29.23
34.61
40.95
50.09
62.89
78.53
94.54
107.84
115.85
117.36
112.78
103.66
91.88
78.84
65.05
50.27
33.99
16.15
-2.40
-20.00
-34.71
-45.10
-50.85
-52.76
-52.37
-51.17
-49.94
-48.54
-46.19
-42.14
-36.23
-29.28
-22.79
-18.35
-16.93
-18.43
-21.76
-25.32
-27.72
-28.32
-27.29
-25.43
-23.58
-22.26
-21.60
-21.49
-21.90
-23.06
-25.46
-29.44
-34.92
-41.12
-46.66
-50.00
-49.91
-45.97
-38.65
-29.15
-18.96
-9.38
-1.20
5.38
10.63
14.98
18.77
22.14
24.99
27.11
28.43
29.09
29.38
29.52
29.51
29.08
27.85
25.53
22.12
17.84
12.97
7.63
1.80
-4.61
-11.41
-18.09
-23.76
-27.39
-28.23
-26.00
-21.14
-14.64
-7.77
-1.73
2.69
5.19
5.85
4.94
2.68
-0.80
-5.40
-10.92
-16.91
-22.75
-27.82
-31.70
-34.35
-36.13
-37.63
-39.43
-41.85
-44.81
-47.96
-50.88
-53.40
-55.67
-57.93
-60.19
-61.95
-62.18
-59.83
-54.25
-45.70
-35.20
-24.18
-13.96
-5.25
1.83
7.58
12.36
16.33
19.49
21.71
22.96
23.32
22.98
22.12
20.84
19.15
17.06
14.50
11.47
7.94
3.92
-0.58
-5.52
-10.88
-16.56
-22.34
-27.73
-31.97
-34.17
-33.58
-29.88
-23.39
-15.01
-5.92
2.76
10.31
16.47
21.34
25.15
28.13
30.42
32.08
33.22
33.91
34.29
34.42
34.34
34.00
33.31
32.19
30.57
28.45
25.81
22.61
18.67
13.73
7.62
0.46
-7.19
-14.42
-20.17
-23.55
-24.14
-22.11
-18.17
-13.28
-8.50
-4.62
-2.14
-1.10
-1.24
-2.05
-3.01
-3.65
-3.67
-2.94
-1.48
0.54
2.85
5.10
6.90
8.01
8.26
7.58
6.01
3.67
0.83
-2.14
-4.80
-6.90
-8.45
-9.81
-11.48
-13.85
-17.02
-20.69
-24.22
-27.00
-28.55
-28.69
-27.33
-24.31
-19.39
-12.50
-4.00
5.08
13.22
18.96
21.57
21.45
20.00
18.95
19.49
21.68
24.52
26.44
26.14
23.13
17.80
11.08
3.99
-2.79
-9.07
-15.10
-21.42
-28.49
-36.41
-44.61
-51.63
-55.37
-53.63
-44.91
-29.04
-7.45
17.13
41.40
62.27
77.49
86.01
87.86
84.07
76.28
66.45
56.34
47.20
39.55
33.26
27.86
22.91
18.15
13.46
8.73
3.71
-1.92
-8.39
-15.68
-23.43
-30.95
-37.34
-41.76
-43.55
-42.43
-38.51
-32.26
-24.43
-15.85
-7.34
0.41
6.81
11.46
14.18
15.04
14.33
12.61
10.58
9.01
8.44
9.07
10.65
12.52
14.01
14.65
14.41
13.55
12.36
10.85
8.79
6.04
3.01
0.83
1.20
5.62
14.72
27.86
43.21
58.48
71.70
81.85
89.02
94.06
98.04
101.58
104.73
106.98
107.77
106.78
104.09
99.97
94.60
87.97
80.09
71.19
61.77
52.17
42.02
30.11
15.00
-3.97
-25.70
-47.28
-64.98
-75.84
-78.95
-75.70
-68.82
-61.05
-54.02
-47.92
-42.00
-35.31
-27.20
-17.40
-5.87
7.27
21.69
36.62
50.71
62.17
69.30
70.96
66.97
58.04
45.36
30.24
13.78
-3.06
-19.23
-33.53
-44.77
-52.15
-55.66
-56.05
-54.50
-52.17
-49.84
-47.90
-46.40
-45.27
-44.29
-42.97
-40.74
-37.36
-33.32
-29.69
-27.67
-28.01
-31.05
-37.00
-46.51
-60.58
-79.79
-103.40
-128.94
-152.94
-172.50
-186.70
-196.86
-205.56
-214.78
-224.53
-232.82
-236.85
-234.58
-225.78
-211.87
-195.04
-177.13
-159.28
-141.62
-123.85
-105.67
-87.11
-68.59
-50.69
-33.91
-18.45
-4.22
9.06
21.58
33.26
43.71
52.36
58.73
62.59
64.04
63.42
61.11
57.34
52.21
45.91
38.95
32.30
27.18
24.71
25.42
29.03
34.51
40.53
45.85
49.82
52.30
53.53
53.82
53.38
52.32
50.67
48.52
46.04
43.43
40.85
38.38
36.02
33.76
31.58
29.50
27.47
25.26
22.41
18.38
12.79
5.79
-1.77
-8.41
-12.52
-12.98
-9.64
-3.35
4.40
12.16
19.01
24.72
29.45
33.46
36.76
39.17
40.52
40.85
40.48
39.92
39.60
39.72
40.25
40.92
41.36
41.09
39.65
36.57
31.52
24.43
15.53
5.52
-4.59
-13.61
-20.44
-24.35
-25.16
-23.26
-19.45
-14.64
-9.60
-4.84
-0.65
2.83
5.40
6.90
7.24
6.52
5.11
3.49
2.14
1.32
0.99
0.78
0.17
-1.34
-4.12
-8.36
-14.03
-20.86
-28.30
-35.41
-40.98
-43.80
-42.99
-38.42
-30.80
-21.38
-11.51
-2.10
6.58
14.69
22.39
29.51
35.47
39.54
41.30
40.91
39.06
36.68
34.49
32.73
31.16
29.34
26.85
23.50
19.27
14.20
8.22
1.23
-6.70
-15.13
-23.06
-29.15
-32.09
-31.14
-26.36
-18.60
-9.16
0.67
9.97
18.31
25.54
31.66
36.61
40.33
42.86
44.39
45.21
45.58
45.52
44.87
43.33
40.73
37.05
32.54
27.55
22.41
17.28
12.14
6.78
0.82
-6.08
-14.12
-23.07
-32.12
-40.00
-45.26
-46.79
-44.23
-38.11
-29.56
-19.87
-9.99
-0.31
9.16
18.50
27.59
36.01
43.24
48.88
52.84
55.34
56.79
57.56
57.83
57.60
56.76
55.20
52.91
50.03
46.74
43.15
39.28
35.03
30.28
25.04
19.41
13.61
7.79
1.92
-4.27
-11.21
-19.24
-28.26
-37.66
-46.20
-52.38
-54.92
-53.20
-47.50
-38.95
-29.07
-19.19
-10.08
-1.80
5.93
13.38
20.49
26.80
31.72
34.88
36.26
36.27
35.46
34.33
33.02
31.41
29.19
26.10
22.18
17.68
13.04
8.67
4.70
0.98
-2.86
-7.20
-12.28
-18.18
-24.79
-31.93
-39.20
-45.98
-51.36
-54.26
-53.79
-49.63
-42.19
-32.56
-22.04
-11.70
-2.02
7.01
15.63
23.92
31.63
38.28
43.37
46.73
48.52
49.19
49.29
49.20
49.05
48.72
47.95
46.50
44.22
41.09
37.19
32.66
27.61
22.15
16.37
10.41
4.40
-1.52
-7.34
-13.24
-19.63
-26.90
-35.27
-44.45
-53.51
-61.06
-65.61
-66.11
-62.35
-55.05
-45.56
-35.40
-25.66
-16.82
-8.81
-1.28
5.98
12.85
19.01
24.12
28.02
30.85
32.91
34.45
35.52
35.98
35.59
34.22
31.89
28.77
25.10
21.08
16.77
12.22
7.41
2.39
-2.70
-7.70
-12.49
-17.11
-21.78
-26.90
-32.83
-39.71
-47.21
-54.51
-60.42
-63.76
-63.72
-60.14
-53.54
-44.92
-35.30
-25.50
-15.85
-6.32
3.26
12.93
22.38
31.07
38.41
44.06
48.11
50.98
53.18
55.09
56.76
57.96
58.38
57.82
56.35
54.30
52.06
49.89
47.78
45.46
42.46
38.46
33.38
27.45
21.13
14.91
9.05
3.54
-1.83
-7.35
-13.25
-19.66
-26.69
-34.45
-42.95
-51.93
-60.76
-68.34
-73.41
-74.92
-72.38
-66.13
-57.13
-46.67
-35.90
-25.56
-15.82
-6.55
2.42
11.05
19.03
25.99
31.70
36.21
39.79
42.74
45.17
46.99
47.96
47.96
47.11
45.73
44.19
42.72
41.30
39.73
37.72
35.10
31.76
27.76
23.22
18.34
13.42
8.71
4.41
0.52
-3.15
-6.96
-11.31
-16.53
-22.67
-29.43
-36.04
-41.36
-44.11
-43.24
-38.25
-29.33
-17.37
-3.58
10.79
24.68
37.35
48.36
57.51
64.81
70.49
74.93
78.44
81.12
82.73
82.87
81.08
77.16
71.11
63.14
53.54
42.63
30.87
18.87
7.39
-2.94
-11.89
-19.71
-27.05
-34.53
-42.35
-50.19
-57.36
-63.24
-67.65
-70.97
-73.91
-77.27
-81.53
-86.72
-92.38
-97.67
-101.46
-102.59
-100.12
-93.64
-83.48
-70.67
-56.71
-43.09
-30.91
-20.64
-12.18
-5.21
0.53
5.07
8.32
10.32
11.47
12.61
14.81
18.96
25.38
33.59
42.35
50.21
55.94
58.98
59.45
57.84
54.58
49.79
43.35
35.15
25.43
14.62
3.06
-9.37
-23.17
-38.62
-54.85
-69.52
-79.37
-81.54
-75.12
-61.64
-44.45
-27.17
-12.18
-0.06
9.86
18.17
24.42
27.17
24.96
17.62
6.92
-3.82
-11.16
-13.04
-9.71
-3.52
2.22
4.81
3.26
-1.43
-7.00
-11.09
-12.27
-10.42
-6.33
-1.22
3.68
7.15
7.88
4.70
-2.85
-14.04
-26.63
-37.51
-43.80
-44.05
-38.64
-29.38
-18.47
-7.52
2.84
12.81
22.69
32.37
41.08
47.68
51.08
50.79
47.04
40.70
32.84
24.31
15.52
6.54
-2.53
-11.25
-18.81
-24.31
-27.26
-27.99
-27.60
-27.63
-29.32
-33.45
-39.97
-48.15
-56.75
-64.32
-69.45
-71.16
-69.12
-63.70
-55.83
-46.61
-36.99
-27.56
-18.62
-10.35
-2.97
3.21
7.90
10.97
12.59
13.16
13.18
13.07
13.00
12.88
12.42
11.35
9.52
7.04
4.16
1.22
-1.51
-3.93
-6.07
-8.07
-10.09
-12.19
-14.29
-16.11
-17.23
-17.24
-15.76
-12.60
-7.78
-1.47
5.98
14.11
22.42
30.36
37.45
43.33
47.81
50.94
52.87
53.81
53.89
53.20
51.80
49.71
46.96
43.48
39.12
33.70
27.06
19.19
10.26
0.52
-9.81
-20.62
-31.93
-43.72
-55.87
-67.86
-78.91
-87.95
-93.94
-96.08
-94.10
-88.32
-79.61
-69.15
-58.15
-47.57
-38.00
-29.73
-22.83
-17.28
-13.01
-9.86
-7.57
-5.86
-4.40
-2.96
-1.51
-0.15
0.88
1.34
1.05
-0.03
-1.88
-4.50
-8.03
-12.71
-18.64
-25.56
-32.66
-38.65
-42.18
-42.28
-38.74
-32.10
-23.39
-13.73
-4.00
5.22
13.60
20.95
27.13
32.10
35.93
38.81
40.91
42.33
43.06
43.06
42.28
40.73
38.50
35.70
32.45
28.81
24.79
20.32
15.22
9.27
2.23
-6.01
-15.26
-24.89
-33.82
-40.71
-44.31
-43.94
-39.72
-32.63
-24.09
-15.44
-7.44
-0.17
6.80
13.90
21.18
28.15
34.05
38.27
40.61
41.48
41.59
41.66
42.00
42.45
42.50
41.59
39.43
36.07
31.85
27.21
22.46
17.73
12.99
8.15
3.08
-2.41
-8.60
-15.84
-24.32
-33.87
-43.67
-52.36
-58.31
-60.22
-57.53
-50.70
-40.90
-29.65
-18.23
-7.39
2.70
12.17
21.17
29.62
37.19
43.52
48.37
51.83
54.24
56.06
57.58
58.77
59.33
58.84
57.08
54.22
50.75
47.26
44.15
41.36
38.45
34.79
29.99
24.03
17.37
10.66
4.49
-0.91
-5.72
-10.37
-15.34
-20.99
-27.53
-35.06
-43.50
-52.43
-60.95
-67.68
-71.07
-69.96
-64.07
-54.24
-42.08
-29.41
-17.58
-7.15
2.02
10.38
18.25
25.63
32.26
37.83
42.22
45.55
48.12
50.21
52.00
53.45
54.37
54.49
53.68
52.00
49.73
47.24
44.85
42.60
40.28
37.50
33.91
29.38
24.07
18.43
12.99
8.12
3.87
-0.04
-4.11
-8.77
-14.26
-20.57
-27.45
-34.51
-41.23
-46.96
-50.89
-52.12
-49.94
-44.16
-35.26
-24.37
-12.86
-1.92
7.82
16.30
23.78
30.53
36.63
41.94
46.29
49.64
52.05
53.67
54.61
54.92
54.63
53.73
52.27
50.32
47.89
44.95
41.46
37.38
32.76
27.70
22.30
16.72
11.07
5.48
-0.01
-5.45
-11.03
-17.11
-24.00
-31.80
-40.15
-48.13
-54.46
-57.83
-57.36
-52.98
-45.46
-36.09
-26.27
-17.01
-8.83
-1.80
4.16
9.01
12.61
14.82
15.75
15.80
15.62
15.72
16.26
16.92
17.09
16.16
13.82
10.25
5.96
1.62
-2.30
-5.71
-8.90
-12.47
-17.04
-23.04
-30.49
-38.92
-47.39
-54.64
-59.39
-60.68
-58.13
-52.13
-43.64
-33.89
-23.97
-14.59
-6.04
1.62
8.36
14.03
18.36
21.26
22.87
23.64
24.12
24.68
25.38
25.96
25.94
24.90
22.67
19.37
15.33
10.97
6.62
2.42
-1.70
-6.00
-10.78
-16.29
-22.67
-29.87
-37.64
-45.37
-52.17
-56.88
-58.44
-56.16
-50.12
-41.14
-30.55
-19.72
-9.56
-0.49
7.57
14.85
21.43
27.20
31.96
35.59
38.17
39.88
40.94
41.47
41.48
40.91
39.73
38.00
35.83
33.31
30.49
27.33
23.68
19.43
14.50
8.98
3.11
-2.83
-8.59
-14.07
-19.41
-24.91
-30.91
-37.64
-44.92
-52.10
-58.02
-61.32
-60.87
-56.22
-47.80
-36.93
-25.28
-14.28
-4.74
3.29
10.29
16.82
23.15
29.15
34.44
38.63
41.48
43.00
43.38
42.91
41.79
40.21
38.27
36.01
33.44
30.55
27.30
23.67
19.65
15.25
10.51
5.58
0.61
-4.27
-9.08
-14.07
-19.59
-25.98
-33.26
-40.98
-48.19
-53.67
-56.30
-55.43
-51.16
-44.21
-35.68
-26.65
-17.94
-9.93
-2.74
3.61
9.03
13.30
16.22
17.78
18.29
18.24
18.13
18.22
18.39
18.27
17.39
15.50
12.66
9.24
5.68
2.31
-0.85
-4.05
-7.68
-12.11
-17.56
-24.00
-31.07
-38.11
-44.19
-48.30
-49.55
-47.51
-42.36
-34.85
-26.08
-17.11
-8.63
-0.93
6.05
12.40
18.02
22.68
26.07
28.10
28.99
29.17
29.16
29.23
29.37
29.24
28.43
26.63
23.75
20.02
15.77
11.37
6.99
2.64
-1.84
-6.68
-12.11
-18.24
-25.11
-32.56
-40.17
-47.24
-52.79
-55.85
-55.67
-52.09
-45.54
-36.98
-27.56
-18.22
-9.49
-1.50
5.91
12.85
19.30
25.08
29.91
33.63
36.14
37.50
37.88
37.52
36.65
35.47
34.08
32.44
30.43
27.93
24.89
21.39
17.55
13.48
9.24
4.82
0.18
-4.71
-9.89
-15.50
-21.73
-28.69
-36.23
-43.74
-50.15
-54.22
-54.89
-51.73
-45.13
-36.13
-26.06
-16.14
-7.13
0.71
7.46
13.33
18.43
22.75
26.24
28.91
30.91
32.51
33.88
35.04
35.77
35.77
34.81
32.90
30.30
27.40
24.52
21.79
19.10
16.24
13.02
9.32
5.10
0.36
-4.91
-10.52
-16.03
-20.61
-23.33
-23.41
-20.50
-14.79
-6.80
2.86
13.65
24.98
36.14
46.23
54.44
60.38
64.37
67.34
70.37
74.08
78.27
82.11
84.48
84.67
82.50
78.30
72.62
66.00
58.88
51.78
45.21
39.59
34.95
30.85
26.38
20.66
13.27
4.59
-4.30
-12.04
-17.58
-20.56
-21.44
-21.12
-20.55
-20.36
-20.65
-21.13
-21.39
-21.12
-20.26
-18.89
-17.18
-15.27
-13.32
-11.59
-10.52
-10.55
-12.01
-14.82
-18.50
-22.27
-25.32
-27.20
-27.90
-27.88
-27.87
-28.67
-30.86
-34.67
-39.92
-45.92
-51.66
-56.06
-58.33
-58.16
-55.90
-52.32
-48.48
-45.39
-43.82
-44.09
-46.00
-48.88
-51.73
-53.57
-53.72
-51.96
-48.52
-43.84
-38.37
-32.38
-26.11
-19.85
-14.14
-9.56
-6.57
-5.12
-4.66
-4.25
-2.88
-0.02
4.23
9.15
13.65
16.71
17.75
16.83
14.67
12.53
11.87
13.98
19.55
28.31
38.91
49.18
56.69
59.46
56.65
48.72
37.25
24.31
11.80
1.04
-7.44
-13.78
-18.56
-22.66
-27.08
-32.75
-40.30
-49.79
-60.61
-71.54
-81.18
-88.40
-92.76
-94.58
-94.67
-93.88
-92.70
-91.15
-88.88
-85.53
-81.01
-75.55
-69.67
-63.88
-58.57
-53.90
-49.89
-46.43
-43.41
-40.84
-38.78
-37.40
-36.89
-37.33
-38.63
-40.45
-42.31
-43.81
-44.73
-45.22
-45.71
-46.79
-49.08
-53.05
-58.84
-66.11
-73.77
-79.88
-81.97
-77.79
-66.21
-47.94
-25.63
-3.01
16.39
30.52
39.31
44.28
47.52
50.59
53.93
57.02
58.92
59.04
57.43
54.79
52.04
49.97
48.79
48.15
47.29
45.44
42.22
37.75
32.44
26.66
20.43
13.47
5.57
-2.96
-11.07
-17.22
-19.98
-18.65
-13.58
-6.01
2.45
10.47
17.28
22.77
27.22
31.01
34.41
37.47
40.03
41.82
42.57
42.14
40.68
38.65
36.77
35.76
36.04
37.51
39.36
40.31
38.98
34.60
27.42
18.99
11.73
8.30
10.64
19.43
33.90
52.01
70.80
86.92
97.31
100.05
95.15
84.79
72.73
62.89
57.73
57.37
59.77
62.03
62.00
59.18
54.66
50.08
46.55
44.18
42.30
40.18
37.49
34.38
31.10
27.74
24.08
19.82
14.88
9.64
4.96
1.95
1.55
4.28
9.94
17.72
26.41
34.83
42.13
47.92
52.23
55.29
57.26
58.07
57.50
55.23
51.06
45.00
37.37
28.78
20.08
12.20
5.96
1.80
-0.34
-1.04
-1.18
-1.68
-3.15
-5.76
-9.23
-12.96
-16.35
-18.96
-20.65
-21.49
-21.78
-21.82
-21.80
-21.85
-21.95
-22.10
-22.20
-22.15
-21.77
-20.84
-19.24
-16.94
-14.14
-11.16
-8.41
-6.27
-5.01
-4.72
-5.35
-6.76
-8.82
-11.53
-14.89
-18.95
-23.64
-28.69
-33.70
-38.17
-41.74
-44.22
-45.72
-46.45
-46.69
-46.60
-46.19
-45.38
-44.05
-42.09
-39.43
-36.06
-32.06
-27.70
-23.41
-19.71
-17.09
-15.86
-16.04
-17.32
-19.23
-21.28
-23.18
-24.90
-26.55
-28.35
-30.38
-32.63
-35.01
-37.54
-40.31
-43.47
-47.14
-51.26
-55.59
-59.70
-63.14
-65.49
-66.38
-65.56
-62.87
-58.39
-52.44
-45.58
-38.44
-31.57
-25.25
-19.57
-14.46
-9.88
-5.83
-2.29
0.81
3.70
6.57
9.52
12.41
14.90
16.64
17.38
17.10
15.99
14.30
12.29
10.08
7.74
5.27
2.60
-0.35
-3.68
-7.37
-11.27
-15.07
-18.33
-20.64
-21.69
-21.33
-19.58
-16.52
-12.36
-7.37
-1.93
3.51
8.47
12.57
15.63
17.64
18.78
19.31
19.46
19.37
19.05
18.44
17.45
16.01
14.11
11.77
9.02
5.91
2.44
-1.36
-5.55
-10.19
-15.31
-20.88
-26.63
-32.07
-36.54
-39.41
-40.25
-38.94
-35.68
-30.83
-24.88
-18.27
-11.46
-4.88
1.07
6.17
10.31
13.60
16.20
18.25
19.84
20.96
21.55
21.58
21.06
19.97
18.32
16.14
13.47
10.45
7.22
3.88
0.46
-3.18
-7.28
-12.07
-17.56
-23.37
-28.71
-32.61
-34.20
-33.07
-29.42
-23.95
-17.57
-10.98
-4.59
1.57
7.53
13.21
18.33
22.55
25.61
27.54
28.56
28.96
28.93
28.50
27.58
26.10
24.10
21.77
19.40
17.28
15.48
13.87
12.12
9.77
6.43
1.89
-3.81
-10.23
-16.61
-21.94
-25.17
-25.49
-22.62
-16.92
-9.28
-0.88
7.19
14.25
20.05
24.70
28.33
31.02
32.73
33.43
33.23
32.41
31.33
30.30
29.43
28.61
27.56
25.98
23.78
21.07
18.18
15.46
13.12
11.09
8.99
6.31
2.63
-2.19
-7.88
-13.80
-19.10
-22.89
-24.52
-23.69
-20.51
-15.49
-9.31
-2.71
3.70
9.54
14.58
18.68
21.75
23.75
24.73
24.88
24.43
23.60
22.49
21.09
19.34
17.22
14.79
12.14
9.30
6.20
2.70
-1.33
-5.93
-11.09
-16.70
-22.67
-28.83
-34.84
-40.11
-43.87
-45.30
-43.83
-39.43
-32.56
-24.15
-15.27
-6.77
0.83
7.35
12.79
17.17
20.48
22.76
24.14
24.83
25.04
24.87
24.25
23.02
21.06
18.41
15.35
12.17
9.15
6.34
3.64
0.78
-2.55
-6.68
-11.82
-17.89
-24.39
-30.39
-34.69
-36.23
-34.37
-29.22
-21.59
-12.66
-3.61
4.66
11.66
17.25
21.48
24.43
26.23
27.05
27.07
26.53
25.66
24.62
23.47
22.14
20.48
18.35
15.70
12.65
9.35
5.95
2.39
-1.60
-6.42
-12.34
-19.22
-26.46
-33.01
-37.74
-39.76
-38.69
-34.78
-28.74
-21.41
-13.62
-5.96
1.17
7.52
12.92
17.21
20.34
22.34
23.38
23.71
23.56
23.05
22.13
20.66
18.47
15.54
11.97
7.96
3.74
-0.50
-4.74
-9.11
-13.82
-19.12
-25.09
-31.59
-38.18
-44.15
-48.64
-50.83
-50.15
-46.43
-39.98
-31.54
-22.04
-12.40
-3.26
5.05
12.50
19.15
24.95
29.71
33.15
35.15
35.81
35.55
34.86
34.10
33.32
32.20
30.34
27.45
23.56
18.99
14.23
9.66
5.47
1.59
-2.15
-6.04
-10.33
-15.29
-21.12
-27.91
-35.40
-42.96
-49.54
-53.92
-55.02
-52.36
-46.19
-37.46
-27.47
-17.36
-7.85
0.87
8.90
16.33
22.99
28.53
32.56
34.97
36.01
36.20
36.10
36.02
36.00
35.78
35.01
33.38
30.75
27.21
23.01
18.52
14.06
9.80
5.67
1.46
-3.12
-8.32
-14.20
-20.69
-27.64
-34.72
-41.34
-46.68
-49.74
-49.68
-46.18
-39.58
-30.91
-21.39
-12.10
-3.62
3.95
10.78
16.96
22.36
26.71
29.79
31.63
32.53
32.92
33.14
33.26
33.07
32.17
30.21
27.01
22.76
17.90
12.92
8.17
3.75
-0.50
-4.93
-9.83
-15.44
-21.78
-28.83
-36.41
-44.13
-51.33
-57.04
-60.20
-59.94
-55.96
-48.66
-39.06
-28.38
-17.65
-7.36
2.45
11.98
21.29
30.07
37.75
43.81
47.99
50.55
51.99
52.83
53.26
53.17
52.27
50.38
47.67
44.55
41.48
38.71
36.11
33.28
29.73
25.18
19.70
13.71
7.78
2.37
-2.33
-6.49
-10.61
-15.25
-20.87
-27.67
-35.47
-43.75
-51.63
-58.08
-62.00
-62.49
-59.19
-52.34
-42.86
-31.97
-20.89
-10.36
-0.64
8.45
17.18
25.61
33.50
40.38
45.80
49.47
51.41
51.98
51.68
51.03
50.41
49.92
49.45
48.68
47.36
45.32
42.62
39.44
35.89
31.94
27.39
22.02
15.77
8.91
1.93
-4.63
-10.40
-15.39
-19.97
-24.69
-30.09
-36.42
-43.58
-51.08
-58.09
-63.64
-66.79
-66.92
-63.89
-58.13
-50.44
-41.73
-32.77
-23.98
-15.43
-7.06
1.13
8.95
15.95
21.63
25.65
27.97
28.95
29.16
29.18
29.32
29.57
29.58
28.90
27.16
24.25
20.31
15.70
10.89
6.27
2.10
-1.66
-5.22
-9.06
-13.65
-19.37
-26.26
-33.99
-41.83
-48.72
-53.47
-55.09
-53.06
-47.53
-39.36
-29.83
-20.18
-11.29
-3.46
3.43
9.64
15.24
20.10
23.98
26.69
28.26
28.85
28.74
28.11
27.08
25.65
23.85
21.65
19.03
16.01
12.62
8.91
4.99
0.92
-3.26
-7.61
-12.21
-17.13
-22.46
-28.22
-34.35
-40.66
-46.73
-51.83
-55.07
-55.64
-52.97
-47.02
-38.25
-27.45
-15.62
-3.66
7.71
17.95
26.68
33.64
38.76
42.22
44.52
46.32
48.24
50.63
53.38
55.99
57.77
58.20
57.04
54.44
50.79
46.50
41.89
37.18
32.46
27.79
23.13
18.39
13.41
8.08
2.40
-3.42
-9.15
-14.58
-19.72
-24.80
-30.14
-36.06
-42.66
-49.75
-56.87
-63.29
-68.15
-70.66
-70.17
-66.49
-59.86
-50.97
-40.72
-29.99
-19.41
-9.31
0.25
9.19
17.36
24.51
30.33
34.73
37.81
39.90
41.37
42.43
43.10
43.18
42.48
40.88
38.51
35.63
32.52
29.31
25.99
22.41
18.41
13.90
8.95
3.77
-1.35
-6.17
-10.57
-14.60
-18.54
-22.77
-27.66
-33.47
-40.14
-47.25
-53.96
-59.21
-61.92
-61.31
-57.10
-49.74
-40.19
-29.64
-19.21
-9.62
-1.14
6.21
12.52
17.74
21.77
24.53
26.15
26.97
27.42
27.87
28.38
28.78
28.70
27.78
25.78
22.71
18.76
14.24
9.51
4.84
0.33
-4.13
-8.79
-13.98
-20.05
-27.14
-35.11
-43.38
-50.96
-56.60
-59.11
-57.80
-52.64
-44.35
-34.11
-23.16
-12.41
-2.38
6.78
15.02
22.21
28.19
32.81
36.08
38.19
39.45
40.15
40.44
40.31
39.62
38.22
35.97
32.87
28.95
24.34
19.18
13.62
7.78
1.75
-4.39
-10.57
-16.82
-23.20
-29.92
-37.18
-45.10
-53.54
-61.94
-69.35
-74.55
-76.42
-74.23
-67.92
-58.13
-46.03
-32.96
-20.07
-8.12
2.64
12.23
20.80
28.39
34.93
40.28
44.37
47.27
49.18
50.28
50.65
50.26
49.08
47.14
44.67
41.96
39.22
36.43
33.30
29.43
24.55
18.66
12.09
5.36
-1.09
-7.09
-12.83
-18.74
-25.40
-33.16
-42.00
-51.37
-60.16
-66.93
-70.20
-68.97
-63.05
-53.14
-40.62
-27.07
-13.80
-1.60
9.32
19.00
27.59
35.08
41.38
46.40
50.13
52.68
54.19
54.79
54.55
53.53
51.77
49.35
46.37
42.90
38.99
34.62
29.80
24.55
18.94
13.10
7.18
1.32
-4.44
-10.15
-16.09
-22.63
-30.16
-38.87
-48.50
-58.29
-66.97
-73.17
-75.73
-74.07
-68.41
-59.69
-49.27
-38.55
-28.62
-20.04
-12.87
-6.81
-1.52
3.13
7.00
9.73
10.97
10.57
8.74
5.96
2.74
-0.59
-4.06
-7.97
-12.65
-18.24
-24.48
-30.79
-36.56
-41.39
-45.35
-48.93
-52.77
-57.43
-63.07
-69.46
-76.17
-82.64
-88.36
-92.70
-94.94
-94.26
-90.04
-82.19
-71.27
-58.39
-44.74
-31.16
-17.84
-4.52
9.06
22.68
35.48
46.29
54.21
59.27
62.60
66.06
71.32
78.97
88.06
96.37
101.35
101.26
95.96
86.94
76.59
67.15
59.93
55.03
51.67
48.76
45.41
41.19
36.13
30.57
25.05
20.26
16.93
15.74
17.19
21.35
27.81
35.62
43.52
50.16
54.44
55.73
53.99
49.72
43.68
36.74
29.64
22.94
17.12
12.62
9.84
9.02
10.05
12.53
15.76
19.02
21.86
24.06
25.62
26.44
26.16
24.23
20.26
14.31
7.13
0.03
-5.56
-8.61
-8.73
-6.25
-1.95
3.28
8.70
13.73
18.08
21.52
23.98
25.45
26.01
25.71
24.53
22.36
19.03
14.50
8.96
2.96
-2.71
-7.26
-10.23
-11.58
-11.74
-11.33
-10.95
-10.95
-11.44
-12.42
-13.97
-16.29
-19.66
-24.30
-30.23
-37.15
-44.54
-51.70
-57.94
-62.65
-65.46
-66.22
-64.99
-61.98
-57.41
-51.56
-44.72
-37.25
-29.58
-22.17
-15.45
-9.75
-5.21
-1.78
0.76
2.70
4.26
5.56
6.56
7.16
7.30
6.98
6.25
5.19
3.80
2.09
0.07
-2.21
-4.65
-7.27
-10.26
-13.90
-18.39
-23.65
-29.14
-33.97
-37.11
-37.81
-35.76
-31.20
-24.73
-17.09
-8.91
-0.59
7.67
15.80
23.62
30.83
37.02
41.88
45.30
47.50
48.90
49.99
51.05
52.03
52.63
52.35
50.76
47.60
42.90
36.98
30.33
23.48
16.78
10.34
3.95
-2.71
-9.95
-17.91
-26.51
-35.52
-44.52
-52.92
-59.91
-64.49
-65.71
-63.02
-56.55
-47.19
-36.20
-24.85
-13.96
-3.81
5.66
14.54
22.68
29.79
35.55
39.91
43.05
45.38
47.20
48.67
49.68
50.00
49.43
47.93
45.64
42.83
39.76
36.55
33.15
29.33
24.84
19.60
13.75
7.62
1.58
-4.07
-9.30
-14.30
-19.49
-25.35
-32.24
-40.22
-48.89
-57.31
-64.17
-68.12
-68.18
-64.13
-56.55
-46.65
-35.80
-25.10
-15.19
-6.19
2.02
9.52
16.16
21.67
25.77
28.42
29.91
30.78
31.53
32.47
33.52
34.27
34.22
33.04
30.65
27.32
23.43
19.32
15.21
11.12
6.95
2.59
-2.15
-7.42
-13.37
-20.03
-27.14
-34.05
-39.73
-43.00
-42.89
-39.07
-31.91
-22.46
-12.06
-1.91
7.21
14.98
21.47
26.80
31.02
34.08
35.91
36.56
36.31
35.59
34.85
34.31
33.86
33.10
31.49
28.65
24.51
19.41
13.90
8.53
3.54
-1.18
-6.08
-11.66
-18.27
-25.93
-34.31
-42.79
-50.57
-56.71
-60.24
-60.34
-56.52
-48.82
-37.94
-25.06
-11.59
1.27
12.77
22.63
30.94
37.84
43.40
47.57
50.31
51.69
51.99
51.59
50.87
50.07
49.16
47.91
45.96
43.02
39.03
34.19
28.93
23.68
18.73
14.07
9.47
4.62
-0.75
-6.75
-13.36
-20.39
-27.50
-34.13
-39.45
-42.51
-42.56
-39.31
-33.10
-24.87
-15.81
-7.01
0.82
7.40
12.76
17.06
20.40
22.81
24.30
24.93
24.88
24.47
23.99
23.66
23.46
23.17
22.43
20.89
18.41
15.12
11.34
7.42
3.60
-0.06
-3.63
-7.27
-11.10
-15.23
-19.73
-24.65
-29.98
-35.62
-41.23
-46.25
-49.93
-51.48
-50.32
-46.36
-39.99
-32.11
-23.77
-15.89
-9.00
-3.18
1.73
5.93
9.48
12.28
14.26
15.42
16.02
16.36
16.68
16.98
17.00
16.43
15.01
12.78
10.01
7.11
4.43
2.12
0.11
-1.92
-4.33
-7.43
-11.37
-16.06
-21.16
-26.13
-30.26
-32.84
-33.26
-31.19
-26.72
-20.31
-12.75
-4.88
2.64
9.41
15.32
20.38
24.61
27.94
30.28
31.59
31.99
31.75
31.17
30.50
29.85
29.21
28.45
27.44
26.00
24.09
21.67
18.81
15.62
12.24
8.72
4.99
0.90
-3.77
-9.24
-15.60
-22.68
-30.05
-37.01
-42.70
-46.30
-47.24
-45.35
-40.96
-34.77
-27.73
-20.72
-14.34
-8.74
-3.78
0.82
5.23
9.31
12.74
15.20
16.56
17.02
16.98
16.83
16.75
16.68
16.37
15.61
14.31
12.55
10.47
8.23
5.93
3.58
1.10
-1.65
-4.87
-8.76
-13.37
-18.60
-24.09
-29.33
-33.77
-36.83
-38.10
-37.26
-34.22
-29.14
-22.49
-15.01
-7.52
-0.71
5.03
9.66
13.35
16.31
18.61
20.25
21.23
21.62
21.57
21.30
20.93
20.43
19.68
18.53
16.88
14.76
12.23
9.42
6.41
3.31
0.17
-2.97
-6.08
-9.17
-12.24
-15.39
-18.73
-22.45
-26.69
-31.44
-36.41
-41.01
-44.42
-45.82
-44.73
-41.12
-35.50
-28.73
-21.74
-15.25
-9.62
-4.89
-0.89
2.51
5.38
7.76
9.67
11.20
12.49
13.63
14.65
15.44
15.85
15.75
15.04
13.74
11.92
9.70
7.24
4.71
2.27
-0.05
-2.37
-4.90
-7.89
-11.48
-15.60
-20.01
-24.26
-27.87
-30.35
-31.25
-30.31
-27.48
-22.99
-17.33
-11.16
-5.06
0.54
5.45
9.64
13.16
16.02
18.17
19.59
20.32
20.52
20.41
20.20
19.95
19.56
18.82
17.46
15.36
12.59
9.41
6.14
3.03
0.19
-2.53
-5.34
-8.47
-12.02
-15.96
-20.23
-24.79
-29.62
-34.69
-39.86
-44.72
-48.62
-50.81
-50.69
-47.94
-42.75
-35.73
-27.76
-19.71
-12.21
-5.52
0.39
5.66
10.34
14.37
17.64
20.06
21.73
22.87
23.72
24.42
24.96
25.22
25.13
24.65
23.86
22.83
21.60
20.11
18.27
15.94
13.06
9.63
5.76
1.66
-2.42
-6.29
-9.95
-13.60
-17.57
-22.22
-27.64
-33.59
-39.46
-44.40
-47.52
-48.14
-46.01
-41.38
-34.95
-27.57
-20.06
-12.94
-6.36
-0.27
5.36
10.48
14.91
18.51
21.29
23.46
25.27
26.89
28.27
29.15
29.25
28.45
26.90
24.99
23.14
21.60
20.32
19.01
17.26
14.82
11.66
8.03
4.33
0.87
-2.25
-5.16
-8.14
-11.55
-15.57
-20.24
-25.29
-30.22
-34.34
-36.94
-37.46
-35.73
-32.02
-26.92
-21.18
-15.37
-9.77
-4.43
0.67
5.47
9.74
13.20
15.59
16.87
17.25
17.04
16.63
16.27
16.00
15.69
15.10
13.92
11.95
9.15
5.67
1.81
-2.08
-5.73
-9.06
-12.18
-15.39
-19.07
-23.55
-28.98
-35.17
-41.54
-47.21
-51.14
-52.43
-50.60
-45.68
-38.25
-29.16
-19.35
-9.54
-0.18
8.57
16.62
23.87
30.10
35.04
38.55
40.73
41.99
42.86
43.76
44.78
45.62
45.73
44.56
41.90
37.94
33.19
28.20
23.41
18.96
14.75
10.60
6.36
1.94
-2.67
-7.46
-12.47
-17.66
-22.86
-27.62
-31.31
-33.24
-32.93
-30.31
-25.75
-19.97
-13.80
-7.80
-2.30
2.69
7.26
11.41
15.09
18.19
20.66
22.55
23.99
25.13
26.03
26.63
26.78
26.35
25.28
23.63
21.54
19.22
16.77
14.28
11.63
8.67
5.25
1.26
-3.27
-8.30
-13.75
-19.52
-25.29
-30.51
-34.38
-36.10
-35.21
-31.80
-26.51
-20.27
-13.93
-7.98
-2.54
2.52
7.31
11.77
15.73
18.98
21.40
22.99
23.87
24.21
24.17
23.89
23.43
22.74
21.72
20.27
18.42
16.26
13.96
11.61
9.12
6.35
3.11
-0.65
-4.86
-9.37
-14.03
-18.77
-23.54
-28.18
-32.33
-35.41
-36.78
-35.99
-33.01
-28.25
-22.39
-16.19
-10.15
-4.48
0.79
5.60
9.77
12.98
15.03
15.96
16.10
15.93
15.76
15.65
15.35
14.53
12.93
10.55
7.58
4.32
1.05
-2.05
-4.97
-7.78
-10.71
-13.95
-17.64
-21.70
-25.81
-29.45
-32.01
-33.04
-32.29
-29.80
-25.87
-20.92
-15.44
-9.85
-4.47
0.45
4.77
8.41
11.27
13.33
14.63
15.35
15.73
16.00
16.28
16.46
16.29
15.51
14.01
11.88
9.39
6.79
4.27
1.80
-0.78
-3.67
-7.12
-11.31
-16.26
-21.80
-27.46
-32.54
-36.23
-37.88
-37.16
-34.22
-29.52
-23.76
-17.57
-11.42
-5.57
-0.14
4.87
9.49
13.68
17.34
20.31
22.46
23.81
24.54
24.95
25.32
25.74
26.12
26.23
25.81
24.68
22.82
20.29
17.28
13.98
10.61
7.32
4.13
0.92
-2.57
-6.66
-11.62
-17.51
-24.04
-30.66
-36.53
-40.79
-42.78
-42.20
-39.30
-34.70
-29.16
-23.32
-17.50
-11.77
-6.14
-0.69
4.44
9.06
13.10
16.57
19.49
21.80
23.43
24.36
24.76
24.94
25.23
25.77
26.41
26.75
26.38
25.05
22.79
19.83
16.45
12.87
9.27
5.67
2.05
-1.71
-5.81
-10.48
-15.86
-21.87
-28.09
-33.82
-38.23
-40.56
-40.40
-37.84
-33.38
-27.78
-21.76
-15.78
-9.97
-4.19
1.73
7.77
13.62
18.78
22.73
25.21
26.32
26.52
26.40
26.42
26.71
27.07
27.05
26.25
24.52
22.00
18.99
15.79
12.48
9.00
5.25
1.12
-3.41
-8.34
-13.69
-19.44
-25.46
-31.33
-36.42
-39.99
-41.57
-41.05
-38.76
-35.26
-31.09
-26.56
-21.79
-16.82
-11.73
-6.73
-2.04
2.14
5.70
8.64
11.03
12.89
14.23
15.02
15.25
14.94
14.15
12.96
11.41
9.54
7.39
4.99
2.36
-0.55
-3.89
-7.87
-12.61
-18.01
-23.61
-28.63
-32.16
-33.41
-31.94
-27.84
-21.58
-13.93
-5.67
2.50
10.12
16.98
23.04
28.38
33.08
37.10
40.36
42.74
44.31
45.26
45.93
46.57
47.17
47.48
47.08
45.63
43.07
39.59
35.60
31.43
27.24
22.96
18.40
13.39
7.85
1.79
-4.68
-11.40
-18.11
-24.41
-29.75
-33.49
-35.07
-34.24
-31.14
-26.33
-20.57
-14.55
-8.69
-3.14
2.15
7.15
11.62
15.23
17.66
18.91
19.30
19.33
19.45
19.79
20.19
20.31
19.84
18.69
16.95
14.81
12.46
9.97
7.28
4.29
0.86
-3.12
-7.75
-13.08
-19.04
-25.41
-31.82
-37.72
-42.45
-45.37
-46.02
-44.28
-40.38
-34.82
-28.25
-21.23
-14.17
-7.30
-0.84
5.01
10.02
14.01
16.89
18.79
19.96
20.70
21.24
21.65
21.83
21.58
20.68
19.06
16.82
14.24
11.63
9.19
6.89
4.44
1.51
-2.20
-6.75
-12.01
-17.72
-23.52
-28.94
-33.46
-36.41
-37.23
-35.61
-31.65
-25.87
-19.04
-11.87
-4.82
1.93
8.39
14.51
20.13
24.92
28.56
30.95
32.25
32.89
33.39
34.09
34.99
35.78
35.91
34.92
32.59
29.06
24.70
19.97
15.25
10.73
6.42
2.12
-2.45
-7.61
-13.55
-20.23
-27.25
-33.90
-39.24
-42.47
-43.11
-41.25
-37.42
-32.45
-27.19
-22.22
-17.70
-13.39
-8.84
-3.61
2.41
8.93
15.33
20.91
25.13
27.89
29.39
30.06
30.22
29.98
29.23
27.80
25.63
22.68
19.01
14.44
8.62
1.08
-8.57
-20.35
-33.81
-48.05
-61.92
-74.13
-83.60
-89.48
-91.42
-89.54
-84.42
-76.91
-67.96
-58.35
-48.62
-39.05
-29.81
-21.09
-13.13
-6.19
-0.41
4.24
7.89
10.78
13.02
14.67
15.67
15.99
15.63
14.65
13.10
11.07
8.57
5.54
1.87
-2.63
-8.17
-14.75
-22.00
-29.06
-34.70
-37.63
-37.02
-32.71
-25.44
-16.47
-7.20
1.26
8.31
13.84
18.03
21.14
23.34
24.76
25.53
25.81
25.81
25.70
25.57
25.36
24.87
23.78
21.79
18.74
14.70
9.95
4.77
-0.70
-6.53
-12.87
-19.63
-26.24
-31.59
-34.39
-33.62
-29.07
-21.44
-12.15
-2.73
5.59
12.25
17.25
20.90
23.54
25.36
26.46
26.91
26.83
26.39
25.72
24.87
23.84
22.56
20.97
19.06
16.78
14.01
10.56
6.19
0.71
-5.94
-13.56
-21.59
-29.07
-34.83
-37.75
-37.08
-32.80
-25.61
-16.73
-7.47
1.15
8.63
14.94
20.22
24.61
28.02
30.33
31.49
31.69
31.34
30.86
30.50
30.21
29.67
28.50
26.40
23.35
19.58
15.38
10.96
6.25
0.97
-5.22
-12.40
-20.20
-27.74
-33.78
-37.13
-36.97
-33.20
-26.43
-17.78
-8.45
0.58
8.79
16.02
22.38
28.00
32.93
37.09
40.35
42.66
44.11
44.95
45.51
45.99
46.43
46.61
46.17
44.76
42.21
38.61
34.31
29.71
25.13
20.74
16.49
12.21
7.72
2.86
-2.49
-8.40
-14.82
-21.55
-28.15
-33.91
-37.99
-39.62
-38.33
-34.14
-27.62
-19.71
-11.40
-3.45
3.77
10.21
16.02
21.25
25.86
29.71
32.63
34.56
35.52
35.61
34.94
33.62
31.79
29.62
27.29
24.94
22.61
20.24
17.67
14.74
11.29
7.24
2.61
-2.45
-7.74
-13.01
-18.18
-23.35
-28.84
-35.01
-42.02
-49.60
-57.02
-63.11
-66.68
-66.83
-63.30
-56.54
-47.57
-37.60
-27.67
-18.43
-10.04
-2.38
4.67
11.12
16.79
21.47
25.11
27.87
30.12
32.19
34.16
35.85
36.93
37.11
36.30
34.58
32.16
29.19
25.69
21.67
17.19
12.42
7.61
2.94
-1.58
-6.16
-11.19
-17.06
-23.98
-31.86
-40.23
-48.20
-54.63
-58.35
-58.57
-55.13
-48.66
-40.34
-31.52
-23.20
-15.76
-9.07
-2.75
3.36
9.03
13.72
16.89
18.40
18.61
18.22
17.94
18.13
18.75
19.51
20.10
20.42
20.62
20.94
21.53
22.29
22.89
22.91
21.97
19.86
16.59
12.28
7.15
1.53
-4.17
-9.40
-13.52
-15.87
-15.98
-13.73
-9.44
-3.88
2.04
7.46
11.85
15.03
17.07
18.21
18.72
18.82
18.75
18.76
19.00
19.47
20.02
20.30
19.97
18.81
16.83
14.23
11.29
8.23
5.17
2.03
-1.39
-5.31
-9.86
-14.94
-20.10
-24.61
-27.59
-28.22
-25.98
-20.79
-13.02
-3.27
7.75
19.37
31.09
42.56
53.59
64.06
73.87
82.82
90.57
96.67
100.64
102.14
101.09
97.67
92.22
85.17
76.88
67.57
57.48
46.85
35.98
25.12
14.48
4.18
-5.75
-15.16
-23.74
-31.02
-36.41
-39.42
-39.77
-37.56
-33.16
-27.20
-20.38
-13.41
-6.90
-1.37
2.85
5.59
6.83
6.75
5.67
3.95
1.91
-0.20
-2.34
-4.54
-6.93
-9.68
-12.86
-16.49
-20.47
-24.68
-29.06
-33.63
-38.42
-43.31
-47.89
-51.43
-53.17
-52.50
-49.35
-44.17
-37.77
-31.05
-24.61
-18.80
-13.65
-9.20
-5.49
-2.67
-0.88
-0.10
-0.09
-0.49
-0.90
-1.12
-1.16
-1.31
-1.92
-3.29
-5.46
-8.24
-11.35
-14.62
-18.10
-22.13
-27.07
-33.10
-39.90
-46.66
-52.26
-55.61
-56.02
-53.39
-48.27
-41.60
-34.37
-27.30
-20.75
-14.73
-9.15
-3.98
0.70
4.77
8.18
11.03
13.53
15.87
18.13
20.18
21.75
22.62
22.70
22.11
21.18
20.22
19.47
18.87
18.16
16.83
14.40
10.50
5.08
-1.52
-8.54
-14.89
-19.35
-20.85
-18.81
-13.33
-5.23
4.20
13.58
21.86
28.50
33.45
36.87
38.96
39.80
39.49
38.24
36.56
35.17
34.98
36.87
41.53
49.19
59.42
71.10
82.51
91.77
97.26
98.07
94.05
85.74
74.09
60.21
45.21
30.19
16.12
3.77
-6.45
-14.57
-21.01
-26.44
-31.52
-36.76
-42.36
-48.20
-53.91
-58.92
-62.70
-64.94
-65.60
-64.92
-63.29
-61.05
-58.38
-55.34
-51.97
-48.42
-45.04
-42.19
-40.17
-39.01
-38.50
-38.35
-38.30
-38.25
-38.15
-37.86
-37.09
-35.37
-32.33
-27.91
-22.45
-16.51
-10.74
-5.51
-0.94
3.08
6.69
9.93
12.74
14.99
16.62
17.66
18.15
18.18
17.88
17.49
17.34
17.86
19.32
21.80
25.09
28.91
33.08
37.68
43.03
49.42
56.88
65.07
73.34
80.96
87.21
91.43
92.98
91.46
87.01
80.70
74.23
69.43
67.13
66.46
64.87
59.11
46.72
27.18
2.19
-25.03
-51.07
-73.45
-91.10
-104.06
-112.87
-118.06
-119.95
-118.70
-114.64
-108.49
-101.32
-94.35
-88.67
-84.83
-82.82
-82.09
-81.93
-81.60
-80.20
-76.45
-68.87
-56.34
-39.01
-18.86
0.58
15.44
23.16
23.63
19.07
12.83
7.64
4.54
2.87
1.39
-0.54
-2.35
-2.67
-0.42
4.21
9.51
12.70
11.00
2.82
-11.50
-29.68
-48.23
-63.63
-73.42
-76.90
-75.28
-71.12
-67.34
-66.22
-68.66
-73.89
-79.93
-84.30
-85.07
-81.46
-74.07
-64.39
-54.21
-44.84
-36.90
-30.33
-24.63
-19.06
-12.75
-4.97
4.66
15.85
27.41
37.62
44.76
47.86
47.11
43.89
40.08
37.43
36.94
38.65
41.76
45.03
47.19
47.29
45.08
41.00
36.06
31.36
27.66
25.12
23.34
21.79
20.07
18.25
16.67
15.75
15.71
16.48
17.79
19.36
21.00
22.61
24.11
25.24
25.69
25.18
23.71
21.65
19.66
18.40
18.20
18.85
19.62
19.63
18.24
15.40
11.71
8.09
5.44
4.18
4.12
4.58
4.73
3.91
1.86
-1.21
-4.82
-8.39
-11.48
-13.93
-15.88
-17.67
-19.66
-22.01
-24.66
-27.31
-29.65
-31.56
-33.13
-34.59
-36.13
-37.81
-39.42
-40.66
-41.19
-40.75
-39.23
-36.62
-33.01
-28.57
-23.60
-18.45
-13.52
-9.19
-5.68
-3.01
-1.10
0.22
1.05
1.38
1.06
-0.10
-2.10
-4.70
-7.42
-9.74
-11.42
-12.66
-14.07
-16.35
-19.95
-24.86
-30.56
-36.25
-41.11
-44.53
-46.14
-45.95
-44.16
-41.15
-37.41
-33.40
-29.46
-25.73
-22.19
-18.71
-15.24
-11.81
-8.63
-5.93
-3.84
-2.37
-1.34
-0.59
0.03
0.47
0.59
0.24
-0.63
-1.94
-3.61
-5.63
-8.16
-11.34
-15.11
-18.99
-22.13
-23.62
-22.88
-19.95
-15.48
-10.37
-5.35
-0.84
3.09
6.42
8.97
10.40
10.48
9.25
7.11
4.71
2.63
1.19
0.46
0.37
0.81
1.68
2.79
3.66
3.58
1.89
-1.62
-6.44
-11.39
-14.92
-15.87
-13.98
-10.10
-5.88
-3.34
-3.98
-8.29
-15.39
-23.15
-28.63
-28.86
-21.80
-7.21
12.80
34.14
51.89
61.94
62.51
54.60
41.32
26.35
12.51
0.87
-8.85
-17.51
-25.64
-33.19
-39.89
-45.68
-50.99
-56.40
-62.00
-67.00
-69.94
-69.35
-64.44
-55.65
-44.52
-33.08
-23.11
-15.58
-10.50
-7.20
-4.81
-2.68
-0.71
0.78
1.37
0.88
-0.44
-1.84
-2.49
-1.78
0.39
3.54
6.84
9.49
10.98
11.11
9.94
7.66
4.60
1.43
-0.85
-1.09
1.55
7.11
14.53
22.04
27.85
30.97
31.63
31.06
30.77
31.79
34.11
36.83
38.65
38.62
36.72
33.82
31.20
29.82
29.75
30.18
29.93
28.19
24.93
20.97
17.32
14.65
12.96
11.80
10.78
9.99
10.08
11.79
15.42
20.59
26.40
31.78
36.05
39.10
41.49
44.22
48.31
54.35
62.24
70.99
79.10
85.00
87.72
87.23
84.37
80.38
76.32
72.65
69.21
65.44
60.87
55.23
48.53
40.88
32.41
23.25
13.65
3.99
-5.17
-13.19
-19.55
-23.98
-26.56
-27.67
-27.82
-27.56
-27.28
-27.09
-26.95
-26.65
-26.04
-25.15
-24.19
-23.45
-23.19
-23.48
-24.18
-25.05
-25.81
-26.31
-26.55
-26.59
-26.50
-26.26
-25.73
-24.78
-23.40
-21.77
-20.24
-19.16
-18.73
-18.89
-19.38
-19.84
-20.09
-20.13
-20.20
-20.63
-21.69
-23.54
-26.28
-29.90
-34.28
-39.06
-43.56
-46.88
-48.09
-46.63
-42.51
-36.32
-28.98
-21.35
-13.98
-6.98
-0.15
6.75
13.80
20.82
27.46
33.33
38.15
41.83
44.45
46.21
47.30
47.81
47.78
47.18
46.06
44.58
42.98
41.49
40.17
38.85
37.18
34.77
31.39
27.09
22.19
17.17
12.43
8.16
4.25
0.34
-3.98
-9.02
-14.81
-21.14
-27.56
-33.52
-38.46
-41.82
-43.20
-42.35
-39.37
-34.63
-28.73
-22.32
-15.92
-9.77
-3.93
1.60
6.80
11.52
15.57
18.93
21.70
24.13
26.46
28.78
31.01
32.99
34.55
35.64
36.34
36.77
36.98
36.88
36.25
34.87
32.67
29.77
26.46
23.03
19.68
16.43
13.16
9.67
5.77
1.31
-3.81
-9.62
-15.90
-22.18
-27.72
-31.71
-33.55
-33.04
-30.48
-26.45
-21.61
-16.42
-11.08
-5.62
0.00
5.78
11.59
17.34
22.89
28.13
32.91
37.11
40.58
43.24
45.07
46.13
46.50
46.29
45.62
44.61
43.32
41.70
39.63
36.94
33.54
29.48
24.96
20.22
15.41
10.53
5.45
-0.03
-6.06
-12.76
-20.11
-27.95
-35.90
-43.28
-49.26
-53.06
-54.21
-52.83
-49.55
-45.25
-40.72
-36.44
-32.50
-28.74
-25.04
-21.46
-18.18
-15.49
-13.54
-12.36
-11.82
-11.74
-12.01
-12.57
-13.45
-14.69
-16.30
-18.22
-20.31
-22.42
-24.37
-26.07
-27.57
-29.07
-30.92
-33.50
-37.07
-41.65
-46.99
-52.62
-58.07
-62.98
-67.10
-70.23
-72.07
-72.22
-70.31
-66.25
-60.25
-52.75
-44.08
-34.27
-23.00
-9.95
4.94
21.17
37.87
54.12
69.29
83.21
95.99
107.74
118.36
127.59
135.05
140.45
143.78
145.30
145.57
145.30
145.19
145.71
146.96
148.66
150.27
151.28
151.30
150.13
147.66
143.73
138.12
130.67
121.42
110.69
99.01
86.91
74.75
62.67
50.54
38.21
25.60
12.74
-0.13
-12.72
-24.69
-35.79
-45.82
-54.68
-62.31
-68.69
-73.86
-77.95
-81.17
-83.83
-86.25
-88.73
-91.43
-94.29
-97.00
-99.11
-100.10
-99.56
-97.35
-93.57
-88.60
-82.88
-76.78
-70.51
-64.18
-57.76
-51.36
-45.14
-39.31
-34.08
-29.52
-25.63
-22.30
-19.46
-17.03
-15.00
-13.31
-11.88
-10.71
-9.80
-9.20
-9.02
-9.38
-10.37
-12.06
-14.42
-17.22
-20.09
-22.48
-23.88
-23.96
-22.66
-20.28
-17.16
-13.64
-9.92
-6.01
-1.93
2.21
6.12
9.46
11.88
13.20
13.46
12.86
11.72
10.24
8.51
6.48
4.06
1.26
-1.77
-4.77
-7.47
-9.73
-11.62
-13.30
-14.97
-16.76
-18.64
-20.44
-21.82
-22.47
-22.02
-20.34
-17.44
-13.60
-9.20
-4.66
-0.29
3.73
7.24
10.14
12.35
13.85
14.75
15.25
15.56
15.77
15.84
15.64
15.16
14.47
13.68
12.85
11.87
10.51
8.50
5.74
2.26
-1.84
-6.47
-11.54
-16.80
-21.80
-25.78
-27.98
-27.89
-25.47
-21.18
-15.73
-9.77
-3.72
2.27
8.12
13.65
18.56
22.46
25.10
26.46
26.78
26.40
25.62
24.55
23.11
21.11
18.44
15.16
11.50
7.81
4.34
1.16
-1.91
-5.23
-9.15
-13.81
-18.98
-24.09
-28.34
-30.91
-31.26
-29.30
-25.43
-20.36
-14.84
-9.41
-4.31
0.48
5.03
9.31
13.16
16.33
18.64
20.10
20.87
21.25
21.51
21.76
21.96
21.93
21.39
20.18
18.30
16.00
13.66
11.64
10.06
8.71
7.18
4.97
1.78
-2.38
-7.24
-12.31
-17.05
-20.92
-23.43
-24.20
-22.98
-19.76
-14.83
-8.73
-2.14
4.31
10.21
15.37
19.79
23.51
26.57
28.95
30.63
31.60
31.93
31.68
30.97
29.84
28.30
26.34
23.89
20.94
17.53
13.78
9.85
5.95
2.24
-1.19
-4.40
-7.56
-10.88
-14.50
-18.28
-21.84
-24.48
-25.41
-24.04
-20.14
-14.09
-6.67
1.11
8.43
14.86
20.43
25.45
30.30
35.17
39.94
44.21
47.43
49.13
49.10
47.48
44.75
41.57
38.47
35.70
33.17
30.55
27.46
23.56
18.63
12.43
4.88
-3.64
-12.05
-18.70
-22.00
-21.19
-16.84
-10.69
-4.73
-0.18
3.10
6.36
10.99
17.55
25.33
32.78
38.33
41.27
41.86
41.00
39.54
37.73
35.20
31.23
25.24
17.19
7.61
-2.56
-12.36
-21.13
-28.63
-34.86
-40.03
-44.40
-48.40
-52.64
-57.86
-64.66
-73.11
-82.50
-91.49
-98.43
-101.96
-101.41
-97.00
-89.70
-80.96
-72.32
-65.07
-60.10
-57.65
-57.54
-59.18
-61.92
-65.23
-68.68
-71.93
-74.62
-76.49
-77.46
-77.79
-77.94
-78.39
-79.33
-80.54
-81.44
-81.29
-79.53
-75.90
-70.57
-63.98
-56.64
-49.11
-41.76
-34.84
-28.34
-22.13
-15.94
-9.50
-2.67
4.58
12.18
20.01
27.91
35.67
43.03
49.72
55.53
60.34
64.13
66.92
68.74
69.57
69.39
68.21
66.09
63.12
59.44
55.23
50.74
46.31
42.32
39.12
36.96
35.89
35.79
36.46
37.72
39.36
41.21
43.00
44.40
45.12
44.90
43.69
41.64
39.09
36.55
34.53
33.38
33.11
33.34
33.46
32.97
31.68
29.81
27.78
25.93
24.29
22.65
20.77
18.62
16.46
14.68
13.60
13.25
13.40
13.71
13.89
13.79
13.44
13.00
12.63
12.52
12.76
13.29
13.92
14.42
14.61
14.46
14.11
13.76
13.56
13.46
13.34
12.97
12.23
11.08
9.66
8.12
6.60
5.19
3.87
2.56
1.14
-0.49
-2.40
-4.52
-6.71
-8.68
-10.15
-10.90
-10.93
-10.48
-9.94
-9.69
-9.93
-10.65
-11.67
-12.75
-13.72
-14.54
-15.26
-15.91
-16.48
-16.86
-16.93
-16.60
-15.87
-14.85
-13.67
-12.48
-11.35
-10.32
-9.35
-8.43
-7.53
-6.66
-5.73
-4.70
-3.47
-2.01
-0.39
1.19
2.49
3.29
3.48
3.16
2.66
2.40
2.85
4.29
6.71
9.80
13.07
15.97
18.15
19.47
20.07
20.20
20.10
19.90
19.61
19.10
18.26
17.00
15.29
13.16
10.67
7.90
4.96
2.01
-0.78
-3.22
-5.13
-6.41
-7.05
-7.08
-6.69
-6.14
-5.74
-5.78
-6.32
-7.23
-8.15
-8.71
-8.65
-7.97
-6.91
-5.76
-4.72
-3.81
-2.91
-1.95
-1.05
-0.47
-0.53
-1.43
-3.12
-5.30
-7.55
-9.53
-11.06
-12.24
-13.28
-14.43
-15.79
-17.24
-18.51
-19.24
-19.21
-18.43
-17.11
-15.62
-14.29
-13.28
-12.56
-11.96
-11.26
-10.27
-8.94
-7.32
-5.59
-4.05
-2.97
-2.47
-2.42
-2.39
-1.81
-0.23
2.39
5.50
8.06
8.94
7.36
3.25
-2.59
-8.87
-14.19
-17.63
-18.96
-18.73
-17.98
-17.87
-19.19
-22.19
-26.41
-30.81
-34.00
-34.72
-32.31
-27.15
-20.64
-14.81
-11.40
-11.25
-13.83
-17.65
-21.05
-22.98
-23.43
-23.27
-23.53
-24.74
-26.65
-28.39
-29.03
-28.02
-25.39
-21.62
-17.33
-13.02
-8.92
-5.02
-1.24
2.53
6.25
9.76
12.69
14.62
15.13
13.94
11.04
6.77
1.77
-3.13
-7.22
-10.06
-11.71
-12.62
-13.55
-15.21
-18.14
-22.54
-28.23
-34.65
-40.96
-46.16
-49.31
-49.72
-47.16
-41.93
-34.79
-26.66
-18.42
-10.74
-4.04
1.48
5.72
8.73
10.69
11.87
12.52
12.78
12.58
11.73
10.05
7.51
4.28
0.73
-2.76
-5.87
-8.52
-10.84
-13.18
-16.01
-19.73
-24.55
-30.33
-36.43
-41.91
-45.72
-47.06
-45.65
-41.79
-36.18
-29.60
-22.65
-15.61
-8.54
-1.37
5.82
12.79
19.15
24.51
28.65
31.56
33.47
34.63
35.23
35.28
34.65
33.22
31.05
28.37
25.53
22.83
20.29
17.74
14.89
11.41
7.07
1.72
-4.64
-11.83
-19.31
-26.21
-31.49
-34.23
-34.03
-31.13
-26.28
-20.40
-14.21
-8.06
-1.94
4.24
10.50
16.63
22.30
27.14
30.89
33.52
35.20
36.19
36.72
36.90
36.63
35.66
33.72
30.69
26.66
21.96
17.00
12.08
7.36
2.76
-1.96
-7.10
-12.89
-19.39
-26.30
-32.98
-38.52
-42.00
-42.67
-40.25
-34.99
-27.59
-19.03
-10.31
-2.20
4.85
10.72
15.56
19.62
23.13
26.26
29.11
31.86
34.65
37.53
40.25
42.35
43.18
42.34
39.87
36.28
32.31
28.56
25.20
22.03
18.69
14.90
10.54
5.64
0.09
-6.26
-13.39
-20.90
-27.82
-32.87
-34.90
-33.35
-28.49
-21.29
-12.99
-4.66
3.01
9.82
15.78
20.94
25.31
28.76
31.22
32.76
33.60
34.07
34.40
34.63
34.55
33.83
32.15
29.38
25.67
21.37
16.87
12.47
8.33
4.47
0.85
-2.75
-6.67
-11.28
-16.91
-23.58
-30.96
-38.39
-45.13
-50.51
-54.11
-55.72
-55.26
-52.71
-48.14
-41.76
-34.01
-25.49
-16.88
-8.79
-1.60
4.65
10.21
15.56
21.22
27.52
34.38
41.30
47.48
52.11
54.73
55.33
54.37
52.54
50.37
48.02
45.19
41.36
36.10
29.43
21.87
14.36
7.94
3.37
1.00
0.71
2.13
4.82
8.43
12.70
17.44
22.46
27.50
32.26
36.45
39.77
42.01
43.03
42.78
41.33
38.87
35.79
32.59
29.73
27.50
25.89
24.56
23.06
20.96
18.04
14.17
9.23
3.01
-4.62
-13.39
-22.32
-29.86
-34.43
-35.24
-32.72
-28.46
-24.36
-21.64
-20.32
-19.32
-17.25
-13.33
-7.85
-2.01
2.69
5.16
5.01
2.51
-1.62
-6.41
-10.63
-12.92
-12.07
-7.46
0.41
9.87
18.52
24.02
24.97
21.45
14.70
6.58
-1.19
-7.43
-11.63
-13.85
-14.59
-14.61
-14.51
-14.14
-12.24
-6.82
3.82
19.64
38.23
55.39
66.90
70.50
66.76
58.43
48.64
39.23
30.19
20.53
9.67
-1.51
-11.02
-16.91
-18.49
-16.88
-14.48
-13.71
-16.06
-21.48
-28.54
-35.12
-39.23
-39.60
-35.98
-29.17
-20.62
-11.98
-4.59
0.93
4.69
7.37
9.85
12.77
16.36
20.46
24.67
28.59
31.84
34.09
35.12
34.97
34.12
33.55
34.51
38.16
45.05
54.85
66.24
77.16
85.27
88.45
85.42
76.25
62.52
47.00
32.73
21.80
14.52
9.39
3.90
-4.04
-15.18
-28.80
-43.36
-57.33
-69.71
-80.02
-87.97
-93.43
-96.48
-97.77
-98.48
-99.96
-103.13
-108.02
-113.87
-119.60
-124.42
-128.16
-131.18
-134.06
-137.18
-140.53
-143.79
-146.46
-147.98
-148.01
-146.35
-143.12
-138.67
-133.35
-127.47
-121.22
-114.68
-107.98
-101.39
-95.35
-90.37
-86.88
-84.88
-83.80
-82.39
-78.85
-71.32
-58.51
-40.28
-17.74
6.99
31.41
53.30
71.28
84.92
94.59
101.17
105.69
109.07
112.06
115.16
118.54
122.16
125.72
128.88
131.26
132.58
132.61
131.13
127.92
122.80
115.73
106.96
97.08
86.93
77.34
68.89
61.75
55.77
50.60
45.94
41.46
36.81
31.45
24.84
16.61
6.91
-3.62
-14.01
-23.31
-30.99
-37.01
-41.69
-45.54
-48.97
-52.30
-55.76
-59.48
-63.50
-67.69
-71.77
-75.39
-78.32
-80.46
-81.88
-82.69
-82.99
-82.86
-82.44
-81.90
-81.47
-81.38
-81.76
-82.53
-83.45
-84.08
-83.90
-82.36
-79.07
-73.79
-66.57
-57.65
-47.41
-36.31
-24.82
-13.45
-2.68
7.06
15.44
22.34
27.89
32.43
36.32
39.86
43.12
46.03
48.47
50.32
51.60
52.35
52.63
52.40
51.52
49.84
47.26
43.85
39.89
35.82
32.18
29.40
27.71
27.10
27.42
28.40
29.84
31.54
33.35
35.09
36.54
37.48
37.77
37.37
36.34
34.78
32.81
30.47
27.77
24.75
21.45
17.97
14.44
10.86
7.14
3.05
-1.63
-6.97
-12.74
-18.38
-23.15
-26.38
-27.72
-27.21
-25.21
-22.17
-18.42
-14.21
-9.62
-4.72
0.32
5.31
9.95
13.94
17.04
19.09
20.12
20.29
19.89
19.14
18.11
16.70
14.71
12.07
8.88
5.40
1.85
-1.73
-5.58
-10.08
-15.59
-22.09
-29.17
-36.02
-41.67
-45.28
-46.38
-45.00
-41.64
-37.04
-31.96
-26.85
-21.92
-17.16
-12.51
-8.04
-3.96
-0.51
2.20
4.24
5.86
7.31
8.72
10.09
11.26
12.06
12.43
12.38
11.98
11.33
10.48
9.48
8.37
7.18
5.88
4.40
2.71
0.89
-0.76
-1.72
-1.41
0.56
4.25
9.33
15.17
21.11
26.69
31.67
36.07
39.98
43.44
46.43
48.92
50.86
52.30
53.36
54.20
54.97
55.80
56.68
57.49
57.99
57.85
56.86
54.93
52.18
48.83
45.16
41.30
37.28
32.94
28.12
22.67
16.51
9.69
2.43
-4.82
-11.39
-16.47
-19.34
-19.58
-17.27
-13.00
-7.65
-2.07
3.13
7.72
11.74
15.33
18.54
21.31
23.47
24.90
25.60
25.75
25.59
25.32
25.06
24.79
24.41
23.80
22.85
21.51
19.77
17.67
15.29
12.74
10.14
7.58
5.05
2.48
-0.26
-3.33
-6.85
-10.83
-15.15
-19.56
-23.69
-27.03
-29.02
-29.20
-27.30
-23.40
-17.91
-11.49
-4.79
1.65
7.55
12.81
17.40
21.25
24.26
26.42
27.85
28.84
29.72
30.71
31.87
33.04
33.95
34.31
33.90
32.58
30.34
27.33
23.85
20.28
16.94
14.02
11.47
9.02
6.35
3.13
-0.84
-5.63
-11.16
-17.19
-23.28
-28.86
-33.32
-36.14
-37.08
-36.24
-33.95
-30.66
-26.75
-22.52
-18.15
-13.81
-9.65
-5.82
-2.39
0.58
3.09
5.19
6.91
8.31
9.46
10.38
11.09
11.56
11.74
11.58
11.05
10.11
8.77
7.08
5.06
2.75
0.10
-2.92
-6.36
-10.10
-13.83
-17.04
-19.16
-19.72
-18.59
-16.03
-12.56
-8.74
-4.97
-1.35
2.20
5.82
9.46
12.87
15.70
17.68
18.83
19.48
20.13
21.16
22.61
24.17
25.35
25.75
25.35
24.42
23.37
22.47
21.72
20.83
19.46
17.40
14.63
11.26
7.42
3.16
-1.45
-6.21
-10.79
-14.77
-17.86
-20.06
-21.72
-23.33
-25.37
-28.10
-31.50
-35.35
-39.48
-43.76
-48.20
-52.76
-57.28
-61.43
-64.81
-67.13
-68.29
-68.38
-67.60
-66.09
-63.86
-60.81
-56.89
-52.19
-47.08
-42.09
-37.82
-34.69
-32.79
-31.85
-31.25
-30.23
-28.13
-24.62
-19.78
-14.08
-8.12
-2.45
2.62
7.07
10.94
14.32
17.18
19.44
21.07
22.17
23.02
23.91
25.07
26.59
28.41
30.37
32.28
33.99
35.35
36.24
36.61
36.43
35.73
34.58
32.99
30.93
28.37
25.29
21.76
17.95
14.09
10.40
7.11
4.43
2.57
1.71
1.93
3.12
4.97
7.10
9.15
10.90
12.32
13.38
14.06
14.19
13.49
11.69
8.64
4.53
-0.08
-4.27
-6.99
-7.33
-4.92
-0.03
6.42
13.13
18.80
22.46
23.61
22.24
18.65
13.44
7.36
1.22
-4.27
-8.71
-12.18
-15.19
-18.48
-22.63
-27.74
-33.37
-38.59
-42.35
-43.88
-42.88
-39.64
-34.81
-29.20
-23.44
-17.91
-12.75
-7.98
-3.65
0.10
3.17
5.55
7.32
8.71
9.85
10.85
11.70
12.38
12.91
13.32
13.63
13.84
13.87
13.65
13.11
12.14
10.58
8.20
4.78
0.22
-5.39
-11.73
-18.36
-24.83
-30.71
-35.63
-39.18
-40.95
-40.62
-38.09
-33.59
-27.63
-20.87
-13.96
-7.45
-1.72
3.01
6.66
9.35
11.31
12.89
14.35
15.75
16.92
17.48
17.05
15.40
12.60
8.91
4.70
0.23
-4.38
-9.18
-14.25
-19.68
-25.49
-31.57
-37.72
-43.58
-48.64
-52.30
-54.03
-53.61
-51.17
-47.20
-42.33
-37.07
-31.65
-26.00
-19.97
-13.51
-6.85
-0.39
5.43
10.39
14.53
18.12
21.39
24.44
27.12
29.09
30.01
29.65
27.99
25.24
21.71
17.76
13.64
9.50
5.36
1.16
-3.20
-7.85
-12.92
-18.48
-24.42
-30.36
-35.66
-39.51
-41.20
-40.35
-37.06
-31.85
-25.40
-18.26
-10.81
-3.20
4.44
11.90
18.83
24.87
29.76
33.45
36.06
37.79
38.89
39.54
39.85
39.84
39.47
38.62
37.23
35.27
32.77
29.86
26.60
23.06
19.26
15.23
10.98
6.53
1.89
-3.07
-8.45
-14.27
-20.28
-25.87
-30.16
-32.28
-31.69
-28.38
-22.89
-16.11
-8.98
-2.18
4.01
9.63
14.87
19.83
24.46
28.55
31.81
34.02
35.14
35.29
34.71
33.63
32.19
30.47
28.47
26.24
23.87
21.45
19.02
16.49
13.67
10.36
6.44
1.94
-3.00
-8.18
-13.47
-18.77
-24.03
-29.10
-33.68
-37.28
-39.25
-38.99
-36.13
-30.67
-23.04
-13.97
-4.31
5.16
13.84
21.39
27.59
32.39
35.73
37.65
38.25
37.77
36.56
35.00
33.47
32.17
31.09
30.01
28.55
26.39
23.36
19.53
15.10
10.31
5.37
0.46
-4.36
-9.05
-13.71
-18.56
-23.91
-29.95
-36.61
-43.37
-49.34
-53.49
-55.02
-53.57
-49.39
-43.16
-35.81
-28.20
-20.89
-14.14
-7.92
-2.09
3.48
8.73
13.51
17.69
21.22
24.28
27.10
29.87
32.55
34.83
36.27
36.52
35.52
33.60
31.24
28.92
26.83
24.82
22.52
19.55
15.64
10.78
5.16
-0.87
-6.86
-12.33
-16.72
-19.52
-20.33
-19.02
-15.85
-11.41
-6.47
-1.80
2.10
5.00
6.94
8.06
8.55
8.60
8.42
8.20
8.14
8.30
8.63
8.88
8.83
8.27
7.14
5.56
3.68
1.68
-0.35
-2.42
-4.71
-7.44
-10.82
-14.92
-19.45
-23.80
-27.11
-28.49
-27.34
-23.54
-17.46
-9.81
-1.40
7.18
15.60
23.81
31.88
39.85
47.60
54.87
61.27
66.43
70.09
72.06
72.34
71.02
68.35
64.57
59.93
54.57
48.56
41.86
34.38
26.03
16.71
6.46
-4.56
-16.07
-27.59
-38.53
-48.24
-56.14
-61.81
-64.99
-65.67
-64.06
-60.68
-56.32
-51.91
-48.35
-46.28
-45.89
-46.94
-48.93
-51.27
-53.53
-55.48
-56.84
-57.28
-56.56
-54.70
-51.96
-48.61
-44.40
-38.49
-29.79
-17.72
-2.92
12.59
26.11
35.36
39.55
39.74
38.36
38.20
41.25
48.06
57.80
68.76
79.22
88.00
94.79
100.01
104.32
108.17
111.22
112.62
111.35
106.82
99.27
89.77
79.83
70.83
63.64
58.42
54.84
52.38
50.63
49.48
48.99
49.16
49.66
49.84
48.99
46.69
43.13
39.09
35.63
33.64
33.60
35.40
38.46
42.00
45.23
47.56
48.57
48.06
45.92
42.10
36.57
29.31
20.37
9.93
-1.66
-13.91
-26.27
-38.20
-49.24
-59.08
-67.59
-74.77
-80.77
-85.90
-90.45
-94.57
-98.19
-100.96
-102.40
-102.10
-99.89
-95.99
-90.90
-85.27
-79.68
-74.54
-70.01
-66.05
-62.55
-59.44
-56.72
-54.39
-52.44
-50.79
-49.34
-48.04
-47.01
-46.50
-46.82
-48.12
-50.24
-52.64
-54.53
-55.14
-53.99
-51.11
-47.01
-42.44
-38.16
-34.61
-31.84
-29.50
-27.14
-24.33
-20.86
-16.73
-12.03
-6.88
-1.37
4.36
10.03
15.22
19.44
22.28
23.54
23.32
22.00
20.07
17.98
16.04
14.34
12.80
11.22
9.40
7.18
4.51
1.36
-2.28
-6.45
-11.05
-15.80
-20.19
-23.58
-25.43
-25.51
-24.04
-21.54
-18.67
-15.94
-13.57
-11.54
-9.64
-7.71
-5.68
-3.63
-1.75
-0.25
0.68
0.99
0.74
0.10
-0.75
-1.69
-2.69
-3.82
-5.16
-6.75
-8.52
-10.42
-12.42
-14.61
-17.09
-19.90
-22.85
-25.50
-27.22
-27.41
-25.78
-22.48
-18.15
-13.58
-9.42
-5.92
-2.93
-0.09
2.82
5.70
8.26
10.12
11.16
11.55
11.64
11.78
12.04
12.19
11.87
10.78
8.82
6.21
3.30
0.43
-2.22
-4.65
-7.03
-9.61
-12.58
-16.09
-20.13
-24.60
-29.29
-33.88
-37.97
-41.08
-42.79
-42.83
-41.24
-38.32
-34.56
-30.53
-26.58
-22.88
-19.36
-15.90
-12.47
-9.23
-6.46
-4.48
-3.40
-3.08
-3.15
-3.21
-2.97
-2.37
-1.64
-1.13
-1.16
-1.85
-3.08
-4.58
-6.00
-7.13
-7.88
-8.38
-8.88
-9.59
-10.65
-12.00
-13.39
-14.39
-14.50
-13.31
-10.64
-6.58
-1.44
4.37
10.48
16.68
22.82
28.90
34.77
40.20
44.95
48.75
51.57
53.59
55.20
56.81
58.70
60.92
63.26
65.34
66.75
67.09
66.21
64.19
61.43
58.49
55.95
54.10
52.85
51.66
49.68
46.06
40.33
32.60
23.62
14.64
7.05
2.03
0.18
1.39
4.91
9.63
14.43
18.48
21.44
23.49
25.12
27.02
29.74
33.31
37.13
39.83
39.69
35.15
25.46
11.06
-6.54
-25.26
-43.15
-58.91
-71.92
-82.07
-89.45
-94.10
-96.17
-96.02
-94.46
-92.53
-91.26
-91.28
-92.67
-94.92
-97.23
-98.75
-98.87
-97.26
-93.83
-88.64
-81.85
-73.65
-64.39
-54.49
-44.54
-35.06
-26.47
-18.97
-12.58
-7.20
-2.65
1.27
4.83
8.23
11.56
14.74
17.42
19.22
19.84
19.29
17.86
16.04
14.20
12.42
10.46
7.84
4.11
-0.87
-6.79
-12.86
-17.92
-20.82
-20.75
-17.44
-11.22
-2.89
6.57
16.19
25.07
32.53
38.10
41.64
43.41
43.96
43.83
43.38
42.63
41.46
39.96
38.66
38.40
39.87
43.05
46.96
49.98
50.59
48.00
42.56
35.43
28.03
21.52
16.48
12.97
10.80
9.62
9.03
8.49
7.44
5.42
2.27
-1.67
-5.65
-8.73
-10.10
-9.37
-6.77
-3.07
0.60
3.04
3.37
1.18
-3.38
-9.76
-17.16
-24.73
-31.64
-37.10
-40.42
-41.14
-39.16
-34.81
-28.77
-21.89
-14.89
-8.25
-2.19
3.32
8.38
13.03
17.29
21.08
24.34
27.08
29.39
31.42
33.36
35.38
37.59
40.02
42.55
44.97
46.98
48.33
48.86
48.54
47.53
46.09
44.52
43.08
41.88
40.88
39.88
38.64
36.96
34.69
31.84
28.45
24.63
20.41
15.77
10.62
4.88
-1.46
-8.35
-15.65
-23.13
-30.53
-37.54
-43.80
-48.90
-52.43
-54.06
-53.72
-51.65
-48.38
-44.56
-40.72
-37.13
-33.74
-30.36
-26.84
-23.14
-19.34
-15.56
-11.86
-8.20
-4.54
-0.86
2.73
6.04
8.79
10.73
11.70
11.66
10.76
9.24
7.38
5.38
3.31
1.04
-1.60
-4.67
-8.05
-11.37
-14.18
-16.06
-16.73
-16.21
-14.63
-12.21
-9.11
-5.37
-1.00
3.90
9.07
14.06
18.45
21.87
24.24
25.67
26.33
26.32
25.62
24.17
21.93
19.09
15.99
13.03
10.54
8.67
7.35
6.36
5.44
4.39
3.15
1.75
0.34
-0.87
-1.74
-2.20
-2.27
-2.06
-1.72
-1.32
-0.80
-0.01
1.28
3.21
5.76
8.69
11.60
14.10
15.94
17.12
17.87
18.47
19.10
19.72
20.12
20.04
19.39
18.25
16.88
15.47
14.14
12.80
11.31
9.55
7.49
5.14
2.50
-0.36
-3.34
-6.14
-8.37
-9.65
-9.75
-8.71
-6.75
-4.21
-1.38
1.49
4.24
6.77
9.02
11.00
12.73
14.22
15.41
16.19
16.51
16.37
15.88
15.20
14.43
13.58
12.64
11.60
10.44
9.18
7.76
6.09
4.11
1.90
-0.38
-2.55
-4.60
-6.69
-9.02
-11.73
-14.74
-17.82
-20.73
-23.38
-25.78
-27.95
-29.74
-30.88
-31.04
-30.09
-28.16
-25.56
-22.64
-19.62
-16.59
-13.57
-10.62
-7.89
-5.53
-3.62
-2.11
-0.87
0.25
1.32
2.34
3.16
3.64
3.61
2.99
1.82
0.28
-1.41
-3.08
-4.69
-6.31
-8.10
-10.16
-12.50
-15.03
-17.63
-20.25
-22.86
-25.48
-28.08
-30.55
-32.66
-34.11
-34.61
-33.96
-32.14
-29.30
-25.72
-21.70
-17.47
-13.18
-8.90
-4.72
-0.78
2.76
5.76
8.18
10.12
11.74
13.15
14.43
15.47
16.11
16.17
15.59
14.48
13.08
11.71
10.51
9.45
8.30
6.78
4.72
2.19
-0.60
-3.43
-6.16
-8.77
-11.28
-13.61
-15.55
-16.80
-17.10
-16.32
-14.54
-11.97
-8.87
-5.51
-2.10
1.20
4.26
7.04
9.54
11.78
13.83
15.75
17.62
19.45
21.23
22.84
24.06
24.69
24.59
23.81
22.61
21.30
20.09
18.99
17.83
16.42
14.66
12.65
10.56
8.53
6.54
4.49
2.27
-0.14
-2.66
-5.25
-7.93
-10.82
-14.12
-17.90
-22.14
-26.63
-31.06
-35.01
-38.06
-39.80
-39.93
-38.40
-35.38
-31.25
-26.45
-21.33
-16.17
-11.10
-6.24
-1.67
2.53
6.37
9.89
13.14
16.10
18.70
20.86
22.52
23.72
24.57
25.20
25.67
25.95
25.93
25.47
24.48
22.99
21.14
19.14
17.23
15.51
13.94
12.36
10.57
8.41
5.83
2.90
-0.29
-3.68
-7.29
-11.15
-15.29
-19.66
-24.10
-28.44
-32.43
-35.82
-38.35
-39.77
-39.87
-38.61
-36.10
-32.63
-28.57
-24.28
-20.03
-15.91
-11.89
-7.89
-3.87
0.03
3.62
6.65
8.98
10.65
11.86
12.89
13.91
14.96
15.90
16.51
16.61
16.11
15.04
13.46
11.43
9.01
6.28
3.34
0.36
-2.55
-5.37
-8.15
-11.05
-14.20
-17.62
-21.19
-24.61
-27.42
-29.20
-29.58
-28.41
-25.80
-22.04
-17.51
-12.53
-7.25
-1.67
4.23
10.31
16.30
21.73
26.15
29.30
31.18
32.10
32.47
32.68
32.90
33.05
32.88
32.11
30.59
28.35
25.53
22.30
18.75
14.89
10.67
6.08
1.20
-3.90
-9.18
-14.68
-20.52
-26.73
-33.13
-39.32
-44.67
-48.54
-50.44
-50.17
-47.91
-44.12
-39.35
-34.11
-28.68
-23.13
-17.37
-11.30
-4.93
1.56
7.83
13.52
18.35
22.17
25.06
27.18
28.77
30.11
31.40
32.72
34.03
35.14
35.76
35.61
34.54
32.53
29.74
26.41
22.78
18.96
14.90
10.44
5.36
-0.33
-6.31
-12.01
-16.66
-19.65
-20.77
-20.17
-18.31
-15.71
-12.76
-9.63
-6.41
-3.16
-0.02
2.84
5.28
7.19
8.52
9.22
9.34
8.99
8.30
7.43
6.34
4.86
2.67
-0.46
-4.62
-9.62
-15.15
-20.90
-26.68
-32.45
-38.26
-44.15
-50.14
-56.18
-62.26
-68.27
-74.02
-79.12
-83.02
-85.11
-84.99
-82.60
-78.27
-72.56
-66.11
-59.40
-52.68
-46.04
-39.45
-33.01
-26.84
-21.10
-15.91
-11.25
-7.02
-3.08
0.62
4.01
6.87
8.94
10.07
10.25
9.59
8.28
6.51
4.35
1.80
-1.21
-4.82
-9.13
-14.18
-19.80
-25.51
-30.43
-33.56
-33.92
-31.00
-24.86
-16.13
-5.72
5.46
16.70
27.55
37.71
46.89
54.74
60.97
65.39
68.11
69.41
69.77
69.60
69.23
68.78
68.26
67.62
66.92
66.33
66.02
66.07
66.32
66.36
65.64
63.69
60.31
55.62
49.94
43.72
37.35
31.17
25.54
20.85
17.45
15.61
15.33
16.35
18.26
20.67
23.38
26.39
29.87
33.91
38.39
42.94
47.10
50.44
52.76
54.06
54.42
53.90
52.38
49.72
45.84
40.89
35.16
29.08
22.98
17.01
11.18
5.30
-0.84
-7.54
-15.01
-23.35
-32.36
-41.43
-49.63
-55.96
-59.64
-60.40
-58.52
-54.61
-49.37
-43.33
-36.82
-30.02
-23.14
-16.49
-10.46
-5.40
-1.51
1.30
3.28
4.77
6.06
7.21
8.09
8.40
7.78
6.03
3.12
-0.77
-5.34
-10.39
-15.89
-22.07
-29.24
-37.64
-47.25
-57.64
-68.05
-77.53
-85.12
-89.99
-91.50
-89.32
-83.36
-73.90
-61.60
-47.35
-32.14
-16.81
-1.93
12.28
25.72
38.23
49.55
59.22
66.82
72.07
74.97
75.71
74.53
71.53
66.58
59.33
49.35
36.31
20.18
1.43
-18.90
-39.18
-57.50
-72.16
-82.29
-88.31
-91.99
-95.83
-102.03
-111.35
-122.43
-132.02
-136.07
-131.33
-116.66
-93.53
-65.43
-36.50
-10.05
12.26
30.28
44.64
55.58
62.40
63.73
58.40
46.27
28.29
6.08
-18.45
-42.98
-64.33
-78.05
-79.40
-65.42
-37.19
-0.86
33.74
56.66
62.12
51.09
30.53
9.62
-4.99
-12.19
-15.99
-22.06
-33.44
-48.00
-59.20
-59.68
-45.55
-19.09
12.34
40.01
58.10
66.32
69.12
72.44
79.95
91.23
102.62
109.96
111.27
108.01
104.05
103.27
107.41
115.29
123.71
129.40
130.70
128.26
124.34
121.38
120.52
120.91
120.10
115.18
104.08
86.53
64.28
40.41
18.30
0.47
-12.11
-19.96
-24.66
-28.00
-31.24
-34.61
-37.38
-38.23
-35.97
-30.08
-21.00
-9.91
1.70
12.55
21.91
29.58
35.81
41.09
45.84
50.30
54.25
57.06
57.78
55.54
50.06
41.95
32.60
23.69
16.45
11.21
7.44
4.26
1.07
-2.03
-4.33
-4.89
-3.07
1.29
7.86
16.05
25.35
35.43
46.24
57.73
69.76
81.79
93.09
102.80
110.35
115.61
118.91
120.81
121.76
121.84
120.73
118.00
113.37
106.91
98.95
89.85
79.77
68.59
56.09
42.15
26.96
11.09
-4.63
-19.20
-31.72
-41.47
-48.16
-51.92
-53.33
-53.18
-52.29
-51.21
-50.31
-49.84
-50.20
-52.03
-56.05
-62.74
-72.04
-83.19
-94.93
-105.96
-115.38
-123.02
-129.44
-135.65
-142.71
-151.37
-161.98
-174.49
-188.56
-203.54
-218.40
-231.76
-242.07
-247.94
-248.58
-244.03
-235.01
-222.51
-207.32
-189.77
-169.96
-148.22
-125.44
-103.07
-82.71
-65.60
-52.16
-41.93
-33.92
-26.84
-19.32
-10.04
2.26
18.24
37.45
57.96
76.80
91.13
99.47
102.26
101.22
97.96
92.71
84.30
71.27
53.61
33.60
15.28
2.57
-2.69
-1.59
2.68
6.75
8.73
8.82
8.55
9.35
11.56
14.30
16.13
15.88
13.37
9.40
5.15
1.73
-0.33
-1.10
-1.11
-0.94
-0.97
-1.19
-1.27
-0.83
0.36
2.26
4.58
7.11
9.85
13.10
17.32
22.84
29.60
