1533220432.00
64.000000
-0.00
-0.00
-0.00
-0.00
-0.00
-0.00
-0.00
-0.00
-0.00
-0.00
0.00
0.01
0.01
-0.00
-0.03
-0.05
-0.05
0.00
0.13
0.36
0.66
1.01
1.37
1.72
2.06
2.40
2.79
3.24
3.80
4.42
5.06
5.66
6.20
6.68
7.15
7.68
8.31
9.14
10.09
11.04
11.88
12.56
13.14
13.76
14.65
15.96
17.91
20.32
22.90
25.38
27.58
29.57
31.68
34.32
37.81
42.54
48.15
54.10
59.83
64.97
69.58
74.14
79.34
85.71
93.76
103.00
112.62
121.73
129.77
136.75
143.30
150.75
157.77
166.64
177.95
191.79
206.97
220.57
228.25
225.36
208.53
176.87
132.76
80.05
23.07
-34.94
-92.44
-149.16
-205.23
-260.37
-313.74
-363.87
-409.83
-450.91
-486.50
-515.74
-537.23
-549.22
-549.96
-538.37
-514.21
-478.67
-433.88
-382.45
-327.02
-269.84
-212.63
-156.66
-102.95
-52.37
-5.90
35.58
71.43
101.35
125.50
144.38
158.69
169.15
176.37
180.75
182.57
182.07
179.51
175.23
169.65
163.18
156.15
148.81
141.30
133.69
126.02
118.33
110.69
103.16
95.80
88.68
81.83
75.25
68.95
62.95
57.25
51.86
46.78
42.03
37.59
33.45
29.61
26.07
22.81
19.83
17.11
14.67
12.48
10.54
8.83
7.35
6.07
4.97
4.05
3.27
2.62
2.09
1.65
1.30
1.01
0.79
0.61
0.47
0.37
0.29
0.24
0.22
0.21
0.22
0.21
0.18
0.12
0.04
-0.04
-0.07
-0.06
-0.00
0.07
0.13
0.15
0.10
0.02
-0.07
-0.11
-0.09
0.00
0.13
0.23
0.26
0.18
0.04
-0.11
-0.15
-0.04
0.22
0.52
0.72
0.70
0.40
-0.07
-0.51
-0.68
-0.45
0.15
0.90
1.45
1.50
0.96
-0.01
-0.99
-1.53
-1.31
-0.38
0.90
1.94
2.24
1.58
0.21
-1.26
-2.17
-2.10
-1.00
0.68
2.29
3.14
2.62
0.25
-4.13
-10.08
-16.27
-20.58
-20.75
-15.57
-5.56
6.71
17.57
23.73
23.81
18.71
11.15
4.20
-0.01
-0.81
1.14
4.60
8.42
11.62
13.46
13.22
10.51
5.43
-1.23
-8.12
-13.68
-16.64
-16.52
-13.57
-8.69
-3.16
1.80
5.18
6.44
5.52
2.78
-1.09
-5.30
-9.12
-12.00
-13.49
-13.22
-10.86
-6.36
-0.13
6.80
12.94
16.69
16.95
13.50
7.16
-0.46
-7.62
-12.89
-15.57
-15.54
-13.15
-8.94
-3.38
2.94
9.52
15.65
20.58
23.63
24.36
22.60
18.39
11.90
3.14
-7.34
-18.51
-28.94
-36.95
-40.92
-39.83
-33.66
-23.61
-11.88
-1.09
6.35
9.01
6.72
0.54
-7.76
-16.17
-22.96
-27.04
-27.96
-25.99
-22.03
-17.40
-13.54
-11.59
-11.97
-14.19
-17.00
-18.85
-18.53
-15.60
-10.55
-4.40
1.74
7.14
11.60
15.26
18.32
20.78
22.39
22.90
22.35
21.16
19.97
19.40
19.74
20.84
22.22
23.42
24.20
24.66
25.10
25.75
26.60
27.36
27.63
27.15
25.97
24.32
22.51
20.60
18.38
15.49
11.61
6.76
1.29
-4.12
-8.72
-11.93
-13.51
-13.58
-12.55
-11.01
-9.43
-8.10
-6.97
-5.76
-4.18
-2.14
0.16
2.24
3.61
3.96
3.36
2.13
0.77
-0.33
-0.99
-1.26
-1.30
-1.25
-1.15
-0.99
-0.79
-0.68
-0.84
-1.55
-3.09
-5.61
-9.17
-13.53
-18.26
-22.73
-26.27
-28.29
-28.45
-26.71
-23.30
-18.60
-13.09
-7.27
-1.68
3.18
6.97
9.58
11.22
12.31
13.25
14.28
15.29
16.02
16.18
15.65
14.53
13.08
11.58
10.17
8.94
7.91
7.16
6.75
6.67
6.82
6.95
6.70
5.78
4.05
1.61
-1.31
-4.36
-7.21
-9.65
-11.59
-13.16
-14.59
-16.22
-18.25
-20.63
-23.04
-24.86
-25.48
-24.49
-21.83
-17.83
-13.07
-8.13
-3.46
0.80
4.64
8.17
11.41
14.27
16.56
18.09
18.78
18.74
18.22
17.56
16.97
16.55
16.23
15.83
15.29
14.68
14.18
13.92
13.91
13.95
13.68
12.76
11.04
8.61
5.82
3.08
0.75
-0.93
-1.99
-2.61
-3.07
-3.63
-4.52
-5.81
-7.46
-9.29
-10.99
-12.21
-12.62
-11.99
-10.22
-7.41
-3.83
0.07
3.79
6.85
8.95
10.04
10.40
10.44
10.55
10.92
11.45
11.92
12.05
11.71
10.96
9.97
8.92
7.82
6.62
5.17
3.39
1.39
-0.53
-1.92
-2.37
-1.71
-0.16
1.71
3.15
3.55
2.68
0.71
-1.89
-4.66
-7.22
-9.42
-11.20
-12.44
-12.88
-12.24
-10.43
-7.73
-4.82
-2.54
-1.54
-1.91
-3.18
-4.42
-4.68
-3.39
-0.60
3.11
6.83
9.74
11.35
11.55
10.56
8.74
6.53
4.29
2.27
0.51
-1.04
-2.50
-3.93
-5.31
-6.56
-7.57
-8.42
-9.31
-10.56
-12.45
-15.09
-18.39
-22.13
-25.97
-29.53
-32.22
-33.35
-32.20
-28.37
-22.03
-13.98
-5.44
2.37
8.71
13.38
16.69
19.10
20.89
22.09
22.60
22.34
21.46
20.29
19.23
18.56
18.32
18.23
17.82
16.53
13.98
10.15
5.46
0.69
-3.35
-6.14
-7.67
-8.35
-8.80
-9.56
-10.92
-12.96
-15.59
-18.64
-21.82
-24.65
-26.49
-26.68
-24.84
-21.05
-15.87
-10.19
-4.84
-0.40
3.02
5.60
7.61
9.26
10.53
11.30
11.43
10.90
9.86
8.65
7.60
6.92
6.55
6.25
5.78
5.09
4.44
4.29
5.03
6.72
8.93
10.83
11.31
9.43
4.46
-3.80
-15.00
-28.00
-40.96
-51.45
-57.06
-56.13
-48.38
-35.24
-19.54
-4.64
6.50
12.17
12.25
7.93
1.19
-5.90
-11.54
-14.46
-13.90
-9.61
-1.85
8.60
20.48
32.16
41.89
48.22
50.21
47.72
41.30
32.11
21.63
11.47
3.13
-2.18
-3.73
-1.49
3.82
10.72
17.43
22.25
23.99
22.32
17.74
11.35
4.55
-1.39
-5.48
-7.35
-7.20
-5.69
-3.66
-1.82
-0.56
0.09
0.33
0.31
0.10
-0.27
-0.72
-1.06
-1.11
-0.81
-0.28
0.21
0.47
0.52
0.59
0.97
1.79
2.89
3.96
4.61
4.62
4.00
2.87
1.43
-0.23
-2.12
-4.25
-6.55
-8.89
-11.07
-13.00
-14.72
-16.40
-18.22
-20.29
-22.62
-25.19
-27.98
-30.99
-34.10
-36.98
-39.05
-39.68
-38.34
-34.93
-29.74
-23.48
-16.98
-10.96
-5.85
-1.65
1.85
4.95
7.77
10.24
12.15
13.34
13.90
14.15
14.52
15.25
16.20
16.96
17.02
16.15
14.55
12.79
11.51
11.13
11.65
12.64
13.39
13.08
11.05
6.92
0.72
-7.11
-15.66
-23.73
-29.96
-33.14
-32.46
-27.70
-19.31
-8.33
3.93
16.06
26.84
35.28
40.58
42.10
39.41
32.51
22.05
9.48
-3.03
-13.02
-18.42
-18.18
-12.74
-3.99
5.28
12.22
14.73
12.05
4.84
-5.17
-15.76
-24.75
-30.41
-31.74
-28.58
-21.61
-12.33
-2.77
4.86
8.66
7.60
1.71
-7.85
-19.11
-29.76
-37.76
-41.78
-41.46
-37.36
-30.62
-22.48
-13.92
-5.52
2.45
9.81
16.25
21.34
24.69
26.13
26.01
25.02
24.03
23.76
24.43
25.85
27.48
28.84
29.69
30.11
30.36
30.60
30.66
30.10
28.42
25.33
20.96
15.78
10.40
5.32
0.74
-3.34
-6.98
-10.09
-12.45
-13.80
-14.03
-13.28
-11.90
-10.24
-8.57
-7.14
-6.17
-6.19
-7.94
-12.26
-19.73
-30.22
-42.77
-55.63
-66.72
-74.21
-77.07
-75.44
-70.56
-64.40
-59.02
-56.01
-56.18
-59.61
-65.92
-74.63
-85.41
-98.11
-112.76
-129.40
-148.06
-168.62
-190.71
-213.59
-236.10
-256.67
-273.65
-285.60
-291.54
-291.30
-285.52
-275.54
-263.11
-249.82
-236.65
-223.50
-209.29
-192.34
-171.09
-144.84
-114.02
-79.85
-43.69
-6.14
33.32
76.26
124.48
178.87
238.38
299.40
356.32
402.77
433.52
446.37
443.17
429.63
413.97
404.76
408.40
427.19
458.28
494.50
526.28
544.62
543.77
522.73
485.00
436.89
385.06
334.71
288.82
248.38
213.28
182.80
155.70
130.03
103.31
73.17
38.40
-0.23
-39.84
-76.33
-105.62
-125.03
-134.04
-134.23
-128.51
-120.06
-111.44
-103.98
-97.91
-92.65
-87.53
-82.30
-77.36
-73.53
-71.51
-71.29
-71.94
-71.90
-69.76
-65.00
-58.24
-50.99
-44.96
-41.24
-39.87
-40.07
-40.73
-40.96
-40.44
-39.25
-37.58
-35.52
-33.15
-30.80
-29.22
-29.58
-33.00
-40.02
-50.33
-62.90
-76.46
-90.07
-103.35
-116.41
-129.34
-141.93
-153.78
-164.55
-174.33
-183.75
-193.62
-204.46
-216.25
-228.40
-240.22
-251.31
-261.76
-272.02
-282.61
-293.82
-305.58
-317.32
-327.98
-335.87
-338.91
-335.03
-322.85
-302.28
-274.77
-242.90
-209.65
-177.60
-148.39
-122.66
-100.18
-80.34
-62.24
-44.89
-27.36
-9.00
10.36
30.30
50.03
68.83
86.46
103.57
121.83
143.51
170.75
204.52
243.70
284.68
321.71
348.19
358.56
350.16
324.39
286.36
243.47
203.01
170.16
146.86
132.12
123.30
117.55
112.86
108.19
103.15
97.43
90.69
82.81
74.31
66.33
60.26
56.91
56.15
56.73
56.92
55.36
51.68
46.65
41.71
38.28
37.21
38.54
41.86
46.63
52.57
59.65
67.76
76.49
84.94
92.05
96.99
99.52
100.02
99.04
96.77
92.46
84.48
70.81
49.84
21.27
-13.60
-51.89
-89.88
-123.82
-150.71
-168.83
-177.82
-178.59
-173.05
-163.65
-152.95
-143.00
-134.82
-128.10
-121.49
-113.19
-101.73
-86.58
-68.47
-48.83
-29.34
-11.19
5.11
19.59
32.43
43.70
53.23
60.80
66.36
70.25
73.03
75.38
77.68
79.91
81.64
82.23
81.20
78.48
74.89
72.38
73.94
82.81
101.21
128.94
162.79
197.23
226.18
245.11
252.36
249.12
238.04
221.78
202.03
179.74
155.94
132.28
110.89
93.45
80.28
70.00
60.27
48.85
34.58
17.79
-0.07
-17.15
-31.98
-43.95
-53.26
-60.71
-67.24
-73.65
-80.33
-87.31
-94.31
-100.93
-106.74
-111.33
-114.36
-115.69
-115.41
-113.83
-111.49
-108.94
-106.60
-104.64
-103.01
-101.56
-100.13
-98.68
-97.27
-96.06
-95.05
-94.15
-93.02
-91.22
-88.41
-84.55
-79.99
-75.31
-71.00
-67.16
-63.37
-58.94
-53.25
-46.11
-37.83
-28.86
-19.49
-9.55
1.34
13.27
25.78
37.70
47.58
54.20
57.02
56.21
52.35
46.15
38.22
29.07
19.32
9.75
1.19
-5.74
-10.89
-14.54
-17.35
-20.02
-23.07
-26.69
-30.75
-34.78
-38.15
-40.16
-40.24
-38.16
-34.13
-28.77
-22.93
-17.35
-12.47
-8.30
-4.58
-1.08
2.23
5.13
7.28
8.44
8.60
8.05
7.16
6.22
5.33
4.38
3.24
1.78
0.01
-1.97
-4.01
-5.99
-7.87
-9.70
-11.59
-13.69
-16.11
-18.90
-22.01
-25.30
-28.59
-31.56
-33.82
-34.94
-34.60
-32.62
-29.14
-24.57
-19.49
-14.54
-10.16
-6.63
-3.96
-2.04
-0.66
0.32
1.00
1.34
1.32
0.92
0.17
-0.79
-1.85
-2.97
-4.28
-5.99
-8.29
-11.24
-14.65
-18.15
-21.34
-23.95
-25.92
-27.39
-28.62
-29.87
-31.27
-32.86
-34.57
-36.32
-38.00
-39.53
-40.71
-41.26
-40.79
-38.95
-35.44
-30.18
-23.22
-14.79
-5.25
4.88
14.97
24.27
31.98
37.51
40.58
41.31
40.20
37.90
34.98
31.76
28.29
24.38
19.82
14.50
8.46
1.94
-4.68
-11.00
-16.74
-21.87
-26.63
-31.50
-36.91
-43.02
-49.61
-56.13
-62.16
-67.68
-73.28
-79.92
-88.45
-99.14
-111.57
-124.86
-138.19
-151.05
-163.18
-174.08
-182.77
-187.72
-187.49
-181.37
-169.74
-153.88
-135.21
-114.75
-93.03
-70.70
-49.18
-30.80
-18.11
-12.42
-12.97
-16.84
-20.27
-20.49
-17.08
-11.98
-8.24
-8.14
-11.76
-17.02
-20.74
-20.40
-15.21
-6.33
4.15
14.40
23.59
32.02
40.18
47.97
54.28
57.52
56.32
50.12
39.20
24.28
6.33
-13.30
-32.62
-49.10
-60.54
-66.27
-67.99
-69.36
-74.21
-84.45
-98.69
-112.62
-120.96
-119.88
-108.41
-88.19
-61.99
-32.09
0.26
34.31
68.75
100.94
127.26
144.44
151.14
148.81
141.27
133.08
127.55
125.36
124.64
122.27
115.86
105.18
92.37
80.81
73.46
71.48
73.75
77.61
80.11
79.13
73.89
64.88
53.30
40.67
28.23
16.53
5.01
-8.17
-25.52
-48.89
-78.10
-110.19
-140.11
-162.55
-173.95
-173.60
-163.31
-145.67
-122.32
-93.15
-56.89
-12.70
38.32
92.63
144.98
189.78
222.60
241.11
245.41
237.78
221.94
202.07
181.69
162.95
146.32
131.14
116.22
100.64
84.15
67.33
51.64
39.60
34.76
41.24
62.49
99.26
148.04
200.97
247.53
277.82
285.76
270.73
237.10
191.76
141.35
90.19
39.97
-9.32
-58.08
-106.21
-153.13
-198.13
-240.61
-279.76
-313.84
-339.85
-353.97
-352.87
-335.30
-302.99
-260.35
-212.87
-164.97
-118.59
-73.16
-27.01
20.70
68.51
112.68
148.45
171.97
181.72
179.15
168.02
153.27
139.66
130.89
128.97
133.96
143.92
155.40
164.37
167.64
164.00
154.67
142.57
131.00
122.18
116.61
113.33
111.03
109.05
107.87
108.88
113.57
122.85
136.63
153.62
171.37
186.30
194.17
190.92
173.77
142.45
100.05
53.16
10.76
-18.12
-27.32
-15.96
10.96
43.98
72.35
87.33
84.52
64.22
30.12
-12.36
-57.45
-99.42
-132.80
-152.93
-157.25
-146.69
-126.04
-102.62
-83.66
-73.53
-72.25
-75.86
-78.54
-75.29
-63.84
-45.09
-22.00
2.26
25.90
49.01
72.94
99.11
127.79
157.47
185.07
206.79
219.04
219.48
207.71
185.80
158.16
130.82
109.80
99.28
100.08
109.36
121.68
131.22
133.75
127.82
114.55
96.51
76.49
56.79
39.18
25.13
15.82
11.78
12.29
15.27
17.66
16.57
10.35
-0.76
-14.85
-29.25
-41.58
-50.59
-56.24
-59.35
-60.99
-61.93
-62.57
-63.01
-63.28
-63.45
-63.56
-63.56
-63.19
-62.04
-59.67
-55.79
-50.34
-43.62
-36.32
-29.62
-25.13
-24.61
-29.50
-40.30
-56.27
-75.52
-95.55
-114.05
-129.41
-140.94
-148.59
-152.55
-152.96
-149.88
-143.41
-134.06
-122.82
-111.00
-99.99
-90.80
-83.87
-79.01
-75.55
-72.63
-69.60
-66.14
-62.34
-58.54
-55.06
-51.99
-49.23
-46.63
-44.09
-41.73
-39.67
-37.96
-36.42
-34.68
-32.38
-29.40
-25.96
-22.53
-19.45
-16.76
-14.01
-10.53
-5.76
0.39
7.42
14.46
20.65
25.54
29.19
32.00
34.43
36.68
38.64
40.04
40.50
39.48
36.32
30.34
21.26
9.68
-2.71
-13.53
-20.56
-22.77
-20.86
-17.00
-13.81
-13.23
-15.92
-21.15
-27.60
-34.17
-40.42
-46.82
-54.41
-64.19
-76.67
-91.66
-108.39
-125.58
-141.35
-153.29
-158.76
-155.62
-143.22
-123.01
-98.32
-73.41
-51.99
-36.05
-25.59
-19.39
-16.09
-15.06
-16.46
-20.60
-27.14
-34.94
-42.33
-48.09
-52.04
-54.91
-58.03
-62.53
-68.59
-75.40
-81.48
-85.53
-87.06
-86.79
-86.38
-87.76
-92.41
-100.76
-112.10
-124.98
-137.68
-148.70
-157.04
-162.18
-164.00
-162.57
-157.93
-150.12
-139.16
-125.04
-107.97
-88.57
-68.25
-49.53
-36.18
-32.74
-43.27
-69.51
-109.33
-156.34
-201.30
-234.93
-250.96
-248.00
-229.29
-200.58
-167.44
-133.07
-98.00
-60.98
-20.52
23.92
71.47
120.00
166.45
207.37
239.55
260.85
270.90
271.23
264.54
253.66
240.46
225.55
208.89
190.76
172.63
157.24
148.00
148.14
160.15
185.53
224.36
274.55
331.05
385.87
429.17
451.93
449.08
421.69
376.88
325.37
277.42
239.19
211.26
189.35
167.00
138.31
99.82
51.07
-5.70
-66.29
-125.27
-176.83
-215.97
-239.74
-248.30
-245.26
-236.97
-230.73
-232.49
-244.71
-265.30
-287.92
-303.81
-304.66
-285.42
-245.99
-191.15
-128.71
-66.62
-10.44
37.86
79.49
117.12
152.86
186.88
217.03
239.65
251.08
249.14
234.15
208.98
178.06
146.06
116.78
92.80
75.71
66.32
64.51
68.68
75.43
80.09
78.23
67.55
49.16
27.20
7.00
-7.32
-14.54
-16.54
-16.96
-19.32
-25.50
-35.18
-46.22
-55.68
-60.86
-60.03
-53.01
-41.11
-26.65
-12.21
0.23
9.76
16.48
21.05
24.06
25.80
26.30
25.69
24.38
23.03
22.24
22.17
22.46
22.40
21.31
18.90
15.53
12.06
9.56
8.86
10.17
12.94
16.07
18.38
19.09
18.17
16.11
13.61
11.15
8.82
6.55
4.50
3.30
3.85
6.91
12.52
19.81
27.32
33.55
37.68
39.75
40.56
41.17
42.50
45.08
49.15
54.71
61.45
68.69
75.18
79.36
79.82
75.96
68.51
59.29
50.62
44.18
40.28
37.46
33.21
24.84
10.69
-9.33
-33.84
-60.74
-88.13
-114.95
-141.05
-166.55
-191.20
-213.91
-232.98
-246.74
-254.23
-255.56
-251.55
-243.12
-230.79
-214.59
-194.51
-171.06
-145.53
-119.87
-96.13
-75.75
-59.32
-46.53
-36.53
-28.36
-21.31
-15.05
-9.63
-5.44
-2.95
-2.66
-5.00
-10.19
-18.11
-28.04
-38.56
-47.49
-52.40
-51.31
-43.49
-30.00
-13.43
2.86
15.88
23.95
27.01
26.22
23.12
18.90
14.02
8.36
1.57
-6.62
-16.41
-27.92
-41.26
-56.28
-72.13
-87.10
-98.83
-105.06
-104.62
-98.00
-87.48
-76.37
-67.95
-64.28
-65.43
-69.43
-72.87
-72.02
-64.12
-48.44
-26.51
-1.59
22.43
42.42
56.80
65.79
70.84
73.87
76.61
80.24
85.21
91.31
97.65
102.86
105.44
104.23
98.93
90.23
79.63
68.85
59.14
50.93
43.68
36.26
27.30
15.70
0.98
-16.33
-34.50
-50.76
-61.87
-65.22
-59.82
-46.81
-29.18
-10.68
5.54
17.90
26.55
32.75
37.86
42.56
46.74
49.89
51.73
52.48
52.75
53.09
53.54
53.48
51.92
48.07
41.86
34.00
25.65
17.88
11.11
4.92
-1.73
-10.03
-20.89
-34.54
-50.24
-66.19
-79.62
-87.41
-86.97
-77.28
-59.44
-36.48
-12.37
9.33
26.60
39.22
48.33
55.44
61.59
67.04
71.48
74.44
75.74
75.59
74.46
72.81
70.96
68.96
66.70
63.98
60.63
56.55
51.72
46.22
40.14
33.55
26.50
19.08
11.47
3.90
-3.33
-10.06
-16.53
-23.42
-31.55
-41.36
-52.21
-62.15
-68.26
-67.83
-59.54
-44.29
-25.02
-5.55
10.90
22.86
30.78
36.33
41.20
46.19
50.98
54.62
56.34
56.09
54.67
53.25
52.68
53.02
53.43
52.62
49.51
43.77
36.02
27.48
19.47
12.70
7.10
1.92
-3.89
-11.16
-20.32
-31.41
-44.18
-58.12
-72.26
-84.92
-93.74
-96.22
-90.57
-76.71
-56.57
-33.66
-11.82
6.09
19.06
27.90
34.39
40.18
46.04
51.74
56.45
59.47
60.62
60.30
59.24
58.06
57.03
56.05
54.73
52.75
49.93
46.39
42.43
38.38
34.40
30.36
25.83
20.21
13.05
4.23
-5.89
-16.50
-26.67
-35.59
-42.87
-48.60
-53.23
-57.40
-61.75
-66.90
-73.42
-81.71
-91.75
-102.67
-112.55
-118.68
-118.39
-110.07
-94.05
-72.64
-49.43
-27.92
-10.42
2.53
11.85
19.07
25.41
31.34
36.67
40.98
44.12
46.34
48.08
49.63
50.93
51.60
51.23
49.72
47.38
44.81
42.49
40.49
38.35
35.29
30.57
23.88
15.57
6.56
-2.03
-9.30
-14.91
-19.28
-23.43
-28.60
-35.88
-45.60
-57.06
-68.43
-77.08
-80.31
-76.23
-64.53
-46.72
-25.69
-4.80
13.29
27.28
37.42
44.88
50.96
56.44
61.38
65.38
68.03
69.28
69.44
68.93
67.98
66.39
63.70
59.45
53.54
46.44
39.07
32.36
26.80
22.08
17.23
11.01
2.64
-7.86
-19.50
-30.79
-40.39
-47.65
-52.89
-57.23
-62.09
-68.72
-77.72
-88.68
-100.10
-109.52
-114.05
-111.26
-100.14
-81.65
-58.57
-34.64
-13.23
3.68
15.89
24.59
31.36
37.39
43.06
48.12
52.11
54.84
56.54
57.59
58.35
58.83
58.74
57.63
55.22
51.66
47.49
43.49
40.34
38.27
36.95
35.64
33.49
29.96
25.06
19.21
13.12
7.39
2.37
-1.89
-5.53
-8.84
-12.19
-16.01
-20.72
-26.56
-33.38
-40.58
-47.35
-52.99
-57.23
-60.45
-63.46
-67.27
-72.74
-80.38
-90.18
-101.34
-112.20
-120.17
-122.33
-116.30
-101.29
-78.67
-51.79
-24.90
-1.77
15.51
26.89
33.86
38.48
42.44
46.57
50.91
55.17
59.10
62.64
65.77
68.35
70.00
70.27
68.86
65.86
61.78
57.29
52.81
48.34
43.43
37.52
30.29
21.93
13.11
4.73
-2.44
-8.12
-12.61
-16.77
-21.74
-28.52
-37.42
-47.74
-57.63
-64.49
-65.84
-60.21
-47.89
-30.84
-12.11
5.30
19.30
29.15
35.23
38.42
39.48
38.81
36.54
32.91
28.41
23.87
20.04
17.36
15.72
14.34
12.14
8.08
1.62
-7.04
-16.93
-26.68
-34.98
-41.15
-45.32
-48.40
-51.61
-55.98
-61.99
-69.34
-77.00
-83.46
-86.97
-85.94
-79.30
-66.95
-49.98
-30.55
-11.32
5.27
17.78
26.03
30.92
33.82
35.87
37.67
39.24
40.38
41.06
41.53
42.14
43.05
44.00
44.36
43.43
40.89
37.03
32.64
28.65
25.62
23.41
21.28
18.18
13.24
5.96
-3.69
-15.27
-28.00
-40.54
-51.13
-57.69
-58.44
-52.58
-40.74
-25.03
-8.31
6.72
18.46
26.68
32.22
36.26
39.65
42.61
44.89
46.14
46.27
45.52
44.27
42.79
41.05
38.76
35.68
31.73
27.24
22.71
18.64
15.19
12.09
8.64
4.03
-2.30
-10.32
-19.33
-28.20
-35.88
-41.79
-46.17
-49.92
-54.33
-60.60
-69.46
-80.72
-93.21
-104.79
-112.86
-115.06
-110.11
-98.47
-82.35
-65.06
-49.81
-38.66
-31.93
-28.46
-26.51
-24.70
-22.65
-20.82
-20.05
-20.89
-23.37
-26.99
-31.19
-35.69
-40.69
-46.64
-53.98
-62.78
-72.79
-83.55
-94.77
-106.49
-119.12
-133.10
-148.57
-165.06
-181.48
-196.38
-208.29
-215.97
-218.41
-214.77
-204.17
-185.76
-159.14
-124.73
-84.07
-39.81
4.83
46.69
83.29
113.13
135.69
151.18
160.27
163.96
163.55
160.53
156.45
152.53
149.40
146.90
144.19
140.20
134.19
126.10
116.67
107.09
98.45
91.21
84.93
78.40
70.19
59.24
45.41
29.66
13.77
-0.17
-10.27
-15.41
-15.31
-10.63
-2.77
6.46
15.29
22.42
27.36
30.47
32.70
35.02
38.06
41.84
45.93
49.81
53.12
55.87
58.19
60.20
61.85
62.97
63.36
62.96
61.87
60.37
58.86
57.75
57.31
57.52
58.00
57.96
56.49
52.94
47.27
40.23
33.17
27.53
24.28
23.42
23.95
24.23
22.64
18.11
10.55
0.77
-9.76
-19.33
-26.45
-30.12
-30.04
-26.57
-20.61
-13.28
-5.63
1.64
8.25
14.24
19.80
25.07
30.10
34.87
39.35
43.52
47.37
50.79
53.60
55.57
56.50
56.30
55.05
53.02
50.55
47.98
45.50
43.09
40.49
37.37
33.47
28.76
23.50
18.23
13.53
9.86
7.26
5.42
3.77
1.79
-0.81
-3.91
-7.12
-9.93
-12.01
-13.42
-14.48
-15.65
-17.27
-19.50
-22.30
-25.54
-29.03
-32.41
-35.09
-36.15
-34.55
-29.42
-20.46
-8.13
6.41
21.56
35.79
47.98
57.65
64.85
69.93
73.33
75.36
76.16
75.83
74.47
72.24
69.30
65.76
61.56
56.55
50.56
43.55
35.73
27.48
19.36
11.88
5.38
-0.07
-4.63
-8.58
-12.24
-15.79
-19.32
-22.82
-26.41
-30.22
-34.39
-38.83
-43.07
-46.34
-47.82
-47.05
-44.20
-40.05
-35.63
-31.84
-29.08
-27.25
-26.04
-25.18
-24.67
-24.76
-25.74
-27.71
-30.43
-33.44
-36.21
-38.38
-39.92
-41.08
-42.23
-43.68
-45.54
-47.76
-50.18
-52.72
-55.52
-58.85
-62.99
-67.99
-73.65
-79.52
-85.07
-89.94
-93.96
-97.16
-99.77
-102.12
-104.45
-106.81
-108.87
-109.87
-108.79
-104.67
-97.04
-86.20
-73.16
-59.39
-46.23
-34.59
-24.72
-16.38
-9.12
-2.47
3.87
10.07
16.22
22.34
28.39
34.19
39.47
43.92
47.27
49.40
50.49
50.84
50.89
50.97
51.33
52.01
52.95
53.95
54.78
55.12
54.69
53.28
50.95
48.04
45.04
42.31
39.86
37.31
34.12
29.92
24.80
19.24
13.94
9.35
5.50
2.01
-1.65
-5.94
-11.02
-16.74
-22.72
-28.41
-33.12
-35.99
-36.12
-32.83
-26.03
-16.37
-5.25
5.59
14.48
20.33
22.76
22.06
18.83
13.74
7.23
-0.47
-9.17
-18.55
-28.00
-36.58
-43.26
-47.25
-48.35
-47.02
-44.21
-40.97
-37.97
-35.40
-32.96
-30.28
-27.19
-23.83
-20.55
-17.71
-15.51
-14.00
-13.23
-13.34
-14.59
-17.20
-21.08
-25.74
-30.24
-33.40
-34.06
-31.42
-25.18
-15.67
-3.65
9.87
23.96
37.94
51.51
64.61
77.25
89.27
100.23
109.51
116.51
120.94
122.91
122.87
121.35
118.66
114.78
109.53
102.77
94.64
85.62
76.22
66.84
57.46
47.79
37.42
26.03
13.56
0.07
-14.32
-29.49
-45.13
-60.64
-75.09
-87.50
-97.15
-103.96
-108.38
-111.09
-112.54
-112.64
-110.83
-106.43
-99.06
-88.94
-76.76
-63.52
-50.10
-37.15
-25.00
-13.85
-3.78
5.17
12.99
19.73
25.49
30.49
34.96
39.15
43.19
47.06
50.55
53.41
55.46
56.65
57.22
57.49
57.81
58.36
59.11
59.87
60.39
60.50
60.19
59.54
58.60
57.30
55.49
52.98
49.74
45.94
41.82
37.50
32.87
27.59
21.36
14.20
6.52
-1.05
-7.96
-14.15
-20.11
-26.74
-34.87
-44.90
-56.51
-68.82
-80.57
-90.51
-97.69
-101.63
-102.28
-100.02
-95.48
-89.40
-82.51
-75.47
-68.81
-62.83
-57.53
-52.68
-47.89
-42.78
-37.16
-31.12
-24.98
-19.15
-13.98
-9.66
-6.27
-3.80
-2.17
-1.21
-0.63
-0.15
0.43
0.98
1.11
0.22
-2.15
-6.02
-10.75
-15.14
-17.64
-16.90
-12.19
-3.65
7.80
20.79
33.97
46.39
57.57
67.49
76.18
83.63
89.73
94.41
97.79
100.18
101.93
103.20
103.87
103.58
101.99
98.94
94.51
89.00
82.74
75.96
68.79
61.25
53.34
45.03
36.28
26.94
16.91
6.07
-5.59
-18.05
-31.18
-44.74
-58.27
-71.11
-82.56
-92.02
-99.25
-104.39
-107.80
-109.75
-110.13
-108.49
-104.25
-97.21
-87.76
-76.92
-65.98
-56.01
-47.57
-40.60
-34.63
-29.13
-23.79
-18.50
-13.49
-9.02
-5.36
-2.61
-0.71
0.56
1.50
2.37
3.33
4.26
4.83
4.57
3.09
0.24
-3.90
-8.93
-14.28
-19.17
-22.70
-23.95
-22.15
-17.01
-8.87
1.22
11.83
21.50
29.26
34.79
38.40
40.64
41.90
42.22
41.27
38.59
33.84
27.06
18.61
9.18
-0.40
-9.34
-16.88
-22.47
-25.85
-27.12
-26.69
-25.27
-23.65
-22.52
-22.26
-22.96
-24.42
-26.34
-28.38
-30.38
-32.30
-34.41
-37.13
-40.89
-45.83
-51.51
-56.82
-60.26
-60.41
-56.52
-48.79
-38.30
-26.64
-15.29
-5.15
3.49
10.80
17.06
22.46
27.03
30.77
33.77
36.22
38.33
40.18
41.70
42.75
43.25
43.33
43.26
43.34
43.60
43.73
43.22
41.61
38.76
34.94
30.64
26.27
21.91
17.31
12.03
5.65
-2.12
-11.38
-21.95
-33.25
-44.15
-53.07
-58.30
-58.59
-53.67
-44.47
-32.76
-20.54
-9.37
0.01
7.62
13.84
19.02
23.22
26.18
27.54
27.05
24.72
20.87
16.10
11.08
6.37
2.21
-1.47
-5.03
-8.77
-12.78
-16.73
-20.05
-22.26
-23.23
-23.38
-23.45
-24.28
-26.40
-29.99
-34.87
-40.65
-46.76
-52.36
-56.35
-57.57
-55.21
-49.19
-40.39
-30.37
-20.73
-12.40
-5.27
1.61
9.50
19.12
30.33
42.04
52.66
60.76
65.42
66.49
64.48
60.36
55.24
50.12
45.79
42.63
40.72
39.77
39.30
38.66
37.23
34.53
30.39
24.95
18.71
12.32
6.41
1.34
-2.87
-6.64
-10.66
-15.65
-22.01
-29.51
-37.17
-43.42
-46.51
-45.22
-39.33
-29.72
-18.09
-6.28
4.35
13.25
20.67
27.18
33.36
39.32
44.73
48.92
51.23
51.28
49.22
45.71
41.68
38.02
35.27
33.53
32.54
31.92
31.34
30.54
29.28
27.24
24.03
19.35
13.12
5.59
-2.67
-11.03
-18.99
-26.30
-32.98
-39.16
-44.88
-49.87
-53.45
-54.46
-51.64
-43.99
-31.22
-14.02
6.05
27.00
47.08
65.32
81.74
97.09
112.22
127.34
141.70
153.53
160.68
161.31
154.50
140.57
120.78
96.88
70.55
43.12
15.59
-11.11
-35.91
-57.58
-74.91
-87.11
-94.12
-96.61
-95.92
-93.61
-91.06
-89.17
-88.32
-88.42
-89.06
-89.51
-88.66
-85.09
-77.33
-64.32
-45.98
-23.47
1.11
25.28
47.06
65.58
81.08
94.46
106.60
117.76
127.44
134.67
138.31
137.48
131.71
120.95
105.61
86.51
64.82
41.97
19.39
-1.81
-21.05
-38.30
-53.85
-67.94
-80.49
-91.17
-99.54
-105.41
-108.96
-110.70
-111.27
-111.37
-111.63
-112.67
-114.86
-118.09
-121.49
-123.41
-121.95
-115.68
-104.40
-89.29
-72.57
-56.55
-42.82
-31.85
-23.19
-16.03
-9.74
-4.12
0.65
4.36
6.85
8.19
8.43
7.61
5.73
2.87
-0.67
-4.37
-7.55
-9.56
-9.95
-8.61
-5.80
-2.05
1.92
5.40
7.76
8.50
7.21
3.65
-2.28
-10.44
-20.37
-31.40
-42.73
-53.65
-63.52
-71.86
-78.26
-82.51
-84.77
-85.60
-85.90
-86.48
-87.56
-88.51
-88.05
-84.78
-77.78
-67.10
-53.73
-39.25
-25.24
-12.98
-3.23
3.77
8.19
10.49
11.33
11.37
11.18
11.11
11.20
11.15
10.44
8.46
4.78
-0.54
-7.04
-13.91
-20.44
-26.32
-31.71
-37.15
-43.15
-49.81
-56.77
-63.33
-68.83
-72.89
-75.59
-77.34
-78.80
-80.69
-83.68
-88.13
-93.80
-99.52
-103.19
-102.26
-94.57
-79.35
-57.64
-32.19
-6.43
16.74
35.87
51.11
63.60
74.50
84.32
92.72
98.98
102.57
103.53
102.54
100.47
97.99
95.40
92.57
89.26
85.36
81.01
76.52
72.15
67.99
63.88
59.47
54.44
48.58
41.85
34.40
26.45
18.04
8.98
-1.21
-12.99
-26.32
-40.26
-52.83
-61.52
-64.15
-59.89
-49.68
-36.05
-22.11
-10.43
-2.20
2.86
6.00
8.63
11.74
15.59
19.93
24.30
28.32
31.73
34.41
36.27
37.19
37.12
36.13
34.53
32.71
31.05
29.64
28.20
26.10
22.69
17.56
10.86
3.20
-4.51
-11.50
-17.41
-22.47
-27.43
-33.30
-40.87
-50.23
-60.37
-69.22
-74.16
-72.94
-64.58
-49.84
-30.99
-10.99
7.64
23.62
37.03
48.81
59.92
70.72
80.84
89.59
96.49
101.66
105.87
110.13
115.27
121.58
128.86
136.70
144.76
152.93
161.08
168.88
175.61
180.20
181.65
179.30
173.07
163.36
150.80
135.89
118.97
100.42
80.98
62.10
45.99
35.06
31.15
34.69
44.36
57.39
70.55
81.21
88.13
91.52
92.45
92.03
90.82
88.73
85.26
80.06
73.05
64.55
54.93
44.50
33.41
21.77
9.76
-2.24
-13.73
-24.19
-33.21
-40.70
-46.88
-52.26
-57.48
-63.04
-69.16
-75.65
-82.05
-87.83
-92.70
-96.84
-100.88
-105.63
-111.71
-119.16
-127.20
-134.43
-139.12
-139.83
-135.88
-127.60
-116.25
-103.45
-90.72
-78.93
-68.23
-58.29
-48.75
-39.71
-31.73
-25.70
-22.31
-21.77
-23.61
-26.96
-30.98
-35.26
-39.99
-45.80
-53.31
-62.68
-73.35
-84.13
-93.67
-101.03
-106.14
-109.92
-113.85
-119.38
-127.24
-137.18
-148.07
-158.31
-166.30
-170.77
-170.98
-166.74
-158.52
-147.45
-135.07
-122.99
-112.18
-102.39
-92.03
-78.73
-60.34
-36.08
-7.07
23.94
53.54
78.85
98.43
112.37
121.79
128.08
132.24
134.79
135.89
135.75
134.79
133.53
132.34
131.19
129.63
127.01
122.87
117.19
110.43
103.33
96.53
90.30
84.42
78.33
71.40
63.19
53.70
43.33
32.67
22.33
12.62
3.45
-5.65
-15.25
-25.68
-36.65
-47.03
-55.05
-58.87
-57.26
-50.16
-38.80
-25.26
-11.64
0.67
11.30
20.79
29.93
39.27
48.70
57.65
65.36
71.33
75.47
78.06
79.57
80.43
80.90
81.07
80.99
80.68
80.24
79.77
79.23
78.38
76.72
73.70
68.94
62.55
55.12
47.54
40.65
34.80
29.68
24.42
17.94
9.38
-1.50
-14.03
-26.77
-37.75
-45.11
-47.65
-45.37
-39.40
-31.59
-23.68
-16.65
-10.26
-3.46
5.06
16.10
29.49
44.17
58.71
71.88
83.08
92.45
100.68
108.47
116.25
123.95
130.98
136.44
139.36
138.92
134.44
125.41
111.44
92.40
68.62
41.00
11.07
-19.26
-48.07
-73.82
-95.59
-113.16
-126.78
-137.03
-144.64
-150.38
-154.94
-158.68
-161.28
-161.60
-157.95
-148.72
-133.34
-112.80
-89.59
-66.91
-47.54
-32.92
-22.88
-16.13
-11.13
-6.91
-3.26
-0.53
0.90
1.09
0.56
0.08
0.28
1.41
3.21
5.11
6.49
6.79
5.64
2.76
-1.98
-8.47
-16.10
-23.85
-30.39
-34.60
-35.97
-34.82
-32.18
-29.34
-27.41
-27.03
-28.29
-30.72
-33.53
-35.80
-36.80
-36.32
-34.83
-33.38
-33.22
-35.23
-39.55
-45.49
-51.91
-57.61
-61.77
-64.06
-64.57
-63.66
-61.80
-59.41
-56.75
-53.80
-50.24
-45.58
-39.41
-31.77
-23.24
-14.89
-7.95
-3.31
-1.33
-1.69
-3.68
-6.47
-9.51
-12.61
-15.92
-19.88
-25.01
-31.78
-40.38
-50.42
-60.74
-69.39
-74.18
-73.33
-66.26
-53.96
-38.71
-23.23
-9.74
0.88
9.05
16.16
23.68
32.51
42.68
53.38
63.41
71.64
77.43
80.74
81.96
81.64
80.15
77.56
73.82
68.99
63.58
58.51
54.80
53.19
53.65
55.40
57.13
57.56
55.90
52.03
46.41
39.63
32.14
23.99
14.87
4.40
-7.62
-21.10
-35.64
-50.68
-65.54
-79.35
-90.88
-98.61
-100.98
-97.00
-86.79
-71.72
-54.08
-36.23
-19.82
-5.32
7.76
20.19
32.39
44.07
54.46
62.80
68.76
72.69
75.28
77.22
78.81
79.78
79.58
77.68
74.00
68.94
63.27
57.78
52.85
48.41
43.92
38.77
32.57
25.42
17.83
10.55
4.26
-0.74
-4.62
-7.97
-11.63
-16.49
-23.21
-32.06
-42.75
-54.32
-65.16
-73.25
-76.66
-74.13
-65.66
-52.59
-37.24
-22.14
-9.17
0.96
8.61
14.76
20.23
25.35
29.86
33.30
35.44
36.47
36.95
37.44
38.30
39.43
40.43
40.75
39.92
37.77
34.42
30.26
25.75
21.30
17.08
13.02
8.82
4.11
-1.42
-8.02
-15.79
-24.78
-34.71
-44.85
-53.83
-59.76
-60.82
-55.97
-45.59
-31.50
-16.45
-3.02
7.25
14.30
19.20
23.42
27.95
32.98
37.95
42.08
44.80
46.06
46.18
45.68
44.96
44.20
43.38
42.35
40.95
39.04
36.51
33.22
29.10
24.09
18.26
11.81
5.07
-1.61
-8.01
-14.17
-20.44
-27.41
-35.63
-45.15
-55.32
-64.56
-70.77
-71.95
-67.08
-56.57
-42.31
-26.93
-12.88
-1.54
7.05
13.87
20.12
26.57
33.20
39.42
44.54
48.17
50.47
51.88
52.82
53.44
53.55
52.79
50.89
47.84
43.91
39.54
35.17
31.04
27.09
22.99
18.27
12.56
5.74
-1.84
-9.46
-16.19
-21.28
-24.47
-26.17
-27.33
-29.11
-32.50
-38.07
-45.87
-55.45
-65.88
-75.68
-83.00
-85.93
-83.10
-74.29
-60.67
-44.59
-28.76
-15.32
-5.18
2.04
7.54
12.55
17.72
23.00
27.91
31.98
35.06
37.30
38.99
40.22
40.81
40.46
39.04
36.79
34.31
32.21
30.79
29.75
28.38
25.88
21.85
16.52
10.64
5.12
0.61
-2.87
-5.86
-9.27
-14.02
-20.69
-29.26
-38.96
-48.36
-55.53
-58.56
-56.13
-48.06
-35.51
-20.65
-6.05
6.25
15.24
21.08
24.76
27.43
29.89
32.32
34.44
35.83
36.29
35.92
35.08
34.10
33.15
32.06
30.49
28.07
24.63
20.26
15.28
10.05
4.82
-0.35
-5.58
-11.07
-16.99
-23.48
-30.67
-38.73
-47.80
-57.79
-68.08
-77.39
-83.88
-85.70
-81.64
-71.76
-57.53
-41.40
-25.86
-12.69
-2.43
5.52
12.19
18.47
24.60
30.22
34.65
37.34
38.04
36.94
34.50
31.27
27.81
24.56
21.70
19.14
16.47
13.16
8.76
3.06
-3.68
-10.89
-17.88
-24.14
-29.52
-34.39
-39.43
-45.55
-53.43
-63.22
-74.25
-85.01
-93.41
-97.42
-95.79
-88.46
-76.67
-62.42
-47.75
-34.05
-21.77
-10.58
0.24
11.25
22.67
34.32
45.72
56.29
65.34
72.14
76.08
76.76
74.20
68.88
61.61
53.11
43.88
33.93
22.97
10.68
-3.03
-17.82
-32.96
-47.53
-60.59
-71.42
-79.58
-85.09
-88.44
-90.57
-92.61
-95.42
-99.04
-102.44
-103.69
-100.66
-91.97
-77.71
-59.55
-40.09
-21.89
-6.53
5.79
15.83
24.66
32.97
40.71
47.31
52.12
54.91
55.98
56.10
56.11
56.56
57.48
58.41
58.60
57.43
54.65
50.52
45.65
40.70
36.08
31.78
27.46
22.67
16.98
10.10
1.94
-7.29
-16.95
-25.85
-32.38
-34.96
-32.65
-25.60
-15.11
-3.22
8.11
17.57
24.82
30.22
34.45
37.99
40.92
43.01
43.88
43.17
40.64
36.14
29.58
20.95
10.38
-1.63
-14.21
-26.08
-35.89
-42.55
-45.72
-45.91
-44.33
-42.50
-41.67
-42.51
-45.00
-48.53
-52.07
-54.31
-53.74
-48.94
-38.98
-23.87
-4.81
15.97
35.88
52.77
65.64
74.74
81.23
86.47
91.39
96.25
100.77
104.46
106.93
107.94
107.33
104.92
100.49
93.97
85.64
76.16
66.40
57.03
48.18
39.28
29.31
17.32
2.95
-13.32
-30.17
-46.01
-59.50
-70.08
-78.08
-84.58
-90.90
-98.11
-106.48
-115.29
-122.81
-126.77
-125.12
-116.83
-102.43
-83.94
-64.24
-46.00
-30.79
-18.69
-8.42
1.90
14.01
28.90
46.57
66.12
86.05
104.63
120.26
131.84
138.93
141.65
140.57
136.47
130.13
122.32
113.82
105.31
97.25
89.65
82.01
73.45
63.06
50.34
35.46
19.23
2.87
-12.47
-25.97
-37.27
-46.34
-53.24
-58.03
-60.80
-61.76
-61.37
-60.28
-59.10
-58.18
-57.45
-56.52
-54.92
-52.30
-48.63
-44.18
-39.37
-34.76
-30.86
-27.97
-25.91
-23.95
-20.81
-15.14
-6.10
5.99
19.61
32.36
41.84
46.49
46.02
41.37
34.08
25.66
17.08
8.68
0.49
-7.53
-15.18
-22.09
-27.86
-32.34
-35.65
-38.13
-40.05
-41.40
-41.95
-41.32
-39.36
-36.41
-33.28
-31.12
-31.01
-33.54
-38.56
-45.19
-52.05
-57.73
-61.22
-62.21
-61.09
-58.75
-56.17
-53.99
-52.39
-51.09
-49.65
-47.78
-45.50
-43.24
-41.68
-41.63
-43.78
-48.48
-55.39
-63.39
-70.58
-74.78
-74.22
-68.15
-57.23
-43.31
-28.69
-15.32
-4.19
4.78
12.37
19.48
26.59
33.66
40.27
46.07
51.00
55.41
59.76
64.35
69.00
73.08
75.80
76.55
75.20
72.07
67.80
62.97
57.92
52.67
46.99
40.58
33.29
25.18
16.61
8.20
0.59
-5.64
-10.31
-13.61
-16.15
-18.68
-21.95
-26.53
-32.64
-40.06
-47.95
-54.89
-59.10
-58.88
-53.28
-42.48
-27.94
-11.89
3.37
16.17
25.86
32.76
37.73
41.71
45.34
48.91
52.40
55.66
58.53
60.82
62.31
62.68
61.59
58.83
54.50
49.02
43.09
37.38
32.27
27.62
22.87
17.25
10.28
1.95
-7.16
-16.17
-24.23
-30.84
-36.00
-40.14
-43.90
-47.98
-52.94
-59.04
-65.95
-72.66
-77.51
-78.58
-74.38
-64.47
-49.80
-32.43
-14.85
0.93
13.97
24.39
32.98
40.49
47.18
52.78
56.78
58.86
59.17
58.24
56.69
54.88
52.80
50.16
46.69
42.40
37.64
33.00
29.02
25.88
23.35
20.85
17.69
13.34
7.68
1.08
-5.76
-12.07
-17.35
-21.61
-25.37
-29.51
-34.89
-42.04
-50.97
-61.09
-71.16
-79.50
-84.24
-83.83
-77.65
-66.29
-51.59
-36.04
-22.00
-10.89
-2.91
2.73
7.13
11.14
14.98
18.39
20.96
22.54
23.35
23.89
24.65
25.78
27.02
27.77
27.40
25.54
22.29
18.14
13.75
9.67
6.09
2.80
-0.62
-4.68
-9.79
-16.17
-23.86
-32.63
-41.81
-50.26
-56.37
-58.56
-55.77
-48.01
-36.49
-23.27
-10.58
-0.06
7.68
13.03
16.96
20.42
23.98
27.67
31.14
34.00
36.03
37.24
37.79
37.79
37.16
35.60
32.75
28.49
23.04
17.00
11.13
6.03
1.92
-1.51
-4.90
-8.97
-14.31
-21.22
-29.64
-39.16
-48.96
-57.82
-64.24
-66.75
-64.47
-57.39
-46.56
-33.78
-20.98
-9.64
-0.43
6.73
12.35
16.92
20.71
23.76
26.09
27.83
29.26
30.64
32.11
33.57
34.74
35.36
35.34
34.79
34.00
33.18
32.34
31.17
29.20
25.97
21.33
15.51
9.12
2.87
-2.67
-7.35
-11.43
-15.56
-20.53
-26.99
-35.15
-44.47
-53.55
-60.40
-62.91
-59.71
-50.72
-37.40
-22.20
-7.75
4.13
12.89
19.18
24.20
28.97
33.92
38.86
43.26
46.74
49.25
51.04
52.51
53.89
55.21
56.27
56.78
56.60
55.76
54.45
52.97
51.56
50.28
48.97
47.33
44.96
41.59
37.13
31.78
26.05
20.51
15.69
11.83
8.77
6.01
2.81
-1.47
-7.20
-14.22
-21.94
-29.54
-36.36
-42.17
-47.27
-52.31
-58.06
-65.11
-73.76
-83.92
-94.93
-105.48
-113.60
-117.08
-114.11
-104.12
-88.20
-68.88
-49.32
-32.22
-18.95
-9.46
-2.67
2.74
7.68
12.45
16.90
20.78
24.05
26.90
29.60
32.22
34.54
36.05
36.28
35.06
32.74
30.08
27.94
26.79
26.41
25.96
24.34
20.74
15.07
8.07
0.93
-5.23
-9.76
-12.82
-15.19
-17.97
-22.20
-28.50
-36.88
-46.57
-56.07
-63.39
-66.64
-64.60
-57.25
-45.91
-32.78
-20.21
-9.86
-2.35
2.76
6.39
9.42
12.25
14.82
16.83
18.12
18.87
19.54
20.64
22.46
24.86
27.26
28.90
29.10
27.63
24.76
21.13
17.46
14.20
11.34
8.46
4.94
0.21
-6.03
-13.79
-22.81
-32.55
-42.06
-50.01
-54.80
-55.03
-49.99
-40.13
-27.06
-13.07
-0.37
9.63
16.67
21.48
25.24
28.99
33.16
37.54
41.52
44.44
45.89
45.89
44.83
43.22
41.49
39.86
38.29
36.53
34.31
31.36
27.60
23.06
17.90
12.35
6.67
1.06
-4.41
-9.81
-15.40
-21.62
-28.98
-37.80
-47.82
-58.08
-66.85
-72.13
-72.35
-67.10
-57.42
-45.51
-33.88
-24.39
-17.66
-12.97
-8.88
-4.02
2.35
10.06
18.40
26.50
33.69
39.69
44.44
47.98
50.28
51.30
51.11
49.98
48.42
46.96
45.93
45.33
44.76
43.66
41.58
38.40
34.44
30.29
26.60
23.73
21.61
19.70
17.19
13.38
7.98
1.22
-6.21
-13.50
-20.08
-25.86
-31.22
-36.80
-43.31
-51.24
-60.72
-71.29
-81.82
-90.51
-95.25
-94.31
-87.02
-74.25
-58.22
-41.74
-27.23
-15.94
-7.84
-1.99
2.67
6.85
10.69
14.02
16.70
18.77
20.49
22.07
23.45
24.32
24.28
23.04
20.76
17.95
15.39
13.68
13.01
13.06
13.09
12.34
10.36
7.17
3.31
-0.48
-3.55
-5.62
-6.93
-8.12
-10.09
-13.63
-19.19
-26.55
-34.83
-42.46
-47.62
-48.72
-44.95
-36.63
-25.19
-12.63
-0.94
8.67
15.96
21.51
26.20
30.61
34.78
38.28
40.53
41.28
40.75
39.54
38.39
37.80
37.79
37.93
37.51
35.84
32.59
27.94
22.44
16.80
11.55
6.79
2.25
-2.60
-8.26
-15.05
-23.08
-32.26
-42.27
-52.35
-61.26
-67.35
-68.98
-65.17
-56.03
-42.96
-28.17
-13.98
-2.00
7.17
13.91
19.07
23.44
27.47
31.21
34.52
37.31
39.55
41.29
42.49
43.06
42.90
41.99
40.49
38.70
36.83
34.96
32.87
30.21
26.59
21.81
16.02
9.64
3.21
-2.86
-8.45
-13.76
-19.29
-25.63
-33.22
-42.09
-51.68
-60.73
-67.45
-69.99
-67.06
-58.47
-45.44
-30.27
-15.53
-3.20
6.03
12.74
18.21
23.64
29.51
35.57
41.12
45.60
48.89
51.27
53.20
54.97
56.56
57.75
58.29
58.12
57.38
56.33
55.20
54.04
52.74
51.02
48.59
45.33
41.29
36.75
32.06
27.54
23.32
19.44
15.83
12.40
9.07
5.65
1.89
-2.54
-7.85
-13.96
-20.50
-26.92
-32.74
-37.80
-42.34
-46.87
-51.98
-58.20
-65.83
-74.87
-84.76
-94.28
-101.57
-104.54
-101.58
-92.29
-77.83
-60.65
-43.63
-29.12
-18.17
-10.44
-4.73
0.22
5.13
10.02
14.49
18.20
21.16
23.74
26.35
29.15
31.86
33.85
34.56
33.77
31.84
29.53
27.67
26.67
26.33
25.87
24.36
21.12
16.12
9.98
3.74
-1.64
-5.63
-8.37
-10.55
-13.17
-17.19
-23.19
-31.19
-40.49
-49.72
-57.03
-60.67
-59.40
-53.10
-42.80
-30.41
-18.08
-7.46
0.61
6.27
10.24
13.36
16.24
19.07
21.70
23.90
25.54
26.67
27.57
28.49
29.52
30.47
30.92
30.34
28.43
25.22
21.04
16.43
11.82
7.43
3.12
-1.46
-6.69
-12.86
-20.07
-28.19
-36.85
-45.41
-52.91
-58.11
-59.81
-57.20
-50.23
-39.78
-27.45
-15.12
-4.36
4.06
10.20
14.77
18.64
22.42
26.24
29.84
32.78
34.73
35.61
35.56
34.88
33.86
32.70
31.54
30.41
29.22
27.74
25.63
22.53
18.29
13.11
7.50
2.07
-2.73
-6.88
-10.78
-15.10
-20.51
-27.48
-36.01
-45.48
-54.65
-61.71
-64.80
-62.52
-54.63
-42.28
-27.72
-13.51
-1.59
7.32
13.74
18.88
23.94
29.44
35.26
40.80
45.54
49.18
51.82
53.68
54.95
55.71
55.95
55.63
54.77
53.41
51.62
49.51
47.26
45.08
43.13
41.39
39.54
37.12
33.67
29.06
23.56
17.78
12.45
8.04
4.56
1.61
-1.47
-5.23
-9.94
-15.44
-21.32
-27.08
-32.32
-36.96
-41.16
-45.33
-49.95
-55.51
-62.44
-70.95
-80.84
-91.19
-100.26
-105.76
-105.53
-98.43
-84.94
-67.23
-48.44
-31.60
-18.62
-9.78
-4.09
0.00
3.81
7.93
12.28
16.52
20.34
23.72
26.76
29.49
31.68
32.91
32.80
31.25
28.68
25.84
23.62
22.52
22.46
22.80
22.61
21.10
18.08
13.92
9.38
5.24
1.93
-0.72
-3.26
-6.53
-11.25
-17.76
-25.76
-34.25
-41.63
-46.08
-46.09
-41.12
-31.84
-20.08
-8.15
2.00
9.40
14.28
17.64
20.60
23.77
27.08
30.04
32.09
33.08
33.25
33.06
32.93
32.95
32.89
32.35
30.94
28.51
25.10
21.03
16.68
12.36
8.19
4.03
-0.41
-5.41
-11.15
-17.66
-24.86
-32.68
-40.96
-49.32
-56.94
-62.55
-64.73
-62.43
-55.43
-44.62
-31.74
-18.84
-7.58
1.23
7.69
12.52
16.63
20.70
25.08
29.78
34.64
39.50
44.16
48.37
51.80
54.12
55.10
54.77
53.43
51.46
49.14
46.44
43.09
38.72
33.20
26.71
19.80
13.13
7.45
3.43
1.55
2.05
4.77
9.24
14.92
21.68
30.02
40.89
54.94
71.73
89.23
104.20
113.31
114.50
107.86
95.53
80.76
66.66
55.29
47.31
42.29
39.33
37.53
36.34
35.69
36.05
38.11
42.52
49.35
57.80
66.18
72.39
74.62
72.01
64.95
54.75
43.07
31.29
20.11
9.60
-0.50
-10.61
-21.13
-32.45
-44.92
-58.49
-72.36
-84.74
-93.15
-95.19
-89.55
-76.86
-59.59
-41.21
-24.82
-12.03
-2.48
5.55
14.00
23.92
35.04
45.96
54.99
60.96
63.51
63.01
60.15
55.59
49.89
43.64
37.54
32.34
28.68
26.83
26.56
27.23
27.97
27.84
26.02
21.89
14.99
5.14
-7.59
-22.73
-39.30
-55.80
-70.25
-80.66
-85.50
-84.40
-78.32
-69.40
-60.23
-52.92
-48.46
-46.62
-46.32
-46.20
-45.30
-43.23
-40.24
-36.90
-33.75
-31.14
-29.13
-27.73
-27.07
-27.50
-29.51
-33.35
-38.82
-45.10
-51.08
-55.84
-59.10
-61.37
-63.69
-67.12
-72.20
-78.80
-86.12
-93.09
-98.49
-101.29
-100.67
-96.19
-87.91
-76.48
-63.09
-49.21
-36.30
-25.36
-16.88
-10.83
-6.93
-4.88
-4.39
-5.10
-6.47
-7.86
-8.72
-8.91
-8.83
-9.31
-11.12
-14.66
-19.60
-25.00
-29.74
-32.85
-34.00
-33.58
-32.57
-32.21
-33.64
-37.42
-43.42
-50.78
-58.22
-64.44
-68.51
-70.13
-69.60
-67.65
-65.10
-62.47
-59.87
-56.95
-53.14
-47.98
-41.36
-33.67
-25.57
-17.68
-10.27
-3.20
3.91
11.20
18.27
24.25
28.03
28.86
26.64
22.00
16.06
9.93
4.39
-0.26
-4.15
-7.58
-10.89
-14.21
-17.47
-20.41
-22.67
-23.94
-24.11
-23.44
-22.49
-22.02
-22.86
-25.62
-30.50
-37.01
-43.92
-49.33
-51.15
-47.77
-38.80
-25.41
-9.96
4.79
16.65
24.80
29.68
32.49
34.32
35.62
36.12
35.21
32.54
28.37
23.50
18.99
15.61
13.64
12.67
11.91
10.48
7.75
3.58
-1.69
-7.46
-13.13
-18.43
-23.42
-28.47
-34.02
-40.45
-48.03
-56.97
-67.37
-78.87
-90.34
-99.72
-104.34
-101.71
-90.59
-71.64
-47.37
-21.29
3.36
24.55
41.87
55.98
67.92
78.32
87.28
94.58
100.01
103.64
105.77
106.62
106.21
104.32
100.77
95.64
89.46
83.00
77.04
71.92
67.37
62.67
56.86
49.29
39.89
29.27
18.44
8.38
-0.33
-7.89
-15.16
-23.42
-33.87
-47.03
-62.22
-77.41
-89.63
-95.72
-93.54
-82.82
-65.31
-44.30
-23.31
-4.92
9.87
21.60
31.53
40.76
49.62
57.71
64.30
68.91
71.58
72.84
73.35
73.49
73.18
71.94
69.27
64.93
59.26
53.03
47.25
42.62
39.26
36.55
33.38
28.61
21.61
12.54
2.34
-7.73
-16.56
-23.67
-29.40
-34.61
-40.31
-47.33
-56.14
-66.93
-79.44
-92.86
-105.51
-114.93
-118.34
-113.61
-100.28
-80.00
-56.09
-32.37
-11.79
4.43
16.80
26.81
35.82
44.37
52.11
58.25
62.19
63.90
63.97
63.23
62.43
61.87
61.45
60.79
59.46
57.15
53.79
49.52
44.57
39.20
33.50
27.49
21.04
14.04
6.43
-1.79
-10.64
-20.26
-30.80
-42.10
-53.33
-62.80
-68.22
-67.51
-59.67
-45.42
-27.11
-7.92
9.26
22.82
32.68
39.95
46.03
51.84
57.52
62.52
66.10
67.78
67.50
65.54
62.32
58.19
53.38
48.12
42.66
37.30
32.18
27.21
22.04
16.23
9.42
1.53
-7.20
-16.37
-25.64
-34.85
-44.16
-54.02
-64.90
-76.93
-89.43
-100.67
-108.08
-108.96
-101.61
-86.06
-64.36
-39.89
-16.22
4.06
20.02
32.14
41.71
49.90
57.31
63.94
69.45
73.59
76.38
78.02
78.84
79.02
78.60
77.49
75.65
73.12
70.11
66.87
63.59
60.30
56.81
52.84
48.14
42.56
36.14
29.06
21.51
13.70
5.82
-1.97
-9.53
-16.82
-23.86
-30.83
-38.02
-45.82
-54.75
-65.33
-77.83
-91.86
-105.94
-117.57
-123.74
-122.03
-111.68
-94.08
-72.35
-50.17
-30.43
-14.41
-1.76
8.72
18.17
27.02
35.04
41.64
46.42
49.42
50.99
51.56
51.37
50.46
48.68
45.93
42.38
38.38
34.33
30.42
26.55
22.32
17.28
11.22
4.29
-3.04
-10.26
-17.03
-23.39
-29.82
-37.07
-45.94
-56.93
-69.78
-83.24
-95.14
-102.83
-104.16
-98.28
-86.06
-69.81
-52.33
-35.90
-21.52
-9.01
2.44
13.48
24.10
33.64
41.21
46.28
49.00
50.10
50.55
51.06
51.82
52.42
52.17
50.48
47.12
42.37
36.90
31.42
26.37
21.76
17.16
11.87
5.18
-3.44
-14.28
-27.24
-41.72
-56.41
-69.28
-77.91
-80.16
-75.02
-63.13
-46.71
-28.78
-12.03
2.02
13.33
22.87
31.73
40.49
48.83
55.90
60.79
63.05
62.91
61.08
58.44
55.65
52.88
49.86
46.08
41.12
34.93
27.88
20.60
13.67
7.30
1.26
-5.04
-12.29
-21.07
-31.67
-44.11
-58.14
-73.10
-87.71
-99.98
-107.53
-108.19
-101.00
-86.73
-67.90
-48.01
-30.31
-16.70
-7.33
-1.01
3.96
8.80
13.87
18.76
22.76
25.41
26.64
26.73
26.01
24.71
22.90
20.62
18.03
15.39
12.96
10.80
8.71
6.21
2.78
-1.95
-7.99
-15.05
-22.66
-30.45
-38.39
-46.90
-56.64
-67.92
-80.17
-91.52
-99.14
-100.07
-92.42
-76.26
-53.87
-29.03
-5.87
12.42
24.36
30.36
32.19
32.20
32.56
34.74
39.42
46.42
54.84
63.22
69.85
73.37
73.43
71.27
69.71
72.42
82.68
102.16
130.27
164.42
201.02
236.52
268.04
293.35
310.43
317.33
312.64
296.52
271.50
242.38
214.80
193.27
179.44
171.60
165.55
156.38
140.13
114.72
79.85
36.55
-13.08
-65.74
-116.91
-161.37
-194.60
-214.61
-223.20
-225.80
-229.67
-241.21
-263.42
-294.95
-330.85
-364.75
-391.33
-407.82
-414.23
-412.39
-404.58
-392.39
-376.31
-355.98
-330.83
-300.78
-266.65
-230.07
-192.86
-156.52
-121.57
-87.39
-52.68
-16.02
23.88
68.14
117.79
173.26
233.13
293.17
346.47
385.45
404.99
404.86
389.95
367.91
345.55
325.97
308.20
289.20
266.54
240.20
212.34
185.65
161.57
139.67
118.36
96.26
73.18
50.11
28.64
9.83
-6.32
-20.69
-34.27
-47.11
-57.86
-64.14
-63.62
-55.32
-40.35
-21.60
-2.61
13.87
26.85
37.09
46.48
56.91
69.57
84.61
101.33
118.61
135.29
150.35
162.94
172.32
177.81
178.98
175.71
168.39
157.76
144.68
129.63
112.49
92.51
68.66
40.10
6.44
-32.05
-74.30
-118.29
-161.00
-198.82
-228.80
-250.16
-265.18
-278.65
-295.74
-319.30
-348.19
-377.68
-401.90
-416.88
-422.25
-420.71
-415.56
-408.18
-396.81
-377.72
-347.48
-305.34
-254.17
-199.68
-148.50
-106.12
-75.58
-57.15
-48.91
-47.82
-50.67
-54.80
-58.24
-59.70
-58.37
-53.95
-46.61
-36.94
-25.73
-13.49
-0.11
15.14
33.21
54.58
78.77
104.22
128.80
150.44
167.85
180.69
189.46
195.07
198.45
200.35
201.22
201.36
200.81
199.49
197.16
193.51
188.34
181.67
173.66
164.50
154.13
142.08
127.62
110.03
89.09
65.33
40.04
15.00
-8.08
-27.95
-44.07
-56.54
-65.79
-72.42
-76.92
-79.67
-80.90
-80.82
-79.45
-76.78
-72.78
-67.50
-61.27
-54.58
-48.02
-42.17
-37.45
-34.07
-32.09
-31.42
-31.72
-32.42
-32.75
-31.90
-29.39
-25.31
-20.33
-15.48
-11.64
-9.04
-7.24
-5.25
-2.03
3.04
9.87
17.72
25.50
32.18
37.15
40.50
43.19
47.04
54.30
66.96
85.62
108.69
132.18
150.51
158.15
151.60
130.58
98.16
59.52
20.21
-15.48
-45.23
-68.56
-86.05
-98.62
-107.18
-112.59
-115.74
-117.50
-118.54
-119.05
-118.70
-116.80
-112.65
-105.95
-96.98
-86.56
-75.83
-65.93
-57.64
-51.22
-46.38
-42.47
-38.79
-34.98
-31.10
-27.68
-25.23
-23.92
-23.37
-22.74
-21.05
-17.70
-12.77
-6.97
-1.33
3.19
6.09
7.38
7.41
6.66
5.60
4.62
4.13
4.55
6.19
9.06
12.71
16.29
18.85
19.73
18.84
16.77
14.49
12.91
12.60
13.60
15.54
17.89
20.20
22.17
23.71
24.90
25.97
27.16
28.65
30.43
32.19
33.42
33.60
32.50
30.34
27.81
25.86
25.31
26.56
29.36
32.92
36.07
37.75
37.29
34.68
30.61
26.04
21.84
18.33
15.22
11.78
7.17
0.69
-8.11
-19.48
-33.53
-50.09
-68.56
-87.79
-106.14
-121.92
-133.73
-140.82
-143.23
-141.66
-137.26
-131.28
-124.95
-119.21
-114.56
-111.01
-107.79
-103.27
-95.00
-80.40
-57.86
-27.89
6.35
39.64
66.16
81.24
82.65
70.83
48.05
17.30
-18.66
-57.63
-97.85
-137.74
-175.84
-210.98
-242.42
-269.80
-292.95
-311.60
-325.30
-333.36
-334.92
-329.24
-316.01
-295.76
-269.95
-240.80
-210.67
-181.48
-154.18
-128.76
-104.68
-81.35
-58.50
-36.20
-14.68
6.00
26.06
45.96
66.29
87.62
110.36
134.52
159.46
183.71
205.13
221.30
230.20
230.74
222.97
207.96
187.28
162.69
135.96
109.03
84.07
63.37
48.78
41.16
40.11
44.10
51.17
59.73
69.12
79.64
92.33
108.37
128.46
152.49
179.31
206.84
232.45
253.55
268.17
275.49
275.92
270.87
262.16
251.46
239.94
228.30
217.00
206.49
197.14
188.92
181.04
171.78
158.99
140.82
116.73
87.89
57.04
27.51
2.07
-17.94
-32.81
-43.85
-52.49
-59.45
-64.38
-66.09
-63.28
-55.31
-42.73
-27.38
-11.90
0.95
9.17
11.97
9.78
3.84
-4.36
-13.60
-22.99
-31.88
-39.65
-45.67
-49.54
-51.34
-51.72
-51.70
-52.21
-53.58
-55.29
-56.11
-54.70
-50.26
-43.05
-34.36
-26.11
-20.18
-17.86
-19.67
-25.40
-34.17
-44.34
-53.46
-58.41
-56.01
-43.95
-21.70
9.15
45.37
83.18
119.49
152.62
182.23
208.68
232.19
252.50
268.99
281.15
288.90
292.58
292.72
289.77
283.91
275.25
264.08
251.00
236.90
222.72
209.13
196.40
184.45
172.97
161.53
149.73
137.19
123.69
109.29
94.35
79.42
65.03
51.45
38.61
26.18
13.79
1.25
-11.35
-23.62
-35.05
-45.08
-53.31
-59.49
-63.68
-66.12
-67.26
-67.57
-67.44
-67.09
-66.55
-65.78
-64.74
-63.54
-62.39
-61.48
-60.82
-60.19
-59.25
-57.75
-55.74
-53.52
-51.49
-49.86
-48.47
-46.95
-45.12
-43.29
-42.28
-43.06
-46.18
-51.27
-56.94
-61.22
-62.10
-58.21
-49.12
-35.40
-18.54
-0.70
15.48
27.36
32.89
31.31
23.66
12.75
2.43
-3.59
-2.99
4.35
16.41
29.89
41.49
49.18
52.71
53.34
52.96
52.99
53.72
54.34
53.57
50.42
44.66
36.83
27.84
18.54
9.46
0.94
-6.72
-13.19
-18.22
-21.82
-24.41
-26.66
-29.13
-32.10
-35.45
-38.82
-41.87
-44.50
-46.89
-49.37
-52.40
-56.52
-62.20
-69.78
-79.27
-90.21
-101.51
-111.67
-119.05
-122.55
-122.15
-119.19
-116.08
-115.51
-119.29
-127.52
-138.53
-149.74
-158.81
-164.73
-168.06
-170.31
-172.99
-176.80
-181.45
-186.12
-190.06
-192.90
-194.57
-194.90
-193.31
-188.86
-180.63
-168.24
-152.15
-133.61
-114.36
-96.06
-79.90
-66.47
-55.89
-48.06
-42.99
-41.00
-42.59
-48.18
-57.63
-69.97
-83.38
-95.72
-105.18
-110.92
-113.30
-113.67
-113.85
-115.47
-119.68
-127.02
-137.62
-151.21
-167.26
-184.89
-202.95
-220.15
-235.07
-246.17
-251.68
-249.62
-238.25
-216.54
-184.70
-144.19
-97.29
-46.25
7.43
63.00
119.91
177.02
232.05
281.76
322.83
352.89
371.38
379.55
379.93
375.21
367.39
357.26
344.50
328.18
307.40
281.74
251.47
217.49
181.03
143.47
106.06
69.81
35.53
3.94
-24.08
-47.57
-65.67
-78.13
-85.43
-88.66
-88.97
-86.98
-82.68
-75.89
-67.06
-57.82
-50.76
-48.48
-52.39
-61.89
-74.36
-85.94
-92.54
-90.84
-78.83
-56.13
-24.12
14.17
54.53
92.45
124.12
147.15
160.80
165.65
163.11
154.91
142.90
129.02
115.21
103.21
94.35
89.45
88.85
92.58
100.28
110.99
122.78
133.02
139.04
139.07
132.68
120.50
103.04
79.91
49.77
11.47
-34.39
-84.41
-132.80
-173.08
-200.25
-212.24
-210.04
-196.60
-175.54
-150.09
-122.90
-96.16
-71.78
-51.17
-35.12
-23.64
-16.09
-11.58
-9.21
-8.27
-8.22
-8.55
-8.88
-8.92
-8.64
-8.21
-8.04
-8.53
-10.04
-12.86
-17.24
-23.48
-31.69
-41.39
-51.14
-58.57
-60.88
-55.77
-42.47
-22.11
2.41
27.38
49.40
66.24
77.18
82.73
84.13
82.72
79.71
75.98
72.17
68.58
65.22
61.82
57.96
53.25
47.51
40.96
34.09
27.51
21.65
16.46
11.41
5.46
-2.45
-12.97
-25.76
-39.25
-50.78
-57.27
-56.22
-46.62
-29.45
-7.47
15.67
36.51
52.63
63.07
68.02
68.37
65.26
59.84
53.22
46.40
40.17
34.92
30.56
26.65
22.64
18.15
13.10
7.67
2.04
-3.69
-9.60
-15.98
-23.31
-32.16
-42.90
-55.30
-68.10
-78.90
-84.77
-83.17
-73.09
-55.72
-34.12
-12.32
6.13
19.11
26.24
28.45
27.16
23.70
18.97
13.49
7.72
2.11
-2.89
-6.95
-9.96
-12.12
-13.80
-15.46
-17.54
-20.34
-24.17
-29.47
-36.74
-46.50
-58.65
-72.02
-84.17
-91.69
-91.31
-81.16
-61.70
-35.84
-8.03
17.18
36.56
48.87
54.67
55.57
53.25
49.02
43.62
37.47
30.93
24.42
18.48
13.54
9.83
7.24
5.30
3.34
0.62
-3.58
-9.84
-18.64
-30.30
-44.76
-61.18
-77.56
-90.79
-97.32
-94.27
-80.68
-58.09
-30.29
-2.11
22.10
39.64
49.88
53.83
53.32
50.17
45.83
41.33
37.50
34.92
33.87
34.11
34.88
35.16
34.08
31.27
26.99
22.03
17.24
13.09
9.35
5.04
-1.28
-10.89
-24.19
-40.04
-55.56
-66.76
-69.65
-61.80
-43.44
-17.60
10.92
37.21
57.85
71.70
79.60
83.34
84.50
83.86
81.49
77.37
71.97
66.35
61.79
59.20
58.54
58.87
58.70
56.67
52.09
45.19
36.88
28.28
20.18
12.77
5.63
-2.00
-10.91
-21.66
-34.49
-49.25
-65.23
-80.97
-94.17
-102.00
-101.84
-92.25
-73.81
-49.18
-22.48
2.07
21.36
34.01
40.30
41.41
38.65
33.11
25.68
17.44
9.79
4.16
1.43
1.42
2.83
3.76
2.51
-1.63
-8.11
-15.50
-22.27
-27.52
-31.44
-35.20
-40.41
-48.52
-60.12
-74.56
-89.76
-102.51
-109.18
-106.86
-94.43
-73.09
-46.09
-17.74
8.04
28.71
43.47
52.79
57.57
58.57
56.23
51.12
44.23
37.12
31.41
28.20
27.51
28.28
28.80
27.49
23.53
17.17
9.52
1.93
-4.67
-10.23
-15.61
-22.22
-31.39
-43.86
-59.27
-75.99
-91.24
-101.57
-103.75
-95.81
-77.88
-52.40
-23.50
4.26
27.34
44.10
54.84
61.07
64.49
66.27
66.85
66.38
65.16
63.75
62.88
62.87
63.42
63.64
62.52
59.56
55.08
50.10
45.67
42.20
39.17
35.24
29.02
19.87
8.24
-4.40
-16.23
-25.89
-32.96
-38.09
-42.80
-48.93
-58.07
-70.94
-86.82
-103.22
-116.28
-121.72
-116.44
-99.83
-74.37
-44.98
-17.21
4.56
18.46
25.21
27.04
26.29
24.30
21.20
16.54
10.08
2.48
-4.89
-10.55
-13.76
-15.13
-16.56
-20.62
-29.59
-44.52
-64.83
-88.38
-112.08
-132.37
-145.46
-147.40
-134.66
-105.16
-59.89
-4.07
53.26
101.53
132.02
140.74
129.18
103.00
69.58
35.91
7.81
-9.99
-13.57
-0.56
28.58
69.74
115.85
159.04
193.19
215.50
226.38
227.81
221.81
209.73
192.73
172.63
152.20
134.64
122.65
117.59
119.12
125.38
133.36
139.51
140.56
134.65
122.44
107.24
94.12
87.69
89.86
98.87
109.92
117.45
117.82
110.78
99.29
87.79
80.17
78.24
81.42
87.42
93.26
96.21
94.15
85.78
70.58
48.69
20.85
-11.62
-46.83
-82.47
-116.10
-145.58
-169.52
-187.67
-200.88
-210.81
-219.41
-228.33
-238.54
-250.00
-261.58
-271.16
-276.20
-274.51
-265.07
-248.45
-226.73
-202.75
-179.07
-157.26
-137.62
-119.46
-101.73
-83.48
-64.08
-43.25
-21.01
2.28
25.81
48.45
69.16
87.47
103.83
119.43
135.54
152.77
170.86
188.94
206.19
222.39
237.74
252.30
265.29
274.89
278.79
275.17
263.50
244.66
220.34
192.33
162.04
130.61
99.35
69.83
43.57
21.38
2.79
-13.86
-30.80
-49.78
-71.31
-94.47
-117.39
-138.08
-155.24
-168.57
-178.60
-186.18
-191.88
-195.82
-197.64
-196.92
-193.55
-187.81
-180.41
-172.14
-163.59
-155.07
-146.70
-138.54
-130.70
-123.32
-116.29
-109.23
-101.32
-91.62
-79.48
-64.79
-48.25
-31.21
-15.32
-2.11
7.43
13.11
15.47
15.62
14.88
14.44
15.01
16.83
19.64
22.93
26.07
28.50
29.73
29.46
27.55
24.08
19.31
13.64
7.40
0.79
-6.26
-14.02
-22.81
-32.75
-43.64
-54.87
-65.62
-75.12
-82.99
-89.29
-94.40
-98.72
-102.36
-105.09
-106.45
-106.26
-104.77
-102.78
-101.17
-100.43
-100.35
-99.90
-97.87
-93.44
-86.83
-79.35
-73.00
-69.71
-70.47
-74.95
-81.53
-87.89
-91.60
-91.07
-86.39
-79.92
-76.45
-82.53
-104.88
-147.95
-211.50
-289.24
-369.70
-439.18
-485.92
-503.79
-493.77
-462.99
-421.48
-378.50
-339.87
-307.23
-279.09
-252.79
-226.26
-198.72
-170.44
-141.87
-113.15
-83.96
-54.08
-23.88
5.48
32.27
55.21
74.18
90.61
106.90
125.45
147.60
173.28
201.30
230.09
258.47
285.65
310.99
333.36
351.00
361.75
363.57
355.17
336.46
308.80
275.17
239.95
208.35
185.14
173.26
172.59
179.69
188.83
193.93
190.61
177.62
156.85
132.37
108.93
90.50
79.45
76.34
80.22
89.09
100.53
112.22
122.31
129.67
133.87
135.16
134.11
131.30
126.88
120.49
111.61
100.23
87.56
76.19
69.29
69.28
76.55
89.09
103.25
115.43
123.60
128.06
130.97
135.14
142.42
152.99
165.59
178.32
189.78
199.64
208.46
216.73
223.96
228.34
227.56
220.16
206.66
189.62
172.46
157.76
146.11
136.11
125.62
113.27
99.11
84.34
70.20
57.03
44.13
30.38
15.11
-1.40
-18.00
-33.31
-46.15
-55.72
-61.77
-64.53
-64.62
-63.02
-60.90
-59.36
-59.28
-61.09
-64.77
-70.00
-76.16
-82.64
-88.82
-94.26
-98.68
-101.92
-103.95
-104.80
-104.57
-103.51
-101.97
-100.38
-99.12
-98.46
-98.44
-98.74
-98.76
-97.62
-94.23
-87.49
-76.49
-60.87
-41.14
-18.72
4.25
25.36
42.59
54.76
61.69
63.96
62.43
57.83
50.63
41.15
29.91
17.77
5.82
-4.96
-14.10
-21.74
-28.50
-34.99
-41.52
-47.91
-53.67
-58.29
-61.52
-63.47
-64.53
-65.12
-65.55
-65.93
-66.27
-66.53
-66.67
-66.74
-66.78
-66.86
-67.09
-67.70
-69.01
-71.23
-74.18
-77.06
-78.49
-76.93
-71.37
-61.82
-49.41
-36.00
-23.47
-13.08
-5.26
0.27
4.09
6.69
8.32
9.11
9.17
8.84
8.57
8.91
10.21
12.55
15.59
18.68
21.08
22.21
21.90
20.37
18.05
15.29
12.13
8.33
3.52
-2.42
-9.23
-16.30
-22.84
-28.18
-31.99
-34.32
-35.56
-36.24
-36.92
-38.11
-40.16
-43.33
-47.63
-52.81
-58.33
-63.40
-67.15
-68.80
-67.90
-64.40
-58.74
-51.71
-44.28
-37.35
-31.51
-27.06
-23.97
-22.09
-21.23
-21.10
-21.36
-21.45
-20.74
-18.64
-14.83
-9.36
-2.71
4.28
10.46
14.69
16.04
14.10
9.17
2.20
-5.52
-12.83
-18.99
-23.87
-27.69
-30.78
-33.37
-35.54
-37.40
-39.05
-40.48
-41.41
-41.18
-39.05
-34.47
-27.46
-18.70
-9.31
-0.55
6.63
11.69
14.68
16.03
16.49
16.93
18.10
20.46
24.06
28.55
33.33
37.69
41.03
42.85
42.84
40.85
36.96
31.51
25.00
18.02
11.05
4.32
-2.20
-8.72
-15.46
-22.53
-29.95
-37.59
-45.15
-52.16
-57.92
-61.62
-62.53
-60.29
-55.15
-47.92
-39.75
-31.73
-24.58
-18.44
-13.03
-7.91
-2.84
2.06
6.29
9.18
10.22
9.28
6.72
3.31
-0.06
-2.69
-4.24
-4.80
-4.76
-4.56
-4.56
-4.97
-5.95
-7.60
-10.03
-13.26
-17.17
-21.43
-25.62
-29.30
-32.17
-34.13
-35.19
-35.27
-34.15
-31.34
-26.25
-18.39
-7.66
5.48
20.17
35.26
49.77
63.13
75.17
85.97
95.44
103.19
108.45
110.47
108.82
103.77
96.19
87.21
77.84
68.57
59.40
50.09
40.53
30.90
21.59
12.97
5.15
-2.08
-9.04
-15.99
-22.91
-29.59
-35.73
-41.09
-45.61
-49.33
-52.30
-54.45
-55.51
-55.07
-52.60
-47.70
-40.31
-30.86
-20.26
-9.68
-0.14
7.82
14.18
19.25
23.41
26.78
29.32
30.85
31.41
31.25
30.81
30.45
30.34
30.35
30.17
29.48
28.11
26.09
23.68
21.19
18.83
16.57
14.09
10.88
6.47
0.70
-6.08
-13.16
-19.64
-24.89
-28.68
-31.31
-33.43
-35.79
-38.98
-43.26
-48.50
-54.14
-59.25
-62.74
-63.58
-61.16
-55.58
-47.62
-38.54
-29.57
-21.58
-14.90
-9.35
-4.58
-0.29
3.60
7.09
10.13
12.80
15.27
17.67
20.03
22.26
24.14
25.54
26.42
26.84
26.86
26.49
25.66
24.24
22.23
19.70
16.95
14.28
11.93
9.89
7.85
5.41
2.22
-1.77
-6.32
-11.00
-15.50
-19.73
-23.86
-28.15
-32.86
-38.11
-43.99
-50.60
-57.91
-65.59
-72.83
-78.35
-80.88
-79.62
-74.69
-67.04
-58.04
-48.83
-39.97
-31.32
-22.38
-12.66
-2.07
9.08
20.16
30.34
38.84
44.99
48.34
48.76
46.51
42.25
36.87
31.33
26.45
22.79
20.67
20.11
20.90
22.51
24.10
24.69
23.43
19.85
14.11
7.06
0.04
-5.44
-8.24
-7.83
-4.55
0.50
5.72
9.39
10.08
6.90
-0.25
-10.71
-22.98
-34.85
-43.73
-47.14
-43.37
-32.21
-15.08
5.22
25.34
42.46
55.03
63.04
67.62
70.39
72.60
74.78
76.77
77.93
77.62
75.54
71.82
67.00
61.69
56.47
51.56
47.02
42.84
39.09
36.02
33.99
33.18
33.50
34.45
35.25
35.06
33.10
28.91
22.43
13.95
3.99
-7.06
-19.20
-32.90
-48.77
-66.93
-86.28
-104.33
-117.68
-123.10
-118.77
-104.92
-83.70
-58.31
-31.99
-7.18
14.76
33.28
48.37
60.21
69.05
75.13
78.81
80.45
80.47
79.30
77.32
74.79
71.69
67.71
62.29
54.75
44.53
31.44
15.73
-1.87
-20.27
-38.21
-54.47
-68.10
-78.53
-85.66
-89.76
-91.47
-91.55
-90.70
-89.27
-87.06
-83.19
-76.34
-65.20
-49.05
-28.25
-4.38
20.10
42.57
60.86
73.80
81.34
84.34
84.23
82.65
81.07
80.66
82.08
85.47
90.45
96.21
101.73
105.98
108.09
107.43
103.68
96.86
87.48
76.40
64.77
53.72
43.92
35.35
27.19
18.21
7.30
-5.95
-20.94
-36.19
-49.81
-60.12
-66.24
-68.23
-66.93
-63.57
-59.32
-54.97
-50.91
-47.32
-44.30
-41.98
-40.39
-39.34
-38.42
-37.04
-34.73
-31.30
-26.92
-22.04
-17.11
-12.52
-8.47
-5.11
-2.69
-1.54
-2.12
-4.74
-9.46
-15.90
-23.42
-31.27
-38.88
-45.88
-52.07
-57.11
-60.41
-61.10
-58.45
-52.32
-43.29
-32.63
-21.83
-12.11
-4.15
2.01
6.64
10.10
12.59
14.11
14.67
14.32
13.35
12.17
11.23
10.76
10.66
10.54
9.84
8.11
5.20
1.26
-3.40
-8.54
-14.09
-20.13
-26.76
-33.91
-41.39
-48.80
-55.76
-61.83
-66.52
-69.26
-69.45
-66.72
-61.19
-53.55
-45.03
-37.04
-30.80
-27.00
-25.74
-26.61
-28.90
-31.78
-34.42
-36.01
-35.80
-33.05
-27.22
-18.06
-5.81
8.85
24.80
40.72
55.33
67.47
76.19
80.75
80.65
75.63
65.82
51.71
34.12
14.14
-7.03
-28.12
-47.83
-65.12
-79.28
-90.16
-97.96
-102.82
-104.51
-102.27
-95.25
-83.27
-67.37
-49.90
-33.75
-21.35
-13.75
-10.24
-8.67
-6.29
-0.79
9.02
22.86
39.01
54.85
67.53
74.55
74.22
66.08
51.06
31.43
10.70
-7.31
-19.60
-25.24
-25.96
-25.48
-27.71
-34.68
-45.06
-54.55
-57.90
-51.57
-35.65
-13.98
7.72
24.42
33.59
35.27
31.04
22.46
10.55
-3.92
-19.54
-33.93
-44.32
-48.85
-47.57
-42.50
-36.63
-32.48
-31.00
-31.67
-33.09
-34.06
-34.05
-33.29
-32.42
-32.21
-33.36
-36.43
-41.66
-48.76
-56.75
-63.99
-68.25
-67.52
-60.63
-47.78
-30.68
-12.10
5.12
19.00
29.06
36.24
42.07
47.73
53.33
57.88
60.00
58.87
54.80
49.20
43.87
40.04
38.02
37.25
37.01
37.06
37.83
39.98
43.74
48.43
52.49
54.06
51.77
45.18
35.03
23.03
11.64
3.89
2.91
11.28
30.05
58.00
91.56
125.60
154.89
175.76
186.83
188.99
184.33
174.97
162.32
146.95
129.16
109.54
89.24
69.67
51.95
36.38
22.23
8.14
-7.29
-24.73
-43.77
-63.07
-80.85
-95.70
-107.06
-115.42
-122.07
-128.64
-136.52
-146.64
-159.11
-173.04
-186.28
-195.35
-196.11
-185.01
-160.56
-124.41
-81.20
-37.21
1.67
31.71
51.95
63.68
69.07
70.00
67.64
62.78
56.43
50.12
45.52
43.71
44.48
46.17
46.33
42.67
34.09
21.23
6.27
-7.91
-18.89
-25.65
-28.93
-30.92
-34.44
-42.03
-55.12
-73.46
-94.88
-115.41
-130.03
-134.05
-124.64
-102.17
-70.35
-35.19
-2.89
22.18
38.53
47.40
51.37
52.76
52.80
51.70
49.43
46.52
44.29
44.29
47.55
53.83
61.50
68.05
71.12
69.29
62.65
52.59
41.12
30.05
20.31
11.77
3.58
-5.28
-15.55
-27.62
-41.50
-56.88
-72.75
-87.04
-96.56
-97.68
-87.74
-66.48
-36.65
-3.47
27.29
51.22
66.72
74.90
78.48
80.15
81.45
82.61
83.12
82.57
81.23
79.99
79.95
81.78
85.23
89.08
91.53
90.92
86.41
78.32
67.97
57.04
46.77
37.61
29.09
20.32
10.49
-0.81
-13.70
-28.22
-44.29
-61.33
-77.61
-90.00
-94.50
-87.69
-68.26
-38.17
-2.27
33.14
62.54
82.82
93.90
97.89
97.73
95.79
93.29
90.49
87.22
83.47
79.50
75.65
72.09
68.69
65.07
60.99
56.40
51.51
46.44
41.00
34.65
26.62
16.49
4.45
-8.68
-21.74
-33.76
-44.44
-54.22
-64.12
-75.36
-88.97
-105.16
-122.83
-139.24
-150.37
-151.92
-141.07
-117.85
-85.62
-50.11
-17.30
8.68
26.72
38.48
46.84
54.22
61.52
68.19
73.09
75.57
76.01
75.61
75.70
77.03
79.30
81.27
81.53
79.22
74.58
68.84
63.66
60.22
58.71
58.08
56.66
52.82
45.68
35.46
23.31
10.88
-0.37
-9.62
-16.99
-23.44
-30.39
-39.28
-51.05
-65.96
-83.37
-101.67
-118.19
-129.54
-132.25
-123.94
-104.44
-76.26
-44.00
-12.91
13.00
32.17
45.49
55.16
63.25
70.56
76.64
80.56
81.93
81.44
80.50
80.41
81.51
82.89
82.81
79.68
72.96
63.50
53.10
43.74
36.51
31.31
26.92
21.78
14.73
5.52
-5.06
-15.63
-24.75
-31.48
-35.68
-38.12
-40.20
-43.54
-49.58
-59.11
-72.08
-87.36
-102.76
-115.23
-121.39
-118.54
-105.60
-83.80
-56.59
-28.55
-3.94
14.63
26.78
33.83
37.73
40.07
41.60
42.49
42.84
43.09
43.78
45.24
47.12
48.47
48.21
45.67
41.03
35.18
29.18
23.68
18.50
12.74
5.25
-4.71
-16.96
-30.43
-43.51
-54.74
-63.34
-69.48
-74.11
-78.56
-84.19
-91.88
-101.66
-112.27
-121.08
-124.56
-119.35
-103.65
-78.35
-47.05
-15.02
12.65
32.80
44.99
51.04
53.64
55.05
56.34
57.51
58.15
58.09
57.58
57.07
56.88
57.02
57.16
56.94
56.05
54.35
51.76
48.15
43.34
37.15
29.62
20.98
11.62
1.95
-7.80
-17.52
-27.26
-37.21
-47.80
-59.55
-72.66
-86.42
-98.69
-106.12
-105.19
-93.80
-72.52
-44.84
-16.07
8.63
26.13
36.16
40.79
42.93
44.73
46.83
48.55
48.85
47.20
44.04
40.53
37.75
36.19
35.31
33.88
30.65
24.95
17.13
8.29
-0.20
-7.46
-13.46
-18.96
-25.17
-33.10
-43.24
-55.49
-69.36
-84.13
-98.67
-111.20
-119.27
-120.23
-112.26
-95.37
-71.88
-45.83
-21.63
-2.45
10.66
18.61
23.32
26.53
29.09
31.04
32.26
33.00
34.08
36.55
41.07
47.41
54.39
60.30
63.62
63.70
61.04
57.00
53.06
50.05
47.62
44.40
38.60
28.87
14.79
-2.97
-22.83
-42.46
-59.06
-69.63
-71.67
-64.05
-47.75
-25.88
-2.79
17.43
32.38
41.98
47.78
51.75
54.99
57.29
57.64
55.25
50.29
43.96
37.85
33.05
29.64
26.70
22.85
17.07
9.21
0.02
-9.22
-17.31
-23.70
-28.73
-33.43
-39.12
-47.01
-57.79
-71.58
-87.66
-104.43
-119.25
-128.78
-129.78
-120.28
-100.65
-73.80
-44.40
-17.34
3.90
18.21
26.64
31.27
34.08
36.02
37.07
36.75
34.81
31.56
27.90
24.89
23.32
23.44
24.84
26.65
27.86
27.78
26.19
23.41
20.06
16.62
13.14
9.20
4.11
-2.74
-11.65
-22.68
-35.70
-50.59
-66.92
-83.42
-97.63
-106.06
-105.22
-93.12
-70.49
-40.90
-9.76
17.76
38.45
51.90
59.94
65.24
69.81
74.34
78.40
81.32
82.86
83.53
84.13
85.26
86.85
88.27
88.66
87.44
84.58
80.63
76.32
72.26
68.65
65.20
61.33
56.30
49.60
41.17
31.50
21.54
12.33
4.59
-1.58
-6.83
-12.20
-18.67
-26.74
-36.20
-46.23
-55.82
-64.13
-70.81
-76.10
-80.66
-85.44
-91.43
-99.59
-110.45
-123.85
-138.34
-151.01
-157.96
-155.34
-140.88
-115.02
-81.14
-44.54
-10.73
16.38
35.44
47.42
54.62
59.33
63.08
66.52
69.73
72.78
75.91
79.43
83.41
87.51
90.94
92.82
92.50
89.98
85.93
81.41
77.34
74.07
71.19
67.69
62.56
55.35
46.45
36.96
28.17
20.93
15.29
10.49
5.38
-1.01
-8.96
-18.00
-27.18
-35.53
-42.60
-48.58
-54.26
-60.68
-68.72
-78.86
-90.94
-104.02
-116.32
-125.37
-128.54
-123.80
-110.59
-90.22
-65.75
-40.98
-19.29
-2.68
8.54
15.33
19.10
21.05
21.84
21.69
20.78
19.37
17.85
16.52
15.42
14.33
12.91
11.03
8.81
6.70
5.11
4.15
3.45
2.31
-0.00
-3.79
-8.83
-14.47
-20.02
-25.16
-30.11
-35.55
-42.38
-51.39
-62.94
-76.63
-90.90
-102.99
-109.43
-107.15
-94.78
-73.44
-46.66
-19.18
4.80
22.99
35.45
43.93
50.50
56.57
62.38
67.37
70.90
72.73
73.23
73.04
72.77
72.59
72.29
71.35
69.25
65.82
61.21
56.00
50.78
45.94
41.49
37.02
31.93
25.62
17.78
8.47
-1.87
-12.48
-22.48
-31.13
-38.10
-43.58
-48.26
-53.16
-59.29
-67.41
-77.85
-90.35
-103.89
-116.44
-125.12
-126.79
-119.04
-101.41
-75.87
-46.49
-18.02
5.73
23.15
34.93
43.19
50.15
57.09
64.05
70.33
75.27
78.73
81.13
83.02
84.67
85.79
85.77
84.06
80.65
76.13
71.47
67.53
64.62
62.30
59.59
55.41
49.04
40.53
30.71
20.89
12.36
5.88
1.39
-2.00
-5.55
-10.35
-16.77
-24.36
-32.10
-38.94
-44.35
-48.52
-52.27
-56.69
-62.74
-70.98
-81.48
-93.53
-105.58
-115.15
-119.25
-115.25
-102.04
-80.77
-54.78
-28.53
-6.07
10.30
20.56
26.44
30.22
33.62
37.26
40.90
44.04
46.45
48.31
49.87
51.10
51.52
50.40
47.13
41.75
34.93
27.88
21.68
16.82
12.92
8.96
3.77
-3.35
-12.21
-21.84
-30.91
-38.39
-44.00
-48.35
-52.66
-58.21
-65.91
-75.92
-87.43
-98.61
-106.83
-109.27
-103.73
-89.63
-68.44
-43.47
-18.75
2.30
17.93
28.30
34.82
39.23
42.73
45.78
48.28
49.99
50.78
50.69
49.83
48.36
46.41
44.12
41.54
38.57
34.90
30.10
23.88
16.24
7.61
-1.39
-10.21
-18.52
-26.39
-34.09
-42.03
-50.60
-60.25
-71.41
-84.26
-98.29
-111.84
-122.09
-125.67
-119.85
-103.91
-79.72
-51.39
-23.85
-1.09
15.09
25.31
31.73
36.74
41.90
47.47
52.81
57.01
59.43
59.94
58.80
56.41
53.16
49.37
45.39
41.60
38.31
35.62
33.31
30.89
27.86
23.94
19.27
14.35
9.74
5.78
2.27
-1.46
-6.50
-13.95
-24.43
-37.54
-51.29
-62.32
-66.57
-60.74
-43.69
-17.30
14.01
44.74
70.28
88.37
99.40
105.56
109.36
112.39
114.80
115.61
113.48
107.44
97.40
84.06
68.68
52.62
36.96
22.35
9.07
-2.85
-13.55
-23.20
-32.01
-40.24
-48.16
-56.09
-64.24
-72.69
-81.37
-90.13
-98.90
-107.89
-117.69
-128.78
-141.01
-152.87
-161.48
-163.32
-155.68
-138.02
-112.62
-83.76
-56.19
-33.17
-15.57
-2.18
9.17
20.11
31.08
41.45
50.23
56.89
61.59
65.12
68.32
71.71
75.22
78.33
80.32
80.63
79.04
75.67
70.92
65.24
58.88
51.81
43.72
34.11
22.64
9.18
-6.19
-23.28
-42.00
-61.99
-82.26
-100.63
-113.91
-118.73
-112.85
-96.50
-72.55
-45.65
-20.42
0.23
15.87
27.98
38.56
48.85
58.73
67.13
72.99
76.01
76.89
76.82
76.80
77.07
77.05
75.73
72.39
67.07
60.73
54.78
50.42
47.89
46.30
43.93
39.07
30.87
19.81
7.52
-4.06
-13.50
-20.52
-26.11
-31.97
-39.83
-50.90
-65.62
-83.50
-102.98
-121.40
-135.12
-140.32
-134.22
-116.28
-88.84
-56.45
-24.31
3.61
25.84
43.43
58.73
73.85
89.57
105.11
118.89
129.62
136.88
141.14
143.22
143.60
142.15
138.23
131.27
121.33
109.35
96.89
85.59
76.38
69.01
62.11
53.73
42.17
26.79
8.39
-11.00
-28.83
-43.12
-53.07
-59.41
-63.96
-68.80
-75.55
-85.00
-97.16
-111.31
-126.05
-139.15
-147.67
-148.56
-139.76
-121.22
-95.42
-66.69
-39.77
-18.12
-2.96
6.65
12.79
17.38
21.53
25.36
28.59
31.02
32.80
34.23
35.48
36.45
36.87
36.53
35.45
33.83
31.80
29.21
25.65
20.65
14.03
6.06
-2.69
-11.58
-20.10
-28.11
-35.66
-43.11
-51.12
-60.62
-72.68
-87.75
-104.75
-120.70
-131.16
-131.77
-120.25
-97.62
-68.12
-37.49
-10.68
9.88
24.68
36.01
46.21
56.38
66.21
74.57
80.62
84.37
86.48
87.72
88.47
88.64
87.92
86.24
83.90
81.41
79.17
77.13
74.78
71.39
66.35
59.48
51.12
41.96
32.70
23.79
15.23
6.64
-2.47
-12.42
-23.12
-34.16
-44.96
-55.12
-64.65
-74.01
-84.02
-95.67
-109.90
-127.12
-146.66
-166.36
-182.69
-191.58
-189.82
-176.44
-153.40
-125.00
-96.55
-72.37
-54.63
-43.03
-35.62
-30.12
-25.21
-21.03
-18.72
-19.40
-23.07
-28.33
-32.91
-34.94
-33.95
-31.12
-28.51
-27.69
-28.98
-31.47
-34.14
-36.93
-41.28
-49.65
-64.21
-85.66
-112.60
-141.64
-168.22
-187.66
-196.31
-192.57
-177.57
-154.74
-128.70
-103.61
-81.90
-64.03
-49.34
-37.25
-28.04
-22.40
-20.38
-20.45
-19.47
-13.86
-1.27
18.26
42.35
67.35
90.00
108.56
123.03
134.48
144.19
152.98
161.20
169.07
177.01
185.45
194.47
203.37
210.66
214.60
213.97
208.56
199.14
186.93
173.02
157.97
141.91
124.90
107.25
89.53
72.40
56.31
41.24
26.79
12.25
-3.08
-19.55
-36.78
-53.51
-67.69
-77.07
-79.98
-75.99
-66.17
-52.70
-38.21
-24.87
-13.91
-5.51
0.89
6.11
10.81
15.26
19.38
23.00
26.07
28.74
31.33
34.12
37.09
39.88
41.86
42.45
41.36
38.70
34.88
30.34
25.47
20.51
15.70
11.25
7.32
3.84
0.39
-3.70
-9.16
-16.32
-24.82
-33.55
-40.87
-45.02
-44.66
-39.30
-29.49
-16.77
-3.21
9.13
18.81
25.33
29.04
30.80
31.52
31.90
32.42
33.44
35.18
37.56
40.05
41.74
41.71
39.57
35.76
31.38
27.51
24.66
22.49
20.22
17.35
14.14
11.55
10.65
11.91
14.86
18.36
21.06
22.04
20.89
17.63
12.56
6.26
-0.19
-5.21
-6.93
-3.80
4.80
18.27
34.95
52.70
69.48
83.84
95.03
103.08
108.60
112.58
116.07
119.80
123.97
128.14
131.50
133.26
133.06
131.07
127.76
123.64
118.94
113.62
107.52
100.59
92.93
84.68
75.84
66.16
55.26
42.79
28.75
13.60
-1.83
-16.65
-30.24
-42.41
-53.49
-64.01
-74.54
-85.38
-96.56
-107.73
-118.34
-127.53
-134.27
-137.48
-136.28
-130.43
-120.49
-107.85
-94.38
-81.88
-71.57
-63.76
-58.00
-53.43
-49.23
-45.03
-40.92
-37.25
-34.45
-32.64
-31.62
-30.84
-29.59
-27.26
-23.47
-18.21
-11.83
-4.87
2.15
8.88
15.25
21.45
27.71
34.23
41.13
48.47
56.26
64.25
71.82
77.86
81.04
80.35
75.64
67.89
59.01
51.03
45.37
42.36
41.36
41.28
41.17
40.57
39.42
37.83
35.85
33.37
30.27
26.54
22.37
18.12
14.19
10.92
8.46
6.74
5.46
4.23
2.71
0.76
-1.49
-3.75
-5.77
-7.55
-9.33
-11.52
-14.46
-18.24
-22.64
-27.24
-31.59
-35.39
-38.63
-41.65
-45.07
-49.61
-55.85
-63.86
-72.94
-81.58
-87.78
-89.64
-86.08
-77.26
-64.60
-50.24
-36.32
-24.28
-14.56
-6.78
-0.14
6.15
12.54
19.15
25.89
32.59
39.05
45.06
50.41
54.88
58.29
60.53
61.66
61.89
61.57
61.10
60.69
60.27
59.46
57.69
54.44
49.53
43.09
35.57
27.46
19.19
11.03
3.23
-3.97
-10.33
-15.77
-20.51
-25.08
-30.19
-36.42
-43.98
-52.67
-61.93
-71.07
-79.52
-86.94
-93.26
-98.72
-103.84
-109.34
-116.01
-124.37
-134.26
-144.57
-153.25
-157.88
-156.40
-147.97
-133.32
-114.56
-94.36
-75.07
-58.09
-43.77
-31.65
-21.13
-11.76
-3.42
3.84
10.00
15.18
19.59
23.41
26.70
29.36
31.34
32.67
33.52
34.20
35.02
36.21
37.84
39.80
41.77
43.35
44.14
43.86
42.55
40.53
38.33
36.50
35.33
34.73
34.24
33.23
31.07
27.41
22.28
16.01
9.18
2.38
-3.94
-9.52
-14.39
-18.84
-23.36
-28.57
-34.94
-42.65
-51.21
-59.51
-65.86
-68.52
-66.20
-58.57
-46.46
-31.62
-16.16
-1.98
9.67
18.35
24.21
27.74
29.47
29.84
29.24
28.08
26.84
26.00
25.94
26.69
27.98
29.27
29.93
29.45
27.60
24.55
20.79
17.06
14.16
12.65
12.85
14.71
17.99
22.39
27.67
33.70
40.39
47.64
55.24
62.78
69.60
74.79
77.35
76.46
71.91
64.42
55.70
47.97
43.40
43.34
48.01
56.48
67.09
77.95
87.37
94.07
97.29
96.88
93.26
87.35
80.33
73.28
66.88
61.31
56.32
51.45
46.31
40.69
34.57
28.18
21.78
15.69
10.03
4.75
-0.47
-5.99
-12.01
-18.40
-24.61
-29.92
-33.78
-35.99
-36.71
-36.34
-35.22
-33.66
-31.88
-30.19
-28.99
-28.77
-29.90
-32.60
-36.80
-42.18
-48.19
-54.06
-58.94
-62.02
-62.75
-61.02
-57.20
-51.94
-46.04
-40.13
-34.67
-29.90
-25.98
-22.96
-20.83
-19.42
-18.50
-17.73
-16.77
-15.36
-13.38
-10.85
-8.00
-5.26
-3.02
-1.65
-1.20
-1.48
-2.18
-3.01
-4.00
-5.50
-8.07
-12.22
-18.17
-25.71
-34.21
-42.84
-50.79
-57.62
-63.37
-68.62
-74.32
-81.46
-90.78
-102.46
-116.07
-130.65
-144.96
-157.84
-168.53
-176.88
-183.42
-189.15
-195.16
-202.20
-210.25
-218.54
-225.68
-230.18
-230.86
-227.24
-219.57
-208.69
-195.59
-180.83
-164.17
-144.68
-121.10
-92.76
-60.14
-25.14
9.54
41.26
68.31
90.25
107.57
121.02
130.96
137.28
139.80
138.74
134.96
129.66
123.90
118.19
112.28
105.54
97.29
87.26
75.72
63.48
51.58
40.88
31.78
24.04
16.79
8.98
-0.22
-10.95
-22.55
-33.82
-43.57
-51.20
-56.91
-61.71
-66.97
-73.98
-83.45
-95.23
-108.12
-119.99
-128.20
-130.32
-124.86
-111.74
-92.40
-69.26
-44.98
-21.74
-0.75
17.71
33.92
48.30
61.05
72.11
81.25
88.31
93.37
96.80
99.17
100.99
102.54
103.73
104.21
103.64
101.88
99.04
95.47
91.61
87.73
83.92
80.00
75.50
69.85
62.65
53.89
44.13
34.27
25.29
17.71
11.44
5.80
-0.16
-7.24
-15.82
-25.72
-36.24
-46.25
-54.33
-59.08
-59.39
-54.91
-46.27
-35.01
-23.16
-12.67
-4.78
0.16
2.66
3.73
4.41
5.40
6.94
8.74
10.26
10.91
10.27
8.22
4.92
0.71
-4.11
-9.35
-15.12
-21.73
-29.48
-38.51
-48.67
-59.55
-70.70
-81.80
-92.78
-103.66
-114.49
-125.22
-135.68
-145.73
-154.99
-162.74
-167.61
-167.65
-160.87
-145.96
-123.14
-94.36
-62.87
-32.22
-5.10
17.32
35.44
50.66
64.51
77.95
91.02
102.97
112.69
119.26
122.29
122.04
119.12
114.13
107.28
98.36
87.09
73.57
58.64
43.69
30.16
18.75
9.22
0.57
-8.21
-17.37
-26.32
-33.99
-39.94
-45.01
-51.31
-61.11
-75.36
-92.69
-109.28
-120.56
-123.05
-115.96
-101.46
-83.45
-65.54
-49.43
-34.73
-20.09
-4.80
10.55
24.70
37.18
49.38
64.22
84.35
110.25
139.28
166.67
187.65
199.51
202.28
197.91
188.62
175.83
160.06
141.80
122.37
103.97
88.78
77.82
70.51
64.77
58.02
48.31
35.12
19.56
3.97
-8.83
-16.47
-17.68
-12.72
-3.15
8.70
20.50
30.54
38.06
43.11
46.15
47.63
47.79
46.71
44.54
41.69
38.78
36.42
34.90
33.92
32.79
30.66
27.03
22.05
16.49
11.39
7.52
4.97
2.99
0.33
-4.40
-12.09
-22.77
-35.55
-48.71
-60.16
-67.90
-70.65
-68.14
-61.19
-51.39
-40.43
-29.49
-18.86
-7.96
4.19
18.32
34.51
52.09
69.90
86.73
101.55
113.63
122.35
127.10
127.34
122.78
113.68
100.91
85.87
70.06
54.77
40.62
27.54
15.00
2.29
-11.00
-24.88
-38.84
-52.00
-63.17
-71.02
-74.29
-72.08
-64.26
-51.78
-36.62
-21.33
-8.26
1.27
7.25
10.92
13.99
17.98
23.71
31.25
40.14
49.70
59.19
67.88
75.05
80.15
82.87
83.36
82.18
80.07
77.70
75.35
72.88
69.86
65.85
60.69
54.64
48.27
42.20
36.80
32.02
27.38
22.24
16.06
8.78
1.11
-5.41
-8.45
-5.37
6.09
26.94
56.50
92.39
131.36
170.51
208.30
244.80
280.96
317.35
352.98
384.97
409.30
422.11
421.06
406.03
378.89
342.70
300.67
255.44
208.90
162.37
117.00
73.88
33.99
-2.11
-34.63
-64.65
-93.78
-123.61
-155.07
-187.90
-220.79
-251.89
-279.48
-302.84
-322.67
-340.88
-359.71
-380.52
-402.79
-423.98
-440.10
-446.71
-439.84
-416.44
-374.76
-314.90
-239.47
-154.01
-66.59
13.77
79.27
125.25
150.86
158.26
151.02
132.73
106.57
75.71
43.90
15.27
-6.73
-20.48
-26.80
-28.59
-29.44
-32.25
-38.24
-46.83
-56.41
-65.34
-72.69
-78.53
-83.63
-88.70
-93.80
-98.11
-100.20
-98.78
-93.46
-85.14
-75.86
-68.06
-63.56
-62.82
-64.71
-67.06
-67.69
-65.36
-60.40
-54.46
-49.87
-48.65
-51.81
-59.17
-69.50
-80.89
-91.15
-97.95
-99.22
-94.05
-83.59
-71.29
-61.96
-59.60
-65.43
-76.99
-89.41
-97.98
-100.56
-98.46
-95.23
-94.32
-97.12
-102.63
-108.65
-113.56
-117.44
-121.65
-127.78
-136.36
-146.58
-156.86
-165.79
-172.87
-178.67
-184.67
-192.52
-203.29
-216.89
-231.65
-244.45
-251.34
-248.60
-233.73
-206.25
-167.72
-121.15
-70.09
-17.65
34.08
84.15
132.61
180.20
227.94
276.77
326.97
377.83
427.57
473.53
512.51
541.16
556.60
556.98
542.16
513.85
475.27
430.21
381.77
331.60
279.92
226.39
171.37
116.45
64.21
17.04
-24.25
-61.00
-96.26
-133.51
-175.23
-221.67
-270.35
-316.41
-353.64
-376.27
-380.77
-366.99
-338.40
-300.96
-261.50
-225.84
-197.61
-177.99
-166.04
-159.46
-155.10
-149.62
-140.02
-124.35
-102.45
-76.28
-49.50
-26.36
-10.16
-2.03
-0.53
-2.29
-3.58
-1.71
3.89
11.67
18.82
22.42
20.49
12.44
-0.93
-17.84
-35.96
-52.77
-65.95
-73.60
-74.55
-68.59
-56.68
-40.96
-24.40
-10.03
0.10
5.95
9.66
14.95
25.73
44.39
70.99
103.17
137.34
170.04
199.16
224.16
245.39
263.26
277.36
286.46
289.06
284.25
272.25
254.39
232.54
208.25
182.30
154.64
124.96
93.25
60.37
27.95
-1.93
-27.31
-46.70
-59.25
-64.96
-64.50
-59.13
-50.44
-39.95
-28.76
-17.49
-6.37
4.40
14.38
22.78
28.56
30.76
28.79
22.67
12.98
0.74
-12.86
-26.68
-39.74
-51.33
-61.04
-68.72
-74.52
-78.78
-81.97
-84.56
-86.91
-89.23
-91.66
-94.22
-96.88
-99.33
-100.95
-100.66
-97.17
-89.37
-76.63
-59.12
-37.75
-14.01
10.32
33.45
53.69
69.64
80.31
85.30
84.80
79.55
70.62
59.18
46.35
33.16
20.54
9.26
-0.21
-7.75
-13.65
-18.51
-22.92
-27.25
-31.47
-35.26
-38.11
-39.65
-39.72
-38.40
-36.00
-32.96
-29.84
-27.20
-25.45
-24.65
-24.47
-24.19
-23.12
-20.88
-17.65
-14.05
-10.93
-8.86
-7.92
-7.70
-7.50
-6.54
-4.20
-0.02
6.22
14.53
24.60
35.82
47.31
58.04
67.02
73.47
76.94
77.36
75.15
71.03
65.95
60.73
55.86
51.42
47.13
42.49
37.08
30.64
23.10
14.57
5.25
-4.51
-14.18
-23.13
-30.77
-36.77
-41.07
-43.83
-45.10
-44.65
-41.91
-36.25
-27.32
-15.41
-1.48
13.09
26.91
39.01
48.91
56.58
62.25
66.16
68.46
69.26
68.60
66.55
63.29
59.05
54.14
48.89
43.62
38.60
33.98
29.72
25.57
21.13
15.98
9.87
2.87
-4.55
-11.72
-17.98
-22.95
-26.61
-29.35
-31.71
-34.32
-37.62
-41.76
-46.46
-51.00
-54.39
-55.67
-54.26
-50.24
-44.34
-37.68
-31.31
-25.89
-21.53
-17.95
-14.75
-11.66
-8.60
-5.61
-2.69
0.35
3.84
8.06
13.06
18.44
23.43
27.11
28.79
28.32
26.15
23.08
19.91
17.08
14.53
11.86
8.64
4.78
0.55
-3.47
-6.68
-8.86
-10.21
-11.34
-12.98
-15.72
-19.73
-24.66
-29.75
-33.93
-36.21
-35.90
-32.88
-27.69
-21.40
-15.24
-10.26
-6.89
-4.84
-3.12
-0.41
4.48
12.09
22.01
32.93
42.95
50.36
54.13
54.23
51.56
47.37
42.70
38.02
33.21
27.94
22.08
15.92
10.04
5.07
1.29
-1.49
-3.81
-6.38
-9.73
-14.10
-19.34
-25.08
-30.69
-35.48
-38.74
-39.94
-38.83
-35.63
-30.92
-25.46
-19.96
-14.84
-10.24
-6.14
-2.57
0.37
2.53
3.80
4.31
4.30
4.11
4.04
4.22
4.60
4.99
5.08
4.63
3.53
1.90
0.03
-1.75
-3.20
-4.36
-5.50
-7.04
-9.27
-12.37
-16.26
-20.70
-25.28
-29.39
-32.31
-33.26
-31.79
-27.95
-22.33
-15.92
-9.70
-4.37
-0.17
3.06
5.70
8.16
10.69
13.39
16.21
18.94
21.28
22.84
23.36
22.84
21.63
20.35
19.68
20.06
21.55
23.69
25.75
26.92
26.60
24.58
21.08
16.64
11.89
7.31
3.01
-1.19
-5.73
-11.11
-17.68
-25.41
-33.75
-41.63
-47.67
-50.55
-49.61
-45.14
-38.42
-31.22
-25.07
-20.64
-17.54
-14.65
-10.84
-5.56
0.94
7.78
14.00
18.94
22.42
24.58
25.70
25.94
25.40
24.26
22.79
21.47
20.68
20.67
21.35
22.30
23.03
23.12
22.45
21.17
19.64
18.14
16.84
15.68
14.51
13.20
11.70
10.08
8.42
6.74
4.91
2.70
-0.08
-3.42
-7.10
-10.67
-13.81
-16.42
-18.73
-21.13
-23.98
-27.44
-31.50
-36.06
-40.99
-46.01
-50.48
-53.35
-53.41
-49.82
-42.62
-32.90
-22.49
-13.22
-6.18
-1.39
1.91
4.75
7.81
11.16
14.42
17.13
19.13
20.59
21.96
23.63
25.69
27.92
29.84
30.97
31.05
30.16
28.69
27.13
25.83
24.95
24.34
23.79
23.04
21.92
20.31
18.10
15.24
11.73
7.71
3.42
-0.83
-4.76
-8.22
-11.28
-14.28
-17.72
-22.06
-27.46
-33.36
-38.63
-41.79
-41.67
-37.96
-31.44
-23.65
-16.28
-10.50
-6.64
-4.24
-2.57
-1.00
0.70
2.51
4.26
5.91
7.53
9.26
11.10
12.85
14.15
14.66
14.20
12.94
11.29
9.74
8.65
7.99
7.50
6.84
5.79
4.29
2.46
0.44
-1.77
-4.31
-7.40
-11.21
-15.70
-20.44
-24.60
-27.21
-27.44
-25.00
-20.40
-14.79
-9.53
-5.66
-3.50
-2.58
-1.96
-0.68
1.75
5.27
9.35
13.30
16.53
18.73
19.94
20.40
20.49
20.53
20.73
21.12
21.60
21.98
22.07
21.71
20.70
18.97
16.51
13.50
10.33
7.40
4.98
3.00
1.03
-1.64
-5.69
-11.32
-18.01
-24.55
-29.36
-31.15
-29.41
-24.68
-18.32
-11.92
-6.72
-3.18
-1.04
0.32
1.49
2.70
3.89
4.96
5.93
6.99
8.44
10.47
12.94
15.51
17.65
18.75
18.39
16.42
13.02
8.63
3.78
-1.11
-5.82
-10.30
-14.53
-18.31
-21.34
-23.29
-24.07
-23.91
-23.30
-22.87
-23.18
-24.61
-27.22
-30.75
-34.49
-37.40
-38.37
-36.67
-32.34
-26.33
-20.12
-15.13
-12.14
-11.04
-10.92
-10.66
-9.37
-6.74
-2.99
1.24
5.22
8.32
10.18
10.74
10.20
8.90
7.18
5.32
3.53
1.99
0.86
0.14
-0.38
-1.08
-2.41
-4.60
-7.53
-10.70
-13.43
-15.10
-15.49
-14.88
-14.05
-14.01
-15.52
-18.75
-22.99
-26.80
-28.52
-26.92
-21.72
-13.72
-4.43
4.56
12.18
18.15
22.90
27.13
31.49
36.31
41.59
47.06
52.30
56.79
60.06
61.83
62.12
61.21
59.56
57.50
55.19
52.55
49.41
45.68
41.56
37.36
33.36
29.70
26.25
22.85
19.43
16.00
12.56
8.89
4.50
-1.13
-8.15
-16.13
-23.98
-30.41
-34.50
-36.00
-35.49
-33.93
-32.19
-30.62
-29.15
-27.46
-25.39
-23.04
-20.75
-18.87
-17.47
-16.38
-15.19
-13.55
-11.41
-9.04
-7.04
-5.98
-6.18
-7.53
-9.56
-11.63
-13.30
-14.53
-15.67
-17.27
-19.72
-23.08
-27.01
-30.96
-34.31
-36.52
-37.13
-35.81
-32.46
-27.25
-20.70
-13.57
-6.59
-0.31
5.06
9.58
13.42
16.76
19.70
22.31
24.64
26.74
28.61
30.19
31.39
32.13
32.37
32.12
31.46
30.44
29.20
27.86
26.47
25.00
23.15
20.52
16.66
11.32
4.62
-2.74
-9.67
-14.92
-17.43
-16.80
-13.41
-8.44
-3.40
0.41
2.41
2.89
2.69
2.70
3.36
4.53
5.71
6.40
6.46
6.10
5.66
5.32
4.95
4.22
2.87
0.90
-1.39
-3.57
-5.29
-6.43
-7.06
-7.40
-7.66
-8.12
-9.06
-10.75
-13.35
-16.65
-20.01
-22.49
-23.21
-21.74
-18.34
-13.83
-9.20
-5.09
-1.61
1.61
5.09
9.11
13.55
17.99
21.95
25.07
27.25
28.60
29.41
30.04
30.78
31.77
32.89
33.78
34.03
33.37
31.84
29.77
27.58
25.53
23.52
21.21
18.24
14.46
10.08
5.61
1.56
-1.78
-4.54
-7.19
-10.29
-14.30
-19.44
-25.62
-32.55
-39.69
-46.23
-51.13
-53.25
-51.83
-46.76
-38.80
-29.34
-19.88
-11.55
-4.79
0.50
4.63
7.78
9.93
10.98
11.06
10.62
10.45
11.42
14.23
19.20
26.15
34.44
43.06
50.91
56.91
60.28
60.61
57.93
52.60
45.28
36.86
28.30
20.52
14.22
9.67
6.71
4.84
3.37
1.73
-0.43
-3.25
-6.63
-10.54
-15.04
-20.32
-26.48
-33.28
-39.87
-44.88
-46.87
-44.80
-38.61
-29.32
-18.70
-8.63
-0.38
5.65
9.92
13.21
16.15
18.98
21.54
23.66
25.28
26.60
27.88
29.23
30.56
31.59
32.03
31.74
30.72
29.11
27.01
24.48
21.61
18.56
15.57
12.83
10.36
8.00
5.48
2.49
-1.20
-5.69
-10.85
-16.19
-20.79
-23.56
-23.57
-20.54
-15.07
-8.38
-1.70
4.47
10.52
17.47
26.08
36.19
46.59
55.48
61.42
63.89
63.49
61.53
59.47
58.44
59.00
61.12
64.27
67.49
69.64
69.54
66.37
59.77
49.98
37.68
23.76
9.13
-5.44
-19.38
-32.45
-44.63
-55.98
-66.33
-75.14
-81.59
-84.96
-85.06
-82.55
-78.68
-74.78
-71.64
-69.26
-67.05
-64.33
-60.90
-57.25
-54.35
-53.12
-53.98
-56.69
-60.50
-64.51
-68.19
-71.53
-75.02
-79.31
-84.76
-91.12
-97.61
-103.27
-107.44
-110.20
-112.30
-114.87
-118.80
-124.35
-131.02
-137.72
-142.90
-144.82
-141.80
-132.52
-116.49
-94.35
-68.06
-40.47
-14.57
7.38
24.34
36.59
45.22
51.62
56.98
62.19
67.85
74.45
82.33
91.52
101.71
112.26
122.37
131.38
138.93
145.12
150.42
155.36
160.33
165.33
169.84
173.08
174.26
172.93
169.24
163.82
157.69
151.95
147.52
145.04
144.71
146.25
148.97
151.85
153.89
154.38
153.08
150.19
146.03
140.76
134.11
125.60
114.72
101.33
85.81
68.93
51.54
34.19
17.20
0.50
-15.94
-31.97
-47.34
-61.80
-75.35
-88.37
-101.55
-115.61
-131.10
-148.03
-165.84
-183.43
-199.40
-212.39
-221.50
-226.41
-227.38
-224.92
-219.41
-210.86
-199.02
-183.74
-165.41
-145.22
-124.92
-106.26
-90.50
-77.88
-67.80
-59.01
-50.09
-39.93
-28.09
-14.89
-1.38
10.99
20.74
26.87
29.14
28.14
25.02
21.05
17.17
13.70
10.34
6.47
1.41
-5.14
-12.98
-21.45
-29.68
-36.84
-42.46
-46.58
-49.72
-52.70
-56.35
-61.13
-66.89
-72.87
-77.98
-81.33
-82.71
-82.88
-83.37
-86.02
-92.25
-102.58
-116.43
-132.20
-147.75
-160.84
-169.59
-172.87
-170.42
-162.93
-151.74
-138.27
-123.30
-106.43
-86.15
-60.46
-28.33
9.28
49.00
85.94
115.45
134.89
144.56
147.15
146.16
144.26
142.32
139.76
135.66
129.82
123.08
116.75
111.66
107.48
102.89
96.41
87.28
76.01
64.06
53.01
43.75
36.10
29.14
21.92
14.14
6.37
-0.32
-4.92
-7.07
-7.04
-5.56
-3.35
-0.86
1.71
4.25
6.67
8.86
10.85
12.69
14.47
16.12
17.42
18.14
18.21
17.91
17.68
17.83
18.30
18.66
18.30
16.82
14.33
11.29
8.36
6.02
4.48
3.78
3.91
5.03
7.36
11.04
15.99
21.87
28.19
34.43
40.16
45.01
48.65
50.73
50.96
49.20
45.61
40.61
34.81
28.94
23.59
19.19
15.80
13.22
11.06
8.91
6.50
3.65
0.26
-3.83
-8.71
-14.36
-20.36
-25.86
-29.70
-30.78
-28.53
-23.11
-15.44
-6.93
1.00
7.26
11.22
12.75
12.10
9.72
6.13
1.82
-2.86
-7.62
-12.30
-16.76
-20.85
-24.50
-27.75
-30.82
-34.12
-38.18
-43.52
-50.51
-59.18
-69.13
-79.56
-89.25
-96.81
-100.86
-100.30
-94.48
-83.36
-67.48
-47.96
-26.29
-4.20
16.62
34.75
49.21
59.61
66.15
69.47
70.48
70.13
69.27
68.54
68.27
68.54
69.21
69.91
70.22
69.66
67.81
64.39
59.34
52.86
45.37
37.42
29.56
22.26
15.88
10.61
6.46
3.32
0.96
-0.90
-2.53
-4.19
-6.00
-7.97
-9.99
-11.80
-13.06
-13.37
-12.44
-10.18
-6.77
-2.60
1.82
6.00
9.63
12.61
15.04
17.26
19.68
22.69
26.60
31.51
37.29
43.60
50.03
56.14
61.50
65.83
68.96
70.95
72.10
72.92
73.99
75.75
78.40
81.81
85.66
89.65
93.62
97.68
102.00
106.81
112.25
118.37
125.25
132.97
141.54
150.87
160.66
170.55
180.23
189.52
198.43
206.92
214.67
220.87
224.33
223.87
218.83
209.38
196.51
181.62
165.89
149.82
133.06
114.67
93.77
69.99
43.79
16.33
-10.76
-35.83
-57.68
-75.78
-90.48
-102.80
-114.00
-124.98
-135.79
-145.59
-153.04
-157.07
-157.52
-155.34
-152.27
-150.07
-149.77
-151.31
-153.65
-155.23
-154.48
-150.23
-142.03
-130.33
-116.59
-103.08
-92.47
-87.16
-88.50
-96.44
-109.46
-125.15
-140.93
-154.76
-165.51
-173.00
-177.82
-180.91
-183.29
-185.79
-188.95
-192.89
-197.21
-201.04
-203.02
-201.59
-195.39
-183.88
-167.62
-148.45
-128.99
-111.80
-98.63
-89.76
-83.94
-78.90
-72.15
-61.69
-46.80
-28.12
-7.58
11.90
27.18
35.45
34.95
25.45
8.38
-13.31
-35.68
-54.68
-67.20
-72.05
-70.31
-64.90
-59.34
-56.19
-56.00
-57.15
-56.78
-51.97
-40.87
-23.04
0.57
28.12
57.30
85.62
110.73
130.82
145.14
154.09
159.06
161.71
163.39
164.66
165.38
165.06
163.14
159.24
153.19
145.02
135.06
123.98
112.69
101.93
92.03
82.57
72.58
60.95
46.98
30.59
12.34
-6.86
-25.95
-43.81
-59.23
-71.05
-78.54
-81.77
-81.94
-81.12
-81.45
-84.29
-89.63
-96.24
-102.41
-106.92
-109.63
-111.37
-113.22
-115.80
-118.81
-121.34
-122.39
-121.55
-119.20
-116.34
-113.97
-112.53
-111.59
-109.96
-106.07
-98.59
-86.81
-71.06
-52.62
-33.55
-16.13
-2.12
7.67
13.64
17.04
19.30
21.45
23.92
26.72
29.85
33.60
38.41
44.43
51.22
57.67
62.58
65.39
66.68
68.10
71.56
78.37
88.50
100.54
112.26
121.44
126.55
127.08
123.50
116.87
108.46
99.51
91.16
84.38
80.01
78.53
79.90
83.45
87.88
91.67
93.43
92.50
89.03
83.97
78.58
73.96
70.75
69.01
68.40
68.32
68.12
67.12
64.81
60.99
55.87
50.15
44.76
40.46
37.51
35.55
33.77
31.36
27.97
23.89
20.02
17.42
16.92
18.68
22.12
26.10
29.42
31.16
31.00
29.19
26.35
23.16
20.11
17.45
15.16
13.07
11.02
8.87
6.61
4.30
2.04
-0.14
-2.28
-4.54
-7.14
-10.24
-13.86
-17.91
-22.20
-26.53
-30.59
-33.86
-35.38
-33.86
-28.08
-17.67
-3.70
11.14
23.28
29.64
29.18
23.71
17.45
15.36
20.91
34.37
52.49
69.78
80.73
81.94
73.20
57.11
37.64
18.35
1.26
-13.34
-26.29
-38.37
-49.61
-59.18
-65.84
-68.55
-66.72
-59.94
-47.75
-29.98
-7.87
14.56
30.49
32.41
15.93
-17.04
-57.88
-94.42
-116.25
-119.16
-106.24
-85.30
-64.58
-49.42
-41.77
-41.93
-50.54
-68.80
-96.63
-130.60
-163.37
-185.86
-190.96
-176.73
-147.19
-110.39
-75.03
-47.26
-29.28
-19.73
-15.62
-14.25
-14.46
-16.65
-21.81
-30.44
-41.86
-54.22
-65.20
-72.91
-76.56
-76.62
-74.37
-71.23
-68.15
-65.26
-62.13
-58.19
-53.31
-47.96
-43.07
-39.73
-38.69
-40.30
-44.54
-50.97
-58.66
-65.82
-69.76
-67.29
-55.89
-34.96
-6.77
23.94
51.55
71.57
82.22
84.70
82.03
77.35
72.55
67.94
63.00
57.37
51.47
46.45
43.40
42.69
43.69
45.12
45.76
45.02
42.93
39.79
35.57
29.71
21.63
11.46
0.67
-8.09
-12.02
-9.51
-1.19
10.20
20.73
27.03
27.45
22.45
14.07
4.73
-3.67
-10.22
-14.87
-18.02
-20.05
-21.19
-21.57
-21.33
-20.82
-20.56
-21.12
-22.86
-25.76
-29.45
-33.53
-37.88
-42.86
-48.96
-56.09
-62.86
-66.51
-63.76
-52.41
-32.72
-7.82
17.34
37.85
50.86
56.27
56.26
53.84
51.32
49.62
48.35
46.67
44.00
40.42
36.44
32.68
29.43
26.59
23.85
20.86
17.55
14.11
10.73
7.32
3.35
-1.94
-8.93
-17.02
-24.40
-28.58
-27.38
-20.09
-7.99
6.04
18.63
27.25
31.01
30.72
28.15
25.13
22.81
21.57
21.11
20.98
20.77
20.26
19.39
18.20
16.73
15.02
13.09
10.90
8.43
5.64
2.40
-1.49
-6.32
-12.16
-18.49
-23.92
-26.46
-24.27
-16.58
-4.40
9.67
22.35
31.01
34.58
33.76
30.36
26.32
22.88
20.35
18.38
16.45
14.30
11.96
9.63
7.53
5.69
4.04
2.40
0.62
-1.36
-3.55
-6.01
-8.99
-12.86
-17.88
-23.78
-29.40
-32.84
-32.07
-25.90
-14.77
-0.82
12.73
22.93
28.11
28.53
25.86
22.27
19.34
17.57
16.46
15.14
13.03
10.17
7.15
4.61
2.95
2.05
1.45
0.59
-0.85
-2.94
-5.55
-8.64
-12.25
-16.41
-20.72
-24.15
-25.22
-22.62
-15.92
-6.00
5.13
15.13
22.24
25.90
26.73
25.92
24.54
23.06
21.43
19.34
16.72
13.80
11.08
9.02
7.86
7.48
7.50
7.39
6.68
5.01
2.22
-1.70
-6.63
-12.23
-17.82
-22.24
-24.05
-22.01
-15.69
-5.89
5.39
15.68
23.00
26.60
27.11
25.98
24.59
23.58
22.68
21.20
18.63
15.14
11.41
8.25
6.08
4.74
3.64
2.19
0.07
-2.67
-5.82
-9.30
-13.31
-18.02
-23.21
-27.95
-30.74
-30.10
-25.29
-16.78
-6.20
4.23
12.59
17.84
19.98
19.81
18.37
16.49
14.63
12.96
11.48
10.20
9.04
7.92
6.70
5.34
3.82
2.15
0.37
-1.61
-3.84
-6.42
-9.43
-12.98
-17.22
-22.12
-27.21
-31.41
-33.16
-31.02
-24.40
-14.04
-1.92
9.45
17.97
22.70
23.94
22.75
20.35
17.65
15.18
13.23
11.99
11.52
11.64
11.89
11.67
10.58
8.57
5.99
3.38
1.16
-0.57
-2.01
-3.60
-5.85
-9.19
-13.93
-20.00
-26.68
-32.47
-35.37
-33.55
-26.27
-14.42
-0.41
12.69
22.29
27.35
28.44
27.22
25.40
23.99
22.96
21.83
20.17
18.06
16.12
14.99
14.94
15.62
16.20
15.78
13.84
10.49
6.44
2.58
-0.42
-2.40
-3.79
-5.29
-7.56
-10.93
-15.37
-20.56
-26.13
-31.55
-36.14
-38.90
-38.72
-34.77
-27.02
-16.56
-5.33
4.52
11.53
15.36
16.81
17.23
17.74
18.74
19.99
20.91
21.10
20.59
19.70
18.81
18.06
17.38
16.49
15.18
13.40
11.30
9.10
6.99
5.02
3.09
0.97
-1.50
-4.43
-7.75
-11.36
-15.12
-19.06
-23.31
-27.95
-32.77
-37.04
-39.59
-39.22
-35.26
-27.95
-18.49
-8.62
0.10
6.76
11.31
14.30
16.38
17.97
19.13
19.70
19.58
18.89
17.96
17.16
16.72
16.65
16.72
16.62
16.08
14.97
13.31
11.25
8.98
6.64
4.24
1.73
-0.95
-3.80
-6.67
-9.41
-12.02
-14.69
-17.82
-21.75
-26.43
-31.18
-34.70
-35.50
-32.53
-25.75
-16.26
-5.88
3.48
10.57
15.05
17.39
18.33
18.49
18.12
17.26
15.93
14.36
12.94
12.01
11.74
11.94
12.17
11.94
10.88
8.93
6.40
3.83
1.73
0.35
-0.50
-1.42
-3.16
-6.32
-11.11
-17.24
-23.90
-29.93
-34.11
-35.26
-32.70
-26.48
-17.47
-7.23
2.47
10.23
15.44
18.39
19.94
21.00
22.09
23.17
23.87
23.84
23.01
21.68
20.36
19.46
19.07
18.90
18.44
17.22
15.05
12.12
8.91
5.91
3.39
1.30
-0.67
-2.94
-5.78
-9.26
-13.27
-17.71
-22.57
-27.86
-33.32
-38.22
-41.36
-41.39
-37.45
-29.63
-19.16
-8.06
1.60
8.48
12.32
13.88
14.39
14.88
15.79
16.97
17.90
18.17
17.61
16.42
14.92
13.47
12.27
11.36
10.67
10.04
9.30
8.28
6.91
5.18
3.20
1.16
-0.76
-2.50
-4.09
-5.65
-7.37
-9.43
-12.09
-15.62
-20.21
-25.64
-31.06
-35.02
-35.84
-32.36
-24.52
-13.68
-2.08
7.98
15.04
18.92
20.46
20.90
21.06
21.14
20.79
19.66
17.77
15.58
13.80
12.96
13.12
13.85
14.43
14.12
12.60
10.04
7.00
4.19
2.08
0.74
-0.23
-1.50
-3.72
-7.32
-12.37
-18.55
-25.12
-31.08
-35.18
-36.28
-33.65
-27.40
-18.54
-8.74
0.27
7.33
12.06
14.89
16.53
17.47
17.83
17.42
16.12
14.21
12.37
11.40
11.78
13.37
15.41
16.84
16.77
14.94
11.80
8.30
5.39
3.58
2.73
2.17
1.01
-1.42
-5.40
-10.74
-16.79
-22.54
-26.64
-27.70
-24.70
-17.49
-7.10
4.44
14.78
22.15
25.97
26.94
26.42
25.66
25.16
24.77
23.98
22.54
20.69
19.03
18.11
18.06
18.57
18.97
18.63
17.21
14.80
11.80
8.71
5.84
3.23
0.62
-2.36
-5.95
-10.01
-14.12
-17.81
-20.87
-23.54
-26.47
-30.36
-35.54
-41.54
-47.15
-50.68
-50.64
-46.30
-38.09
-27.47
-16.45
-6.92
0.04
4.33
6.67
8.22
9.89
12.06
14.48
16.57
17.82
18.07
17.59
16.89
16.43
16.39
16.54
16.46
15.72
14.15
11.90
9.34
6.91
4.86
3.20
1.75
0.24
-1.52
-3.65
-6.16
-9.18
-12.82
-17.17
-21.98
-26.46
-29.37
-29.39
-25.81
-18.88
-9.90
-0.69
7.18
12.91
16.68
19.10
20.78
21.80
21.87
20.69
18.34
15.41
12.82
11.33
11.14
11.80
12.37
11.93
9.98
6.69
2.80
-0.74
-3.22
-4.49
-4.91
-5.30
-6.41
-8.80
-12.67
-17.94
-24.26
-30.92
-36.78
-40.28
-39.97
-35.03
-25.88
-14.22
-2.47
7.13
13.41
16.60
17.88
18.64
19.67
20.85
21.53
21.05
19.30
16.86
14.65
13.48
13.53
14.29
14.86
14.38
12.56
9.71
6.68
4.28
2.91
2.35
1.96
0.94
-1.29
-4.90
-9.79
-15.72
-22.34
-29.05
-34.73
-37.86
-36.89
-31.05
-20.88
-8.33
3.90
13.37
18.86
20.65
20.12
18.89
18.05
17.84
17.86
17.59
16.82
15.67
14.43
13.28
12.15
10.87
9.35
7.69
6.11
4.80
3.68
2.48
0.83
-1.44
-4.23
-7.20
-9.96
-12.26
-14.16
-15.86
-17.75
-20.17
-23.50
-27.90
-33.19
-38.47
-42.13
-42.27
-37.50
-27.79
-14.75
-1.17
10.11
17.34
20.41
20.63
19.85
19.36
19.51
19.77
19.31
17.70
15.09
12.16
9.65
8.03
7.24
6.78
5.94
4.15
1.28
-2.31
-5.92
-8.87
-10.86
-12.11
-13.29
-15.12
-18.08
-22.21
-27.30
-33.06
-39.24
-45.53
-51.37
-55.81
-57.73
-56.31
-51.48
-44.09
-35.60
-27.54
-20.88
-15.83
-12.09
-9.28
-7.38
-6.72
-7.67
-10.23
-13.77
-17.24
-19.65
-20.61
-20.61
-20.82
-22.45
-26.14
-31.60
-37.78
-43.42
-47.71
-50.76
-53.37
-56.61
-61.24
-67.37
-74.43
-81.27
-86.29
-87.65
-83.62
-73.08
-56.21
-34.72
-11.47
10.45
28.85
43.22
54.63
64.89
75.54
86.94
98.36
108.49
116.34
121.94
126.48
131.80
139.59
150.50
163.57
176.48
186.34
190.80
188.94
181.46
170.15
156.95
143.19
129.28
115.02
100.13
84.62
68.76
52.81
36.75
20.32
3.33
-13.96
-30.64
-45.31
-56.60
-63.62
-66.25
-65.14
-61.53
-56.85
-52.48
-49.49
-48.47
-49.45
-51.85
-54.75
-57.18
-58.53
-58.77
-58.32
-57.92
-58.09
-58.96
-60.24
-61.37
-61.92
-61.81
-61.36
-61.19
-61.93
-64.06
-67.73
-72.69
-78.26
-83.33
-86.41
-85.98
-80.87
-70.74
-56.24
-39.00
-21.01
-4.14
10.40
22.10
31.00
37.50
42.15
45.62
48.74
52.43
57.49
64.46
73.54
84.49
96.73
109.29
120.86
129.93
135.03
135.11
129.85
119.72
105.76
89.13
70.85
51.64
32.21
13.53
-3.08
-16.13
-24.32
-27.11
-24.91
-19.04
-11.32
-3.60
2.74
7.02
9.14
9.39
8.20
6.00
3.26
0.45
-1.96
-3.65
-4.56
-4.95
-5.21
-5.72
-6.57
-7.56
-8.37
-8.80
-8.89
-9.04
-9.80
-11.83
-15.72
-21.84
-30.01
-39.30
-47.89
-53.44
-53.94
-48.51
-38.03
-24.88
-12.17
-2.58
2.49
3.17
0.71
-3.23
-7.35
-10.94
-13.89
-16.44
-18.90
-21.58
-24.70
-28.38
-32.58
-36.99
-40.97
-43.68
-44.36
-42.73
-39.16
-34.83
-31.28
-29.86
-31.01
-33.74
-35.86
-34.67
-28.17
-15.91
0.61
18.57
34.89
47.36
55.24
59.07
59.98
58.90
56.20
51.90
46.17
39.64
33.31
28.11
24.30
21.41
18.40
14.36
8.96
2.70
-3.44
-8.53
-12.16
-14.73
-17.21
-20.86
-26.74
-35.32
-46.20
-57.99
-68.40
-74.80
-75.00
-68.12
-55.03
-38.12
-20.43
-4.59
7.99
17.16
23.51
27.65
29.75
29.73
27.67
24.25
20.70
18.25
17.49
17.99
18.47
17.47
14.05
8.27
1.13
-6.00
-11.96
-16.33
-19.46
-22.23
-25.72
-30.89
-38.34
-48.07
-59.17
-69.73
-77.15
-78.83
-73.20
-60.41
-42.40
-22.26
-3.07
13.03
25.31
34.15
40.35
44.58
47.08
47.87
47.02
44.90
42.15
39.42
37.16
35.35
33.60
31.20
27.55
22.44
16.24
9.72
3.77
-1.06
-4.86
-8.34
-12.48
-18.17
-25.93
-35.70
-46.74
-57.60
-66.23
-70.33
-67.98
-58.44
-42.56
-22.63
-1.75
17.29
32.87
44.76
53.71
60.78
66.62
71.36
74.81
76.78
77.36
76.84
75.42
73.07
69.52
64.41
57.63
49.46
40.60
31.86
23.90
16.89
10.60
4.49
-1.89
-8.67
-15.60
-22.18
-28.02
-33.14
-37.99
-43.25
-49.36
-56.24
-63.09
-68.67
-71.82
-71.91
-69.03
-63.91
-57.57
-50.95
-44.78
-39.57
-35.65
-33.16
-32.14
-32.43
-33.81
-36.03
-38.97
-42.58
-46.80
-51.35
-55.72
-59.23
-61.30
-61.67
-60.47
-58.15
-55.19
-51.82
-47.99
-43.43
-37.98
-31.83
-25.72
-20.67
-17.76
-17.76
-21.04
-27.53
-36.55
-46.66
-55.55
-60.46
-58.98
-50.19
-35.25
-17.22
0.02
13.31
21.26
24.47
24.68
23.68
22.40
20.85
18.65
15.65
12.31
9.50
8.05
8.40
10.43
13.62
17.35
21.14
24.75
28.12
31.23
33.89
35.63
35.77
33.47
27.95
18.74
5.98
-9.34
-25.24
-39.11
-48.31
-50.97
-46.58
-36.09
-21.39
-4.60
12.67
29.55
45.65
60.63
73.75
83.89
89.93
91.22
87.92
80.87
71.25
60.11
48.05
35.24
21.52
6.80
-8.77
-24.66
-40.05
-54.05
-65.99
-75.64
-83.35
-89.91
-96.45
-103.97
-112.99
-123.17
-133.00
-140.07
-141.52
-134.93
-119.22
-95.14
-65.20
-32.93
-1.84
25.57
48.19
66.15
80.15
90.84
98.54
103.38
105.71
106.36
106.53
107.45
109.76
113.21
116.67
118.63
117.75
113.41
105.92
96.27
85.69
75.18
65.09
55.07
44.18
31.24
15.26
-4.02
-25.77
-47.96
-67.64
-81.55
-87.03
-82.83
-69.59
-49.75
-26.87
-4.70
13.88
27.33
35.69
39.97
41.55
41.51
40.39
38.34
35.45
32.21
29.43
28.04
28.47
30.38
32.65
33.91
33.07
29.85
24.83
19.11
13.81
9.58
6.41
3.80
1.06
-2.49
-7.42
-14.25
-23.41
-34.98
-48.30
-61.61
-72.11
-76.56
-72.38
-58.63
-36.53
-9.27
19.08
44.77
65.37
80.19
89.89
95.81
99.26
101.09
101.57
100.59
97.88
93.22
86.54
77.90
67.38
55.14
41.46
26.73
11.61
-3.07
-16.48
-28.03
-37.54
-45.32
-52.06
-58.58
-65.65
-73.93
-83.83
-95.44
-108.15
-120.48
-130.01
-134.01
-130.20
-117.71
-97.44
-71.85
-44.18
-17.46
6.15
25.55
40.45
50.91
57.13
59.40
58.31
54.88
50.46
46.41
43.74
42.72
42.83
42.93
41.78
38.55
33.19
26.34
19.06
12.19
6.04
0.25
-6.00
-13.65
-23.42
-35.44
-49.04
-62.60
-73.72
-79.52
-77.50
-66.33
-46.52
-20.48
8.11
35.44
58.60
76.17
88.15
95.27
98.39
98.09
94.73
88.71
80.75
71.92
63.34
55.87
49.78
44.74
39.99
34.66
28.07
20.02
10.77
0.99
-8.55
-17.26
-24.94
-31.82
-38.45
-45.41
-53.13
-61.87
-71.80
-82.81
-94.36
-105.08
-112.74
-114.74
-109.02
-95.04
-74.18
-49.41
-24.27
-1.71
16.75
30.98
41.80
50.09
56.46
61.12
64.14
65.75
66.35
66.50
66.65
67.07
67.69
68.25
68.34
67.61
65.90
63.31
60.15
56.73
53.19
49.33
44.66
38.69
31.26
22.74
14.03
6.20
0.06
-4.25
-7.30
-10.19
-14.01
-19.39
-26.30
-34.04
-41.67
-48.36
-53.67
-57.75
-61.05
-64.19
-67.88
-72.75
-79.29
-87.61
-97.04
-105.95
-111.80
-111.85
-104.16
-88.49
-66.54
-41.44
-16.67
5.12
22.64
35.93
45.65
52.53
57.00
59.31
59.79
58.99
57.64
56.32
55.23
54.16
52.65
50.29
46.98
43.03
39.03
35.67
33.37
32.14
31.47
30.57
28.66
25.30
20.60
15.18
9.76
4.91
0.65
-3.38
-7.78
-12.92
-18.78
-24.89
-30.62
-35.50
-39.36
-42.54
-45.62
-49.31
-54.18
-60.48
-67.98
-75.80
-82.44
-85.91
-84.34
-76.61
-62.92
-44.90
-25.12
-6.38
9.17
20.51
27.70
31.52
32.92
32.74
31.55
29.77
27.77
25.91
24.37
23.12
21.92
20.49
18.63
16.41
14.03
11.66
9.27
6.50
2.85
-2.04
-8.16
-15.00
-21.80
-27.82
-32.72
-36.65
-40.10
-43.69
-47.94
-53.19
-59.46
-66.28
-72.45
-76.06
-74.93
-67.38
-53.12
-33.69
-12.05
8.37
24.90
36.39
43.24
46.75
48.19
48.40
47.62
45.94
43.51
40.78
38.15
35.82
33.66
31.28
28.32
24.68
20.63
16.58
12.87
9.51
6.15
2.24
-2.69
-8.74
-15.58
-22.50
-28.79
-34.02
-38.29
-42.17
-46.57
-52.45
-60.38
-70.15
-80.44
-88.76
-92.16
-88.09
-75.52
-55.49
-30.98
-5.89
16.27
33.34
45.02
52.35
56.88
59.88
61.97
63.21
63.43
62.65
61.10
59.19
57.25
55.40
53.52
51.25
48.28
44.45
39.91
35.04
30.35
26.18
22.64
19.45
16.07
11.89
6.45
-0.28
-7.87
-15.48
-22.26
-27.61
-31.48
-34.30
-36.84
-39.96
-44.33
-50.40
-58.31
-67.70
-77.43
-85.44
-89.03
-85.65
-73.95
-54.62
-30.46
-5.52
16.33
32.66
43.01
48.58
51.20
52.36
52.73
52.34
51.08
49.10
46.93
45.13
43.95
43.12
42.06
40.24
37.44
33.99
30.43
27.23
24.50
22.01
19.28
15.97
12.02
7.74
3.61
0.06
-2.84
-5.34
-7.95
-11.22
-15.38
-20.27
-25.36
-30.09
-34.13
-37.56
-40.88
-44.73
-49.71
-56.14
-63.86
-72.04
-79.03
-82.56
-80.28
-70.64
-53.77
-31.70
-7.90
13.86
30.83
41.95
47.89
50.22
50.55
49.91
48.75
47.24
45.61
44.18
43.28
42.87
42.52
41.67
39.89
37.16
33.80
30.35
27.20
24.42
21.80
19.03
15.93
12.56
9.17
5.99
3.20
0.75
-1.60
-4.16
-7.29
-11.20
-15.85
-20.86
-25.62
-29.51
-32.21
-33.87
-35.17
-37.07
-40.45
-45.79
-52.95
-61.11
-68.77
-73.96
-74.56
-68.93
-56.53
-38.50
-17.53
2.86
19.46
30.46
35.84
37.03
35.99
34.18
32.27
30.25
28.01
25.78
24.13
23.62
24.31
25.61
26.46
25.89
23.50
19.68
15.39
11.64
9.11
7.77
6.98
5.81
3.47
-0.38
-5.55
-11.35
-16.95
-21.73
-25.41
-28.15
-30.52
-33.19
-36.85
-41.88
-48.24
-55.17
-61.24
-64.41
-62.62
-54.51
-40.12
-21.13
-0.53
18.41
33.13
42.55
46.98
47.74
46.34
43.97
41.32
38.69
36.25
34.17
32.59
31.63
31.18
30.98
30.66
29.81
28.14
25.65
22.53
19.16
15.85
12.78
9.89
6.96
3.80
0.29
-3.49
-7.41
-11.32
-15.06
-18.52
-21.64
-24.43
-27.02
-29.59
-32.37
-35.56
-39.32
-43.80
-49.08
-55.00
-60.80
-65.07
-65.84
-61.30
-50.57
-34.33
-14.90
4.42
20.54
31.61
37.52
39.51
39.38
38.56
37.62
36.50
34.92
32.86
30.75
29.12
28.22
27.85
27.42
26.36
24.45
21.94
19.32
17.05
15.20
13.52
11.60
9.19
6.32
3.24
0.19
-2.78
-5.87
-9.28
-13.04
-16.89
-20.40
-23.19
-25.17
-26.62
-28.14
-30.44
-34.15
-39.56
-46.41
-53.76
-59.95
-62.93
-60.83
-52.75
-39.24
-22.36
-5.04
9.90
20.72
27.09
29.88
30.47
30.03
29.17
28.03
26.59
25.01
23.67
22.89
22.66
22.61
22.12
20.74
18.46
15.71
13.14
11.16
9.78
8.51
6.71
3.87
-0.09
-4.73
-9.36
-13.34
-16.37
-18.73
-21.07
-24.22
-28.74
-34.79
-41.85
-48.79
-53.91
-55.37
-51.61
-42.00
-27.25
-9.40
8.69
24.21
35.26
41.32
43.14
42.15
39.83
37.15
34.56
32.14
29.95
28.10
26.80
26.09
25.82
25.72
25.45
24.82
23.81
22.53
21.21
19.98
18.85
17.65
16.09
13.83
10.59
6.34
1.29
-4.05
-9.04
-13.14
-16.11
-18.14
-19.80
-21.83
-24.86
-29.27
-35.02
-41.66
-48.35
-53.95
-57.11
-56.60
-51.66
-42.34
-29.67
-15.37
-1.49
10.34
19.23
25.15
28.63
30.42
31.10
31.01
30.42
29.61
28.91
28.65
28.97
29.71
30.52
30.93
30.61
29.46
27.66
25.59
23.70
22.30
21.41
20.72
19.71
17.89
14.96
10.94
6.14
1.01
-3.97
-8.43
-12.22
-15.42
-18.38
-21.60
-25.64
-30.90
-37.39
-44.53
-51.28
-56.34
-58.48
-56.97
-51.75
-43.49
-33.41
-22.95
-13.40
-5.61
0.20
4.25
7.04
9.03
10.49
11.43
11.72
11.24
10.01
8.25
6.39
4.86
3.99
3.88
4.26
4.57
4.07
2.18
-1.34
-6.22
-11.82
-17.33
-22.09
-25.88
-28.90
-31.78
-35.41
-40.70
-48.39
-58.54
-70.19
-81.06
-87.82
-87.15
-76.94
-57.44
-31.39
-3.29
22.32
42.38
56.05
64.47
69.51
72.70
74.50
74.62
72.57
68.48
63.22
58.10
54.20
51.91
50.73
49.56
47.21
42.85
36.31
28.08
19.10
10.33
2.46
-4.33
-10.42
-16.55
-23.50
-31.87
-41.93
-53.72
-66.84
-80.29
-92.18
-99.85
-100.28
-91.19
-72.16
-45.19
-14.36
15.41
39.97
57.19
67.18
71.68
72.87
72.49
71.35
69.62
67.20
64.10
60.52
56.66
52.59
48.21
43.30
37.71
31.53
25.03
18.49
12.22
6.32
0.80
-4.45
-9.57
-14.66
-19.78
-24.98
-30.31
-35.93
-42.12
-49.23
-57.34
-65.89
-73.33
-77.34
-75.46
-66.17
-49.74
-28.54
-6.29
13.13
27.05
34.76
37.32
36.75
35.02
33.33
31.94
30.64
29.14
27.46
25.90
24.79
24.24
24.01
23.62
22.61
20.73
18.15
15.25
12.43
9.93
7.70
5.46
2.87
-0.32
-4.20
-8.70
-13.75
-19.33
-25.44
-31.90
-38.20
-43.32
-46.01
-45.12
-40.15
-31.57
-20.71
-9.43
0.64
8.51
14.03
17.64
20.04
21.70
22.83
23.37
23.22
22.42
21.20
19.89
18.89
18.44
18.58
19.09
19.47
19.10
17.45
14.33
9.98
5.04
0.22
-3.94
-7.38
-10.51
-13.95
-18.25
-23.72
-30.32
-37.67
-45.08
-51.53
-55.76
-56.56
-53.14
-45.57
-34.87
-22.70
-10.82
-0.52
7.69
14.02
19.04
23.19
26.69
29.48
31.48
32.74
33.53
34.12
34.72
35.27
35.47
35.01
33.68
31.59
29.12
26.77
24.89
23.50
22.24
20.44
17.57
13.29
7.83
1.82
-3.89
-8.55
-11.91
-14.22
-16.09
-18.27
-21.33
-25.59
-31.05
-37.50
-44.46
-51.14
-56.34
-58.68
-56.94
-50.61
-40.28
-27.54
-14.44
-2.79
6.38
13.00
17.66
21.17
24.13
26.80
29.15
31.05
32.52
33.63
34.55
35.36
36.01
36.33
36.08
35.07
33.28
30.89
28.21
25.62
23.34
21.38
19.57
17.60
15.25
12.40
9.10
5.47
1.69
-2.07
-5.67
-8.97
-11.96
-14.72
-17.43
-20.40
-23.95
-28.39
-33.88
-40.18
-46.60
-51.95
-54.80
-53.95
-48.95
-40.36
-29.57
-18.33
-8.04
0.65
7.79
13.75
18.80
22.81
25.45
26.44
25.99
24.76
23.67
23.50
24.51
26.40
28.41
29.74
29.86
28.72
26.70
24.29
21.87
19.50
16.94
13.82
9.96
5.48
0.82
-3.51
-7.14
-10.02
-12.42
-14.85
-17.80
-21.60
-26.40
-32.15
-38.51
-44.89
-50.36
-53.80
-54.12
-50.67
-43.51
-33.59
-22.50
-11.93
-3.11
3.57
8.51
12.53
16.30
19.96
23.20
25.55
26.80
27.24
27.50
28.19
29.53
31.19
32.53
32.98
32.32
30.81
28.88
26.96
25.16
23.38
21.41
19.10
16.43
13.40
10.02
6.30
2.34
-1.71
-5.64
-9.29
-12.62
-15.79
-19.09
-22.83
-27.26
-32.46
-38.22
-44.01
-48.95
-52.00
-52.17
-48.91
-42.40
-33.53
-23.64
-14.07
-5.75
0.98
6.30
10.60
14.19
17.16
19.42
20.92
21.79
22.37
23.05
24.06
25.30
26.44
27.03
26.81
25.76
24.17
22.42
20.81
19.45
18.18
16.68
14.65
11.93
8.58
4.83
0.98
-2.68
-6.05
-9.23
-12.46
-16.04
-20.20
-24.99
-30.22
-35.37
-39.66
-42.14
-41.96
-38.62
-32.23
-23.56
-13.79
-4.27
3.87
10.02
14.09
16.45
17.69
18.45
19.14
19.93
20.76
21.37
21.60
21.42
20.92
20.25
19.50
18.63
17.57
16.32
14.99
13.74
12.62
11.41
9.70
7.01
3.14
-1.63
-6.61
-11.01
-14.29
-16.55
-18.49
-21.12
-25.25
-31.18
-38.40
-45.72
-51.64
-54.67
-53.83
-48.89
-40.47
-29.82
-18.48
-7.88
1.03
7.89
12.89
16.53
19.33
21.70
23.80
25.74
27.53
29.18
30.62
31.68
32.13
31.71
30.35
28.17
25.54
22.93
20.81
19.41
18.71
18.31
17.62
16.04
13.21
9.12
4.18
-0.99
-5.70
-9.55
-12.45
-14.67
-16.64
-18.83
-21.69
-25.51
-30.45
-36.26
-42.27
-47.34
-50.20
-49.88
-46.04
-39.15
-30.18
-20.32
-10.63
-1.84
5.58
11.43
15.75
18.84
21.12
22.99
24.64
25.98
26.80
26.99
26.72
26.39
26.41
26.86
27.49
27.81
27.41
26.19
24.35
22.25
20.18
18.23
16.24
13.98
11.26
8.06
4.50
0.79
-2.91
-6.49
-9.91
-13.15
-16.16
-18.88
-21.32
-23.70
-26.44
-30.04
-34.78
-40.44
-46.16
-50.56
-52.20
-50.13
-44.27
-35.44
-25.08
-14.74
-5.69
1.42
6.44
9.68
11.67
12.92
13.90
14.88
15.96
17.10
18.20
19.09
19.69
19.95
19.88
19.49
18.80
17.85
16.67
15.27
13.55
11.35
8.51
4.95
0.81
-3.50
-7.47
-10.68
-13.05
-14.88
-16.81
-19.60
-23.69
-28.92
-34.44
-38.94
-41.03
-39.79
-35.08
-27.55
-18.43
-9.11
-0.68
6.26
11.60
15.60
18.61
20.87
22.49
23.51
24.04
24.23
24.25
24.21
24.11
23.86
23.38
22.60
21.52
20.18
18.62
16.90
14.98
12.84
10.40
7.63
4.56
1.33
-1.90
-4.98
-7.92
-10.94
-14.32
-18.39
-23.34
-29.11
-35.36
-41.47
-46.57
-49.72
-50.10
-47.25
-41.26
-32.92
-23.47
-14.26
-6.35
-0.23
4.25
7.61
10.42
13.02
15.38
17.30
18.61
19.35
19.84
20.49
21.50
22.75
23.77
24.09
23.48
22.10
20.40
18.81
17.48
16.17
14.41
11.76
8.17
3.97
-0.26
-3.96
-6.90
-9.21
-11.37
-13.93
-17.39
-21.96
-27.53
-33.51
-38.89
-42.40
-42.88
-39.65
-32.96
-23.92
-14.15
-5.21
1.93
7.09
10.70
13.39
15.58
17.44
18.89
19.90
20.52
20.90
21.23
21.56
21.89
22.16
22.27
22.16
21.70
20.75
19.13
16.76
13.71
10.22
6.68
3.41
0.60
-1.80
-4.09
-6.63
-9.84
-13.99
-19.14
-24.96
-30.65
-35.08
-36.98
-35.47
-30.40
-22.55
-13.45
-4.75
2.33
7.41
10.86
13.45
15.78
18.01
19.86
20.89
20.87
20.01
18.80
17.85
17.56
17.89
18.47
18.74
18.19
16.59
13.99
10.73
7.25
3.94
0.96
-1.74
-4.39
-7.21
-10.34
-13.81
-17.74
-22.29
-27.67
-33.75
-39.88
-44.84
-47.18
-45.80
-40.48
-31.98
-21.84
-11.74
-2.96
3.88
8.77
12.14
14.51
16.40
18.19
20.11
22.14
24.03
25.39
25.92
25.54
24.48
23.14
21.98
21.20
20.75
20.29
19.37
17.66
15.03
11.65
7.88
4.10
0.57
-2.62
-5.62
-8.63
-11.97
-15.89
-20.58
-26.03
-31.91
-37.45
-41.56
-42.99
-40.83
-34.87
-25.78
-15.04
-4.39
4.74
11.62
16.29
19.27
21.22
22.61
23.69
24.53
25.23
25.89
26.61
27.35
27.95
28.19
27.86
26.97
25.61
23.96
22.18
20.39
18.68
17.08
15.50
13.70
11.39
8.29
4.40
-0.03
-4.53
-8.61
-11.98
-14.71
-17.18
-19.99
-23.74
-28.75
-34.88
-41.35
-46.89
-50.04
-49.62
-45.27
-37.60
-28.02
-18.14
-9.25
-1.94
3.82
8.39
11.99
14.69
16.45
17.44
18.05
18.77
19.95
21.51
23.02
23.93
23.86
22.84
21.20
19.34
17.51
15.71
13.74
11.42
8.67
5.59
2.40
-0.69
-3.53
-6.16
-8.78
-11.74
-15.47
-20.23
-25.85
-31.58
-36.11
-38.05
-36.48
-31.39
-23.74
-15.03
-6.67
0.51
6.46
11.52
15.99
19.83
22.69
24.27
24.62
24.24
23.81
23.88
24.51
25.35
25.82
25.54
24.48
22.93
21.33
19.90
18.57
16.93
14.45
10.78
5.98
0.51
-4.91
-9.62
-13.24
-15.88
-18.03
-20.40
-23.71
-28.39
-34.36
-40.94
-46.90
-50.80
-51.41
-48.12
-41.21
-31.76
-21.30
-11.27
-2.63
4.23
9.45
13.38
16.33
18.58
20.26
21.53
22.56
23.49
24.36
25.11
25.61
25.64
25.10
23.97
22.39
20.62
18.91
17.41
16.06
14.63
12.80
10.35
7.25
3.66
-0.17
-3.98
-7.66
-11.27
-15.05
-19.24
-24.01
-29.29
-34.57
-38.94
-41.27
-40.55
-36.39
-29.24
-20.29
-11.03
-2.79
3.78
8.68
12.38
15.36
17.86
19.72
20.68
20.52
19.40
17.84
16.59
16.29
17.18
18.93
20.77
21.78
21.30
19.20
15.88
12.04
8.32
5.10
2.39
-0.04
-2.44
-5.01
-7.86
-11.14
-15.06
-19.81
-25.40
-31.35
-36.63
-39.88
-39.83
-35.98
-28.79
-19.66
-10.40
-2.44
3.57
7.94
11.46
14.81
18.20
21.25
23.26
23.73
22.61
20.31
17.55
15.06
13.32
12.49
12.40
12.67
12.85
12.58
11.70
10.23
8.24
5.78
2.78
-0.77
-4.75
-8.75
-12.30
-15.09
-17.21
-19.23
-21.98
-26.10
-31.71
-38.17
-44.15
-48.06
-48.57
-45.05
-37.84
-28.11
-17.52
-7.68
0.27
5.91
9.53
11.85
13.64
15.49
17.70
20.25
22.98
25.63
27.84
29.24
29.57
28.78
27.10
25.06
23.26
22.11
21.65
21.41
20.72
18.91
15.70
11.27
6.20
1.18
-3.24
-6.83
-9.72
-12.32
-15.18
-18.82
-23.57
-29.37
-35.62
-41.23
-44.86
-45.28
-41.85
-34.85
-25.32
-14.81
-4.80
3.73
10.44
15.53
19.38
22.30
24.30
25.28
25.17
24.17
22.77
21.59
21.14
21.56
22.56
23.52
23.77
22.88
20.80
17.89
14.65
11.49
8.57
5.77
2.86
-0.38
-4.07
-8.19
-12.72
-17.61
-22.78
-27.97
-32.67
-36.07
-37.25
-35.54
-30.80
-23.53
-14.81
-5.92
1.98
8.16
12.54
15.44
17.44
19.01
20.36
21.37
21.81
21.49
20.45
18.97
17.45
16.22
15.37
14.70
13.90
12.66
10.87
8.57
5.91
3.06
0.14
-2.85
-5.96
-9.33
-13.14
-17.59
-22.81
-28.74
-35.06
-41.09
-45.84
-48.23
-47.37
-42.91
-35.22
-25.35
-14.77
-4.91
3.28
9.46
13.83
16.86
18.99
20.51
21.59
22.37
23.13
24.17
25.67
27.47
29.13
29.99
29.59
27.89
25.31
22.60
20.43
19.07
18.28
17.43
15.75
12.74
8.34
2.97
-2.62
-7.72
-11.87
-15.04
-17.63
-20.32
-23.84
-28.64
-34.69
-41.27
-47.09
-50.61
-50.53
-46.28
-38.33
-28.06
-17.22
-7.36
0.67
6.87
11.74
15.88
19.59
22.82
25.34
26.99
27.93
28.52
29.21
30.23
31.45
32.42
32.60
31.56
29.33
26.32
23.18
20.48
18.51
17.09
15.74
13.93
11.29
7.75
3.56
-0.88
-5.11
-8.81
-11.83
-14.28
-16.46
-18.83
-21.90
-26.07
-31.53
-38.03
-44.83
-50.69
-54.17
-53.99
-49.59
-41.34
-30.54
-19.04
-8.55
-0.23
5.68
9.61
12.29
14.33
16.04
17.41
18.37
18.92
19.23
19.55
20.08
20.83
21.62
22.23
22.43
22.04
20.99
19.17
16.60
13.44
9.95
6.47
3.23
0.23
-2.75
-5.91
-9.41
-13.26
-17.47
-22.11
-27.29
-32.84
-38.12
-41.91
-42.87
-40.09
-33.59
-24.45
-14.35
-4.96
2.72
8.43
12.61
15.80
18.36
20.38
21.81
22.66
23.11
23.47
23.95
24.59
25.19
25.43
25.08
24.08
22.59
20.85
19.01
17.11
14.98
12.42
9.25
5.45
1.28
-2.89
-6.65
-9.80
-12.42
-14.96
-18.02
-22.19
-27.73
-34.43
-41.52
-47.77
-51.86
-52.66
-49.64
-43.03
-33.76
-23.19
-12.64
-3.11
4.97
11.56
16.85
20.96
23.95
25.81
26.62
26.63
26.27
26.03
26.25
27.04
28.18
29.23
29.69
29.27
27.98
26.12
24.09
22.12
20.17
17.94
15.11
11.49
7.25
2.75
-1.56
-5.36
-8.59
-11.44
-14.17
-17.12
-20.61
-24.95
-30.38
-36.89
-43.93
-50.33
-54.52
-54.99
-50.92
-42.56
-31.34
-19.33
-8.52
-0.16
5.55
9.27
12.02
14.62
17.34
19.99
22.20
23.73
24.66
25.19
25.53
25.66
25.45
24.72
23.48
21.96
20.41
18.96
17.42
15.42
12.66
9.11
5.08
1.09
-2.41
-5.25
-7.60
-9.94
-12.82
-16.78
-22.03
-28.39
-35.06
-40.72
-43.86
-43.27
-38.49
-30.17
-19.83
-9.33
-0.20
6.76
11.57
14.76
16.93
18.48
19.55
20.16
20.39
20.40
20.41
20.51
20.61
20.57
20.20
19.46
18.39
17.01
15.28
13.09
10.34
6.99
3.18
-0.85
-4.82
-8.46
-11.66
-14.51
-17.31
-20.55
-24.76
-30.29
-37.03
-44.20
-50.38
-53.85
-53.25
-48.01
-38.69
-26.83
-14.41
-3.23
5.64
11.96
16.17
18.98
21.03
22.70
24.19
25.57
26.93
28.28
29.51
30.38
30.59
29.91
28.40
26.32
24.09
22.04
20.31
18.79
17.17
15.10
12.30
8.69
4.40
-0.24
-4.80
-8.90
-12.37
-15.41
-18.62
-22.77
-28.43
-35.65
-43.63
-50.78
-55.22
-55.34
-50.44
-41.13
-29.06
-16.41
-5.12
3.68
9.90
14.20
17.49
20.47
23.33
25.95
28.08
29.60
30.62
31.37
32.11
32.89
33.56
33.75
33.17
31.69
29.49
26.99
24.72
23.03
21.95
21.12
19.93
17.80
14.46
10.05
5.10
0.22
-4.10
-7.71
-10.77
-13.61
-16.58
-19.97
-24.06
-29.06
-35.03
-41.69
-48.26
-53.45
-55.81
-54.24
-48.52
-39.41
-28.43
-17.30
-7.35
0.78
7.12
12.00
15.79
18.70
20.85
22.31
23.26
23.92
24.48
25.04
25.60
26.09
26.43
26.51
26.27
25.62
24.50
22.91
20.92
18.61
16.07
13.31
10.28
6.91
3.18
-0.72
-4.54
-8.01
-11.00
-13.67
-16.39
-19.73
-24.15
-29.85
-36.59
-43.56
-49.47
-52.88
-52.61
-48.23
-40.27
-30.03
-19.18
-9.10
-0.54
6.50
12.42
17.57
21.99
25.41
27.53
28.33
28.17
27.72
27.62
28.18
29.28
30.55
31.47
31.67
30.93
29.32
27.01
24.33
21.65
19.29
17.36
15.67
13.73
11.00
7.10
2.10
-3.49
-8.95
-13.62
-17.22
-19.91
-22.12
-24.44
-27.40
-31.40
-36.57
-42.71
-49.13
-54.65
-57.83
-57.40
-52.71
-44.03
-32.61
-20.23
-8.68
0.82
7.90
12.88
16.45
19.27
21.70
23.78
25.46
26.76
27.88
29.07
30.49
32.06
33.47
34.39
34.56
34.02
32.98
31.71
30.33
28.75
26.76
24.18
20.99
17.42
13.88
10.69
7.91
5.32
2.49
-0.91
-4.94
-9.29
-13.42
-16.82
-19.26
-20.92
-22.32
-24.21
-27.31
-32.10
-38.58
-46.11
-53.41
-58.87
-60.98
-58.79
-52.32
-42.53
-30.98
-19.31
-8.83
-0.22
6.43
11.40
15.10
17.90
20.02
21.59
22.71
23.55
24.37
25.40
26.80
28.45
30.01
30.98
31.00
29.94
28.01
25.62
23.18
20.94
18.90
16.89
14.63
11.92
8.71
5.07
1.22
-2.66
-6.38
-9.85
-13.07
-16.12
-19.19
-22.54
-26.50
-31.28
-36.81
-42.57
-47.54
-50.40
-49.96
-45.66
-37.83
-27.64
-16.69
-6.47
2.14
8.84
13.83
17.42
19.85
21.24
21.69
21.50
21.06
20.78
20.90
21.37
21.95
22.35
22.40
22.05
21.32
20.21
18.66
16.64
14.13
11.24
8.12
4.87
1.51
-2.01
-5.71
-9.53
-13.30
-16.95
-20.53
-24.40
-28.90
-34.32
-40.48
-46.67
-51.76
-54.52
-53.98
-49.79
-42.36
-32.64
-21.88
-11.30
-1.83
6.03
12.15
16.72
20.04
22.41
24.09
25.25
26.06
26.68
27.24
27.79
28.26
28.47
28.26
27.54
26.43
25.11
23.79
22.51
21.11
19.22
16.50
12.74
7.96
2.45
-3.30
-8.74
-13.38
-17.04
-19.89
-22.54
-25.80
-30.29
-36.10
-42.58
-48.35
-51.82
-51.64
-47.23
-38.97
-28.05
-16.10
-4.72
4.92
12.30
17.45
20.82
23.03
24.63
25.98
27.21
28.26
29.04
29.46
29.46
29.04
28.27
27.21
25.96
24.61
23.19
21.74
20.16
18.35
16.08
13.19
9.60
5.40
0.93
-3.39
-7.21
-10.49
-13.56
-17.06
-21.65
-27.62
-34.62
-41.63
-47.16
-49.75
-48.46
-43.14
-34.59
-24.24
-13.77
-4.50
2.80
8.09
11.80
14.43
16.34
17.59
18.08
17.80
16.94
15.94
15.31
15.39
16.18
17.27
17.99
17.68
16.00
13.05
9.34
5.51
2.00
-1.15
-4.23
-7.71
-11.88
-16.77
-22.22
-28.07
-34.23
-40.52
-46.49
-51.16
-53.31
-51.80
-46.22
-37.17
-26.07
-14.73
-4.66
3.34
9.26
13.62
17.04
19.89
22.17
23.65
24.07
23.48
22.26
21.06
20.45
20.66
21.32
21.64
20.71
17.97
13.50
7.96
2.28
-2.83
-7.12
-10.89
-14.76
-19.35
-25.09
-32.12
-40.38
-49.50
-58.79
-66.92
-71.93
-71.68
-64.55
-50.36
-30.70
-8.70
12.11
28.99
40.89
48.43
53.21
56.68
59.49
61.38
61.80
60.53
57.92
54.80
51.94
49.63
47.63
45.33
42.21
38.01
32.93
27.36
21.80
16.54
11.64
6.94
2.19
-2.86
-8.43
-14.68
-21.73
-29.63
-38.08
-46.29
-52.90
-56.24
-54.84
-48.10
-36.60
-22.05
-6.79
6.97
17.73
25.03
29.26
31.29
32.06
32.21
32.07
31.73
31.21
30.60
30.08
29.78
29.71
29.58
29.00
27.56
25.03
21.51
17.35
13.01
8.86
5.07
1.56
-1.89
-5.48
-9.38
-13.74
-18.68
-24.42
-31.06
-38.40
-45.72
-51.78
-55.16
-54.63
-49.72
-40.94
-29.73
-18.00
-7.46
0.82
6.69
10.64
13.40
15.47
16.93
17.53
17.02
15.53
13.52
11.69
10.57
10.30
10.52
10.57
9.79
7.72
4.30
-0.19
-5.19
-10.09
-14.43
-18.10
-21.39
-24.96
-29.55
-35.74
-43.65
-52.78
-61.83
-68.74
-70.94
-66.14
-53.07
-32.49
-7.14
18.76
41.02
56.78
65.34
67.97
66.90
64.20
61.09
57.98
54.90
51.93
49.39
47.50
46.13
44.71
42.53
39.11
34.51
29.35
24.46
20.50
17.58
15.22
12.60
8.93
3.85
-2.44
-9.23
-15.67
-21.18
-25.67
-29.59
-33.80
-39.17
-46.16
-54.47
-62.94
-69.66
-72.55
-69.99
-61.49
-47.97
-31.53
-14.74
0.11
11.68
19.76
25.06
28.64
31.41
33.87
36.08
37.90
39.22
40.03
40.49
40.74
40.76
40.40
39.35
37.47
34.78
31.59
28.33
25.33
22.71
20.24
17.47
13.91
9.28
3.70
-2.31
-8.01
-12.78
-16.32
-18.92
-21.27
-24.32
-28.86
-35.32
-43.45
-52.40
-60.69
-66.59
-68.45
-65.22
-56.80
-44.26
-29.52
-14.80
-1.94
8.11
15.44
20.74
24.89
28.38
31.17
32.88
33.21
32.22
30.43
28.59
27.27
26.61
26.25
25.55
23.93
21.07
17.10
12.41
7.53
2.91
-1.21
-4.87
-8.33
-11.98
-16.30
-21.71
-28.46
-36.41
-44.87
-52.52
-57.71
-58.85
-55.07
-46.72
-35.19
-22.57
-10.83
-1.23
5.94
11.08
14.80
17.54
19.33
20.04
19.49
17.76
15.21
12.38
9.81
7.86
6.59
5.61
4.25
1.74
-2.52
-8.67
-16.38
-24.85
-33.01
-39.72
-44.05
-45.43
-43.81
-39.66
-33.90
-27.67
-21.96
-17.44
-14.37
-12.73
-12.44
-13.59
-16.39
-21.00
-27.30
-34.44
-40.80
-43.97
-41.15
-29.83
-8.72
21.47
57.82
95.66
129.87
156.37
173.35
181.37
182.71
180.05
175.47
170.00
163.96
157.44
150.64
143.67
136.02
126.33
112.62
93.26
67.89
38.00
6.64
-22.69
-47.14
-65.39
-77.65
-84.87
-88.06
-87.82
-84.75
-80.03
-75.83
-74.94
-79.77
-91.08
-107.68
-126.91
-145.81
-162.23
-175.43
-185.87
-194.46
-201.75
-207.32
-209.99
-208.28
-200.78
-186.43
-164.67
-135.83
-101.24
-63.34
-25.23
9.48
37.12
54.64
60.33
54.46
39.31
18.64
-3.22
-21.71
-33.93
-39.35
-39.43
-36.37
-31.83
-26.45
-19.85
-11.19
1.67
19.24
39.19
56.70
66.73
66.40
56.14
39.79
23.24
15.17
21.52
42.74
73.96
107.96
138.37
161.05
174.88
181.44
187.81
200.84
223.81
254.99
289.18
320.18
342.05
350.97
325.09
255.77
153.25
41.78
-57.28
-134.67
-189.88
-224.85
-241.20
-241.30
-224.27
-191.75
-149.00
-102.92
-58.15
-15.08
24.94
61.02
90.74
112.78
124.60
123.10
106.11
74.82
34.37
-8.09
-45.43
-73.39
-89.92
-96.78
-98.88
-102.16
-111.12
-127.48
-150.66
-178.31
-207.13
-232.04
-247.50
-248.80
-233.53
-202.57
-160.43
-114.41
-72.39
-40.43
-20.56
-10.91
-7.25
-5.19
-1.86
3.48
10.06
16.95
23.80
30.97
38.81
46.87
53.70
57.34
56.44
51.10
43.03
34.76
28.44
24.92
23.51
22.64
20.86
17.65
13.72
10.49
9.34
10.89
14.79
20.05
25.57
30.60
34.93
38.77
42.46
46.35
50.66
55.41
60.41
65.16
68.91
70.90
70.67
68.42
64.99
61.64
59.47
58.95
59.73
60.78
60.80
58.65
53.63
45.50
34.43
20.87
5.50
-10.68
-26.44
-40.29
-50.75
-56.69
-57.62
-53.93
-46.85
-38.13
-29.47
-22.12
-16.56
-12.60
-9.74
-7.52
-5.83
-4.80
-4.61
-5.21
-6.29
-7.37
-8.04
-8.17
-7.87
-7.43
-7.17
-7.34
-8.29
-10.49
-14.58
-21.17
-30.41
-41.63
-53.16
-62.55
-67.28
-65.57
-57.04
-42.92
-25.61
-7.95
7.60
19.49
27.15
30.79
31.10
28.90
25.00
20.21
15.26
10.85
7.62
6.10
6.61
9.13
13.25
18.25
23.31
27.70
30.94
32.74
32.76
30.63
26.02
19.02
10.49
2.13
-3.87
-5.53
-1.76
7.16
19.78
33.96
47.68
59.53
68.85
75.54
79.65
81.15
79.90
75.86
69.32
61.03
51.99
43.25
35.54
29.17
23.95
19.49
15.34
11.11
6.51
1.33
-4.65
-11.66
-20.10
-30.48
-43.32
-58.92
-77.02
-96.45
-115.12
-130.30
-139.25
-139.97
-131.74
-115.29
-92.54
-65.97
-37.95
-10.40
15.41
38.62
58.54
74.57
86.30
93.71
97.37
98.29
97.53
95.76
93.04
88.85
82.60
73.96
63.15
50.78
37.52
23.89
10.16
-3.42
-16.53
-28.75
-39.65
-48.95
-56.41
-61.68
-64.14
-63.05
-57.84
-48.62
-36.33
-22.62
-9.34
1.99
10.58
16.41
19.95
21.78
22.35
21.83
20.26
17.67
14.16
10.00
5.54
1.15
-2.87
-6.34
-9.25
-11.72
-14.00
-16.35
-19.17
-22.85
-27.82
-34.44
-42.70
-52.04
-61.16
-68.18
-71.10
-68.45
-59.90
-46.35
-29.64
-11.94
4.88
19.67
31.92
41.47
48.27
52.30
53.65
52.70
50.12
46.67
42.96
39.23
35.38
31.10
26.20
20.69
14.85
9.08
3.67
-1.28
-6.01
-10.98
-16.81
-24.11
-33.18
-43.77
-54.82
-64.47
-70.42
-70.63
-64.05
-51.10
-33.69
-14.58
3.55
18.79
30.49
38.97
45.01
49.29
52.09
53.36
52.96
50.92
47.57
43.41
38.96
34.57
30.38
26.35
22.38
18.38
14.32
10.21
5.93
1.29
-3.97
-9.98
-16.60
-23.37
-29.73
-35.36
-40.40
-45.59
-51.98
-60.33
-70.60
-81.60
-91.05
-96.24
-94.83
-85.67
-69.30
-47.81
-24.23
-1.56
18.04
33.67
45.53
54.36
60.86
65.32
67.71
68.02
66.52
63.85
60.79
57.92
55.35
52.75
49.56
45.35
40.13
34.34
28.69
23.77
19.71
16.07
11.98
6.53
-0.74
-9.57
-19.05
-27.93
-35.28
-40.79
-44.90
-48.58
-53.02
-59.18
-67.59
-78.07
-89.58
-100.12
-106.88
-106.89
-97.98
-79.77
-54.15
-24.85
3.64
27.65
45.29
56.69
63.29
66.78
68.22
67.84
65.40
60.83
54.75
48.32
42.83
39.07
36.89
35.29
32.85
28.41
21.58
12.92
3.64
-4.95
-12.02
-17.55
-22.19
-26.88
-32.47
-39.49
-48.11
-58.22
-69.37
-80.52
-89.85
-94.86
-93.05
-82.83
-64.39
-39.92
-13.03
12.49
33.80
49.68
60.45
67.19
71.04
72.73
72.57
70.75
67.62
63.66
59.35
54.90
50.20
44.97
39.06
32.66
26.24
20.35
15.24
10.71
6.11
0.66
-6.10
-14.11
-22.72
-31.02
-38.27
-44.25
-49.43
-54.74
-61.26
-69.68
-79.93
-90.82
-100.13
-105.01
-102.87
-92.25
-73.57
-49.14
-22.55
2.50
23.35
38.98
49.90
57.51
63.24
67.88
71.54
73.90
74.68
74.00
72.33
70.29
68.27
66.25
63.93
60.91
57.15
53.02
49.14
46.07
43.84
41.93
39.52
35.92
31.05
25.42
19.92
15.32
11.84
9.10
6.36
2.90
-1.48
-6.45
-11.26
-15.19
-17.95
-19.85
-21.72
-24.57
-29.09
-35.36
-42.78
-50.32
-56.91
-61.92
-65.41
-68.13
-71.32
-76.23
-83.65
-93.51
-104.66
-114.86
-121.24
-120.95
-112.11
-94.60
-70.27
-42.57
-15.48
7.68
25.19
37.07
44.60
49.41
52.75
55.16
56.65
57.10
56.65
55.70
54.76
54.08
53.58
52.81
51.30
48.84
45.61
42.10
38.85
36.16
33.88
31.51
28.48
24.49
19.66
14.55
9.82
5.93
2.88
0.25
-2.64
-6.39
-11.25
-17.01
-23.10
-28.85
-33.77
-37.79
-41.29
-45.04
-49.91
-56.52
-64.93
-74.30
-82.91
-88.37
-88.30
-81.08
-66.61
-46.43
-23.44
-0.96
18.20
32.56
42.03
47.53
50.29
51.35
51.28
50.32
48.72
46.86
45.24
44.31
44.14
44.40
44.49
43.79
41.99
39.23
36.06
33.09
30.68
28.74
26.72
23.95
20.01
14.98
9.45
4.20
-0.20
-3.65
-6.60
-9.78
-13.83
-19.03
-25.19
-31.73
-37.95
-43.29
-47.55
-50.99
-54.34
-58.57
-64.59
-72.78
-82.59
-92.32
-99.41
-101.12
-95.42
-81.85
-61.82
-38.24
-14.65
5.91
21.71
32.55
39.35
43.52
46.26
48.26
49.75
50.73
51.22
51.35
51.32
51.27
51.18
50.89
50.17
48.84
46.91
44.52
41.87
39.07
36.07
32.67
28.68
24.07
19.01
13.87
8.96
4.36
-0.15
-5.00
-10.53
-16.77
-23.37
-29.74
-35.39
-40.18
-44.51
-49.13
-54.91
-62.38
-71.44
-81.12
-89.68
-94.89
-94.53
-87.16
-72.67
-52.59
-29.76
-7.58
11.13
24.84
33.63
38.66
41.47
43.22
44.40
45.00
44.91
44.22
43.33
42.69
42.52
42.64
42.60
41.88
40.15
37.42
33.97
30.19
26.46
23.00
19.87
16.99
14.15
11.06
7.39
2.89
-2.54
-8.66
-15.01
-20.98
-26.06
-30.04
-33.11
-35.79
-38.75
-42.70
-48.12
-55.13
-63.35
-71.70
-78.49
-81.63
-79.17
-70.02
-54.58
-34.77
-13.60
5.80
21.14
31.54
37.44
40.14
41.03
41.08
40.78
40.24
39.44
38.44
37.33
36.24
35.16
34.05
32.77
31.15
29.00
26.13
22.45
17.95
12.80
7.25
1.59
-3.92
-9.15
-14.11
-18.94
-23.89
-29.31
-35.59
-43.08
-51.79
-61.05
-69.28
-74.13
-73.13
-64.64
-48.78
-27.70
-5.02
15.38
30.68
39.95
44.06
44.92
44.44
43.84
43.45
43.02
42.16
40.66
38.54
36.03
33.33
30.63
27.97
25.26
22.28
18.74
14.44
9.37
3.73
-2.13
-7.96
-13.76
-19.75
-26.28
-33.58
-41.63
-50.23
-59.15
-68.15
-76.83
-84.27
-88.83
-88.43
-81.28
-66.90
-46.67
-23.69
-1.77
15.92
27.90
34.64
37.93
39.79
41.65
43.88
46.15
47.88
48.73
48.71
48.09
47.15
46.09
44.93
43.56
41.80
39.37
35.95
31.28
25.22
17.92
9.76
1.26
-7.11
-15.06
-22.51
-29.53
-36.40
-43.52
-51.38
-60.33
-70.10
-79.53
-86.47
-88.36
-83.22
-70.73
-52.62
-32.18
-13.05
2.25
13.16
20.90
27.57
34.82
43.09
51.54
58.64
63.01
63.96
61.69
56.94
50.64
43.60
36.36
29.30
22.62
16.42
10.75
5.58
0.86
-3.47
-7.49
-11.33
-15.20
-19.34
-23.97
-29.26
-35.34
-42.39
-50.52
-59.55
-68.63
-76.04
-79.37
-76.24
-65.32
-47.10
-24.00
0.31
22.19
39.23
50.87
58.13
62.77
66.23
69.11
71.14
71.68
70.37
67.37
63.28
58.83
54.47
50.26
45.99
41.34
36.14
30.42
24.31
17.96
11.49
4.91
-1.76
-8.44
-15.02
-21.42
-27.64
-33.96
-40.93
-49.21
-59.15
-70.25
-80.81
-88.07
-89.06
-81.70
-65.93
-43.93
-19.45
3.52
22.23
35.87
45.45
52.78
59.42
65.93
71.90
76.51
79.16
79.84
79.02
77.25
74.88
71.94
68.25
63.70
58.50
53.19
48.38
44.51
41.66
39.47
37.31
34.53
30.70
25.76
20.04
14.10
8.60
4.00
0.45
-2.27
-4.71
-7.52
-11.24
-16.14
-22.06
-28.49
-34.74
-40.21
-44.67
-48.29
-51.60
-55.39
-60.40
-67.24
-76.11
-86.68
-97.79
-107.32
-112.52
-110.75
-100.52
-82.29
-58.57
-33.17
-9.89
8.76
22.15
31.22
37.66
42.85
47.45
51.42
54.51
56.63
57.99
58.83
59.20
58.85
57.33
54.33
49.91
44.67
39.55
35.47
32.91
31.68
30.94
29.59
26.76
22.24
16.56
10.75
5.79
2.17
-0.40
-2.86
-6.23
-11.15
-17.54
-24.66
-31.50
-37.34
-42.01
-46.02
-50.19
-55.39
-62.18
-70.64
-80.40
-90.45
-99.22
-104.61
-104.45
-97.23
-82.81
-62.85
-40.38
-18.87
-0.98
12.20
21.23
27.65
33.00
38.05
42.72
46.45
48.73
49.54
49.29
48.50
47.45
46.07
44.06
41.10
37.22
32.67
27.85
22.96
17.94
12.50
6.44
-0.15
-6.84
-13.00
-18.18
-22.33
-25.94
-29.88
-35.12
-42.37
-51.65
-61.99
-71.30
-76.83
-75.83
-66.73
-49.79
-27.38
-3.23
18.80
36.02
47.66
54.64
58.80
61.80
64.43
66.56
67.51
66.72
64.11
60.10
55.36
50.47
45.70
41.07
36.47
31.79
26.94
21.76
15.99
9.40
1.94
-6.13
-14.23
-21.73
-28.26
-33.94
-39.39
-45.49
-53.11
-62.72
-74.16
-86.34
-97.19
-103.95
-103.88
-95.24
-78.15
-54.88
-29.19
-5.08
14.57
28.82
38.54
45.47
51.25
56.61
61.44
65.19
67.49
68.31
67.87
66.33
63.50
59.06
52.80
45.02
36.63
28.85
22.68
18.44
15.48
12.52
8.21
1.81
-6.50
-15.72
-24.49
-31.80
-37.38
-41.81
-46.30
-52.13
-60.31
-71.10
-83.73
-96.23
-105.65
-108.77
-103.12
-88.15
-65.60
-39.23
-13.45
8.22
24.25
35.29
43.32
50.34
57.39
64.17
69.55
72.41
72.35
69.82
65.90
61.61
57.51
53.40
48.68
42.69
35.23
26.68
17.90
9.79
2.99
-2.42
-6.83
-10.89
-15.24
-20.32
-26.38
-33.59
-42.11
-51.92
-62.47
-72.26
-78.92
-79.75
-72.82
-57.91
-37.04
-13.79
7.92
25.28
37.34
44.90
49.64
52.97
55.49
56.93
56.73
54.64
50.94
46.39
41.79
37.65
34.03
30.64
26.99
22.64
17.39
11.33
4.85
-1.52
-7.24
-12.09
-16.19
-20.06
-24.37
-29.72
-36.44
-44.58
-53.98
-64.19
-74.28
-82.68
-87.18
-85.47
-76.09
-59.33
-37.43
-14.02
7.23
23.89
35.42
42.89
48.02
52.15
55.71
58.37
59.60
59.19
57.37
54.62
51.33
47.61
43.34
38.44
33.07
27.64
22.65
18.39
14.70
11.04
6.71
1.26
-5.29
-12.42
-19.32
-25.26
-29.95
-33.70
-37.29
-41.81
-48.31
-57.31
-68.39
-79.88
-88.97
-92.42
-87.73
-74.24
-53.65
-29.57
-6.16
13.32
27.54
37.12
43.76
49.18
54.15
58.46
61.35
62.21
61.04
58.44
55.32
52.36
49.79
47.35
44.54
40.92
36.42
31.30
26.14
21.52
17.80
14.96
12.56
9.92
6.30
1.33
-4.92
-11.85
-18.64
-24.52
-29.15
-32.72
-35.78
-39.04
-43.06
-48.23
-54.76
-62.69
-71.72
-80.86
-88.26
-91.43
-88.04
-76.97
-58.97
-36.74
-13.97
5.96
21.14
31.48
38.31
43.30
47.57
51.22
53.70
54.35
52.95
49.98
46.31
42.84
40.04
37.86
35.77
33.08
29.25
24.14
18.03
11.50
5.13
-0.66
-5.77
-10.35
-14.73
-19.23
-24.22
-30.10
-37.28
-46.05
-56.16
-66.48
-74.81
-78.40
-74.86
-63.26
-44.81
-22.65
-0.81
17.34
30.12
37.86
42.26
45.17
47.68
49.80
50.87
50.22
47.78
44.08
39.98
36.16
32.83
29.73
26.34
22.22
17.22
11.59
5.77
0.25
-4.73
-9.20
-13.50
-18.10
-23.39
-29.61
-36.82
-44.95
-53.87
-63.26
-72.35
-79.73
-83.45
-81.49
-72.59
-57.09
-37.08
-15.92
2.98
17.28
26.50
31.76
35.02
37.96
41.30
44.72
47.35
48.37
47.48
44.96
41.40
37.47
33.62
30.08
26.80
23.57
20.14
16.24
11.79
6.86
1.69
-3.42
-8.29
-12.91
-17.48
-22.41
-28.15
-35.10
-43.53
-53.34
-63.85
-73.52
-80.10
-81.05
-74.63
-60.69
-41.10
-19.24
1.13
17.24
28.17
34.75
38.74
41.77
44.55
46.90
48.19
47.95
46.26
43.64
40.74
37.96
35.32
32.42
28.69
23.73
17.49
10.53
3.75
-1.89
-5.88
-8.45
-10.50
-13.22
-17.57
-24.04
-32.52
-42.54
-53.31
-63.58
-71.56
-75.02
-71.91
-61.33
-44.16
-23.10
-1.81
16.44
29.88
38.55
43.72
46.90
48.88
49.59
48.55
45.52
41.04
36.32
32.63
30.62
29.94
29.33
27.24
22.65
15.59
7.10
-1.13
-7.66
-11.84
-14.12
-15.78
-18.37
-23.15
-30.70
-40.75
-52.28
-63.56
-72.40
-76.49
-74.02
-64.32
-48.27
-28.21
-7.22
11.87
27.32
38.86
47.23
53.48
58.23
61.49
62.91
62.27
59.91
56.61
53.25
50.41
48.10
45.86
42.96
38.82
33.22
26.39
18.88
11.32
4.13
-2.66
-9.35
-16.52
-24.75
-34.31
-45.04
-56.16
-66.41
-74.23
-78.19
-77.33
-71.59
-61.84
-49.62
-36.67
-24.36
-13.30
-3.43
5.65
14.15
21.88
28.20
32.49
34.44
34.34
32.97
31.34
30.17
29.71
29.57
28.93
26.90
22.96
17.21
10.37
3.51
-2.42
-7.03
-10.61
-14.12
-18.72
-25.35
-34.42
-45.60
-57.87
-69.53
-78.36
-82.06
-78.78
-67.94
-50.66
-29.68
-8.48
9.85
23.72
33.32
40.13
45.82
51.28
56.20
59.52
60.24
58.14
53.97
49.06
44.57
40.98
37.95
34.61
30.14
24.23
17.20
9.81
2.92
-2.94
-7.78
-12.04
-16.43
-21.65
-28.16
-36.11
-45.39
-55.51
-65.45
-73.59
-77.80
-76.09
-67.35
-52.09
-32.42
-11.50
7.63
23.04
34.37
42.41
48.29
52.61
55.27
55.67
53.51
49.20
43.87
38.90
35.19
32.71
30.56
27.46
22.42
15.36
7.17
-0.74
-7.15
-11.63
-14.76
-17.80
-22.07
-28.42
-37.08
-47.61
-59.18
-70.47
-79.66
-84.57
-83.14
-74.23
-58.34
-37.75
-15.87
4.01
