1529418433.00
64.000000
-0.00
-0.00
-0.00
-0.00
-0.00
-0.00
-0.00
-0.00
-0.00
-0.00
0.00
0.01
0.01
-0.00
-0.03
-0.05
-0.05
0.00
0.13
0.36
0.66
1.01
1.37
1.72
2.06
2.40
2.79
3.24
3.80
4.42
5.06
5.66
6.20
6.68
7.15
7.68
8.31
9.14
10.09
11.04
11.88
12.56
13.14
13.76
14.65
15.96
17.91
20.32
22.90
25.38
27.58
29.57
31.68
34.32
37.81
42.54
48.15
54.10
59.83
64.97
69.58
74.14
79.34
85.71
93.76
103.00
112.62
121.73
129.77
136.75
143.30
150.75
157.77
166.64
177.95
191.79
206.97
220.57
228.25
225.36
208.53
176.87
132.76
80.05
23.07
-34.94
-92.44
-149.16
-205.23
-260.37
-313.74
-363.87
-409.83
-450.91
-486.50
-515.74
-537.23
-549.22
-549.96
-538.37
-514.21
-478.67
-433.88
-382.45
-327.02
-269.84
-212.63
-156.66
-102.95
-52.37
-5.90
35.58
71.43
101.35
125.50
144.38
158.69
169.15
176.37
180.75
182.57
182.07
179.51
175.23
169.65
163.18
156.15
148.81
141.30
133.69
126.02
118.33
110.69
103.16
95.80
88.68
81.83
75.25
68.95
62.95
57.25
51.86
46.78
42.03
37.59
33.45
29.61
26.07
22.81
19.83
17.11
14.67
12.48
10.54
8.83
7.35
6.06
4.97
4.05
3.27
2.64
2.11
1.67
1.29
0.96
0.67
0.43
0.25
0.10
-0.01
-0.10
-0.20
-0.30
-0.41
-0.50
-0.56
-0.57
-0.56
-0.53
-0.51
-0.54
-0.62
-0.74
-0.88
-0.98
-1.01
-0.99
-0.94
-0.93
-1.04
-1.29
-1.67
-2.08
-2.41
-2.60
-2.63
-2.60
-2.65
-2.93
-3.50
-4.29
-5.11
-5.74
-6.05
-6.07
-5.97
-6.04
-6.51
-7.45
-8.72
-9.98
-10.88
-11.27
-11.24
-11.06
-11.08
-11.53
-12.38
-13.51
-14.84
-16.36
-18.01
-19.45
-19.83
-18.10
-13.55
-6.31
2.67
12.01
20.75
28.77
36.60
44.79
53.08
60.21
64.40
64.35
60.03
52.71
44.52
36.94
30.59
25.13
19.71
13.64
6.85
-0.09
-6.30
-11.03
-13.98
-15.30
-15.55
-15.40
-15.32
-15.51
-15.83
-15.99
-15.71
-14.97
-13.95
-13.08
-12.73
-13.13
-14.22
-15.77
-17.52
-19.25
-20.64
-21.14
-19.95
-16.28
-9.82
-1.12
8.34
16.61
21.96
23.61
21.93
18.24
14.09
10.69
8.53
7.38
6.70
5.88
4.64
2.93
0.93
-1.05
-2.76
-4.06
-4.93
-5.41
-5.61
-5.65
-5.77
-6.24
-7.27
-8.98
-11.27
-13.88
-16.55
-19.13
-21.36
-23.42
-25.86
-29.37
-34.49
-41.20
-48.62
-54.92
-57.78
-55.13
-46.08
-31.43
-13.49
4.68
20.36
32.03
39.64
44.20
47.04
49.14
50.84
51.96
52.13
51.07
48.83
45.68
42.08
38.44
34.98
31.78
28.71
25.56
22.12
18.23
13.87
9.13
4.12
-1.03
-6.26
-11.50
-16.76
-22.12
-27.78
-34.08
-41.41
-49.90
-59.03
-67.44
-73.11
-73.94
-68.59
-57.10
-41.10
-23.16
-6.04
8.30
19.06
26.54
31.67
35.39
38.30
40.60
42.22
43.05
43.04
42.26
40.86
38.99
36.79
34.33
31.61
28.61
25.25
21.43
17.10
12.32
7.22
1.98
-3.18
-8.09
-12.73
-17.24
-21.93
-27.25
-33.74
-41.65
-50.80
-60.17
-67.97
-72.06
-70.59
-62.86
-49.68
-33.19
-16.20
-1.12
10.69
19.16
25.12
29.61
33.24
36.00
37.53
37.55
36.18
34.05
31.94
30.41
29.46
28.57
26.99
24.16
20.06
15.23
10.48
6.49
3.45
1.01
-1.58
-5.07
-9.99
-16.61
-24.89
-34.54
-44.85
-54.53
-61.75
-64.55
-61.51
-52.39
-38.49
-22.23
-6.30
7.19
17.38
24.59
29.79
33.89
37.28
39.81
41.00
40.61
38.81
36.18
33.46
31.17
29.37
27.65
25.37
22.01
17.41
11.86
5.93
0.19
-4.99
-9.59
-13.88
-18.25
-23.16
-29.00
-36.13
-44.68
-54.35
-64.14
-72.37
-76.95
-76.12
-69.07
-56.41
-40.10
-22.76
-6.85
6.07
15.63
22.46
27.56
31.84
35.71
39.12
41.74
43.22
43.43
42.53
40.91
38.94
36.79
34.37
31.41
27.64
23.05
17.94
12.80
8.11
4.03
0.39
-3.31
-7.65
-13.09
-19.90
-28.16
-37.73
-48.21
-58.67
-67.61
-73.16
-73.51
-67.74
-56.23
-40.73
-23.86
-8.13
4.84
14.70
22.07
27.97
33.15
37.72
41.37
43.67
44.46
44.00
42.78
41.34
39.99
38.69
37.12
34.86
31.55
27.15
21.96
16.51
11.39
6.96
3.21
-0.32
-4.26
-9.22
-15.56
-23.35
-32.33
-41.89
-51.06
-58.44
-62.44
-61.68
-55.57
-44.70
-30.68
-15.73
-1.82
9.92
19.25
26.58
32.35
36.74
39.55
40.62
40.11
38.60
36.87
35.55
34.70
33.88
32.35
29.53
25.35
20.45
15.84
12.49
10.79
10.25
9.71
7.66
2.81
-5.52
-17.21
-31.32
-46.19
-59.66
-69.41
-73.42
-70.62
-61.24
-46.92
-30.22
-13.79
0.40
11.55
19.89
26.07
30.61
33.61
34.90
34.42
32.56
30.09
27.92
26.58
25.92
25.23
23.56
20.26
15.31
9.32
3.28
-1.95
-5.98
-9.04
-11.88
-15.42
-20.48
-27.59
-36.81
-47.61
-58.78
-68.55
-74.86
-75.93
-70.94
-60.32
-45.75
-29.58
-13.95
-0.25
11.05
20.15
27.42
33.03
36.98
39.26
40.13
40.14
39.92
39.84
39.85
39.46
38.00
34.98
30.40
24.76
18.86
13.49
9.08
5.54
2.29
-1.55
-6.84
-14.22
-23.80
-34.92
-46.11
-55.28
-60.22
-59.40
-52.50
-40.66
-26.10
-11.29
1.86
12.52
20.76
27.22
32.41
36.46
39.19
40.37
40.11
38.84
37.22
35.64
34.12
32.21
29.31
25.05
19.61
13.69
8.25
3.98
0.99
-1.32
-4.01
-8.20
-14.67
-23.55
-34.23
-45.33
-54.94
-61.03
-61.95
-57.03
-46.83
-33.00
-17.75
-3.14
9.43
19.38
26.73
31.78
34.84
36.20
36.25
35.47
34.42
33.49
32.75
31.96
30.62
28.32
24.87
20.43
15.46
10.55
6.23
2.74
-0.08
-2.75
-6.06
-10.81
-17.51
-26.02
-35.43
-44.06
-49.88
-51.12
-46.92
-37.67
-24.92
-10.79
2.66
14.07
22.89
29.22
33.39
35.65
36.19
35.24
33.23
30.80
28.52
26.71
25.22
23.52
21.03
17.38
12.66
7.39
2.28
-2.17
-5.90
-9.44
-13.66
-19.53
-27.62
-37.81
-49.00
-59.25
-66.24
-67.95
-63.43
-53.16
-38.97
-23.35
-8.60
3.82
13.53
20.93
26.63
31.06
34.24
36.08
36.54
35.92
34.75
33.48
32.28
30.87
28.70
25.20
20.24
14.23
8.01
2.55
-1.57
-4.41
-6.69
-9.50
-13.91
-20.58
-29.50
-39.85
-50.09
-58.17
-62.08
-60.41
-52.94
-40.82
-26.18
-11.40
1.74
12.50
21.12
28.21
34.19
39.01
42.26
43.64
43.32
41.95
40.41
39.28
38.53
37.57
35.51
31.76
26.32
19.86
13.42
7.95
3.92
1.04
-1.47
-4.65
-9.45
-16.35
-25.30
-35.61
-46.00
-54.69
-59.83
-59.97
-54.57
-44.30
-30.82
-16.32
-2.74
8.73
17.79
24.72
29.96
33.73
36.01
36.80
36.32
35.08
33.70
32.59
31.71
30.61
28.67
25.52
21.31
16.60
12.19
8.67
6.15
4.25
2.16
-1.07
-6.28
-13.91
-23.75
-34.78
-45.25
-53.08
-56.49
-54.67
-48.07
-38.23
-27.15
-16.53
-7.32
0.30
6.51
11.39
14.77
16.37
16.16
14.61
12.61
11.07
10.45
10.54
10.52
9.44
6.72
2.48
-2.61
-7.61
-11.86
-15.26
-18.31
-21.85
-26.79
-33.77
-42.89
-53.60
-64.44
-73.30
-77.75
-75.87
-66.94
-51.90
-33.09
-13.44
4.50
19.26
30.58
38.96
45.04
49.16
51.30
51.46
49.85
47.14
44.16
41.59
39.58
37.70
35.19
31.35
26.04
19.78
13.53
8.30
4.62
2.30
0.52
-1.90
-6.06
-12.69
-21.84
-32.85
-44.26
-54.06
-60.17
-61.00
-56.09
-46.35
-33.72
-20.51
-8.56
1.24
9.01
15.38
20.97
25.95
30.06
32.91
34.30
34.42
33.82
33.08
32.54
32.08
31.14
28.98
24.98
18.98
11.32
2.75
-5.87
-13.97
-21.39
-28.39
-35.51
-43.33
-52.30
-62.66
-74.32
-86.69
-98.57
-108.16
-113.38
-112.45
-104.45
-89.74
-69.91
-47.35
-24.47
-3.11
15.77
32.03
45.98
57.92
67.88
75.66
81.03
83.93
84.66
83.80
82.01
79.81
77.41
74.64
71.24
66.93
61.64
55.51
48.83
41.90
34.91
27.96
21.00
13.96
6.77
-0.69
-8.58
-17.14
-26.47
-36.26
-45.51
-52.60
-55.70
-53.50
-45.72
-33.45
-18.77
-4.07
8.75
18.79
26.12
31.47
35.56
38.81
41.20
42.41
42.19
40.53
37.83
34.68
31.72
29.30
27.34
25.49
23.25
20.25
16.40
11.90
7.09
2.27
-2.38
-6.84
-11.21
-15.66
-20.38
-25.64
-31.77
-39.11
-47.67
-56.81
-65.15
-70.74
-71.67
-66.79
-56.30
-41.72
-25.43
-9.80
3.53
13.97
21.88
27.93
32.68
36.24
38.41
38.96
37.96
35.89
33.43
31.20
29.46
27.95
26.06
23.17
19.03
13.89
8.41
3.32
-0.92
-4.34
-7.41
-10.80
-15.11
-20.70
-27.74
-36.11
-45.36
-54.54
-62.13
-66.31
-65.49
-58.96
-47.33
-32.42
-16.63
-2.14
9.80
19.06
26.21
31.97
36.63
40.00
41.64
41.37
39.51
36.84
34.31
32.56
31.64
30.99
29.74
27.17
22.98
17.46
11.38
5.59
0.79
-2.79
-5.42
-7.71
-10.55
-14.90
-21.61
-31.24
-43.68
-57.87
-71.73
-82.55
-87.71
-85.66
-76.53
-62.19
-45.51
-29.35
-15.60
-4.78
3.67
10.77
17.29
23.41
28.83
33.05
35.73
36.91
36.92
36.26
35.26
33.96
32.12
29.39
25.56
20.76
15.42
10.16
5.45
1.43
-2.21
-6.02
-10.59
-16.34
-23.48
-32.01
-41.75
-52.16
-62.21
-70.26
-74.39
-73.02
-65.55
-52.75
-36.61
-19.63
-4.01
9.01
19.26
27.25
33.63
38.78
42.72
45.29
46.47
46.48
45.70
44.49
42.97
40.91
37.85
33.32
27.17
19.65
11.48
3.56
-3.36
-8.94
-13.31
-17.05
-20.87
-25.49
-31.50
-39.25
-48.76
-59.44
-69.96
-78.31
-82.27
-80.15
-71.42
-57.05
-39.17
-20.32
-2.57
12.99
26.23
37.54
47.24
55.28
61.25
64.68
65.54
64.28
61.77
58.93
56.30
53.84
50.95
46.88
41.13
33.71
25.20
16.48
8.30
1.05
-5.45
-11.74
-18.50
-26.32
-35.58
-46.42
-58.53
-71.07
-82.43
-90.49
-93.15
-89.13
-78.54
-63.03
-45.25
-27.93
-12.92
-0.87
8.62
16.35
22.93
28.52
32.88
35.81
37.27
37.55
37.03
35.97
34.35
31.84
28.04
22.66
15.75
7.81
-0.40
-8.02
-14.38
-19.24
-22.76
-25.54
-28.36
-31.98
-37.02
-43.78
-52.08
-61.08
-69.32
-74.93
-76.03
-71.41
-60.95
-45.75
-27.82
-9.43
7.54
22.10
34.16
44.18
52.80
60.31
66.69
71.66
75.01
76.89
77.75
78.23
78.77
79.34
79.42
78.17
74.87
69.33
62.02
53.86
45.84
38.60
32.25
26.42
20.49
13.81
5.86
-3.66
-14.69
-26.67
-38.35
-47.98
-53.63
-53.84
-48.15
-37.29
-22.89
-6.99
8.66
22.82
34.89
44.64
51.99
56.92
59.45
59.82
58.43
55.82
52.59
49.17
45.81
42.46
38.85
34.67
29.68
23.90
17.62
11.29
5.30
-0.20
-5.40
-10.71
-16.54
-23.22
-30.88
-39.57
-49.15
-59.18
-68.72
-76.33
-80.35
-79.40
-72.95
-61.59
-46.86
-30.72
-14.99
-0.92
10.83
20.11
26.96
31.55
34.19
35.35
35.76
36.16
37.08
38.64
40.42
41.63
41.45
39.40
35.60
30.69
25.49
20.65
16.28
11.97
6.98
0.53
-7.85
-18.11
-29.51
-40.65
-49.65
-54.66
-54.39
-48.63
-38.41
-25.68
-12.65
-1.09
8.06
14.67
19.11
21.78
22.90
22.55
20.83
18.06
14.79
11.61
8.90
6.65
4.45
1.65
-2.22
-7.25
-13.01
-18.72
-23.63
-27.30
-29.83
-31.78
-33.96
-37.23
-42.20
-49.17
-57.78
-66.95
-74.83
-79.22
-78.13
-70.54
-56.89
-38.95
-19.24
-0.21
16.45
30.03
40.56
48.38
53.76
56.82
57.73
56.88
54.96
52.78
50.95
49.55
48.17
45.98
42.20
36.49
29.12
20.92
12.95
6.04
0.48
-4.09
-8.51
-13.82
-20.91
-30.22
-41.45
-53.50
-64.55
-72.49
-75.41
-72.36
-63.61
-50.62
-35.54
-20.46
-6.83
4.79
14.46
22.52
29.14
34.29
37.77
39.52
39.79
39.05
37.93
36.89
36.13
35.45
34.42
32.57
29.62
25.61
20.93
16.10
11.64
7.70
4.10
0.29
-4.40
-10.66
-18.87
-28.95
-40.09
-50.80
-59.08
-62.96
-61.17
-53.66
-41.68
-27.37
-13.02
-0.35
9.86
17.73
23.80
28.59
32.30
34.89
36.21
36.25
35.24
33.60
31.81
30.20
28.81
27.38
25.45
22.57
18.56
13.65
8.33
3.19
-1.47
-5.71
-9.96
-14.72
-20.38
-27.14
-34.99
-43.77
-53.05
-61.88
-68.76
-71.92
-69.87
-62.14
-49.66
-34.45
-18.98
-5.17
6.16
15.19
22.63
29.05
34.46
38.43
40.50
40.61
39.26
37.33
35.66
34.62
33.96
32.92
30.68
26.80
21.51
15.67
10.30
6.15
3.35
1.28
-1.06
-4.65
-10.09
-17.53
-26.67
-36.83
-46.94
-55.55
-60.99
-61.75
-57.08
-47.33
-34.02
-19.36
-5.47
6.24
15.37
22.35
27.87
32.38
35.88
38.02
38.53
37.49
35.47
33.27
31.52
30.42
29.52
28.02
25.16
20.65
14.89
8.67
2.92
-1.84
-5.64
-9.05
-12.89
-17.90
-24.58
-33.00
-42.83
-53.26
-62.88
-69.92
-72.56
-69.60
-60.91
-47.69
-32.06
-16.37
-2.46
8.87
17.72
24.77
30.68
35.73
39.82
42.68
44.09
44.12
43.07
41.38
39.47
37.52
35.53
33.27
30.45
26.86
22.52
17.64
12.56
7.58
2.77
-2.03
-7.12
-12.75
-19.07
-26.14
-33.98
-42.59
-51.76
-60.76
-68.16
-72.06
-70.72
-63.32
-50.53
-34.41
-17.68
-2.76
9.01
17.57
23.75
28.62
32.89
36.74
39.98
42.29
43.52
43.69
42.99
41.66
39.86
37.68
35.12
32.16
28.78
25.03
20.98
16.70
12.24
7.56
2.61
-2.62
-8.04
-13.56
-19.11
-24.87
-31.24
-38.71
-47.46
-56.97
-65.86
-72.13
-73.82
-69.74
-60.06
-46.27
-30.64
-15.48
-2.31
8.32
16.69
23.36
28.71
32.77
35.31
36.19
35.58
34.04
32.27
30.84
29.89
29.04
27.66
25.14
21.26
16.34
11.11
6.28
2.34
-0.80
-3.67
-6.95
-11.28
-17.10
-24.59
-33.71
-44.09
-54.78
-64.27
-70.58
-71.94
-67.36
-57.17
-43.01
-27.25
-12.18
0.70
11.03
19.30
26.34
32.75
38.66
43.76
47.61
49.92
50.70
50.22
48.85
46.87
44.46
41.65
38.50
35.08
31.54
27.99
24.38
20.52
16.17
11.14
5.46
-0.62
-6.76
-12.63
-18.21
-23.88
-30.41
-38.65
-49.03
-61.07
-73.11
-82.66
-87.11
-84.73
-75.33
-60.41
-42.62
-24.74
-8.87
4.09
14.28
22.42
29.16
34.88
39.57
43.13
45.49
46.78
47.27
47.20
46.72
45.83
44.36
42.15
39.09
35.19
30.60
25.59
20.45
15.42
10.61
5.99
1.39
-3.41
-8.72
-14.87
-22.19
-30.86
-40.65
-50.67
-59.33
-64.67
-64.98
-59.45
-48.66
-34.37
-18.99
-4.69
7.23
16.48
23.42
28.60
32.18
34.03
33.93
32.00
28.91
25.67
23.21
21.92
21.39
20.64
18.55
14.52
8.70
1.97
-4.48
-9.73
-13.58
-16.59
-19.86
-24.55
-31.51
-40.97
-52.49
-64.95
-76.74
-86.01
-91.02
-90.63
-84.73
-74.45
-62.02
-50.16
-41.12
-35.76
-33.01
-30.17
-23.97
-11.94
6.38
29.22
53.29
75.12
92.27
103.78
109.78
110.52
105.85
95.43
79.52
59.81
39.54
22.55
11.83
8.30
10.51
15.41
19.69
20.92
18.05
11.16
0.87
-12.00
-26.32
-40.42
-52.06
-58.88
-59.19
-52.73
-40.92
-26.39
-11.95
0.33
9.71
16.60
22.00
26.75
31.16
34.98
37.71
38.99
38.88
37.76
36.17
34.52
32.87
30.84
27.90
23.62
18.00
11.58
5.28
-0.02
-3.85
-6.39
-8.38
-10.80
-14.51
-20.02
-27.51
-36.72
-47.07
-57.43
-66.21
-71.56
-71.88
-66.48
-55.90
-41.82
-26.46
-11.83
0.79
11.07
19.24
25.69
30.52
33.61
34.80
34.20
32.38
30.15
28.23
26.91
25.88
24.39
21.69
17.40
11.77
5.53
-0.38
-5.28
-8.99
-11.88
-14.70
-18.32
-23.42
-30.33
-38.79
-47.89
-56.07
-61.40
-62.09
-57.10
-46.64
-32.10
-15.74
0.20
14.10
25.35
34.16
41.09
46.48
50.32
52.36
52.50
50.98
48.49
45.81
43.48
41.60
39.75
37.30
33.69
28.71
22.56
15.75
8.93
2.59
-3.04
-8.12
-13.11
-18.65
-25.40
-33.82
-44.02
-55.56
-67.33
-77.62
-84.45
-86.12
-81.79
-71.81
-57.71
-41.61
-25.65
-11.24
1.06
11.45
20.39
28.19
34.83
40.08
43.70
45.75
46.57
46.68
46.49
46.08
45.17
43.28
40.04
35.45
29.93
24.20
18.93
14.44
10.60
6.89
2.64
-2.69
-9.46
-17.83
-27.70
-38.70
-49.88
-59.70
-66.19
-67.47
-62.50
-51.52
-36.19
-19.00
-2.48
11.61
22.59
30.80
36.97
41.69
45.19
47.36
48.07
47.52
46.25
44.92
43.98
43.43
42.72
41.06
37.79
32.81
26.59
20.07
14.18
9.44
5.81
2.63
-0.97
-5.83
-12.43
-20.81
-30.57
-40.84
-50.42
-57.84
-61.65
-60.82
-55.02
-44.89
-31.85
-17.70
-4.11
7.80
17.51
24.98
30.34
33.70
35.11
34.77
33.15
30.99
29.06
27.83
27.18
26.51
24.95
21.83
17.09
11.23
5.16
-0.26
-4.61
-8.15
-11.75
-16.52
-23.46
-33.01
-44.78
-57.46
-69.01
-77.14
-79.98
-76.67
-67.65
-54.53
-39.56
-24.85
-11.86
-1.12
7.54
14.61
20.45
25.06
28.25
29.87
30.15
29.76
29.57
30.24
31.91
34.00
35.55
35.60
33.67
29.92
24.97
19.59
14.31
9.27
4.25
-1.19
-7.60
-15.57
-25.52
-37.48
-50.70
-63.46
-73.37
-78.02
-75.90
-67.09
-53.32
-37.39
-22.20
-9.78
-0.96
4.62
8.02
10.53
13.36
17.52
23.70
32.09
42.32
53.37
63.80
72.18
77.47
79.21
77.63
73.36
67.31
60.47
53.68
47.56
42.36
37.85
33.41
28.17
21.18
11.66
-0.75
-15.72
-31.97
-47.38
-59.31
-65.49
-64.77
-57.61
-45.89
-32.25
-19.02
-7.61
1.63
9.02
14.91
19.33
22.00
22.71
21.64
19.51
17.26
15.65
14.87
14.50
13.68
11.67
8.20
3.61
-1.30
-5.70
-9.18
-11.87
-14.47
-17.88
-22.98
-30.21
-39.38
-49.45
-58.69
-64.96
-66.35
-61.90
-51.95
-38.17
-22.90
-8.35
4.12
14.15
22.17
28.68
33.85
37.39
38.90
38.27
35.99
33.05
30.44
28.71
27.68
26.52
24.24
20.17
14.31
7.29
0.06
-6.60
-12.36
-17.44
-22.41
-28.04
-35.05
-43.92
-54.69
-66.68
-78.36
-87.54
-91.92
-89.90
-81.22
-67.17
-50.12
-32.71
-16.94
-3.73
7.10
16.29
24.54
32.08
38.66
43.74
46.94
48.28
48.26
47.65
47.06
46.61
45.84
43.93
40.18
34.40
27.09
19.17
11.59
4.88
-1.04
-6.66
-12.56
-19.21
-26.82
-35.48
-45.15
-55.46
-65.54
-73.89
-78.67
-78.20
-71.71
-59.76
-44.06
-26.96
-10.56
3.84
15.86
25.78
34.04
40.85
46.17
49.84
51.91
52.68
52.73
52.63
52.74
53.05
53.17
52.55
50.70
47.40
42.82
37.43
31.81
26.42
21.49
16.96
12.58
8.07
3.18
-2.37
-8.89
-16.61
-25.44
-34.68
-42.92
-48.33
-49.30
-45.05
-35.99
-23.59
-9.79
3.66
15.62
25.69
33.87
40.24
44.79
47.45
48.17
47.25
45.22
42.76
40.41
38.42
36.59
34.43
31.42
27.35
22.42
17.23
12.44
8.43
5.11
1.94
-1.80
-6.71
-13.09
-20.93
-29.92
-39.41
-48.41
-55.51
-59.17
-58.10
-51.82
-40.93
-27.06
-12.30
1.41
12.89
21.72
28.10
32.28
34.43
34.57
32.85
29.81
26.30
23.23
21.10
19.74
18.36
15.95
11.87
6.18
-0.38
-6.71
-11.91
-15.69
-18.48
-21.19
-24.92
-30.53
-38.44
-48.35
-59.17
-69.08
-75.86
-77.52
-72.99
-62.56
-47.84
-31.23
-15.08
-1.04
10.34
19.25
26.24
31.70
35.67
38.00
38.67
37.99
36.58
35.12
33.98
33.05
31.75
29.40
25.54
20.28
14.24
8.28
3.15
-0.90
-4.14
-7.33
-11.32
-16.94
-24.69
-34.52
-45.72
-56.83
-65.85
-70.68
-69.85
-62.95
-50.94
-35.80
-19.90
-5.22
7.15
17.04
24.93
31.35
36.55
40.39
42.50
42.66
40.95
37.90
34.20
30.54
27.22
24.09
20.73
16.71
11.93
6.72
1.70
-2.54
-5.83
-8.61
-11.76
-16.27
-22.90
-31.84
-42.65
-54.29
-65.23
-73.68
-77.88
-76.56
-69.30
-56.81
-40.80
-23.49
-7.03
7.13
18.36
26.76
32.75
36.72
38.94
39.61
39.02
37.64
35.95
34.29
32.65
30.72
28.01
24.24
19.48
14.24
9.26
5.12
1.96
-0.59
-3.29
-7.07
-12.64
-20.26
-29.54
-39.38
-48.03
-53.52
-54.21
-49.38
-39.63
-26.66
-12.74
0.07
10.55
18.48
24.35
28.79
32.15
34.38
35.26
34.72
33.01
30.79
28.69
27.10
25.92
24.56
22.33
18.81
14.09
8.80
3.75
-0.43
-3.66
-6.41
-9.46
-13.62
-19.52
-27.50
-37.50
-48.92
-60.56
-70.63
-77.15
-78.49
-73.98
-64.15
-50.62
-35.43
-20.40
-6.68
5.30
15.57
24.15
30.96
35.72
38.28
38.79
37.77
35.93
33.93
32.08
30.27
28.08
24.98
20.71
15.30
9.05
2.32
-4.58
-11.49
-18.22
-24.46
-29.78
-33.73
-36.03
-36.65
-35.78
-33.69
-30.56
-26.44
-21.27
-14.89
-7.21
1.84
12.05
23.00
34.00
44.19
52.81
59.28
63.30
64.73
63.54
59.73
53.45
45.06
35.08
24.17
12.92
1.92
-8.22
-16.70
-22.68
-25.57
-25.40
-23.11
-20.44
-19.52
-22.13
-28.95
-39.20
-50.63
-60.14
-64.69
-62.31
-52.73
-37.45
-19.17
-0.82
15.37
28.36
38.25
45.69
51.28
55.24
57.44
57.80
56.61
54.61
52.66
51.40
50.84
50.40
49.22
46.60
42.42
37.19
31.80
27.08
23.44
20.73
18.31
15.35
11.08
4.92
-3.41
-13.85
-25.83
-38.20
-49.27
-57.11
-60.11
-57.54
-49.82
-38.35
-25.08
-11.75
0.48
11.13
20.15
27.60
33.44
37.59
40.02
40.97
40.93
40.43
39.82
39.12
37.96
35.80
32.23
27.29
21.45
15.49
10.13
5.73
2.11
-1.39
-5.58
-11.19
-18.57
-27.60
-37.65
-47.67
-56.30
-62.11
-63.87
-61.00
-53.67
-42.89
-30.20
-17.23
-5.36
4.58
12.25
17.65
20.93
22.31
22.09
20.68
18.54
16.10
13.59
11.03
8.27
5.14
1.57
-2.28
-6.10
-9.58
-12.59
-15.21
-17.87
-21.15
-25.71
-32.00
-40.05
-49.15
-57.85
-64.21
-66.31
-63.00
-54.29
-41.46
-26.59
-11.80
1.36
12.27
21.00
27.91
33.16
36.69
38.32
38.16
36.70
34.69
32.80
31.24
29.63
27.23
23.46
18.22
12.00
5.72
0.19
-4.27
-7.97
-11.70
-16.43
-22.93
-31.54
-41.98
-53.22
-63.66
-71.27
-74.25
-71.50
-63.14
-50.43
-35.37
-19.98
-5.74
6.64
17.06
25.69
32.67
37.99
41.64
43.70
44.41
44.11
43.04
41.32
38.86
35.53
31.30
26.36
21.12
16.06
11.58
7.76
4.36
0.84
-3.49
-9.28
-16.94
-26.45
-37.13
-47.61
-55.98
-60.33
-59.40
-53.00
-42.25
-29.02
-15.43
-3.08
7.18
15.17
21.09
25.19
27.71
28.92
29.17
28.93
28.57
28.25
27.87
27.15
25.78
23.65
20.83
17.58
14.24
11.04
8.07
5.14
1.78
-2.70
-8.96
-17.28
-27.19
-37.31
-45.55
-49.82
-48.68
-42.01
-31.01
-17.75
-4.43
7.31
16.72
23.80
28.97
32.66
35.16
36.58
37.08
36.90
36.31
35.53
34.51
32.98
30.59
27.10
22.60
17.56
12.60
8.25
4.59
1.27
-2.53
-7.73
-15.01
-24.44
-35.19
-45.57
-53.37
-56.60
-54.12
-46.21
-34.35
-20.74
-7.46
4.14
13.58
21.01
26.74
30.91
33.49
34.40
33.78
31.96
29.44
26.60
23.62
20.43
16.88
12.87
8.49
3.94
-0.55
-4.83
-8.92
-13.03
-17.54
-22.84
-29.19
-36.44
-43.87
-50.18
-53.69
-52.99
-47.42
-37.47
-24.69
-11.15
1.26
11.43
19.12
24.69
28.60
31.15
32.37
32.21
30.81
28.54
25.83
22.99
20.03
16.71
12.77
8.13
3.02
-2.14
-6.93
-11.18
-15.19
-19.62
-25.32
-33.01
-42.86
-54.21
-65.48
-74.51
-79.14
-77.99
-70.90
-59.04
-44.38
-28.99
-14.43
-1.51
9.55
18.77
26.13
31.53
34.96
36.68
37.19
37.09
36.69
36.00
34.69
32.34
28.75
24.04
18.72
13.42
8.70
4.74
1.31
-2.17
-6.55
-12.66
-21.06
-31.67
-43.55
-54.90
-63.43
-67.06
-64.64
-56.42
-43.92
-29.38
-14.87
-1.80
9.28
18.40
25.69
31.15
34.63
36.13
35.95
34.69
33.03
31.38
29.71
27.59
24.43
19.90
14.07
7.48
0.84
-5.30
-10.83
-16.21
-22.36
-30.35
-41.11
-54.99
-71.41
-88.82
-104.79
-116.60
-121.91
-119.52
-109.64
-93.74
-74.01
-52.65
-31.29
-10.96
7.77
24.49
38.71
49.94
57.79
62.30
63.87
63.25
61.26
58.55
55.48
52.01
47.86
42.68
36.31
28.94
21.24
14.19
8.83
5.90
5.52
7.09
9.44
11.15
11.05
8.74
4.80
0.79
-1.25
0.56
7.30
18.89
34.16
51.25
68.29
83.86
97.13
107.71
115.35
119.75
120.59
117.82
111.91
103.91
95.19
86.93
79.74
73.44
67.27
60.25
51.64
41.13
28.88
15.37
1.22
-12.96
-26.65
-39.49
-51.45
-62.81
-74.16
-85.98
-98.28
-110.23
-120.24
-126.34
-126.91
-121.27
-109.92
-94.33
-76.38
-57.68
-39.30
-21.67
-4.85
11.11
26.00
39.41
50.92
60.15
66.90
71.03
72.47
71.17
67.24
61.01
53.15
44.57
36.21
28.90
23.06
18.72
15.52
12.96
10.53
7.88
4.95
1.88
-0.93
-2.99
-3.83
-3.19
-1.03
2.43
6.79
11.67
16.68
21.57
26.06
29.87
32.64
34.06
34.01
32.63
30.38
27.76
25.16
22.68
20.05
16.88
12.87
8.05
2.83
-2.21
-6.58
-10.20
-13.45
-17.14
-22.29
-29.87
-40.46
-54.01
-69.54
-85.10
-98.07
-105.76
-106.29
-99.24
-85.92
-68.84
-51.06
-35.09
-22.41
-13.32
-7.22
-3.12
-0.07
2.67
5.55
8.71
12.03
15.09
17.20
17.66
16.00
12.33
7.56
3.23
1.14
2.64
8.04
16.36
25.55
33.13
36.99
35.89
29.78
19.66
7.44
-4.46
-13.67
-18.41
-18.09
-13.48
-6.45
0.80
6.61
10.45
12.87
14.89
17.27
20.04
22.56
24.05
24.05
22.70
20.61
18.46
16.64
15.08
13.44
11.31
8.47
5.11
1.62
-1.49
-3.94
-5.77
-7.39
-9.40
-12.40
-16.80
-22.73
-30.11
-38.48
-47.02
-54.52
-59.54
-60.73
-57.36
-49.53
-38.24
-25.08
-11.76
0.37
10.51
18.36
23.89
27.21
28.55
28.26
26.88
25.06
23.31
21.82
20.39
18.59
16.02
12.60
8.64
4.64
1.07
-1.95
-4.68
-7.61
-11.30
-16.19
-22.50
-30.10
-38.41
-46.29
-52.16
-54.31
-51.56
-43.69
-31.74
-17.73
-3.87
8.09
17.35
23.96
28.42
31.18
32.39
32.06
30.38
27.90
25.38
23.43
22.19
21.14
19.45
16.41
11.86
6.29
0.53
-4.62
-8.85
-12.39
-15.89
-20.11
-25.70
-33.01
-41.95
-51.91
-61.71
-69.64
-73.93
-73.18
-66.96
-55.97
-41.81
-26.53
-11.82
1.29
12.51
21.96
29.81
36.06
40.55
43.19
44.19
44.01
43.15
41.92
40.27
37.85
34.32
29.62
24.13
18.51
13.44
9.29
5.94
2.87
-0.64
-5.31
-11.63
-19.73
-29.32
-39.46
-48.62
-54.95
-56.79
-53.30
-44.80
-32.72
-19.10
-5.80
6.03
16.05
24.44
31.45
37.04
40.88
42.70
42.56
41.02
38.92
37.00
35.54
34.27
32.54
29.70
25.50
20.20
14.45
8.97
4.17
0.04
-3.87
-8.23
-13.67
-20.68
-29.38
-39.44
-49.92
-59.33
-65.86
-67.82
-64.26
-55.32
-42.27
-27.09
-11.84
1.96
13.52
22.77
29.88
35.08
38.45
40.07
40.16
39.16
37.61
35.87
34.03
31.85
28.93
24.98
20.03
14.48
8.96
4.02
-0.07
-3.47
-6.69
-10.43
-15.43
-22.19
-30.72
-40.35
-49.68
-56.83
-59.94
-57.77
-50.16
-38.17
-23.73
-9.01
4.22
14.99
23.12
28.86
32.54
34.43
34.68
33.55
31.51
29.14
26.94
25.03
23.13
20.68
17.17
12.48
6.97
1.32
-3.77
-8.02
-11.64
-15.37
-20.20
-26.96
-35.95
-46.63
-57.52
-66.50
-71.41
-70.68
-63.91
-52.06
-37.09
-21.32
-6.66
5.81
15.83
23.71
29.80
34.28
37.15
38.41
38.32
37.38
36.13
34.85
33.40
31.27
27.86
22.89
16.66
9.94
3.69
-1.43
-5.32
-8.52
-12.00
-16.88
-24.02
-33.73
-45.49
-57.85
-68.72
-75.75
-77.16
-72.26
-61.85
-47.89
-32.89
-18.98
-7.36
1.85
9.19
15.26
20.26
23.93
25.89
26.02
24.68
22.59
20.41
18.41
16.36
13.74
10.13
5.50
0.25
-5.08
-10.05
-14.58
-18.81
-22.89
-26.80
-30.28
-33.03
-34.73
-35.06
-33.52
-29.36
-21.82
-10.56
3.90
19.97
35.43
48.11
56.81
61.57
63.53
64.20
64.72
65.41
65.91
65.58
64.01
61.25
57.79
54.24
50.99
48.08
45.16
41.69
37.22
31.62
25.12
18.27
11.64
5.59
0.11
-5.18
-10.98
-18.06
-27.10
-38.43
-51.75
-65.92
-79.01
-88.70
-92.89
-90.39
-81.40
-67.41
-50.72
-33.63
-17.78
-3.89
8.08
18.51
27.65
35.48
41.82
46.52
49.71
51.80
53.33
54.74
56.17
57.35
57.72
56.68
53.88
49.41
43.82
37.90
32.33
27.37
22.73
17.65
11.27
3.03
-7.06
-18.46
-30.31
-41.74
-52.04
-60.62
-66.92
-70.36
-70.45
-66.85
-59.59
-49.09
-36.16
-21.88
-7.55
5.42
15.72
22.35
24.73
22.88
17.39
9.63
1.89
-2.69
-0.83
9.74
28.88
53.57
78.72
99.06
111.34
115.32
113.21
107.80
100.43
90.30
75.58
55.37
31.42
8.25
-8.51
-14.45
-8.13
8.50
31.25
55.33
76.90
93.74
105.00
110.58
110.54
104.92
93.88
78.05
58.82
38.20
18.49
1.72
-10.79
-18.74
-22.65
-23.55
-22.42
-19.95
-16.48
-12.17
-7.22
-2.03
2.81
6.61
8.66
8.33
5.11
-1.27
-10.83
-23.28
-38.00
-53.89
-69.31
-82.14
-90.05
-91.17
-84.77
-71.62
-53.83
-34.20
-15.30
1.06
13.92
22.74
27.06
26.42
20.69
10.48
-2.73
-16.89
-30.12
-41.18
-49.76
-56.23
-61.23
-65.31
-68.87
-72.21
-75.51
-78.84
-82.05
-84.75
-86.54
-87.26
-87.27
-87.38
-88.58
-91.46
-95.77
-100.28
-102.97
-101.67
-94.80
-81.93
-64.05
-43.33
-22.43
-3.73
11.38
22.74
31.16
37.87
43.89
49.68
55.16
60.02
64.00
67.03
69.23
70.62
71.00
70.03
67.44
63.36
58.40
53.56
49.77
47.55
46.68
46.29
45.26
42.60
37.87
31.17
22.89
13.47
3.32
-7.14
-17.15
-25.63
-31.33
-33.29
-31.18
-25.52
-17.48
-8.48
0.13
7.33
12.43
14.99
14.77
11.71
6.07
-1.58
-10.39
-19.36
-27.61
-34.51
-39.83
-43.65
-46.23
-47.83
-48.56
-48.48
-47.66
-46.36
-45.06
-44.48
-45.39
-48.36
-53.51
-60.19
-66.97
-71.92
-73.13
-69.47
-61.01
-49.08
-35.76
-23.07
-12.29
-3.63
3.49
9.90
16.10
22.01
27.13
30.93
33.25
34.37
34.73
34.63
33.85
31.64
27.08
19.49
9.01
-3.35
-15.92
-26.95
-35.32
-40.93
-44.66
-47.92
-51.84
-56.66
-61.49
-64.53
-63.78
-57.82
-46.33
-30.18
-11.16
8.45
26.20
39.67
46.88
46.80
39.91
28.37
15.61
5.06
-1.19
-3.09
-2.35
-0.89
0.61
3.36
9.53
20.49
35.34
50.75
62.47
67.45
65.38
58.59
50.47
43.56
38.25
32.96
25.58
14.80
0.83
-14.98
-31.00
-45.99
-59.13
-69.58
-76.17
-77.40
-72.05
-59.89
-41.95
-20.40
2.21
23.70
42.68
58.58
71.35
81.14
88.18
92.83
95.71
97.68
99.68
102.39
105.96
109.80
112.81
113.73
111.64
106.42
98.71
89.62
80.16
70.62
60.37
47.95
31.58
9.70
-18.49
-52.60
-90.59
-128.63
-161.60
-184.24
-192.75
-186.30
-167.42
-141.20
-113.48
-88.83
-69.40
-55.00
-44.10
-35.19
-27.50
-21.02
-15.94
-12.16
-9.23
-6.61
-4.13
-1.96
-0.48
0.14
0.19
0.25
0.93
2.43
4.47
6.45
7.79
8.15
7.48
5.81
3.00
-1.27
-7.47
-15.97
-26.78
-39.36
-52.54
-64.51
-73.11
-76.33
-72.80
-62.31
-45.92
-25.73
-4.36
15.66
32.42
44.89
53.02
57.56
59.89
61.61
64.03
67.81
72.73
77.88
82.00
83.91
82.70
77.89
69.45
57.96
44.72
31.76
21.38
15.39
14.21
16.47
19.19
18.77
12.37
-1.12
-20.67
-43.55
-66.18
-85.15
-97.96
-103.38
-101.47
-93.36
-80.81
-65.78
-49.99
-34.68
-20.61
-8.27
1.97
9.66
14.49
16.46
16.14
14.59
13.06
12.50
13.17
14.61
15.88
16.13
14.93
12.49
9.39
6.23
3.25
0.18
-3.63
-8.90
-16.12
-25.36
-36.19
-47.68
-58.43
-66.76
-71.04
-70.09
-63.68
-52.79
-39.43
-25.99
-14.29
-4.82
3.39
12.23
23.40
37.48
53.55
69.56
83.29
93.10
98.42
99.53
97.20
92.24
85.45
77.71
70.08
63.78
59.82
58.70
60.16
63.11
65.92
66.71
63.72
55.71
42.39
24.67
4.79
-14.11
-28.69
-36.41
-36.35
-29.45
-18.06
-5.02
7.35
17.92
26.64
34.00
40.41
45.80
49.63
51.27
50.33
46.90
41.50
34.90
27.91
21.22
15.20
9.89
4.99
0.01
-5.45
-11.55
-18.10
-24.76
-31.29
-37.80
-44.82
-53.02
-62.89
-74.27
-86.09
-96.48
-103.26
-104.54
-99.48
-88.53
-73.23
-55.68
-37.69
-20.37
-3.99
11.69
26.80
41.05
53.62
63.56
70.22
73.57
74.18
72.96
70.76
68.10
65.10
61.63
57.59
53.02
48.23
43.58
39.26
35.08
30.44
24.53
16.64
6.43
-5.85
-19.38
-32.87
-44.78
-53.61
-58.11
-57.61
-52.22
-42.82
-31.03
-18.76
-7.78
0.71
6.32
9.35
10.44
10.19
8.90
6.54
2.98
-1.70
-7.01
-12.11
-16.04
-18.14
-18.20
-16.52
-13.65
-10.17
-6.59
-3.51
-1.75
-2.40
-6.52
-14.63
-26.23
-39.61
-52.16
-61.17
-64.67
-61.99
-53.89
-42.19
-29.08
-16.56
-5.97
2.09
7.67
11.17
13.17
14.22
14.80
15.26
15.80
16.47
17.02
16.97
15.70
12.62
7.47
0.50
-7.47
-15.39
-22.30
-27.75
-31.95
-35.74
-40.36
-47.15
-57.09
-70.26
-85.53
-100.44
-111.72
-116.24
-112.14
-99.57
-80.68
-58.84
-37.42
-18.80
-3.98
7.18
15.31
21.04
24.77
26.88
27.82
28.18
28.50
29.00
29.60
29.87
29.44
28.16
26.19
23.89
21.62
19.49
17.26
14.37
10.06
3.69
-4.93
-15.22
-25.63
-33.89
-37.60
-35.09
-26.10
-11.93
4.97
21.93
37.00
49.35
59.18
67.08
73.43
78.13
80.72
80.87
78.67
74.70
69.73
64.33
58.61
52.28
44.90
36.29
26.65
16.57
6.74
-2.38
-10.69
-18.50
-26.41
-35.05
-44.95
-56.30
-68.76
-81.23
-91.94
-98.70
-99.55
-93.45
-80.76
-63.23
-43.40
-23.84
-6.34
8.42
20.60
30.68
38.99
45.47
49.89
52.20
52.75
52.27
51.57
51.08
50.78
50.17
48.69
46.04
42.42
38.40
34.59
31.33
28.45
25.35
21.26
15.54
7.91
-1.62
-12.77
-25.09
-37.91
-50.20
-60.59
-67.63
-70.27
-68.24
-62.28
-53.84
-44.51
-35.47
-27.18
-19.65
-12.76
-6.71
-1.97
0.99
2.21
2.41
2.83
4.67
8.47
13.89
19.82
25.00
28.62
30.74
32.22
34.31
38.02
43.72
50.90
58.42
64.76
68.39
68.07
63.13
53.74
41.07
27.21
14.72
5.99
2.46
4.24
10.26
18.74
27.98
36.81
44.71
51.56
57.28
61.66
64.46
65.63
65.51
64.73
63.93
63.39
62.82
61.55
58.84
54.37
48.39
41.73
35.38
30.05
25.86
22.25
18.26
12.90
5.45
-4.39
-16.44
-30.02
-43.93
-56.54
-65.99
-70.61
-69.53
-62.97
-52.27
-39.44
-26.48
-14.77
-4.88
3.15
9.38
13.60
15.43
14.65
11.58
7.17
2.69
-0.78
-2.86
-3.90
-4.76
-6.28
-8.89
-12.49
-16.67
-21.08
-25.67
-30.75
-36.94
-44.83
-54.75
-66.44
-78.89
-90.44
-99.10
-103.12
-101.56
-94.67
-83.76
-70.73
-57.42
-45.06
-34.08
-24.35
-15.60
-7.80
-1.28
3.48
6.16
6.90
6.29
5.12
4.03
3.18
2.20
0.37
-2.97
-8.19
-15.20
-23.62
-32.96
-42.80
-52.82
-62.79
-72.52
-81.85
-90.59
-98.39
-104.54
-107.99
-107.47
-101.93
-91.11
-75.78
-57.65
-38.78
-20.95
-5.11
8.69
20.88
31.88
41.77
50.16
56.63
60.95
63.35
64.42
64.78
64.91
64.88
64.46
63.29
61.09
57.79
53.53
48.61
43.45
38.42
33.73
29.40
25.09
20.20
14.01
6.00
-3.81
-14.64
-24.96
-32.89
-36.74
-35.64
-29.79
-20.37
-9.10
2.48
13.34
23.13
32.02
40.25
47.90
54.74
60.42
64.56
67.04
67.98
67.71
66.63
65.08
63.18
60.90
58.08
54.62
50.59
46.18
41.68
37.24
32.83
28.23
23.16
17.40
10.89
3.66
-4.27
-12.92
-22.22
-31.73
-40.53
-47.23
-50.40
-48.99
-42.84
-32.74
-20.16
-6.74
6.23
18.03
28.44
37.46
44.97
50.68
54.19
55.32
54.30
51.83
48.81
46.03
43.77
41.80
39.45
36.06
31.30
25.35
18.80
12.35
6.50
1.37
-3.37
-8.29
-14.05
-21.24
-30.21
-40.81
-52.23
-62.98
-71.04
-74.45
-71.86
-63.04
-49.03
-31.77
-13.53
3.73
18.72
30.83
39.95
46.19
49.64
50.44
48.84
45.27
40.39
34.99
29.73
25.11
21.22
17.82
14.45
10.65
6.13
0.92
-4.67
-10.28
-15.63
-20.74
-25.86
-31.29
-37.27
-43.90
-51.15
-58.90
-66.84
-74.28
-80.05
-82.60
-80.53
-73.16
-60.94
-45.42
-28.68
-12.61
1.75
14.23
25.30
35.39
44.53
52.27
57.93
61.04
61.61
60.22
57.73
54.97
52.38
49.86
47.01
43.44
39.00
33.88
28.47
23.17
18.08
13.05
7.66
1.62
-5.14
-12.49
-20.36
-28.86
-38.18
-48.20
-58.24
-67.00
-72.81
-74.24
-70.65
-62.75
-52.13
-40.68
-29.86
-20.40
-12.65
-6.47
-1.51
2.65
5.96
8.24
9.48
9.85
9.61
8.47
6.34
3.37
0.02
-4.01
-9.21
-15.78
-23.41
-31.37
-39.70
-48.19
-56.35
-63.46
-70.18
-77.46
-85.86
-95.19
-104.66
-114.29
-123.08
-128.99
-129.00
-122.09
-108.68
-90.48
-69.87
-42.14
-7.98
27.85
56.14
78.59
98.54
118.48
138.05
155.53
168.76
174.92
173.02
164.27
151.77
137.44
122.41
107.17
92.09
77.59
63.43
50.01
38.26
29.31
22.49
16.18
8.71
-1.02
-13.30
-28.16
-44.58
-60.55
-73.35
-81.15
-82.99
-78.89
-69.79
-57.34
-43.66
-30.43
-18.40
-7.49
2.41
11.23
18.73
24.55
28.46
30.48
31.05
30.86
30.59
30.41
30.01
28.77
26.08
21.58
15.33
7.76
-0.46
-8.61
-16.12
-22.70
-28.35
-33.36
-38.24
-43.68
-50.20
-57.90
-66.12
-73.36
-77.59
-76.96
-70.52
-58.80
-43.67
-27.78
-13.60
-2.67
4.74
9.34
12.21
14.29
15.97
17.18
17.65
17.22
15.84
13.62
10.62
6.78
1.95
-3.94
-10.73
-18.03
-25.20
-31.56
-36.54
-39.77
-41.08
-40.51
-38.33
-35.06
-31.57
-28.97
-28.35
-30.46
-35.27
-41.80
-48.30
-52.69
-53.25
-49.15
-40.75
-29.30
-16.49
-3.87
7.61
17.60
26.11
33.23
38.85
42.72
44.63
44.67
43.28
41.18
39.06
37.34
35.99
34.70
33.12
31.14
29.04
27.35
26.50
26.52
26.84
26.46
24.29
19.60
12.26
2.63
-8.52
-20.26
-31.51
-41.04
-47.57
-49.96
-47.69
-41.05
-31.16
-19.50
-7.49
4.03
14.74
24.67
33.75
41.54
47.34
50.42
50.47
47.74
43.01
37.25
31.22
25.18
18.81
11.47
2.51
-8.23
-20.36
-32.97
-44.91
-55.14
-63.03
-68.46
-71.86
-74.09
-76.28
-79.45
-84.20
-90.26
-96.36
-100.49
-100.45
-94.69
-82.82
-65.79
-45.60
-24.50
-4.50
13.09
27.65
39.00
47.16
52.24
54.50
54.54
53.31
51.95
51.38
52.08
53.80
55.73
56.80
56.13
53.39
48.77
42.89
36.45
29.94
23.43
16.58
8.80
-0.59
-11.99
-25.18
-39.07
-51.62
-60.29
-62.67
-57.38
-44.63
-26.17
-4.80
16.65
36.15
52.80
66.66
78.10
87.26
93.87
97.43
97.73
95.16
90.74
85.79
81.35
77.80
74.76
71.39
66.82
60.67
53.14
44.94
36.89
29.59
23.15
17.20
11.06
4.01
-4.53
-14.87
-27.07
-40.70
-54.81
-67.77
-77.47
-81.80
-79.37
-70.00
-54.92
-36.37
-16.93
1.21
16.64
28.87
37.99
44.36
48.35
50.25
50.30
48.74
45.86
42.08
37.85
33.68
29.93
26.76
24.03
21.44
18.67
15.55
12.20
8.86
5.75
2.83
-0.22
-3.94
-8.80
-15.03
-22.57
-31.13
-40.27
-49.39
-57.61
-63.71
-66.31
-64.25
-57.10
-45.53
-31.13
-15.98
-1.97
9.73
18.76
25.38
30.03
33.00
34.44
34.45
33.37
31.73
30.21
29.27
28.90
28.66
27.80
25.70
22.17
17.61
12.82
8.67
5.64
3.62
1.89
-0.55
-4.71
-11.15
-19.74
-29.40
-38.27
-44.09
-44.78
-39.29
-28.00
-12.72
3.87
19.23
31.71
40.97
47.70
52.98
57.62
61.80
65.15
67.00
66.63
63.40
56.79
46.67
33.65
19.28
6.00
-3.51
-7.30
-4.96
2.00
10.73
17.87
20.75
18.05
9.94
-2.37
-17.19
-32.81
-47.67
-60.31
-69.58
-74.74
-75.81
-73.53
-69.15
-63.94
-58.69
-53.58
-48.40
-43.07
-37.98
-34.06
-32.36
-33.55
-37.60
-43.76
-50.87
-57.77
-63.64
-68.00
-70.71
-71.80
-71.36
-69.60
-66.78
-63.28
-59.54
-55.96
-52.86
-50.45
-48.87
-48.31
-49.06
-51.50
-55.83
-61.64
-67.71
-71.99
-72.17
-66.48
-54.43
-37.12
-16.87
3.58
21.92
36.97
48.62
57.48
64.27
69.45
73.10
75.20
75.85
75.37
74.20
72.64
70.67
68.02
64.38
59.72
54.46
49.27
44.70
40.79
36.87
31.81
24.46
14.17
1.10
-13.70
-28.55
-41.39
-50.22
-53.55
-50.77
-42.40
-30.04
-15.90
-2.20
9.53
18.72
25.61
30.86
35.05
38.47
41.12
42.99
44.22
45.04
45.68
46.13
46.08
44.97
42.35
38.10
32.67
27.18
23.14
21.97
24.41
30.08
37.35
43.68
46.28
42.90
32.43
15.27
-6.78
-30.84
-53.56
-71.87
-83.58
-87.95
-85.63
-78.41
-68.45
-57.63
-47.16
-37.44
-28.45
-19.98
-11.89
-4.24
2.86
9.19
14.53
18.63
21.28
22.47
22.40
21.48
20.19
18.95
17.88
16.84
15.46
13.33
10.09
5.59
-0.06
-6.56
-13.50
-20.51
-27.48
-34.65
-42.55
-51.70
-62.07
-72.75
-82.03
-87.80
-88.35
-83.04
-72.55
-58.60
-43.33
-28.54
-15.30
-3.92
5.72
13.80
20.31
25.15
28.21
29.61
29.72
29.02
27.95
26.72
25.26
23.28
20.47
16.68
11.97
6.63
0.93
-4.91
-10.83
-16.89
-23.15
-29.60
-36.20
-42.83
-49.43
-55.88
-61.98
-67.22
-70.69
-71.12
-67.07
-57.42
-41.80
-20.95
3.33
28.44
51.64
70.69
84.38
92.71
96.66
97.69
97.18
95.94
94.16
91.66
88.18
83.74
78.70
73.54
68.48
63.36
57.68
50.99
43.25
34.96
27.10
20.60
15.95
12.91
10.61
7.94
4.00
-1.65
-9.03
-17.86
-27.72
-37.88
-47.22
-54.08
-56.69
-53.74
-44.97
-31.52
-15.57
0.39
14.44
25.71
34.40
41.29
47.13
52.33
56.75
60.02
61.74
61.72
60.11
57.24
53.55
49.39
44.94
40.21
35.17
29.77
24.02
17.98
11.68
5.12
-1.73
-8.81
-15.94
-22.83
-29.24
-35.17
-40.97
-47.35
-55.07
-64.50
-75.20
-85.69
-93.75
-96.99
-93.78
-83.89
-68.63
-50.46
-32.13
-15.79
-2.52
7.68
15.51
21.76
26.94
31.18
34.44
36.67
37.99
38.61
38.66
38.12
36.80
34.57
31.57
28.25
25.20
22.86
21.23
19.76
17.58
13.86
8.22
0.92
-7.21
-15.12
-21.96
-27.41
-31.82
-36.02
-41.06
-47.77
-56.44
-66.54
-76.75
-85.13
-89.60
-88.51
-81.21
-68.36
-51.75
-33.82
-16.93
-2.65
8.47
16.80
23.13
28.19
32.27
35.25
36.81
36.76
35.29
32.95
30.51
28.57
27.43
26.89
26.41
25.35
23.28
20.22
16.56
12.90
9.69
7.05
4.65
1.87
-1.96
-7.43
-14.74
-23.76
-33.82
-43.80
-52.12
-57.09
-57.29
-52.06
-41.83
-28.00
-12.59
2.36
15.38
25.74
33.38
38.61
41.76
43.02
42.60
40.97
39.03
38.14
39.69
44.51
52.28
61.23
68.52
71.08
66.55
54.16
34.94
11.37
-13.33
-36.02
-54.20
-66.28
-71.57
-70.23
-63.17
-51.97
-38.74
-25.91
-15.77
-10.10
-9.81
-14.74
-23.64
-34.35
-44.09
-50.16
-50.50
-44.28
-32.20
-16.22
1.08
17.24
30.61
40.54
47.25
51.39
53.64
54.56
54.49
53.73
52.56
51.18
49.71
48.08
46.16
43.85
41.13
38.11
35.04
32.08
29.30
26.57
23.54
19.76
14.80
8.44
0.71
-8.01
-17.17
-26.14
-34.50
-42.19
-49.54
-57.18
-65.72
-75.28
-85.07
-93.36
-97.85
-96.52
-88.48
-74.44
-56.60
-37.84
-20.68
-6.56
4.36
12.82
19.77
25.84
31.22
35.78
39.39
42.11
44.16
45.78
47.01
47.65
47.38
45.97
43.50
40.40
37.34
34.89
33.26
32.11
30.72
28.31
24.42
19.13
13.05
7.02
1.82
-2.15
-4.97
-7.16
-9.58
-13.13
-18.47
-25.64
-33.83
-41.36
-46.00
-45.65
-39.06
-26.38
-9.14
10.27
29.33
46.24
60.19
71.32
80.33
87.93
94.58
100.30
104.86
107.81
108.65
106.83
101.82
93.16
80.56
64.05
44.07
21.61
-1.79
-24.19
-43.56
-58.40
-68.18
-73.63
-76.50
-79.02
-83.09
-89.83
-99.40
-111.31
-124.76
-138.80
-152.22
-163.36
-170.19
-170.80
-164.05
-150.23
-131.08
-109.31
-87.74
-68.43
-52.20
-38.79
-27.26
-16.64
-6.42
3.37
12.23
19.56
24.95
28.41
30.31
31.26
31.81
32.31
32.79
33.11
33.05
32.41
31.03
28.76
25.44
20.98
15.43
9.12
2.57
-3.66
-9.22
-14.22
-19.26
-25.26
-33.07
-43.01
-54.45
-65.75
-74.56
-78.46
-75.81
-66.26
-50.97
-32.20
-12.53
5.81
21.49
34.14
44.05
51.84
58.03
62.98
66.81
69.59
71.39
72.38
72.79
72.78
72.45
71.72
70.46
68.57
66.10
63.19
59.97
56.38
52.12
46.67
39.64
30.96
21.08
10.90
1.40
-6.65
-13.02
-18.07
-22.70
-28.04
-35.11
-44.47
-55.81
-67.77
-78.15
-84.42
-84.54
-77.65
-64.50
-47.21
-28.57
-11.15
3.38
14.51
22.72
28.94
34.10
38.84
43.37
47.59
51.22
53.93
55.45
55.69
54.75
52.91
50.55
48.07
45.72
43.55
41.36
38.74
35.32
30.84
25.35
19.21
12.89
6.82
1.21
-4.09
-9.58
-15.95
-23.80
-33.22
-43.48
-53.04
-59.74
-61.58
-57.33
-47.15
-32.50
-15.77
0.58
14.71
25.76
33.84
39.60
43.73
46.63
48.33
48.70
47.66
45.44
42.57
39.67
37.17
35.11
33.06
30.35
26.42
21.13
14.81
8.17
1.87
-3.75
-8.80
-13.79
-19.35
-25.99
-33.93
-43.09
-53.09
-63.18
-72.18
-78.52
-80.55
-77.10
-68.02
-54.38
-38.14
-21.65
-6.85
5.22
14.44
21.35
26.57
30.52
33.32
35.00
35.53
34.96
33.47
31.39
29.06
26.79
24.54
22.08
19.16
15.46
10.84
5.53
0.10
-4.78
-8.76
-12.14
-15.62
-19.54
-24.31
-30.38
-37.83
-46.42
-55.51
-64.10
-71.44
-76.49
-77.49
-73.64
-65.66
-54.90
-42.93
-31.08
-20.13
-11.33
-5.54
-2.05
-0.85
-2.75
-8.01
-16.19
-26.25
-37.00
-48.63
-61.45
-73.93
-85.46
-96.60
-107.75
-119.01
-129.90
-132.11
-120.01
-102.20
-81.72
-57.34
-32.37
-12.03
-1.28
-2.60
-14.61
-33.65
-54.03
-68.33
-72.05
-64.60
-47.51
-23.48
4.41
33.21
59.49
80.57
96.33
107.04
112.96
115.14
115.01
113.96
112.99
112.02
110.51
108.64
106.20
102.71
98.41
94.31
91.66
91.39
93.15
95.49
96.61
94.33
86.78
73.27
54.32
31.36
6.37
-18.49
-40.93
-58.34
-68.54
-70.34
-63.93
-50.93
-34.01
-16.11
0.40
14.13
24.88
33.05
39.28
44.06
47.73
50.62
53.04
55.23
57.15
58.74
59.69
59.42
57.17
52.14
43.72
31.71
16.43
-1.00
-18.35
-33.47
-45.23
-54.03
-61.19
-67.95
-74.60
-80.35
-83.77
-82.51
-75.48
-63.72
-50.14
-38.09
-29.84
-26.14
-26.35
-28.91
-29.81
-25.41
-13.84
4.40
27.27
52.26
76.88
98.77
116.05
130.43
144.38
159.94
177.82
197.81
219.07
239.82
257.10
253.22
217.47
151.73
70.91
-7.25
-71.38
-117.41
-145.38
-156.71
-154.46
-139.04
-112.01
-77.90
-43.48
-14.95
4.69
15.99
21.71
22.82
22.93
24.51
27.83
31.31
33.04
32.06
28.37
22.38
14.43
6.39
-0.24
-4.69
-7.08
-7.91
-7.66
-6.88
-6.24
-6.42
-6.87
-6.90
-6.06
-4.35
-2.29
-0.56
0.12
-0.89
-4.03
-9.03
-15.26
-21.77
-27.23
-30.16
-29.25
-23.91
-14.65
-2.94
9.56
21.58
32.80
43.75
55.30
67.78
80.50
91.79
99.68
102.74
100.60
93.98
84.17
72.28
58.94
44.28
28.47
12.24
-3.13
-16.12
-25.84
-32.57
-37.73
-43.38
-51.25
-62.14
-75.70
-90.82
-106.04
-120.06
-131.91
-140.93
-146.95
-150.50
-152.81
-155.34
-158.86
-162.72
-164.78
-162.35
-153.78
-139.54
-122.27
-105.47
-91.74
-81.54
-73.28
-64.65
-54.25
-42.45
-31.14
-22.49
-17.58
-15.83
-15.37
-14.08
-10.61
-4.94
1.83
7.93
11.82
12.65
10.37
5.51
-1.04
-8.20
-14.76
-19.40
-20.82
-18.10
-11.11
-0.63
11.74
24.10
34.88
43.22
49.06
52.78
54.90
55.78
55.58
54.44
52.63
50.52
48.47
46.55
44.52
41.84
37.93
32.43
25.47
17.64
9.84
2.94
-2.54
-6.63
-10.00
-13.64
-18.63
-25.69
-34.97
-45.89
-57.21
-67.19
-73.89
-75.65
-71.55
-61.79
-47.74
-31.57
-15.67
-1.83
9.01
16.91
22.41
26.12
28.35
29.14
28.46
26.46
23.63
20.66
18.20
16.56
15.60
14.79
13.55
11.55
8.93
6.23
4.10
2.99
2.83
3.06
2.76
0.99
-2.94
-9.22
-17.33
-25.96
-33.10
-36.42
-33.97
-24.90
-9.94
8.65
27.83
44.80
57.85
66.75
72.42
76.10
78.68
80.30
80.56
79.05
75.74
71.20
66.33
61.92
58.35
55.41
52.51
48.94
44.19
38.12
30.89
22.90
14.54
6.06
-2.53
-11.46
-21.00
-31.42
-42.83
-55.22
-68.37
-81.76
-94.46
-104.92
-111.25
-111.61
-104.91
-91.38
-72.69
-51.47
-30.50
-11.86
3.52
15.74
25.44
33.21
39.31
43.69
46.32
47.47
47.73
47.83
48.26
48.97
49.32
48.30
44.94
38.77
29.97
19.33
7.92
-3.35
-13.95
-23.91
-33.56
-43.36
-53.66
-64.51
-75.59
-86.18
-95.16
-101.17
-102.85
-99.25
-90.24
-76.63
-60.01
-42.33
-25.31
-9.98
3.37
15.01
25.46
35.11
44.05
52.19
59.32
65.42
70.67
75.52
80.51
86.11
92.54
99.73
107.42
115.08
121.97
127.06
129.08
126.75
119.09
105.88
87.90
66.76
44.48
22.75
2.42
-16.61
-34.97
-53.11
-70.69
-86.47
-98.66
-105.71
-106.97
-102.90
-94.94
-84.87
-74.31
-64.36
-55.59
-48.24
-42.30
-37.66
-34.12
-31.41
-29.35
-27.97
-27.51
-28.39
-31.04
-35.78
-42.66
-51.19
-60.29
-68.30
-73.33
-73.98
-69.90
-62.10
-52.64
-43.72
-36.88
-32.55
-30.37
-29.80
-30.67
-33.17
-37.32
-42.44
-47.07
-49.40
-48.14
-43.10
-35.18
-25.78
-16.10
-6.66
2.62
11.87
20.86
28.76
34.47
37.22
36.89
34.22
30.50
26.98
24.43
22.89
21.84
20.57
18.70
16.37
14.22
13.03
13.29
14.90
17.06
18.56
18.14
14.86
8.44
-0.60
-11.03
-21.05
-28.70
-32.25
-30.70
-24.09
-13.51
-0.84
11.92
23.22
32.30
39.13
44.05
47.30
48.76
48.07
44.94
39.54
32.66
25.49
19.22
14.68
12.11
11.21
11.42
12.16
12.99
13.63
13.95
13.83
13.10
11.45
8.41
3.45
-3.90
-13.74
-25.65
-38.59
-51.12
-61.77
-69.34
-73.22
-73.30
-69.87
-63.42
-54.56
-44.07
-32.92
-22.30
-13.42
-7.26
-4.22
-4.05
-5.85
-8.44
-10.72
-12.07
-12.47
-12.41
-12.57
-13.38
-14.74
-15.99
-16.10
-14.03
-9.17
-1.52
8.20
18.69
28.35
35.74
40.22
42.29
43.59
46.30
52.23
62.02
74.96
89.45
103.92
117.48
130.10
142.03
153.07
162.11
167.42
167.46
161.74
151.22
137.93
124.12
111.42
100.29
90.14
79.82
68.24
54.89
39.90
23.93
7.74
-8.09
-23.42
-38.43
-53.52
-69.02
-84.96
-100.85
-115.59
-127.57
-134.93
-135.94
-129.56
-115.79
-95.90
-72.20
-47.59
-24.82
-5.98
7.91
16.87
21.71
23.52
23.36
22.00
19.86
17.17
14.02
10.50
6.66
2.52
-1.90
-6.64
-11.76
-17.35
-23.50
-30.40
-38.33
-47.53
-57.99
-69.01
-79.01
-85.59
-86.16
-78.89
-63.52
-41.83
-17.12
6.72
26.54
40.79
49.73
54.85
58.06
60.75
63.51
66.14
68.00
68.39
66.72
62.70
56.31
47.85
37.85
27.07
16.33
6.30
-2.66
-10.64
-18.14
-25.95
-34.84
-45.03
-55.80
-65.31
-70.90
-69.94
-60.83
-43.88
-21.31
3.36
26.50
45.55
59.50
68.77
74.50
77.80
79.39
79.57
78.57
76.64
74.11
71.07
67.21
61.84
54.13
43.67
30.71
16.23
1.59
-12.06
-24.26
-35.38
-46.43
-58.54
-72.35
-87.47
-102.33
-114.31
-120.35
-117.88
-105.73
-84.72
-57.55
-28.03
0.04
23.94
42.48
55.82
64.83
70.44
73.36
74.10
73.23
71.47
69.49
67.67
65.92
63.65
60.15
54.98
48.22
40.49
32.69
25.67
19.85
15.03
10.36
4.53
-3.80
-15.44
-30.19
-46.51
-61.71
-72.56
-76.21
-71.15
-57.79
-38.34
-16.17
5.23
23.18
36.31
44.54
48.64
49.66
48.52
45.90
42.30
38.15
33.84
29.53
25.11
20.24
14.56
7.90
0.51
-7.00
-13.92
-19.74
-24.45
-28.67
-33.52
-40.26
-49.64
-61.43
-74.13
-85.08
-91.19
-90.00
-80.56
-63.98
-42.99
-21.11
-1.36
14.44
25.92
33.66
38.48
40.92
41.15
39.27
35.66
31.06
26.36
22.18
18.60
15.06
10.72
4.91
-2.51
-11.02
-19.73
-27.74
-34.60
-40.53
-46.37
-53.33
-62.43
-74.01
-87.31
-100.42
-110.68
-115.45
-112.86
-102.46
-85.36
-63.82
-40.62
-18.29
1.43
17.71
30.41
39.82
46.24
49.95
51.26
50.62
48.58
45.82
42.81
39.69
36.24
31.98
26.53
19.82
12.24
4.54
-2.54
-8.58
-13.77
-18.92
-25.25
-33.89
-45.44
-59.46
-74.40
-87.73
-96.59
-98.54
-92.34
-78.34
-58.40
-35.35
-12.15
8.84
26.27
39.80
49.69
56.41
60.31
61.65
60.75
58.15
54.65
50.99
47.57
44.18
40.11
34.62
27.44
19.03
10.56
3.31
-1.95
-5.44
-8.37
-12.45
-19.22
-29.42
-42.67
-57.42
-71.31
-81.54
-85.59
-81.76
-69.79
-50.98
-27.94
-3.85
18.34
36.70
50.50
60.00
65.94
69.00
69.69
68.35
65.39
61.43
57.07
52.81
48.68
44.34
39.23
32.92
25.39
17.12
8.89
1.39
-5.02
-10.66
-16.35
-23.23
-32.30
-43.98
-57.67
-71.76
-83.76
-90.91
-91.00
-83.12
-68.06
-48.14
-26.46
-5.96
11.40
24.93
34.88
41.87
46.38
48.57
48.55
46.64
43.52
40.04
36.79
33.89
30.91
27.20
22.31
16.27
9.62
3.11
-2.68
-7.63
-12.28
-17.64
-24.88
-34.84
-47.49
-61.64
-74.92
-84.39
-87.24
-81.88
-68.46
-48.99
-26.68
-4.87
13.89
28.49
39.08
46.41
51.23
53.83
54.17
52.24
48.52
43.88
39.32
35.49
32.28
28.90
24.31
17.70
8.94
-1.31
-11.89
-21.61
-29.74
-36.32
-42.12
-48.41
-56.50
-67.22
-80.48
-95.08
-108.72
-118.41
-121.26
-115.34
-100.38
-78.00
-51.32
-23.97
0.96
21.67
37.80
49.94
58.94
65.36
69.28
70.60
69.46
66.49
62.68
59.01
55.96
53.22
49.85
44.80
37.47
28.07
17.60
7.44
-1.38
-8.52
-14.56
-20.64
-28.09
-37.94
-50.63
-65.75
-81.92
-96.85
-107.62
-111.39
-106.27
-92.13
-70.79
-45.53
-20.04
2.72
21.22
35.35
45.79
53.30
58.17
60.34
59.75
56.74
52.23
47.42
43.36
40.38
38.02
35.24
30.97
24.68
16.61
7.75
-0.71
-7.93
-13.86
-19.22
-25.19
-32.93
-43.20
-56.11
-71.04
-86.59
-100.63
-110.55
-113.76
-108.49
-94.51
-73.42
-48.26
-22.53
0.85
20.33
35.60
47.12
55.33
60.33
62.04
60.61
56.84
52.09
47.77
44.64
42.42
39.94
35.74
28.91
19.59
8.92
-1.51
-10.39
-17.35
-23.01
-28.77
-36.20
-46.61
-60.65
-78.05
-97.46
-116.34
-131.28
-138.74
-136.19
-123.15
-101.54
-75.15
-48.29
-24.32
-4.67
11.07
24.38
36.66
48.40
59.14
67.84
73.65
76.43
76.77
75.74
74.33
73.10
71.96
70.39
67.73
63.56
57.83
50.89
43.26
35.42
27.57
19.63
11.27
2.09
-8.19
-19.83
-33.00
-47.81
-63.99
-80.46
-95.11
-104.92
-106.85
-99.01
-81.65
-57.37
-30.27
-4.52
17.08
33.73
46.29
56.28
64.84
72.36
78.56
83.03
85.62
86.47
85.91
84.14
81.21
77.08
71.78
65.56
58.79
51.93
45.28
38.98
33.04
27.36
21.90
16.61
11.44
6.34
1.10
-4.62
-11.36
-19.80
-30.52
-43.56
-57.83
-70.99
-79.78
-81.08
-73.12
-56.35
-33.50
-8.58
14.51
33.26
47.00
56.50
63.10
67.83
71.16
73.18
74.00
74.08
74.03
74.41
75.34
76.49
77.23
76.95
75.31
72.32
68.22
63.31
57.84
52.00
45.98
39.95
34.09
28.44
22.85
16.94
10.14
1.73
-8.97
-22.30
-37.88
-54.25
-68.84
-78.53
-80.52
-73.45
-58.05
-36.94
-13.82
7.88
25.98
39.90
50.25
58.07
64.14
68.65
71.43
72.29
71.32
69.01
66.06
63.05
60.23
57.45
54.21
50.01
44.54
37.85
30.41
22.84
15.65
9.05
2.87
-3.31
-9.93
-17.31
-25.67
-35.10
-45.55
-56.51
-66.89
-74.99
-78.84
-76.87
-68.62
-54.95
-37.89
-19.87
-3.12
10.86
21.32
28.05
31.17
31.03
28.25
23.79
18.85
14.55
11.58
9.93
8.92
7.42
4.38
-0.72
-7.60
-15.36
-22.85
-29.20
-34.28
-38.69
-43.65
-50.44
-59.92
-72.08
-85.73
-98.60
-107.84
-110.84
-106.03
-93.51
-74.97
-53.05
-30.42
-9.03
10.19
26.96
41.20
52.62
60.79
65.47
67.04
66.50
65.22
64.44
64.70
65.69
66.45
65.72
62.61
56.90
49.14
40.45
31.95
24.39
17.85
11.81
5.42
-2.15
-11.49
-22.82
-35.84
-49.58
-62.28
-71.62
-75.25
-71.61
-60.59
-43.78
-23.95
-4.15
13.30
27.25
37.69
45.21
50.38
53.49
54.63
53.98
51.94
49.20
46.39
43.84
41.41
38.58
34.72
29.49
23.05
16.09
9.61
4.42
0.84
-1.56
-3.83
-7.26
-13.03
-21.80
-33.45
-46.88
-60.07
-70.42
-75.39
-73.33
-64.10
-49.20
-31.33
-13.36
2.51
15.37
25.39
33.27
39.56
44.31
47.17
47.82
46.45
43.85
41.09
39.04
37.92
37.22
35.92
33.08
28.26
21.76
14.50
7.52
1.58
-3.24
-7.49
-12.07
-17.94
-25.74
-35.62
-47.15
-59.22
-70.20
-78.06
-80.91
-77.51
-67.78
-52.95
-35.21
-17.12
-0.75
12.71
23.09
30.80
36.42
40.35
42.74
43.76
43.74
43.20
42.71
42.58
42.73
42.70
41.96
40.23
37.67
34.82
32.32
30.53
29.30
27.99
25.71
21.73
15.85
8.63
1.34
-4.42
-7.21
-6.32
-2.03
4.43
11.41
17.38
21.50
23.78
24.80
25.24
25.36
24.92
23.31
20.06
15.13
9.07
2.75
-3.09
-8.21
-12.99
-18.18
-24.44
-31.93
-40.14
-48.20
-55.23
-60.89
-65.45
-69.74
-74.79
-81.54
-90.57
-101.85
-114.53
-126.78
-136.05
-139.57
-135.33
-122.89
-103.75
-80.95
-58.06
-38.06
-22.54
-11.68
-4.65
-0.35
2.11
3.26
3.46
3.13
2.82
3.08
4.13
5.62
6.57
5.80
2.60
-2.68
-8.48
-12.56
-13.01
-9.28
-2.56
4.62
9.31
9.34
3.94
-6.00
-18.31
-30.14
-38.63
-41.50
-37.62
-27.30
-12.16
5.24
22.26
36.92
48.34
56.66
62.55
66.63
69.12
69.91
68.87
66.19
62.51
58.68
55.42
52.94
50.82
48.26
44.44
38.99
32.14
24.60
17.15
10.27
3.92
-2.50
-9.85
-18.96
-30.31
-43.80
-58.59
-73.14
-85.41
-93.28
-95.21
-90.64
-80.17
-65.25
-47.62
-28.73
-9.44
9.80
28.53
45.89
60.61
71.42
77.55
79.15
77.30
73.57
69.46
65.87
62.89
60.03
56.49
51.68
45.39
37.94
29.94
22.06
14.75
8.07
1.66
-5.05
-12.70
-21.83
-32.77
-45.55
-59.70
-74.07
-86.81
-95.73
-98.96
-95.63
-86.35
-73.08
-58.48
-44.98
-34.11
-26.22
-20.86
-17.22
-14.69
-12.97
-11.86
-11.05
-9.85
-7.29
-2.43
5.15
14.97
25.63
35.16
41.85
44.82
44.31
41.38
37.14
32.10
25.87
17.45
5.88
-9.11
-26.74
-45.21
-62.13
-75.07
-82.19
-82.62
-76.60
-65.43
-50.99
-35.24
-19.71
-5.28
7.80
19.63
30.19
39.16
45.84
49.42
49.35
45.70
39.22
31.19
22.92
15.25
8.33
1.72
-5.18
-12.75
-20.91
-29.23
-37.26
-44.82
-52.13
-59.62
-67.63
-76.22
-85.08
-93.62
-101.07
-106.59
-109.26
-108.12
-102.27
-91.09
-74.54
-53.28
-28.67
-2.47
23.58
47.98
69.58
87.51
101.05
109.57
112.75
110.77
104.48
95.37
85.13
75.33
66.93
60.13
54.58
49.73
45.19
40.97
37.41
34.86
33.35
32.36
30.87
27.65
21.65
12.33
-0.19
-15.04
-30.64
-44.76
-54.75
-58.08
-52.95
-38.89
-17.15
9.60
37.98
64.95
88.56
108.24
124.52
138.26
150.01
159.66
166.48
169.62
168.46
162.92
153.50
141.07
126.74
111.61
96.66
82.71
70.34
59.95
51.72
45.65
41.48
38.74
36.66
34.24
30.39
24.08
14.43
0.94
-16.44
-37.09
-59.59
-81.65
-100.48
-113.40
-118.64
-115.97
-106.72
-93.34
-78.59
-64.63
-52.67
-42.96
-35.24
-29.21
-24.78
-22.02
-20.85
-20.81
-21.12
-20.98
-20.03
-18.54
-17.35
-17.44
-19.31
-22.72
-26.72
-30.15
-32.21
-32.92
-33.07
-33.98
-36.92
-42.77
-51.83
-63.69
-77.09
-89.97
-99.57
-103.17
-99.05
-87.27
-69.90
-50.19
-31.35
-15.25
-2.11
8.99
19.08
28.38
36.23
41.61
43.95
43.59
41.56
39.01
36.65
34.52
32.23
29.29
25.47
20.80
15.64
10.38
5.37
0.80
-3.36
-7.29
-11.32
-15.77
-20.95
-27.15
-34.69
-43.81
-54.41
-65.76
-76.23
-83.52
-85.28
-79.93
-67.36
-49.14
-28.01
-7.00
11.56
26.52
37.94
46.59
53.31
58.62
62.62
65.20
66.31
66.10
64.88
62.99
60.62
57.72
54.05
49.41
43.77
37.41
30.85
24.65
19.18
14.47
10.20
5.81
0.72
-5.54
-13.26
-22.60
-33.49
-45.46
-57.40
-67.57
-73.82
-74.25
-67.96
-55.54
-38.99
-21.06
-4.34
9.58
20.33
28.51
35.00
40.41
44.81
47.85
49.19
48.76
46.98
44.49
41.91
39.55
37.27
34.59
31.03
26.35
20.80
14.95
9.53
4.97
1.25
-2.21
-6.20
-11.55
-18.80
-28.10
-39.15
-51.23
-63.08
-72.97
-79.02
-79.66
-74.20
-63.17
-48.30
-31.93
-16.24
-2.70
8.21
16.75
23.46
28.73
32.64
35.16
36.29
36.32
35.69
34.80
33.82
32.51
30.42
27.22
22.89
17.90
13.02
8.99
6.12
4.12
2.20
-0.73
-5.59
-12.97
-22.88
-34.66
-46.93
-57.68
-64.61
-65.79
-60.40
-49.04
-33.77
-17.31
-2.15
10.26
19.73
26.96
32.77
37.54
41.01
42.62
42.05
39.63
36.19
32.80
30.20
28.47
27.04
25.01
21.62
16.62
10.39
3.74
-2.49
-7.80
-12.26
-16.47
-21.29
-27.60
-36.06
-46.79
-59.30
-72.35
-83.97
-91.84
-93.87
-88.90
-77.17
-60.34
-40.98
-21.77
-4.68
9.44
20.69
29.67
36.91
42.59
46.50
48.44
48.48
47.16
45.29
43.58
42.29
41.07
39.07
35.54
30.21
23.54
16.55
10.33
5.54
2.04
-1.01
-4.80
-10.48
-18.67
-29.39
-41.90
-54.75
-65.97
-73.39
-75.18
-70.44
-59.62
-44.43
-27.34
-10.74
3.79
15.74
25.40
33.27
39.59
44.14
46.54
46.69
44.97
42.18
39.09
36.06
32.89
28.99
23.84
17.44
10.37
3.62
-1.88
-5.72
-8.20
-10.27
-13.16
-18.00
-25.48
-35.60
-47.66
-60.13
-70.96
-77.82
-78.80
-73.01
-60.98
-44.63
-26.64
-9.61
4.74
15.87
24.17
30.40
35.11
38.43
40.17
40.26
39.03
37.12
35.24
33.68
32.16
29.88
26.06
20.36
13.16
5.47
-1.60
-7.33
-11.70
-15.41
-19.59
-25.39
-33.55
-44.10
-56.09
-67.66
-76.34
-79.69
-76.08
-65.35
-48.95
-29.42
-9.54
8.55
23.86
36.35
46.40
54.19
59.49
61.89
61.19
57.85
52.94
47.80
43.50
40.48
38.37
36.27
33.18
28.45
22.01
14.38
6.36
-1.31
-8.27
-14.68
-21.11
-28.31
-36.96
-47.41
-59.47
-72.19
-83.91
-92.39
-95.36
-91.17
-79.53
-61.68
-40.15
-17.96
2.33
19.27
32.63
43.00
51.18
57.68
62.55
65.67
66.96
66.75
65.67
64.50
63.76
63.47
63.06
61.74
58.84
54.21
48.32
42.02
36.06
30.76
25.85
20.65
14.45
6.80
-2.45
-13.17
-25.04
-37.43
-49.18
-58.48
-63.17
-61.41
-52.46
-37.18
-17.82
2.67
21.68
37.74
50.71
61.38
70.79
79.65
88.02
95.54
101.74
106.36
109.46
111.29
111.99
111.37
108.75
103.25
94.15
81.43
65.93
49.22
32.99
18.35
5.40
-6.73
-19.40
-33.75
-50.22
-68.55
-88.05
-108.06
-127.95
-146.92
-163.59
-175.84
-181.30
-178.25
-166.43
-147.46
-124.41
-100.78
-79.40
-61.66
-47.53
-36.17
-26.74
-18.92
-12.84
-8.69
-6.08
-3.77
0.07
7.23
18.62
33.78
50.90
67.46
81.11
90.52
95.70
97.67
97.83
97.24
96.20
94.29
90.70
84.68
75.79
63.92
49.09
31.53
11.83
-8.71
-27.92
-43.04
-51.49
-51.91
-44.83
-32.69
-19.03
-7.19
0.83
4.77
5.82
5.62
5.41
5.60
5.91
5.88
5.44
4.96
5.13
6.48
9.06
12.31
15.28
17.03
16.89
14.76
10.88
5.63
-0.72
-8.23
-17.15
-27.77
-40.18
-54.17
-69.30
-84.97
-100.37
-114.30
-125.12
-130.85
-129.76
-121.10
-105.57
-85.32
-63.24
-42.09
-23.61
-8.34
4.02
14.03
21.90
27.45
30.42
30.93
29.69
27.84
26.54
26.34
26.93
27.16
25.54
20.92
13.06
2.76
-8.39
-18.77
-27.36
-34.18
-40.20
-46.84
-55.39
-66.51
-80.05
-95.07
-109.83
-122.01
-128.89
-127.89
-117.38
-97.47
-70.29
-39.59
-9.54
16.56
37.18
52.53
63.78
72.05
77.79
80.85
81.00
78.60
74.78
71.04
68.57
67.76
68.06
68.50
68.28
67.28
66.17
65.96
67.45
70.64
74.53
77.39
77.29
72.68
62.91
48.43
30.82
12.50
-3.62
-14.79
-19.06
-15.82
-6.07
7.93
23.28
37.23
47.93
54.59
57.33
56.77
53.67
48.68
42.26
34.69
26.03
16.19
4.99
-7.54
-21.05
-34.87
-48.13
-60.08
-70.30
-78.79
-85.88
-92.17
-98.34
-105.03
-112.51
-120.21
-126.49
-128.76
-124.21
-110.97
-89.13
-61.03
-30.62
-2.18
21.08
37.81
48.39
54.23
56.89
57.47
56.58
54.53
51.60
48.02
43.94
39.19
33.43
26.29
17.73
8.13
-1.74
-11.11
-19.51
-27.06
-34.47
-42.84
-53.26
-66.20
-81.09
-96.05
-108.09
-113.92
-111.02
-98.59
-77.99
-52.30
-25.26
-0.12
21.20
38.13
51.05
60.60
67.29
71.46
73.46
73.82
73.19
72.10
70.75
68.92
66.12
61.94
56.35
49.81
43.05
36.87
31.65
27.24
22.91
17.58
10.19
0.08
-12.50
-26.22
-38.71
-47.14
-49.13
-43.67
-31.64
-15.59
1.18
15.81
26.74
33.92
38.26
40.83
42.19
42.28
40.84
37.97
34.34
31.09
29.18
28.85
29.41
29.48
27.70
23.38
16.89
9.46
2.49
-3.03
-7.07
-10.47
-14.55
-20.58
-29.39
-41.18
-55.32
-70.34
-83.89
-93.21
-95.78
-90.22
-77.00
-58.44
-38.05
-19.39
-4.89
4.65
9.86
12.00
12.19
10.99
8.54
4.96
0.64
-3.79
-7.78
-11.23
-14.56
-18.64
-24.26
-31.82
-41.04
-51.08
-60.88
-69.49
-76.57
-82.61
-88.83
-96.78
-107.59
-121.29
-136.39
-150.09
-158.88
-159.42
-149.35
-127.76
-95.38
-54.58
-9.19
36.02
76.11
107.05
126.71
135.36
135.45
130.60
124.37
119.19
115.92
114.14
112.79
110.86
107.83
103.60
98.29
91.95
84.35
75.25
64.51
52.29
38.95
24.90
10.45
-4.05
-17.90
-29.89
-38.40
-41.89
-39.63
-32.09
-20.95
-8.46
3.30
13.10
20.69
26.49
31.12
35.02
38.27
40.83
42.66
43.86
44.56
44.79
44.32
42.77
39.81
35.47
30.24
25.00
20.63
17.68
16.04
14.90
13.00
9.00
2.05
-7.76
-19.09
-29.49
-35.93
-35.73
-27.55
-12.05
8.22
29.47
47.92
60.77
66.90
66.60
61.08
51.78
39.94
26.77
13.51
1.57
-7.75
-13.73
-16.61
-17.64
-18.60
-21.05
-25.63
-31.84
-38.31
-43.51
-46.49
-47.38
-47.31
-48.05
-51.29
-58.03
-68.14
-80.07
-91.10
-97.90
-97.59
-88.71
-71.83
-49.53
-25.47
-3.22
14.85
28.05
37.05
43.11
47.23
49.77
50.59
49.53
46.88
43.44
40.25
38.07
36.98
36.28
34.76
31.31
25.51
17.90
9.76
2.52
-2.91
-6.67
-9.77
-13.70
-19.69
-28.33
-39.41
-52.03
-64.87
-76.28
-84.38
-87.32
-83.78
-73.52
-57.65
-38.46
-18.67
-0.49
15.00
27.89
38.83
48.26
56.02
61.43
63.86
63.40
60.93
57.85
55.37
53.94
53.05
51.60
48.49
43.28
36.32
28.57
21.06
14.40
8.54
2.94
-3.17
-10.47
-19.35
-29.90
-41.81
-54.25
-65.78
-74.52
-78.50
-76.40
-68.01
-54.44
-37.75
-20.19
-3.56
11.12
23.49
33.46
40.89
45.60
47.50
46.98
44.86
42.22
39.90
38.22
36.88
35.17
32.47
28.51
23.51
18.02
12.61
7.57
2.80
-2.17
-8.04
-15.49
-24.92
-36.13
-48.09
-58.94
-66.47
-68.82
-65.21
-56.28
-43.89
-30.39
-17.78
-7.21
1.08
7.36
11.95
15.01
16.56
16.77
16.10
15.14
14.40
13.97
13.50
12.41
10.16
6.58
1.97
-3.04
-7.75
-11.69
-14.92
-17.97
-21.80
-27.30
-34.85
-43.90
-52.79
-59.22
-61.01
-56.90
-47.15
-33.42
-18.14
-3.59
8.78
18.57
26.12
31.93
36.29
39.09
40.08
39.28
37.10
34.32
31.68
29.53
27.61
25.12
21.19
15.35
7.88
-0.20
-7.45
-12.50
-14.54
-13.52
-10.25
-6.15
-2.91
-2.07
-4.40
-9.60
-16.11
-21.62
-23.81
-21.25
-14.05
-3.63
7.89
18.70
27.94
35.74
42.75
49.39
55.46
60.18
62.72
62.76
60.74
57.72
54.82
52.64
51.02
49.12
45.89
40.61
33.23
24.43
15.29
6.90
-0.13
-5.90
-11.10
-16.82
-24.10
-33.63
-45.47
-58.78
-71.87
-82.37
-87.84
-86.49
-77.91
-63.33
-45.29
-26.85
-10.54
2.30
11.72
18.71
24.50
29.98
35.42
40.64
45.37
49.46
52.98
56.06
58.72
60.69
61.44
60.45
57.42
52.52
46.35
39.70
33.25
27.19
21.15
14.39
6.10
-4.25
-16.75
-31.06
-46.46
-61.91
-76.00
-87.03
-93.23
-93.23
-86.60
-74.14
-57.70
-39.56
-21.74
-5.46
8.96
21.66
32.86
42.44
50.10
55.53
58.70
59.89
59.47
57.67
54.48
49.73
43.40
35.80
27.63
19.75
12.85
7.16
2.38
-2.26
-7.68
-14.81
-24.21
-35.90
-49.06
-61.98
-72.24
-77.41
-75.82
-67.28
-53.26
-36.46
-19.84
-5.63
5.25
13.04
18.58
22.64
25.46
26.86
26.63
24.93
22.41
20.01
18.42
17.76
17.46
16.59
14.36
10.57
5.74
0.78
-3.45
-6.61
-9.05
-11.53
-14.92
-19.84
-26.54
-35.00
-44.96
-55.87
-66.70
-75.81
-81.18
-80.96
-74.22
-61.45
-44.56
-26.24
-9.07
5.31
16.45
24.83
31.20
36.08
39.47
41.17
41.07
39.52
37.26
35.11
33.64
32.87
32.27
31.05
28.53
24.49
19.24
13.53
8.10
3.45
-0.41
-3.93
-7.79
-12.65
-18.98
-26.93
-36.24
-46.14
-55.32
-62.05
-64.51
-61.34
-52.23
-38.15
-21.13
-3.66
12.08
24.81
34.33
41.22
46.40
50.64
54.32
57.39
59.61
60.74
60.81
60.04
58.79
57.35
55.75
53.72
50.80
46.61
41.05
34.44
27.41
20.66
14.64
9.38
4.47
-0.74
-6.89
-14.44
-23.61
-34.40
-46.51
-59.12
-70.79
-79.53
-83.33
-80.87
-72.22
-58.90
-43.42
-28.29
-15.18
-4.63
3.71
10.44
15.85
19.76
21.84
22.05
20.86
19.16
17.85
17.37
17.53
17.56
16.57
13.96
9.75
4.53
-0.82
-5.52
-9.28
-12.43
-15.76
-20.22
-26.57
-35.15
-45.61
-56.88
-67.25
-74.62
-77.05
-73.32
-63.43
-48.70
-31.30
-13.61
2.58
16.33
27.45
36.10
42.33
45.99
46.93
45.40
42.24
38.70
36.01
34.79
34.80
35.07
34.34
31.67
26.82
20.28
13.02
6.05
-0.01
-5.11
-9.75
-14.82
-21.30
-30.04
-41.39
-54.98
-69.50
-82.75
-92.09
-95.20
-90.82
-79.27
-62.35
-42.77
-23.25
-5.79
8.64
19.95
28.53
34.79
39.00
41.33
42.04
41.59
40.59
39.60
38.91
38.36
37.33
35.03
30.90
25.02
18.37
12.62
9.60
10.53
15.41
22.83
30.36
35.28
35.36
29.50
17.92
2.17
-15.15
-30.88
-41.96
-46.28
-43.25
-34.02
-21.06
-7.24
5.06
14.69
21.64
26.54
30.05
32.46
33.70
33.62
32.34
30.26
27.92
25.73
23.79
21.82
19.38
16.04
11.61
6.26
0.54
-4.86
-9.34
-12.68
-15.16
-17.47
-20.52
-25.09
-31.62
-40.11
-50.00
-60.14
-68.83
-73.98
-73.64
-66.56
-52.83
-33.97
-12.53
8.70
27.60
43.12
55.33
64.84
72.24
77.69
80.96
81.76
80.12
76.54
71.92
67.13
62.67
58.48
54.00
48.54
41.68
33.55
24.80
16.33
8.86
2.67
-2.48
-7.21
-12.18
-17.96
-24.91
-33.26
-43.07
-54.06
-65.39
-75.60
-82.82
-85.25
-81.86
-72.82
-59.44
-43.75
-27.84
-13.25
-0.88
8.90
15.93
20.08
21.33
19.87
16.36
11.76
7.13
3.22
0.24
-2.16
-4.73
-8.10
-12.47
-17.50
-22.42
-26.46
-29.24
-31.03
-32.74
-35.61
-40.76
-48.67
-58.81
-69.54
-78.37
-82.63
-80.32
-70.87
-55.35
-36.14
-16.07
2.55
18.43
31.35
41.62
49.53
55.02
57.75
57.63
55.08
51.18
47.26
44.30
42.52
41.23
39.19
35.26
28.98
20.80
11.92
3.69
-2.99
-8.04
-12.22
-16.83
-23.20
-32.25
-44.20
-58.34
-73.02
-85.80
-93.98
-95.30
-88.74
-74.93
-56.07
-35.25
-15.39
1.58
15.11
25.77
34.55
42.23
49.05
54.84
59.33
62.48
64.56
65.99
67.07
67.76
67.68
66.23
62.88
57.52
50.47
42.44
34.23
26.42
19.13
12.03
4.49
-4.24
-14.69
-27.02
-40.71
-54.48
-66.32
-73.94
-75.42
-69.95
-58.17
-42.05
-24.19
-6.94
8.21
20.82
31.13
39.63
46.63
52.18
56.19
58.66
59.76
59.84
59.30
58.50
57.61
56.54
55.01
52.68
49.36
45.26
40.90
36.92
33.62
30.63
26.88
20.95
11.66
-1.47
-18.07
-37.20
-57.66
-78.24
-97.73
-114.79
-127.97
-135.97
-138.10
-134.60
-126.67
-116.05
-104.40
-92.74
-81.38
-70.13
-58.78
-47.43
-36.55
-26.77
-18.47
-11.53
-5.27
1.27
8.91
17.91
27.86
37.78
46.56
53.39
58.06
60.93
62.65
63.79
64.55
64.69
63.56
60.37
54.40
45.14
32.54
17.24
0.75
-14.54
-25.80
-30.53
-27.44
-17.02
-1.44
16.08
32.41
45.44
54.44
59.94
63.03
64.65
65.25
64.81
63.12
60.15
56.23
51.98
48.05
44.82
42.17
39.62
36.45
32.17
26.64
20.15
13.25
6.49
0.17
-5.74
-11.48
-17.40
-23.86
-31.27
-40.08
-50.68
-63.09
-76.56
-89.31
-98.78
-102.31
-98.13
-86.13
-68.05
-46.94
-26.11
-8.07
6.03
16.31
23.54
28.48
31.48
32.56
31.73
29.37
26.34
23.73
22.41
22.67
24.08
25.71
26.57
26.01
24.06
21.25
18.31
15.67
13.18
10.17
5.69
-1.09
-10.48
-22.13
-34.99
-47.40
-57.38
-62.96
-62.76
-56.33
-44.50
-29.16
-12.74
2.54
15.25
24.97
31.96
36.68
39.40
40.07
38.68
35.48
31.22
26.93
23.51
21.37
20.08
18.75
16.35
12.30
6.69
0.23
-6.10
-11.57
-15.92
-19.55
-23.23
-27.99
-34.76
-44.23
-56.55
-70.99
-85.82
-98.42
-105.86
-105.75
-97.19
-81.10
-60.03
-37.33
-16.01
2.07
16.41
27.54
36.29
43.19
48.29
51.32
52.19
51.33
49.59
48.02
47.26
47.27
47.26
46.15
43.11
37.98
31.45
24.61
18.49
13.51
9.33
4.98
-0.66
-8.48
-18.88
-31.61
-45.71
-59.51
-70.85
-77.37
-77.28
-69.87
-56.00
-37.81
-18.18
0.30
15.95
28.27
37.69
44.96
50.59
54.67
57.00
57.42
56.13
53.74
51.05
48.68
46.78
44.95
42.50
38.77
33.50
27.01
19.98
13.26
7.49
2.80
-1.12
-4.98
-9.66
-16.00
-24.45
-34.80
-45.94
-55.84
-61.97
-61.97
-54.52
-39.94
-20.24
1.46
21.94
38.81
51.17
59.43
64.75
68.23
70.39
71.15
70.19
67.33
62.88
57.46
51.79
46.22
40.64
34.51
27.25
18.61
8.85
-1.31
-10.95
-19.40
-26.50
-32.68
-38.83
-45.96
-54.83
-65.70
-78.16
-91.05
-102.48
-110.12
-111.56
-105.08
-90.30
-68.55
-42.63
-16.06
8.03
27.74
42.58
53.17
60.47
65.22
67.71
68.08
66.68
64.15
61.29
58.64
56.20
53.38
49.21
42.93
34.33
23.97
12.95
2.53
-6.44
-13.81
-20.17
-26.65
-34.47
-44.48
-56.77
-70.41
-83.43
-93.20
-97.10
-93.40
-81.95
-64.41
-43.77
-23.29
-5.50
8.52
19.05
27.07
33.55
38.87
42.81
44.96
45.15
43.73
41.46
39.17
37.37
35.96
34.33
31.64
27.28
21.23
14.09
6.87
0.45
-4.80
-9.23
-13.71
-19.24
-26.61
-36.13
-47.62
-60.30
-72.82
-83.21
-89.24
-88.91
-81.22
-66.65
-47.20
-25.87
-5.60
11.53
24.74
34.42
41.50
46.82
50.77
53.32
54.34
53.91
52.44
50.53
48.72
47.23
45.81
44.00
41.27
37.34
32.28
26.43
20.27
14.20
8.42
2.95
-2.35
-7.64
-13.13
-19.13
-26.09
-34.54
-44.84
-56.68
-68.75
-78.70
-83.80
-81.75
-71.75
-54.92
-33.99
-12.43
6.80
21.99
32.97
40.62
46.19
50.61
54.23
56.95
58.49
58.72
57.81
56.07
53.85
51.30
48.35
44.76
40.31
34.93
28.71
21.99
15.21
8.79
3.01
-2.12
-6.90
-11.82
-17.43
-24.22
-32.48
-42.18
-52.87
-63.59
-72.80
-78.63
-79.31
-73.86
-62.51
-46.82
-29.13
-11.87
3.23
15.46
24.86
31.78
36.39
38.64
38.48
36.26
32.79
29.20
26.36
24.57
23.39
21.92
19.38
15.48
10.52
5.24
0.41
-3.54
-6.69
-9.58
-13.00
-17.82
-24.69
-33.86
-44.85
-56.38
-66.36
-72.39
-72.52
-65.95
-53.47
-37.17
-19.82
-3.82
9.39
19.56
27.14
32.69
36.45
38.26
37.93
35.68
32.28
28.76
26.05
24.47
23.61
22.54
20.29
16.22
10.44
3.61
-3.23
-9.17
-13.74
-17.11
-20.06
-23.65
-28.96
-36.67
-46.81
-58.58
-70.33
-79.84
-84.81
-83.56
-75.55
-61.65
-43.88
-24.81
-6.73
8.91
21.62
31.70
39.60
45.58
49.59
51.46
51.21
49.33
46.65
44.09
42.27
41.13
40.04
38.05
34.42
28.99
22.31
15.40
9.25
4.44
0.78
-2.49
-6.43
-11.97
-19.61
-29.27
-40.27
-51.36
-60.85
-66.87
-67.81
-62.84
-52.31
-37.73
-21.30
-5.24
8.86
20.33
29.19
35.77
40.28
42.78
43.28
42.05
39.61
36.65
33.66
30.80
27.86
24.45
20.35
15.59
10.50
5.60
1.29
-2.36
-5.69
-9.44
-14.57
-21.94
-31.97
-44.21
-57.14
-68.39
-75.31
-75.81
-69.14
-56.21
-39.30
-21.21
-4.29
10.18
22.00
31.57
39.31
45.21
48.99
50.41
49.64
47.40
44.67
42.21
40.23
38.30
35.60
31.44
25.61
18.54
11.11
4.27
-1.41
-5.96
-9.97
-14.46
-20.42
-28.62
-39.32
-52.03
-65.43
-77.45
-85.64
-87.82
-82.89
-71.25
-54.75
-36.10
-17.84
-1.69
11.76
22.70
31.61
38.73
43.93
46.98
47.91
47.16
45.57
43.98
42.89
42.20
41.23
39.17
35.40
29.92
23.36
16.70
10.80
6.00
1.93
-2.29
-7.68
-15.03
-24.62
-36.19
-48.84
-61.12
-71.14
-76.81
-76.48
-69.50
-56.61
-39.83
-21.82
-5.07
8.89
19.68
27.74
33.75
38.20
41.26
42.99
43.57
43.42
42.92
42.21
41.04
38.84
35.18
30.08
24.10
18.19
13.19
9.45
6.64
3.85
-0.10
-6.27
-15.24
-26.90
-40.17
-53.09
-63.12
-67.80
-65.52
-56.23
-41.45
-23.82
-6.17
9.43
22.04
31.79
39.25
44.89
48.83
50.94
51.19
49.92
47.85
45.70
43.91
42.31
40.29
37.03
32.03
25.37
17.76
10.20
3.52
-2.01
-6.76
-11.63
-17.67
-25.80
-36.45
-49.30
-63.16
-75.94
-85.09
-88.31
-84.30
-73.39
-57.43
-39.15
-21.19
-5.35
7.74
18.32
26.92
33.90
39.26
42.83
44.58
44.77
43.97
42.75
41.40
39.72
37.12
32.93
26.86
19.33
11.35
4.13
-1.53
-5.66
-9.18
-13.52
-20.10
-29.71
-42.24
-56.60
-70.84
-82.53
-89.24
-89.19
-81.77
-67.84
-49.48
-29.40
-10.11
6.69
20.33
30.96
39.11
45.33
50.00
53.38
55.72
57.26
58.17
58.41
57.71
55.70
52.08
46.92
40.69
34.15
28.03
22.81
18.48
14.54
10.18
4.43
-3.48
-13.86
-26.13
-38.65
-48.94
-54.29
-52.69
-43.69
-28.65
-10.31
8.15
24.25
36.68
45.40
50.92
53.86
54.58
53.38
50.82
47.77
45.20
43.55
42.33
40.19
35.41
26.83
14.51
-0.10
-14.62
-26.65
-34.55
-37.93
-37.59
-35.16
-32.59
-31.65
-33.65
-39.02
-47.14
-56.33
-64.14
-68.04
-66.19
-58.12
-44.81
-28.39
-11.29
4.49
17.82
28.38
36.29
41.68
44.56
44.98
43.30
40.34
37.20
34.80
33.38
32.38
30.61
26.89
20.64
12.19
2.67
-6.54
-14.48
-20.96
-26.66
-32.74
-40.46
-50.78
-63.96
-79.36
-95.17
-108.56
-116.14
-115.03
-103.88
-83.60
-57.25
-29.06
-3.06
18.14
33.73
44.44
51.54
56.14
58.77
59.58
58.75
56.86
54.81
53.52
53.51
54.55
55.73
55.85
53.93
49.72
43.76
37.15
30.98
25.80
21.35
16.71
10.74
2.52
-8.27
-21.29
-35.60
-49.73
-61.85
-70.03
-72.62
-68.73
-58.62
-43.75
-26.41
-9.09
6.31
18.81
28.32
35.21
39.92
42.64
43.46
42.57
40.41
37.63
34.86
32.42
30.24
27.96
25.20
21.88
18.22
14.76
11.94
9.90
8.21
5.94
1.94
-4.86
-14.96
-27.96
-42.37
-55.79
-65.48
-69.08
-65.40
-54.86
-39.41
-21.94
-5.23
8.81
19.63
27.72
34.03
39.20
43.25
45.72
46.14
44.52
41.55
38.29
35.68
34.06
32.96
31.38
28.28
23.17
16.31
8.57
1.00
-5.70
-11.38
-16.51
-21.85
-28.17
-36.07
-45.88
-57.55
-70.50
-83.44
-94.34
-100.78
-100.59
-92.72
-77.76
-57.89
-36.20
-15.59
2.06
16.24
27.49
36.68
44.39
50.59
54.91
57.03
57.06
55.65
53.74
52.17
51.35
51.10
50.82
49.80
47.50
43.84
39.13
33.94
28.81
23.90
18.96
13.40
6.54
-2.12
-12.79
-25.25
-38.82
-52.25
-63.76
-71.28
-72.92
-67.67
-55.84
-39.15
-20.20
-1.70
14.41
27.29
37.12
44.49
49.91
53.48
55.02
54.41
51.87
48.06
43.92
40.24
37.38
35.14
32.89
29.90
25.69
20.23
13.93
7.44
1.30
-4.26
-9.41
-14.62
-20.45
-27.29
-35.34
-44.58
-54.78
-65.41
-75.40
-83.25
-87.14
-85.56
-77.86
-64.67
-47.77
-29.53
-12.14
2.98
15.21
24.49
30.91
34.54
35.50
34.29
31.82
29.23
27.41
26.61
26.32
25.55
23.39
19.48
14.20
8.44
3.12
-1.27
-4.87
-8.38
-12.80
-19.06
-27.79
-38.90
-51.43
-63.49
-72.58
-76.29
-73.07
-62.87
-47.25
-28.85
-10.51
5.61
18.50
28.20
35.32
40.48
43.92
45.54
45.21
43.11
39.90
36.56
34.08
32.90
32.74
32.67
31.52
28.47
23.42
17.00
10.15
3.72
-1.98
-7.16
-12.45
-18.53
-25.98
-35.26
-46.48
-59.33
-72.75
-84.78
-92.91
-94.64
-88.50
-74.70
-55.29
-33.53
-12.76
4.61
17.75
27.20
34.18
39.79
44.52
48.21
50.49
51.18
50.57
49.28
47.97
46.96
46.04
44.59
41.90
37.54
31.55
24.52
17.22
10.32
4.16
-1.39
-6.75
-12.38
-18.62
-25.69
-33.59
-42.13
-50.78
-58.52
-63.86
-65.16
-61.14
-51.52
-37.22
-20.27
-3.12
12.07
24.04
32.62
38.38
42.09
44.25
44.93
43.98
41.38
37.53
33.21
29.26
26.27
24.22
22.48
20.13
16.34
10.82
3.90
-3.54
-10.55
-16.43
-21.08
-24.98
-29.02
-34.19
-41.29
-50.64
-61.96
-74.19
-85.40
-93.04
-94.42
-87.64
-72.38
-50.30
-24.68
0.54
22.10
38.27
49.05
55.62
59.40
61.36
61.84
60.86
58.62
55.80
53.44
52.43
53.02
54.64
56.06
55.96
53.52
48.74
42.39
35.58
29.31
24.03
19.54
15.14
10.03
3.56
-4.56
-14.33
-25.46
-37.33
-48.83
-58.34
-63.88
-63.71
-56.94
-44.15
-27.28
-9.08
7.80
21.65
31.87
38.77
42.96
44.91
44.84
42.89
39.45
35.23
31.04
27.44
24.50
21.76
18.55
14.37
9.20
3.40
-2.47
-8.05
-13.36
-18.70
-24.46
-30.88
-38.07
-46.03
-54.72
-63.96
-73.14
-81.01
-85.85
-85.94
-80.29
-69.11
-53.90
-37.00
-20.82
-7.25
2.70
8.81
11.44
11.23
8.99
5.60
1.90
-1.43
-4.14
-6.50
-9.18
-12.97
-18.35
-25.04
-31.99
-37.56
-40.21
-39.09
-34.63
-28.55
-23.47
-21.86
-25.08
-32.56
-41.77
-49.07
-50.92
-45.24
-32.05
-13.34
7.83
28.50
46.51
60.83
71.24
77.89
80.98
80.74
77.68
72.68
66.95
61.64
57.42
54.26
51.50
48.13
43.37
37.02
29.53
21.75
14.46
8.02
2.09
-4.14
-11.70
-21.49
-33.82
-48.12
-62.79
-75.32
-82.82
-82.91
-74.64
-58.90
-38.31
-16.29
4.00
20.62
33.01
41.76
47.81
51.87
54.20
54.76
53.59
51.02
47.64
44.06
40.61
37.16
33.21
28.28
22.21
15.32
8.36
2.06
-3.25
-7.84
-12.52
-18.34
-26.15
-36.27
-48.22
-60.60
-71.41
-78.41
-79.78
-74.72
-63.76
-48.58
-31.49
-14.70
0.28
12.75
22.72
30.44
36.15
40.06
42.38
43.43
43.65
43.40
42.79
41.62
39.51
36.11
31.40
25.73
19.70
13.90
8.62
3.64
-1.78
-8.65
-17.99
-30.23
-44.77
-59.76
-72.35
-79.44
-78.75
-69.68
-53.62
-33.45
-12.44
6.77
22.82
35.59
45.58
53.33
59.03
62.69
64.44
64.82
64.64
64.61
64.91
65.02
63.93
60.74
55.29
48.33
41.30
35.67
32.17
30.49
29.30
26.91
21.93
13.86
3.28
-8.12
-17.90
-23.39
-22.34
-13.62
2.35
23.71
47.78
72.05
94.98
116.36
136.81
156.88
175.94
191.77
200.72
198.92
183.65
154.51
113.75
65.63
15.20
-33.23
-76.94
-115.00
-147.66
-175.43
-198.53
-216.79
-230.14
-239.03
-244.73
-249.06
-253.84
-260.33
-268.89
-278.83
-288.62
-296.06
-298.72
-294.53
-282.35
-262.55
-236.97
-208.52
-180.08
-153.50
-129.05
-105.53
-81.22
-54.89
-26.56
2.43
30.11
54.64
75.06
91.28
103.81
113.08
119.04
121.08
118.35
110.43
97.78
81.93
65.09
49.57
36.97
27.88
21.94
18.25
15.90
14.19
12.66
10.93
8.74
6.04
3.33
1.66
2.47
7.01
15.72
27.98
42.33
57.05
70.77
82.75
92.77
100.79
106.61
109.87
110.27
107.96
103.71
98.82
94.68
92.23
91.50
91.56
90.78
87.49
80.59
69.89
56.01
39.83
21.95
2.41
-19.01
-42.13
-65.69
-87.44
-104.58
-114.76
-116.61
-109.96
-95.42
-74.01
-47.05
-16.32
15.70
46.00
71.68
90.78
102.76
108.51
109.72
108.08
104.80
100.61
96.04
91.64
87.97
85.37
83.69
82.27
80.16
76.53
71.16
64.45
57.30
50.67
45.19
40.89
37.20
33.21
27.95
20.70
11.24
0.09
-11.36
-21.11
-27.01
-27.45
-22.02
-11.69
1.49
15.13
27.23
36.66
43.01
46.18
45.85
41.32
31.77
16.85
-2.80
-25.42
-48.41
-69.16
-85.76
-97.62
-105.41
-110.64
-114.92
-119.29
-123.86
-127.92
-130.32
-129.98
-126.30
-119.42
-110.20
-100.02
-90.51
-82.91
-77.61
-73.75
-69.41
-62.27
-50.61
-34.14
-14.18
6.80
26.27
42.51
55.05
64.44
71.61
77.13
80.97
82.70
81.98
78.98
74.44
69.41
64.70
60.60
56.74
52.39
46.87
39.94
32.00
23.86
16.37
10.07
4.91
0.32
-4.58
-10.74
-18.93
-29.61
-42.71
-57.41
-72.03
-84.20
-91.27
-91.17
-83.18
-68.28
-48.98
-28.46
-9.50
6.33
18.96
29.44
39.21
49.30
59.97
70.69
80.49
88.42
93.86
96.56
96.62
94.30
89.87
83.68
76.08
67.47
58.34
49.10
40.03
31.17
22.25
12.81
2.33
-9.55
-22.91
-37.57
-53.19
-69.40
-85.64
-101.03
-114.05
-122.59
-124.51
-118.45
-104.60
-84.94
-62.61
-40.85
-21.89
-6.42
6.04
16.44
25.32
32.62
37.87
40.74
41.43
40.70
39.50
38.56
38.16
38.03
37.64
36.51
34.42
31.47
28.03
24.50
21.16
18.10
15.26
12.46
9.47
5.96
1.51
-4.31
-11.70
-20.18
-28.40
-34.21
-35.16
-29.47
-16.76
1.62
22.98
44.26
63.11
78.44
90.44
99.97
107.78
114.15
118.90
121.62
121.84
118.87
111.52
98.12
77.01
47.46
10.43
-31.29
-73.72
-112.84
-145.56
-170.17
-186.06
-193.32
-192.46
-184.57
-171.66
-156.71
-143.12
-133.66
-129.33
-128.83
-128.96
-125.75
-115.90
-98.00
-72.92
-43.29
-12.47
16.62
42.40
64.67
84.30
102.34
119.34
135.03
148.44
158.48
164.48
166.59
165.58
162.48
157.92
151.84
143.59
132.39
117.89
100.45
81.16
61.42
42.43
24.91
8.97
-5.72
-19.61
-33.20
-46.99
-61.57
-77.69
-95.91
-116.05
-136.64
-154.72
-166.48
-168.42
-158.80
-138.54
-111.13
-81.48
-54.26
-32.51
-16.96
-6.50
0.85
6.80
12.16
16.98
20.98
24.13
26.83
29.69
33.15
36.98
40.27
41.78
40.46
35.94
28.79
20.23
11.62
3.86
-2.89
-9.23
-16.17
-24.70
-35.51
-48.90
-64.69
-82.18
-99.92
-115.63
-126.45
-129.75
-124.13
-110.18
-90.50
-68.86
-48.74
-32.13
-19.10
-8.30
1.89
12.34
22.83
32.32
39.77
44.79
47.86
49.92
51.80
53.66
54.91
54.57
51.86
46.69
39.85
32.65
26.35
21.53
17.95
14.58
10.17
3.67
-5.50
-17.46
-31.97
-48.28
-64.94
-79.68
-89.62
-92.07
-85.54
-70.52
-49.44
-25.86
-3.21
16.29
31.99
44.42
54.52
62.91
69.65
74.38
76.79
76.91
75.24
72.57
69.67
67.00
64.54
61.86
58.35
53.48
47.13
39.64
31.65
23.88
16.80
10.52
4.82
-0.82
-7.07
-14.67
-24.38
-36.64
-51.24
-66.94
-81.41
-91.58
-94.54
-88.59
-73.99
-53.07
-29.49
-7.02
11.75
25.89
36.07
43.67
49.91
55.23
59.27
61.38
61.16
58.80
55.07
50.90
47.00
43.62
40.51
37.21
33.26
28.46
22.91
16.93
10.93
5.21
-0.20
-5.53
-11.18
-17.56
-24.96
-33.53
-43.34
-54.36
-66.26
-78.07
-88.00
-93.70
-92.87
-84.31
-68.54
-47.76
-25.13
-3.70
14.57
29.03
39.98
47.94
53.18
55.66
55.39
52.79
48.87
44.86
41.77
39.90
38.72
37.13
34.07
28.94
22.00
14.12
6.52
0.08
-4.99
-9.29
-14.04
-20.60
-30.08
-42.89
-58.49
-75.32
-90.87
-102.12
-106.28
-101.66
-88.33
-68.30
-44.94
-21.97
-2.27
12.78
23.35
30.54
35.50
38.90
40.74
40.76
38.84
35.33
31.03
26.85
23.42
20.81
18.58
16.01
12.56
8.11
3.09
-1.79
-5.92
-9.08
-11.59
-14.11
-17.47
-22.35
-29.26
-38.53
-50.20
-63.77
-77.84
-90.05
-97.42
-97.29
-88.33
-71.23
-48.55
-23.86
-0.47
19.56
35.73
48.71
59.44
68.56
76.04
81.50
84.57
85.34
84.38
82.53
80.60
78.99
77.54
75.66
72.62
67.90
61.42
53.49
44.64
35.24
25.43
15.10
4.16
-7.34
-19.34
-31.84
-45.05
-58.99
-73.09
-85.82
-94.79
-97.56
-92.59
-80.09
-61.97
-41.00
-19.71
0.42
19.16
36.91
53.86
69.56
82.90
92.71
98.41
100.38
99.77
98.08
96.44
95.31
94.39
93.03
90.67
87.27
83.40
79.96
77.79
77.21
77.75
78.25
77.12
72.84
64.40
51.78
36.22
20.00
5.86
-3.87
-8.05
-7.24
-3.36
1.03
3.71
3.47
0.22
-5.42
-12.76
-21.44
-31.48
-42.95
-55.67
-69.06
-82.32
-94.73
-105.94
-115.95
-124.92
-132.95
-139.78
-144.89
-147.50
-146.81
-142.25
-133.55
-120.99
-105.35
-87.94
-70.32
-54.05
-40.55
-30.84
-25.50
-24.35
-26.17
-28.78
-29.74
-27.52
-22.56
-17.16
-14.31
-15.69
-20.36
-25.02
-25.67
-19.95
-8.39
5.96
19.33
29.31
35.73
40.17
44.40
49.20
54.04
57.76
59.57
59.54
58.55
57.54
57.07
56.95
56.46
54.88
51.92
47.99
44.13
41.54
41.07
42.80
45.87
48.82
50.19
49.06
45.48
40.30
34.77
29.96
26.41
24.01
22.35
21.09
20.14
19.67
19.94
21.09
23.11
26.00
29.85
34.78
40.81
47.64
54.86
62.17
69.71
77.98
87.34
97.44
106.84
113.32
114.64
109.56
98.47
83.15
66.04
49.20
33.74
19.81
7.01
-5.02
-16.35
-26.74
-35.89
-43.67
-50.22
-55.93
-61.17
-66.23
-71.14
-75.72
-79.75
-83.15
-86.31
-90.12
-95.85
-104.73
-117.41
-133.51
-151.54
-169.38
-185.00
-197.14
-205.73
-211.68
-216.29
-220.71
-225.70
-231.79
-239.58
-249.65
-262.27
-276.76
-291.40
-303.93
-312.72
-317.68
-320.40
-323.12
-327.06
-331.30
-332.94
-328.51
-315.83
-295.17
-269.01
-240.58
-212.27
-184.77
-157.42
-129.37
-100.43
-71.44
-43.62
-17.61
7.05
31.91
58.85
89.32
123.61
160.62
197.84
231.87
259.26
277.30
284.88
282.66
272.65
257.37
238.78
217.79
194.29
167.95
139.23
109.90
83.00
61.95
49.28
45.73
49.99
59.35
70.83
82.30
93.06
103.60
114.77
126.80
138.85
149.22
156.10
158.54
156.91
152.82
148.36
145.23
144.05
144.10
143.87
141.74
136.78
129.18
119.99
110.59
101.90
93.93
85.85
76.42
64.53
49.59
31.70
11.64
-9.30
-29.39
-46.81
-60.04
-68.30
-71.87
-71.86
-69.69
-66.30
-61.74
-55.21
-45.76
-33.13
-18.22
-2.94
10.49
20.68
27.74
33.50
40.83
52.48
69.86
92.19
116.57
139.00
155.91
165.57
168.50
166.94
163.59
160.22
157.19
153.42
146.73
134.06
111.99
77.74
30.77
-25.75
-84.61
-136.15
-171.51
-185.87
-180.16
-160.09
-133.15
-105.39
-79.62
-55.83
-33.15
-11.65
7.06
20.78
28.13
29.67
27.61
24.71
22.94
22.48
21.69
17.89
8.79
-6.47
-26.66
-48.85
-69.68
-86.78
-99.84
-110.48
-121.04
-132.72
-144.22
-151.69
-150.18
-135.93
-108.12
-69.11
-23.23
24.84
70.93
111.17
141.43
157.61
157.17
141.21
115.41
88.71
69.81
63.48
68.55
78.79
86.37
85.45
74.41
55.40
32.34
8.39
-15.32
-39.40
-65.01
-92.34
-120.07
-145.47
-165.57
-178.17
-182.56
-179.46
-170.52
-157.75
-143.18
-128.70
-116.06
-106.57
-100.79
-98.06
-96.43
-93.00
-84.79
-69.66
-47.03
-18.09
14.70
48.41
80.72
110.80
139.48
168.68
200.18
234.22
268.81
300.19
324.19
337.95
340.91
334.83
322.61
306.86
289.01
269.16
246.90
222.25
196.16
170.29
146.24
124.78
105.53
87.40
69.19
50.36
31.25
12.86
-3.72
-17.77
-29.10
-37.94
-44.57
-49.09
-51.37
-51.22
-48.70
-44.33
-38.99
-33.75
-29.49
-26.73
-25.56
-25.72
-26.82
-28.39
-30.10
-31.69
-33.06
-34.17
-35.05
-35.76
-36.30
-36.61
-36.61
-36.25
-35.61
-34.87
-34.32
-34.17
-34.45
-35.01
-35.51
-35.53
-34.79
-33.17
-30.79
-27.96
-24.98
-22.14
-19.50
-17.05
-14.69
-12.35
-10.11
-8.18
-6.79
-6.09
-5.99
-6.12
-5.97
-5.01
-2.93
0.24
4.11
8.07
11.45
13.79
15.04
15.55
15.90
16.71
18.30
20.65
23.37
25.90
27.58
27.81
26.15
22.45
17.03
10.77
4.96
1.00
-0.08
1.96
6.60
12.82
19.57
26.06
31.77
36.18
38.42
37.28
31.48
20.35
4.33
-14.81
-34.39
-51.67
-64.75
-73.18
-78.06
-81.41
-85.31
-91.08
-98.89
-107.88
-116.81
-124.63
-130.83
-135.44
-138.61
-140.24
-139.82
-136.61
-130.08
-120.40
-108.57
-96.19
-84.87
-75.63
-68.57
-62.94
-57.69
-52.01
-45.83
-39.77
-34.87
-31.99
-31.33
-32.40
-34.17
-35.53
-35.62
-34.08
-31.10
-27.32
-23.81
-21.82
-22.63
-27.15
-35.53
-46.87
-59.43
-71.08
-80.11
-85.83
-88.76
-90.22
-91.58
-93.53
-95.63
-96.39
-93.94
-86.70
-74.13
-56.89
-36.71
-15.82
3.63
20.14
33.06
42.59
49.46
54.55
58.57
62.02
65.17
68.25
71.55
75.42
80.14
85.65
91.34
96.08
98.41
97.06
91.56
82.58
72.03
62.67
57.25
57.62
64.04
75.06
87.86
99.17
106.22
107.40
102.50
92.50
79.16
64.52
50.53
38.77
30.28
25.34
23.40
23.15
22.92
21.11
16.75
9.79
1.07
-8.02
-16.08
-22.13
-25.92
-27.92
-29.02
-30.28
-32.49
-36.05
-40.96
-46.88
-53.30
-59.57
-64.91
-68.50
-69.57
-67.64
-62.68
-55.18
-46.00
-36.07
-26.15
-16.65
-7.68
0.76
8.71
16.05
22.64
28.21
32.45
34.94
35.33
33.48
29.61
24.45
19.03
14.41
11.30
9.79
9.46
9.56
9.47
8.87
7.88
6.77
5.77
4.83
3.65
1.79
-1.04
-4.86
-9.30
-13.68
-17.26
-19.44
-20.03
-19.20
-17.44
-15.27
-13.09
-10.99
-8.85
-6.53
-4.01
-1.55
0.41
1.46
1.50
0.90
0.45
1.02
3.15
6.59
10.36
12.98
13.23
10.69
5.93
0.28
-4.84
-8.53
-10.82
-12.45
-14.45
-17.54
-21.82
-26.78
-31.54
-35.24
-37.27
-37.47
-36.14
-33.93
-31.60
-29.65
-28.07
-26.28
-23.35
-18.60
-12.02
-4.57
2.14
6.52
7.83
6.63
4.56
3.58
4.87
8.31
12.43
14.98
13.92
8.23
-1.97
-15.46
-30.04
-42.49
-48.89
-45.81
-32.02
-9.93
14.59
34.16
43.16
40.30
29.21
16.61
8.92
9.57
17.90
30.35
42.63
51.75
56.72
58.15
57.24
54.98
51.90
48.20
43.96
39.39
35.20
32.33
31.59
33.10
35.85
38.01
37.53
33.21
25.34
15.90
7.83
3.92
5.77
13.03
23.65
34.50
42.51
45.46
42.41
33.62
20.20
3.76
-13.90
-31.05
-46.27
-58.78
-68.47
-75.87
-81.83
-87.12
-92.19
-97.16
-101.93
-106.45
-110.78
-114.89
-118.52
-121.03
-121.61
-119.57
-114.67
-107.31
-98.49
-89.58
-81.91
-76.38
-73.20
-72.05
-72.16
-72.73
-73.24
-73.66
-74.45
-76.44
-80.43
-86.90
-95.64
-105.70
-115.58
-123.67
-128.45
-128.67
-123.27
-111.22
-91.65
-64.33
-30.11
8.79
48.93
86.42
117.87
140.79
153.70
156.01
148.10
131.94
111.79
94.15
86.24
93.10
114.86
145.70
175.58
194.12
194.82
177.42
147.44
113.37
83.22
61.98
51.03
48.93
52.96
60.29
68.52
75.84
81.12
83.69
83.43
80.50
75.13
67.52
58.21
48.11
38.64
31.48
28.16
29.65
36.09
46.79
60.28
74.65
87.86
98.07
103.95
104.72
100.34
91.44
79.33
65.85
53.06
42.81
36.27
33.58
33.81
35.44
36.88
37.03
35.45
32.20
27.39
20.93
12.38
1.19
-12.89
-29.39
-46.73
-62.35
-73.08
-76.20
-70.55
-57.24
-39.58
-22.02
-8.51
-1.19
0.09
-2.82
-7.64
-12.72
-17.52
-22.25
-27.21
-32.26
-36.82
-40.22
-42.25
-43.33
-44.50
-46.99
-51.73
-59.06
-68.63
-79.41
-90.06
-99.26
-106.10
-110.26
-111.94
-111.67
-110.16
-108.19
-106.57
-106.11
-107.32
-110.23
-114.05
-117.29
-118.00
-114.46
-105.67
-91.81
-74.18
-54.87
-36.11
-19.77
-6.96
2.12
8.05
11.92
14.72
16.94
18.29
17.84
14.48
7.58
-2.47
-14.19
-25.38
-33.94
-38.61
-39.44
-37.65
-35.30
-34.71
-37.62
-44.36
-53.18
-60.31
-61.10
-51.91
-32.08
-4.81
23.73
46.76
59.71
62.02
56.95
49.84
45.48
46.24
51.82
60.08
68.60
75.68
80.54
82.94
82.84
80.42
76.25
71.53
67.79
66.21
66.94
68.96
70.75
71.25
70.80
70.94
73.56
79.54
87.94
96.20
101.17
100.42
93.24
80.96
66.60
54.15
47.33
48.55
57.80
72.40
87.66
98.35
100.57
93.19
78.19
59.74
42.53
30.04
23.60
22.52
24.97
29.23
34.49
40.93
49.01
58.40
67.25
72.33
70.15
58.28
36.39
6.12
-29.97
-69.61
-111.44
-154.58
-197.42
-236.72
-267.72
-285.57
-287.06
-271.97
-243.16
-205.54
-164.62
-125.13
-90.30
-61.60
-39.00
-21.38
-7.06
5.51
17.31
28.51
38.48
46.20
50.57
50.73
46.23
37.15
24.15
8.43
-8.32
-24.16
-37.08
-45.31
-47.56
-43.33
-33.29
-19.33
-4.30
8.81
17.79
21.83
21.56
18.43
13.98
9.29
5.02
1.78
0.35
1.40
4.99
10.14
14.93
17.32
16.32
12.62
8.24
5.23
4.18
3.75
1.47
-4.66
-14.76
-27.03
-38.90
-48.86
-57.35
-66.13
-76.51
-87.72
-96.65
-99.48
-94.07
-81.80
-67.29
-56.31
-52.89
-57.35
-66.17
-73.66
-74.45
-65.62
-47.64
-23.80
1.21
22.99
38.73
47.71
50.94
50.45
48.18
45.35
42.25
38.59
34.12
29.05
24.07
19.95
17.05
15.04
13.13
10.52
6.82
2.32
-2.19
-5.88
-8.30
-9.73
-11.10
-13.62
-18.17
-24.71
-32.07
-38.09
-40.43
-37.36
-28.43
-14.78
1.38
17.44
31.33
41.95
49.29
54.04
57.02
58.74
59.26
58.29
55.41
50.40
43.34
34.68
25.15
15.49
6.22
-2.58
-11.25
-20.43
-30.75
-42.55
-55.86
-70.42
-85.87
-101.87
-117.97
-133.40
-147.05
-157.62
-163.89
-165.08
-160.88
-151.18
-135.86
-114.76
-88.06
-56.80
-23.15
9.80
38.85
61.49
76.49
83.87
84.43
79.23
69.41
56.13
40.77
24.76
9.40
-4.35
-15.83
-24.30
-28.86
-28.75
-24.12
-16.60
-8.97
-4.00
-2.84
-4.18
-4.83
-1.55
7.07
19.62
32.62
42.42
47.34
48.48
49.19
53.39
63.87
81.50
105.29
133.24
163.11
192.97
221.35
247.02
268.82
285.45
295.57
298.14
292.81
280.30
262.27
240.95
218.26
195.19
171.48
145.95
117.26
84.79
49.26
12.85
-21.27
-49.82
-70.50
-82.79
-88.22
-89.75
-90.65
-93.11
-97.42
-102.01
-104.42
-102.58
-95.82
-85.01
-72.01
-58.70
-46.29
-35.13
-25.05
-15.82
-7.47
-0.34
5.05
8.30
9.37
8.60
6.59
3.99
1.24
-1.56
-4.42
-7.27
-9.74
-11.09
-10.49
-7.32
-1.45
6.71
16.19
25.48
32.51
34.71
29.62
15.64
-7.01
-35.86
-66.54
-93.96
-113.78
-123.45
-122.44
-111.90
-93.80
-70.39
-43.96
-16.92
8.16
28.82
43.11
50.01
49.56
42.81
31.52
17.97
4.66
-5.98
-12.17
-13.20
-9.74
-3.63
2.79
7.47
9.31
8.34
5.55
2.33
-0.04
-0.76
0.41
3.15
6.84
10.81
14.63
18.34
22.48
27.77
34.69
43.06
51.92
59.80
65.17
67.06
65.29
60.38
53.31
45.16
36.74
28.58
20.94
13.91
7.55
2.02
-2.46
-5.61
-7.14
-6.89
-4.96
-1.72
2.25
6.41
10.45
14.31
18.11
21.93
25.70
29.15
31.98
33.97
35.03
35.19
34.50
32.98
30.59
27.28
22.93
17.35
10.21
1.25
-9.60
-22.03
-35.19
-48.03
-59.46
-68.73
-75.41
-79.35
-80.54
-79.07
-75.32
-70.11
-64.59
-59.94
-56.81
-55.15
-54.43
-54.12
-54.22
-55.19
-57.53
-61.10
-64.91
-67.39
-67.28
-64.43
-59.86
-55.33
-52.26
-51.00
-50.81
-50.41
-48.90
-46.28
-43.35
-41.11
-40.04
-39.75
-39.06
-36.57
-31.53
-24.23
-16.09
-9.06
-4.64
-3.07
-3.07
-2.21
1.99
10.98
24.40
40.29
55.71
67.92
75.05
76.47
72.88
66.46
61.06
61.50
71.84
92.76
119.79
143.88
154.61
144.92
114.56
70.42
23.07
-18.28
-49.65
-72.80
-92.37
-111.82
-130.80
-145.57
-151.69
-147.08
-133.35
-114.91
-96.57
-81.29
-69.34
-58.83
-47.51
-34.30
-20.00
-6.70
3.41
9.29
11.49
11.75
12.08
13.66
16.41
19.12
20.18
18.32
13.31
6.04
-1.91
-8.76
-13.37
-15.55
-16.06
-16.32
-17.74
-21.23
-26.68
-32.99
-38.35
-40.92
-39.52
-34.00
-25.28
-14.86
-4.22
5.70
14.68
22.91
30.66
37.85
44.06
48.68
51.28
51.82
50.68
48.39
45.47
42.09
38.14
33.31
27.31
20.08
11.85
3.08
-5.77
-14.36
-22.55
-30.40
-38.01
-45.50
-53.00
-60.62
-68.35
-75.90
-82.51
-87.01
-88.06
-84.69
-76.69
-64.84
-50.66
-35.92
-22.10
-10.10
-0.17
7.77
13.99
18.68
22.05
24.35
25.94
27.20
28.41
29.49
30.05
29.49
27.25
23.19
17.67
11.52
5.66
0.78
-2.89
-5.69
-8.23
-11.23
-15.22
-20.33
-26.13
-31.62
-35.30
-35.57
-31.18
-21.74
-7.85
9.00
26.85
43.95
58.98
71.19
80.10
85.27
86.25
82.83
75.39
65.22
54.28
44.73
38.24
35.37
35.54
37.38
39.39
40.55
40.54
39.58
38.01
35.96
33.22
29.31
23.84
16.61
7.76
-2.30
-13.04
-23.72
-33.36
-40.80
-44.79
-44.35
-39.13
-29.69
-17.38
-3.98
8.85
20.09
29.42
37.09
43.46
48.68
52.59
54.93
55.57
54.72
52.82
50.28
47.29
43.64
38.96
32.99
25.88
18.27
11.03
4.88
-0.05
-4.30
-8.88
-14.79
-22.62
-32.21
-42.69
-52.77
-61.05
-66.34
-67.92
-65.62
-59.83
-51.37
-41.29
-30.64
-20.25
-10.69
-2.23
4.96
10.75
14.93
17.38
18.28
18.52
19.79
24.22
33.55
48.08
66.13
84.30
98.74
106.73
107.67
103.14
95.78
87.68
79.45
70.12
58.09
42.24
22.73
1.06
-20.47
-39.36
-53.60
-61.98
-64.21
-61.00
-53.66
-43.80
-32.79
-21.53
-10.42
0.34
10.52
19.72
27.48
33.53
37.96
41.20
43.72
45.85
47.53
48.40
47.89
45.53
41.15
34.98
27.65
19.97
12.74
6.45
1.20
-3.33
-7.67
-12.38
-17.98
-24.82
-33.09
-42.67
-52.99
-62.87
-70.65
-74.61
-73.53
-67.21
-56.63
-43.63
-30.14
-17.60
-6.58
3.05
11.67
19.39
25.86
30.49
32.88
33.13
31.94
30.32
29.09
28.58
28.49
28.14
26.88
24.41
20.99
17.25
13.87
11.23
9.15
7.01
3.94
-0.76
-7.41
-15.91
-25.73
-35.99
-45.56
-53.08
-57.24
-57.11
-52.55
-44.36
-34.10
-23.62
-14.37
-7.02
-1.48
2.76
6.15
8.78
10.43
10.85
10.01
8.30
6.28
4.50
3.23
2.34
1.36
-0.21
-2.69
-6.10
-10.10
-14.20
-17.97
-21.22
-24.06
-26.80
-29.84
-33.53
-38.13
-43.76
-50.37
-57.57
-64.52
-69.93
-72.34
-70.64
-64.47
-54.47
-42.03
-28.84
-16.27
-5.04
4.74
13.41
21.36
28.80
35.66
41.69
46.53
49.89
51.67
52.01
51.28
49.89
48.13
46.04
43.40
39.92
35.48
30.29
24.73
19.19
13.86
8.64
3.28
-2.44
-8.56
-14.98
-21.63
-28.53
-35.71
-42.94
-49.47
-54.10
-55.53
-52.95
-46.50
-37.25
-26.84
-16.82
-8.05
-0.64
5.88
11.99
17.90
23.35
27.85
30.97
32.64
33.16
33.04
32.76
32.51
32.07
30.99
28.77
25.22
20.53
15.22
9.89
4.96
0.50
-3.75
-8.22
-13.27
-19.15
-25.90
-33.44
-41.50
-49.58
-56.80
-62.01
-64.06
-62.24
-56.61
-48.10
-38.15
-28.20
-19.18
-11.32
-4.36
2.02
7.92
13.12
17.27
20.17
21.95
22.98
23.69
24.34
24.92
25.23
24.89
23.62
21.21
17.68
13.31
8.53
3.79
-0.62
-4.70
-8.77
-13.23
-18.48
-24.70
-31.93
-40.10
-49.05
-58.38
-67.26
-74.43
-78.42
-78.10
-73.17
-64.32
-53.05
-41.07
-29.73
-19.70
-11.01
-3.35
3.57
9.80
15.18
19.43
22.36
23.94
24.32
23.76
22.54
20.93
19.13
17.26
15.35
13.38
11.27
8.99
6.52
3.97
1.41
-1.05
-3.36
-5.50
-7.45
-9.19
-10.82
-12.61
-14.94
-17.90
-20.88
-22.25
-19.67
-10.90
5.07
27.30
52.93
78.12
99.23
114.01
121.91
123.81
121.31
116.09
109.52
102.48
95.44
88.50
81.50
74.30
66.82
59.19
51.65
44.34
37.23
30.11
22.80
15.38
8.17
1.62
-3.96
-8.59
-12.71
-16.93
-21.89
-28.09
-35.71
-44.57
-53.97
-62.68
-69.16
-71.87
-69.84
-63.07
-52.60
-40.22
-27.79
-16.70
-7.57
-0.37
5.08
8.66
9.88
8.14
3.36
-3.67
-11.31
-17.66
-21.38
-22.31
-21.59
-20.98
-22.05
-25.42
-30.69
-36.76
-42.61
-47.65
-51.95
-55.83
-59.54
-63.05
-66.12
-68.65
-70.81
-72.78
-74.46
-74.97
-72.80
-66.33
-54.71
-38.46
-19.46
-0.29
16.84
30.93
42.29
52.08
61.33
70.34
78.53
84.84
88.43
89.10
87.41
84.46
81.33
78.79
77.07
75.81
74.23
71.28
65.92
57.48
46.12
33.07
20.40
10.38
4.55
2.93
3.84
4.41
1.57
-6.81
-21.15
-39.97
-60.41
-79.15
-93.36
-101.37
-102.88
-98.68
-90.11
-78.48
-64.81
-49.77
-33.92
-17.96
-2.72
11.09
23.11
33.43
42.33
50.01
56.33
60.70
62.29
60.34
54.57
45.39
33.96
21.89
10.77
1.62
-5.47
-11.33
-17.42
-25.13
-35.34
-48.05
-62.33
-76.62
-89.02
-97.69
-101.27
-99.17
-91.70
-80.03
-65.75
-50.48
-35.41
-21.27
-8.36
3.12
12.91
20.66
26.08
29.23
30.54
30.71
30.43
30.07
29.67
28.96
27.77
26.18
24.57
23.51
23.27
23.63
23.80
22.66
19.12
12.52
2.81
-9.51
-23.40
-37.60
-50.72
-61.51
-69.12
-73.21
-74.10
-72.65
-69.99
-67.13
-64.87
-63.43
-62.91
-63.29
-64.67
-67.32
-71.49
-76.98
-82.72
-86.86
-87.50
-83.83
-76.84
-69.16
-63.79
-62.51
-65.02
-69.02
-71.71
-71.42
-68.52
-65.14
-64.01
-67.24
-75.51
-88.24
-103.89
-120.16
-133.91
-141.31
-138.68
-123.96
-98.05
-64.84
-30.24
-0.09
21.75
34.36
39.59
41.03
42.79
48.44
60.13
77.89
99.66
121.73
140.15
152.27
157.75
158.47
157.29
156.47
156.69
157.24
157.08
155.72
153.44
150.68
147.11
141.33
131.43
116.12
95.77
72.74
50.68
33.34
23.09
20.16
22.81
28.18
33.65
37.87
41.00
44.23
48.73
54.82
61.63
67.54
70.92
70.89
67.63
62.09
55.46
48.68
42.14
35.69
28.99
21.78
14.09
6.27
-1.13
-7.71
-13.36
-18.37
-23.38
-29.10
-36.14
-44.75
-54.67
-65.05
-74.48
-81.25
-83.77
-81.11
-73.34
-61.56
-47.51
-32.96
-19.17
-6.61
4.73
14.96
23.93
31.19
36.30
39.14
40.18
40.29
40.35
40.85
41.70
42.26
41.70
39.46
35.50
30.36
24.87
19.78
15.43
11.73
8.15
4.13
-0.87
-7.17
-14.90
-23.93
-33.75
-43.31
-51.09
-55.45
-55.19
-49.98
-40.64
-28.75
-16.08
-4.00
6.90
16.65
25.55
33.73
40.96
46.72
50.53
52.18
51.92
50.30
47.99
45.45
42.85
40.07
36.86
33.06
28.69
23.97
19.20
14.59
10.15
5.60
0.49
-5.68
-13.30
-22.44
-32.69
-43.17
-52.65
-59.78
-63.53
-63.37
-59.41
-52.33
-43.06
-32.62
-21.86
-11.49
-2.06
6.02
12.46
17.21
20.36
22.27
23.35
23.96
24.28
24.29
23.79
22.58
20.57
17.88
14.78
11.59
8.46
5.27
1.65
-2.84
-8.58
-15.70
-23.99
-32.86
-41.38
-48.38
-52.66
-53.31
-50.01
-43.17
-33.80
-23.21
-12.54
-2.55
6.48
14.55
21.66
27.65
32.25
35.28
36.77
37.09
36.67
35.87
34.75
33.11
30.61
27.10
22.73
17.94
13.25
9.02
5.20
1.41
-2.95
-8.42
-15.29
-23.44
-32.34
-41.07
-48.50
-53.43
-54.88
-52.41
-46.29
-37.43
-27.04
-16.30
-5.98
3.64
12.55
20.79
28.17
34.36
38.96
41.84
43.14
43.26
42.71
41.82
40.65
38.99
36.55
33.15
28.89
24.13
19.43
15.21
11.63
8.39
4.89
0.45
-5.53
-13.21
-22.28
-31.85
-40.60
-47.07
-49.95
-48.61
-43.22
-34.73
-24.52
-13.92
-3.79
5.58
14.31
22.55
30.23
36.92
42.10
45.38
46.73
46.51
45.28
43.54
41.54
39.34
36.85
33.98
30.71
27.10
23.27
19.31
15.27
11.17
6.91
2.29
-3.01
-9.28
-16.69
-25.08
-33.89
-42.20
-48.90
-52.95
-53.65
-50.86
-45.03
-37.02
-27.89
-18.58
-9.70
-1.53
5.83
12.25
17.50
21.24
23.31
23.81
23.23
22.18
21.16
20.31
19.34
17.77
15.24
11.78
7.85
4.11
1.00
-1.45
-3.68
-6.40
-10.24
-15.52
-22.12
-29.55
-36.96
-43.34
-47.60
-48.86
-46.69
-41.30
-33.47
-24.31
-14.89
-5.87
2.47
10.10
17.01
22.99
27.73
30.95
32.63
33.05
32.72
32.18
31.74
31.40
30.88
29.73
27.60
24.40
20.43
16.19
12.26
8.94
6.14
3.41
0.14
-4.22
-9.95
-16.95
-24.73
-32.49
-39.21
-43.92
-45.88
-44.85
-41.12
-35.36
-28.36
-20.74
-12.81
-4.62
3.78
12.05
19.42
24.69
26.58
24.25
17.73
8.05
-2.96
-13.29
-21.34
-26.40
-28.55
-28.31
-26.09
-21.83
-15.03
-4.98
8.75
25.99
45.83
66.62
86.18
102.29
113.18
118.08
117.54
113.19
107.14
101.31
96.77
93.63
91.36
89.14
86.28
82.34
77.08
70.44
62.60
54.12
45.88
38.92
34.08
31.58
31.04
31.57
32.23
32.47
32.31
32.34
33.49
36.58
41.92
48.93
55.88
60.08
58.44
48.32
28.48
-0.33
-35.45
-72.93
-108.63
-139.16
-162.49
-178.04
-186.36
-188.66
-186.29
-180.52
-172.29
-162.25
-150.85
-138.47
-125.65
-113.08
-101.55
-91.74
-84.03
-78.37
-74.33
-71.35
-68.89
-66.61
-64.35
-62.01
-59.40
-56.20
-52.03
-46.65
-40.13
-32.97
-26.11
-20.70
-17.99
-18.97
-24.05
-32.75
-43.51
-53.91
-61.31
-63.64
-60.24
-52.07
-41.25
-30.27
-21.05
-14.37
-10.02
-7.25
-5.41
-4.15
-3.33
-2.71
-1.70
0.44
4.25
9.57
15.44
20.44
23.22
23.10
20.33
15.82
10.67
5.61
0.81
-4.00
-9.22
-14.96
-20.96
-26.74
-31.86
-36.07
-39.28
-41.41
-42.18
-41.15
-37.89
-32.34
-24.90
-16.38
-7.72
0.41
7.79
14.52
20.79
26.49
31.14
34.02
34.58
32.76
29.15
24.68
20.27
16.36
12.80
9.01
4.44
-1.02
-6.88
-12.22
-16.16
-18.29
-19.01
-19.38
-20.82
-24.56
-31.16
-40.14
-49.94
-58.07
-61.68
-58.48
-47.60
-30.21
-9.34
11.03
27.33
37.62
42.11
42.68
41.70
41.00
41.15
41.66
41.69
40.82
39.37
38.29
38.52
40.53
43.98
47.88
51.06
52.67
52.59
51.41
50.03
49.20
49.12
49.35
49.16
47.93
45.53
42.31
38.88
35.69
32.99
30.80
29.20
28.43
28.93
31.08
34.91
39.91
45.12
49.42
51.87
51.97
49.72
45.43
39.61
32.74
25.25
17.50
9.75
2.11
-5.49
-13.30
-21.56
-30.26
-38.97
-46.78
-52.64
-55.70
-55.68
-52.91
-48.15
-42.29
-35.97
-29.50
-22.92
-16.24
-9.58
-3.26
2.35
6.97
10.54
13.20
15.24
16.91
18.39
19.71
20.83
21.64
22.05
22.04
21.62
20.88
19.89
18.76
17.57
16.33
14.91
13.11
10.70
7.53
3.63
-0.77
-5.37
-9.90
-14.23
-18.42
-22.64
-27.12
-32.07
-37.71
-44.23
-51.65
-59.68
-67.40
-73.40
-76.06
-74.12
-67.23
-56.14
-42.50
-28.21
-14.81
-3.05
7.08
16.01
24.16
31.59
38.08
43.26
46.94
49.20
50.40
50.99
51.30
51.44
51.32
50.68
49.35
47.30
44.64
41.61
38.47
35.41
32.48
29.61
26.57
23.05
18.79
13.64
7.75
1.55
-4.45
-9.83
-14.46
-18.53
-22.48
-26.84
-32.15
-38.81
-46.93
-56.14
-65.36
-72.90
-76.87
-75.77
-69.24
-58.20
-44.54
-30.40
-17.43
-6.33
2.94
10.83
17.69
23.65
28.60
32.49
35.37
37.51
39.17
40.49
41.50
42.09
42.11
41.43
40.02
37.95
35.44
32.80
30.30
28.09
26.15
24.23
22.01
19.19
15.58
11.15
6.03
0.50
-5.15
-10.60
-15.65
-20.26
-24.55
-28.80
-33.39
-38.78
-45.29
-52.96
-61.27
-69.07
-74.68
-76.38
-73.04
-64.63
-52.33
-38.10
-23.89
-11.08
-0.07
9.44
17.96
25.77
32.72
38.43
42.59
45.19
46.52
47.00
47.05
46.94
46.76
46.51
46.06
45.28
44.07
42.41
40.45
38.39
36.38
34.44
32.41
30.02
27.06
23.45
19.30
14.80
10.17
5.52
0.89
-3.76
-8.50
-13.37
-18.45
-23.87
-29.75
-36.08
-42.53
-48.39
-52.60
-54.12
-52.30
-47.17
-39.49
-30.46
-21.35
-13.01
-5.82
0.29
5.49
9.85
13.26
15.54
16.57
16.45
15.44
13.88
12.11
10.41
8.88
7.55
6.38
5.31
4.26
3.22
2.22
1.32
0.60
0.05
-0.47
-1.25
-2.60
-4.70
-7.50
-10.66
-13.74
-16.40
-18.53
-20.36
-22.31
-24.86
-28.34
-32.90
-38.43
-44.52
-50.39
-54.88
-56.69
-54.73
-48.54
-38.55
-26.01
-12.63
0.04
11.04
20.01
27.14
32.64
36.62
39.04
39.89
39.48
38.39
37.33
36.80
36.83
37.05
36.84
35.75
33.70
30.98
28.06
25.30
22.78
20.27
17.39
13.88
9.70
5.09
0.44
-3.93
-7.90
-11.65
-15.51
-19.86
-24.94
-30.85
-37.58
-44.90
-52.34
-59.03
-63.72
-65.09
-62.13
-54.66
-43.48
-30.15
-16.56
-4.21
6.10
14.38
21.06
26.67
31.48
35.37
38.05
39.20
38.79
37.08
34.58
31.79
28.99
26.17
23.18
19.86
16.24
12.55
9.04
5.84
2.84
-0.22
-3.56
-7.30
-11.43
-15.97
-21.12
-27.31
-35.02
-44.44
-55.06
-65.61
-74.22
-79.01
-78.79
-73.51
-64.31
-53.05
-41.57
-31.11
-22.03
-14.12
-6.96
-0.47
5.10
9.32
11.96
13.21
13.66
14.05
14.91
16.29
17.73
18.51
17.96
15.83
12.39
8.36
4.59
1.68
-0.23
-1.52
-2.84
-4.90
-8.19
-12.98
-19.26
-26.73
-34.63
-41.70
-46.31
-46.86
-42.38
-33.01
-20.06
-5.61
8.18
19.76
28.57
34.86
39.24
42.22
43.99
44.51
43.77
42.03
39.80
37.65
35.88
34.37
32.57
29.81
25.67
20.26
14.22
8.44
3.67
0.19
-2.41
-4.97
-8.58
-14.14
-22.08
-32.13
-43.21
-53.55
-61.06
-63.87
-61.01
-52.77
-40.62
-26.61
-12.58
0.36
11.98
22.60
32.63
42.13
50.79
58.03
63.18
65.60
64.88
60.96
54.34
46.05
37.44
29.73
23.58
18.93
15.24
11.91
8.60
5.31
2.15
-0.99
-4.54
-9.18
-15.51
-23.77
-33.72
-44.51
-54.83
-63.07
-67.68
-67.56
-62.50
-53.24
-41.31
-28.46
-16.15
-5.14
4.46
12.86
20.26
26.61
31.69
35.24
37.22
37.79
37.36
36.38
35.28
34.36
33.65
32.98
31.98
30.25
27.52
23.81
19.42
14.80
10.36
6.26
2.41
-1.47
-5.73
-10.69
-16.62
-23.68
-31.73
-40.09
-47.49
-52.24
-52.71
-48.07
-38.69
-26.08
-12.39
0.39
11.04
19.33
25.76
31.05
35.68
39.71
42.86
44.78
45.40
44.95
43.94
42.87
42.00
41.07
39.54
36.85
32.80
27.83
22.78
18.56
15.59
13.65
11.89
9.37
5.37
-0.36
-7.64
-16.02
-24.83
-33.13
-39.69
-43.19
-42.59
-37.56
-28.78
-17.73
-6.19
4.37
13.20
20.30
26.09
31.00
35.11
38.20
39.94
40.16
38.99
36.90
34.49
32.24
30.32
28.49
26.25
23.14
18.97
14.00
8.81
4.00
-0.04
-3.42
-6.65
-10.47
-15.56
-22.24
-30.39
-39.31
-47.85
-54.57
-58.04
-57.25
-51.95
-42.83
-31.28
-18.98
-7.40
2.57
10.71
17.30
22.72
27.20
30.71
33.04
34.08
33.94
33.02
31.78
30.62
29.63
28.59
27.09
24.80
21.60
17.72
13.61
9.74
6.45
3.80
1.55
-0.75
-3.57
-7.42
-12.64
-19.35
-27.30
-35.64
-43.02
-47.76
-48.44
-44.38
-36.03
-24.84
-12.79
-1.67
7.47
14.48
19.85
24.29
28.25
31.80
34.71
36.71
37.72
37.87
37.47
36.85
36.20
35.52
34.64
33.38
31.66
29.58
27.38
25.32
23.59
22.25
21.19
20.19
18.94
17.01
13.86
8.92
1.68
-8.07
-19.96
-32.94
-45.33
-55.24
-61.19
-62.56
-59.87
-54.40
-47.70
-40.91
-34.54
-28.54
-22.69
-16.96
-11.61
-7.10
-3.75
-1.58
-0.34
0.35
0.74
0.95
0.89
0.48
-0.33
-1.48
-2.81
-4.07
-4.99
-5.41
-5.35
-5.07
-4.95
-5.40
-6.72
-9.01
-12.24
-16.32
-21.02
-26.00
-30.59
-33.78
-34.46
-31.71
-25.28
-15.81
-4.68
6.41
16.07
23.64
29.27
33.58
37.20
40.37
42.84
44.17
43.98
42.30
39.54
36.33
33.18
30.32
27.59
24.59
20.88
16.21
10.57
4.15
-2.78
-10.06
-17.66
-25.71
-34.30
-43.44
-53.03
-63.01
-73.43
-84.41
-95.88
-107.33
-117.64
-125.31
-128.89
-127.52
-121.11
-110.34
-96.25
-79.91
-62.20
-43.82
-25.36
-7.40
9.51
24.90
38.46
49.99
59.28
66.14
70.39
72.07
71.45
69.04
65.50
61.47
57.41
53.54
49.88
46.31
42.70
38.95
34.99
30.82
26.42
21.78
16.83
11.45
5.42
-1.56
-9.62
-18.54
-27.53
-35.29
-40.37
-41.62
-38.71
-32.24
-23.55
-14.20
-5.47
1.96
8.05
13.08
17.46
21.42
24.98
27.99
30.24
31.63
32.18
32.10
31.70
31.25
30.84
30.33
29.45
27.94
25.74
23.09
20.39
18.02
16.14
14.55
12.85
10.61
7.47
3.27
-2.02
-8.28
-15.18
-22.10
-28.04
-31.90
-32.72
-30.10
-24.41
-16.68
-8.25
-0.33
6.38
11.73
15.97
19.46
22.37
24.60
25.89
26.01
24.97
23.11
20.98
19.10
17.70
16.61
15.40
13.61
11.01
7.76
4.23
0.81
-2.29
-5.10
-7.84
-10.68
-13.68
-16.84
-20.18
-23.99
-28.68
-34.65
-41.80
-49.31
-55.65
-59.04
-58.19
-52.83
-43.89
-33.17
-22.60
-13.53
-6.39
-0.77
4.14
9.01
14.07
19.07
23.55
27.04
29.29
30.30
30.24
29.37
27.96
26.24
24.35
22.34
20.21
17.88
15.26
12.29
9.00
5.42
1.71
-1.99
-5.52
-8.73
-11.64
-14.52
-17.90
-22.38
-28.36
-35.54
-42.82
-48.47
-50.72
-48.52
-41.88
-31.94
-20.46
-9.19
0.67
8.72
15.14
20.37
24.74
28.31
30.95
32.51
33.04
32.85
32.39
32.10
32.18
32.46
32.49
31.81
30.12
27.47
24.16
20.57
16.88
13.06
8.85
4.01
-1.62
-7.95
-14.83
-22.14
-29.78
-37.56
-45.00
-51.20
-55.00
-55.36
-51.83
-44.77
-35.32
-24.94
-14.97
-6.24
0.97
6.78
11.46
15.24
18.26
20.63
22.38
23.50
23.95
23.70
22.82
21.46
19.86
18.23
16.68
15.16
13.52
11.56
9.14
6.20
2.76
-1.06
-5.09
-9.13
-13.03
-16.78
-20.59
-24.93
-30.36
-37.21
-45.22
-53.31
-59.87
-63.15
-61.98
-56.27
-47.03
-36.09
-25.38
-16.34
-9.52
-4.60
-0.79
2.71
6.42
10.29
13.93
16.85
18.69
19.44
19.30
18.59
17.50
16.07
14.16
11.69
8.67
5.26
1.63
-2.14
-6.13
-10.51
-15.39
-20.74
-26.34
-31.82
-36.81
-40.96
-43.91
-45.37
-44.91
-42.07
-36.28
-27.03
-14.03
2.47
21.64
41.92
61.38
78.07
90.53
98.08
100.87
99.74
95.81
90.29
84.13
78.00
72.24
66.86
61.60
56.14
50.24
43.85
37.17
30.52
24.27
18.65
13.74
9.46
5.61
1.93
-1.82
-5.79
-10.01
-14.38
-18.74
-23.03
-27.33
-31.86
-36.93
-42.71
-49.08
-55.43
-60.71
-63.58
-62.88
-57.97
-49.10
-37.43
-24.64
-12.39
-1.80
6.73
13.37
18.43
22.08
24.21
24.69
23.61
21.45
18.95
16.72
14.96
13.36
11.33
8.38
4.42
-0.13
-4.59
-8.33
-11.16
-13.36
-15.55
-18.43
-22.56
-28.22
-35.45
-43.92
-52.90
-61.12
-66.96
-68.83
-65.76
-57.83
-46.28
-33.05
-20.11
-8.78
0.51
8.09
14.54
20.25
25.18
29.03
31.47
32.43
32.15
31.09
29.71
28.31
26.97
25.63
24.20
22.60
20.86
19.01
17.08
15.03
12.79
10.28
7.42
4.17
0.51
-3.56
-8.06
-13.09
-18.81
-25.41
-32.81
-40.38
-46.92
-50.82
-50.71
-45.98
-37.18
-25.84
-13.87
-2.89
6.24
13.49
19.32
24.22
28.44
31.93
34.53
36.07
36.56
36.12
34.99
33.45
31.71
29.84
27.77
25.32
22.30
18.72
14.76
10.73
6.88
3.31
-0.09
-3.49
-7.02
-10.75
-14.69
-18.90
-23.66
-29.27
-35.89
-43.15
-50.07
-55.12
-56.74
-53.91
-46.65
-36.04
-23.88
-12.01
-1.72
6.55
13.07
18.39
22.94
26.80
29.71
31.44
31.85
31.16
29.81
28.31
27.03
26.10
25.34
24.36
22.76
20.25
16.89
12.95
8.86
4.94
1.32
-2.11
-5.54
-9.07
-12.74
-16.53
-20.52
-24.90
-29.82
-35.18
-40.34
-44.12
-45.08
-42.06
-34.67
-23.60
-10.38
3.02
14.94
24.34
31.06
35.52
38.42
40.33
41.57
42.22
42.27
41.76
40.87
39.84
38.87
38.00
37.08
35.78
33.76
30.83
27.06
22.72
18.23
13.89
9.82
5.84
1.63
-3.19
-8.91
-15.72
-23.66
-32.44
-41.31
-48.98
-53.86
-54.54
-50.46
-42.23
-31.49
-20.33
-10.48
-2.73
3.07
7.61
11.57
15.17
18.16
20.12
20.81
20.37
19.20
17.80
16.50
15.38
14.29
12.95
11.14
8.76
5.88
2.70
-0.54
-3.70
-6.79
-9.93
-13.31
-17.09
-21.37
-26.22
-31.71
-37.87
-44.60
-51.41
-57.40
-61.38
-62.22
-59.33
-52.93
-43.99
-33.94
-24.15
-15.55
-8.48
-2.83
1.78
5.75
9.29
12.48
15.32
17.80
19.91
21.69
23.08
23.97
24.17
23.51
21.97
19.72
17.02
14.15
11.24
8.26
5.07
1.55
-2.24
-6.09
-9.68
-12.76
-15.26
-17.36
-19.49
-22.12
-25.56
-29.66
-33.70
-36.45
-36.59
-33.19
-26.13
-16.18
-4.71
6.78
17.16
25.88
32.93
38.56
43.01
46.33
48.44
49.21
48.69
47.13
44.95
42.59
40.34
38.23
36.02
33.34
29.86
25.49
20.47
15.27
10.37
6.03
2.21
-1.40
-5.16
-9.36
-14.13
-19.48
-25.36
-31.59
-37.75
-43.00
-46.22
-46.35
-42.75
-35.67
-26.16
-15.72
-5.75
2.93
10.09
15.97
20.85
24.78
27.61
29.08
29.12
27.92
25.96
23.70
21.42
19.11
16.49
13.25
9.25
4.68
-0.03
-4.43
-8.28
-11.62
-14.77
-18.06
-21.62
-25.40
-29.19
-32.82
-36.18
-39.15
-41.42
-42.49
-41.80
-38.98
-34.14
-27.84
-20.93
-14.15
-7.88
-2.13
3.27
8.46
13.40
17.88
21.68
24.69
26.91
28.37
29.14
29.29
28.94
28.25
27.37
26.41
25.39
24.22
22.87
21.36
19.80
18.28
16.83
15.32
13.58
11.43
8.73
5.40
1.42
-3.14
-8.03
-12.80
-16.81
-19.40
-20.13
-18.86
-15.88
-11.74
-7.06
-2.36
2.03
5.99
9.44
12.38
14.73
16.44
17.52
18.01
18.01
17.67
17.11
16.39
15.55
14.59
13.51
12.34
11.07
9.69
8.12
6.35
4.39
2.33
0.29
-1.66
-3.53
-5.52
-7.92
-11.00
-14.91
-19.51
-24.41
-28.93
-32.28
-33.81
-33.17
-30.47
-26.26
-21.38
-16.61
-12.44
-8.95
-5.91
-3.01
-0.09
2.80
5.42
7.53
9.07
10.12
10.86
11.38
11.63
11.41
10.57
9.04
7.05
5.01
3.37
2.42
2.14
2.16
1.95
1.04
-0.79
-3.48
-6.83
-10.63
-14.77
-19.12
-23.39
-27.04
-29.35
-29.71
-27.90
-24.21
-19.35
-14.14
-9.22
-4.89
-1.21
1.92
4.51
6.55
7.93
8.60
8.62
8.20
7.54
6.88
6.32
5.85
5.38
4.72
3.67
2.06
-0.18
-3.01
-6.30
-9.83
-13.43
-16.92
-20.21
-23.24
-26.05
-28.84
-31.89
-35.54
-39.97
-45.08
-50.46
-55.40
-59.07
-60.68
-59.65
-55.69
-48.91
-39.82
-29.33
-18.60
-8.70
-0.41
6.00
10.65
13.80
15.61
15.94
14.53
11.23
6.18
-0.12
-7.08
-14.23
-21.43
-28.84
-36.64
-44.76
-52.68
-59.52
-64.42
-66.89
-67.12
-65.91
-64.26
-62.82
-61.47
-59.23
-54.53
-45.69
-31.42
-11.10
14.96
45.50
78.33
110.57
139.08
161.19
175.43
181.90
182.25
178.98
174.46
170.12
166.06
161.44
155.13
146.55
136.03
124.71
114.11
105.47
99.49
96.26
95.53
96.93
100.13
104.75
110.19
115.47
119.21
119.81
115.86
106.43
91.51
72.01
49.59
26.17
3.34
-18.04
-37.81
-56.14
-73.10
-88.44
-101.70
-112.54
-120.99
-127.40
-132.02
-134.62
-134.49
-130.73
-122.81
-110.96
-96.16
-79.82
-63.25
-47.35
-32.66
-19.52
-8.28
0.67
6.97
10.46
11.22
9.51
5.73
0.33
-6.27
-13.76
-22.01
-31.06
-41.09
-52.19
-64.30
-77.08
-90.01
-102.33
-112.99
-120.64
-123.72
-120.88
-111.60
-96.58
-77.76
-57.80
-39.16
-23.46
-11.07
-1.48
6.18
12.59
18.02
22.40
25.52
27.08
26.65
23.51
16.78
5.85
-9.00
-26.08
-42.25
-53.67
-57.11
-51.21
-37.15
-18.25
1.16
17.23
27.39
30.53
26.66
16.56
1.80
-15.04
-30.48
-40.74
-42.94
-36.20
-22.01
-3.74
14.67
30.04
40.78
46.90
49.54
50.19
50.11
50.07
50.24
50.41
50.20
49.26
47.46
44.73
41.02
36.09
29.68
21.73
12.68
3.61
-4.06
-9.00
-10.58
-9.08
-5.48
-1.03
3.16
6.29
7.82
7.48
5.41
2.41
-0.02
0.12
4.61
14.33
28.77
46.15
64.00
79.97
92.31
100.03
102.63
99.85
91.64
78.42
61.40
42.56
24.25
8.40
-4.11
-13.75
-21.97
-30.36
-39.81
-50.15
-60.41
-69.42
-76.34
-81.07
-84.03
-85.83
-86.94
-87.61
-88.00
-88.34
-89.02
-90.39
-92.47
-94.70
-95.97
-94.98
-90.80
-83.47
-74.12
-64.71
-57.24
-52.93
-51.73
-52.42
-53.24
-52.73
-50.27
-46.20
-41.31
-36.26
-31.06
-25.05
-17.26
-7.02
5.56
19.49
33.27
45.39
54.88
61.51
65.64
67.93
68.97
69.22
68.99
68.52
68.11
67.94
68.02
68.09
67.65
66.19
63.44
59.56
55.17
51.28
49.00
49.21
52.30
57.99
65.40
73.34
80.66
86.63
91.19
94.86
98.45
102.54
107.15
111.66
115.01
116.07
114.08
108.73
100.26
89.19
76.28
62.36
48.28
34.74
22.01
9.83
-2.49
-15.66
-29.87
-44.50
-58.20
-69.49
-77.47
-82.34
-85.32
-88.14
-92.08
-97.40
-103.02
-107.04
-107.42
-102.80
-92.90
-78.46
-60.96
-42.03
-23.25
-5.93
8.89
20.44
28.24
32.26
33.04
31.65
29.40
27.54
26.89
27.69
29.62
31.99
34.00
34.92
34.27
31.82
27.67
22.15
15.76
8.98
2.18
-4.46
-10.87
-16.98
-22.62
-27.51
-31.47
-34.57
-37.24
-40.11
-43.74
-48.31
-53.46
-58.40
-62.16
-63.94
-63.29
-60.25
-55.22
-48.88
-41.97
-35.07
-28.53
-22.39
-16.53
-10.79
-5.18
0.13
4.84
8.63
11.30
12.88
13.54
13.57
13.27
12.83
12.35
11.74
10.90
9.75
8.27
6.56
4.72
2.77
0.64
-1.83
-4.79
-8.34
-12.43
-16.98
-21.74
-26.36
-30.29
-32.90
-33.59
-31.99
-28.14
-22.37
-15.33
-7.72
-0.23
6.62
12.48
17.24
21.00
24.05
26.74
29.33
31.86
34.16
35.90
36.77
36.61
35.45
33.53
31.04
28.18
25.08
21.86
18.64
15.51
12.44
9.28
5.77
1.62
-3.33
-9.00
-15.17
-21.52
-27.70
-33.38
-38.13
-41.36
-42.35
-40.28
-34.60
-25.24
-12.86
1.24
15.42
28.09
38.13
45.04
48.85
49.89
48.54
45.19
40.24
34.11
27.26
19.99
12.41
4.38
-4.31
-13.73
-23.69
-33.76
-43.49
-52.48
-60.57
-67.79
-74.31
-80.46
-86.56
-92.81
-98.97
-104.24
-107.26
-106.47
-100.72
-89.73
-74.35
-56.42
-38.13
-21.39
-7.32
3.86
12.60
19.58
25.34
30.12
33.92
36.72
38.65
40.03
41.24
42.52
43.85
44.87
45.10
44.16
41.99
38.93
35.62
32.72
30.55
28.97
27.35
24.84
20.62
14.13
5.21
-5.75
-17.84
-29.66
-39.48
-45.60
-46.82
-42.86
-34.46
-23.17
-10.78
1.19
11.90
21.08
28.91
35.61
41.26
45.76
48.95
50.72
51.21
50.69
49.54
48.02
46.20
43.91
41.00
37.46
33.55
29.75
26.49
23.85
21.47
18.64
14.57
8.68
0.79
-8.84
-19.59
-30.48
-40.22
-47.32
-50.40
-48.57
-41.69
-30.54
-16.60
-1.59
12.96
26.00
37.02
45.88
52.56
57.07
59.44
59.82
58.51
55.88
52.27
47.85
42.50
35.96
28.08
19.04
9.50
0.39
-7.39
-13.41
-17.87
-21.55
-25.52
-30.70
-37.62
-46.28
-56.08
-65.93
-74.36
-79.75
-80.70
-76.45
-67.27
-54.40
-39.74
-25.25
-12.33
-1.64
6.78
13.16
17.70
20.48
21.51
20.99
19.27
16.86
14.19
11.47
8.68
5.64
2.12
-1.99
-6.61
-11.42
-16.03
-20.12
-23.68
-27.14
-31.28
-36.96
-44.73
-54.54
-65.48
-75.99
-84.17
-88.32
-87.34
-81.05
-70.25
-56.43
-41.41
-26.78
-13.58
-2.17
7.55
15.81
22.61
27.70
30.78
31.81
31.18
29.65
28.02
26.79
25.95
25.05
23.50
20.92
17.32
13.06
8.64
4.47
0.81
-2.31
-4.93
-7.22
-9.33
-11.35
-13.15
-14.24
-13.73
-10.50
-3.57
7.43
22.02
38.84
55.93
71.20
82.97
90.10
92.15
89.18
81.73
70.74
57.55
43.86
31.35
21.23
13.85
8.51
3.79
-1.76
-9.05
-18.04
-27.82
-37.14
-45.01
-51.10
-55.87
-60.20
-65.02
-71.04
-78.48
-87.03
-95.73
-103.10
-107.29
-106.54
-99.90
-87.68
-71.45
-53.56
-36.23
-20.97
-8.36
1.78
9.88
16.34
21.34
24.96
27.43
29.13
30.49
31.58
32.19
31.96
30.55
27.80
23.83
19.14
14.54
10.78
7.78
4.99
1.71
-2.62
-8.24
-15.20
-23.28
-32.08
-41.10
-50.62
-60.50
-69.60
-76.00
-78.13
-75.54
-68.91
-59.58
-48.89
-39.34
-32.49
-28.29
-25.49
-22.90
-20.19
-17.65
-15.55
-13.68
-13.52
-16.10
-21.42
-28.69
-37.52
-48.31
-61.63
-77.41
-81.92
-66.51
-32.57
9.19
47.71
77.67
98.83
113.38
123.95
132.60
138.34
139.89
137.13
131.37
124.58
118.35
113.71
111.07
110.29
109.10
105.37
98.26
88.14
76.52
64.87
54.78
47.28
42.56
38.96
34.48
27.94
18.66
7.41
-4.16
-14.33
-21.66
-25.73
-27.78
-29.69
-33.33
-41.31
-55.11
-74.84
-98.70
-123.00
-143.12
-155.48
-159.42
-149.84
-128.95
-102.09
-75.21
-52.45
-35.06
-22.07
-12.08
-4.84
-1.79
-6.69
-22.82
-51.96
-93.77
-145.47
-201.96
-256.20
-300.44
-328.25
-337.28
-328.78
-307.20
-278.28
-247.12
-217.02
-189.36
-164.41
-142.03
-122.51
-105.43
-89.45
-72.57
-53.06
-30.23
-4.94
20.79
44.78
65.34
82.43
97.66
113.79
133.62
158.73
188.30
218.66
244.04
258.19
257.01
240.32
212.30
180.02
151.00
130.89
122.09
124.00
134.03
148.96
165.61
181.15
193.02
199.02
197.54
188.04
171.19
148.73
123.24
97.56
74.34
55.65
42.76
36.05
35.22
39.57
48.19
60.02
73.63
87.19
98.65
106.07
108.26
105.08
97.67
88.13
78.95
72.40
69.73
70.88
74.51
78.54
80.91
80.28
76.34
69.63
61.02
51.22
40.44
28.58
15.42
0.94
-14.57
-30.50
-45.84
-59.33
-69.50
-75.02
-75.10
-69.80
-60.13
-47.65
-33.96
-20.24
-7.08
5.30
16.69
26.53
34.00
38.17
38.49
35.02
28.58
20.48
12.19
4.90
-0.79
-4.85
-7.72
-9.89
-11.73
-13.30
-14.55
-15.64
-17.19
-20.27
-26.09
-35.43
-48.05
-62.48
-76.13
-86.09
-89.92
-86.41
-75.97
-60.39
-42.40
-24.95
-10.70
-1.60
1.39
-1.47
-8.57
-17.15
-23.83
-25.53
-20.39
-8.53
7.96
25.51
40.20
48.89
50.15
44.50
34.03
21.55
9.58
-0.34
-7.84
-13.52
-18.45
-23.75
-30.18
-38.00
-46.89
-55.86
-63.47
-68.09
-68.37
-63.72
-54.53
-42.03
-27.87
-13.60
-0.38
11.17
20.75
28.19
33.30
35.85
35.80
33.35
29.14
24.18
19.78
17.19
17.32
20.51
26.41
34.01
41.86
48.44
52.42
52.88
49.44
42.04
30.97
16.71
0.08
-17.74
-35.10
-49.99
-60.45
-64.96
-63.00
-55.12
-42.82
-28.08
-12.82
1.49
13.98
24.26
32.20
37.81
41.15
42.49
42.23
41.00
39.33
37.58
35.76
33.65
30.86
27.15
22.46
17.02
11.18
5.26
-0.63
-6.74
-13.56
-21.78
-31.85
-43.67
-56.38
-68.44
-77.93
-83.14
-83.09
-77.76
-68.12
-55.67
-41.99
-28.31
-15.26
-3.05
8.22
18.31
26.61
32.43
35.36
35.50
33.51
30.34
26.82
23.45
20.44
17.76
15.18
12.36
8.78
4.00
-2.11
-9.12
-16.16
-22.33
-27.17
-31.05
-34.84
-39.42
-44.94
-50.40
-53.87
-53.07
-46.18
-32.52
-12.80
10.93
35.90
59.37
79.43
95.29
107.08
115.24
120.08
121.69
120.27
116.47
111.38
105.98
100.49
94.16
85.56
73.65
58.43
41.30
24.37
9.54
-2.15
-10.79
-17.14
-22.20
-27.05
-32.91
-41.16
-52.94
-68.47
-86.41
-104.00
-117.80
-124.95
-124.24
-116.36
-103.48
-88.18
-72.55
-57.81
-44.37
-32.24
-21.41
-12.02
-4.30
1.61
5.70
8.14
9.25
9.30
8.47
6.81
4.36
1.25
-2.18
-5.51
-8.45
-11.04
-13.70
-16.99
-21.31
-26.71
-32.95
-39.77
-47.06
-54.81
-62.66
-69.62
-74.15
-74.67
-70.42
-62.04
-51.62
-41.99
-35.57
-33.50
-35.26
-39.13
-43.20
-46.16
-47.50
-46.73
-42.66
-33.11
-16.21
7.69
34.51
56.65
65.35
53.98
20.84
-30.35
-91.99
-155.38
-213.11
-259.88
-292.33
-308.45
-307.59
-291.28
-264.00
-232.70
-204.89
-186.04
-177.70
-177.27
-179.14
-177.16
-167.04
-147.73
-121.26
-91.38
-61.51
-33.03
-4.80
25.89
61.19
100.77
141.02
176.31
201.59
215.00
219.13
219.56
221.77
228.18
236.77
242.70
241.36
231.14
214.46
196.21
181.05
170.86
164.16
157.41
147.23
132.24
113.43
93.33
74.52
58.26
44.33
31.54
18.85
6.25
-5.00
-12.89
-15.68
-12.68
-4.78
5.91
16.91
26.21
32.89
37.20
40.02
42.34
44.69
47.03
48.89
49.64
48.92
46.67
43.24
39.10
34.73
30.40
26.18
21.97
17.62
13.04
8.15
2.84
-3.11
-9.99
-17.95
-26.76
-35.60
-43.13
-47.81
-48.39
-44.50
-36.68
-26.25
-14.71
-3.27
7.52
17.69
27.51
37.12
46.32
54.60
61.40
66.29
69.13
70.04
69.22
66.93
63.45
59.08
54.26
49.41
44.91
40.86
37.12
33.29
28.93
23.73
17.68
11.03
4.25
-2.22
-8.12
-13.60
-19.12
-25.42
-33.17
-42.65
-53.42
-64.21
-73.18
-78.39
-78.50
-73.24
-63.54
-51.14
-37.91
-25.20
-13.49
-2.56
8.07
18.63
28.82
37.92
45.15
50.03
52.59
53.21
52.34
50.29
47.14
42.90
37.69
31.92
26.17
20.99
16.62
12.90
9.37
5.50
0.99
-4.10
-9.43
-14.58
-19.18
-23.06
-26.29
-29.20
-32.28
-36.11
-41.22
-47.78
-55.30
-62.57
-67.87
-69.44
-66.08
-57.62
-45.01
-29.94
-14.27
0.49
13.51
24.60
33.90
41.65
47.87
52.49
55.35
56.43
55.92
54.18
51.67
48.77
45.77
42.71
39.45
35.72
31.28
26.04
20.14
13.93
7.80
2.02
-3.38
-8.62
-14.03
-19.96
-26.68
-34.32
-42.91
-52.18
-61.50
-69.68
-75.18
-76.48
-72.63
-63.73
-50.93
-36.08
-21.13
-7.56
3.95
13.46
21.41
28.24
34.14
39.03
42.74
45.21
46.56
47.05
46.92
46.24
44.96
42.92
40.12
36.71
33.04
29.34
25.71
22.02
18.01
13.52
8.59
3.40
-1.81
-6.91
-11.93
-17.01
-22.40
-28.35
-35.11
-42.79
-51.11
-59.26
-65.80
-69.03
-67.53
-60.83
-49.70
-35.96
-21.83
-9.11
1.35
9.64
16.42
22.32
27.53
31.79
34.74
36.13
36.15
35.20
33.68
31.77
29.39
26.35
22.60
18.44
14.39
11.01
8.60
6.96
5.56
3.67
0.78
-3.26
-8.21
-13.57
-18.85
-23.76
-28.28
-32.70
-37.40
-42.86
-49.34
-56.76
-64.53
-71.50
-76.15
-77.08
-73.40
-65.12
-53.19
-39.15
-24.66
-11.04
1.02
11.32
19.98
27.22
33.17
37.95
41.62
44.25
45.92
46.66
46.51
45.51
43.76
41.39
38.63
35.75
32.96
30.32
27.65
24.55
20.57
15.47
9.39
2.84
-3.45
-8.98
-13.72
-18.05
-22.60
-27.91
-34.22
-41.40
-48.98
-56.19
-62.01
-65.34
-65.20
-61.11
-53.37
-43.00
-31.45
-20.12
-9.90
-1.04
6.74
13.82
20.37
26.28
31.13
34.55
36.29
36.44
35.30
33.37
31.14
28.92
26.80
24.63
22.19
19.33
16.05
12.54
9.00
5.53
2.03
-1.69
-5.89
-10.70
-16.19
-22.36
-29.24
-36.75
-44.47
-51.55
-56.69
-58.53
-56.12
-49.39
-39.20
-27.15
-14.93
-3.90
5.23
12.41
18.00
22.50
26.26
29.46
32.03
33.78
34.55
34.21
32.87
30.76
28.18
25.37
22.48
19.58
16.70
13.88
11.17
8.48
5.65
2.43
-1.36
-5.75
-10.66
-15.94
-21.56
-27.68
-34.62
-42.65
-51.64
-60.91
-69.16
-74.87
-76.72
-74.05
-67.18
-57.18
-45.60
-33.89
-23.01
-13.38
-4.92
2.62
9.44
15.56
20.94
25.48
29.12
31.87
33.70
34.57
34.38
33.07
30.70
27.51
23.94
20.46
17.51
15.26
13.60
12.22
10.72
8.80
6.40
3.66
0.80
-2.03
-5.00
-8.47
-12.95
-18.83
-26.16
-34.47
-42.81
-49.89
-54.37
-55.19
-51.81
-44.49
-34.22
-22.49
-10.86
-0.48
8.21
15.45
21.87
28.09
34.33
40.28
45.32
48.81
50.39
50.16
48.53
46.05
43.10
39.88
36.47
32.97
29.49
26.18
23.04
19.93
16.56
12.72
8.41
3.82
-0.77
-5.24
-9.77
-14.83
-21.00
-28.61
-37.50
-46.82
-55.14
-60.80
-62.47
-59.56
-52.46
-42.38
-30.84
-19.21
-8.40
1.23
9.61
16.75
22.51
26.77
29.45
30.69
30.79
30.12
28.99
27.62
26.11
24.42
22.47
20.10
17.16
13.54
9.26
4.46
-0.64
-5.84
-11.03
-16.27
-21.79
-27.95
-35.15
-43.56
-52.97
-62.56
-70.97
-76.61
-78.15
-74.97
-67.46
-56.85
-44.76
-32.71
-21.58
-11.58
-2.47
6.05
13.95
20.83
26.12
29.41
30.76
30.73
30.12
29.68
29.76
30.30
30.91
31.22
31.00
30.25
29.07
27.45
25.25
22.18
17.98
12.61
6.20
-0.99
-8.80
-17.28
-26.57
-36.67
-47.08
-56.70
-64.09
-67.92
-67.47
-62.95
-55.35
-46.02
-36.21
-26.74
-17.91
-9.69
-1.93
5.46
12.42
18.86
24.65
29.69
33.84
36.94
38.80
39.35
38.72
37.33
35.81
34.75
34.39
34.49
34.31
33.02
30.09
25.52
19.89
14.16
9.25
5.82
4.01
3.52
3.67
3.64
2.74
0.62
-2.42
-5.44
-6.91
-5.25
0.65
10.90
24.50
39.63
54.33
67.22
77.72
85.95
92.15
96.19
97.48
95.25
89.18
79.82
68.48
56.75
45.76
35.82
26.45
16.79
6.26
-5.10
-16.66
-27.48
-36.78
-44.27
-50.26
-55.53
-60.99
-67.44
-75.18
-83.90
-92.57
-99.69
-103.64
-103.16
-97.79
-87.93
-74.77
-59.79
-44.47
-29.85
-16.52
-4.80
5.18
13.26
19.31
23.38
25.73
26.93
27.62
28.34
29.29
30.22
30.56
29.63
27.05
22.88
17.63
12.09
6.93
2.45
-1.60
-5.83
-11.05
-17.91
-26.79
-37.59
-49.70
-62.02
-73.04
-81.11
-84.89
-83.69
-77.72
-67.96
-55.82
-42.60
-29.22
-16.17
-3.66
8.10
18.82
28.11
35.70
41.56
45.92
49.12
51.39
52.80
53.25
52.58
50.70
47.69
43.76
39.26
34.56
29.98
25.68
21.59
17.52
13.11
8.03
1.95
-5.41
-14.10
-23.85
-33.89
-42.95
-49.54
-52.44
-51.12
-45.95
-38.03
-28.66
-18.86
-9.12
0.50
10.04
19.31
27.77
34.66
39.33
41.50
41.49
40.02
38.06
36.41
35.41
34.89
34.28
32.96
30.52
26.96
22.56
17.67
12.59
7.47
2.38
-2.59
-7.42
-12.20
-17.27
-23.12
-30.09
-38.08
-46.24
-53.15
-57.17
-57.01
-52.20
-43.30
-31.65
-18.89
-6.47
4.72
14.38
22.62
29.67
35.57
40.20
43.30
44.74
44.68
43.59
42.04
40.45
38.87
36.99
34.35
30.67
26.13
21.28
16.85
13.28
10.53
8.10
5.25
1.41
-3.75
-10.21
-17.78
-26.13
-34.73
-42.71
-48.92
-52.15
-51.46
-46.66
-38.46
-28.25
-17.69
-8.10
-0.20
5.94
10.54
13.78
15.64
15.88
14.44
11.61
8.05
4.61
1.85
-0.19
-2.05
-4.55
-8.32
-13.47
-19.54
-25.65
-30.94
-34.90
-37.46
-38.96
-40.00
-41.13
-42.85
-45.47
-49.06
-53.30
-57.43
-60.26
-60.34
-56.44
-47.93
-35.14
-19.26
-1.95
15.13
30.86
44.74
56.84
67.44
76.75
84.81
91.49
96.71
100.50
103.08
104.73
105.68
106.00
105.68
104.62
102.68
99.76
95.75
90.53
84.00
76.05
66.61
55.69
43.37
29.82
15.23
-0.20
-16.31
-32.88
-49.54
-65.60
-80.08
-91.84
-99.91
-103.85
-103.85
-100.63
-95.03
-87.72
-78.96
-68.88
-57.83
-46.53
-36.10
-27.57
-21.40
-17.29
-14.30
-11.44
-8.25
-5.08
-2.93
-2.72
-4.64
-7.76
-10.13
-9.35
-3.56
8.16
25.46
46.69
69.59
92.04
111.86
127.25
137.55
143.71
148.37
154.95
166.21
183.16
204.61
226.89
245.02
254.21
251.00
233.91
203.45
161.08
109.11
50.88
-10.37
-71.20
-126.39
-168.85
-190.98
-187.61
-160.24
-116.56
-66.37
-20.73
11.95
29.96
37.18
39.27
39.89
36.17
23.46
3.08
-22.91
-52.86
-83.93
-114.04
-142.67
-170.10
-199.59
-230.71
-252.01
-255.19
-239.44
-207.90
-167.40
-126.53
-93.06
-77.48
-85.06
-106.09
-132.67
-162.46
-192.99
-222.24
-248.87
-237.23
-169.35
-102.15
-57.98
-25.85
-5.12
4.04
2.41
-6.88
-18.22
-30.37
-41.66
-41.93
-29.05
-10.37
6.51
16.40
18.07
13.99
4.38
-9.36
-18.26
-18.37
-12.37
-3.94
2.81
4.07
-2.56
-19.63
-45.70
-70.78
-85.34
-83.75
-63.59
-27.58
16.06
55.57
78.22
76.67
54.58
22.71
-5.50
-18.22
-10.35
14.69
47.28
75.84
92.01
93.66
82.73
62.53
36.24
6.32
-24.84
-54.11
-77.85
-92.94
-97.85
-93.32
-81.88
-66.89
-51.26
-36.73
-23.56
-10.84
2.90
18.81
36.94
55.84
72.99
85.66
92.22
92.94
90.15
87.20
87.13
91.29
99.09
108.49
117.04
122.98
125.53
124.66
120.68
113.85
104.32
92.38
78.69
64.16
49.74
36.01
22.82
9.62
-4.13
-18.47
-32.71
-45.78
-56.94
-66.35
-74.85
-83.05
-90.24
-94.25
-92.31
-82.83
-66.72
-47.46
-29.70
-17.43
-12.49
-14.57
-22.25
-34.15
-49.43
-66.98
-84.22
-96.22
-96.48
-79.41
-43.52
6.32
59.37
102.41
124.71
122.20
98.81
63.73
26.62
-6.75
-35.89
-63.55
-91.93
-119.93
-143.17
-156.70
-158.40
-150.92
-140.80
-135.33
-139.16
-152.36
-170.80
-188.23
-198.97
-199.85
-190.77
-173.78
-151.94
-128.12
-104.50
-82.46
-62.56
-44.66
-27.99
-11.39
6.27
25.60
46.90
70.48
97.11
127.73
162.43
199.35
234.34
262.03
277.92
280.46
271.83
256.96
241.31
228.59
219.73
213.46
207.84
201.66
195.09
189.09
184.43
180.72
176.39
169.23
157.44
140.43
119.27
96.21
73.95
54.60
39.12
27.21
17.81
9.66
1.92
-5.81
-13.67
-21.94
-31.18
-42.14
-55.26
-70.23
-85.85
-100.25
-111.42
-117.90
-119.18
-115.67
-108.42
-98.58
-87.06
-74.41
-61.06
-47.50
-34.48
-22.87
-13.48
-6.79
-2.75
-0.82
-0.06
0.70
2.58
6.40
12.44
20.30
29.01
37.33
44.19
49.08
52.19
54.21
55.86
57.53
59.06
59.83
59.16
56.73
52.83
48.26
44.05
40.99
39.42
39.17
39.77
40.82
42.18
43.99
46.49
49.70
53.38
56.93
59.72
61.31
61.58
60.76
59.25
57.45
55.63
53.86
52.00
49.75
46.63
41.99
34.95
24.58
10.06
-8.71
-30.68
-53.31
-72.91
-85.56
-88.34
-80.31
-62.68
-38.33
-10.80
16.44
40.59
59.66
72.55
79.12
80.35
78.10
74.62
71.81
70.61
70.86
71.63
71.93
71.16
69.28
66.64
63.72
60.92
58.41
56.10
53.65
50.63
46.76
42.18
37.56
33.82
31.76
31.56
32.54
33.28
31.98
27.21
18.33
6.00
-7.90
-20.57
-29.03
-31.04
-25.73
-14.02
1.78
18.84
34.86
48.75
60.75
71.85
83.04
94.67
106.21
116.47
123.98
127.51
126.56
121.79
114.98
108.67
105.03
104.67
105.79
104.40
95.57
75.38
42.68
-0.26
-48.47
-95.85
-136.99
-168.33
-188.56
-198.33
-199.65
-195.34
-188.41
-181.55
-176.64
-174.38
-174.22
-174.59
-173.45
-168.95
-159.96
-146.42
-129.34
-110.62
-92.40
-76.63
-64.39
-55.70
-49.64
-44.75
-39.73
-34.02
-27.88
-22.24
-18.12
-16.13
-16.30
-18.08
-20.74
-23.71
-26.83
-30.31
-34.53
-39.84
-46.26
-53.54
-61.23
-68.88
-76.39
-83.97
-92.12
-101.29
-111.59
-122.50
-133.08
-142.39
-150.06
-156.60
-163.20
-171.00
-180.21
-189.54
-196.39
-197.72
-191.30
-176.51
-154.70
-128.51
-100.99
-74.65
-50.91
-30.17
-12.18
3.53
17.32
29.33
39.58
47.97
54.40
58.74
60.97
61.34
60.53
59.68
60.21
63.45
70.13
80.14
92.54
105.96
119.03
130.86
141.04
149.45
156.04
160.54
162.58
161.95
158.77
153.70
147.69
141.83
137.03
133.80
132.08
131.23
130.08
127.19
121.18
111.23
97.31
80.21
61.14
41.22
21.07
0.71
-20.11
-41.47
-62.89
-83.29
-101.15
-114.94
-123.47
-126.13
-122.96
-114.57
-101.99
-86.56
-69.76
-53.12
-38.08
-25.76
-16.76
-10.98
-7.65
-5.54
-3.36
-0.16
4.48
10.39
16.94
23.23
28.31
31.28
31.51
28.71
22.89
14.28
3.12
-10.47
-26.51
-45.01
-65.75
-88.07
-110.84
-132.56
-151.55
-166.20
-175.24
-178.02
-174.71
-166.32
-154.49
-141.00
-127.29
-114.10
-101.43
-88.89
-76.16
-63.39
-51.26
-40.77
-32.66
-27.11
-23.40
-20.21
-15.99
-9.49
-0.04
12.41
27.23
43.45
59.85
75.00
87.44
95.70
98.77
96.38
89.36
79.53
69.26
60.70
55.15
52.74
52.65
53.64
54.71
55.43
55.82
56.02
55.86
54.84
52.35
48.00
41.84
34.29
25.94
17.30
8.75
0.50
-7.26
-14.33
-20.54
-25.75
-29.99
-33.45
-36.53
-39.73
-43.56
-48.41
-54.50
-61.87
-70.34
-79.51
-88.68
-96.78
-102.50
-104.56
-102.11
-95.08
-84.29
-71.17
-57.27
-43.90
-31.90
-21.69
-13.45
-7.17
-2.71
0.28
2.31
3.99
5.82
8.13
11.02
14.34
17.69
20.54
22.33
22.72
21.69
19.60
16.90
13.88
10.43
6.03
0.14
-7.34
-15.78
-23.78
-29.62
-31.71
-29.19
-22.09
-11.24
2.02
16.26
30.28
43.19
54.44
63.71
70.87
75.93
79.10
80.78
81.45
81.50
81.06
79.96
77.74
73.96
68.42
61.37
53.51
45.65
38.47
32.12
26.11
19.48
11.14
0.32
-12.95
-27.68
-42.01
-53.66
-60.51
-61.25
-55.71
-44.82
-30.22
-13.72
3.11
19.10
33.31
44.91
53.15
57.42
57.58
54.14
48.18
41.16
34.44
29.00
25.16
22.62
20.64
18.32
15.01
10.61
5.57
0.83
-2.64
-4.33
-4.54
-4.36
-5.33
-8.87
-15.59
-24.88
-34.73
-42.26
-44.46
-39.27
-26.52
-8.23
11.85
29.46
41.49
47.30
49.14
51.36
58.60
73.69
96.13
121.78
144.19
157.02
156.38
142.31
118.62
91.54
67.22
49.66
39.40
33.34
25.76
10.35
-17.58
-59.01
-110.43
-164.52
-212.36
-246.39
-262.76
-262.22
-249.17
-229.55
-208.66
-189.90
-174.62
-162.63
-152.88
-143.97
-134.26
-122.00
-105.70
-84.51
-58.78
-30.17
-1.38
24.26
43.60
54.65
57.34
53.88
48.62
46.71
52.47
67.72
91.02
118.36
144.64
165.51
178.45
182.82
179.16
168.53
152.09
131.15
107.36
82.57
58.34
35.75
15.42
-2.11
-15.91
-24.69
-27.32
-23.54
-14.38
-2.08
10.61
21.05
27.29
28.28
24.00
15.46
4.55
-6.33
-15.06
-20.46
-22.61
-22.71
-22.47
-23.31
-26.00
-30.59
-36.67
-43.84
-51.81
-60.46
-69.57
-78.53
-86.28
-91.38
-92.51
-88.77
-79.93
-66.35
-48.79
-28.19
-5.67
17.29
38.76
56.63
69.24
76.11
78.30
78.09
78.04
79.87
83.80
88.71
93.01
95.67
96.71
97.10
97.90
99.47
100.95
100.52
96.19
86.65
71.91
53.26
32.79
12.66
-5.54
-20.96
-33.46
-43.23
-50.44
-55.12
-57.28
-57.06
-55.09
-52.55
-50.95
-51.79
-56.07
-63.92
-74.56
-86.50
-98.05
-107.62
-113.88
-115.79
-112.54
-103.69
-89.34
-70.49
-49.03
-27.25
-7.05
10.76
26.51
41.19
55.41
68.75
79.84
87.06
89.72
88.54
85.55
82.87
81.61
81.34
80.49
77.49
71.78
64.37
57.34
52.99
53.00
58.07
67.71
80.55
94.61
107.73
118.07
124.58
127.42
127.90
128.00
129.41
132.80
137.56
141.97
144.08
142.07
134.69
121.36
102.23
78.57
53.01
29.30
11.27
1.45
-0.29
3.02
6.62
6.07
-0.70
-12.63
-26.31
-37.88
-44.95
-47.42
-47.10
-46.29
-46.52
-47.99
-49.95
-51.62
-52.77
-53.88
-55.67
-58.40
-61.47
-63.48
-62.81
-58.36
-50.15
-39.39
-28.21
-18.97
-13.51
-12.44
-14.91
-18.77
-21.38
-20.63
-15.91
-8.70
-2.21
-0.31
-5.99
-20.26
-41.74
-67.14
-92.33
-113.40
-127.44
-132.95
-130.15
-120.97
-108.76
-97.41
-89.87
-86.58
-84.70
-78.88
-63.44
-35.13
4.72
50.05
92.02
122.31
136.22
134.12
120.80
103.10
86.97
75.52
68.67
64.19
59.56
53.20
44.92
35.35
25.07
14.09
2.01
-11.48
-26.07
-40.70
-54.01
-65.02
-73.54
-80.34
-86.73
-94.10
-103.38
-114.85
-128.03
-141.67
-153.78
-161.83
-163.25
-156.22
-140.32
-117.13
-90.03
-63.66
-42.59
-30.11
-27.18
-32.23
-41.77
-51.67
-58.71
-61.70
-61.92
-62.70
-68.29
-82.02
-105.03
-135.00
-166.46
-191.97
-204.20
-198.36
-173.71
-134.32
-88.17
-45.23
-14.53
-1.55
-6.44
-24.06
-45.93
-63.57
-71.75
-70.21
-63.11
-56.28
-54.16
-57.81
-65.20
-73.17
-79.68
-84.89
-90.48
-97.99
-107.38
-116.83
-123.82
-126.52
-125.13
-121.46
-117.84
-115.59
-114.15
-111.38
-104.56
-92.03
-73.91
-52.24
-29.99
-9.93
6.32
18.56
27.54
34.39
39.99
44.88
49.18
52.83
55.58
57.17
57.24
55.64
52.60
48.83
45.59
44.39
46.65
53.27
64.30
78.88
95.32
111.55
125.62
136.23
142.89
145.95
146.27
144.76
142.02
138.07
132.45
124.40
113.33
99.21
82.80
65.61
49.40
35.74
25.45
18.64
14.86
13.54
14.25
16.78
21.22
28.05
38.32
53.54
75.07
103.14
135.86
169.11
197.32
215.33
220.03
211.33
191.71
164.92
134.51
103.01
72.05
42.92
17.08
-3.82
-18.46
-26.68
-29.88
-30.94
-33.43
-40.39
-53.17
-70.70
-89.46
-104.29
-109.68
-101.33
-77.36
-38.96
9.86
62.95
113.44
155.14
183.89
198.43
200.40
193.68
182.87
171.88
163.00
156.90
153.47
152.68
155.15
161.77
172.92
187.99
205.24
222.42
237.28
247.85
252.05
247.50
231.74
203.14
162.05
111.21
55.29
-0.58
-52.20
-97.05
-133.86
-161.90
-180.48
-189.21
-188.89
-182.27
-173.86
-168.59
-169.90
-178.26
-191.04
-203.65
-211.79
-213.19
-208.27
-199.42
-189.39
-179.87
-170.79
-160.82
-148.53
-133.43
-116.57
-100.02
-85.99
-75.82
-69.38
-65.36
-61.91
-57.56
-51.85
-45.45
-39.73
-36.04
