1498756599.00
64.000000
-0.00
-0.00
-0.00
-0.00
-0.00
-0.00
-0.00
-0.00
-0.00
-0.00
0.00
0.01
0.01
-0.00
-0.03
-0.05
-0.05
0.00
0.13
0.36
0.66
1.01
1.37
1.72
2.06
2.40
2.79
3.24
3.80
4.42
5.06
5.66
6.20
6.68
7.15
7.68
8.31
9.14
10.09
11.04
11.88
12.56
13.14
13.76
14.65
15.96
17.91
20.32
22.90
25.38
27.58
29.57
31.68
34.32
37.81
42.54
48.15
54.10
59.83
64.97
69.58
74.14
79.34
85.71
93.76
103.00
112.62
121.73
129.77
136.75
143.30
150.75
157.77
166.64
177.95
191.79
206.97
220.57
228.25
225.36
208.53
176.87
132.76
80.05
23.07
-34.94
-92.44
-149.16
-205.23
-260.37
-313.74
-363.87
-409.83
-450.91
-486.50
-515.74
-537.23
-549.22
-549.96
-538.37
-514.21
-478.67
-433.88
-382.45
-327.02
-269.84
-212.63
-156.66
-102.95
-52.37
-5.90
35.58
71.43
101.35
125.50
144.38
158.69
169.15
176.37
180.75
182.57
182.07
179.51
175.23
169.65
163.18
156.15
148.81
141.30
133.69
126.02
118.33
110.69
103.16
95.80
88.68
81.83
75.25
68.95
62.95
57.25
51.86
46.78
42.03
37.59
33.45
29.61
26.07
22.81
19.83
17.11
14.67
12.48
10.54
8.83
7.35
6.07
4.97
4.05
3.27
2.62
2.09
1.65
1.30
1.01
0.79
0.61
0.47
0.37
0.29
0.23
0.19
0.17
0.15
0.15
0.16
0.18
0.20
0.23
0.26
0.30
0.34
0.38
0.43
0.48
0.52
0.57
0.62
0.68
0.74
0.80
0.87
0.94
1.02
1.11
1.21
1.33
1.45
1.60
1.76
1.93
2.13
2.35
2.59
2.86
3.15
3.48
3.84
4.23
4.65
5.11
5.61
6.14
6.72
7.34
7.99
8.70
9.44
10.24
11.08
11.96
12.89
13.87
14.91
16.01
17.18
18.40
19.66
20.94
22.17
23.27
24.16
24.70
24.80
24.31
23.17
21.32
18.75
15.52
11.70
7.48
3.03
-1.44
-5.70
-9.58
-12.90
-15.57
-17.50
-18.69
-19.17
-19.01
-18.33
-17.25
-15.89
-14.38
-12.83
-11.26
-9.69
-8.08
-6.43
-4.72
-2.97
-1.19
0.59
2.35
4.10
5.90
7.86
9.95
12.15
14.44
16.77
19.08
21.32
23.54
25.88
28.59
31.61
34.93
38.46
42.04
45.44
48.53
51.31
54.05
57.22
60.83
64.89
69.24
73.53
77.24
80.03
81.81
82.95
84.16
85.53
87.08
88.42
88.69
86.73
81.27
71.17
55.22
36.96
17.92
-0.96
-19.41
-37.71
-56.53
-76.72
-99.14
-124.37
-152.18
-181.68
-210.21
-233.79
-248.35
-251.17
-242.06
-223.49
-199.56
-174.33
-151.04
-130.87
-113.53
-98.25
-84.63
-72.75
-62.89
-54.95
-48.20
-41.96
-35.47
-28.41
-20.92
-13.54
-6.79
-0.94
4.17
8.98
13.85
19.03
24.42
29.62
34.05
37.19
38.82
39.11
38.53
37.60
36.77
36.27
36.04
35.87
35.46
34.65
33.40
31.81
30.09
28.39
26.73
25.05
23.22
21.18
19.01
16.86
14.87
13.11
11.48
9.83
7.98
5.87
3.52
1.07
-1.26
-3.20
-4.44
-4.71
-3.87
-2.02
0.52
3.26
5.75
7.69
8.98
9.75
10.20
10.53
10.89
11.34
11.82
12.29
12.63
12.81
12.83
12.73
12.56
12.32
11.93
11.32
10.42
9.25
7.91
6.56
5.27
4.07
2.89
1.63
0.25
-1.23
-2.73
-4.15
-5.44
-6.62
-7.75
-8.86
-9.88
-10.66
-10.92
-10.45
-9.10
-6.90
-4.12
-1.11
1.76
4.24
6.24
7.85
9.18
10.29
11.15
11.68
11.88
11.87
11.83
11.87
11.95
11.91
11.57
10.90
10.08
9.33
8.78
8.34
7.76
6.83
5.47
3.84
2.20
0.75
-0.52
-1.80
-3.33
-5.26
-7.59
-10.13
-12.64
-14.84
-16.45
-17.19
-16.83
-15.23
-12.49
-8.93
-5.07
-1.46
1.47
3.57
4.95
5.94
6.83
7.76
8.70
9.51
10.06
10.35
10.51
10.68
10.92
11.14
11.13
10.72
9.88
8.78
7.69
6.79
6.08
5.35
4.33
2.89
1.08
-0.80
-2.42
-3.56
-4.26
-4.76
-5.36
-6.36
-7.83
-9.64
-11.52
-13.08
-13.91
-13.67
-12.20
-9.64
-6.42
-3.09
-0.19
1.98
3.43
4.38
5.17
6.01
6.95
7.90
8.74
9.43
10.03
10.63
11.25
11.82
12.19
12.20
11.86
11.27
10.63
9.99
9.23
8.05
6.20
3.62
0.62
-2.26
-4.51
-5.85
-6.36
-6.42
-6.50
-6.90
-7.76
-9.00
-10.41
-11.80
-12.95
-13.66
-13.71
-12.96
-11.36
-9.03
-6.25
-3.39
-0.83
1.22
2.74
3.87
4.74
5.47
6.04
6.37
6.41
6.17
5.80
5.49
5.37
5.48
5.72
5.93
5.96
5.75
5.35
4.84
4.26
3.60
2.76
1.66
0.33
-1.11
-2.43
-3.55
-4.48
-5.39
-6.51
-7.95
-9.66
-11.41
-12.93
-13.95
-14.35
-14.03
-12.97
-11.15
-8.67
-5.72
-2.65
0.14
2.34
3.78
4.55
4.89
5.02
5.14
5.28
5.40
5.44
5.41
5.37
5.42
5.57
5.72
5.72
5.40
4.71
3.75
2.72
1.81
1.08
0.48
-0.17
-1.01
-2.04
-3.17
-4.22
-5.09
-5.86
-6.70
-7.82
-9.25
-10.74
-11.85
-12.08
-11.19
-9.21
-6.54
-3.71
-1.18
0.85
2.39
3.55
4.42
4.99
5.19
5.03
4.65
4.30
4.25
4.63
5.37
6.20
6.83
7.00
6.59
5.68
4.50
3.32
2.35
1.65
1.11
0.56
-0.13
-0.96
-1.88
-2.83
-3.86
-5.13
-6.80
-8.89
-11.16
-13.12
-14.21
-14.06
-12.58
-10.10
-7.16
-4.34
-2.01
-0.25
1.14
2.44
3.84
5.27
6.48
7.18
7.26
6.86
6.34
6.05
6.11
6.38
6.55
6.35
5.72
4.84
4.03
3.50
3.26
3.09
2.73
2.03
0.97
-0.27
-1.58
-2.92
-4.39
-6.11
-8.17
-10.48
-12.80
-14.76
-15.97
-16.16
-15.23
-13.24
-10.47
-7.25
-4.00
-1.01
1.48
3.40
4.77
5.66
6.22
6.60
6.96
7.42
8.00
8.64
9.18
9.48
9.46
9.18
8.77
8.33
7.87
7.31
6.50
5.36
3.91
2.30
0.71
-0.66
-1.78
-2.71
-3.60
-4.70
-6.17
-8.17
-10.72
-13.70
-16.79
-19.54
-21.40
-21.90
-20.81
-18.20
-14.43
-10.07
-5.73
-1.89
1.18
3.45
5.05
6.20
7.08
7.77
8.33
8.69
8.84
8.75
8.42
7.91
7.31
6.73
6.32
6.20
6.40
6.83
7.28
7.50
7.30
6.69
5.82
4.92
4.12
3.45
2.82
2.09
1.19
0.04
-1.45
-3.40
-5.93
-8.95
-12.08
-14.64
-15.85
-15.17
-12.57
-8.58
-4.07
0.09
3.36
5.62
7.08
8.08
8.85
9.53
10.12
10.62
11.03
11.33
11.52
11.56
11.48
11.28
10.98
10.57
10.00
9.21
8.19
7.02
5.81
4.63
3.49
2.27
0.91
-0.64
-2.30
-3.99
-5.68
-7.46
-9.49
-11.81
-14.28
-16.52
-17.99
-18.21
-16.93
-14.24
-10.59
-6.59
-2.87
0.13
2.26
3.68
4.66
5.45
6.19
6.85
7.31
7.43
7.22
6.81
6.44
6.33
6.61
7.19
7.84
8.23
8.10
7.39
6.15
4.56
2.80
0.98
-0.91
-2.85
-4.82
-6.79
-8.72
-10.67
-12.75
-15.03
-17.40
-19.51
-20.86
-20.96
-19.61
-16.96
-13.50
-9.88
-6.59
-3.85
-1.61
0.37
2.27
4.13
5.82
7.10
7.86
8.12
8.06
7.96
8.02
8.29
8.64
8.86
8.78
8.36
7.69
6.97
6.32
5.82
5.35
4.76
3.93
2.78
1.29
-0.51
-2.65
-5.19
-8.08
-11.15
-14.00
-16.10
-17.00
-16.46
-14.66
-12.05
-9.24
-6.70
-4.58
-2.78
-1.01
0.91
2.98
5.00
6.68
7.80
8.36
8.56
8.62
8.76
9.09
9.57
10.12
10.59
10.85
10.80
10.33
9.41
8.01
6.23
4.24
2.20
0.24
-1.62
-3.46
-5.43
-7.69
-10.34
-13.41
-16.79
-20.21
-23.23
-25.30
-25.89
-24.66
-21.60
-17.05
-11.61
-6.00
-0.78
3.74
7.49
10.66
13.43
15.93
18.17
19.96
21.10
21.47
21.11
20.22
19.04
17.79
16.51
15.19
13.75
12.21
10.63
9.07
7.51
5.84
3.95
1.78
-0.56
-2.86
-4.89
-6.50
-7.77
-8.94
-10.31
-12.13
-14.38
-16.76
-18.72
-19.66
-19.17
-17.20
-14.07
-10.35
-6.62
-3.25
-0.37
2.06
4.14
5.91
7.38
8.52
9.38
10.12
10.87
11.74
12.71
13.65
14.35
14.66
14.51
13.93
13.00
11.79
10.37
8.75
7.00
5.23
3.63
2.40
1.64
1.27
1.00
0.45
-0.73
-2.72
-5.47
-8.68
-11.92
-14.69
-16.50
-17.00
-16.05
-13.79
-10.62
-7.12
-3.84
-1.13
0.95
2.57
4.01
5.45
6.96
8.43
9.77
10.86
11.63
12.07
12.18
11.99
11.60
11.15
10.78
10.56
10.41
10.17
9.62
8.60
7.10
5.22
3.18
1.20
-0.57
-2.08
-3.34
-4.46
-5.62
-7.02
-8.81
-11.02
-13.45
-15.66
-17.10
-17.23
-15.81
-12.96
-9.15
-5.05
-1.32
1.65
3.77
5.18
6.15
6.89
7.51
8.03
8.44
8.76
9.01
9.19
9.28
9.24
9.00
8.60
8.12
7.67
7.35
7.15
6.95
6.61
5.99
5.06
3.89
2.60
1.28
-0.02
-1.32
-2.68
-4.16
-5.80
-7.64
-9.61
-11.51
-13.03
-13.75
-13.30
-11.55
-8.69
-5.22
-1.78
1.13
3.32
4.92
6.19
7.37
8.48
9.39
9.95
10.08
9.84
9.38
8.84
8.32
7.84
7.35
6.82
6.16
5.27
4.07
2.57
0.86
-0.90
-2.53
-3.92
-5.08
-6.16
-7.27
-8.54
-10.03
-11.70
-13.44
-15.03
-16.12
-16.31
-15.31
-13.04
-9.75
-5.91
-2.08
1.32
4.10
6.25
7.87
9.07
9.88
10.32
10.36
10.05
9.53
8.92
8.37
7.94
7.62
7.31
6.87
6.21
5.31
4.25
3.19
2.26
1.53
0.95
0.40
-0.26
-1.20
-2.51
-4.25
-6.36
-8.70
-10.98
-12.88
-14.06
-14.30
-13.50
-11.77
-9.38
-6.67
-3.96
-1.53
0.47
2.03
3.20
4.11
4.88
5.62
6.35
7.02
7.50
7.67
7.49
7.05
6.54
6.15
5.97
5.95
5.93
5.70
5.18
4.41
3.54
2.72
2.05
1.50
0.98
0.32
-0.61
-1.89
-3.51
-5.38
-7.32
-9.10
-10.48
-11.24
-11.26
-10.48
-9.03
-7.09
-4.95
-2.83
-0.94
0.69
2.05
3.21
4.23
5.15
5.93
6.54
6.94
7.15
7.19
7.13
7.00
6.82
6.58
6.23
5.77
5.17
4.46
3.66
2.80
1.92
1.06
0.26
-0.43
-0.96
-1.40
-1.86
-2.49
-3.41
-4.65
-6.15
-7.77
-9.32
-10.59
-11.40
-11.59
-11.04
-9.78
-7.96
-5.88
-3.85
-2.13
-0.79
0.25
1.16
2.12
3.17
4.24
5.17
5.83
6.11
6.06
5.77
5.41
5.16
5.07
5.13
5.21
5.11
4.70
3.90
2.82
1.59
0.42
-0.59
-1.40
-2.01
-2.51
-2.93
-3.36
-3.91
-4.69
-5.76
-7.09
-8.44
-9.44
-9.72
-9.03
-7.38
-5.03
-2.42
0.02
1.96
3.27
3.99
4.25
4.26
4.16
4.05
3.94
3.83
3.70
3.58
3.54
3.64
3.86
4.11
4.20
4.00
3.47
2.66
1.79
1.02
0.41
-0.10
-0.63
-1.28
-2.06
-2.87
-3.62
-4.26
-4.85
-5.57
-6.58
-7.93
-9.45
-10.80
-11.56
-11.43
-10.32
-8.44
-6.17
-3.94
-2.03
-0.55
0.59
1.54
2.43
3.28
4.00
4.47
4.61
4.39
3.92
3.35
2.86
2.60
2.58
2.74
2.95
3.07
3.00
2.71
2.20
1.49
0.62
-0.36
-1.36
-2.26
-2.97
-3.46
-3.78
-4.08
-4.54
-5.32
-6.49
-7.96
-9.48
-10.67
-11.18
-10.76
-9.40
-7.36
-5.06
-2.90
-1.11
0.27
1.39
2.39
3.33
4.10
4.56
4.58
4.21
3.59
2.99
2.59
2.44
2.47
2.47
2.27
1.84
1.24
0.63
0.13
-0.29
-0.78
-1.52
-2.55
-3.72
-4.79
-5.61
-6.25
-6.92
-7.92
-9.30
-10.82
-11.98
-12.32
-11.60
-9.93
-7.70
-5.33
-3.10
-1.11
0.67
2.26
3.56
4.48
4.91
4.84
4.43
3.84
3.27
2.88
2.68
2.66
2.76
2.85
2.89
2.79
2.52
2.05
1.41
0.62
-0.23
-1.07
-1.86
-2.60
-3.35
-4.20
-5.24
-6.54
-8.11
-9.85
-11.54
-12.85
-13.40
-12.90
-11.33
-8.93
-6.14
-3.48
-1.27
0.44
1.78
2.94
4.00
4.85
5.37
5.47
5.23
4.81
4.42
4.16
4.01
3.92
3.83
3.71
3.60
3.47
3.29
2.97
2.46
1.77
0.99
0.25
-0.37
-0.89
-1.43
-2.15
-3.16
-4.54
-6.24
-8.07
-9.74
-10.94
-11.36
-10.88
-9.53
-7.56
-5.27
-3.00
-0.94
0.84
2.38
3.74
4.92
5.86
6.52
6.88
6.99
6.93
6.76
6.46
6.01
5.38
4.58
3.64
2.63
1.64
0.73
-0.05
-0.70
-1.24
-1.71
-2.13
-2.49
-2.79
-3.05
-3.34
-3.82
-4.71
-6.09
-7.86
-9.68
-11.01
-11.33
-10.31
-8.01
-4.83
-1.34
1.87
4.44
6.28
7.47
8.22
8.65
8.84
8.83
8.67
8.40
8.10
7.76
7.38
6.96
6.53
6.23
6.16
6.34
6.67
6.93
6.89
6.40
5.49
4.27
2.97
1.73
0.63
-0.32
-1.20
-2.12
-3.24
-4.68
-6.48
-8.50
-10.47
-11.97
-12.62
-12.21
-10.79
-8.61
-6.06
-3.48
-1.11
0.92
2.59
3.89
4.81
5.38
5.70
5.88
6.03
6.23
6.42
6.51
6.46
6.33
6.29
6.52
7.18
8.19
9.27
9.99
9.92
8.85
6.88
4.37
1.81
-0.40
-2.09
-3.39
-4.60
-6.07
-7.99
-10.34
-12.87
-15.18
-16.90
-17.70
-17.42
-16.04
-13.69
-10.63
-7.27
-4.03
-1.26
0.87
2.43
3.62
4.67
5.68
6.61
7.32
7.71
7.82
7.80
7.84
8.05
8.39
8.74
8.97
8.98
8.76
8.27
7.46
6.23
4.58
2.57
0.39
-1.78
-3.76
-5.54
-7.20
-8.90
-10.74
-12.77
-14.85
-16.75
-18.07
-18.43
-17.55
-15.37
-12.15
-8.37
-4.56
-1.19
1.50
3.43
4.68
5.34
5.53
5.42
5.21
5.12
5.31
5.85
6.61
7.41
8.05
8.40
8.42
8.14
7.61
6.85
5.85
4.60
3.13
1.46
-0.36
-2.31
-4.38
-6.60
-9.03
-11.63
-14.25
-16.60
-18.22
-18.70
-17.74
-15.36
-11.84
-7.69
-3.47
0.38
3.62
6.16
8.03
9.19
9.62
9.34
8.54
7.58
6.93
6.96
7.76
9.08
10.45
11.38
11.60
11.09
10.03
8.68
7.23
5.75
4.26
2.75
1.22
-0.34
-1.98
-3.84
-6.04
-8.67
-11.59
-14.44
-16.68
-17.73
-17.19
-15.01
-11.53
-7.38
-3.24
0.40
3.37
5.77
7.82
9.63
11.19
12.37
13.06
13.28
13.17
12.92
12.68
12.46
12.17
11.70
10.97
10.00
8.89
7.75
6.64
5.56
4.45
3.25
1.89
0.38
-1.24
-3.00
-4.93
-7.10
-9.55
-12.16
-14.61
-16.41
-17.06
-16.21
-13.90
-10.51
-6.70
-3.11
-0.17
2.06
3.75
5.16
6.47
7.62
8.45
8.86
8.83
8.59
8.39
8.45
8.84
9.48
10.17
10.68
10.85
10.56
9.76
8.46
6.76
4.86
2.98
1.34
0.04
-0.93
-1.69
-2.42
-3.29
-4.45
-5.97
-7.84
-9.91
-11.88
-13.29
-13.71
-12.83
-10.64
-7.45
-3.76
-0.07
3.22
5.93
8.08
9.73
10.96
11.84
12.43
12.77
12.94
12.99
12.92
12.72
12.34
11.74
10.94
9.99
9.02
8.16
7.54
7.18
6.98
6.77
6.34
5.59
4.52
3.22
1.79
0.25
-1.48
-3.46
-5.63
-7.74
-9.38
-10.08
-9.53
-7.72
-4.99
-1.88
1.08
3.53
5.42
6.87
8.09
9.26
10.41
11.43
12.20
12.60
12.62
12.40
12.12
11.96
11.98
12.09
12.09
11.71
10.79
9.26
7.23
4.93
2.58
0.36
-1.64
-3.42
-4.97
-6.30
-7.42
-8.32
-9.12
-9.94
-10.92
-12.09
-13.30
-14.15
-14.20
-13.07
-10.68
-7.32
-3.56
-0.09
2.56
4.17
4.88
5.03
4.98
4.97
5.03
5.07
4.99
4.82
4.69
4.81
5.25
5.86
6.30
6.20
5.36
3.91
2.24
0.81
-0.10
-0.53
-0.75
-1.12
-1.85
-2.93
-4.17
-5.37
-6.50
-7.72
-9.28
-11.30
-13.53
-15.41
-16.26
-15.57
-13.31
-9.94
-6.21
-2.82
-0.17
1.75
3.21
4.46
5.53
6.24
6.37
5.83
4.82
3.70
2.89
2.64
2.96
3.65
4.36
4.78
4.70
4.09
3.09
1.89
0.72
-0.34
-1.26
-2.14
-3.03
-3.97
-5.00
-6.13
-7.38
-8.73
-10.07
-11.15
-11.63
-11.18
-9.62
-7.03
-3.75
-0.30
2.85
5.42
7.43
9.12
10.76
12.51
14.21
15.54
16.10
15.76
14.63
13.12
11.69
10.62
9.98
9.59
9.25
8.86
8.44
8.11
7.91
7.72
7.29
6.42
5.03
3.28
1.42
-0.25
-1.56
-2.49
-3.09
-3.39
-3.30
-2.72
-1.54
0.22
2.39
4.75
7.06
9.12
10.77
11.92
12.51
12.58
12.22
11.56
10.70
9.73
8.67
7.55
6.46
5.47
4.60
3.81
2.95
1.88
0.54
-1.03
-2.72
-4.41
-6.11
-7.87
-9.82
-12.06
-14.53
-17.13
-19.66
-21.90
-23.58
-24.47
-24.35
-23.09
-20.76
-17.57
-13.95
-10.40
-7.32
-4.95
-3.32
-2.27
-1.61
-1.20
-1.01
-1.06
-1.38
-1.89
-2.45
-2.86
-3.02
-2.95
-2.82
-2.82
-3.10
-3.60
-4.07
-4.18
-3.70
-2.62
-1.15
0.33
1.48
2.05
1.95
1.14
-0.41
-2.62
-5.23
-7.76
-9.58
-10.14
-9.29
-7.30
-4.83
-2.53
-0.79
0.45
1.45
2.51
3.65
4.61
5.01
4.63
3.59
2.26
1.09
0.35
0.04
-0.11
-0.34
-0.79
-1.39
-1.97
-2.38
-2.58
-2.69
-2.85
-3.20
-3.78
-4.54
-5.39
-6.32
-7.38
-8.68
-10.33
-12.26
-14.22
-15.78
-16.50
-16.07
-14.48
-12.01
-9.08
-6.13
-3.45
-1.12
0.86
2.45
3.58
4.12
4.10
3.68
3.18
2.94
3.16
3.86
4.85
5.82
6.46
6.54
6.01
4.95
3.63
2.42
1.65
1.50
1.93
2.65
3.27
3.46
3.10
2.24
1.11
-0.10
-1.31
-2.53
-3.77
-4.88
-5.56
-5.39
-4.13
-1.85
1.02
3.82
5.97
7.22
7.64
7.56
7.32
7.05
6.69
6.11
5.26
4.24
3.28
2.58
2.20
2.06
1.94
1.62
1.06
0.31
-0.46
-1.14
-1.72
-2.30
-2.99
-3.85
-4.85
-5.84
-6.72
-7.49
-8.28
-9.29
-10.65
-12.36
-14.18
-15.71
-16.50
-16.17
-14.59
-11.90
-8.53
-5.09
-2.15
-0.08
1.02
1.35
1.31
1.29
1.57
2.19
3.04
3.87
4.48
4.75
4.71
4.47
4.20
4.01
3.93
3.90
3.82
3.62
3.26
2.75
2.06
1.18
0.10
-1.12
-2.31
-3.31
-4.01
-4.47
-4.97
-5.85
-7.30
-9.22
-11.19
-12.64
-13.10
-12.42
-10.78
-8.57
-6.19
-3.87
-1.68
0.37
2.25
3.81
4.91
5.47
5.57
5.42
5.19
4.98
4.69
4.18
3.30
2.08
0.69
-0.65
-1.77
-2.62
-3.28
-3.86
-4.40
-4.88
-5.26
-5.54
-5.81
-6.23
-6.97
-8.14
-9.68
-11.39
-12.94
-13.93
-13.99
-12.92
-10.76
-7.80
-4.52
-1.39
1.25
3.27
4.79
5.99
7.01
7.85
8.38
8.47
8.12
7.48
6.84
6.48
6.52
6.88
7.31
7.53
7.37
6.81
5.94
4.94
3.91
2.91
1.92
0.91
-0.20
-1.44
-2.89
-4.58
-6.48
-8.42
-10.15
-11.35
-11.78
-11.36
-10.19
-8.47
-6.47
-4.35
-2.19
-0.03
2.08
4.01
5.58
6.65
7.21
7.39
7.41
7.44
7.55
7.69
7.73
7.60
7.30
6.87
6.37
5.74
4.93
3.91
2.76
1.67
0.80
0.20
-0.28
-0.88
-1.88
-3.40
-5.42
-7.71
-9.96
-11.82
-12.92
-12.99
-11.86
-9.60
-6.52
-3.13
0.04
2.62
4.48
5.77
6.71
7.49
8.18
8.71
8.99
9.02
8.90
8.73
8.65
8.64
8.62
8.47
8.07
7.38
6.47
5.41
4.25
3.06
1.85
0.66
-0.50
-1.59
-2.64
-3.68
-4.80
-6.08
-7.55
-9.07
-10.44
-11.40
-11.68
-11.11
-9.60
-7.21
-4.19
-0.96
2.00
4.26
5.56
5.90
5.59
5.02
4.58
4.51
4.81
5.40
6.09
6.72
7.18
7.39
7.36
7.17
6.90
6.62
6.35
6.01
5.51
4.78
3.84
2.74
1.56
0.34
-0.97
-2.37
-3.87
-5.41
-6.95
-8.46
-10.04
-11.72
-13.47
-15.00
-15.83
-15.49
-13.77
-10.88
-7.44
-4.17
-1.66
-0.08
0.77
1.33
2.00
3.06
4.58
6.62
9.21
12.39
16.03
19.77
23.02
25.19
25.87
25.04
23.01
20.27
17.21
14.03
10.70
7.11
3.23
-0.81
-4.76
-8.40
-11.58
-14.31
-16.67
-18.76
-20.68
-22.46
-24.10
-25.51
-26.54
-27.00
-26.67
-25.36
-23.04
-19.84
-16.11
-12.29
-8.83
-5.97
-3.81
-2.27
-1.20
-0.43
0.14
0.59
1.02
1.51
2.12
2.82
3.53
4.18
4.78
5.41
6.19
7.14
8.20
9.15
9.80
10.03
9.86
9.38
8.76
8.10
7.42
6.65
5.64
4.27
2.45
0.26
-2.02
-3.92
-4.90
-4.61
-2.99
-0.38
2.61
5.40
7.57
9.01
9.86
10.30
10.46
10.31
9.78
8.90
7.82
6.85
6.24
6.12
6.44
7.02
7.62
8.03
8.11
7.76
6.96
5.75
4.22
2.50
0.75
-0.97
-2.64
-4.29
-5.93
-7.50
-8.95
-10.19
-11.21
-11.97
-12.38
-12.24
-11.29
-9.39
-6.61
-3.31
0.03
2.92
5.10
6.63
7.69
8.52
9.24
9.83
10.16
10.13
9.74
9.12
8.43
7.80
7.30
6.90
6.54
6.09
5.46
4.62
3.63
2.61
1.68
0.92
0.27
-0.40
-1.24
-2.35
-3.69
-5.16
-6.68
-8.18
-9.62
-10.92
-11.88
-12.22
-11.73
-10.34
-8.19
-5.63
-3.04
-0.74
1.15
2.63
3.81
4.79
5.62
6.26
6.67
6.79
6.62
6.24
5.79
5.44
5.31
5.46
5.81
6.19
6.38
6.22
5.65
4.78
3.76
2.81
2.02
1.31
0.51
-0.60
-2.12
-4.04
-6.21
-8.45
-10.58
-12.39
-13.64
-13.93
-12.94
-10.51
-6.85
-2.58
1.52
4.79
7.00
8.32
9.22
10.08
11.02
11.91
12.47
12.53
12.09
11.33
10.50
9.77
9.18
8.63
7.98
7.12
6.08
5.00
4.08
3.46
3.19
3.09
2.93
2.53
1.85
1.00
0.16
-0.59
-1.29
-2.11
-3.24
-4.80
-6.72
-8.72
-10.39
-11.33
-11.22
-10.04
-8.03
-5.62
-3.25
-1.23
0.37
1.66
2.82
3.98
5.10
6.09
6.81
7.22
7.37
7.31
7.14
6.87
6.50
6.06
5.56
5.07
4.69
4.49
4.51
4.67
4.87
4.94
4.72
4.16
3.35
2.51
1.94
1.86
2.27
2.91
3.39
3.36
2.71
1.61
0.43
-0.39
-0.60
-0.19
0.61
1.51
2.24
2.69
2.82
2.71
2.45
2.12
1.81
1.66
1.78
2.23
2.97
3.79
4.39
4.48
3.90
2.72
1.25
-0.15
-1.19
-1.80
-2.14
-2.41
-2.82
-3.39
-4.06
-4.76
-5.44
-6.14
-6.93
-7.83
-8.81
-9.80
-10.75
-11.66
-12.65
-13.77
-15.04
-16.34
-17.37
-17.81
-17.36
-15.91
-13.58
-10.71
-7.76
-5.13
-3.09
-1.70
-0.86
-0.39
-0.11
0.14
0.43
0.78
1.20
1.63
2.06
2.51
3.00
3.59
4.26
4.95
5.50
5.74
5.55
5.02
4.31
3.68
3.28
3.09
2.95
2.64
2.07
1.28
0.45
-0.33
-1.11
-2.11
-3.55
-5.44
-7.44
-9.05
-9.73
-9.26
-7.73
-5.60
-3.40
-1.57
-0.29
0.51
0.98
1.30
1.55
1.75
1.90
2.03
2.19
2.43
2.78
3.17
3.55
3.82
3.91
3.76
3.33
2.68
1.92
1.19
0.56
0.02
-0.58
-1.45
-2.73
-4.41
-6.34
-8.35
-10.32
-12.27
-14.10
-15.65
-16.54
-16.37
-15.01
-12.69
-9.96
-7.44
-5.49
-4.04
-2.67
-0.87
1.66
4.85
8.29
11.47
13.97
15.72
16.87
17.69
18.40
19.05
19.47
19.43
18.74
17.38
15.45
13.15
10.62
8.03
5.48
3.05
0.81
-1.25
-3.19
-5.15
-7.15
-9.12
-10.81
-11.96
-12.36
-11.99
-11.01
-9.71
-8.37
-7.15
-6.07
-5.03
-3.97
-2.87
-1.87
-1.18
-0.95
-1.20
-1.83
-2.58
-3.18
-3.47
-3.39
-3.09
-2.80
-2.76
-3.13
-3.91
-4.93
-5.94
-6.73
-7.23
-7.52
-7.82
-8.32
-9.20
-10.48
-12.10
-13.89
-15.58
-16.82
-17.25
-16.59
-14.81
-12.18
-9.11
-6.12
-3.54
-1.50
0.11
1.41
2.52
3.42
3.99
4.15
3.90
3.37
2.80
2.45
2.46
2.83
3.44
4.05
4.46
4.52
4.19
3.53
2.69
1.83
1.16
0.77
0.66
0.68
0.55
-0.06
-1.37
-3.40
-5.90
-8.40
-10.34
-11.29
-11.02
-9.67
-7.56
-5.08
-2.59
-0.27
1.78
3.52
4.89
5.84
6.35
6.53
6.57
6.66
6.93
7.35
7.78
8.09
8.23
8.20
8.09
7.94
7.74
7.39
6.75
5.69
4.18
2.33
0.39
-1.33
-2.55
-3.19
-3.34
-3.34
-3.61
-4.58
-6.47
-9.23
-12.49
-15.65
-17.97
-18.83
-17.87
-15.18
-11.23
-6.79
-2.61
0.75
3.03
4.30
4.73
4.60
4.11
3.45
2.75
2.07
1.45
0.88
0.30
-0.35
-1.11
-1.98
-2.94
-3.90
-4.73
-5.29
-5.48
-5.29
-4.84
-4.29
-3.83
-3.57
-3.58
-3.97
-4.78
-6.02
-7.55
-8.96
-9.63
-8.90
-6.27
-1.71
4.30
10.83
16.76
21.14
23.44
23.63
22.04
19.25
15.77
12.05
8.40
5.04
2.14
-0.20
-1.97
-3.31
-4.41
-5.39
-6.15
-6.38
-5.71
-3.87
-0.95
2.56
5.90
8.37
9.53
9.34
8.10
6.12
3.62
0.57
-3.13
-7.53
-12.47
-17.62
-22.55
-26.85
-30.16
-32.19
-32.71
-31.62
-29.09
-25.51
-21.52
-17.82
-14.92
-13.06
-12.12
-11.77
-11.61
-11.35
-10.88
-10.29
-9.70
-9.18
-8.61
-7.67
-6.01
-3.38
0.14
4.19
8.23
11.75
14.48
16.40
17.69
18.55
19.12
19.36
19.20
18.50
17.18
15.17
12.48
9.24
5.71
2.33
-0.48
-2.31
-3.03
-2.71
-1.62
-0.06
1.73
3.56
5.34
6.98
8.42
9.59
10.41
10.82
10.76
10.21
9.22
7.94
6.64
5.63
5.12
5.18
5.70
6.40
7.02
7.29
7.07
6.28
4.97
3.27
1.43
-0.35
-1.94
-3.38
-4.89
-6.60
-8.48
-10.21
-11.31
-11.36
-10.18
-7.92
-5.01
-1.98
0.75
2.95
4.54
5.60
6.23
6.56
6.69
6.62
6.29
5.65
4.72
3.67
2.78
2.22
2.04
2.08
2.13
2.02
1.74
1.40
1.08
0.77
0.39
-0.16
-0.86
-1.63
-2.36
-3.07
-3.99
-5.40
-7.48
-10.09
-12.75
-14.82
-15.69
-15.06
-13.00
-9.95
-6.46
-3.05
-0.04
2.49
4.65
6.54
8.28
9.89
11.37
12.76
14.07
15.32
16.48
17.39
17.87
17.83
17.31
16.54
15.81
15.28
14.88
14.34
13.32
11.60
9.28
6.62
4.04
1.80
-0.05
-1.66
-3.27
-5.01
-6.92
-8.86
-10.69
-12.22
-13.26
-13.60
-13.00
-11.28
-8.44
-4.74
-0.68
3.12
6.16
8.18
9.28
9.71
9.83
9.88
9.99
10.22
10.60
11.12
11.80
12.51
13.08
13.34
13.21
12.80
12.27
11.76
11.29
10.68
9.75
8.41
6.75
4.97
3.29
1.80
0.47
-0.82
-2.17
-3.65
-5.30
-7.13
-9.11
-11.05
-12.62
-13.37
-12.94
-11.20
-8.37
-4.92
-1.41
1.75
4.40
6.61
8.50
10.15
11.54
12.55
13.03
12.96
12.39
11.49
10.44
9.40
8.44
7.61
6.91
6.33
5.83
5.37
4.87
4.26
3.49
2.57
1.54
0.52
-0.40
-1.15
-1.67
-1.98
-2.14
-2.36
-2.88
-3.98
-5.86
-8.49
-11.56
-14.50
-16.61
-17.33
-16.40
-14.03
-10.75
-7.28
-4.28
-2.07
-0.61
0.39
1.30
2.31
3.41
4.38
4.99
5.16
5.03
4.81
4.65
4.54
4.35
3.93
3.28
2.62
2.28
2.44
3.01
3.62
3.73
3.03
1.53
-0.35
-2.09
-3.23
-3.67
-3.65
-3.64
-4.08
-5.23
-7.08
-9.35
-11.60
-13.26
-13.82
-12.96
-10.65
-7.21
-3.24
0.62
3.88
6.32
7.96
8.92
9.31
9.20
8.66
7.80
6.83
5.95
5.27
4.81
4.51
4.28
4.12
4.05
4.06
4.10
4.04
3.76
3.20
2.39
1.39
0.29
-0.90
-2.18
-3.54
-4.97
-6.45
-7.99
-9.62
-11.41
-13.25
-14.91
-15.95
-15.92
-14.51
-11.76
-8.11
-4.26
-0.87
1.65
3.26
4.19
4.77
5.21
5.56
5.73
5.68
5.46
5.26
5.27
5.57
6.16
6.92
7.68
8.33
8.76
8.89
8.65
7.99
6.88
5.37
3.54
1.55
-0.47
-2.39
-4.16
-5.82
-7.44
-9.06
-10.58
-11.74
-12.14
-11.40
-9.38
-6.31
-2.76
0.55
3.07
4.58
5.14
5.07
4.72
4.33
4.05
4.01
4.26
4.75
5.34
5.78
5.86
5.45
4.68
3.79
2.98
2.35
1.77
1.07
0.13
-1.01
-2.22
-3.31
-4.26
-5.16
-6.21
-7.58
-9.41
-11.71
-14.38
-17.24
-19.87
-21.75
-22.24
-20.85
-17.44
-12.40
-6.61
-1.17
3.01
5.52
6.56
6.76
6.87
7.39
8.46
9.90
11.38
12.68
13.67
14.42
14.98
15.39
15.60
15.62
15.42
15.01
14.37
13.51
12.42
11.19
10.00
9.04
8.48
8.36
8.58
8.98
9.33
9.34
8.73
7.23
4.70
1.33
-2.38
-5.68
-7.85
-8.47
-7.58
-5.64
-3.31
-1.19
0.36
1.29
1.68
1.70
1.50
1.18
0.84
0.56
0.42
0.42
0.52
0.67
0.80
0.87
0.83
0.62
0.17
-0.58
-1.58
-2.75
-3.96
-5.11
-6.19
-7.26
-8.42
-9.69
-11.05
-12.36
-13.47
-14.27
-14.71
-14.78
-14.45
-13.65
-12.27
-10.24
-7.61
-4.62
-1.66
0.85
2.62
3.55
3.82
3.71
3.57
3.64
4.00
4.58
5.23
5.80
6.15
6.24
6.08
5.76
5.31
4.76
4.13
3.44
2.75
2.19
1.83
1.67
1.60
1.38
0.81
-0.19
-1.55
-3.12
-4.69
-6.15
-7.55
-9.01
-10.61
-12.32
-13.86
-14.82
-14.79
-13.47
-10.90
-7.47
-3.81
-0.58
1.77
3.14
3.78
4.07
4.42
4.98
5.68
6.30
6.63
6.61
6.32
5.97
5.69
5.50
5.30
4.93
4.34
3.61
2.89
2.29
1.81
1.30
0.57
-0.50
-1.84
-3.24
-4.46
-5.35
-5.96
-6.51
-7.33
-8.70
-10.72
-13.15
-15.45
-16.93
-17.00
-15.45
-12.52
-8.87
-5.25
-2.26
-0.17
1.10
1.80
2.17
2.37
2.44
2.43
2.41
2.52
2.90
3.64
4.73
6.05
7.39
8.50
9.18
9.32
8.98
8.29
7.40
6.40
5.32
4.08
2.62
0.94
-0.90
-2.85
-4.84
-6.90
-9.08
-11.42
-13.85
-16.15
-17.99
-19.02
-18.97
-17.82
-15.76
-13.17
-10.50
-8.09
-6.11
-4.58
-3.37
-2.40
-1.68
-1.25
-1.17
-1.37
-1.66
-1.76
-1.45
-0.65
0.52
1.77
2.83
3.48
3.63
3.33
2.70
1.82
0.82
-0.24
-1.29
-2.25
-3.14
-4.03
-5.11
-6.62
-8.70
-11.24
-13.82
-15.80
-16.49
-15.45
-12.69
-8.70
-4.25
-0.07
3.39
6.05
8.11
9.82
11.32
12.63
13.65
14.31
14.63
14.75
14.78
14.73
14.54
14.02
13.05
11.63
9.93
8.18
6.57
5.18
3.95
2.69
1.27
-0.32
-1.93
-3.33
-4.42
-5.30
-6.26
-7.64
-9.59
-11.89
-13.98
-15.19
-15.03
-13.38
-10.58
-7.24
-4.00
-1.24
0.93
2.68
4.22
5.67
7.03
8.14
8.84
9.07
8.94
8.69
8.58
8.72
9.08
9.42
9.49
9.14
8.45
7.60
6.84
6.32
5.99
5.66
5.14
4.29
3.12
1.74
0.28
-1.23
-2.89
-4.87
-7.25
-9.89
-12.37
-14.13
-14.62
-13.57
-11.12
-7.74
-4.05
-0.61
2.27
4.53
6.28
7.71
8.98
10.17
11.32
12.40
13.35
14.07
14.47
14.49
14.15
13.51
12.65
11.63
10.53
9.44
8.41
7.51
6.69
5.82
4.77
3.46
2.00
0.58
-0.58
-1.41
-2.01
-2.67
-3.74
-5.45
-7.79
-10.47
-12.97
-14.75
-15.32
-14.53
-12.57
-9.88
-6.97
-4.23
-1.75
0.56
2.86
5.17
7.37
9.27
10.74
11.81
12.61
13.23
13.66
13.75
13.36
12.48
11.25
9.99
9.00
8.49
8.50
8.86
9.24
9.28
8.71
7.44
5.69
3.82
2.23
1.15
0.57
0.25
-0.17
-1.03
-2.49
-4.53
-6.96
-9.50
-11.80
-13.50
-14.29
-13.90
-12.26
-9.52
-6.11
-2.61
0.39
2.48
3.62
4.07
4.18
4.27
4.36
4.30
3.93
3.24
2.46
1.92
1.86
2.26
2.94
3.56
3.95
4.10
4.16
4.26
4.42
4.49
4.24
3.52
2.32
0.79
-0.84
-2.37
-3.65
-4.58
-5.04
-4.94
-4.18
-2.77
-0.87
1.28
3.41
5.35
7.07
8.55
9.77
10.60
10.83
10.30
9.04
7.25
5.26
3.44
2.04
1.10
0.52
0.12
-0.31
-0.87
-1.59
-2.46
-3.39
-4.27
-4.96
-5.35
-5.38
-5.08
-4.60
-4.15
-3.91
-4.00
-4.43
-5.06
-5.72
-6.26
-6.65
-6.95
-7.24
-7.66
-8.24
-9.02
-10.00
-11.16
-12.44
-13.62
-14.37
-14.27
-13.03
-10.62
-7.38
-3.90
-0.75
1.66
3.25
4.18
4.71
5.04
5.20
5.19
5.07
4.97
5.09
5.55
6.35
7.29
8.09
8.46
8.27
7.54
6.46
5.29
4.25
3.45
2.94
2.60
2.29
1.79
0.94
-0.28
-1.81
-3.47
-5.05
-6.43
-7.54
-8.42
-9.12
-9.60
-9.70
-9.21
-8.00
-6.11
-3.77
-1.32
0.90
2.71
4.06
5.03
5.71
6.09
6.07
5.53
4.46
3.04
1.63
0.68
0.49
1.06
2.06
3.00
3.46
3.30
2.73
2.10
1.66
1.44
1.23
0.76
-0.06
-1.11
-2.11
-2.86
-3.39
-3.98
-5.00
-6.69
-8.95
-11.31
-13.11
-13.73
-12.87
-10.68
-7.70
-4.63
-2.02
-0.15
1.09
1.96
2.79
3.69
4.63
5.44
6.01
6.34
6.49
6.54
6.50
6.28
5.79
5.03
4.12
3.27
2.66
2.34
2.22
2.13
1.88
1.38
0.65
-0.23
-1.19
-2.13
-2.99
-3.74
-4.38
-5.00
-5.72
-6.60
-7.58
-8.34
-8.51
-7.79
-6.17
-3.99
-1.74
0.13
1.46
2.40
3.26
4.25
5.38
6.42
7.08
7.23
6.93
6.41
5.90
5.47
4.97
4.18
2.91
1.14
-0.94
-3.05
-4.97
-6.64
-8.10
-9.44
-10.64
-11.61
-12.16
-12.19
-11.75
-11.05
-10.43
-10.21
-10.57
-11.49
-12.77
-14.05
-14.92
-15.01
-14.15
-12.35
-9.89
-7.15
-4.46
-2.08
-0.05
1.63
3.04
4.21
5.16
5.94
6.62
7.26
7.85
8.36
8.63
8.56
8.19
7.64
7.16
6.95
7.04
7.30
7.50
7.41
6.97
6.24
5.40
4.57
3.80
3.02
2.17
1.18
0.06
-1.16
-2.48
-3.95
-5.62
-7.51
-9.48
-11.26
-12.51
-12.94
-12.38
-10.87
-8.63
-6.04
-3.50
-1.35
0.24
1.34
2.16
2.97
3.90
4.86
5.57
5.75
5.21
4.06
2.58
1.15
0.05
-0.63
-0.98
-1.16
-1.29
-1.48
-1.75
-2.11
-2.58
-3.12
-3.71
-4.32
-4.96
-5.69
-6.55
-7.57
-8.72
-9.93
-11.13
-12.25
-13.13
-13.58
-13.35
-12.23
-10.16
-7.36
-4.24
-1.29
1.08
2.71
3.69
4.21
4.48
4.54
4.38
4.01
3.51
3.10
2.97
3.18
3.65
4.12
4.36
4.26
3.86
3.33
2.82
2.42
2.10
1.80
1.48
1.12
0.73
0.33
-0.11
-0.60
-1.15
-1.83
-2.67
-3.68
-4.80
-5.77
-6.29
-6.07
-4.95
-3.11
-0.92
1.17
2.81
3.93
4.71
5.43
6.29
7.26
8.13
8.62
8.56
7.94
7.02
6.14
5.55
5.35
5.42
5.47
5.20
4.50
3.44
2.23
1.10
0.15
-0.60
-1.25
-1.94
-2.68
-3.51
-4.47
-5.65
-7.11
-8.84
-10.64
-12.11
-12.79
-12.33
-10.61
-7.89
-4.66
-1.50
1.07
2.77
3.62
3.87
3.84
3.79
3.82
3.89
3.90
3.85
3.80
3.90
4.20
4.66
5.10
5.36
5.32
4.92
4.20
3.20
1.98
0.54
-1.06
-2.67
-4.15
-5.34
-6.18
-6.79
-7.40
-8.24
-9.47
-10.97
-12.42
-13.29
-13.18
-11.88
-9.56
-6.67
-3.74
-1.22
0.70
2.13
3.28
4.38
5.53
6.65
7.53
7.99
7.97
7.62
7.22
7.03
7.18
7.59
8.02
8.14
7.77
6.89
5.68
4.46
3.48
2.88
2.54
2.18
1.44
0.10
-1.84
-4.10
-6.34
-8.32
-10.00
-11.50
-12.97
-14.31
-15.18
-15.15
-13.91
-11.54
-8.45
-5.20
-2.27
0.17
2.21
4.03
5.71
7.12
8.03
8.27
7.87
7.09
6.30
5.81
5.71
5.84
5.95
5.84
5.45
4.89
4.33
3.90
3.60
3.33
2.97
2.45
1.74
0.93
0.04
-0.88
-1.89
-3.08
-4.59
-6.49
-8.75
-11.17
-13.35
-14.79
-15.01
-13.81
-11.31
-7.98
-4.39
-1.08
1.67
3.87
5.66
7.21
8.55
9.54
10.03
9.97
9.44
8.72
8.10
7.73
7.57
7.45
7.21
6.85
6.48
6.30
6.37
6.56
6.54
5.98
4.72
2.93
1.03
-0.48
-1.27
-1.39
-1.20
-1.23
-1.95
-3.56
-5.94
-8.75
-11.55
-13.93
-15.57
-16.24
-15.80
-14.22
-11.64
-8.35
-4.74
-1.25
1.82
4.27
6.10
7.34
8.12
8.54
8.68
8.62
8.40
8.08
7.73
7.44
7.28
7.31
7.51
7.78
7.97
7.94
7.58
6.84
5.76
4.41
2.89
1.31
-0.24
-1.64
-2.82
-3.74
-4.46
-5.12
-6.00
-7.33
-9.25
-11.59
-13.89
-15.52
-15.85
-14.56
-11.71
-7.82
-3.58
0.33
3.49
5.81
7.42
8.57
9.42
10.02
10.35
10.39
10.19
9.88
9.59
9.45
9.45
9.52
9.49
9.22
8.65
7.81
6.88
6.03
5.32
4.69
3.93
2.82
1.26
-0.63
-2.53
-4.10
-5.13
-5.66
-5.98
-6.53
-7.70
-9.58
-12.00
-14.47
-16.35
-17.13
-16.51
-14.56
-11.64
-8.23
-4.77
-1.59
1.14
3.39
5.18
6.56
7.58
8.37
9.05
9.75
10.49
11.24
11.86
12.25
12.41
12.42
12.43
12.52
12.65
12.60
12.14
11.09
9.47
7.46
5.34
3.34
1.54
-0.17
-1.94
-3.85
-5.90
-8.00
-10.00
-11.76
-13.12
-13.87
-13.75
-12.57
-10.30
-7.16
-3.59
-0.13
2.83
5.08
6.68
7.78
8.55
9.04
9.26
9.25
9.10
9.00
9.05
9.32
9.71
10.07
10.26
10.20
9.85
9.23
8.30
7.04
5.43
3.58
1.64
-0.19
-1.74
-3.01
-4.12
-5.28
-6.72
-8.56
-10.73
-13.00
-14.99
-16.28
-16.51
-15.50
-13.28
-10.08
-6.31
-2.40
1.23
4.28
6.60
8.18
9.18
9.82
10.31
10.76
11.19
11.49
11.57
11.43
11.14
10.86
10.68
10.57
10.39
9.94
9.07
7.74
6.06
4.27
2.59
1.17
0.02
-0.98
-1.99
-3.17
-4.69
-6.59
-8.90
-11.48
-14.09
-16.31
-17.65
-17.68
-16.24
-13.45
-9.76
-5.74
-1.91
1.38
4.05
6.13
7.75
9.02
10.02
10.78
11.34
11.72
11.98
12.16
12.33
12.48
12.56
12.44
12.01
11.18
9.98
8.54
7.01
5.51
4.11
2.78
1.45
0.10
-1.29
-2.68
-4.02
-5.29
-6.54
-7.88
-9.40
-11.16
-12.97
-14.46
-15.11
-14.48
-12.37
-8.99
-4.87
-0.65
3.11
6.12
8.37
10.00
11.16
11.93
12.35
12.43
12.24
11.87
11.46
11.10
10.81
10.56
10.27
9.86
9.26
8.44
7.40
6.19
4.88
3.50
2.10
0.72
-0.59
-1.80
-2.85
-3.74
-4.47
-5.11
-5.81
-6.80
-8.22
-10.08
-12.14
-13.92
-14.86
-14.58
-12.97
-10.35
-7.24
-4.18
-1.50
0.78
2.82
4.73
6.46
7.76
8.37
8.15
7.32
6.30
5.57
5.40
5.77
6.32
6.64
6.47
5.83
5.01
4.34
3.99
3.86
3.70
3.24
2.40
1.29
0.14
-0.84
-1.55
-2.13
-2.79
-3.77
-5.24
-7.19
-9.44
-11.70
-13.62
-14.90
-15.37
-14.97
-13.75
-11.80
-9.24
-6.24
-3.01
0.11
2.74
4.58
5.50
5.62
5.23
4.74
4.47
4.57
5.02
5.67
6.33
6.81
6.97
6.81
6.38
5.82
5.25
4.73
4.20
3.59
2.82
1.93
1.06
0.31
-0.32
-0.96
-1.80
-2.94
-4.41
-6.10
-7.87
-9.65
-11.36
-12.89
-14.03
-14.45
-13.86
-12.14
-9.46
-6.23
-2.98
-0.13
2.13
3.79
4.99
5.86
6.45
6.75
6.74
6.44
5.95
5.43
5.01
4.76
4.66
4.63
4.59
4.46
4.18
3.74
3.20
2.63
2.08
1.56
1.04
0.43
-0.29
-1.11
-1.96
-2.88
-4.01
-5.56
-7.63
-10.06
-12.39
-14.03
-14.46
-13.51
-11.43
-8.75
-6.04
-3.72
-1.92
-0.59
0.44
1.28
1.94
2.38
2.61
2.70
2.78
2.97
3.32
3.73
4.02
4.00
3.59
2.81
1.82
0.77
-0.20
-1.04
-1.74
-2.33
-2.78
-3.11
-3.34
-3.56
-3.87
-4.39
-5.20
-6.32
-7.72
-9.28
-10.81
-12.09
-12.87
-12.92
-12.14
-10.52
-8.21
-5.45
-2.56
0.15
2.47
4.27
5.56
6.38
6.79
6.89
6.75
6.48
6.22
6.10
6.18
6.41
6.64
6.70
6.46
5.91
5.12
4.21
3.24
2.22
1.15
0.03
-1.04
-1.98
-2.71
-3.29
-3.88
-4.71
-5.98
-7.81
-10.09
-12.52
-14.70
-16.13
-16.45
-15.53
-13.49
-10.70
-7.60
-4.60
-1.92
0.39
2.34
3.96
5.23
6.09
6.58
6.81
7.01
7.34
7.84
8.36
8.64
8.47
7.73
6.62
5.42
4.50
4.05
4.02
4.09
3.88
3.14
1.85
0.27
-1.25
-2.42
-3.22
-3.79
-4.39
-5.23
-6.40
-7.88
-9.59
-11.36
-12.95
-13.97
-14.04
-12.88
-10.53
-7.30
-3.74
-0.40
2.39
4.56
6.21
7.47
8.39
8.94
9.06
8.75
8.13
7.36
6.59
5.89
5.25
4.65
4.08
3.60
3.27
3.11
3.04
2.90
2.50
1.76
0.73
-0.39
-1.37
-2.03
-2.38
-2.60
-2.96
-3.70
-4.96
-6.72
-8.85
-11.11
-13.22
-14.85
-15.64
-15.35
-13.89
-11.41
-8.32
-5.12
-2.27
-0.05
1.52
2.58
3.35
3.96
4.43
4.67
4.64
4.40
4.16
4.19
4.63
5.41
6.28
6.85
6.90
6.42
5.64
4.91
4.46
4.31
4.27
4.11
3.66
2.93
2.06
1.17
0.29
-0.65
-1.81
-3.27
-5.07
-7.11
-9.19
-11.05
-12.40
-12.97
-12.56
-11.19
-9.04
-6.52
-4.06
-2.01
-0.46
0.67
1.59
2.43
3.20
3.78
4.08
4.07
3.91
3.78
3.81
4.02
4.30
4.54
4.69
4.78
4.86
4.93
4.89
4.57
3.89
2.85
1.61
0.42
-0.54
-1.19
-1.65
-2.15
-2.92
-4.10
-5.67
-7.43
-9.06
-10.18
-10.50
-9.87
-8.32
-6.07
-3.43
-0.74
1.71
3.74
5.25
6.22
6.68
6.76
6.62
6.46
6.39
6.43
6.47
6.34
5.97
5.39
4.74
4.21
3.89
3.79
3.75
3.57
3.09
2.21
0.97
-0.49
-1.94
-3.18
-4.15
-4.90
-5.64
-6.56
-7.73
-9.06
-10.31
-11.21
-11.58
-11.32
-10.45
-9.04
-7.19
-5.04
-2.80
-0.73
0.92
1.99
2.50
2.61
2.57
2.60
2.85
3.32
3.91
4.48
4.89
5.07
5.01
4.76
4.38
3.86
3.18
2.28
1.19
-0.01
-1.12
-2.00
-2.61
-3.05
-3.60
-4.50
-5.90
-7.72
-9.67
-11.40
-12.61
-13.15
-13.04
-12.38
-11.27
-9.74
-7.84
-5.61
-3.23
-0.97
0.85
2.03
2.55
2.59
2.50
2.60
3.06
3.85
4.77
5.64
6.31
6.77
7.07
7.23
7.21
6.93
6.29
5.32
4.14
2.95
1.89
1.02
0.28
-0.50
-1.47
-2.74
-4.29
-6.01
-7.78
-9.48
-11.04
-12.36
-13.26
-13.51
-12.86
-11.20
-8.67
-5.62
-2.56
0.09
2.06
3.34
4.11
4.57
4.92
5.22
5.48
5.66
5.75
5.74
5.63
5.45
5.22
5.01
4.88
4.86
4.91
4.90
4.65
4.04
3.07
1.86
0.63
-0.44
-1.27
-1.92
-2.49
-3.09
-3.78
-4.62
-5.63
-6.86
-8.32
-9.86
-11.18
-11.86
-11.53
-10.06
-7.62
-4.59
-1.48
1.32
3.60
5.35
6.63
7.55
8.14
8.41
8.36
8.09
7.74
7.49
7.39
7.39
7.31
6.99
6.36
5.49
4.61
3.93
3.60
3.55
3.59
3.44
2.89
1.88
0.59
-0.63
-1.44
-1.65
-1.38
-1.02
-1.09
-2.01
-3.87
-6.38
-8.99
-11.11
-12.27
-12.29
-11.24
-9.40
-7.10
-4.67
-2.31
-0.16
1.74
3.42
4.85
5.97
6.69
6.98
6.95
6.83
6.90
7.28
7.87
8.38
8.52
8.13
7.35
6.48
5.84
5.59
5.63
5.71
5.53
4.99
4.14
3.18
2.28
1.54
0.94
0.41
-0.16
-0.81
-1.58
-2.48
-3.52
-4.77
-6.28
-8.08
-10.04
-11.86
-13.14
-13.43
-12.53
-10.49
-7.69
-4.62
-1.76
0.62
2.49
4.01
5.33
6.51
7.48
8.09
8.31
8.20
7.95
7.80
7.86
8.07
8.16
7.90
7.16
6.11
5.08
4.45
4.38
4.75
5.20
5.28
4.75
3.61
2.13
0.65
-0.54
-1.39
-2.01
-2.62
-3.48
-4.71
-6.30
-8.12
-9.92
-11.40
-12.26
-12.31
-11.47
-9.78
-7.42
-4.65
-1.76
0.98
3.35
5.24
6.61
7.54
8.14
8.55
8.82
8.98
9.00
8.91
8.76
8.66
8.70
8.85
8.99
8.93
8.46
7.47
6.01
4.32
2.65
1.22
0.11
-0.75
-1.51
-2.28
-3.15
-4.14
-5.25
-6.50
-7.94
-9.53
-11.16
-12.58
-13.42
-13.36
-12.20
-10.03
-7.17
-4.14
-1.46
0.51
1.68
2.22
2.43
2.59
2.81
3.04
3.17
3.10
2.87
2.66
2.65
2.95
3.53
4.22
4.79
5.09
5.03
4.65
4.01
3.19
2.24
1.21
0.16
-0.87
-1.86
-2.86
-3.92
-5.08
-6.43
-8.03
-9.91
-11.99
-14.04
-15.67
-16.37
-15.75
-13.74
-10.63
-6.99
-3.48
-0.56
1.61
3.13
4.19
4.95
5.49
5.79
5.89
5.86
5.81
5.82
5.93
6.07
6.16
6.12
5.93
5.64
5.35
5.12
4.96
4.76
4.32
3.48
2.21
0.66
-0.88
-2.14
-3.01
-3.60
-4.23
-5.19
-6.66
-8.54
-10.53
-12.17
-13.07
-13.02
-12.01
-10.24
-8.04
-5.73
-3.53
-1.59
0.11
1.57
2.83
3.90
4.81
5.56
6.20
6.78
7.31
7.80
8.20
8.47
8.55
8.44
8.20
7.91
7.68
7.55
7.47
7.27
6.71
5.63
4.02
2.06
0.09
-1.62
-2.88
-3.73
-4.38
-5.06
-5.93
-7.06
-8.41
-9.92
-11.49
-12.94
-14.00
-14.33
-13.61
-11.77
-9.01
-5.80
-2.73
-0.23
1.59
2.94
4.16
5.52
7.03
8.49
9.60
10.19
10.29
10.11
9.89
9.74
9.62
9.40
8.97
8.32
7.56
6.83
6.22
5.67
5.02
4.11
2.86
1.29
-0.45
-2.14
-3.60
-4.67
-5.36
-5.78
-6.18
-6.85
-8.07
-9.94
-12.34
-14.85
-16.93
-18.02
-17.76
-16.08
-13.22
-9.58
-5.69
-1.97
1.19
3.63
5.25
6.16
6.57
6.72
6.90
7.24
7.75
8.32
8.79
9.00
8.88
8.44
7.76
6.96
6.11
5.24
4.36
3.44
2.52
1.73
1.24
1.25
1.83
2.91
4.22
5.38
6.04
5.94
5.01
3.25
0.78
-2.27
-5.66
-9.01
-11.74
-13.29
-13.25
-11.54
-8.54
-4.94
-1.48
1.30
3.16
4.27
4.92
5.42
5.89
6.31
6.63
6.84
7.01
7.19
7.37
7.44
7.25
6.76
6.02
5.22
4.49
3.88
3.30
2.61
1.71
0.68
-0.37
-1.31
-2.08
-2.74
-3.36
-3.95
-4.51
-5.05
-5.68
-6.51
-7.64
-8.93
-10.07
-10.58
-10.11
-8.60
-6.35
-3.88
-1.71
-0.15
0.86
1.58
2.38
3.38
4.48
5.37
5.73
5.41
4.50
3.24
1.92
0.72
-0.34
-1.29
-2.15
-2.85
-3.30
-3.44
-3.32
-3.08
-2.88
-2.80
-2.79
-2.75
-2.63
-2.57
-2.84
-3.79
-5.57
-8.09
-10.91
-13.38
-14.92
-15.12
-13.94
-11.70
-8.88
-6.00
-3.43
-1.30
0.44
1.94
3.29
4.48
5.43
6.00
6.14
5.91
5.49
5.14
5.00
5.09
5.25
5.24
4.83
3.97
2.70
1.21
-0.31
-1.75
-3.09
-4.39
-5.67
-6.94
-8.15
-9.28
-10.36
-11.42
-12.48
-13.35
-13.72
-13.18
-11.43
-8.48
-4.69
-0.68
2.90
5.60
7.34
8.31
8.86
9.24
9.57
9.81
9.81
9.48
8.85
8.02
7.17
6.42
5.87
5.50
5.26
5.02
4.69
4.17
3.39
2.30
0.88
-0.82
-2.61
-4.28
-5.60
-6.52
-7.23
-8.07
-9.47
-11.67
-14.66
-18.00
-21.06
-23.04
-23.28
-21.46
-17.65
-12.33
-6.30
-0.37
4.77
8.75
11.54
13.32
14.33
14.80
14.86
14.63
14.21
13.75
13.35
13.06
12.85
12.60
12.19
11.52
10.57
9.39
8.07
6.68
5.30
3.92
2.53
1.12
-0.25
-1.51
-2.64
-3.71
-4.91
-6.51
-8.73
-11.66
-15.08
-18.53
-21.37
-22.97
-22.93
-21.16
-17.97
-13.90
-9.54
-5.43
-1.85
1.14
3.61
5.69
7.42
8.81
9.79
10.38
10.65
10.73
10.75
10.78
10.82
10.84
10.83
10.77
10.69
10.56
10.29
9.78
8.89
7.59
5.90
3.93
1.82
-0.36
-2.63
-5.05
-7.78
-10.89
-14.42
-18.28
-22.22
-25.84
-28.68
-30.19
-29.94
-27.62
-23.25
-17.17
-10.03
-2.63
4.26
10.04
14.45
17.48
19.28
20.11
20.22
19.82
19.17
18.52
18.07
17.94
18.07
18.26
18.28
17.92
17.11
15.93
14.55
13.12
11.76
10.45
9.08
7.53
5.70
3.58
1.25
-1.16
-3.54
-5.88
-8.27
-10.86
-13.76
-16.87
-19.85
-22.12
-23.07
-22.24
-19.55
-15.32
-10.24
-5.07
-0.47
3.21
5.97
7.96
9.42
10.51
11.26
11.68
11.84
11.88
12.02
12.43
13.15
14.06
14.93
15.50
15.55
15.01
13.91
12.36
10.53
8.51
6.41
4.29
2.23
0.34
-1.30
-2.65
-3.76
-4.81
-6.12
-7.99
-10.62
-13.86
-17.22
-19.91
-21.16
-20.45
-17.80
-13.74
-9.12
-4.77
-1.28
1.16
2.65
3.48
3.87
4.04
4.10
4.16
4.34
4.76
5.52
6.62
7.97
9.42
10.71
11.61
11.89
11.44
10.26
8.49
6.36
4.16
2.13
0.42
-0.97
-2.19
-3.51
-5.19
-7.42
-10.20
-13.35
-16.50
-19.13
-20.70
-20.75
-19.00
-15.52
-10.75
-5.41
-0.26
4.11
7.46
9.88
11.62
12.93
13.94
14.63
14.92
14.78
14.26
13.56
12.90
12.51
12.52
12.97
13.71
14.51
15.06
15.11
14.49
13.17
11.20
8.72
5.86
2.77
-0.47
-3.82
-7.30
-10.99
-14.87
-18.79
-22.41
-25.17
-26.52
-26.04
-23.63
-19.57
-14.45
-8.99
-3.91
0.32
3.53
5.82
7.41
8.59
9.52
10.27
10.83
11.20
11.43
11.62
11.87
12.15
12.37
12.30
11.79
10.77
9.27
7.48
5.60
3.76
2.04
0.43
-1.13
-2.71
-4.38
-6.20
-8.27
-10.65
-13.30
-16.03
-18.44
-20.01
-20.22
-18.76
-15.70
-11.42
-6.57
-1.83
2.29
5.58
8.04
9.86
11.23
12.30
13.08
13.55
13.73
13.72
13.67
13.73
13.94
14.20
14.30
14.04
13.34
12.29
11.13
10.06
9.12
8.17
6.93
5.16
2.84
0.18
-2.51
-4.91
-6.90
-8.61
-10.33
-12.32
-14.66
-17.12
-19.17
-20.19
-19.66
-17.40
-13.62
-8.83
-3.72
1.10
5.20
8.37
10.58
11.95
12.64
12.86
12.81
12.60
12.33
11.98
11.49
10.84
10.09
9.35
8.77
8.44
8.32
8.33
8.29
8.05
7.50
6.62
5.46
4.11
2.66
1.17
-0.35
-1.93
-3.64
-5.52
-7.62
-9.99
-12.66
-15.56
-18.44
-20.87
-22.31
-22.23
-20.40
-16.93
-12.31
-7.22
-2.33
1.87
5.21
7.69
9.49
10.81
11.77
12.48
12.97
13.27
13.44
13.56
13.72
13.93
14.13
14.19
14.00
13.49
12.67
11.59
10.31
8.81
7.08
5.14
3.07
1.02
-0.81
-2.30
-3.44
-4.39
-5.37
-6.67
-8.48
-10.93
-13.96
-17.28
-20.42
-22.73
-23.56
-22.52
-19.57
-15.14
-9.99
-4.94
-0.64
2.61
4.87
6.41
7.57
8.62
9.67
10.77
11.85
12.82
13.54
13.89
13.82
13.33
12.51
11.50
10.39
9.19
7.86
6.35
4.62
2.74
0.79
-1.10
-2.86
-4.48
-5.97
-7.34
-8.57
-9.62
-10.53
-11.35
-12.18
-13.03
-13.74
-13.99
-13.36
-11.53
-8.48
-4.56
-0.37
3.45
6.40
8.30
9.27
9.59
9.56
9.38
9.18
8.95
8.69
8.38
8.06
7.74
7.40
7.04
6.61
6.12
5.56
4.97
4.40
3.84
3.30
2.72
2.02
1.14
0.07
-1.21
-2.64
-4.22
-5.96
-7.92
-10.14
-12.50
-14.71
-16.32
-16.83
-15.95
-13.70
-10.48
-6.87
-3.46
-0.64
1.51
3.10
4.31
5.23
5.85
6.12
5.98
5.48
4.76
3.95
3.17
2.45
1.79
1.16
0.56
0.04
-0.39
-0.80
-1.38
-2.33
-3.82
-5.84
-8.17
-10.50
-12.57
-14.32
-15.91
-17.58
-19.50
-21.55
-23.39
-24.53
-24.54
-23.26
-20.76
-17.40
-13.60
-9.77
-6.20
-3.00
-0.19
2.29
4.49
6.47
8.28
9.95
11.53
13.02
14.39
15.52
16.19
16.15
15.20
13.32
10.71
7.68
4.63
1.83
-0.55
-2.51
-4.06
-5.21
-5.96
-6.30
-6.32
-6.24
-6.35
-6.94
-8.20
-10.05
-12.19
-14.14
-15.42
-15.69
-14.93
-13.40
-11.53
-9.69
-8.12
-6.83
-5.79
-4.97
-4.47
-4.36
-4.59
-4.90
-4.90
-4.28
-3.01
-1.35
0.20
1.14
1.18
0.29
-1.27
-3.19
-5.15
-6.95
-8.53
-9.91
-11.21
-12.58
-14.18
-16.07
-18.19
-20.39
-22.41
-23.94
-24.76
-24.68
-23.62
-21.54
-18.43
-14.34
-9.38
-3.74
2.27
8.27
13.86
18.65
22.30
24.52
25.20
24.46
22.79
20.92
19.65
19.59
20.90
23.29
26.08
28.53
29.94
29.84
28.04
24.59
19.83
14.31
8.77
3.95
0.52
-1.15
-1.08
0.28
2.08
3.34
3.21
1.27
-2.29
-6.68
-10.88
-13.94
-15.30
-14.84
-12.74
-9.33
-4.96
-0.00
5.06
9.67
13.24
15.43
16.15
15.67
14.45
13.01
11.78
11.01
10.69
10.63
10.47
9.88
8.66
6.83
4.63
2.40
0.50
-0.83
-1.53
-1.62
-1.27
-0.74
-0.34
-0.44
-1.31
-3.05
-5.55
-8.54
-11.73
-14.86
-17.75
-20.24
-22.12
-23.16
-23.23
-22.36
-20.74
-18.71
-16.55
-14.42
-12.28
-10.00
-7.48
-4.71
-1.86
0.89
3.35
5.46
7.23
8.73
9.99
10.99
11.67
11.99
11.95
11.65
11.23
10.84
10.55
10.31
9.99
9.39
8.39
6.96
5.20
3.31
1.49
-0.19
-1.77
-3.43
-5.34
-7.56
-9.95
-12.18
-13.74
-14.20
-13.30
-11.17
-8.21
-5.06
-2.31
-0.32
0.92
1.75
2.60
3.75
5.18
6.62
7.72
8.25
8.29
8.13
8.15
8.55
9.23
9.92
10.28
10.11
9.42
8.37
7.19
6.05
5.03
4.14
3.36
2.70
2.15
1.67
1.12
0.30
-0.98
-2.79
-5.00
-7.26
-9.10
-10.07
-9.94
-8.75
-6.81
-4.56
-2.40
-0.60
0.75
1.69
2.29
2.63
2.78
2.76
2.61
2.35
2.05
1.73
1.45
1.21
1.00
0.80
0.60
0.45
0.38
0.40
0.45
0.45
0.31
-0.01
-0.50
-1.13
-1.92
-2.90
-4.10
-5.52
-7.02
-8.36
-9.25
-9.44
-8.82
-7.49
-5.67
-3.66
-1.76
-0.19
0.89
1.38
1.23
0.49
-0.69
-1.97
-2.96
-3.30
-2.84
-1.69
-0.15
1.36
2.52
3.12
3.15
2.72
2.03
1.27
0.61
0.19
0.04
0.13
0.34
0.48
0.37
-0.16
-1.18
-2.63
-4.35
-6.04
-7.30
-7.73
-7.14
-5.59
-3.43
-1.21
0.60
1.74
2.21
2.24
2.06
1.82
1.50
1.07
0.52
-0.02
-0.33
-0.26
0.22
0.94
1.60
1.95
1.85
1.30
0.45
-0.48
-1.28
-1.79
-1.99
-1.95
-1.81
-1.81
-2.18
-3.13
-4.74
-6.83
-9.01
-10.70
-11.38
-10.74
-8.86
-6.16
-3.21
-0.52
1.71
3.49
5.03
6.45
7.71
8.57
8.74
8.11
6.80
5.19
3.74
2.74
2.28
2.14
1.96
1.47
0.62
-0.41
-1.22
-1.52
-1.15
-0.28
0.67
1.23
1.10
0.18
-1.36
-3.24
-5.15
-6.81
-8.00
-8.51
-8.09
-6.66
-4.35
-1.53
1.20
3.30
4.47
4.82
4.83
5.15
6.24
8.26
10.97
13.83
16.29
17.98
18.78
18.77
18.15
17.08
15.71
14.20
12.71
11.42
10.41
9.61
8.83
7.88
6.63
5.07
3.24
1.18
-1.14
-3.70
-6.42
-9.06
-11.37
-13.11
-14.21
-14.65
-14.41
-13.49
-11.87
-9.63
-7.01
-4.40
-2.20
-0.70
0.00
0.02
-0.47
-1.21
-2.01
-2.65
-2.98
-2.88
-2.34
-1.48
-0.48
0.50
1.27
1.77
1.95
1.86
1.65
1.48
1.55
1.90
2.45
2.96
3.09
2.60
1.41
-0.38
-2.53
-4.71
-6.65
-8.12
-8.94
-9.01
-8.30
-6.88
-4.91
-2.60
-0.19
2.09
4.02
5.46
6.31
6.65
6.63
6.51
6.45
6.54
6.67
6.70
6.52
6.13
5.66
5.33
5.30
5.60
6.13
6.60
6.76
6.42
5.56
4.31
2.85
1.34
-0.13
-1.59
-3.04
-4.45
-5.76
-6.85
-7.66
-8.22
-8.58
-8.78
-8.82
-8.67
-8.28
-7.68
-6.94
-6.14
-5.32
-4.46
-3.51
-2.49
-1.49
-0.64
-0.13
-0.04
-0.33
-0.87
-1.47
-1.96
-2.26
-2.42
-2.55
-2.81
-3.25
-3.78
-4.19
-4.16
-3.42
-1.88
0.30
2.77
5.05
6.71
7.51
7.46
6.81
5.90
5.04
4.39
3.97
3.69
3.52
3.54
3.89
4.65
5.74
6.84
7.51
7.39
6.37
4.61
2.48
0.42
-1.28
-2.49
-3.23
-3.60
-3.77
-3.89
-4.12
-4.60
-5.40
-6.50
-7.80
-9.15
-10.40
-11.46
-12.30
-13.00
-13.70
-14.56
-15.66
-16.87
-17.87
-18.17
-17.34
-15.21
-11.97
-8.08
-4.13
-0.60
2.27
4.45
5.99
6.95
7.36
7.26
6.74
5.99
5.29
4.87
4.86
5.23
5.75
6.11
6.01
5.35
4.22
2.92
1.77
0.99
0.64
0.58
0.60
0.50
0.10
-0.68
-1.86
-3.37
-5.06
-6.67
-7.96
-8.73
-8.94
-8.62
-7.86
-6.73
-5.24
-3.43
-1.36
0.79
2.80
4.42
5.49
5.96
5.93
5.62
5.28
5.17
5.46
6.16
7.08
7.85
7.99
7.00
4.61
0.86
-3.81
-8.68
-12.96
-16.08
-17.88
-18.54
-18.51
-18.16
-17.73
-17.21
-16.46
-15.36
-13.82
-11.85
-9.47
-6.72
-3.65
-0.44
2.58
5.03
6.55
6.99
6.44
5.22
3.74
2.39
1.40
0.88
0.78
0.92
1.12
1.20
1.07
0.81
0.56
0.44
0.49
0.58
0.52
0.19
-0.38
-0.92
-1.17
-0.92
-0.22
0.70
1.52
1.99
2.01
1.64
1.01
0.29
-0.34
-0.65
-0.43
0.49
2.05
4.06
6.14
7.95
9.27
10.10
10.58
10.86
11.07
11.16
11.04
10.63
9.92
9.03
8.08
7.23
6.57
6.17
6.01
6.04
6.17
6.28
6.25
5.99
5.51
4.87
4.20
3.56
2.92
2.18
1.20
-0.05
-1.54
-3.10
-4.58
-5.92
-7.20
-8.49
-9.80
-10.93
-11.57
-11.40
-10.29
-8.40
-6.09
-3.81
-1.90
-0.49
0.52
1.35
2.20
3.10
4.00
4.76
5.28
5.59
5.78
5.97
6.23
6.54
6.80
6.93
6.84
6.52
6.05
5.52
5.02
4.61
4.29
4.04
3.85
3.67
3.46
3.17
2.73
2.04
1.04
-0.28
-1.90
-3.66
-5.34
-6.69
-7.43
-7.39
-6.54
-5.01
-3.07
-1.03
0.87
2.47
3.77
4.85
5.76
6.51
7.03
7.22
7.06
6.58
5.90
5.22
4.69
4.40
4.32
4.38
4.47
4.55
4.57
4.51
4.30
3.84
3.06
2.00
0.78
-0.36
-1.25
-1.81
-2.15
-2.48
-3.00
-3.81
-4.83
-5.87
-6.72
-7.19
-7.16
-6.57
-5.38
-3.54
-0.99
2.23
5.94
9.82
13.42
16.27
18.08
18.79
18.47
17.35
15.60
13.31
10.57
7.48
4.30
1.38
-0.96
-2.53
-3.36
-3.66
-3.71
-3.74
-3.82
-3.95
-4.11
-4.35
-4.78
-5.49
-6.49
-7.61
-8.57
-9.13
-9.18
-8.72
-7.88
-6.78
-5.42
-3.78
-1.83
0.35
2.55
4.46
5.82
6.45
6.32
5.58
4.49
3.33
2.37
1.73
1.39
1.20
0.99
0.63
0.10
-0.52
-1.14
-1.73
-2.30
-2.89
-3.46
-3.92
-4.17
-4.13
-3.86
-3.54
-3.34
-3.40
-3.78
-4.46
-5.41
-6.57
-7.81
-8.96
-9.74
-9.92
-9.37
-8.16
-6.49
-4.67
-2.96
-1.54
-0.42
0.42
1.10
1.63
1.98
2.09
1.85
1.29
0.51
-0.29
-0.85
-1.01
-0.77
-0.26
0.35
0.96
1.56
2.17
2.78
3.30
3.63
3.68
3.51
3.27
3.08
2.93
2.68
2.06
0.86
-0.98
-3.30
-5.73
-7.85
-9.27
-9.76
-9.31
-8.08
-6.35
-4.46
-2.63
-1.03
0.28
1.24
1.83
2.02
1.81
1.33
0.76
0.34
0.27
0.65
1.42
2.43
3.48
4.41
5.16
5.69
6.00
6.04
5.75
5.08
4.07
2.89
1.77
0.87
0.14
-0.63
-1.72
-3.21
-4.85
-6.03
-6.02
-4.30
-0.93
3.45
7.85
11.32
13.33
13.96
13.65
12.93
12.10
11.13
9.90
8.32
6.55
4.93
3.74
3.09
2.80
2.58
2.18
1.54
0.73
-0.17
-1.10
-2.12
-3.25
-4.43
-5.46
-6.11
-6.22
-5.85
-5.28
-4.93
-5.18
-6.19
-7.78
-9.56
-11.01
-11.67
-11.28
-9.81
-7.46
-4.65
-1.88
0.35
1.69
2.13
2.07
2.18
3.14
5.41
8.88
12.96
16.77
19.48
20.63
20.13
18.22
15.20
11.32
6.70
1.41
-4.31
-10.04
-15.19
-19.19
-21.75
-22.96
-23.28
-23.27
-23.34
-23.52
-23.53
-22.96
-21.49
-19.02
-15.63
-11.44
-6.57
-1.18
4.41
9.58
13.59
15.77
15.89
14.29
11.76
9.21
7.28
6.14
5.54
5.06
4.38
3.42
2.33
1.28
0.34
-0.56
-1.58
-2.81
-4.22
-5.65
-6.96
-8.03
-8.93
-9.84
-10.95
-12.36
-14.01
-15.65
-16.97
-17.78
-18.06
-18.05
-18.03
-18.18
-18.40
-18.36
-17.66
-16.04
-13.59
-10.69
-7.86
-5.51
-3.80
-2.61
-1.73
-0.95
-0.20
0.49
1.08
1.55
1.99
2.51
3.18
3.95
4.71
5.29
5.56
5.53
5.29
5.00
4.74
4.47
4.05
3.34
2.30
1.03
-0.19
-1.19
-1.88
-2.42
-3.06
-3.99
-5.18
-6.38
-7.18
-7.18
-6.22
-4.37
-1.94
0.67
3.08
5.04
6.45
7.34
7.83
8.06
8.16
8.21
8.29
8.41
8.59
8.79
8.95
8.97
8.81
8.44
7.88
7.16
6.33
5.38
4.30
3.09
1.77
0.48
-0.58
-1.17
-1.11
-0.42
0.69
1.75
2.26
1.84
0.45
-1.57
-3.64
-5.12
-5.62
-5.13
-3.95
-2.56
-1.38
-0.64
-0.35
-0.33
-0.31
-0.03
0.71
1.94
3.47
5.05
6.37
7.25
7.68
7.82
7.90
8.09
8.50
9.09
9.81
10.61
11.43
12.15
12.61
12.61
12.11
11.36
10.89
11.41
13.48
17.28
22.44
28.22
33.80
38.57
42.22
44.77
46.34
46.99
46.70
45.46
43.32
40.52
37.36
34.11
30.83
27.45
23.77
19.82
15.94
12.90
11.58
12.64
16.14
21.31
26.82
31.19
33.38
33.09
30.78
27.29
23.40
19.50
15.55
11.29
6.46
1.03
-4.87
-11.01
-17.21
-23.41
-29.61
-35.75
-41.67
-47.02
-51.44
-54.60
-56.45
-57.20
-57.32
-57.38
-57.83
-58.80
-60.11
-61.26
-61.70
-61.11
-59.42
-56.88
-53.86
-50.70
-47.56
-44.41
-41.16
-37.77
-34.30
-30.97
-28.06
-25.71
-23.88
-22.34
-20.74
-18.81
-16.48
-13.98
-11.76
-10.27
-9.73
-10.02
-10.73
-11.41
-11.76
-11.87
-12.07
-12.67
-13.72
-14.85
-15.45
-14.95
-13.07
-10.02
-6.31
-2.57
0.73
3.35
5.30
6.63
7.36
7.47
6.96
5.91
4.57
3.27
2.34
1.98
2.20
2.78
3.44
3.93
4.15
4.21
4.19
4.14
3.98
3.58
2.88
1.96
1.04
0.35
-0.04
-0.30
-0.74
-1.70
-3.42
-5.84
-8.69
-11.47
-13.59
-14.51
-13.95
-11.98
-9.00
-5.62
-2.47
0.11
2.10
3.68
5.12
6.56
7.99
9.33
10.50
11.47
12.22
12.72
12.88
12.64
12.03
11.16
10.24
9.42
8.71
8.03
7.24
6.24
5.10
3.97
3.11
2.73
2.90
3.59
4.58
5.58
6.25
6.31
5.60
4.11
2.06
-0.16
-2.04
-3.08
-2.95
-1.62
0.67
3.50
6.41
9.08
11.34
13.15
14.54
15.47
15.89
15.79
15.24
14.39
13.46
12.62
11.93
11.37
10.81
10.20
9.49
8.73
7.96
7.15
6.24
5.14
3.80
2.22
0.53
-1.15
-2.68
-4.03
-5.28
-6.58
-8.08
-9.86
-11.84
-13.77
-15.35
-16.21
-16.09
-14.85
-12.57
-9.45
-5.82
-2.04
1.50
4.51
6.80
8.33
9.20
9.59
9.69
9.66
9.59
9.53
9.47
9.42
9.38
9.32
9.18
8.91
8.50
7.97
7.38
6.76
6.08
5.23
4.11
2.73
1.14
-0.50
-2.04
-3.46
-4.90
-6.59
-8.78
-11.48
-14.37
-16.81
-18.02
-17.40
-14.78
-10.56
-5.56
-0.72
3.21
5.93
7.51
8.25
8.48
8.39
8.06
7.58
7.05
6.64
6.49
6.61
6.91
7.20
7.33
7.17
6.71
5.99
5.09
4.13
3.22
2.44
1.79
1.17
0.39
-0.77
-2.41
-4.48
-6.80
-9.18
-11.51
-13.82
-16.19
-18.54
-20.49
-21.46
-20.86
-18.38
-14.26
-9.20
-4.09
0.27
3.51
5.65
7.02
7.96
8.70
9.26
9.61
9.74
9.77
9.90
10.30
10.94
11.62
12.02
11.85
11.00
9.59
7.85
6.03
4.25
2.51
0.71
-1.19
-3.14
-4.99
-6.57
-7.82
-8.84
-9.90
-11.32
-13.25
-15.59
-17.92
-19.59
-19.99
-18.77
-15.96
-12.00
-7.46
-2.91
1.29
5.03
8.31
11.17
13.59
15.47
16.72
17.31
17.36
17.09
16.75
16.54
16.51
16.59
16.66
16.57
16.23
15.64
14.82
13.78
12.48
10.85
8.86
6.55
4.10
1.73
-0.38
-2.22
-4.03
-6.20
-9.12
-12.95
-17.42
-21.76
-25.00
-26.23
-25.01
-21.52
-16.46
-10.81
-5.37
-0.66
3.19
6.25
8.54
9.98
10.47
10.04
9.01
7.87
7.14
7.18
8.02
9.40
10.96
12.32
13.20
13.43
12.93
11.75
10.06
8.13
6.23
4.54
3.08
1.73
0.35
-1.21
-3.03
-5.13
-7.52
-10.11
-12.68
-14.75
-15.76
-15.16
-12.74
-8.78
-3.95
0.92
5.16
8.45
10.86
12.66
14.14
15.44
16.52
17.31
17.76
17.93
17.89
17.70
17.35
16.85
16.24
15.68
15.34
15.27
15.35
15.28
14.73
13.47
11.50
9.02
6.28
3.47
0.60
-2.42
-5.73
-9.42
-13.35
-17.19
-20.43
-22.47
-22.78
-21.16
-17.80
-13.29
-8.44
-3.94
-0.22
2.64
4.84
6.53
7.78
8.51
8.62
8.13
7.27
6.46
6.07
6.29
6.96
7.69
7.98
7.54
6.38
4.82
3.27
1.99
0.94
-0.18
-1.68
-3.67
-5.96
-8.22
-10.22
-12.02
-13.96
-16.31
-19.07
-21.74
-23.56
-23.78
-22.09
-18.72
-14.42
-10.10
-6.45
-3.79
-2.02
-0.80
0.17
1.06
1.85
2.50
3.01
3.48
4.11
5.02
6.17
7.32
8.13
8.31
7.76
6.66
5.25
3.81
2.46
1.17
-0.22
-1.92
-4.09
-6.86
-10.29
-14.33
-18.80
-23.25
-27.08
-29.48
-29.79
-27.58
-22.88
-16.26
-8.64
-1.12
5.39
10.35
13.72
15.78
16.94
17.51
17.61
17.23
16.42
15.36
14.40
13.91
14.04
14.62
15.15
15.05
13.94
11.86
9.26
6.75
4.80
3.45
2.32
0.81
-1.54
-4.84
-8.80
-12.89
-16.54
-19.32
-20.91
-21.11
-19.75
-16.81
-12.46
-7.07
-1.21
4.57
9.83
14.32
17.89
20.52
22.23
23.09
23.28
22.97
22.39
21.66
20.83
19.83
18.53
16.82
14.62
11.90
8.75
5.34
1.88
-1.44
-4.51
-7.33
-9.96
-12.47
-14.92
-17.34
-19.73
-22.13
-24.46
-26.46
-27.67
-27.47
-25.38
-21.32
-15.70
-9.39
-3.34
1.72
5.60
8.51
10.81
12.74
14.27
15.12
14.98
13.81
11.85
9.63
7.66
6.31
5.63
5.40
5.32
5.14
4.77
4.27
3.72
3.21
2.72
2.18
1.51
0.61
-0.62
-2.30
-4.55
-7.41
-10.76
-14.17
-17.00
-18.44
-17.90
-15.13
-10.48
-4.74
1.12
6.28
10.31
13.21
15.26
16.80
18.00
18.86
19.26
19.18
18.72
18.08
17.43
16.86
16.32
15.69
14.87
13.82
12.58
11.21
9.79
8.31
6.78
5.11
3.26
1.22
-1.02
-3.40
-5.89
-8.49
-11.22
-14.05
-16.78
-18.96
-20.01
-19.37
-16.77
-12.40
-6.95
-1.31
3.69
7.60
10.39
12.33
13.73
14.72
15.25
15.12
14.22
12.65
10.68
8.64
6.76
5.04
3.27
1.14
-1.59
-4.97
-8.90
-13.09
-17.24
-21.09
-24.53
-27.69
-30.88
-34.52
-38.98
-44.39
-50.57
-57.08
-63.30
-68.61
-72.57
-74.91
-75.63
-75.03
-73.75
-72.68
-72.80
-74.77
-78.65
-83.71
-88.51
-91.12
-89.48
-81.78
-66.75
-43.91
-13.67
22.65
62.91
104.53
144.86
181.63
213.16
238.42
256.94
268.51
273.00
270.26
260.22
243.24
220.21
192.73
163.07
133.53
106.05
81.86
61.16
43.26
27.11
12.09
-1.37
-11.71
-16.48
-12.85
1.70
28.48
66.74
113.00
160.95
202.55
230.07
238.88
229.45
207.55
182.10
161.53
150.41
147.74
148.36
145.69
134.77
114.02
84.64
48.95
9.56
-30.89
-68.93
-99.65
-117.55
-118.94
-104.60
-80.83
-57.65
-44.84
-47.71
-64.78
-88.85
-110.63
-123.04
-123.87
-115.49
-102.46
-88.53
-74.95
-60.84
-44.91
-27.38
-10.63
1.57
5.72
0.48
-12.70
-30.32
-48.25
-63.34
-74.20
-81.15
-85.22
-87.16
-87.06
-84.57
-79.63
-73.06
-66.47
-61.74
-60.12
-61.62
-64.89
-67.87
-68.56
-65.88
-59.96
-51.95
-43.51
-36.11
-30.60
-26.99
-24.70
-22.82
-20.64
-17.87
-14.68
-11.57
-9.04
-7.35
-6.48
-6.33
-6.72
-7.61
-8.98
-10.77
-12.74
-14.58
-16.04
-17.13
-18.13
-19.38
-21.10
-23.16
-25.14
-26.49
-26.78
-25.90
-24.04
-21.55
-18.78
-15.92
-13.05
-10.16
-7.34
-4.80
-2.82
-1.67
-1.50
-2.30
-3.87
-5.94
-8.31
-10.82
-13.42
-16.06
-18.63
-20.84
-22.42
-23.14
-22.95
-22.08
-20.95
-20.05
-19.70
-20.03
-20.97
-22.29
-23.73
-24.98
-25.68
-25.42
-23.84
-20.74
-16.31
-11.18
-6.25
-2.43
-0.20
0.51
0.32
0.04
0.27
1.16
2.44
3.69
4.65
5.35
6.02
6.94
8.12
9.35
10.28
10.61
10.30
9.55
8.67
7.95
7.50
7.20
6.80
5.99
4.60
2.63
0.39
-1.63
-2.86
-2.88
-1.62
0.65
3.42
6.16
8.47
10.07
10.79
10.42
8.75
5.69
1.39
-3.72
-9.02
-13.97
-18.27
-21.92
-25.16
-28.14
-30.88
-33.11
-34.45
-34.69
-33.92
-32.68
-31.87
-32.39
-34.81
-39.02
-44.21
-49.05
-52.15
-52.52
-49.85
-44.59
-37.66
-30.22
-23.35
-17.87
-14.17
-12.10
-10.87
-9.17
-5.51
1.33
11.64
24.60
38.31
50.46
59.04
62.91
62.07
57.40
50.12
41.32
31.58
21.08
9.83
-2.07
-14.25
-26.16
-37.34
-47.60
-56.99
-65.69
-73.65
-80.38
-85.04
-86.80
-85.38
-81.34
-76.19
-71.68
-69.28
-69.45
-71.60
-74.37
-76.33
-76.67
-75.52
-73.93
-73.38
-75.35
-80.98
-91.12
-106.47
-127.51
-154.12
-185.11
-218.10
-249.87
-277.27
-298.22
-312.22
-320.37
-324.53
-326.59
-327.73
-328.45
-328.47
-327.33
-324.38
-318.82
-309.78
-296.19
-276.94
-251.21
-219.33
-183.64
-148.86
-121.06
-105.53
-104.26
-114.64
-130.16
-143.11
-147.85
-142.78
-130.24
-114.35
-98.57
-84.30
-71.16
-58.44
-46.24
-35.69
-28.09
-23.80
-21.77
-19.94
-16.45
-10.34
-2.18
6.40
13.63
18.55
21.51
24.09
28.35
35.93
47.35
61.75
77.41
92.56
106.24
118.54
130.41
143.10
157.39
173.28
190.06
206.69
222.42
237.07
251.14
265.58
281.61
300.44
323.00
349.34
378.06
406.13
429.18
442.78
443.90
432.10
409.72
380.90
350.02
320.23
292.86
267.73
244.12
221.53
200.05
180.06
161.87
145.41
130.36
116.46
103.70
92.40
83.01
75.78
70.53
66.64
63.24
59.54
55.13
50.07
44.81
39.95
35.94
32.88
30.52
28.41
26.01
22.95
19.12
14.64
9.83
5.09
0.76
-2.97
-6.06
-8.64
-10.92
-13.14
-15.46
-18.03
-20.93
-24.22
-27.87
-31.70
-35.42
-38.62
-40.87
-41.84
-41.44
-39.80
-37.29
-34.35
-31.37
-28.60
-26.16
-24.06
-22.26
-20.74
-19.44
-18.18
-16.71
-14.72
-11.99
-8.52
-4.57
-0.56
3.03
5.82
7.59
8.19
7.53
5.60
2.44
-1.68
-6.37
-11.08
-15.29
-18.58
-20.72
-21.61
-21.23
-19.61
-16.76
-12.79
-7.90
-2.36
3.53
9.43
14.99
19.84
23.64
26.12
27.21
27.00
25.73
23.69
21.11
18.20
15.08
11.90
8.86
6.12
3.85
2.16
1.10
0.68
0.86
1.52
2.43
3.22
3.44
2.59
0.34
-3.40
-8.30
-13.66
-18.54
-22.01
-23.50
-22.86
-20.41
-16.75
-12.48
-8.09
-3.86
0.02
3.35
5.91
7.53
8.17
8.02
7.40
6.73
6.31
6.25
6.43
6.61
6.51
6.01
5.15
4.12
3.12
2.31
1.73
1.33
0.99
0.58
-0.05
-1.10
-2.74
-5.16
-8.43
-12.46
-16.92
-21.21
-24.58
-26.21
-25.53
-22.42
-17.34
-11.19
-5.10
0.00
3.54
5.45
5.93
5.39
4.23
2.86
1.66
1.01
1.16
2.15
3.78
5.65
7.33
8.47
8.92
8.71
8.05
7.21
6.43
5.83
5.45
5.20
4.96
4.71
4.53
4.55
4.89
5.56
6.42
7.26
7.89
8.24
8.34
8.30
8.16
7.93
7.47
6.59
5.12
2.96
0.17
-2.96
-5.89
-7.92
-8.36
-6.75
-2.98
2.65
9.46
16.66
23.50
29.51
34.49
38.55
41.89
44.73
47.20
49.36
51.22
52.78
54.06
55.04
55.69
55.95
55.83
55.33
54.54
53.51
52.28
50.81
49.10
47.17
45.07
42.85
40.47
37.80
34.62
30.81
26.37
21.54
16.69
12.15
8.04
4.23
0.40
-3.77
-8.46
-13.64
-19.09
-24.54
-29.70
-34.28
-37.91
-40.17
-40.69
-39.32
-36.28
-32.17
-27.74
-23.71
-20.50
-18.20
-16.64
-15.56
-14.74
-14.07
-13.60
-13.48
-13.87
-14.82
-16.20
-17.71
-18.97
-19.72
-19.94
-19.96
-20.32
-21.53
-23.85
-27.20
-31.19
-35.33
-39.19
-42.54
-45.33
-47.69
-49.79
-51.87
-54.13
-56.75
-59.67
-62.51
-64.49
-64.62
-61.98
-56.19
-47.68
-37.57
-27.40
-18.54
-11.76
-7.05
-3.88
-1.52
0.55
2.48
4.12
5.28
5.87
5.99
5.81
5.44
4.83
3.83
2.35
0.45
-1.62
-3.54
-4.98
-5.82
-6.07
-5.89
-5.47
-5.10
-5.07
-5.62
-6.86
-8.60
-10.30
-11.24
-10.75
-8.46
-4.47
0.70
6.38
11.95
17.07
21.64
25.70
29.26
32.25
34.54
36.08
36.98
37.50
37.89
38.25
38.51
38.41
37.72
36.31
34.25
31.73
28.93
25.94
22.74
19.30
15.65
11.97
8.47
5.27
2.28
-0.79
-4.28
-8.28
-12.51
-16.29
-18.74
-19.11
-17.07
-12.79
-6.91
-0.26
6.39
12.50
17.80
22.27
25.97
29.02
31.44
33.21
34.34
34.89
35.07
35.16
35.43
36.00
36.72
37.20
36.98
35.71
33.40
30.30
26.85
23.39
19.99
16.48
12.54
8.00
2.89
-2.52
-7.89
-12.98
-17.67
-21.90
-25.48
-28.06
-29.18
-28.50
-25.92
-21.67
-16.19
-10.00
-3.51
2.96
9.21
15.07
20.28
24.58
27.71
29.65
30.80
32.02
34.52
39.43
47.24
57.46
68.57
78.46
85.12
87.27
84.58
77.48
66.79
53.31
37.65
20.34
2.08
-16.23
-33.59
-49.13
-62.39
-73.36
-82.40
-89.89
-96.00
-100.54
-103.07
-103.04
-100.24
-94.95
-87.98
-80.46
-73.42
-67.52
-62.84
-59.01
-55.50
-51.93
-48.25
-44.79
-41.93
-39.93
-38.70
-37.85
-36.89
-35.57
-33.95
-32.40
-31.36
-31.06
-31.45
-32.21
-32.94
-33.40
-33.64
-33.87
-34.39
-35.35
-36.71
-38.33
-40.00
-41.61
-43.09
-44.31
-44.99
-44.69
-42.96
-39.55
-34.57
-28.52
-22.17
-16.20
-11.11
-6.97
-3.63
-0.81
1.66
3.82
5.59
6.89
7.78
8.42
9.04
9.74
10.51
11.20
11.62
11.74
11.73
11.94
12.71
14.12
15.81
17.08
17.00
14.85
10.56
4.87
-0.75
-4.52
-4.89
-1.13
6.55
17.22
29.67
43.02
56.98
71.80
87.98
105.84
125.27
145.72
166.38
186.29
204.50
219.97
231.62
238.38
239.36
234.21
223.38
208.14
190.42
172.36
155.83
142.00
131.18
122.92
116.32
110.38
104.34
97.79
90.73
83.46
76.39
69.90
64.26
59.54
55.65
52.40
49.62
47.16
44.95
42.92
40.93
38.78
36.20
32.98
28.98
24.23
18.91
13.23
7.43
1.66
-3.99
-9.53
-15.09
-20.98
-27.56
-35.10
-43.60
-52.68
-61.67
-69.89
-76.97
-82.96
-88.37
-93.88
-100.09
-107.24
-115.11
-123.17
-130.74
-137.19
-142.07
-145.13
-146.36
-145.84
-143.82
-140.61
-136.59
-132.24
-128.08
-124.55
-121.85
-119.82
-117.94
-115.48
-111.80
-106.54
-99.84
-92.21
-84.36
-76.99
-70.48
-64.85
-59.81
-54.99
-50.17
-45.40
-41.00
-37.41
-34.97
-33.76
-33.58
-34.07
-34.80
-35.39
-35.57
-35.12
-33.88
-31.79
-28.97
-25.67
-22.19
-18.67
-15.00
-10.80
-5.68
0.49
7.39
14.28
20.29
24.75
27.59
29.36
31.09
33.88
38.50
45.20
53.66
63.22
73.15
82.81
91.73
99.46
105.63
109.95
112.36
113.20
113.07
112.69
112.48
112.46
112.21
111.18
109.06
105.97
102.45
99.21
96.87
95.69
95.55
96.09
96.92
97.79
98.73
99.95
101.72
104.08
106.79
109.26
110.80
110.87
109.32
106.41
102.72
98.80
95.01
91.32
87.39
82.76
77.11
70.31
62.44
53.67
44.15
33.91
22.91
11.14
-1.28
-14.06
-26.75
-38.79
-49.75
-59.35
-67.54
-74.41
-80.14
-84.94
-89.05
-92.71
-96.29
-100.19
-104.77
-110.22
-116.38
-122.77
-128.79
-133.84
-137.58
-139.91
-141.00
-141.15
-140.72
-140.05
-139.48
-139.27
-139.57
-140.35
-141.41
-142.33
-142.64
-141.98
-140.22
-137.54
-134.46
-131.55
-129.36
-128.11
-127.67
-127.68
-127.75
-127.69
-127.66
-128.00
-129.03
-130.75
-132.78
-134.40
-134.82
-133.47
-130.10
-124.85
-118.15
-110.49
-102.30
-93.94
-85.63
-77.50
-69.62
-61.99
-54.60
-47.50
-40.89
-35.13
-30.57
-27.38
-25.43
-24.26
-23.31
-22.30
-21.38
-21.14
-22.34
-25.50
-30.70
-37.50
-45.27
-53.49
-62.10
-71.46
-82.20
-94.84
-109.52
-125.80
-142.96
-160.18
-177.00
-193.52
-210.41
-228.68
-249.52
-274.13
-303.39
-337.31
-374.29
-410.74
-441.47
-461.00
-465.50
-454.23
-429.83
-397.27
-361.82
-327.28
-295.30
-265.85
-238.37
-212.62
-188.96
-167.83
-149.20
-132.32
-116.07
-99.53
-82.45
-65.30
-49.03
-34.52
-22.18
-11.81
-2.69
6.04
15.05
24.57
34.38
43.98
52.84
60.64
67.34
73.21
78.66
84.19
90.23
97.08
104.83
113.36
122.38
131.47
140.26
148.53
156.44
164.42
173.09
183.03
194.48
207.24
220.76
234.40
247.70
260.60
273.52
287.17
302.44
320.38
341.91
367.44
396.16
425.60
451.74
470.03
476.92
471.13
454.25
429.88
402.16
374.30
347.84
322.99
299.38
276.96
256.11
237.34
220.80
206.03
192.26
178.79
165.38
152.23
139.86
128.78
119.28
111.40
104.93
99.63
95.25
91.68
89.01
87.41
87.04
87.83
89.38
90.94
91.57
90.37
86.75
80.61
72.34
62.68
52.51
42.55
33.28
24.90
17.37
10.53
4.23
-1.61
-7.00
-11.94
-16.39
-20.39
-23.99
-27.28
-30.30
-33.05
-35.50
-37.54
-39.11
-40.13
-40.60
-40.51
-39.78
-38.27
-35.82
-32.39
-28.08
-23.28
-18.46
-14.09
-10.52
-7.84
-6.00
-4.83
-4.10
-3.65
-3.29
-2.87
-2.32
-1.61
-0.81
-0.09
0.34
0.32
-0.19
-1.08
-2.10
-3.05
-3.84
-4.57
-5.52
-6.96
-9.01
-11.55
-14.34
-17.08
-19.59
-21.82
-23.74
-25.27
-26.29
-26.67
-26.43
-25.78
-25.00
-24.33
-23.82
-23.35
-22.75
-21.94
-21.04
-20.28
-19.86
-19.85
-20.14
-20.47
-20.64
-20.61
-20.48
-20.45
-20.70
-21.28
-22.10
-22.98
-23.76
-24.38
-24.80
-25.11
-25.39
-25.76
-26.35
-27.23
-28.42
-29.82
-31.18
-32.21
-32.70
-32.53
-31.75
-30.55
-29.05
-27.23
-24.99
-22.21
-18.90
-15.23
-11.52
-8.13
-5.33
-3.28
-2.06
-1.78
-2.47
-4.11
-6.54
-9.36
-12.03
-14.02
-14.89
-14.44
-12.74
-10.14
-7.10
-4.16
-1.73
-0.10
0.68
0.74
0.30
-0.40
-1.23
-2.14
-3.20
-4.37
-5.63
-6.83
-7.71
-8.01
-7.44
-5.83
-3.23
0.15
3.86
7.33
9.89
10.91
9.92
6.74
1.60
-4.85
-11.71
-18.02
-23.00
-26.23
-27.71
-27.84
-27.21
-26.49
-26.29
-26.95
-28.47
-30.46
-32.20
-32.82
-31.56
-28.01
-22.23
-14.76
-6.45
1.81
9.25
15.40
20.12
23.52
25.84
27.33
28.07
28.02
26.98
24.79
21.35
16.78
11.40
5.71
0.28
-4.46
-8.25
-11.14
-13.36
-15.21
-16.81
-17.98
-18.22
-16.98
-14.02
-9.58
-4.47
0.25
3.64
5.33
5.54
4.91
4.21
3.85
3.90
4.00
3.69
2.61
0.70
-1.78
-4.32
-6.40
-7.72
-8.24
-8.30
-8.42
-9.07
-10.52
-12.70
-15.35
-18.17
-20.94
-23.52
-25.81
-27.60
-28.68
-28.81
-27.98
-26.36
-24.32
-22.31
-20.71
-19.77
-19.53
-19.84
-20.37
-20.65
-20.26
-18.98
-16.92
-14.61
-12.82
-12.20
-12.94
-14.56
-15.96
-15.86
-13.37
-8.40
-1.88
4.50
8.92
10.01
7.38
1.73
-5.39
-12.28
-17.55
-20.70
-22.06
-22.47
-22.83
-23.56
-24.55
-25.23
-24.97
-23.34
-20.36
-16.58
-13.02
-11.10
-12.29
-17.57
-26.86
-38.67
-50.28
-58.62
-61.38
-57.93
-49.45
-38.39
-27.30
-17.95
-10.94
-5.97
-2.44
0.12
1.91
3.04
3.77
4.54
5.84
8.03
11.04
14.52
17.89
20.61
22.37
23.13
23.08
22.50
21.54
20.15
18.05
14.93
10.70
5.65
0.46
-4.02
-7.10
-8.54
-8.60
-7.96
-7.33
-7.21
-7.68
-8.45
-9.02
-8.96
-8.07
-6.46
-4.51
-2.69
-1.39
-0.84
-1.05
-1.90
-3.13
-4.50
-5.75
-6.72
-7.27
-7.30
-6.77
-5.65
-3.99
-1.89
0.47
2.84
4.94
6.54
7.53
7.98
8.07
7.97
7.79
7.55
7.25
6.86
6.40
5.94
5.57
5.33
5.20
5.09
4.82
4.23
3.24
1.88
0.30
-1.27
-2.63
-3.69
-4.44
-4.91
-5.09
-4.91
-4.27
-3.14
-1.52
0.48
2.81
5.46
8.42
11.58
14.65
17.18
18.68
18.80
17.45
14.80
11.15
6.91
2.57
-1.44
-4.72
-6.99
-8.23
-8.55
-8.16
-7.18
-5.62
-3.46
-0.71
2.33
5.23
7.49
8.79
9.11
8.68
7.84
6.89
6.02
5.28
4.77
4.54
4.66
5.13
5.89
6.75
7.46
7.84
7.76
7.30
6.59
5.85
5.21
4.74
4.34
3.86
3.13
2.05
0.61
-1.04
-2.63
-3.84
-4.40
-4.27
-3.64
-2.89
-2.34
-2.12
-2.02
-1.73
-0.97
0.22
1.53
2.57
3.14
3.35
3.53
3.94
4.55
5.05
5.00
4.14
2.50
0.43
-1.62
-3.25
-4.22
-4.45
-4.01
-3.06
-1.90
-0.89
-0.46
-0.88
-2.18
-3.99
-5.70
-6.58
-6.10
-4.07
-0.78
3.16
6.97
10.02
11.99
12.93
13.19
13.15
13.12
13.18
13.27
13.21
12.87
12.22
11.43
10.79
10.64
11.14
12.23
13.53
14.50
14.68
13.83
12.09
9.86
7.59
5.60
4.00
2.75
1.82
1.25
1.06
1.15
1.15
0.61
-0.78
-2.87
-5.14
-6.66
-6.66
-4.81
-1.38
2.86
7.00
10.26
12.20
12.72
11.91
9.97
7.19
3.92
0.57
-2.45
-4.87
-6.49
-7.32
-7.37
-6.81
-5.81
-4.69
-3.83
-3.57
-4.15
-5.47
-7.22
-8.92
-10.20
-11.00
-11.56
-12.34
-13.73
-15.88
-18.56
-21.32
-23.66
-25.24
-26.08
-26.46
-26.88
-27.81
-29.54
-32.04
-35.06
-38.19
-41.11
-43.92
-47.08
-51.40
-57.65
-66.21
-76.85
-88.84
-101.10
-112.78
-123.60
-133.94
-144.82
-157.85
-174.92
-197.74
-227.17
-262.34
-300.38
-336.73
-366.49
-386.03
-394.27
-392.77
-384.78
-373.65
-361.46
-348.71
-334.82
-319.19
-301.81
-283.29
-264.37
-245.41
-226.20
-206.23
-185.29
-163.65
-142.14
-121.82
-103.53
-87.54
-73.53
-60.80
-48.58
-36.40
-24.14
-12.10
-0.66
9.89
19.51
28.36
36.73
44.86
52.90
60.93
69.03
77.34
86.01
95.16
104.75
114.60
124.34
133.71
142.70
151.61
161.02
171.50
183.35
196.43
210.22
224.02
237.31
249.97
262.36
275.20
289.45
306.13
326.18
349.95
376.72
404.16
428.51
445.40
451.27
444.72
427.03
401.57
372.45
343.03
315.12
289.17
264.93
242.29
221.48
202.84
186.37
171.52
157.37
143.12
128.46
113.64
99.40
86.61
75.91
67.55
61.26
56.37
52.05
47.56
42.53
37.07
31.66
26.86
22.95
19.86
17.12
14.21
10.85
7.16
3.59
0.63
-1.45
-2.76
-3.75
-4.95
-6.69
-8.98
-11.45
-13.59
-14.96
-15.40
-15.04
-14.16
-13.13
-12.19
-11.49
-11.08
-10.96
-11.20
-11.82
-12.86
-14.26
-15.86
-17.34
-18.37
-18.64
-17.96
-16.37
-14.07
-11.42
-8.79
-6.47
-4.62
-3.28
-2.36
-1.77
-1.42
-1.30
-1.45
-1.91
-2.65
-3.55
-4.41
-5.05
-5.37
-5.48
-5.56
-5.84
-6.40
-7.22
-8.14
-9.00
-9.70
-10.31
-10.88
-11.39
-11.76
-11.83
-11.50
-10.84
-10.05
-9.43
-9.25
-9.55
-10.24
-10.98
-11.46
-11.43
-10.85
-9.84
-8.60
-7.31
-6.12
-5.10
-4.29
-3.72
-3.45
-3.46
-3.73
-4.19
-4.73
-5.26
-5.73
-6.19
-6.72
-7.32
-7.98
-8.55
-8.89
-8.91
-8.63
-8.27
-8.05
-8.17
-8.67
-9.43
-10.22
-10.87
-11.33
-11.67
-12.05
-12.56
-13.18
-13.79
-14.21
-14.31
-13.99
-13.22
-12.00
-10.43
-8.58
-6.63
-4.79
-3.25
-2.20
-1.77
-2.01
-2.81
-3.97
-5.17
-6.11
-6.52
-6.34
-5.67
-4.75
-3.90
-3.38
-3.32
-3.74
-4.48
-5.33
-6.09
-6.63
-6.96
-7.23
-7.63
-8.36
-9.45
-10.80
-12.18
-13.28
-13.86
-13.71
-12.75
-11.04
-8.76
-6.24
-3.86
-2.03
-0.96
-0.67
-0.94
-1.42
-1.73
-1.63
-1.14
-0.51
-0.07
-0.10
-0.60
-1.36
-2.00
-2.22
-1.98
-1.53
-1.28
-1.58
-2.53
-3.99
-5.65
-7.24
-8.63
-9.81
-10.79
-11.50
-11.83
-11.77
-11.45
-11.18
-11.25
-11.72
-12.35
-12.65
-12.15
-10.67
-8.37
-5.75
-3.34
-1.53
-0.44
0.02
0.03
-0.23
-0.62
-1.07
-1.53
-1.99
-2.44
-2.89
-3.31
-3.69
-3.97
-4.20
-4.46
-4.90
-5.58
-6.45
-7.29
-7.85
-7.99
-7.76
-7.39
-7.17
-7.31
-7.80
-8.53
-9.31
-10.00
-10.53
-10.91
-11.06
-10.86
-10.17
-8.95
-7.31
-5.53
-3.91
-2.70
-1.97
-1.63
-1.47
-1.27
-0.87
-0.24
0.47
1.01
1.08
0.52
-0.59
-1.89
-2.89
-3.14
-2.52
-1.29
0.11
1.21
1.83
2.07
2.22
2.52
3.00
3.46
3.62
3.32
2.57
1.46
0.03
-1.90
-4.63
-8.33
-12.84
-17.51
-21.46
-23.88
-24.34
-22.97
-20.33
-17.15
-13.99
-11.15
-8.68
-6.54
-4.73
-3.34
-2.46
-2.07
-2.00
-1.92
-1.56
-0.85
0.02
0.61
0.38
-1.04
-3.68
-7.13
-10.67
-13.52
-15.07
-15.08
-13.73
-11.49
-8.91
-6.45
-4.34
-2.62
-1.27
-0.30
0.14
-0.11
-1.12
-2.76
-4.60
-6.04
-6.50
-5.64
-3.53
-0.62
2.42
4.98
6.67
7.46
7.61
7.51
7.48
7.63
7.85
7.92
7.61
6.82
5.63
4.22
2.88
1.86
1.30
1.21
1.49
1.98
2.52
2.97
3.18
3.03
2.44
1.45
0.22
-0.99
-1.87
-2.29
-2.33
-2.30
-2.52
-3.17
-4.15
-5.10
-5.62
-5.43
-4.55
-3.24
-1.85
-0.62
0.35
1.16
1.90
2.63
3.27
3.61
3.53
2.96
2.07
1.13
0.42
0.10
0.10
0.16
-0.05
-0.74
-1.94
-3.43
-4.90
-6.13
-7.05
-7.78
-8.51
-9.34
-10.27
-11.19
-11.93
-12.40
-12.52
-12.21
-11.39
-9.94
-7.80
-5.02
-1.89
1.18
3.74
5.44
6.20
6.15
5.56
4.72
3.81
2.89
2.02
1.22
0.64
0.33
0.32
0.43
0.38
-0.08
-1.04
-2.34
-3.64
-4.58
-4.88
-4.47
-3.46
-2.14
-0.84
0.10
0.41
-0.01
-1.15
-2.83
-4.86
-7.04
-9.22
-11.21
-12.75
-13.50
-13.16
-11.65
-9.14
-6.08
-3.06
-0.53
1.31
2.55
3.46
4.29
5.13
5.85
6.23
6.10
5.50
4.68
4.04
3.83
4.06
4.44
4.56
4.10
3.04
1.62
0.20
-0.98
-1.93
-2.83
-3.86
-5.06
-6.19
-6.94
-7.09
-6.64
-5.88
-5.23
-5.10
-5.61
-6.57
-7.51
-7.92
-7.41
-5.92
-3.73
-1.32
0.82
2.41
3.45
4.16
4.85
5.70
6.62
7.33
7.48
6.87
5.58
3.96
2.45
1.34
0.69
0.32
-0.06
-0.60
-1.16
-1.49
-1.34
-0.70
0.12
0.70
0.64
-0.15
-1.49
-3.04
-4.51
-5.81
-6.97
-8.06
-9.05
-9.75
-9.99
-9.70
-9.02
-8.26
-7.71
-7.54
-7.67
-7.81
-7.55
-6.61
-4.90
-2.63
-0.25
1.73
2.93
3.24
2.89
2.25
1.70
1.37
1.22
1.09
0.90
0.68
0.58
0.65
0.82
0.91
0.77
0.39
-0.03
-0.23
-0.09
0.28
0.57
0.46
-0.18
-1.21
-2.33
-3.29
-4.02
-4.64
-5.33
-6.21
-7.20
-8.09
-8.67
-8.81
-8.42
-7.56
-6.26
-4.64
-2.88
-1.23
0.10
1.01
1.58
2.00
2.45
3.00
3.50
3.76
3.63
3.09
2.35
1.64
1.20
1.11
1.28
1.55
1.68
1.45
0.74
-0.44
-1.94
-3.52
-4.90
-5.85
-6.23
-6.04
-5.37
-4.42
-3.44
-2.72
-2.49
-2.84
-3.70
-4.81
-5.75
-6.15
-5.73
-4.45
-2.57
-0.52
1.18
2.14
2.23
1.63
0.75
0.03
-0.22
0.04
0.69
1.45
2.12
2.53
2.60
2.31
1.67
0.79
-0.14
-0.92
-1.35
-1.34
-0.92
-0.28
0.33
0.65
0.51
-0.12
-1.15
-2.41
-3.74
-5.04
-6.30
-7.49
-8.53
-9.22
-9.31
-8.58
-7.01
-4.85
-2.53
-0.49
1.05
2.10
2.85
3.51
4.19
4.80
5.12
4.95
4.22
3.03
1.65
0.37
-0.57
-1.10
-1.30
-1.37
-1.55
-1.97
-2.67
-3.58
-4.63
-5.80
-7.06
-8.28
-9.20
-9.39
-8.44
-6.28
-3.27
-0.16
2.20
3.22
2.87
1.63
0.24
-0.59
-0.49
0.51
2.10
3.82
5.31
6.34
6.90
7.08
7.00
6.77
6.38
5.74
4.79
3.56
2.21
1.02
0.15
-0.38
-0.75
-1.26
-2.08
-3.14
-4.17
-4.80
-4.77
-4.10
-2.98
-1.74
-0.64
0.14
0.56
0.52
-0.03
-1.14
-2.77
-4.72
-6.64
-8.07
-8.59
-7.96
-6.20
-3.64
-0.76
1.88
3.92
5.22
5.90
6.22
6.37
6.42
6.31
5.89
5.14
4.13
3.06
2.17
1.54
1.16
0.93
0.73
0.49
0.22
-0.08
-0.41
-0.81
-1.29
-1.77
-2.15
-2.36
-2.38
-2.35
-2.46
-2.94
-3.90
-5.36
-7.22
-9.26
-11.17
-12.60
-13.19
-12.71
-11.17
-8.85
-6.22
-3.73
-1.65
-0.01
1.34
2.52
3.59
4.47
5.05
5.35
5.41
5.36
5.27
5.08
4.71
4.14
3.44
2.81
2.42
2.34
2.51
2.73
2.77
2.48
1.78
0.75
-0.50
-1.82
-3.04
-4.09
-4.97
-5.78
-6.63
-7.56
-8.49
-9.21
-9.50
-9.22
-8.31
-6.84
-4.93
-2.67
-0.18
2.39
4.85
6.94
8.45
9.28
9.50
9.28
8.83
8.29
7.66
6.87
5.80
4.50
3.16
2.07
1.47
1.42
1.72
1.99
1.91
1.29
0.21
-1.12
-2.43
-3.57
-4.45
-5.10
-5.54
-5.82
-6.02
-6.29
-6.76
-7.49
-8.38
-9.12
-9.29
-8.57
-6.83
-4.22
-1.12
1.97
4.62
6.50
7.49
7.62
7.09
6.12
5.01
3.97
3.16
2.63
2.37
2.30
2.38
2.51
2.60
2.57
2.35
1.90
1.24
0.47
-0.32
-1.02
-1.60
-2.11
-2.67
-3.49
-4.68
-6.27
-8.04
-9.66
-10.77
-11.11
-10.71
-9.74
-8.48
-7.05
-5.45
-3.62
-1.53
0.67
2.66
4.11
4.82
4.87
4.49
4.00
3.60
3.37
3.20
3.02
2.76
2.50
2.33
2.34
2.53
2.81
3.06
3.18
3.11
2.82
2.38
1.78
1.06
0.26
-0.54
-1.31
-2.02
-2.75
-3.65
-4.89
-6.55
-8.56
-10.66
-12.41
-13.37
-13.24
-11.97
-9.80
-7.18
-4.66
-2.73
-1.73
-1.77
-2.77
-4.44
-6.40
-8.20
-9.48
-9.97
-9.55
-8.21
-6.06
-3.24
0.01
3.39
6.47
8.81
10.09
10.15
9.17
7.50
5.53
3.59
1.83
0.31
-0.97
-2.01
-2.82
-3.49
-4.19
-5.13
-6.38
-7.89
-9.40
-10.59
-11.17
-10.98
-10.03
-8.48
-6.54
-4.45
-2.45
-0.72
0.63
1.59
2.24
2.71
3.07
3.36
3.56
3.64
3.62
3.59
3.66
3.88
4.18
4.45
4.60
4.63
4.62
4.63
4.68
4.64
4.31
3.51
2.27
0.81
-0.49
-1.30
-1.47
-1.17
-0.75
-0.64
-1.16
-2.37
-4.06
-5.79
-6.99
-7.16
-6.06
-3.75
-0.67
2.63
5.62
7.99
9.73
10.95
11.84
12.47
12.84
12.92
12.79
12.60
12.53
12.65
12.87
12.92
12.52
11.54
10.05
8.36
6.78
5.57
4.77
4.19
3.59
2.75
1.63
0.34
-0.90
-1.89
-2.56
-2.94
-3.16
-3.41
-3.87
-4.71
-6.05
-7.88
-10.04
-12.16
-13.69
-14.13
-13.09
-10.53
-6.78
-2.52
1.53
4.74
6.82
7.83
8.13
8.22
8.47
9.02
9.73
10.29
10.38
9.82
8.72
7.37
6.10
5.15
4.59
4.33
4.27
4.32
4.39
4.36
4.04
3.22
1.83
-0.03
-2.06
-3.88
-5.21
-6.00
-6.46
-6.91
-7.68
-8.94
-10.65
-12.53
-14.10
-14.87
-14.40
-12.51
-9.36
-5.38
-1.17
2.65
5.67
7.74
8.96
9.56
9.81
9.82
9.63
9.18
8.48
7.65
6.87
6.29
5.95
5.72
5.33
4.59
3.50
2.29
1.31
0.81
0.75
0.84
0.66
-0.03
-1.18
-2.55
-3.85
-5.03
-6.37
-8.24
-10.88
-13.98
-16.84
-18.51
-18.29
-16.08
-12.35
-7.96
-3.75
-0.24
2.50
4.62
6.37
7.88
9.11
9.97
10.42
10.48
10.34
10.18
10.14
10.22
10.28
10.11
9.56
8.56
7.21
5.64
3.98
2.27
0.51
-1.31
-3.12
-4.76
-6.00
-6.77
-7.14
-7.45
-8.11
-9.51
-11.74
-14.53
-17.27
-19.16
-19.54
-18.09
-14.95
-10.63
-5.82
-1.19
2.76
5.80
7.86
9.00
9.39
9.25
8.83
8.32
7.80
7.28
6.66
5.89
4.99
4.06
3.25
2.67
2.35
2.23
2.19
2.14
2.03
1.84
1.57
1.25
0.87
0.42
-0.11
-0.74
-1.46
-2.28
-3.21
-4.35
-5.81
-7.62
-9.61
-11.38
-12.37
-12.07
-10.32
-7.27
-3.46
0.48
4.04
6.91
8.99
10.32
10.97
11.00
10.54
9.74
8.79
7.91
7.22
6.82
6.74
6.98
7.46
8.00
8.35
8.28
7.71
6.76
5.70
4.75
4.00
3.29
2.32
0.89
-1.02
-3.11
-4.94
-6.14
-6.61
-6.57
-6.51
-6.95
-8.18
-10.17
-12.51
-14.58
-15.75
-15.61
-14.06
-11.34
-7.89
-4.17
-0.57
2.67
5.42
7.62
9.23
10.16
10.39
10.01
9.30
8.63
8.35
8.62
9.32
10.12
10.63
10.56
9.90
8.85
7.72
6.75
6.03
5.47
4.90
4.15
3.13
1.80
0.23
-1.46
-3.16
-4.70
-6.01
-7.12
-8.21
-9.53
-11.21
-13.20
-15.12
-16.46
-16.71
-15.57
-13.07
-9.52
-5.46
-1.47
1.92
4.39
5.86
6.51
6.67
6.70
6.81
7.00
7.12
7.01
6.68
6.29
6.06
6.01
5.98
5.68
4.89
3.64
2.15
0.73
-0.46
-1.43
-2.37
-3.43
-4.67
-6.03
-7.39
-8.73
-10.10
-11.65
-13.43
-15.44
-17.49
-19.25
-20.35
-20.38
-19.05
-16.29
-12.29
-7.51
-2.57
1.96
5.67
8.42
10.32
11.53
12.23
12.47
12.26
11.61
10.63
9.54
8.51
7.69
7.02
6.39
5.60
4.58
3.36
2.11
0.99
0.08
-0.67
-1.43
-2.32
-3.36
-4.42
-5.35
-6.11
-6.84
-7.83
-9.34
-11.45
-13.97
-16.45
-18.29
-18.96
-18.09
-15.63
-11.78
-6.97
-1.83
2.96
6.88
9.67
11.39
12.33
12.79
12.94
12.80
12.27
11.38
10.29
9.22
8.31
7.58
6.89
6.10
5.20
4.30
3.54
2.96
2.41
1.68
0.56
-0.94
-2.70
-4.44
-5.95
-7.11
-7.98
-8.74
-9.68
-11.11
-13.21
-16.02
-19.32
-22.66
-25.40
-26.97
-26.97
-25.36
-22.48
-18.90
-15.31
-12.24
-9.95
-8.39
-7.30
-6.32
-5.08
-3.35
-1.00
1.87
5.08
8.30
11.20
13.55
15.23
16.31
16.90
17.09
16.91
16.47
15.82
15.10
14.46
13.86
13.20
12.22
10.73
8.63
6.05
3.28
0.67
-1.53
-3.26
-4.64
-6.02
-7.69
-9.81
-12.13
-14.06
-14.85
-13.83
-10.81
-6.13
-0.62
4.76
9.28
12.63
14.90
16.41
17.45
18.12
18.41
18.25
17.69
16.93
16.23
15.75
15.50
15.30
14.89
14.04
12.74
11.15
9.55
8.15
6.98
5.86
4.56
2.84
0.70
-1.74
-4.24
-6.64
-8.87
-11.03
-13.26
-15.73
-18.52
-21.61
-24.84
-27.87
-30.21
-31.30
-30.61
-27.84
-23.08
-16.81
-9.83
-3.05
2.78
7.21
10.17
11.89
12.69
12.87
12.54
11.72
10.42
8.76
6.96
5.26
3.86
2.78
1.92
1.05
-0.04
-1.49
-3.41
-5.77
-8.40
-11.07
-13.46
-15.33
-16.64
-17.58
-18.53
-19.92
-22.05
-25.02
-28.69
-32.74
-36.68
-39.92
-41.83
-41.86
-39.73
-35.64
-30.21
-24.37
-19.04
-14.79
-11.73
-9.47
-7.41
-4.94
-1.63
2.61
7.65
13.17
18.82
24.34
29.62
34.71
39.63
44.29
48.36
51.35
52.75
52.25
49.90
46.07
41.37
36.35
31.44
26.82
22.52
18.50
14.70
11.03
7.33
3.37
-0.97
-5.54
-9.83
-12.97
-13.99
-12.22
-7.54
-0.61
7.43
15.25
21.83
26.72
30.01
32.11
33.44
34.15
34.15
33.22
31.25
28.44
25.18
21.96
19.08
16.57
14.26
11.94
9.58
7.34
5.50
4.20
3.28
2.31
0.74
-1.75
-5.10
-8.84
-12.32
-14.99
-16.69
-17.70
-18.57
-19.90
-22.09
-25.10
-28.52
-31.59
-33.48
-33.50
-31.35
-27.19
-21.60
-15.36
-9.28
-3.89
0.58
4.15
6.95
9.00
10.27
10.69
10.29
9.29
8.07
7.03
6.44
6.31
6.42
6.39
5.95
5.00
3.71
2.35
1.19
0.28
-0.47
-1.25
-2.20
-3.30
-4.42
-5.35
-6.07
-6.67
-7.42
-8.57
-10.30
-12.65
-15.53
-18.76
-22.08
-25.05
-27.09
-27.54
-25.87
-21.90
-15.99
-8.95
-1.86
4.35
9.06
12.20
14.07
15.16
15.88
16.46
16.86
16.93
16.50
15.52
14.12
12.53
10.96
9.52
8.26
7.07
5.87
4.57
3.15
1.56
-0.27
-2.42
-4.98
-7.86
-10.84
-13.46
-15.28
-16.05
-15.83
-15.09
-14.50
-14.67
-15.86
-17.84
-19.83
-20.88
-20.11
-17.11
-12.12
-5.96
0.28
5.59
9.40
11.71
12.90
13.43
13.58
13.34
12.57
11.23
9.53
7.88
6.71
6.13
5.95
5.76
5.16
4.01
2.42
0.69
-0.90
-2.25
-3.45
-4.75
-6.37
-8.40
-10.71
-13.04
-15.13
-16.89
-18.46
-20.26
-22.59
-25.47
-28.36
-30.30
-30.26
-27.55
-22.17
-14.78
-6.50
1.50
8.39
13.73
17.56
20.13
21.78
22.79
23.31
23.48
23.38
23.06
22.58
21.96
21.21
20.40
19.55
18.71
17.87
16.93
15.72
14.03
11.71
8.70
5.13
1.26
-2.55
-6.01
-8.95
-11.47
-13.85
-16.49
-19.69
-23.52
-27.67
-31.59
-34.56
-35.90
-35.18
-32.31
-27.53
-21.32
-14.37
-7.37
-0.93
4.52
8.77
11.83
13.85
15.09
15.87
16.45
16.99
17.55
18.06
18.36
18.35
17.95
17.19
16.17
14.97
13.64
12.16
10.46
8.47
6.21
3.78
1.32
-1.02
-3.15
-5.11
-7.05
-9.17
-11.70
-14.87
-18.76
-23.36
-28.36
-33.20
-37.03
-38.93
-38.17
-34.48
-28.21
-20.32
-12.09
-4.65
1.30
5.59
8.50
10.38
11.50
11.91
11.54
10.40
8.68
6.67
4.68
2.82
1.04
-0.80
-2.82
-5.02
-7.31
-9.62
-11.95
-14.41
-17.25
-20.72
-24.94
-29.90
-35.38
-41.07
-46.67
-52.09
-57.46
-63.12
-69.49
-76.86
-85.19
-93.98
-102.15
-108.27
-110.75
-108.41
-100.88
-88.88
-74.08
-58.60
-44.37
-32.50
-23.18
-15.96
-10.20
-5.54
-2.06
-0.03
0.33
-0.81
-2.98
-5.60
-8.34
-11.24
-14.68
-19.10
-24.71
-31.36
-38.58
-45.80
-52.59
-58.70
-64.01
-68.23
-70.84
-71.07
-68.28
-62.21
-53.27
-42.48
-31.23
-20.89
-12.58
-6.95
-4.19
-3.99
-5.61
-7.80
-9.01
-7.65
-2.56
6.51
18.72
32.39
45.56
56.67
64.99
70.69
74.51
77.24
79.35
80.90
81.72
81.65
80.80
79.53
78.22
77.17
76.40
75.73
74.84
73.43
71.30
68.37
64.62
60.03
54.53
48.07
40.71
32.71
24.47
16.41
8.68
1.06
-7.03
-16.23
-26.72
-37.89
-48.29
-55.98
-59.19
-56.98
-49.58
-38.28
-24.96
-11.42
1.02
11.76
20.71
28.08
34.02
38.64
42.03
44.37
45.96
47.21
48.45
49.78
51.04
51.90
51.96
50.93
48.79
45.76
42.20
38.44
34.63
30.69
26.35
21.38
15.65
9.26
2.43
-4.69
-12.09
-19.95
-28.44
-37.46
-46.39
-54.05
-58.95
-59.72
-55.68
-47.06
-35.05
-21.38
-7.73
4.71
15.51
24.78
32.87
39.94
45.92
50.61
53.96
56.24
57.96
59.64
61.57
63.68
65.69
67.34
68.52
69.37
70.07
70.67
70.98
70.66
69.38
67.03
63.80
60.10
56.33
52.71
49.20
45.56
41.38
36.36
30.39
23.83
17.51
12.64
10.53
12.18
17.84
26.96
38.24
50.16
61.34
70.94
78.67
84.66
89.17
92.49
94.79
96.22
96.91
97.02
96.69
96.05
95.06
93.64
91.64
89.03
85.91
82.58
79.44
76.78
74.66
72.82
70.84
68.24
64.70
60.06
54.32
47.59
40.01
31.77
23.04
13.91
4.36
-5.75
-16.53
-27.77
-38.79
-48.45
-55.47
-58.85
-58.33
-54.49
-48.55
-41.90
-35.69
-30.52
-26.49
-23.37
-20.94
-19.09
-17.88
-17.46
-17.91
-19.21
-21.12
-23.35
-25.52
-27.32
-28.59
-29.33
-29.69
-29.88
-30.06
-30.33
-30.72
-31.26
-32.06
-33.24
-34.92
-37.07
-39.56
-42.14
-44.69
-47.25
-50.03
-53.34
-57.33
-61.80
-66.09
-69.19
-70.03
-67.88
-62.63
-54.90
-45.82
-36.65
-28.43
-21.63
-16.25
-12.00
-8.61
-6.01
-4.34
-3.77
-4.28
-5.59
-7.17
-8.54
-9.49
-10.14
-10.92
-12.23
-14.31
-17.07
-20.14
-23.09
-25.49
-27.09
-27.74
-27.43
-26.31
-24.71
-23.16
-22.38
-23.10
-25.77
-30.38
-36.28
-42.29
-46.94
-48.93
-47.55
-42.83
-35.60
-27.12
-18.64
-11.00
-4.54
0.87
5.52
9.67
13.43
16.82
19.79
22.36
24.53
26.25
27.48
28.15
28.27
27.91
27.23
26.41
25.57
24.81
24.13
23.43
22.57
21.35
19.60
17.24
14.25
10.72
6.67
2.09
-3.07
-8.76
-14.63
-19.98
-23.80
-25.16
-23.56
-19.20
-12.97
-6.09
0.27
5.49
9.48
12.60
15.22
17.54
19.49
20.89
21.65
21.86
21.76
21.52
21.15
20.52
19.46
17.93
16.09
14.22
12.53
11.08
9.67
8.06
5.97
3.33
0.23
-3.06
-6.27
-9.19
-11.79
-14.27
-16.99
-20.33
-24.53
-29.56
-34.94
-39.84
-43.28
-44.35
-42.53
-37.82
-30.76
-22.29
-13.46
-5.21
1.86
7.52
11.87
15.10
17.41
18.91
19.71
20.00
20.07
20.23
20.68
21.35
21.90
21.91
21.15
19.67
17.86
16.16
14.83
13.80
12.68
11.07
8.73
5.76
2.48
-0.74
-3.66
-6.25
-8.60
-10.85
-13.15
-15.65
-18.61
-22.23
-26.49
-30.98
-34.79
-36.79
-36.03
-32.13
-25.52
-17.26
-8.67
-0.83
5.72
10.97
15.21
18.75
21.70
24.04
25.74
26.92
27.85
28.86
30.16
31.65
32.99
33.71
33.44
32.08
29.88
27.22
24.46
21.70
18.74
15.26
11.07
6.24
1.18
-3.64
-7.81
-11.22
-14.02
-16.50
-18.95
-21.57
-24.53
-27.90
-31.70
-35.72
-39.44
-42.06
-42.70
-40.68
-35.93
-29.02
-21.09
-13.40
-7.02
-2.45
0.34
1.78
2.40
2.61
2.60
2.45
2.16
1.82
1.60
1.61
1.91
2.41
2.91
3.22
3.21
2.83
2.12
1.16
0.02
-1.26
-2.66
-4.19
-5.82
-7.50
-9.17
-10.82
-12.51
-14.40
-16.74
-19.65
-23.11
-26.77
-30.02
-32.14
-32.48
-30.66
-26.79
-21.41
-15.30
-9.28
-3.92
0.50
4.03
6.81
8.94
10.38
11.04
10.86
9.99
8.73
7.46
6.48
5.89
5.50
5.08
4.40
3.42
2.26
1.03
-0.25
-1.70
-3.51
-5.79
-8.46
-11.22
-13.72
-15.73
-17.22
-18.47
-19.89
-21.84
-24.54
-27.83
-31.28
-34.22
-35.90
-35.69
-33.28
-28.74
-22.57
-15.48
-8.24
-1.52
4.22
8.79
12.18
14.53
15.99
16.70
16.83
16.54
16.04
15.46
14.89
14.24
13.42
12.32
10.96
9.52
8.18
7.12
6.30
5.48
4.30
2.45
-0.19
-3.49
-7.06
-10.48
-13.38
-15.67
-17.53
-19.35
-21.52
-24.30
-27.63
-31.22
-34.51
-36.89
-37.77
-36.72
-33.57
-28.48
-21.93
-14.65
-7.45
-0.97
4.44
8.73
12.14
14.90
17.16
18.89
20.01
20.46
20.35
19.97
19.64
19.55
19.66
19.69
19.31
18.28
16.66
14.71
12.83
11.27
10.06
8.97
7.68
5.90
3.61
1.01
-1.57
-3.87
-5.85
-7.67
-9.68
-12.15
-15.22
-18.83
-22.76
-26.66
-30.08
-32.54
-33.49
-32.48
-29.34
-24.29
-17.94
-11.15
-4.73
0.80
5.25
8.76
11.52
13.65
15.19
16.02
16.12
15.56
14.58
13.47
12.52
11.89
11.57
11.43
11.24
10.80
10.00
8.83
7.42
5.96
4.58
3.29
1.93
0.20
-2.14
-5.13
-8.53
-11.81
-14.46
-16.26
-17.41
-18.41
-19.81
-21.93
-24.73
-27.84
-30.75
-32.97
-34.07
-33.74
-31.77
-28.14
-23.11
-17.23
-11.19
-5.61
-0.85
3.03
6.13
8.61
10.53
11.91
12.80
13.29
13.58
13.79
13.98
14.11
14.12
13.94
13.58
13.00
12.19
11.10
9.72
8.11
6.36
4.59
2.86
1.16
-0.51
-2.21
-3.97
-5.82
-7.70
-9.56
-11.32
-13.02
-14.78
-16.85
-19.44
-22.52
-25.66
-28.07
-28.87
-27.38
-23.55
-17.91
-11.44
-5.16
0.19
4.31
7.28
9.30
10.56
11.15
11.11
10.62
9.97
9.53
9.61
10.24
11.18
12.04
12.41
12.05
10.96
9.35
7.48
5.55
3.63
1.70
-0.33
-2.47
-4.66
-6.78
-8.72
-10.47
-12.18
-14.07
-16.45
-19.48
-23.16
-27.18
-30.95
-33.72
-34.75
-33.56
-30.03
-24.53
-17.75
-10.53
-3.62
2.51
7.65
11.82
15.15
17.77
19.73
21.07
21.81
22.01
21.80
21.33
20.79
20.28
19.82
19.32
18.60
17.53
16.04
14.25
12.31
10.36
8.45
6.47
4.28
1.79
-1.00
-3.89
-6.69
-9.28
-11.64
-13.93
-16.37
-19.17
-22.47
-26.29
-30.50
-34.73
-38.33
-40.50
-40.45
-37.69
-32.30
-24.97
-16.78
-8.88
-2.04
3.45
7.77
11.25
14.17
16.56
18.30
19.34
19.73
19.70
19.57
19.53
19.61
19.71
19.65
19.30
18.60
17.55
16.25
14.85
13.47
12.21
11.04
9.86
8.46
6.67
4.42
1.84
-0.83
-3.32
-5.50
-7.38
-9.21
-11.34
-14.08
-17.59
-21.85
-26.56
-31.21
-35.04
-37.21
-36.94
-33.81
-27.89
-19.89
-10.91
-2.13
5.58
11.85
16.79
20.74
23.98
26.55
28.30
29.09
28.98
28.27
27.42
26.73
26.33
26.03
25.58
24.74
23.47
21.87
20.09
18.27
16.44
14.63
12.85
11.10
9.36
7.52
5.43
2.94
0.01
-3.21
-6.45
-9.42
-12.00
-14.29
-16.60
-19.24
-22.39
-26.01
-29.75
-33.10
-35.42
-36.09
-34.67
-31.02
-25.35
-18.26
-10.58
-3.15
3.36
8.65
12.70
15.65
17.69
18.94
19.50
19.53
19.29
19.05
19.00
19.13
19.24
19.03
18.30
17.06
15.46
13.83
12.38
11.13
9.97
8.63
6.93
4.81
2.36
-0.23
-2.71
-4.90
-6.70
-8.19
-9.54
-11.08
-13.15
-16.03
-19.73
-24.02
-28.35
-31.97
-34.05
-33.96
-31.37
-26.46
-19.80
-12.25
-4.74
2.04
7.66
12.02
15.16
17.16
18.12
18.15
17.46
16.43
15.41
14.71
14.38
14.34
14.33
14.15
13.66
12.87
11.84
10.64
9.31
7.79
6.01
3.84
1.25
-1.73
-4.91
-8.02
-10.74
-12.88
-14.48
-15.90
-17.73
-20.49
-24.46
-29.34
-34.33
-38.24
-39.94
-38.74
-34.62
-28.22
-20.58
-12.76
-5.53
0.74
6.00
10.38
14.00
16.92
19.16
20.71
21.58
21.82
21.56
20.98
20.37
19.99
19.96
20.14
20.15
19.56
18.10
15.91
13.35
10.93
8.94
7.33
5.73
3.70
1.01
-2.32
-6.00
-9.68
-13.11
-16.20
-19.03
-21.76
-24.59
-27.74
-31.43
-35.80
-40.77
-45.94
-50.57
-53.72
-54.53
-52.55
-47.89
-41.30
-33.79
-26.39
-19.74
-13.99
-8.92
-4.16
0.50
5.02
9.15
12.63
15.34
17.34
18.84
20.06
21.15
22.12
22.90
23.34
23.34
22.74
21.48
19.53
17.00
14.18
11.47
9.21
7.56
6.40
5.34
3.93
1.92
-0.65
-3.44
-6.04
-8.26
-10.26
-12.53
-15.60
-19.81
-25.14
-31.17
-37.20
-42.39
-45.78
-46.50
-43.92
-37.93
-29.09
-18.61
-7.95
1.58
9.26
15.08
19.49
23.06
26.17
28.90
31.12
32.73
33.78
34.47
35.07
35.73
36.42
36.95
37.10
36.67
35.66
34.15
32.35
30.45
28.56
26.72
24.91
23.06
21.05
18.78
16.12
13.03
9.62
6.15
2.82
-0.23
-3.07
-5.99
-9.25
-13.04
-17.30
-21.79
-26.16
-29.98
-32.72
-33.78
-32.58
-28.74
-22.36
-14.08
-4.98
3.74
11.15
16.81
20.80
23.53
25.47
26.91
27.95
28.55
28.67
28.36
27.85
27.41
27.24
27.38
27.64
27.67
27.13
25.86
23.91
21.56
19.13
16.83
14.70
12.58
10.23
7.44
4.20
0.65
-2.89
-6.05
-8.57
-10.45
-11.96
-13.59
-15.87
-19.15
-23.44
-28.34
-33.14
-37.00
-39.11
-38.91
-36.19
-31.13
-24.24
-16.31
-8.19
-0.66
5.74
10.73
14.31
16.60
17.79
18.03
17.53
16.53
15.38
14.43
13.94
13.94
14.20
14.34
14.00
13.02
11.49
9.71
7.94
6.33
4.77
3.02
0.86
-1.81
-4.89
-8.16
-11.37
-14.39
-17.17
-19.81
-22.44
-25.28
-28.55
-32.37
-36.73
-41.31
-45.50
-48.45
-49.29
-47.44
-42.81
-35.90
-27.67
-19.21
-11.42
-4.80
0.57
4.88
8.35
11.08
13.06
14.26
14.72
14.70
14.56
14.63
15.04
15.69
16.31
16.60
16.42
15.76
14.78
13.63
12.42
11.11
9.55
7.62
5.19
2.24
-1.17
-4.88
-8.69
-12.39
-15.84
-18.96
-21.81
-24.55
-27.40
-30.68
-34.60
-39.22
-44.18
-48.66
-51.49
-51.50
-47.99
-41.05
-31.60
-21.05
-10.78
-1.66
6.12
12.85
18.88
24.35
29.09
32.77
35.21
36.57
37.31
37.92
38.73
39.72
40.57
40.90
40.47
39.35
37.82
36.25
34.92
33.90
33.04
32.04
30.60
28.52
25.80
22.56
19.05
15.52
12.08
8.70
5.28
1.64
-2.33
-6.75
-11.69
-17.17
-23.04
-28.83
-33.68
-36.47
-36.20
-32.39
-25.39
-16.27
-6.44
2.83
10.78
17.22
22.24
26.01
28.58
29.94
30.29
29.98
29.54
29.39
29.66
30.12
30.35
29.97
28.90
27.36
25.76
24.43
23.48
22.68
21.61
19.87
17.22
13.71
9.71
5.70
2.09
-0.92
-3.44
-5.74
-8.21
-11.16
-14.85
-19.33
-24.46
-29.78
-34.51
-37.63
-38.12
-35.34
-29.30
-20.76
-11.03
-1.54
6.54
12.63
16.74
19.28
20.71
21.38
21.48
21.09
20.34
19.47
18.72
18.23
17.95
17.63
16.97
15.79
14.13
12.17
10.12
8.03
5.83
3.39
0.67
-2.24
-5.14
-7.91
-10.58
-13.33
-16.43
-20.05
-24.26
-28.90
-33.65
-37.94
-41.01
-41.97
-40.05
-34.91
-26.87
-16.98
-6.70
2.61
10.09
15.64
19.81
23.38
26.96
30.72
34.45
37.76
40.47
42.59
44.38
46.09
47.81
49.39
50.52
50.92
50.37
48.83
46.25
42.62
37.88
32.01
25.15
17.62
9.91
2.60
-3.84
-9.18
-13.56
-17.48
-21.53
-26.11
-31.12
-35.80
-38.93
-39.28
-36.18
-29.81
-21.26
-12.08
-3.79
2.61
6.79
8.98
9.60
9.08
7.70
5.65
3.15
0.48
-2.01
-4.01
-5.35
-6.06
-6.31
-6.38
-6.51
-6.92
-7.77
-9.16
-11.05
-13.32
-15.73
-18.01
-19.94
-21.47
-22.71
-23.94
-25.49
-27.66
-30.64
-34.30
-38.25
-41.76
-43.90
-43.85
-41.18
-36.01
-29.05
-21.36
-13.99
-7.56
-2.26
2.16
6.09
9.80
13.31
16.43
18.88
20.47
21.20
21.24
20.85
20.23
19.45
18.45
17.16
15.53
13.63
11.57
9.41
7.09
4.50
1.48
-1.95
-5.61
-9.18
-12.37
-15.10
-17.68
-20.57
-24.25
-28.81
-33.76
-38.07
-40.47
-39.99
-36.27
-29.78
-21.62
-13.09
-5.25
1.27
6.33
10.05
12.67
14.41
15.48
16.10
16.53
16.96
17.43
17.89
18.12
17.96
17.33
16.31
15.04
13.65
12.17
10.56
8.73
6.60
4.16
1.46
-1.41
-4.37
-7.37
-10.44
-13.68
-17.22
-21.21
-25.67
-30.43
-35.01
-38.63
-40.41
-39.55
-35.67
-29.07
-20.66
-11.75
-3.61
2.93
7.69
11.00
13.41
15.34
16.90
17.95
18.31
18.02
17.29
16.49
15.91
15.63
15.50
15.26
14.64
13.54
11.98
10.05
7.85
5.48
3.02
0.57
-1.80
-4.01
-6.11
-8.29
-10.90
-14.28
-18.59
-23.69
-28.99
-33.58
-36.40
-36.60
-33.81
-28.24
-20.65
-12.10
-3.65
3.88
10.06
14.81
18.28
20.66
22.09
22.63
22.31
21.23
19.61
17.75
15.99
14.58
13.58
12.84
12.07
10.93
9.22
6.94
4.30
1.63
-0.82
-2.90
-4.71
-6.54
-8.72
-11.56
-15.20
-19.59
-24.44
-29.19
-33.08
-35.21
-34.81
-31.49
-25.48
-17.60
-9.08
-1.13
5.47
10.48
14.12
16.79
18.78
20.11
20.71
20.57
19.87
18.89
17.92
17.02
16.10
14.92
13.34
11.31
8.97
6.47
3.90
1.22
-1.67
-4.88
-8.40
-12.13
-15.87
-19.48
-22.88
-26.23
-29.80
-33.94
-38.82
-44.21
-49.46
-53.55
-55.36
-54.11
-49.65
-42.49
-33.68
-24.45
-15.82
-8.35
-2.14
3.08
7.58
11.56
15.03
17.85
19.91
21.22
21.92
22.23
22.37
22.46
22.49
22.34
21.80
20.67
18.84
16.30
13.17
9.65
5.97
2.32
-1.17
-4.50
-7.76
-11.12
-14.79
-18.98
-23.77
-29.05
-34.38
-39.02
-41.99
-42.39
-39.68
-33.89
-25.75
-16.39
-7.08
1.16
7.82
12.92
16.81
19.90
22.47
24.54
26.00
26.72
26.75
26.33
25.82
25.51
25.45
25.46
25.20
24.41
23.03
21.22
19.24
17.27
15.27
13.05
10.45
7.44
4.16
0.86
-2.30
-5.39
-8.75
-12.84
-18.04
-24.29
-31.07
-37.30
-41.59
-42.65
-39.75
-32.96
-23.20
-11.98
-0.93
8.75
16.44
22.20
26.42
29.63
32.19
34.28
35.95
37.22
38.13
38.79
39.25
39.50
39.36
38.61
37.09
34.77
31.93
28.93
26.12
23.61
21.25
18.69
15.64
12.00
7.97
3.91
0.15
-3.19
-6.26
-9.45
-13.22
-17.90
-23.57
-29.97
-36.44
-42.00
-45.54
-46.11
-43.25
-37.17
-28.70
-19.05
-9.44
-0.85
6.20
11.56
15.31
17.62
18.73
18.93
18.60
18.20
18.15
18.66
19.67
20.89
21.88
22.28
21.93
20.89
19.46
17.90
16.39
14.84
13.03
10.73
7.80
4.36
0.69
-2.89
-6.13
-9.01
-11.75
-14.71
-18.29
-22.70
-27.88
-33.31
-38.07
-40.97
-40.99
-37.55
-30.89
-21.99
-12.27
-3.15
4.40
10.03
13.93
16.56
18.32
19.43
19.90
19.73
19.02
18.05
17.21
16.83
16.98
17.45
17.80
17.53
16.32
14.18
11.39
8.39
5.52
2.92
0.47
-2.06
-4.88
-8.08
-11.56
-15.26
-19.25
-23.75
-29.01
-34.98
-41.09
-46.08
-48.47
-47.00
-41.34
-32.30
-21.55
-11.03
-2.14
4.56
9.37
12.95
15.83
18.14
19.75
20.50
20.46
20.00
19.54
19.36
19.45
19.63
19.60
19.18
18.32
17.01
15.25
13.04
10.36
7.26
3.84
0.24
-3.44
-7.18
-10.99
-14.93
-19.11
-23.69
-28.78
-34.40
-40.24
-45.62
-49.48
-50.74
-48.65
-43.12
-34.87
-25.18
-15.49
-6.92
0.01
5.40
9.72
13.44
16.81
19.77
22.08
23.57
24.26
24.38
24.27
24.12
23.96
23.67
23.10
22.25
21.17
19.90
18.39
16.46
13.90
10.68
7.02
3.27
-0.20
-3.26
-6.10
-9.12
-12.77
-17.35
-22.80
-28.69
-34.23
-38.42
-40.25
-39.00
-34.49
-27.24
-18.28
-8.90
-0.26
6.93
12.43
16.38
19.09
20.83
21.90
22.56
23.13
23.85
24.85
25.96
26.83
27.06
26.44
25.00
23.10
21.13
19.36
17.80
16.22
14.30
11.80
8.73
5.34
2.00
-1.04
-3.76
-6.42
-9.41
-13.11
-17.63
-22.82
-28.16
-32.88
-36.11
-36.97
-34.88
-29.68
-21.83
-12.32
-2.40
6.72
14.24
19.83
23.61
25.93
27.16
27.60
27.51
27.10
26.63
26.30
26.16
26.12
25.94
25.44
24.56
23.38
22.05
20.67
19.25
17.64
15.66
13.22
10.35
7.22
4.09
1.14
-1.60
-4.26
-7.10
-10.41
-14.39
-19.10
-24.32
-29.57
-34.06
-36.83
-37.00
-34.06
-28.10
-19.89
-10.65
-1.72
5.89
11.74
15.91
18.81
20.85
22.26
23.09
23.35
23.15
22.70
22.24
21.90
21.65
21.28
20.57
19.34
17.60
15.46
13.09
10.59
8.00
5.28
2.41
-0.57
-3.57
-6.42
-9.00
-11.32
-13.58
-16.12
-19.33
-23.48
-28.43
-33.54
-37.70
-39.63
-38.37
-33.59
-25.86
-16.44
-6.88
1.50
7.93
12.33
15.05
16.57
17.24
17.20
16.51
15.29
13.82
12.43
11.43
10.89
10.71
10.61
10.33
9.66
8.46
6.66
4.23
1.23
-2.18
-5.75
-9.19
-12.35
-15.23
-18.00
-20.99
-24.47
-28.65
-33.53
-38.79
-43.76
-47.51
-49.03
-47.64
-43.22
-36.38
-28.31
-20.36
-13.67
-8.77
-5.55
-3.44
-1.72
0.20
2.54
5.22
8.00
10.67
13.18
15.63
18.08
20.44
22.38
23.45
23.33
21.93
19.49
16.47
13.29
10.26
7.47
4.88
2.35
-0.30
-3.27
-6.79
-11.09
-16.28
-22.21
-28.41
-34.03
-38.01
-39.37
-37.49
-32.38
-24.71
-15.65
-6.44
1.89
8.82
14.31
18.57
21.86
24.31
25.98
26.95
27.33
27.28
26.93
26.30
25.39
24.23
22.93
21.60
20.31
18.95
17.26
15.00
12.06
8.56
4.83
1.19
-2.14
-5.17
-8.09
-11.19
-14.70
-18.78
-23.41
-28.35
-33.16
-37.15
-39.52
-39.49
-36.63
-30.95
-23.05
-13.92
-4.70
3.61
10.45
15.63
19.30
21.78
23.37
24.28
24.67
24.70
24.50
24.22
23.95
23.71
23.40
22.91
22.17
21.13
19.84
18.31
16.52
14.39
11.86
8.92
5.72
2.48
-0.60
-3.42
-6.07
-8.76
-11.78
-15.39
-19.69
-24.61
-29.82
-34.71
-38.48
-40.26
-39.35
-35.52
-29.12
-21.01
-12.34
-4.18
2.79
8.42
12.88
16.51
19.55
22.07
23.98
25.22
25.84
26.03
26.01
25.97
25.89
25.65
25.08
24.07
22.69
21.12
19.50
17.86
16.05
13.82
10.99
7.56
3.75
-0.09
-3.62
-6.73
-9.53
-12.37
-15.70
-19.89
-25.04
-30.84
-36.53
-41.06
-43.32
-42.53
-38.48
-31.73
-23.35
-14.58
-6.42
0.63
6.57
11.62
15.93
19.42
21.85
23.04
23.12
22.56
21.97
21.81
22.15
22.65
22.80
22.23
20.86
18.99
17.00
15.20
13.63
12.09
10.40
8.47
6.44
4.56
3.02
1.82
0.71
-0.75
-2.96
-6.21
-10.46
-15.35
-20.26
-24.31
-26.61
-26.44
-23.44
-17.78
-10.19
-1.72
6.41
13.24
18.20
21.22
22.57
22.74
22.22
21.42
20.61
19.92
19.38
18.95
18.54
18.06
17.44
16.63
15.55
14.12
12.26
9.90
7.10
3.97
0.71
-2.47
-5.47
-8.28
-11.02
-13.83
-16.87
-20.18
-23.77
-27.47
-30.92
-33.52
-34.55
-33.33
-29.49
-23.23
-15.30
-6.87
0.91
7.21
11.74
14.69
16.47
17.43
17.83
17.79
17.41
16.85
16.29
15.86
15.58
15.35
15.02
14.44
13.47
12.00
9.95
7.27
4.04
0.46
-3.23
-6.86
-10.43
-14.01
-17.69
-21.45
-25.20
-28.85
-32.48
-36.34
-40.66
-45.35
-49.80
-52.95
-53.60
-50.97
-44.96
-36.27
-26.11
-15.76
-6.17
2.25
9.43
15.53
20.62
24.65
27.51
29.18
29.86
29.93
29.86
29.94
30.20
30.38
30.11
29.15
27.48
25.40
23.23
21.19
19.23
17.06
14.33
10.87
6.76
2.35
-1.95
-5.86
-9.34
-12.59
-15.95
-19.80
-24.43
-29.90
-35.97
-41.99
-47.05
-50.08
-50.28
-47.37
-41.72
-34.23
-25.98
-17.86
-10.42
-3.86
1.76
6.35
9.75
11.83
12.68
12.60
12.04
11.40
10.89
10.42
9.71
8.45
6.46
3.77
0.61
-2.71
-5.88
-8.75
-11.31
-13.66
-15.87
-17.96
-19.86
-21.49
-22.86
-24.18
-25.71
-27.75
-30.49
-34.00
-38.25
-43.16
-48.56
-54.08
-59.03
-62.42
-63.25
-60.79
-54.90
-46.09
-35.32
-23.63
-11.89
-0.57
10.11
20.02
28.97
36.65
42.77
47.23
50.18
52.01
53.17
54.06
54.91
55.72
56.36
56.58
56.15
54.96
52.99
50.42
47.46
44.26
40.87
37.21
33.18
28.75
24.08
19.42
15.03
10.94
6.93
2.60
-2.46
-8.42
-15.15
-22.22
-28.98
-34.65
-38.44
-39.62
-37.71
-32.68
-24.99
-15.58
-5.61
3.81
11.92
18.32
23.06
26.36
28.55
29.96
30.83
31.34
31.60
31.63
31.45
31.03
30.45
29.71
28.81
27.66
26.07
23.87
21.03
17.64
13.90
10.04
6.18
2.30
-1.72
-6.02
-10.72
-15.89
-21.57
-27.75
-34.27
-40.66
-46.11
-49.57
-49.99
-46.75
-40.00
-30.63
-20.10
-9.85
-0.93
6.26
11.86
16.25
19.71
22.30
23.89
24.41
24.02
23.12
22.21
21.69
21.68
21.94
22.05
21.49
19.89
17.21
13.69
9.77
5.89
2.30
-1.01
-4.33
-8.02
-12.36
-17.48
-23.27
-29.55
-35.98
-42.14
-47.34
-50.71
-51.39
-48.76
-42.82
-34.22
-24.15
-13.90
-4.46
3.72
10.67
16.71
22.02
26.58
30.11
32.29
33.04
32.57
31.37
29.98
28.79
27.91
27.22
26.46
25.37
23.75
21.42
18.30
14.35
9.67
4.51
-0.79
-5.87
-10.54
-14.80
-18.85
-23.03
-27.72
-33.20
-39.50
-46.19
-52.36
-56.72
-57.94
-55.17
-48.37
-38.45
-26.95
-15.49
-5.27
3.24
10.23
16.16
21.45
26.17
30.08
32.82
34.21
34.34
33.59
32.47
31.43
30.65
30.06
29.46
28.61
27.39
25.74
23.69
21.24
18.33
14.91
11.00
6.72
2.26
-2.16
-6.45
-10.71
-15.30
-20.71
-27.40
-35.43
-44.21
-52.44
-58.42
-60.59
-58.09
-51.13
-40.83
-28.82
-16.59
-5.09
5.30
14.64
22.96
30.15
35.93
40.08
42.67
44.12
45.04
45.95
47.06
48.18
48.86
48.71
47.63
45.87
43.87
41.95
40.10
37.96
35.02
30.93
25.69
19.70
13.58
7.85
2.77
-1.75
-6.07
-10.72
-16.17
-22.75
-30.51
-39.14
-47.91
-55.70
-61.20
-63.21
-61.07
-54.87
-45.52
-34.44
-23.14
-12.76
-3.90
3.40
9.29
13.92
17.33
19.50
20.55
20.84
20.89
21.23
22.16
23.62
25.30
26.85
28.02
28.81
29.34
29.68
29.73
29.18
27.66
24.88
20.86
15.96
10.69
5.57
0.88
-3.37
-7.44
-11.76
-16.79
-22.87
-30.03
-37.83
-45.22
-50.76
-52.96
-50.83
-44.31
-34.34
-22.61
-10.89
-0.53
7.86
14.30
19.08
22.51
24.71
25.73
25.69
24.89
23.76
22.74
22.12
21.96
22.05
22.11
21.77
20.79
19.05
16.55
13.41
9.77
5.78
1.60
-2.66
-6.91
-11.14
-15.45
-20.07
-25.30
-31.37
-38.30
-45.75
-52.85
-58.39
-61.02
-59.67
-53.97
-44.49
-32.60
-20.05
-8.49
1.07
8.31
13.55
17.37
20.29
22.61
24.46
25.85
26.82
27.44
27.79
27.89
27.68
27.01
25.76
23.82
21.14
17.75
13.74
9.23
4.38
-0.64
-5.66
-10.50
-15.00
-19.07
-22.80
-26.45
-30.45
-35.27
-41.13
-47.80
-54.44
-59.70
-62.06
-60.37
-54.25
-44.35
-32.17
-19.55
-8.11
1.25
8.50
14.19
19.08
23.64
27.92
31.63
34.42
36.15
37.01
37.29
37.22
36.85
36.02
34.56
32.41
29.70
26.61
23.28
19.76
15.99
11.94
7.59
2.98
-1.85
-6.87
-12.08
-17.46
-23.00
-28.76
-34.83
-41.21
-47.65
-53.46
-57.44
-58.27
-54.93
-47.19
-35.78
-22.26
-8.44
4.17
14.74
23.13
29.65
34.70
38.50
41.10
42.50
42.84
42.37
41.44
40.30
39.08
37.78
36.36
34.85
33.30
31.73
30.05
28.03
25.36
21.84
17.45
12.42
7.09
1.88
-2.92
-7.22
-11.08
-14.80
-18.77
-23.44
-29.10
-35.74
-42.79
-49.13
-53.30
-53.87
-50.05
-41.97
-30.69
-17.82
-4.97
6.72
16.75
25.10
31.91
37.18
40.84
42.82
43.29
42.77
41.90
41.23
40.96
40.95
40.83
40.29
39.21
37.70
35.94
34.04
31.91
29.33
26.04
21.94
17.14
11.94
6.72
1.80
-2.67
-6.82
-10.99
-15.73
-21.53
-28.61
-36.62
-44.58
-50.98
-54.18
-53.01
-47.17
-37.40
-25.26
-12.59
-0.90
8.91
16.63
22.49
26.81
29.81
31.57
32.19
31.86
30.92
29.74
28.58
27.51
26.45
25.29
23.93
22.34
20.46
18.19
15.35
11.78
7.47
2.60
-2.50
-7.54
-12.34
-17.00
-21.81
-27.16
-33.38
-40.58
-48.49
-56.44
-63.38
-68.08
-69.51
-67.13
-61.16
-52.49
-42.43
-32.35
-23.27
-15.81
-10.06
-5.87
-2.89
-0.77
0.81
2.11
3.35
4.70
6.24
8.02
9.93
11.77
13.17
13.74
13.12
11.20
8.19
4.57
0.96
-2.08
-4.31
-5.82
-7.02
-8.58
-11.10
-15.00
-20.21
-26.02
-31.11
-33.85
-32.79
-27.16
-17.31
-4.68
8.57
20.24
28.79
33.75
35.72
35.92
35.66
35.82
36.66
37.89
38.92
39.16
38.11
35.44
31.00
24.89
17.49
9.60
2.17
-3.92
-8.14
-10.53
-11.61
-12.12
-12.79
-14.15
-16.48
-19.89
-24.37
-29.86
-36.15
-42.76
-48.81
-53.09
-54.34
-51.59
-44.60
-34.01
-21.23
-7.95
4.39
15.00
23.75
30.89
36.70
41.24
44.39
46.03
46.30
45.64
44.62
43.75
43.28
43.10
42.89
42.23
40.79
38.41
35.17
31.35
27.29
23.38
19.84
16.74
14.00
11.37
8.56
5.29
1.33
-3.50
-9.14
-15.18
-20.74
-24.53
-25.18
-21.72
-14.04
-2.98
9.90
22.92
34.91
45.37
54.36
62.01
68.18
72.39
74.16
73.45
70.80
67.24
63.78
61.01
58.94
57.14
55.05
52.30
48.73
44.36
39.23
33.40
26.98
20.16
13.24
6.53
0.22
-5.60
-11.00
-16.10
-21.08
-26.13
-31.42
-37.06
-42.98
-48.84
-53.98
-57.53
-58.61
-56.52
-51.02
-42.44
-31.64
-19.85
-8.46
1.29
8.54
12.95
14.71
14.43
12.96
11.12
9.39
7.85
6.20
4.00
1.08
-2.32
-5.52
-7.73
-8.42
-7.52
-5.43
-2.83
-0.47
0.76
-0.10
-4.03
-11.67
-22.86
-36.50
-50.73
-63.62
-73.95
-81.58
-87.23
-91.85
-95.82
-98.79
-99.81
-98.04
-93.23
-85.86
-76.93
-67.40
-57.96
-48.87
-40.16
-31.82
-23.94
-16.75
-10.47
-5.19
-0.77
3.15
7.04
11.41
16.54
22.38
28.47
34.11
38.49
40.90
40.83
37.97
32.07
22.89
10.30
-5.49
-23.59
-42.43
-59.93
-74.20
-84.08
-89.53
-91.49
-91.35
-90.37
-89.15
-87.73
-85.68
-82.58
-78.27
-72.96
-67.07
-61.12
-55.48
-50.33
-45.64
-41.23
-36.96
-32.88
-29.35
-26.89
-25.97
-26.77
-28.99
-32.02
-35.23
-38.41
-41.90
-46.47
-52.98
-61.73
-72.21
-83.11
-92.86
-100.28
-105.27
-109.06
-113.71
-121.08
-131.70
-144.20
-155.65
-162.74
-163.24
-156.88
-145.23
-130.82
-115.94
-101.88
-89.12
-77.70
-67.98
-60.62
-56.14
-54.49
-54.81
-55.85
-56.51
-56.37
-55.70
-55.02
-54.69
-54.58
-54.14
-52.79
-50.41
-47.33
-44.26
-41.82
-40.13
-38.78
-37.10
-34.55
-31.02
-26.81
-22.35
-18.06
-14.13
-10.56
-7.22
-3.72
0.54
6.51
15.07
26.67
40.98
56.93
73.11
88.45
102.73
116.52
130.96
147.23
166.36
188.82
214.28
241.29
267.22
288.72
302.78
307.75
304.03
293.80
279.88
264.63
249.08
233.16
216.51
199.23
182.18
166.44
152.55
139.95
127.07
112.00
93.35
70.75
44.89
17.10
-11.16
-38.74
-64.92
-89.35
-111.94
-132.84
-152.37
-170.86
-188.29
-203.93
-216.18
-222.82
-221.78
-211.87
-193.20
-167.00
-134.93
-98.50
-58.99
-17.97
22.15
58.06
86.40
105.02
114.04
115.84
114.00
111.78
110.93
111.53
112.66
113.37
113.34
112.85
112.35
111.93
111.22
109.55
106.33
101.31
94.61
86.74
78.41
70.38
63.29
57.51
53.06
49.65
46.90
44.56
42.55
40.96
39.85
39.07
38.25
36.96
34.95
32.22
29.06
25.82
22.83
20.27
18.16
16.50
15.26
14.42
13.97
13.91
14.28
15.13
16.51
18.33
20.37
22.24
23.53
23.92
23.32
21.92
20.08
18.27
16.86
16.16
16.26
17.11
18.46
19.93
21.08
21.54
21.04
19.45
16.84
13.44
9.67
6.08
3.28
1.72
1.54
2.48
3.85
4.83
4.62
2.73
-0.96
-6.24
-12.65
-19.60
-26.42
-32.44
-37.06
-39.90
-40.95
-40.56
-39.44
-38.39
-38.02
-38.46
-39.39
-40.08
-39.79
-38.03
-34.70
-30.09
-24.71
-19.12
-13.81
-9.14
-5.45
-2.99
-1.95
-2.26
-3.59
-5.35
-6.79
-7.20
-6.11
-3.40
0.67
5.50
10.31
14.35
17.17
18.71
19.31
19.52
19.87
20.60
21.63
22.56
22.92
22.35
20.72
18.21
15.18
12.03
9.16
6.84
5.28
4.62
4.94
6.19
8.15
10.39
12.43
13.91
14.70
15.02
15.26
15.74
16.58
17.75
19.11
20.66
22.53
24.75
27.10
29.06
29.87
28.95
26.19
22.06
17.38
13.04
9.63
7.41
6.33
6.28
7.08
8.45
9.93
10.98
11.08
10.00
7.96
5.51
3.34
2.00
1.73
2.44
3.84
5.56
7.18
8.35
8.82
8.46
7.37
5.83
4.24
2.94
2.11
1.70
1.53
1.37
1.03
0.40
-0.56
-1.86
-3.56
-5.72
-8.33
-11.25
-14.26
-17.04
-19.30
-20.85
-21.62
-21.71
-21.35
-20.87
-20.63
-20.89
-21.68
-22.74
-23.62
-23.81
-22.99
-21.22
-18.86
-16.37
-14.09
-12.09
-10.27
-8.45
-6.56
-4.69
-3.02
-1.74
-0.99
-0.81
-1.15
-1.92
-2.90
-3.88
-4.71
-5.34
-5.92
-6.67
-7.78
-9.29
-11.01
-12.51
-13.19
-12.40
-9.78
-5.39
0.15
5.84
10.72
14.21
16.31
17.58
18.66
19.95
21.41
22.65
23.26
23.06
22.18
20.89
19.38
17.61
15.48
12.87
9.79
6.37
2.84
-0.47
-3.23
-5.16
-6.13
-6.26
-5.93
-5.63
-5.84
-6.75
-8.24
-10.04
-11.86
-13.55
-15.16
-16.76
-18.41
-20.06
-21.59
-22.86
-23.75
-24.14
-23.86
-22.86
-21.21
-19.16
-16.97
-14.85
-12.82
-10.74
-8.53
-6.23
-4.06
-2.32
-1.21
-0.70
-0.62
-0.76
-1.09
-1.66
-2.58
-3.83
-5.27
-6.62
-7.67
-8.37
-8.82
-9.18
-9.56
-9.93
-10.20
-10.33
-10.41
-10.66
-11.28
-12.21
-13.12
-13.50
-12.89
-11.15
-8.50
-5.42
-2.42
0.16
2.25
3.92
5.31
6.54
7.70
8.83
9.88
10.67
10.92
10.38
9.04
7.18
5.30
3.79
2.77
1.97
0.98
-0.47
-2.31
-4.15
-5.52
-6.12
-6.07
-5.76
-5.70
-6.23
-7.41
-8.96
-10.34
-11.06
-10.69
-9.14
-6.63
-3.63
-0.62
2.00
4.05
5.53
6.53
7.24
7.88
8.73
10.08
12.12
14.80
17.80
20.59
22.62
23.61
23.58
22.85
21.82
20.78
19.79
18.71
17.27
15.28
12.71
9.66
6.34
2.96
-0.31
-3.36
-6.12
-8.58
-10.86
-13.25
-16.10
-19.72
-24.07
-28.73
-32.92
-35.89
-37.24
-37.18
-36.38
-35.66
-35.51
-35.88
-36.23
-35.91
-34.55
-32.27
-29.58
-27.11
-25.24
-23.95
-22.89
-21.70
-20.12
-18.16
-16.02
-13.94
-12.05
-10.58
-9.92
-10.72
-13.74
-19.36
-27.28
-36.32
-44.69
-50.56
-52.65
-50.60
-44.98
-36.97
-27.94
-19.11
-11.36
-5.19
-0.73
2.18
3.90
4.87
5.42
5.74
5.84
5.68
5.28
4.70
4.06
3.45
2.89
2.24
1.33
-0.03
-2.00
-4.68
-8.04
-11.84
-15.67
-18.88
-20.72
-20.56
-18.06
-13.35
-6.98
0.19
7.21
13.32
18.07
21.37
23.45
24.64
25.22
25.34
25.01
24.24
23.08
21.69
20.30
19.05
17.93
16.73
15.19
13.18
10.78
8.29
6.10
4.46
3.37
2.58
1.69
0.38
-1.43
-3.59
-5.69
-7.33
-8.17
-8.09
-7.15
-5.44
-3.04
0.09
4.02
8.74
14.04
19.42
24.19
27.61
29.17
28.75
26.70
23.62
20.19
16.90
13.90
11.10
8.32
5.44
2.53
-0.29
-2.98
-5.66
-8.68
-12.36
-16.93
-22.32
-28.18
-33.85
-38.53
-41.42
-41.88
-39.66
-34.96
-28.39
-20.80
-13.06
-5.81
0.57
5.92
10.16
13.23
15.03
15.57
15.11
14.14
13.36
13.44
14.80
17.40
20.70
23.80
25.80
26.05
24.39
21.19
17.05
12.65
8.45
4.60
1.00
-2.57
-6.31
-10.32
-14.47
-18.47
-21.89
-24.23
-25.13
-24.40
-22.14
-18.72
-14.71
-10.68
-7.12
-4.20
-1.74
0.71
3.85
8.31
14.48
22.30
31.22
40.24
48.18
53.95
56.87
56.89
54.53
50.75
46.52
42.53
39.03
35.82
32.51
28.77
24.51
19.98
15.68
12.28
10.41
10.53
12.74
16.67
21.55
26.36
30.11
32.12
32.19
30.55
27.72
24.33
20.92
17.86
15.40
13.63
12.51
11.92
11.64
11.44
11.08
10.45
9.54
8.48
7.45
6.64
6.02
5.37
4.30
2.41
-0.46
-4.09
-7.91
-11.24
-13.58
-14.84
-15.38
-15.78
-16.58
-18.01
-20.02
-22.32
-24.61
-26.62
-28.15
-29.01
-28.98
-27.93
-25.87
-23.04
-19.86
-16.75
-14.05
-11.91
-10.27
-8.98
-7.86
-6.82
-5.83
-4.95
-4.17
-3.45
-2.73
-1.97
-1.27
-0.83
-0.86
-1.47
-2.53
-3.71
-4.64
-5.09
-5.19
-5.34
-6.12
-7.97
-11.01
-14.98
-19.30
-23.26
-26.20
-27.68
-27.57
-26.03
-23.44
-20.26
-16.96
-13.91
-11.25
-8.96
-6.86
-4.75
-2.57
-0.51
0.91
0.94
-1.18
-5.85
-12.87
-21.36
-29.99
-37.41
-42.69
-45.56
-46.37
-45.81
-44.54
-43.00
-41.40
-39.88
-38.61
-37.86
-37.83
-38.59
-39.86
-41.16
-41.87
-41.50
-39.76
-36.67
-32.47
-27.52
-22.23
-16.92
-11.79
-6.88
-2.21
2.21
6.27
9.72
12.28
13.74
14.14
13.82
13.34
13.32
14.13
15.77
17.84
19.73
20.90
20.97
19.78
17.41
13.97
9.74
5.22
1.14
-1.56
-1.99
0.30
5.16
11.77
18.95
25.53
30.71
34.26
36.37
37.48
38.01
38.19
38.07
37.58
36.62
35.13
33.05
30.32
26.85
22.68
18.01
13.35
9.41
6.96
6.58
8.46
12.36
17.67
23.64
29.57
34.93
39.41
42.81
45.01
45.94
45.55
43.91
41.18
37.65
33.62
29.36
25.10
20.96
17.04
13.42
10.11
7.04
4.06
1.02
-2.20
-5.55
-8.78
-11.51
-13.38
-14.17
-13.88
-12.74
-11.10
-9.30
-7.67
-6.44
-5.71
-5.51
-5.72
-6.18
-6.77
-7.40
-8.03
-8.68
-9.32
-9.89
-10.34
-10.64
-10.84
-11.04
-11.29
-11.60
-11.88
-12.04
-12.07
-12.07
-12.22
-12.70
-13.66
-15.13
-17.02
-19.15
-21.26
-23.11
-24.57
-25.65
-26.56
-27.58
-28.96
-30.75
-32.70
-34.34
-35.13
-34.69
-32.95
-30.17
-26.87
-23.52
-20.47
-17.79
-15.42
-13.22
-11.19
-9.42
-8.06
-7.21
-6.83
-6.75
-6.78
-6.77
-6.64
-6.39
-6.02
-5.53
-4.95
-4.42
-4.20
-4.59
-5.90
-8.29
-11.64
-15.63
-19.75
-23.45
-26.32
-28.25
-29.33
-29.89
-30.30
-30.87
-31.75
-32.90
-34.13
-35.12
-35.47
-34.78
-32.82
-29.61
-25.42
-20.70
-15.89
-11.29
-6.93
-2.73
1.36
5.21
8.53
10.95
12.28
12.57
12.15
11.45
10.85
10.53
10.46
10.50
10.50
10.37
10.06
9.59
8.92
8.04
6.91
5.55
4.03
2.44
0.79
-0.98
-3.01
-5.44
-8.30
-11.47
-14.64
-17.36
-19.15
-19.58
-18.45
-15.80
-11.94
-7.36
-2.61
1.85
5.75
8.98
11.60
13.65
15.16
16.15
16.62
16.62
16.28
15.71
15.06
14.43
13.87
13.35
12.74
11.82
10.44
8.56
6.30
3.96
1.83
0.07
-1.37
-2.72
-4.31
-6.34
-8.92
-12.01
-15.51
-19.22
-22.81
-25.81
-27.64
-27.78
-25.97
-22.33
-17.39
-11.81
-6.31
-1.33
2.96
6.65
9.92
12.91
15.61
17.89
19.57
20.56
20.89
20.69
20.14
19.42
18.66
17.95
17.37
16.90
16.41
15.60
14.11
11.69
8.39
4.61
0.99
-1.89
-3.82
-5.04
-6.09
-7.58
-9.88
-13.03
-16.71
-20.44
-23.65
-25.80
-26.40
-25.11
-21.85
-16.88
-10.77
-4.26
1.97
7.45
11.98
15.58
18.37
20.49
22.05
23.14
23.89
24.43
24.83
25.13
25.24
25.03
24.38
23.28
21.82
20.21
18.62
17.11
15.59
13.86
11.73
9.19
6.35
3.46
0.71
-1.79
-4.12
-6.42
-8.88
-11.65
-14.85
-18.43
-22.16
-25.61
-28.17
-29.23
-28.37
-25.49
-20.88
-15.12
-8.87
-2.73
2.89
7.73
11.70
14.79
17.01
18.43
19.11
19.21
18.89
18.38
17.87
17.46
17.13
16.78
16.31
15.61
14.66
13.45
12.02
10.35
8.47
6.43
4.33
2.26
0.25
-1.75
-3.85
-6.19
-8.90
-12.08
-15.78
-19.93
-24.20
-28.04
-30.73
-31.61
-30.33
-26.92
-21.86
-15.79
-9.40
-3.19
2.45
7.28
11.10
13.81
15.43
16.08
16.05
15.61
15.00
14.42
13.99
13.75
13.71
13.80
13.83
13.58
12.81
11.34
9.13
6.32
3.19
0.06
-2.78
-5.19
-7.20
-8.99
-10.82
-12.97
-15.61
-18.72
-22.01
-24.93
-26.80
-26.96
-25.03
-21.07
-15.50
-9.05
-2.49
3.55
8.66
12.64
15.52
17.46
18.64
19.26
19.48
19.40
19.07
18.58
18.04
17.54
17.07
16.48
15.58
14.23
12.47
10.51
8.61
6.85
5.16
3.30
1.11
-1.41
-4.10
-6.74
-9.30
-11.95
-15.03
-18.79
-23.18
-27.72
-31.58
-33.83
-33.75
-31.00
-25.83
-18.91
-11.21
-3.67
3.01
8.47
12.64
15.68
17.84
19.30
20.24
20.73
20.88
20.76
20.48
20.08
19.62
19.07
18.34
17.34
15.95
14.21
12.30
10.48
9.01
7.98
7.23
6.44
5.23
3.41
1.01
-1.77
-4.70
-7.68
-10.81
-14.33
-18.39
-22.84
-27.15
-30.47
-31.91
-30.87
-27.28
-21.67
-14.94
-8.08
-1.78
3.62
8.17
11.99
15.20
17.83
19.83
21.21
22.09
22.64
23.03
23.29
23.32
22.97
22.17
20.91
19.37
17.76
16.28
14.96
13.65
12.10
10.08
7.51
4.50
1.34
-1.64
-4.16
-6.19
-7.88
-9.58
-11.72
-14.70
-18.65
-23.36
-28.14
-31.97
-33.75
-32.62
-28.37
-21.44
-12.87
-3.85
4.62
11.90
17.80
22.33
25.56
27.55
28.36
28.20
27.43
26.47
25.65
25.08
24.64
24.02
22.92
21.19
18.85
16.04
12.93
9.71
6.51
3.46
0.64
-1.85
-4.00
-5.81
-7.39
-8.82
-10.22
-11.65
-13.22
-15.08
-17.40
-20.26
-23.47
-26.55
-28.73
-29.21
-27.50
-23.64
-18.25
-12.28
-6.71
-2.19
1.12
3.45
5.19
6.61
7.75
8.46
8.57
8.13
7.40
6.81
6.72
7.23
8.14
9.01
9.40
9.07
8.02
6.43
4.54
2.47
0.25
-2.14
-4.69
-7.34
-10.00
-12.62
-15.24
-17.98
-20.93
-24.14
-27.45
-30.48
-32.66
-33.40
-32.21
-28.93
-23.80
-17.39
-10.46
-3.76
2.16
6.98
10.66
13.30
15.12
16.33
17.06
17.34
17.09
16.30
15.07
13.73
12.66
12.18
12.32
12.80
13.14
12.91
11.90
10.19
8.05
5.75
3.44
1.15
-1.18
-3.54
-5.89
-8.18
-10.47
-12.94
-15.81
-19.21
-23.03
-26.77
-29.68
-30.95
-29.98
-26.67
-21.38
-14.85
-7.94
-1.39
4.33
9.01
12.65
15.32
17.12
18.16
18.61
18.64
18.46
18.25
18.08
17.91
17.62
17.09
16.27
15.23
14.09
12.96
11.86
10.68
9.24
7.44
5.33
3.01
0.59
-1.92
-4.57
-7.37
-10.24
-13.02
-15.61
-18.08
-20.60
-23.31
-26.01
-28.15
-28.92
-27.63
-24.06
-18.61
-12.10
-5.44
0.68
5.93
10.27
13.75
16.36
18.04
18.77
18.68
18.09
17.41
16.97
16.89
16.99
17.01
16.65
15.81
14.61
13.25
11.97
10.86
9.85
8.79
7.59
6.20
4.58
2.67
0.31
-2.55
-5.83
-9.25
-12.49
-15.36
-18.01
-20.82
-24.10
-27.78
-31.28
-33.65
-33.97
-31.83
-27.56
-22.04
-16.35
-11.29
-7.16
-3.71
-0.51
2.76
6.03
8.81
10.43
10.37
8.54
5.43
2.02
-0.59
-1.55
-0.69
1.46
3.77
4.96
4.13
1.21
-2.99
-7.01
-9.34
-9.09
-6.48
-2.81
0.09
0.68
-1.55
-5.91
-10.69
-13.81
-13.49
-8.62
1.08
14.75
30.26
44.14
52.31
51.40
40.34
21.18
-1.29
-21.36
-34.61
-39.43
-37.14
-30.66
-22.83
-15.33
-8.61
-2.67
2.25
5.47
6.44
5.45
3.96
4.22
8.41
17.59
31.07
46.25
59.35
66.59
65.51
55.94
40.20
22.23
6.20
-5.10
-10.99
-12.75
-12.58
-12.33
-12.68
-13.04
-12.18
-8.96
-2.94
5.60
16.03
27.74
40.40
53.84
67.69
81.10
92.68
100.80
104.01
101.60
93.76
81.50
66.36
49.92
33.53
18.24
4.80
-6.23
-14.46
-19.72
-22.14
-22.22
-20.75
-18.75
-17.19
-16.89
-18.32
-21.56
-26.33
-32.10
-38.29
-44.36
-49.92
-54.67
-58.41
-60.91
-61.87
-60.96
-57.86
-52.43
-44.81
-35.50
-25.27
-14.97
-5.37
3.06
10.15
15.96
20.54
23.92
26.09
27.07
27.04
26.37
25.52
24.86
24.59
24.64
24.77
24.64
23.99
22.63
20.38
17.10
12.70
7.20
0.89
-5.72
-11.98
-17.37
-21.66
-25.00
-27.81
-30.53
-33.42
-36.43
-39.20
-41.19
-41.75
-40.30
-36.49
-30.32
-22.34
-13.58
-5.33
1.19
5.24
6.75
6.28
4.78
3.20
2.22
2.18
3.15
5.06
7.76
11.04
14.57
17.92
20.78
23.19
25.71
29.27
34.88
43.05
53.50
65.08
76.09
84.80
89.92
90.90
87.87
81.48
72.59
62.05
50.59
38.82
27.22
16.28
6.56
-1.26
-6.48
-8.51
-7.11
-2.51
4.65
13.51
23.20
33.14
42.96
52.51
61.58
69.95
77.53
84.54
91.68
99.93
110.21
122.89
137.47
152.65
166.68
177.85
184.97
187.53
185.59
179.50
169.68
156.53
140.45
121.94
101.60
80.15
58.31
36.73
15.95
-3.56
-21.25
-36.44
-48.36
-56.27
-59.75
-58.88
-54.35
-47.32
-39.08
-30.67
-22.54
-14.58
-6.26
2.99
13.47
24.99
36.94
48.46
58.60
66.47
71.29
72.45
69.57
62.60
51.95
38.43
23.21
7.44
-7.86
-22.14
-35.22
-47.31
-58.81
-70.10
-81.38
-92.58
-103.33
-113.10
-121.32
-127.45
-131.11
-132.10
-130.32
-125.90
-119.23
-111.01
-102.17
-93.78
-86.67
-81.26
-77.48
-74.83
-72.77
-70.90
-69.12
-67.59
-66.51
-65.98
-65.92
-66.24
-66.87
-67.82
-69.13
-70.69
-72.21
-73.29
-73.60
-73.05
-71.81
-70.21
-68.54
-67.01
-65.64
-64.31
-62.78
-60.67
-57.51
-52.91
-46.71
-39.10
-30.54
-21.53
-12.30
-2.77
7.12
17.01
25.68
31.24
31.61
25.37
12.36
-6.19
-28.07
-50.74
-71.88
-89.80
-103.41
-112.21
-116.14
-115.75
-112.08
-106.58
-100.84
-96.01
-92.55
-90.10
-87.66
-84.02
-78.37
-70.81
-62.39
-54.67
-48.86
-45.18
-42.67
-39.67
-34.84
-27.93
-19.74
-11.48
-3.63
4.62
14.91
28.61
45.46
63.20
78.30
87.39
88.66
82.39
70.42
55.05
38.09
20.55
2.67
-15.36
-32.96
-49.11
-62.75
-73.11
-80.14
-84.46
-87.08
-88.98
-90.74
-92.44
-93.85
-94.64
-94.75
-94.63
-94.79
-95.68
-97.24
-98.80
-99.60
-99.21
-97.98
-96.96
-97.43
-100.12
-104.70
-109.80
-113.32
-113.20
-108.20
-98.29
-84.56
-69.17
-54.87
-44.46
-40.04
-42.16
-49.51
-59.15
-67.68
-72.47
-72.77
-69.51
-64.59
-59.71
-55.51
-51.91
-48.58
-45.73
-44.08
-44.37
-46.69
-50.23
-53.72
-56.09
-57.07
-57.15
-57.03
-57.32
-58.08
-58.90
-59.23
-58.88
-57.89
-56.62
-55.23
-53.47
-50.58
-45.46
-37.33
-25.92
-11.79
3.92
19.90
35.57
50.72
65.12
77.83
87.03
91.06
89.63
84.83
80.55
80.90
87.89
100.51
115.13
127.50
134.88
136.94
135.52
132.98
130.98
129.97
129.67
129.85
130.81
133.16
137.19
142.51
147.95
151.85
152.56
148.99
140.88
128.70
113.70
97.36
81.30
66.89
55.09
46.28
40.34
36.84
35.21
35.12
36.27
38.78
42.62
47.58
53.29
59.14
64.70
69.74
74.38
78.86
83.32
87.44
90.37
91.15
89.18
84.62
78.38
72.10
67.01
63.40
60.21
55.57
48.00
37.28
24.81
12.89
3.40
-3.38
-8.66
-14.41
-21.93
-30.84
-39.48
-45.56
-47.54
-45.16
-39.25
-31.15
-22.11
-13.22
-5.52
-0.21
1.65
-0.48
-6.16
-13.96
-21.84
-27.90
-31.27
-32.11
-31.62
-31.17
-31.69
-33.29
-35.28
-36.80
-37.13
-36.08
-33.91
-31.20
-28.23
-25.29
-22.79
-21.49
-22.42
-26.09
-32.00
-38.27
-42.35
-42.16
-37.22
-29.03
-20.36
-13.97
-11.36
-12.40
-15.46
-18.63
-20.54
-20.90
-20.34
-19.72
-19.65
-20.14
-20.89
-21.48
-21.66
-21.61
-21.66
-22.08
-22.99
-24.38
-26.05
-27.82
-29.46
-30.72
-31.41
-31.49
-31.40
-32.14
-35.10
-41.59
-52.45
-67.54
-85.73
-105.00
-122.84
-136.84
-145.26
-147.62
-145.06
-140.24
-136.84
-138.56
-147.89
-165.02
-187.54
-211.00
-230.37
-241.80
-244.04
-238.82
-229.83
-220.99
-214.44
-209.68
-203.93
-193.78
-177.03
-153.88
-126.83
-99.54
-75.43
-56.59
-43.63
-36.13
-33.42
-35.10
-41.06
-51.02
-63.96
-77.70
-89.07
-94.64
-91.78
-79.55
-59.09
-33.19
-5.19
22.12
47.22
69.89
90.44
108.99
124.93
137.21
144.99
148.26
148.06
146.09
143.92
142.21
140.56
137.77
132.61
124.55
113.99
102.21
90.71
80.72
72.73
66.48
61.20
55.93
49.90
42.67
34.28
25.24
16.56
9.53
5.45
5.32
9.46
17.38
27.95
39.73
51.41
62.13
71.56
79.71
86.69
92.49
96.99
100.07
101.81
102.57
102.85
103.11
103.46
103.64
103.09
101.26
97.92
93.25
87.84
82.31
77.06
72.12
67.16
61.79
55.73
48.97
41.65
33.98
26.23
18.72
11.96
6.71
3.77
3.81
7.02
13.03
20.94
29.66
38.19
45.89
52.47
57.96
62.42
65.90
68.30
69.54
69.70
69.03
67.94
66.87
66.14
65.80
65.66
65.31
64.33
62.40
59.39
55.41
50.73
45.71
40.71
35.94
31.46
27.15
22.73
17.88
12.35
6.09
-0.66
-7.28
-12.88
-16.45
-17.18
-14.69
-9.25
-1.61
7.20
16.18
24.57
31.91
37.98
42.73
46.18
48.46
49.80
50.57
51.12
51.72
52.42
53.02
53.22
52.74
51.54
49.79
47.77
45.68
43.50
40.98
37.85
33.98
29.54
24.95
20.60
16.69
13.07
9.35
5.13
0.13
-5.57
-11.66
-17.52
-22.44
-25.63
-26.38
-24.24
-19.18
-11.75
-2.92
6.16
14.47
21.43
26.93
31.15
34.36
36.82
38.70
40.19
41.50
42.86
44.31
45.73
46.81
47.18
46.56
44.78
41.82
37.73
32.59
26.59
20.04
13.39
7.08
1.41
-3.56
-7.99
-12.17
-16.33
-20.66
-25.22
-30.04
-34.98
-39.71
-43.60
-45.78
-45.42
-42.05
-35.81
-27.45
-18.12
-8.99
-0.90
5.80
11.08
15.14
18.12
20.08
21.01
21.01
20.28
19.20
18.17
17.47
17.15
17.00
16.59
15.48
13.41
10.44
6.93
3.40
0.30
-2.22
-4.33
-6.44
-9.00
-12.32
-16.44
-21.19
-26.19
-30.94
-34.86
-37.29
-37.64
-35.51
-30.88
-24.21
-16.31
-8.20
-0.76
5.44
10.23
13.73
16.18
17.83
18.88
19.49
19.82
20.00
20.12
20.19
20.15
19.88
19.24
18.14
16.56
14.49
12.00
9.21
6.27
3.34
0.53
-2.14
-4.76
-7.55
-10.75
-14.55
-19.05
-24.16
-29.65
-35.11
-39.97
-43.52
-45.05
-43.99
-40.14
-33.79
-25.66
-16.74
-7.99
-0.05
6.80
12.54
17.26
20.97
23.66
25.33
26.11
26.31
26.26
26.24
26.31
26.34
26.11
25.47
24.35
22.83
20.96
18.79
16.28
13.41
10.20
6.74
3.20
-0.24
-3.47
-6.48
-9.42
-12.51
-16.07
-20.37
-25.47
-31.11
-36.63
-41.04
-43.32
-42.66
-38.84
-32.25
-23.85
-14.80
-6.13
1.52
7.96
13.30
17.69
21.22
23.82
25.41
26.08
26.10
25.88
25.77
25.86
25.98
25.82
25.08
23.74
21.99
20.17
18.53
17.07
15.54
13.57
10.88
7.45
3.55
-0.40
-4.01
-7.12
-9.87
-12.62
-15.81
-19.77
-24.58
-29.94
-35.30
-39.81
-42.61
-43.01
-40.70
-35.88
-29.13
-21.29
-13.12
-5.21
2.05
8.40
13.63
17.57
20.17
21.59
22.23
22.55
22.94
23.59
24.42
25.16
25.55
25.43
24.75
23.63
22.24
20.73
19.13
17.37
15.28
12.71
9.61
6.09
2.37
-1.29
-4.68
-7.74
-10.53
-13.21
-16.00
-19.17
-22.97
-27.46
-32.41
-37.20
-40.86
-42.41
-41.14
-36.92
-30.29
-22.23
-13.84
-6.03
0.69
6.18
10.51
13.82
16.18
17.67
18.37
18.47
18.21
17.87
17.61
17.44
17.25
16.83
16.02
14.79
13.29
11.74
10.27
8.87
7.33
5.42
2.99
0.13
-2.89
-5.72
-8.19
-10.33
-12.45
-14.93
-18.14
-22.20
-26.90
-31.77
-36.06
-38.99
-39.84
-38.25
-34.27
-28.48
-21.70
-14.86
-8.65
-3.46
0.63
3.73
5.94
7.36
8.07
8.22
8.03
7.75
7.62
7.72
7.99
8.26
8.36
8.18
7.66
6.77
5.47
3.72
1.52
-1.03
-3.76
-6.47
-9.02
-11.40
-13.76
-16.37
-19.47
-23.23
-27.59
-32.24
-36.57
-39.77
-41.05
-39.82
-35.93
-29.75
-22.11
-13.99
-6.31
0.32
5.66
9.72
12.67
14.69
15.98
16.71
17.07
17.23
17.29
17.29
17.17
16.84
16.23
15.31
14.13
12.74
11.16
9.36
7.31
4.99
2.46
-0.19
-2.81
-5.30
-7.69
-10.13
-12.87
-16.20
-20.30
-25.11
-30.29
-35.14
-38.75
-40.22
-38.88
-34.61
-27.87
-19.64
-11.09
-3.27
3.21
8.22
12.01
14.97
17.41
19.44
21.02
22.02
22.40
22.23
21.67
20.90
20.06
19.14
18.09
16.83
15.28
13.47
11.42
9.18
6.71
3.96
0.88
-2.51
-6.11
-9.73
-13.23
-16.57
-19.87
-23.38
-27.34
-31.80
-36.47
-40.67
-43.47
-43.96
-41.60
-36.43
-29.12
-20.76
-12.46
-5.05
1.08
5.96
9.85
13.01
15.58
17.58
18.95
19.68
19.85
19.58
19.11
18.60
18.16
17.79
17.34
16.63
15.53
14.00
12.11
9.98
7.71
5.29
2.68
-0.12
-3.07
-6.02
-8.83
-11.50
-14.24
-17.46
-21.49
-26.33
-31.43
-35.75
-38.04
-37.34
-33.41
-26.80
-18.71
-10.46
-3.04
3.10
8.02
12.02
15.31
17.92
19.78
20.82
21.11
20.89
20.42
19.88
19.37
18.84
18.22
17.46
16.58
15.58
14.47
13.17
11.54
9.45
6.85
3.82
0.54
-2.73
-5.76
-8.44
-10.82
-13.16
-15.84
-19.25
-23.55
-28.52
-33.45
-37.30
-38.97
-37.74
-33.54
-27.02
-19.27
-11.49
-4.52
1.25
5.83
9.38
12.09
14.06
15.36
16.11
16.52
16.79
17.04
17.25
17.28
17.01
16.39
15.47
14.39
13.18
11.79
10.10
7.95
5.29
2.23
-1.02
-4.22
-7.19
-9.88
-12.44
-15.10
-18.18
-21.86
-26.15
-30.76
-35.08
-38.27
-39.50
-38.19
-34.20
-27.98
-20.39
-12.47
-5.18
0.91
5.59
8.97
11.29
12.79
13.62
13.89
13.70
13.21
12.63
12.10
11.75
11.54
11.36
10.98
10.15
8.70
6.61
4.05
1.28
-1.40
-3.85
-6.06
-8.19
-10.46
-13.10
-16.28
-20.09
-24.51
-29.35
-34.11
-38.05
-40.24
-39.92
-36.71
-30.90
-23.30
-15.01
-7.06
-0.15
5.46
9.81
13.07
15.43
16.99
17.91
18.35
18.51
18.56
18.54
18.41
18.04
17.36
16.36
15.13
13.75
12.25
10.56
8.61
6.34
3.75
0.98
-1.84
-4.58
-7.24
-9.93
-12.87
-16.34
-20.47
-25.21
-30.14
-34.54
-37.51
-38.22
-36.21
-31.47
-24.53
-16.27
-7.62
0.59
7.86
13.98
18.96
22.92
25.99
28.27
29.84
30.80
31.27
31.44
31.49
31.55
31.75
32.12
32.61
33.10
33.40
33.27
32.46
30.80
28.23
24.84
20.82
16.38
11.67
6.72
1.49
-4.10
-10.10
-16.56
-23.45
-30.62
-37.70
-44.05
-48.79
-51.02
-50.14
-46.12
-39.58
-31.62
-23.38
-15.77
-9.21
-3.74
0.78
4.51
7.51
9.81
11.52
12.85
14.08
15.44
17.01
18.69
20.21
21.25
21.59
21.16
20.10
18.68
17.17
15.75
14.41
12.97
11.16
8.85
6.06
3.04
0.10
-2.54
-4.88
-7.13
-9.68
-12.86
-16.86
-21.55
-26.47
-30.85
-33.80
-34.58
-32.76
-28.45
-22.25
-15.02
-7.71
-1.01
4.69
9.35
13.06
15.97
18.19
19.78
20.89
21.67
22.32
22.95
23.51
23.82
23.69
23.00
21.82
20.33
18.79
17.30
15.84
14.21
12.26
9.89
7.18
4.28
1.34
-1.54
-4.34
-7.11
-9.93
-12.92
-16.23
-19.95
-24.03
-28.17
-31.81
-34.18
-34.58
-32.64
-28.45
-22.63
-16.09
-9.75
-4.26
0.12
3.45
5.92
7.69
8.82
9.29
9.15
8.59
7.97
7.67
7.93
8.74
9.79
10.63
10.79
9.99
8.23
5.75
2.95
0.18
-2.34
-4.58
-6.64
-8.65
-10.68
-12.79
-15.08
-17.68
-20.75
-24.27
-27.98
-31.27
-33.32
-33.36
-30.94
-26.10
-19.41
-11.77
-4.17
2.58
8.05
12.19
15.22
17.43
19.05
20.17
20.73
20.72
20.21
19.41
18.64
18.14
17.98
18.02
17.98
17.54
16.50
14.82
12.63
10.10
7.42
4.66
1.85
-1.00
-3.84
-6.58
-9.13
-11.55
-14.10
-17.15
-21.00
-25.58
-30.33
-34.27
-36.31
-35.68
-32.22
-26.43
-19.27
-11.79
-4.81
1.25
6.35
10.60
14.14
17.00
19.15
20.57
21.32
21.58
21.56
21.46
21.35
21.18
20.87
20.34
19.55
18.59
17.51
16.32
14.96
13.32
11.30
8.87
6.08
3.08
0.04
-2.89
-5.65
-8.32
-11.13
-14.40
-18.40
-23.16
-28.26
-32.90
-36.05
-36.81
-34.77
-30.14
-23.69
-16.40
-9.17
-2.56
3.23
8.19
12.32
15.57
17.83
19.15
19.73
19.95
20.22
20.73
21.44
22.05
22.24
21.82
20.82
19.49
18.12
16.89
15.77
14.58
13.09
11.14
8.71
5.94
3.05
0.27
-2.26
-4.51
-6.57
-8.58
-10.74
-13.25
-16.29
-19.92
-24.00
-28.08
-31.41
-33.14
-32.58
-29.50
-24.27
-17.76
-10.99
-4.76
0.60
5.15
9.11
12.62
15.59
17.79
19.04
19.39
19.14
18.73
18.50
18.56
18.75
18.80
18.42
17.53
16.28
14.91
13.71
12.76
11.93
10.93
9.50
7.57
5.30
3.03
1.05
-0.54
-1.96
-3.53
-5.63
-8.48
-12.10
-16.28
-20.69
-24.85
-28.17
-30.04
-29.97
-27.77
-23.66
-18.22
-12.29
-6.66
-1.89
1.80
4.43
6.18
7.21
7.66
7.66
7.38
7.00
6.71
6.60
6.62
6.67
6.60
6.30
5.74
4.93
3.93
2.74
1.43
0.02
-1.42
-2.89
-4.45
-6.19
-8.20
-10.49
-13.02
-15.70
-18.50
-21.41
-24.46
-27.49
-30.08
-31.63
-31.49
-29.26
-24.98
-19.21
-12.80
-6.64
-1.34
2.89
6.22
8.94
11.28
13.29
14.91
16.02
16.63
16.91
17.08
17.28
17.53
17.63
17.37
16.59
15.29
13.65
11.91
10.24
8.67
7.12
5.44
3.52
1.31
-1.22
-4.03
-7.15
-10.54
-14.20
-18.05
-22.00
-25.79
-29.03
-31.17
-31.63
-29.99
-26.18
-20.61
-14.05
-7.39
-1.34
3.77
7.93
11.33
14.14
16.38
17.96
18.82
19.01
18.77
18.38
18.13
18.12
18.28
18.45
18.43
18.09
17.38
16.33
14.97
13.36
11.49
9.40
7.11
4.69
2.18
-0.35
-2.86
-5.38
-8.03
-11.05
-14.61
-18.79
-23.33
-27.66
-30.91
-32.26
-31.20
-27.78
-22.54
-16.34
-10.05
-4.29
0.65
4.74
8.06
10.71
12.74
14.22
15.25
16.02
16.69
17.39
18.10
18.67
18.86
18.46
17.38
15.82
14.13
12.67
11.63
10.85
9.94
8.48
6.23
3.31
0.14
-2.81
-5.25
-7.17
-8.81
-10.59
-12.87
-15.81
-19.38
-23.27
-27.00
-29.91
-31.35
-30.82
-28.13
-23.50
-17.50
-10.88
-4.36
1.51
6.45
10.41
13.51
15.90
17.72
19.10
20.11
20.85
21.42
21.92
22.40
22.85
23.19
23.34
23.21
22.79
22.12
21.28
20.30
19.15
17.73
15.96
13.83
11.43
8.91
6.41
4.03
1.74
-0.57
-3.09
-5.99
-9.39
-13.24
-17.20
-20.66
-22.85
-23.08
-21.04
-16.96
-11.54
-5.71
-0.35
4.04
7.35
9.74
11.47
12.65
13.32
13.46
13.14
12.55
11.94
11.48
11.17
10.87
10.37
9.49
8.24
6.72
5.09
3.42
1.68
-0.26
-2.48
-4.97
-7.59
-10.16
-12.52
-14.68
-16.79
-19.15
-22.02
-25.53
-29.51
-33.45
-36.57
-38.03
-37.25
-34.11
-29.06
-22.95
-16.74
-11.20
-6.65
-3.05
-0.11
2.40
4.54
6.19
7.20
7.54
7.41
7.20
7.34
8.06
9.29
10.72
11.90
12.48
12.33
11.53
10.30
8.84
7.25
5.51
3.59
1.49
-0.71
-2.87
-4.95
-6.99
-9.21
-11.87
-15.14
-18.88
-22.61
-25.57
-26.93
-26.15
-23.13
-18.30
-12.43
-6.31
-0.58
4.45
8.76
12.41
15.51
18.07
20.04
21.41
22.23
22.64
22.81
22.86
22.86
22.79
22.58
22.22
21.71
21.08
20.30
19.29
17.96
16.30
14.46
12.67
11.11
9.74
8.27
6.24
3.20
-1.10
-6.60
-13.03
-19.92
-26.71
-32.73
-37.30
-39.75
-39.70
-37.17
-32.60
-26.78
-20.56
-14.63
-9.37
-4.90
-1.13
2.04
4.74
7.04
8.97
10.54
11.78
12.71
13.39
13.88
14.26
14.58
14.83
14.92
14.66
13.89
12.51
10.61
8.39
6.12
4.01
2.11
0.33
-1.53
-3.59
-5.91
-8.49
-11.32
-14.44
-17.86
-21.45
-24.81
-27.29
-28.23
-27.15
-24.01
-19.30
-13.80
-8.39
-3.72
-0.04
2.74
4.94
6.85
8.61
10.19
11.50
12.47
13.18
13.81
14.55
15.42
16.29
16.89
17.00
16.57
15.77
14.88
14.11
13.48
12.80
11.76
10.16
7.98
5.43
2.85
0.53
-1.42
-3.10
-4.76
-6.73
-9.25
-12.35
-15.78
-19.05
-21.49
-22.50
-21.69
-19.04
-14.89
-9.85
-4.60
0.29
4.51
7.97
10.76
12.99
14.77
16.15
17.18
17.90
18.40
18.76
19.02
19.17
19.11
18.79
18.21
17.46
16.66
15.91
15.17
14.29
13.08
11.36
9.11
6.46
3.63
0.83
-1.85
-4.46
-7.10
-9.90
-12.93
-16.19
-19.59
-22.92
-25.86
-27.96
-28.70
-27.67
-24.76
-20.24
-14.80
-9.28
-4.48
-0.83
1.65
3.27
4.46
5.54
6.58
7.45
7.98
8.06
7.78
7.30
6.79
6.31
5.78
5.04
3.94
2.43
0.62
-1.34
-3.28
-5.09
-6.79
-8.41
-10.04
-11.73
-13.48
-15.27
-17.12
-19.10
-21.33
-23.88
-26.60
-29.10
-30.75
-30.88
-29.03
-25.13
-19.65
-13.40
-7.30
-2.09
1.90
4.79
6.92
8.68
10.29
11.76
13.00
13.94
14.67
15.42
16.36
17.49
18.57
19.23
19.15
18.20
16.50
14.31
11.91
9.48
7.10
4.80
2.61
0.58
-1.26
-2.98
-4.69
-6.56
-8.76
-11.36
-14.35
-17.54
-20.59
-23.03
-24.37
-24.23
-22.49
-19.30
-15.12
-10.46
-5.79
-1.42
2.53
6.07
9.19
11.87
14.06
15.73
16.93
17.82
18.54
19.21
19.80
20.21
20.31
20.05
19.47
18.69
17.86
17.00
16.05
14.86
13.29
11.28
8.93
6.41
3.95
1.71
-0.27
-2.08
-3.95
-6.16
-8.92
-12.28
-16.03
-19.71
-22.75
-24.57
-24.79
-23.32
-20.33
-16.24
-11.53
-6.71
-2.16
1.84
5.17
7.74
9.61
10.85
11.65
12.20
12.70
13.24
13.81
14.29
14.53
14.41
13.96
13.27
12.47
11.66
10.86
9.97
8.91
7.63
6.16
4.60
3.06
1.60
0.19
-1.29
-2.97
-4.96
-7.35
-10.15
-13.29
-16.58
-19.72
-22.25
-23.68
-23.56
-21.69
-18.19
-13.55
-8.40
-3.36
1.18
5.05
8.26
10.86
12.83
14.12
14.74
14.82
14.66
14.59
14.85
15.45
16.17
16.72
16.82
16.38
15.49
14.40
13.37
12.64
12.25
12.11
11.98
11.59
10.71
9.25
7.26
4.82
2.02
-1.15
-4.76
-8.81
-13.15
-17.33
-20.71
-22.68
-22.91
-21.43
-18.70
-15.38
-12.08
-9.12
-6.51
-4.11
-1.80
0.37
2.22
3.56
4.34
4.64
4.72
4.74
4.78
4.77
4.60
4.23
3.67
2.98
2.22
1.34
0.25
-1.13
-2.81
-4.72
-6.71
-8.64
-10.39
-11.98
-13.57
-15.39
-17.71
-20.60
-23.89
-27.11
-29.61
-30.75
-30.12
-27.66
-23.70
-18.80
-13.59
-8.61
-4.20
-0.50
2.52
4.92
6.75
8.03
8.77
9.05
9.05
8.98
9.02
9.19
9.36
9.34
8.97
8.25
7.29
6.27
5.30
4.37
3.35
2.17
0.81
-0.71
-2.34
-4.12
-6.18
-8.68
-11.69
-15.13
-18.72
-22.00
-24.42
-25.50
-24.93
-22.75
-19.26
-14.99
-10.45
-6.03
-1.95
1.75
5.02
7.82
10.06
11.69
12.78
13.54
14.20
14.93
15.78
16.66
17.43
17.96
18.21
18.15
17.75
16.99
15.77
14.09
11.95
9.47
6.83
4.23
1.80
-0.39
-2.43
-4.49
-6.80
-9.61
-13.03
-16.97
-21.06
-24.65
-27.02
-27.54
-25.97
-22.47
-17.65
-12.26
-6.99
-2.28
1.72
5.04
7.77
9.94
11.57
12.68
13.37
13.81
14.14
14.46
14.72
14.81
14.62
14.11
13.33
12.38
11.31
10.17
8.91
7.46
5.82
3.96
1.98
-0.09
-2.19
-4.30
-6.44
-8.62
-10.88
-13.24
-15.79
-18.57
-21.59
-24.62
-27.22
-28.77
-28.71
-26.74
-23.03
-18.18
-12.98
-8.14
-4.02
-0.66
2.15
4.62
6.85
8.76
10.24
11.27
11.97
12.59
13.34
14.33
15.41
16.30
16.69
16.41
15.54
14.36
13.17
12.18
11.34
10.43
9.24
7.68
5.90
4.13
2.59
1.31
0.05
-1.52
-3.73
-6.70
-10.28
-14.05
-17.40
-19.68
-20.39
-19.29
-16.53
-12.54
-7.94
-3.27
1.11
5.09
8.70
11.97
14.83
17.07
18.49
19.06
18.97
18.60
18.37
18.54
19.11
19.82
20.33
20.34
19.77
18.75
17.49
16.17
14.81
13.33
11.61
9.62
7.48
5.39
3.48
1.74
-0.05
-2.16
-4.84
-8.19
-12.13
-16.36
-20.45
-23.89
-26.15
-26.82
-25.73
-23.00
-19.10
-14.65
-10.30
-6.57
-3.75
-1.86
-0.76
-0.20
0.10
0.33
0.59
0.91
1.23
1.51
1.74
1.95
2.18
2.39
2.47
2.24
1.54
0.32
-1.32
-3.16
-4.96
-6.59
-8.07
-9.54
-11.16
-13.06
-15.25
-17.70
-20.33
-23.00
-25.51
-27.55
-28.71
-28.59
-26.95
-23.76
-19.32
-14.19
-8.95
-4.13
-0.04
3.29
6.02
8.35
10.46
12.34
13.89
14.93
15.38
15.29
14.86
14.36
13.98
13.77
13.62
13.35
12.78
11.87
10.69
9.40
8.12
6.80
5.31
3.43
1.02
-1.89
-5.18
-8.68
-12.27
-15.90
-19.44
-22.65
-25.06
-26.14
-25.48
-23.02
-19.06
-14.20
-9.07
-4.19
0.19
4.03
7.37
10.23
12.60
14.46
15.74
16.50
16.80
16.79
16.64
16.47
16.36
16.31
16.22
15.93
15.29
14.21
12.71
10.89
8.90
6.89
4.97
3.15
1.38
-0.43
-2.36
-4.49
-6.87
-9.57
-12.61
-15.93
-19.29
-22.25
-24.18
-24.52
-22.91
-19.43
-14.57
-9.15
-3.98
0.35
3.66
6.11
8.06
9.78
11.42
12.90
14.10
14.95
15.51
15.92
16.35
16.79
17.12
17.11
16.61
15.60
14.26
12.86
11.61
10.52
9.42
8.06
6.25
3.99
1.45
-1.14
-3.66
-6.19
-8.94
-12.14
-15.78
-19.55
-22.83
-24.90
-25.16
-23.38
-19.78
-14.89
-9.42
-3.96
1.13
5.71
9.78
13.33
16.32
18.65
20.25
21.15
21.45
21.35
21.05
20.72
20.49
20.34
20.20
19.95
19.44
18.57
17.34
15.84
14.15
12.36
10.47
8.44
6.26
3.98
1.76
-0.27
-2.05
-3.77
-5.72
-8.22
-11.39
-14.99
-18.42
-20.88
-21.70
-20.53
-17.50
-13.16
-8.21
-3.30
1.11
