1556125697.00
64.000000
-0.00
-0.00
-0.00
-0.00
-0.00
-0.00
-0.00
-0.00
-0.00
-0.00
0.00
0.01
0.01
-0.00
-0.03
-0.05
-0.05
0.00
0.13
0.36
0.66
1.01
1.37
1.72
2.06
2.40
2.79
3.24
3.80
4.42
5.06
5.66
6.20
6.68
7.15
7.68
8.31
9.14
10.09
11.04
11.88
12.56
13.14
13.76
14.65
15.96
17.91
20.32
22.90
25.38
27.58
29.57
31.68
34.32
37.82
42.54
48.15
54.10
59.83
64.97
69.59
74.18
79.40
85.76
93.77
102.91
112.39
121.35
129.24
136.12
142.63
150.07
157.11
165.97
177.20
190.92
205.95
219.42
227.04
224.16
207.39
175.76
131.60
78.69
21.39
-36.99
-94.80
-151.68
-207.73
-262.75
-316.06
-366.38
-412.90
-454.87
-491.51
-521.65
-543.66
-555.72
-556.23
-544.49
-520.67
-486.21
-443.17
-393.82
-340.24
-284.20
-227.25
-170.93
-116.89
-66.69
-21.76
17.08
49.76
76.78
99.00
117.19
131.79
142.89
150.33
153.82
153.09
148.15
139.59
129.08
119.37
113.82
115.20
124.39
139.69
157.28
172.55
181.94
184.07
179.79
171.25
160.62
149.29
137.64
125.72
113.70
102.12
91.64
82.63
74.90
67.86
60.87
53.40
45.48
37.67
30.77
25.44
21.82
19.56
17.92
16.15
13.79
10.79
7.54
4.51
2.12
0.50
-0.48
-1.14
-1.79
-2.62
-3.57
-4.43
-5.00
-5.17
-5.00
-4.72
-4.55
-4.65
-5.09
-5.75
-6.39
-6.67
-6.29
-5.11
-3.24
-1.11
0.65
1.54
1.33
0.25
-1.19
-2.45
-3.21
-3.51
-3.60
-3.76
-4.04
-4.31
-4.33
-3.99
-3.36
-2.70
-2.28
-2.23
-2.49
-2.86
-3.11
-3.09
-2.83
-2.43
-2.04
-1.78
-1.67
-1.66
-1.68
-1.68
-1.63
-1.54
-1.37
-1.12
-0.73
-0.17
0.57
1.47
2.41
3.26
3.96
4.48
4.91
5.34
5.85
6.42
7.00
7.50
7.88
8.16
8.40
8.57
8.61
8.35
7.63
6.36
4.60
2.44
0.09
-2.22
-4.26
-5.90
-7.08
-7.91
-8.51
-9.03
-9.53
-9.95
-10.16
-10.09
-9.75
-9.28
-8.77
-8.25
-7.62
-6.78
-5.69
-4.48
-3.45
-2.83
-2.74
-3.00
-3.30
-3.37
-3.10
-2.63
-2.20
-2.01
-2.10
-2.35
-2.54
-2.55
-2.37
-2.12
-1.93
-1.87
-1.92
-1.98
-1.97
-1.87
-1.72
-1.62
-1.65
-1.78
-1.95
-2.05
-2.04
-1.92
-1.79
-1.75
-1.81
-1.90
-1.90
-1.70
-1.27
-0.73
-0.17
0.27
0.59
0.87
1.15
1.51
1.95
2.43
2.90
3.31
3.63
3.85
3.97
3.98
3.87
3.66
3.36
3.01
2.62
2.17
1.70
1.20
0.73
0.31
-0.04
-0.37
-0.73
-1.15
-1.65
-2.19
-2.72
-3.22
-3.70
-4.19
-4.71
-5.22
-5.60
-5.71
-5.45
-4.84
-3.95
-2.94
-1.92
-0.96
-0.08
0.72
1.42
2.00
2.42
2.67
2.81
2.91
3.04
3.22
3.40
3.46
3.33
2.93
2.32
1.56
0.79
0.13
-0.38
-0.70
-0.88
-1.04
-1.34
-1.91
-2.83
-4.02
-5.29
-6.43
-7.31
-7.95
-8.48
-9.06
-9.74
-10.37
-10.75
-10.70
-10.21
-9.47
-8.73
-8.14
-7.71
-7.31
-6.76
-5.98
-4.98
-3.84
-2.62
-1.31
0.15
1.78
3.56
5.37
7.05
8.46
9.56
10.35
10.86
11.13
11.13
10.86
10.29
9.46
8.46
7.39
6.36
5.43
4.60
3.81
2.96
1.93
0.68
-0.66
-1.89
-2.74
-2.98
-2.55
-1.58
-0.34
0.87
1.81
2.41
2.73
2.89
3.00
3.13
3.22
3.25
3.20
3.12
3.06
3.10
3.25
3.49
3.74
3.88
3.85
3.58
3.08
2.40
1.63
0.88
0.22
-0.28
-0.65
-0.92
-1.20
-1.59
-2.14
-2.86
-3.68
-4.47
-5.05
-5.28
-5.10
-4.55
-3.74
-2.80
-1.84
-0.91
-0.03
0.80
1.56
2.23
2.82
3.32
3.72
3.98
4.06
3.96
3.70
3.37
3.07
2.88
2.79
2.73
2.56
2.23
1.75
1.21
0.69
0.24
-0.20
-0.73
-1.41
-2.20
-2.99
-3.65
-4.12
-4.45
-4.71
-4.94
-5.12
-5.15
-4.92
-4.40
-3.65
-2.77
-1.86
-0.97
-0.11
0.73
1.54
2.28
2.90
3.35
3.63
3.75
3.71
3.58
3.38
3.21
3.13
3.18
3.35
3.54
3.64
3.59
3.33
2.90
2.38
1.80
1.21
0.62
0.05
-0.51
-1.05
-1.59
-2.21
-2.98
-3.90
-4.90
-5.81
-6.44
-6.61
-6.23
-5.32
-4.03
-2.53
-1.03
0.28
1.30
1.99
2.38
2.55
2.60
2.61
2.63
2.68
2.78
2.91
3.08
3.25
3.35
3.33
3.15
2.83
2.44
2.06
1.74
1.46
1.21
0.92
0.58
0.20
-0.17
-0.53
-0.88
-1.26
-1.71
-2.27
-2.95
-3.75
-4.59
-5.35
-5.83
-5.85
-5.31
-4.25
-2.86
-1.41
-0.17
0.73
1.30
1.66
1.96
2.32
2.74
3.17
3.52
3.77
3.90
3.99
4.07
4.18
4.29
4.34
4.28
4.07
3.71
3.27
2.82
2.43
2.11
1.85
1.58
1.23
0.72
0.03
-0.78
-1.66
-2.50
-3.28
-4.00
-4.69
-5.34
-5.86
-6.10
-5.92
-5.24
-4.15
-2.81
-1.47
-0.31
0.56
1.17
1.63
2.01
2.36
2.65
2.84
2.87
2.77
2.57
2.36
2.19
2.08
2.02
1.94
1.81
1.61
1.37
1.12
0.90
0.73
0.61
0.52
0.42
0.26
-0.02
-0.45
-1.05
-1.78
-2.58
-3.41
-4.20
-4.91
-5.44
-5.69
-5.52
-4.90
-3.88
-2.63
-1.39
-0.37
0.35
0.79
1.05
1.26
1.47
1.71
1.92
2.08
2.14
2.13
2.06
1.94
1.77
1.56
1.30
0.99
0.65
0.32
0.03
-0.21
-0.37
-0.51
-0.68
-0.97
-1.44
-2.08
-2.86
-3.72
-4.58
-5.35
-5.93
-6.20
-6.04
-5.38
-4.29
-2.94
-1.56
-0.36
0.55
1.23
1.80
2.36
2.93
3.44
3.79
3.90
3.81
3.61
3.36
3.14
2.95
2.80
2.70
2.62
2.56
2.44
2.21
1.81
1.28
0.66
0.04
-0.57
-1.21
-1.92
-2.74
-3.62
-4.50
-5.25
-5.80
-6.10
-6.12
-5.83
-5.22
-4.29
-3.14
-1.91
-0.76
0.18
0.91
1.52
2.11
2.74
3.37
3.91
4.24
4.34
4.25
4.09
3.93
3.81
3.70
3.53
3.25
2.87
2.48
2.16
1.94
1.79
1.59
1.24
0.67
-0.07
-0.88
-1.65
-2.34
-3.02
-3.77
-4.61
-5.42
-5.99
-6.09
-5.64
-4.71
-3.54
-2.40
-1.42
-0.60
0.16
0.97
1.84
2.65
3.28
3.64
3.77
3.78
3.80
3.87
3.94
3.93
3.76
3.44
3.08
2.76
2.57
2.44
2.29
1.99
1.52
0.96
0.40
-0.06
-0.41
-0.75
-1.20
-1.81
-2.53
-3.25
-3.86
-4.39
-4.96
-5.67
-6.50
-7.23
-7.56
-7.23
-6.20
-4.71
-3.12
-1.78
-0.86
-0.26
0.25
0.91
1.79
2.83
3.83
4.58
4.96
4.98
4.72
4.28
3.75
3.18
2.60
2.08
1.69
1.46
1.37
1.37
1.37
1.30
1.13
0.86
0.48
-0.04
-0.69
-1.40
-2.06
-2.60
-3.01
-3.40
-3.87
-4.49
-5.18
-5.80
-6.16
-6.17
-5.82
-5.18
-4.32
-3.32
-2.20
-1.03
0.09
1.09
1.92
2.58
3.12
3.54
3.87
4.06
4.10
4.01
3.81
3.59
3.41
3.28
3.21
3.14
3.02
2.78
2.41
1.93
1.39
0.84
0.34
-0.12
-0.52
-0.88
-1.20
-1.51
-1.86
-2.30
-2.90
-3.67
-4.59
-5.55
-6.42
-7.01
-7.15
-6.74
-5.76
-4.34
-2.76
-1.30
-0.16
0.59
1.07
1.47
1.94
2.51
3.12
3.63
3.93
4.05
4.06
4.10
4.21
4.37
4.46
4.37
4.06
3.58
3.08
2.72
2.62
2.74
2.95
3.02
2.78
2.18
1.32
0.40
-0.35
-0.82
-1.04
-1.17
-1.40
-1.89
-2.69
-3.77
-5.02
-6.27
-7.31
-7.93
-7.97
-7.36
-6.18
-4.65
-3.07
-1.70
-0.68
0.07
0.69
1.35
2.13
2.95
3.68
4.21
4.50
4.65
4.79
5.01
5.31
5.57
5.67
5.53
5.14
4.59
4.01
3.48
3.07
2.78
2.57
2.37
2.09
1.68
1.13
0.48
-0.18
-0.79
-1.29
-1.71
-2.10
-2.50
-2.94
-3.42
-3.94
-4.53
-5.20
-5.90
-6.53
-6.89
-6.78
-6.10
-4.92
-3.45
-1.99
-0.77
0.07
0.55
0.79
0.94
1.11
1.36
1.73
2.21
2.77
3.38
3.94
4.36
4.55
4.47
4.13
3.61
3.05
2.59
2.35
2.37
2.56
2.78
2.83
2.62
2.13
1.46
0.74
0.09
-0.43
-0.86
-1.22
-1.59
-1.98
-2.43
-2.93
-3.50
-4.13
-4.80
-5.44
-5.94
-6.20
-6.11
-5.64
-4.82
-3.75
-2.61
-1.51
-0.55
0.27
0.95
1.54
2.03
2.42
2.72
2.92
3.05
3.13
3.16
3.12
3.06
3.00
3.00
3.05
3.11
3.08
2.90
2.56
2.13
1.67
1.23
0.79
0.27
-0.37
-1.12
-1.89
-2.58
-3.13
-3.51
-3.78
-4.04
-4.42
-4.99
-5.75
-6.57
-7.21
-7.43
-7.04
-6.04
-4.62
-3.06
-1.67
-0.61
0.10
0.57
0.93
1.32
1.74
2.18
2.59
2.92
3.14
3.21
3.14
2.93
2.68
2.49
2.43
2.55
2.74
2.83
2.67
2.18
1.41
0.58
-0.14
-0.62
-0.89
-1.04
-1.16
-1.30
-1.45
-1.60
-1.82
-2.23
-2.95
-4.01
-5.31
-6.62
-7.65
-8.14
-7.98
-7.20
-6.00
-4.58
-3.18
-1.91
-0.82
0.09
0.86
1.51
2.05
2.51
2.94
3.42
3.96
4.53
5.01
5.27
5.22
4.86
4.31
3.73
3.25
2.95
2.80
2.69
2.52
2.20
1.71
1.06
0.32
-0.42
-1.06
-1.52
-1.80
-1.95
-2.13
-2.50
-3.19
-4.19
-5.36
-6.43
-7.13
-7.30
-6.91
-6.10
-5.02
-3.80
-2.54
-1.29
-0.10
0.96
1.83
2.50
3.02
3.46
3.91
4.39
4.87
5.26
5.46
5.43
5.17
4.78
4.39
4.14
4.06
4.09
4.11
3.97
3.59
3.01
2.34
1.68
1.12
0.64
0.19
-0.27
-0.76
-1.29
-1.83
-2.40
-3.02
-3.73
-4.54
-5.43
-6.34
-7.17
-7.80
-8.09
-7.93
-7.29
-6.24
-4.92
-3.50
-2.11
-0.83
0.32
1.32
2.17
2.81
3.20
3.37
3.38
3.39
3.49
3.76
4.16
4.59
4.96
5.17
5.22
5.10
4.84
4.46
3.99
3.45
2.89
2.35
1.90
1.55
1.31
1.11
0.83
0.39
-0.27
-1.16
-2.18
-3.26
-4.29
-5.28
-6.23
-7.22
-8.25
-9.30
-10.25
-10.95
-11.21
-10.90
-10.01
-8.67
-7.13
-5.70
-4.63
-4.03
-3.86
-3.94
-4.09
-4.19
-4.19
-4.16
-4.16
-4.21
-4.23
-4.12
-3.72
-2.93
-1.75
-0.27
1.35
2.97
4.50
5.95
7.33
8.59
9.63
10.30
10.52
10.29
9.72
8.99
8.25
7.55
6.88
6.18
5.42
4.62
3.79
2.93
1.99
0.88
-0.41
-1.77
-2.94
-3.60
-3.48
-2.53
-0.93
0.92
2.61
3.82
4.46
4.65
4.64
4.66
4.84
5.16
5.48
5.65
5.62
5.46
5.33
5.35
5.48
5.62
5.56
5.23
4.69
4.16
3.82
3.72
3.73
3.60
3.16
2.39
1.45
0.54
-0.16
-0.62
-0.94
-1.25
-1.67
-2.22
-2.89
-3.67
-4.55
-5.55
-6.64
-7.71
-8.55
-8.93
-8.65
-7.68
-6.17
-4.40
-2.68
-1.23
-0.11
0.82
1.71
2.71
3.81
4.85
5.65
6.02
5.93
5.51
4.95
4.44
4.11
3.96
3.92
3.89
3.77
3.55
3.26
2.94
2.65
2.38
2.04
1.55
0.81
-0.17
-1.25
-2.26
-3.03
-3.46
-3.61
-3.62
-3.68
-3.96
-4.52
-5.36
-6.41
-7.51
-8.43
-8.94
-8.80
-7.90
-6.33
-4.31
-2.21
-0.34
1.10
2.07
2.65
2.95
3.06
3.02
2.88
2.68
2.53
2.55
2.79
3.22
3.72
4.16
4.43
4.50
4.41
4.23
4.05
3.86
3.64
3.31
2.81
2.10
1.24
0.33
-0.51
-1.19
-1.70
-2.08
-2.43
-2.85
-3.47
-4.36
-5.57
-7.00
-8.45
-9.57
-10.03
-9.59
-8.25
-6.28
-4.12
-2.17
-0.68
0.36
1.10
1.76
2.44
3.13
3.77
4.24
4.52
4.64
4.70
4.76
4.88
5.02
5.15
5.19
5.11
4.95
4.77
4.66
4.65
4.68
4.64
4.39
3.83
3.00
1.98
0.92
-0.04
-0.84
-1.47
-1.96
-2.37
-2.77
-3.19
-3.70
-4.36
-5.18
-6.13
-7.06
-7.75
-7.97
-7.58
-6.56
-5.09
-3.45
-1.92
-0.67
0.27
1.02
1.70
2.41
3.15
3.83
4.39
4.78
5.00
5.11
5.15
5.17
5.14
5.04
4.80
4.37
3.76
3.05
2.39
1.94
1.75
1.75
1.75
1.55
1.03
0.22
-0.71
-1.59
-2.30
-2.86
-3.36
-3.92
-4.60
-5.38
-6.20
-7.01
-7.76
-8.38
-8.75
-8.74
-8.26
-7.29
-5.96
-4.46
-3.02
-1.81
-0.86
-0.13
0.51
1.15
1.87
2.65
3.41
4.06
4.51
4.72
4.73
4.61
4.43
4.27
4.12
3.97
3.76
3.48
3.13
2.74
2.37
2.03
1.73
1.42
1.03
0.48
-0.21
-1.01
-1.80
-2.53
-3.19
-3.89
-4.72
-5.73
-6.87
-7.99
-8.86
-9.24
-8.99
-8.07
-6.59
-4.76
-2.86
-1.17
0.13
0.99
1.53
1.95
2.44
3.07
3.78
4.37
4.67
4.61
4.29
3.93
3.74
3.85
4.21
4.64
4.96
5.01
4.77
4.30
3.68
2.96
2.15
1.25
0.27
-0.75
-1.76
-2.70
-3.58
-4.42
-5.28
-6.16
-7.02
-7.70
-8.04
-7.87
-7.15
-5.96
-4.53
-3.09
-1.82
-0.75
0.21
1.17
2.20
3.27
4.21
4.88
5.19
5.21
5.07
4.95
4.97
5.12
5.27
5.30
5.12
4.77
4.34
3.95
3.63
3.34
2.96
2.42
1.74
0.99
0.28
-0.33
-0.88
-1.47
-2.22
-3.20
-4.41
-5.78
-7.20
-8.53
-9.58
-10.15
-10.06
-9.20
-7.67
-5.70
-3.66
-1.85
-0.44
0.61
1.49
2.44
3.57
4.83
6.02
6.93
7.46
7.62
7.54
7.38
7.23
7.10
6.91
6.59
6.15
5.65
5.20
4.89
4.69
4.48
4.06
3.26
2.07
0.63
-0.84
-2.08
-2.98
-3.55
-3.91
-4.22
-4.57
-5.04
-5.64
-6.40
-7.28
-8.17
-8.83
-9.00
-8.49
-7.29
-5.58
-3.66
-1.81
-0.21
1.12
2.27
3.31
4.26
5.07
5.70
6.13
6.37
6.47
6.51
6.50
6.45
6.33
6.12
5.80
5.40
4.99
4.67
4.48
4.42
4.40
4.31
4.07
3.65
3.14
2.61
2.16
1.77
1.41
1.02
0.53
-0.08
-0.84
-1.80
-3.01
-4.49
-6.10
-7.60
-8.65
-8.94
-8.36
-7.01
-5.22
-3.38
-1.79
-0.56
0.38
1.20
2.02
2.86
3.61
4.15
4.43
4.49
4.47
4.50
4.67
4.97
5.31
5.61
5.77
5.76
5.56
5.21
4.77
4.33
3.95
3.62
3.30
2.88
2.30
1.56
0.79
0.14
-0.34
-0.65
-0.94
-1.36
-1.99
-2.84
-3.83
-4.87
-5.93
-6.96
-7.93
-8.72
-9.17
-9.11
-8.48
-7.31
-5.78
-4.12
-2.55
-1.22
-0.16
0.67
1.31
1.85
2.29
2.65
2.95
3.23
3.50
3.75
3.90
3.89
3.65
3.25
2.83
2.55
2.49
2.64
2.84
2.93
2.78
2.38
1.78
1.11
0.43
-0.21
-0.78
-1.31
-1.82
-2.31
-2.80
-3.31
-3.89
-4.60
-5.44
-6.35
-7.19
-7.72
-7.75
-7.19
-6.09
-4.66
-3.14
-1.73
-0.54
0.41
1.13
1.67
2.07
2.41
2.73
3.05
3.33
3.51
3.53
3.43
3.31
3.28
3.36
3.46
3.43
3.16
2.66
2.06
1.53
1.18
1.00
0.87
0.62
0.14
-0.56
-1.37
-2.12
-2.69
-3.04
-3.27
-3.50
-3.89
-4.53
-5.40
-6.38
-7.31
-7.98
-8.28
-8.13
-7.55
-6.64
-5.52
-4.36
-3.27
-2.34
-1.56
-0.89
-0.24
0.43
1.16
1.92
2.66
3.31
3.86
4.32
4.72
5.07
5.34
5.45
5.35
5.07
4.71
4.38
4.15
4.03
3.90
3.68
3.28
2.74
2.14
1.59
1.12
0.73
0.34
-0.14
-0.78
-1.59
-2.57
-3.64
-4.71
-5.60
-6.14
-6.19
-5.71
-4.81
-3.67
-2.55
-1.66
-1.09
-0.81
-0.68
-0.57
-0.36
-0.01
0.46
0.98
1.47
1.87
2.17
2.37
2.52
2.64
2.73
2.77
2.74
2.63
2.45
2.25
2.01
1.71
1.29
0.71
-0.03
-0.82
-1.54
-2.10
-2.49
-2.76
-3.00
-3.30
-3.69
-4.20
-4.75
-5.28
-5.68
-5.81
-5.59
-5.01
-4.15
-3.14
-2.17
-1.31
-0.60
0.02
0.58
1.09
1.50
1.75
1.84
1.85
1.90
2.08
2.41
2.83
3.21
3.45
3.49
3.36
3.10
2.78
2.44
2.08
1.69
1.25
0.80
0.39
0.10
-0.04
-0.05
-0.05
-0.17
-0.54
-1.23
-2.22
-3.39
-4.58
-5.59
-6.21
-6.29
-5.74
-4.62
-3.13
-1.58
-0.29
0.51
0.78
0.63
0.30
0.04
-0.01
0.18
0.50
0.80
0.92
0.79
0.44
-0.02
-0.40
-0.56
-0.46
-0.15
0.21
0.49
0.56
0.43
0.12
-0.26
-0.66
-1.07
-1.46
-1.86
-2.26
-2.70
-3.20
-3.75
-4.30
-4.74
-4.94
-4.78
-4.25
-3.42
-2.42
-1.39
-0.42
0.44
1.15
1.70
2.08
2.31
2.43
2.48
2.50
2.50
2.49
2.49
2.52
2.59
2.66
2.69
2.61
2.37
2.01
1.59
1.20
0.88
0.62
0.37
0.04
-0.39
-0.96
-1.66
-2.44
-3.27
-4.07
-4.72
-5.11
-5.10
-4.61
-3.68
-2.44
-1.15
-0.06
0.64
0.92
0.91
0.83
0.91
1.28
1.90
2.61
3.19
3.47
3.37
2.96
2.42
1.97
1.80
1.95
2.29
2.62
2.72
2.49
2.00
1.42
0.93
0.57
0.32
0.05
-0.30
-0.76
-1.32
-1.96
-2.67
-3.42
-4.14
-4.68
-4.88
-4.64
-3.96
-3.00
-1.94
-1.00
-0.28
0.22
0.52
0.73
0.92
1.12
1.37
1.66
1.96
2.23
2.45
2.58
2.57
2.40
2.08
1.65
1.21
0.84
0.61
0.54
0.55
0.52
0.36
0.03
-0.44
-0.95
-1.43
-1.83
-2.18
-2.51
-2.89
-3.31
-3.72
-4.04
-4.18
-4.09
-3.72
-3.13
-2.39
-1.58
-0.76
0.07
0.90
1.74
2.51
3.09
3.35
3.24
2.86
2.41
2.14
2.21
2.61
3.15
3.57
3.69
3.43
2.90
2.24
1.61
1.08
0.66
0.33
0.04
-0.21
-0.45
-0.73
-1.10
-1.66
-2.43
-3.37
-4.32
-5.06
-5.39
-5.22
-4.58
-3.66
-2.67
-1.78
-1.03
-0.36
0.34
1.08
1.81
2.43
2.86
3.09
3.17
3.16
3.05
2.85
2.57
2.27
2.09
2.12
2.32
2.58
2.69
2.51
2.02
1.33
0.62
0.05
-0.31
-0.49
-0.56
-0.65
-0.84
-1.14
-1.56
-2.04
-2.59
-3.19
-3.81
-4.35
-4.65
-4.60
-4.11
-3.29
-2.31
-1.39
-0.69
-0.21
0.16
0.55
1.06
1.67
2.31
2.88
3.30
3.54
3.64
3.68
3.74
3.89
4.13
4.38
4.52
4.47
4.20
3.79
3.37
3.02
2.75
2.49
2.15
1.66
1.07
0.49
0.03
-0.29
-0.52
-0.79
-1.20
-1.80
-2.55
-3.37
-4.16
-4.87
-5.43
-5.84
-6.06
-6.03
-5.70
-5.07
-4.21
-3.28
-2.44
-1.76
-1.22
-0.69
-0.01
0.87
1.85
2.75
3.42
3.78
3.91
3.94
3.97
3.97
3.87
3.57
3.13
2.64
2.28
2.13
2.15
2.21
2.19
2.04
1.82
1.62
1.52
1.47
1.39
1.14
0.71
0.14
-0.43
-0.90
-1.21
-1.43
-1.64
-1.93
-2.32
-2.77
-3.23
-3.67
-4.11
-4.59
-5.09
-5.54
-5.84
-5.93
-5.76
-5.39
-4.89
-4.32
-3.69
-3.02
-2.27
-1.44
-0.54
0.41
1.39
2.31
3.11
3.66
3.90
3.80
3.46
3.06
2.75
2.65
2.77
3.02
3.28
3.44
3.48
3.42
3.31
3.18
3.03
2.85
2.60
2.28
1.90
1.47
0.99
0.46
-0.09
-0.62
-1.11
-1.50
-1.78
-1.94
-1.98
-1.95
-1.96
-2.12
-2.54
-3.24
-4.16
-5.16
-6.08
-6.80
-7.24
-7.37
-7.18
-6.64
-5.78
-4.67
-3.47
-2.35
-1.42
-0.71
-0.17
0.30
0.76
1.22
1.64
1.96
2.14
2.20
2.18
2.17
2.24
2.44
2.72
3.00
3.17
3.18
3.01
2.76
2.53
2.39
2.34
2.27
2.07
1.68
1.15
0.62
0.24
0.12
0.23
0.47
0.64
0.59
0.27
-0.29
-0.98
-1.69
-2.32
-2.82
-3.17
-3.33
-3.25
-2.92
-2.40
-1.85
-1.51
-1.58
-2.12
-3.00
-3.94
-4.62
-4.84
-4.58
-4.02
-3.45
-3.15
-3.23
-3.62
-4.13
-4.51
-4.60
-4.37
-4.07
-4.06
-4.86
-6.91
-10.54
-15.75
-22.18
-29.10
-35.50
-40.23
-42.25
-40.86
-35.89
-27.73
-17.28
-5.74
5.67
15.96
24.52
31.17
36.07
39.51
41.77
43.03
43.34
42.79
41.51
39.74
37.70
35.50
33.09
30.30
26.97
23.04
18.61
13.94
9.33
5.05
1.28
-1.84
-4.25
-5.93
-6.91
-7.29
-7.28
-7.16
-7.21
-7.62
-8.43
-9.48
-10.53
-11.35
-11.77
-11.80
-11.53
-11.11
-10.68
-10.31
-9.94
-9.47
-8.80
-7.87
-6.79
-5.80
-5.27
-5.55
-6.82
-8.95
-11.51
-13.92
-15.61
-16.31
-16.04
-15.18
-14.17
-13.40
-13.00
-12.91
-12.92
-12.88
-12.77
-12.67
-12.68
-12.79
-12.89
-12.84
-12.57
-12.17
-11.88
-11.94
-12.43
-13.21
-13.94
-14.26
-13.98
-13.08
-11.76
-10.24
-8.68
-7.06
-5.29
-3.24
-0.83
1.95
5.08
8.53
12.23
16.01
19.61
22.68
24.94
26.20
26.48
25.98
24.97
23.68
22.26
20.83
19.47
18.29
17.42
16.94
16.77
16.70
16.45
15.72
14.34
12.38
10.08
7.76
5.69
3.97
2.52
1.20
-0.07
-1.28
-2.26
-2.86
-2.96
-2.63
-2.04
-1.43
-0.97
-0.73
-0.63
-0.51
-0.17
0.45
1.31
2.26
3.07
3.58
3.76
3.68
3.49
3.31
3.17
3.00
2.70
2.19
1.50
0.73
-0.02
-0.62
-1.02
-1.24
-1.32
-1.36
-1.45
-1.64
-1.93
-2.24
-2.49
-2.61
-2.59
-2.46
-2.30
-2.18
-2.16
-2.26
-2.46
-2.70
-2.91
-2.98
-2.85
-2.48
-1.94
-1.32
-0.73
-0.31
-0.10
-0.12
-0.30
-0.52
-0.67
-0.63
-0.34
0.17
0.83
1.58
2.38
3.25
4.21
5.27
6.33
7.23
7.76
7.81
7.38
6.65
5.86
5.23
4.82
4.53
4.16
3.58
2.81
2.01
1.38
1.06
1.01
1.07
1.06
0.85
0.44
-0.10
-0.68
-1.23
-1.69
-1.98
-2.03
-1.78
-1.28
-0.69
-0.25
-0.19
-0.63
-1.56
-2.79
-4.07
-5.15
-5.86
-6.09
-5.82
-5.12
-4.12
-3.00
-1.97
-1.24
-0.89
-0.95
-1.32
-1.84
-2.36
-2.75
-2.91
-2.81
-2.47
-1.94
-1.34
-0.80
-0.47
-0.42
-0.72
-1.37
-2.31
-3.45
-4.64
-5.72
-6.59
-7.24
-7.76
-8.28
-8.91
-9.61
-10.19
-10.40
-10.01
-8.95
-7.32
-5.38
-3.39
-1.54
0.09
1.52
2.77
3.88
4.86
5.73
6.55
7.34
8.12
8.86
9.46
9.88
10.08
10.14
10.17
10.25
10.36
10.39
10.23
9.82
9.15
8.33
7.45
6.56
5.66
4.73
3.76
2.81
1.96
1.32
0.93
0.78
0.79
0.85
0.85
0.71
0.38
-0.14
-0.76
-1.33
-1.64
-1.48
-0.71
0.66
2.48
4.53
6.56
8.41
9.99
11.26
12.21
12.76
12.85
12.41
11.44
10.02
8.28
6.38
4.49
2.75
1.25
0.05
-0.86
-1.56
-2.22
-3.05
-4.26
-5.95
-8.04
-10.28
-12.28
-13.72
-14.42
-14.48
-14.14
-13.65
-13.17
-12.66
-12.01
-11.18
-10.27
-9.48
-9.02
-8.96
-9.20
-9.57
-9.93
-10.22
-10.49
-10.71
-10.80
-10.59
-9.95
-8.90
-7.60
-6.23
-4.90
-3.57
-2.09
-0.40
1.45
3.28
4.88
6.14
7.11
7.95
8.80
9.69
10.55
11.25
11.71
11.91
11.90
11.69
11.26
10.53
9.52
8.29
7.04
5.99
5.29
4.93
4.79
4.68
4.42
3.94
3.25
2.43
1.54
0.65
-0.23
-1.10
-1.96
-2.78
-3.57
-4.37
-5.22
-6.14
-7.07
-7.82
-8.18
-7.94
-6.99
-5.45
-3.58
-1.76
-0.34
0.49
0.77
0.72
0.67
0.89
1.48
2.35
3.30
4.09
4.58
4.76
4.69
4.44
4.07
3.60
3.05
2.48
1.98
1.63
1.43
1.34
1.24
1.07
0.82
0.54
0.30
0.14
0.02
-0.09
-0.27
-0.52
-0.82
-1.09
-1.27
-1.35
-1.35
-1.35
-1.39
-1.53
-1.80
-2.27
-2.95
-3.82
-4.79
-5.65
-6.16
-6.10
-5.39
-4.15
-2.63
-1.14
0.10
1.00
1.63
2.14
2.69
3.35
4.11
4.86
5.43
5.74
5.76
5.63
5.48
5.44
5.49
5.48
5.25
4.70
3.94
3.18
2.67
2.50
2.59
2.70
2.59
2.16
1.46
0.65
-0.11
-0.70
-1.07
-1.26
-1.27
-1.17
-1.03
-0.95
-1.04
-1.42
-2.13
-3.16
-4.38
-5.62
-6.61
-7.14
-7.08
-6.41
-5.29
-3.97
-2.71
-1.69
-1.02
-0.66
-0.52
-0.47
-0.39
-0.19
0.15
0.63
1.23
1.87
2.52
3.10
3.57
3.88
3.99
3.94
3.77
3.55
3.35
3.17
2.98
2.68
2.17
1.39
0.38
-0.77
-1.85
-2.66
-3.04
-2.94
-2.50
-1.94
-1.56
-1.55
-1.99
-2.81
-3.86
-5.02
-6.19
-7.29
-8.20
-8.73
-8.70
-7.98
-6.62
-4.84
-2.94
-1.23
0.16
1.23
2.05
2.69
3.14
3.35
3.29
3.03
2.73
2.55
2.60
2.81
3.01
3.03
2.77
2.32
1.87
1.66
1.84
2.39
3.10
3.69
3.93
3.67
2.94
1.86
0.59
-0.72
-1.96
-3.05
-3.98
-4.77
-5.50
-6.28
-7.18
-8.15
-9.03
-9.55
-9.42
-8.56
-7.07
-5.25
-3.48
-2.03
-0.99
-0.26
0.34
0.95
1.62
2.26
2.78
3.11
3.26
3.33
3.45
3.69
4.09
4.59
5.10
5.51
5.75
5.79
5.62
5.24
4.64
3.81
2.74
1.52
0.27
-0.87
-1.80
-2.53
-3.14
-3.74
-4.40
-5.10
-5.74
-6.25
-6.65
-7.03
-7.57
-8.37
-9.48
-10.86
-12.41
-14.01
-15.49
-16.64
-17.22
-17.06
-16.15
-14.67
-12.88
-11.03
-9.19
-7.24
-4.97
-2.23
0.94
4.30
7.51
10.27
12.40
13.89
14.83
15.35
15.52
15.44
15.16
14.76
14.33
13.96
13.65
13.36
12.98
12.39
11.55
10.50
9.39
8.37
7.56
6.95
6.45
5.93
5.25
4.37
3.33
2.19
1.01
-0.18
-1.39
-2.59
-3.79
-4.95
-6.07
-7.15
-8.12
-8.85
-9.16
-8.88
-7.97
-6.55
-4.93
-3.39
-2.15
-1.22
-0.46
0.25
0.98
1.70
2.31
2.77
3.10
3.39
3.72
4.12
4.55
4.94
5.25
5.47
5.60
5.62
5.53
5.33
5.05
4.73
4.38
3.99
3.51
2.92
2.27
1.66
1.22
0.98
0.86
0.69
0.32
-0.34
-1.20
-2.09
-2.82
-3.29
-3.56
-3.83
-4.33
-5.23
-6.52
-8.05
-9.52
-10.60
-11.03
-10.69
-9.62
-8.03
-6.20
-4.42
-2.91
-1.73
-0.87
-0.20
0.42
1.10
1.92
2.87
3.87
4.82
5.61
6.16
6.46
6.56
6.54
6.48
6.40
6.31
6.17
5.94
5.61
5.17
4.67
4.14
3.61
3.12
2.66
2.22
1.74
1.20
0.58
-0.09
-0.77
-1.40
-1.97
-2.47
-2.92
-3.35
-3.81
-4.36
-5.06
-5.94
-6.94
-7.89
-8.56
-8.72
-8.22
-7.08
-5.46
-3.68
-2.04
-0.76
0.07
0.55
0.86
1.18
1.59
2.09
2.62
3.11
3.52
3.85
4.12
4.35
4.54
4.68
4.78
4.85
4.90
4.97
5.02
5.01
4.89
4.59
4.12
3.53
2.92
2.36
1.91
1.52
1.09
0.53
-0.22
-1.08
-1.90
-2.54
-2.94
-3.17
-3.42
-3.90
-4.71
-5.79
-6.96
-7.89
-8.33
-8.11
-7.20
-5.75
-3.97
-2.10
-0.33
1.22
2.53
3.64
4.63
5.59
6.55
7.54
8.51
9.46
10.38
11.28
12.16
13.00
13.73
14.25
14.55
14.72
14.93
15.43
16.36
17.71
19.20
20.37
20.66
19.63
17.05
13.02
7.96
2.53
-2.58
-6.78
-9.66
-11.07
-11.03
-9.71
-7.36
-4.29
-0.86
2.54
5.56
7.96
9.74
11.12
12.44
14.05
16.14
18.62
21.21
23.50
25.15
25.96
25.99
25.42
24.52
23.56
22.67
21.83
20.76
18.97
15.81
10.68
3.26
-6.30
-17.30
-28.59
-38.86
-46.90
-51.96
-53.85
-52.89
-49.84
-45.57
-40.94
-36.63
-33.12
-30.64
-29.27
-28.91
-29.31
-30.10
-30.87
-31.27
-31.14
-30.55
-29.79
-29.34
-29.77
-31.61
-35.18
-40.37
-46.59
-52.74
-57.56
-59.93
-59.28
-55.65
-49.68
-42.21
-34.01
-25.63
-17.32
-9.25
-1.54
5.69
12.35
18.39
23.83
28.72
33.02
36.67
39.60
41.74
43.09
43.72
43.73
43.24
42.41
41.35
40.09
38.57
36.63
34.17
31.25
28.19
25.54
23.95
23.82
25.15
27.41
29.69
30.95
30.39
27.79
23.46
18.18
12.82
8.10
4.34
1.57
-0.40
-1.73
-2.54
-2.86
-2.71
-2.18
-1.39
-0.46
0.58
1.74
3.08
4.56
6.01
7.13
7.59
7.17
5.88
4.01
2.00
0.38
-0.49
-0.47
0.30
1.42
2.36
2.56
1.55
-0.86
-4.53
-8.94
-13.29
-16.71
-18.57
-18.62
-17.08
-14.52
-11.61
-8.88
-6.60
-4.71
-2.97
-1.09
1.06
3.40
5.63
7.31
8.06
7.69
6.22
3.90
1.06
-1.93
-4.75
-7.12
-8.77
-9.56
-9.51
-8.87
-8.07
-7.60
-7.77
-8.60
-9.78
-10.86
-11.40
-11.12
-10.04
-8.39
-6.50
-4.71
-3.24
-2.16
-1.41
-0.81
-0.19
0.57
1.44
2.27
2.80
2.69
1.69
-0.30
-3.09
-6.21
-9.05
-11.05
-11.85
-11.45
-10.12
-8.25
-6.24
-4.40
-2.97
-2.18
-2.22
-3.17
-4.90
-6.99
-8.83
-9.78
-9.46
-7.83
-5.20
-2.07
1.06
3.90
6.34
8.45
10.36
12.18
13.89
15.41
16.58
17.23
17.21
16.42
14.87
12.63
9.87
6.79
3.62
0.54
-2.26
-4.68
-6.61
-8.04
-9.07
-9.90
-10.82
-12.09
-13.86
-16.04
-18.32
-20.28
-21.51
-21.76
-20.97
-19.21
-16.62
-13.35
-9.52
-5.30
-0.94
3.27
7.07
10.29
12.91
15.04
16.77
18.13
18.97
19.01
17.95
15.64
12.14
7.81
3.15
-1.36
-5.38
-8.85
-11.90
-14.70
-17.31
-19.53
-21.00
-21.36
-20.43
-18.33
-15.44
-12.23
-9.08
-6.20
-3.62
-1.30
0.79
2.66
4.35
6.02
7.98
10.55
13.87
17.74
21.56
24.51
25.84
25.13
22.52
18.64
14.38
10.53
7.52
5.34
3.64
1.96
-0.05
-2.58
-5.64
-9.12
-12.80
-16.32
-19.17
-20.79
-20.72
-18.84
-15.49
-11.30
-7.02
-3.20
-0.06
2.49
4.70
6.73
8.56
10.04
11.04
11.54
11.76
11.94
12.29
12.78
13.16
13.09
12.31
10.80
8.75
6.52
4.40
2.55
0.97
-0.33
-1.33
-2.02
-2.47
-2.94
-3.82
-5.45
-7.84
-10.56
-12.80
-13.70
-12.70
-9.80
-5.51
-0.63
4.08
8.19
11.65
14.63
17.38
19.98
22.38
24.44
26.02
27.06
27.49
27.17
25.82
23.06
18.63
12.60
5.43
-2.13
-9.28
-15.51
-20.70
-25.07
-28.85
-32.01
-34.04
-34.14
-31.56
-26.01
-17.84
-8.06
2.02
11.20
18.66
24.12
27.64
29.47
29.80
28.79
26.55
23.29
19.33
15.01
10.55
6.01
1.33
-3.51
-8.23
-12.22
-14.64
-14.79
-12.39
-7.74
-1.66
4.86
10.94
15.95
19.57
21.60
21.88
20.22
16.54
10.89
3.61
-4.73
-13.44
-21.73
-28.81
-33.95
-36.53
-36.28
-33.39
-28.57
-22.87
-17.34
-12.74
-9.29
-6.70
-4.42
-1.93
1.03
4.45
8.08
11.59
14.61
16.74
17.58
16.82
14.36
10.35
5.16
-0.74
-6.97
-13.23
-19.24
-24.66
-28.97
-31.58
-32.00
-30.04
-25.89
-20.09
-13.38
-6.54
-0.25
5.03
9.10
12.02
14.09
15.72
17.32
19.08
20.84
22.06
22.01
20.06
15.94
9.94
2.80
-4.52
-11.15
-16.60
-20.75
-23.68
-25.45
-25.97
-25.00
-22.39
-18.27
-13.07
-7.44
-1.95
3.07
7.53
11.52
15.11
18.25
20.81
22.71
23.98
24.78
25.19
25.12
24.23
22.04
18.19
12.62
5.58
-2.35
-10.51
-18.19
-24.66
-29.13
-30.81
-29.14
-24.06
-16.29
-7.20
1.52
8.42
12.70
14.41
14.13
12.61
10.35
7.50
4.03
-0.11
-4.69
-9.30
-13.40
-16.59
-18.71
-19.87
-20.34
-20.41
-20.23
-19.77
-18.89
-17.39
-15.16
-12.31
-9.13
-6.01
-3.26
-1.04
0.63
1.90
2.91
3.80
4.69
5.69
6.84
8.11
9.34
10.26
10.61
10.25
9.24
7.77
6.08
4.31
2.47
0.56
-1.38
-3.12
-4.39
-4.94
-4.76
-4.04
-3.16
-2.42
-1.99
-1.81
-1.73
-1.59
-1.35
-1.06
-0.81
-0.64
-0.57
-0.60
-0.76
-1.10
-1.68
-2.53
-3.61
-4.76
-5.79
-6.49
-6.69
-6.34
-5.50
-4.34
-3.11
-1.99
-1.12
-0.46
0.08
0.66
1.36
2.19
3.08
3.97
4.78
5.51
6.13
6.62
6.95
7.07
6.96
6.68
6.31
5.93
5.60
5.38
5.30
5.37
5.61
5.96
6.26
6.25
5.69
4.41
2.49
0.20
-2.04
-3.86
-5.04
-5.59
-5.70
-5.61
-5.54
-5.66
-6.03
-6.67
-7.51
-8.42
-9.20
-9.64
-9.55
-8.90
-7.80
-6.48
-5.19
-4.08
-3.13
-2.25
-1.33
-0.33
0.74
1.80
2.84
3.89
5.00
6.16
7.31
8.34
9.16
9.77
10.25
10.65
10.99
11.15
11.02
10.52
9.69
8.65
7.53
6.45
5.46
4.55
3.73
3.04
2.53
2.20
2.01
1.85
1.60
1.14
0.43
-0.49
-1.53
-2.54
-3.41
-4.08
-4.60
-5.02
-5.36
-5.55
-5.47
-4.96
-4.00
-2.67
-1.21
0.14
1.21
1.99
2.62
3.23
3.94
4.70
5.42
5.98
6.34
6.52
6.63
6.75
6.93
7.12
7.26
7.30
7.21
7.03
6.82
6.57
6.22
5.60
4.53
2.82
0.42
-2.57
-5.86
-9.07
-11.83
-13.94
-15.32
-16.07
-16.35
-16.30
-16.06
-15.74
-15.48
-15.40
-15.59
-16.04
-16.62
-17.14
-17.38
-17.23
-16.58
-15.41
-13.76
-11.68
-9.29
-6.76
-4.28
-1.98
0.07
1.95
3.77
5.61
7.45
9.18
10.64
11.70
12.32
12.55
12.54
12.44
12.38
12.41
12.51
12.59
12.54
12.27
11.76
11.03
10.18
9.32
8.53
7.83
7.19
6.55
5.87
5.17
4.46
3.74
2.94
1.99
0.84
-0.47
-1.80
-3.02
-4.05
-4.94
-5.85
-6.91
-8.12
-9.30
-10.13
-10.32
-9.72
-8.44
-6.78
-5.12
-3.78
-2.90
-2.38
-2.02
-1.58
-0.94
-0.12
0.73
1.46
2.01
2.40
2.72
3.01
3.25
3.37
3.29
3.03
2.68
2.38
2.25
2.38
2.74
3.25
3.76
4.10
4.10
3.65
2.80
1.71
0.68
-0.02
-0.25
-0.07
0.25
0.39
0.07
-0.80
-2.09
-3.50
-4.66
-5.23
-5.02
-4.03
-2.37
-0.30
1.93
4.08
5.98
7.53
8.73
9.60
10.24
10.74
11.21
11.71
12.30
13.00
13.79
14.63
15.43
16.05
16.35
16.23
15.65
14.66
13.42
12.11
10.87
9.77
8.84
8.03
7.29
6.61
5.96
5.33
4.73
4.12
3.50
2.85
2.13
1.31
0.38
-0.65
-1.67
-2.55
-3.15
-3.42
-3.44
-3.41
-3.55
-4.02
-4.78
-5.68
-6.44
-6.86
-6.91
-6.73
-6.54
-6.52
-6.71
-6.99
-7.17
-7.11
-6.81
-6.45
-6.24
-6.36
-6.86
-7.73
-8.90
-10.34
-12.04
-13.99
-16.10
-18.21
-20.12
-21.69
-22.85
-23.63
-24.09
-24.37
-24.55
-24.71
-24.87
-24.97
-24.94
-24.68
-24.10
-23.10
-21.58
-19.38
-16.41
-12.61
-8.08
-3.11
1.97
6.83
11.33
15.51
19.55
23.56
27.50
31.17
34.32
36.81
38.63
39.93
40.87
41.49
41.67
41.21
39.93
37.89
35.35
32.70
30.26
28.18
26.41
24.71
22.86
20.71
18.19
15.30
12.04
8.43
4.57
0.63
-3.12
-6.41
-9.06
-11.10
-12.68
-14.02
-15.22
-16.27
-16.97
-17.14
-16.69
-15.71
-14.46
-13.23
-12.26
-11.58
-11.10
-10.69
-10.22
-9.70
-9.20
-8.82
-8.52
-8.20
-7.71
-6.96
-6.01
-5.04
-4.33
-4.09
-4.41
-5.25
-6.43
-7.70
-8.87
-9.74
-10.21
-10.27
-9.99
-9.55
-9.11
-8.85
-8.81
-8.98
-9.32
-9.81
-10.46
-11.31
-12.35
-13.50
-14.66
-15.74
-16.69
-17.46
-18.01
-18.26
-18.07
-17.34
-16.07
-14.33
-12.29
-10.16
-8.08
-6.16
-4.48
-3.07
-1.89
-0.89
0.02
0.94
1.88
2.80
3.61
4.19
4.49
4.50
4.26
3.83
3.22
2.45
1.51
0.38
-0.89
-2.23
-3.56
-4.79
-5.85
-6.70
-7.33
-7.80
-8.19
-8.62
-9.15
-9.80
-10.45
-10.83
-10.63
-9.57
-7.54
-4.66
-1.29
2.15
5.28
7.90
10.03
11.82
13.39
14.84
16.10
17.03
17.48
17.35
16.64
15.42
13.85
12.11
10.39
8.80
7.32
5.88
4.40
2.87
1.37
0.06
-0.94
-1.63
-2.14
-2.64
-3.26
-3.97
-4.70
-5.37
-6.03
-6.82
-7.92
-9.43
-11.24
-13.05
-14.47
-15.12
-14.76
-13.36
-11.13
-8.44
-5.84
-3.86
-2.95
-3.37
-5.13
-7.97
-11.38
-14.72
-17.30
-18.53
-18.11
-16.08
-12.87
-9.12
-5.46
-2.35
0.06
1.85
3.20
4.24
5.03
5.57
5.92
6.16
6.35
6.46
6.37
5.98
5.27
4.37
3.54
2.98
2.82
3.03
3.54
4.28
5.31
6.74
8.70
11.22
14.22
17.54
21.02
24.53
27.91
31.00
33.56
35.29
35.90
35.26
33.52
31.09
28.59
26.62
25.64
25.81
26.99
28.80
30.73
32.24
32.85
32.21
30.24
27.05
22.98
18.44
13.74
9.05
4.33
-0.48
-5.38
-10.21
-14.70
-18.54
-21.59
-23.84
-25.48
-26.76
-27.90
-28.99
-30.00
-30.75
-30.99
-30.47
-29.02
-26.65
-23.49
-19.83
-16.00
-12.30
-8.95
-6.07
-3.75
-1.96
-0.65
0.33
1.23
2.31
3.75
5.60
7.71
9.80
11.60
12.97
13.89
14.53
15.03
15.46
15.79
15.88
15.63
15.02
14.13
13.11
12.05
11.00
9.91
8.78
7.64
6.53
5.53
4.60
3.65
2.54
1.19
-0.41
-2.15
-3.84
-5.35
-6.57
-7.48
-8.15
-8.67
-9.13
-9.57
-10.03
-10.50
-10.97
-11.36
-11.62
-11.64
-11.36
-10.75
-9.86
-8.74
-7.47
-6.08
-4.59
-2.98
-1.29
0.45
2.16
3.76
5.14
6.22
6.94
7.27
7.27
7.08
6.90
6.91
7.18
7.65
8.15
8.51
8.65
8.63
8.56
8.59
8.79
9.10
9.41
9.58
9.50
9.12
8.49
7.68
6.83
6.05
5.40
4.89
4.44
3.94
3.29
2.41
1.29
0.01
-1.34
-2.60
-3.56
-4.03
-3.90
-3.20
-2.09
-0.84
0.32
1.29
2.08
2.81
3.58
4.41
5.23
5.94
6.47
6.77
6.84
6.67
6.22
5.45
4.33
2.91
1.31
-0.29
-1.71
-2.86
-3.70
-4.33
-4.89
-5.54
-6.34
-7.30
-8.32
-9.32
-10.25
-11.08
-11.76
-12.24
-12.45
-12.36
-12.03
-11.62
-11.29
-11.19
-11.34
-11.69
-12.13
-12.54
-12.85
-13.03
-13.10
-13.06
-12.92
-12.68
-12.35
-11.92
-11.34
-10.56
-9.51
-8.14
-6.45
-4.53
-2.50
-0.49
1.35
2.94
4.26
5.34
6.21
6.91
7.46
7.89
8.24
8.61
9.05
9.60
10.16
10.58
10.68
10.36
9.66
8.79
7.97
7.39
7.10
7.01
6.93
6.69
6.13
5.22
4.02
2.67
1.36
0.27
-0.46
-0.77
-0.69
-0.32
0.24
0.85
1.42
1.88
2.21
2.40
2.48
2.55
2.70
2.97
3.33
3.66
3.80
3.62
3.09
2.27
1.32
0.40
-0.37
-0.90
-1.21
-1.35
-1.37
-1.32
-1.21
-1.04
-0.77
-0.40
0.00
0.35
0.51
0.41
0.03
-0.54
-1.21
-1.89
-2.55
-3.23
-4.00
-4.87
-5.85
-6.92
-8.02
-9.13
-10.23
-11.29
-12.23
-12.99
-13.46
-13.55
-13.22
-12.49
-11.48
-10.36
-9.31
-8.45
-7.78
-7.24
-6.71
-6.17
-5.65
-5.24
-4.98
-4.78
-4.46
-3.83
-2.84
-1.57
-0.28
0.77
1.43
1.68
1.70
1.68
1.76
1.99
2.28
2.46
2.39
2.01
1.36
0.58
-0.17
-0.80
-1.29
-1.71
-2.12
-2.55
-2.97
-3.42
-3.94
-4.63
-5.51
-6.47
-7.29
-7.69
-7.49
-6.72
-5.62
-4.51
-3.64
-3.08
-2.74
-2.44
-2.03
-1.46
-0.81
-0.19
0.32
0.70
1.02
1.37
1.82
2.39
3.03
3.67
4.24
4.68
4.98
5.12
5.11
4.95
4.64
4.21
3.70
3.17
2.71
2.39
2.23
2.19
2.21
2.20
2.11
1.91
1.61
1.20
0.72
0.19
-0.36
-0.84
-1.18
-1.27
-1.08
-0.64
-0.03
0.66
1.34
1.98
2.56
3.09
3.54
3.89
4.11
4.20
4.20
4.16
4.13
4.14
4.14
4.07
3.86
3.50
3.02
2.51
2.08
1.80
1.69
1.67
1.63
1.43
1.02
0.39
-0.34
-1.01
-1.52
-1.80
-1.91
-1.93
-1.97
-2.11
-2.40
-2.86
-3.47
-4.25
-5.15
-6.14
-7.11
-7.91
-8.36
-8.33
-7.75
-6.67
-5.27
-3.76
-2.36
-1.17
-0.16
0.80
1.84
3.00
4.19
5.21
5.85
6.04
5.85
5.49
5.16
5.00
4.98
4.99
4.91
4.67
4.34
4.01
3.80
3.72
3.69
3.62
3.43
3.12
2.73
2.29
1.79
1.19
0.44
-0.47
-1.44
-2.38
-3.17
-3.79
-4.33
-4.90
-5.62
-6.49
-7.39
-8.11
-8.44
-8.22
-7.46
-6.28
-4.93
-3.62
-2.52
-1.62
-0.83
0.00
0.99
2.11
3.26
4.28
5.06
5.56
5.87
6.08
6.28
6.43
6.44
6.22
5.73
5.07
4.40
3.91
3.67
3.63
3.63
3.42
2.89
2.00
0.89
-0.21
-1.13
-1.74
-2.06
-2.22
-2.37
-2.63
-3.11
-3.83
-4.77
-5.84
-6.83
-7.52
-7.63
-7.01
-5.67
-3.85
-1.91
-0.22
1.03
1.84
2.42
3.01
3.78
4.73
5.73
6.60
7.23
7.57
7.65
7.53
7.28
6.96
6.63
6.33
6.06
5.77
5.39
4.85
4.18
3.46
2.80
2.26
1.81
1.35
0.75
-0.06
-1.01
-1.99
-2.81
-3.37
-3.68
-3.88
-4.17
-4.73
-5.61
-6.77
-8.02
-9.12
-9.82
-9.94
-9.40
-8.24
-6.65
-4.84
-3.08
-1.54
-0.28
0.73
1.61
2.44
3.28
4.07
4.75
5.27
5.60
5.78
5.86
5.90
5.93
5.99
6.06
6.13
6.12
5.96
5.60
5.04
4.38
3.74
3.27
2.99
2.84
2.67
2.37
1.88
1.25
0.56
-0.08
-0.64
-1.12
-1.57
-1.99
-2.42
-2.92
-3.57
-4.45
-5.59
-6.91
-8.20
-9.18
-9.58
-9.22
-8.11
-6.43
-4.50
-2.66
-1.16
-0.12
0.53
0.99
1.49
2.19
3.15
4.23
5.27
6.07
6.50
6.58
6.39
6.07
5.77
5.60
5.59
5.73
5.95
6.13
6.16
5.96
5.52
4.92
4.27
3.65
3.13
2.66
2.20
1.72
1.19
0.65
0.10
-0.48
-1.15
-1.92
-2.72
-3.45
-3.98
-4.33
-4.61
-5.05
-5.82
-6.92
-8.13
-9.04
-9.28
-8.67
-7.30
-5.53
-3.80
-2.45
-1.58
-1.10
-0.76
-0.33
0.34
1.21
2.17
3.08
3.83
4.41
4.87
5.24
5.52
5.65
5.56
5.24
4.76
4.27
3.92
3.81
3.91
4.09
4.20
4.08
3.67
3.01
2.16
1.26
0.43
-0.29
-0.88
-1.39
-1.93
-2.58
-3.38
-4.27
-5.17
-5.97
-6.64
-7.22
-7.83
-8.57
-9.46
-10.33
-10.91
-10.92
-10.18
-8.72
-6.74
-4.61
-2.64
-1.06
0.11
0.99
1.74
2.51
3.34
4.19
4.94
5.52
5.90
6.09
6.15
6.15
6.17
6.22
6.33
6.44
6.51
6.47
6.28
5.94
5.52
5.10
4.74
4.46
4.19
3.84
3.30
2.56
1.65
0.65
-0.33
-1.21
-1.94
-2.49
-2.92
-3.28
-3.67
-4.19
-4.92
-5.88
-7.01
-8.15
-9.09
-9.64
-9.64
-9.10
-8.12
-6.92
-5.73
-4.70
-3.89
-3.22
-2.59
-1.88
-1.07
-0.21
0.62
1.33
1.90
2.36
2.74
3.11
3.49
3.85
4.16
4.36
4.41
4.30
4.06
3.70
3.26
2.76
2.20
1.60
1.00
0.43
-0.09
-0.55
-0.92
-1.18
-1.34
-1.42
-1.50
-1.72
-2.19
-2.98
-4.05
-5.26
-6.40
-7.25
-7.64
-7.48
-6.73
-5.44
-3.74
-1.85
-0.01
1.53
2.67
3.40
3.84
4.16
4.50
4.90
5.34
5.74
6.03
6.20
6.26
6.24
6.14
5.89
5.46
4.85
4.14
3.46
2.94
2.64
2.53
2.52
2.44
2.17
1.66
0.94
0.07
-0.81
-1.60
-2.23
-2.69
-3.02
-3.30
-3.66
-4.17
-4.86
-5.65
-6.41
-6.98
-7.20
-6.95
-6.21
-5.04
-3.59
-2.07
-0.69
0.40
1.13
1.53
1.70
1.81
1.95
2.18
2.52
2.93
3.34
3.65
3.73
3.51
2.97
2.24
1.54
1.06
0.91
1.01
1.18
1.18
0.87
0.24
-0.59
-1.46
-2.23
-2.85
-3.35
-3.78
-4.20
-4.67
-5.26
-5.99
-6.82
-7.62
-8.18
-8.29
-7.82
-6.79
-5.39
-3.87
-2.50
-1.43
-0.63
0.04
0.75
1.64
2.69
3.74
4.58
5.05
5.08
4.76
4.28
3.83
3.53
3.42
3.43
3.50
3.59
3.64
3.62
3.45
3.06
2.43
1.62
0.74
-0.12
-0.92
-1.66
-2.41
-3.23
-4.15
-5.18
-6.29
-7.45
-8.58
-9.51
-10.01
-9.89
-9.04
-7.58
-5.81
-4.07
-2.65
-1.61
-0.81
-0.02
0.97
2.22
3.60
4.90
5.90
6.50
6.71
6.68
6.54
6.39
6.27
6.12
5.91
5.64
5.36
5.10
4.81
4.42
3.80
2.91
1.82
0.73
-0.17
-0.77
-1.12
-1.40
-1.83
-2.60
-3.75
-5.23
-6.84
-8.37
-9.54
-10.10
-9.87
-8.84
-7.19
-5.26
-3.40
-1.86
-0.71
0.20
1.10
2.15
3.39
4.68
5.80
6.57
6.91
6.88
6.66
6.41
6.25
6.24
6.32
6.42
6.40
6.19
5.73
5.04
4.20
3.29
2.41
1.59
0.82
0.06
-0.72
-1.54
-2.36
-3.19
-4.01
-4.88
-5.81
-6.83
-7.86
-8.74
-9.28
-9.28
-8.61
-7.30
-5.57
-3.74
-2.10
-0.84
0.04
0.70
1.37
2.19
3.14
4.12
4.94
5.53
5.89
6.10
6.26
6.37
6.38
6.25
5.94
5.54
5.16
4.91
4.85
4.94
5.08
5.13
4.98
4.58
3.89
2.94
1.81
0.63
-0.46
-1.30
-1.82
-2.09
-2.23
-2.44
-2.92
-3.79
-5.05
-6.58
-8.17
-9.50
-10.25
-10.20
-9.27
-7.61
-5.57
-3.59
-2.02
-0.97
-0.31
0.26
1.08
2.28
3.76
5.22
6.33
6.90
6.98
6.78
6.59
6.60
6.80
7.08
7.29
7.35
7.28
7.19
7.17
7.22
7.26
7.16
6.83
6.24
5.43
4.52
3.62
2.82
2.17
1.65
1.20
0.72
0.12
-0.65
-1.58
-2.56
-3.47
-4.21
-4.77
-5.17
-5.52
-5.90
-6.33
-6.81
-7.33
-7.92
-8.61
-9.43
-10.31
-11.07
-11.43
-11.13
-10.04
-8.26
-6.07
-3.89
-2.06
-0.79
-0.03
0.41
0.82
1.41
2.24
3.19
4.08
4.71
5.03
5.14
5.22
5.42
5.75
6.07
6.22
6.11
5.82
5.53
5.43
5.56
5.77
5.79
5.43
4.65
3.63
2.62
1.86
1.42
1.24
1.13
0.89
0.43
-0.27
-1.09
-1.89
-2.57
-3.07
-3.43
-3.76
-4.16
-4.72
-5.43
-6.26
-7.15
-8.06
-8.94
-9.68
-10.14
-10.13
-9.52
-8.28
-6.56
-4.66
-2.87
-1.43
-0.40
0.31
0.88
1.49
2.22
3.05
3.92
4.74
5.46
6.04
6.44
6.66
6.71
6.62
6.47
6.35
6.36
6.54
6.90
7.38
7.86
8.21
8.29
8.06
7.54
6.84
6.11
5.44
4.87
4.35
3.78
3.10
2.27
1.33
0.33
-0.64
-1.53
-2.30
-2.94
-3.49
-3.98
-4.47
-5.02
-5.68
-6.53
-7.61
-8.89
-10.23
-11.42
-12.18
-12.30
-11.70
-10.45
-8.82
-7.10
-5.57
-4.39
-3.56
-2.94
-2.39
-1.78
-1.08
-0.34
0.36
0.96
1.45
1.87
2.25
2.59
2.85
2.96
2.92
2.79
2.67
2.68
2.86
3.17
3.51
3.74
3.74
3.47
3.00
2.50
2.12
1.96
2.00
2.08
2.03
1.71
1.12
0.35
-0.47
-1.24
-1.92
-2.54
-3.12
-3.68
-4.17
-4.58
-4.95
-5.37
-5.94
-6.68
-7.48
-8.12
-8.34
-7.95
-6.94
-5.45
-3.74
-2.10
-0.73
0.28
0.96
1.40
1.75
2.07
2.39
2.66
2.85
2.92
2.94
2.96
3.06
3.21
3.32
3.27
3.05
2.72
2.44
2.33
2.42
2.58
2.66
2.55
2.26
1.89
1.53
1.24
0.95
0.61
0.19
-0.32
-0.85
-1.40
-1.95
-2.54
-3.16
-3.79
-4.38
-4.90
-5.39
-5.97
-6.73
-7.64
-8.56
-9.22
-9.35
-8.81
-7.62
-5.97
-4.11
-2.32
-0.74
0.52
1.49
2.22
2.85
3.49
4.24
5.10
5.98
6.75
7.28
7.52
7.51
7.35
7.09
6.76
6.38
5.93
5.44
4.96
4.54
4.20
3.91
3.61
3.28
2.89
2.47
2.07
1.72
1.47
1.30
1.17
1.01
0.76
0.42
0.01
-0.42
-0.85
-1.29
-1.84
-2.61
-3.66
-4.91
-6.16
-7.11
-7.47
-7.15
-6.24
-5.00
-3.75
-2.71
-1.99
-1.56
-1.31
-1.16
-1.04
-0.91
-0.80
-0.70
-0.64
-0.62
-0.60
-0.52
-0.33
0.01
0.46
0.92
1.29
1.55
1.71
1.86
2.07
2.31
2.53
2.65
2.63
2.47
2.22
1.92
1.63
1.38
1.21
1.08
0.96
0.81
0.60
0.33
0.13
0.13
0.44
1.08
1.98
2.97
3.87
4.57
5.04
5.30
5.43
5.46
5.36
5.09
4.63
4.01
3.37
2.89
2.69
2.78
3.00
3.12
2.97
2.50
1.84
1.17
0.64
0.26
-0.08
-0.55
-1.23
-2.07
-2.95
-3.73
-4.34
-4.81
-5.25
-5.74
-6.31
-6.91
-7.46
-7.91
-8.22
-8.38
-8.33
-7.97
-7.23
-6.08
-4.63
-3.10
-1.74
-0.72
-0.08
0.23
0.34
0.37
0.40
0.43
0.47
0.52
0.61
0.78
1.00
1.26
1.49
1.61
1.58
1.38
1.03
0.59
0.10
-0.40
-0.92
-1.51
-2.18
-2.92
-3.69
-4.41
-5.08
-5.71
-6.35
-7.03
-7.69
-8.19
-8.33
-7.97
-7.06
-5.73
-4.19
-2.69
-1.38
-0.33
0.51
1.25
1.99
2.78
3.62
4.43
5.13
5.61
5.87
5.91
5.80
5.57
5.26
4.90
4.50
4.12
3.79
3.53
3.29
2.98
2.50
1.80
0.90
-0.12
-1.18
-2.22
-3.24
-4.28
-5.35
-6.43
-7.43
-8.23
-8.67
-8.61
-7.99
-6.89
-5.50
-4.12
-2.98
-2.23
-1.81
-1.56
-1.30
-0.90
-0.34
0.24
0.71
0.93
0.90
0.69
0.45
0.30
0.30
0.46
0.70
0.95
1.14
1.23
1.22
1.11
0.91
0.63
0.27
-0.12
-0.51
-0.87
-1.24
-1.71
-2.35
-3.18
-4.10
-4.90
-5.33
-5.18
-4.36
-2.98
-1.28
0.47
2.07
3.45
4.66
5.80
6.90
7.94
8.82
9.45
9.80
9.89
9.81
9.63
9.36
8.95
8.36
7.61
6.76
5.95
5.28
4.76
4.37
3.97
3.46
2.74
1.77
0.62
-0.60
-1.77
-2.82
-3.79
-4.79
-5.97
-7.43
-9.05
-10.59
-11.69
-12.08
-11.70
-10.70
-9.36
-7.91
-6.51
-5.13
-3.68
-2.13
-0.49
1.12
2.58
3.82
4.83
5.62
6.15
6.39
6.31
5.97
5.51
5.14
5.00
5.08
5.26
5.31
5.06
4.48
3.67
2.80
2.04
1.44
0.95
0.44
-0.23
-1.10
-2.17
-3.35
-4.55
-5.67
-6.55
-7.04
-6.97
-6.25
-4.90
-3.15
-1.32
0.26
1.42
2.17
2.68
3.17
3.76
4.44
5.10
5.66
6.07
6.35
6.54
6.60
6.49
6.18
5.74
5.31
5.00
4.82
4.68
4.40
3.85
3.04
2.11
1.22
0.49
-0.08
-0.54
-0.96
-1.39
-1.82
-2.28
-2.83
-3.59
-4.63
-5.93
-7.29
-8.43
-9.03
-8.87
-7.96
-6.47
-4.73
-3.04
-1.63
-0.57
0.20
0.80
1.36
1.94
2.55
3.14
3.64
3.98
4.15
4.18
4.14
4.08
4.02
3.89
3.62
3.21
2.76
2.40
2.28
2.37
2.53
2.52
2.15
1.39
0.36
-0.72
-1.68
-2.50
-3.24
-4.05
-5.03
-6.17
-7.37
-8.41
-9.07
-9.16
-8.61
-7.44
-5.88
-4.18
-2.62
-1.34
-0.36
0.44
1.18
1.94
2.72
3.45
4.07
4.55
4.91
5.21
5.50
5.77
6.01
6.16
6.16
5.96
5.60
5.15
4.71
4.37
4.15
3.99
3.79
3.44
2.89
2.15
1.28
0.36
-0.53
-1.35
-2.07
-2.72
-3.32
-3.92
-4.60
-5.40
-6.29
-7.15
-7.75
-7.89
-7.43
-6.39
-4.97
-3.44
-2.05
-0.96
-0.14
0.52
1.20
2.03
3.05
4.22
5.41
6.48
7.32
7.87
8.14
8.17
8.00
7.66
7.21
6.73
6.33
6.11
6.10
6.20
6.26
6.13
5.73
5.07
4.27
3.46
2.71
2.02
1.32
0.55
-0.32
-1.25
-2.19
-3.08
-3.90
-4.64
-5.31
-5.95
-6.58
-7.26
-8.02
-8.80
-9.45
-9.74
-9.46
-8.51
-7.07
-5.46
-4.06
-3.14
-2.70
-2.55
-2.41
-2.12
-1.63
-1.04
-0.41
0.23
0.91
1.65
2.39
3.03
3.46
3.66
3.66
3.56
3.40
3.20
2.97
2.72
2.50
2.32
2.19
2.06
1.86
1.58
1.24
0.94
0.73
0.64
0.64
0.61
0.47
0.12
-0.44
-1.16
-1.94
-2.68
-3.28
-3.74
-4.13
-4.59
-5.26
-6.23
-7.51
-8.93
-10.26
-11.16
-11.37
-10.74
-9.35
-7.43
-5.31
-3.29
-1.55
-0.13
1.00
1.93
2.70
3.34
3.89
4.37
4.81
5.20
5.47
5.57
5.41
5.02
4.47
3.90
3.45
3.20
3.19
3.36
3.65
3.96
4.21
4.33
4.24
3.90
3.28
2.45
1.54
0.75
0.23
0.02
0.01
-0.02
-0.25
-0.77
-1.51
-2.30
-2.98
-3.49
-3.88
-4.28
-4.81
-5.50
-6.34
-7.26
-8.23
-9.16
-9.91
-10.29
-10.03
-8.96
-7.14
-4.84
-2.52
-0.59
0.72
1.43
1.78
2.08
2.51
3.16
3.94
4.75
5.47
6.03
6.39
6.54
6.48
6.25
5.94
5.66
5.48
5.49
5.66
5.91
6.15
6.28
6.24
6.01
5.62
5.14
4.61
4.08
3.53
2.95
2.31
1.59
0.82
0.01
-0.77
-1.50
-2.11
-2.54
-2.76
-2.79
-2.73
-2.73
-2.93
-3.43
-4.23
-5.25
-6.38
-7.54
-8.64
-9.59
-10.27
-10.50
-10.14
-9.16
-7.67
-5.93
-4.21
-2.73
-1.59
-0.76
-0.11
0.50
1.19
1.97
2.80
3.56
4.15
4.55
4.83
5.10
5.41
5.76
6.04
6.12
5.94
5.55
5.07
4.67
4.40
4.27
4.19
4.07
3.86
3.57
3.22
2.84
2.47
2.13
1.84
1.62
1.50
1.43
1.33
1.08
0.58
-0.18
-1.08
-1.92
-2.51
-2.75
-2.66
-2.44
-2.31
-2.46
-2.97
-3.75
-4.57
-5.16
-5.25
-4.66
-3.36
-1.48
0.68
2.80
4.54
5.73
6.34
6.49
6.35
6.13
5.94
5.83
5.79
5.78
5.77
5.73
5.65
5.53
5.35
5.09
4.76
4.39
4.03
3.71
3.39
3.00
2.44
1.67
0.73
-0.22
-0.98
-1.39
-1.41
-1.16
-0.87
-0.74
-0.87
-1.25
-1.79
-2.39
-2.99
-3.59
-4.21
-4.82
-5.34
-5.70
-5.91
-6.06
-6.33
-6.80
-7.41
-7.94
-8.09
-7.62
-6.44
-4.67
-2.51
-0.19
2.09
4.18
5.94
7.25
8.05
8.37
8.35
8.14
7.87
7.56
7.14
6.50
5.59
4.45
3.13
1.76
0.41
-0.83
-1.94
-2.92
-3.81
-4.66
-5.53
-6.45
-7.38
-8.26
-9.06
-9.77
-10.43
-11.08
-11.74
-12.39
-13.01
-13.60
-14.20
-14.86
-15.60
-16.39
-17.16
-17.84
-18.46
-19.17
-20.11
-21.36
-22.82
-24.24
-25.29
-25.68
-25.30
-24.26
-22.82
-21.30
-19.95
-18.90
-18.14
-17.55
-16.93
-16.07
-14.78
-12.97
-10.66
-7.94
-5.00
-1.99
0.92
3.62
6.02
8.04
9.65
10.86
11.70
12.30
12.86
13.65
15.00
17.14
20.12
23.67
27.27
30.36
32.53
33.70
34.11
34.17
34.24
34.46
34.82
35.26
35.78
36.38
37.06
37.64
37.86
37.48
36.45
34.98
33.44
32.14
31.13
30.18
28.82
26.60
23.28
18.92
13.84
8.54
3.49
-0.99
-4.77
-7.91
-10.57
-12.93
-15.04
-16.85
-18.25
-19.19
-19.73
-20.01
-20.25
-20.53
-20.81
-20.94
-20.74
-20.16
-19.29
-18.36
-17.58
-17.07
-16.78
-16.52
-16.08
-15.31
-14.21
-12.91
-11.61
-10.47
-9.54
-8.71
-7.79
-6.54
-4.80
-2.48
0.45
3.94
7.87
12.01
15.97
19.25
21.33
21.87
20.81
18.43
15.22
11.78
8.57
5.89
3.81
2.30
1.32
0.90
1.09
1.89
3.14
4.49
5.46
5.60
4.63
2.63
-0.09
-2.99
-5.59
-7.57
-8.87
-9.65
-10.13
-10.55
-10.99
-11.44
-11.84
-12.16
-12.47
-12.90
-13.58
-14.55
-15.67
-16.71
-17.43
-17.72
-17.68
-17.52
-17.46
-17.64
-18.01
-18.36
-18.45
-18.08
-17.21
-15.94
-14.44
-12.87
-11.29
-9.63
-7.76
-5.58
-3.06
-0.31
2.48
5.04
7.16
8.73
9.79
10.49
11.05
11.68
12.44
13.29
14.07
14.60
14.79
14.64
14.27
13.79
13.27
12.70
12.03
11.23
10.33
9.47
8.76
8.27
8.00
7.86
7.74
7.53
7.17
6.63
5.92
5.10
4.20
3.30
2.45
1.67
0.95
0.22
-0.56
-1.39
-2.26
-3.10
-3.84
-4.43
-4.87
-5.19
-5.44
-5.67
-5.94
-6.23
-6.47
-6.61
-6.60
-6.40
-6.05
-5.61
-5.13
-4.63
-4.16
-3.70
-3.27
-2.84
-2.37
-1.82
-1.12
-0.27
0.67
1.61
2.44
3.14
3.72
4.24
4.74
5.22
5.63
5.92
6.09
6.18
6.23
6.27
6.23
6.08
5.80
5.49
5.28
5.32
5.68
6.31
7.10
7.92
8.65
9.22
9.57
9.69
9.57
9.25
8.75
8.13
7.42
6.61
5.67
4.59
3.32
1.90
0.34
-1.27
-2.81
-4.17
-5.23
-5.97
-6.42
-6.69
-6.89
-7.09
-7.29
-7.42
-7.44
-7.34
-7.20
-7.10
-7.11
-7.22
-7.40
-7.58
-7.72
-7.82
-7.88
-7.89
-7.82
-7.60
-7.14
-6.39
-5.37
-4.13
-2.75
-1.34
0.01
1.25
2.36
3.36
4.26
5.05
5.68
6.10
6.25
6.14
5.82
5.33
4.72
3.99
3.11
2.07
0.90
-0.33
-1.58
-2.80
-3.95
-5.00
-5.89
-6.59
-7.08
-7.43
-7.75
-8.09
-8.47
-8.86
-9.19
-9.37
-9.41
-9.33
-9.16
-8.95
-8.71
-8.47
-8.24
-8.05
-7.92
-7.82
-7.71
-7.54
-7.25
-6.79
-6.16
-5.39
-4.52
-3.57
-2.53
-1.37
-0.11
1.21
2.48
3.63
4.63
5.56
6.52
7.58
8.71
9.76
10.55
10.93
10.89
10.51
9.90
9.17
8.38
7.55
6.68
5.81
4.98
4.23
3.53
2.84
2.13
1.37
0.60
-0.13
-0.74
-1.21
-1.57
-1.87
-2.14
-2.41
-2.64
-2.85
-3.03
-3.23
-3.52
-3.93
-4.45
-5.05
-5.65
-6.20
-6.66
-7.03
-7.31
-7.54
-7.73
-7.88
-7.93
-7.76
-7.27
-6.34
-4.97
-3.25
-1.36
0.49
2.18
3.67
5.01
6.27
7.47
8.53
9.36
9.85
9.99
9.88
9.64
9.34
9.01
8.55
7.89
6.99
5.91
4.79
3.76
2.93
2.31
1.81
1.32
0.70
-0.10
-1.04
-1.99
-2.83
-3.48
-3.96
-4.36
-4.79
-5.31
-5.92
-6.50
-6.94
-7.14
-7.07
-6.72
-6.15
-5.39
-4.47
-3.45
-2.39
-1.41
-0.62
-0.09
0.17
0.22
0.17
0.16
0.25
0.42
0.60
0.69
0.65
0.48
0.30
0.21
0.26
0.45
0.72
0.97
1.12
1.16
1.09
0.93
0.74
0.54
0.38
0.31
0.37
0.55
0.83
1.10
1.26
1.24
1.04
0.71
0.33
-0.03
-0.38
-0.72
-1.08
-1.45
-1.77
-2.01
-2.11
-2.11
-2.05
-1.98
-1.96
-1.98
-2.03
-2.08
-2.09
-2.03
-1.86
-1.55
-1.10
-0.55
0.05
0.66
1.22
1.73
2.14
2.44
2.61
2.67
2.68
2.68
2.66
2.57
2.31
1.78
0.99
-0.01
-1.08
-2.14
-3.15
-4.13
-5.10
-6.07
-7.01
-7.88
-8.72
-9.58
-10.56
-11.70
-12.98
-14.33
-15.67
-16.94
-18.15
-19.34
-20.57
-21.90
-23.34
-24.92
-26.63
-28.44
-30.33
-32.26
-34.25
-36.33
-38.49
-40.66
-42.61
-44.05
-44.60
-43.97
-41.99
-38.59
-33.83
-27.84
-20.84
-13.17
-5.32
2.14
8.64
13.80
17.53
20.03
21.69
22.89
23.93
24.92
25.87
26.86
28.06
29.81
32.44
36.11
40.66
45.64
50.44
54.49
57.47
59.33
60.23
60.33
59.72
58.37
56.34
53.82
51.17
48.81
46.96
45.59
44.35
42.83
40.71
37.93
34.71
31.36
28.15
25.16
22.26
19.25
15.91
12.17
8.07
3.77
-0.51
-4.46
-7.81
-10.35
-12.04
-12.98
-13.46
-13.85
-14.45
-15.43
-16.72
-18.10
-19.29
-20.04
-20.22
-19.77
-18.72
-17.14
-15.11
-12.75
-10.15
-7.44
-4.69
-1.97
0.65
3.05
5.11
6.72
7.81
8.35
8.40
8.05
7.39
6.47
5.35
4.04
2.61
1.11
-0.36
-1.78
-3.13
-4.46
-5.78
-7.11
-8.36
-9.49
-10.50
-11.44
-12.45
-13.65
-15.09
-16.70
-18.36
-19.96
-21.48
-22.96
-24.49
-26.09
-27.70
-29.17
-30.34
-31.11
-31.47
-31.51
-31.35
-31.12
-30.89
-30.60
-30.09
-29.12
-27.44
-24.94
-21.69
-17.95
-14.17
-10.78
-8.10
-6.25
-5.19
-4.79
-4.94
-5.54
-6.46
-7.49
-8.27
-8.41
-7.61
-5.81
-3.23
-0.35
2.27
4.20
5.20
5.34
4.88
4.21
3.65
3.46
3.70
4.26
4.99
5.66
6.11
6.29
6.23
6.01
5.69
5.29
4.80
4.23
3.65
3.18
2.94
2.94
3.03
3.00
2.65
1.93
0.99
0.09
-0.58
-0.99
-1.28
-1.70
-2.44
-3.48
-4.65
-5.63
-6.12
-5.95
-5.05
-3.50
-1.47
0.85
3.19
5.32
7.09
8.40
9.27
9.81
10.09
10.18
10.08
9.77
9.28
8.68
8.08
7.57
7.19
6.91
6.69
6.50
6.33
6.18
6.06
5.89
5.63
5.20
4.61
3.90
3.15
2.47
1.94
1.60
1.45
1.41
1.35
1.14
0.68
-0.06
-1.01
-2.06
-3.11
-4.11
-5.10
-6.17
-7.43
-8.91
-10.57
-12.22
-13.61
-14.42
-14.36
-13.28
-11.23
-8.51
-5.54
-2.79
-0.55
1.12
2.36
3.41
4.44
5.48
6.44
7.21
7.75
8.12
8.48
8.94
9.50
10.11
10.62
10.94
11.00
10.81
10.39
9.79
9.09
8.36
7.66
7.01
6.38
5.66
4.77
3.66
2.41
1.13
0.01
-0.86
-1.48
-1.96
-2.49
-3.24
-4.35
-5.82
-7.56
-9.38
-11.01
-12.11
-12.38
-11.62
-9.83
-7.21
-4.17
-1.18
1.37
3.28
4.57
5.43
6.10
6.75
7.46
8.19
8.89
9.49
9.98
10.37
10.66
10.88
11.01
11.06
11.02
10.88
10.62
10.24
9.75
9.16
8.52
7.86
7.18
6.46
5.64
4.73
3.77
2.82
1.93
1.14
0.39
-0.36
-1.21
-2.21
-3.38
-4.74
-6.30
-8.10
-10.10
-12.18
-14.07
-15.37
-15.67
-14.68
-12.45
-9.32
-5.82
-2.51
0.23
2.29
3.79
4.95
6.00
7.04
8.11
9.14
10.08
10.83
11.34
11.57
11.57
11.43
11.24
11.06
10.93
10.84
10.80
10.85
10.96
11.05
10.94
10.46
9.53
8.20
6.70
5.30
4.24
3.58
3.24
3.04
2.76
2.24
1.38
0.20
-1.17
-2.55
-3.77
-4.72
-5.45
-6.12
-6.98
-8.23
-10.00
-12.22
-14.61
-16.77
-18.21
-18.49
-17.43
-15.12
-11.96
-8.49
-5.25
-2.62
-0.71
0.60
1.57
2.49
3.54
4.80
6.18
7.52
8.67
9.55
10.17
10.62
10.99
11.33
11.57
11.65
11.51
11.16
10.73
10.36
10.15
10.09
10.05
9.83
9.29
8.39
7.24
6.04
4.97
4.10
3.42
2.80
2.12
1.29
0.25
-0.94
-2.21
-3.45
-4.55
-5.48
-6.28
-7.06
-8.01
-9.26
-10.87
-12.74
-14.69
-16.44
-17.69
-18.12
-17.50
-15.76
-13.06
-9.79
-6.45
-3.52
-1.23
0.45
1.76
3.00
4.35
5.79
7.17
8.30
9.09
9.53
9.73
9.81
9.86
9.95
10.08
10.24
10.39
10.50
10.52
10.43
10.23
9.92
9.53
9.07
8.52
7.83
6.99
6.03
5.04
4.13
3.40
2.82
2.32
1.74
0.92
-0.20
-1.58
-3.04
-4.38
-5.42
-6.14
-6.62
-7.06
-7.69
-8.70
-10.18
-12.08
-14.19
-16.22
-17.80
-18.56
-18.22
-16.68
-14.08
-10.79
-7.28
-4.03
-1.36
0.61
1.98
2.99
3.87
4.74
5.62
6.47
7.21
7.84
8.42
9.05
9.78
10.56
11.22
11.60
11.63
11.33
10.84
10.36
9.99
9.75
9.55
9.25
8.78
8.12
7.31
6.42
5.51
4.60
3.72
2.87
2.05
1.26
0.43
-0.48
-1.50
-2.63
-3.81
-4.92
-5.90
-6.70
-7.37
-8.00
-8.72
-9.64
-10.89
-12.53
-14.50
-16.59
-18.42
-19.49
-19.36
-17.81
-14.93
-11.16
-7.10
-3.36
-0.37
1.71
2.99
3.75
4.32
4.94
5.70
6.58
7.48
8.31
9.02
9.62
10.11
10.46
10.57
10.35
9.82
9.09
8.37
7.86
7.66
7.70
7.81
7.77
7.43
6.75
5.81
4.74
3.69
2.75
2.00
1.44
1.05
0.71
0.27
-0.42
-1.43
-2.70
-4.03
-5.20
-6.07
-6.64
-7.11
-7.70
-8.59
-9.87
-11.48
-13.33
-15.26
-17.04
-18.36
-18.84
-18.17
-16.25
-13.28
-9.73
-6.20
-3.18
-0.94
0.53
1.45
2.11
2.76
3.53
4.43
5.40
6.33
7.13
7.71
8.07
8.20
8.14
7.95
7.68
7.37
7.02
6.65
6.26
5.81
5.31
4.75
4.14
3.54
2.97
2.48
2.03
1.57
1.02
0.32
-0.54
-1.52
-2.54
-3.53
-4.44
-5.27
-6.11
-7.10
-8.42
-10.12
-12.13
-14.14
-15.71
-16.40
-15.91
-14.24
-11.64
-8.57
-5.50
-2.80
-0.65
0.95
2.14
3.09
3.99
4.91
5.90
6.92
7.91
8.78
9.48
9.94
10.10
9.95
9.52
8.91
8.27
7.77
7.47
7.33
7.21
6.89
6.22
5.16
3.81
2.40
1.18
0.29
-0.25
-0.61
-1.03
-1.71
-2.72
-3.94
-5.18
-6.25
-7.09
-7.84
-8.73
-9.99
-11.73
-13.82
-15.97
-17.75
-18.75
-18.65
-17.34
-14.90
-11.67
-8.14
-4.81
-2.04
0.01
1.49
2.65
3.79
5.08
6.48
7.78
8.76
9.30
9.46
9.40
9.35
9.43
9.65
9.90
10.05
10.05
9.92
9.70
9.44
9.09
8.55
7.76
6.73
5.53
4.29
3.09
1.93
0.78
-0.41
-1.62
-2.79
-3.86
-4.79
-5.60
-6.38
-7.22
-8.19
-9.36
-10.80
-12.55
-14.56
-16.64
-18.36
-19.23
-18.80
-16.89
-13.71
-9.82
-5.91
-2.57
-0.08
1.64
2.92
4.12
5.47
7.01
8.56
9.89
10.84
11.37
11.57
11.59
11.56
11.52
11.44
11.28
11.01
10.68
10.32
9.99
9.65
9.22
8.57
7.64
6.44
5.10
3.79
2.68
1.84
1.19
0.57
-0.21
-1.26
-2.55
-3.98
-5.40
-6.72
-7.95
-9.16
-10.45
-11.92
-13.60
-15.42
-17.17
-18.55
-19.17
-18.70
-16.99
-14.21
-10.79
-7.33
-4.32
-2.02
-0.39
0.85
2.03
3.40
5.01
6.73
8.34
9.61
10.42
10.80
10.81
10.61
10.30
9.93
9.55
9.19
8.91
8.77
8.81
8.95
9.05
8.89
8.32
7.31
5.99
4.59
3.38
2.48
1.88
1.41
0.83
-0.07
-1.33
-2.87
-4.44
-5.83
-6.89
-7.58
-8.03
-8.43
-9.04
-10.09
-11.71
-13.87
-16.26
-18.38
-19.60
-19.41
-17.60
-14.41
-10.39
-6.29
-2.71
0.01
1.91
3.23
4.30
5.35
6.44
7.53
8.51
9.30
9.90
10.37
10.77
11.13
11.39
11.46
11.22
10.64
9.81
8.88
8.03
7.36
6.84
6.37
5.81
5.11
4.28
3.44
2.76
2.30
2.00
1.67
1.09
0.11
-1.26
-2.84
-4.34
-5.52
-6.31
-6.79
-7.22
-7.89
-9.04
-10.74
-12.92
-15.29
-17.45
-18.89
-19.19
-18.08
-15.60
-12.10
-8.18
-4.47
-1.42
0.81
2.37
3.59
4.78
6.12
7.56
8.91
10.01
10.73
11.10
11.21
11.19
11.10
10.99
10.85
10.71
10.60
10.59
10.67
10.76
10.70
10.30
9.41
8.07
6.43
4.81
3.48
2.59
2.09
1.77
1.33
0.57
-0.61
-2.11
-3.71
-5.19
-6.35
-7.16
-7.73
-8.27
-9.07
-10.33
-12.15
-14.38
-16.66
-18.47
-19.25
-18.66
-16.65
-13.55
-9.96
-6.50
-3.66
-1.60
-0.18
0.94
2.08
3.43
4.96
6.45
7.71
8.60
9.14
9.44
9.64
9.80
9.89
9.81
9.54
9.14
8.74
8.50
8.46
8.54
8.51
8.12
7.23
5.87
4.26
2.73
1.59
0.99
0.83
0.84
0.68
0.07
-1.03
-2.49
-4.03
-5.41
-6.52
-7.38
-8.13
-8.92
-9.88
-11.06
-12.47
-13.99
-15.42
-16.46
-16.76
-16.08
-14.36
-11.77
-8.67
-5.51
-2.68
-0.40
1.32
2.62
3.70
4.74
5.78
6.81
7.75
8.54
9.19
9.70
10.08
10.32
10.35
10.16
9.77
9.29
8.85
8.52
8.30
8.08
7.69
7.06
6.16
5.09
4.01
3.09
2.39
1.90
1.47
0.90
0.01
-1.26
-2.85
-4.52
-6.00
-7.08
-7.71
-8.01
-8.21
-8.62
-9.47
-10.85
-12.69
-14.76
-16.67
-17.96
-18.20
-17.13
-14.78
-11.50
-7.87
-4.51
-1.87
-0.07
1.03
1.80
2.58
3.59
4.79
6.05
7.19
8.06
8.64
8.95
9.06
9.03
8.87
8.61
8.25
7.85
7.44
7.04
6.63
6.14
5.48
4.61
3.56
2.45
1.48
0.78
0.39
0.21
0.06
-0.26
-0.86
-1.71
-2.65
-3.52
-4.17
-4.61
-4.96
-5.42
-6.25
-7.60
-9.47
-11.66
-13.75
-15.22
-15.60
-14.64
-12.42
-9.33
-5.97
-2.95
-0.65
0.86
1.78
2.47
3.25
4.25
5.43
6.61
7.58
8.25
8.63
8.81
8.87
8.83
8.67
8.34
7.83
7.22
6.59
6.03
5.56
5.15
4.73
4.21
3.52
2.63
1.55
0.35
-0.88
-2.02
-2.95
-3.65
-4.14
-4.53
-5.00
-5.64
-6.55
-7.73
-9.13
-10.67
-12.16
-13.33
-13.85
-13.46
-12.05
-9.78
-6.99
-4.16
-1.70
0.17
1.44
2.32
3.09
3.96
4.99
6.08
7.05
7.71
7.98
7.95
7.75
7.56
7.44
7.31
7.03
6.50
5.68
4.70
3.75
3.01
2.55
2.30
2.09
1.75
1.16
0.33
-0.60
-1.46
-2.10
-2.49
-2.71
-2.97
-3.49
-4.42
-5.83
-7.61
-9.57
-11.45
-12.96
-13.85
-13.94
-13.19
-11.70
-9.66
-7.37
-5.12
-3.13
-1.50
-0.22
0.81
1.73
2.62
3.49
4.31
5.03
5.63
6.12
6.53
6.86
7.08
7.13
6.97
6.60
6.04
5.40
4.75
4.17
3.69
3.26
2.80
2.20
1.38
0.33
-0.87
-2.10
-3.22
-4.19
-5.06
-5.97
-7.09
-8.52
-10.29
-12.25
-14.14
-15.62
-16.35
-16.11
-14.84
-12.72
-10.09
-7.34
-4.78
-2.55
-0.67
0.96
2.47
3.94
5.38
6.72
7.86
8.69
9.15
9.26
9.14
8.93
8.73
8.53
8.29
7.92
7.42
6.88
6.41
6.11
5.96
5.82
5.50
4.85
3.81
2.48
1.06
-0.22
-1.25
-2.02
-2.70
-3.47
-4.54
-6.00
-7.81
-9.81
-11.73
-13.25
-14.02
-13.80
-12.50
-10.23
-7.35
-4.32
-1.57
0.63
2.29
3.64
4.97
6.53
8.36
10.31
12.08
13.38
14.07
14.18
13.91
13.51
13.16
12.88
12.62
12.26
11.76
11.11
10.34
9.49
8.55
7.53
6.45
5.37
4.32
3.28
2.20
1.01
-0.28
-1.56
-2.72
-3.70
-4.55
-5.44
-6.53
-7.93
-9.66
-11.62
-13.64
-15.52
-16.95
-17.62
-17.27
-15.80
-13.40
-10.47
-7.54
-5.01
-3.03
-1.49
-0.15
1.25
2.79
4.37
5.79
6.86
7.51
7.76
7.73
7.56
7.34
7.14
7.00
6.94
6.98
7.12
7.31
7.48
7.54
7.38
6.98
6.39
5.69
4.97
4.32
3.81
3.47
3.25
3.09
2.85
2.41
1.72
0.83
-0.15
-1.07
-1.88
-2.62
-3.45
-4.51
-5.88
-7.48
-9.05
-10.25
-10.77
-10.38
-9.05
-6.94
-4.37
-1.71
0.70
2.65
4.10
5.17
6.06
6.95
7.93
9.01
10.10
11.16
12.17
13.19
14.25
15.29
16.16
16.66
16.64
16.09
15.19
14.22
13.41
12.87
12.53
12.23
11.80
11.12
10.16
8.93
7.43
5.71
3.82
1.86
-0.06
-1.85
-3.50
-5.07
-6.69
-8.50
-10.56
-12.86
-15.31
-17.75
-19.93
-21.62
-22.57
-22.57
-21.60
-19.82
-17.56
-15.25
-13.26
-11.78
-10.77
-9.98
-9.16
-8.14
-6.96
-5.82
-4.92
-4.41
-4.23
-4.22
-4.16
-3.94
-3.57
-3.18
-2.90
-2.85
-2.98
-3.19
-3.38
-3.47
-3.52
-3.64
-3.95
-4.55
-5.47
-6.63
-7.92
-9.18
-10.30
-11.23
-12.02
-12.85
-13.90
-15.32
-17.06
-18.92
-20.53
-21.54
-21.72
-21.09
-19.83
-18.26
-16.65
-15.17
-13.85
-12.63
-11.41
-10.11
-8.64
-7.02
-5.28
-3.49
-1.67
0.14
1.95
3.74
5.43
6.92
8.10
8.92
9.43
9.74
9.97
10.17
10.33
10.38
10.27
9.92
9.37
8.66
7.89
7.19
6.62
6.17
5.70
5.02
3.97
2.54
0.90
-0.61
-1.62
-1.82
-1.11
0.38
2.36
4.47
6.34
7.75
8.62
9.04
9.23
9.43
9.79
10.31
10.87
11.30
11.47
11.31
10.88
10.23
9.43
8.48
7.38
6.18
5.00
4.00
3.31
2.95
2.80
2.63
2.21
1.45
0.41
-0.69
-1.62
-2.25
-2.65
-3.05
-3.69
-4.74
-6.18
-7.85
-9.47
-10.75
-11.42
-11.31
-10.34
-8.56
-6.17
-3.48
-0.83
1.51
3.45
5.06
6.51
7.94
9.40
10.85
12.14
13.15
13.79
14.09
14.10
13.89
13.51
13.00
12.39
11.76
11.18
10.70
10.27
9.73
8.90
7.68
6.08
4.29
2.59
1.19
0.20
-0.50
-1.10
-1.87
-2.95
-4.40
-6.16
-8.05
-9.83
-11.19
-11.81
-11.49
-10.22
-8.21
-5.85
-3.58
-1.73
-0.39
0.53
1.29
2.09
3.03
4.02
4.87
5.41
5.55
5.33
4.91
4.43
4.04
3.76
3.56
3.39
3.21
2.98
2.65
2.16
1.46
0.56
-0.45
-1.42
-2.22
-2.76
-3.10
-3.34
-3.65
-4.15
-4.93
-5.95
-7.12
-8.25
-9.07
-9.36
-8.95
-7.84
-6.18
-4.24
-2.30
-0.55
0.93
2.18
3.29
4.34
5.36
6.30
7.07
7.58
7.77
7.62
7.20
6.67
6.18
5.88
5.85
6.03
6.25
6.34
6.14
5.63
4.90
4.07
3.30
2.64
2.09
1.60
1.13
0.64
0.08
-0.62
-1.54
-2.78
-4.33
-6.10
-7.83
-9.19
-9.88
-9.70
-8.66
-6.94
-4.91
-2.93
-1.28
-0.04
0.88
1.70
2.60
3.65
4.77
5.78
6.50
6.83
6.84
6.66
6.45
6.27
6.12
5.92
5.61
5.21
4.77
4.35
3.98
3.61
3.17
2.60
1.86
1.00
0.07
-0.83
-1.60
-2.19
-2.58
-2.86
-3.20
-3.78
-4.76
-6.11
-7.60
-8.85
-9.49
-9.28
-8.20
-6.51
-4.54
-2.65
-1.07
0.16
1.10
1.91
2.70
3.55
4.41
5.20
5.81
6.17
6.26
6.10
5.78
5.38
4.99
4.64
4.34
4.07
3.79
3.47
3.12
2.75
2.35
1.91
1.42
0.82
0.14
-0.59
-1.31
-1.93
-2.43
-2.85
-3.24
-3.68
-4.19
-4.79
-5.44
-6.11
-6.78
-7.40
-7.90
-8.18
-8.10
-7.57
-6.55
-5.11
-3.41
-1.71
-0.23
0.85
1.49
1.83
2.08
2.46
3.06
3.78
4.42
4.73
4.64
4.26
3.85
3.67
3.82
4.20
4.61
4.83
4.81
4.59
4.31
4.05
3.77
3.42
2.94
2.34
1.70
1.08
0.53
-0.03
-0.68
-1.48
-2.41
-3.36
-4.21
-4.89
-5.45
-5.99
-6.66
-7.48
-8.33
-8.95
-9.06
-8.43
-7.07
-5.16
-3.02
-1.01
0.63
1.77
2.44
2.79
2.99
3.20
3.53
3.95
4.39
4.75
4.96
5.02
4.97
4.86
4.73
4.58
4.44
4.34
4.28
4.27
4.24
4.10
3.79
3.33
2.81
2.35
2.06
1.91
1.84
1.72
1.47
1.05
0.46
-0.27
-1.08
-1.88
-2.55
-3.00
-3.25
-3.38
-3.59
-4.05
-4.86
-5.96
-7.18
-8.24
-8.88
-8.88
-8.11
-6.59
-4.49
-2.13
0.10
1.82
2.76
2.88
2.36
1.51
0.66
0.03
-0.31
-0.43
-0.49
-0.62
-0.93
-1.41
-1.99
-2.59
-3.12
-3.47
-3.57
-3.40
-2.98
-2.41
-1.83
-1.31
-0.93
-0.69
-0.57
-0.55
-0.66
-0.86
-1.13
-1.40
-1.60
-1.70
-1.76
-1.85
-2.04
-2.32
-2.65
-2.99
-3.35
-3.79
-4.44
-5.37
-6.56
-7.89
-9.14
-10.06
-10.46
-10.25
-9.48
-8.30
-6.93
-5.57
-4.35
-3.33
-2.44
-1.63
-0.84
-0.06
0.66
1.29
1.77
2.10
2.30
2.40
2.46
2.53
2.66
2.86
3.10
3.32
3.47
3.52
3.47
3.34
3.15
2.92
2.62
2.26
1.90
1.60
1.42
1.35
1.27
1.06
0.59
-0.17
-1.10
-2.03
-2.78
-3.26
-3.49
-3.60
-3.80
-4.26
-5.07
-6.19
-7.40
-8.43
-8.98
-8.85
-8.01
-6.60
-4.85
-3.08
-1.52
-0.34
0.43
0.88
1.13
1.30
1.50
1.75
2.04
2.30
2.51
2.63
2.67
2.67
2.68
2.73
2.84
2.97
3.07
3.03
2.81
2.45
2.02
1.63
1.30
0.98
0.55
-0.07
-0.89
-1.83
-2.80
-3.73
-4.64
-5.59
-6.61
-7.69
-8.76
-9.75
-10.63
-11.41
-12.11
-12.72
-13.17
-13.32
-13.03
-12.21
-10.81
-8.92
-6.67
-4.25
-1.85
0.32
2.16
3.65
4.86
5.90
6.86
7.79
8.72
9.65
10.58
11.48
12.33
13.02
13.46
13.53
13.18
12.46
11.48
10.38
9.27
8.25
7.30
6.42
5.57
4.72
3.85
2.95
2.02
1.06
0.12
-0.76
-1.54
-2.21
-2.82
-3.49
-4.35
-5.52
-7.00
-8.65
-10.17
-11.21
-11.43
-10.64
-8.86
-6.34
-3.45
-0.62
1.83
3.74
5.14
6.14
6.85
7.35
7.63
7.70
7.60
7.44
7.34
7.39
7.56
7.70
7.63
7.16
6.25
5.02
3.66
2.39
1.33
0.45
-0.33
-1.13
-1.98
-2.88
-3.73
-4.44
-4.98
-5.35
-5.61
-5.81
-6.03
-6.30
-6.68
-7.22
-7.92
-8.80
-9.77
-10.71
-11.45
-11.80
-11.60
-10.76
-9.32
-7.42
-5.32
-3.31
-1.64
-0.44
0.27
0.63
0.79
0.94
1.18
1.52
1.87
2.13
2.18
2.01
1.71
1.42
1.30
1.40
1.71
2.12
2.48
2.73
2.87
2.97
3.06
3.16
3.22
3.23
3.19
3.13
3.07
2.97
2.73
2.19
1.28
0.06
-1.23
-2.25
-2.69
-2.35
-1.24
0.39
2.21
3.87
5.15
5.99
6.47
6.74
6.91
7.03
7.15
7.27
7.41
7.57
7.77
7.93
8.00
7.93
7.67
7.28
6.82
6.36
5.91
5.42
4.83
4.09
3.25
2.39
1.61
0.95
0.35
-0.30
-1.18
-2.40
-3.98
-5.86
-7.89
-9.82
-11.34
-12.10
-11.84
-10.51
-8.35
-5.80
-3.40
-1.53
-0.32
0.37
0.80
1.20
1.67
2.18
2.67
3.09
3.42
3.68
3.90
4.06
4.17
4.28
4.41
4.58
4.74
4.81
4.73
4.52
4.22
3.92
3.66
3.41
3.12
2.74
2.26
1.69
1.04
0.29
-0.59
-1.61
-2.67
-3.58
-4.04
-3.81
-2.77
-1.00
1.25
3.60
5.71
7.34
8.46
9.20
9.75
10.30
10.93
11.57
12.10
12.39
12.42
12.22
11.90
11.58
11.31
11.11
10.97
10.83
10.60
10.17
9.40
8.17
6.42
4.21
1.68
-0.96
-3.56
-5.99
-8.23
-10.30
-12.29
-14.27
-16.25
-18.16
-19.80
-20.89
-21.15
-20.38
-18.57
-15.90
-12.75
-9.55
-6.67
-4.30
-2.46
-1.04
0.11
1.09
1.94
2.62
3.11
3.46
3.75
4.05
4.36
4.59
4.61
4.36
3.89
3.35
2.92
2.68
2.55
2.36
1.93
1.19
0.17
-0.99
-2.13
-3.18
-4.13
-5.01
-5.84
-6.66
-7.50
-8.41
-9.41
-10.41
-11.22
-11.56
-11.19
-10.04
-8.26
-6.20
-4.22
-2.61
-1.44
-0.57
0.20
1.00
1.85
2.58
3.02
3.06
2.77
2.35
2.05
2.00
2.14
2.26
2.14
1.69
1.00
0.32
-0.11
-0.18
-0.01
0.15
0.04
-0.51
-1.48
-2.71
-3.97
-5.01
-5.71
-6.02
-6.03
-5.89
-5.84
-6.10
-6.79
-7.88
-9.17
-10.33
-10.99
-10.88
-9.91
-8.18
-6.00
-3.76
-1.84
-0.45
0.41
0.95
1.44
2.12
3.07
4.20
5.30
6.18
6.75
7.02
7.12
7.12
7.08
6.97
6.79
6.57
6.40
6.34
6.39
6.48
6.46
6.23
5.78
5.17
4.50
3.82
3.13
2.37
1.49
0.52
-0.47
-1.42
-2.31
-3.17
-4.06
-5.00
-5.95
-6.83
-7.60
-8.34
-9.19
-10.33
-11.77
-13.33
-14.60
-15.11
-14.49
-12.73
-10.11
-7.15
-4.34
-1.97
-0.07
1.51
2.97
4.42
5.85
7.17
8.32
9.29
10.12
10.90
11.66
12.42
13.16
13.81
14.30
14.57
14.57
14.34
13.97
13.55
13.12
12.67
12.15
11.58
11.01
10.54
10.24
10.08
9.99
9.86
9.63
9.34
9.02
8.71
8.39
8.02
7.58
7.15
6.83
6.72
6.83
7.04
7.18
7.06
6.61
5.92
5.18
4.62
4.38
4.50
4.91
5.45
6.01
6.50
6.82
6.89
6.60
5.94
5.03
4.15
3.58
3.53
3.96
4.68
5.40
5.91
6.20
6.34
6.44
6.45
6.20
5.47
4.18
2.44
0.51
-1.36
-3.03
-4.55
-6.05
-7.62
-9.24
-10.78
-12.10
-13.15
-14.04
-14.90
-15.88
-16.98
-18.11
-19.20
-20.22
-21.27
-22.52
-24.07
-25.93
-27.96
-29.88
-31.46
-32.54
-33.12
-33.27
-33.07
-32.45
-31.22
-29.09
-25.86
-21.56
-16.47
-11.06
-5.84
-1.22
2.65
5.80
8.39
10.58
12.47
14.08
15.48
16.73
17.98
19.30
20.65
21.84
22.65
22.92
22.66
22.09
21.45
20.92
20.49
19.98
19.13
17.77
15.88
13.55
10.96
8.26
5.56
2.90
0.31
-2.18
-4.60
-6.97
-9.36
-11.80
-14.31
-16.81
-19.21
-21.38
-23.25
-24.76
-25.91
-26.71
-27.21
-27.50
-27.64
-27.66
-27.48
-26.94
-25.80
-23.86
-21.09
-17.64
-13.87
-10.20
-7.00
-4.51
-2.80
-1.76
-1.21
-0.93
-0.74
-0.53
-0.24
0.13
0.55
1.03
1.56
2.15
2.75
3.32
3.83
4.29
4.71
5.10
5.43
5.60
5.53
5.20
4.72
4.29
4.09
4.21
4.61
5.07
5.40
5.46
5.23
4.76
4.17
3.50
2.76
1.89
0.85
-0.39
-1.85
-3.48
-5.20
-6.84
-8.14
-8.81
-8.63
-7.56
-5.72
-3.43
-1.06
1.09
2.85
4.21
5.23
5.95
6.39
6.50
6.29
5.86
5.42
5.21
5.40
5.98
6.75
7.41
7.71
7.52
6.95
6.17
5.37
4.63
3.89
3.08
2.14
1.10
0.06
-0.86
-1.62
-2.21
-2.70
-3.17
-3.68
-4.29
-5.04
-5.95
-7.05
-8.25
-9.39
-10.21
-10.40
-9.75
-8.19
-5.88
-3.11
-0.28
2.24
4.21
5.53
6.26
6.55
6.58
6.53
6.53
6.66
6.94
7.38
7.95
8.62
9.29
9.85
10.15
10.05
9.50
8.53
7.22
5.64
3.86
1.88
-0.23
-2.35
-4.28
-5.83
-6.87
-7.41
-7.63
-7.82
-8.24
-9.07
-10.32
-11.85
-13.37
-14.53
-14.97
-14.42
-12.80
-10.26
-7.15
-3.94
-1.09
1.11
2.59
3.44
3.89
4.12
4.28
4.47
4.73
5.08
5.54
6.06
6.57
6.93
7.03
6.81
6.30
5.58
4.79
4.02
3.31
2.61
1.89
1.12
0.32
-0.45
-1.14
-1.76
-2.37
-3.07
-3.96
-5.09
-6.45
-7.93
-9.34
-10.44
-10.90
-10.50
-9.14
-6.98
-4.37
-1.70
0.68
2.60
4.02
5.01
5.63
5.96
6.11
6.19
6.34
6.63
7.08
7.61
8.11
8.49
8.73
8.84
8.83
8.66
8.29
7.68
6.85
5.87
4.81
3.75
2.73
1.75
0.79
-0.18
-1.17
-2.24
-3.49
-5.06
-7.02
-9.32
-11.68
-13.63
-14.64
-14.34
-12.69
-10.01
-6.86
-3.82
-1.30
0.56
1.84
2.74
3.48
4.24
5.10
6.13
7.30
8.50
9.58
10.35
10.74
10.76
10.54
10.24
9.98
9.82
9.74
9.68
9.55
9.23
8.63
7.69
6.41
4.87
3.24
1.67
0.29
-0.88
-1.93
-3.03
-4.33
-5.97
-7.96
-10.19
-12.41
-14.28
-15.40
-15.51
-14.51
-12.56
-9.97
-7.13
-4.40
-1.95
0.14
1.89
3.31
4.40
5.09
5.38
5.34
5.12
4.89
4.80
4.91
5.16
5.48
5.81
6.21
6.78
7.62
8.73
9.92
10.88
11.31
11.05
10.19
9.04
7.95
7.22
6.93
6.94
6.98
6.72
5.89
4.34
2.12
-0.50
-3.06
-5.01
-5.85
-5.34
-3.56
-0.93
2.00
4.72
6.96
8.71
10.20
11.70
13.38
15.21
16.99
18.48
19.45
19.83
19.70
19.22
18.56
17.81
17.02
16.18
15.28
14.35
13.44
12.58
11.75
10.83
9.70
8.24
6.45
4.45
2.45
0.71
-0.63
-1.57
-2.27
-2.99
-3.97
-5.34
-7.12
-9.22
-11.44
-13.57
-15.32
-16.41
-16.61
-15.81
-14.10
-11.74
-9.11
-6.56
-4.33
-2.48
-0.89
0.59
2.08
3.60
5.08
6.40
7.45
8.20
8.68
8.96
9.10
9.18
9.22
9.24
9.23
9.23
9.24
9.31
9.43
9.56
9.62
9.56
9.31
8.88
8.27
7.51
6.55
5.35
3.90
2.24
0.48
-1.20
-2.68
-3.95
-5.06
-6.14
-7.29
-8.57
-9.97
-11.43
-12.81
-13.88
-14.36
-13.97
-12.63
-10.50
-7.97
-5.53
-3.58
-2.25
-1.41
-0.75
0.00
0.95
2.00
2.95
3.63
3.97
4.04
3.97
3.84
3.69
3.48
3.15
2.72
2.22
1.72
1.25
0.79
0.29
-0.36
-1.21
-2.28
-3.56
-4.98
-6.45
-7.84
-8.97
-9.72
-10.03
-9.97
-9.70
-9.46
-9.45
-9.72
-10.20
-10.70
-11.06
-11.20
-11.21
-11.24
-11.47
-11.96
-12.66
-13.43
-14.11
-14.54
-14.59
-14.13
-13.02
-11.14
-8.50
-5.27
-1.78
1.61
4.58
7.00
8.92
10.51
11.92
13.24
14.47
15.56
16.51
17.35
18.16
18.97
19.75
20.40
20.80
20.86
20.58
20.00
19.24
18.40
17.56
16.76
15.95
15.06
13.93
12.46
10.61
8.48
6.25
4.14
2.24
0.52
-1.16
-2.95
-4.90
-6.92
-8.80
-10.37
-11.52
-12.25
-12.69
-13.00
-13.34
-13.84
-14.59
-15.60
-16.80
-17.98
-18.84
-19.06
-18.41
-16.86
-14.58
-11.89
-9.18
-6.80
-4.96
-3.68
-2.84
-2.22
-1.63
-0.95
-0.18
0.56
1.18
1.61
1.91
2.18
2.51
2.84
3.07
3.05
2.72
2.13
1.42
0.74
0.17
-0.29
-0.70
-1.11
-1.60
-2.15
-2.72
-3.24
-3.63
-3.82
-3.86
-3.84
-3.86
-4.07
-4.50
-5.13
-5.89
-6.68
-7.46
-8.18
-8.81
-9.33
-9.72
-9.99
-10.18
-10.35
-10.53
-10.67
-10.66
-10.33
-9.51
-8.13
-6.25
-4.01
-1.67
0.51
2.28
3.49
4.14
4.34
4.28
4.18
4.16
4.24
4.35
4.39
4.28
4.04
3.73
3.46
3.28
3.20
3.16
3.04
2.75
2.25
1.58
0.87
0.24
-0.22
-0.49
-0.60
-0.60
-0.53
-0.39
-0.23
-0.11
-0.13
-0.30
-0.54
-0.61
-0.22
0.86
2.58
4.67
6.65
8.05
8.57
8.16
7.03
5.53
3.98
2.66
1.73
1.30
1.42
2.11
3.26
4.71
6.18
7.46
8.36
8.82
8.86
8.58
8.08
7.47
6.84
6.22
5.64
5.14
4.74
4.48
4.37
4.35
4.30
4.06
3.52
2.66
1.59
0.49
-0.49
-1.31
-2.06
-2.86
-3.76
-4.75
-5.73
-6.63
-7.43
-8.21
-9.04
-9.94
-10.83
-11.65
-12.36
-12.99
-13.57
-14.14
-14.59
-14.79
-14.57
-13.83
-12.65
-11.17
-9.62
-8.22
-7.07
-6.13
-5.27
-4.31
-3.08
-1.56
0.16
1.90
3.45
4.68
5.56
6.13
6.43
6.47
6.23
5.65
4.80
3.79
2.84
2.15
1.78
1.67
1.62
1.41
0.93
0.20
-0.64
-1.44
-2.10
-2.62
-3.04
-3.40
-3.75
-4.13
-4.63
-5.38
-6.46
-7.81
-9.20
-10.26
-10.67
-10.31
-9.33
-8.05
-6.81
-5.80
-4.98
-4.21
-3.36
-2.43
-1.54
-0.83
-0.36
-0.09
0.15
0.46
0.91
1.41
1.82
2.04
2.07
1.99
1.89
1.83
1.79
1.69
1.47
1.06
0.51
-0.11
-0.69
-1.11
-1.34
-1.37
-1.27
-1.19
-1.29
-1.74
-2.60
-3.81
-5.18
-6.44
-7.31
-7.58
-7.20
-6.24
-4.91
-3.42
-1.99
-0.73
0.27
1.03
1.54
1.86
2.03
2.13
2.22
2.35
2.53
2.72
2.88
2.99
3.10
3.28
3.57
3.92
4.22
4.36
4.25
3.91
3.42
2.86
2.32
1.77
1.21
0.61
0.02
-0.46
-0.75
-0.79
-0.61
-0.36
-0.22
-0.42
-1.07
-2.18
-3.57
-4.91
-5.89
-6.22
-5.79
-4.66
-3.06
-1.23
0.57
2.13
3.35
4.18
4.63
4.77
4.74
4.67
4.66
4.78
4.99
5.23
5.43
5.54
5.55
5.48
5.36
5.19
4.96
4.67
4.30
3.87
3.41
2.92
2.40
1.81
1.17
0.51
-0.08
-0.54
-0.84
-1.03
-1.19
-1.42
-1.78
-2.28
-2.91
-3.64
-4.41
-5.12
-5.61
-5.75
-5.47
-4.82
-3.92
-2.96
-2.08
-1.33
-0.73
-0.26
0.08
0.29
0.40
0.48
0.59
0.72
0.84
0.85
0.70
0.41
0.09
-0.16
-0.25
-0.21
-0.12
-0.08
-0.15
-0.32
-0.53
-0.67
-0.66
-0.46
-0.12
0.30
0.69
0.96
1.09
1.04
0.83
0.50
0.07
-0.38
-0.77
-1.02
-1.07
-0.88
-0.45
0.19
0.97
1.82
2.62
3.25
3.66
3.88
4.02
4.22
4.56
5.02
5.49
5.81
5.92
5.80
5.55
5.27
5.03
4.83
4.62
4.34
3.97
3.53
3.03
2.53
2.05
1.60
1.18
0.75
0.25
-0.38
-1.20
-2.25
-3.53
-4.97
-6.42
-7.68
-8.56
-8.96
-8.88
-8.43
-7.81
-7.15
-6.54
-5.95
-5.29
-4.51
-3.59
-2.63
-1.70
-0.87
-0.15
0.44
0.86
1.09
1.08
0.88
0.62
0.43
0.40
0.46
0.46
0.24
-0.26
-0.98
-1.71
-2.29
-2.61
-2.74
-2.81
-2.97
-3.29
-3.78
-4.39
-5.08
-5.82
-6.55
-7.18
-7.55
-7.52
-7.02
-6.09
-4.89
-3.63
-2.48
-1.50
-0.64
0.18
1.05
1.98
2.92
3.77
4.44
4.88
5.07
5.06
4.96
4.87
4.84
4.90
4.97
4.93
4.66
4.10
3.29
2.32
1.31
0.37
-0.40
-0.95
-1.27
-1.39
-1.45
-1.60
-2.01
-2.77
-3.88
-5.19
-6.50
-7.60
-8.35
-8.65
-8.49
-7.87
-6.86
-5.53
-4.05
-2.55
-1.18
-0.02
0.93
1.72
2.42
3.05
3.62
4.14
4.58
4.97
5.31
5.59
5.78
5.84
5.73
5.48
5.16
4.85
4.60
4.44
4.33
4.20
3.98
3.67
3.28
2.84
2.37
1.86
1.30
0.68
0.01
-0.70
-1.45
-2.22
-3.04
-3.88
-4.72
-5.51
-6.14
-6.47
-6.39
-5.81
-4.70
-3.15
-1.35
0.44
2.00
3.17
3.97
4.46
4.76
4.92
4.96
4.84
4.60
4.30
4.06
3.93
3.93
4.01
4.05
3.99
3.85
3.67
3.52
3.40
3.27
3.04
2.70
2.24
1.73
1.22
0.75
0.28
-0.26
-0.89
-1.57
-2.23
-2.79
-3.22
-3.52
-3.73
-3.87
-3.96
-3.98
-3.98
-4.03
-4.18
-4.45
-4.72
-4.78
-4.39
-3.43
-1.90
-0.02
1.92
3.62
4.91
5.79
6.35
6.76
7.10
7.42
7.65
7.78
7.81
7.80
7.82
7.86
7.86
7.70
7.32
6.72
5.99
5.28
4.67
4.21
3.82
3.43
2.97
2.44
1.87
1.27
0.66
0.02
-0.68
-1.40
-2.13
-2.83
-3.51
-4.19
-4.90
-5.63
-6.30
-6.83
-7.17
-7.35
-7.54
-7.92
-8.63
-9.67
-10.94
-12.22
-13.32
-14.07
-14.34
-14.06
-13.21
-11.84
-10.11
-8.23
-6.48
-5.06
-4.03
-3.31
-2.72
-2.10
-1.42
-0.75
-0.23
0.05
0.13
0.18
0.37
0.82
1.51
2.32
3.12
3.82
4.43
4.99
5.52
5.96
6.25
6.29
6.03
5.56
4.96
4.38
3.88
3.49
3.13
2.71
2.16
1.46
0.66
-0.14
-0.81
-1.30
-1.55
-1.61
-1.60
-1.65
-1.95
-2.58
-3.51
-4.52
-5.23
-5.24
-4.22
-2.14
0.73
3.88
6.70
8.73
9.80
10.00
9.60
8.87
7.99
7.00
5.89
4.63
3.24
1.71
0.04
-1.78
-3.71
-5.60
-7.22
-8.33
-8.84
-8.83
-8.58
-8.38
-8.42
-8.71
-9.15
-9.57
-9.89
-10.11
-10.29
-10.45
-10.56
-10.50
-10.14
-9.39
-8.25
-6.75
-4.99
-3.01
-0.83
1.51
3.97
6.43
8.77
10.87
12.71
14.35
15.92
17.51
19.12
20.62
21.79
22.46
22.57
22.19
21.49
20.64
19.72
18.73
17.62
16.39
15.10
13.87
12.82
12.00
11.39
10.90
10.47
10.08
9.75
9.50
9.28
8.96
8.34
7.25
5.62
3.54
1.24
-0.99
-2.88
-4.30
-5.17
-5.56
-5.54
-5.23
-4.78
-4.37
-4.19
-4.33
-4.78
-5.37
-5.88
-6.08
-5.87
-5.32
-4.57
-3.79
-3.06
-2.36
-1.66
-0.94
-0.30
0.14
0.29
0.14
-0.21
-0.62
-0.97
-1.19
-1.29
-1.31
-1.26
-1.19
-1.12
-1.12
-1.21
-1.37
-1.53
-1.60
-1.50
-1.26
-0.97
-0.76
-0.71
-0.82
-0.98
-1.11
-1.17
-1.21
-1.32
-1.58
-2.03
-2.62
-3.32
-4.07
-4.83
-5.54
-6.11
-6.41
-6.33
-5.86
-5.10
-4.21
-3.39
-2.74
-2.34
-2.13
-2.05
-1.99
-1.88
-1.69
-1.42
-1.13
-0.87
-0.68
-0.54
-0.43
-0.32
-0.20
-0.12
-0.09
-0.15
-0.30
-0.51
-0.76
-1.06
-1.40
-1.75
-2.08
-2.38
-2.63
-2.88
-3.16
-3.49
-3.90
-4.35
-4.83
-5.27
-5.59
-5.67
-5.40
-4.73
-3.75
-2.61
-1.53
-0.63
0.03
0.50
0.86
1.20
1.51
1.77
1.92
1.97
1.94
1.89
1.81
1.69
1.49
1.20
0.87
0.60
0.47
0.54
0.74
0.95
1.01
0.80
0.32
-0.34
-1.02
-1.61
-2.03
-2.27
-2.43
-2.62
-2.95
-3.49
-4.20
-4.93
-5.48
-5.62
-5.24
-4.38
-3.19
-1.92
-0.79
0.07
0.65
1.03
1.33
1.64
2.01
2.44
2.90
3.33
3.66
3.87
3.90
3.81
3.65
3.51
3.46
3.50
3.54
3.48
3.23
2.76
2.13
1.39
0.63
-0.11
-0.80
-1.44
-2.00
-2.46
-2.85
-3.18
-3.54
-3.94
-4.41
-4.92
-5.46
-6.00
-6.48
-6.83
-6.90
-6.58
-5.80
-4.66
-3.39
-2.26
-1.48
-1.06
-0.85
-0.59
-0.12
0.60
1.43
2.17
2.72
3.09
3.41
3.80
4.30
4.82
5.21
5.36
5.27
4.99
4.65
4.32
4.03
3.78
3.55
3.35
3.15
2.94
2.66
2.26
1.74
1.14
0.54
-0.02
-0.53
-1.05
-1.69
-2.50
-3.50
-4.65
-5.87
-7.09
-8.22
-9.20
-9.97
-10.45
-10.62
-10.47
-10.04
-9.39
-8.61
-7.78
-6.97
-6.19
-5.48
-4.82
-4.23
-3.75
-3.37
-3.02
-2.57
-1.81
-0.52
1.43
3.97
6.78
9.41
11.41
12.45
12.51
11.78
10.63
9.40
8.35
7.55
6.98
6.57
6.31
6.22
6.33
6.58
6.85
6.98
6.81
6.28
5.44
4.38
3.23
2.05
0.84
-0.47
-1.92
-3.54
-5.23
-6.83
-8.13
-8.90
-9.00
-8.40
-7.20
-5.62
-3.95
-2.44
-1.27
-0.49
0.00
0.39
0.85
1.51
2.32
3.16
3.86
4.31
4.48
4.43
4.22
3.92
3.54
3.15
2.83
2.73
2.93
3.39
3.92
4.25
4.17
3.65
2.82
1.92
1.08
0.29
-0.60
-1.72
-3.09
-4.57
-5.88
-6.80
-7.24
-7.35
-7.33
-7.41
-7.68
-8.15
-8.74
-9.40
-10.12
-10.86
-11.51
-11.88
-11.74
-10.96
-9.52
-7.58
-5.41
-3.23
-1.16
0.77
2.56
4.22
5.67
6.84
7.70
8.27
8.63
8.86
9.01
9.11
9.16
9.19
9.25
9.38
9.58
9.78
9.92
9.93
9.78
9.47
8.96
8.25
7.37
6.40
5.49
4.76
4.24
3.88
3.52
3.01
2.25
1.26
0.15
-0.93
-1.87
-2.64
-3.30
-3.99
-4.83
-5.92
-7.20
-8.52
-9.60
-10.18
-10.07
-9.26
-7.89
-6.20
-4.44
-2.83
-1.50
-0.55
0.03
0.27
0.28
0.22
0.20
0.32
0.52
0.72
0.80
0.72
0.54
0.38
0.35
0.49
0.77
1.10
1.43
1.78
2.23
2.84
3.59
4.39
5.12
5.68
6.08
6.41
6.77
7.18
7.54
7.69
7.47
6.83
5.87
4.75
3.65
2.67
1.81
0.96
-0.01
-1.18
-2.55
-4.05
-5.52
-6.80
-7.72
-8.18
-8.13
-7.62
-6.80
-5.80
-4.79
-3.81
-2.89
-1.98
-1.05
-0.11
0.82
1.68
2.43
3.06
3.57
4.02
4.39
4.69
4.86
4.85
4.65
4.30
3.94
3.72
3.78
4.15
4.73
5.32
5.70
5.73
5.37
4.76
4.07
3.47
3.07
2.89
2.86
2.85
2.75
2.44
1.91
1.22
0.48
-0.18
-0.69
-1.09
-1.46
-1.88
-2.43
-3.12
-3.91
-4.69
-5.33
-5.68
-5.62
-5.07
-4.10
-2.87
-1.63
-0.61
0.13
0.62
0.98
1.28
1.49
1.50
1.27
0.85
0.44
0.25
0.43
0.93
1.58
2.18
2.56
2.73
2.72
2.65
2.57
2.52
2.49
2.51
2.55
2.59
2.56
2.38
2.02
1.47
0.80
0.07
-0.61
-1.16
-1.54
-1.74
-1.86
-2.03
-2.39
-3.01
-3.88
-4.90
-5.90
-6.73
-7.25
-7.33
-6.91
-6.00
-4.68
-3.19
-1.77
-0.64
0.13
0.58
0.84
1.05
1.26
1.51
1.77
2.06
2.41
2.81
3.23
3.57
3.76
3.73
3.47
3.05
2.56
2.09
1.71
1.40
1.11
0.74
0.24
-0.43
-1.21
-1.99
-2.66
-3.15
-3.44
-3.57
-3.59
-3.64
-3.84
-4.32
-5.14
-6.24
-7.42
-8.36
-8.76
-8.43
-7.39
-5.83
-4.08
-2.45
-1.18
-0.33
0.18
0.51
0.80
1.15
1.57
2.00
2.39
2.67
2.85
2.98
3.10
3.22
3.32
3.34
3.29
3.17
3.04
2.94
2.87
2.79
2.62
2.28
1.74
0.98
0.09
-0.82
-1.61
-2.16
-2.41
-2.40
-2.29
-2.27
-2.50
-3.07
-3.90
-4.82
-5.57
-5.91
-5.70
-4.93
-3.72
-2.33
-0.98
0.13
0.95
1.50
1.90
2.23
2.51
2.72
2.86
2.94
3.05
3.27
3.59
3.90
4.02
3.82
3.29
2.61
2.00
1.67
1.70
1.93
2.16
2.19
1.98
1.63
1.32
1.16
1.15
1.13
0.92
0.38
-0.48
-1.55
-2.68
-3.78
-4.81
-5.72
-6.44
-6.81
-6.66
-5.92
-4.66
-3.15
-1.67
-0.46
0.45
1.19
1.90
2.70
3.56
4.40
5.09
5.63
6.05
6.41
6.72
6.96
7.05
6.96
6.71
6.38
6.05
5.77
5.51
5.20
4.76
4.14
3.32
2.36
1.30
0.19
-0.93
-2.08
-3.24
-4.43
-5.69
-7.04
-8.51
-10.09
-11.70
-13.20
-14.41
-15.12
-15.22
-14.70
-13.67
-12.32
-10.83
-9.33
-7.84
-6.29
-4.59
-2.72
-0.76
1.13
2.77
4.02
4.88
5.41
5.75
5.98
6.13
6.14
5.98
5.64
5.18
4.69
4.25
3.83
3.38
2.77
1.93
0.85
-0.37
-1.56
-2.57
-3.32
-3.83
-4.16
-4.43
-4.71
-5.06
-5.54
-6.22
-7.15
-8.29
-9.48
-10.43
-10.84
-10.46
-9.30
-7.57
-5.65
-3.88
-2.47
-1.43
-0.60
0.24
1.28
2.58
4.01
5.40
6.50
7.17
7.35
7.12
6.64
6.05
5.47
4.92
4.39
3.89
3.48
3.24
3.19
3.28
3.35
3.21
2.71
1.84
0.73
-0.39
-1.29
-1.84
-2.04
-2.07
-2.14
-2.41
-2.96
-3.75
-4.67
-5.57
-6.36
-6.92
-7.18
-7.06
-6.49
-5.51
-4.21
-2.80
-1.45
-0.28
0.70
1.58
2.49
3.48
4.52
5.48
6.21
6.62
6.73
6.67
6.63
6.73
7.00
7.33
7.51
7.38
6.86
6.02
5.03
4.11
3.40
2.93
2.58
2.20
1.65
0.84
-0.16
-1.25
-2.26
-3.09
-3.68
-4.07
-4.35
-4.64
-5.05
-5.62
-6.38
-7.30
-8.33
-9.34
-10.12
-10.43
-10.04
-8.89
-7.08
-4.95
-2.87
-1.15
0.11
1.00
1.74
2.52
3.39
4.30
5.11
5.71
6.07
6.23
6.29
6.30
6.32
6.36
6.40
6.45
6.48
6.49
6.45
6.35
6.14
5.79
5.27
4.58
3.76
2.88
2.02
1.23
0.56
0.03
-0.37
-0.69
-1.02
-1.48
-2.15
-3.08
-4.25
-5.53
-6.78
-7.90
-8.84
-9.59
-10.11
-10.31
-10.04
-9.21
-7.83
-6.10
-4.31
-2.74
-1.53
-0.63
0.12
0.93
1.91
3.02
4.13
5.05
5.67
5.97
6.04
6.03
6.08
6.25
6.52
6.77
6.88
6.76
6.42
5.94
5.43
4.96
4.53
4.09
3.60
3.04
2.44
1.82
1.20
0.58
-0.06
-0.73
-1.39
-1.96
-2.40
-2.73
-3.03
-3.44
-4.07
-4.99
-6.16
-7.44
-8.61
-9.39
-9.53
-8.84
-7.34
-5.21
-2.77
-0.44
1.48
2.86
3.74
4.33
4.82
5.36
5.95
6.57
7.14
7.66
8.15
8.65
9.18
9.67
10.03
10.18
10.06
9.66
9.03
8.23
7.33
6.32
5.26
4.20
3.22
2.39
1.70
1.06
0.37
-0.46
-1.42
-2.40
-3.28
-4.00
-4.62
-5.25
-6.07
-7.16
-8.50
-9.95
-11.35
-12.49
-13.18
-13.28
-12.69
-11.42
-9.65
-7.66
-5.73
-4.05
-2.72
-1.65
-0.75
0.07
0.82
1.46
1.95
2.31
2.57
2.83
3.09
3.32
3.45
3.42
3.26
3.05
2.91
2.86
2.87
2.83
2.62
2.21
1.63
1.01
0.47
0.08
-0.12
-0.21
-0.27
-0.42
-0.75
-1.33
-2.18
-3.28
-4.57
-5.93
-7.23
-8.30
-8.95
-9.01
-8.41
-7.22
-5.62
-3.89
-2.27
-0.93
0.09
0.84
1.40
1.87
2.31
2.80
3.38
4.09
4.89
5.68
6.35
6.78
6.91
6.77
6.43
5.96
5.44
4.89
4.34
3.80
3.29
2.85
2.46
2.04
1.51
0.76
-0.19
-1.29
-2.38
-3.36
-4.20
-5.00
-5.87
-6.87
-7.91
-8.75
-9.08
-8.70
-7.56
-5.85
-3.94
-2.15
-0.72
0.30
1.06
1.74
2.53
3.48
4.52
5.51
6.31
6.87
7.15
7.21
7.06
6.73
6.25
5.66
5.03
4.41
3.85
3.34
2.88
2.41
1.90
1.28
0.51
-0.44
-1.52
-2.64
-3.69
-4.58
-5.35
-6.10
-6.98
-8.05
-9.23
-10.25
-10.82
-10.75
-9.98
-8.66
-7.03
-5.31
-3.68
-2.18
-0.80
0.50
1.74
2.93
4.06
5.06
5.88
6.44
6.70
6.69
6.49
6.20
5.92
5.71
5.53
5.32
5.05
4.70
4.30
3.89
3.47
2.99
2.38
1.61
0.77
-0.02
-0.62
-0.97
-1.19
-1.46
-2.02
-3.01
-4.44
-6.16
-7.96
-9.55
-10.68
-11.16
-10.89
-9.86
-8.23
-6.25
-4.25
-2.50
-1.19
-0.33
0.22
0.64
1.15
1.82
2.63
3.49
4.25
4.87
5.36
5.79
6.20
6.58
6.87
6.99
6.96
6.85
6.80
6.88
7.06
7.21
7.15
6.79
6.17
5.46
4.83
4.37
4.06
3.75
3.26
2.47
1.35
-0.06
-1.67
-3.42
-5.21
-6.86
-8.19
-8.95
-9.03
-8.42
-7.29
-5.90
-4.46
-3.11
-1.89
-0.76
0.28
1.20
1.94
2.51
2.95
3.37
3.84
4.39
4.93
5.39
5.68
5.79
5.71
5.48
5.15
4.78
4.43
4.15
3.94
3.72
3.39
2.83
2.04
1.13
0.27
-0.38
-0.77
-0.98
-1.17
-1.49
-2.05
-2.86
-3.87
-5.04
-6.29
-7.56
-8.69
-9.55
-9.98
-9.90
-9.36
-8.49
-7.53
-6.68
-6.11
-5.84
-5.79
-5.86
-5.94
-6.05
-6.24
-6.60
-7.16
-7.87
-8.64
-9.34
-9.94
-10.48
-11.02
-11.57
-12.08
-12.40
-12.38
-11.91
-11.00
-9.74
-8.32
-6.91
-5.65
-4.61
-3.81
-3.19
-2.66
-2.15
-1.61
-1.10
-0.77
-0.78
-1.22
-1.99
-2.84
-3.35
-3.20
-2.25
-0.62
1.31
3.14
4.52
5.38
5.82
6.06
6.31
6.67
7.10
7.53
7.89
8.14
8.32
8.45
8.56
8.60
8.52
8.27
7.86
7.33
6.76
6.16
5.55
4.88
4.13
3.28
2.38
1.49
0.66
-0.07
-0.76
-1.51
-2.46
-3.69
-5.22
-6.91
-8.57
-9.92
-10.70
-10.71
-9.84
-8.15
-5.86
-3.28
-0.81
1.26
2.75
3.69
4.28
4.73
5.25
5.92
6.75
7.68
8.63
9.55
10.35
10.96
11.34
11.43
11.26
10.88
10.41
9.96
9.61
9.43
9.42
9.55
9.76
9.99
10.16
10.18
9.94
9.32
8.26
6.74
4.82
2.56
0.10
-2.38
-4.58
-6.12
-6.63
-5.84
-3.74
-0.63
2.99
6.50
9.36
11.19
11.86
11.48
10.36
8.95
7.68
6.90
6.76
7.19
7.94
8.69
9.14
9.05
8.34
7.07
5.42
3.66
2.09
0.92
0.20
-0.16
-0.33
-0.51
-0.76
-1.09
-1.46
-1.85
-2.34
-3.02
-3.97
-5.14
-6.37
-7.40
-7.98
-7.99
-7.41
-6.36
-5.06
-3.74
-2.57
-1.62
-0.85
-0.12
0.70
1.72
2.87
4.04
5.09
5.96
6.68
7.32
7.92
8.39
8.59
8.42
7.93
7.27
6.70
6.40
6.47
6.90
7.64
8.50
9.20
9.32
8.48
6.53
3.66
0.46
-2.42
-4.53
-5.85
-6.70
-7.49
-8.42
-9.41
-10.20
-10.66
-10.88
-11.14
-11.61
-12.18
-12.45
-11.98
-10.55
-8.36
-5.86
-3.59
-1.86
-0.71
0.02
0.47
0.70
0.70
0.47
0.15
-0.10
-0.12
0.09
0.41
0.68
0.81
0.85
0.87
0.89
0.79
0.40
-0.38
-1.50
-2.71
-3.70
-4.25
-4.30
-3.94
-3.41
-2.92
-2.66
-2.77
-3.33
-4.33
-5.67
-7.18
-8.68
-10.07
-11.26
-12.16
-12.50
-11.91
-10.09
-7.04
-3.24
0.39
2.89
3.73
3.06
1.67
0.55
0.39
1.32
2.88
4.44
5.53
6.01
6.03
5.77
5.32
4.65
3.75
2.70
1.72
1.03
0.69
0.62
0.61
0.51
0.34
0.27
0.54
1.29
2.43
3.63
4.46
4.55
3.84
2.53
1.06
-0.10
-0.69
-0.75
-0.56
-0.49
-0.71
-1.11
-1.35
-1.08
-0.14
1.32
2.86
3.90
4.01
3.06
1.25
-0.86
-2.62
-3.45
-3.08
-1.60
0.55
2.77
4.48
5.37
5.48
5.12
4.69
4.49
4.56
4.69
4.59
4.01
2.94
1.64
0.45
-0.35
-0.73
-0.92
-1.25
-2.00
-3.16
-4.52
-5.71
-6.44
-6.59
-6.27
-5.72
-5.25
-5.11
-5.44
-6.25
-7.38
-8.50
-9.21
-9.17
-8.23
-6.52
-4.42
-2.46
-1.09
-0.59
-0.90
-1.73
-2.65
-3.31
-3.60
-3.59
-3.52
-3.52
-3.57
-3.55
-3.37
-3.16
-3.19
-3.72
-4.76
-5.97
-6.79
-6.74
-5.73
-4.08
-2.36
-1.06
-0.38
-0.19
-0.24
-0.34
-0.43
-0.58
-0.77
-0.87
-0.66
0.02
1.09
2.25
3.09
3.27
2.68
1.49
0.01
-1.45
-2.74
-3.79
-4.65
-5.32
-5.81
-6.16
-6.47
-6.88
-7.50
-8.32
-9.10
-9.48
-9.08
-7.70
-5.41
-2.62
0.02
1.86
2.40
1.57
-0.29
-2.50
-4.28
-4.98
-4.26
-2.19
0.86
4.26
7.30
9.31
9.87
8.91
6.87
4.56
2.99
3.00
4.96
8.55
12.84
16.49
18.26
17.43
14.21
9.63
5.29
2.70
2.70
5.14
8.86
12.22
13.63
12.24
8.14
2.34
-3.61
-8.17
-10.31
-9.76
-7.17
-3.74
-0.85
0.48
-0.07
-2.09
-4.67
-6.81
-7.75
-7.13
-5.03
-1.82
1.84
5.14
7.26
7.54
5.82
2.61
-1.02
-3.74
-4.49
-2.93
0.51
4.81
8.69
11.09
11.33
9.26
5.22
0.01
-5.30
-9.61
-12.14
-12.60
-11.35
-9.18
-7.08
-5.94
-6.40
-8.67
-12.60
-17.59
-22.78
-27.18
-30.03
-31.06
-30.57
-29.28
-27.97
-27.11
-26.76
-26.66
-26.51
-26.28
-26.19
-26.52
-27.35
-28.42
-29.19
-29.06
-27.70
-25.12
-21.58
-17.30
-12.24
-6.08
1.59
10.88
21.26
31.45
39.72
44.33
44.20
39.33
30.91
21.00
11.89
5.49
2.79
3.83
7.91
14.00
21.00
27.84
33.39
36.43
35.85
31.19
23.04
13.18
4.03
-2.30
-4.87
-4.30
-2.26
-0.56
-0.03
-0.27
0.03
2.23
6.84
13.20
19.80
24.93
27.42
27.11
24.83
21.93
19.72
18.91
19.37
20.33
20.91
20.69
20.00
19.65
20.27
21.73
22.93
22.30
18.71
12.23
4.20
-3.29
-8.44
-10.44
-9.72
-7.44
-4.80
-2.55
-0.98
-0.14
-0.24
-1.62
-4.52
-8.75
-13.57
-17.96
-21.07
-22.59
-22.78
-22.13
-20.93
-19.08
-16.30
-12.59
-8.50
-5.02
-3.08
-3.01
-4.29
-5.86
-6.77
-6.65
-5.98
-5.66
-6.41
-8.27
-10.57
-12.37
-12.89
-11.89
-9.56
-6.26
-2.19
2.59
8.03
13.81
19.24
23.44
25.71
25.84
24.20
21.56
18.74
16.32
14.53
13.35
12.66
12.34
12.24
12.16
11.76
10.62
8.38
4.89
0.33
-4.79
-9.78
-14.00
-17.01
-18.60
-18.76
-17.61
-15.38
-12.40
-9.15
-6.18
-3.97
-2.75
-2.40
-2.47
-2.38
-1.68
-0.16
2.06
4.70
7.49
10.26
12.91
15.41
17.66
19.40
20.28
20.00
18.42
15.73
12.36
8.77
5.28
1.86
-1.73
-5.69
-9.93
-13.99
-17.14
-18.65
-18.11
-15.54
-11.32
-6.11
-0.68
4.17
7.65
9.16
8.45
5.73
1.68
-2.77
-6.75
-9.66
-11.20
-11.26
-9.76
-6.71
-2.26
3.15
8.80
13.86
17.61
19.65
19.89
18.48
15.63
11.61
6.82
1.86
-2.49
-5.51
-6.79
-6.34
-4.60
-2.14
0.42
2.63
4.09
4.45
3.46
1.15
-1.98
-5.03
-6.92
-6.82
-4.48
-0.35
4.57
9.06
12.01
12.74
11.06
7.33
2.30
-3.00
-7.58
-10.69
-12.07
-11.97
-11.05
-10.00
-9.39
-9.43
-10.04
-10.91
-11.72
-12.23
-12.40
-12.36
-12.43
-12.94
-14.20
-16.33
-19.26
-22.74
-26.41
-29.88
-32.68
-34.33
-34.36
-32.45
-28.56
-23.07
-16.67
-10.24
-4.54
-0.01
3.29
5.65
7.50
9.25
11.19
13.41
15.86
18.35
20.58
22.28
23.26
23.45
22.95
21.95
20.66
19.24
17.80
16.33
14.74
12.79
10.17
6.54
1.71
-4.19
-10.63
-16.74
-21.58
-24.42
-25.06
-23.85
-21.55
-19.04
-17.03
-15.86
-15.45
-15.44
-15.30
-14.59
-13.10
-10.92
-8.36
-5.86
-3.82
-2.49
-1.93
-2.08
-2.87
-4.13
-5.70
-7.27
-8.47
-8.88
-8.25
-6.60
-4.21
-1.56
0.95
3.08
4.80
6.18
7.26
8.00
8.30
8.12
7.53
6.70
5.84
5.10
4.47
3.84
3.04
1.95
0.54
-1.02
-2.42
-3.26
-3.21
-2.14
-0.22
2.14
4.43
6.24
7.42
8.08
8.44
8.67
8.87
8.99
8.97
8.82
8.64
8.58
8.71
8.98
9.22
9.16
8.61
7.53
6.08
4.55
3.32
2.66
2.64
3.17
3.93
4.57
4.78
4.44
3.65
2.71
1.99
1.74
1.98
2.42
2.62
2.17
0.89
-1.11
-3.48
-5.79
-7.64
-8.73
-8.92
-8.14
-6.48
-4.13
-1.33
1.67
4.74
7.83
10.93
13.92
16.60
18.67
19.94
20.42
20.33
19.97
19.64
19.51
19.55
19.63
19.52
18.98
17.84
16.10
13.98
11.83
10.04
8.86
8.24
7.88
7.34
6.24
4.43
2.04
-0.61
-3.18
-5.41
-7.15
-8.41
-9.28
-9.96
-10.70
-11.71
-13.07
-14.71
-16.42
-17.96
-19.17
-20.11
-21.01
-22.12
-23.55
-25.17
-26.69
-27.73
-27.93
-26.97
-24.57
-20.52
-14.78
-7.63
0.24
7.85
14.15
18.27
19.77
18.69
15.54
11.08
6.25
1.98
-0.95
-2.11
-1.64
-0.29
0.82
0.57
-1.67
-5.84
-11.17
-16.57
-21.02
-23.85
-24.83
-24.04
-21.77
-18.40
-14.44
-10.46
-7.07
-4.81
-3.98
-4.56
-6.22
-8.40
-10.43
-11.67
-11.71
-10.44
-8.14
-5.36
-2.70
-0.53
1.16
2.69
4.44
6.62
9.13
11.62
13.76
15.44
16.80
18.11
19.53
20.94
22.02
22.47
22.26
21.70
21.30
21.45
22.12
22.90
23.20
22.59
20.99
18.63
15.86
12.90
9.81
6.60
3.42
0.57
-1.60
-2.98
-3.81
-4.59
-5.80
-7.61
-9.76
-11.63
-12.54
-11.99
-9.85
-6.36
-2.15
1.88
4.68
5.43
3.79
0.24
-4.04
-7.60
-9.33
-8.95
-7.04
-4.66
-2.70
-1.46
-0.68
0.14
1.25
2.51
3.45
3.72
3.30
2.61
2.21
2.54
3.63
5.02
5.99
5.84
4.11
0.83
-3.50
-8.04
-11.84
-14.21
-14.89
-14.14
-12.60
-10.96
-9.68
-8.85
-8.29
-7.75
-7.16
-6.67
-6.51
-6.80
-7.38
-7.81
-7.63
-6.59
-4.85
-2.87
-1.20
-0.15
0.27
0.33
0.31
0.28
0.18
-0.17
-0.82
-1.70
-2.59
-3.31
-3.76
-3.93
-3.78
-3.19
-2.06
-0.47
1.32
2.87
3.84
4.18
4.16
4.21
4.59
5.26
5.88
6.08
5.73
5.00
4.29
3.95
4.02
4.21
4.11
3.43
2.20
0.80
-0.32
-0.78
-0.55
0.07
0.61
0.67
0.17
-0.63
-1.21
-1.04
0.18
2.40
5.22
8.01
10.12
11.12
10.91
9.75
8.23
7.03
6.72
7.55
9.33
11.49
13.27
14.05
13.56
12.09
10.28
8.89
8.44
8.96
9.99
10.84
10.91
9.99
8.29
6.24
4.24
2.43
0.73
-1.04
-2.98
-5.01
-6.93
-8.51
-9.59
-10.13
-10.26
-10.17
-10.07
-10.12
-10.36
-10.70
-10.98
-11.17
-11.33
-11.65
-12.23
-13.02
-13.72
-13.99
-13.55
-12.29
-10.34
-7.86
-5.01
-1.90
1.35
4.51
7.27
9.36
10.64
11.14
11.04
10.47
9.46
7.96
5.92
3.48
1.04
-0.85
-1.68
-1.22
0.34
2.46
4.37
5.34
4.83
2.58
-1.42
-6.92
-13.48
-20.52
-27.37
-33.32
-37.69
-39.92
-39.66
-36.90
-32.03
-25.87
-19.49
-13.95
-9.91
-7.44
-6.06
-4.95
-3.34
-0.76
2.80
7.08
11.70
16.32
20.69
24.61
27.90
30.39
31.90
32.33
31.73
30.27
28.25
25.99
23.80
21.86
20.17
18.62
17.03
15.24
13.18
10.93
8.59
6.21
3.76
1.14
-1.70
-4.70
-7.61
-10.11
-11.90
-12.88
-13.10
-12.77
-12.12
-11.37
-10.68
-10.13
-9.76
-9.59
-9.59
-9.71
-9.83
-9.82
-9.53
-8.88
-7.85
-6.47
-4.86
-3.15
-1.45
0.26
2.08
4.18
6.65
9.43
12.26
14.75
16.56
17.57
17.90
17.87
17.79
17.87
18.11
18.36
18.43
18.19
17.55
16.45
14.82
12.65
10.03
7.23
4.69
2.74
1.53
0.92
0.54
0.01
-0.90
-2.15
-3.55
-4.88
-6.05
-7.15
-8.28
-9.46
-10.50
-11.16
-11.16
-10.45
-9.20
-7.74
-6.44
-5.52
-4.99
-4.74
-4.58
-4.37
-4.09
-3.74
-3.32
-2.72
-1.76
-0.31
1.65
3.90
6.10
7.87
8.95
9.31
9.10
8.59
8.05
7.66
7.47
7.51
7.68
7.89
8.05
8.03
7.78
7.24
6.43
5.42
4.27
3.09
1.98
1.02
0.25
-0.39
-0.97
-1.57
-2.23
-2.90
-3.52
-4.04
-4.37
-4.40
-4.00
-3.05
-1.56
0.29
2.15
3.60
4.35
4.38
3.94
3.39
3.06
3.05
3.18
3.15
2.64
1.52
-0.16
-2.21
-4.44
-6.72
-8.98
-11.20
-13.32
-15.19
-16.66
-17.61
-18.02
-17.99
-17.65
-17.16
-16.63
-16.11
-15.64
-15.20
-14.76
-14.26
-13.64
-12.83
-11.80
-10.63
-9.42
-8.36
-7.56
-7.07
-6.79
-6.47
-5.88
-4.83
-3.28
-1.35
0.70
2.60
4.18
5.43
6.46
7.39
8.32
9.19
9.86
10.19
10.14
9.81
9.38
9.06
8.96
9.04
9.18
9.29
9.39
9.65
10.27
11.32
12.68
14.06
15.13
15.67
15.60
15.01
13.99
12.61
10.90
8.92
6.81
4.77
2.99
1.50
0.19
-1.18
-2.86
-4.92
-7.28
-9.69
-11.81
-13.36
-14.21
-14.35
-13.91
-13.14
-12.35
-11.82
-11.77
-12.26
-13.16
-14.19
-15.01
-15.39
-15.21
-14.56
-13.63
-12.60
-11.55
-10.41
-9.04
-7.33
-5.27
-2.97
-0.60
1.68
3.80
5.72
7.43
8.94
10.19
11.19
11.94
12.55
13.11
13.71
14.27
14.65
14.62
14.05
12.95
11.51
10.08
9.04
8.64
8.94
9.75
10.72
11.43
11.58
11.07
10.00
8.64
7.29
6.16
5.35
4.79
4.32
3.75
2.86
1.50
-0.36
-2.64
-5.14
-7.60
-9.75
-11.45
-12.69
-13.60
-14.42
-15.37
-16.62
-18.22
-20.11
-22.05
-23.79
-25.03
-25.57
-25.32
-24.29
-22.64
-20.56
-18.26
-16.00
-13.97
-12.37
-11.25
-10.51
-9.97
-9.33
-8.40
-7.16
-5.77
-4.50
-3.50
-2.75
-2.03
-1.09
0.19
1.67
3.04
3.94
4.25
4.09
3.82
3.81
4.29
5.20
6.32
7.31
7.91
8.04
7.79
7.38
7.09
7.15
7.65
8.47
9.31
9.78
9.54
8.38
6.33
3.58
0.41
-2.88
-5.99
-8.66
-10.64
-11.74
-11.91
-11.27
-10.11
-8.81
-7.71
-6.94
-6.42
-5.88
-5.02
-3.67
-1.82
0.33
2.52
4.52
6.23
7.65
8.82
9.77
10.41
10.64
10.44
9.89
9.20
8.59
8.15
7.84
7.47
6.85
5.92
4.76
3.53
2.40
1.45
0.60
-0.26
-1.26
-2.41
-3.57
-4.51
-4.91
-4.58
-3.45
-1.70
0.33
2.22
3.59
4.21
4.09
3.40
2.46
1.56
0.87
0.48
0.33
0.31
0.33
0.36
0.41
0.54
0.78
1.10
1.47
1.83
2.17
2.52
2.96
3.53
4.26
5.05
5.77
6.26
6.44
6.35
6.18
6.16
6.47
7.15
8.13
9.27
10.48
11.75
13.18
14.82
16.61
18.29
19.46
19.78
19.07
17.49
15.44
13.36
11.57
10.09
8.73
7.16
5.18
2.77
0.14
-2.45
-4.81
-6.87
-8.71
-10.36
-11.81
-12.91
-13.47
-13.32
-12.49
-11.09
-9.35
-7.48
-5.60
-3.69
-1.71
0.35
2.38
4.08
5.10
5.17
4.33
2.92
1.54
0.77
0.94
1.97
3.41
4.66
5.31
5.25
4.71
4.08
3.69
3.63
3.76
3.75
3.27
2.12
0.32
-1.93
-4.35
-6.65
-8.68
-10.44
-12.11
-13.88
-15.89
-18.12
-20.42
-22.55
-24.34
-25.74
-26.79
-27.60
-28.26
-28.77
-29.10
-29.19
-29.02
-28.60
-27.91
-26.87
-25.34
-23.19
-20.35
-16.94
-13.22
-9.55
-6.27
-3.56
-1.42
0.31
1.88
3.52
5.33
7.28
9.21
10.91
12.20
12.96
13.20
12.98
12.42
11.62
10.64
9.56
8.39
7.23
6.10
5.06
4.13
3.30
2.54
1.82
1.09
0.34
-0.42
-1.16
-1.85
-2.54
-3.38
-4.55
-6.15
-8.09
-9.99
-11.33
-11.64
-10.71
-8.74
-6.17
-3.52
-1.14
0.86
2.59
4.18
5.79
7.47
9.26
11.20
13.27
15.32
17.11
18.31
18.66
18.09
16.75
14.95
13.02
11.22
9.66
8.36
7.24
6.17
5.00
3.58
1.86
-0.15
-2.27
-4.27
-5.94
-7.19
-8.08
-8.79
-9.48
-10.25
-11.08
-11.91
-12.63
-13.15
-13.39
-13.23
-12.58
-11.37
-9.65
-7.61
-5.54
-3.68
-2.20
-1.08
-0.18
0.67
1.54
2.38
3.06
3.47
3.58
3.47
3.29
3.16
3.11
3.11
3.05
2.87
2.51
2.00
1.39
0.72
0.03
-0.67
-1.36
-2.03
-2.68
-3.33
-3.97
-4.58
-5.10
-5.43
-5.53
-5.44
-5.24
-5.09
-5.15
-5.47
-6.04
-6.77
-7.49
-7.96
-7.96
-7.34
-6.06
-4.28
-2.30
-0.48
0.90
1.74
2.19
2.51
3.02
3.89
5.13
6.58
7.98
9.14
9.91
10.31
10.41
10.34
10.23
10.14
10.08
10.00
9.86
9.65
9.39
9.14
8.93
8.75
8.59
8.40
8.18
7.98
7.83
7.75
7.73
7.70
7.62
7.44
7.18
6.87
6.53
6.21
5.92
5.63
5.29
4.83
4.17
3.38
2.65
2.26
2.48
3.39
4.84
6.47
7.87
8.77
9.10
9.00
8.72
8.44
8.24
8.13
8.05
8.01
7.97
7.90
7.68
7.15
6.20
4.80
3.06
1.16
-0.73
-2.53
-4.21
-5.81
-7.31
-8.70
-9.94
-10.99
-11.83
-12.43
-12.77
-12.83
-12.69
-12.48
-12.40
-12.60
-13.11
-13.78
-14.43
-14.85
-14.99
-14.89
-14.65
-14.33
-13.96
-13.51
-13.00
-12.43
-11.76
-10.91
-9.71
-8.04
-5.84
-3.25
-0.51
2.13
4.48
6.51
8.32
10.03
11.72
13.39
14.95
16.33
17.53
18.63
19.75
20.98
22.35
23.73
24.96
25.83
26.20
26.06
25.46
24.51
23.29
21.83
20.12
18.10
15.75
13.09
10.23
7.32
4.52
1.94
-0.38
-2.49
-4.45
-6.30
-8.01
-9.48
-10.63
-11.42
-11.90
-12.21
-12.54
-13.05
-13.87
-15.05
-16.54
-18.19
-19.77
-20.99
-21.55
-21.27
-20.10
-18.21
-15.94
-13.67
-11.76
-10.40
-9.57
-9.11
-8.77
-8.36
-7.81
-7.17
-6.57
-6.09
-5.73
-5.41
-5.05
-4.58
-4.05
-3.56
-3.27
-3.24
-3.46
-3.78
-3.97
-3.90
-3.53
-2.97
-2.40
-1.98
-1.74
-1.60
-1.38
-0.96
-0.34
0.34
0.87
1.06
0.88
0.42
-0.09
-0.43
-0.45
-0.15
0.31
0.70
0.79
0.43
-0.34
-1.41
-2.55
-3.54
-4.20
-4.37
-4.01
-3.11
-1.73
-0.05
1.69
3.23
4.34
4.95
5.13
5.09
5.06
5.24
5.68
6.35
7.14
7.99
8.83
9.63
10.32
10.82
11.03
10.92
10.55
10.03
9.48
8.94
8.37
7.71
6.90
5.94
4.91
3.88
2.93
2.12
1.47
0.99
0.64
0.31
-0.07
-0.56
-1.13
-1.61
-1.81
-1.62
-1.11
-0.53
-0.20
-0.39
-1.16
-2.40
-3.88
-5.43
-6.97
-8.49
-9.89
-11.00
-11.52
-11.22
-10.05
-8.22
-6.15
-4.27
-2.89
-2.08
-1.74
-1.64
-1.54
-1.30
-0.85
-0.23
0.47
1.13
1.70
2.18
2.68
3.26
3.94
4.66
5.29
5.69
5.84
5.75
5.48
5.05
4.40
3.49
2.37
1.21
0.27
-0.24
-0.32
-0.14
-0.03
-0.25
-0.89
-1.77
-2.66
-3.34
-3.74
-3.98
-4.20
-4.49
-4.83
-5.16
-5.48
-5.95
-6.75
-7.98
-9.53
-11.04
-12.01
-12.08
-11.11
-9.30
-7.06
-4.83
-2.94
-1.50
-0.50
0.19
0.68
1.08
1.40
1.67
1.84
1.89
1.82
1.68
1.54
1.46
1.45
1.48
1.47
1.39
1.21
0.98
0.78
0.65
0.65
0.77
0.98
1.18
1.28
1.19
0.86
0.36
-0.17
-0.55
-0.65
-0.52
-0.28
-0.17
-0.35
-0.87
-1.65
-2.48
-3.17
-3.63
-3.87
-4.02
-4.23
-4.60
-5.13
-5.75
-6.32
-6.72
-6.83
-6.55
-5.83
-4.66
-3.12
-1.36
0.40
1.96
3.25
4.30
5.23
6.16
7.15
8.13
9.03
9.82
10.53
11.26
12.07
12.92
13.69
14.25
14.52
14.58
14.59
14.77
15.27
16.10
17.09
18.03
18.66
18.86
18.62
18.05
17.31
16.54
15.83
15.20
14.61
14.04
13.44
12.80
12.01
10.98
9.55
7.66
5.33
2.69
-0.05
-2.70
-5.16
-7.39
-9.36
-10.99
-12.11
-12.54
-12.19
-11.15
-9.65
-8.02
-6.50
-5.20
-4.13
-3.17
-2.26
-1.38
-0.58
0.12
0.73
1.36
2.14
3.15
4.38
5.67
6.83
7.68
8.20
8.51
8.83
9.32
10.01
10.72
11.17
11.07
10.30
8.95
7.21
5.36
3.57
1.92
0.38
-1.13
-2.65
-4.20
-5.72
-7.13
-8.34
-9.28
-9.94
-10.35
-10.62
-10.87
-11.19
-11.63
-12.14
-12.61
-12.89
-12.86
-12.44
-11.59
-10.36
-8.85
-7.26
-5.75
-4.47
-3.44
-2.56
-1.69
-0.71
0.33
1.27
1.93
2.16
2.02
1.68
1.36
1.22
1.26
1.40
1.53
1.61
1.66
1.68
1.68
1.58
1.33
0.91
0.44
0.07
-0.05
0.11
0.46
0.84
1.06
1.02
0.73
0.28
-0.25
-0.75
-1.18
-1.51
-1.77
-2.00
-2.29
-2.70
-3.28
-4.07
-5.06
-6.17
-7.30
-8.25
-8.77
-8.67
-7.81
-6.27
-4.34
-2.39
-0.80
0.24
0.76
0.97
1.10
1.30
1.56
1.81
1.93
1.93
1.90
2.00
2.32
2.89
3.57
4.20
4.60
4.68
4.45
3.98
3.36
2.65
1.87
1.03
0.16
-0.70
-1.52
-2.30
-3.04
-3.77
-4.49
-5.18
-5.79
-6.31
-6.78
-7.23
-7.70
-8.24
-8.88
-9.65
-10.51
-11.41
-12.23
-12.85
-13.23
-13.39
-13.39
-13.32
-13.16
-12.79
-12.02
-10.66
-8.65
-6.04
-3.01
0.17
3.21
5.87
8.00
9.50
10.41
10.77
10.70
10.31
9.75
9.18
8.74
8.55
8.62
8.87
9.14
9.27
9.16
8.82
8.36
7.89
7.47
7.09
6.68
6.18
5.57
4.86
4.12
3.40
2.71
2.01
1.20
0.18
-1.12
-2.69
-4.44
-6.20
-7.80
-9.11
-10.11
-10.88
-11.52
-12.12
-12.65
-12.98
-12.94
-12.42
-11.44
-10.18
-8.87
-7.72
-6.79
-6.02
-5.28
-4.47
-3.62
-2.85
-2.29
-2.02
-1.95
-1.92
-1.73
-1.27
-0.54
0.34
1.20
1.92
2.43
2.75
2.97
3.16
3.37
3.54
3.60
3.50
3.22
2.86
2.54
2.33
2.25
2.18
2.02
1.71
1.30
0.90
0.64
0.52
0.42
0.15
-0.48
-1.50
-2.80
-4.14
-5.28
-6.03
-6.31
-6.15
-5.63
-4.83
-3.81
-2.62
-1.30
0.09
1.51
2.94
4.33
5.62
6.70
7.48
7.88
7.89
7.59
7.13
6.67
6.36
6.30
6.50
6.97
7.64
8.39
9.06
9.48
9.53
9.21
8.63
8.02
7.65
7.67
8.10
8.76
9.38
9.69
9.54
8.93
7.93
6.66
5.21
3.64
1.99
0.30
-1.32
-2.79
-4.05
-5.07
-5.87
-6.50
-7.01
-7.45
-7.86
-8.24
-8.55
-8.70
-8.61
-8.25
-7.69
-7.04
-6.43
-5.90
-5.42
-4.91
-4.37
-3.90
-3.70
-3.99
-4.83
-6.05
-7.32
-8.27
-8.66
-8.50
-8.06
-7.69
-7.64
-8.01
-8.69
-9.57
-10.59
-11.83
-13.39
-15.31
-17.43
-19.46
-21.09
-22.17
-22.78
-23.23
-23.93
-25.15
-26.93
-29.00
-30.88
-32.03
-32.10
-30.99
-28.87
-26.11
-23.05
-19.93
-16.82
-13.70
-10.54
-7.39
-4.35
-1.48
1.19
3.67
6.00
8.16
10.09
11.67
12.84
13.60
14.07
14.37
14.62
14.87
15.11
15.29
15.40
15.44
15.47
15.51
15.51
15.38
15.00
14.27
13.17
11.78
10.25
8.76
7.46
6.45
5.73
5.18
4.60
3.69
2.21
0.02
-2.80
-5.94
-8.92
-11.25
-12.56
-12.73
-11.87
-10.27
-8.29
-6.20
-4.15
-2.15
-0.14
2.01
4.31
6.68
8.92
10.81
12.19
13.02
13.42
13.59
13.72
13.90
14.16
14.47
14.79
15.16
15.62
16.19
16.79
17.22
17.27
16.77
15.68
14.17
12.55
11.16
10.23
9.78
9.62
9.45
9.02
8.20
7.06
5.77
4.51
3.37
2.36
1.43
0.51
-0.47
-1.58
-2.94
-4.62
-6.63
-8.81
-10.88
-12.51
-13.42
-13.53
-12.95
-11.92
-10.71
-9.51
-8.38
-7.26
-6.07
-4.75
-3.29
-1.76
-0.23
1.20
2.51
3.66
4.65
5.51
6.25
6.85
7.29
7.54
7.59
7.44
7.13
6.73
6.32
5.95
5.66
5.47
5.41
5.51
5.83
6.39
7.11
7.83
8.34
8.45
8.07
7.28
6.26
5.21
4.28
3.50
2.80
2.11
1.39
0.66
-0.03
-0.67
-1.25
-1.78
-2.17
-2.29
-1.98
-1.14
0.21
1.92
3.79
5.66
7.47
9.21
10.89
12.44
13.73
14.58
14.88
14.60
13.85
12.81
11.67
10.57
9.57
8.64
7.69
6.63
5.43
4.09
2.71
1.39
0.17
-0.93
-1.96
-2.96
-3.93
-4.78
-5.41
-5.74
-5.78
-5.61
-5.39
-5.22
-5.15
-5.15
-5.12
-4.99
-4.72
-4.39
-4.13
-4.09
-4.42
-5.14
-6.20
-7.44
-8.63
-9.55
-10.06
-10.07
-9.61
-8.74
-7.56
-6.23
-4.90
-3.71
-2.72
-1.92
-1.25
-0.61
0.04
0.68
1.24
1.65
1.93
2.14
2.38
2.70
3.06
3.37
3.52
3.50
3.34
3.16
3.00
2.90
2.78
2.57
2.22
1.72
1.15
0.60
0.15
-0.13
-0.22
-0.12
0.17
0.58
0.98
1.22
1.17
0.78
0.14
-0.61
-1.34
-2.01
-2.67
-3.38
-4.13
-4.79
-5.14
-4.97
-4.21
-2.99
-1.55
-0.13
1.09
2.14
3.09
4.03
4.98
5.79
6.30
6.33
5.84
4.91
3.72
2.50
1.42
0.59
0.01
-0.35
-0.57
-0.69
-0.73
-0.70
-0.61
-0.52
-0.50
-0.67
-1.07
-1.67
-2.35
-2.96
-3.40
-3.64
-3.72
-3.70
-3.59
-3.35
-2.95
-2.41
-1.88
-1.60
-1.79
-2.59
-3.98
-5.77
-7.67
-9.35
-10.53
-11.03
-10.75
-9.72
-8.07
-6.04
-3.95
-2.12
-0.79
-0.02
0.30
0.42
0.61
1.05
1.79
2.73
3.74
4.70
5.58
6.37
7.05
7.60
8.02
8.32
8.55
8.76
8.94
9.01
8.88
8.52
7.98
7.42
6.97
6.73
6.66
6.67
6.64
6.49
6.18
5.69
5.03
4.24
3.41
2.67
2.12
1.71
1.30
0.64
-0.44
-1.97
-3.75
-5.41
-6.58
-6.99
-6.61
-5.64
-4.43
-3.35
-2.62
-2.25
-2.06
-1.77
-1.18
-0.25
0.85
1.82
2.43
2.59
2.39
2.08
1.87
1.88
2.05
2.23
2.22
1.96
1.46
0.88
0.36
0.07
0.05
0.25
0.55
0.80
0.85
0.64
0.19
-0.44
-1.18
-1.96
-2.79
-3.65
-4.48
-5.19
-5.70
-6.03
-6.29
-6.66
-7.20
-7.79
-8.13
-7.82
-6.62
-4.58
-2.03
0.53
2.63
4.06
4.87
5.30
5.63
6.02
6.46
6.82
6.93
6.72
6.23
5.58
4.91
4.30
3.78
3.33
2.95
2.63
2.36
2.12
1.85
1.49
0.97
0.27
-0.59
-1.54
-2.51
-3.39
-4.04
-4.42
-4.52
-4.45
-4.42
-4.58
-5.02
-5.70
-6.51
-7.27
-7.88
-8.20
-8.15
-7.68
-6.79
-5.53
-4.11
-2.74
-1.61
-0.81
-0.31
0.01
0.23
0.40
0.52
0.61
0.71
0.91
1.28
1.86
2.58
3.35
4.06
4.64
5.08
5.39
5.62
5.82
6.02
6.20
6.34
6.34
6.16
5.79
5.26
4.69
4.13
3.61
3.08
2.43
1.52
0.31
-1.18
-2.76
-4.16
-5.08
-5.31
-4.79
-3.67
-2.25
-0.86
0.25
1.00
1.48
1.84
2.23
2.70
3.21
3.63
3.79
3.53
2.76
1.49
-0.18
-2.02
-3.83
-5.47
-6.88
-8.07
-9.07
-9.88
-10.46
-10.79
-10.93
-11.02
-11.16
-11.43
-11.75
-11.98
-11.92
-11.48
-10.72
-9.80
-8.96
-8.41
-8.28
-8.53
-9.03
-9.54
-9.80
-9.59
-8.82
-7.52
-5.86
-4.05
-2.32
-0.78
0.56
1.79
3.05
4.43
5.92
7.43
8.82
9.94
10.68
11.06
11.16
11.06
10.83
10.47
10.01
9.46
8.87
8.27
7.62
6.83
5.77
4.37
2.65
0.74
-1.21
-3.06
-4.76
-6.33
-7.85
-9.33
-10.77
-12.05
-13.04
-13.60
-13.60
-13.00
-11.79
-10.01
-7.73
-5.02
-1.96
1.31
4.64
7.83
10.75
13.38
15.76
17.94
19.93
21.65
22.97
23.82
24.20
24.23
24.04
23.67
23.06
22.12
20.86
19.41
18.01
16.87
16.09
15.58
15.12
14.48
13.52
12.22
10.66
8.93
7.09
5.08
2.81
0.16
-2.97
-6.63
-10.80
-15.34
-20.00
-24.43
-28.26
-31.21
-33.17
-34.27
-34.80
-35.07
-35.26
-35.39
-35.29
-34.75
-33.72
-32.34
-30.92
-29.79
-29.08
-28.70
-28.32
-27.62
-26.38
-24.61
-22.55
-20.45
-18.51
-16.73
-15.02
-13.24
-11.35
-9.41
-7.59
-6.01
-4.75
-3.78
-3.01
-2.34
-1.70
-1.09
-0.56
-0.20
-0.06
-0.18
-0.53
-1.11
-1.83
-2.59
-3.25
-3.61
-3.51
-2.84
-1.62
0.07
2.10
4.31
6.55
8.68
10.57
12.15
13.41
14.42
15.27
16.00
16.59
16.98
17.16
17.16
17.06
16.94
16.80
16.58
16.17
15.51
14.60
13.50
12.29
11.01
9.68
8.29
6.79
5.19
3.52
1.91
0.50
-0.62
-1.48
-2.22
-3.03
-4.07
-5.36
-6.80
-8.20
-9.37
-10.14
-10.36
-9.95
-8.85
-7.13
-5.00
-2.77
-0.78
0.76
1.85
2.64
3.36
4.15
5.03
5.91
6.69
7.35
7.92
8.48
9.04
9.55
9.91
10.03
9.90
9.56
9.12
8.69
8.35
8.15
8.03
7.89
7.55
6.90
5.88
4.59
3.24
2.01
1.02
0.21
-0.63
-1.67
-3.02
-4.57
-6.07
-7.21
-7.75
-7.53
-6.58
-5.03
-3.03
-0.78
1.57
3.91
6.14
8.12
9.70
10.68
10.85
10.07
8.35
5.85
2.88
-0.22
-3.16
-5.72
-7.77
-9.23
-10.06
-10.28
-10.00
-9.39
-8.65
-7.94
-7.35
-6.84
-6.33
-5.78
-5.22
-4.74
-4.43
-4.32
-4.41
-4.67
-5.07
-5.56
-6.04
-6.37
-6.37
-5.89
-4.92
-3.54
-1.98
-0.47
0.80
1.76
2.48
3.12
3.83
4.70
5.67
6.62
7.38
7.80
7.89
7.75
7.58
7.49
7.51
7.55
7.52
7.38
7.20
7.10
7.17
7.37
7.55
7.50
7.10
6.36
5.39
4.36
3.36
2.41
1.46
0.48
-0.55
-1.57
-2.59
-3.63
-4.76
-6.00
-7.24
-8.24
-8.69
-8.40
-7.36
-5.81
-4.12
-2.59
-1.34
-0.27
0.80
1.99
3.30
4.58
5.68
6.56
7.24
7.80
8.25
8.54
8.56
8.33
7.93
7.56
7.37
7.40
7.58
7.73
7.73
7.53
7.16
6.70
6.14
5.48
4.67
3.75
2.83
2.02
1.40
0.97
0.62
0.20
-0.42
-1.32
-2.50
-3.91
-5.37
-6.67
-7.57
-7.86
-7.50
-6.56
-5.24
-3.72
-2.19
-0.74
0.55
1.64
2.50
3.16
3.71
4.24
4.84
5.47
6.06
6.51
6.77
6.87
6.88
6.81
6.66
6.38
5.95
5.44
4.93
4.49
4.12
3.77
3.33
2.76
2.05
1.25
0.45
-0.26
-0.81
-1.20
-1.48
-1.76
-2.17
-2.85
-3.84
-5.07
-6.41
-7.67
-8.65
-9.20
-9.19
-8.60
-7.49
-6.07
-4.57
-3.23
-2.18
-1.42
-0.82
-0.24
0.43
1.17
1.90
2.54
3.04
3.40
3.66
3.86
4.02
4.18
4.34
4.51
4.70
4.82
4.79
4.55
4.10
3.53
2.98
2.57
2.31
2.13
1.86
1.39
0.71
-0.02
-0.63
-0.97
-1.07
-1.09
-1.27
-1.76
-2.55
-3.53
-4.52
-5.35
-5.95
-6.29
-6.35
-6.11
-5.57
-4.74
-3.74
-2.68
-1.67
-0.76
0.08
0.88
1.68
2.40
2.98
3.34
3.51
3.56
3.65
3.83
4.10
4.33
4.36
4.11
3.65
3.15
2.82
2.76
2.90
3.04
2.96
2.59
2.03
1.47
1.09
0.93
0.85
0.70
0.33
-0.22
-0.83
-1.33
-1.60
-1.67
-1.64
-1.67
-1.86
-2.23
-2.75
-3.31
-3.80
-4.11
-4.19
-4.04
-3.74
-3.40
-3.15
-3.00
-2.90
-2.70
-2.24
-1.45
-0.38
0.83
1.94
2.78
3.22
3.28
3.07
2.77
2.55
2.54
2.74
3.11
3.52
3.89
4.17
4.36
4.47
4.50
4.46
4.35
4.25
4.22
4.28
4.39
4.45
4.39
4.17
3.84
3.53
3.33
3.26
3.21
3.04
2.57
1.72
0.54
-0.81
-2.09
-3.12
-3.77
-4.07
-4.11
-4.01
-3.84
-3.64
-3.40
-3.15
-2.90
-2.70
-2.58
-2.52
-2.47
-2.41
-2.32
-2.24
-2.21
-2.21
-2.20
-2.08
-1.80
-1.35
-0.85
-0.45
-0.33
-0.53
-1.03
-1.64
-2.20
-2.57
-2.73
-2.76
-2.80
-2.94
-3.19
-3.48
-3.73
-3.91
-4.04
-4.24
-4.60
-5.17
-5.91
-6.70
-7.39
-7.90
-8.19
-8.28
-8.15
-7.75
-7.03
-5.94
-4.56
-3.03
-1.55
-0.27
0.73
1.48
2.06
2.54
2.98
3.35
3.63
3.81
3.90
3.96
4.00
4.00
3.95
3.77
3.45
3.05
2.65
2.37
2.29
2.39
2.62
2.85
2.99
2.96
2.77
2.44
1.99
1.47
0.88
0.25
-0.42
-1.13
-1.90
-2.74
-3.69
-4.74
-5.82
-6.85
-7.69
-8.19
-8.29
-7.96
-7.27
-6.33
-5.24
-4.13
-3.09
-2.17
-1.42
-0.87
-0.51
-0.32
-0.25
-0.24
-0.20
-0.07
0.21
0.61
1.01
1.29
1.36
1.19
0.90
0.62
0.47
0.49
0.62
0.77
0.83
0.73
0.45
0.04
-0.43
-0.89
-1.33
-1.76
-2.23
-2.81
-3.53
-4.34
-5.15
-5.87
-6.47
-6.96
-7.34
-7.57
-7.56
-7.22
-6.55
-5.64
-4.66
-3.72
-2.86
-2.02
-1.15
-0.24
0.63
1.35
1.83
2.07
2.11
2.03
1.89
1.71
1.50
1.28
1.13
1.12
1.26
1.51
1.74
1.83
1.68
1.25
0.54
-0.42
-1.60
-2.95
-4.40
-5.82
-7.10
-8.12
-8.85
-9.30
-9.57
-9.77
-10.02
-10.39
-10.86
-11.33
-11.62
-11.53
-10.93
-9.82
-8.34
-6.67
-4.99
-3.39
-1.81
-0.19
1.50
3.21
4.82
6.21
7.32
8.14
8.72
9.07
9.19
9.04
8.67
8.15
7.59
7.07
6.59
6.07
5.45
4.72
3.99
3.38
3.01
2.89
2.95
3.09
3.23
3.37
3.49
3.62
3.69
3.64
3.38
2.89
2.20
1.41
0.67
0.15
-0.02
0.24
0.93
1.96
3.20
4.52
5.81
7.03
8.15
9.15
9.98
10.58
10.91
11.00
10.93
10.85
10.87
11.03
11.25
11.38
11.25
10.78
10.04
9.22
8.56
8.19
8.13
8.22
8.25
8.00
7.36
6.35
5.09
3.77
2.55
1.51
0.63
-0.24
-1.29
-2.66
-4.41
-6.49
-8.70
-10.78
-12.46
-13.51
-13.83
-13.46
-12.62
-11.55
-10.50
-9.59
-8.84
-8.21
-7.61
-7.01
-6.39
-5.75
-5.07
-4.31
-3.46
-2.57
-1.71
-0.97
-0.40
-0.00
0.28
0.46
0.54
0.49
0.26
-0.20
-0.90
-1.86
-3.03
-4.34
-5.66
-6.78
-7.53
-7.78
-7.54
-7.00
-6.43
-6.11
-6.19
-6.64
-7.22
-7.64
-7.64
-7.12
-6.20
-5.13
-4.18
-3.57
-3.32
-3.35
-3.46
-3.52
-3.40
-3.07
-2.46
-1.54
-0.26
1.36
3.20
5.07
6.76
8.11
9.04
9.60
9.90
10.00
9.92
9.60
8.96
7.98
6.74
5.38
4.12
3.11
2.42
1.97
1.61
1.19
0.57
-0.26
-1.28
-2.38
-3.42
-4.25
-4.71
-4.65
-3.98
-2.72
-1.03
0.83
2.58
4.01
5.05
5.80
6.44
7.10
7.80
8.46
8.89
8.97
8.69
8.14
7.48
6.82
6.22
5.65
5.08
4.53
4.08
3.78
3.61
3.41
2.97
2.11
0.83
-0.69
-2.11
-3.13
-3.63
-3.69
-3.60
-3.64
-3.98
-4.61
-5.36
-6.00
-6.35
-6.28
-5.79
-4.91
-3.72
-2.32
-0.85
0.52
1.65
2.46
2.96
3.24
3.42
3.58
3.78
4.01
4.27
4.61
5.05
5.60
6.21
6.75
7.09
7.10
6.76
6.13
5.30
4.39
3.44
2.43
1.36
0.22
-0.92
-1.96
-2.81
-3.48
-4.03
-4.61
-5.39
-6.48
-7.92
-9.63
-11.47
-13.24
-14.76
-15.88
-16.56
-16.86
-16.95
-17.00
-17.13
-17.34
-17.51
-17.48
-17.13
-16.46
-15.58
-14.64
-13.72
-12.82
-11.83
-10.63
-9.14
-7.35
-5.32
-3.13
-0.86
1.41
3.61
5.67
7.50
9.03
10.18
10.87
11.00
10.51
9.38
7.73
5.77
3.76
1.98
0.63
-0.18
-0.44
-0.22
0.34
1.07
1.76
2.27
2.58
2.83
3.31
4.29
5.88
7.92
10.03
11.78
12.86
13.19
13.00
12.65
12.46
12.64
13.20
14.04
15.09
16.30
17.71
19.35
21.20
23.19
25.27
27.43
29.72
32.03
33.95
34.66
33.23
28.92
21.68
12.33
2.31
-6.76
-13.65
-17.88
-19.64
-19.53
-18.15
-15.95
-13.23
-10.26
-7.42
-5.10
-3.55
-2.73
-2.26
-1.56
-0.13
2.29
5.51
9.00
12.09
14.23
15.22
15.22
14.64
13.91
13.28
12.78
12.25
11.50
10.46
9.14
7.67
6.17
4.72
3.32
1.93
0.54
-0.83
-2.12
-3.27
-4.20
-4.86
-5.26
-5.46
-5.57
-5.69
-5.88
-6.12
-6.35
-6.50
-6.53
-6.48
-6.42
-6.40
-6.39
-6.26
-5.84
-4.95
-3.52
-1.56
0.79
3.29
5.67
7.64
8.95
9.43
9.02
7.81
6.01
3.89
1.73
-0.24
-1.90
-3.24
-4.31
-5.24
-6.10
-6.97
-7.85
-8.70
-9.49
-10.20
-10.82
-11.35
-11.79
-12.13
-12.39
-12.60
-12.81
-13.01
-13.23
-13.40
-13.51
-13.59
-13.70
-13.88
-14.16
-14.46
-14.66
-14.60
-14.15
-13.21
-11.79
-9.98
-7.98
-6.01
-4.29
-2.94
-1.94
-1.16
-0.46
0.26
1.04
1.77
2.35
2.72
2.86
2.82
2.71
2.59
2.54
2.57
2.67
2.79
2.85
2.77
2.51
2.05
1.42
0.70
-0.02
-0.65
-1.15
-1.52
-1.82
-2.17
-2.66
-3.37
-4.26
-5.20
-6.00
-6.45
-6.40
-5.82
-4.80
-3.56
-2.31
-1.22
-0.35
0.31
0.86
1.37
1.90
2.43
2.97
3.49
3.96
4.34
4.55
4.58
4.42
4.14
3.89
3.77
3.82
3.99
4.14
4.14
3.91
3.44
2.83
2.13
1.40
0.61
-0.27
-1.23
-2.17
-2.97
-3.51
-3.80
-3.98
-4.29
-4.91
-5.88
-7.06
-8.19
-9.04
-9.47
-9.50
-9.20
-8.61
-7.72
-6.48
-4.92
-3.14
-1.37
0.14
1.22
1.86
2.22
2.48
2.81
3.23
3.70
4.08
4.28
4.28
4.08
3.75
3.36
2.96
2.62
2.37
2.27
2.30
2.41
2.50
2.48
2.29
1.98
1.62
1.22
0.81
0.34
-0.22
-0.85
-1.45
-1.95
-2.30
-2.54
-2.77
-3.14
-3.75
-4.61
-5.69
-6.85
-7.93
-8.75
-9.17
-9.09
-8.50
-7.49
-6.19
-4.79
-3.43
-2.24
-1.24
-0.42
0.29
0.98
1.70
2.46
3.22
3.90
4.42
4.74
4.87
4.89
4.86
4.86
4.89
4.93
4.97
5.02
5.15
5.44
5.94
6.65
7.42
8.04
8.28
7.97
7.10
5.80
4.25
2.68
1.21
-0.08
-1.18
-2.09
-2.83
-3.38
-3.75
-3.97
-4.06
-4.07
-4.03
-3.98
-3.99
-4.12
-4.45
-5.01
-5.78
-6.63
-7.35
-7.69
-7.44
-6.52
-5.01
-3.14
-1.22
0.48
1.80
2.74
3.36
3.74
3.89
3.81
3.49
3.02
2.53
2.17
2.03
2.08
2.20
2.26
2.15
1.86
1.45
1.03
0.69
0.51
0.49
0.59
0.71
0.76
0.67
0.43
0.11
-0.23
-0.53
-0.82
-1.16
-1.63
-2.26
-3.02
-3.85
-4.65
-5.37
-5.99
-6.52
-7.00
-7.50
-8.07
-8.71
-9.34
-9.80
-9.94
-9.64
-8.90
-7.82
-6.55
-5.25
-4.00
-2.86
-1.83
-0.89
-0.05
0.72
1.42
2.07
2.67
3.26
3.88
4.55
5.31
6.08
6.74
7.16
7.22
6.94
6.46
5.95
5.57
5.34
5.24
5.16
5.01
4.78
4.51
4.26
4.06
3.92
3.81
3.74
3.71
3.69
3.64
3.48
3.12
2.51
1.71
0.83
-0.01
-0.74
-1.37
-1.94
-2.44
-2.83
-2.97
-2.73
-2.13
-1.30
-0.47
0.13
0.40
0.44
0.44
0.57
0.88
1.25
1.48
1.44
1.16
0.81
0.59
0.59
0.78
0.95
0.93
0.65
0.16
-0.36
-0.77
-0.99
-1.06
-1.08
-1.16
-1.34
-1.60
-1.87
-2.09
-2.24
-2.33
-2.43
-2.61
-2.94
-3.39
-3.93
-4.48
-4.99
-5.47
-5.97
-6.57
-7.29
-8.08
-8.79
-9.24
-9.25
-8.74
-7.72
-6.30
-4.71
-3.17
-1.88
-0.93
-0.31
0.06
0.36
0.73
1.24
1.90
2.64
3.32
3.83
4.09
4.09
3.86
3.52
3.16
2.92
2.88
3.09
3.57
4.28
5.13
6.00
6.76
7.25
7.39
7.22
6.83
6.36
5.93
5.57
5.23
4.82
4.31
3.74
3.19
2.75
2.48
2.35
2.33
2.40
2.56
2.80
3.10
3.35
3.42
3.24
2.78
2.15
1.49
0.94
0.56
0.33
0.16
-0.06
-0.36
-0.73
-1.12
-1.47
-1.77
-2.08
-2.45
-2.84
-3.17
-3.30
-3.19
-2.89
-2.57
-2.44
-2.58
-2.93
-3.33
-3.61
-3.73
-3.75
-3.81
-4.00
-4.29
-4.54
-4.62
-4.48
-4.21
-3.96
-3.89
-4.08
-4.47
-4.89
-5.15
-5.10
-4.70
-4.06
-3.33
-2.65
-2.08
-1.58
-1.07
-0.49
0.15
0.78
1.31
1.69
1.95
2.13
2.28
2.39
2.43
2.40
2.30
2.17
2.06
2.01
2.04
2.14
2.26
2.28
2.12
1.70
1.02
0.19
-0.63
-1.30
-1.74
-1.99
-2.17
-2.37
-2.67
-3.01
-3.32
-3.50
-3.51
-3.39
-3.25
-3.26
-3.53
-4.12
-5.00
-5.98
-6.81
-7.25
-7.10
-6.35
-5.13
-3.67
-2.23
-1.00
-0.03
0.70
1.29
1.83
2.35
2.85
3.24
3.46
3.50
3.39
3.19
2.96
2.71
2.44
2.15
1.85
1.61
1.46
1.43
1.47
1.54
1.58
1.60
1.57
1.50
1.35
1.08
0.68
0.22
-0.26
-0.72
-1.16
-1.57
-1.93
-2.14
-2.16
-1.98
-1.72
-1.55
-1.66
-2.07
-2.72
-3.47
-4.23
-5.00
-5.82
-6.69
-7.49
-8.02
-8.07
-7.58
-6.66
-5.58
-4.59
-3.88
-3.44
-3.15
-2.84
-2.41
-1.82
-1.18
-0.63
-0.34
-0.36
-0.69
-1.25
-1.90
-2.49
-2.96
-3.33
-3.72
-4.30
-5.23
-6.58
-8.31
-10.29
-12.35
-14.32
-16.05
-17.42
-18.35
-18.87
-19.13
-19.41
-19.98
-20.96
-22.25
-23.42
-24.02
-23.73
-22.58
-20.96
-19.36
-18.20
-17.58
-17.37
-17.32
-17.26
-17.22
-17.32
-17.68
-18.22
-18.62
-18.39
-17.10
-14.49
-10.68
-6.00
-0.96
4.03
8.71
13.04
17.00
20.54
23.51
25.76
27.31
28.46
29.68
31.39
33.68
36.15
38.06
38.69
37.70
35.34
32.29
29.38
27.19
25.86
25.08
24.36
23.28
21.69
19.74
17.80
16.31
15.55
15.52
15.92
16.26
16.03
14.91
12.90
10.23
7.27
4.33
1.53
-1.14
-3.77
-6.46
-9.15
-11.72
-13.96
-15.62
-16.48
-16.40
-15.38
-13.52
-11.09
-8.40
-5.70
-3.19
-0.93
1.08
2.88
4.52
6.06
7.57
9.13
10.76
12.37
13.73
14.55
14.50
13.41
11.30
8.37
4.96
1.43
-1.96
-5.06
-7.84
-10.29
-12.46
-14.35
-15.91
-17.12
-17.93
-18.36
-18.49
-18.47
-18.50
-18.77
-19.38
-20.30
-21.38
-22.41
-23.26
-23.88
-24.38
-24.89
-25.47
-26.00
-26.21
-25.71
-24.16
-21.35
-17.32
-12.34
-6.81
-1.22
4.02
8.58
12.23
14.88
16.48
17.09
16.90
16.21
15.42
14.92
14.98
15.63
16.64
17.67
18.37
18.59
18.42
18.08
17.84
17.83
18.00
18.20
18.23
17.98
17.44
16.68
15.77
14.72
13.50
12.08
10.52
9.04
7.89
7.23
6.99
6.88
6.52
5.66
4.35
2.91
1.79
1.36
1.75
2.85
4.39
6.08
7.66
9.02
10.09
10.90
11.55
12.18
12.93
13.89
15.08
16.44
17.90
19.36
20.72
21.85
22.61
22.86
22.53
21.70
20.48
19.06
17.55
16.04
14.53
13.01
11.41
9.64
7.62
5.28
2.66
-0.07
-2.73
-5.10
-7.09
-8.75
-10.20
-11.61
-13.15
-14.94
-17.11
-19.72
-22.67
-25.71
-28.34
-30.01
-30.29
-29.07
-26.62
-23.49
-20.31
-17.57
-15.44
-13.86
-12.56
-11.20
-9.56
-7.49
-4.99
-2.16
0.83
3.75
6.40
8.60
10.29
11.52
12.51
13.56
14.96
16.93
19.48
22.46
25.65
28.84
31.92
34.87
37.71
40.43
42.91
44.98
46.46
47.18
47.02
45.95
44.01
41.29
37.94
34.06
29.75
25.03
19.90
14.33
8.36
2.08
-4.29
-10.44
-15.92
-20.26
-23.08
-24.17
-23.67
-21.97
-19.61
-17.14
-14.91
-13.11
-11.81
-11.02
-10.83
-11.32
-12.61
-14.70
-17.51
-20.90
-24.70
-28.83
-33.27
-38.08
-43.27
-48.70
-54.06
-58.86
-62.53
-64.50
-64.33
-61.79
-56.96
-50.31
-42.55
-34.50
-26.84
-19.89
-13.63
-7.87
-2.47
2.45
6.61
9.76
11.88
13.25
14.22
15.04
15.73
16.10
16.08
15.80
15.68
16.16
17.43
19.30
21.23
22.61
23.04
22.51
21.33
19.93
18.68
17.68
16.84
15.94
14.80
13.41
11.83
10.23
8.70
7.31
6.10
5.14
4.53
4.36
4.63
5.18
5.70
5.87
5.48
4.50
3.16
1.88
1.09
1.12
2.06
3.67
5.45
6.81
7.22
6.44
4.62
2.26
0.11
-1.13
-0.95
0.79
3.87
7.81
12.07
16.20
19.98
23.37
26.47
29.37
32.04
34.30
35.97
36.87
37.00
36.55
35.82
35.11
34.67
34.58
34.79
35.14
35.46
35.57
35.30
34.46
32.85
30.33
26.84
22.48
17.50
12.24
7.04
2.18
-2.13
-5.79
-8.75
-11.05
-12.79
-14.18
-15.45
-16.79
-18.28
-19.85
-21.34
-22.55
-23.34
-23.65
-23.55
-23.15
-22.58
-21.94
-21.29
-20.65
-20.02
-19.44
-18.99
-18.74
-18.73
-18.92
-19.24
-19.54
-19.76
-19.89
-19.98
-20.11
-20.29
-20.50
-20.65
-20.65
-20.43
-19.98
-19.33
-18.52
-17.68
-16.94
-16.42
-16.21
-16.27
-16.47
-16.66
-16.72
-16.60
-16.37
-16.15
-16.11
-16.38
-17.02
-17.97
-19.00
-19.81
-20.05
-19.46
-17.94
-15.59
-12.65
-9.45
-6.34
-3.57
-1.35
0.24
1.23
1.76
2.09
2.50
3.26
4.48
6.09
7.84
9.35
10.17
9.98
8.69
6.49
3.86
1.42
-0.21
-0.65
0.12
1.80
3.82
5.63
6.79
7.16
6.78
5.88
4.67
3.35
2.05
0.89
-0.04
-0.63
-0.83
-0.62
-0.04
0.82
1.82
2.84
3.76
4.44
4.83
4.90
4.69
4.28
3.73
3.05
2.24
1.28
0.16
-1.09
-2.43
-3.77
-5.03
-6.08
-6.80
-7.08
-6.92
-6.38
-5.60
-4.74
-3.91
-3.14
-2.46
-1.86
-1.42
-1.25
-1.40
-1.87
-2.56
-3.27
-3.81
-4.04
-3.94
-3.61
-3.21
-2.93
-2.90
-3.14
-3.54
-3.90
-3.99
-3.60
-2.64
-1.16
0.71
2.76
4.80
6.66
8.22
9.40
10.19
10.59
10.72
10.77
10.92
11.31
11.92
12.60
13.07
13.10
12.66
11.90
11.09
10.44
10.00
9.62
9.08
8.24
7.11
5.84
4.62
3.55
2.56
1.51
0.21
-1.48
-3.61
-6.14
-8.98
-11.93
-14.75
-17.14
-18.83
-19.67
-19.65
-18.91
-17.73
-16.44
-15.38
-14.79
-14.77
-15.22
-15.94
-16.73
-17.47
-18.19
-19.04
-20.22
-21.79
-23.68
-25.65
-27.40
-28.61
-29.04
-28.53
-27.05
-24.69
-21.68
-18.33
-15.02
-12.03
-9.51
-7.47
-5.80
-4.38
-3.10
-1.94
-0.95
-0.19
0.30
0.52
0.54
0.52
0.60
0.92
1.53
2.41
3.49
4.70
5.98
7.28
8.59
9.86
11.01
11.96
12.63
13.01
13.16
13.15
13.12
13.15
13.28
13.47
13.60
13.53
13.23
12.74
12.20
11.74
11.38
11.02
10.49
9.69
8.62
7.44
6.35
5.49
4.84
4.23
3.41
2.18
0.47
-1.57
-3.66
-5.46
-6.66
-7.08
-6.74
-5.81
-4.56
-3.27
-2.14
-1.27
-0.63
-0.07
0.53
1.31
2.24
3.23
4.07
4.56
4.58
4.15
3.43
2.62
1.97
1.58
1.45
1.47
1.46
1.31
1.00
0.63
0.31
0.11
0.02
-0.05
-0.18
-0.44
-0.78
-1.17
-1.58
-2.05
-2.59
-3.18
-3.67
-3.84
-3.50
-2.56
-1.16
0.41
1.79
2.77
3.32
3.61
3.88
4.32
4.96
5.67
6.25
6.53
6.47
6.14
5.68
5.26
5.02
5.02
5.24
5.61
6.04
6.40
6.63
6.71
6.62
6.35
5.88
5.16
4.24
3.24
2.31
1.54
0.91
0.22
-0.71
-1.92
-3.22
-4.25
-4.62
-4.14
-2.97
-1.47
-0.05
1.04
1.80
2.41
3.05
3.79
4.51
5.07
5.36
5.39
5.23
4.95
4.58
4.10
3.50
2.85
2.27
1.87
1.65
1.53
1.37
1.06
0.60
0.05
-0.46
-0.89
-1.28
-1.74
-2.37
-3.21
-4.20
-5.18
-6.01
-6.57
-6.81
-6.72
-6.37
-5.80
-5.09
-4.30
-3.49
-2.67
-1.86
-1.02
-0.15
0.77
1.68
2.52
3.19
3.61
3.75
3.67
3.51
3.39
3.43
3.63
3.90
4.12
4.16
3.98
3.63
3.24
2.94
2.80
2.78
2.76
2.58
2.11
1.31
0.25
-0.94
-2.12
-3.18
-4.03
-4.57
-4.72
-4.45
-3.77
-2.79
-1.72
-0.75
0.01
0.58
1.06
1.54
2.08
2.64
3.16
3.58
3.89
4.12
4.29
4.41
4.47
4.42
4.29
4.11
3.95
3.83
3.72
3.52
3.11
2.42
1.45
0.33
-0.76
-1.61
-2.10
-2.24
-2.16
-2.09
-2.27
-2.80
-3.67
-4.72
-5.72
-6.44
-6.77
-6.67
-6.21
-5.48
-4.60
-3.67
-2.77
-1.99
-1.37
-0.89
-0.48
-0.05
0.46
1.04
1.64
2.16
2.56
2.80
2.92
2.96
2.96
2.93
2.88
2.81
2.70
2.54
2.33
2.10
1.84
1.57
1.27
0.92
0.49
-0.01
-0.58
-1.13
-1.62
-2.00
-2.27
-2.48
-2.68
-2.94
-3.25
-3.55
-3.75
-3.74
-3.47
-2.97
-2.36
-1.73
-1.16
-0.65
-0.11
0.56
1.42
2.44
3.48
4.39
5.02
5.28
5.21
4.91
4.48
4.06
3.74
3.54
3.43
3.33
3.16
2.87
2.50
2.13
1.85
1.69
1.58
1.40
1.05
0.50
-0.19
-0.88
-1.46
-1.91
-2.28
-2.67
-3.13
-3.68
-4.25
-4.75
-5.09
-5.20
-5.06
-4.68
-4.15
-3.57
-3.07
-2.73
-2.54
-2.46
-2.44
-2.46
-2.54
-2.74
-3.11
-3.64
-4.30
-4.99
-5.64
-6.19
-6.60
-6.88
-7.05
-7.17
-7.26
-7.34
-7.35
-7.25
-7.02
-6.68
-6.33
-6.06
-5.95
-6.03
-6.26
-6.58
-6.93
-7.23
-7.40
-7.38
-7.13
-6.63
-5.91
-4.99
-3.94
-2.81
-1.66
-0.54
0.54
1.58
2.63
3.70
4.78
5.78
6.56
7.04
7.16
7.02
6.73
6.45
6.27
6.22
6.26
6.33
6.36
6.29
6.08
5.73
5.27
4.74
4.19
3.61
3.00
2.33
1.62
0.89
0.16
-0.56
-1.31
-2.15
-3.11
-4.17
-5.22
-6.10
-6.61
-6.63
-6.13
-5.22
-4.13
-3.10
-2.31
-1.78
-1.40
-0.99
-0.39
0.39
1.22
1.88
2.22
2.21
1.96
1.65
1.39
1.22
1.09
0.97
0.88
0.91
1.13
1.50
1.89
2.11
2.04
1.67
1.11
0.51
-0.05
-0.56
-1.07
-1.63
-2.25
-2.85
-3.34
-3.62
-3.67
-3.48
-3.07
-2.46
-1.63
-0.57
0.70
2.07
3.42
4.60
5.51
6.16
6.61
6.94
7.19
7.31
7.23
6.93
6.48
6.02
5.66
5.38
5.04
4.44
3.48
2.20
0.84
-0.34
-1.13
-1.50
-1.58
-1.54
-1.51
-1.56
-1.64
-1.71
-1.79
-1.94
-2.26
-2.88
-3.87
-5.27
-7.01
-8.98
-10.99
-12.81
-14.23
-15.11
-15.46
-15.43
-15.22
-15.06
-15.08
-15.33
-15.71
-15.98
-15.80
-14.75
-12.43
-8.62
-3.37
2.97
9.81
16.59
22.90
28.56
33.54
37.81
41.18
43.30
43.81
42.60
39.99
36.67
33.52
31.19
29.81
28.87
27.43
24.49
19.40
12.17
3.40
-5.89
-14.54
-21.59
-26.45
-28.97
-29.41
-28.34
-26.47
-24.41
-22.55
-20.94
-19.41
-17.69
-15.59
-13.11
-10.39
-7.66
-5.09
-2.82
-0.89
0.66
1.82
2.62
3.19
3.72
4.44
5.51
7.00
8.80
10.66
12.36
13.70
14.63
15.17
15.31
15.00
14.10
12.60
10.68
8.93
8.14
9.16
12.50
18.05
25.09
32.49
39.07
43.98
46.79
47.50
46.30
43.47
39.26
34.04
28.28
22.54
17.36
12.97
9.28
5.82
1.98
-2.72
-8.51
-15.22
-22.45
-29.63
-36.28
-42.08
-46.95
-51.04
-54.62
-57.95
-61.13
-64.08
-66.57
-68.37
-69.39
-69.71
-69.46
-68.78
-67.64
-65.88
-63.18
-59.21
-53.71
-46.62
-38.12
-28.65
-18.81
-9.16
-0.12
8.19
15.82
22.91
29.49
35.48
40.79
45.32
49.03
51.83
53.56
54.05
53.28
51.49
49.15
46.70
44.30
41.77
38.69
34.77
30.07
25.04
20.23
16.08
12.66
9.80
7.24
4.87
2.72
0.91
-0.53
-1.70
-2.78
-3.90
-5.17
-6.56
-8.05
-9.59
-11.09
-12.46
-13.62
-14.58
-15.47
-16.48
-17.68
-18.93
-19.89
-20.16
-19.57
-18.30
-16.81
-15.63
-15.08
-15.16
-15.58
-15.98
-16.12
-15.85
-15.14
-13.92
-12.18
-10.01
-7.69
-5.63
-4.26
-3.85
-4.41
-5.74
-7.50
-9.45
-11.47
-13.58
-15.88
-18.37
-20.96
-23.40
-25.40
-26.66
-26.99
-26.35
-24.80
-22.45
-19.45
-15.91
-11.92
-7.62
-3.11
1.58
6.55
12.02
18.19
25.08
32.33
39.24
44.95
48.71
50.24
49.86
48.33
46.51
44.96
43.68
42.20
39.84
36.16
31.12
25.19
19.04
13.25
8.02
3.20
-1.58
-6.58
-11.79
-16.83
-21.20
-24.37
-26.06
-26.32
-25.45
-23.96
-22.36
-21.05
-20.24
-19.88
-19.76
-19.57
-19.09
-18.21
-17.00
-15.62
-14.18
-12.67
-10.97
-8.94
-6.50
-3.67
-0.55
2.67
5.69
8.03
9.01
7.83
3.85
-3.09
-12.45
-22.80
-32.16
-38.49
-40.20
-36.78
-28.87
-18.10
-6.51
4.08
12.53
18.54
22.46
24.94
26.65
28.14
29.80
31.83
34.12
36.16
37.02
35.75
31.87
25.85
19.10
13.54
10.69
10.96
13.37
15.99
16.80
14.51
9.06
1.50
-6.54
-13.51
-18.41
-20.90
-21.20
-19.89
-17.63
-15.07
-12.76
-11.14
-10.47
-10.81
-12.02
-13.78
-15.67
-17.29
-18.33
-18.65
-18.33
-17.58
-16.67
-15.76
-14.87
-13.77
-12.16
-9.77
-6.53
-2.61
1.62
5.73
9.38
12.44
14.98
17.18
19.19
21.10
22.89
24.55
26.10
27.63
29.31
31.32
33.82
36.86
40.25
43.52
45.86
46.28
43.95
38.41
29.89
19.24
7.72
-3.30
-12.63
-19.46
-23.37
-24.36
-22.86
-19.65
-15.72
-12.09
-9.55
-8.43
-8.65
-9.81
-11.41
-13.06
-14.51
-15.64
-16.37
-16.63
-16.38
-15.62
-14.49
-13.14
-11.73
-10.30
-8.83
-7.22
-5.35
-3.20
-0.87
1.48
3.65
5.48
6.94
8.06
8.98
9.84
10.72
11.66
12.62
13.55
14.42
15.23
16.06
16.90
17.67
18.14
18.02
17.06
15.18
12.55
9.49
6.44
3.70
1.41
-0.47
-2.06
-3.46
-4.62
-5.42
-5.73
-5.54
-5.04
-4.55
-4.42
-4.93
-6.13
-7.85
-9.73
-11.39
-12.57
-13.18
-13.31
-13.18
-13.02
-12.95
-13.00
-13.07
-12.99
-12.70
-12.22
-11.76
-11.52
-11.61
-11.83
-11.73
-10.72
-8.37
-4.63
0.13
5.26
10.09
14.22
17.59
20.43
23.07
25.76
28.56
31.43
34.30
37.13
39.89
42.57
45.09
47.37
49.36
51.05
52.55
53.93
55.18
56.15
56.58
56.28
55.26
53.83
52.47
51.52
50.84
49.62
46.42
39.55
27.65
10.32
-11.63
-36.18
-60.62
-82.27
-99.12
-110.23
-115.67
-116.19
-112.77
-106.29
-97.45
-86.93
-75.54
-64.27
-54.00
-45.13
-37.38
-29.97
-22.16
-13.88
-5.93
0.20
2.98
1.40
-4.80
-15.18
-28.90
-44.86
-61.60
-77.28
-89.91
-97.90
-100.63
-98.75
-93.78
-87.33
-80.35
-72.83
-64.17
-53.84
-41.85
-28.88
-15.91
-3.81
6.91
16.12
23.82
30.08
34.92
38.48
40.99
42.79
44.20
45.49
46.80
48.22
49.70
51.12
52.24
52.76
52.46
51.28
49.40
47.14
44.85
42.77
40.85
38.93
36.72
34.06
30.92
27.47
23.99
20.79
18.12
16.06
14.56
13.46
12.57
11.71
10.76
9.67
8.47
7.21
5.96
4.77
3.68
2.65
1.66
0.70
-0.20
-0.98
-1.60
-2.09
-2.54
-3.06
-3.73
-4.56
-5.48
-6.43
-7.38
-8.39
-9.48
-10.64
-11.76
-12.70
-13.32
-13.58
-13.54
-13.27
-12.81
-12.18
-11.33
-10.29
-9.12
-7.93
-6.83
-5.82
-4.90
-4.01
-3.08
-2.12
-1.10
-0.04
1.08
2.27
3.55
4.92
6.34
7.78
9.16
10.42
11.45
12.16
12.42
12.10
11.07
9.22
6.49
2.97
-1.10
-5.27
-9.01
-11.89
-13.68
-14.48
-14.64
-14.59
-14.60
-14.67
-14.51
-13.71
-11.89
-8.85
-4.66
0.44
6.06
11.78
17.21
21.98
25.84
28.64
30.38
31.16
31.12
30.43
29.27
27.76
26.04
24.19
22.27
20.34
18.41
16.56
14.85
13.34
12.01
10.75
9.39
7.73
5.64
3.13
0.37
-2.36
-4.81
-6.78
-8.23
-9.28
-10.17
-11.19
-12.55
-14.33
-16.41
-18.50
-20.24
-21.31
-21.53
-21.02
-20.10
-19.25
-18.90
-19.28
-20.31
-21.63
-22.81
-23.46
-23.37
-22.51
-20.96
-18.86
-16.31
-13.44
-10.38
-7.35
-4.56
-2.14
-0.12
1.60
3.14
4.58
5.86
6.85
7.42
7.57
7.42
7.16
7.02
7.08
7.32
7.60
7.79
7.79
7.60
7.23
6.68
5.94
5.02
4.00
3.02
2.25
1.74
1.42
1.08
0.48
-0.55
-1.99
-3.61
-5.10
-6.12
-6.46
-6.09
-5.12
-3.75
-2.22
-0.69
0.73
2.02
3.17
4.20
5.08
5.78
6.29
6.64
6.92
7.20
7.55
7.92
8.22
8.35
8.27
8.04
7.78
7.59
7.55
7.60
7.61
7.44
6.96
6.14
5.02
3.73
2.41
1.24
0.34
-0.23
-0.52
-0.70
-0.97
-1.54
-2.50
-3.82
-5.32
-6.77
-7.88
-8.46
-8.43
-7.81
-6.70
-5.26
-3.65
-1.99
-0.38
1.13
2.51
3.76
4.89
5.90
6.75
7.40
7.82
8.00
7.99
7.88
7.73
7.59
7.44
7.26
7.01
6.71
6.36
6.00
5.62
5.21
4.73
4.17
3.52
2.78
1.95
0.97
-0.18
-1.49
-2.92
-4.37
-5.76
-7.04
-8.23
-9.43
-10.71
-12.11
-13.57
-14.93
-15.96
-16.42
-16.13
-15.02
-13.17
-10.75
-8.01
-5.20
-2.53
-0.16
1.83
3.39
4.57
5.43
6.11
6.74
7.41
8.18
9.01
9.78
10.37
10.66
10.62
10.31
9.86
9.36
8.88
8.39
7.81
7.06
6.12
5.05
3.96
2.95
2.04
1.21
0.38
-0.48
-1.39
-2.31
-3.20
-4.04
-4.89
-5.79
-6.76
-7.74
-8.63
-9.33
-9.85
-10.27
-10.70
-11.19
-11.61
-11.69
-11.11
-9.65
-7.33
-4.43
-1.37
1.44
3.73
5.44
6.63
7.43
7.94
8.23
8.35
8.33
8.21
8.02
7.76
7.44
7.07
6.68
6.31
5.96
5.61
5.21
4.69
4.03
3.22
2.32
1.38
0.49
-0.31
-0.94
-1.36
-1.53
-1.49
-1.35
-1.28
-1.45
-1.93
-2.66
-3.43
-3.98
-4.11
-3.79
-3.18
-2.56
-2.25
-2.48
-3.33
-4.71
-6.38
-8.01
-9.22
-9.63
-8.99
-7.26
-4.67
-1.60
1.45
4.09
6.07
7.37
8.07
8.35
8.33
8.15
7.91
7.70
7.59
7.59
7.68
7.75
7.74
7.57
7.22
6.74
6.19
5.64
5.11
4.62
4.11
3.54
2.84
1.97
0.89
-0.41
-1.89
-3.47
-5.03
-6.48
-7.72
-8.71
-9.50
-10.13
-10.65
-11.09
-11.44
-11.68
-11.79
-11.81
-11.84
-12.02
-12.44
-13.07
-13.67
-13.83
-13.14
-11.34
-8.45
-4.84
-1.04
2.43
5.24
7.35
8.87
9.99
10.84
11.43
11.75
11.79
11.60
11.27
10.93
10.68
10.56
10.56
10.62
10.61
10.43
10.01
9.35
8.54
7.65
6.77
5.92
5.10
4.27
3.41
2.51
1.61
0.70
-0.21
-1.15
-2.13
-3.20
-4.35
-5.56
-6.74
-7.81
-8.70
-9.43
-10.09
-10.85
-11.86
-13.17
-14.66
-16.05
-16.96
-17.07
-16.20
-14.36
-11.83
-8.96
-6.13
-3.60
-1.43
0.42
2.04
3.48
4.71
5.65
6.29
6.70
7.01
7.40
7.93
8.58
9.25
9.84
10.28
10.59
10.78
10.85
10.79
10.58
10.19
9.64
8.94
8.11
7.20
6.26
5.37
4.55
3.74
2.83
1.71
0.36
-1.11
-2.52
-3.68
-4.56
-5.27
-6.03
-7.08
-8.49
-10.19
-11.94
-13.42
-14.29
-14.32
-13.39
-11.58
-9.14
-6.39
-3.70
-1.33
0.54
1.91
2.83
3.38
3.63
3.60
3.31
2.83
2.28
1.83
1.62
1.70
1.97
2.23
2.26
1.95
1.32
0.52
-0.28
-0.99
-1.58
-2.08
-2.54
-2.98
-3.39
-3.77
-4.10
-4.36
-4.52
-4.57
-4.53
-4.49
-4.60
-5.00
-5.79
-6.96
-8.40
-9.88
-11.17
-11.97
-12.05
-11.28
-9.67
-7.38
-4.73
-2.06
0.40
2.48
4.18
5.57
6.70
7.59
8.20
8.52
8.59
8.50
8.42
8.47
8.71
9.04
9.27
9.21
8.76
7.95
6.93
5.88
4.89
3.95
2.94
1.72
0.21
-1.57
-3.47
-5.31
-6.88
-8.03
-8.74
-9.11
-9.32
-9.61
-10.22
-11.25
-12.66
-14.19
-15.45
-15.95
-15.31
-13.37
-10.29
-6.49
-2.50
1.19
4.35
7.00
9.36
11.65
13.92
16.04
17.76
18.84
19.23
19.07
18.65
18.24
17.98
17.81
17.59
17.15
16.48
15.65
14.84
14.15
13.57
13.03
12.43
11.70
10.87
9.98
9.00
7.83
6.36
4.50
2.31
-0.03
-2.29
-4.34
-6.20
-8.03
-10.06
-12.42
-14.99
-17.42
-19.18
-19.74
-18.76
-16.21
-12.42
-7.91
-3.27
1.05
4.75
7.74
9.97
11.41
11.99
11.70
10.64
9.06
7.28
5.62
4.25
3.23
2.51
2.01
1.68
1.51
1.50
1.66
1.94
2.33
2.82
3.41
4.05
4.65
5.02
4.99
4.42
3.28
1.70
-0.14
-2.02
-3.84
-5.58
-7.33
-9.18
-11.22
-13.48
-15.91
-18.39
-20.71
-22.54
-23.50
-23.23
-21.52
-18.42
-14.28
-9.59
-4.89
-0.58
3.15
6.29
8.91
11.06
12.71
13.75
14.11
13.74
12.76
11.35
9.74
8.15
6.69
5.41
4.35
3.55
3.10
3.11
3.60
4.47
5.52
6.47
7.03
7.02
6.38
5.21
3.66
1.93
0.16
-1.61
-3.42
-5.37
-7.52
-9.88
-12.35
-14.75
-16.82
-18.20
-18.57
-17.69
-15.53
-12.33
-8.52
-4.65
-1.15
1.72
3.92
5.57
6.83
7.84
8.73
9.56
10.38
11.15
11.75
12.04
11.90
11.35
10.53
9.67
8.99
8.64
8.65
8.96
9.44
9.98
10.45
10.69
10.58
9.97
8.82
7.15
5.11
2.88
0.66
-1.38
-3.15
-4.65
-5.89
-6.95
-7.87
-8.72
-9.60
-10.61
-11.84
-13.27
-14.67
-15.68
-15.86
-14.92
-12.83
-9.90
-6.65
-3.64
-1.22
0.50
1.69
2.63
3.59
4.68
5.91
7.15
8.26
9.16
9.81
10.28
10.64
10.99
11.35
11.67
11.88
11.91
11.74
11.41
10.98
10.51
9.99
9.35
8.48
7.35
6.00
4.57
3.20
2.02
1.05
0.24
-0.46
-1.13
-1.78
-2.40
-2.97
-3.46
-3.84
-4.10
-4.25
-4.39
-4.66
-5.26
-6.33
-7.93
-9.95
-12.18
-14.35
-16.18
-17.38
-17.73
-17.07
-15.43
-13.00
-10.13
-7.20
-4.54
-2.29
-0.41
1.25
2.84
4.42
5.93
7.25
8.26
8.89
9.16
9.15
8.97
8.69
8.35
7.90
7.30
6.56
5.77
5.05
4.54
4.28
4.15
3.95
3.48
2.69
1.70
0.77
0.15
-0.03
0.10
0.27
0.19
-0.32
-1.25
-2.41
-3.57
-4.54
-5.26
-5.80
-6.34
-7.03
-7.97
-9.14
-10.42
-11.64
-12.59
-13.11
-13.05
-12.34
-10.96
-8.99
-6.64
-4.16
-1.85
0.10
1.62
2.75
3.64
4.38
5.04
5.62
6.10
6.45
6.67
6.81
6.90
6.98
7.05
7.13
7.24
7.42
7.75
8.25
8.92
9.63
10.18
10.35
10.03
9.23
8.15
7.05
6.13
5.46
4.97
4.46
3.76
2.77
1.55
0.25
-0.98
-2.07
-3.07
-4.12
-5.32
-6.71
-8.19
-9.65
-10.98
-12.17
-13.19
-13.99
-14.38
-14.10
-12.88
-10.62
-7.37
-3.36
1.14
5.87
10.63
15.24
19.57
23.47
26.78
29.28
30.90
31.75
32.30
33.32
35.68
39.96
46.11
53.49
61.07
67.98
73.89
79.05
83.96
88.87
93.51
97.12
98.91
98.56
96.36
92.98
88.98
84.25
77.77
67.77
52.33
30.21
1.44
-32.67
-70.09
-108.82
-147.42
-185.09
-221.11
-254.35
-283.18
-305.69
-320.36
-326.43
-324.00
-313.63
-296.03
-272.03
-243.09
-211.67
-181.18
-155.29
-136.72
-126.17
-121.99
-120.42
-116.84
-107.10
-88.79
-61.85
-28.47
7.70
42.70
73.25
97.44
114.76
125.81
131.79
134.06
133.81
131.98
129.23
125.94
122.27
118.25
113.86
109.15
104.26
99.32
94.49
89.92
85.67
81.78
78.18
74.68
71.00
66.78
61.76
55.87
49.30
42.52
36.15
30.76
26.71
24.01
22.35
21.25
20.27
19.19
18.03
16.98
16.28
16.02
16.15
16.41
16.49
16.16
15.34
14.13
12.77
11.52
10.56
9.89
9.37
8.78
7.94
6.85
5.61
4.40
3.34
2.44
1.60
0.69
-0.35
-1.50
-2.67
-3.78
-4.78
-5.66
-6.40
-6.94
-7.16
-6.99
-6.41
-5.56
-4.67
-3.99
-3.68
-3.81
-4.34
-5.20
-6.28
-7.48
-8.61
-9.48
-9.89
-9.72
-8.97
-7.77
-6.31
-4.76
-3.20
-1.62
0.02
1.82
3.86
6.23
9.00
12.21
15.81
19.67
23.65
27.57
31.34
34.93
38.32
41.48
44.29
46.56
48.03
48.47
47.79
46.06
43.57
40.79
38.23
36.25
34.96
34.12
33.19
31.56
28.68
24.34
18.70
12.23
5.56
-0.74
-6.25
-10.80
-14.34
-16.90
-18.55
-19.38
-19.61
-19.50
-19.32
-19.19
-19.09
-18.89
-18.45
-17.80
-17.08
-16.46
-15.91
-15.25
-14.15
-12.40
-10.05
-7.43
-4.96
-2.96
-1.52
-0.53
0.13
0.50
0.47
-0.05
-1.03
-2.24
-3.34
-4.01
-4.12
-3.71
-3.03
-2.35
-1.95
-1.96
-2.41
-3.20
-4.16
-5.09
-5.83
-6.32
-6.63
-6.86
-7.12
-7.47
-7.90
-8.38
-8.90
-9.50
-10.29
-11.35
-12.69
-14.21
-15.73
-16.97
-17.69
-17.71
-16.99
-15.65
-13.94
-12.12
-10.42
-8.91
-7.57
-6.32
-5.10
-3.93
-2.88
-2.00
-1.27
-0.61
0.13
0.99
1.97
2.97
3.90
4.72
5.41
5.99
6.41
6.59
6.41
5.79
4.73
3.35
1.77
0.10
-1.57
-3.21
-4.74
-6.05
-7.03
-7.63
-7.86
-7.90
-7.96
-8.24
-8.82
-9.64
-10.55
-11.36
-11.90
-12.02
-11.64
-10.66
-9.05
-6.81
-4.08
-1.06
1.95
4.70
7.02
8.89
10.37
11.60
12.68
13.69
14.63
15.48
16.18
16.70
17.05
17.31
17.59
17.98
18.47
18.98
19.38
19.52
19.36
18.88
18.16
17.28
16.33
15.43
14.68
14.12
13.72
13.39
13.01
12.55
12.09
11.81
11.90
12.44
13.36
14.48
15.48
16.06
15.95
15.03
13.30
10.85
7.81
4.29
0.31
-4.14
-9.01
-14.12
-19.15
-23.73
-27.53
-30.32
-31.99
-32.50
-31.83
-30.07
-27.42
-24.25
-21.05
-18.26
-16.12
-14.65
-13.64
-12.84
-12.04
-11.17
-10.29
-9.52
-8.99
-8.74
-8.75
-8.92
-9.14
-9.32
-9.46
-9.63
-9.94
-10.45
-11.14
-11.89
-12.61
-13.30
-14.07
-15.07
-16.39
-17.94
-19.43
-20.50
-20.89
-20.48
-19.35
-17.61
-15.38
-12.74
-9.81
-6.81
-4.09
-2.02
-0.83
-0.50
-0.81
-1.34
-1.76
-1.81
-1.44
-0.72
0.18
1.12
1.96
2.57
2.87
2.86
2.60
2.26
1.99
1.89
1.93
1.95
1.72
1.09
0.05
-1.23
-2.52
-3.54
-4.16
-4.34
-4.19
-3.84
-3.43
-3.08
-2.82
-2.63
-2.40
-1.88
-0.81
1.10
3.96
7.68
11.92
16.18
19.96
22.86
24.72
25.53
25.46
24.71
23.50
22.08
20.67
19.54
18.88
18.82
19.37
20.41
21.78
23.33
24.98
26.71
28.50
30.30
31.92
33.08
33.47
32.85
31.10
28.34
24.83
20.91
16.93
13.13
9.62
6.44
3.55
0.92
-1.52
-3.86
-6.12
-8.31
-10.31
-11.97
-13.15
-13.77
-13.88
-13.60
-13.03
-12.21
-11.16
-9.89
-8.50
-7.24
-6.40
-6.21
-6.77
-7.95
-9.48
-10.98
-12.17
-12.86
-12.98
-12.62
-11.86
-10.81
-9.54
-8.13
-6.65
-5.20
-3.86
-2.72
-1.75
-0.94
-0.24
0.29
0.55
0.37
-0.33
-1.56
-3.24
-5.23
-7.42
-9.69
-11.92
-13.89
-15.33
-15.99
-15.77
-14.76
-13.23
-11.51
-9.86
-8.34
-6.83
-5.20
-3.42
-1.62
-0.05
1.09
1.77
2.12
2.38
2.71
3.18
3.69
4.13
4.44
4.60
4.61
4.42
3.94
3.08
1.87
0.46
-0.92
-2.07
-2.97
-3.70
-4.40
-5.16
-5.99
-6.84
-7.71
-8.67
-9.82
-11.19
-12.65
-13.84
-14.36
-13.89
-12.38
-10.09
-7.47
-4.98
-2.94
-1.47
-0.53
0.00
0.16
-0.10
-0.85
-2.08
-3.66
-5.30
-6.68
-7.51
-7.67
-7.23
-6.41
-5.47
-4.62
-3.95
-3.43
-2.94
-2.37
-1.69
-0.95
-0.28
0.20
0.39
0.30
-0.02
-0.48
-0.99
-1.50
-1.97
-2.37
-2.67
-2.79
-2.64
-2.14
-1.25
0.03
1.62
3.42
5.30
7.14
8.83
10.31
11.60
12.74
13.80
14.78
15.63
16.21
16.39
16.07
15.34
14.35
13.28
12.29
11.43
10.65
9.89
9.06
8.06
6.82
5.25
3.28
0.92
-1.72
-4.47
-7.12
-9.53
-11.62
-13.41
-14.99
-16.42
-17.67
-18.57
-18.89
-18.41
-17.05
-15.00
-12.68
-10.62
-9.24
-8.74
-9.03
-9.79
-10.61
-11.13
-11.11
-10.43
-9.13
-7.35
-5.34
-3.36
-1.61
-0.17
1.02
2.13
3.30
4.60
5.95
7.23
8.40
9.44
10.45
11.50
12.51
13.31
13.68
13.49
12.77
11.70
10.54
9.43
8.35
7.16
5.72
4.05
2.38
1.09
0.52
0.85
2.01
3.70
5.56
7.24
8.52
9.31
9.65
9.64
9.43
9.17
8.94
8.77
8.60
8.33
7.84
7.06
5.97
4.64
3.22
1.91
0.90
0.32
0.16
0.29
0.48
0.50
0.20
-0.42
-1.23
-2.04
-2.66
-2.98
-2.96
-2.69
-2.33
-2.08
-2.15
-2.61
-3.35
-4.09
-4.49
-4.31
-3.50
-2.26
-0.93
0.13
0.71
0.77
0.43
-0.19
-1.00
-2.02
-3.27
-4.73
-6.27
-7.69
-8.81
-9.58
-10.17
-10.85
-11.86
-13.19
-14.51
-15.25
-14.84
-12.93
-9.59
-5.22
-0.41
4.31
8.63
12.40
15.58
18.11
19.85
20.69
20.60
19.68
18.16
16.30
14.32
12.40
10.60
8.95
7.42
6.00
4.67
3.47
2.47
1.74
1.33
1.21
1.29
1.47
1.69
1.87
1.96
1.86
1.44
0.67
-0.42
-1.65
-2.80
-3.65
-4.10
-4.16
